1490985556288,0,-112,-69,-72,-84,38,-44,37,-62
1490985556288,0,-67,-89,27,-9,-28,94,13,-26
1490985556296,1,90,10,34,27,-37,91,7,52
1490985556296,1,37,-1,-8,-1,-20,60,8,11
1490985556296,2,47,23,15,27,-31,90,-19,45
1490985556296,2,-34,10,-7,-12,2,-8,-16,-24
1490985556337,3,10,-7,-50,-16,2,2,-20,-25
1490985556337,3,-19,10,39,18,-18,23,-48,5
1490985556338,0,-55,-5,-15,2,-5,-15,19,-28
1490985556338,0,84,11,0,-4,12,-47,0,26
1490985556339,1,-10,-16,-5,8,2,17,-1,-4
1490985556339,1,-44,-46,-21,4,6,-31,1,-20
1490985556340,2,45,39,16,-30,-2,-34,-10,-5
1490985556340,2,19,20,0,6,1,34,25,27
1490985556385,3,9,4,9,5,11,-5,-1,-4
1490985556385,3,-63,-26,-1,11,15,-1,35,6
1490985556386,0,39,25,18,-12,-12,-1,-22,5
1490985556386,0,-79,-60,-30,16,-11,-1,-1,5
1490985556388,1,28,68,7,-4,16,-53,17,3
1490985556388,1,23,-26,14,-5,6,-1,-15,-15
1490985556434,2,22,-50,20,27,-11,13,11,13
1490985556434,2,81,60,-3,-13,7,-17,-28,7
1490985556435,3,-86,-8,-17,-6,-9,1,17,2
1490985556435,3,-39,-23,2,-16,4,-19,10,2
1490985556436,0,67,68,0,12,1,-2,4,-3
1490985556436,0,44,23,15,-9,0,-1,-11,-6
1490985556437,2,-32,9,16,51,6,42,-3,12
1490985556437,2,16,-22,2,14,-1,32,18,0
1490985556483,3,-68,-12,3,-37,-3,-29,-4,-9
1490985556483,3,81,-11,-40,22,-1,16,-2,-5
1490985556484,0,91,34,34,-22,10,-18,24,50
1490985556484,0,-86,-16,-14,20,6,3,-13,-21
1490985556485,3,29,-5,19,-5,10,-14,-24,-23
1490985556485,3,-35,53,-4,44,13,15,27,44
1490985556486,0,19,25,96,44,12,21,-39,-42
1490985556486,0,3,47,-51,-19,-8,14,23,19
1490985556531,1,35,-32,-4,-13,-6,-12,-3,-39
1490985556531,1,-50,50,-27,5,-3,-44,-9,23
1490985556533,2,27,-112,45,-26,3,-10,20,6
1490985556533,2,-38,89,-38,7,1,2,-31,30
1490985556533,0,-80,-35,-64,47,13,13,70,18
1490985556533,0,-45,-9,60,-21,2,-26,-28,-71
1490985556535,1,99,47,37,29,-9,33,-30,33
1490985556535,1,-103,-5,-77,-23,-1,38,-7,-27
1490985556580,2,76,-49,22,-55,-3,-30,-5,-14
1490985556580,2,-36,-104,-19,43,-2,-33,37,9
1490985556582,3,-8,41,1,-89,-13,-70,-2,-18
1490985556582,3,60,-12,50,39,2,-15,23,17
1490985556583,0,-64,66,22,81,18,38,-55,-16
1490985556583,0,52,44,-40,-38,5,36,58,99
1490985556584,1,-34,-66,-3,-13,7,33,-37,-60
1490985556584,1,-57,-32,-69,-128,-27,0,24,-20
1490985556630,2,-103,-106,41,44,1,20,0,-11
1490985556630,2,127,68,-27,23,2,-21,-31,-24
1490985556631,3,-58,-14,5,62,32,18,21,70
1490985556631,3,-71,-12,123,90,8,-23,14,-10
1490985556632,1,39,-3,4,48,14,-1,37,31
1490985556632,1,51,-116,-92,84,18,52,-20,-11
1490985556633,2,1,79,39,-20,-47,21,37,19
1490985556633,2,43,-72,-17,-59,-9,-9,0,-24
1490985556678,3,-81,-39,-67,-46,3,-18,-7,-6
1490985556678,3,127,85,127,93,8,-9,11,27
1490985556679,0,-120,-10,-68,4,7,26,-10,2
1490985556679,0,-10,-71,-18,-67,-20,1,4,20
1490985556680,2,-39,96,99,58,20,-2,3,36
1490985556680,2,-36,-1,-89,-39,-27,28,-1,-46
1490985556681,3,-26,-21,-39,-90,-13,-25,21,8
1490985556681,3,-47,-6,-25,-34,1,26,-21,-45
1490985556726,0,125,51,-92,-18,4,-9,-11,-18
1490985556726,0,-87,117,127,108,37,-10,2,63
1490985556728,1,-15,64,-111,42,16,55,29,68
1490985556728,1,50,-17,48,-128,-49,-33,-3,-40
1490985556729,3,92,127,111,111,33,14,27,73
1490985556729,3,-128,-12,-120,26,12,-26,6,-89
1490985556729,0,82,-20,-65,-102,-72,40,23,11
1490985556729,0,-90,-52,92,70,20,-55,-20,-32
1490985556775,1,-26,-7,7,72,-3,7,-6,-36
1490985556775,1,105,31,55,23,40,10,-25,82
1490985556776,2,-41,6,-40,-5,-8,-24,29,-8
1490985556776,2,127,4,-128,-62,-24,7,-30,13
1490985556777,0,42,-3,10,67,38,20,-1,-10
1490985556777,0,75,-91,-14,-32,10,63,9,25
1490985556778,1,6,53,-91,-112,-12,-3,-25,-33
1490985556778,1,73,68,17,9,-16,-69,7,-14
1490985556824,2,-67,-53,62,84,16,5,-18,-90
1490985556824,2,119,40,49,2,23,13,42,89
1490985556825,3,15,29,-41,82,-18,27,-29,-85
1490985556825,3,-40,-67,-20,-128,-31,4,-9,16
1490985556826,1,-64,-50,10,-107,-74,-1,-19,-58
1490985556826,1,-45,63,-27,72,-3,-38,18,24
1490985556827,2,26,72,-2,-50,37,-25,-20,34
1490985556827,2,-29,20,53,127,40,48,-10,23
1490985556873,3,-107,122,28,-55,-15,-4,38,-36
1490985556873,3,40,-55,-102,-128,-35,12,-17,49
1490985556875,0,47,12,35,68,0,-44,-14,-39
1490985556875,0,-46,-36,-90,37,30,1,35,0
1490985556876,2,-106,-62,93,-124,-13,-34,-26,25
1490985556876,2,-37,3,-47,74,20,-28,7,-58
1490985556877,3,127,127,35,53,-16,32,3,8
1490985556877,3,-94,-56,-64,-62,-10,14,-13,14
1490985556921,0,-35,-75,51,64,21,3,8,70
1490985556921,0,-12,127,-54,6,4,5,-21,-39
1490985556923,1,33,-66,-15,-18,10,-6,26,-28
1490985556923,1,-40,69,95,114,-1,-10,12,-38
1490985556924,2,7,-5,-128,-128,-44,0,10,-12
1490985556924,2,12,-98,127,11,19,-3,13,31
1490985556925,3,-80,-128,-108,30,5,-37,-41,-13
1490985556925,3,33,-119,72,-25,14,14,18,36
1490985556970,0,34,40,-128,58,-36,-13,3,-41
1490985556970,0,-69,-84,52,-128,-8,-34,45,24
1490985556972,1,45,127,95,127,14,27,-13,39
1490985556972,1,98,49,-65,-91,6,51,26,25
1490985556973,3,-30,36,-83,8,25,-3,-13,-3
1490985556973,3,-46,39,2,61,5,-25,-9,-3
1490985556974,0,-39,-81,70,-22,-1,33,-16,3
1490985556974,0,49,67,-57,-101,-49,-12,-2,31
1490985557019,1,33,-28,-21,109,24,-9,-41,-91
1490985557019,1,-69,81,-34,-43,-58,-15,-13,-37
1490985557021,2,17,25,22,85,50,37,14,-47
1490985557021,2,-45,127,-35,-26,-9,11,10,-12
1490985557022,0,-64,-68,120,-61,22,-19,3,-23
1490985557022,0,34,50,-44,127,-20,11,-12,-25
1490985557023,1,-85,-11,28,-128,5,3,36,-38
1490985557023,1,-49,-90,-54,45,23,13,21,-41
1490985557068,2,93,104,50,88,-16,2,15,49
1490985557068,2,33,-85,44,-57,14,-11,-12,-58
1490985557069,3,43,-100,-7,-26,-5,-3,-23,45
1490985557069,3,-96,115,63,-38,-2,-24,43,-37
1490985557070,1,45,82,28,48,-15,-32,-6,39
1490985557070,1,122,-32,57,15,60,15,-42,-21
1490985557071,2,-53,-5,38,80,-18,13,1,51
1490985557071,2,-105,15,14,-3,16,1,-3,45
1490985557116,3,51,-16,-126,-68,23,-3,5,0
1490985557116,3,-107,-93,-53,-1,2,5,1,68
1490985557118,0,32,14,3,-61,-6,-51,38,11
1490985557118,0,-26,-128,-14,70,12,13,-18,-65
1490985557119,2,49,8,47,59,24,21,12,-46
1490985557119,2,-88,-74,-26,-99,-26,15,4,58
1490985557120,3,-17,-128,-37,-13,-13,-20,4,-6
1490985557120,3,70,126,55,60,7,17,-9,-58
1490985557165,0,-91,-83,-35,-26,-44,15,-22,-11
1490985557165,0,107,79,-5,-14,67,-48,7,-35
1490985557167,1,-100,-36,84,99,32,31,22,-77
1490985557167,1,82,94,24,23,-5,-11,21,23
1490985557168,3,97,62,-54,54,-15,-6,-2,-2
1490985557168,3,-128,-116,105,-127,-3,-12,31,49
1490985557168,0,94,36,-53,91,-11,-25,-21,24
1490985557168,0,26,82,-34,-53,-73,-12,12,54
1490985557214,1,58,30,127,22,92,-7,-9,7
1490985557214,1,-34,-61,8,53,12,31,-13,-15
1490985557216,2,-73,-64,-128,-128,-54,-8,-16,60
1490985557216,2,29,-53,125,90,19,-21,11,-21
1490985557217,0,-19,92,33,-28,54,20,16,8
1490985557217,0,-81,-84,27,-32,6,14,-7,-5
1490985557217,1,-14,55,-85,-33,-62,-42,12,-56
1490985557217,1,25,17,-2,73,-22,-9,1,-29
1490985557263,2,47,55,80,11,-29,6,-2,20
1490985557263,2,60,93,80,108,104,20,7,26
1490985557265,3,15,26,7,-9,3,-5,-25,-11
1490985557265,3,-19,-53,-118,-103,-21,-27,-19,-5
1490985557266,1,59,-10,93,14,4,-14,-20,32
1490985557266,1,-8,2,-25,51,37,-5,4,-32
1490985557267,2,0,45,14,4,21,44,-13,12
1490985557267,2,66,15,-125,-50,-49,20,-36,1
1490985557311,3,-67,19,-34,-85,-25,24,30,-29
1490985557311,3,24,-47,119,60,27,13,21,-26
1490985557313,0,49,-69,-76,-72,8,21,-23,20
1490985557313,0,-55,13,45,59,-12,-17,18,-30
1490985557314,1,-9,69,-115,-58,-27,-45,-6,-38
1490985557314,1,-35,78,-76,-54,-103,-24,13,9
1490985557315,2,-47,-14,88,34,70,-12,33,-15
1490985557315,2,97,-3,-18,9,26,-22,-35,31
1490985557360,3,-80,-128,-80,-36,-53,26,12,-3
1490985557360,3,-56,-28,96,88,34,58,0,39
1490985557362,0,38,-128,-40,27,-31,75,-40,-26
1490985557362,0,37,50,-50,-50,-32,50,56,20
1490985557363,2,-40,126,115,29,-28,-45,-28,-5
1490985557363,2,2,75,-15,0,31,-40,20,4
1490985557364,3,78,121,-12,-15,9,-34,-48,-10
1490985557364,3,-75,20,-98,-125,-9,-43,40,-16
1490985557458,0,10,5,48,45,11,-38,10,-6
1490985557458,0,8,-15,4,-13,-36,-48,-9,-29
1490985557459,1,-70,-9,71,32,51,12,18,-38
1490985557459,1,62,-15,18,-67,-15,38,-31,57
1490985557459,3,4,-91,-33,71,22,16,-8,21
1490985557459,3,15,-104,-86,-61,-25,-58,6,-3
1490985557460,0,-6,-94,-40,-7,-9,-99,22,-4
1490985557460,0,-17,-42,74,116,10,-44,-21,7
1490985557506,1,105,32,108,109,26,29,-58,37
1490985557506,1,-22,-89,-88,-71,-1,60,46,3
1490985557507,2,-38,-80,-114,-112,-56,-25,19,-40
1490985557507,2,-78,-23,57,127,46,-23,45,15
1490985557508,0,44,24,-56,-45,7,27,-21,30
1490985557508,0,-43,55,72,11,5,93,-31,-42
1490985557509,1,-52,-128,-56,-59,6,-8,6,-16
1490985557509,1,22,17,27,38,3,-24,24,21
1490985557555,2,36,118,91,3,31,-21,-19,-7
1490985557555,2,58,82,60,-4,-43,-26,38,33
1490985557556,3,14,-6,-101,-27,10,-11,30,0
1490985557556,3,-39,-49,61,-15,-16,28,-24,-28
1490985557557,2,-20,-14,48,-71,4,6,11,-13
1490985557557,2,3,-14,-1,61,-17,-8,-22,14
1490985557558,3,-4,-23,-19,-44,-39,-50,13,-3
1490985557558,3,-79,-49,30,38,2,0,-15,-3
1490985557653,0,-49,-13,-10,51,48,19,2,-10
1490985557653,0,80,13,-63,-71,-8,-1,3,11
1490985557654,1,56,-26,11,30,-14,-4,9,-8
1490985557654,1,48,55,48,24,-2,-15,-28,10
1490985557655,3,-61,34,28,46,0,5,-10,-23
1490985557655,3,13,-15,91,64,11,4,16,16
1490985557657,0,-64,5,-85,-53,-10,-28,-28,-12
1490985557657,0,-1,-37,-63,-34,5,19,9,-8
1490985557701,1,84,-11,30,36,-7,-14,15,-3
1490985557701,1,90,21,38,18,10,-2,13,9
1490985557702,2,127,-10,-13,55,-5,12,-17,14
1490985557702,2,0,-12,-15,-77,5,9,39,14
1490985557703,3,-115,-82,15,-28,-19,-27,-31,-50
1490985557703,3,1,-2,15,44,-1,0,-11,-3
1490985557706,0,5,-74,-23,-31,-56,-14,19,-4
1490985557706,0,12,-44,-12,-18,38,-13,-11,-16
1490985557750,1,-9,-65,-23,30,17,10,-6,13
1490985557750,1,-24,-58,-44,-67,-25,10,-16,-10
1490985557751,2,41,38,61,58,30,-47,19,-4
1490985557751,2,-14,68,42,27,-18,38,-23,11
1490985557752,1,-14,-34,-11,-1,-33,-19,-17,0
1490985557752,1,7,30,6,13,13,-28,-23,-10
1490985557753,2,-3,40,44,8,-11,-1,12,-1
1490985557753,2,20,26,-17,-23,-7,-3,-14,12
1490985557803,3,-10,34,-13,-5,-17,19,14,-12
1490985557803,3,27,46,8,-22,26,-14,-2,20
1490985557805,0,-22,7,-24,37,-12,20,-2,8
1490985557805,0,-32,-90,36,-22,-13,-13,15,-28
1490985557805,2,-16,42,-30,-16,43,6,16,5
1490985557805,2,5,-37,-3,-7,-8,-3,-6,9
1490985557806,3,-20,-1,36,16,-22,-2,7,-3
1490985557806,3,20,-45,-15,-3,39,42,-14,-14
1490985557848,0,-9,12,-4,-12,-4,1,-16,3
1490985557848,0,10,-25,-23,-16,-16,-24,-9,3
1490985557849,1,22,10,41,24,-4,3,3,1
1490985557849,1,-18,-21,11,9,7,0,0,3
1490985557850,3,-40,-69,-36,-4,17,8,-15,0
1490985557850,3,12,52,10,-11,-20,-22,32,-8
1490985557851,0,-4,-71,-32,11,-4,34,23,20
1490985557851,0,13,34,26,32,1,-3,-21,-3
1490985557896,1,15,48,45,15,-2,18,9,-15
1490985557896,1,-8,-23,-43,-36,7,1,35,43
1490985557898,2,-18,15,28,-5,-13,-10,-3,5
1490985557898,2,-13,-27,-67,-15,-5,13,8,33
1490985557898,0,-5,-3,-37,-36,0,-26,24,-6
1490985557898,0,41,-16,-57,73,1,-7,-10,-1
1490985557899,1,-38,-21,51,-62,19,23,-5,-13
1490985557899,1,40,37,12,47,-18,-9,-17,14
1490985557945,2,16,-25,99,18,36,18,-7,-11
1490985557945,2,14,21,-10,46,17,22,12,5
1490985557946,3,-40,-9,-115,-87,-25,-1,-9,6
1490985557946,3,44,51,8,-6,-7,5,-6,2
1490985557947,1,-38,-26,-79,-10,3,2,3,-8
1490985557947,1,8,64,63,-20,-10,-9,2,3
1490985557948,2,-61,-84,-85,14,-28,8,-13,7
1490985557948,2,33,29,108,-22,-17,-2,4,-16
1490985557994,3,-47,-25,-19,5,36,5,19,12
1490985557994,3,-21,4,-73,-60,-28,-9,18,-33
1490985557995,0,61,32,40,39,15,-24,-16,-10
1490985557995,0,-86,28,-54,6,-3,7,-9,19
1490985557995,1,27,-7,29,-50,-21,-21,25,36
1490985557995,1,-27,-7,9,7,18,10,4,-25
1490985557996,2,21,83,18,48,20,0,-23,1
1490985557996,2,-24,-24,-17,-18,-12,0,-15,6
1490985558043,3,-18,-37,6,28,2,3,56,-15
1490985558043,3,-33,41,-54,25,7,16,-26,35
1490985558044,0,4,16,20,-99,-28,3,31,-30
1490985558044,0,84,21,1,37,-1,0,-24,11
1490985558045,2,-100,-40,-21,-23,5,2,-13,-11
1490985558045,2,70,-22,-96,-29,-6,-3,6,18
1490985558045,3,120,25,112,43,15,3,-17,23
1490985558045,3,-48,-72,-66,20,11,-22,-5,-22
1490985558091,0,38,54,-20,-53,-14,3,-25,21
1490985558091,0,-9,5,17,-15,-7,15,35,-55
1490985558092,1,36,22,-36,1,-15,-10,-15,22
1490985558092,1,-36,-55,-36,8,19,17,4,6
1490985558093,3,-91,-61,-17,-38,-7,9,9,76
1490985558093,3,42,-128,-59,-99,-6,-11,34,-39
1490985558095,0,117,111,10,78,-7,-9,-37,-23
1490985558095,0,-105,-23,-24,-48,5,0,35,0
1490985558189,1,121,108,11,29,-1,-7,-45,-24
1490985558189,1,41,70,-1,49,30,19,7,45
1490985558190,2,-23,-71,43,-54,-34,3,25,-2
1490985558190,2,-10,58,-10,19,15,-1,-36,22
1490985558191,0,-3,-47,20,10,1,-2,25,21
1490985558191,0,31,-57,74,31,16,20,-2,50
1490985558191,1,51,9,-1,24,3,-15,-65,-77
1490985558191,1,-83,3,-62,-72,-58,-24,50,-19
1490985558238,2,8,-98,-8,-56,-20,-8,6,-4
1490985558238,2,-51,-7,41,-9,6,-9,5,-40
1490985558239,3,49,-13,-85,34,17,17,-14,-19
1490985558239,3,-8,-81,48,71,10,2,-40,13
1490985558240,2,-7,-107,95,52,25,36,51,-7
1490985558240,2,36,-79,-64,9,20,-17,-9,-14
1490985558241,3,0,-20,23,-81,-49,-18,13,-26
1490985558241,3,25,12,-76,51,17,7,-11,-16
1490985558286,0,-29,109,18,48,-6,3,-17,22
1490985558286,0,-83,16,-75,-52,-11,-34,-18,49
1490985558288,1,81,-41,53,-26,-27,-14,35,-45
1490985558288,1,-13,-77,-107,13,-17,-12,-2,-10
1490985558289,3,41,-21,2,-13,-14,0,-5,21
1490985558289,3,-42,95,-64,-23,22,0,9,-24
1490985558289,0,-34,-17,28,29,-27,-13,-46,-21
1490985558289,0,-10,40,5,22,5,2,19,2
1490985558336,1,13,112,77,-41,0,-4,-13,-14
1490985558336,1,87,65,-30,10,12,45,-13,20
1490985558337,2,-54,78,-6,-43,-8,-4,13,-25
1490985558337,2,47,95,88,-11,-7,-14,-4,52
1490985558338,3,-28,49,-26,43,10,-10,-16,-27
1490985558338,3,21,-99,49,48,-12,10,-14,-15
1490985558339,0,-82,-55,-69,-98,10,59,-4,18
1490985558339,0,-1,67,-73,-24,-10,-30,41,-51
1490985558384,1,9,39,24,-6,-3,-57,4,15
1490985558384,1,-18,25,59,9,14,-28,-2,22
1490985558385,2,48,-18,-1,16,-17,-7,-19,9
1490985558385,2,1,-98,81,72,60,48,-50,-18
1490985558386,0,-31,-44,-50,-5,-24,-7,49,8
1490985558386,0,13,93,7,10,-3,13,-51,0
1490985558387,1,34,82,54,14,16,7,15,7
1490985558387,1,10,-6,-65,4,-7,4,-36,-26
1490985558433,2,34,-73,0,-2,8,-13,27,23
1490985558433,2,68,-128,10,-25,-18,0,-2,3
1490985558435,3,-25,-128,-21,18,5,-12,-7,15
1490985558435,3,-21,-111,20,-1,-16,-8,4,-15
1490985558435,1,-12,-66,-42,-25,-10,-4,17,1
1490985558435,1,-4,8,5,-18,-8,3,-22,-4
1490985558436,2,-9,49,23,23,1,1,-12,10
1490985558436,2,-26,51,22,20,-13,43,-16,-12
1490985558481,3,-24,20,-24,-12,3,11,29,0
1490985558481,3,-17,92,2,-25,-18,-88,26,-6
1490985558482,0,7,13,-37,-8,29,-16,-28,-18
1490985558482,0,5,19,-13,-20,-10,-51,10,26
1490985558485,2,-16,42,-16,-40,3,-2,-21,-17
1490985558485,2,-76,108,1,3,-1,43,5,7
1490985558486,3,37,112,-4,-14,-11,-26,2,11
1490985558486,3,-20,47,3,22,15,55,-14,3
1490985558530,0,-50,77,44,41,17,1,30,-11
1490985558530,0,-84,-33,-46,-40,-48,38,-44,-19
1490985558531,1,56,-41,-14,-17,-19,-55,-15,-24
1490985558531,1,-64,-96,11,7,-2,-54,29,-15
1490985558532,3,7,43,10,-16,36,33,6,1
1490985558532,3,56,27,11,-14,25,-15,2,-22
1490985558533,0,-94,-79,-3,-3,47,-10,-15,11
1490985558533,0,95,-9,25,28,42,-3,34,30
1490985558579,1,68,-128,5,23,34,8,11,1
1490985558579,1,-41,-83,-7,-13,-53,42,-11,26
1490985558676,2,52,124,-4,-15,-76,-31,27,23
1490985558676,2,-29,109,5,24,-47,7,7,-17
1490985558677,0,82,25,-15,-3,-104,20,16,7
1490985558677,0,16,9,-1,-40,-4,-72,10,-25
1490985558678,1,-34,-6,-1,21,69,23,-2,19
1490985558678,1,-8,6,-2,-11,81,-18,-19,12
1490985558679,2,42,52,-2,7,94,11,6,-3
1490985558679,2,6,33,24,35,61,7,2,-8
1490985558725,3,-96,-59,-23,-21,-3,44,-8,17
1490985558725,3,26,24,-17,-17,-2,-6,33,8
1490985558726,1,-38,45,4,-2,-10,-21,-11,-36
1490985558726,1,1,-22,12,-1,-14,24,0,10
1490985558727,2,-4,-10,-17,-14,-5,17,28,30
1490985558727,2,-72,10,-3,4,91,4,-19,1
1490985558728,2,30,-72,-28,-62,-32,13,-12,21
1490985558728,2,-94,-23,7,7,3,-32,-1,-27
1490985558774,3,57,57,-7,-12,-34,16,13,46
1490985558774,3,-116,21,15,43,11,-35,16,-8
1490985558775,0,53,49,52,3,25,58,9,7
1490985558775,0,-27,-11,-20,-7,-20,28,-19,2
1490985558776,3,43,122,52,9,3,-7,3,-17
1490985558776,3,39,-19,-33,-1,3,83,3,73
1490985558777,0,57,4,-6,-2,-16,-47,-5,-34
1490985558777,0,-30,44,54,16,-1,3,43,-16
1490985558823,1,12,-72,-42,3,-7,20,-43,3
1490985558823,1,31,13,-6,-63,-15,20,-6,-46
1490985558824,2,-61,-16,1,54,20,-10,6,19
1490985558824,2,127,114,1,0,-9,34,-30,-13
1490985558825,0,-83,108,60,50,22,-77,27,-27
1490985558825,0,-22,-58,-94,-46,-5,27,24,31
1490985558826,1,87,-48,93,21,-9,52,-9,2
1490985558826,1,70,106,42,-36,16,-80,-8,-2
1490985558873,2,-64,-97,-6,81,-9,72,-6,19
1490985558873,2,-50,19,3,-54,-12,-46,-22,-16
1490985558874,3,-26,-44,10,-3,-17,-20,51,23
1490985558874,3,18,47,-21,-65,0,12,-34,5
1490985558875,1,-33,-117,-93,-70,-28,64,-41,2
1490985558875,1,65,116,28,62,36,-57,36,39
1490985558876,2,-88,-104,34,73,19,-33,12,-27
1490985558876,2,118,6,-96,-8,-5,103,-50,14
1490985558920,3,-108,76,-8,-70,-14,-55,48,-73
1490985558920,3,-96,34,28,-13,1,-76,6,-33
1490985558921,0,81,33,44,29,-9,107,1,71
1490985558921,0,-106,-37,77,79,41,-2,12,16
1490985558922,2,105,114,51,45,-15,60,-49,-33
1490985558922,2,16,69,-62,-29,7,-17,40,26
1490985558923,3,37,71,80,-15,16,-32,-24,-20
1490985558923,3,-109,-34,24,26,-10,11,4,-33
1490985558969,0,124,-30,34,-77,-1,-4,2,52
1490985558969,0,-32,21,81,68,5,-35,20,40
1490985558970,1,-20,-66,-124,11,-8,31,2,7
1490985558970,1,-79,13,6,-22,-3,-81,7,-59
1490985558971,3,72,127,127,-65,1,-15,-4,98
1490985558971,3,17,-113,-125,127,12,21,14,-76
1490985558972,0,13,41,-119,-128,-49,-24,10,9
1490985558972,0,-41,-58,86,40,0,47,17,-31
1490985559018,1,85,82,94,127,43,20,-67,-22
1490985559018,1,98,-71,-110,-128,-57,127,-31,49
1490985559019,2,-94,-10,-91,-76,6,-117,66,-92
1490985559019,2,89,-98,61,84,27,-65,14,73
1490985559020,0,-50,-18,24,47,15,-20,-2,-73
1490985559020,0,37,-70,-63,-36,-29,37,-21,84
1490985559020,1,-128,-50,-90,30,38,-128,46,-105
1490985559020,1,30,-50,65,115,5,49,26,65
1490985559066,2,0,-21,77,-43,-61,-50,37,54
1490985559066,2,62,101,29,-17,34,-16,-38,-78
1490985559068,3,-103,-49,-101,53,5,58,-33,-38
1490985559068,3,36,-90,-74,-126,-2,-34,-13,-111
1490985559069,0,127,94,-30,74,-17,114,-36,127
1490985559069,0,-67,-85,81,-23,-17,-41,-5,-110
1490985559069,1,48,-1,-39,-58,72,-12,-12,15
1490985559069,1,61,109,-66,59,-54,53,-20,22
1490985559115,2,-63,-102,66,-79,48,-40,-15,-24
1490985559115,2,-28,-19,-123,69,2,-40,-17,-7
1490985559116,3,-71,-128,84,-49,-71,-51,36,-28
1490985559116,3,23,93,-55,-40,44,-85,17,68
1490985559117,1,0,84,-33,69,-22,39,-8,33
1490985559117,1,-35,-128,-30,-21,-10,-4,-17,-84
1490985559118,2,-84,109,11,24,7,-50,53,-30
1490985559118,2,59,30,-4,40,-14,72,-50,-27
1490985559213,3,-98,79,31,-60,10,7,13,-15
1490985559213,3,70,127,-7,4,-37,-1,-17,15
1490985559214,0,41,-69,-103,72,36,60,-15,3
1490985559214,0,2,-93,-30,-10,-37,-5,-19,-101
1490985559214,2,-93,-80,-21,-126,30,-64,30,47
1490985559214,2,-19,45,102,33,68,-62,54,-30
1490985559261,3,113,38,-80,94,-79,60,-45,66
1490985559261,3,-70,-72,33,-128,29,9,7,27
1490985559264,0,53,-46,-23,84,31,-39,-7,-23
1490985559264,0,42,20,-73,13,-92,52,-23,28
1490985559265,1,-61,28,-1,-99,-7,-28,-1,77
1490985559265,1,-2,86,127,107,62,3,51,-85
1490985559266,3,43,77,88,127,10,38,-4,-19
1490985559266,3,86,-119,26,-72,34,87,-45,-28
1490985559310,0,-46,-46,84,46,62,6,7,-52
1490985559310,0,-115,22,-12,-13,-13,-30,-16,-29
1490985559311,1,115,45,-1,61,55,-15,-39,-20
1490985559311,1,-112,-86,55,37,-19,-10,-30,72
1490985559312,2,83,103,-79,-11,5,0,-5,-11
1490985559312,2,2,-16,127,-70,4,-16,-37,3
1490985559313,1,-77,-116,-128,-119,-19,-59,-2,-55
1490985559313,1,-2,-12,112,-36,2,-19,55,78
1490985559359,2,62,32,90,69,-22,36,-34,19
1490985559359,2,-104,-21,-80,-40,82,-22,45,-14
1490985559360,3,106,127,-22,9,-53,-8,22,16
1490985559360,3,-70,117,37,47,13,94,0,-29
1490985559361,2,-54,-64,80,47,-39,-22,31,48
1490985559361,2,32,-60,118,84,-31,4,-7,-3
1490985559362,3,71,48,9,-52,15,-20,-9,8
1490985559362,3,-90,-109,-88,-60,-16,-32,55,-62
1490985559408,0,15,4,-128,13,-15,-56,70,42
1490985559408,0,-10,-11,-33,71,-59,-52,49,-61
1490985559409,1,34,-5,57,-6,-10,-51,26,7
1490985559409,1,77,105,53,65,7,1,63,35
1490985559409,2,97,-51,27,21,16,25,-34,23
1490985559409,2,-98,-56,-112,-71,-23,-12,57,-12
1490985559411,3,-35,40,45,127,1,17,3,-6
1490985559411,3,90,68,-128,-74,-13,-6,-60,-13
1490985559456,0,19,81,104,57,14,89,-10,-17
1490985559456,0,110,7,58,20,-2,28,-77,37
1490985559457,1,-68,-86,-77,-75,9,-54,42,-43
1490985559457,1,38,31,111,35,-29,-127,36,-14
1490985559458,3,-84,-76,56,53,35,-22,12,-48
1490985559458,3,34,-128,-128,-106,3,-12,95,53
1490985559459,0,25,91,64,57,-23,-47,-41,-54
1490985559459,0,-109,51,-116,-70,-31,-56,-12,51
1490985559505,1,2,105,-22,29,31,-91,-24,-7
1490985559505,1,-3,0,86,29,4,1,-6,14
1490985559506,2,-126,-128,-128,-88,36,19,31,-73
1490985559506,2,26,-59,127,96,9,0,14,26
1490985559506,0,-114,-108,-88,-128,-24,-44,36,-30
1490985559506,0,85,126,114,109,46,62,-25,-44
1490985559507,1,56,-39,-86,-64,-39,48,20,59
1490985559507,1,-96,-61,-57,46,12,-33,-7,-20
1490985559554,2,52,-128,-113,-128,-52,-65,-18,76
1490985559554,2,-128,41,-34,61,23,-38,103,-37
1490985559555,3,82,114,127,59,-44,-39,-98,-23
1490985559555,3,50,83,-87,-71,69,-23,88,22
1490985559555,1,-19,-16,-110,54,55,98,-37,8
1490985559555,1,-96,-12,9,-47,-34,24,-4,-54
1490985559602,2,41,-33,-61,-19,-1,36,14,2
1490985559602,2,17,52,105,8,-37,34,-61,-4
1490985559603,3,-37,97,-35,20,84,28,-43,45
1490985559603,3,37,106,-36,-49,37,44,13,-29
1490985559605,0,-20,-55,-50,-42,-65,11,-8,14
1490985559605,0,-20,-113,-128,-87,-25,-49,14,-33
1490985559606,2,45,59,127,127,64,-22,-39,4
1490985559606,2,29,-32,28,-87,-34,-12,0,20
1490985559651,3,-39,38,-76,-83,-52,2,73,-20
1490985559651,3,52,94,67,63,0,38,-19,13
1490985559652,0,-23,46,-59,8,-4,25,22,-13
1490985559652,0,-5,-94,-36,-84,35,-20,7,12
1490985559653,1,-41,-88,11,34,-13,21,9,17
1490985559653,1,-17,-79,-30,-46,-47,-18,16,-12
1490985559654,3,-55,13,-35,-77,-3,-16,-28,-31
1490985559654,3,-43,-23,13,16,-11,-28,-49,18
1490985559700,0,-35,46,-79,-36,-32,-24,25,-3
1490985559700,0,4,115,25,4,-23,-27,-65,-18
1490985559701,1,89,55,55,44,95,11,42,15
1490985559701,1,127,17,-20,14,-10,-29,-72,0
1490985559701,0,-109,-44,-44,0,51,-7,-44,8
1490985559701,0,-12,-39,-33,-74,-37,26,15,19
1490985559702,1,-40,-19,4,24,-52,-9,1,-29
1490985559702,1,9,1,26,-44,9,47,24,20
1490985559749,2,5,-14,57,-25,7,-15,41,4
1490985559749,2,-30,6,-35,32,39,1,-18,-25
1490985559750,3,13,13,4,-20,29,-17,-15,15
1490985559750,3,7,-28,-12,50,-17,-38,-37,-9
1490985559750,0,43,0,20,45,29,12,-20,6
1490985559750,0,-7,21,1,18,-9,-6,38,-27
1490985559751,1,-18,-23,-109,-114,-46,13,-10,19
1490985559751,1,1,-69,95,47,10,-8,31,36
1490985559797,2,-20,-12,23,35,15,6,-5,-70
1490985559797,2,80,79,-16,105,3,-13,-19,15
1490985559798,3,-81,-70,28,-22,3,13,19,-6
1490985559798,3,22,49,8,75,19,7,-39,19
1490985559799,1,48,0,-1,8,-29,-18,-9,2
1490985559799,1,-77,-5,21,15,54,-5,-2,-37
1490985559800,2,70,63,52,51,-28,15,-28,32
1490985559800,2,-52,-20,-5,36,5,-4,25,-4
1490985559846,3,57,-28,2,-31,21,13,24,27
1490985559846,3,-14,-53,-55,-51,-17,3,-54,-35
1490985559847,0,13,25,-30,1,-25,-11,22,-1
1490985559847,0,8,2,26,-17,-18,-1,-48,-25
1490985559848,2,-54,58,103,81,4,-1,-26,23
1490985559848,2,73,19,-62,-73,-8,0,-17,-5
1490985559849,3,-61,-68,11,9,-10,-6,-25,-74
1490985559849,3,45,43,-46,-11,-12,10,-5,23
1490985559895,0,-38,-12,-21,5,-4,41,36,-16
1490985559895,0,20,79,127,115,42,-3,-13,54
1490985559946,1,-69,-93,-94,-55,-50,3,-18,-39
1490985559946,1,34,-26,3,10,-22,-11,31,-44
1490985559949,3,18,75,65,41,-1,127,-11,15
1490985559949,3,26,38,29,-48,2,33,12,-49
1490985559951,0,-50,-17,-36,16,1,-40,-18,56
1490985559951,0,73,-21,-92,-89,0,-84,23,38
1490985559953,1,-30,-16,58,40,5,-81,-25,-69
1490985559953,1,20,14,-80,-17,-38,-87,2,36
1490985559993,2,0,-12,46,21,11,-54,-14,-40
1490985559993,2,73,-5,-67,-6,-7,-16,-10,75
1490985560004,0,112,97,41,-101,-18,-16,-5,68
1490985560004,0,-63,-128,-103,-70,-25,2,5,-72
1490985560005,1,-6,75,127,97,35,35,-2,4
1490985560005,1,-9,42,-128,-43,-5,7,28,37
1490985560005,1,-16,55,67,15,-15,-26,-20,4
1490985560005,1,-26,4,-7,-44,-12,-12,-27,12
1490985560041,2,76,-42,-51,12,2,5,1,18
1490985560041,2,-80,25,-67,-49,-22,-7,-1,6
1490985560043,3,-64,-60,-75,-13,13,-1,48,-32
1490985560043,3,85,-5,41,-40,-29,-13,4,15
1490985560044,2,-18,-106,-41,-22,-14,1,27,-11
1490985560044,2,44,-57,-19,-8,-8,-4,20,-7
1490985560044,3,-21,39,32,18,35,-3,1,-30
1490985560044,3,-23,-24,65,58,-3,5,-21,-45
1490985560090,0,71,90,-88,-82,-10,-4,17,32
1490985560090,0,-105,8,24,34,0,10,19,-20
1490985560091,1,79,-78,126,55,-11,-23,-3,32
1490985560091,1,-2,-35,-4,17,-4,7,38,-16
1490985560092,3,-84,14,11,-6,-19,20,-8,-78
1490985560092,3,-4,3,-16,-74,-14,16,54,79
1490985560094,0,53,-69,-2,-14,36,3,-63,-30
1490985560094,0,36,-1,-99,-61,-38,10,-7,60
1490985560139,1,-75,-47,65,54,41,11,8,12
1490985560139,1,64,94,54,36,-38,-2,-59,3
1490985560140,2,-117,-77,-18,-10,36,0,80,11
1490985560140,2,82,104,-80,23,7,13,16,-27
1490985560141,3,48,82,20,-106,-22,-13,-29,52
1490985560141,3,-58,-69,-51,27,-2,5,37,-34
1490985560142,0,-5,52,15,38,-10,-13,-35,7
1490985560142,0,-73,-34,39,6,6,8,1,-24
1490985560188,1,2,9,17,2,13,13,58,-12
1490985560188,1,-4,-29,-88,-69,-14,-6,-8,32
1490985560189,2,-79,-8,127,83,-6,-9,29,-62
1490985560189,2,-59,-85,107,33,12,5,55,-47
1490985560190,0,-116,-128,-51,4,-20,-14,46,35
1490985560190,0,97,108,15,-37,-24,-12,-73,22
1490985560191,1,3,-18,-63,-8,-18,-7,10,-13
1490985560191,1,-42,119,-98,-20,10,-7,-5,-13
1490985560236,2,52,65,97,46,16,20,-27,-31
1490985560236,2,47,77,59,24,24,23,-43,28
1490985560238,3,-94,5,-128,-51,-19,-14,-1,-9
1490985560238,3,-47,34,-19,13,-5,15,39,32
1490985560239,1,-13,-87,-92,-45,-20,20,14,80
1490985560239,1,-5,9,-14,-55,-3,-8,2,-65
1490985560239,2,19,-66,45,90,24,-37,45,-34
1490985560239,2,-51,-12,-27,-66,-2,-2,-22,30
1490985560285,3,107,127,53,47,1,8,-48,28
1490985560285,3,-77,74,47,62,16,-78,-37,-32
1490985560286,0,53,120,-51,-23,-23,43,-8,38
1490985560286,0,-86,-12,-36,-32,-4,-14,-38,-29
1490985560287,2,47,-92,81,-4,-7,6,-22,36
1490985560287,2,-39,-128,-13,10,4,-13,71,-6
1490985560288,3,-99,-72,-68,-61,-9,6,39,-30
1490985560288,3,-70,-128,50,44,-6,-10,57,-12
1490985560334,0,25,-109,-77,37,39,-112,11,15
1490985560334,0,94,-128,83,-51,-19,-128,25,-7
1490985560336,1,-36,-82,95,43,18,-82,-29,-14
1490985560336,1,110,90,-75,13,2,20,7,40
1490985560337,3,46,115,92,74,12,43,5,-19
1490985560337,3,-62,-38,-80,-80,-22,61,-14,40
1490985560338,0,-39,2,-2,-48,-34,25,-29,9
1490985560338,0,-27,45,-42,15,7,-20,-7,0
1490985560383,1,-6,57,44,25,4,-18,-35,-34
1490985560383,1,-46,-1,88,80,5,3,0,-2
1490985560384,2,-7,67,-81,17,18,27,-9,48
1490985560384,2,-93,-50,-14,-90,-14,45,9,-25
1490985560385,0,31,38,69,63,16,26,5,8
1490985560385,0,6,13,-7,40,-7,53,-10,27
1490985560386,1,-15,-58,-102,-62,-19,16,22,8
1490985560386,1,48,120,28,-47,-16,0,-28,-30
1490985560431,2,-83,-102,32,22,12,-18,8,-11
1490985560431,2,36,0,23,46,3,-20,12,9
1490985560433,3,-16,19,-14,25,8,-13,13,4
1490985560433,3,28,-21,42,-60,-20,11,-36,6
1490985560434,1,55,-126,27,-1,7,-25,-6,-12
1490985560434,1,41,96,8,40,-5,45,-21,-7
1490985560435,2,-8,-77,-5,-49,-17,9,14,5
1490985560435,2,-109,-55,-32,13,-5,-49,-2,-42
1490985560480,3,1,-76,47,-2,7,31,-1,46
1490985560480,3,94,-98,-20,4,-6,-16,-4,3
1490985560482,0,-66,-65,-34,10,30,-7,-8,-8
1490985560482,0,6,20,91,25,-9,-23,27,19
1490985560482,1,-21,-82,-48,-25,-4,-10,-31,-39
1490985560482,1,43,-54,-15,-46,-2,-54,57,-10
1490985560483,2,56,-118,-17,6,-14,-49,-14,27
1490985560483,2,-20,-128,18,20,14,10,10,-14
1490985560529,3,-79,61,20,-2,4,38,2,-1
1490985560529,3,58,42,15,8,1,35,-32,5
1490985560531,0,8,118,-18,-17,3,-44,-8,-23
1490985560531,0,85,56,-53,-15,-28,-8,-15,-4
1490985560532,2,-18,59,8,15,-14,56,-50,-7
1490985560532,2,61,127,10,-4,5,4,45,12
1490985560533,3,-1,8,-40,-42,-9,42,-44,-1
1490985560533,3,-97,-64,-14,-2,-1,-33,11,-24
1490985560578,0,38,65,24,20,9,23,14,7
1490985560578,0,-31,26,2,16,12,-4,-34,-14
1490985560579,1,12,100,16,26,-14,20,12,31
1490985560579,1,-20,-46,-25,-68,-1,-16,-22,5
1490985560580,3,-23,93,23,38,23,-25,14,2
1490985560580,3,60,119,41,62,27,4,-4,9
1490985560581,0,-42,-30,9,2,11,24,6,15
1490985560581,0,21,-30,-29,-54,-22,31,-20,-3
1490985560626,1,62,59,1,-23,-31,17,-19,2
1490985560626,1,-45,9,-7,23,-10,-39,35,-39
1490985560628,2,1,-1,0,4,92,-54,30,-9
1490985560628,2,-13,-41,15,7,108,-2,-2,7
1490985560628,0,23,99,12,0,-98,2,-8,1
1490985560628,0,-70,1,17,-11,-127,55,5,-17
1490985560629,1,-48,115,-37,1,-107,36,-23,10
1490985560629,1,22,27,-13,-39,-117,14,-26,1
1490985560675,2,28,28,16,28,-37,-70,17,-33
1490985560675,2,-44,-87,4,1,-110,68,-36,22
1490985560676,3,120,-68,14,10,-1,-62,33,17
1490985560676,3,16,-71,10,8,-11,67,6,10
1490985560677,1,42,-33,5,-4,123,-27,-8,-11
1490985560677,1,-73,94,15,29,104,-51,28,10
1490985560678,2,5,47,14,3,47,8,20,12
1490985560678,2,37,-85,-18,-17,16,-8,-12,-6
1490985560724,3,23,-98,-6,-2,-1,-28,8,-5
1490985560724,3,87,-28,10,-17,-2,42,-38,-11
1490985560726,0,-99,35,-13,7,-42,36,-16,-8
1490985560726,0,26,110,13,-4,-17,3,8,23
1490985560727,2,-16,-5,-7,30,-22,-32,15,4
1490985560727,2,-42,7,8,57,3,73,-55,-4
1490985560728,3,11,-30,3,28,1,9,-1,-25
1490985560728,3,43,-87,10,-15,-1,23,8,18
1490985560773,0,47,40,-20,-46,2,-2,4,0
1490985560773,0,-51,-19,-4,-57,-13,-26,17,30
1490985560774,1,-71,-13,1,-37,-4,-25,19,-54
1490985560774,1,-34,-58,-13,-13,-2,20,9,21
1490985560776,3,-48,-53,-7,4,1,-2,20,17
1490985560776,3,12,62,-7,-45,-10,-25,-25,-32
1490985560777,0,-6,-55,-15,7,3,1,43,22
1490985560777,0,-63,48,62,48,7,19,-3,-15
1490985560823,1,90,11,6,27,-3,17,2,35
1490985560823,1,49,-14,-72,-27,0,-45,-8,-11
1490985560824,2,14,48,46,-7,-13,34,-29,1
1490985560824,2,-11,-123,-54,-23,-3,-11,15,13
1490985560825,3,0,62,36,8,-2,-6,-4,-34
1490985560825,3,34,56,51,61,3,33,-13,14
1490985560826,0,-12,-28,-36,-6,4,32,-22,2
1490985560826,0,93,84,-29,-34,-3,-6,14,-12
1490985560870,1,-100,-39,-9,-8,-16,11,12,27
1490985560870,1,63,88,75,7,20,-72,26,-29
1490985560872,2,30,-84,-33,21,1,4,-17,32
1490985560872,2,-43,89,39,-6,5,-45,12,8
1490985560873,0,-15,-17,61,-22,4,-54,11,0
1490985560873,0,-31,-122,-22,2,-12,38,-18,-7
1490985560874,1,-22,103,-15,-32,-9,-60,36,-26
1490985560874,1,-96,-63,-6,-1,-1,-11,-17,-25
1490985560919,2,48,21,17,40,8,-10,32,20
1490985560919,2,99,-76,-110,21,26,75,-17,65
1490985560921,3,7,100,76,-39,-3,-41,-14,-19
1490985560921,3,-117,-128,33,5,-9,-3,19,-4
1490985560922,1,-6,49,16,36,13,-11,-3,3
1490985560922,1,25,-65,-40,-69,-19,85,-25,9
1490985560923,2,-47,64,45,30,11,-51,2,-53
1490985560923,2,23,110,73,49,-6,7,9,6
1490985560968,3,-7,-109,-69,-84,-7,29,-56,-18
1490985560968,3,-39,30,-26,5,13,-57,37,-34
1490985560969,0,-75,-49,-9,10,-15,37,12,24
1490985560969,0,111,116,106,86,27,-52,-15,-5
1490985560970,2,-105,6,17,-82,-9,-14,-5,-43
1490985560970,2,57,11,-15,-6,15,-33,21,-40
1490985560971,3,91,-23,114,19,-5,48,45,52
1490985560971,3,-53,-8,-116,94,27,70,-57,9
1490985561016,0,55,13,25,-40,-11,-7,12,7
1490985561016,0,-96,-14,-10,-26,-17,-61,6,-10
1490985561018,1,65,-47,-9,22,11,9,28,-53
1490985561018,1,-96,-24,-26,-12,5,11,-18,51
1490985561019,3,-33,57,66,51,20,-98,21,53
1490985561019,3,-16,12,-25,-20,-17,-98,33,-12
1490985561020,0,6,-55,71,102,15,55,-55,-22
1490985561020,0,78,5,-128,26,5,18,-3,-102
1490985561066,1,-97,-53,120,-22,-40,103,-42,12
1490985561066,1,-4,85,-23,-63,10,-77,24,81
1490985561067,2,-77,31,40,-7,28,-65,32,-62
1490985561067,2,-2,-121,-28,51,-14,13,28,110
1490985561068,0,-61,24,36,-105,-7,19,-7,47
1490985561068,0,10,-65,-24,0,19,-80,-17,-18
1490985561068,1,75,105,-59,12,-15,44,40,93
1490985561068,1,-77,-24,64,18,36,14,15,-12
1490985561114,2,125,-60,-115,37,-39,50,-15,29
1490985561114,2,-68,-8,65,-70,13,-70,5,-1
1490985561115,3,-58,26,19,62,13,-59,-26,-41
1490985561115,3,9,-2,127,76,-9,18,-43,-12
1490985561116,1,-71,-105,-128,-37,-52,67,-4,20
1490985561116,1,-5,-73,77,25,8,-41,-18,71
1490985561117,2,38,24,127,107,48,-11,64,45
1490985561117,2,41,1,-97,19,-13,87,-66,77
1490985561163,3,67,112,8,-76,7,-82,9,-64
1490985561163,3,53,19,-11,-60,-57,0,2,-17
1490985561163,0,-22,20,47,11,33,-5,1,-41
1490985561163,0,7,19,-57,16,-8,3,57,64
1490985561164,1,44,-84,83,48,-8,-8,-116,-74
1490985561164,1,9,-54,53,-8,1,-13,55,-14
1490985561165,2,-63,-74,-111,-56,9,-55,-8,-74
1490985561165,2,-93,46,85,127,30,52,-34,63
1490985561211,3,5,-26,-89,36,3,36,22,57
1490985561211,3,40,22,-114,-128,-11,-27,18,-110
1490985561212,0,-43,90,118,127,-35,92,-76,122
1490985561212,0,5,64,26,-110,-63,68,-18,-89
1490985561214,2,80,26,-128,51,-35,70,-47,-104
1490985561214,2,-51,-62,28,-63,27,-72,41,76
1490985561215,3,45,-60,127,48,19,14,-46,-40
1490985561215,3,-22,-73,-128,54,-32,-21,25,84
1490985561260,0,-83,23,108,26,39,-76,-54,-93
1490985561260,0,93,-110,-97,-78,-54,69,19,-6
1490985561261,1,6,107,105,-31,20,-77,44,-53
1490985561261,1,27,24,78,127,11,21,-54,61
1490985561262,3,-128,-51,42,-60,9,-2,-15,24
1490985561262,3,127,120,-33,72,-81,86,-32,-40
1490985561263,0,12,-71,-90,-113,-17,-60,8,-81
1490985561263,0,-43,123,127,69,43,-105,93,43
1490985561309,1,89,43,26,101,-9,78,-27,25
1490985561309,1,-25,-70,-69,-14,14,17,-18,18
1490985561310,2,-51,12,76,-51,-61,2,-6,33
1490985561310,2,12,-11,27,33,-7,-60,25,-128
1490985561313,0,-31,-98,42,35,35,-11,111,75
1490985561313,0,107,90,121,56,31,-31,-101,-124
1490985561313,1,-77,-78,-88,-19,18,-46,-9,40
1490985561313,1,-19,-91,-33,-102,20,27,-50,-61
1490985561358,2,-79,66,-77,45,-71,-27,66,119
1490985561358,2,-31,-53,68,34,16,30,3,-56
1490985561359,3,29,21,-102,25,-23,43,30,17
1490985561359,3,-115,-104,-128,-117,24,-31,-25,-61
1490985561360,1,-13,-99,-128,-97,-4,-5,28,-128
1490985561360,1,-101,-109,57,19,-51,-2,-2,-32
1490985561360,2,43,33,-17,-92,48,-16,24,-97
1490985561360,2,44,-31,-120,109,-25,44,-128,85
1490985561407,3,15,32,19,-103,-29,-25,59,30
1490985561407,3,1,127,127,19,46,-128,106,-71
1490985561408,0,52,-13,-30,108,-20,54,-56,77
1490985561408,0,-128,-128,-124,-128,1,77,12,62
1490985561410,2,67,-46,-77,-118,10,-30,64,-73
1490985561410,2,73,5,60,24,-28,-21,-17,-38
1490985561410,3,53,56,42,123,28,36,-80,-20
1490985561410,3,63,16,85,68,37,9,38,28
1490985561455,0,84,52,-60,23,26,101,-128,-15
1490985561455,0,-125,-46,-126,-128,-95,5,116,9
1490985561458,1,-75,-36,-36,-21,-52,0,13,-1
1490985561458,1,-8,-5,103,117,78,40,-104,-4
1490985561459,3,-10,101,-52,87,82,15,29,-19
1490985561459,3,31,-11,54,62,-16,-38,-27,33
1490985561460,0,-28,2,-59,-26,-13,-4,101,127
1490985561460,0,-22,-63,23,29,10,-21,-35,-60
1490985561504,1,63,-29,49,-86,-37,-18,-33,-10
1490985561504,1,18,90,10,28,19,10,28,30
1490985561508,2,86,115,92,-33,-95,-42,-113,8
1490985561508,2,-42,-27,-36,-59,72,-12,57,-62
1490985561510,0,-44,-90,39,-53,-36,16,67,27
1490985561510,0,29,94,39,115,8,-6,-37,-1
1490985561511,1,-80,-64,77,17,2,14,4,14
1490985561511,1,80,-16,43,-25,34,-13,8,-36
1490985561553,2,-80,1,80,56,-22,17,-85,42
1490985561553,2,105,33,-124,-91,-58,-8,11,-17
1490985561554,3,31,39,9,11,41,-25,84,39
1490985561554,3,-2,72,127,-65,-24,28,-9,22
1490985561555,0,-21,94,30,92,61,-11,2,-27
1490985561555,0,127,127,110,90,58,88,-104,58
1490985561556,1,-74,-27,-43,58,-80,66,-63,-53
1490985561556,1,56,-91,-128,-128,27,-41,65,-14
1490985561602,2,62,0,79,123,14,-58,16,-16
1490985561602,2,9,-96,-36,-25,-3,-87,18,8
1490985561603,3,36,3,40,46,116,-94,-3,-24
1490985561603,3,10,62,-29,76,-24,-20,-110,28
1490985561604,1,12,-128,69,-90,23,-14,25,-23
1490985561604,1,-30,-42,-79,-37,-9,12,87,-31
1490985561608,2,-82,66,117,115,25,25,-27,28
1490985561608,2,76,-110,-128,-94,-21,-8,-25,-8
1490985561699,3,-104,-69,-104,31,-3,0,-23,-15
1490985561699,3,56,33,72,-5,-31,-11,5,-14
1490985561700,0,15,-35,-93,-51,-12,-6,11,29
1490985561700,0,-30,8,37,91,80,-2,23,-49
1490985561701,2,54,-9,-51,-73,-61,27,22,16
1490985561701,2,-128,-34,-25,-80,-5,-35,28,-49
1490985561748,3,127,63,117,117,52,71,-38,45
1490985561748,3,-128,-80,-10,72,0,16,-35,-26
1490985561748,0,18,39,-35,-75,-16,-26,11,33
1490985561748,0,66,124,92,90,-48,-29,-44,-7
1490985561749,1,64,36,49,56,-26,-43,-50,28
1490985561749,1,-49,-17,-85,-102,37,12,16,-34
1490985561750,3,12,-123,-128,-36,-71,-35,38,-8
1490985561750,3,53,82,99,4,-16,13,-2,-1
1490985561796,0,-62,-63,58,76,19,-1,11,-59
1490985561796,0,-8,13,88,24,-8,40,-21,58
1490985561797,1,49,102,105,82,101,35,-19,-12
1490985561797,1,53,121,-53,-43,30,65,-20,24
1490985561798,2,1,124,-44,-46,-101,3,-56,-6
1490985561798,2,-86,-114,-128,-113,57,-39,52,-58
1490985561799,1,48,-76,-45,-34,-38,81,4,1
1490985561799,1,-34,-128,-89,-48,-23,-54,-25,-46
1490985561845,2,74,-39,38,69,53,29,-16,15
1490985561845,2,-70,-78,36,-7,1,-28,-68,-8
1490985561846,3,-11,-72,-58,-7,-52,-50,-3,1
1490985561846,3,-63,-29,-10,-34,64,26,60,-8
1490985561846,2,-62,15,57,2,10,1,4,2
1490985561846,2,108,89,-24,-27,-49,26,7,-5
1490985561847,3,80,14,-26,-1,-72,-66,-79,2
1490985561847,3,10,-39,1,13,-110,-14,-26,-14
1490985561894,0,35,-32,21,10,-50,-36,-43,14
1490985561894,0,-34,-117,-49,-20,39,32,-11,-20
1490985561895,1,9,-99,-35,-35,100,41,16,7
1490985561895,1,27,-55,13,8,55,-9,4,6
1490985561896,2,-72,-105,-20,-11,125,4,-2,-6
1490985561896,2,0,-22,-67,-12,-18,-25,13,-1
1490985561896,3,-64,48,94,20,32,8,24,18
1490985561896,3,-36,45,21,15,-32,-29,-32,-4
1490985561943,0,-8,78,47,-4,-61,26,-2,12
1490985561943,0,-10,44,-9,3,-56,22,33,31
1490985561944,1,-18,41,-15,3,78,40,-2,-14
1490985561944,1,-12,54,27,24,4,-46,-51,9
1490985561945,3,55,13,-24,22,-11,15,6,5
1490985561945,3,-9,11,50,32,-13,27,2,26
1490985561947,0,23,-37,-8,-24,-10,-2,17,-16
1490985561947,0,-12,-21,9,16,-4,-21,-5,-11
1490985561992,1,6,0,34,-12,-15,13,16,10
1490985561992,1,32,-7,-97,-34,-2,7,-27,-14
1490985561994,2,-37,-4,21,23,19,3,29,25
1490985561994,2,7,14,39,9,-16,-17,-22,-11
1490985561995,0,-18,-23,-44,-24,-3,10,19,-19
1490985561995,0,-36,24,-14,42,3,1,-20,-13
1490985561997,1,15,-7,49,-7,36,29,-13,-10
1490985561997,1,-24,11,-35,-12,-30,-14,9,-5
1490985562040,2,2,-28,-26,18,10,-2,13,6
1490985562040,2,21,109,36,16,39,-16,-13,26
1490985562043,3,10,70,-19,-15,-34,-19,-25,1
1490985562043,3,14,127,84,52,11,32,26,4
1490985562044,1,-56,-128,-55,9,-16,16,7,1
1490985562044,1,9,-60,61,13,8,-4,-3,-36
1490985562045,2,10,-26,-73,8,-15,31,17,-5
1490985562045,2,32,-37,127,31,3,8,-15,32
1490985562089,3,4,-29,3,15,-4,-21,3,4
1490985562089,3,-35,-111,-109,-56,17,-6,3,7
1490985562090,0,13,42,127,81,4,-6,-25,-11
1490985562090,0,-59,-70,-124,-72,-20,-9,6,-16
1490985562091,2,74,-7,-22,-51,8,-4,-4,71
1490985562091,2,-22,10,-3,77,2,6,-21,-63
1490985562094,3,2,-26,54,-50,-12,8,3,-2
1490985562094,3,8,-31,4,3,-2,1,-16,78
1490985562138,0,7,-11,-57,-35,59,15,4,-56
1490985562138,0,-28,25,-19,-13,-20,7,23,-34
1490985562139,1,-3,-84,-113,-36,-28,-7,-3,-33
1490985562139,1,-14,69,67,52,14,18,-27,13
1490985562140,3,-11,47,-50,-17,7,2,3,4
1490985562140,3,-30,-32,0,-39,-39,-34,7,-78
1490985562141,0,49,47,15,72,49,-109,-29,10
1490985562141,0,-19,-24,-35,8,9,16,-4,13
1490985562284,1,26,19,124,8,9,14,4,24
1490985562284,1,4,-20,-128,-62,-33,-6,-17,13
1490985562286,2,-22,-107,-19,-47,-25,46,-2,-75
1490985562286,2,-3,62,100,30,7,-3,5,-13
1490985562287,0,7,3,-72,8,-15,5,-22,-36
1490985562287,0,-20,-71,-103,-30,23,-9,16,-42
1490985562288,1,23,116,67,-33,-30,5,-43,6
1490985562288,1,13,25,-63,48,27,-26,2,7
1490985562333,2,-8,-26,-1,-47,-35,-14,-30,1
1490985562333,2,41,7,-12,-40,0,52,36,-3
1490985562335,3,7,72,19,124,13,18,18,41
1490985562335,3,24,-75,16,-118,-4,11,48,18
1490985562336,0,-61,27,-12,50,-1,14,-19,-16
1490985562336,0,-37,42,103,51,14,-17,-72,2
1490985562337,2,127,2,70,47,6,14,-11,31
1490985562337,2,46,30,-58,-103,-33,-7,13,4
1490985562382,3,29,-71,69,117,21,7,-11,-46
1490985562382,3,82,69,88,-11,18,3,-53,18
1490985562383,0,-79,-91,-75,-49,-21,-25,49,-49
1490985562383,0,39,3,37,37,11,-19,-11,25
1490985562385,3,38,61,-26,-25,-10,-19,-12,-9
1490985562385,3,-22,-124,100,112,35,34,-8,39
1490985562386,0,73,-64,31,30,-1,-12,-31,15
1490985562386,0,-87,-128,-73,-91,-14,-23,40,-75
1490985562431,1,73,72,-30,29,-8,-17,18,57
1490985562431,1,-96,89,31,79,-5,-28,-27,27
1490985562432,2,3,107,37,9,26,-16,17,-47
1490985562432,2,-25,-25,-12,-13,-4,-14,-21,-3
1490985562433,0,30,127,55,77,24,23,40,2
1490985562433,0,-128,99,-10,-59,-20,51,-9,20
1490985562434,1,6,102,-28,-48,2,69,-8,-56
1490985562434,1,64,81,-9,47,-7,51,-21,-24
1490985562479,2,-72,31,-13,8,5,41,-29,15
1490985562479,2,127,3,85,46,13,-45,7,19
1490985562481,3,-81,34,-30,46,21,-112,-4,55
1490985562481,3,-38,-84,110,-72,-25,-125,12,-24
1490985562482,1,-62,127,-1,24,17,53,-4,23
1490985562482,1,8,127,-29,33,-12,-14,-32,-6
1490985562483,2,76,104,45,-94,-21,-25,-30,-16
1490985562483,2,-73,-20,-97,22,1,-110,-2,-29
1490985562529,3,115,-83,123,61,9,-18,-21,-12
1490985562529,3,13,-128,-109,9,5,0,52,27
1490985562532,0,-25,-128,-4,-23,-16,-82,-7,7
1490985562532,0,29,-124,51,41,0,31,18,34
1490985562534,2,92,-74,-21,-15,-15,52,-10,52
1490985562534,2,50,-115,10,-4,1,44,-45,-34
1490985562535,3,-13,18,57,45,5,2,55,33
1490985562535,3,4,47,126,61,8,19,-78,6
1490985562576,0,-72,-64,-101,-88,-14,-6,40,3
1490985562576,0,-24,-11,2,-10,0,-21,-24,-40
1490985562577,1,80,-14,-61,-30,-22,19,16,-5
1490985562577,1,45,30,34,-9,6,27,12,19
1490985562578,2,-18,-33,48,85,28,0,16,5
1490985562578,2,-53,-88,-40,-9,-26,15,-29,-8
1490985562579,3,19,-50,113,-66,-2,42,-37,-25
1490985562579,3,-15,-17,-107,-9,-13,22,21,9
1490985562625,0,3,31,37,-16,30,1,20,6
1490985562625,0,-38,37,48,54,15,34,23,15
1490985562626,1,-6,53,-10,29,17,-6,3,-29
1490985562626,1,23,57,105,19,-52,-38,-3,43
1490985562627,3,-4,-63,-22,-14,-14,16,-15,1
1490985562627,3,-87,109,17,36,18,43,-12,13
1490985562627,0,-16,6,63,48,-16,-49,-2,-8
1490985562627,0,127,-80,-58,-16,-1,-78,-16,8
1490985562674,1,-80,-90,49,18,5,-47,-4,-63
1490985562674,1,3,-128,-94,-23,8,3,-14,-6
1490985562675,2,-31,-95,60,-9,-8,20,-23,-4
1490985562675,2,67,-109,-35,9,16,-21,12,-24
1490985562675,0,-81,-89,13,3,-4,2,18,30
1490985562675,0,27,6,64,59,18,9,11,-11
1490985562676,1,-23,90,-30,-22,2,38,35,47
1490985562676,1,66,68,-74,-75,-28,-18,-61,-34
1490985562723,2,-15,118,-22,26,-6,-33,-40,-9
1490985562723,2,38,98,47,-6,-5,19,-26,27
1490985562725,3,-71,115,-33,10,-7,-64,1,-39
1490985562725,3,-109,100,-2,-13,13,-3,10,-26
1490985562726,1,3,127,26,-53,-6,62,-8,-16
1490985562726,1,93,43,-65,-15,-2,-19,3,5
1490985562727,2,8,84,-30,1,-15,27,-2,-1
1490985562727,2,-51,-24,40,-4,-7,2,5,-13
1490985562772,3,79,74,-46,39,7,-23,35,-28
1490985562772,3,-68,27,-20,-30,10,-8,-37,6
1490985562774,0,57,36,37,0,-3,4,47,17
1490985562774,0,-78,-41,23,28,0,53,-17,20
1490985562775,2,-20,-84,-75,-28,-11,-7,-17,27
1490985562775,2,-17,79,20,-19,0,-50,-1,-27
1490985562776,3,-18,1,25,39,1,-6,11,21
1490985562776,3,2,74,-14,1,6,-42,22,-5
1490985562820,0,-79,-55,-11,-34,-22,-28,-8,-7
1490985562820,0,36,-2,11,4,-24,23,20,-12
1490985562823,1,107,-13,8,10,-2,50,-49,-5
1490985562823,1,-86,-97,1,-2,-38,41,13,-1
1490985562824,3,-48,-1,-5,28,33,22,-9,15
1490985562824,3,24,-96,30,-3,40,-2,18,-7
1490985562825,0,-56,-128,-3,17,93,-6,27,-2
1490985562825,0,-128,-121,-13,-15,98,-33,7,6
1490985562869,1,28,-96,5,-2,76,-32,6,2
1490985562869,1,-10,-16,-3,25,-42,37,-5,15
1490985562871,2,-6,17,51,2,-101,-5,-8,-4
1490985562871,2,30,48,-36,-26,-128,35,22,-9
1490985562873,0,-18,43,-27,-18,-67,3,-6,13
1490985562873,0,-89,-72,-32,17,96,-5,-22,-4
1490985562874,1,38,-8,21,37,118,-95,29,-9
1490985562874,1,-36,-53,4,0,127,16,-6,12
1490985562918,2,41,-26,10,17,89,-25,12,-7
1490985562918,2,21,20,-19,-5,36,-29,-4,3
1490985562920,3,-59,-51,-30,-6,8,45,11,-2
1490985562920,3,24,44,36,-10,20,-28,-13,1
1490985562921,1,51,41,1,3,-25,35,-24,-14
1490985562921,1,17,79,48,-21,-3,-42,8,-30
1490985562922,2,3,26,-32,17,-1,-3,-5,-6
1490985562922,2,-43,12,12,0,-19,23,-12,-24
1490985562967,3,84,43,-8,-8,-6,-14,7,45
1490985562967,3,-10,-31,4,20,-5,34,-11,4
1490985562969,0,64,34,12,-8,-13,1,-49,7
1490985562969,0,87,-28,-12,-3,-3,-33,-11,12
1490985562970,1,-24,25,-14,-20,-8,32,-64,-25
1490985562970,1,-42,-28,-35,-21,-10,16,5,-26
1490985562971,2,-14,36,40,13,21,-77,22,-20
1490985562971,2,-15,-18,3,20,-19,65,38,36
1490985563017,3,-78,-24,-6,-23,-5,32,22,-31
1490985563017,3,79,-52,10,-3,9,-55,15,12
1490985563019,0,-25,32,-14,-20,-20,17,4,2
1490985563019,0,-54,-2,13,19,9,-68,-12,-53
1490985563020,2,-5,-82,-82,-29,-36,74,-38,6
1490985563020,2,-68,28,42,-5,24,-77,12,-20
1490985563021,3,-45,-39,-33,-34,-24,-11,44,20
1490985563021,3,29,20,-17,13,-1,17,-3,19
1490985563064,0,4,-43,56,35,8,76,-33,26
1490985563064,0,45,34,17,-24,-23,52,23,-9
1490985563066,1,-47,-108,-66,-15,3,-63,-36,8
1490985563066,1,37,63,22,-8,7,-4,-14,-14
1490985563068,3,-10,-17,-32,-33,-21,53,-4,-6
1490985563068,3,68,-76,-16,-27,-2,-20,25,8
1490985563069,0,-91,74,3,-12,6,-16,-16,13
1490985563069,0,99,35,51,4,-6,12,-40,14
1490985563113,1,-97,-66,38,15,11,0,26,-27
1490985563113,1,-20,27,-43,61,-4,-18,-10,-20
1490985563115,2,57,-48,53,-66,8,36,14,5
1490985563115,2,-35,29,-87,43,17,-87,49,22
1490985563116,0,-114,-125,-23,31,-6,31,4,18
1490985563116,0,-106,-80,-24,-61,-13,-36,-2,11
1490985563117,1,75,114,-71,29,0,17,-49,-8
1490985563117,1,-75,4,20,16,24,-55,40,-29
1490985563162,2,-4,33,57,-20,-12,-28,0,-3
1490985563162,2,56,-38,3,-1,11,66,-8,-9
1490985563163,3,-3,-2,31,75,14,-47,-24,2
1490985563163,3,-4,-17,-22,-33,-43,102,-1,59
1490985563164,1,64,103,68,-97,-4,52,-7,16
1490985563164,1,-111,48,59,22,22,-91,-11,18
1490985563165,2,4,62,27,52,-28,94,83,33
1490985563165,2,-35,-64,-59,-60,-1,-7,8,-45
1490985563210,3,11,52,-23,-31,-23,33,-12,-4
1490985563210,3,-96,-22,127,1,64,-97,-12,-29
1490985563212,0,100,-22,-100,62,-15,69,-70,29
1490985563212,0,-49,-30,67,-40,1,11,-15,-4
1490985563214,2,-45,-5,-66,81,12,-11,11,16
1490985563214,2,-52,76,-78,-96,-4,-26,-1,-48
1490985563214,3,-21,-48,-104,-68,-42,38,-28,16
1490985563214,3,-24,-72,65,83,27,-30,3,19
1490985563259,0,-91,85,37,42,47,-33,39,11
1490985563259,0,127,-117,-8,-27,-14,120,-51,19
1490985563262,1,-1,80,10,-44,-1,-55,57,-26
1490985563262,1,-76,-74,-107,-17,9,-56,12,-40
1490985563263,3,58,18,3,49,9,37,17,-45
1490985563263,3,43,-59,-116,-59,-24,29,-39,5
1490985563264,0,-118,-25,-42,-1,41,-90,24,17
1490985563264,0,108,113,124,73,6,87,-65,31
1490985563308,1,-86,-52,-40,-27,1,-50,-3,-25
1490985563308,1,-114,-48,-75,-69,-77,-33,70,81
1490985563309,2,102,90,72,-102,-28,-16,-16,7
1490985563309,2,-5,-41,127,98,76,-114,20,-87
1490985563310,3,55,-5,-62,80,-4,114,-28,106
1490985563310,3,101,-8,-26,-15,-4,-2,-8,-77
1490985563312,0,-42,-19,-9,-88,-19,-106,37,-56
1490985563312,0,-60,19,114,61,19,-47,6,-7
1490985563356,1,63,-69,-26,18,-31,93,-3,31
1490985563356,1,-22,38,38,-120,16,17,-36,-36
1490985563358,2,52,4,-63,108,-18,32,-16,54
1490985563358,2,48,79,-83,-114,-32,73,-41,22
1490985563359,0,-83,-76,-111,-37,-3,49,-53,-25
1490985563359,0,-42,-78,66,-45,-31,-55,18,-33
1490985563360,1,96,60,111,1,54,-110,83,29
1490985563360,1,-17,70,33,39,-13,106,-63,112
1490985563405,2,13,-32,4,-46,-18,40,18,-76
1490985563405,2,-36,-73,-113,-12,-19,-54,29,-30
1490985563407,3,-50,-83,-11,-48,-71,-43,-29,81
1490985563407,3,-67,30,75,121,80,-128,76,56
1490985563408,1,13,77,-32,58,-43,-68,28,-28
1490985563408,1,55,17,41,-65,-16,66,-47,37
1490985563409,2,19,-15,-18,-4,42,51,23,-67
1490985563409,2,-54,-27,-68,-70,-29,86,-28,31
1490985563454,3,-99,29,127,31,54,-41,11,-7
1490985563454,3,-32,-20,-128,-14,-61,98,-33,-100
1490985563456,0,100,70,58,-63,4,-128,-4,-9
1490985563456,0,-43,93,48,127,54,-42,73,89
1490985563457,2,-120,-36,112,127,47,-92,16,124
1490985563457,2,119,98,-62,71,4,0,-22,2
1490985563458,3,-30,-128,-43,-101,-14,24,-51,34
1490985563458,3,-63,-81,-47,40,42,-72,49,-123
1490985563503,0,11,127,24,29,35,-55,27,27
1490985563503,0,95,86,-94,48,-14,9,-77,82
1490985563504,1,-92,-72,17,-36,-16,-1,61,8
1490985563504,1,127,12,14,82,-33,-9,-25,-36
1490985563506,3,-82,-66,-87,-81,-75,106,-74,-80
1490985563506,3,56,79,84,40,23,-17,-5,127
1490985563506,0,-18,37,-48,46,-38,-26,-13,59
1490985563506,0,-72,-29,-15,46,-3,-12,-19,-52
1490985563551,1,112,63,47,-51,28,80,61,50
1490985563551,1,-95,-128,-41,-34,-38,-4,-10,8
1490985563553,2,-35,-57,-32,-100,-44,-36,19,-27
1490985563553,2,-53,-71,97,-30,-26,-65,33,-25
1490985563555,0,112,1,-58,-69,-8,52,-66,-97
1490985563555,0,24,-8,12,9,4,-3,40,104
1490985563556,1,45,-65,-53,-96,-76,-86,18,-18
1490985563556,1,-66,42,-26,22,94,64,32,-72
1490985563601,2,81,56,-1,81,-28,109,-54,12
1490985563601,2,-128,24,32,-121,-9,37,11,-46
1490985563604,3,107,127,-49,85,21,42,2,4
1490985563604,3,54,37,-40,17,18,11,20,23
1490985563606,1,-35,92,127,127,32,-38,-58,63
1490985563606,1,-61,-8,-128,-44,9,35,-23,86
1490985563607,2,6,25,19,-43,56,-42,5,-110
1490985563607,2,-32,31,-39,45,-125,-32,7,119
1490985563649,3,45,-44,-12,40,88,21,44,-56
1490985563649,3,101,31,6,-48,-42,85,-25,86
1490985563652,0,-18,-69,-111,5,34,18,-38,37
1490985563652,0,122,-15,42,-23,-4,-15,6,25
1490985563653,1,-111,22,-56,22,-14,-25,-47,24
1490985563653,1,-36,41,28,-9,7,-80,12,-66
1490985563654,2,23,97,-44,61,22,-44,24,2
1490985563654,2,123,-15,-19,-4,-29,84,-17,24
1490985563698,3,-94,-94,-49,-45,31,50,-43,-104
1490985563698,3,64,44,26,48,-45,-1,16,-48
1490985563699,0,-128,-88,-85,-57,-28,17,-21,-53
1490985563699,0,-22,81,121,122,90,-16,17,-14
1490985563702,2,33,-23,115,39,-15,-55,20,-35
1490985563702,2,49,-62,-128,29,-4,16,-63,-21
1490985563704,3,-18,-26,115,-111,-29,-35,16,57
1490985563704,3,-53,8,55,17,-18,-33,27,-37
1490985563747,0,126,127,-34,3,5,4,-61,61
1490985563747,0,-50,-68,-116,-108,-62,22,56,20
1490985563748,1,80,6,18,80,-4,-29,0,-70
1490985563748,1,-90,0,127,-15,-28,-47,9,41
1490985563749,3,46,92,-66,-86,-17,9,25,47
1490985563749,3,-40,-119,62,103,37,8,-29,23
1490985563750,0,-11,-85,-15,-19,-23,29,-17,90
1490985563750,0,13,93,104,45,-10,-31,-44,-69
1490985563795,1,22,-7,30,-4,-64,-12,-8,-6
1490985563795,1,127,33,-51,-42,-22,24,-27,0
1490985563798,2,-16,-105,-128,-12,-54,-17,60,19
1490985563798,2,-82,-101,-49,-69,-48,-48,36,-86
1490985563799,0,-96,-25,44,-128,0,-11,-6,-47
1490985563799,0,8,115,-71,-7,-71,-10,17,-16
1490985563806,1,-34,-46,90,87,84,-27,10,-55
1490985563806,1,-2,-38,17,-61,-40,43,-15,25
1490985563844,2,88,83,-50,-8,-31,2,8,27
1490985563844,2,-36,-19,116,64,80,21,-31,33
1490985563846,3,19,71,-117,49,20,-31,-75,-34
1490985563846,3,-116,28,67,-14,-34,-17,28,-18
1490985563847,1,-38,-15,44,95,-40,-35,27,26
1490985563847,1,87,53,71,79,103,88,0,47
1490985563848,2,-54,-20,126,70,-23,69,-29,78
1490985563848,2,19,-66,74,-115,-12,4,-8,14
1490985563893,3,-116,-120,-128,-128,33,2,34,-94
1490985563893,3,29,41,19,78,-36,-12,-59,34
1490985563895,0,-89,103,-71,-100,84,13,63,-4
1490985563895,0,44,-5,-41,3,-47,13,6,-45
1490985563896,2,-22,-23,73,116,45,95,52,51
1490985563896,2,30,122,-106,108,21,126,-44,11
1490985563897,3,-41,47,72,39,-19,77,-40,56
1490985563897,3,-36,-128,-128,-126,-71,-101,86,-76
1490985563942,0,-1,-49,15,-77,-22,-128,-36,8
1490985563942,0,-44,-52,24,43,47,-60,1,22
1490985563944,1,85,-16,88,102,8,-73,-30,51
1490985563944,1,-76,-115,-36,-69,33,-65,18,-39
1490985563945,3,-13,75,-128,-128,-50,1,22,-37
1490985563945,3,12,8,46,66,-33,38,28,17
1490985563946,0,37,127,75,80,55,77,-16,-3
1490985563946,0,54,25,98,-25,-8,-15,40,64
1490985563990,1,49,28,-91,-109,-50,-46,2,-3
1490985563990,1,-32,86,-110,-34,4,-65,9,-46
1490985563992,2,16,21,63,74,-54,-45,-89,-39
1490985563992,2,48,-8,-51,-59,-20,-56,23,22
1490985563993,3,-95,-128,-105,-35,28,56,-14,-17
1490985563993,3,57,-128,46,62,3,110,82,8
1490985563994,0,-28,-40,-15,19,-36,25,-10,-24
1490985563994,0,4,18,-21,-50,77,11,21,-1
1490985564039,1,56,53,82,56,44,7,-40,1
1490985564039,1,-53,-110,-128,-99,-4,-24,-9,-26
1490985564041,2,-61,-58,1,18,-17,-72,7,-44
1490985564041,2,-10,-46,44,-47,29,-128,25,16
1490985564042,0,66,-59,-39,-32,-35,22,-6,-12
1490985564042,0,-56,85,-108,-41,-95,30,-9,-29
1490985564043,1,64,126,22,70,9,29,6,23
1490985564043,1,-4,102,89,-13,-34,22,-64,20
1490985564088,2,-25,-7,-127,-111,-49,-56,35,-26
1490985564088,2,-5,-24,-73,72,-3,10,-70,5
1490985564089,3,-7,63,48,63,21,-10,-11,6
1490985564089,3,-47,89,11,-13,-75,-72,-31,11
1490985564090,1,-115,99,50,-92,-103,-85,-50,-33
1490985564090,1,-125,98,74,-24,-62,23,33,23
1490985564091,2,-100,58,69,21,27,35,45,-17
1490985564091,2,47,-38,-30,-20,-128,27,39,33
1490985564137,3,86,-128,-128,-13,-110,-29,-9,-28
1490985564137,3,117,-120,-128,65,69,85,-44,-28
1490985564138,0,-46,-76,-102,-12,-18,-10,-39,48
1490985564138,0,-84,-75,-122,35,-42,-78,-94,39
1490985564139,2,107,-44,-75,-83,127,71,95,-14
1490985564139,2,65,-41,47,29,123,57,49,-42
1490985564140,3,29,-29,118,13,11,120,110,2
1490985564140,3,45,-28,126,7,2,42,77,19
1490985564185,0,66,-21,127,31,-57,-11,-21,-27
1490985564185,0,43,-2,127,-33,-94,67,41,-10
1490985564187,1,20,-8,122,-27,-119,-6,2,-7
1490985564187,1,10,-16,31,10,-36,10,38,19
1490985564188,3,2,-7,-19,9,-35,1,-1,21
1490985564188,3,-6,-15,-12,-16,-20,-23,-5,15
1490985564189,0,19,4,-17,-4,-7,-32,-58,-31
1490985564189,0,33,5,-31,-8,15,33,43,28
1490985564234,1,-9,-9,-55,-30,-25,-3,2,-17
1490985564234,1,57,-5,-23,13,-17,8,35,-5
1490985564242,2,37,3,52,-38,26,73,16,30
1490985564242,2,25,2,-66,-14,15,69,-23,-30
1490985564243,0,58,0,37,58,-75,-125,-19,8
1490985564243,0,-29,-1,6,19,19,-48,31,-9
1490985564244,1,30,-1,9,-12,40,-24,-21,10
1490985564244,1,33,-31,-27,13,-48,-26,-39,-7
1490985564283,2,-58,-69,-33,-16,-18,-1,-19,-1
1490985564283,2,15,11,35,45,61,29,35,26
1490985564285,3,-9,-67,-79,-45,4,13,6,31
1490985564285,3,43,84,57,19,-12,-37,-1,46
1490985564286,1,31,-36,-6,53,19,-29,42,-19
1490985564286,1,-13,38,21,20,-23,15,-37,-12
1490985564287,2,23,44,-5,-4,57,28,60,60
1490985564287,2,21,16,34,55,-20,42,-71,-4
1490985564331,3,-33,2,-19,13,-2,62,16,-11
1490985564331,3,-11,-23,-33,-95,-32,12,-21,-21
1490985564334,0,56,-16,-87,12,11,17,1,27
1490985564334,0,-44,20,108,8,-8,7,10,-31
1490985564335,2,20,85,79,0,28,30,-16,7
1490985564335,2,13,-12,-119,6,-32,-94,-40,11
1490985564336,3,3,25,91,0,-4,-49,23,26
1490985564336,3,79,107,-5,3,36,-25,-43,-15
1490985564380,0,-29,-128,-91,-51,4,-53,10,-47
1490985564380,0,-49,-9,-20,-29,-26,-86,11,31
1490985564382,1,-20,57,31,13,8,57,-36,35
1490985564382,1,26,-6,33,43,23,65,15,0
1490985564384,2,-3,81,7,10,12,-45,-40,-65
1490985564384,2,-10,-37,20,-29,3,-28,7,6
1490985564384,3,26,-15,-32,-4,4,-30,15,38
1490985564384,3,-23,20,-48,-23,-20,-32,0,-26
1490985564429,0,-41,-82,59,74,18,-9,-15,65
1490985564429,0,40,21,12,92,-9,17,37,-20
1490985564431,1,-41,72,-57,-110,-16,2,23,-29
1490985564431,1,-7,-54,-100,34,-23,-16,70,1
1490985564432,3,14,104,63,119,48,-85,1,79
1490985564432,3,-58,-13,85,-25,16,-85,-38,-15
1490985564433,0,68,26,55,-44,-14,5,-32,19
1490985564433,0,2,-59,62,4,13,53,-3,21
1490985564478,1,2,-20,76,-74,-18,66,-13,-66
1490985564478,1,-6,82,33,91,17,44,-45,27
1490985564478,2,-32,-85,58,-40,-3,23,-2,14
1490985564478,2,-17,24,29,-42,-18,36,-19,-30
1490985564479,0,-14,-2,20,-52,-16,50,-29,60
1490985564479,0,25,3,3,-33,-5,5,-26,-61
1490985564480,1,-64,-16,-2,-37,-26,16,28,45
1490985564480,1,62,25,19,34,17,20,-14,-34
1490985564526,2,20,0,20,25,-2,23,9,1
1490985564526,2,-64,-4,-12,-22,-25,-28,35,21
1490985564528,3,83,-6,10,48,26,-25,-51,83
1490985564528,3,-19,-49,11,-89,-11,25,-22,-3
1490985564529,1,-99,-67,2,-90,-44,-20,41,-103
1490985564529,1,-61,-83,5,15,2,13,19,-18
1490985564530,2,74,79,-2,23,1,-2,-20,-10
1490985564530,2,42,49,0,102,22,7,-14,45
1490985564624,3,-17,2,5,-69,2,-6,-17,-6
1490985564624,3,-65,-31,6,-28,-5,11,33,-25
1490985564625,0,-35,-7,-13,-3,7,-1,25,24
1490985564625,0,71,105,75,-2,13,1,3,48
1490985564626,2,67,88,121,78,2,-34,-25,-106
1490985564626,2,-63,-60,-109,-105,-13,-6,4,68
1490985564627,3,19,-28,-68,20,-32,-23,18,-22
1490985564627,3,24,84,106,80,15,17,-22,46
1490985564673,0,-9,-12,0,59,21,4,0,26
1490985564673,0,41,-47,126,88,9,-5,-39,-53
1490985564674,1,-38,72,-50,-73,26,13,-2,20
1490985564674,1,75,25,-110,9,-15,3,3,-68
1490985564675,3,66,99,29,67,17,-12,-32,29
1490985564675,3,17,-82,29,-38,5,2,26,28
1490985564676,0,38,84,-128,-68,-28,-10,59,5
1490985564676,0,104,127,-49,36,9,-5,-50,26
1490985564721,1,-108,-84,-49,-33,-8,-26,26,33
1490985564721,1,-66,60,-61,-46,3,-19,25,-53
1490985564723,2,60,50,41,50,-9,-84,-21,64
1490985564723,2,-92,15,52,37,29,-54,12,-60
1490985564724,0,-36,36,89,43,10,127,28,-25
1490985564724,0,-111,-81,-108,23,-7,31,-1,-8
1490985564725,1,33,95,84,38,18,-37,40,-22
1490985564725,1,37,110,-43,87,27,-23,-20,-10
1490985564770,2,-38,16,19,-113,-23,-37,-14,-27
1490985564770,2,28,67,-69,9,-5,29,-36,27
1490985564772,3,6,38,53,-19,7,-72,-28,-9
1490985564772,3,56,11,21,51,-19,-59,-1,17
1490985564773,1,32,-54,26,13,2,-27,-1,9
1490985564773,1,-82,127,74,41,3,-126,9,18
1490985564774,2,-23,-61,3,65,17,-118,-7,15
1490985564774,2,-91,26,4,-29,-8,-22,1,31
1490985564819,3,93,-99,4,15,-6,30,14,-50
1490985564819,3,-3,-99,127,24,31,71,-11,-42
1490985564820,0,57,-96,-64,45,3,92,-25,58
1490985564820,0,-12,-28,-106,-114,-15,69,21,-25
1490985564821,2,31,-45,-2,78,10,59,-28,13
1490985564821,2,29,46,9,-10,13,26,-2,-26
1490985564822,3,26,66,20,-19,-5,27,-38,16
1490985564822,3,-1,22,-51,-35,6,23,0,21
1490985564868,0,-14,103,18,20,-1,27,8,3
1490985564868,0,0,-54,-37,-55,-3,25,17,-8
1490985564869,1,-42,-83,-10,29,-24,5,11,-12
1490985564869,1,37,89,-20,25,22,9,62,9
1490985564870,3,112,29,-105,-88,16,37,-20,-37
1490985564870,3,34,14,-68,-80,-19,19,-64,-6
1490985564871,0,-34,-66,38,20,4,30,26,-13
1490985564871,0,-6,-71,16,85,9,11,26,-33
1490985564916,1,-106,-110,73,32,-2,-13,10,43
1490985564916,1,-78,-128,-21,-25,2,5,-1,41
1490985564918,2,42,117,-86,-59,-15,6,-17,-81
1490985564918,2,-44,-57,-56,-72,9,39,-4,-3
1490985564919,0,-3,-100,-23,-39,-12,-27,-14,29
1490985564919,0,125,88,63,23,8,-7,-12,15
1490985564920,1,-31,-1,-73,13,0,1,-29,-22
1490985564920,1,23,-25,56,-43,-26,-4,3,-2
1490985564965,2,-8,58,-12,22,14,-20,2,7
1490985564965,2,25,29,50,27,-17,-13,-6,-31
1490985564967,3,-18,-29,26,1,15,59,-14,15
1490985564967,3,67,93,-50,1,9,16,29,13
1490985564968,1,105,57,106,79,31,-13,-3,2
1490985564968,1,32,-123,-45,-10,5,19,-2,-6
1490985564969,2,4,26,-24,-51,-15,5,-10,1
1490985564969,2,-18,52,-10,25,19,-41,29,-27
1490985565015,3,-12,55,-47,-28,-22,21,-14,20
1490985565015,3,-30,59,2,-57,-4,-53,-7,-16
1490985565016,0,-16,29,-4,35,30,-39,28,2
1490985565016,0,16,35,78,84,8,29,-56,6
1490985565018,2,-78,10,2,-21,3,121,5,-6
1490985565018,2,116,46,26,21,-12,33,-9,45
1490985565018,3,-76,38,6,19,-13,-16,9,-8
1490985565018,3,49,50,-9,-25,-20,44,-42,-16
1490985565063,0,101,30,31,8,17,-64,47,42
1490985565063,0,57,6,-8,-1,-7,30,-50,-13
1490985565064,1,34,110,-33,6,9,-20,2,-10
1490985565064,1,-77,-64,-7,5,15,-37,15,-10
1490985565065,2,-27,-37,24,38,13,-27,-16,-12
1490985565065,2,9,-40,-3,-14,-10,83,-10,12
1490985565066,3,64,-59,5,-25,-12,27,15,10
1490985565066,3,-123,20,-40,-10,-4,5,13,-9
1490985565111,0,23,5,-2,-37,-37,5,-20,-9
1490985565111,0,61,75,9,-1,11,-128,23,-36
1490985565112,1,-33,24,-6,-6,23,-3,-31,7
1490985565112,1,68,22,22,24,6,-73,36,8
1490985565113,3,-8,2,29,37,8,-8,-17,-29
1490985565113,3,6,-19,-23,-9,54,30,-10,23
1490985565114,0,-25,8,-8,8,57,5,13,13
1490985565114,0,-128,51,0,-21,31,-24,-3,-21
1490985565161,1,66,-12,18,-6,-8,0,-6,13
1490985565161,1,127,16,-2,22,-27,22,18,4
1490985565162,2,112,42,4,9,-26,-68,-18,15
1490985565162,2,46,-42,-20,-19,-13,16,9,-6
1490985565163,0,7,62,-5,13,-11,64,-10,5
1490985565163,0,-16,33,67,24,-1,-32,12,-25
1490985565164,1,25,80,-51,-4,2,34,-10,27
1490985565164,1,-49,-17,19,-13,-9,-27,15,-12
1490985565209,2,-16,48,-50,-30,-14,5,-22,-14
1490985565209,2,1,31,-5,-15,2,-5,-17,9
1490985565210,3,14,25,7,24,14,12,-20,-12
1490985565210,3,-68,-5,20,23,-11,3,-7,-2
1490985565210,1,94,18,11,21,-5,15,16,18
1490985565210,1,84,120,12,7,-4,-46,-17,-8
1490985565211,2,-56,31,15,24,5,66,17,-10
1490985565211,2,-56,19,5,-11,5,16,-34,12
1490985565257,3,-69,-83,-18,-24,-1,2,-3,-8
1490985565257,3,-88,-115,12,-1,6,29,15,-1
1490985565258,0,48,-6,5,11,12,-51,-17,-12
1490985565258,0,6,-16,-10,12,-3,22,46,35
1490985565259,2,10,-77,15,-21,5,-7,16,10
1490985565259,2,-43,-73,-40,-7,-10,6,9,8
1490985565260,3,-22,-21,18,14,18,-56,57,-8
1490985565260,3,27,17,-1,63,6,40,23,25
1490985565306,0,65,11,-8,-71,-25,29,10,-14
1490985565306,0,-17,55,38,-6,1,-25,6,3
1490985565308,1,-41,-11,-19,13,10,-3,-42,-8
1490985565308,1,41,9,-1,-10,-3,-17,-15,-10
1490985565308,3,-115,-33,28,-37,-8,24,-6,-18
1490985565308,3,119,107,-43,3,13,-4,-15,18
1490985565309,0,-95,-53,-33,-1,-12,-41,21,-6
1490985565309,0,-17,46,30,-59,-14,-7,-20,-25
1490985565355,1,8,-21,33,27,9,-66,46,-12
1490985565355,1,96,58,29,31,4,43,-38,13
1490985565356,2,-101,22,57,42,11,-13,39,-27
1490985565356,2,43,-72,-76,-11,-15,5,-55,-11
1490985565356,0,80,-26,9,-23,-27,39,-28,0
1490985565356,0,-123,-20,11,-9,19,-107,19,-69
1490985565357,1,103,40,-8,24,-17,-28,-20,-1
1490985565357,1,-74,-108,-15,-43,-21,-29,-15,-3
1490985565404,2,-73,97,36,57,26,20,35,16
1490985565404,2,78,-85,36,7,-11,69,-17,47
1490985565405,3,42,95,-55,-14,16,-37,11,-8
1490985565405,3,-64,-80,-37,-36,-24,12,8,-69
1490985565405,1,-83,-47,-77,-88,-55,43,-48,-74
1490985565405,1,72,-15,105,-12,11,-34,16,39
1490985565406,2,47,-33,-73,10,-8,19,13,-19
1490985565406,2,-77,50,-5,17,7,60,-4,32
1490985565452,3,-65,-10,59,45,23,21,-23,40
1490985565452,3,-62,-87,-95,-17,-9,-11,2,11
1490985565454,0,-27,14,42,-27,11,-102,5,-69
1490985565454,0,41,-34,-59,13,9,1,-30,-10
1490985565454,1,-24,91,17,83,4,110,9,34
1490985565454,1,-44,-83,-64,-101,-7,83,-42,-9
1490985565455,2,45,98,76,-119,-50,-94,44,17
1490985565455,2,30,6,5,70,2,-72,41,-128
1490985565501,3,-36,-81,8,36,23,-13,3,48
1490985565501,3,-17,127,127,59,36,-23,8,42
1490985565502,0,35,52,-64,29,36,49,-41,-26
1490985565502,0,106,33,21,1,15,35,14,9
1490985565503,2,-96,-128,-128,-47,-22,16,-6,0
1490985565503,2,-11,127,89,41,11,-65,19,12
1490985565504,3,-16,-108,111,127,52,29,-8,-6
1490985565504,3,72,70,-128,-108,-26,127,-49,94
1490985565550,0,-73,-6,37,-25,-36,-67,18,-119
1490985565550,0,-10,-76,43,18,9,-1,53,53
1490985565551,1,33,102,43,76,56,-7,-11,44
1490985565551,1,-31,-118,18,5,23,88,-40,37
1490985565552,3,-51,-98,84,-8,-25,-4,1,-114
1490985565552,3,104,127,75,45,38,-107,76,9
1490985565553,0,93,-2,107,127,68,101,-77,75
1490985565553,0,-128,-42,-128,6,12,65,19,41
1490985565599,1,119,2,-50,-111,-14,-126,32,41
1490985565599,1,31,-2,7,127,20,41,39,-12
1490985565599,2,-10,-56,43,42,-22,91,-35,-48
1490985565599,2,-40,86,-26,-77,-29,-85,26,-30
1490985565600,0,-84,-1,-128,-25,-4,-10,50,127
1490985565600,0,54,-13,108,-76,8,93,-60,-7
1490985565602,1,1,98,51,-33,27,-107,63,-67
1490985565602,1,63,-96,-53,17,-9,-44,-11,41
1490985565647,2,-59,-51,-30,-69,-48,102,-42,-19
1490985565647,2,81,-26,-91,-61,-25,-15,-23,-38
1490985565648,3,-25,74,-70,38,44,-13,29,31
1490985565648,3,-34,-23,2,-32,-26,85,-43,29
1490985565650,1,19,-108,-55,-128,-21,31,-55,-28
1490985565650,1,-128,127,61,-18,19,-51,25,-14
1490985565650,2,52,70,52,-107,19,-9,-16,-12
1490985565650,2,-103,-73,-18,31,-23,-81,28,-67
1490985565745,3,-70,-10,98,53,-2,-67,7,17
1490985565745,3,14,20,-92,-26,25,49,-78,-128
1490985565748,0,-22,-30,-73,-44,-95,71,16,66
1490985565748,0,-62,92,22,-6,45,-63,77,22
1490985565749,2,-27,-14,19,127,39,17,15,73
1490985565749,2,127,41,44,-79,-20,40,-46,11
1490985565749,3,-65,-32,-128,-43,-68,102,-65,24
1490985565749,3,-11,57,-53,-22,16,-128,69,70
1490985565794,0,48,-47,21,52,7,-22,10,-124
1490985565794,0,57,43,114,114,50,74,-12,36
1490985565796,1,36,56,-108,-62,-48,-1,-3,2
1490985565796,1,-31,-81,96,9,16,-77,-23,-53
1490985565797,3,57,-52,-87,78,-57,42,-23,59
1490985565797,3,-27,-77,-65,-102,-82,-11,3,15
1490985565799,0,-29,-12,99,107,44,9,7,-71
1490985565799,0,59,50,-128,71,-21,26,6,-90
1490985565843,1,46,40,65,-83,-40,-56,4,62
1490985565843,1,107,-22,91,107,-31,-16,-10,-36
1490985565845,2,-125,-61,-80,-111,33,56,24,67
1490985565845,2,124,41,-32,107,18,80,33,108
1490985565846,0,-11,-49,30,-56,-6,-52,-78,87
1490985565846,0,-128,-51,-85,-77,-22,-53,23,-93
1490985565846,1,-31,-37,17,55,-15,-101,79,69
1490985565846,1,127,43,122,9,-92,0,-9,-41
1490985565891,2,-40,29,35,127,82,24,-14,103
1490985565891,2,22,-89,-97,-128,-78,29,-128,-33
1490985565892,3,-128,-62,-38,-25,-56,-79,66,-34
1490985565892,3,39,127,93,96,-32,60,47,-11
1490985565892,1,22,-48,55,74,25,-86,100,-12
1490985565892,1,90,8,-86,-55,127,4,-72,-47
1490985565894,2,-99,-35,-77,-81,-73,-105,119,-56
1490985565894,2,26,46,97,117,19,-91,7,-108
1490985565940,3,52,40,27,18,60,-21,-76,20
1490985565940,3,34,83,61,-66,-27,30,-84,61
1490985565941,0,-39,-66,-59,-75,-106,-53,29,-32
1490985565941,0,82,60,78,19,66,-4,72,13
1490985565942,2,-78,19,51,-86,19,34,-45,-51
1490985565942,2,-12,-128,-84,-90,-101,-78,36,-12
1490985565943,3,-115,-86,90,88,4,80,-27,-79
1490985565943,3,63,-91,32,-112,28,114,31,16
1490985565990,0,2,-25,-68,-61,-98,-25,8,-77
1490985565990,0,-30,-67,114,126,85,-28,3,-15
1490985565991,1,22,-115,-52,-48,-35,-115,-47,80
1490985565991,1,-49,-128,-66,15,-28,-128,31,-22
1490985565993,3,-128,-24,-62,18,-84,54,-46,-5
1490985565993,3,18,78,-84,45,25,37,33,19
1490985565994,0,127,-45,-26,-18,-8,-10,5,-1
1490985565994,0,-95,-109,52,15,-2,-57,10,27
1490985566086,1,-7,69,23,-25,-15,-121,26,-128
1490985566086,1,24,116,-86,38,-17,-112,-84,36
1490985566088,2,105,68,-12,34,102,-79,21,100
1490985566088,2,-94,-61,-13,-118,-17,-18,-56,-59
1490985566089,0,90,117,127,113,25,5,-12,66
1490985566089,0,-86,-30,23,127,-39,3,-76,62
1490985566090,1,35,-24,-97,-81,-19,-21,18,-19
1490985566090,1,-91,-79,-103,-95,56,-15,44,-39
1490985566135,2,47,67,87,127,-38,6,-7,27
1490985566135,2,-40,49,47,-7,-19,22,4,32
1490985566137,3,-74,7,-68,-5,22,22,-23,-63
1490985566137,3,3,86,-39,-59,19,-22,47,-90
1490985566138,1,-12,37,-71,-9,-44,-24,-39,-54
1490985566138,1,-107,-86,14,-24,22,21,50,-45
1490985566139,2,0,-5,96,67,1,-1,-24,-1
1490985566139,2,7,50,-128,-128,-35,-49,-71,-38
1490985566184,3,-92,-67,-30,-2,16,30,5,34
1490985566184,3,-47,85,-32,11,-11,-15,20,-40
1490985566185,0,-128,46,-128,-31,-46,-32,46,-20
1490985566185,0,127,82,118,48,52,36,16,14
1490985566187,2,47,126,99,113,87,27,-31,4
1490985566187,2,-44,-65,-65,65,-18,43,-90,-16
1490985566187,3,50,127,-115,-128,-10,-14,-9,10
1490985566187,3,-59,-51,-14,127,-14,49,-56,2
1490985566233,0,3,101,57,-3,34,45,-54,-31
1490985566233,0,83,-77,-109,-59,-10,70,21,49
1490985566234,1,-3,-87,63,-32,-27,17,-39,-61
1490985566234,1,-42,-114,-90,22,35,-36,10,-28
1490985566235,3,-102,-99,2,-89,12,10,57,13
1490985566235,3,127,78,127,120,4,4,-18,-4
1490985566236,0,-116,-128,-67,-75,-13,-6,17,6
1490985566236,0,-2,-27,-16,-65,2,53,64,-36
1490985566281,1,40,127,-30,90,-4,47,-11,14
1490985566281,1,19,-104,-26,-109,28,-30,-95,0
1490985566283,2,7,-118,-59,60,10,-16,-7,-18
1490985566283,2,-70,-128,7,-36,-29,-88,62,30
1490985566284,0,-51,44,-128,-107,28,-128,-7,-42
1490985566284,0,-24,105,49,82,-23,-72,9,1
1490985566285,1,60,84,89,78,-18,-28,-20,20
1490985566285,1,-7,6,74,84,97,-5,56,19
1490985566330,2,24,36,-18,33,-25,-114,-31,3
1490985566330,2,-82,-128,-7,-117,-50,-106,-7,-20
1490985566332,3,-43,-26,-128,-33,-27,-30,48,-18
1490985566332,3,24,-36,80,54,0,57,-13,-10
1490985566333,1,-20,-29,-90,-61,-31,94,38,-40
1490985566333,1,18,57,32,34,68,50,-55,7
1490985566336,2,-51,-128,-128,-128,-113,59,46,-38
1490985566336,2,1,104,127,111,35,-5,28,-11
1490985566379,3,22,41,83,87,58,35,19,13
1490985566379,3,-33,-44,-91,30,-31,21,-31,-10
1490985566381,0,17,69,126,34,99,13,17,4
1490985566381,0,44,75,-128,-29,-35,40,-9,6
1490985566382,2,31,70,61,-14,-88,-7,-25,-6
1490985566382,2,13,83,-50,81,0,-1,-32,-10
1490985566383,3,-34,-14,66,91,-27,-44,-36,18
1490985566383,3,14,24,19,-31,13,31,69,32
1490985566428,0,46,8,-7,-60,-22,-15,-15,-10
1490985566428,0,6,-67,-48,-56,2,29,1,-3
1490985566430,1,98,123,-32,10,-39,-35,-56,36
1490985566430,1,-24,39,44,-33,-33,11,25,-4
1490985566431,3,-18,-128,115,1,-27,12,78,3
1490985566431,3,-37,59,119,25,30,42,127,-1
1490985566476,0,-45,62,-126,54,-55,19,62,35
1490985566476,0,54,43,-71,17,-96,-46,-43,-26
1490985566478,1,-4,-40,-128,-99,-128,-28,43,18
1490985566478,1,9,-33,-128,14,-45,-17,-5,-19
1490985566479,2,59,-71,-60,75,-51,5,-21,36
1490985566479,2,-67,-35,-79,-40,-93,19,9,12
1490985566480,3,-128,-93,-57,-89,-37,87,81,-32
1490985566480,3,-103,-107,92,69,-14,-75,-85,9
1490985566526,0,-34,-22,89,-9,127,-85,-75,16
1490985566526,0,99,-20,120,7,126,-46,-128,3
1490985566527,1,127,-18,127,18,127,-48,-128,-18
1490985566527,1,127,49,98,-105,104,85,-85,-3
1490985566528,0,-101,-63,-70,-95,-119,-17,83,-34
1490985566528,0,-83,3,-54,-13,-86,-32,-9,3
1490985566529,1,-126,-39,-68,-25,-71,-9,-31,-1
1490985566529,1,-35,-32,-104,3,-110,-35,21,5
1490985566574,2,68,20,-7,20,-53,-37,-3,-13
1490985566574,2,100,-12,33,52,1,-7,-43,17
1490985566576,3,102,14,-26,-3,10,-6,2,18
1490985566576,3,74,-10,-54,-19,-26,26,32,21
1490985566577,1,-3,-38,-11,-16,6,-4,12,13
1490985566577,1,-48,41,19,14,7,29,6,-43
1490985566578,2,6,17,49,98,10,-17,-3,40
1490985566578,2,-9,-21,-14,-23,19,-7,-19,-8
1490985566623,3,5,31,8,48,25,4,6,-5
1490985566623,3,2,-5,21,-45,6,24,18,27
1490985566624,0,-24,22,19,-26,-10,20,-19,-36
1490985566624,0,6,31,-45,20,31,-21,-18,15
1490985566626,2,-16,28,-96,-35,6,-12,52,7
1490985566626,2,46,10,125,16,13,-4,-9,44
1490985566626,3,-57,1,-14,27,17,-21,-47,-23
1490985566626,3,-2,-21,-62,-69,-35,-9,-5,-21
1490985566672,0,45,60,-28,16,8,2,-10,15
1490985566672,0,-56,-65,24,64,-14,-14,2,-26
1490985566674,1,64,44,-15,-37,43,20,-10,65
1490985566674,1,-30,48,72,35,-8,-2,-23,-80
1490985566675,3,9,-27,103,74,45,14,26,-13
1490985566675,3,-3,43,12,70,2,-1,-19,25
1490985566676,0,4,17,99,-46,-14,-3,-27,-23
1490985566676,0,4,38,70,55,3,2,-7,-6
1490985566720,1,-1,20,-99,-43,-9,-10,-43,1
1490985566720,1,-17,-4,-52,-50,-31,-7,-4,9
1490985566723,2,-11,-78,62,49,-22,-8,-42,-20
1490985566723,2,55,75,-30,-38,27,13,-36,15
1490985566724,0,2,76,49,80,34,-65,-41,9
1490985566724,0,-4,-64,-41,-103,-37,-44,10,19
1490985566724,1,41,-59,-76,-37,-14,-8,23,16
1490985566724,1,-95,-23,58,67,14,9,-17,-43
1490985566769,2,44,16,-110,-9,-19,21,7,-32
1490985566769,2,15,-7,37,-10,8,21,10,20
1490985566771,3,45,110,63,85,10,17,-28,-11
1490985566771,3,-90,-125,-84,-46,2,18,50,-35
1490985566772,1,7,54,90,-43,-6,6,-8,-10
1490985566772,1,77,-25,-56,-31,-14,-21,42,58
1490985566772,2,-104,-51,82,110,18,24,-26,-46
1490985566772,2,71,-47,-29,-34,-5,-19,-24,7
1490985566819,3,6,30,-36,-79,-21,5,56,13
1490985566819,3,-31,127,65,93,14,-8,21,-50
1490985566820,0,42,-93,-88,-108,-40,-6,-5,-23
1490985566820,0,-69,75,85,112,64,4,-1,0
1490985566821,2,32,48,47,91,18,6,-5,21
1490985566821,2,-1,108,-40,-13,-3,-4,-34,-37
1490985566822,3,-60,-67,-62,-20,5,-16,-10,-27
1490985566822,3,-14,27,84,32,15,-11,5,24
1490985566866,0,50,85,41,-18,-19,-8,-30,-21
1490985566866,0,-69,56,-28,68,2,7,9,67
1490985566868,1,78,-2,-37,-5,21,0,-30,-12
1490985566868,1,41,-26,25,17,-28,-7,-3,31
1490985566869,2,-82,-92,10,-17,11,7,-21,-10
1490985566869,2,118,-32,-61,-15,4,6,-18,19
1490985566870,3,-71,-117,-33,-44,-16,3,16,-81
1490985566870,3,123,71,29,4,-2,3,-31,-34
1490985566915,0,-64,32,16,58,5,-5,45,95
1490985566915,0,5,4,127,71,18,-4,-14,46
1490985566917,1,-16,-82,-72,78,3,4,-36,-15
1490985566917,1,-66,-37,2,-63,25,18,-10,21
1490985566918,3,16,105,8,127,3,57,38,74
1490985566918,3,-95,-50,54,-62,-3,24,14,-35
1490985566919,0,50,94,-39,5,11,15,44,7
1490985566919,0,71,-39,-69,39,-20,1,-41,7
1490985566964,1,-7,2,81,-39,-2,-10,7,30
1490985566964,1,-79,-28,1,38,12,-5,-6,-45
1490985566966,2,20,70,75,11,9,-12,-14,0
1490985566966,2,35,-26,64,-22,-20,-16,30,-27
1490985566967,0,-29,-65,43,23,-25,-18,-18,-33
1490985566967,0,-62,29,-36,57,1,-3,39,-42
1490985566969,1,2,38,37,29,17,-11,-28,-16
1490985566969,1,81,-11,-47,2,11,-1,13,34
1490985567014,2,35,-94,-81,-92,-11,13,3,-19
1490985567014,2,-62,-76,47,121,13,-7,-8,-20
1490985567016,3,41,-27,92,-93,-30,-12,-13,60
1490985567016,3,-48,25,-64,115,38,-60,16,-28
1490985567017,1,-24,104,91,82,15,-5,-34,3
1490985567017,1,24,81,-14,-43,-20,31,-12,16
1490985567019,2,52,-30,39,26,-6,30,-36,-25
1490985567019,2,-31,-11,116,94,39,25,11,-22
1490985567063,3,-33,-88,-41,-121,-7,12,-8,-19
1490985567063,3,105,-65,-65,-9,-20,-4,-5,13
1490985567065,0,-83,40,72,34,3,-20,-20,101
1490985567065,0,113,-6,-76,-40,-18,-22,29,-85
1490985567066,2,67,51,-111,-117,-29,-23,-37,-13
1490985567066,2,-59,122,64,25,6,-26,44,28
1490985567067,3,76,59,-50,33,10,-2,1,-88
1490985567067,3,-48,-32,-107,-106,-33,5,5,88
1490985567111,0,36,-24,12,75,11,39,-65,-68
1490985567111,0,54,79,-16,-29,-8,8,-66,18
1490985567113,1,47,-55,77,24,1,-18,33,42
1490985567113,1,-8,-3,79,62,18,-1,-58,0
1490985567114,3,-7,-17,61,-104,-18,-101,7,-15
1490985567114,3,-15,24,-102,79,-12,-119,5,-16
1490985567116,0,20,-47,-57,-20,9,-94,53,-2
1490985567116,0,28,-45,24,-56,-21,19,-11,-26
1490985567159,1,-114,-46,18,5,-8,-16,37,12
1490985567159,1,62,72,22,-19,4,27,2,12
1490985567160,2,-64,-2,63,52,41,31,-18,-63
1490985567160,2,127,110,92,119,27,47,-36,62
1490985567161,0,103,100,36,101,18,14,-19,57
1490985567161,0,-102,32,-88,-6,2,-52,-25,63
1490985567162,1,-46,-35,-100,-98,-18,-95,9,-49
1490985567162,1,98,44,-50,18,-13,-7,16,12
1490985567208,2,-29,-70,-26,-52,10,11,57,54
1490985567208,2,9,-70,24,49,14,90,2,-32
1490985567210,3,-9,8,125,97,21,113,21,0
1490985567210,3,127,-5,-42,23,1,33,-44,58
1490985567211,0,-114,-128,-35,-50,-33,21,-1,-16
1490985567211,0,56,57,-2,-22,5,35,9,-5
1490985567212,1,-3,120,-106,-3,-11,16,-26,16
1490985567212,1,-23,-13,101,-41,-3,-11,-13,-1
1490985567257,2,-2,2,-16,20,-6,-63,-19,-38
1490985567257,2,38,-98,98,31,2,-61,7,-3
1490985567258,3,-82,-128,21,80,22,16,27,3
1490985567258,3,-109,-73,-48,-70,-26,-36,-1,-46
1490985567259,1,19,-42,-3,68,9,38,30,37
1490985567259,1,10,-85,76,15,29,75,13,25
1490985567260,2,45,-78,0,56,4,-26,-24,14
1490985567260,2,-36,-61,-83,-69,-7,38,2,-15
1490985567305,3,-49,88,23,-50,-31,-9,-12,36
1490985567305,3,-32,42,-30,21,-13,15,-4,27
1490985567306,0,39,98,-8,20,41,-32,15,-35
1490985567306,0,-78,127,15,-19,-14,3,-56,27
1490985567307,2,-127,-59,47,-29,-26,0,13,-16
1490985567307,2,-19,32,8,48,6,6,1,-5
1490985567308,3,5,26,-34,-34,-2,-10,3,3
1490985567308,3,13,-32,75,10,12,-25,26,16
1490985567354,0,-5,53,7,-4,-13,-12,-13,-31
1490985567354,0,-75,-128,-16,24,11,-2,-9,-22
1490985567355,1,-8,17,-5,2,-2,31,25,-2
1490985567355,1,103,127,0,36,40,42,-15,15
1490985567356,3,18,-35,-10,50,4,38,-13,1
1490985567356,3,-119,-121,-115,-92,-29,-25,-41,-27
1490985567357,0,-87,-64,19,-9,-2,-32,38,29
1490985567357,0,103,15,19,29,5,-61,42,-7
1490985567402,1,119,44,20,13,-15,-30,38,44
1490985567402,1,16,-53,124,52,28,14,-4,9
1490985567404,2,9,-25,-68,-31,-8,15,-49,-12
1490985567404,2,-11,-52,-35,-25,-6,37,7,27
1490985567404,0,85,57,3,-19,-3,0,-6,-4
1490985567404,0,-2,-44,-20,11,21,-59,18,12
1490985567405,1,14,-117,64,12,16,14,-30,-15
1490985567405,1,-11,-120,-23,35,-17,-45,4,-6
1490985567451,2,-80,-120,11,-30,24,-5,-20,-22
1490985567451,2,-69,-91,-19,27,1,32,32,10
1490985567452,3,89,-77,-45,-89,-13,9,-19,-16
1490985567452,3,13,17,28,13,-6,-2,-5,-4
1490985567453,1,37,83,21,16,11,45,-52,-21
1490985567453,1,10,97,23,10,-10,40,33,15
1490985567454,2,-79,-15,-50,-15,-21,42,15,12
1490985567454,2,-74,48,-2,-28,15,-19,52,-3
1490985567500,3,18,48,-7,-1,26,-35,-2,13
1490985567500,3,-23,3,15,11,33,-16,-18,10
1490985567501,0,94,-1,15,31,6,-2,-23,-11
1490985567501,0,-29,-38,-22,-17,6,52,3,40
1490985567502,2,62,72,5,-4,2,-37,112,-13
1490985567502,2,55,8,-34,0,-17,-16,15,-28
1490985567502,3,-46,-17,29,-26,-21,25,17,-13
1490985567502,3,22,94,-18,1,11,10,-29,12
1490985567549,0,9,53,2,-9,12,23,-29,23
1490985567549,0,3,53,-9,-10,-8,19,-94,-21
1490985567550,1,-78,-56,11,62,-54,-32,-4,41
1490985567550,1,-51,-37,18,4,-8,29,-26,-14
1490985567551,2,28,61,0,-15,57,-69,-24,0
1490985567551,2,-38,98,-6,-20,38,-42,3,5
1490985567551,3,-10,62,3,7,55,-21,-7,45
1490985567551,3,24,-6,-12,10,4,15,4,-19
1490985567598,0,5,-76,15,1,-42,34,-4,-1
1490985567598,0,26,-86,22,-10,-35,20,0,0
1490985567599,1,-111,-128,-24,13,16,1,-17,-18
1490985567599,1,75,-128,0,-19,-21,-17,22,16
1490985567600,3,74,17,-9,7,-8,17,19,0
1490985567600,3,-67,86,7,4,11,17,-7,-10
1490985567601,0,11,-58,17,29,1,-10,-5,-11
1490985567601,0,33,17,-21,-31,-3,-17,3,32
1490985567646,1,-48,-91,3,-5,9,-12,17,14
1490985567646,1,-21,-71,-5,10,34,-17,36,-13
1490985567648,2,-34,-45,18,-4,-19,-4,-11,-2
1490985567648,2,18,14,41,45,-7,60,-22,-4
1490985567649,0,-10,45,27,8,-3,-34,47,-4
1490985567649,0,-16,-38,-32,2,-4,23,-27,-26
1490985567650,1,47,105,71,24,4,-16,2,-4
1490985567650,1,-15,4,-56,20,2,11,-17,-13
1490985567695,2,57,-15,17,-12,-77,44,-42,0
1490985567695,2,-8,13,-20,-27,-84,10,35,12
1490985567696,3,54,100,22,-15,80,-13,-11,-16
1490985567696,3,-33,-52,-16,19,100,32,4,5
1490985567697,1,-10,52,-13,4,13,-37,-27,19
1490985567697,1,65,61,20,-2,3,-30,3,-39
1490985567698,2,-128,-17,55,50,-25,37,-23,-46
1490985567698,2,102,19,5,13,-77,-72,28,21
1490985567744,3,-2,-24,-63,-58,-101,26,-31,-26
1490985567744,3,105,21,3,-24,-39,11,-41,10
1490985567745,0,-35,61,15,4,-2,16,24,49
1490985567745,0,-128,-34,-12,34,42,-15,-3,-44
1490985567746,2,42,-4,-80,-17,30,34,-9,53
1490985567746,2,-80,96,22,-34,51,-47,31,37
1490985567747,3,-24,-107,38,48,18,8,10,-31
1490985567747,3,90,74,-56,16,5,80,-12,33
1490985567793,0,-98,-50,-30,-17,26,-97,14,-58
1490985567793,0,23,24,48,34,21,84,-21,59
1490985567794,1,-125,-71,10,-81,-1,-81,30,-125
1490985567794,1,54,20,69,27,4,22,-80,80
1490985567795,3,69,28,43,50,-2,-48,36,68
1490985567795,3,-89,-80,27,-59,7,43,107,-35
1490985567796,0,86,11,-28,64,1,91,7,63
1490985567796,0,23,-17,-5,-35,-1,-89,-16,-64
1490985567841,1,-99,-6,-39,-53,4,67,24,64
1490985567841,1,33,-23,25,81,0,-35,-20,-8
1490985567843,2,41,65,86,-8,-3,-27,-34,-7
1490985567843,2,25,32,-80,-7,2,2,31,2
1490985567844,0,-16,-16,117,78,-2,49,-10,-79
1490985567844,0,-1,-110,-65,-68,5,-32,21,21
1490985567845,1,105,24,9,33,-1,-45,-16,68
1490985567845,1,-69,-53,-106,-47,-3,-40,40,19
1490985567890,2,90,44,33,47,2,62,-26,39
1490985567890,2,-128,-49,81,109,21,-78,23,-20
1490985567891,3,74,49,-39,117,18,127,-49,29
1490985567891,3,-26,-54,23,-90,-27,-10,0,73
1490985567892,0,-3,28,-51,14,-7,-97,-2,-67
1490985567892,0,116,41,18,-3,20,35,-25,-48
1490985567894,1,-52,21,-54,-6,-10,-90,14,-18
1490985567894,1,40,-10,127,127,77,60,4,81
1490985567939,2,-5,12,-128,-128,-6,72,0,59
1490985567939,2,86,-72,27,-63,-29,4,-23,-41
1490985567940,3,7,-38,21,-48,-24,-47,-13,-25
1490985567940,3,21,100,-81,4,12,-38,66,-60
1490985567941,1,43,-5,49,-10,-1,105,-8,48
1490985567941,1,-44,-55,-19,-98,-37,-78,-50,-85
1490985567942,2,-128,25,-98,10,-5,-96,48,45
1490985567942,2,-127,-117,-13,72,-2,106,-14,-4
1490985567987,3,-128,108,101,27,10,8,51,-24
1490985567987,3,41,21,-75,73,30,12,18,-34
1490985567989,0,55,46,-60,-126,-48,75,-83,-5
1490985567989,0,-59,-17,127,-60,25,-83,-46,-27
1490985567990,2,42,-26,-65,11,-8,-33,64,13
1490985567990,2,-115,-4,91,58,-1,-3,106,48
1490985567991,3,78,85,-18,12,41,91,117,6
1490985567991,3,-44,22,-104,-92,-60,-70,122,-46
1490985568036,0,-128,-128,80,-17,-7,-128,51,-40
1490985568036,0,89,37,84,80,49,-3,46,11
1490985568037,1,-39,34,9,123,41,81,34,38
1490985568037,1,-64,-72,-74,-69,20,-22,-6,-73
1490985568038,3,-30,-104,-76,-66,-14,-3,-52,-106
1490985568038,3,58,58,127,-50,-21,-20,73,113
1490985568039,0,-30,2,61,99,60,71,-58,-60
1490985568039,0,-22,103,-120,-128,-21,5,-32,79
1490985568085,1,103,5,113,105,-21,-128,49,34
1490985568085,1,-74,7,-89,127,27,78,-42,14
1490985568086,2,-67,-76,-110,-118,0,103,8,-10
1490985568086,2,34,17,-16,46,-29,7,-73,13
1490985568087,0,56,-59,-42,45,36,-40,-27,-106
1490985568087,0,-104,-31,-20,-1,-10,-8,4,11
1490985568088,1,82,83,38,31,7,85,-34,45
1490985568088,1,-41,-93,0,-29,-21,33,14,-88
1490985568134,2,9,118,-116,-34,-1,-23,-5,-17
1490985568134,2,33,-36,-1,-43,-35,17,-12,-50
1490985568135,3,35,22,-11,42,16,11,27,24
1490985568135,3,8,112,-12,77,25,79,-12,31
1490985568136,1,-115,-128,-21,25,11,50,49,72
1490985568136,1,21,-26,-20,41,22,-4,-41,-30
1490985568136,2,-100,44,73,62,10,-36,34,-23
1490985568136,2,73,70,67,92,37,78,5,69
1490985568190,3,86,-83,-105,-128,-42,-52,-21,74
1490985568190,3,21,-94,-69,38,-52,-91,-24,-23
1490985568192,0,-104,29,117,115,79,-117,37,-24
1490985568192,0,85,109,-47,35,-26,34,-90,-7
1490985568194,2,120,50,-112,-87,-36,71,61,110
1490985568194,2,54,43,-30,-48,17,8,53,-19
1490985568195,3,22,43,-56,9,21,-26,-65,-83
1490985568195,3,-69,-85,104,-122,-50,-3,-20,-36
1490985568231,0,68,79,54,126,73,-45,-34,-81
1490985568231,0,-128,-128,-128,-128,-40,-2,55,-54
1490985568233,1,100,-34,96,71,-18,26,-5,-2
1490985568233,1,-20,127,-3,113,41,49,12,20
1490985568234,3,-44,2,-114,-31,5,-40,25,19
1490985568234,3,-14,-94,117,93,31,126,-77,-34
1490985568235,0,63,75,-5,27,-10,60,-128,5
1490985568235,0,43,-60,-119,-64,-29,-47,-75,-18
1490985568280,1,-128,-13,115,96,21,-125,30,-36
1490985568280,1,127,127,60,42,-6,-36,-3,36
1490985568281,2,-98,-31,-128,-109,-81,-11,7,-22
1490985568281,2,34,-70,127,127,20,18,37,15
1490985568282,3,108,102,-31,-24,56,119,-46,6
1490985568282,3,-56,10,-100,-99,-2,33,98,15
1490985568283,0,-11,-77,127,127,4,-59,-55,-94
1490985568283,0,70,75,-79,85,49,-36,12,42
1490985568329,1,-93,30,89,-103,-14,-35,50,28
1490985568329,1,127,14,-128,37,27,-70,-110,-71
1490985568330,2,-100,-34,22,-75,-56,-69,42,36
1490985568330,2,-105,40,80,-14,28,-41,59,44
1490985568331,0,-128,-9,20,81,-34,46,80,-2
1490985568331,0,127,48,-49,-30,-8,106,-42,-55
1490985568332,1,-71,-80,37,-93,-27,62,34,-54
1490985568332,1,49,40,30,79,14,-2,-4,41
1490985568378,2,-79,-128,23,-4,30,-108,-32,-18
1490985568378,2,104,97,92,-74,-49,-72,24,81
1490985568379,3,36,-128,-84,-93,-40,-108,-93,-74
1490985568379,3,-108,-83,-128,-51,-62,-85,59,-52
1490985568380,1,5,-76,-76,-109,-92,-95,76,-6
1490985568380,1,-96,53,127,104,5,-86,-6,29
1490985568381,2,6,61,10,62,10,24,2,-66
1490985568381,2,-78,12,-107,-76,49,34,-41,68
1490985568426,3,127,54,-21,29,-75,-85,-53,84
1490985568426,3,11,-20,57,6,-21,-45,46,-10
1490985568428,0,93,108,77,35,22,43,-2,13
1490985568428,0,-117,-51,-54,18,21,48,4,0
1490985568429,2,92,25,-25,16,16,93,0,7
1490985568429,2,100,79,-80,71,18,79,-58,29
1490985568430,3,-85,-40,-80,-16,18,80,-18,9
1490985568430,3,-52,-102,-99,73,-34,3,51,-81
1490985568475,0,-42,49,10,-53,-69,-51,-27,63
1490985568475,0,39,86,95,100,-18,-75,-38,-15
1490985568476,1,55,27,94,40,90,-69,-81,-59
1490985568476,1,-94,-37,76,-128,5,-60,78,-73
1490985568477,3,-71,36,-68,16,16,-83,32,-19
1490985568477,3,125,35,101,-47,0,-13,-17,55
1490985568478,0,-55,35,1,-41,19,-16,-19,-47
1490985568478,0,34,-97,-39,-105,-128,-71,10,-6
1490985568524,1,-29,64,103,85,65,16,41,-21
1490985568524,1,66,-4,-50,113,27,52,-43,38
1490985568525,2,6,-69,-95,-128,-43,30,17,32
1490985568525,2,-79,-80,94,52,37,-30,37,-32
1490985568526,0,104,102,91,91,116,22,74,56
1490985568526,0,-85,14,-112,-92,6,8,-7,52
1490985568527,1,91,-34,-42,-75,-109,-37,45,38
1490985568527,1,-109,22,55,89,99,24,-93,-85
1490985568573,2,43,-7,71,64,-16,-8,-5,35
1490985568573,2,58,4,98,62,48,31,-25,-1
1490985568574,3,-73,3,120,-15,2,50,-53,90
1490985568574,3,70,-101,-128,-128,-60,4,-52,12
1490985568575,1,-50,42,-64,-55,65,50,-16,12
1490985568575,1,110,69,50,87,-2,42,-45,-16
1490985568576,2,17,43,-63,-105,-65,4,-43,12
1490985568576,2,27,-73,-111,-106,30,15,80,-24
1490985568621,3,-28,26,13,69,3,66,-35,-38
1490985568621,3,10,-18,-74,-116,21,11,49,26
1490985568622,0,-30,-80,45,80,41,22,-22,-60
1490985568622,0,69,43,18,87,-47,-15,-26,8
1490985568623,1,71,44,-76,0,-38,-33,-28,16
1490985568623,1,-55,-79,-114,-58,-65,-31,20,-36
1490985568624,2,-37,20,40,25,-8,-9,-15,-8
1490985568624,2,-98,-4,-57,-23,57,11,30,-50
1490985568670,3,127,127,127,127,72,78,-34,68
1490985568670,3,13,87,96,89,8,5,-72,-2
1490985568671,0,-4,-108,-128,-111,-39,-47,82,7
1490985568671,0,-110,-54,-74,-20,-18,-90,-13,-122
1490985568672,2,-52,-46,97,89,47,56,-39,-14
1490985568672,2,-25,48,-101,-120,-67,-26,71,9
1490985568673,3,-4,54,-54,-33,-50,-79,-11,-47
1490985568673,3,15,97,-21,83,48,-54,-89,38
1490985568719,0,23,47,-26,-34,56,-47,-22,11
1490985568719,0,5,-91,-26,-60,-60,-52,2,-2
1490985568720,1,-44,-120,-60,-23,-42,6,82,-13
1490985568720,1,2,-123,83,48,26,-12,-9,-7
1490985568720,3,58,38,94,105,88,104,7,57
1490985568720,3,-72,-18,-54,-118,-55,55,3,-10
1490985568721,0,-30,-64,-99,-72,-65,-46,40,-32
1490985568721,0,14,124,127,101,18,-72,-2,-30
1490985568767,1,38,70,17,50,-31,-83,-28,29
1490985568767,1,23,-15,-78,-5,4,66,-90,-22
1490985568768,2,-6,-75,-72,-66,39,-12,36,24
1490985568768,2,-45,-128,-123,-122,-99,25,48,-4
1490985568769,0,-10,-44,87,127,106,-75,-3,-6
1490985568769,0,32,-40,31,127,38,-109,-44,4
1490985568772,1,6,-75,-39,-17,33,-92,-48,18
1490985568772,1,2,-47,-39,-103,-75,-39,49,-4
1490985568816,2,-7,-4,85,19,-4,104,-13,-7
1490985568816,2,-17,43,9,38,38,89,17,24
1490985568817,3,31,-8,98,-16,43,67,-36,-11
1490985568817,3,-54,-86,-115,-113,-82,14,96,-1
1490985568818,1,-1,-35,46,26,-32,43,-14,9
1490985568818,1,32,95,90,-5,50,56,-22,10
1490985568819,2,34,117,87,-11,-23,-2,-17,-4
1490985568819,2,24,98,27,71,56,38,-31,-6
1490985568865,3,-59,1,-128,-128,-32,12,-3,-16
1490985568865,3,-34,-7,-57,-21,-55,-26,18,-10
1490985568866,0,42,-3,0,56,-7,17,25,2
1490985568866,0,31,31,41,89,104,78,-4,18
1490985568867,2,7,21,47,43,34,42,-4,-5
1490985568867,2,18,8,-6,-71,-50,-22,29,29
1490985568869,3,-18,-31,-71,-49,-57,-41,-31,-9
1490985568869,3,28,13,24,2,23,-87,-20,0
1490985568914,0,-21,33,-1,-7,-8,-15,-16,-11
1490985568914,0,8,91,93,18,-28,39,20,27
1490985568916,1,13,-53,-4,17,51,55,49,13
1490985568916,1,-37,-35,-38,1,22,5,-27,-23
1490985568917,3,-11,24,-22,-11,73,81,29,6
1490985568917,3,21,43,47,43,11,28,28,9
1490985568917,0,3,94,-30,9,61,27,21,-3
1490985568917,0,20,125,11,-16,-32,-85,-80,14
1490985568963,1,-7,23,0,-45,-19,33,40,-26
1490985568963,1,-25,-39,11,27,29,-2,-48,-27
1490985568964,2,5,-73,-34,-70,-25,-15,36,34
1490985568964,2,11,-33,-6,26,-25,27,-34,-1
1490985568966,3,19,-25,21,42,14,-1,10,16
1490985568966,3,-5,-17,37,6,-4,-41,-25,2
1490985568967,0,-2,-76,-64,-40,-19,94,11,6
1490985568967,0,11,-47,16,11,3,34,-31,-21
1490985569012,1,5,-12,6,32,-26,58,-67,-16
1490985569012,1,-10,-22,6,-34,-79,-5,57,22
1490985569013,2,12,38,41,59,53,-11,40,24
1490985569013,2,-25,-6,64,41,52,-62,31,3
1490985569015,0,-15,-43,-9,0,-22,-13,-9,-14
1490985569015,0,17,2,43,24,52,-93,-29,-18
1490985569015,1,17,50,34,48,-26,-57,19,43
1490985569015,1,25,33,1,-7,55,-16,-40,4
1490985569060,2,0,1,-20,-22,-22,-25,-22,-10
1490985569060,2,-16,-18,-25,-3,-6,51,-14,-18
1490985569061,3,31,22,-91,62,29,11,-43,3
1490985569061,3,-44,44,110,7,11,38,-13,-11
1490985569062,1,-46,-24,-14,9,-11,-24,13,-4
1490985569062,1,41,38,-56,-24,-26,28,1,49
1490985569062,2,-24,17,44,86,43,12,-15,-74
1490985569062,2,14,-61,-47,-87,-68,-21,-27,-27
1490985569109,3,22,59,81,21,-45,17,21,10
1490985569109,3,39,23,52,101,92,13,-40,16
1490985569110,0,-22,-84,-107,-48,-4,10,17,28
1490985569110,0,-25,-23,13,-109,-13,18,38,-1
1490985569111,2,68,77,54,40,10,51,-21,44
1490985569111,2,-64,0,1,27,10,98,31,-14
1490985569112,3,-2,-11,-16,-50,-12,50,10,38
1490985569112,3,28,-33,-42,56,-34,5,18,17
1490985569157,0,-84,-4,-10,-88,7,-38,-32,-36
1490985569157,0,14,2,13,18,-26,-67,-15,15
1490985569158,1,-28,-52,2,-64,9,-19,24,-46
1490985569158,1,-12,-6,78,86,32,111,110,-3
1490985569159,3,-29,17,28,16,-12,20,-3,-6
1490985569159,3,5,31,67,-25,-10,-35,-1,-22
1490985569160,0,31,-24,-70,-15,-29,-78,-39,31
1490985569160,0,1,61,12,51,32,-59,-36,-34
1490985569206,1,51,18,17,7,23,-65,6,39
1490985569206,1,-58,-41,-62,-52,-21,-65,-37,-8
1490985569207,2,5,8,108,-5,-32,-47,3,-7
1490985569207,2,15,5,-108,-13,25,-57,-44,-6
1490985569208,0,-44,-87,-78,-22,-3,-26,9,12
1490985569208,0,-80,-40,-26,50,8,-15,10,-58
1490985569209,1,17,14,39,-29,12,-15,-42,-21
1490985569209,1,-6,-33,-28,-49,-33,-10,-10,-44
1490985569256,2,21,106,-19,126,11,-29,-40,-7
1490985569256,2,64,-76,25,-113,-15,-14,77,33
1490985569264,3,-47,96,98,47,9,-18,-53,-31
1490985569264,3,-37,-84,-115,-82,-18,-19,-33,0
1490985569264,1,-66,22,-2,-35,-9,17,22,2
1490985569264,1,34,31,-24,5,-37,34,-19,15
1490985569265,2,-18,31,73,33,64,19,-36,15
1490985569265,2,-8,-37,15,-46,-29,34,40,-16
1490985569353,3,122,103,-4,36,24,25,-67,14
1490985569353,3,-73,-30,-38,-82,-39,22,10,-14
1490985569354,0,-48,-118,1,47,-10,13,11,-26
1490985569354,0,25,127,57,-65,10,-3,-21,14
1490985569355,1,8,-27,-47,15,-9,15,34,20
1490985569355,1,-103,-109,-18,45,22,10,32,58
1490985569355,2,93,83,-30,-62,-39,-29,1,-14
1490985569355,2,-47,-88,62,46,8,-24,-11,-11
1490985569401,3,19,2,85,105,27,-22,-17,4
1490985569401,3,62,127,113,-20,-17,-45,-16,53
1490985569402,0,-88,-126,-74,-101,-42,-29,67,3
1490985569402,0,-45,82,88,115,21,-8,-24,-26
1490985569403,2,72,-65,107,1,-10,-15,-21,11
1490985569403,2,-27,-120,-95,-62,-3,0,0,-1
1490985569404,3,-13,23,11,6,7,31,2,47
1490985569404,3,66,59,66,-6,-25,-28,-34,-90
1490985569450,0,-69,77,56,119,28,5,-6,61
1490985569450,0,49,62,-128,-128,-14,-32,31,-45
1490985569451,1,33,-38,-63,-28,-50,-1,-4,-31
1490985569451,1,-33,12,90,94,57,-8,6,-39
1490985569453,0,0,40,-52,-31,-26,23,-1,24
1490985569453,0,-91,76,127,127,25,34,-1,81
1490985569460,1,-6,-72,-128,-38,32,-94,13,-59
1490985569460,1,1,72,40,-3,-23,-27,-26,74
1490985569499,2,2,58,1,-2,0,-26,-15,-76
1490985569499,2,54,-82,-124,-81,-32,23,15,23
1490985569500,3,-60,-1,30,-3,5,61,24,16
1490985569500,3,87,64,-99,56,-5,17,-60,-4
1490985569501,1,-64,70,-15,-75,-32,4,-10,-43
1490985569501,1,79,27,10,64,-3,-19,8,-32
1490985569502,2,-37,14,-20,10,50,9,5,-38
1490985569502,2,72,69,74,47,10,-29,-28,-2
1490985569547,3,-28,64,73,99,16,-32,-14,8
1490985569547,3,-69,-92,12,-95,-16,-33,39,-9
1490985569548,0,95,15,-43,-59,-32,-24,-9,11
1490985569548,0,-109,-78,-128,-14,-17,-20,31,-4
1490985569549,2,11,-50,-103,36,-23,28,24,-16
1490985569549,2,19,-31,18,-58,-13,42,-6,4
1490985569550,3,-14,-13,91,-13,0,69,20,-1
1490985569550,3,-71,54,-27,42,-14,-22,-39,0
1490985569596,0,-89,-128,-25,-67,-10,-22,44,28
1490985569596,0,127,93,20,-21,-18,86,-13,-43
1490985569597,1,-7,-32,5,110,26,65,-3,-14
1490985569597,1,-5,2,15,-47,7,5,-22,15
1490985569598,3,16,107,69,43,29,-128,31,-31
1490985569598,3,37,18,-31,-44,-14,-82,4,13
1490985569599,0,22,99,43,-41,-19,-33,-12,-57
1490985569599,0,50,127,-3,80,1,19,-19,114
1490985569645,1,-37,-128,-47,-90,-9,22,-74,11
1490985569645,1,46,44,31,57,-3,1,7,-13
1490985569646,2,-97,6,-89,46,60,-87,44,26
1490985569646,2,109,-31,84,-28,-10,-65,5,-45
1490985569647,0,125,-26,127,75,5,127,37,32
1490985569647,0,-9,-78,-95,-35,9,60,56,9
1490985569648,1,-8,-128,-128,76,1,13,-45,-4
1490985569648,1,-21,-65,-29,-95,-44,1,-5,-30
1490985569694,2,-9,-128,74,-53,-25,72,-45,-5
1490985569694,2,-50,-106,-68,-9,1,12,-18,-29
1490985569695,3,-35,-54,53,-18,11,40,-23,-20
1490985569695,3,1,22,88,58,38,25,-10,32
1490985569696,0,59,-37,26,31,-45,5,-32,-50
1490985569696,0,14,127,127,58,29,26,-41,55
1490985569696,1,-23,95,-92,-47,0,36,-6,-46
1490985569696,1,31,73,-53,-36,3,27,2,-37
1490985569742,2,-90,19,-71,-55,8,77,6,28
1490985569742,2,-27,82,30,31,1,24,3,-14
1490985569744,3,65,50,24,51,10,-17,20,22
1490985569744,3,-29,81,80,41,0,-44,-4,26
1490985569744,1,36,41,-33,2,-26,-71,-17,-1
1490985569744,1,-39,-128,-128,-128,-12,-36,18,-23
1490985569745,2,-2,-128,-48,56,-11,-9,-20,-9
1490985569745,2,-11,-39,74,-34,15,-12,-3,-14
1490985569791,3,37,-75,48,24,-7,14,5,45
1490985569791,3,-50,-106,30,58,21,-12,-4,-5
1490985569792,0,61,-20,-12,-43,-10,-45,21,-20
1490985569792,0,-17,-29,44,66,16,-31,-9,12
1490985569793,2,-15,-5,31,-103,0,39,-20,-5
1490985569793,2,38,63,-68,-69,-25,27,-30,-25
1490985569794,3,41,20,40,-22,4,9,12,34
1490985569794,3,-46,-103,-1,86,-3,30,-12,-28
1490985569840,0,26,-55,-7,37,13,-19,7,-24
1490985569840,0,-55,2,-7,109,-7,61,9,-8
1490985569841,1,44,64,1,-24,-1,79,3,25
1490985569841,1,8,-77,-28,-20,-36,-68,4,3
1490985569842,3,-10,-90,30,53,-6,-17,-23,-6
1490985569842,3,-13,48,-3,24,7,5,10,15
1490985569843,0,23,-34,98,3,21,7,9,14
1490985569843,0,17,67,-17,-4,-26,-27,-13,11
1490985569889,1,46,13,-20,-14,24,4,11,5
1490985569889,1,-18,-82,-36,-23,-19,13,-55,-12
1490985569890,2,-77,-72,-53,-9,-27,0,2,-12
1490985569890,2,-56,-73,55,46,14,4,0,7
1490985569891,0,65,127,-1,10,-3,4,54,22
1490985569891,0,41,89,-12,2,1,-69,9,-5
1490985569892,1,-6,29,-32,-73,-18,-16,-23,14
1490985569892,1,-50,50,18,39,7,-79,16,-40
1490985569938,2,42,57,54,18,-8,12,-24,6
1490985569938,2,-66,-29,-30,-18,-20,33,-28,4
1490985569940,3,58,-128,-52,-58,-27,2,6,-25
1490985569940,3,20,125,1,-16,72,-8,-1,0
1490985569941,1,1,-4,1,50,52,7,7,-8
1490985569941,1,83,42,7,-20,-42,33,-11,29
1490985569942,2,7,-39,-34,-26,-62,-47,20,-16
1490985569942,2,28,-36,-2,20,-34,22,-19,16
1490985569986,3,-88,-24,36,6,-29,13,26,7
1490985569986,3,12,-56,-29,-24,-15,4,-18,-14
1490985569987,0,-69,-83,-33,-4,-17,-55,6,-10
1490985569987,0,51,-10,-40,-32,-14,18,16,-6
1490985569988,2,80,36,9,10,-20,43,-9,13
1490985569988,2,24,-96,-29,-46,12,-51,21,7
1490985569989,3,-55,-12,-38,3,14,-35,0,-24
1490985569989,3,-28,-113,21,23,-13,-29,9,2
1490985570035,0,63,-4,61,19,26,-13,-3,-6
1490985570035,0,116,74,-4,0,0,43,-15,10
1490985570036,1,106,127,-26,4,-22,-25,-3,-5
1490985570036,1,-10,84,-13,-36,0,-11,-30,-9
1490985570037,2,-83,-20,-6,-15,-19,32,17,1
1490985570037,2,-5,-49,-1,22,5,-8,-31,10
1490985570037,3,-115,-90,18,24,6,89,30,26
1490985570037,3,-40,-66,15,-4,-14,83,12,4
1490985570084,0,27,-13,-6,7,-6,8,6,-4
1490985570084,0,38,91,-15,12,16,-19,21,15
1490985570085,1,17,125,51,-2,-12,-38,-18,-3
1490985570085,1,-5,100,-49,8,3,-79,20,-1
1490985570085,3,44,-10,43,2,22,2,1,-13
1490985570085,3,-32,-63,-12,2,-26,13,-65,9
1490985570086,0,37,-15,-22,-34,13,-75,-38,1
1490985570086,0,9,-69,2,4,-12,53,-33,2
1490985570132,1,-54,-48,8,21,12,-17,8,3
1490985570132,1,78,45,37,4,34,17,-30,17
1490985570134,2,-92,-7,-35,9,-12,11,-38,-31
1490985570134,2,-10,-28,-18,-41,-13,43,42,26
1490985570134,0,-96,-116,33,12,18,-11,25,-25
1490985570134,0,50,49,35,28,9,30,74,10
1490985570135,1,6,-11,-54,-23,-13,-11,34,-7
1490985570135,1,61,-7,28,-2,-11,24,-35,-17
1490985570181,2,-21,-37,8,-10,13,45,-28,4
1490985570181,2,-51,44,26,27,-2,-17,6,-9
1490985570182,3,86,24,-27,4,-4,-19,-35,28
1490985570182,3,-51,32,-8,-87,-18,-46,38,-9
1490985570183,1,-47,-33,77,36,24,-29,2,18
1490985570183,1,9,-79,39,35,-1,11,3,-32
1490985570184,2,-128,90,0,-56,-20,34,-20,-4
1490985570184,2,20,41,9,23,26,-90,25,12
1490985570230,3,-14,18,49,42,-22,32,-25,-36
1490985570230,3,-22,-87,-102,-5,45,25,-42,10
1490985570231,0,-112,-5,4,-78,-23,-32,57,16
1490985570231,0,-2,60,-27,28,-10,31,-15,-13
1490985570232,2,8,-7,-23,7,14,49,40,59
1490985570232,2,-128,-79,-57,-86,-4,-19,14,-15
1490985570233,3,-24,-32,-26,11,-4,-9,-6,9
1490985570233,3,-27,-80,-42,-11,-32,41,14,-15
1490985570279,0,60,81,29,-4,-4,-89,-22,-16
1490985570279,0,-64,-31,78,41,6,2,14,7
1490985570280,1,-70,-89,72,45,-2,21,6,-42
1490985570280,1,-40,85,-69,30,34,43,-120,-37
1490985570281,3,41,88,28,-59,-15,-32,-56,-37
1490985570281,3,-60,71,-12,37,-8,-49,103,23
1490985570283,0,22,-68,11,82,18,27,5,-78
1490985570283,0,105,52,-8,-18,-8,-65,33,-18
1490985570327,1,28,111,-35,-22,14,40,-65,32
1490985570327,1,-29,-67,-43,49,-10,105,18,36
1490985570329,2,-4,33,8,-56,-24,-1,-17,-37
1490985570329,2,-100,23,98,35,17,-68,12,-13
1490985570330,0,84,-15,18,-73,-18,26,26,21
1490985570330,0,-122,-71,-63,116,14,-4,14,-24
1490985570331,1,66,60,89,-20,6,-28,15,23
1490985570331,1,78,63,-122,0,4,20,28,49
1490985570377,2,-124,-128,-32,-46,-33,34,-28,-76
1490985570377,2,37,127,127,-27,-24,-77,74,52
1490985570378,3,86,35,89,101,41,49,47,-26
1490985570378,3,2,39,-22,-98,5,27,-13,12
1490985570379,0,96,-20,-38,-39,-17,8,8,86
1490985570379,0,-21,35,71,39,22,-8,-8,25
1490985570380,1,-4,58,-49,48,31,86,-20,29
1490985570380,1,39,14,22,-84,-24,-3,-32,-18
1490985570426,2,-77,18,11,47,-8,-77,44,-37
1490985570426,2,50,-128,-128,-128,-22,-5,-30,-19
1490985570428,3,73,37,107,78,-9,-24,31,46
1490985570428,3,11,83,127,106,-5,20,12,-41
1490985570429,1,-50,-102,-63,-128,-2,-13,70,-52
1490985570429,1,-18,-61,20,-21,-32,-28,17,38
1490985570430,2,78,28,127,76,30,56,27,56
1490985570430,2,-60,-47,-93,120,43,35,-52,-55
1490985570474,3,27,62,-95,-71,-48,33,-81,20
1490985570474,3,-21,-128,80,-86,-26,-128,107,35
1490985570475,0,-21,117,97,127,78,44,-56,-13
1490985570475,0,1,-106,-92,-28,-8,115,-56,53
1490985570478,2,28,-33,121,84,-7,-52,-124,2
1490985570478,2,127,120,33,93,29,59,-37,88
1490985570479,3,-117,-128,-111,-101,-19,-120,-25,-120
1490985570479,3,73,-48,-55,-4,-36,-15,31,50
1490985570523,0,19,25,45,74,7,-33,7,-40
1490985570523,0,-78,41,127,71,11,47,-59,-88
1490985570524,1,-33,124,-78,-33,45,-35,29,127
1490985570524,1,-32,-86,82,-46,44,5,-92,-128
1490985570525,3,51,75,98,25,-13,28,-4,-9
1490985570525,3,14,78,-2,109,93,-31,-21,55
1490985570526,0,-2,-76,-79,-97,-39,86,-9,-5
1490985570526,0,74,48,66,-118,-20,-56,69,-60
1490985570571,1,-60,-90,46,94,-29,14,30,-47
1490985570571,1,-4,78,99,36,23,-14,122,70
1490985570573,2,80,127,7,127,79,127,-25,58
1490985570573,2,3,58,-51,-53,-7,100,-74,32
1490985570574,0,-77,29,24,39,6,-72,64,21
1490985570574,0,54,75,108,115,45,-13,11,76
1490985570575,1,-128,-88,-102,89,54,-53,-95,-63
1490985570575,1,37,-33,-82,-108,-78,38,-17,81
1490985570620,2,-128,-105,-53,-128,-43,-128,-14,-128
1490985570620,2,92,17,47,83,-18,-81,71,81
1490985570622,3,12,-44,-36,75,91,-10,-40,102
1490985570622,3,107,113,-51,-31,-1,95,-8,-33
1490985570623,1,-10,59,-40,64,9,96,-6,53
1490985570623,1,-128,-16,107,21,7,6,-2,-53
1490985570624,2,114,74,-53,-38,52,47,-21,-58
1490985570624,2,-73,71,56,16,-21,-85,8,90
1490985570670,3,-37,-89,-80,-45,-30,40,38,-128
1490985570670,3,-37,9,109,-39,1,20,-62,4
1490985570671,0,18,24,-64,127,1,15,29,-47
1490985570671,0,-17,-99,-122,-56,-5,-99,5,89
1490985570673,2,17,2,115,-65,-23,-19,-5,80
1490985570673,2,-127,-122,51,108,60,-41,27,-127
1490985570674,3,119,127,-18,67,-28,40,-103,77
1490985570674,3,-78,-109,-115,-50,19,-7,-8,60
1490985570718,0,-128,-18,41,-62,-36,29,86,10
1490985570718,0,100,80,50,64,16,21,6,3
1490985570719,1,-128,-128,5,-17,55,84,-27,-61
1490985570719,1,127,-13,-25,-52,-57,47,54,-5
1490985570767,2,-35,57,77,121,43,-34,13,77
1490985570767,2,83,30,-128,17,-8,38,10,-51
1490985570769,3,127,127,100,-120,-40,-59,127,18
1490985570769,3,-105,-82,-117,88,21,1,21,44
1490985570770,0,127,112,113,63,5,26,21,25
1490985570770,0,-55,-69,-114,-46,18,58,-5,-113
1490985570772,1,100,92,-14,33,21,-16,-95,66
1490985570772,1,-69,-105,-73,-72,-33,4,-22,-13
1490985570815,3,-83,-75,39,-54,-64,-25,-23,-11
1490985570815,3,121,26,23,122,105,42,-42,39
1490985570818,0,-61,9,-128,-76,27,88,-42,-39
1490985570818,0,-72,-63,-52,-102,-53,18,-48,18
1490985570819,1,71,14,-94,-119,-26,-58,56,-10
1490985570819,1,-60,-46,89,70,31,73,46,32
1490985570820,0,77,-59,-128,-78,-32,-55,14,7
1490985570820,0,-110,-12,127,88,23,114,88,66
1490985570864,1,109,-30,68,127,30,-20,-23,-2
1490985570864,1,16,45,-77,-126,-41,-19,38,15
1490985570865,2,81,77,122,89,-42,-126,8,55
1490985570865,2,-17,-37,64,98,45,-128,36,26
1490985570865,1,23,-77,73,89,-69,112,104,63
1490985570865,1,-67,27,-3,63,18,9,-20,-71
1490985570866,2,26,-47,8,-47,-29,-34,-91,-30
1490985570866,2,116,78,-69,-69,10,-99,-18,102
1490985570961,3,-57,2,2,73,70,-69,-68,22
1490985570961,3,-40,-45,-82,-67,-54,-77,2,13
1490985570962,0,-87,-124,-84,-62,-71,-93,60,-28
1490985570962,0,-45,62,4,72,20,-65,65,-65
1490985570963,2,-116,-83,-34,-16,104,13,51,57
1490985570963,2,105,39,45,21,10,-28,-125,-53
1490985570964,3,-128,-111,-109,-84,-59,-79,73,25
1490985570964,3,90,33,24,12,-24,-9,-53,73
1490985571010,0,12,89,35,35,3,-4,-66,-128
1490985571010,0,101,82,95,125,49,40,-30,104
1490985571011,1,-128,-47,-38,-21,-40,11,-8,-25
1490985571011,1,-23,-128,-128,-95,76,-12,7,-75
1490985571011,3,35,35,-5,-57,15,28,-11,-23
1490985571011,3,-26,18,-75,-118,-84,-2,-27,-31
1490985571012,0,-5,-79,-114,-91,21,39,43,-56
1490985571012,0,-27,-110,-128,-91,-48,-2,-43,-10
1490985571059,1,-45,80,104,105,-41,-41,-119,32
1490985571059,1,9,15,7,-13,92,17,43,-56
1490985571059,2,48,-40,-52,-66,-48,4,-44,124
1490985571059,2,-115,-115,43,13,-27,2,87,-90
1490985571060,1,-17,-50,126,114,50,-8,-41,-49
1490985571060,1,-123,-128,-128,-51,-26,33,51,-29
1490985571061,2,83,35,-18,71,36,-30,-92,-40
1490985571061,2,89,-87,-8,-79,-64,36,70,88
1490985571108,3,-128,-58,-73,-46,-44,-10,71,-27
1490985571108,3,98,102,116,57,79,-1,9,0
1490985571109,0,44,-7,17,101,-5,-33,-10,15
1490985571109,0,-67,-67,-77,-53,9,-22,77,-47
1490985571109,1,54,-9,72,59,9,25,108,42
1490985571109,1,33,-25,39,72,-38,53,67,8
1490985571110,2,-25,93,127,127,96,27,-81,19
1490985571110,2,83,95,41,104,69,17,-128,22
1490985571156,3,-11,72,-109,-128,-62,9,-4,40
1490985571156,3,-76,-115,-128,-101,-98,-23,-61,-82
1490985571158,0,-11,33,9,42,-22,24,-21,5
1490985571158,0,22,77,127,-45,76,74,68,69
1490985571159,2,-59,-119,-110,-128,-115,-16,12,37
1490985571159,2,-55,-128,48,115,-5,-66,60,-19
1490985571160,3,-6,-43,113,76,-7,-61,-23,-10
1490985571160,3,-33,-100,-72,11,44,-19,56,37
1490985571206,0,26,55,124,127,126,54,-29,-3
1490985571206,0,85,106,-95,-117,-128,-30,-11,40
1490985571208,1,-58,-14,-80,-52,63,-38,-36,-53
1490985571208,1,-58,-67,6,-128,53,-8,41,-12
1490985571208,3,109,125,127,41,2,-55,-37,14
1490985571208,3,-14,-49,-107,-97,-30,-1,-60,-13
1490985571209,0,-6,60,-88,-61,-49,68,10,19
1490985571209,0,31,-56,-19,30,53,127,-2,-40
1490985571254,1,-18,-26,-86,4,-48,111,-2,0
1490985571254,1,33,114,58,-57,-27,-9,-36,28
1490985571256,2,-35,-32,-77,-69,-35,10,65,-20
1490985571256,2,23,84,68,125,-22,-39,-101,-4
1490985571258,0,-29,-1,113,12,-67,-6,59,17
1490985571258,0,17,-7,47,39,93,25,12,-30
1490985571260,1,66,59,120,92,-82,20,-58,46
1490985571260,1,10,6,15,66,24,-16,6,-10
1490985571303,2,-16,2,85,-34,69,102,37,-23
1490985571303,2,-53,-122,-128,-126,-95,-68,14,-12
1490985571304,3,39,-8,88,54,-15,3,26,28
1490985571304,3,-66,-12,90,110,-19,-111,-17,-33
1490985571306,1,-12,-76,41,17,38,24,6,-10
1490985571306,1,21,-43,-35,-99,-55,36,-4,35
1490985571307,2,-6,67,83,127,23,86,40,4
1490985571307,2,51,111,72,38,70,74,-87,41
1490985571352,3,-11,-92,-127,-128,-18,-23,9,-22
1490985571352,3,-75,-56,3,127,29,28,86,-38
1490985571354,0,10,86,67,52,-43,2,-72,-9
1490985571354,0,-11,11,-73,-10,-15,11,0,-7
1490985571355,2,-26,-128,-100,-57,-109,-14,16,-7
1490985571355,2,-7,-128,15,-32,41,80,52,-19
1490985571356,3,29,-115,31,32,36,-7,-31,-9
1490985571356,3,33,47,70,31,2,38,-30,-14
1490985571400,0,-5,-82,-86,-102,-47,-7,72,23
1490985571400,0,-34,26,-15,13,-38,-31,-33,-20
1490985571403,1,-13,26,21,-4,27,-14,27,-2
1490985571403,1,22,122,121,76,29,-19,-46,4
1490985571404,3,-55,-39,64,-5,95,51,-20,-35
1490985571404,3,35,-56,19,34,-1,26,-7,39
1490985571405,0,-5,-70,-50,-84,11,-12,42,-35
1490985571405,0,-19,-76,-45,26,1,61,27,8
1490985571450,1,-38,-4,15,31,-20,-50,-21,-14
1490985571450,1,13,-69,72,25,-38,-32,-24,24
1490985571452,2,-6,-29,23,-26,42,54,39,-17
1490985571452,2,-102,-9,4,13,17,-46,-25,-12
1490985571453,3,46,24,55,67,-1,-32,-13,27
1490985571453,3,46,-46,-10,-126,-9,-22,-10,30
1490985571454,0,-41,7,113,18,-58,-55,-38,-12
1490985571454,0,31,31,127,15,-16,5,19,-14
1490985571497,1,-24,12,6,20,-61,19,3,10
1490985571497,1,25,20,-128,-1,35,8,2,0
1490985571499,2,17,27,-107,-21,98,45,-49,11
1490985571499,2,15,47,-113,16,-73,-16,18,-14
1490985571499,0,3,8,95,50,16,-17,-1,8
1490985571499,0,41,23,127,57,-29,-20,-32,-1
1490985571500,1,-21,11,91,-11,-1,-42,14,26
1490985571500,1,5,-32,61,-27,-34,1,0,-11
1490985571546,2,-32,-73,50,19,-21,-5,19,-16
1490985571546,2,27,-36,47,-21,29,15,-6,-12
1490985571547,3,25,-20,34,-2,-49,-42,-20,25
1490985571547,3,-17,32,35,53,19,37,-15,-1
1490985571547,1,-8,-29,-58,-15,-18,9,-14,-30
1490985571547,1,-9,9,-22,22,28,8,-11,11
1490985571549,2,25,-39,-63,6,-63,-1,-10,4
1490985571549,2,-10,15,-5,-33,45,31,1,7
1490985571595,3,9,11,-21,-13,-7,40,20,3
1490985571595,3,-7,-8,2,27,-57,27,-17,-12
1490985571596,0,0,36,15,10,58,-25,-17,9
1490985571596,0,9,-6,7,64,1,-18,6,13
1490985571596,2,4,-9,93,24,-16,-6,-3,-26
1490985571596,2,-37,36,-13,-15,29,-18,-7,-30
1490985571599,3,32,14,8,0,-8,-16,-15,9
1490985571599,3,42,25,11,74,11,-20,-11,50
1490985571644,0,-49,33,-57,-109,-49,-16,-17,-37
1490985571644,0,16,-72,21,19,41,18,-21,28
1490985571644,1,-28,25,-27,35,15,25,-34,-19
1490985571644,1,20,50,1,65,-23,-7,-27,-18
1490985571646,3,-26,3,7,14,20,-4,28,-36
1490985571646,3,28,11,-3,29,4,18,21,35
1490985571647,0,-25,28,-32,-5,-8,68,25,-38
1490985571647,0,-5,36,-73,-57,-23,17,-4,2
1490985571692,1,82,29,83,-2,-9,-3,-7,-24
1490985571692,1,-106,-49,-21,11,23,15,31,-21
1490985571693,2,67,47,22,125,11,-31,-14,-19
1490985571693,2,87,62,77,-39,8,12,-4,7
1490985571694,0,-24,-46,46,-121,-83,45,0,-3
1490985571694,0,-59,-94,-98,48,1,53,46,-60
1490985571695,1,56,127,106,115,67,47,-24,51
1490985571695,1,-12,-76,71,51,7,57,11,17
1490985571741,2,-31,-73,-128,-81,-11,-38,17,20
1490985571741,2,35,62,14,3,-41,-40,4,44
1490985571743,3,-66,-86,-36,54,17,-29,-5,-34
1490985571743,3,15,46,55,-99,-10,-40,-51,-21
1490985571744,1,30,28,-128,-103,-73,-31,3,-58
1490985571744,1,-9,-71,68,60,17,-66,11,18
1490985571745,2,15,108,87,107,-35,-15,-34,6
1490985571745,2,69,127,127,127,113,53,-10,-2
1490985571791,3,29,67,40,36,10,0,8,109
1490985571791,3,-31,-24,-34,-77,-17,8,9,0
1490985571792,0,77,12,-111,-78,-21,-7,-39,-9
1490985571792,0,-48,-85,34,-45,-19,16,-23,-1
1490985571793,1,-73,16,115,77,22,-9,-33,-5
1490985571793,1,-21,18,-101,-128,-57,-6,69,-12
1490985571794,2,30,53,-17,19,15,-12,-12,-4
1490985571794,2,-1,-21,1,79,4,-7,6,58
1490985571888,3,-23,-100,-33,-9,10,-4,-15,1
1490985571888,3,113,127,73,23,-3,-28,-3,-70
1490985571889,0,-47,-22,-53,-79,13,12,-18,12
1490985571889,0,-42,-53,-56,-10,-5,-11,15,6
1490985571890,2,-49,43,-112,-94,-5,11,-15,-28
1490985571890,2,23,-41,-13,89,-13,30,33,0
1490985571891,3,-104,29,16,48,-2,3,25,-47
1490985571891,3,-24,-128,-34,7,-43,7,15,53
1490985571936,0,19,-1,25,6,55,-25,-2,-26
1490985571936,0,57,31,-31,-25,23,-19,-43,-15
1490985571938,1,63,61,47,41,-9,-22,-1,-39
1490985571938,1,-70,-43,-77,15,-18,-13,11,-18
1490985571939,0,-56,-32,-1,-30,22,7,19,48
1490985571939,0,1,5,-64,-41,-51,-26,11,-102
1490985571940,1,72,-128,-58,34,-10,-3,32,-5
1490985571940,1,-44,125,44,-39,19,13,-30,-4
1490985571985,2,33,124,-3,-10,-11,-13,-44,-64
1490985571985,2,-73,7,26,-16,-4,0,20,72
1490985571987,3,41,28,-128,6,21,-8,-23,4
1490985571987,3,-35,-47,-63,-33,-29,-16,-49,-46
1490985571988,1,20,96,57,63,-14,-63,-3,-19
1490985571988,1,-54,-6,27,-43,24,13,-37,-15
1490985571989,2,-33,79,40,90,-20,15,-33,34
1490985571989,2,-7,-79,-55,-30,65,24,-64,-49
1490985572034,3,-99,-106,-67,-124,-41,4,-29,-25
1490985572034,3,10,-73,-6,-16,-2,20,42,-33
1490985572035,0,52,31,66,92,-7,-30,17,33
1490985572035,0,24,127,-3,127,26,-10,24,101
1490985572035,2,98,-84,-37,-77,-32,-10,40,16
1490985572035,2,-92,-87,9,85,16,56,49,23
1490985572036,3,76,102,63,21,15,-5,-71,25
1490985572036,3,93,37,-18,77,22,11,-24,-25
1490985572083,0,-26,-124,-103,-128,-35,-19,-29,10
1490985572083,0,-50,36,-63,-47,-58,-34,57,-100
1490985572084,1,-128,44,3,66,11,18,42,52
1490985572084,1,39,-59,127,106,47,31,-31,22
1490985572084,3,-15,-38,-10,-125,-41,-24,0,-50
1490985572084,3,59,97,-128,-43,-1,-14,30,20
1490985572085,0,-68,-91,-17,-56,-23,2,18,-22
1490985572085,0,58,-9,127,47,-19,12,34,8
1490985572132,1,85,-38,38,45,42,45,2,16
1490985572132,1,-28,-91,-41,36,9,32,-38,60
1490985572133,2,-105,41,-45,-62,9,0,37,-28
1490985572133,2,105,127,96,-88,-44,-31,-9,-2
1490985572134,3,-64,-58,-124,25,13,-17,42,8
1490985572134,3,76,127,109,25,5,-42,-75,31
1490985572135,0,-47,-35,-116,96,31,8,-27,-6
1490985572135,0,-10,-35,104,127,13,-3,5,85
1490985572180,1,-15,-79,-112,-118,2,6,-71,-34
1490985572180,1,-8,-25,-86,-117,-62,-16,16,-44
1490985572182,2,-111,-36,-17,4,9,106,124,0
1490985572182,2,101,127,32,79,17,16,-118,21
1490985572183,0,-7,6,-65,-58,-32,-37,-45,-8
1490985572183,0,34,-128,-128,-72,-10,-10,30,-14
1490985572184,1,-25,60,33,44,8,3,3,0
1490985572184,1,0,39,105,75,-4,-12,-17,40
1490985572229,2,-24,127,99,-65,5,-55,88,-66
1490985572229,2,50,-67,-111,-82,-5,-32,11,-35
1490985572231,3,-93,-83,-56,-39,-5,-52,12,4
1490985572231,3,39,53,39,56,-19,-61,0,-16
1490985572232,1,-58,-31,-29,-128,-51,-99,-33,-67
1490985572232,1,1,-55,-30,-49,-7,-39,13,14
1490985572233,2,70,120,95,108,-1,-128,-61,-28
1490985572233,2,-19,127,44,61,18,-88,-5,30
1490985572278,3,4,106,67,26,11,70,15,44
1490985572278,3,21,-9,-82,-56,-19,97,5,51
1490985572280,0,-24,54,0,1,0,119,-52,-63
1490985572280,0,-36,-87,10,32,-7,99,-5,12
1490985572281,2,-23,-56,-41,17,-25,29,74,42
1490985572281,2,23,1,45,-26,-49,-21,-38,-33
1490985572282,3,28,-96,-87,12,32,19,-6,-22
1490985572282,3,-10,-68,-15,-89,-3,42,12,11
1490985572326,0,-77,31,16,16,15,24,-23,2
1490985572326,0,10,-7,82,61,12,5,-78,-16
1490985572328,1,83,37,-38,14,-22,35,-20,13
1490985572328,1,-61,-75,-15,11,-9,1,18,-29
1490985572330,3,1,-25,45,-9,-9,66,40,14
1490985572330,3,-49,-23,-9,8,8,27,33,-31
1490985572331,0,31,12,31,36,-6,5,-14,26
1490985572331,0,-16,-64,-97,-73,16,1,28,-5
1490985572375,1,19,-8,18,32,10,-17,-36,36
1490985572375,1,-21,24,59,31,-3,22,44,-5
1490985572378,2,42,5,-35,15,17,45,-4,15
1490985572378,2,-17,64,-16,-31,-28,-20,-15,-22
1490985572379,0,54,108,-89,-32,-15,-56,-49,23
1490985572379,0,-5,43,-4,-17,4,-31,37,34
1490985572380,1,26,-62,-19,-5,-27,-28,-57,-16
1490985572380,1,-63,-97,45,21,-2,-2,25,-16
1490985572424,2,22,-128,-6,6,3,-36,1,-2
1490985572424,2,-78,-28,-11,13,9,-30,18,5
1490985572427,3,-82,-84,29,-9,5,6,11,5
1490985572427,3,91,-29,0,-10,-7,97,-19,-14
1490985572428,1,-96,-74,5,32,-9,56,-5,7
1490985572428,1,21,44,-27,-8,3,-107,-3,-9
1490985572429,2,88,92,-15,-38,-22,-36,-26,23
1490985572429,2,-62,43,-15,7,1,-44,26,8
1490985572473,3,24,77,19,21,-16,7,-17,43
1490985572473,3,53,39,-19,-9,3,54,-34,-3
1490985572474,0,-46,-19,15,-9,5,-26,10,-17
1490985572474,0,27,33,-2,-17,-12,28,-17,-10
1490985572476,2,7,86,15,6,7,-12,-4,-13
1490985572476,2,-9,2,41,24,9,4,5,3
1490985572477,3,-44,-46,-36,-12,0,-9,21,-14
1490985572477,3,11,103,-24,-21,-23,-45,-69,-38
1490985572521,0,-63,10,-13,-7,-2,25,52,12
1490985572521,0,-24,16,-5,29,16,-28,34,-13
1490985572523,1,80,89,46,1,-3,12,-14,35
1490985572523,1,-96,-37,-15,9,3,-15,14,-2
1490985572524,2,-6,14,5,-22,-12,29,7,7
1490985572524,2,122,6,-26,-47,-19,-4,-21,-29
1490985572525,3,94,3,19,18,9,-24,16,1
1490985572525,3,-59,-33,-1,14,-3,-25,30,11
1490985572570,0,-42,-58,-18,-35,-11,-4,8,27
1490985572570,0,-45,-32,31,12,-6,-69,-11,-9
1490985572573,1,-24,-85,0,1,8,-2,8,-10
1490985572573,1,23,-101,-27,4,-19,11,-12,3
1490985572574,3,-39,-33,-2,24,-12,4,-48,-41
1490985572574,3,5,-39,-31,-26,28,13,19,37
1490985572575,0,5,2,23,-1,-10,-20,-10,-19
1490985572575,0,-30,6,-3,-20,4,-40,-19,-29
1490985572619,1,-1,14,14,11,13,3,35,11
1490985572619,1,22,7,23,15,-2,-11,11,9
1490985572622,2,-35,3,-24,30,14,40,-10,-10
1490985572622,2,-55,-56,-29,-13,-4,-37,-1,-8
1490985572623,0,65,113,38,41,14,0,24,18
1490985572623,0,-35,-69,2,21,0,5,-36,-4
1490985572625,1,7,27,-19,-15,10,-9,-3,0
1490985572625,1,35,48,20,-19,-7,19,-6,-4
1490985572671,2,-54,-62,-6,-34,6,-26,-8,-5
1490985572671,2,-92,-35,36,44,3,82,-29,-8
1490985572673,3,81,93,-51,10,7,-20,10,32
1490985572673,3,8,-109,-4,-80,-24,-24,-9,-64
1490985572674,1,-49,-19,30,-27,57,-8,-12,-13
1490985572674,1,61,59,43,48,-9,55,-34,29
1490985572676,2,-68,-88,-37,-32,-21,-55,18,-46
1490985572676,2,11,65,7,-34,15,49,-28,36
1490985572716,3,-13,-43,-1,31,0,-2,42,4
1490985572716,3,-13,-71,-38,21,2,-13,14,-12
1490985572717,0,24,58,75,-19,1,16,-6,-9
1490985572717,0,127,54,-28,1,-22,-35,22,46
1490985572718,2,116,-128,-62,36,22,20,-58,7
1490985572718,2,-70,21,8,-19,7,43,-22,1
1490985572719,3,61,-10,-38,-38,-33,15,23,-27
1490985572719,3,-96,19,-55,-46,-6,-7,-43,-24
1490985572765,0,-25,41,120,66,16,-1,61,1
1490985572765,0,32,49,11,8,-3,7,-9,13
1490985572766,1,-41,-1,-14,-46,10,-2,14,12
1490985572766,1,51,-42,-72,-3,-11,4,25,18
1490985572767,3,-63,-76,-65,8,-7,28,-18,-9
1490985572767,3,1,122,101,64,14,-27,-44,16
1490985572768,0,-27,-103,-124,-60,8,1,55,76
1490985572768,0,76,-96,-28,-63,-40,4,84,-98
1490985572814,1,-2,-23,7,-10,-31,-1,-3,14
1490985572814,1,-2,3,36,56,47,-82,30,28
1490985572816,2,12,67,119,80,29,47,-7,43
1490985572816,2,-32,15,-5,92,30,51,-53,2
1490985572817,0,55,22,68,52,-6,-19,-50,-44
1490985572817,0,-13,-66,-126,-128,-31,-74,-21,-42
1490985572818,1,-110,110,90,-22,-5,-44,47,44
1490985572818,1,46,-112,-50,-75,-22,16,-9,18
1490985572862,2,61,118,94,37,23,49,52,6
1490985572862,2,115,54,-40,-78,3,-33,-57,-47
1490985572864,3,-8,42,98,127,55,54,37,81
1490985572864,3,50,-90,-94,99,9,57,-18,-8
1490985572866,0,-99,-33,30,-128,-90,-58,86,-44
1490985572866,0,2,7,22,84,-4,-36,-55,69
1490985572867,1,115,115,12,61,6,-29,23,-28
1490985572867,1,-107,-16,98,90,57,55,2,-18
1490985572911,2,21,-112,-128,-62,-34,88,-89,-33
1490985572911,2,-128,9,-30,-96,-68,-58,-16,-37
1490985572912,3,45,-58,88,53,-9,-113,28,-88
1490985572912,3,-18,79,19,122,23,-28,28,67
1490985572913,1,49,-26,-6,38,-30,61,20,25
1490985572913,1,63,53,-39,-46,8,-50,-41,-101
1490985572914,2,-95,-77,-77,7,-12,-67,59,-61
1490985572914,2,9,12,82,-24,44,-41,36,19
1490985572961,3,39,13,-47,21,21,27,-33,37
1490985572961,3,127,90,122,1,-2,67,-29,-16
1490985572963,0,-18,-18,-70,-69,32,-69,15,5
1490985572963,0,74,-35,-120,22,-4,110,-39,7
1490985572964,2,124,-34,-64,-100,-57,46,-49,83
1490985572964,2,-55,-96,93,59,36,45,-21,-51
1490985572965,3,97,56,-92,41,17,59,-67,14
1490985572965,3,-128,-17,85,-128,-3,-17,-5,-49
1490985573009,0,80,97,40,127,16,-79,9,-33
1490985573009,0,-86,-52,-21,-91,14,-84,25,-9
1490985573011,1,92,-80,31,79,-60,7,-63,-65
1490985573011,1,-96,19,36,-110,-4,27,-47,-14
1490985573013,3,-85,-128,-55,-119,12,-50,36,37
1490985573013,3,127,60,53,83,34,93,-24,55
1490985573016,0,-114,-88,-62,29,19,-57,-7,-81
1490985573016,0,127,15,46,-20,-12,-49,12,66
1490985573057,1,37,-52,-70,104,-1,125,1,15
1490985573057,1,-42,-70,-113,-128,-71,-67,-23,-18
1490985573058,2,-55,94,127,0,93,5,63,36
1490985573058,2,-68,-28,-92,83,-53,28,-5,-26
1490985573059,0,-65,7,48,-30,24,-22,-30,0
1490985573059,0,78,127,27,90,80,52,0,11
1490985573060,1,8,-16,-128,-44,-20,113,-41,4
1490985573060,1,-59,-95,-26,-128,-105,32,-34,27
1490985573106,2,-40,0,127,118,19,-87,91,-31
1490985573106,2,126,38,-113,91,60,60,53,33
1490985573107,3,-66,47,127,118,43,40,-51,105
1490985573107,3,32,59,-125,-27,13,12,37,-69
1490985573108,1,123,110,38,104,89,-108,-10,4
1490985573108,1,8,-55,-120,-47,-3,67,-9,81
1490985573110,2,-112,-33,-51,-50,-5,7,-30,46
1490985573110,2,120,-87,77,7,39,-39,45,-16
1490985573204,3,22,33,-112,-96,-52,13,-18,-36
1490985573204,3,50,-52,-55,-48,-67,-7,-18,-55
1490985573206,0,78,22,51,43,13,67,14,-2
1490985573206,0,-30,54,-39,74,31,18,-55,-74
1490985573207,2,-36,-30,-12,-18,-54,-88,84,-62
1490985573207,2,34,44,21,26,79,100,-24,55
1490985573208,3,-63,-88,-68,-62,-72,96,-26,21
1490985573208,3,-48,-84,69,-33,-3,-96,23,-57
1490985573253,0,84,91,-17,72,62,-63,4,17
1490985573253,0,88,103,127,40,-16,36,-54,53
1490985573255,1,-40,-11,-128,-67,-36,52,0,4
1490985573255,1,-107,-47,127,-69,-27,13,114,45
1490985573256,3,46,47,-48,127,74,-45,-41,-39
1490985573256,3,127,-42,0,-53,4,-16,-106,55
1490985573257,0,-21,-86,-128,-128,-51,14,-6,-34
1490985573257,0,-91,33,53,42,-13,-19,-82,-12
1490985573302,1,-11,90,91,101,104,-2,-19,-29
1490985573302,1,54,23,-14,-28,-27,53,-24,105
1490985573303,2,-101,-56,-106,-83,-64,86,13,8
1490985573303,2,31,-96,-108,23,-37,-53,24,-29
1490985573305,0,103,-59,-86,-113,-73,-49,18,-19
1490985573305,0,4,-29,-24,30,-6,-107,68,-48
1490985573306,1,118,-102,-128,-120,-62,-78,-82,-78
1490985573306,1,-112,127,127,127,108,-56,17,32
1490985573350,2,127,16,48,44,38,50,38,110
1490985573350,2,0,-128,-128,-128,-22,79,-36,-58
1490985573352,3,3,30,-19,50,-33,-57,-26,-13
1490985573352,3,-32,-84,16,-94,6,-21,37,-2
1490985573353,1,-26,-82,73,12,11,88,-94,-32
1490985573353,1,39,-31,-113,-67,-59,-56,-21,54
1490985573354,2,-6,-29,127,124,12,-117,71,-86
1490985573354,2,36,-58,-20,19,49,-75,2,38
1490985573399,3,-103,-80,-100,-128,-128,-128,-2,-53
1490985573399,3,40,-13,56,127,55,-40,84,-35
1490985573401,0,119,74,-128,23,93,-53,-66,80
1490985573401,0,-101,-128,-105,-128,-64,5,112,48
1490985573402,2,-101,-66,-57,104,119,38,28,101
1490985573402,2,50,99,11,-65,-23,-17,-3,-57
1490985573403,3,-36,-16,-31,-104,-57,43,94,-34
1490985573403,3,52,27,58,75,1,-7,21,-72
1490985573448,0,-65,44,-23,-92,-9,-2,21,-10
1490985573448,0,102,38,11,23,-90,113,-88,69
1490985573450,1,-79,-45,70,66,14,36,44,2
1490985573450,1,-111,-23,-128,-79,51,93,-38,-46
1490985573451,3,102,115,91,-44,-19,71,-36,-49
1490985573451,3,-73,108,-5,127,-33,80,36,92
1490985573452,0,-17,-100,-117,-128,6,-41,11,-42
1490985573452,0,-112,48,-21,-26,-19,-128,-30,-34
1490985573505,1,74,84,127,127,29,-110,-81,127
1490985573505,1,66,68,-62,-76,73,-51,-40,-128
1490985573507,2,-74,-127,-83,-122,-50,-60,88,46
1490985573507,2,91,-15,24,-100,-96,-96,-39,-13
1490985573508,0,69,127,-46,-47,-111,-56,-59,-38
1490985573508,0,84,63,-109,-38,102,0,15,9
1490985573509,1,-21,-23,31,34,-106,-63,60,-20
1490985573509,1,3,83,89,100,120,-29,-36,1
1490985573545,2,23,-97,31,-34,-55,7,-2,76
1490985573545,2,-114,56,-93,44,-34,25,4,-18
1490985573547,3,-18,-45,-117,-128,-47,-22,-27,-115
1490985573547,3,37,119,77,120,60,1,-91,95
1490985573549,0,-10,55,109,-45,1,3,3,-10
1490985573549,0,-13,-52,-52,-105,-71,-19,52,-2
1490985573550,1,-1,-27,-78,33,96,3,49,-8
1490985573550,1,-38,-128,-12,39,-22,7,54,-61
1490985573594,2,118,127,127,75,14,28,-103,39
1490985573594,2,-2,-53,-4,113,20,43,-23,17
1490985573596,3,88,-46,-17,-125,-50,-11,44,-27
1490985573596,3,0,103,26,9,46,-3,-41,-22
1490985573597,1,-3,76,58,120,-36,-14,34,-12
1490985573597,1,31,-46,-106,-128,6,-91,-5,-26
1490985573598,2,-55,-22,64,15,27,-7,26,-36
1490985573598,2,59,-38,60,105,-11,0,-31,11
1490985573643,3,-24,-14,-46,-65,-19,12,25,19
1490985573643,3,-83,-116,121,102,30,74,55,74
1490985573645,0,22,-14,-84,-52,-93,-5,-63,-122
1490985573645,0,-49,-107,8,-35,27,30,34,-42
1490985573646,2,30,-128,-72,-13,-82,-25,-1,-30
1490985573646,2,35,127,-20,22,-52,-3,2,36
1490985573647,3,-50,23,31,68,-25,4,-90,5
1490985573647,3,44,-73,-113,-128,-47,-50,54,-58
1490985573691,0,-128,-63,-66,-33,11,19,89,-94
1490985573691,0,75,67,102,83,33,-21,20,53
1490985573693,1,-3,57,84,65,-51,-24,-50,-23
1490985573693,1,11,8,-78,-74,-46,-29,-28,-2
1490985573695,3,-89,-99,-18,81,30,48,104,52
1490985573695,3,46,75,127,-89,-121,-28,-54,-101
1490985573696,0,101,115,127,113,91,-10,-57,47
1490985573696,0,-123,-128,-68,61,29,8,35,-11
1490985573740,1,121,96,22,-28,17,-1,-91,-20
1490985573740,1,-128,-57,8,40,-48,-2,35,33
1490985573742,2,102,107,-42,-79,-20,-59,-97,-48
1490985573742,2,21,-25,93,-98,-39,-93,67,-30
1490985573743,0,43,96,25,127,5,32,-1,100
1490985573743,0,14,89,127,115,127,31,-45,-31
1490985573744,1,-56,-122,-128,-128,-109,-84,-8,3
1490985573744,1,-5,-74,-58,-128,-45,2,51,-12
1490985573789,2,-17,-97,73,33,-56,32,21,-9
1490985573789,2,-42,45,82,65,46,-2,-2,36
1490985573791,3,-40,-20,-26,-90,-105,-14,-74,32
1490985573791,3,82,127,78,127,45,49,62,-14
1490985573792,1,-51,55,-5,68,-72,66,27,32
1490985573792,1,-23,-74,-49,-82,-21,-42,7,58
1490985573793,2,3,-97,-2,15,4,-33,41,-61
1490985573793,2,-50,-40,110,73,-77,-75,-86,21
1490985573838,3,32,42,31,-28,116,-36,24,-3
1490985573838,3,81,56,-23,29,96,39,-32,35
1490985573839,0,20,57,64,36,-62,48,3,54
1490985573839,0,-76,-75,-128,-128,-22,-12,7,-37
1490985573841,2,-13,31,104,114,-44,-19,18,17
1490985573841,2,73,78,38,58,-18,18,6,72
1490985573842,3,-25,91,118,53,80,-87,-63,-45
1490985573842,3,-4,41,-128,-110,-15,-127,59,31
1490985573887,0,-45,70,-18,64,-40,-96,13,-52
1490985573887,0,-13,0,111,77,55,24,-44,6
1490985573935,1,-9,40,35,-58,-116,67,70,39
1490985573935,1,12,105,79,113,-20,80,-54,38
1490985573984,3,-28,-117,35,37,24,10,-24,-4
1490985573984,3,37,1,-6,-62,79,41,-26,-4
1490985573984,0,-27,-9,127,13,3,68,45,15
1490985573984,0,17,92,100,107,-105,39,-3,29
1490985573985,1,4,-68,-60,-71,107,43,-10,1
1490985573985,1,-11,-107,-76,-108,-104,-21,12,-8
1490985573986,2,-118,-128,100,65,84,21,37,-22
1490985573986,2,28,-83,-107,12,5,14,5,-7
1490985574032,3,-13,94,70,107,-63,-63,-43,-25
1490985574032,3,-38,47,46,81,42,55,31,14
1490985574033,0,27,14,114,46,70,63,0,19
1490985574033,0,-34,-45,-124,-113,-104,-53,-70,-29
1490985574035,1,-124,127,-36,-26,-36,32,34,-20
1490985574035,1,-124,121,-104,27,-115,78,45,40
1490985574035,2,-65,74,-128,74,-65,-12,-95,-6
1490985574035,2,67,-29,-109,15,-14,127,-3,50
1490985574081,3,68,-105,-109,35,14,102,78,30
1490985574081,3,-83,-128,-128,-58,101,66,-62,-74
1490985574082,0,31,-128,-83,2,82,-12,-60,-37
1490985574082,0,49,-110,49,-10,-94,9,-24,17
1490985574082,2,6,-111,120,-9,105,41,-2,-51
1490985574082,2,-107,-75,127,30,116,86,27,-70
1490985574083,3,63,-60,117,-11,-70,-59,81,45
1490985574083,3,88,-44,93,-32,-66,-26,81,55
1490985574130,0,118,-56,57,-19,-17,17,105,46
1490985574130,0,127,-31,18,31,89,-122,80,-9
1490985574131,1,46,-4,-37,-20,127,-71,113,-73
1490985574131,1,53,-12,-31,5,127,-126,-49,-81
1490985574131,3,-65,6,-39,8,-99,79,18,-14
1490985574131,3,-70,-7,-30,-40,-109,49,67,4
1490985574132,0,-89,-18,-4,5,-103,76,49,0
1490985574132,0,-83,3,1,18,-119,-45,-27,78
