1490984152230,0,-109,-85,11,-11,37,-37,-28,-71
1490984152230,0,78,24,60,-11,-18,119,21,-22
1490984152232,1,42,16,20,4,-33,122,11,11
1490984152232,1,26,2,12,27,-18,52,-17,23
1490984152233,2,76,21,-32,14,-28,80,0,27
1490984152233,2,-10,-18,-23,-4,-7,-55,-9,-4
1490984152278,3,-23,-23,-17,-16,3,-51,-11,-15
1490984152278,3,-37,13,-16,-12,-22,8,3,1
1490984152279,0,-14,7,-1,-6,1,-28,17,27
1490984152279,0,-52,-11,-10,5,8,-22,-12,-20
1490984152280,1,-50,4,-8,-5,-14,-23,13,10
1490984152280,1,45,-5,4,-7,15,-30,10,-6
1490984152281,2,4,2,-4,-8,-5,-12,0,5
1490984152281,2,21,-3,6,5,3,11,-10,13
1490984152327,3,-4,0,0,8,14,-54,-2,-5
1490984152327,3,-21,-8,-1,-3,5,21,24,-4
1490984152328,0,1,5,8,0,-1,-4,-9,-4
1490984152328,0,5,8,-14,-7,-25,34,6,0
1490984152330,1,-5,-6,-7,5,12,12,2,3
1490984152330,1,-16,-8,2,6,11,-34,10,-31
1490984152376,2,15,22,11,6,-12,15,0,6
1490984152376,2,0,-10,-7,0,14,-52,-7,13
1490984152377,3,-51,-2,11,-10,-9,24,-2,-20
1490984152377,3,51,-2,8,4,5,-14,-18,7
1490984152378,0,-27,3,2,-10,4,10,17,-21
1490984152378,0,61,0,-22,7,-7,37,-10,-4
1490984152379,2,38,-1,-4,5,-2,5,-26,-3
1490984152379,2,-3,0,-9,-10,-3,-11,33,9
1490984152424,3,75,1,4,13,5,-2,-15,6
1490984152424,3,-9,6,3,0,-6,9,-6,-21
1490984152428,0,-8,4,8,11,21,-4,-12,12
1490984152428,0,-63,-4,14,-3,-1,-17,14,11
1490984152429,3,-28,-9,17,8,7,-38,7,3
1490984152429,3,-28,-1,-11,-8,-8,-7,-36,-30
1490984152429,0,66,-1,3,0,-3,-1,4,24
1490984152429,0,26,1,-12,-4,0,18,-20,-23
1490984152473,1,-20,-1,-5,-18,-5,-14,11,-30
1490984152473,1,-45,-12,-11,4,0,28,-7,18
1490984152474,2,6,8,17,16,5,-9,-2,-8
1490984152474,2,-16,14,5,1,-3,-14,10,-7
1490984152475,0,37,28,-2,5,-2,63,28,55
1490984152475,0,-25,-34,-20,-34,-1,-47,-46,-15
1490984152478,1,-116,-21,-64,-5,-30,17,23,-44
1490984152478,1,101,22,26,-41,29,-51,12,24
1490984152522,2,92,15,19,28,-6,7,1,-18
1490984152522,2,-33,-5,40,25,10,13,-23,-11
1490984152523,3,93,34,24,23,8,24,-19,8
1490984152523,3,37,-10,-9,19,7,-4,28,77
1490984152524,0,-40,22,7,-23,-3,5,-6,-22
1490984152524,0,-10,3,16,30,11,-1,24,26
1490984152525,1,-74,-47,-12,14,-7,36,-20,-13
1490984152525,1,70,21,13,-12,-12,27,6,-44
1490984152570,2,19,-22,-32,-53,9,-76,-33,-13
1490984152570,2,-94,23,-13,10,0,34,63,43
1490984152572,3,79,-1,37,-5,-11,50,-25,15
1490984152572,3,21,4,-62,1,3,-27,5,-2
1490984152573,1,-99,12,-28,-7,10,12,37,-32
1490984152573,1,76,59,65,39,7,-3,-10,45
1490984152574,2,-75,-54,-23,7,7,-11,-23,-33
1490984152574,2,97,20,-19,8,-2,45,8,29
1490984152619,3,16,-4,20,-36,-9,-46,-9,26
1490984152619,3,-83,-36,-2,-6,-4,16,0,-60
1490984152620,0,-19,-30,-38,-13,-12,-18,-3,22
1490984152620,0,67,62,-34,-30,-6,27,-13,-23
1490984152621,2,127,-4,-40,-1,5,-12,-2,46
1490984152621,2,-47,10,14,-11,-5,-31,-7,-32
1490984152622,3,-16,-22,-23,-27,-1,17,-29,38
1490984152622,3,-63,-51,-9,5,-14,13,-12,12
1490984152668,0,-10,28,18,21,1,20,-3,-20
1490984152668,0,82,8,21,-22,-12,62,3,2
1490984152669,1,-42,-25,-43,25,13,-49,19,58
1490984152669,1,14,49,-3,-32,-11,-42,-10,-10
1490984152670,3,127,9,10,0,2,-1,10,27
1490984152670,3,-30,39,47,-33,-6,-4,-12,13
1490984152672,0,-96,-29,-57,1,13,-57,14,-43
1490984152672,0,-44,-62,-12,23,-20,44,16,20
1490984152717,1,58,94,26,-13,2,32,-47,-69
1490984152717,1,-68,-78,10,30,29,-69,-12,15
1490984152718,2,51,46,76,95,9,12,39,22
1490984152718,2,61,-47,-42,-101,-15,32,8,20
1490984152719,0,-92,13,105,19,-1,2,5,59
1490984152719,0,35,57,-62,36,13,-11,5,-34
1490984152720,1,-69,4,0,-103,-4,19,23,39
1490984152720,1,47,-47,13,-2,3,-15,-10,-22
1490984152766,2,32,15,16,69,10,65,-1,-31
1490984152766,2,-43,-25,-63,-28,0,-32,45,-1
1490984152767,3,98,70,74,62,2,39,-38,-6
1490984152767,3,-113,-117,-128,-87,-14,86,18,38
1490984152768,1,-85,42,8,55,-6,-31,-46,-67
1490984152768,1,56,-21,-17,111,16,52,43,8
1490984152769,2,-1,-27,36,-5,-3,33,-6,-21
1490984152769,2,18,15,-21,-59,1,63,23,107
1490984152814,3,42,-51,77,-68,-7,-78,0,-18
1490984152814,3,19,24,-102,20,-10,44,-12,-40
1490984152816,0,-44,-7,59,53,10,18,43,38
1490984152816,0,28,39,61,49,12,-35,-38,-58
1490984152817,2,-1,68,18,23,10,-98,-60,-61
1490984152817,2,-78,-66,45,106,9,-6,33,36
1490984152818,3,9,-41,78,-33,9,12,9,-25
1490984152818,3,62,93,-45,-79,-24,39,0,47
1490984152863,0,-48,-125,-95,-59,-23,-27,1,31
1490984152863,0,45,63,116,64,32,-25,-29,-34
1490984152864,1,-56,-11,-71,124,6,43,5,21
1490984152864,1,-56,-40,-86,-82,-35,-40,1,13
1490984152865,2,1,-77,-3,-24,0,-12,23,-3
1490984152865,2,-119,-108,87,66,23,4,-32,-31
1490984152866,3,127,-42,46,41,5,69,42,48
1490984152866,3,-45,7,-43,-74,-2,-46,-41,-26
1490984152912,0,-17,83,7,45,-2,57,-12,33
1490984152912,0,-53,69,-84,-25,-6,-39,-22,49
1490984152913,1,17,98,-6,-84,-4,-31,30,-68
1490984152913,1,66,-10,124,127,45,-3,-10,-1
1490984152915,3,-16,-94,-35,120,27,37,9,-21
1490984152915,3,-106,127,125,-26,18,-83,30,28
1490984152915,0,125,-116,-111,-63,-11,64,-61,-98
1490984152915,0,-108,-48,-33,15,-13,35,45,44
1490984152960,1,69,123,-66,-94,-7,-121,-23,14
1490984152960,1,58,21,57,56,14,26,-9,34
1490984152963,2,-90,-26,-41,21,2,21,64,7
1490984152963,2,109,-60,-17,30,-2,13,-33,-15
1490984152964,0,48,-17,61,-21,-19,-18,-6,22
1490984152964,0,124,75,-49,-26,-15,10,-10,21
1490984152965,1,-85,-19,60,67,27,-9,16,-70
1490984152965,1,-108,-18,-97,-39,-7,17,-6,-51
1490984153058,2,-45,-16,43,-88,-15,-71,-27,-18
1490984153058,2,-12,84,11,-33,-24,-57,7,32
1490984153059,3,0,0,88,87,66,38,-10,-46
1490984153059,3,58,-10,-91,-31,-30,25,24,14
1490984153062,1,-90,30,-11,1,14,-9,-6,-50
1490984153062,1,89,-102,26,-11,2,-8,-4,75
1490984153063,2,-75,-12,-58,105,-15,-19,17,2
1490984153063,2,-39,-68,-96,-128,-40,-62,-29,-75
1490984153107,3,67,-3,40,77,-3,19,-28,31
1490984153107,3,2,13,2,93,18,-47,19,-76
1490984153108,0,39,65,-125,17,17,19,3,48
1490984153108,0,-61,25,107,-53,17,34,19,31
1490984153109,2,77,73,-40,-12,5,-34,14,11
1490984153109,2,-4,-30,30,112,50,17,-19,-92
1490984153110,3,47,29,-97,-125,-95,22,-27,22
1490984153110,3,34,-50,-66,17,20,-9,-22,-41
1490984153155,0,-9,46,127,55,28,6,26,54
1490984153155,0,-9,-10,-86,-15,-26,-15,25,1
1490984153157,1,83,30,87,127,-25,19,-26,-5
1490984153157,1,22,-45,77,-25,56,75,-47,48
1490984153158,0,89,66,-76,-73,-52,-86,-8,-5
1490984153158,0,-66,127,127,48,16,-93,-18,-96
1490984153159,1,-34,-87,-15,84,27,-117,-1,75
1490984153159,1,-102,0,-49,-32,4,-93,-26,-2
1490984153204,2,-20,22,-126,-93,20,-102,13,5
1490984153204,2,38,33,-124,-128,-65,-8,28,26
1490984153206,3,65,3,53,63,17,39,18,-47
1490984153206,3,-64,90,127,61,5,95,-8,75
1490984153207,1,-40,-3,64,44,21,63,-3,1
1490984153207,1,38,-34,-13,73,-51,2,36,-37
1490984153208,2,127,-40,-50,-16,-74,5,-55,-7
1490984153208,2,-126,14,-13,41,104,33,55,14
1490984153253,3,104,-26,26,11,2,44,-14,-10
1490984153253,3,-94,63,-92,48,6,17,26,0
1490984153254,0,4,-78,-62,-3,-38,-22,-16,-82
1490984153254,0,25,54,-57,-14,-1,-72,52,31
1490984153255,1,24,66,60,5,43,-87,-35,-2
1490984153255,1,-46,-82,-128,-71,-75,-52,-32,-23
1490984153256,2,-41,24,-42,-49,28,-19,-7,-15
1490984153256,2,20,-16,79,51,12,-3,-19,10
1490984153302,3,31,-23,-36,-127,-61,16,26,42
1490984153302,3,-21,-73,-47,36,9,47,-15,42
1490984153303,0,43,-20,-46,-37,-27,47,7,-13
1490984153303,0,-24,49,-32,85,19,40,19,-13
1490984153304,2,49,-21,125,-4,5,31,49,18
1490984153304,2,127,7,83,104,19,25,-33,45
1490984153305,3,-85,-40,25,-27,-32,-58,31,-8
1490984153305,3,-36,28,-115,-128,-12,-128,4,-63
1490984153351,0,75,77,127,127,4,-69,-3,35
1490984153351,0,2,-44,104,35,-13,25,-41,31
1490984153352,1,42,18,-128,59,-50,107,-28,20
1490984153352,1,-21,-32,100,-56,40,33,-8,2
1490984153353,3,17,-22,-128,-90,47,-76,-70,6
1490984153353,3,75,23,127,-109,-33,13,-1,10
1490984153355,0,-124,0,-73,-34,0,62,-7,-25
1490984153355,0,-39,-109,13,-128,-92,64,19,48
1490984153399,1,-96,23,-45,-54,-38,-43,-45,-62
1490984153399,1,-128,24,16,74,67,81,97,51
1490984153401,2,-46,32,127,118,-29,119,-46,6
1490984153401,2,81,-73,-125,-86,-38,79,12,-23
1490984153402,0,-63,-34,48,64,-21,-118,-69,-8
1490984153402,0,68,44,53,20,83,-128,40,-29
1490984153403,1,14,44,-48,10,-4,63,20,-9
1490984153403,1,-85,44,23,-62,100,94,83,-14
1490984153448,2,-2,-86,-128,-43,-81,127,10,66
1490984153448,2,-41,-64,91,18,-27,-51,-93,-79
1490984153449,3,78,-16,41,9,8,-124,127,-5
1490984153449,3,84,6,-22,16,-16,2,5,-4
1490984153450,1,27,-17,-45,-45,-128,112,4,53
1490984153450,1,-97,-12,69,127,-116,45,81,-19
1490984153452,2,25,11,13,-45,-114,-128,36,37
1490984153452,2,26,127,57,30,24,-110,-72,32
1490984153497,3,36,125,36,-29,79,-125,-58,-19
1490984153497,3,39,102,57,45,84,56,-79,13
1490984153498,0,26,85,30,82,-21,19,-88,26
1490984153498,0,24,36,-18,3,-24,-70,127,-53
1490984153499,2,52,-23,-30,9,114,123,34,-50
1490984153499,2,-18,-42,-84,65,98,-19,-65,51
1490984153500,3,96,-88,-77,-89,90,-107,34,-37
1490984153500,3,127,-35,-26,7,116,-128,-21,8
1490984153545,0,-66,-63,97,37,-44,-128,-2,9
1490984153545,0,-103,-74,-11,47,-62,-87,-15,-14
1490984153547,1,-128,-35,84,39,-57,-15,35,-13
1490984153547,1,-114,-45,-7,-6,-14,73,-128,13
1490984153548,3,59,13,5,28,71,123,94,19
1490984153548,3,-8,-21,31,-88,57,88,-18,-92
1490984153549,0,-86,23,54,26,-45,17,-121,-41
1490984153549,0,-128,-8,89,38,48,-38,-93,-87
1490984153594,1,-126,-26,3,-15,96,-64,56,39
1490984153594,1,99,-5,52,-14,-128,30,115,24
1490984153596,2,79,-96,91,25,-15,92,127,101
1490984153596,2,-46,-105,93,-61,-127,127,-89,20
1490984153597,3,-128,-112,106,73,39,-100,-128,-93
1490984153597,3,-128,-76,-102,4,-63,-128,27,-38
1490984153597,0,103,18,-110,1,1,-65,62,-6
1490984153597,0,127,74,-81,-15,-32,127,127,16
1490984153643,1,64,127,-28,-72,33,127,1,8
1490984153643,1,39,75,67,32,108,55,64,16
1490984153644,2,-12,16,-79,-12,118,-71,43,-29
1490984153644,2,4,-4,-86,61,38,-71,-110,-14
1490984153645,0,-59,2,124,3,-68,-63,-6,16
1490984153645,0,-99,-1,90,17,-81,-33,35,-36
1490984153646,1,-128,-69,18,127,-128,-91,76,17
1490984153646,1,-16,32,60,101,-75,-107,7,-2
1490984153692,2,-68,-41,78,-13,29,-39,-100,102
1490984153692,2,-63,-52,-37,-2,59,56,33,-4
1490984153693,3,-7,-86,15,26,-40,127,-34,-54
1490984153693,3,-7,-68,-48,23,-7,-22,11,-30
1490984153695,1,108,127,-99,-102,-18,-14,6,-32
1490984153695,1,17,59,-106,-80,-9,49,37,55
1490984153696,2,-77,114,78,-20,23,100,0,10
1490984153696,2,-48,-19,99,77,21,-26,66,28
1490984153740,3,-14,-76,-13,2,32,-49,11,107
1490984153740,3,40,-2,-102,68,22,-27,-56,79
1490984153742,0,98,82,-128,98,48,-62,20,-63
1490984153742,0,106,115,-84,-28,24,127,40,-85
1490984153743,2,85,58,-94,-104,1,80,127,111
1490984153743,2,-25,112,-128,-127,32,99,-74,-4
1490984153744,3,49,127,-128,-121,107,-65,44,-65
1490984153744,3,10,85,-64,-128,45,2,-128,95
1490984153789,0,-19,-72,45,125,-50,47,107,27
1490984153789,0,-58,6,79,-63,-42,65,-70,-71
1490984153838,1,124,40,127,-95,74,46,69,-2
1490984153838,1,46,92,127,-37,65,117,82,-128
1490984153839,3,57,-115,98,26,-109,124,78,127
1490984153839,3,24,-126,82,100,-60,14,-19,40
1490984153840,0,-90,-128,53,48,21,-57,-102,-37
1490984153840,0,-128,-128,49,127,54,-99,83,-37
1490984153841,1,-106,-72,29,108,-36,78,43,-89
1490984153841,1,-43,-98,34,-1,127,127,-28,-6
1490984153887,2,-81,-74,38,0,-10,-28,-112,-18
1490984153887,2,-103,-63,8,-45,-124,-128,-128,13
1490984153888,0,-68,-12,119,25,-108,-128,6,-18
1490984153888,0,35,39,94,-14,-56,-73,16,39
1490984153889,1,-54,39,57,-5,-101,-99,42,53
1490984153889,1,-36,3,47,17,-98,52,-39,-26
1490984153890,1,-8,8,-52,-18,5,-22,-31,20
1490984153890,1,1,1,-6,0,22,-50,14,-26
1490984153935,2,26,19,3,-22,61,21,14,11
1490984153935,2,1,-21,-33,-11,-23,-18,-13,-39
1490984153937,3,10,20,-43,-33,20,7,-9,38
1490984153937,3,-14,-14,-32,-22,7,5,43,-10
1490984153938,1,4,8,21,27,104,36,0,-25
1490984153938,1,6,1,-30,-15,-30,-2,-36,9
1490984153939,2,-21,-38,-50,-29,-64,-26,-8,-22
1490984153939,2,13,4,1,15,79,-10,-23,-25
1490984153984,3,-5,-105,-34,-19,-29,25,-1,16
1490984153984,3,-40,-113,25,20,-17,-4,18,10
1490984153985,0,-7,-52,-26,-33,36,34,15,-25
1490984153985,0,23,67,18,34,2,1,5,23
1490984153987,2,8,98,-87,-78,10,-13,-2,-26
1490984153987,2,35,117,-30,18,-7,-1,19,66
1490984153987,3,-36,127,22,-3,33,7,-34,-33
1490984153987,3,19,109,33,9,-33,-27,-14,-8
1490984154033,0,9,90,89,87,6,-21,5,9
1490984154033,0,3,-87,-113,-120,48,-2,12,-8
1490984154034,1,-16,-84,-45,-2,27,-11,10,-3
1490984154034,1,22,-59,66,-22,19,-17,-33,27
1490984154035,3,3,-98,-88,-61,-5,13,8,11
1490984154035,3,54,-48,-62,-68,-19,-8,8,18
1490984154036,0,-80,-128,-100,25,27,5,23,-2
1490984154036,0,23,-99,75,10,13,14,-9,-41
1490984154082,1,8,-109,64,-32,12,-2,18,15
1490984154082,1,30,36,23,87,11,-43,-32,-19
1490984154083,2,-13,70,-7,-42,-1,9,36,66
1490984154083,2,-62,89,-116,-38,-37,-7,11,-31
1490984154084,0,54,-66,-104,-22,-24,8,28,18
1490984154084,0,-2,-83,62,127,57,-26,-29,-21
1490984154084,1,0,-6,111,51,-11,-7,-20,17
1490984154084,1,-13,-52,-100,127,3,6,5,16
1490984154131,2,-2,35,35,60,-29,-20,-19,-42
1490984154131,2,-35,3,-99,-7,-35,36,47,3
1490984154132,3,9,90,-68,127,-8,-23,-22,-22
1490984154132,3,7,111,89,-100,15,13,15,56
1490984154133,1,74,105,-53,-123,-18,-19,-8,12
1490984154133,1,4,80,75,-16,-1,-40,-63,-7
1490984154134,2,8,65,-102,-128,0,35,27,6
1490984154134,2,110,-42,-99,-58,-23,10,13,40
1490984154179,3,-128,-128,81,113,18,39,5,2
1490984154179,3,57,-60,-128,88,2,67,25,-13
1490984154180,0,77,50,113,127,41,14,-23,-29
1490984154180,0,0,127,32,113,-12,-67,-27,27
1490984154181,2,2,92,-78,-128,-23,-46,-29,0
1490984154181,2,27,81,66,58,27,9,-1,21
1490984154182,3,-10,-24,-71,5,-8,21,-14,-6
1490984154182,3,-40,-128,-84,19,-21,6,45,8
1490984154228,0,-56,-109,-72,126,13,22,62,-20
1490984154228,0,-23,-95,83,80,17,28,-7,17
1490984154229,1,50,-111,14,41,4,36,9,32
1490984154229,1,35,-13,-53,-55,12,-1,-22,-9
1490984154230,3,-27,1,1,58,8,16,-1,-74
1490984154230,3,39,-59,-79,-69,-25,49,16,8
1490984154231,0,-19,28,61,51,25,20,9,49
1490984154231,0,19,-28,1,51,3,9,-20,6
1490984154277,1,-65,-3,72,1,-49,-57,-14,-27
1490984154277,1,-34,85,-50,-70,20,-101,-24,-35
1490984154278,2,50,88,55,63,19,-29,-19,37
1490984154278,2,-44,44,114,-57,-17,-48,-9,-10
1490984154279,3,51,-12,-128,-93,-7,-5,34,11
1490984154279,3,-38,-103,99,47,-9,-8,16,5
1490984154280,0,-87,-128,-83,-26,8,58,-3,-6
1490984154280,0,23,-32,14,20,12,79,21,17
1490984154325,1,56,10,5,104,22,4,-34,-9
1490984154325,1,-63,20,127,-50,-3,33,19,3
1490984154327,2,13,27,-77,-26,-14,2,21,46
1490984154327,2,-78,83,2,30,-4,-27,-27,18
1490984154328,0,-48,-104,-35,-19,11,-55,-15,9
1490984154328,0,25,-7,24,-115,-17,-14,49,35
1490984154328,1,30,-7,-9,-13,-12,-8,14,-26
1490984154328,1,-43,21,-56,40,6,13,-6,4
1490984154374,2,114,9,84,60,15,28,-24,-3
1490984154374,2,-102,-38,-128,-83,-7,-23,-10,-46
1490984154375,3,0,-13,71,-18,-60,-18,10,63
1490984154375,3,7,34,-65,-19,-18,20,4,-60
1490984154377,1,90,45,-117,-39,97,127,-16,31
1490984154377,1,-119,-58,-50,-60,23,49,47,13
1490984154383,2,-29,-72,91,65,-29,-99,1,-22
1490984154383,2,38,-99,-56,-89,-57,-119,-39,-78
1490984154423,3,-64,10,-8,-11,-111,-75,51,33
1490984154423,3,77,-58,57,81,-60,-45,-32,59
1490984154424,0,38,42,-66,-24,95,39,-22,-46
1490984154424,0,-31,42,75,47,105,108,4,30
1490984154425,2,-95,-59,-89,-38,-87,-43,36,-88
1490984154425,2,97,-35,-9,78,90,-126,3,-30
1490984154426,3,78,26,117,121,102,-128,-34,23
1490984154426,3,-54,22,-27,85,35,-93,-4,44
1490984154472,0,64,0,24,-128,-90,-75,-7,3
1490984154472,0,-128,-46,-128,-78,-128,-35,-14,47
1490984154473,1,-102,-99,84,41,-128,46,70,-21
1490984154473,1,127,-34,-47,85,53,38,-38,-23
1490984154474,3,-38,77,20,-104,71,110,-23,-14
1490984154474,3,57,104,-35,-33,45,95,25,-10
1490984154475,0,-9,18,35,-34,-120,127,-38,13
1490984154475,0,22,96,-10,-2,-122,47,46,-9
1490984154520,1,-122,-117,-49,-32,-128,-128,0,-12
1490984154520,1,-118,-125,78,58,6,-128,-12,-31
1490984154522,2,-24,-9,-117,52,120,-128,-21,-2
1490984154522,2,65,-93,92,14,-73,-80,10,-13
1490984154523,0,83,102,-15,15,99,77,-7,-9
1490984154523,0,77,125,32,-44,127,57,-88,-15
1490984154523,1,66,115,-84,-128,117,56,-67,-29
1490984154523,1,27,32,71,-121,-121,47,-3,55
1490984154569,2,34,-11,-82,-69,-128,92,28,19
1490984154569,2,-76,-67,53,-7,-92,127,43,-53
1490984154570,3,-99,-90,9,104,28,121,15,36
1490984154570,3,0,-67,56,127,-39,-93,10,-28
1490984154572,1,48,-74,-21,26,88,90,7,12
1490984154572,1,57,98,58,109,127,-30,6,-18
1490984154572,2,127,123,22,0,-60,-98,-49,-21
1490984154572,2,-74,-19,-27,-61,-110,-128,-23,13
1490984154618,3,-110,-35,-38,-128,-128,-128,-30,-28
1490984154618,3,-53,45,-100,-128,-128,17,-32,9
1490984154619,0,68,103,-25,-102,-116,91,13,-12
1490984154619,0,119,127,-68,47,-95,127,2,-18
1490984154667,2,-57,-42,127,127,127,96,26,5
1490984154667,2,37,57,11,57,127,113,7,11
1490984154668,3,-56,-17,-84,-104,109,-11,-22,8
1490984154668,3,-97,-74,-90,-128,96,-7,0,-49
1490984154669,0,-76,-76,-20,-21,127,-7,50,17
1490984154669,0,87,4,90,127,124,-31,29,-3
1490984154670,1,127,127,98,111,-100,1,-27,34
1490984154670,1,117,11,-44,-75,-128,29,-15,-9
1490984154715,2,-91,-25,-70,-128,-128,-21,0,-40
1490984154715,2,-128,-3,-78,-50,-85,-82,16,68
1490984154717,3,50,49,24,-15,9,-22,-3,-6
1490984154717,3,114,78,3,-5,-116,44,-24,18
1490984154718,0,127,83,26,8,-96,118,-24,-24
1490984154718,0,76,-48,-97,-52,-116,127,-4,5
1490984154718,3,-49,15,-15,31,-94,-128,-3,-10
1490984154718,3,-105,44,-84,-85,-102,-107,-23,-38
1490984154764,0,-126,5,-39,-13,-96,-77,-7,12
1490984154764,0,-128,-113,41,-20,-77,92,33,-13
1490984154765,1,88,33,18,-86,-95,118,-20,-59
1490984154765,1,127,85,-69,-82,-59,122,-22,-4
1490984154766,0,106,-56,-42,82,49,-30,3,-35
1490984154766,0,127,-25,30,87,36,-26,40,38
1490984154767,1,35,27,88,68,9,-55,-9,13
1490984154767,1,-19,18,-63,40,13,-71,13,-38
1490984154813,2,-119,-29,-54,12,10,-35,-13,4
1490984154813,2,-92,-32,-17,65,48,-106,16,32
1490984154814,3,-112,6,73,-101,-52,57,-25,-38
1490984154814,3,17,-49,127,-67,-30,68,-33,17
1490984154815,1,27,55,35,127,32,-9,3,9
1490984154815,1,-72,34,-24,125,21,-9,7,-16
1490984154816,2,-41,-46,-114,-14,9,-46,-2,6
1490984154816,2,-41,-68,-128,-128,3,-2,13,-9
1490984154862,3,0,-88,-128,-106,30,-88,45,18
1490984154862,3,-70,-75,-111,-49,11,-14,9,-15
1490984154863,0,70,-20,-100,-11,9,-24,28,33
1490984154863,0,-24,-17,-128,-18,-9,-19,-13,-18
1490984154864,2,5,23,-70,6,-7,2,15,42
1490984154864,2,-57,9,-43,2,-2,0,-6,-62
1490984154866,3,25,0,-14,2,-19,48,-12,22
1490984154866,3,80,6,20,46,4,-29,16,-3
1490984154911,0,-2,6,15,-23,0,20,-31,-11
1490984154911,0,9,6,10,-7,-2,-11,-1,-16
1490984154912,1,35,8,23,8,-3,-8,0,35
1490984154912,1,-31,-7,24,24,1,12,-13,-21
1490984154913,3,-24,-11,5,-18,-18,25,-15,-34
1490984154913,3,-2,7,15,-23,-6,20,4,51
1490984154914,0,-108,-30,37,20,9,-30,12,-23
1490984154914,0,111,26,47,21,12,4,4,55
1490984154959,1,-38,1,21,4,-5,4,7,-12
1490984154959,1,-7,2,27,22,-3,-6,3,-34
1490984154960,2,-60,-13,10,-14,8,-30,0,15
1490984154960,2,4,15,0,-32,-14,24,-1,0
1490984154962,0,106,10,37,58,20,1,-23,-3
1490984154962,0,33,23,-5,7,-11,22,11,20
1490984154962,1,-79,-48,2,-12,-1,-16,-3,-14
1490984154962,1,-16,19,44,-17,-8,10,6,1
1490984155008,2,-23,-36,-69,-6,7,4,15,-19
1490984155008,2,-7,11,40,-13,7,-61,20,-17
1490984155009,3,-17,-11,-15,31,9,9,3,29
1490984155009,3,46,-5,60,20,-13,44,-24,3
1490984155010,0,32,32,-22,-13,3,5,6,-32
1490984155010,0,-17,-29,-18,-3,-16,45,-9,59
1490984155011,1,34,5,47,-24,14,-73,-28,-69
1490984155011,1,-98,-14,-36,-12,6,-9,4,-1
1490984155105,2,127,51,-34,-37,-21,26,12,15
1490984155105,2,51,2,85,16,10,-5,-24,9
1490984155107,3,-72,13,-39,54,1,38,12,105
1490984155107,3,82,-37,-24,34,15,-22,16,-69
1490984155108,1,62,-29,-104,34,21,-6,-18,16
1490984155108,1,-115,-20,79,-39,-25,7,-25,-30
1490984155109,2,30,-18,-72,-74,-12,1,-4,4
1490984155109,2,102,-8,-28,3,-10,22,1,13
1490984155154,3,38,48,127,37,19,-33,25,13
1490984155154,3,-30,-6,-100,-18,4,-12,3,-5
1490984155156,0,25,11,26,-5,-23,28,34,-1
1490984155156,0,-67,-16,-20,-7,8,-28,-24,21
1490984155157,2,-43,-1,125,-63,-34,7,-21,-29
1490984155157,2,67,9,-58,-20,-7,3,33,40
1490984155158,3,21,-77,-10,56,6,19,-1,30
1490984155158,3,67,12,33,82,13,-22,3,39
1490984155204,0,-29,-30,49,-21,18,1,-9,3
1490984155204,0,57,79,62,39,16,-39,25,-48
1490984155205,1,-108,-45,-19,-27,-18,7,5,15
1490984155205,1,33,-3,-38,-102,-10,6,13,-58
1490984155206,0,-4,-50,-68,26,14,-63,11,-22
1490984155206,0,-57,-12,-47,114,11,23,11,-11
1490984155207,1,-22,98,35,125,15,40,-14,-61
1490984155207,1,-69,-75,-62,-103,3,3,20,71
1490984155253,2,86,56,7,-30,-14,5,-13,27
1490984155253,2,8,-20,-128,-38,-18,-14,5,-54
1490984155255,3,74,5,50,-102,21,-63,-5,-34
1490984155255,3,97,80,48,82,4,28,34,27
1490984155256,1,32,-32,59,33,-23,99,-43,46
1490984155256,1,-128,37,-37,-47,9,-44,10,-21
1490984155257,2,-47,-9,-71,16,20,-20,41,19
1490984155257,2,81,45,-62,37,-12,69,31,108
1490984155300,3,42,-28,83,-88,6,-30,7,-85
1490984155300,3,78,45,-23,127,19,-15,-52,-30
1490984155302,0,-90,-97,-15,-95,-29,-8,25,-93
1490984155302,0,59,58,33,30,45,-21,21,19
1490984155303,2,-63,26,-128,-74,8,-69,10,-47
1490984155303,2,79,-32,12,-26,-55,19,-32,-39
1490984155303,3,-92,-80,80,54,24,-80,0,-77
1490984155303,3,-8,-42,-86,46,44,60,-25,39
1490984155352,0,-73,-55,49,4,-54,75,-16,-4
1490984155352,0,53,67,94,64,6,-85,-24,-33
1490984155354,1,-58,-53,-128,-128,-36,9,-8,30
1490984155354,1,46,19,127,62,0,-19,17,-22
1490984155355,2,90,57,66,127,23,61,15,91
1490984155355,2,-116,-65,47,-109,-17,69,-86,-58
1490984155356,3,49,9,-128,-103,-21,-73,90,55
1490984155356,3,-10,6,4,32,38,-32,-5,-125
1490984155398,0,-20,-52,-21,-63,-56,105,-33,-16
1490984155398,0,-66,-57,37,-23,52,-55,50,65
1490984155399,1,-69,-104,-128,57,4,10,21,-79
1490984155399,1,15,23,127,-128,-43,8,-39,-66
1490984155400,3,48,-34,-17,-78,-34,36,3,15
1490984155400,3,-12,68,96,89,43,-16,-3,-6
1490984155401,0,84,-2,-82,-53,30,47,-26,-21
1490984155401,0,-95,-115,127,-98,-54,-25,22,-28
1490984155446,1,127,124,61,118,41,-45,-6,38
1490984155446,1,10,-26,-97,2,-31,42,18,99
1490984155448,2,-48,10,126,-31,16,63,-22,-1
1490984155448,2,29,-37,-128,-35,-23,-49,4,-14
1490984155448,0,44,16,-57,25,28,-86,80,0
1490984155448,0,119,88,75,75,14,70,-19,19
1490984155449,1,-102,-63,65,23,-4,46,-33,-9
1490984155449,1,18,-31,-100,-67,-34,-25,-14,-5
1490984155495,2,-68,-6,44,100,11,-53,-23,35
1490984155495,2,34,38,17,-80,17,23,46,-5
1490984155496,3,85,114,-9,127,11,86,-11,112
1490984155496,3,-128,7,-1,-50,-15,-82,21,-86
1490984155497,1,-90,-113,108,28,54,35,-14,23
1490984155497,1,109,-8,-103,-29,-50,32,11,16
1490984155498,2,-128,41,-12,-72,-2,-85,23,-15
1490984155498,2,79,119,102,127,64,-14,-51,53
1490984155544,3,121,-83,-128,-63,-62,61,-25,-30
1490984155544,3,-115,-128,-54,-9,21,5,57,5
1490984155545,0,38,108,112,33,-26,14,-45,-28
1490984155545,0,2,37,-78,-128,-8,-17,13,-37
1490984155546,2,-32,8,-120,15,-35,17,28,-8
1490984155546,2,37,8,36,52,34,-8,-7,-69
1490984155547,3,-74,-65,88,-27,-11,-31,18,-37
1490984155547,3,-18,65,-112,-7,14,-28,40,86
1490984155593,0,24,-97,127,56,-10,-8,-10,-80
1490984155593,0,-71,-112,4,-128,-48,-19,-9,-29
1490984155594,1,-32,105,-83,-14,59,33,40,51
1490984155594,1,96,-38,127,87,11,39,-69,-33
1490984155596,3,22,100,127,-14,-16,-49,5,-54
1490984155596,3,-11,-108,-12,7,-28,-14,63,19
1490984155599,0,-29,10,-78,5,11,11,-62,-40
1490984155599,0,-36,-49,115,127,49,15,-2,5
1490984155642,1,96,93,-128,-128,-72,-41,-2,77
1490984155642,1,-124,36,-49,28,5,-27,12,-36
1490984155643,2,-35,-11,83,124,24,-20,20,77
1490984155643,2,-4,-44,-19,33,-4,89,-38,-24
1490984155644,0,-7,-6,57,-6,-21,28,19,-34
1490984155644,0,25,13,-42,99,-2,47,-7,65
1490984155648,1,-26,-95,-89,-21,34,29,-13,-43
1490984155648,1,29,63,-22,69,74,-21,-41,-27
1490984155691,2,-19,-128,10,-12,-26,20,15,36
1490984155691,2,54,114,121,21,1,-26,27,-31
1490984155692,3,-58,-86,112,76,-48,40,-43,66
1490984155692,3,-77,74,-90,-128,-5,-3,-30,-31
1490984155693,0,6,19,-85,-76,-6,-24,32,5
1490984155693,0,-27,-105,79,50,42,-6,-35,-42
1490984155694,1,33,28,-82,-99,21,9,5,22
1490984155694,1,-46,26,-16,-22,-50,-9,16,-42
1490984155739,2,20,48,-17,-97,11,7,17,-45
1490984155739,2,39,-7,-59,17,-10,-38,-28,13
1490984155741,3,22,14,111,127,56,-11,-28,3
1490984155741,3,66,-7,63,88,14,30,8,19
1490984155742,1,65,17,127,49,51,-32,-43,-19
1490984155742,1,2,-40,69,37,95,48,-12,-10
1490984155743,2,84,15,8,-64,-33,4,-21,0
1490984155743,2,-12,48,-82,-93,-33,-25,91,48
1490984155788,3,-87,-86,-28,80,6,-16,47,-36
1490984155788,3,-14,-128,49,69,22,-8,-26,-12
1490984155789,0,59,80,86,127,-17,-9,-7,52
1490984155789,0,-60,6,-92,-40,-55,72,-11,-43
1490984155791,2,22,-32,34,105,17,-18,-52,0
1490984155791,2,8,-1,27,4,-26,7,-39,10
1490984155791,3,5,-44,-93,-14,24,49,56,20
1490984155791,3,-23,-53,45,-90,5,-10,13,-49
1490984155837,0,-89,31,-123,-83,-23,-26,20,-7
1490984155837,0,60,0,94,127,29,-11,-39,-15
1490984155839,1,9,-12,21,-102,18,4,79,50
1490984155839,1,39,24,50,93,25,60,-60,17
1490984155840,3,67,80,127,103,-68,15,-63,14
1490984155840,3,-66,11,-117,-128,-74,-25,13,14
1490984155841,0,17,5,127,79,-19,8,-5,24
1490984155841,0,-19,-11,5,-45,-8,-5,46,-3
1490984155886,1,31,-20,-94,90,-8,-11,-43,-34
1490984155886,1,-17,17,32,19,14,-5,-10,-30
1490984155887,2,50,-23,-118,17,27,25,20,28
1490984155887,2,-42,-106,110,-75,-29,-20,3,66
1490984155888,0,25,64,53,-28,61,32,-7,-2
1490984155888,0,17,127,65,24,-30,21,4,-9
1490984155889,1,7,122,127,84,-8,-9,-6,11
1490984155889,1,58,15,104,-46,38,-12,-6,35
1490984155934,2,-60,-128,-96,-75,-28,17,39,-25
1490984155934,2,6,32,46,119,19,-9,33,-6
1490984155936,3,14,0,103,66,2,-12,-1,2
1490984155936,3,-2,-22,59,-73,-32,-62,27,11
1490984155937,1,21,-50,61,40,1,79,-22,-6
1490984155937,1,37,55,-23,88,-53,120,-43,-5
1490984155938,2,26,115,-9,-58,39,127,13,26
1490984155938,2,0,79,-28,-33,-63,17,-30,7
1490984155983,3,-12,76,-29,16,-77,-32,36,-17
1490984155983,3,1,3,89,116,115,-64,-4,21
1490984155985,0,-33,-68,-50,-51,-93,-94,-28,-33
1490984155985,0,18,-38,-76,-64,32,-99,-25,-30
1490984155986,2,-11,-1,124,127,47,7,-12,-6
1490984155986,2,22,6,95,32,87,92,-14,17
1490984155987,3,2,-10,-104,-77,-107,127,-59,-29
1490984155987,3,19,-19,-101,-116,-42,104,65,31
1490984156032,0,-28,12,37,127,-37,66,-66,-12
1490984156032,0,-2,-15,74,6,-106,13,-47,-7
1490984156034,1,-39,-9,-57,-5,11,-13,16,7
1490984156034,1,29,6,-52,-73,20,-85,42,17
1490984156035,3,-36,20,50,35,0,-128,10,-1
1490984156035,3,14,-18,-11,-32,-85,47,24,36
1490984156036,0,16,-12,60,-7,30,120,-25,3
1490984156036,0,10,-10,-43,-53,8,127,-10,-16
1490984156083,1,-8,19,39,-10,-9,94,3,16
1490984156083,1,-43,-16,-5,-41,84,-99,19,-34
1490984156084,2,5,-26,-16,86,5,-128,39,-13
1490984156084,2,-81,16,-21,22,21,52,-50,7
1490984156085,3,-73,40,5,-2,-6,90,15,-2
1490984156085,3,21,31,-4,43,-128,127,-46,-9
1490984156087,0,102,2,-33,-69,73,77,-36,-9
1490984156087,0,127,-13,-105,-95,42,-54,58,35
1490984156178,1,-1,3,88,-7,22,-110,42,11
1490984156178,1,-128,-19,116,99,78,-117,-27,-41
1490984156180,2,-102,-35,70,98,5,-122,0,8
1490984156180,2,-10,-57,109,52,5,-116,-67,-35
1490984156181,0,-96,44,82,-94,-25,127,96,69
1490984156181,0,-128,-25,-11,-57,3,-3,33,-35
1490984156183,1,69,-73,-27,63,58,-92,-1,25
1490984156183,1,-113,-66,-93,13,61,-128,20,-12
1490984156227,2,124,-20,-95,-86,-14,-53,-7,-22
1490984156227,2,95,-23,-54,-47,-16,-125,9,22
1490984156228,3,85,64,-56,-28,92,-43,-55,-7
1490984156228,3,78,14,-81,-126,-91,95,-64,-5
1490984156228,1,-63,-37,-45,-28,-125,120,16,-18
1490984156228,1,-34,-43,-25,82,-4,-52,15,-2
1490984156229,2,50,-114,-22,123,67,53,-56,116
1490984156229,2,27,-100,-18,18,109,-61,121,-128
1490984156275,3,-9,86,9,102,73,105,-128,-128
1490984156275,3,53,-15,-24,60,79,-91,-17,-94
1490984156276,0,23,-13,-113,-37,33,17,-128,-114
1490984156276,0,27,37,-115,-85,22,79,-21,-69
1490984156277,3,-23,109,-95,-101,21,65,107,11
1490984156277,3,10,111,-81,0,24,37,34,19
1490984156324,0,14,90,11,-117,-10,-47,22,-98
1490984156324,0,8,-6,68,-83,14,78,17,29
1490984156325,1,-23,-54,127,-21,13,43,0,28
1490984156325,1,12,-120,126,11,-3,-6,-11,69
1490984156325,2,15,41,40,-128,-9,-67,-50,62
1490984156325,2,-5,125,119,127,10,29,94,-84
1490984156326,0,3,-13,25,32,-4,127,36,50
1490984156326,0,-5,73,41,-90,8,88,32,56
1490984156373,1,101,107,103,103,2,41,-3,95
1490984156373,1,102,71,82,-6,6,-15,-70,37
1490984156374,2,89,127,92,-48,21,-65,-22,69
1490984156374,2,69,108,81,41,-49,-34,-32,49
1490984156375,3,-16,24,73,97,96,29,7,32
1490984156375,3,85,-15,43,67,116,-43,0,-7
1490984156376,1,56,-89,42,32,110,-49,83,5
1490984156376,1,16,-106,12,-42,112,61,8,-62
1490984156422,2,-77,-128,18,-30,101,14,-1,-90
1490984156422,2,-112,-128,3,-74,-20,17,-33,-89
1490984156424,3,-114,-115,15,35,-26,-55,-46,-62
1490984156424,3,-111,-95,10,20,-101,49,27,36
1490984156425,1,26,-45,15,-96,-88,-21,32,35
1490984156425,1,28,-30,-10,-17,-32,43,54,-15
1490984156426,2,12,-36,6,-5,68,-1,-1,47
1490984156426,2,-32,-16,-5,88,123,-46,-45,-38
1490984156470,3,-81,22,5,28,-59,-55,-45,-6
1490984156470,3,-97,-2,-2,-42,-25,-4,21,-93
1490984156472,0,-94,28,1,11,-36,35,18,-128
1490984156472,0,-72,32,1,9,-43,30,-53,-55
1490984156474,2,-21,54,92,6,-128,-28,-40,68
1490984156474,2,10,42,91,83,-112,-55,-15,51
1490984156475,3,-3,20,4,-53,-103,-32,-16,5
1490984156475,3,-8,17,16,14,-70,-7,-11,5
1490984156519,0,-6,16,12,29,-23,-18,10,-12
1490984156519,0,13,6,-15,11,-1,17,-12,-14
1490984156521,1,-11,-14,-21,-1,28,-4,1,-6
1490984156521,1,3,7,-12,-11,8,12,3,-2
1490984156522,3,0,7,-11,16,67,-23,-1,-16
1490984156522,3,1,-11,-33,-33,42,-10,-14,10
1490984156524,0,-4,4,-11,-27,-25,14,4,-1
1490984156524,0,11,2,11,54,-36,2,-7,-25
1490984156617,1,10,0,2,36,24,-12,4,-29
1490984156617,1,5,12,-20,-57,6,4,-5,-12
1490984156621,2,-6,-12,-5,55,18,-9,-19,1
1490984156621,2,-1,-10,-5,-4,4,0,-3,7
1490984156623,0,6,-25,-31,-29,-15,-10,-2,34
1490984156623,0,9,6,-6,3,30,11,8,4
1490984156625,1,-7,1,16,-6,-6,-4,-1,1
1490984156625,1,-3,-12,-16,-4,-18,1,-2,-5
1490984156665,2,-3,-26,-4,-7,46,8,-5,-21
1490984156665,2,-14,-43,-14,10,-5,-8,21,-1
1490984156667,3,8,-50,-10,12,26,4,-3,19
1490984156667,3,6,-41,13,13,-1,-6,-9,8
1490984156668,1,2,-24,16,-25,-48,-1,-11,-13
1490984156668,1,2,4,-38,-46,30,5,-9,-4
1490984156668,2,3,-26,-10,-18,-20,-28,2,12
1490984156668,2,-10,-79,-18,-5,5,0,2,15
1490984156763,3,16,44,-23,-2,-22,-25,-30,-23
1490984156763,3,-29,94,-28,-14,9,16,4,-25
1490984156765,0,-5,127,13,-3,-16,-13,-5,-13
1490984156765,0,13,127,28,-30,-23,9,-14,-7
1490984156766,3,17,-128,-8,20,29,-2,7,42
1490984156766,3,6,-116,-1,-22,-49,-5,-3,-1
1490984156767,0,11,-128,32,43,40,15,38,14
1490984156767,0,32,-118,6,35,-5,-16,-5,-13
1490984156811,1,-33,-7,79,59,28,1,-14,-13
1490984156811,1,22,53,-32,17,13,-7,7,14
1490984156812,2,-25,124,-59,-66,-4,-21,-16,5
1490984156812,2,-1,127,-52,-7,-27,-2,7,-16
1490984156813,3,-19,13,-98,30,7,6,-1,-15
1490984156813,3,7,-9,29,48,-22,2,7,15
1490984156814,0,-48,113,62,-128,-45,3,-9,-44
1490984156814,0,-68,114,-128,0,6,11,-13,40
1490984156860,1,-29,127,39,-75,4,10,13,-28
1490984156860,1,8,81,-41,-66,-11,-5,-10,-16
1490984156862,2,-11,-61,-10,-13,15,-2,-11,14
1490984156862,2,29,-108,-55,-48,12,-10,10,-44
1490984156863,1,13,-11,4,-110,2,18,23,25
1490984156863,1,-9,-87,23,38,16,2,1,-31
1490984156863,2,17,-90,-101,81,22,12,-3,2
1490984156863,2,34,-91,107,84,-7,2,-2,27
1490984156911,3,-95,-5,-47,111,6,16,-5,-51
1490984156911,3,30,90,73,112,13,-29,-5,19
1490984156912,0,57,76,-1,-73,-19,-13,1,24
1490984156912,0,-18,78,79,-90,-3,-12,-9,-10
1490984156913,2,10,-86,11,66,15,24,5,-15
1490984156913,2,21,-30,23,84,46,16,12,24
1490984156915,3,-22,14,40,44,-15,-16,-5,15
1490984156915,3,36,37,-29,38,-4,-11,10,4
1490984156958,0,-59,52,5,-86,-3,-27,-10,-22
1490984156958,0,-8,46,-128,-87,-26,-16,-14,-9
1490984156958,1,29,-31,1,20,-5,14,8,-7
1490984156958,1,19,-106,127,-72,38,29,11,-6
1490984156959,3,-54,113,-128,37,37,-18,-17,-18
1490984156959,3,11,127,5,82,7,-21,-8,5
1490984156961,0,39,93,70,127,9,-1,-5,-18
1490984156961,0,29,-29,-40,58,-50,-9,-8,8
1490984157006,1,18,-121,-92,8,-26,13,10,-2
1490984157006,1,-68,-128,-118,75,4,52,1,4
1490984157007,2,-31,-119,82,-39,45,86,20,6
1490984157007,2,0,-128,16,16,28,69,5,-10
1490984157008,0,-128,62,39,32,-22,-105,-9,-52
1490984157008,0,-116,113,-7,-98,97,-25,-7,-4
1490984157009,1,74,127,-45,-106,102,9,-9,-5
1490984157009,1,104,127,-42,-85,65,1,-23,7
1490984157055,2,127,80,-65,-4,-61,13,-15,25
1490984157055,2,56,-48,96,29,-94,15,11,-6
1490984157056,3,98,-101,-108,27,-128,54,10,22
1490984157056,3,17,-128,127,23,96,37,12,-21
1490984157057,1,-81,-3,107,22,-25,-12,10,-3
1490984157057,1,-57,93,127,16,-12,-30,-23,17
1490984157058,2,-128,118,18,-9,99,-61,-19,-35
1490984157058,2,42,127,25,-109,127,-72,-18,-29
1490984157104,3,90,127,-110,-118,12,-33,-16,21
1490984157104,3,113,55,-120,12,-121,-16,-20,-10
1490984157153,0,127,-66,7,-64,-115,37,14,14
1490984157153,0,11,-116,-108,-3,-128,42,10,-16
1490984157153,1,-9,-128,95,78,-27,-30,15,-23
1490984157153,1,-74,-108,61,8,-62,43,17,17
1490984157154,2,-128,-63,119,127,-106,-22,24,1
1490984157154,2,13,47,94,4,-30,-107,-41,56
1490984157155,3,-128,76,-76,-82,87,23,-16,-15
1490984157155,3,-109,97,-122,-108,69,91,-6,-52
1490984157202,0,-111,17,-23,-76,94,100,7,12
1490984157202,0,-9,-109,100,-29,52,92,19,4
1490984157203,2,127,95,-128,112,22,-15,-18,-18
1490984157203,2,127,127,83,117,-128,-90,3,22
1490984157204,3,59,61,127,108,-115,-114,2,11
1490984157204,3,1,-98,-41,78,-128,-50,-2,0
1490984157205,3,-33,-37,-64,-128,69,108,5,6
1490984157205,3,-123,-58,-10,-94,-67,17,-4,12
1490984157250,0,-125,-4,-28,33,38,17,-16,-25
1490984157250,0,-116,-36,-128,103,63,36,-8,-36
1490984157251,1,-53,8,40,-100,70,-3,-35,-24
1490984157251,1,-58,-88,43,119,-14,-18,8,18
1490984157252,0,127,89,80,-109,127,-24,-15,-7
1490984157252,0,127,116,-41,42,58,-25,8,-54
1490984157253,1,24,-4,-11,106,-128,-96,23,28
1490984157253,1,-88,-128,102,127,-128,-83,16,-3
1490984157299,2,-107,-87,73,127,-80,-22,12,53
1490984157299,2,-128,-68,-71,10,127,45,-13,-3
1490984157300,3,-126,-51,-72,-92,60,-8,-5,-3
1490984157300,3,-99,89,34,-71,127,48,2,24
1490984157300,1,127,22,55,113,-128,-37,-3,27
1490984157300,1,85,-17,26,-3,-117,-36,1,-14
1490984157301,2,-9,-50,88,13,-85,-41,-4,-11
1490984157301,2,-34,76,70,45,60,-7,1,31
1490984157348,3,-119,73,-11,113,78,5,-14,7
1490984157348,3,-18,-10,-35,-7,125,19,-3,-4
1490984157348,0,-101,-105,-24,-93,127,35,3,-7
1490984157348,0,-105,-127,-15,46,86,29,30,-23
1490984157349,2,127,98,-128,-128,127,-89,-25,-1
1490984157349,2,127,127,-128,-128,-4,-77,-25,17
1490984157350,3,102,127,-105,-26,-103,-6,-3,-21
1490984157350,3,-52,60,-128,127,-113,7,-7,-6
1490984157397,0,90,112,50,127,-128,59,-12,-25
1490984157397,0,103,99,97,-3,-108,64,4,1
1490984157399,1,127,7,127,-61,-128,22,28,10
1490984157399,1,-66,-71,127,-9,-48,27,20,30
1490984157400,3,-126,-87,127,-81,-98,2,14,-8
1490984157400,3,18,-10,100,-105,-72,73,9,11
1490984157401,0,-14,-119,104,-128,-75,116,6,61
1490984157401,0,5,-128,105,68,-114,-13,36,-2
1490984157446,1,-100,95,87,111,-121,-87,41,16
1490984157446,1,-95,35,-70,-51,20,-128,14,13
1490984157448,2,-28,76,-128,-128,106,-128,7,-2
1490984157448,2,108,108,-119,-128,127,-72,-41,-28
1490984157449,0,65,126,48,104,-128,109,-48,-12
1490984157449,0,-22,108,109,95,-128,109,-31,-12
1490984157450,1,-121,-3,113,127,-103,42,5,-23
1490984157450,1,-105,-10,127,127,-95,46,15,26
1490984157494,2,-117,-60,122,124,-9,-16,22,2
1490984157494,2,-66,-32,79,-38,110,21,15,-16
1490984157496,3,-54,-14,102,-31,127,49,-20,11
1490984157496,3,-3,-99,69,21,127,53,-48,-6
1490984157498,0,74,-111,-81,-74,-45,-19,0,3
1490984157498,0,-126,-101,-128,-59,-89,-51,-2,-33
1490984157499,1,-82,-5,-109,76,-126,-21,14,-1
1490984157499,1,-117,-64,83,20,47,-39,35,14
1490984157543,2,-43,-39,76,33,-68,0,2,27
1490984157543,2,85,-40,-9,-82,-82,-18,-12,5
1490984157545,3,127,54,-49,-128,-128,11,-4,20
1490984157545,3,127,127,-103,-114,-128,-5,-16,-54
1490984157547,1,-115,-89,-114,-105,82,-21,-1,-3
1490984157547,1,-126,-63,-128,-34,115,-5,10,-15
1490984157548,2,-74,-82,-128,-8,79,0,18,45
1490984157548,2,-48,-25,-118,64,-21,0,1,-29
1490984157592,3,21,-17,-111,21,38,12,-12,10
1490984157592,3,19,-10,-115,7,-3,-2,4,13
1490984157594,0,24,6,-72,23,-6,22,-26,-27
1490984157594,0,-14,48,3,31,59,-14,-7,12
1490984157595,2,-44,11,44,42,22,8,10,-21
1490984157595,2,1,15,61,54,20,0,5,24
1490984157596,3,36,-30,43,18,-5,16,-14,-18
1490984157596,3,1,2,54,20,-12,-2,7,11
1490984157641,0,-11,17,32,-6,4,1,-8,-26
1490984157641,0,-3,-18,-1,-6,-2,5,-1,24
1490984157643,1,33,2,55,6,6,3,9,6
1490984157643,1,3,7,-14,8,0,3,-4,20
1490984157644,3,56,-8,-19,1,-13,13,-14,9
1490984157644,3,-8,43,64,21,5,-3,4,6
1490984157645,0,8,-20,-28,-6,6,-2,-3,-9
1490984157645,0,-31,-2,5,-33,-15,12,2,2
1490984157689,1,12,17,5,30,21,-12,5,-26
1490984157689,1,20,-6,9,1,-5,-1,-11,19
1490984157691,2,19,14,20,-1,-10,5,11,16
1490984157691,2,85,3,7,0,-1,-1,-9,4
1490984157693,0,23,9,-32,10,9,-18,-7,-1
1490984157693,0,-65,0,19,40,15,-2,15,1
1490984157700,1,11,-24,59,16,5,6,4,11
1490984157700,1,55,37,38,-2,-17,10,-5,-4
1490984157738,2,-33,6,-48,-50,-5,-1,2,-14
1490984157738,2,-58,-32,-33,7,9,-1,-3,-31
1490984157740,3,28,10,-36,-33,-14,1,5,-9
1490984157740,3,-67,-18,69,87,26,-9,5,-5
1490984157743,1,-128,-40,-92,-34,12,13,12,7
1490984157743,1,85,32,51,-47,-10,-7,-5,35
1490984157745,2,93,-10,-35,63,12,19,-3,-11
1490984157745,2,-29,-17,-90,-79,-24,-13,8,23
1490984157787,3,31,10,113,24,0,-2,-15,4
1490984157787,3,-90,44,-58,62,28,-24,19,-34
1490984157789,0,59,-36,127,-29,-7,5,0,50
1490984157789,0,-31,-7,-107,10,2,2,-12,-42
1490984157791,2,-89,9,17,-10,-5,12,-1,-39
1490984157791,2,-12,6,-49,11,1,-8,4,25
1490984157792,3,82,-16,-16,-13,5,-10,-11,12
1490984157792,3,3,41,56,79,12,19,-15,-10
1490984157836,0,-128,-32,-86,-74,-7,-22,-2,-57
1490984157836,0,48,14,127,16,1,-6,1,-8
1490984157837,1,19,-3,-128,20,-9,-5,-8,18
1490984157837,1,-8,-23,8,-90,-12,-9,8,10
1490984157838,2,97,22,-33,82,21,21,3,8
1490984157838,2,-50,-18,-38,-110,-25,6,0,17
1490984157840,3,-12,56,-1,49,16,-8,-13,-52
1490984157840,3,38,-32,-91,-66,-17,14,5,19
1490984157884,0,-69,-7,-9,18,25,-16,13,-29
1490984157884,0,34,61,16,20,-6,22,1,18
1490984157886,1,-25,-74,127,2,3,6,11,39
1490984157886,1,65,-30,-122,-58,-21,-4,-11,29
1490984157888,3,-94,-13,38,62,28,0,1,21
1490984157888,3,-1,48,49,-11,-15,4,6,28
1490984157888,0,-22,-40,73,29,1,7,-7,3
1490984157888,0,-58,-3,-128,-110,2,-32,14,-69
1490984157933,1,34,62,127,77,0,-4,-10,1
1490984157933,1,16,2,-74,86,15,10,-3,54
1490984157935,2,20,21,52,-70,-25,7,-5,30
1490984157935,2,-104,-60,-19,65,17,14,-3,-4
1490984157936,0,-30,-28,-85,-59,-10,-10,-20,35
1490984157936,0,-65,41,80,47,-5,-19,9,-10
1490984157937,1,23,-58,13,-96,8,11,3,67
1490984157937,1,35,-10,3,42,12,20,-9,-39
1490984157982,2,-69,15,-46,9,9,1,-3,-9
1490984157982,2,127,49,118,44,4,21,-23,26
1490984157984,3,-99,-51,-120,-15,-24,19,-8,-24
1490984157984,3,-108,-12,-79,-78,-9,-52,32,9
1490984157985,1,14,6,80,-43,-21,0,11,2
1490984157985,1,-3,-43,-128,-40,2,1,7,-44
1490984157986,2,87,73,40,-43,-19,-30,16,4
1490984157986,2,9,-82,43,-9,11,2,4,2
1490984158031,3,16,79,59,109,46,-3,2,4
1490984158031,3,-6,-68,-54,-32,-40,18,-19,-44
1490984158032,0,-16,-16,-5,-51,15,-17,3,29
1490984158032,0,-22,45,28,38,-21,-22,5,-57
1490984158034,2,112,86,82,91,11,15,2,29
1490984158034,2,-96,-64,-9,-69,-6,-7,3,11
1490984158035,3,43,12,-32,-51,8,-6,-11,33
1490984158035,3,-88,2,43,67,-11,12,-9,-11
1490984158079,0,99,-45,7,-51,-23,22,-22,-5
1490984158079,0,-91,52,66,53,1,-38,7,3
1490984158081,1,54,-32,-93,45,4,-19,-3,-46
1490984158081,1,13,-10,33,-127,6,1,4,14
1490984158082,3,-128,-50,-58,-74,3,-34,33,-16
1490984158082,3,115,-29,-6,23,-2,-6,-33,21
1490984158083,0,-128,20,-10,104,35,10,1,20
1490984158083,0,95,79,52,10,-35,-13,-23,-35
1490984158128,1,-109,-49,-112,-30,0,-24,32,-13
1490984158128,1,90,67,42,-10,12,17,-18,32
1490984158130,2,-57,-7,97,2,6,9,24,27
1490984158130,2,101,27,-91,13,16,14,-15,-6
1490984158131,0,31,-46,42,-26,5,-13,-5,32
1490984158131,0,-93,-2,-118,-41,2,27,23,2
1490984158132,1,-43,-8,34,-24,-19,-8,11,-52
1490984158132,1,79,100,26,46,53,-1,-15,93
1490984158177,2,3,-76,50,6,-28,39,-4,-20
1490984158177,2,-46,-107,-21,-22,1,-24,18,19
1490984158179,3,43,83,-86,15,-14,-25,-9,-43
1490984158179,3,-120,83,93,67,8,13,-32,-5
1490984158180,0,21,-14,2,-33,-22,-2,7,19
1490984158180,0,-7,-89,-48,30,18,-19,-3,-1
1490984158181,1,-70,2,103,61,12,29,-27,-20
1490984158181,1,83,31,-121,-90,-50,-22,12,35
1490984158226,2,-55,12,-112,-123,2,-18,17,1
1490984158226,2,126,22,94,-14,34,15,-25,14
1490984158228,3,-90,-6,-43,57,-13,22,-2,18
1490984158228,3,32,-33,-56,-85,5,-12,18,-24
1490984158229,1,88,28,-64,-108,7,-19,-7,-10
1490984158229,1,-71,-68,127,127,12,6,27,23
1490984158230,2,-39,5,-128,44,-2,-1,-16,-31
1490984158230,2,54,23,-87,-67,-6,-16,9,46
1490984158274,3,-46,2,114,56,6,14,-3,-7
1490984158274,3,79,9,44,31,-39,1,-23,26
1490984158276,0,-73,-2,-55,55,27,-9,8,8
1490984158276,0,-62,-62,8,-24,-3,5,-19,-32
1490984158278,2,-41,23,1,48,-49,13,-8,58
1490984158278,2,73,5,-114,-101,-17,1,-2,5
1490984158279,3,49,-28,58,-54,11,-10,-15,-1
1490984158279,3,-48,-28,25,57,-4,-9,1,10
1490984158323,0,49,38,-20,-86,-31,-3,11,4
1490984158323,0,-26,-50,73,-28,46,2,-27,-42
1490984158325,1,98,88,-69,-36,39,-6,10,5
1490984158325,1,-68,-40,98,-70,-7,11,-38,-31
1490984158326,3,110,66,-4,53,-39,7,8,1
1490984158326,3,85,52,-46,98,-29,-17,-22,71
1490984158327,0,-90,-49,91,93,70,13,16,-43
1490984158327,0,5,18,-20,29,-20,5,-8,27
1490984158372,1,6,37,73,75,4,8,-7,-16
1490984158372,1,-40,-79,12,-69,-8,-1,-28,-3
1490984158374,2,-30,61,-44,-14,21,-9,24,-62
1490984158374,2,75,85,127,81,3,-3,-10,42
1490984158375,0,-31,-35,-24,-52,22,-3,23,-2
1490984158375,0,16,4,99,-14,0,7,19,43
1490984158376,1,3,23,17,2,35,26,-19,-1
1490984158376,1,29,64,-73,48,-29,15,19,1
1490984158421,2,-60,45,-81,-85,-12,-18,12,-61
1490984158421,2,13,-39,-11,54,-34,-6,33,22
1490984158423,3,60,-5,123,43,57,11,-61,42
1490984158423,3,-82,53,31,49,39,-14,19,-17
1490984158425,1,-109,-124,74,-67,-54,-8,41,-2
1490984158425,1,79,14,-76,6,25,2,9,-33
1490984158426,2,105,-7,-13,33,18,-1,-32,32
1490984158426,2,-93,21,-128,-27,10,-3,2,40
1490984158469,3,15,70,100,-8,6,-3,-9,11
1490984158469,3,-58,58,44,-26,-31,11,4,-43
1490984158472,0,-19,-57,-5,-54,31,-9,22,-1
1490984158472,0,17,-52,-6,-21,-35,25,-4,-2
1490984158473,2,-13,-26,-48,39,-55,0,-10,0
1490984158473,2,-58,53,-104,20,38,-16,9,-72
1490984158476,3,15,90,-65,-10,-51,5,7,43
1490984158476,3,-9,-9,29,6,10,-18,-3,-5
1490984158571,0,41,-57,127,41,41,5,-36,-2
1490984158571,0,2,10,-18,37,-38,-5,36,17
1490984158573,1,-89,-83,-128,-36,43,-16,-31,-44
1490984158573,1,64,14,-95,8,-11,-10,15,13
1490984158574,2,16,-20,55,-12,11,12,-10,-16
1490984158574,2,78,-55,68,8,-26,0,-9,14
1490984158575,3,4,-92,127,26,-13,0,-13,28
1490984158575,3,-24,64,-91,-32,54,-5,5,17
1490984158617,0,-52,99,-110,-33,-22,-7,9,-3
1490984158617,0,-3,127,54,-2,42,15,11,-19
1490984158618,1,41,53,46,-5,-19,-18,-18,5
1490984158618,1,-37,-22,-40,19,-38,-2,10,24
1490984158620,3,-22,-55,-104,-44,28,14,29,-25
1490984158620,3,-80,-34,105,0,-41,4,31,-12
1490984158621,0,-49,-28,27,-5,19,-27,4,-18
1490984158621,0,23,-12,37,14,-2,-14,-15,-1
1490984158664,1,-27,53,78,-42,74,-11,18,18
1490984158664,1,4,-14,-101,-14,9,-9,5,-6
1490984158666,2,12,6,0,9,-62,-55,-10,-1
1490984158666,2,-38,9,-54,27,-29,-34,-8,-7
1490984158667,1,9,20,-29,50,36,-27,-30,30
1490984158667,1,8,-9,14,-40,13,-20,9,-22
1490984158668,2,30,7,-37,4,27,-21,-11,32
1490984158668,2,-55,-6,7,26,-11,-16,-11,-26
1490984158713,3,9,-5,-62,-47,11,-7,6,-14
1490984158713,3,30,-11,7,38,63,-45,15,24
1490984158714,0,-25,-27,-17,-13,-12,-101,-1,-36
1490984158714,0,-31,-6,66,42,51,-45,15,-15
1490984158715,2,-5,-15,-29,-15,-58,96,-28,-13
1490984158715,2,33,22,91,6,-53,64,-35,38
1490984158761,3,-12,1,-67,-82,-19,24,-17,-13
1490984158761,3,-2,-2,-31,-8,-80,-11,-22,-22
1490984158763,0,-9,-3,22,32,-45,-59,-20,-4
1490984158763,0,12,-20,-82,-4,23,-26,14,19
1490984158764,1,7,14,73,42,18,-64,-11,2
1490984158764,1,-8,-5,8,-30,-42,-41,-8,-2
1490984158764,3,20,4,-75,59,11,22,1,-7
1490984158764,3,-28,-4,127,6,-12,62,2,-15
1490984158812,0,5,10,57,36,31,95,10,12
1490984158812,0,-6,-12,-21,-73,58,35,26,-17
1490984158815,1,-11,18,24,17,-9,-23,15,-2
1490984158815,1,2,28,117,77,32,-18,4,21
1490984158816,2,2,10,93,68,4,-28,-20,33
1490984158816,2,-7,3,-77,1,-7,13,0,-19
1490984158817,0,74,-9,9,15,-10,-64,16,-20
1490984158817,0,117,10,126,33,88,29,-10,28
1490984158860,1,63,-43,-94,-104,-73,45,-1,-35
1490984158860,1,5,0,75,80,-28,50,-3,-2
1490984158862,2,-94,12,-26,43,61,73,11,5
1490984158862,2,-84,-14,-46,-10,109,-21,-12,7
1490984158863,1,8,-30,22,-24,37,13,-18,-15
1490984158863,1,12,7,-94,-53,-115,-4,17,28
1490984158870,2,-30,-31,-61,-128,-125,0,-10,-40
1490984158870,2,-35,49,-38,-55,-109,50,21,-8
1490984158908,3,-90,-22,29,60,-76,-25,42,19
1490984158908,3,84,-94,-41,-6,-71,-97,-17,-7
1490984158910,0,86,-20,-49,77,-128,-21,-14,19
1490984158910,0,45,44,9,-128,-35,71,6,-8
1490984158911,1,124,20,21,110,15,118,14,3
1490984158911,1,-48,84,-30,109,117,108,13,21
1490984158912,2,-106,-8,-7,-107,124,-49,73,32
1490984158912,2,28,-39,-6,60,74,-117,12,-9
1490984158957,3,62,60,23,-117,72,-128,-15,52
1490984158957,3,50,-29,-21,16,96,-123,-71,-36
1490984158958,0,40,-13,-79,94,61,-16,-42,-18
1490984158958,0,-5,1,-111,75,54,5,-32,-1
1490984158960,2,32,53,-128,-123,26,30,-37,11
1490984158960,2,-1,22,-115,5,14,15,-25,11
1490984158961,3,49,-23,-101,31,5,-21,-13,10
1490984158961,3,29,25,-128,22,12,42,-1,-17
1490984159006,0,-31,-48,-97,127,86,78,16,-22
1490984159006,0,-32,-50,-19,-58,121,71,3,-25
1490984159007,1,-38,-57,113,-15,120,82,20,-10
1490984159007,1,-67,-49,121,-14,127,99,26,-24
1490984159008,3,-4,-42,127,11,68,4,-13,-21
1490984159008,3,9,-71,127,-6,127,54,10,-84
1490984159009,0,-16,56,108,58,127,122,-62,-121
1490984159009,0,-125,106,102,125,92,-121,82,22
1490984159054,1,-121,111,125,-37,-75,-125,-111,-73
1490984159054,1,83,56,108,-128,-111,-128,-8,114
1490984159056,2,109,-103,127,-121,-123,-31,99,124
1490984159056,2,127,-120,127,-97,-128,90,58,127
1490984159057,0,74,64,-128,-128,30,45,-4,-128
1490984159057,0,16,-76,-128,-19,116,95,-5,-128
1490984159058,1,-36,-101,-115,-13,109,94,32,-83
1490984159058,1,-103,-62,-87,-49,107,100,-18,-60
1490984159103,2,-30,-40,-81,21,127,38,11,63
1490984159103,2,-39,-13,-86,-2,127,61,-28,24
1490984159104,3,0,-59,-97,-11,111,2,-1,42
1490984159104,3,2,-61,-57,11,40,26,35,16
1490984159105,1,73,6,62,-12,-128,-36,-16,4
1490984159105,1,-28,-34,69,43,-122,-6,53,23
1490984159107,2,-118,19,62,56,-108,47,10,33
1490984159107,2,-90,72,47,79,-128,58,0,-85
1490984159152,3,-61,76,42,100,-127,57,27,-98
1490984159152,3,-10,85,95,7,-128,12,-33,-7
1490984159153,0,17,81,124,112,-6,-67,-88,47
1490984159153,0,10,52,95,-50,-91,-128,-47,83
1490984159154,2,0,9,22,-24,-35,-121,-17,-18
1490984159154,2,14,8,-7,-18,57,-105,-10,-14
1490984159155,3,-3,-11,-28,-36,-5,-18,-5,24
1490984159155,3,-16,-27,-7,18,25,61,-24,-39
1490984159201,0,11,-14,-55,-116,-47,89,22,0
1490984159201,0,4,-8,-29,39,23,54,-9,-20
1490984159202,1,-9,-6,2,-3,-20,6,-3,10
1490984159202,1,2,0,-20,-21,9,-39,-3,17
1490984159203,3,-13,8,10,-37,-23,-10,9,14
1490984159203,3,-7,-25,-31,-20,19,6,32,3
1490984159204,0,-5,7,21,59,26,4,-3,-25
1490984159204,0,-5,-11,-21,-3,24,6,3,15
1490984159252,1,13,3,-2,-6,15,1,-1,25
1490984159252,1,0,4,-28,-17,40,12,17,-15
1490984159253,2,0,-5,2,0,1,2,1,-30
1490984159253,2,5,0,-23,-13,-18,-6,0,3
1490984159254,3,-18,-17,3,45,30,-7,5,18
1490984159254,3,1,0,-4,-10,-22,-8,0,3
1490984159255,0,4,-1,-5,-15,-20,-41,7,-4
1490984159255,0,-1,9,1,12,-5,-11,-9,6
1490984159298,1,12,-1,1,27,35,-11,1,-2
1490984159298,1,-19,0,2,9,-19,-6,-6,-5
1490984159301,2,-5,5,16,35,75,31,-32,-32
1490984159301,2,23,6,-18,-80,-70,14,13,13
1490984159302,0,16,7,16,-17,-65,-9,17,28
1490984159302,0,-17,-6,25,29,9,14,-10,-10
1490984159304,1,-6,-30,-29,-35,-26,7,10,21
1490984159304,1,9,-4,2,-9,-8,1,7,4
1490984159347,2,-14,-9,15,4,-9,5,14,11
1490984159347,2,12,3,-17,-1,18,-6,0,-18
1490984159348,3,-23,5,-9,-5,13,-6,2,-6
1490984159348,3,3,5,-10,-14,-8,-10,5,-24
1490984159349,1,9,-24,-35,-6,8,0,3,-7
1490984159349,1,-4,-5,-21,-18,-2,16,1,5
1490984159352,2,-1,12,0,18,-14,-1,-18,-20
1490984159352,2,-7,-10,-21,-3,15,6,1,-2
1490984159396,3,2,17,14,35,29,-15,-24,0
1490984159396,3,0,1,5,-10,-33,-6,8,-16
1490984159397,0,-1,1,-15,-1,10,7,7,5
1490984159397,0,-8,-29,16,31,17,-1,-6,-5
1490984159398,2,-28,-38,-79,-45,17,2,8,-22
1490984159398,2,5,-4,33,25,7,0,-2,6
1490984159399,3,4,27,-3,-19,-5,-3,-11,11
1490984159399,3,-4,-25,9,17,24,0,-20,-18
1490984159444,0,19,19,12,19,-20,-13,-9,1
1490984159444,0,-21,-9,-26,13,20,21,1,-13
1490984159446,1,8,33,26,-34,-10,-5,-11,-38
1490984159446,1,5,-60,9,58,26,9,15,44
1490984159447,3,-21,-39,98,-12,-25,3,7,-11
1490984159447,3,0,-51,-72,-21,5,-9,6,-3
1490984159448,0,22,-20,40,44,21,3,-3,27
1490984159448,0,-28,-33,-32,19,27,4,-10,-39
1490984159493,1,49,14,48,32,-34,0,13,17
1490984159493,1,-38,18,39,40,-5,0,-3,5
1490984159494,2,-10,29,-26,9,4,1,2,-3
1490984159494,2,7,-7,-66,5,-7,-6,-2,-9
1490984159496,0,11,-40,-60,-32,13,12,12,1
1490984159496,0,38,22,112,-26,-24,-5,-16,0
1490984159497,1,-44,-70,-75,45,12,13,16,34
1490984159497,1,23,-37,-102,79,20,5,6,0
1490984159542,2,-23,-107,127,11,13,4,9,-2
1490984159542,2,8,-15,-94,-107,-14,-6,4,-5
1490984159544,3,-4,22,-34,-110,-32,-14,-12,-13
1490984159544,3,-3,127,5,-128,-24,-9,1,-11
1490984159545,1,-68,127,-75,-105,3,-27,-17,-53
1490984159545,1,-32,114,-22,-55,-28,-7,-5,-13
1490984159546,2,-7,98,27,12,0,4,-10,-6
1490984159546,2,10,35,67,92,-26,-1,-7,4
1490984159591,3,-5,-3,-90,38,-1,-6,9,-9
1490984159591,3,-12,-100,-60,26,32,13,-4,-9
1490984159592,0,5,-111,21,104,27,-11,10,10
1490984159592,0,0,-42,74,127,28,-8,-6,29
1490984159594,1,16,56,-10,-20,7,18,9,13
1490984159594,1,33,125,-2,35,-16,9,2,-8
1490984159595,2,-57,127,-49,-8,-19,-16,-4,22
1490984159595,2,23,26,-4,-13,9,-3,2,-21
1490984159639,3,-13,-46,116,94,10,-8,-12,7
1490984159639,3,60,-14,-58,-90,-24,-11,-21,14
1490984159642,0,-63,-57,78,57,-13,6,1,-13
1490984159642,0,13,-77,-100,-62,36,64,17,-3
1490984159643,2,29,-35,82,105,5,-6,-12,19
1490984159643,2,-40,93,-24,-39,-40,-38,-12,-12
1490984159644,3,-38,123,-63,-117,-13,-57,-17,-47
1490984159644,3,15,127,-62,-81,-47,-102,-21,17
1490984159688,0,-3,124,-81,-128,-59,-93,-6,-29
1490984159688,0,-21,44,47,31,20,-24,-7,-7
1490984159690,1,36,-58,-66,25,-8,9,6,0
1490984159690,1,3,-114,-35,92,39,62,13,5
1490984159692,3,22,-86,127,82,44,58,-10,8
1490984159692,3,38,-30,42,35,-30,-6,-5,11
1490984159693,0,-13,56,-128,-121,30,-19,17,-7
1490984159693,0,-89,87,-5,43,2,-40,-1,-6
1490984159737,1,79,104,93,-71,-62,-85,-29,-9
1490984159737,1,-4,103,-94,-106,-42,-40,0,8
1490984159739,2,73,35,30,6,8,-19,4,-12
1490984159739,2,13,-29,-56,21,-4,-28,3,11
1490984159741,0,1,-49,-123,19,13,67,9,3
1490984159741,0,51,-52,-87,-42,27,46,22,15
1490984159742,1,18,-39,61,88,10,35,-4,28
1490984159742,1,-42,-26,-34,-28,63,55,-6,-25
1490984159786,2,-6,10,44,7,-2,-14,-6,12
1490984159786,2,-27,49,119,-17,-43,-87,-12,-32
1490984159787,3,-42,30,-69,-40,-36,-49,-2,-7
1490984159787,3,25,3,-19,-44,-39,-43,-11,-6
1490984159789,1,52,9,15,-44,2,33,11,28
1490984159789,1,79,-14,-39,51,6,12,-18,-32
1490984159790,2,127,-17,-22,-35,30,29,1,27
1490984159790,2,104,-44,31,-1,26,42,1,3
1490984159834,3,-71,-5,39,55,56,47,-8,-4
1490984159834,3,-97,-2,73,-4,-11,-4,6,4
1490984159836,0,-35,8,-55,7,-127,-60,-9,54
1490984159836,0,-54,2,-15,-61,3,-32,-5,-39
1490984159837,2,-87,-46,75,62,69,-6,5,-27
1490984159837,2,-107,-44,108,30,15,-32,-15,4
1490984159839,3,105,57,-31,-11,-75,-35,6,30
1490984159839,3,86,97,-35,-46,-90,-9,3,-34
1490984159883,0,127,65,-117,-68,-55,24,-12,-6
1490984159883,0,127,15,2,38,-24,7,-7,-14
1490984159885,1,-42,-40,-52,41,-75,0,6,-41
1490984159885,1,26,-37,101,53,-27,-33,8,6
1490984159886,3,-81,12,81,-1,0,25,-12,6
1490984159886,3,-103,-6,-79,17,85,47,5,1
1490984159887,0,-74,2,127,39,97,50,-13,-15
1490984159887,0,38,2,-105,-90,127,-10,4,29
1490984159932,1,-100,31,-72,-70,20,-53,-10,-17
1490984159932,1,-98,11,82,-19,-83,-26,8,-9
1490984159933,2,-128,-37,60,98,-121,16,1,17
1490984159933,2,96,-104,36,25,-128,27,11,41
1490984159935,3,127,-43,30,3,-118,-47,24,22
1490984159935,3,127,-9,73,30,40,-89,-3,29
1490984159936,0,-32,49,43,-3,95,-64,-12,-4
1490984159936,0,-128,81,8,-21,64,23,-13,-32
1490984159981,1,-114,73,-128,-102,127,59,-14,-44
1490984159981,1,-103,63,-48,-70,127,52,-13,-18
1490984159982,2,-80,15,4,39,90,57,1,0
1490984159982,2,-77,-83,-88,100,127,-14,2,57
1490984159983,0,127,-6,-56,-18,-123,-65,-6,8
1490984159983,0,-90,9,127,2,-128,-64,36,-22
1490984159984,1,-59,2,104,77,-128,19,17,67
1490984159984,1,-110,-94,-18,-52,-41,23,-3,23
1490984160029,2,-90,-79,-116,-107,100,-9,-6,-24
1490984160029,2,-28,13,-88,-128,122,92,-32,-27
1490984160032,3,-128,92,-38,-41,127,72,-3,-11
1490984160032,3,-88,84,-91,3,105,81,-15,-16
1490984160033,1,127,-28,75,59,-123,-51,3,11
1490984160033,1,-117,-35,65,120,-128,-56,5,-2
1490984160034,2,-47,-101,47,-84,-111,32,21,43
1490984160034,2,-61,-46,127,-118,-117,54,27,44
1490984160078,3,90,-4,113,-128,-128,-2,28,63
1490984160078,3,-26,13,77,-26,-3,31,-5,58
1490984160079,0,-35,4,-67,122,112,-6,-38,-23
1490984160079,0,-97,-9,-87,127,120,-1,-55,-92
1490984160080,2,-72,41,-20,127,96,50,7,-12
1490984160080,2,109,105,94,127,127,-40,1,15
1490984160081,3,87,62,92,105,89,-34,4,44
1490984160081,3,83,68,84,-72,-113,1,5,21
1490984160129,0,-29,-27,-62,-89,-128,-17,6,1
1490984160129,0,-73,-27,50,-87,-128,-27,-3,9
1490984160130,1,-92,-52,-51,-122,-98,10,21,41
1490984160130,1,11,-10,-4,-94,23,58,7,-25
1490984160130,3,-108,-88,80,-72,-74,-2,21,61
1490984160130,3,-97,96,-113,-71,-8,-64,-18,16
1490984160131,0,32,51,-64,-123,111,-48,-27,-66
1490984160131,0,122,12,-128,-128,127,-29,-34,-68
1490984160175,1,127,68,-128,53,31,20,-34,-55
1490984160175,1,127,81,-128,127,-104,20,19,-3
1490984160176,2,8,30,-75,127,-124,-14,-1,-47
1490984160176,2,-101,21,-15,127,-128,1,5,16
1490984160224,0,-66,-62,127,127,127,5,-16,-22
1490984160224,0,-82,-38,-105,-38,5,-11,-3,-11
1490984160225,1,-48,53,-128,-97,-52,-11,-10,-42
1490984160225,1,-53,106,-128,-71,64,22,-16,5
1490984160226,2,-102,-11,99,-23,76,10,14,33
1490984160226,2,81,-106,-4,-108,2,-4,7,34
1490984160227,3,90,-59,32,-128,-64,12,31,27
1490984160227,3,127,3,42,-119,-128,51,45,53
1490984160273,1,-92,81,86,58,-121,-31,-26,-39
1490984160273,1,-119,-29,127,127,-128,-56,-27,-57
1490984160274,2,-83,-24,127,127,-128,-46,-9,-27
1490984160274,2,69,-75,120,127,-111,-34,25,-15
1490984160275,3,-29,-128,124,122,26,-2,4,56
1490984160275,3,-87,69,115,-90,120,34,-30,-15
1490984160276,2,127,48,105,125,-119,1,-15,14
1490984160276,2,67,74,-62,-85,-119,2,12,5
1490984160322,3,-113,-9,-92,-114,-128,-11,18,15
1490984160322,3,-58,3,-128,-32,-86,-5,22,57
1490984160323,0,-104,-98,-2,-94,-15,2,34,40
1490984160323,0,-96,-72,127,-70,33,10,7,25
1490984160324,2,-35,60,-76,-10,-103,-10,11,-3
1490984160324,2,-58,46,-32,109,-4,0,4,-6
1490984160325,3,46,-39,-86,94,32,12,-4,-6
1490984160325,3,-32,-57,-47,127,49,-9,-11,3
1490984160372,0,51,-98,-25,127,65,-5,-9,14
1490984160372,0,54,-92,-6,101,57,2,-22,11
1490984160373,1,-121,-7,73,6,113,-6,-9,-10
1490984160373,1,-69,-118,81,-91,101,-2,21,20
1490984160374,3,127,104,114,-105,-66,-5,-21,-11
1490984160374,3,127,-41,-11,-109,-27,-8,2,-15
1490984160375,0,-117,26,-106,-67,42,2,2,-13
1490984160375,0,-128,94,-128,-17,6,4,10,-3
1490984160419,1,-123,38,-128,36,37,3,14,-1
1490984160419,1,-90,-26,-99,15,5,-1,-5,-4
1490984160420,2,-11,-61,-121,46,49,4,8,15
1490984160420,2,-29,-33,-109,31,-1,1,12,-2
1490984160421,0,27,-18,-33,40,-90,-2,-3,-6
1490984160421,0,-16,27,-20,-27,-1,-1,2,-4
1490984160422,1,19,-12,-4,-34,31,-5,-11,13
1490984160422,1,-32,14,52,50,67,0,5,27
1490984160468,2,3,23,42,32,40,5,-6,22
1490984160468,2,77,-1,5,-55,12,-6,-4,-5
1490984160471,3,-10,-34,23,-21,10,1,-1,-11
1490984160471,3,11,26,73,21,14,2,0,14
1490984160517,1,63,2,68,-14,-4,0,6,20
1490984160517,1,-9,-11,-15,-19,-29,-2,-1,-40
1490984160519,2,-20,22,54,7,-8,-7,5,37
1490984160519,2,-35,-14,79,25,46,-2,-9,13
1490984160520,3,71,17,-69,-40,64,5,-11,4
1490984160520,3,-88,-10,38,30,92,-2,19,-21
1490984160522,0,82,-16,-42,-10,-20,6,5,-27
1490984160522,0,44,7,49,11,-111,-2,-12,30
1490984160565,2,-114,-14,-68,1,-10,-8,-4,16
1490984160565,2,72,-4,-78,-12,31,-3,4,12
1490984160567,3,-14,-13,29,-35,49,-7,1,-17
1490984160567,3,99,18,2,-109,41,10,7,1
1490984160568,0,10,-13,83,-128,12,9,-2,17
1490984160568,0,-52,31,92,37,24,-1,-16,-17
1490984160569,3,-128,10,127,121,54,-11,-24,-13
1490984160569,3,13,11,-128,87,127,11,-74,-16
1490984160614,0,-115,-9,-107,123,127,-8,-17,-77
1490984160614,0,-128,-25,-36,107,34,-6,-13,-112
1490984160616,1,12,2,-5,8,-94,9,3,42
1490984160616,1,99,-4,65,-88,-128,8,8,18
1490984160617,0,27,-34,-128,-128,-32,0,-2,-21
1490984160617,0,12,4,10,-49,-19,-6,13,-3
1490984160618,1,-53,20,18,71,42,6,-1,-9
1490984160618,1,30,2,89,35,9,2,-15,33
1490984160663,2,-77,-32,-60,-54,14,-5,-15,-49
1490984160663,2,38,47,-25,5,8,6,-6,36
1490984160665,3,68,-14,-90,-88,24,15,2,-4
1490984160665,3,93,39,100,86,15,-2,-16,-19
1490984160666,0,-92,-43,-25,-1,0,-6,22,4
1490984160666,0,56,63,61,-17,13,10,-13,-1
1490984160667,1,-80,-20,10,28,55,-1,10,33
1490984160667,1,-46,27,-100,21,21,-20,0,16
1490984160712,2,84,2,19,-46,-45,-11,-6,21
1490984160712,2,-97,-22,-126,-63,31,8,19,-29
1490984160714,3,111,29,79,19,11,-1,-10,31
1490984160714,3,-110,1,116,89,23,-8,-15,-78
1490984160715,1,87,5,-59,-60,2,10,12,30
1490984160715,1,35,-5,102,-4,12,2,26,8
1490984160716,2,-50,-15,-25,25,4,1,-24,-34
1490984160716,2,112,38,63,62,-31,-7,-18,31
1490984160761,3,-128,-59,-105,-23,3,-7,1,-65
1490984160761,3,26,-22,-83,-37,2,11,22,-9
1490984160762,0,8,70,-7,-1,50,15,30,13
1490984160762,0,60,-34,0,40,-2,-12,-33,6
1490984160763,2,58,-2,-43,39,14,-6,-9,5
1490984160763,2,-25,-4,32,-119,-6,0,21,-1
1490984160765,3,92,44,127,82,3,3,-20,5
1490984160765,3,-57,-81,-128,-32,-15,-11,21,24
1490984160809,0,1,26,127,4,44,-11,0,-74
1490984160809,0,61,-27,-63,27,-9,10,-18,33
1490984160812,1,70,27,-29,-35,-2,-9,10,3
1490984160812,1,58,6,63,-26,-8,-2,-4,-19
1490984160813,3,109,9,-56,-122,-16,1,0,53
1490984160813,3,69,-39,0,77,5,1,0,-8
1490984160814,0,23,-28,10,21,8,-1,-13,-14
1490984160814,0,-73,34,53,35,-11,-7,-25,2
1490984160859,1,53,55,-128,-43,14,-12,3,-3
1490984160859,1,-102,7,71,35,14,-4,10,6
1490984160859,2,67,-24,-56,-33,-16,24,-5,4
1490984160859,2,11,-1,74,-59,-15,4,19,4
1490984160860,0,79,49,18,-61,-20,14,14,41
1490984160860,0,-47,-85,-84,-11,-7,-3,-10,-27
1490984160860,1,-113,4,-16,-51,-21,22,9,45
1490984160860,1,59,-61,-115,8,57,5,31,-63
1490984160908,2,12,25,76,70,10,-6,-39,63
1490984160908,2,40,29,-61,48,-41,-18,-14,-9
1490984160908,3,57,61,-9,-32,-31,-14,11,9
1490984160908,3,-18,-23,-116,-35,7,22,-2,-17
1490984160910,1,52,-97,4,-25,-9,0,0,-6
1490984160910,1,-42,89,23,-10,3,-9,0,25
1490984160911,2,-63,12,64,90,26,8,6,-11
1490984160911,2,24,76,-62,-18,-7,9,-22,28
1490984160955,3,-80,-102,-29,-46,-3,-9,12,-15
1490984160955,3,45,-81,-49,-53,-13,20,3,-17
1490984160956,0,-52,96,-9,9,19,-1,-20,-32
1490984160956,0,-67,-42,-18,-8,-14,-9,-8,-1
1490984160957,2,11,-92,-71,27,-40,-29,-2,-15
1490984160957,2,-66,-38,72,-25,-4,-2,-1,47
1490984160958,3,-15,57,-67,62,7,-3,-11,-16
1490984160958,3,-49,45,83,19,-21,-3,12,4
1490984161004,0,-38,5,18,89,26,13,2,-30
1490984161004,0,23,-99,-124,-123,-27,18,59,22
1490984161007,1,-69,34,34,34,58,19,-1,-44
1490984161007,1,91,50,28,84,-27,-21,-29,18
1490984161008,2,-6,68,-128,-26,-26,-7,24,-19
1490984161008,2,9,-11,-22,-9,-8,-11,-6,-2
1490984161009,3,-35,-19,-39,-51,12,15,11,29
1490984161009,3,10,-96,74,62,26,14,4,-28
1490984161053,0,117,3,-101,-3,-34,-2,-16,3
1490984161053,0,-100,14,-35,-51,38,13,27,-54
1490984161055,1,64,15,113,67,12,-7,1,0
1490984161055,1,-29,2,60,43,-25,-7,-32,53
1490984161056,3,-75,-21,117,31,50,29,46,-19
1490984161056,3,-14,3,61,63,-11,-7,-54,-41
1490984161058,0,29,-62,-47,-61,-48,-24,11,55
1490984161058,0,96,6,-76,-48,-42,-5,-3,-29
1490984161102,1,-10,28,88,87,47,9,-8,-21
1490984161102,1,-2,-14,-22,-42,-10,-3,2,25
1490984161104,2,-114,30,-12,102,-1,-2,-6,-44
1490984161104,2,34,-7,-74,-66,7,19,20,29
1490984161105,0,-18,61,-17,-114,-30,1,-15,-56
1490984161105,0,-38,37,-41,-25,54,24,26,61
1490984161106,1,-40,29,32,96,6,-26,-24,-89
1490984161106,1,86,68,-61,-128,-37,-9,-17,53
1490984161151,2,-1,-70,-49,-121,11,16,54,34
1490984161151,2,15,63,76,98,31,-7,-38,1
1490984161153,3,-28,-84,-23,35,-41,-13,-6,-25
1490984161153,3,0,19,-37,80,-14,-18,-26,-40
1490984161154,1,21,-90,-63,9,-5,-11,-13,37
1490984161154,1,70,5,55,-80,12,11,30,26
1490984161155,2,-14,77,67,-3,23,4,-7,31
1490984161155,2,10,94,127,7,-23,-11,-17,7
1490984161200,3,41,79,-128,-112,10,2,-14,0
1490984161200,3,-101,26,27,42,9,-8,-16,-43
1490984161204,0,50,-68,-19,-71,6,10,15,-9
1490984161204,0,-38,-68,27,42,-12,-17,-14,7
1490984161205,2,-68,103,-84,38,64,26,-19,-57
1490984161205,2,93,64,81,-9,-37,-6,-10,39
1490984161207,3,-54,14,-99,-106,-49,18,-9,6
1490984161207,3,47,-116,-31,16,38,-1,23,9
1490984161249,0,-62,-83,116,100,33,-9,-5,0
1490984161249,0,16,-10,-99,113,-31,-1,-5,-6
1490984161250,1,-75,127,7,-7,47,1,9,-23
1490984161250,1,27,127,54,-62,-16,-15,-30,29
1490984161252,3,-68,-7,-4,45,54,13,28,12
1490984161252,3,-17,-8,19,8,-3,-4,-1,-2
1490984161252,0,-19,-84,25,-15,0,-6,-34,-34
1490984161252,0,25,-28,-75,-16,33,15,23,9
1490984161296,1,-7,12,41,-24,30,14,-13,-8
1490984161296,1,43,-9,-128,-7,0,-9,7,29
1490984161298,2,-8,-101,55,-27,-73,-4,-5,10
1490984161298,2,23,-83,75,-2,23,-1,-30,-25
1490984161299,0,73,122,35,-16,59,-13,-38,16
1490984161299,0,-40,17,26,5,-37,-2,-3,-13
1490984161300,1,71,-61,16,2,22,-5,8,17
1490984161300,1,-16,-51,-9,9,3,19,-1,2
1490984161345,2,-1,-9,25,-22,23,2,-2,-2
1490984161345,2,0,-37,-49,10,26,-16,4,17
1490984161346,3,43,-22,-43,12,17,-6,-18,2
1490984161346,3,-13,-26,41,0,20,15,9,5
1490984161347,0,-52,8,102,7,-35,4,-6,-9
1490984161347,0,-53,-9,15,10,11,7,-18,-28
1490984161348,1,57,20,25,20,-12,-4,-14,44
1490984161348,1,18,-69,-97,-20,36,12,20,-26
1490984161443,2,-42,8,-27,-2,5,3,7,24
1490984161443,2,-47,32,9,25,24,-17,-6,-11
1490984161444,3,11,-22,18,-30,-55,-1,-2,-8
1490984161444,3,93,-7,-52,-40,-68,1,0,13
1490984161445,1,17,-5,7,15,84,1,0,-12
1490984161445,1,-10,-3,49,-6,10,8,-16,6
1490984161446,2,-5,-13,-43,14,-55,-30,-2,-25
1490984161446,2,11,5,122,10,0,-23,3,21
1490984161491,3,-10,-11,-1,-11,-91,-6,12,-23
1490984161491,3,-14,-12,-117,1,0,38,2,-8
1490984161493,0,12,36,-6,43,86,16,-5,-5
1490984161493,0,-15,24,121,-5,6,43,-9,21
1490984161494,2,7,-76,-124,-40,49,44,22,-41
1490984161494,2,68,55,127,102,89,22,-5,26
1490984161495,3,-5,0,18,16,97,-5,10,4
1490984161495,3,-6,-20,53,34,22,-19,-8,-20
1490984161540,0,20,-45,103,30,-37,-31,-18,8
1490984161540,0,-12,-35,-103,-2,-68,-37,-10,23
1490984161542,1,14,-30,-49,-10,-20,15,10,-19
1490984161542,1,-39,42,68,62,89,16,-3,-1
1490984161542,0,98,-43,19,58,54,47,6,48
1490984161542,0,127,-114,-11,-35,-35,-15,7,-9
1490984161543,1,127,-39,-104,-6,-53,-21,3,8
1490984161543,1,49,15,61,-77,-38,-3,2,1
1490984161590,2,33,69,-66,-11,19,4,-50,-26
1490984161590,2,82,127,-70,9,8,-30,-10,-18
1490984161592,3,-116,79,-122,-113,-60,-77,-7,-15
1490984161592,3,-59,-31,-126,-12,-128,-109,-54,9
1490984161594,1,-40,111,127,14,-87,-76,17,30
1490984161594,1,-110,90,111,58,-125,-20,-19,-15
1490984161596,2,-128,-3,48,-14,-128,42,5,-13
1490984161596,2,-96,-49,20,44,75,98,14,54
1490984161638,3,111,-99,-41,42,127,36,6,23
1490984161638,3,120,-120,-115,29,123,-75,5,1
1490984161639,0,55,-100,-128,-54,-70,-128,-33,-18
1490984161639,0,-104,26,-84,-82,-4,-114,36,5
1490984161641,2,59,81,-67,-16,-11,8,16,-8
1490984161641,2,35,-19,-40,103,50,-40,-40,-48
1490984161642,3,29,-62,-113,40,-58,32,1,8
1490984161642,3,41,65,40,58,-58,121,36,-20
1490984161687,0,-36,114,127,-77,-45,28,35,68
1490984161687,0,-85,52,127,-108,-21,-70,20,74
1490984161688,1,-8,-6,127,-88,100,-59,-13,16
1490984161688,1,18,-84,12,-128,74,42,7,3
1490984161689,3,14,-115,-63,127,48,-56,-24,-27
1490984161689,3,35,-97,-128,17,29,-46,-39,-31
1490984161691,0,17,-22,-128,5,62,-9,-40,-110
1490984161691,0,18,-10,-120,45,71,80,-44,-29
1490984161736,1,-48,14,-86,96,80,64,-50,-102
1490984161736,1,-85,-5,-128,-122,127,36,7,-38
1490984161737,2,-118,1,65,-5,127,30,-4,-5
1490984161737,2,-93,-57,123,97,86,35,-13,-2
1490984161738,3,-18,-92,-59,44,59,-74,0,9
1490984161738,3,80,-84,-128,78,127,-60,-30,13
1490984161739,0,127,-105,-47,-61,125,-9,-30,-42
1490984161739,0,45,-59,89,44,88,-4,-105,-57
1490984161784,1,-69,-18,127,8,-1,-100,108,31
1490984161784,1,-83,75,127,2,-99,58,110,30
1490984161786,2,-18,127,114,-87,-128,89,73,72
1490984161786,2,79,108,108,-128,-2,120,43,39
1490984161787,0,-41,-45,-99,122,127,-128,-19,-21
1490984161787,0,10,-43,-113,96,-19,-121,-86,-10
1490984161788,1,-9,-19,-99,127,-50,-86,87,-24
1490984161788,1,-31,12,-16,94,-82,81,112,-15
1490984161833,2,-120,36,0,-27,-112,75,26,31
1490984161833,2,-4,13,46,-112,76,80,20,35
1490984161834,3,104,-56,50,-128,99,30,-90,-32
1490984161834,3,75,-32,55,-121,45,-52,-74,-36
1490984161836,1,-52,101,127,-4,-128,-2,5,25
1490984161836,1,-9,53,127,51,-98,-79,-8,46
1490984161837,2,-4,-1,45,44,-41,-84,-28,-11
1490984161837,2,15,1,24,-19,-128,-44,33,23
1490984161882,3,30,2,-11,4,-57,23,19,42
1490984161882,3,-18,4,-7,26,26,-62,-21,-27
1490984161883,0,10,-10,-16,-13,7,-124,-5,-14
1490984161883,0,35,-5,9,50,55,-128,28,9
1490984161884,2,-7,-22,-20,24,35,113,-103,-1
1490984161884,2,33,-36,-64,-20,-33,-98,107,-2
1490984161885,3,-1,10,-29,-1,15,-65,76,20
1490984161885,3,-27,11,4,-12,4,69,10,-11
1490984161931,0,1,-9,-19,22,44,109,-17,-12
1490984161931,0,28,-2,-43,-94,-116,102,-37,-10
1490984161932,1,-24,0,1,26,33,-2,-54,-14
1490984161932,1,-3,18,18,-6,-3,-97,-18,20
1490984161933,3,-1,1,-30,-40,-11,-29,8,7
1490984161933,3,11,-2,-8,-27,-48,-20,0,23
1490984161979,0,-3,4,-7,-19,2,-18,13,-10
1490984161979,0,0,-1,-18,-18,14,24,16,-3
1490984161981,1,-18,-17,10,68,64,19,-42,-8
1490984161981,1,8,21,27,-39,-18,15,-8,9
1490984161982,2,17,-1,-33,-27,-12,8,17,-9
1490984161982,2,-7,-10,-23,-1,13,39,20,3
1490984161983,0,-10,2,22,-1,24,-33,12,-14
1490984161983,0,-10,-17,-4,28,16,2,-17,-20
1490984162028,1,5,-1,-10,16,13,4,14,14
1490984162028,1,-14,-2,-8,15,22,-31,-3,0
1490984162029,2,17,9,41,9,-6,-8,-3,-4
1490984162029,2,2,3,-29,-9,-12,15,-12,4
1490984162031,3,-7,-34,-1,-8,-8,4,5,-8
1490984162031,3,-5,2,-23,15,61,-6,2,9
1490984162048,1,-7,-5,-37,-27,-4,25,-2,-12
1490984162048,1,-4,-3,-16,21,53,-5,-10,12
1490984162077,2,4,-11,-20,-2,4,-6,6,12
1490984162077,2,8,6,24,20,22,-3,1,-6
1490984162079,3,-2,22,26,-16,-6,12,-19,-7
1490984162079,3,-13,-19,-26,13,25,2,1,-3
1490984162080,1,-14,17,33,28,12,0,-20,-20
1490984162080,1,-37,0,11,-3,-2,15,-15,-32
1490984162081,2,41,1,-28,-1,35,-4,14,8
1490984162081,2,-18,-10,-20,6,17,30,-5,-15
1490984162126,3,-6,0,-7,22,-12,-17,14,45
1490984162126,3,9,16,29,15,11,-3,-7,15
1490984162128,0,-24,-2,-7,4,7,3,-10,-27
1490984162128,0,5,18,20,3,10,1,4,2
1490984162129,2,20,13,11,-43,-52,6,0,3
1490984162129,2,13,3,22,38,-4,-14,-1,35
1490984162130,3,-36,-32,-28,-30,33,30,9,-9
1490984162130,3,60,30,-61,-27,-28,-12,-1,10
1490984162174,0,-39,-15,-10,28,32,-15,-10,-8
1490984162174,0,17,3,61,38,-5,-19,0,-12
1490984162176,1,-8,-37,6,-9,17,18,1,11
1490984162176,1,17,9,-27,6,14,-2,-5,3
1490984162177,3,7,-31,-74,-51,-18,12,15,-3
1490984162177,3,8,-96,-71,-40,14,11,9,-11
1490984162180,0,32,43,-23,-5,-35,5,10,31
1490984162180,0,-67,-91,84,60,46,17,-6,-52
1490984162223,1,20,13,49,25,-23,-4,-4,-4
1490984162223,1,28,-12,-5,-4,-13,9,23,15
1490984162225,2,12,-36,4,60,-22,-5,-11,-5
1490984162225,2,-17,12,-43,-24,13,-13,-3,5
1490984162226,0,-4,21,72,91,10,3,-8,38
1490984162226,0,30,-60,-116,26,12,2,0,36
1490984162272,1,-13,-6,46,-74,-2,0,11,-34
1490984162272,1,23,32,-27,-96,19,-8,-10,34
1490984162274,2,-83,11,78,-128,-9,-16,-20,-63
1490984162274,2,-25,22,-54,-109,-11,-1,-5,-39
1490984162275,3,38,51,-63,-81,-44,-7,8,41
1490984162275,3,18,16,-35,43,-13,22,0,-7
1490984162277,1,4,-20,-69,70,10,2,6,22
1490984162277,1,-33,3,38,69,25,-9,-5,11
1490984162321,2,16,-29,41,8,4,-10,7,28
1490984162321,2,69,21,-25,-16,-18,-21,9,15
1490984162322,3,-77,3,62,56,16,-28,-12,-45
1490984162322,3,-42,-7,-22,-22,-1,-5,2,0
1490984162323,0,-8,-47,-85,-109,-1,3,8,-3
1490984162323,0,10,-114,83,10,7,-34,-5,28
1490984162324,2,-12,88,85,43,45,57,4,-51
1490984162324,2,52,113,27,-2,-8,13,0,8
1490984162369,3,2,101,16,85,9,-11,-10,12
1490984162369,3,-28,74,127,40,-30,-47,-27,-7
1490984162371,0,2,65,-59,-72,-26,-20,-1,9
1490984162371,0,-10,75,-115,-39,-43,-2,-5,-27
1490984162372,3,22,-127,115,87,36,24,-5,43
1490984162372,3,-12,-98,-28,-5,-4,-17,-17,-5
1490984162418,0,-37,-32,-12,49,22,11,10,-2
1490984162418,0,-17,21,-94,-38,-16,-57,-12,-36
1490984162419,1,15,62,-66,-88,-29,-56,-11,4
1490984162419,1,1,68,44,12,-21,-5,-26,-21
1490984162420,2,108,25,-79,-23,-50,38,-3,25
1490984162420,2,-25,8,88,73,72,64,19,-28
1490984162421,3,-79,29,48,56,47,-27,-17,-21
1490984162421,3,2,44,38,-61,-19,-47,-9,15
1490984162467,0,-24,13,-31,-34,-62,-69,-5,-16
1490984162467,0,19,-26,-89,-51,-51,24,-7,25
1490984162468,1,33,-30,-93,-5,6,28,-15,-50
1490984162468,1,35,-58,-44,29,43,15,19,69
1490984162469,0,40,-10,-89,-25,16,70,11,23
1490984162469,0,16,-15,21,2,24,34,4,10
1490984162470,1,38,-23,66,11,10,11,-12,-7
1490984162470,1,85,2,-24,17,32,42,6,25
1490984162516,2,-52,30,25,-18,-11,-18,-4,31
1490984162516,2,13,30,-69,-24,-54,-7,4,-8
1490984162517,3,71,1,37,-59,-39,-4,16,26
1490984162517,3,-117,6,-76,56,9,-25,-2,-77
1490984162518,1,60,-8,81,19,36,30,16,7
1490984162518,1,61,-33,119,31,20,-31,2,1
1490984162519,2,43,7,29,-31,-56,-72,-12,-16
1490984162519,2,-128,39,2,-9,-48,-52,-27,-10
1490984162564,3,-84,49,-106,-47,-76,-55,2,22
1490984162564,3,49,43,-81,-32,-16,2,-10,-64
1490984162565,0,79,-3,45,49,76,13,11,0
1490984162565,0,80,-23,6,37,68,31,2,-11
1490984162566,2,-43,-18,42,-26,-23,-7,-4,-2
1490984162566,2,-4,3,44,22,-18,-16,-11,16
1490984162568,3,8,-27,-33,-27,51,34,18,6
1490984162568,3,1,7,-2,16,33,52,4,20
1490984162613,0,89,19,79,1,-94,2,-8,12
1490984162613,0,-128,2,110,94,-9,-35,-3,14
1490984162614,1,-10,4,14,33,-96,-39,0,-18
1490984162614,1,49,-39,-66,-79,-112,7,8,46
1490984162614,3,127,33,85,121,127,-50,-9,-15
1490984162614,3,-28,-10,61,42,40,-98,0,34
1490984162615,0,-128,-18,-105,-15,-102,-128,-2,-42
1490984162615,0,20,-123,-101,-86,-66,36,-3,15
1490984162661,1,-128,22,81,22,83,110,-3,-19
1490984162661,1,-72,99,124,117,125,110,-9,3
1490984162662,2,-41,7,-55,-17,51,81,-14,-12
1490984162662,2,60,-6,-120,-97,-113,19,-12,-13
1490984162663,0,-128,88,37,101,127,-23,-12,1
1490984162663,0,-108,-22,8,-24,8,-31,10,-34
1490984162664,1,-31,-36,-94,-120,-128,-13,3,24
1490984162664,1,8,-95,36,66,-128,-27,-13,20
1490984162710,2,-7,-100,127,110,-106,11,23,10
1490984162710,2,25,80,127,2,-70,32,16,59
1490984162711,3,-128,61,-22,-81,73,-12,11,-8
1490984162711,3,90,26,-26,-128,98,-20,-7,-47
1490984162712,1,-20,8,-92,127,-79,-36,-10,-56
1490984162712,1,11,-34,-128,120,57,-28,-3,-12
1490984162713,2,-86,-11,72,127,85,6,1,-32
1490984162713,2,-96,11,64,74,127,7,-5,-8
1490984162759,3,-33,8,63,-47,87,-10,-7,30
1490984162759,3,-45,-9,-103,-123,-128,-26,7,-6
1490984162760,0,93,-13,-7,-128,-128,5,-3,12
1490984162760,0,-128,21,46,-23,63,2,12,-29
1490984162761,2,107,54,-118,-79,73,-21,-10,14
1490984162761,2,75,30,-128,-30,-25,-27,-16,-44
1490984162761,3,-44,35,-128,34,67,15,-14,-47
1490984162761,3,-128,84,-90,60,16,20,-5,14
1490984162808,0,-128,43,-121,29,-76,0,-9,-27
1490984162808,0,-60,-15,-128,-54,-128,13,7,5
1490984162808,1,59,-43,-128,-65,-128,22,8,21
1490984162808,1,51,-25,-71,-52,30,11,4,46
1490984162809,2,-67,-26,36,-69,91,13,37,48
1490984162809,2,-68,-32,103,-115,-56,7,8,46
1490984162810,3,113,38,127,-128,-113,-1,-15,-3
1490984162810,3,96,60,127,-128,-96,5,1,2
1490984162856,0,127,47,105,9,-39,5,40,20
1490984162856,0,6,34,89,95,-80,13,10,85
1490984162857,1,-10,9,79,102,-109,-17,3,53
1490984162857,1,-99,-21,127,117,-92,-63,-35,1
1490984162857,3,-95,-37,113,127,127,-7,-44,-121
1490984162857,3,-69,-36,64,99,-1,-5,-11,-79
1490984162863,0,-5,-31,-83,17,-112,-19,16,-13
1490984162863,0,64,-20,-96,19,-126,4,7,24
1490984162905,1,72,-2,-128,1,-128,14,21,40
1490984162905,1,37,-50,-103,-4,-113,21,28,65
1490984162906,2,-111,-78,-111,77,-86,1,28,33
1490984162906,2,-77,-14,-116,-87,-62,-2,19,59
1490984162908,0,127,65,-24,-128,9,1,2,17
1490984162908,0,127,31,24,-111,17,-9,-10,-8
1490984162909,1,-96,19,31,-104,40,0,7,5
1490984162909,1,-110,-7,101,-41,30,5,-4,-42
1490984162954,2,-91,-28,52,-95,7,-3,-5,23
1490984162954,2,-103,-47,-23,-86,55,-8,12,-34
1490984162955,3,-2,-37,-108,-128,63,6,8,66
1490984162955,3,9,-101,-128,-100,72,12,10,8
1490984162955,1,127,97,-123,7,-23,3,8,2
1490984162955,1,-47,109,-128,76,-15,10,19,44
1490984162957,2,55,29,-58,127,-8,13,-9,13
1490984162957,2,-27,-79,77,127,-113,-5,-18,-12
1490984163003,3,-103,-101,126,122,-128,7,-20,-59
1490984163003,3,86,19,127,113,-104,-23,3,1
1490984163004,0,-122,97,122,125,2,-28,-33,-36
1490984163004,0,-72,65,61,88,119,-2,-60,-73
1490984163005,2,55,-40,50,-68,-107,3,29,28
1490984163005,2,127,-27,-28,-94,-119,-8,29,21
1490984163006,3,111,-44,-84,-122,-128,-9,27,65
1490984163006,3,94,-30,-128,-128,-128,12,11,57
1490984163051,0,-14,-5,-128,-73,-53,2,25,8
1490984163051,0,109,-29,-117,-84,-45,8,4,42
1490984163052,1,6,-17,-64,-24,-5,-5,2,24
1490984163052,1,-43,28,-37,11,-2,-3,0,-3
1490984163053,3,-4,-7,35,13,30,2,0,0
1490984163053,3,26,-14,-10,1,-11,-4,-21,9
1490984163054,0,-117,-33,67,64,26,-8,5,-46
1490984163054,0,59,-3,-34,-10,24,0,-1,-4
1490984163100,1,-50,2,46,28,33,-8,-6,-19
1490984163100,1,-2,-2,19,-2,7,8,-5,15
1490984163101,2,-3,-4,58,27,36,2,-2,-19
1490984163101,2,-3,1,7,14,10,-3,-3,33
1490984163102,0,-19,-20,-7,28,38,13,-6,-62
1490984163102,0,40,-1,-58,-65,0,-4,4,4
1490984163103,1,14,11,-22,-4,6,3,18,4
1490984163103,1,54,11,68,9,-8,-3,-30,16
1490984163149,2,127,21,0,-37,-22,-3,-3,45
1490984163149,2,-128,-23,55,86,32,1,4,-39
1490984163150,3,-58,-6,16,33,7,-8,2,-32
1490984163150,3,90,6,-124,-78,-2,2,19,-34
1490984163151,0,-92,-22,9,-49,8,5,6,34
1490984163151,0,36,16,55,47,5,4,-22,4
1490984163152,1,31,1,-11,-37,-15,0,-6,10
1490984163152,1,-59,8,108,32,-2,9,11,-22
1490984163198,2,48,-6,-55,-66,-21,-12,-17,-6
1490984163198,2,-96,-21,-89,-32,19,9,23,-5
1490984163199,3,81,27,39,24,1,-5,-13,29
1490984163199,3,-63,-6,82,75,-13,-7,-29,-33
1490984163200,1,0,-14,-83,-74,-9,-3,10,-3
1490984163200,1,68,-15,-51,-88,-4,1,-3,48
1490984163201,2,103,12,29,45,-13,-3,-10,8
1490984163201,2,-28,-1,-1,79,-3,-17,4,-8
1490984163246,3,-20,-17,71,-44,10,17,17,-19
1490984163246,3,-8,13,16,14,2,8,-16,20
1490984163248,0,1,-11,-128,-14,-11,8,-16,49
1490984163248,0,-26,8,127,-30,15,3,8,-60
1490984163249,2,53,-8,35,-20,13,-1,0,32
1490984163249,2,-12,16,88,87,-30,-16,-40,2
1490984163250,3,55,14,-44,-2,-19,-8,-3,-3
1490984163250,3,-73,-30,-111,-79,20,8,20,-15
1490984163296,0,-103,-1,89,68,30,17,13,17
1490984163296,0,114,2,-32,-59,-41,-14,1,35
1490984163298,1,-60,-5,44,-7,1,-3,3,4
1490984163298,1,86,39,-48,3,2,-9,-8,-11
1490984163299,3,2,-15,-15,33,-11,1,-4,34
1490984163299,3,-4,9,84,-60,-6,5,12,-52
1490984163300,0,47,0,-119,-52,-8,-10,-21,-20
1490984163300,0,106,11,82,-69,3,14,7,82
1490984163344,1,38,7,98,110,6,-6,-10,-7
1490984163344,1,50,-23,-89,-59,-48,-17,-13,20
1490984163346,2,8,22,107,-20,30,4,20,-13
1490984163346,2,-21,-35,-84,24,21,18,-16,9
1490984163347,0,102,13,81,-13,3,-2,0,4
1490984163347,0,113,11,-128,-56,-42,-11,-6,36
1490984163348,1,-42,-42,55,-47,6,8,6,-41
1490984163348,1,73,39,16,110,8,16,14,48
1490984163393,2,-128,-23,45,-63,4,-5,4,-81
1490984163393,2,-66,-15,-47,40,16,-2,1,-16
1490984163395,3,94,-21,-61,-64,-73,-7,-13,13
1490984163395,3,-95,-61,63,31,51,-14,17,-50
1490984163396,1,-20,-14,-128,22,-29,-12,-5,54
1490984163396,1,-16,29,-60,-94,5,9,20,16
1490984163397,2,18,-18,61,52,15,23,-2,-9
1490984163397,2,-112,-85,72,9,19,1,15,-26
1490984163442,3,-64,17,-38,21,11,-6,-11,-37
1490984163442,3,53,71,61,32,3,-5,-26,-18
1490984163443,0,0,-14,-106,-17,-47,-44,7,-13
1490984163443,0,-7,-10,-70,-73,8,22,32,-18
1490984163444,2,-25,80,-88,-58,-32,-8,-11,56
1490984163444,2,-11,97,-35,-111,-6,10,18,36
1490984163445,3,-128,51,52,62,25,-3,-12,-17
1490984163445,3,80,45,-73,-57,-35,-20,-26,-45
1490984163490,0,15,-68,28,-34,10,-10,15,45
1490984163490,0,115,-22,4,5,-35,-7,-10,30
1490984163492,1,80,-82,-75,-27,14,2,-11,-2
1490984163492,1,65,4,-48,-37,-9,-5,12,16
1490984163493,2,-106,26,41,62,10,27,5,-14
1490984163493,2,-17,40,-101,-78,7,0,8,-58
1490984163494,3,80,30,127,3,10,-5,-22,13
1490984163494,3,61,-14,-47,-18,-59,-23,-32,12
1490984163540,0,-45,-51,-128,2,9,-16,28,-19
1490984163540,0,-83,11,120,23,39,16,-21,7
1490984163542,1,103,-112,85,32,-17,3,5,17
1490984163542,1,61,19,-34,39,-44,-8,-18,3
1490984163543,3,86,-57,-51,6,-34,-34,-1,83
1490984163543,3,-128,-30,-31,59,42,-1,25,-31
1490984163544,0,81,-11,45,-17,-4,5,-43,-22
1490984163544,0,76,-97,22,52,-21,-36,-1,-23
1490984163588,1,49,127,-29,-33,-13,8,-2,83
1490984163588,1,-68,21,-23,-18,-1,17,58,-34
1490984163589,2,-61,18,12,-48,-5,5,-30,-38
1490984163589,2,68,17,3,-97,24,-10,-9,31
1490984163594,0,52,-57,-19,-25,-57,3,5,-28
1490984163594,0,65,49,-21,15,7,2,10,-41
1490984163595,1,-68,112,-128,-21,-7,-15,-21,-59
1490984163595,1,-68,77,84,-21,-6,-6,-22,60
1490984163637,2,70,-85,111,36,4,8,30,43
1490984163637,2,34,-128,-89,23,-21,-15,-35,-65
1490984163638,3,-76,28,54,-17,70,10,25,-26
1490984163638,3,62,71,16,22,-26,8,-14,-49
1490984163639,1,8,21,-128,-66,6,16,5,-27
1490984163639,1,90,-95,69,-22,21,22,7,38
1490984163644,2,97,-72,-31,-10,-40,-1,7,-2
1490984163644,2,-19,75,47,-17,25,23,23,2
1490984163685,3,29,68,70,-19,1,2,-41,3
1490984163685,3,-91,-38,-23,90,30,12,37,55
1490984163687,0,-22,80,-61,31,2,-11,-30,-64
1490984163687,0,-17,-18,38,-89,-27,-17,-12,0
1490984163688,2,-86,-56,62,17,10,7,4,26
1490984163688,2,-128,-80,-123,20,11,16,4,-58
1490984163689,3,127,76,-15,-108,-21,-3,-4,8
1490984163689,3,94,20,20,10,6,10,-3,59
1490984163735,0,-128,-21,30,62,12,1,31,-38
1490984163735,0,36,27,-24,60,10,-3,-20,49
1490984163736,1,4,-29,34,-45,-9,-8,1,-8
1490984163736,1,-47,-54,-88,-51,34,25,8,-33
1490984163738,3,-95,21,-128,-50,32,20,2,-69
1490984163738,3,-13,25,127,27,31,-1,-18,20
1490984163739,0,33,32,-8,-117,-5,5,-9,3
1490984163739,0,127,3,-84,-110,-75,-36,-17,16
1490984163784,1,-74,-4,-96,62,41,1,-3,5
1490984163784,1,-99,-27,1,66,-55,-20,-19,-20
1490984163786,2,98,35,66,127,26,-7,-19,-42
1490984163786,2,-62,7,68,122,1,-7,-16,-7
1490984163787,0,-73,15,-128,15,-8,-9,-7,22
1490984163787,0,-25,9,-128,-98,7,22,30,-27
1490984163788,1,0,-26,116,8,-32,-1,-3,9
1490984163788,1,88,-18,50,-34,11,-15,-31,54
1490984163832,2,62,-22,39,-49,-8,-11,5,-28
1490984163832,2,-82,41,-27,-60,54,30,32,-83
1490984163833,3,102,11,-59,-89,-53,5,3,68
1490984163833,3,14,-36,58,21,16,13,24,0
1490984163834,0,8,-42,105,62,-12,-10,-23,21
1490984163834,0,-86,-49,12,80,-29,1,-10,3
1490984163835,1,48,19,-62,-6,18,-15,-4,-39
1490984163835,1,-35,53,-128,-51,-1,20,42,36
1490984163880,2,16,2,87,-16,36,12,-16,-52
1490984163880,2,117,-65,107,9,-38,-15,-16,51
1490984163882,3,-128,24,28,-9,23,-13,-23,-43
1490984163882,3,118,118,-78,-10,-13,9,5,-25
1490984163883,1,7,-78,99,21,7,-9,13,33
1490984163883,1,-9,19,25,-17,-61,-15,0,-7
1490984163884,2,-32,79,-128,-29,19,12,0,-37
1490984163884,2,-23,42,60,19,67,-11,-11,21
1490984163929,3,-29,-28,-64,5,-42,6,11,12
1490984163929,3,11,-84,-88,-18,-8,9,17,-19
1490984163930,0,29,-11,50,-31,-1,-18,-31,9
1490984163930,0,-8,-4,42,15,17,-13,6,17
1490984163931,2,71,-76,-128,-3,-25,-3,-6,5
1490984163931,2,-52,-42,10,10,6,3,-1,-7
1490984163932,3,7,19,93,0,16,-9,-36,18
1490984163932,3,56,70,-54,-10,12,13,-3,-10
1490984163979,0,-72,70,104,-4,-16,7,-6,-1
1490984163979,0,62,70,81,8,-50,-39,-34,-4
1490984163980,1,19,32,-110,-7,2,-4,5,-10
1490984163980,1,-63,-13,40,1,-1,-2,-15,-18
1490984163981,3,-5,-26,81,1,-10,-28,-37,3
1490984163981,3,-64,-37,-104,-6,-67,5,18,-4
1490984163982,0,-19,8,-79,-8,53,15,1,-29
1490984163982,0,32,-24,16,-1,5,-9,7,16
1490984164031,1,-80,15,79,-7,49,18,-4,-66
1490984164031,1,65,-26,-36,10,36,-14,12,95
1490984164032,2,-23,11,-22,0,-48,3,-10,-17
1490984164032,2,-18,4,8,0,20,21,3,-9
1490984164033,0,-13,88,93,0,-28,-5,25,31
1490984164033,0,-12,127,49,2,57,-10,-21,-15
1490984164034,1,43,49,-27,-14,-128,-29,0,22
1490984164034,1,12,-41,-128,-13,41,28,13,-7
1490984164075,2,15,-58,72,6,-5,-3,-4,7
1490984164075,2,-65,-56,-4,-2,-37,5,7,-49
1490984164077,3,1,-13,102,29,60,46,-8,-6
1490984164077,3,-8,-35,-80,-26,-63,-25,-3,2
1490984164078,1,2,49,94,17,6,-15,-5,20
1490984164078,1,-39,27,127,4,52,-20,-26,-19
1490984164079,2,-5,-24,-9,-26,-36,29,17,-12
1490984164079,2,20,-36,-128,8,-48,31,20,18
1490984164124,3,41,28,40,18,53,26,5,11
1490984164124,3,-32,13,127,12,35,-21,-33,-14
1490984164125,0,-26,4,117,-9,-29,-51,-6,-2
1490984164125,0,72,-8,-111,-34,-36,-8,4,34
1490984164128,2,-23,-7,-11,31,26,6,-16,-33
1490984164128,2,46,18,81,46,83,-48,-9,-8
1490984164129,3,-31,-6,-13,-23,-12,-33,6,19
1490984164129,3,-9,2,-52,-54,-10,-15,1,35
1490984164173,0,9,-5,-56,-19,-14,-18,3,-13
1490984164173,0,-54,10,-60,23,33,5,-29,-8
1490984164174,1,36,3,-42,-22,-110,3,6,-27
1490984164174,1,-23,-5,16,33,-8,-26,-6,-45
1490984164175,2,-37,-21,-96,-5,7,2,-4,-3
1490984164175,2,17,-7,-85,-15,-22,0,2,13
1490984164177,3,8,-4,-127,34,20,5,-11,11
1490984164177,3,9,2,-76,8,-20,-10,-16,-26
1490984164221,0,-1,-3,103,74,2,-27,4,13
1490984164221,0,2,-18,-84,-57,-11,55,17,2
1490984164223,1,-6,-12,-94,-13,16,24,-14,-31
1490984164223,1,10,6,33,-45,57,102,39,45
1490984164223,3,74,106,75,88,93,-107,21,39
1490984164223,3,35,-61,97,-70,-100,-31,37,29
1490984164224,0,-58,-16,-59,-87,-92,127,-1,54
1490984164224,0,-26,58,-128,-61,-99,127,-51,-21
1490984164270,1,-12,19,11,-48,-79,123,6,-37
1490984164270,1,-7,49,-8,37,49,4,-24,-27
1490984164271,2,24,-38,-52,69,87,-31,-2,4
1490984164271,2,23,-55,-42,42,36,-124,-8,1
1490984164271,0,-10,6,-30,-58,-45,46,-44,-6
1490984164271,0,-34,47,109,55,17,97,105,34
1490984164272,1,-5,-22,100,46,-52,127,10,-34
1490984164272,1,-56,-36,-9,-16,27,127,5,10
1490984164319,2,10,-15,-108,-55,50,81,-42,-53
1490984164319,2,25,-24,-92,-10,127,20,-53,-15
1490984164320,3,34,10,64,-48,-122,-47,-26,11
1490984164320,3,-2,68,-6,-19,-128,-95,35,40
1490984164320,1,-17,-73,10,-79,78,-7,18,-7
1490984164320,1,-58,-10,-69,-24,62,28,-21,21
1490984164321,2,-106,-12,-17,-45,64,46,-4,-38
1490984164321,2,-88,-76,-112,-116,54,49,-21,-62
1490984164368,3,-101,8,-128,-128,33,29,-4,-14
1490984164368,3,-3,-3,87,47,60,-71,-56,-37
1490984164368,0,113,-87,-84,-81,32,-1,-2,-25
1490984164368,0,79,-17,-81,-64,5,-20,-4,-28
1490984164369,2,-36,30,-20,84,47,-56,-85,28
1490984164369,2,4,-28,-16,68,50,-109,74,-6
1490984164370,3,57,-27,-128,-29,-104,97,88,-25
1490984164370,3,68,-20,-128,25,78,37,57,7
1490984164417,0,25,-63,-48,54,73,3,-18,-54
1490984164417,0,-39,-60,-96,44,78,55,-118,-32
1490984164418,1,-26,-10,-53,44,127,-60,3,-11
1490984164418,1,-111,-27,74,99,99,40,11,-15
1490984164419,3,95,22,104,5,-82,-102,-82,-104
1490984164419,3,85,108,82,73,79,96,-103,-128
1490984164420,0,-88,119,113,127,32,-128,-81,-15
1490984164420,0,-115,-62,88,-8,-128,-97,127,99
1490984164465,1,60,65,95,19,-127,97,61,127
1490984164465,1,127,68,-67,-128,-128,33,127,127
1490984164466,2,127,-82,-83,-104,-30,127,96,111
1490984164466,2,81,-48,-91,-18,65,90,44,-110
1490984164467,0,-82,-97,-92,57,127,6,-78,-115
1490984164467,0,-28,-24,97,-94,-103,-10,-28,7
1490984164468,1,12,-17,97,-4,-63,12,-8,53
1490984164468,1,66,30,127,-67,-46,-6,-7,83
1490984164515,2,30,31,115,-117,-28,-53,34,20
1490984164515,2,8,-13,20,28,127,-9,-11,0
1490984164516,3,9,26,-2,-95,28,-3,-45,-13
1490984164516,3,-42,20,60,-128,-81,-48,-18,-8
1490984164517,1,-68,10,48,-36,51,8,-33,98
1490984164517,1,1,-66,-55,-6,93,-44,0,-33
1490984164517,2,-14,-28,-14,-10,29,-24,26,-22
1490984164517,2,-36,43,37,25,-50,17,-28,32
1490984164563,3,-18,-24,-20,37,-77,0,-77,-23
1490984164563,3,40,-8,13,-38,-117,2,-51,90
1490984164565,0,-13,-25,46,35,-70,7,15,25
1490984164565,0,-116,38,14,8,-101,38,7,56
1490984164566,1,-56,58,12,90,-112,-20,33,-69
1490984164566,1,-68,78,20,127,-98,-19,-11,-121
1490984164567,2,25,127,114,42,-128,-3,14,-13
1490984164567,2,42,81,108,122,41,-27,-74,-13
1490984164612,3,37,43,107,-15,-30,-57,-22,45
1490984164612,3,-1,-9,45,75,51,-24,-12,5
1490984164613,0,6,-5,30,61,38,-8,-27,9
1490984164613,0,23,14,-8,-73,-88,23,-30,64
1490984164614,2,-1,0,8,20,19,-5,12,12
1490984164614,2,13,14,-52,-85,-69,0,7,19
1490984164616,3,0,-8,-30,23,116,-15,12,-7
1490984164616,3,11,-4,-2,-34,-75,-12,-16,31
1490984164660,0,-9,-7,-5,-11,20,8,-2,-18
1490984164660,0,8,1,-24,20,67,-3,-22,-3
1490984164662,1,21,-10,-42,-40,19,-18,-12,12
1490984164662,1,-9,-23,-22,-25,-62,4,-45,6
1490984164663,3,1,-19,-18,2,34,3,-10,-15
1490984164663,3,-11,-21,-24,-3,52,3,42,-9
1490984164663,0,0,2,-28,-16,-37,-1,-4,-13
1490984164663,0,-2,11,8,2,12,-2,-1,-16
1490984164709,1,-14,-21,-3,20,29,-15,2,-2
1490984164709,1,-2,-3,-11,38,94,-5,-8,5
1490984164710,2,-2,-16,-20,-3,-35,-1,1,18
1490984164710,2,-1,3,28,32,35,4,6,15
1490984164711,0,-20,-15,-19,21,38,-6,-27,-22
1490984164711,0,-1,2,8,13,29,-28,-21,-7
1490984164712,1,22,20,29,-13,-8,9,-24,7
1490984164712,1,-24,-9,-15,-15,-9,12,9,-3
1490984164758,2,11,5,-31,-36,-15,10,19,37
1490984164758,2,1,18,23,17,14,6,7,-14
1490984164759,3,-8,-29,6,-24,30,-13,-7,10
1490984164759,3,30,-2,6,-34,-18,6,-2,17
1490984164760,1,2,22,-30,-1,46,8,-8,-15
1490984164760,1,-2,30,11,7,3,13,6,-2
1490984164761,2,-4,22,-12,-5,28,3,12,2
1490984164761,2,3,-3,-5,34,12,9,12,-6
1490984164806,3,-25,-12,6,41,-6,-4,32,-11
1490984164806,3,13,17,-1,7,3,-28,-14,-10
1490984164808,0,0,9,14,0,-24,22,7,0
1490984164808,0,-4,-22,-46,-7,44,-12,-6,-11
1490984164809,2,3,2,74,17,-8,-17,-17,-32
1490984164809,2,9,26,16,-15,-11,-8,1,-11
1490984164810,3,23,-11,-71,-7,3,3,18,52
1490984164810,3,-18,-8,20,5,9,-19,-1,-4
1490984164855,0,-5,-47,-64,-4,20,-9,3,0
1490984164855,0,7,1,70,64,-2,-16,-12,8
1490984164857,1,-34,-18,59,18,30,-3,-19,-72
1490984164857,1,16,-28,-70,-75,-55,15,22,53
1490984164858,3,19,-12,2,41,14,-5,7,43
1490984164858,3,16,-23,13,32,1,8,-24,-10
1490984164859,0,-20,32,43,-18,-32,-3,5,-33
1490984164859,0,3,14,-36,-31,17,19,14,40
1490984164906,1,-14,5,17,11,-21,6,-20,-1
1490984164906,1,23,2,-21,7,-11,-11,-28,-14
1490984164908,2,-12,-81,53,56,4,-15,6,-45
1490984164908,2,0,-1,-73,-46,-26,5,11,-5
1490984164909,3,3,-43,7,-3,20,27,14,50
1490984164909,3,1,7,27,58,24,2,-6,9
1490984164910,0,22,65,23,-36,-32,-2,-39,-12
1490984164910,0,-22,-31,-47,31,50,10,-13,5
1490984164953,1,39,26,31,49,-38,-5,0,-19
1490984164953,1,1,-30,58,82,34,7,10,17
1490984164955,2,-15,-108,67,10,7,-1,-15,12
1490984164955,2,0,-91,-21,-97,-9,5,18,-9
1490984164956,0,36,127,-128,-53,31,14,13,37
1490984164956,0,-34,96,67,28,20,1,12,21
1490984164957,1,-2,-11,39,-27,-32,-13,-14,-28
1490984164957,1,-25,4,-30,-32,4,-9,-4,-22
1490984165002,2,-5,-119,8,-92,-13,-8,31,33
1490984165002,2,37,-33,-39,-14,-23,-8,-44,-5
1490984165003,3,4,-4,80,-24,-10,-14,-15,-8
1490984165003,3,-38,30,-89,-128,10,12,14,-3
1490984165005,1,-11,127,103,84,-8,-27,-16,-25
1490984165005,1,-81,86,-97,91,-115,-21,8,-77
1490984165006,2,-37,12,-128,127,-16,-2,-5,-32
1490984165006,2,13,-125,98,127,24,13,-5,-16
1490984165051,3,39,-113,-19,86,77,39,22,60
1490984165051,3,57,-98,127,69,48,64,2,76
1490984165052,0,-4,62,107,25,20,-20,1,6
1490984165052,0,-1,125,-76,-96,-30,-17,16,-26
1490984165053,2,-41,18,18,-64,-25,-26,0,-50
1490984165053,2,31,-11,93,-28,-19,-20,-3,1
1490984165054,3,7,-100,48,8,-1,11,-18,6
1490984165054,3,3,-128,-95,15,34,29,8,31
1490984165099,0,34,-128,6,20,50,64,3,63
1490984165099,0,47,-127,27,84,17,22,8,57
1490984165101,1,27,-50,5,94,48,54,8,36
1490984165101,1,2,18,114,110,36,30,-6,47
1490984165102,3,0,127,-9,-128,-13,-102,-7,-15
1490984165102,3,2,111,-88,-83,-111,-127,-23,-64
1490984165103,0,-109,43,-54,92,-107,-68,-30,-94
1490984165103,0,-106,-21,-63,127,-114,-2,-17,-128
1490984165148,1,64,-82,-117,118,-25,95,17,30
1490984165148,1,-22,-128,16,-4,102,110,29,98
1490984165149,2,25,-128,57,-39,127,93,6,113
1490984165149,2,46,-76,127,-94,55,23,-46,43
1490984165151,0,-41,117,-119,-96,-43,-124,-16,-67
1490984165151,0,-123,127,38,-60,-89,-107,-5,-61
1490984165152,1,44,15,-121,-61,-115,-30,-1,-19
1490984165152,1,122,-58,43,16,-24,33,-1,0
1490984165197,2,-34,-121,-2,43,60,124,20,54
1490984165197,2,65,-58,98,66,95,77,21,72
1490984165199,3,-80,-14,94,59,114,13,-15,-2
1490984165199,3,46,-42,-81,5,-96,16,10,29
1490984165200,1,-28,-7,45,-1,110,10,0,-20
1490984165200,1,-128,-29,115,5,127,7,-7,-40
1490984165201,2,3,-3,-98,-28,-19,-17,0,-10
1490984165201,2,53,22,-87,-13,-113,-41,0,-29
1490984165247,3,36,101,-76,-5,-128,-80,-18,-74
1490984165247,3,-24,58,14,17,-128,-10,-15,-30
1490984165248,0,49,24,-98,-30,-80,14,4,2
1490984165248,0,-9,-49,45,30,-81,109,20,76
1490984165250,1,99,-64,75,103,-128,35,7,108
1490984165250,1,45,-108,127,71,78,27,1,57
1490984165251,2,2,-26,32,4,124,44,-6,56
1490984165251,2,-2,27,-93,-39,-48,-12,-8,-40
1490984165297,3,-128,53,-123,-102,-83,-35,-16,-63
1490984165297,3,-84,54,-128,-54,46,-67,-13,-98
1490984165298,0,-104,-4,-53,-66,121,-56,-15,-85
1490984165298,0,-128,-92,-72,-41,127,39,12,-1
1490984165299,2,127,116,92,104,-128,-121,-25,44
1490984165299,2,127,101,66,95,-128,-34,-10,102
1490984165301,3,-113,-20,77,78,88,55,3,5
1490984165301,3,-104,-77,70,-55,53,120,15,-40
1490984165343,0,-128,-67,-40,-87,22,91,8,-56
1490984165343,0,48,-13,-124,-95,105,30,8,-111
1490984165344,1,95,50,-63,-75,13,-47,-3,-51
1490984165344,1,127,39,-81,-25,-113,-44,-2,-37
1490984165345,3,-87,-4,69,-16,127,-30,6,16
1490984165345,3,-76,-6,99,89,127,-12,11,38
1490984165347,0,-45,23,127,127,95,51,8,-16
1490984165347,0,31,-20,-73,20,-103,21,-6,-16
1490984165392,1,-40,45,-120,-118,-107,59,-5,-56
1490984165392,1,14,-10,43,-95,-128,-14,5,76
1490984165394,2,-90,27,104,86,-128,-26,-3,120
1490984165394,2,-89,-4,127,127,114,52,-5,50
1490984165395,0,127,2,-114,31,-76,-13,5,-113
1490984165395,0,-90,23,-61,101,-128,-27,3,-79
1490984165396,1,-79,-30,-34,127,-128,3,10,127
1490984165396,1,-92,-52,-10,127,-26,-12,-3,81
1490984165440,2,-107,-31,-73,79,127,-19,-14,-30
1490984165440,2,-21,-9,-99,112,106,-43,-18,-96
1490984165442,3,-116,10,-33,66,127,-63,-13,-94
1490984165442,3,-105,-18,-47,-9,0,36,15,-102
1490984165444,1,-30,87,59,-119,-128,11,-8,89
1490984165444,1,81,100,-1,-105,-113,31,-4,96
1490984165445,2,125,52,107,-128,-122,28,-8,-17
1490984165445,2,127,-52,38,-89,-128,14,3,17
1490984165489,3,121,-42,33,-72,-125,0,8,83
1490984165489,3,91,50,-62,-96,-128,-32,7,57
1490984165491,0,-23,28,-16,-128,-83,-68,-20,26
1490984165491,0,-84,-21,33,-128,32,-48,31,-38
1490984165492,2,-92,35,-128,120,127,6,-15,-106
1490984165492,2,-94,30,-126,118,-94,-32,-11,-97
1490984165493,3,-121,-34,-50,-58,-123,-13,-11,21
1490984165493,3,83,-39,-95,-101,63,36,-25,-22
1490984165587,0,127,96,-95,-128,103,58,23,-20
1490984165587,0,127,127,12,-128,127,-32,-2,-46
1490984165589,1,-73,35,94,-104,-65,-28,28,-15
1490984165589,1,-128,-48,127,-55,-128,-17,8,44
1490984165590,3,-64,-31,106,127,-99,5,13,-111
1490984165590,3,-107,-39,116,125,-114,-27,-6,-91
1490984165591,0,-128,-48,61,109,-128,-24,11,-114
1490984165591,0,-46,-45,109,118,-46,-23,-9,-72
1490984165636,1,83,-28,65,76,126,5,-29,-64
1490984165636,1,-128,-89,127,-27,114,17,-9,-76
1490984165638,2,-46,28,75,-116,127,-5,-4,-26
1490984165638,2,50,65,-115,-128,100,6,-6,73
1490984165639,0,-101,-128,44,99,-108,10,-3,127
1490984165639,0,-90,18,91,13,-116,-3,-3,88
1490984165640,0,-37,-80,-91,63,-83,2,4,22
1490984165640,0,2,-128,-128,69,-96,2,6,89
1490984165684,1,44,-100,-111,-53,-128,1,-1,99
1490984165684,1,38,-61,-79,-72,-128,11,7,81
1490984165686,2,127,92,-22,-128,-85,4,-5,100
1490984165686,2,0,125,101,-128,-52,-1,5,17
1490984165687,1,-43,-38,-44,113,40,3,-6,-34
1490984165687,1,-6,-8,-24,127,38,-11,-7,-43
1490984165688,2,-51,-32,-8,122,26,-3,-3,-9
1490984165688,2,41,-5,-8,-100,-1,-2,-7,-16
1490984165734,3,60,4,-42,-125,-5,0,4,41
1490984165734,3,81,33,-70,-128,-16,2,5,60
1490984165736,0,-3,3,-100,-111,9,5,2,27
1490984165736,0,3,-19,-106,-45,41,4,4,26
1490984165737,2,-64,-19,-98,12,37,2,0,23
1490984165737,2,71,-13,-71,-10,16,2,-1,14
1490984165738,3,-48,16,28,38,5,-6,-2,9
1490984165738,3,-68,32,19,40,7,2,-6,-60
1490984165782,0,10,0,-6,-14,-6,-8,4,-10
1490984165782,0,48,-12,11,-24,-6,-3,-7,29
1490984165784,1,37,-2,34,26,-14,-7,-5,-18
1490984165784,1,-95,0,52,33,2,-1,1,-25
1490984165785,3,23,-23,26,-20,8,4,-1,-17
1490984165785,3,-5,9,16,-9,-12,0,-1,15
1490984165786,0,69,-7,46,-15,-11,-3,-3,-29
1490984165786,0,-5,6,-33,-10,-7,4,-7,-2
1490984165831,1,-58,-10,40,1,12,0,-4,-13
1490984165831,1,-6,-3,-28,-6,-13,1,4,21
1490984165832,2,-3,4,38,26,26,7,1,1
1490984165832,2,46,13,50,10,-8,4,-13,-14
1490984165833,0,-2,2,-18,-7,-7,-1,-5,21
1490984165833,0,-84,-32,2,25,26,1,-1,-36
1490984165834,1,34,-6,-15,-64,-24,-4,-8,40
1490984165834,1,-88,0,92,72,21,1,1,-59
1490984165879,2,19,-4,9,8,21,6,-2,0
1490984165879,2,59,4,3,-9,-20,-2,-6,-7
1490984165881,3,-11,-22,13,19,0,1,5,12
1490984165881,3,-17,-1,74,-11,-10,1,-6,10
1490984165882,1,9,5,10,-26,-18,3,1,28
1490984165882,1,101,10,12,-17,-23,-4,-1,39
1490984165883,2,-128,-15,87,38,24,12,14,-78
1490984165883,2,-9,17,60,8,6,-4,-7,-26
1490984165928,3,70,-27,-103,3,2,1,7,28
1490984165928,3,22,-1,-20,-32,-17,-5,9,-11
1490984165929,0,15,9,92,11,18,-4,2,38
1490984165929,0,-100,-1,-47,58,24,8,3,-13
1490984165931,2,108,-7,-70,25,-14,-1,-5,18
1490984165931,2,-120,22,60,-3,1,8,6,-30
1490984165932,3,70,-27,105,11,20,5,0,-8
1490984165932,3,54,13,-108,28,-18,-8,-10,-18
1490984165977,0,-91,3,30,-44,19,2,8,24
1490984165977,0,70,-8,-3,-59,-18,-12,-11,24
1490984165978,1,-17,-12,-32,39,11,0,5,-20
1490984165978,1,-28,49,111,-4,-21,-4,-9,-1
1490984165979,2,-45,-33,-65,24,-5,-4,10,-4
1490984165979,2,55,4,17,31,25,1,-8,-18
1490984165980,3,-54,26,-36,-74,13,15,8,15
1490984165980,3,-124,-30,45,77,41,4,-2,-36
1490984166074,0,74,57,0,-71,-63,-24,-22,-26
1490984166074,0,15,-36,-15,-21,-5,2,13,56
1490984166076,1,69,25,27,-2,0,-9,-15,38
1490984166076,1,-104,3,67,99,11,-2,-4,-31
1490984166077,3,51,33,26,-14,-19,1,-4,44
1490984166077,3,37,1,-59,-60,8,7,0,-22
1490984166078,0,-74,-18,93,64,-12,-5,-8,-21
1490984166078,0,77,-23,-92,-4,2,1,13,47
1490984166123,1,-54,23,64,-50,21,8,-13,-47
1490984166123,1,109,-20,21,4,-36,11,5,35
1490984166126,2,-25,-12,-111,-7,-4,-2,-5,-14
1490984166126,2,20,8,71,-128,-25,3,22,4
1490984166127,0,-50,21,32,-33,21,5,1,1
1490984166127,0,-14,-15,11,63,-6,-3,-6,2
1490984166128,1,-75,-9,-11,22,-8,3,-2,-29
1490984166128,1,-99,-4,105,20,12,3,3,-45
1490984166172,2,39,-53,-10,82,27,-10,-6,27
1490984166172,2,96,70,-65,-128,-73,-3,-16,24
1490984166174,3,-65,-55,47,-28,-8,2,38,51
1490984166174,3,-21,26,-80,43,-5,-8,-17,10
1490984166175,2,54,12,127,-43,68,11,-8,11
1490984166175,2,-128,16,34,79,-49,-8,-24,-81
1490984166177,3,43,-17,-58,-14,33,-3,16,-53
1490984166177,3,122,28,25,-48,20,6,-13,89
1490984166221,0,-97,-19,-106,27,-37,3,4,-2
1490984166221,0,-73,-31,107,51,33,-5,-7,-31
1490984166223,1,-24,5,-35,-17,23,-3,0,-19
1490984166223,1,36,36,63,18,18,7,1,-16
1490984166224,3,80,50,-96,-10,1,1,-5,61
1490984166224,3,-108,-91,16,55,54,8,23,26
1490984166225,0,-21,112,91,-25,-14,-15,-34,-70
1490984166225,0,115,-52,-11,-12,-22,-2,5,77
1490984166269,1,91,-4,-11,-49,8,-10,0,68
1490984166269,1,-45,34,-5,65,19,16,-6,-44
1490984166271,2,65,69,16,-27,-42,-8,1,16
1490984166271,2,-31,-100,-63,-35,30,9,8,-18
1490984166272,0,-128,-128,-18,41,22,12,26,2
1490984166272,0,99,82,-115,-75,-37,-4,-17,45
1490984166273,1,74,65,104,-125,-45,-3,-10,-25
1490984166273,1,-98,-2,19,80,-33,-19,-8,-35
1490984166318,2,3,15,-35,7,9,-2,-4,2
1490984166318,2,98,-41,-94,-90,-10,-7,5,8
1490984166320,3,-117,20,17,72,81,4,-5,50
1490984166320,3,38,34,43,-9,-7,9,-15,-126
1490984166321,0,50,52,6,-32,2,-11,-9,-2
1490984166321,0,-17,-94,-46,-7,55,9,28,83
1490984166323,1,-50,-95,9,-10,-39,6,-14,-24
1490984166323,1,2,2,-111,-22,4,0,13,54
1490984166367,2,-40,63,119,-14,9,12,15,-34
1490984166367,2,29,25,-75,73,-40,-1,-14,13
1490984166369,3,31,-93,-73,-15,30,-8,12,10
1490984166369,3,-39,-12,94,-10,23,21,2,-41
1490984166370,1,53,5,-15,-75,11,16,8,23
1490984166370,1,61,0,-4,7,-28,-4,-11,42
1490984166371,2,-10,0,-65,17,14,-5,8,-28
1490984166371,2,-72,43,49,-26,-29,-23,-9,-5
1490984166416,3,-40,-80,-65,108,-3,-6,-11,-31
1490984166416,3,127,20,-128,-123,-9,3,2,21
1490984166418,0,-128,-68,127,53,109,18,1,-29
1490984166418,0,109,60,40,-22,-73,-11,12,18
1490984166419,2,68,29,111,-30,-9,-9,-5,18
1490984166419,2,-101,32,-26,88,-32,-23,-30,-118
1490984166420,3,44,-79,-50,-94,6,17,39,77
1490984166420,3,-53,38,76,-2,57,12,12,39
1490984166464,0,61,90,62,-75,-4,22,-10,29
1490984166464,0,-12,-84,-53,-104,35,13,2,-35
1490984166467,1,91,112,3,-84,-12,-7,3,1
1490984166467,1,53,31,-11,39,-10,-4,-17,46
1490984166468,3,-26,-47,-41,127,0,-5,-4,-77
1490984166468,3,24,43,-122,-15,-48,-11,-4,-65
1490984166469,0,8,14,114,13,-5,-7,-3,51
1490984166469,0,-15,-80,-39,-5,63,0,-4,-9
1490984166513,1,-81,71,-43,-128,-17,11,23,17
1490984166513,1,52,10,97,-72,87,16,-7,58
1490984166516,2,109,20,29,-24,-50,-17,-24,-51
1490984166516,2,-19,-44,-50,80,7,22,25,15
1490984166517,0,17,36,47,6,-15,-17,-13,-24
1490984166517,0,-38,-46,-29,-67,35,2,-8,-19
1490984166518,1,48,-51,1,-1,-71,-29,-7,27
1490984166518,1,-60,-32,-128,-34,23,25,21,24
1490984166562,2,-35,25,17,-54,16,-12,-8,6
1490984166562,2,-31,102,16,-29,5,4,-10,-21
1490984166564,3,-59,-19,-42,-8,-8,5,-9,-51
1490984166564,3,67,1,-62,-29,-64,-33,-23,3
1490984166565,1,-62,23,111,2,-28,-26,-13,-35
1490984166565,1,20,-9,-9,-26,11,-4,-1,-47
1490984166566,2,73,-3,-128,14,-59,-13,-4,-2
1490984166566,2,-55,-12,-47,4,17,-1,-4,50
1490984166611,3,24,52,127,-14,10,10,-1,-30
1490984166611,3,-48,-86,20,-12,55,-16,4,5
1490984166613,0,2,4,69,6,-51,1,-10,3
1490984166613,0,16,37,-46,-12,-51,-6,7,9
1490984166614,2,9,-27,-20,13,38,16,15,37
1490984166614,2,116,33,127,-11,-2,1,-2,-17
1490984166614,3,78,61,-111,11,-7,-4,-9,48
1490984166614,3,-81,22,110,-6,-46,-22,2,-25
1490984166659,0,17,-24,13,-6,61,16,19,2
1490984166659,0,36,9,-20,2,-28,-9,1,-24
1490984166661,1,20,-1,-20,2,26,-1,-10,27
1490984166661,1,107,13,63,-6,-19,-9,-9,7
1490984166662,2,-54,13,33,-3,-8,28,22,6
1490984166662,2,-67,57,116,-1,35,9,-11,-45
1490984166663,3,-21,-46,-67,1,2,-1,7,10
1490984166663,3,51,3,-118,-5,-65,9,3,32
1490984166708,0,-74,-95,-56,-2,21,13,10,7
1490984166708,0,62,-34,111,-1,-8,-12,-22,28
1490984166709,1,-75,3,70,-7,49,19,1,-32
1490984166709,1,-27,63,-48,-3,-27,-7,-4,-13
1490984166711,3,-102,-5,127,-4,-6,-8,-19,-80
1490984166711,3,38,-30,5,0,27,-12,-2,-10
1490984166712,0,-40,-46,-40,7,1,10,-1,34
1490984166712,0,15,1,-75,3,-23,-8,-4,11
1490984166756,1,-41,-22,-33,-5,55,-6,-8,-58
1490984166756,1,50,-10,91,5,-3,21,-2,37
1490984166758,2,22,1,2,3,-66,-28,-4,-5
1490984166758,2,9,-10,-113,6,4,24,11,37
1490984166806,0,10,36,-122,-4,-4,-18,8,-18
1490984166806,0,25,127,112,5,25,30,6,60
1490984166808,1,-25,126,17,-12,-128,3,4,8
1490984166808,1,-10,96,-17,-9,19,30,9,6
1490984166809,2,47,33,70,-1,-10,-13,-14,-30
1490984166809,2,-59,-52,66,-15,-36,-32,-5,-55
1490984166810,3,-24,-95,-128,-3,-10,27,23,46
1490984166810,3,-16,-67,-22,20,61,12,4,56
1490984166854,1,17,-3,-31,10,78,12,-12,11
1490984166854,1,-7,3,-10,-8,-78,7,-3,-9
1490984166855,2,14,18,-58,3,-8,39,18,31
1490984166855,2,6,13,127,-1,-49,-9,-6,-10
1490984166855,3,7,-22,-44,-23,34,-6,0,-30
1490984166855,3,-5,9,-38,2,98,11,0,-10
1490984166856,2,-41,76,17,24,15,-34,-7,-18
1490984166856,2,-69,37,106,-11,-4,-23,-4,-34
1490984166903,3,24,-6,42,3,-38,14,13,-4
1490984166903,3,-16,-34,-30,29,20,4,2,33
1490984166903,0,29,-4,106,9,27,17,1,-5
1490984166903,0,-8,-3,13,22,70,22,15,18
1490984166904,3,33,12,79,2,-35,23,2,7
1490984166904,3,-41,22,127,-10,-48,-28,-4,-25
1490984166908,0,-8,-24,-128,-43,-9,-4,2,7
1490984166908,0,-15,-11,-51,50,71,5,-5,-27
1490984166951,1,7,2,70,34,-20,-28,5,22
1490984166951,1,43,24,-85,-25,-104,31,3,37
1490984166956,2,-29,-1,-68,-4,29,-69,-19,-29
1490984166956,2,-21,-11,-125,26,55,-105,-89,-26
1490984166957,0,-57,-50,39,-63,-128,44,13,-55
1490984166957,0,-20,-22,-106,-8,-91,35,4,-25
1490984166958,1,-14,8,-128,-66,99,13,-34,-32
1490984166958,1,29,25,4,22,112,8,-4,19
1490984167000,2,-3,22,98,79,127,-74,6,48
1490984167000,2,22,19,120,86,32,-102,18,105
1490984167002,3,-12,53,48,9,-74,-8,-13,97
1490984167002,3,-21,-26,-12,32,8,75,11,-17
1490984167003,1,92,-69,-15,5,-28,1,-12,-83
1490984167003,1,1,-33,-103,-28,-85,-8,-3,-8
1490984167004,2,127,-42,-128,-97,-72,35,-12,-30
1490984167004,2,28,11,-25,-25,68,49,9,-52
1490984167049,3,-76,13,60,-24,-34,92,5,-15
1490984167049,3,-20,-16,7,73,-101,-34,-15,-8
1490984167057,0,-75,54,98,126,-88,-92,-21,113
1490984167057,0,28,76,122,78,-128,-87,-23,118
1490984167058,1,127,127,54,100,-26,-113,42,127
1490984167058,1,119,89,89,-44,86,-24,34,72
1490984167058,2,99,-61,-75,-107,81,44,-14,-90
1490984167058,2,-76,-117,-128,-128,92,39,-31,-123
1490984167098,3,-115,-101,-128,-128,101,43,-48,-128
1490984167098,3,-128,4,105,38,17,-79,8,20
1490984167099,0,-70,-16,108,58,27,-1,11,34
1490984167099,0,76,-60,67,-76,42,-37,17,-21
1490984167100,2,-76,118,73,100,127,13,-100,100
1490984167100,2,-93,-80,-47,-36,-65,-75,-92,98
1490984167101,3,63,-40,-53,-109,-128,-74,24,127
1490984167101,3,120,-64,-2,-28,-128,47,19,119
1490984167146,0,73,-38,-92,-41,-57,39,31,-100
1490984167146,0,2,-4,-59,-27,122,-21,27,-114
1490984167147,1,-59,-29,-128,-22,-46,-41,-15,-85
1490984167147,1,-58,-69,-76,15,44,-18,-3,-105
1490984167148,3,50,65,112,113,-107,21,-9,51
1490984167148,3,77,70,15,25,-43,-53,-18,22
1490984167149,0,32,10,-104,-89,26,-78,26,-66
1490984167149,0,-3,-48,-128,-101,105,47,46,-128
1490984167195,1,-63,-51,-83,-74,118,77,12,25
1490984167195,1,7,-90,-109,-21,56,0,-10,11
1490984167196,2,63,-79,-83,-121,29,10,10,19
1490984167196,2,37,-64,-117,53,120,27,22,1
1490984167197,0,50,11,61,-60,-105,-21,24,-16
1490984167197,0,-22,114,127,-54,-128,1,48,72
1490984167200,1,-1,59,127,-116,-116,-39,-12,121
1490984167200,1,46,-22,43,29,127,-77,-16,-30
1490984167293,2,27,6,25,76,76,-40,-30,-59
1490984167293,2,-13,-35,13,123,90,26,-1,-105
1490984167296,3,-121,-61,-65,122,127,14,-36,-53
1490984167296,3,-48,-34,-32,13,-6,-16,14,-100
1490984167298,1,48,-29,-38,-117,98,11,13,48
1490984167298,1,33,-54,-102,-128,123,-2,-16,25
1490984167299,2,28,-61,-100,-128,23,-40,23,-20
1490984167299,2,24,-2,-6,-128,-126,-16,27,16
1490984167342,3,-13,-14,72,-26,-88,53,38,-34
1490984167342,3,-128,-22,81,-44,-127,40,13,127
1490984167343,0,-84,38,31,47,-128,22,28,30
1490984167343,0,-27,120,65,125,-113,17,26,-89
1490984167344,2,62,81,119,43,-112,-48,-32,49
1490984167344,2,16,15,94,71,-113,-26,-14,78
1490984167345,3,-17,-21,-49,-20,72,-14,4,12
1490984167345,3,4,7,-3,-41,-57,7,3,25
1490984167391,0,-1,-15,-27,-12,-10,17,11,0
1490984167391,0,-13,-10,-27,-12,72,13,-1,-3
1490984167393,1,-19,-11,-6,-4,49,7,-7,-26
1490984167393,1,8,2,-30,-30,0,-2,-9,-10
1490984167394,3,0,-14,-24,12,71,-9,-3,-8
1490984167394,3,-13,-13,13,46,75,-1,-50,-50
1490984167394,0,-8,-32,-41,-19,12,8,34,14
1490984167394,0,-1,9,-29,-19,-11,9,1,21
1490984167439,1,15,3,1,13,44,10,13,5
1490984167439,1,-12,5,-14,-8,-14,15,24,19
1490984167441,2,-9,-5,24,32,65,14,-2,-33
1490984167441,2,1,9,41,-25,-31,-10,11,-13
1490984167442,0,14,9,-12,-25,-59,-3,-2,36
1490984167442,0,0,20,43,10,18,0,-2,-26
1490984167443,1,-21,-19,13,24,-2,-6,-19,3
1490984167443,1,-8,-6,-9,0,25,3,-11,-3
1490984167488,2,-1,3,-13,10,22,-19,8,0
1490984167488,2,3,10,35,-1,-3,0,-7,-12
1490984167489,3,-4,23,12,2,-40,3,3,12
1490984167489,3,1,3,-2,1,31,2,-12,-21
1490984167491,1,6,-3,6,14,-17,2,15,29
1490984167491,1,6,1,20,4,-20,-11,0,16
1490984167491,2,11,13,10,-44,-58,9,-40,16
1490984167491,2,0,7,0,12,13,12,-2,-6
1490984167537,3,6,0,-10,-14,2,7,-6,6
1490984167537,3,-6,13,-19,-11,-2,-6,9,-29
1490984167538,0,3,-7,-2,-2,-18,-16,-1,13
1490984167538,0,-7,16,24,-8,-22,-17,-1,-14
1490984167539,2,-13,-1,-14,-2,34,-13,1,-3
1490984167539,2,35,-2,36,-14,-11,-7,5,3
1490984167540,3,-43,-20,9,34,13,5,-10,-52
1490984167540,3,31,8,-8,-42,-77,25,3,38
1490984167585,0,21,0,21,32,7,3,10,9
1490984167585,0,-21,-2,-2,39,35,-6,-1,-20
1490984167587,1,3,20,-1,-18,-9,-15,8,-7
1490984167587,1,-42,-43,42,6,-6,-4,-6,-30
1490984167588,3,-11,-34,29,18,18,0,-22,-14
1490984167588,3,-4,12,-90,-15,-19,0,-7,36
1490984167589,0,21,-2,29,0,24,-5,-9,-19
1490984167589,0,17,30,17,-10,-14,8,-7,26
1490984167634,1,-18,-7,73,45,-7,-1,1,-21
1490984167634,1,0,-54,41,52,36,-2,-20,-19
1490984167635,2,-7,-13,28,-6,-12,8,4,-19
1490984167635,2,-14,-29,-128,-27,49,-1,18,37
1490984167636,0,-12,19,27,26,-6,-2,-4,-3
1490984167636,0,20,-13,25,13,-5,7,-65,17
1490984167637,1,41,-6,-33,-3,-22,-6,57,45
1490984167637,1,-12,-51,17,70,64,-5,32,-16
1490984167683,2,-18,-10,39,-42,-27,4,-33,2
1490984167683,2,7,-13,15,-64,-26,-3,37,17
1490984167684,3,27,-6,-77,15,-8,1,-37,20
1490984167684,3,43,-27,-30,-23,10,9,9,52
1490984167685,1,7,-64,26,-17,32,13,-15,25
1490984167685,1,-1,-114,-31,-28,-2,-4,12,0
1490984167686,2,-20,31,-36,-65,-6,-1,-10,-41
1490984167686,2,5,23,25,13,45,-10,-5,-1
1490984167733,3,36,126,-53,-115,-75,-11,-23,-18
1490984167733,3,-72,127,-60,-128,-10,-8,-8,-69
1490984167734,0,-33,48,-92,-118,-28,2,12,-2
1490984167734,0,24,-12,25,-128,11,10,-3,22
1490984167735,1,7,37,66,-55,37,8,-6,43
1490984167735,1,85,2,91,29,26,-7,-1,82
1490984167736,2,-53,-95,17,105,-65,-24,-4,-100
1490984167736,2,-77,86,-128,127,-108,-33,-41,-128
1490984167780,3,-99,74,-78,127,-57,-35,0,-126
1490984167780,3,-52,127,27,34,-123,-34,-23,-110
1490984167782,0,-4,73,-84,-17,6,-12,2,-33
1490984167782,0,30,-72,-119,-56,9,6,18,61
1490984167783,2,50,-9,120,3,63,16,5,78
1490984167783,2,53,31,126,-24,37,-12,6,-9
1490984167784,3,-76,46,82,-17,-21,-15,-4,-81
1490984167784,3,10,46,-124,-15,0,9,2,21
1490984167829,0,40,-5,-17,-11,-10,13,-1,53
1490984167829,0,-14,-32,50,42,15,21,8,45
1490984167830,1,-10,-33,102,41,-8,11,-5,-50
1490984167830,1,-4,-26,-73,7,9,-27,-14,-54
1490984167831,3,-48,-47,74,-41,30,67,8,5
1490984167831,3,-39,-33,43,12,3,15,-2,-12
1490984167832,0,47,-21,-40,16,35,-15,3,38
1490984167832,0,2,14,92,14,11,-57,7,23
1490984167878,1,-19,45,-117,59,-30,-44,-10,-7
1490984167878,1,-6,59,-121,14,-70,-34,-4,-2
1490984167879,2,-46,27,123,27,-75,-93,-4,-128
1490984167879,2,-39,-21,-128,25,-91,-55,-3,-93
1490984167881,0,27,4,48,2,49,59,4,30
1490984167881,0,-76,-29,76,-9,104,40,9,2
1490984167882,1,66,-47,-52,-22,81,13,-3,53
1490984167882,1,42,-32,110,-18,32,30,-1,42
1490984167976,2,-51,19,14,-20,-12,-3,-7,20
1490984167976,2,3,-23,9,-4,-80,-60,-2,-13
1490984167978,3,-3,-89,-44,2,-109,-57,6,-29
1490984167978,3,-7,-31,-116,-4,-10,-26,7,11
1490984167979,1,-5,119,-16,2,16,1,-4,-29
1490984167979,1,-87,79,92,-19,-71,-26,-7,-55
1490984167980,2,-64,-37,-124,6,6,33,0,-11
1490984167980,2,58,-30,18,-2,45,73,2,33
1490984168024,3,46,-58,77,-1,55,54,6,79
1490984168024,3,-11,-37,91,6,35,-31,4,4
1490984168025,0,91,-27,-3,2,-9,-56,1,39
1490984168025,0,47,-23,-66,3,-74,-94,-3,36
1490984168026,2,-128,-30,39,-13,93,18,-1,-107
1490984168026,2,47,-8,-128,-13,124,19,4,-7
1490984168027,3,-96,-64,-37,-50,127,-4,-3,-62
1490984168027,3,68,-52,-116,-33,-32,-2,-6,-69
1490984168073,0,-105,7,76,67,-128,-6,8,120
1490984168073,0,80,-66,67,33,-99,-33,1,70
1490984168074,1,91,120,46,28,91,-24,0,5
1490984168074,1,124,88,82,-37,127,45,-3,-113
1490984168075,3,-37,-14,78,28,-128,-60,-2,127
1490984168075,3,-89,-27,76,27,67,36,0,-38
1490984168076,0,-62,-30,-85,-20,122,1,0,-86
1490984168076,0,-128,-62,15,18,127,52,-3,-54
1490984168121,1,-125,-128,-50,-70,6,28,-2,-59
1490984168121,1,82,49,-62,-43,-109,-49,-2,-98
1490984168123,2,127,112,-48,-46,-124,-26,-7,10
1490984168123,2,127,107,-79,-1,-128,-63,-5,55
1490984168124,0,-55,-42,120,-23,-55,34,-1,127
1490984168124,0,-60,-5,-58,-101,48,55,1,-22
1490984168125,1,-119,-51,-116,-123,77,70,-2,-122
1490984168125,1,-128,-89,-128,-85,127,62,1,-120
1490984168170,2,30,6,-128,75,127,-6,-1,-112
1490984168170,2,-74,-61,-61,127,127,13,2,-72
1490984168171,3,-77,38,-48,96,121,38,-11,-128
1490984168171,3,-61,-55,-128,0,122,36,-4,-82
1490984168173,1,62,0,-43,-88,-128,1,-3,55
1490984168173,1,-118,43,101,-62,-128,-14,6,127
1490984168174,2,-85,1,124,109,-116,0,-1,127
1490984168174,2,87,-37,46,127,-118,-54,0,65
1490984168219,3,103,54,-68,117,-128,26,-3,-103
1490984168219,3,7,29,-115,-35,-128,30,-10,-41
1490984168220,0,-63,-25,-128,-115,-78,-1,-1,-119
1490984168220,0,-128,32,-76,-128,20,-10,4,-48
1490984168221,2,-88,-30,81,112,127,-29,1,-102
1490984168221,2,-114,-10,127,123,120,-8,-3,-128
1490984168222,3,38,23,54,51,-56,11,-1,-25
1490984168222,3,64,25,9,8,-112,13,-7,38
1490984168268,0,127,70,50,-19,-128,5,-2,127
1490984168268,0,-5,-11,95,-26,-128,37,3,97
1490984168269,1,32,29,77,-99,-112,23,5,125
1490984168269,1,98,-21,124,-2,-128,-14,8,123
1490984168270,3,50,74,-95,-78,113,28,0,-96
1490984168270,3,72,123,-128,-128,127,-10,-4,-128
1490984168270,0,127,79,-119,-128,-63,-4,0,-101
1490984168270,0,127,73,18,32,-99,-7,-4,-75
1490984168316,1,-128,76,40,95,-128,-32,-2,62
1490984168316,1,57,111,89,-90,-128,26,4,109
1490984168318,2,-107,27,60,-23,-85,3,-3,65
1490984168318,2,-112,-77,49,-17,-128,10,7,-85
1490984168318,0,-128,36,98,115,127,-9,1,-125
1490984168318,0,-114,26,114,106,127,-18,-2,-128
1490984168319,1,-105,-81,127,127,127,13,-1,89
1490984168319,1,-1,-120,-83,-67,49,-1,-5,-69
1490984168365,2,113,80,-128,-125,47,-25,-6,-103
1490984168365,2,127,127,-128,-125,47,-21,-5,-125
1490984168366,3,-55,101,-41,-128,29,-4,2,-76
1490984168366,3,-128,-51,100,-115,-97,4,0,122
1490984168368,1,61,-40,10,88,-128,2,-8,127
1490984168368,1,89,107,97,127,-115,13,5,112
1490984168369,2,11,13,11,46,-15,-54,-1,55
1490984168369,2,-109,-98,-53,-111,103,-20,-11,-50
1490984168414,3,-117,-88,-128,-103,124,29,-5,-128
1490984168414,3,-127,-33,-128,66,127,33,1,-128
1490984168416,0,-2,103,-107,91,127,29,3,-92
1490984168416,0,31,125,-76,82,92,23,4,32
1490984168417,2,-21,11,127,127,-108,-19,-2,-74
1490984168417,2,-21,103,127,115,-128,-30,-2,-33
1490984168418,3,-28,127,127,122,-128,-31,1,-108
1490984168418,3,-128,-6,127,82,-89,-12,0,-31
1490984168463,0,-95,-128,87,71,17,24,3,85
1490984168463,0,5,-128,-76,-90,-35,16,-1,63
1490984168465,1,127,38,-97,-97,-58,-1,8,-48
1490984168465,1,55,103,-128,-128,55,-15,1,-61
1490984168466,2,-92,78,-128,-128,43,-2,-2,28
1490984168466,2,-121,-20,-69,-90,6,15,4,120
1490984168469,3,-90,-73,-120,-60,-12,2,2,127
1490984168469,3,40,-46,-128,-50,-5,2,-3,88
1490984168512,0,11,-47,-128,-33,-1,16,0,44
1490984168512,0,17,-16,-18,62,31,6,1,2
1490984168513,1,-4,-15,-85,10,9,-6,-2,-9
1490984168513,1,42,33,-102,5,36,2,-2,5
1490984168514,3,0,7,16,20,23,1,3,-5
1490984168514,3,-35,2,52,-16,9,1,4,23
1490984168515,0,38,-13,34,7,-19,-9,-2,-35
1490984168515,0,33,-6,51,17,-9,-7,-6,-50
1490984168561,1,-78,24,56,40,32,4,3,-45
1490984168561,1,-67,-14,29,3,17,2,-2,2
1490984168562,2,62,6,34,-10,-25,1,-3,-15
1490984168562,2,19,1,9,-28,-13,-5,-1,0
1490984168563,0,80,-7,-3,-60,-22,-4,-3,-17
1490984168563,0,-37,13,38,34,16,6,-2,9
1490984168564,1,58,23,35,13,-3,-4,-2,-15
1490984168564,1,-3,-55,32,28,6,-1,3,26
1490984168609,2,-57,28,-13,28,23,7,-1,-49
1490984168609,2,35,2,-49,-46,0,1,0,4
1490984168611,3,40,1,-9,-49,-8,0,2,44
1490984168611,3,79,27,2,-9,-17,-12,-2,4
1490984168612,1,-128,1,79,31,14,1,-6,-48
1490984168612,1,-50,-26,-23,23,21,15,0,30
1490984168613,2,1,3,-21,31,20,2,0,3
1490984168613,2,17,-8,-48,-12,3,-3,1,9
1490984168658,3,44,29,32,-25,-24,-6,-3,-7
1490984168658,3,-74,-23,-15,-1,9,1,1,-10
1490984168659,0,59,-2,43,-29,-8,3,1,-12
1490984168659,0,-111,7,22,31,19,3,1,25
1490984168661,2,-8,57,1,3,-6,1,0,-33
1490984168661,2,16,-41,48,5,-20,-4,-1,9
1490984168662,3,-62,4,-83,32,15,-4,-3,-34
1490984168662,3,50,-17,-42,-53,2,6,1,72
1490984168707,0,-19,-21,20,-37,14,0,-7,26
1490984168707,0,3,23,14,38,13,-1,-6,-42
1490984168708,1,54,30,98,12,-18,-4,-6,9
1490984168708,1,-40,-19,-11,12,-23,-13,-3,-59
1490984168709,3,22,-38,-88,-1,13,7,-4,52
1490984168709,3,22,22,127,14,22,-12,-1,-71
1490984168711,0,-18,-19,-107,113,-30,-20,-9,-60
1490984168711,0,-128,12,83,-46,2,-5,3,-77
1490984168756,1,59,-9,-99,-79,-21,12,6,59
1490984168756,1,104,20,-113,-36,2,1,1,87
1490984168757,2,14,29,108,-23,3,-6,-4,-9
1490984168757,2,-50,-22,-34,69,0,6,2,-17
1490984168758,0,-78,1,-6,14,4,1,0,-43
1490984168758,0,44,15,26,-29,-2,-2,-8,-50
1490984168759,1,4,61,16,41,2,2,-9,21
1490984168759,1,63,-77,-36,-5,18,12,-2,48
1490984168804,2,38,25,-101,-14,20,13,3,80
1490984168804,2,33,-9,65,-52,-40,-6,-3,-25
1490984168806,3,-60,5,51,-29,-10,-3,-3,-42
1490984168806,3,-102,49,26,28,8,10,1,-84
1490984168808,0,45,-82,-68,-34,25,12,-2,110
1490984168808,0,52,30,68,34,2,-3,-2,15
1490984168809,1,127,-47,-128,-66,-38,-15,0,33
1490984168809,1,-95,20,102,8,19,10,-4,-45
1490984168853,2,36,-42,-25,2,21,1,8,-24
1490984168853,2,-32,28,29,17,-18,1,-2,53
1490984168855,3,-57,-82,-26,45,20,-8,4,-66
1490984168855,3,-6,66,85,-74,-32,-10,-7,-7
1490984168856,1,11,-81,-48,14,-22,-12,3,102
1490984168856,1,-128,30,-18,52,36,21,9,-22
1490984168861,2,123,-21,127,-70,-20,-3,-11,-9
1490984168861,2,-36,54,-58,89,-7,-14,-1,-35
1490984168901,3,7,-65,108,-46,17,9,5,20
1490984168901,3,-74,29,-52,36,7,2,3,-62
1490984168902,0,99,32,1,-49,-24,-12,-10,14
1490984168902,0,-63,-68,82,-17,5,11,3,90
1490984168950,2,37,85,-55,-16,2,18,2,12
1490984168950,2,20,-28,-19,-128,5,-7,3,-15
1490984168951,3,-18,7,26,-6,30,19,1,15
1490984168951,3,77,80,127,12,-55,-19,-10,-19
1490984168952,0,-97,-87,-81,88,-23,-2,6,-3
1490984168952,0,-58,-30,-34,-19,28,2,1,17
1490984168953,1,-14,23,14,-10,-5,9,3,-59
1490984168953,1,5,33,-123,-107,-18,1,-7,22
1490984168999,3,-63,-33,-48,36,69,8,-2,-30
1490984168999,3,127,43,-26,-87,-2,2,-8,86
1490984169000,0,50,5,123,43,-35,-7,-4,-4
1490984169000,0,-50,64,-52,74,-11,-2,-7,-85
1490984169001,1,80,-70,-116,-57,47,12,3,57
1490984169001,1,94,36,27,-82,3,-10,-6,107
1490984169002,0,53,40,22,57,-58,-13,-7,9
1490984169002,0,25,-1,-75,50,3,-10,4,-72
1490984169096,1,11,-71,-28,-67,-2,-14,-2,72
1490984169096,1,76,-5,58,38,-14,-3,1,52
1490984169098,2,-128,112,-26,62,-7,-11,0,-128
1490984169098,2,2,-128,-90,-70,40,8,4,107
1490984169098,1,-41,-84,-53,75,4,-5,-3,-48
1490984169098,1,-30,26,-1,-40,-27,-7,0,36
1490984169099,2,85,71,-15,-94,-15,1,0,-4
1490984169099,2,-83,-60,41,2,69,18,6,67
1490984169145,3,23,125,127,89,-42,-28,-11,-94
1490984169145,3,90,-16,-127,22,-24,-15,3,-61
1490984169146,0,-126,20,-97,-62,80,26,-1,70
1490984169146,0,31,-4,127,-4,3,-11,-8,22
1490984169147,2,0,-43,78,15,36,14,9,22
1490984169147,2,-74,53,103,66,-11,-8,-11,-39
1490984169148,2,67,-51,59,38,10,1,-7,33
1490984169148,2,-62,-21,-98,27,9,5,-2,3
1490984169194,3,23,108,60,-87,-27,-6,-14,-36
1490984169194,3,38,-128,28,-81,0,18,5,58
1490984169195,0,45,10,-57,-114,20,-2,-1,-36
1490984169195,0,73,81,127,-98,-13,-9,6,-2
1490984169196,3,-54,22,76,81,-13,-21,-11,-78
1490984169196,3,-19,-22,12,95,-88,-30,3,-62
1490984169197,0,-63,-57,68,2,71,18,8,52
1490984169197,0,54,58,29,-63,-6,-19,-8,-29
1490984169243,1,-41,-15,-67,4,-17,41,3,110
1490984169243,1,109,61,120,-63,-35,-15,-7,41
1490984169244,2,-128,-66,-128,-15,33,18,6,-46
1490984169244,2,48,64,-128,-42,-25,-3,-2,37
1490984169244,0,47,2,-100,-4,-58,-3,1,-42
1490984169244,0,-25,16,-17,-16,18,9,-4,9
1490984169245,1,29,-94,39,-17,25,4,8,98
1490984169245,1,-50,59,86,2,-3,10,-4,-71
1490984169291,2,-84,-79,1,9,8,-11,0,-28
1490984169291,2,-50,28,-109,-37,4,7,6,-2
1490984169292,3,117,-17,-90,-12,-17,11,11,58
1490984169292,3,-33,10,127,4,-5,2,-13,53
1490984169293,1,-128,-92,-114,-2,76,-4,3,21
1490984169293,1,-19,13,-28,22,51,13,8,-46
1490984169294,2,60,75,65,-4,-43,-3,-3,0
1490984169294,2,10,2,-76,-19,43,0,-3,-30
1490984169340,3,40,23,-39,2,11,15,-2,74
1490984169340,3,-24,-67,15,3,96,-8,-4,-27
1490984169341,0,40,35,71,-5,-85,-6,-1,23
1490984169341,0,-38,-8,90,-17,57,16,-2,-44
1490984169341,2,-43,-84,-51,-2,16,11,4,48
1490984169341,2,-60,24,93,-2,16,-13,-4,-62
1490984169342,3,27,-15,-67,2,-25,-9,-5,6
1490984169342,3,58,48,-91,-2,-109,11,-2,23
1490984169389,0,-53,23,73,2,121,6,-1,-38
1490984169389,0,33,-58,-48,-20,-128,3,2,18
1490984169390,1,-85,-48,11,-3,53,-14,-3,-2
1490984169390,1,39,75,92,-9,-60,-23,2,-21
1490984169391,3,59,58,127,6,-33,16,-9,11
1490984169391,3,-116,-59,37,3,11,-24,0,-14
1490984169391,0,72,-29,-10,-9,-86,-9,-1,-23
1490984169391,0,0,66,-63,-3,-20,-24,-2,29
1490984169438,1,-34,30,36,-5,32,7,0,23
1490984169438,1,-95,-35,-83,-6,42,11,-2,-20
1490984169439,2,-7,-24,-70,9,44,1,-6,-9
1490984169439,2,78,-39,124,3,14,-8,0,73
1490984169440,0,9,-1,83,0,55,1,2,34
1490984169440,0,11,-8,43,0,49,5,-8,7
1490984169441,1,-60,57,99,-2,-41,1,10,-61
1490984169441,1,-55,-94,-107,5,53,37,6,78
1490984169486,2,9,-2,-67,3,43,9,3,25
1490984169486,2,-6,10,9,-4,35,15,4,28
1490984169488,3,17,-67,114,4,68,6,-12,-56
1490984169488,3,5,-112,-50,-6,-76,-22,-7,-36
1490984169488,0,-57,95,-91,-2,-51,-5,-2,-11
1490984169488,0,61,75,69,-6,-82,15,-5,39
1490984169489,1,31,61,-45,-1,-49,-2,-1,-9
1490984169489,1,41,39,-62,2,-16,-17,-2,-12
1490984169535,2,55,-118,-56,3,-32,5,4,87
1490984169535,2,-115,-4,42,-2,-2,5,0,-67
1490984169536,3,107,0,-115,-5,-52,-14,1,37
1490984169536,3,-65,-40,-20,-2,97,32,-4,11
1490984169537,1,8,30,127,2,38,-9,-9,-40
1490984169537,1,-21,52,11,-7,-43,-48,-9,-68
1490984169538,2,30,-103,-118,3,60,27,5,26
1490984169538,2,32,-15,9,4,92,25,7,35
1490984169584,3,0,49,45,-2,13,-13,-7,-54
1490984169584,3,63,-44,-73,-5,-77,-39,4,96
1490984169585,0,-19,24,-16,-8,-59,-14,-6,-25
1490984169585,0,-36,-57,-96,5,26,-9,18,11
1490984169586,2,-89,14,-30,2,51,14,6,-65
1490984169586,2,49,40,57,-2,-38,4,-17,38
1490984169587,3,-27,23,-128,-10,12,5,-27,4
1490984169587,3,-50,-11,-39,-10,102,64,10,-27
1490984169636,0,56,-16,-64,6,56,8,-17,32
1490984169636,0,19,-10,42,-2,-13,-38,11,-14
1490984169637,1,9,-42,99,0,-39,-2,9,36
1490984169637,1,-61,7,127,23,-42,-25,-23,-65
1490984169638,3,64,27,47,-7,-31,2,5,48
1490984169638,3,18,19,-114,-13,56,16,-3,35
1490984169639,0,-29,46,95,0,-13,-38,-11,-18
1490984169639,0,-24,-22,48,3,16,-11,-6,-21
1490984169683,1,-3,-28,-39,13,118,-3,-7,18
1490984169683,1,50,28,120,27,70,13,8,55
1490984169685,2,7,27,127,25,102,-14,-4,-34
1490984169685,2,-11,1,127,6,52,-43,13,-27
1490984169686,0,50,42,43,-6,-2,10,-1,46
1490984169686,0,26,1,46,18,-90,-12,1,17
1490984169687,1,-17,-3,4,12,-44,-6,-2,-5
1490984169687,1,17,22,19,12,-13,-22,-23,-8
1490984169730,2,-23,-14,-64,12,-72,-60,-15,-3
1490984169730,2,-14,-14,-128,-22,5,-79,-12,7
1490984169732,3,37,-7,-128,14,-33,-121,42,38
1490984169732,3,31,-13,-98,-17,-128,-103,38,-9
1490984169733,1,-9,-65,-38,-6,-87,106,-112,4
1490984169733,1,17,-38,-115,-74,-80,118,90,-74
1490984169737,2,-5,12,-24,47,-95,127,12,32
1490984169737,2,-111,11,72,109,32,62,3,41
1490984169779,3,-109,-11,69,42,119,55,31,127
1490984169779,3,-95,114,127,107,23,104,15,122
1490984169781,0,114,-58,-26,-78,-121,111,46,-71
1490984169781,0,120,3,-128,-53,-120,90,14,-83
1490984169782,2,-41,-24,32,-14,127,-128,32,-9
1490984169782,2,-54,-77,-122,-82,89,39,11,-75
1490984169783,3,-61,-85,-128,-90,86,24,52,-128
1490984169783,3,11,-83,-108,-99,74,35,49,-128
1490984169828,0,2,-4,-5,-57,77,26,5,-37
1490984169828,0,-50,-46,0,-44,47,-35,25,-46
1490984169829,1,-59,-47,-118,-54,41,-42,39,-106
1490984169829,1,-38,-68,-69,-17,48,-37,17,-109
1490984169831,3,-82,127,114,127,4,38,-71,127
1490984169831,3,-104,111,127,105,-23,17,-49,119
1490984169832,0,53,22,86,27,2,21,-8,101
1490984169832,0,126,-72,-92,-70,22,-9,-5,-76
1490984169877,1,126,-128,-128,-128,105,-8,18,-120
1490984169877,1,-47,-127,-128,-128,108,-9,-16,-128
1490984169878,2,-128,-16,-94,-128,115,-23,20,-88
1490984169878,2,-128,-17,-111,-11,127,-8,6,-35
1490984169880,3,19,-80,-128,-44,96,-6,23,-87
1490984169880,3,113,-93,-125,-87,35,-15,10,-86
1490984169881,0,105,-64,-47,27,-29,-1,8,-33
1490984169881,0,-27,29,81,105,52,-9,-9,31
1490984169926,1,-128,25,89,46,-41,-13,13,96
1490984169926,1,-87,19,69,88,96,-6,2,61
1490984169928,2,-34,63,104,58,-85,-10,-24,71
1490984169928,2,25,53,83,45,-111,2,-26,93
1490984169929,0,98,111,121,66,94,13,0,-111
1490984169929,0,-112,126,118,127,116,-39,-89,24
1490984169931,1,45,44,-85,-21,23,-71,83,78
1490984169931,1,104,36,107,109,-128,12,86,127
1490984169974,2,87,-30,32,-52,-128,-4,127,127
1490984169974,2,127,-111,-82,-97,-68,48,96,28
1490984169976,3,43,-105,-111,-106,104,15,26,-107
1490984169976,3,-110,-128,-128,-115,125,5,14,-114
1490984169977,1,-101,-128,4,-22,-43,-1,-65,-125
1490984169977,1,-37,-68,51,-80,-97,-2,-57,-123
1490984169978,2,-66,-16,124,-91,-115,7,-24,-44
1490984169978,2,-95,71,66,-101,-128,10,38,102
1490984170023,3,-46,121,86,127,-123,12,20,-67
1490984170023,3,2,127,105,100,-114,-17,-21,-52
1490984170025,0,24,127,97,117,-116,-34,-58,-25
1490984170025,0,75,86,110,85,-103,-10,-15,-45
1490984170026,2,10,-10,29,13,64,-16,-5,53
1490984170026,2,57,5,19,-26,-5,13,10,45
1490984170027,3,3,-11,40,24,-34,1,-6,38
1490984170027,3,6,-26,-18,14,49,-5,5,11
1490984170072,0,4,-1,-22,-29,-50,-3,-13,55
1490984170072,0,-8,-29,-33,-11,51,14,-21,-34
1490984170073,1,17,10,-14,-43,-89,2,-12,22
1490984170073,1,9,-16,-23,-16,94,-17,20,22
1490984170075,3,4,-18,-14,-1,64,9,-21,-3
1490984170075,3,6,-5,-12,3,-8,7,-19,4
