1491695030713,0,-84,44,-111,19,46,12,-110,79
1491695030713,0,82,-39,-9,-59,24,-30,94,-109
1491695030716,1,44,31,26,-35,-31,10,106,-111
1491695030716,1,41,26,52,-3,-19,4,100,-108
1491695030717,2,19,-22,64,2,-52,12,95,-76
1491695030717,2,-34,-30,6,14,-34,-11,-14,-12
1491695030761,3,-14,-62,-7,14,4,4,-12,-8
1491695030761,3,4,-56,-2,-5,-17,2,-31,-13
1491695030762,0,-5,-40,1,2,1,16,8,-18
1491695030762,0,-38,-15,7,13,2,-29,-66,12
1491695030764,1,19,-15,6,5,12,12,23,18
1491695030764,1,-22,-9,-12,7,12,26,3,34
1491695030765,2,18,-101,-3,-12,-4,-57,-52,0
1491695030765,2,-5,-105,-3,1,6,5,-16,38
1491695030810,3,-31,-60,-4,1,0,25,-42,33
1491695030810,3,-8,-17,-21,-7,6,-32,-25,28
1491695030812,0,13,48,3,-10,4,4,9,9
1491695030812,0,-1,81,17,3,-12,17,21,-13
1491695030813,1,-7,45,-2,5,1,-11,-14,-16
1491695030813,1,11,68,-3,-8,2,7,5,-7
1491695030908,2,14,36,22,-2,-2,-5,29,-25
1491695030908,2,0,-32,-8,1,-5,8,-2,13
1491695030909,3,-10,-67,-9,7,4,-5,10,4
1491695030909,3,-16,-89,-8,6,3,27,5,-15
1491695030910,0,-9,-71,40,1,-10,-39,-2,-9
1491695030910,0,-3,-44,2,4,0,5,10,3
1491695030914,2,13,79,-22,-7,4,38,2,-4
1491695030914,2,-12,68,1,17,10,18,-5,-2
1491695030958,3,8,72,6,-6,-19,-46,-15,10
1491695030958,3,-7,67,24,0,7,18,-16,6
1491695030959,0,16,21,-36,-21,-4,-7,17,11
1491695030959,0,-22,25,3,-6,0,24,-36,-9
1491695030960,3,13,18,71,40,17,35,21,12
1491695030960,3,-14,-14,-26,-32,6,12,-19,-1
1491695030961,0,32,-59,66,9,11,4,38,-3
1491695030961,0,12,-57,17,9,-2,-56,-35,-19
1491695031005,1,-15,-75,-52,-4,1,-12,-20,-3
1491695031005,1,43,2,-1,-4,1,18,30,2
1491695031009,2,-54,-45,-53,-2,11,-2,-53,-3
1491695031009,2,-14,-18,45,5,6,60,34,-27
1491695031011,0,-10,-32,103,72,-9,-33,-38,2
1491695031011,0,33,-31,-59,1,23,126,64,29
1491695031013,1,-32,-31,-36,-13,6,-27,-59,-1
1491695031013,1,-6,-1,28,7,-4,12,78,23
1491695031054,2,47,11,0,-16,-11,-76,-76,-28
1491695031054,2,-47,-30,45,10,6,-3,43,-10
1491695031056,3,41,-35,-76,-22,4,54,-26,0
1491695031056,3,-2,-44,-17,1,4,-23,-25,32
1491695031057,1,50,42,51,-25,-19,-25,-14,6
1491695031057,1,-44,-23,14,-1,-17,-48,-25,-19
1491695031058,2,27,-45,-17,-5,1,42,36,14
1491695031058,2,25,-21,7,4,2,-5,-13,-7
1491695031102,3,-43,-43,-80,-9,-5,-5,18,-11
1491695031102,3,12,60,-10,13,-5,-18,-27,-1
1491695031104,0,-16,85,51,-11,-19,-6,6,-1
1491695031104,0,28,79,-16,-5,12,5,-2,15
1491695031106,2,-27,86,-5,-25,-7,6,37,-1
1491695031106,2,-3,38,7,-5,2,16,-3,7
1491695031107,3,-32,-4,13,26,6,-32,23,-14
1491695031107,3,24,-41,-52,-13,-15,34,-24,-21
1491695031151,0,23,58,31,-1,2,18,21,15
1491695031151,0,-18,7,16,28,-11,-51,2,7
1491695031154,1,-25,-6,-34,-31,-4,-27,-17,-27
1491695031154,1,19,57,95,29,16,58,35,14
1491695031155,3,0,111,40,14,5,-68,6,-2
1491695031155,3,-6,108,-35,-7,-3,23,35,-17
1491695031156,0,4,96,-46,-8,-7,25,-73,-35
1491695031156,0,6,99,10,-4,5,-14,14,4
1491695031249,1,-29,-17,20,-14,-6,5,27,5
1491695031249,1,24,-48,20,9,7,-1,-31,4
1491695031251,2,-17,-24,-61,14,-12,-70,-19,15
1491695031251,2,5,-30,-5,-32,-11,51,-6,-12
1491695031252,0,61,-29,-2,4,9,-17,-12,35
1491695031252,0,-26,-41,-27,8,10,-33,18,-13
1491695031253,1,-12,-45,-18,2,9,18,2,15
1491695031253,1,5,-59,-1,-4,-4,-16,-38,-4
1491695031298,2,-10,-48,29,3,7,28,27,-3
1491695031298,2,31,-61,-22,-8,-13,-20,-7,16
1491695031300,3,25,-27,9,-2,14,21,-12,18
1491695031300,3,10,12,-31,2,-10,-37,-3,-18
1491695031301,1,-1,-25,-9,19,9,6,69,-2
1491695031301,1,-17,-83,-15,-16,-6,32,5,0
1491695031301,2,34,19,-10,-1,-8,-13,0,3
1491695031301,2,14,-2,-7,-6,9,57,-20,11
1491695031346,3,-9,-3,-1,-8,-2,-19,29,3
1491695031346,3,33,13,14,1,6,-2,-7,5
1491695031348,0,-39,-19,-20,-1,13,-20,8,17
1491695031348,0,-16,9,5,0,-9,5,-43,7
1491695031349,2,-22,-23,-16,-11,-17,-24,-5,-3
1491695031349,2,17,12,11,5,12,5,10,-10
1491695031349,3,-24,-24,-18,-14,-23,13,-25,-8
1491695031349,3,2,-19,-2,1,-16,-47,-27,-2
1491695031395,0,4,-9,-9,-11,-4,23,42,-14
1491695031395,0,-21,21,10,8,5,30,-40,-12
1491695031396,1,31,-5,4,14,-10,-64,19,7
1491695031396,1,-8,0,-5,-16,8,55,9,-5
1491695031397,3,-32,3,-8,12,8,64,28,-18
1491695031397,3,26,19,11,2,-20,-62,-2,-22
1491695031398,0,-20,17,2,-13,0,33,-1,4
1491695031398,0,20,2,0,15,14,12,-5,6
1491695031444,1,-8,13,8,13,7,-24,-21,7
1491695031444,1,4,-24,-18,-30,-33,-2,64,15
1491695031493,2,-8,-7,-5,0,14,47,-59,-21
1491695031493,2,19,11,19,9,4,-71,-1,-4
1491695031494,0,10,2,-5,-2,-18,-17,13,8
1491695031494,0,6,-15,-13,-26,-24,-10,-10,-21
1491695031494,1,-11,-2,13,1,-1,-6,10,2
1491695031494,1,1,-8,-36,7,2,3,-21,-4
1491695031495,2,-5,-12,4,-12,7,36,7,-6
1491695031495,2,6,2,-20,16,14,19,19,1
1491695031590,3,4,10,44,14,13,14,54,17
1491695031590,3,-6,41,11,-16,-9,-44,-45,-22
1491695031591,1,-2,-25,-39,-33,-10,-19,-40,5
1491695031591,1,-1,-37,-6,17,28,55,21,3
1491695031592,2,-1,-21,-29,1,-10,-12,2,3
1491695031592,2,16,18,55,-14,-3,12,29,-8
1491695031593,2,8,-94,6,14,16,16,15,8
1491695031593,2,14,-7,-1,20,-1,26,19,23
1491695031639,3,-6,24,-44,-37,-29,-55,-38,-21
1491695031639,3,-11,-99,11,17,8,33,24,-3
1491695031640,0,-16,55,71,0,4,7,-20,-6
1491695031640,0,-2,-115,-30,-14,-4,-39,18,5
1491695031640,3,-10,1,-4,-14,-5,34,26,-4
1491695031640,3,-2,101,14,-11,-7,-26,13,27
1491695031641,0,-17,80,5,13,18,-23,-18,-36
1491695031641,0,-10,39,-44,-2,-16,25,25,-18
1491695031687,1,0,24,6,-26,4,18,-30,-4
1491695031687,1,-22,46,15,17,-4,-15,40,0
1491695031689,2,34,64,23,4,10,44,-26,23
1491695031689,2,-30,-10,-59,-9,3,16,2,-10
1491695031690,1,-14,33,-28,-5,-8,-56,-34,-3
1491695031690,1,6,-7,-21,16,14,68,32,-6
1491695031691,2,33,-10,58,8,-3,16,88,38
1491695031691,2,-4,1,-44,-26,-15,-61,-52,-7
1491695031736,3,-10,-11,26,8,1,23,8,-3
1491695031736,3,-70,-17,-14,-8,1,-17,-86,-37
1491695031737,0,50,11,-56,-14,-10,-26,8,4
1491695031737,0,17,45,91,26,9,23,11,17
1491695031740,1,-5,-16,-16,1,-8,-9,-2,5
1491695031740,1,33,29,-17,-12,3,-5,-7,-12
1491695031741,2,-68,110,33,-6,-6,2,-47,-4
1491695031741,2,32,121,-51,-6,-2,-2,-39,-16
1491695031785,3,4,79,2,15,3,-17,45,17
1491695031785,3,16,39,36,-4,-1,28,7,-7
1491695031787,0,-27,-41,-47,-18,-10,-65,-31,-29
1491695031787,0,32,37,-11,4,4,22,5,8
1491695031788,2,34,44,57,5,-1,30,29,-21
1491695031788,2,-24,13,-15,-10,0,-35,-18,-22
1491695031789,3,5,76,-27,-2,-8,29,44,18
1491695031789,3,-30,-26,-33,-14,-6,-2,-8,-6
1491695031837,0,-7,-28,23,-7,-13,-35,-33,3
1491695031837,0,10,-2,23,9,0,-28,41,-20
1491695031838,1,-11,-33,-26,-8,-3,13,-18,-30
1491695031838,1,-7,-35,31,3,-8,-56,-3,-4
1491695031840,3,12,-40,-12,1,2,5,39,12
1491695031840,3,-19,-13,40,14,16,30,59,-12
1491695031841,0,30,-42,-28,-7,-3,-14,-43,-8
1491695031841,0,30,-47,-8,-2,-2,6,-73,8
1491695031882,1,-26,5,65,16,6,3,-9,-7
1491695031882,1,20,6,1,-3,-11,-9,-28,11
1491695031885,2,-49,16,-22,12,18,25,48,2
1491695031885,2,29,-1,-28,-4,-10,40,14,-14
1491695031886,0,-3,-44,52,4,-4,-67,-23,-6
1491695031886,0,-61,-42,-24,-1,2,9,-26,3
1491695031886,1,4,-31,-15,4,8,-29,-25,-7
1491695031886,1,33,-12,12,-2,-1,-15,-47,34
1491695031931,2,32,-4,0,-1,4,35,32,4
1491695031931,2,-27,-6,14,6,7,-9,-41,-1
1491695031933,3,-7,-19,-5,-3,-9,15,37,-10
1491695031933,3,-2,4,-14,0,14,-22,5,8
1491695031935,1,9,-10,-10,7,5,11,1,-14
1491695031935,1,24,-10,-21,-17,-6,-9,-5,-6
1491695031936,2,-16,0,-4,0,5,0,-30,-2
1491695031936,2,9,-2,30,24,11,-1,42,20
1491695031980,3,24,4,-14,-6,-5,-4,-10,-19
1491695031980,3,-20,5,-6,-22,-21,-4,4,-3
1491695031981,0,16,-7,-11,-8,-3,1,8,2
1491695031981,0,-34,-11,-8,-12,-8,-5,-6,4
1491695031982,2,-22,-11,-13,-4,-9,-13,-13,-13
1491695031982,2,-1,-8,12,-1,-9,-17,-18,-4
1491695031985,3,10,2,-11,-6,2,8,13,-5
1491695031985,3,-50,-9,-5,-9,-10,-21,-7,5
1491695032030,0,39,3,-2,0,3,9,3,-7
1491695032030,0,-2,-9,-5,2,-5,-28,1,-8
1491695032080,1,4,4,-2,-21,-10,-1,-26,0
1491695032080,1,13,6,-2,12,12,11,26,-1
1491695032126,3,-21,-8,-3,-23,-15,-17,3,-14
1491695032126,3,-11,3,-11,5,-5,7,-2,-3
1491695032127,0,-1,-4,10,-4,9,-14,24,5
1491695032127,0,25,2,-1,3,3,6,-20,-1
1491695032128,1,-16,16,3,26,-1,-14,-13,-15
1491695032128,1,3,-3,-9,-9,1,16,13,-6
1491695032129,2,16,-1,13,-3,-9,-12,-1,12
1491695032129,2,-37,-11,-12,-8,-1,3,-20,-25
1491695032177,3,-10,-9,-13,-4,1,4,2,-13
1491695032177,3,70,17,24,13,-11,-16,-6,-5
1491695032178,0,-35,-68,-5,4,-6,-8,-15,-12
1491695032178,0,-13,-63,0,-7,2,8,-5,6
1491695032178,1,8,30,11,11,10,4,4,3
1491695032178,1,-12,-4,-12,4,-1,-17,-1,-9
1491695032180,2,13,2,15,7,6,29,22,14
1491695032180,2,-30,4,-20,-22,-8,-15,-28,-16
1491695032223,3,7,-3,15,7,-3,11,22,8
1491695032223,3,33,-19,8,-9,0,8,32,21
1491695032224,0,-33,-9,-13,1,-11,-22,-21,-8
1491695032224,0,-22,-10,-2,-5,2,13,12,-18
1491695032225,2,3,38,7,2,-3,-12,2,14
1491695032225,2,25,2,4,11,5,-6,4,-3
1491695032226,3,-58,-8,-4,0,-3,10,-38,-10
1491695032226,3,17,-19,-4,-21,-5,6,49,1
1491695032274,0,11,12,-7,-9,-3,-17,-21,0
1491695032274,0,-18,-2,9,23,-3,-1,-5,-2
1491695032275,1,25,-4,4,-18,-6,-11,-6,5
1491695032275,1,-22,2,-14,-3,-3,-10,-11,2
1491695032276,3,-24,-6,-5,3,-6,-3,-15,-8
1491695032276,3,14,-4,-4,-2,0,0,0,-7
1491695032277,0,21,-7,-11,-10,-13,-21,-10,-7
1491695032277,0,13,1,5,3,3,6,2,2
1491695032370,1,-31,3,2,6,10,11,8,-3
1491695032370,1,-11,-5,-8,-14,-4,-6,-14,-2
1491695032371,2,-19,-34,11,18,4,-1,11,-8
1491695032371,2,42,-24,-13,-16,-15,3,19,7
1491695032371,0,17,4,-14,-14,1,27,15,5
1491695032371,0,-36,16,20,19,7,-16,-32,-11
1491695032372,1,-7,-3,-13,-12,-8,-9,12,7
1491695032372,1,14,6,7,20,3,-19,-31,-8
1491695032419,2,-20,-67,-2,-1,4,1,4,-5
1491695032419,2,24,-3,-2,-5,-3,12,6,-4
1491695032420,3,23,10,-17,-20,-11,6,-1,6
1491695032420,3,-19,25,5,2,5,-10,-3,-2
1491695032421,1,-20,-8,-5,1,10,3,-6,-10
1491695032421,1,8,-1,11,7,2,14,15,3
1491695032422,1,-14,-2,7,2,0,4,9,-2
1491695032422,1,-24,2,1,14,11,24,-9,2
1491695032467,2,-15,16,2,-3,-13,-29,4,-5
1491695032467,2,2,3,-10,-19,-10,-27,-17,-5
1491695032469,3,4,-18,-3,4,5,6,4,-2
1491695032469,3,12,6,0,-6,-8,-14,3,-2
1491695032469,2,-4,13,-4,-20,-7,11,9,-4
1491695032469,2,38,6,13,6,-13,-15,-3,3
1491695032470,3,70,-21,-2,8,15,1,4,12
1491695032470,3,-21,-14,-4,1,-3,-8,-10,2
1491695032516,0,-16,2,-3,0,-3,-14,-20,-9
1491695032516,0,34,-7,-2,11,16,52,25,6
1491695032517,1,-58,19,-4,-14,-14,-23,-1,6
1491695032517,1,19,6,-4,6,12,-10,-14,1
1491695032518,3,62,11,-2,-1,-9,8,18,3
1491695032518,3,-1,2,-5,-11,-15,1,-29,-18
1491695032519,0,-47,-7,-1,-4,2,-22,4,-13
1491695032519,0,-7,-1,-11,-6,-2,24,10,0
1491695032565,1,-36,3,5,6,11,-19,1,-6
1491695032565,1,-52,-2,3,0,-1,11,25,6
1491695032566,2,43,8,-2,0,-5,-2,-23,1
1491695032566,2,-12,9,1,-2,-9,-26,-2,-2
1491695032566,0,-2,-5,2,-6,2,-4,-1,-1
1491695032566,0,-8,4,-4,-6,-17,-39,26,6
1491695032567,1,-50,-4,-4,-1,-23,17,-27,-17
1491695032567,1,59,3,-12,-14,-5,-8,11,10
1491695032613,2,-4,4,4,4,-2,25,9,-8
1491695032613,2,-8,-9,5,15,34,-13,-2,-2
1491695032614,3,17,15,5,-6,0,-5,-20,-4
1491695032614,3,18,0,-4,-14,-24,11,14,7
1491695032615,1,-4,6,1,2,18,3,-3,5
1491695032615,1,-9,-12,-9,-1,10,11,18,2
1491695032616,2,24,-2,-1,-13,-17,1,-13,-18
1491695032616,2,-29,9,4,5,7,4,-5,-9
1491695032662,3,15,-5,1,7,4,26,39,9
1491695032662,3,8,7,4,9,3,-29,-25,-7
1491695032667,0,5,12,-2,-6,-6,-29,-1,3
1491695032667,0,33,-16,-8,-15,-24,3,2,-13
1491695032668,2,-3,-5,-2,8,5,-6,-19,0
1491695032668,2,-10,27,1,-15,-2,13,1,-5
1491695032668,3,40,-13,3,1,0,-19,-11,6
1491695032668,3,17,-14,-14,-2,-1,-2,2,-3
1491695032711,0,5,3,7,4,1,-26,-19,6
1491695032711,0,-23,-20,-4,3,-2,26,17,2
1491695032712,1,10,4,-19,-20,-11,-15,-8,-1
1491695032712,1,-63,16,9,3,-5,-5,-13,-9
1491695032713,3,-32,-17,6,11,0,9,19,-2
1491695032713,3,-3,-15,-4,-2,5,-28,-3,1
1491695032714,0,-27,-5,-12,-13,-15,-12,-3,-26
1491695032714,0,-20,-8,12,5,-7,10,-5,1
1491695032760,1,35,2,-4,6,6,11,2,-11
1491695032760,1,9,6,5,-7,-13,-20,6,7
1491695032809,2,-16,-10,0,2,-6,-26,-20,-4
1491695032809,2,-8,8,1,5,17,38,26,7
1491695032810,3,-64,-19,4,-6,-2,2,-33,-13
1491695032810,3,17,-18,0,0,3,1,12,1
1491695032811,0,29,7,0,5,1,-2,25,3
1491695032811,0,-50,-13,-7,-10,-14,-34,-43,-9
1491695032811,1,25,5,-11,-11,-11,-5,2,2
1491695032811,1,-16,-16,14,2,0,7,20,17
1491695032857,2,6,10,0,-6,14,36,-19,6
1491695032857,2,28,7,7,7,4,0,20,19
1491695032859,0,-8,-11,-7,3,-6,-9,0,2
1491695032859,0,9,-19,-11,-17,-5,34,-16,3
1491695032860,1,4,-19,0,-2,-11,-10,32,17
1491695032860,1,-40,18,0,5,13,23,14,-5
1491695032860,2,6,2,-2,3,-2,-15,-6,-3
1491695032860,2,-10,16,2,0,2,12,-9,-1
1491695032906,3,20,27,4,1,6,-6,19,3
1491695032906,3,13,29,-10,-10,-8,25,-20,-2
1491695032907,0,-36,26,0,-3,-7,-34,22,6
1491695032907,0,9,30,0,-2,-3,-18,-11,-3
1491695032908,2,-9,19,-4,-7,-1,11,16,7
1491695032908,2,-4,-2,-5,-9,-3,17,-27,-13
1491695032909,3,-7,-20,-1,-1,-4,-49,-20,2
1491695032909,3,19,-4,0,-3,4,37,31,-4
1491695032955,0,17,3,7,6,1,-23,-37,3
1491695032955,0,7,-2,-7,3,12,30,39,2
1491695032956,1,-37,2,3,6,-8,-9,-2,-2
1491695032956,1,-3,16,-5,-12,-16,-32,-11,-14
1491695032957,3,5,6,-3,3,7,26,-11,-12
1491695032957,3,2,15,7,5,3,-6,9,7
1491695032958,0,-5,3,-3,-2,-10,8,8,-5
1491695032958,0,18,3,0,4,4,13,17,4
1491695033004,1,-10,7,0,0,-1,-32,-42,-7
1491695033004,1,-11,1,1,2,0,-8,21,6
1491695033005,2,15,-7,-8,-17,-12,-14,3,-1
1491695033005,2,-7,-14,-3,3,5,68,29,-3
1491695033005,0,6,-8,1,5,6,16,10,3
1491695033005,0,-2,-27,-3,-7,-10,-42,-15,-5
1491695033006,1,-19,-9,-5,-10,-7,13,-11,5
1491695033006,1,17,17,3,-1,6,33,-27,-10
1491695033052,2,-9,13,-2,0,5,-41,17,6
1491695033052,2,-11,10,-9,-3,-10,-43,-22,-6
1491695033054,3,15,5,3,5,-8,36,73,6
1491695033054,3,-7,-11,-6,-18,-9,-36,-89,-6
1491695033055,1,-23,-7,-15,-7,-8,6,-1,-8
1491695033055,1,11,10,0,2,-7,-32,10,2
1491695033056,2,-12,-3,8,-4,-5,20,22,-6
1491695033056,2,15,3,1,1,0,5,-26,-3
1491695033101,3,3,-2,-4,-1,1,37,18,-9
1491695033101,3,6,1,2,2,0,-44,22,9
1491695033103,0,-17,-8,-4,-4,5,5,-11,7
1491695033103,0,41,7,9,8,12,37,-49,-7
1491695033104,2,5,11,-1,-11,-10,-14,24,-6
1491695033104,2,-13,11,1,-6,-7,45,7,-3
1491695033105,3,9,-10,-3,6,19,-4,-12,10
1491695033105,3,8,12,6,15,7,-45,24,16
1491695033150,0,8,-12,-11,-14,-19,-28,-62,-5
1491695033150,0,-24,-6,-6,-7,-8,39,17,11
1491695033152,1,-2,-8,-8,-15,-12,-56,-17,-5
1491695033152,1,-7,-12,2,7,14,60,29,-1
1491695033153,2,25,4,3,10,-6,4,-8,0
1491695033153,2,-31,-4,-2,-3,-3,-20,17,-10
1491695033154,3,8,9,5,-7,2,5,41,-1
1491695033154,3,12,-2,2,7,8,25,74,13
1491695033199,0,-3,-3,1,0,7,10,-4,-13
1491695033199,0,6,-13,-3,-1,-5,-53,-35,-3
1491695033200,1,-28,5,3,6,-1,8,19,-1
1491695033200,1,63,5,-3,-14,-7,29,-61,-13
1491695033201,3,4,1,-2,-7,-9,-12,1,-1
1491695033201,3,-32,-15,-5,-1,3,19,12,-4
1491695033202,0,-7,-14,-7,-1,-10,-8,24,-5
1491695033202,0,29,17,11,-1,-1,-36,3,2
1491695033247,1,-4,-11,-4,0,1,3,23,13
1491695033247,1,-3,12,-1,7,3,14,43,-25
1491695033249,2,1,4,4,-2,-4,-11,-89,-1
1491695033249,2,-14,-13,-15,-12,-11,-32,25,-10
1491695033250,0,-10,-2,-10,5,14,67,93,36
1491695033250,0,21,10,-2,-7,-10,-28,-52,-31
1491695033251,1,-9,-1,-6,-1,-9,-23,-80,24
1491695033251,1,-23,-17,-8,-14,-16,-54,-98,-65
1491695033296,2,11,4,11,11,11,53,101,14
1491695033296,2,-11,-13,-2,3,4,5,-44,23
1491695033297,3,28,30,10,-1,-6,5,35,-10
1491695033297,3,-34,-32,-19,-11,-15,-29,4,-23
1491695033298,1,-1,4,0,0,4,19,6,-3
1491695033298,1,-5,15,4,-1,-11,-9,14,27
1491695033299,2,19,7,4,6,11,49,-22,-9
1491695033299,2,-21,2,6,4,4,-25,127,32
1491695033345,3,45,65,-4,0,-6,13,11,-18
1491695033345,3,-4,79,2,-2,-1,8,-89,-19
1491695033346,0,9,119,-6,-2,-6,-66,-15,20
1491695033346,0,7,101,15,1,-1,6,40,-35
1491695033347,2,-11,-59,-3,0,4,61,-16,4
1491695033347,2,-26,-59,-4,7,1,-39,-85,20
1491695033348,3,-7,-61,-9,-1,8,61,60,-28
1491695033348,3,11,-45,5,1,-4,-86,58,24
1491695033394,0,-16,-58,-3,-8,-2,-17,-88,-43
1491695033394,0,1,-33,-14,-10,-14,11,12,14
1491695033395,1,7,-3,-2,-15,-24,-30,-96,1
1491695033395,1,-2,16,-15,-4,-2,-19,40,8
1491695033397,3,-22,-10,-4,7,18,28,94,29
1491695033397,3,-23,-25,2,4,-8,12,-79,-7
1491695033398,0,8,-16,-6,-10,1,10,9,11
1491695033398,0,-55,-40,-18,-5,-12,-10,12,-21
1491695033442,1,-31,-31,23,6,1,-43,-59,6
1491695033442,1,6,-36,-8,-5,4,10,38,17
1491695033444,2,24,-34,-1,6,7,57,-7,-12
1491695033444,2,54,-12,9,2,3,4,10,26
1491695033446,0,1,-16,15,-2,-3,-11,-47,-4
1491695033446,0,23,-41,-26,-2,7,2,33,-1
1491695033447,1,37,6,-21,5,-4,0,-8,16
1491695033447,1,12,6,-4,-6,-1,47,22,-7
1491695033491,2,-19,8,17,-8,-8,-11,22,-5
1491695033491,2,33,11,16,8,0,-13,-65,-15
1491695033492,3,-42,-19,-53,-9,-1,3,-2,-8
1491695033492,3,34,-1,17,-2,-2,33,43,13
1491695033493,0,5,38,-10,-4,2,0,37,2
1491695033493,0,-12,4,56,16,5,-1,-15,-11
1491695033494,1,-5,-26,-41,-10,-9,-49,-49,-2
1491695033494,1,-29,26,46,20,6,27,-24,-2
1491695033540,2,21,-11,-20,-7,-3,-23,-5,-5
1491695033540,2,-54,-12,-33,-23,-17,-34,-4,-8
1491695033541,3,13,21,-17,-3,-8,16,-27,4
1491695033541,3,57,14,19,4,-1,-10,36,10
1491695033542,1,-19,1,22,-10,-2,12,60,16
1491695033542,1,-27,-11,18,8,-1,-23,-45,-27
1491695033543,2,-4,-7,-26,-8,-5,-7,-27,1
1491695033543,2,-20,-14,-47,-13,2,4,10,-13
1491695033589,3,-20,-4,31,8,-6,-18,-41,4
1491695033589,3,7,8,4,9,10,3,62,18
1491695033590,0,28,-3,-10,6,-5,-5,27,10
1491695033590,0,-21,-16,-10,-16,-22,-27,-37,-18
1491695033591,2,38,-13,-14,-13,-8,-19,-53,-17
1491695033591,2,-1,-7,-24,4,6,26,90,32
1491695033593,3,3,-14,20,9,11,63,-24,-33
1491695033593,3,-21,11,-8,-4,10,-68,-19,29
1491695033639,0,-50,-20,-15,7,-4,-13,58,21
1491695033639,0,18,-1,12,13,1,-39,-40,-19
1491695033640,1,-10,-5,0,-42,-42,-11,6,-15
1491695033640,1,31,-13,-34,-15,-17,4,16,-5
1491695033641,3,21,3,0,18,22,36,-10,10
1491695033641,3,-31,1,-11,-8,3,42,-31,-20
1491695033642,0,-12,-2,1,-8,-18,-105,-53,-5
1491695033642,0,-20,13,25,7,13,92,18,0
1491695033686,1,34,-23,18,-3,-11,-118,-20,6
1491695033686,1,3,-21,-56,-7,3,49,19,-9
1491695033689,2,-16,-19,-26,3,-8,-16,3,-6
1491695033689,2,-16,29,63,-6,-2,35,7,-3
1491695033690,0,-19,52,95,18,-6,-23,-34,-11
1491695033690,0,-2,5,17,-16,-27,-27,-24,-32
1491695033691,1,-4,1,-23,-15,-8,-44,14,-18
1491695033691,1,3,-84,-15,-7,1,-10,6,7
1491695033735,2,3,-115,26,5,17,59,-1,21
1491695033735,2,13,-128,-34,-30,-8,33,15,4
1491695033736,3,8,-113,127,38,15,-22,-28,14
1491695033736,3,-9,-39,-14,-18,-4,31,15,4
1491695033737,1,-30,0,-128,-51,-26,39,29,5
1491695033737,1,15,73,32,15,6,-13,-8,-13
1491695033738,2,9,-43,21,-9,14,24,31,12
1491695033738,2,-8,40,-38,4,-1,-29,-12,0
1491695033784,3,-21,-17,10,1,1,9,3,0
1491695033784,3,-7,11,-23,-19,-17,-3,-17,-12
1491695033785,0,25,99,26,-2,6,39,26,-15
1491695033785,0,19,11,-33,27,-8,-25,7,6
1491695033786,2,-12,-24,-8,11,12,29,37,-4
1491695033786,2,9,-19,-15,-18,-13,-13,-13,-14
1491695033787,3,-20,-11,-16,18,-6,-71,-29,-24
1491695033787,3,7,48,35,38,8,21,29,-10
1491695033832,0,-40,0,-4,-36,-21,25,-29,7
1491695033832,0,-15,-49,-38,-13,6,13,23,7
1491695033834,1,-8,-2,0,-2,-5,-27,-34,3
1491695033834,1,-9,-11,-16,-10,-18,-8,12,-13
1491695033835,2,8,48,11,16,20,19,-15,-8
1491695033835,2,-12,71,3,-3,13,26,-4,17
1491695033835,3,1,69,-6,21,1,-13,10,6
1491695033835,3,-14,53,28,-11,-2,-15,-2,10
1491695033881,0,9,19,-16,-8,-9,7,11,6
1491695033881,0,25,60,-16,-13,-3,-2,-18,0
1491695033882,1,3,39,1,6,20,20,20,-5
1491695033882,1,9,-6,13,15,3,11,14,12
1491695033883,3,5,-54,4,-10,-28,-7,-7,17
1491695033883,3,-12,-90,9,3,9,-45,-35,5
1491695033890,0,7,-59,-8,6,-10,-10,-24,9
1491695033890,0,23,27,-6,-4,4,45,52,9
1491695033931,1,-38,-38,-4,-10,-4,-66,-50,16
1491695033931,1,-25,-9,-3,0,8,50,68,5
1491695033933,2,18,25,-4,-5,4,-11,18,7
1491695033933,2,-7,-3,-20,5,2,-22,13,-4
1491695033934,0,-33,47,-15,1,-7,-9,-51,-30
1491695033934,0,-13,-35,1,-12,-10,-9,12,-11
1491695033935,1,-6,-9,9,-5,1,30,16,-22
1491695033935,1,-53,-52,-2,10,5,-36,-17,-24
1491695033979,2,-13,-31,2,2,-10,1,-28,-2
1491695033979,2,30,109,-5,11,4,-7,7,0
1491695033983,3,-30,30,-6,-4,9,21,31,6
1491695033983,3,9,27,1,-2,-4,8,-9,-1
1491695033988,1,10,-80,-2,-3,3,-8,-6,19
1491695033988,1,1,-99,-8,2,3,14,-27,10
1491695033992,2,21,-68,-4,-2,1,-35,25,15
1491695033992,2,-56,-67,-4,-3,-7,0,-13,-6
1491695034028,3,43,1,-2,-4,0,25,-9,-10
1491695034028,3,-36,-13,-18,-6,-11,-41,-37,-4
1491695034029,0,16,1,18,0,5,-3,6,1
1491695034029,0,-42,-61,1,4,11,26,-25,-10
1491695034030,2,-2,16,11,-1,-10,-28,17,-5
1491695034030,2,42,17,5,4,-1,-21,-30,-1
1491695034031,3,3,2,-8,5,12,32,17,15
1491695034031,3,21,-26,12,-3,-10,-3,6,-5
1491695034081,0,-24,-11,9,-5,-4,2,1,-2
1491695034081,0,12,-31,-2,-1,2,-7,-11,7
1491695034084,1,6,-35,-5,-1,1,24,10,-6
1491695034084,1,10,3,4,6,0,-36,-1,7
1491695034085,3,-82,22,-3,-6,-4,17,10,-10
1491695034085,3,55,29,-3,-1,1,1,-21,-7
1491695034086,0,-9,10,-2,4,3,16,22,-8
1491695034086,0,26,13,1,4,4,20,21,-11
1491695034125,1,8,22,-5,-6,-8,-18,7,-6
1491695034125,1,-7,9,4,-10,-4,4,4,-3
1491695034126,2,7,-22,-4,9,12,3,-9,7
1491695034126,2,0,-1,11,6,-2,0,10,-4
1491695034126,0,39,7,-12,-9,-2,-1,-8,6
1491695034126,0,-33,-7,-2,-8,-2,-6,18,6
1491695034127,1,14,19,7,5,11,2,-20,2
1491695034127,1,-15,-1,-1,8,-2,-5,7,3
1491695034174,2,-5,18,1,-1,6,33,16,8
1491695034174,2,-17,23,2,-2,0,27,-3,3
1491695034175,3,19,11,-8,0,-7,-54,-40,-6
1491695034175,3,2,6,-8,-3,-3,-8,13,-2
1491695034176,0,2,14,-2,-6,-6,-12,-3,-2
1491695034176,0,-8,6,2,0,-5,5,-5,6
1491695034176,1,39,-21,-7,-8,-6,6,4,-7
1491695034176,1,25,13,8,4,6,18,-21,2
1491695034222,2,-36,0,-3,6,-2,-4,-8,-9
1491695034222,2,21,2,-4,5,-3,-12,-5,6
1491695034223,3,-7,-35,-5,-9,-2,16,45,3
1491695034223,3,-17,-55,-4,-8,-5,-8,-60,-2
1491695034224,1,-12,48,14,-2,-9,-39,-31,0
1491695034224,1,-14,38,-1,4,0,23,44,-2
1491695034225,2,-24,26,-6,-4,1,22,10,-4
1491695034225,2,26,6,1,4,4,-16,13,9
1491695034271,3,-67,-2,-9,-4,-4,-32,-15,-19
1491695034271,3,80,-8,-2,-8,-11,-19,3,7
1491695034272,0,27,4,6,5,5,10,-5,-1
1491695034272,0,-22,-9,-1,12,2,5,5,-18
1491695034273,2,11,-12,-3,-9,-9,-12,-4,8
1491695034273,2,33,5,4,0,-1,-29,-30,0
1491695034274,3,-15,-8,-6,0,-3,8,5,-2
1491695034274,3,-19,2,-4,1,1,3,10,3
1491695034320,0,14,5,1,-3,-9,-7,-5,-8
1491695034320,0,-35,-6,2,-1,4,-9,-14,-1
1491695034321,1,39,-7,-3,-2,2,13,14,6
1491695034321,1,-65,18,10,1,-2,-4,-15,5
1491695034322,3,36,23,22,10,7,-2,19,4
1491695034322,3,-57,-13,-8,-7,-3,0,0,-4
1491695034323,0,-2,-3,-4,-3,-4,-22,-16,-9
1491695034323,0,15,-1,-8,-4,0,9,19,0
1491695034369,1,-2,5,2,8,12,30,16,3
1491695034369,1,17,-4,-2,-6,-10,-14,-4,-7
1491695034370,2,-35,4,1,0,-2,-13,-22,-4
1491695034370,2,-17,-7,-7,-7,-2,-9,-6,-2
1491695034371,0,-41,-9,-10,-4,-12,-44,-37,-12
1491695034371,0,50,1,-1,0,5,23,53,17
1491695034372,1,-7,1,-8,-3,-4,-22,-7,5
1491695034372,1,5,-8,-3,-3,-4,-4,-10,-10
1491695034418,2,-21,-2,24,3,2,0,-5,-1
1491695034418,2,13,-4,-1,2,1,1,1,5
1491695034419,3,-5,-3,-4,-3,-2,1,-3,2
1491695034419,3,7,9,-5,1,-7,-4,2,1
1491695034421,1,-2,5,-3,-1,7,14,0,-10
1491695034421,1,18,-2,-3,-2,-5,-20,-18,1
1491695034422,2,-20,-2,-2,0,-3,-10,-2,-1
1491695034422,2,13,-3,2,3,4,12,7,4
1491695034466,3,-43,-13,-14,-17,-10,-14,-5,-17
1491695034466,3,84,8,3,5,3,7,-10,0
1491695034468,0,-15,-9,-1,-3,-6,7,29,7
1491695034468,0,-9,6,-6,-4,-3,5,-3,-14
1491695034469,2,20,-11,-9,-5,0,-4,7,4
1491695034469,2,-10,24,14,7,4,27,-10,1
1491695034470,3,-14,-5,-6,-5,-3,-28,-20,-15
1491695034470,3,45,2,2,4,4,-4,11,11
1491695034515,0,-23,-4,-8,-6,-7,-11,-12,3
1491695034515,0,-10,-31,-15,-1,-7,-11,-11,-10
1491695034517,1,72,-34,-3,-7,-4,17,-30,6
1491695034517,1,-38,-51,1,-3,12,-5,35,4
1491695034518,3,-15,5,-1,-5,-7,-10,-36,-4
1491695034518,3,-8,2,-12,0,-14,-56,-38,2
1491695034519,0,-34,20,6,1,4,30,-7,-17
1491695034519,0,15,16,-8,-5,6,-23,-15,-2
1491695034564,1,5,20,10,18,14,24,25,5
1491695034564,1,33,21,14,9,10,7,19,10
1491695034565,2,-24,16,0,1,-12,-20,-23,-24
1491695034565,2,-6,11,3,-7,8,36,15,10
1491695034567,3,-11,5,-7,-1,-8,-4,-21,-9
1491695034567,3,-44,-2,-3,-2,-2,-29,-1,13
1491695034568,0,50,-26,-12,-5,3,48,33,16
1491695034568,0,60,5,4,10,-23,-72,-65,-1
1491695034612,1,-25,-4,-7,-18,-6,64,72,9
1491695034612,1,-31,-3,-3,8,23,-32,-38,-11
1491695034614,2,70,8,-1,-1,12,-17,-55,-11
1491695034614,2,-68,-5,1,-17,-20,16,50,-15
1491695034615,0,-71,1,9,-16,-18,-12,34,5
1491695034615,0,11,-10,-6,17,37,49,-18,-16
1491695034616,1,-70,4,9,30,19,-30,68,-9
1491695034616,1,66,6,-9,-2,45,10,6,-2
1491695034661,2,-13,8,-6,0,-5,13,-42,-2
1491695034661,2,-37,-9,-1,-7,-26,-2,13,4
1491695034663,3,34,-44,-10,-18,-2,29,-2,17
1491695034663,3,-35,-46,-6,-16,-45,-82,-6,-34
1491695034664,1,23,11,-20,6,-13,-34,43,12
1491695034664,1,-7,22,14,21,-8,68,-26,0
1491695034665,2,37,-7,-7,-17,-18,22,38,-9
1491695034665,2,-25,19,10,-7,65,-28,2,19
1491695034710,3,35,-1,-1,11,5,24,-41,-7
1491695034710,3,-128,-12,-20,-14,-31,-79,71,-13
1491695034712,0,63,9,12,-18,20,-45,-71,14
1491695034712,0,43,-13,-8,-19,-52,21,51,38
1491695034713,2,-60,3,-8,5,11,-65,-29,-24
1491695034713,2,26,-16,-25,-41,-73,-75,-12,-23
1491695034714,3,-32,24,19,-11,77,95,13,-14
1491695034714,3,9,-29,-8,-30,-26,-80,-67,36
1491695034764,0,-3,-4,32,58,41,86,86,0
1491695034764,0,-31,-6,1,60,36,-89,-29,-21
1491695034765,1,41,-6,-11,-74,-106,22,-19,3
1491695034765,1,-50,0,-1,-5,35,56,67,7
1491695034766,3,-38,33,18,27,4,53,36,-22
1491695034766,3,6,22,-4,-66,19,94,-36,2
1491695034767,0,-50,39,23,53,67,-52,44,24
1491695034767,0,60,42,1,32,-54,-46,7,-19
1491695034808,1,-1,12,-32,-45,-8,-60,46,-7
1491695034808,1,-20,-11,-12,-11,-32,-24,-57,6
1491695034809,2,-36,-29,-12,11,-32,68,6,-21
1491695034809,2,-20,-11,43,48,127,127,67,-3
1491695034812,0,45,-9,7,3,-1,34,-39,17
1491695034812,0,13,-39,18,50,127,-80,53,38
1491695034813,1,5,8,38,72,-82,59,-14,-25
1491695034813,1,-28,-8,-8,-39,-26,-10,78,-14
1491695034856,2,-50,5,-31,-23,34,-92,-74,8
1491695034856,2,85,-12,-4,-37,-109,113,-50,-19
1491695034857,3,40,9,-1,-68,15,81,23,17
1491695034857,3,-25,6,3,118,109,-19,-20,10
1491695034858,1,5,-13,-45,-35,-49,-106,-128,-23
1491695034858,1,2,16,19,49,-58,37,76,-2
1491695034859,2,-7,-24,11,0,-4,28,26,-6
1491695034859,2,-15,-8,-2,38,66,-14,21,7
1491695034905,3,12,-30,14,-55,-100,-7,-59,33
1491695034905,3,2,-12,11,31,127,5,-33,4
1491695034906,0,-21,4,-15,63,-64,-35,-16,-28
1491695034906,0,-9,27,15,-69,-68,-93,10,-7
1491695034906,1,-40,35,-13,-5,127,127,63,-21
1491695034906,1,85,52,-10,-15,-45,-24,15,16
1491695034907,2,-31,8,-5,-25,-56,-65,-57,-31
1491695034907,2,-3,15,-3,65,66,127,56,2
1491695034953,3,0,-10,38,-2,-31,-26,33,38
1491695034953,3,19,-23,-9,75,76,-79,-120,16
1491695034955,0,-1,-26,-4,-43,-29,80,95,-22
1491695034955,0,-34,-13,-27,-110,-118,-127,-114,-26
1491695034955,2,75,5,16,37,127,127,88,63
1491695034955,2,-53,-11,-5,-20,-128,-28,-109,36
1491695034956,3,40,8,19,50,117,-50,40,-2
1491695034956,3,20,9,22,11,-18,27,19,-57
1491695035002,0,-17,15,-34,-93,-113,49,-25,24
1491695035002,0,4,22,39,49,126,-7,-43,-43
1491695035003,1,-18,18,-13,12,-128,-109,-11,11
1491695035003,1,-9,16,-1,-35,-54,-68,-19,34
1491695035004,3,-10,-15,22,38,-12,-128,27,3
1491695035004,3,0,-17,-9,-42,-6,-6,-31,-29
1491695035005,0,6,-53,46,37,25,108,14,-22
1491695035005,0,20,-4,70,88,91,59,16,33
1491695035051,1,4,1,-61,-60,-25,94,63,-48
1491695035051,1,-38,23,12,-28,-110,-68,13,12
1491695035052,2,-10,15,6,13,65,-2,-26,5
1491695035052,2,-7,-1,-28,84,71,29,-49,1
1491695035053,0,18,-2,-36,-30,-44,45,79,5
1491695035053,0,-19,-28,25,28,-100,-82,-49,28
1491695035053,1,-2,5,-56,-14,78,77,1,-7
1491695035053,1,12,5,89,25,4,-18,-4,-29
1491695035100,2,-3,14,8,24,75,0,71,24
1491695035100,2,9,-9,-7,-71,-116,-7,28,-10
1491695035101,3,-8,-5,4,19,73,24,-35,19
1491695035101,3,-9,-4,-7,65,51,-69,18,26
1491695035101,1,-7,-123,42,1,-99,-67,-79,6
1491695035101,1,-27,-117,-5,30,108,1,18,-33
1491695035102,2,-7,-97,-14,-84,-108,32,39,24
1491695035102,2,-2,-43,-13,57,67,12,-12,0
1491695035150,3,6,17,28,68,8,46,60,-13
1491695035150,3,46,70,-2,-113,3,77,-17,-1
1491695035151,0,-20,45,-62,-21,-100,-67,-29,2
1491695035151,0,3,65,42,53,-76,-25,-17,31
1491695035151,2,7,89,46,59,1,115,13,-57
1491695035151,2,16,73,-32,68,127,-25,30,8
1491695035152,3,-9,35,-33,-95,-119,42,-60,26
1491695035152,3,-16,-28,-101,-55,-107,-107,-43,9
1491695035197,0,7,-12,44,70,65,-25,-24,7
1491695035197,0,1,-21,59,28,82,120,24,-35
1491695035199,1,-7,-13,-11,-61,-57,-128,17,0
1491695035199,1,17,0,0,10,78,111,21,6
1491695035199,3,-12,-56,19,86,-26,31,-24,-12
1491695035199,3,7,-5,8,6,103,17,-11,4
1491695035200,0,2,21,-7,3,22,-70,13,-9
1491695035200,0,-1,22,-3,-57,-76,-20,-1,4
1491695035295,1,-22,25,-32,-38,-73,-58,-58,-5
1491695035295,1,-6,28,55,105,53,23,37,25
1491695035296,2,27,-7,-5,-57,91,3,-61,-33
1491695035296,2,-46,-10,-55,-128,-128,-90,-76,-16
1491695035296,3,23,10,-35,53,125,31,20,-15
1491695035296,3,-2,5,64,-24,-7,58,16,7
1491695035297,0,-1,-23,-32,-90,-15,17,3,28
1491695035297,0,12,-14,5,49,22,-24,-7,15
1491695035343,1,-4,11,-15,19,-62,47,-3,12
1491695035343,1,-7,17,26,47,24,1,-4,-22
1491695035345,2,8,0,34,62,92,60,22,-7
1491695035345,2,-7,-4,8,-80,-109,-20,-16,-15
1491695035346,0,-10,-3,-37,-68,-106,-65,-29,-14
1491695035346,0,14,39,40,57,-63,62,43,17
1491695035346,1,24,8,30,40,80,-23,-21,28
1491695035346,1,-14,1,16,84,105,-47,-26,0
1491695035392,2,6,-22,10,52,8,30,24,-13
1491695035392,2,6,21,20,-62,46,44,62,3
1491695035394,3,-16,-14,-22,-84,-95,-1,-34,-15
1491695035394,3,2,0,-7,31,-56,-70,-6,-7
1491695035395,2,9,-3,-10,14,-76,-29,-21,11
1491695035395,2,-3,6,55,102,114,49,33,-23
1491695035396,3,-9,-20,-18,-30,43,-39,-15,-8
1491695035396,3,-6,-3,5,-64,-128,-16,-5,12
1491695035441,0,-11,-4,-23,-5,10,40,17,-10
1491695035441,0,9,26,4,-11,13,19,-17,15
1491695035442,1,-11,5,-42,-83,-69,-49,-20,-27
1491695035442,1,-4,25,59,100,127,7,15,-3
1491695035444,3,4,-8,-29,-20,-59,-35,2,-2
1491695035444,3,-13,8,-47,-60,-18,-41,-4,2
1491695035444,0,-1,20,47,25,28,-29,-19,-4
1491695035444,0,-9,1,-10,50,55,10,9,-3
1491695035490,1,0,12,39,59,69,32,1,5
1491695035490,1,-8,4,10,7,-61,16,3,-20
1491695035491,2,-9,13,42,36,89,37,26,-13
1491695035491,2,18,-17,-30,-62,-54,-84,-45,32
1491695035492,0,-12,-37,-10,33,14,12,0,-1
1491695035492,0,10,-3,26,19,25,8,8,-1
1491695035493,1,2,1,15,6,33,33,15,-12
1491695035493,1,24,2,-3,-10,-28,5,-4,4
1491695035538,2,28,-1,11,17,63,-2,1,-1
1491695035538,2,8,-15,-13,2,-29,34,1,-10
1491695035540,3,-5,-8,5,-58,-36,-25,-2,10
1491695035540,3,-19,-20,-27,-4,-2,2,-17,0
1491695035541,1,11,21,-27,11,69,68,36,-8
1491695035541,1,18,29,26,0,11,40,10,-15
1491695035542,2,-19,30,-37,-50,-73,-60,-46,14
1491695035542,2,-18,5,-15,-17,-54,-16,2,-7
1491695035587,3,6,-11,-8,48,43,13,2,-11
1491695035587,3,25,-35,58,39,53,30,13,15
1491695035589,0,30,-2,-63,-92,-8,1,1,9
1491695035589,0,-28,-11,-46,-20,-8,-17,-24,-1
1491695035590,1,27,17,-2,35,1,19,11,0
1491695035590,1,-12,-12,-26,-18,21,7,-1,-1
1491695035591,2,-11,-16,-6,5,-15,-7,9,1
1491695035591,2,-11,2,27,-10,0,-16,-15,9
1491695035636,3,-28,-48,-16,28,29,-10,-13,-3
1491695035636,3,18,1,6,-19,-34,-7,-11,-3
1491695035638,0,-19,-7,-3,7,-6,1,17,-9
1491695035638,0,14,30,-22,16,20,4,0,-3
1491695035639,2,3,-18,1,26,19,15,-5,-4
1491695035639,2,-16,-8,-14,-16,-31,-17,2,-8
1491695035640,3,-19,16,20,-10,-14,0,-3,6
1491695035640,3,26,13,-9,-14,-2,-7,1,6
1491695035685,0,0,58,19,-16,-8,-13,-20,-10
1491695035685,0,0,25,-8,20,5,-3,9,8
1491695035688,1,-2,18,3,-4,25,-1,-23,-10
1491695035688,1,-26,-11,-22,-4,-47,-11,4,-9
1491695035689,3,-2,10,0,8,-4,-15,-1,1
1491695035689,3,-14,-8,-29,-22,-14,-8,-4,-6
1491695035690,0,2,-15,-17,-12,-12,10,3,-1
1491695035690,0,-3,-12,12,12,-4,10,-5,-5
1491695035734,1,-5,19,-26,11,5,8,10,-2
1491695035734,1,-8,15,8,-79,-27,-10,-16,2
1491695035736,2,11,8,-15,8,6,6,10,3
1491695035736,2,-8,-9,15,20,17,-4,-15,-6
1491695035739,0,-2,-5,7,-39,-46,-28,-6,1
1491695035739,0,3,-29,0,1,-17,-7,-3,-8
1491695035741,1,10,-22,1,-22,-5,4,2,0
1491695035741,1,4,-5,5,26,22,12,1,1
1491695035788,2,0,3,8,-5,9,7,-1,-8
1491695035788,2,16,21,1,28,16,0,-2,-4
1491695035790,3,5,17,16,-3,-25,-25,-7,8
1491695035790,3,-9,23,2,-27,5,-20,-14,-5
1491695035792,1,-10,-9,-8,-11,-4,-5,2,-1
1491695035792,1,-10,-1,-7,-4,-17,3,4,2
1491695035793,2,11,7,-18,11,29,-10,-10,-7
1491695035793,2,-22,17,38,-5,-10,-35,1,5
1491695035832,3,-2,1,-12,-4,-7,4,-12,-7
1491695035832,3,12,53,-3,9,9,8,9,-4
1491695035834,0,-4,9,10,1,3,7,-3,1
1491695035834,0,7,-9,-9,-14,-20,-5,3,8
1491695035835,2,7,16,-2,6,5,-4,5,0
1491695035835,2,3,13,14,52,33,3,-11,-5
1491695035836,3,-8,-8,-5,-16,10,31,29,10
1491695035836,3,-39,-24,-23,-8,-35,-17,-8,-3
1491695035881,0,-16,-4,25,-7,-9,4,17,5
1491695035881,0,9,-23,-12,4,5,-4,-24,-11
1491695035883,1,-23,-1,-7,-33,-9,-2,9,-5
1491695035883,1,-21,-10,0,15,8,4,11,-2
1491695035884,3,31,12,26,27,-2,7,7,-5
1491695035884,3,39,18,6,-6,-7,-5,1,7
1491695035885,0,0,35,1,-11,-19,15,9,1
1491695035885,0,24,41,10,-8,-14,-33,-24,3
1491695035929,1,10,32,-6,19,24,11,8,-8
1491695035929,1,-33,-24,1,-7,-14,-9,5,3
1491695035931,2,-24,-12,-7,6,14,-11,-21,-7
1491695035931,2,34,-11,-6,0,-2,39,26,5
1491695035932,0,3,-6,12,-6,-10,-15,-17,-7
1491695035932,0,-37,-20,-8,-15,-5,-11,22,5
1491695035933,1,-19,-18,10,31,25,16,-28,-8
1491695035933,1,5,-4,1,2,-3,-7,0,-12
1491695035977,2,7,-14,-25,-18,14,19,4,3
1491695035977,2,-8,-12,18,-15,-41,-35,8,10
1491695035980,3,-11,-3,6,3,-10,14,-2,-5
1491695035980,3,22,6,6,4,18,-11,-6,-17
1491695035981,0,11,-7,-7,19,5,28,-6,3
1491695035981,0,19,-2,-1,-10,1,-51,-8,-14
1491695035981,1,-19,7,-27,-21,2,22,22,9
1491695035981,1,8,9,11,24,39,33,-1,2
1491695036026,2,-13,16,-7,-28,-64,-53,8,4
1491695036026,2,-44,3,-19,-21,-25,14,-4,-4
1491695036028,3,-29,11,3,6,14,30,27,-11
1491695036028,3,40,17,2,9,-6,-66,-56,17
1491695036030,1,50,-9,-13,-4,-31,-17,-35,-4
1491695036030,1,-36,-4,-25,-25,-41,25,20,-3
1491695036031,2,19,11,7,17,-10,0,-7,-8
1491695036031,2,-1,15,24,38,80,101,15,-10
1491695036075,3,-65,-1,-16,-29,-55,-59,8,3
1491695036075,3,57,-10,-25,-19,-21,-59,-25,-5
1491695036077,0,-6,-5,12,4,16,11,-6,-15
1491695036077,0,6,-21,-18,-3,-42,-62,-3,4
1491695036078,2,5,-3,-12,2,-16,-78,-53,-3
1491695036078,2,24,-8,11,-15,-75,30,12,20
1491695036080,3,65,2,-4,4,72,28,-3,-16
1491695036080,3,-50,-8,-7,-6,-40,-90,7,5
1491695036124,0,-20,-17,6,21,58,103,-3,-21
1491695036124,0,61,21,3,-18,-26,-68,6,26
1491695036125,1,1,5,-21,-24,-63,-19,-18,19
1491695036125,1,45,6,28,14,-22,36,-25,-19
1491695036127,3,-27,-11,-2,-16,90,19,-1,-6
1491695036127,3,49,-12,-7,1,-22,83,-1,6
1491695036128,0,-13,-15,-14,1,-47,-36,42,24
1491695036128,0,-34,-2,15,20,13,18,-27,-21
1491695036173,1,-20,-3,-8,-26,-65,0,7,-17
1491695036173,1,-40,33,3,-40,-27,-23,8,13
1491695036175,2,77,51,17,16,20,-8,-46,-6
1491695036175,2,-29,10,-14,19,12,35,35,-6
1491695036176,0,19,-11,-16,-30,19,-9,-53,-3
1491695036176,0,-5,-9,-16,15,0,52,10,-9
1491695036177,1,18,4,39,39,29,-17,1,18
1491695036177,1,-68,-15,-15,-37,-17,64,20,-12
1491695036221,2,14,-74,0,-17,-25,44,30,3
1491695036221,2,-13,-6,-3,9,51,-53,-49,-15
1491695036223,3,0,56,-11,-3,-54,-43,10,13
1491695036223,3,-24,58,3,17,-15,-7,28,-26
1491695036224,1,-61,-23,-12,-34,-10,28,5,2
1491695036224,1,6,-67,-9,0,-1,99,-16,-18
1491695036225,2,0,-41,7,-31,-87,-93,-11,11
1491695036225,2,49,-52,-7,20,38,58,4,17
1491695036271,3,2,10,8,29,17,-44,-20,-10
1491695036271,3,3,14,11,28,83,95,-2,-5
1491695036272,0,-15,54,-6,-3,-27,60,5,-7
1491695036272,0,-13,103,11,-26,-3,-82,-16,5
1491695036274,2,-43,14,1,-14,-21,34,22,7
1491695036274,2,57,-19,-13,-5,21,2,26,7
1491695036275,3,18,-26,-1,-13,-24,19,-33,-8
1491695036275,3,-44,-47,-4,13,11,-73,29,-6
1491695036319,0,-29,-25,6,6,13,58,-7,-5
1491695036319,0,61,-38,-16,-14,-42,-31,-52,-5
1491695036321,1,-14,-53,7,12,25,-55,-13,22
1491695036321,1,-10,7,11,2,9,26,14,-27
1491695036322,2,58,-13,-27,-30,-53,-110,7,2
1491695036322,2,-17,8,12,8,60,86,23,-10
1491695036323,3,14,-21,-16,-1,-64,-87,-37,-4
1491695036323,3,20,-6,-1,3,-6,31,-18,4
1491695036368,0,-54,-6,8,9,50,22,61,-8
1491695036368,0,-7,-17,-11,5,11,60,-27,6
1491695036369,1,4,-33,-16,-37,-35,-68,-30,-23
1491695036369,1,44,-1,13,-3,8,36,12,7
1491695036371,3,3,-6,14,12,20,59,6,-18
1491695036371,3,-42,-2,-14,-18,-25,-22,15,11
1491695036372,0,33,15,21,-2,-27,100,-13,6
1491695036372,0,1,1,10,19,57,-72,-48,-33
1491695036416,1,14,10,1,1,1,55,88,20
1491695036416,1,2,-15,-16,-21,1,-24,-57,-20
1491695036418,2,25,18,-7,-6,-29,-77,-27,-22
1491695036418,2,-30,15,2,-4,8,60,8,-6
1491695036419,0,-50,41,2,-17,-46,-62,-45,-16
1491695036419,0,-30,2,-11,-16,-29,69,17,-11
1491695036421,1,16,-16,-7,1,-13,-73,-21,13
1491695036421,1,-8,-14,4,8,10,61,-8,17
1491695036465,2,14,-27,-3,0,20,-27,-27,-26
1491695036465,2,26,-40,-1,-14,-40,-50,-28,15
1491695036467,3,-3,-23,3,3,38,79,-11,11
1491695036467,3,-68,-36,-10,-6,-19,-47,-20,8
1491695036468,1,-19,-9,-4,0,-2,-92,-15,11
1491695036468,1,-39,-11,12,-6,-31,-24,-13,1
1491695036470,2,75,-15,-9,-7,5,-3,1,3
1491695036470,2,-20,6,1,4,5,35,37,11
1491695036514,3,-15,-18,-8,-6,-7,-14,-27,-12
1491695036514,3,14,-11,4,10,14,-9,24,-8
1491695036519,0,-50,-22,-10,-14,-29,20,-15,-22
1491695036519,0,30,8,7,9,40,-12,36,5
1491695036521,2,-43,-7,-12,-2,-16,-37,16,-9
1491695036521,2,38,1,-6,-22,-26,-20,-42,-8
1491695036525,3,4,4,8,5,-17,-53,-11,-3
1491695036525,3,-1,2,-4,7,52,27,1,1
1491695036564,0,13,26,15,18,4,38,25,16
1491695036564,0,-45,-9,-6,-3,-2,-19,-10,-18
1491695036567,1,41,-8,-4,-15,-11,17,39,4
1491695036567,1,-8,-9,-13,-10,-25,1,-9,-5
1491695036571,3,8,-7,3,-3,13,22,-38,-7
1491695036571,3,3,-15,-9,-4,-20,-19,3,5
1491695036573,0,-2,-12,11,9,23,35,0,-3
1491695036573,0,-24,-22,-10,-7,-3,-45,-16,1
1491695036612,1,3,-3,12,-1,-7,-13,-5,-10
1491695036612,1,16,-3,2,1,-15,-33,11,3
1491695036615,2,11,13,-5,-6,8,21,18,10
1491695036615,2,15,16,3,-1,1,25,-4,-1
1491695036618,0,-37,1,2,-1,-26,-1,-45,-7
1491695036618,0,19,1,-5,-12,7,74,50,10
1491695036622,1,-12,-20,-8,-9,-8,-66,-55,28
1491695036622,1,24,-17,-6,2,11,28,-13,35
1491695036660,2,9,-1,19,18,15,-2,21,10
1491695036660,2,-78,7,11,8,5,45,4,-52
1491695036661,3,19,2,1,5,-1,25,26,-42
1491695036661,3,-12,15,-6,-8,-6,-45,22,-32
1491695036662,0,30,9,-9,3,-2,-48,-6,-44
1491695036662,0,-3,3,-7,-6,-19,17,15,-1
1491695036663,1,-7,15,8,7,14,-27,-22,-9
1491695036663,1,30,2,-3,1,4,6,-24,27
1491695036709,2,-34,-14,-15,-16,-1,-23,-25,23
1491695036709,2,89,-16,-4,-16,-4,52,-21,29
1491695036710,3,-33,-15,-11,-4,0,-24,10,36
1491695036710,3,-15,-10,11,8,-3,3,5,-8
1491695036711,1,15,10,-5,-16,-20,67,17,-25
1491695036711,1,-23,-11,-9,-13,-11,-55,-19,29
1491695036712,2,6,1,3,1,-9,9,-8,2
1491695036712,2,-53,-13,-2,10,-1,-51,-59,-33
1491695036757,3,-23,4,7,4,-4,76,42,9
1491695036757,3,-31,1,-5,-1,33,8,-10,-9
1491695036758,0,25,0,-14,-12,-16,-8,42,4
1491695036758,0,-35,-1,8,-2,-11,-20,-31,16
1491695036759,2,-31,-2,1,-6,-1,-98,17,18
1491695036759,2,-20,-5,-5,3,-17,7,-8,-18
1491695036761,3,14,-11,-15,-26,-12,25,10,-2
1491695036761,3,-10,16,13,17,8,66,35,-13
1491695036806,0,15,0,3,9,-3,-59,-64,11
1491695036806,0,20,11,8,7,11,10,34,-4
1491695036808,1,4,-4,-4,6,3,95,30,-16
1491695036808,1,-25,-9,-15,-23,3,-67,49,-1
1491695036809,3,-16,-6,32,8,6,-30,-43,1
1491695036809,3,-16,-16,-10,-11,-23,-32,-2,6
1491695036810,0,-47,16,11,7,1,49,-38,-11
1491695036810,0,28,3,-7,-4,-20,65,-10,-1
1491695036855,1,-34,18,-3,14,49,-75,44,-24
1491695036855,1,25,4,8,14,-18,-42,-50,-19
1491695036856,2,-68,0,-6,-13,-14,-23,20,-10
1491695036856,2,77,29,10,14,42,88,67,7
1491695036857,0,-35,6,-5,-4,-47,38,12,3
1491695036857,0,-35,-9,-14,-15,39,-118,-37,-30
1491695036858,1,-13,7,5,-14,-26,108,2,8
1491695036858,1,49,-11,-10,-16,-15,-27,-24,5
1491695036904,2,-20,1,2,0,-34,8,26,33
1491695036904,2,-16,-25,-5,10,50,40,17,9
1491695036905,3,17,-8,-10,-27,-27,-93,-48,20
1491695036905,3,-35,6,14,19,35,83,61,8
1491695036907,1,0,-14,-18,-20,-73,-70,-13,-28
1491695036907,1,11,14,-4,-41,-57,-29,33,8
1491695036908,2,5,-15,-13,14,45,14,21,-28
1491695036908,2,-8,14,-2,-10,-32,62,-4,20
1491695036953,3,-29,-8,35,14,-9,-66,-23,4
1491695036953,3,-3,-9,-15,10,-10,62,15,35
1491695036954,0,-53,-16,3,27,80,88,24,14
1491695036954,0,42,-8,2,-24,-55,-109,-70,-9
1491695036955,2,-8,1,-8,-14,60,-114,-52,-2
1491695036955,2,-33,-15,-8,24,-30,29,-29,-2
1491695036956,3,0,-12,-20,-53,-88,47,1,0
1491695036956,3,22,-21,-45,-91,63,-128,-85,3
1491695037001,0,-3,2,38,45,-76,112,61,6
1491695037001,0,-72,5,18,60,91,77,60,-20
1491695037003,1,-3,-14,-34,45,-25,-72,-42,5
1491695037003,1,52,-1,15,-59,-82,60,62,6
1491695037004,3,101,14,3,39,127,3,97,-4
1491695037004,3,-59,9,-8,18,-109,-5,-81,-47
1491695037005,0,12,-7,-56,-109,-70,-21,10,1
1491695037005,0,10,-8,22,-8,-76,-113,13,-5
1491695037050,1,-61,-16,-4,13,61,113,72,43
1491695037050,1,23,-22,29,92,98,47,-49,8
1491695037052,2,69,1,-2,17,10,-110,9,18
1491695037052,2,-74,7,-10,-42,22,117,66,5
1491695037053,3,43,31,17,4,9,94,-85,-49
1491695037053,3,-120,-12,-8,-47,-122,-98,-8,-12
1491695037054,0,-12,16,21,-17,-69,127,2,-51
1491695037054,0,28,5,-56,-60,58,-96,10,19
1491695037099,1,-48,-38,20,70,-32,-21,-46,9
1491695037099,1,-42,-10,4,-18,63,105,59,17
1491695037102,2,74,0,-6,60,7,-13,9,34
1491695037102,2,7,1,18,-7,-12,46,38,-6
1491695037104,0,11,-2,-61,-113,-119,-41,-19,-23
1491695037104,0,-23,-32,-14,-62,-100,-68,23,-4
1491695037107,1,16,-14,28,-1,48,-128,-76,5
1491695037107,1,4,-11,6,75,-10,61,41,10
1491695037147,2,-62,1,6,25,127,61,3,10
1491695037147,2,0,22,19,-13,-24,63,9,-1
1491695037149,3,34,12,-1,74,82,-78,-67,7
1491695037149,3,-30,32,-7,13,-105,0,64,-50
1491695037150,1,-19,-41,-26,-1,-83,93,82,61
1491695037150,1,-11,-11,9,-41,-26,79,-109,-8
1491695037152,2,48,-5,54,96,127,-96,58,18
1491695037152,2,-42,-26,0,-2,-75,-12,-39,5
1491695037196,3,22,12,-3,-128,-128,97,72,-32
1491695037196,3,-11,-17,-50,-27,-29,-1,9,-16
1491695037197,0,39,-6,-10,56,26,72,34,10
1491695037197,0,35,6,49,13,-65,7,-91,11
1491695037198,2,-21,-18,45,25,57,5,-35,-22
1491695037198,2,17,6,10,-3,-65,-14,60,-54
1491695037198,3,-23,-6,-50,-75,-123,-36,-31,-35
1491695037198,3,-6,4,-31,-114,-39,14,61,28
1491695037245,0,21,25,48,99,48,20,-55,-14
1491695037245,0,-5,23,-44,18,-5,-62,46,0
1491695037247,1,-2,21,42,24,-11,27,-51,-28
1491695037247,1,-7,14,-51,20,116,26,14,10
1491695037247,3,34,9,57,71,-60,103,50,36
1491695037247,3,10,-114,-5,103,99,-128,-72,-6
1491695037248,0,-39,-67,16,-88,-116,25,27,30
1491695037248,0,23,-29,-13,-23,127,-26,-63,-34
1491695037293,1,-30,5,-39,-28,-128,-69,-10,10
1491695037293,1,32,63,45,44,127,73,-8,9
1491695037294,2,-20,39,-25,9,22,32,-32,14
1491695037294,2,-33,18,-22,13,-40,102,24,1
1491695037295,0,50,-49,29,72,51,83,25,9
1491695037295,0,8,-7,0,-73,-105,-38,-14,-11
1491695037296,1,-29,-14,-43,28,-5,-8,-6,-40
1491695037296,1,-27,19,-26,-43,-40,-85,-99,23
1491695037343,2,20,-93,-55,26,44,-78,24,41
1491695037343,2,23,-43,94,111,114,89,-1,9
1491695037344,3,-4,-21,8,-11,127,63,34,5
1491695037344,3,37,21,-11,-24,-128,-20,-32,-31
1491695037346,1,-23,48,9,116,127,49,12,-27
1491695037346,1,12,70,61,-17,85,19,34,13
1491695037347,2,-17,16,-9,-3,-16,-28,-72,-10
1491695037347,2,-15,21,-39,-59,-57,48,32,-4
1491695037440,3,20,-7,-36,-89,2,-104,-65,13
1491695037440,3,19,-4,-5,80,7,6,26,45
1491695037441,0,-26,7,-30,-42,-70,-73,-52,-29
1491695037441,0,-12,17,76,103,34,-10,3,11
1491695037441,1,9,13,46,64,53,52,30,0
1491695037441,1,17,-89,-37,-111,-92,0,37,-19
1491695037442,2,-18,14,-27,52,8,127,59,-49
1491695037442,2,-18,11,25,-62,-58,-52,-15,6
1491695037488,3,-41,-3,-52,-64,-73,-79,11,-10
1491695037488,3,82,39,102,64,14,76,-2,5
1491695037489,0,-18,27,-20,-114,-106,-68,-45,-33
1491695037489,0,-12,-30,-115,-20,-21,-38,13,-12
1491695037490,3,10,0,40,-41,-80,-61,-39,-11
1491695037490,3,-11,-26,-21,18,-61,58,55,-4
1491695037491,0,-6,-15,-30,-104,-79,20,-6,15
1491695037491,0,-11,-6,-5,30,-18,23,13,-15
1491695037537,1,10,-7,28,27,69,-15,-7,2
1491695037537,1,4,-60,-32,32,81,-28,-13,-8
1491695037540,2,-14,-67,41,-42,-26,58,1,20
1491695037540,2,8,-52,-2,32,-1,-10,0,-4
1491695037541,0,6,1,40,68,89,2,-3,12
1491695037541,0,-13,55,15,9,16,49,26,-2
1491695037542,1,8,60,14,44,-71,84,25,-33
1491695037542,1,-6,23,-34,-124,64,-91,-61,24
1491695037586,2,-11,-35,-31,4,-100,-88,-9,12
1491695037586,2,-23,24,23,39,24,50,2,15
1491695037588,3,26,8,7,-42,-44,-28,-4,-3
1491695037588,3,-8,-18,-38,-11,18,25,25,-13
1491695037590,1,10,11,-7,73,49,31,-6,2
1491695037590,1,27,21,19,-86,-53,-15,-3,2
1491695037591,2,12,23,-20,-32,-86,-67,-36,6
1491695037591,2,5,-24,-20,37,-17,2,4,-15
1491695037635,3,-17,-12,4,36,67,31,15,2
1491695037635,3,-23,-6,25,14,14,-13,-11,-8
1491695037637,0,-10,-9,5,-6,-11,25,8,-1
1491695037637,0,-1,-22,-34,-15,40,1,5,-8
1491695037638,2,-5,8,-2,28,-8,-4,-8,8
1491695037638,2,1,22,-5,30,3,-1,10,8
1491695037639,3,-20,8,7,-32,3,25,-1,-7
1491695037639,3,-18,0,-36,17,37,-30,0,-14
1491695037684,0,19,-37,14,17,37,39,0,-5
1491695037684,0,30,-40,25,-31,-10,-49,-13,0
1491695037685,1,51,-14,-24,-52,-70,-24,3,26
1491695037685,1,-8,7,-26,5,-15,4,-22,-10
1491695037686,3,9,21,-20,-61,-10,-4,-5,11
1491695037686,3,-7,17,14,18,-35,-10,2,-11
1491695037687,0,-8,6,14,19,24,7,-5,11
1491695037687,0,-12,2,-44,0,34,24,7,-14
1491695037732,1,-8,-17,10,-40,-45,-12,-7,-1
1491695037732,1,9,8,24,18,-13,4,3,6
1491695037734,2,-7,8,-21,15,8,4,-1,-14
1491695037734,2,28,8,26,2,13,-3,4,2
1491695037736,3,9,-6,-24,-5,-19,-13,-9,-2
1491695037736,3,8,-5,-22,2,-8,0,6,6
1491695037737,0,-10,6,13,22,10,6,23,-3
1491695037737,0,-43,-3,-7,-28,7,7,-15,-1
1491695037781,1,6,16,-39,7,34,-19,-7,7
1491695037781,1,-5,4,37,-26,-33,-3,-6,-3
1491695037783,2,-19,-3,-20,22,7,22,13,4
1491695037783,2,27,7,4,-9,-19,-27,-12,0
1491695037785,0,29,-10,-6,-6,3,-11,2,4
1491695037785,0,-25,-5,17,5,-6,11,10,-3
1491695037786,1,14,-10,-9,-17,1,10,-7,2
1491695037786,1,-34,-9,-3,30,-9,-13,0,-11
1491695037830,2,-10,6,-5,-35,-3,4,2,1
1491695037830,2,-5,-6,-4,30,10,16,9,-5
1491695037833,3,-24,-24,-19,-40,-34,-16,-9,2
1491695037833,3,-29,10,29,15,6,7,11,10
1491695037834,1,0,7,10,12,17,1,1,2
1491695037834,1,-41,-6,-26,-5,-4,-20,-48,-26
1491695037835,2,17,8,0,-9,-32,-41,-1,4
1491695037835,2,1,35,12,-19,-9,5,-15,-13
1491695037879,3,-14,18,29,19,3,17,19,7
1491695037879,3,-11,12,-20,5,29,18,8,3
1491695037881,0,-4,24,-12,-1,24,-3,-4,0
1491695037881,0,24,-13,3,-4,-10,36,8,5
1491695037882,2,14,-11,-9,0,9,-15,-33,-11
1491695037882,2,-27,-21,12,9,47,16,16,5
1491695037883,3,-12,6,-10,-16,-28,-12,4,-3
1491695037883,3,10,21,4,7,-46,-4,-30,10
1491695037928,0,-3,-15,2,21,43,-2,8,-2
1491695037928,0,-4,-9,-9,-5,43,15,10,-9
1491695037929,1,-11,-19,5,-2,-1,-32,0,7
1491695037929,1,7,-19,-6,-30,-38,-18,-26,-2
1491695037930,3,-9,53,-18,5,56,92,40,3
1491695037930,3,2,57,8,-16,-26,-59,1,-2
1491695037931,0,-7,39,28,15,18,41,-10,-8
1491695037931,0,2,-4,-12,9,-13,11,-3,-10
1491695037976,1,12,-11,-2,-40,-25,-21,-23,-8
1491695037976,1,-47,-20,-32,1,-33,-16,4,11
1491695037978,2,-65,-10,10,1,-32,33,8,3
1491695037978,2,-100,-7,-4,-4,6,-67,-27,-8
1491695037979,0,22,-32,-3,-14,-46,-35,-11,-13
1491695037979,0,95,0,-15,-8,-15,17,5,6
1491695037980,1,61,-16,-11,-1,18,22,20,1
1491695037980,1,54,-16,43,32,24,-27,-4,2
1491695038025,2,51,-9,7,5,27,13,-26,-25
1491695038025,2,41,-3,-16,-37,-92,-61,-17,-1
1491695038028,3,27,-2,-4,2,16,19,19,5
1491695038028,3,63,-3,-26,-8,17,21,9,0
1491695038029,1,-63,16,1,7,-36,-9,-37,-4
1491695038029,1,-46,6,-21,2,5,3,12,3
1491695038031,2,-40,14,-24,-34,-41,-49,-33,1
1491695038031,2,13,-1,-2,-18,-21,32,23,1
1491695038074,3,25,5,-11,19,9,-56,-9,-17
1491695038074,3,37,-10,9,22,5,43,22,-30
1491695038075,0,9,-9,-14,-31,-2,-9,-19,7
1491695038075,0,-21,-11,-6,-15,-74,-35,4,12
1491695038077,1,43,-15,11,4,27,4,-8,18
1491695038077,1,-7,13,-12,-18,-33,-13,41,0
1491695038078,2,0,28,-8,42,117,48,1,-19
1491695038078,2,-31,7,8,-2,28,56,-19,-2
1491695038127,3,-53,-7,-12,-21,-76,-91,-24,-3
1491695038127,3,-26,-48,5,13,-29,-46,-8,10
1491695038130,0,67,-18,-4,-32,-57,-65,19,5
1491695038130,0,-21,-7,6,-9,-8,44,28,-21
1491695038135,2,-10,0,-13,-13,-23,-3,-37,-8
1491695038135,2,-45,-1,26,27,2,-73,-15,12
1491695038136,3,79,7,-4,-19,-42,37,-3,-16
1491695038136,3,-32,6,6,25,50,65,-25,-14
1491695038171,0,12,5,-2,8,15,-53,45,20
1491695038171,0,47,-4,-8,-11,-2,-1,-23,-9
1491695038172,1,-39,2,12,-10,2,67,38,0
1491695038172,1,-5,16,-7,13,-17,-55,-14,-14
1491695038174,3,30,11,1,4,30,-25,-4,-5
1491695038174,3,-9,4,-19,-28,47,6,-15,0
1491695038175,0,-114,-1,5,35,-4,40,-15,-17
1491695038175,0,74,15,-4,-18,-43,37,4,13
1491695038220,1,-41,35,-4,-20,5,13,49,-12
1491695038220,1,-4,6,-5,1,-9,-68,-41,7
1491695038221,2,-2,-2,5,23,51,90,60,14
1491695038221,2,1,-43,-16,3,-46,-71,-21,4
1491695038223,0,-45,-31,-8,-48,-97,-39,0,10
1491695038223,0,-21,-13,6,27,116,127,4,-14
1491695038224,1,-30,-8,-14,8,-69,-128,-80,-12
1491695038224,1,3,49,-10,-21,-53,6,2,7
1491695038268,2,1,58,6,-4,7,42,25,-6
1491695038268,2,-33,42,2,33,95,-96,-1,-2
1491695038273,3,10,9,8,6,87,127,-2,-4
1491695038273,3,42,-24,-11,-9,-59,-88,-1,7
1491695038274,1,61,17,13,25,-24,-66,-21,6
1491695038274,1,-45,-25,-1,9,36,53,41,0
1491695038275,2,39,-1,10,10,13,-43,-23,8
1491695038275,2,12,-18,8,19,39,28,25,4
1491695038317,3,23,-6,0,-18,-18,-21,-60,-3
1491695038317,3,-17,-9,-16,-18,24,22,62,-4
1491695038319,0,-5,31,7,0,-37,-22,-38,-1
1491695038319,0,3,48,-3,3,6,81,24,8
1491695038320,2,-14,-23,-17,-2,-10,0,39,-8
1491695038320,2,14,-73,-15,-17,-37,-77,-13,-14
1491695038321,3,77,-8,-3,-4,-10,51,-13,5
1491695038321,3,-10,-1,3,3,-9,-11,2,-12
1491695038366,0,-19,-2,-6,14,53,38,37,-6
1491695038366,0,-26,24,2,-14,-54,-16,-3,7
1491695038367,1,-32,-12,-9,-8,9,0,-17,0
1491695038367,1,25,-7,2,-1,-35,-22,-17,-4
1491695038368,3,21,1,3,-5,-1,-108,-27,13
1491695038368,3,-44,-3,-5,-3,-11,61,7,-13
1491695038369,0,2,28,9,5,-4,-80,-3,-6
1491695038369,0,36,100,-11,2,45,114,16,10
1491695038416,1,-90,93,7,6,-15,-82,-13,-6
1491695038416,1,100,47,17,4,-17,30,-6,1
1491695038417,2,6,-32,-18,-19,20,102,-9,-8
1491695038417,2,-6,-64,3,-3,-25,-35,-19,16
1491695038419,0,13,-67,0,-5,-49,-85,6,0
1491695038419,0,36,-47,-5,-1,11,-15,-5,16
1491695038420,1,24,-47,2,-2,-9,24,3,23
1491695038420,1,-37,-42,-9,-9,10,0,-22,-23
1491695038463,2,-10,-16,-5,3,14,26,23,-7
1491695038463,2,-19,-4,16,-1,-10,-42,-28,-7
1491695038465,3,-16,-17,2,6,18,9,32,0
1491695038465,3,2,-10,-7,-14,-19,75,11,-13
1491695038466,0,-5,12,2,-8,-31,-63,-43,4
1491695038466,0,34,-16,-17,-16,-32,-58,2,-14
1491695038467,1,-18,-30,-2,7,-20,-1,-8,-6
1491695038467,1,32,-12,-7,9,17,-5,14,-8
1491695038512,2,-1,9,3,2,17,68,22,-18
1491695038512,2,-37,-6,-6,8,18,35,-24,6
1491695038513,3,-25,-11,0,-1,-28,-12,19,-3
1491695038513,3,-4,-7,-14,-5,26,-52,-8,9
1491695038514,1,71,-8,19,16,23,44,-11,-15
1491695038514,1,23,-9,-9,-9,-42,-17,37,0
1491695038515,2,-45,-7,10,6,36,60,3,4
1491695038515,2,24,-10,-1,-10,-15,-117,-40,-2
1491695038565,3,-19,3,-10,-3,9,56,16,1
1491695038565,3,-26,33,0,3,11,61,9,-3
1491695038566,0,37,36,17,10,9,-56,-19,24
1491695038566,0,-6,5,-1,-1,-4,65,1,-5
1491695038567,2,4,28,0,-6,-5,62,-79,-17
1491695038567,2,-30,-2,-8,-1,22,-20,37,-15
1491695038567,3,11,20,4,11,-10,0,-13,-24
1491695038567,3,-5,3,-9,16,-16,-61,-9,4
1491695038610,0,5,-28,-21,-3,-11,39,19,5
1491695038610,0,31,2,-25,9,13,27,24,5
1491695038611,1,-39,-15,-26,1,-1,-56,-64,12
1491695038611,1,-25,-7,16,1,7,62,6,9
1491695038612,3,17,17,0,-4,-6,-21,25,13
1491695038612,3,-27,29,9,-3,12,80,-16,4
1491695038613,0,-27,-9,-9,-28,-62,-101,-10,-17
1491695038613,0,-21,25,13,7,36,-3,49,16
1491695038658,1,-17,-2,-5,-28,-54,-76,-23,-3
1491695038658,1,37,-17,-4,6,-19,1,39,29
1491695038659,2,-61,-14,6,18,40,17,-5,3
1491695038659,2,-28,0,3,-10,-21,7,14,1
1491695038670,0,34,7,5,29,-5,66,50,-11
1491695038670,0,-55,-10,-2,-11,-4,-91,-30,16
1491695038671,1,-38,-23,1,3,-7,22,21,6
1491695038671,1,104,7,-8,-13,-17,43,-16,21
1491695038707,2,40,11,0,-18,-2,-47,-29,-8
1491695038707,2,-13,-7,-12,3,-13,37,-46,-25
1491695038709,3,-78,7,-2,7,33,-8,39,-16
1491695038709,3,-1,14,22,20,2,26,38,-20
1491695038710,1,15,-13,-18,-39,-65,-43,25,19
1491695038710,1,-74,-12,-20,-44,5,-52,-13,-35
1491695038710,2,10,-13,-20,-8,-29,98,43,20
1491695038710,2,4,5,10,20,16,9,-6,-25
1491695038756,3,-16,36,13,35,-10,-60,-70,2
1491695038756,3,-34,40,-1,7,51,43,26,-34
1491695038759,0,28,39,-7,-30,-81,-90,-25,10
1491695038759,0,-23,21,6,33,64,127,57,-2
1491695038760,2,-77,-43,-7,13,-5,-77,-55,-20
1491695038760,2,121,-29,4,-29,-66,-123,8,30
1491695038760,3,-11,-17,13,31,-24,53,-36,22
1491695038760,3,60,-12,9,23,119,99,8,-29
1491695038805,0,3,-21,3,37,66,-73,70,43
1491695038805,0,19,41,0,-13,-85,93,-28,-37
1491695038806,1,20,6,-9,-37,101,-19,16,-15
1491695038806,1,24,-18,-16,-10,-113,-128,-71,26
1491695038807,2,-46,-28,14,10,-29,-38,11,18
1491695038807,2,49,-3,-2,-6,17,64,90,28
1491695038809,3,-30,1,4,15,99,127,-39,0
1491695038809,3,-124,-18,6,7,-35,-71,35,-6
1491695038853,0,60,-15,-12,15,21,-41,-13,-16
1491695038853,0,-7,7,21,63,65,-64,9,10
1491695038855,1,31,5,-19,-107,-123,39,123,6
1491695038855,1,-24,9,0,-19,-17,32,-111,-42
1491695038855,3,-6,16,6,63,68,111,28,-21
1491695038855,3,75,2,-6,-12,-79,-128,-90,51
1491695038856,0,-50,4,5,-12,-43,104,83,-19
1491695038856,0,3,8,-20,-57,31,54,-45,-8
1491695038951,1,-34,2,5,-6,33,79,43,10
1491695038951,1,13,-20,-22,-13,-63,-70,-33,27
1491695039001,2,39,6,14,0,9,46,-33,1
1491695039001,2,-12,-16,-24,-10,6,9,-56,15
1491695039049,0,22,21,-27,-50,17,97,35,-27
1491695039049,0,16,8,6,-34,-84,57,-20,23
1491695039051,1,113,7,-20,-46,42,-44,-80,-38
1491695039051,1,-94,8,47,115,127,40,53,-12
1491695039052,2,32,16,-53,-16,-28,-118,-11,-42
1491695039052,2,-29,-13,-37,-107,-80,-90,-63,-37
1491695039097,3,-31,-24,-1,100,48,23,-12,45
1491695039097,3,0,10,18,37,15,52,-58,-12
1491695039100,2,-9,-1,2,-104,-60,-29,-1,-16
1491695039100,2,-39,-2,-10,68,108,71,21,-14
1491695039101,3,-3,26,-5,-11,78,43,-48,-6
1491695039101,3,-25,14,8,63,76,62,28,29
1491695039102,0,-4,10,18,17,19,-79,26,-16
1491695039102,0,0,8,-17,-5,43,-2,-53,-7
1491695039146,1,-24,13,-33,-22,-57,45,63,-23
1491695039146,1,28,5,17,32,-27,-56,5,15
1491695039149,2,8,10,54,78,88,55,-39,-43
1491695039149,2,-24,36,-24,-95,-80,0,35,-34
1491695039151,3,11,-110,-26,-46,-103,-62,-24,23
1491695039151,3,-7,-72,-5,-43,12,-111,-28,11
1491695039153,0,-6,-34,-35,-44,-20,10,-31,5
1491695039153,0,8,22,22,2,-36,39,37,28
1491695039195,1,17,42,1,24,-7,42,6,-25
1491695039195,1,30,17,8,-31,-33,3,23,29
1491695039196,2,18,3,-17,45,102,3,-6,11
1491695039196,2,-28,-81,2,-46,-73,-9,-41,27
1491695039196,1,7,105,10,-37,9,38,-14,14
1491695039196,1,-3,37,33,127,126,59,3,-33
1491695039197,2,-27,35,-42,-85,-123,-27,-5,-10
1491695039197,2,1,27,-32,-69,-47,-2,35,11
1491695039244,3,24,67,49,127,87,-63,3,43
1491695039244,3,5,72,35,41,68,36,-37,5
1491695039244,0,16,-22,-29,-104,-108,9,41,-28
1491695039244,0,-22,-14,14,36,54,45,-15,-8
1491695039245,2,14,6,-8,8,36,-48,-43,12
1491695039245,2,-7,-10,29,98,-38,7,14,8
1491695039292,3,23,-38,-4,21,-32,27,-16,34
1491695039292,3,-25,15,3,-42,-40,-49,-33,-31
1491695039293,0,-7,-6,-19,-92,-111,-29,-5,-8
1491695039293,0,6,16,1,79,91,1,17,9
1491695039294,1,-4,23,30,66,68,93,14,-12
1491695039294,1,5,-2,43,3,100,92,50,-16
1491695039295,3,-16,1,-40,-113,-31,-39,-9,-4
1491695039295,3,-2,3,6,54,92,23,-12,18
1491695039341,0,5,13,38,114,-27,92,102,-9
1491695039341,0,2,-9,-72,-111,-48,-86,-87,-33
1491695039343,1,-31,-13,-19,71,-75,-44,-20,-7
1491695039343,1,10,11,8,3,-23,12,37,7
1491695039344,2,5,113,79,127,127,127,27,3
1491695039344,2,4,-31,-10,-64,-40,45,19,15
1491695039345,0,-10,-76,53,108,91,116,37,-3
1491695039345,0,9,-27,6,-52,-37,-55,-4,-19
1491695039390,1,-8,-2,-9,11,74,5,-2,-17
1491695039390,1,-17,3,13,11,-128,-29,-10,25
1491695039391,2,13,-28,-20,-27,-11,-38,-16,8
1491695039391,2,-2,52,39,94,127,34,13,-13
1491695039392,1,-4,-10,28,60,25,7,-6,-14
1491695039392,1,-8,-27,-6,-5,14,32,-6,-6
1491695039439,2,-15,-32,-29,-81,-67,-55,-14,-4
1491695039439,2,6,-1,25,27,8,19,28,10
1491695039440,3,6,-21,-4,26,23,26,3,0
1491695039440,3,2,20,-41,-59,-9,8,5,-15
1491695039442,0,-2,11,10,-14,-50,-36,-9,16
1491695039442,0,-14,29,-44,62,85,20,-16,-17
1491695039443,2,-4,-12,-16,-8,-28,-3,18,-7
1491695039443,2,-8,7,4,41,-11,10,14,-1
1491695039487,3,3,20,38,-14,30,-12,-6,11
1491695039487,3,0,-12,-33,4,13,-2,8,-5
1491695039489,0,-2,-7,3,27,24,25,-7,-3
1491695039489,0,37,-1,-41,-30,-28,-4,-1,-14
1491695039491,2,-9,4,-5,-19,-44,-30,-54,13
1491695039491,2,-23,-3,2,55,44,-17,4,-22
1491695039492,3,2,23,-9,-78,-114,-30,-14,22
1491695039492,3,-24,-18,-15,-10,7,18,8,-21
1491695039540,0,1,-31,31,57,38,17,9,5
1491695039540,0,15,-19,50,0,14,-15,-8,1
1491695039541,1,-5,3,-32,-15,34,37,10,-10
1491695039541,1,18,4,-11,-20,-76,-6,-7,-4
1491695039542,3,-7,-22,-16,37,27,13,10,-6
1491695039542,3,-17,-8,1,-13,-28,-10,-2,-5
1491695039544,0,-43,-25,-24,9,45,28,22,0
1491695039544,0,-81,-8,-23,-27,-53,-34,-42,4
1491695039585,1,3,-2,6,35,35,10,12,-14
1491695039585,1,41,-4,-27,0,16,3,1,-16
1491695039586,2,60,-4,25,45,35,13,11,-18
1491695039586,2,36,22,3,-37,-23,-1,-8,37
1491695039586,0,2,-5,-25,8,25,7,-1,-21
1491695039586,0,-19,-31,-9,-78,-40,31,5,-13
1491695039587,1,-20,-14,-48,15,-70,-69,-21,0
1491695039587,1,7,2,39,-7,-10,-5,3,5
1491695039633,2,-5,-33,0,9,19,16,-7,-1
1491695039633,2,16,3,-11,22,39,10,9,2
1491695039635,3,-1,-9,-49,12,29,31,16,-4
1491695039635,3,-27,19,32,-26,-51,-46,-38,2
1491695039636,1,-14,75,31,8,42,22,3,-9
1491695039636,1,-9,39,-48,22,31,12,4,3
1491695039637,2,2,31,-1,-80,-77,-23,-10,-1
1491695039637,2,-23,-12,7,3,1,-19,-8,3
1491695039682,3,-3,0,19,24,14,22,2,-13
1491695039682,3,-22,3,-9,-10,0,-2,12,2
1491695039731,0,-6,0,23,8,11,-7,12,-9
1491695039731,0,7,-2,-25,7,13,3,14,-7
1491695039828,2,6,-3,-13,6,25,7,-5,4
1491695039828,2,0,3,-15,-16,-23,-25,-9,3
1491695039830,3,-15,-10,-14,-16,1,0,11,3
1491695039830,3,-2,-4,12,16,17,20,0,-5
1491695039831,0,-5,13,0,27,40,8,16,-3
1491695039831,0,-5,8,13,-27,-28,-17,-13,-20
1491695039832,1,1,-22,-33,-31,-46,-16,-1,7
1491695039832,1,1,-8,3,17,3,-7,-1,2
1491695039877,3,17,-6,-10,-7,1,16,-1,-5
1491695039877,3,3,-9,-5,25,15,10,6,-4
1491695039879,0,-3,14,18,16,-32,-5,-12,-4
1491695039879,0,42,4,3,26,17,-10,0,13
1491695039880,1,-100,1,-6,-7,1,-42,1,17
1491695039880,1,-73,14,-4,-1,-11,40,17,-11
1491695039881,1,93,-2,12,21,34,34,-4,5
1491695039881,1,-13,-21,-13,22,16,-30,11,5
1491695039975,2,-34,-11,-5,-20,-14,-25,-19,5
1491695039975,2,-40,-3,-10,-25,-22,13,10,-3
1491695039981,3,35,7,-5,-4,-72,-17,-18,2
1491695039981,3,-10,-7,11,16,16,-5,-2,-8
1491695039983,2,31,-3,-7,8,4,-46,-10,20
1491695039983,2,26,-6,4,21,22,33,16,-9
1491695039984,3,-5,-1,4,7,48,23,36,3
1491695039984,3,-11,-22,-6,-30,-59,-39,-8,9
1491695040024,0,32,2,-11,-2,18,-10,3,-7
1491695040024,0,-5,23,12,9,-58,-23,-20,3
1491695040025,1,18,39,5,30,57,90,3,-6
1491695040025,1,26,17,-9,-13,21,-61,9,10
1491695040026,0,-24,1,-12,-6,-40,20,23,-5
1491695040026,0,-8,14,-4,8,-12,-15,-13,-11
1491695040027,1,-6,41,7,17,82,25,7,7
1491695040027,1,18,21,5,-26,-55,-34,-51,-9
1491695040072,2,-19,2,-7,-34,-23,-55,0,0
1491695040072,2,-32,7,-7,16,-1,38,-33,-22
1491695040074,3,92,-1,-17,-1,-60,-110,11,-4
1491695040074,3,-56,14,14,7,22,22,-51,-31
1491695040075,1,-62,-11,-5,-5,31,-38,1,-3
1491695040075,1,65,-3,-3,-18,-9,34,4,0
1491695040076,2,-9,-4,-5,1,11,-79,-3,19
1491695040076,2,19,-14,2,12,24,-19,-32,-8
1491695040121,3,11,0,18,-5,-76,115,66,30
1491695040121,3,-27,-19,-5,17,8,-80,-25,-34
1491695040123,0,12,-26,10,8,20,27,10,9
1491695040123,0,-44,6,-12,-36,-22,55,-5,-11
1491695040124,2,95,101,7,43,33,98,13,0
1491695040124,2,-17,39,-7,-6,5,-74,5,-16
1491695040125,3,-26,-20,-1,-20,-30,-60,-21,-12
1491695040125,3,-7,-23,2,-4,-33,51,50,-4
1491695040170,0,-33,-54,-9,-8,7,-29,-59,-17
1491695040170,0,23,-33,-5,9,17,18,41,15
1491695040172,1,2,-3,11,10,33,27,-15,0
1491695040172,1,8,-27,8,2,-9,-18,-3,13
1491695040173,3,-44,2,-25,-29,-63,57,-17,-5
1491695040173,3,20,41,0,22,12,-31,-7,-13
1491695040174,0,16,40,8,0,39,29,-1,0
1491695040174,0,-10,48,7,4,49,50,0,-15
1491695040219,1,-6,42,-8,-7,-28,-5,5,4
1491695040219,1,-38,-2,-21,-37,-60,-35,-47,-1
1491695040219,2,-21,-35,-7,-26,-54,19,-13,-4
1491695040219,2,64,-20,9,20,-3,1,27,24
1491695040220,3,-21,-33,14,38,92,60,11,-26
1491695040220,3,37,-39,-3,13,45,-74,21,30
1491695040222,0,-47,-39,-4,-5,-59,-48,-12,-17
1491695040222,0,-13,-30,-7,-20,-11,-34,6,16
1491695040267,1,7,-8,-5,-9,-34,23,-7,-5
1491695040267,1,30,-18,2,-2,23,86,28,-10
1491695040268,2,-36,5,-9,12,23,-40,0,6
1491695040268,2,13,13,1,-8,-35,21,-4,-8
1491695040269,0,25,-31,-5,4,-3,16,27,6
1491695040269,0,-16,-12,6,12,43,63,-38,1
1491695040270,1,-48,-13,-6,-3,-23,-123,15,-2
1491695040270,1,6,-3,1,2,29,41,-25,-17
1491695040365,2,17,33,3,-21,-34,15,20,4
1491695040365,2,38,99,-5,-16,-33,-78,-12,8
1491695040365,3,-19,89,-1,11,-14,27,-15,-7
1491695040365,3,-60,54,4,0,-32,-5,-8,-6
1491695040366,1,-11,-64,-10,-17,-28,23,3,-18
1491695040366,1,-21,-30,-4,-3,2,-42,12,13
1491695040367,2,-11,-35,12,0,0,5,-9,-9
1491695040367,2,1,-48,-2,-3,1,-10,1,15
1491695040413,3,-10,-31,-3,0,-5,-66,-36,-4
1491695040413,3,28,-32,3,-4,-5,12,4,7
1491695040414,0,9,-9,-3,-1,-5,57,1,4
1491695040414,0,6,-17,15,-1,12,16,4,26
1491695040415,2,-20,-2,-6,-25,-38,-15,-15,9
1491695040415,2,12,-34,-10,5,-9,12,9,-6
1491695040416,3,27,31,6,0,-23,36,9,-15
1491695040416,3,-1,-9,-2,-8,24,2,17,-11
1491695040462,0,-32,-30,-6,-5,-11,-1,-7,-13
1491695040462,0,59,5,5,17,-2,24,22,-14
1491695040463,1,-31,-22,-12,-26,-8,17,-12,-7
1491695040463,1,-2,7,-5,2,-12,-47,13,-8
1491695040464,0,-15,2,10,0,4,29,-8,-2
1491695040464,0,-13,0,-6,-8,-37,20,8,2
1491695040465,1,6,21,10,14,59,-53,26,-15
1491695040465,1,6,-10,-6,10,27,20,-4,19
1491695040511,2,-38,-5,-7,1,-10,33,4,-13
1491695040511,2,3,5,0,4,-2,18,-15,-3
1491695040512,3,27,-9,-9,1,-13,-59,-11,-4
1491695040512,3,-73,-3,-14,-19,-26,71,-11,-28
1491695040512,1,23,18,-4,8,0,42,-3,11
1491695040512,1,-27,15,-7,-6,21,-21,13,16
1491695040513,2,-12,12,9,-1,12,19,-27,13
1491695040513,2,-11,-30,-9,-18,-24,-49,-20,6
1491695040560,3,13,-13,12,-7,-13,32,-3,28
1491695040560,3,8,-27,2,-10,-23,-10,-1,6
1491695040561,0,-1,21,14,5,12,19,-19,15
1491695040561,0,90,6,20,19,60,24,18,17
1491695040561,1,-65,-14,-4,-1,-36,-63,24,-9
1491695040561,1,-4,22,29,0,13,23,-7,-8
1491695040562,2,-15,-12,-8,-10,-18,18,2,-27
1491695040562,2,-13,4,15,-1,21,31,-4,-16
1491695040608,3,33,17,24,10,-1,50,-23,-12
1491695040608,3,-17,-3,-13,-21,-6,-69,31,-9
1491695040610,0,-66,1,-20,8,-12,-33,-46,-24
1491695040610,0,-2,26,3,-27,-6,67,28,4
1491695040610,2,19,32,0,-5,-7,-84,41,15
1491695040610,2,-52,14,-22,-8,-36,23,-85,-37
1491695040612,3,36,-6,-9,-10,32,-75,-19,29
1491695040612,3,15,-27,14,25,32,64,48,-2
1491695040657,0,39,-7,9,16,-19,42,20,9
1491695040657,0,-56,2,-14,-37,-37,-53,-21,-6
1491695040658,1,-21,0,-15,-8,-7,14,35,-17
1491695040658,1,8,45,18,3,-22,40,-29,10
1491695040661,3,21,-37,-8,-47,-53,-94,-34,28
1491695040661,3,-55,-34,-10,-3,-12,49,25,-1
1491695040662,0,-7,1,-3,-5,-29,-62,-71,-2
1491695040662,0,12,3,1,23,10,31,92,-2
1491695040707,1,-15,8,-12,-39,41,95,-54,-41
1491695040707,1,107,6,12,30,-31,7,15,18
1491695040710,2,10,5,24,14,60,-58,12,2
1491695040710,2,-31,-5,-12,-22,-26,57,-20,-4
1491695040710,0,-2,-2,-12,31,-23,100,31,4
1491695040710,0,45,-16,3,5,61,46,-38,-15
1491695040713,1,-49,-8,-7,3,28,-40,0,-17
1491695040713,1,32,16,19,9,-55,-38,39,21
1491695040755,2,-15,-24,-6,-18,12,66,-7,-11
1491695040755,2,55,-22,-21,12,22,9,31,46
1491695040756,3,-36,-10,-12,-34,-28,-51,-15,-4
1491695040756,3,34,2,11,49,63,-47,3,9
1491695040756,1,37,27,-16,-4,111,124,25,-19
1491695040756,1,-22,-6,-6,15,3,-128,-83,-36
1491695040759,2,48,37,-9,3,-7,92,87,21
1491695040759,2,-59,3,26,-27,-71,50,25,-24
1491695040803,3,-23,9,-5,28,-42,-100,-101,-33
1491695040803,3,44,-13,-28,-69,-19,29,56,7
1491695040804,0,-4,-25,20,48,127,100,19,10
1491695040804,0,-69,-8,1,50,73,-26,-22,13
1491695040805,2,-9,2,-24,-70,-84,-128,-35,5
1491695040805,2,-22,-19,-41,-5,77,57,17,19
1491695040806,3,51,12,65,127,-46,27,-12,31
1491695040806,3,-10,36,21,73,127,118,16,14
1491695040857,0,-33,-5,-3,-40,-86,-126,24,-20
1491695040857,0,30,15,16,-104,-109,21,22,8
1491695040857,1,-32,-2,-14,-1,47,125,21,-21
1491695040857,1,-23,-52,16,66,-63,-88,-28,-2
1491695040858,3,34,-10,8,62,76,74,-44,3
1491695040858,3,-28,34,1,-69,-92,-34,104,9
1491695040901,0,-73,-51,-67,-53,127,-80,-108,-87
1491695040901,0,33,-4,25,24,-128,-128,-81,-19
1491695040902,1,-40,8,-7,-67,-54,95,64,24
1491695040902,1,20,17,-4,66,127,54,13,-16
1491695040903,2,5,1,47,85,31,23,67,42
1491695040903,2,0,4,6,-26,-77,-74,-74,-6
1491695040904,3,17,-5,-3,-37,65,76,17,-1
1491695040904,3,-16,14,18,42,97,36,-16,6
1491695040950,0,-33,3,-11,-22,-125,-14,-88,-55
1491695040950,0,5,-40,-36,43,-61,-77,-34,-28
1491695040951,1,-4,-17,-17,-56,28,-55,63,39
1491695040951,1,-17,10,0,17,28,127,-3,28
1491695040952,0,-4,13,16,-32,54,-56,43,-16
1491695040952,0,-10,-25,-12,-67,-102,-106,10,-26
1491695040954,1,-15,-20,-7,1,54,34,67,22
1491695040954,1,-7,-24,25,59,39,61,-38,-12
1491695040998,2,8,-7,-18,-49,-72,28,-22,13
1491695040998,2,5,-15,9,32,96,-48,-23,-15
1491695041000,3,13,-103,-31,-4,-77,-52,-46,-1
1491695041000,3,-35,-66,5,-87,-59,-14,89,22
1491695041001,1,0,58,53,108,64,0,-4,-11
1491695041001,1,14,36,14,-58,10,-33,34,15
1491695041002,2,2,17,-8,54,11,114,-9,8
1491695041002,2,8,8,-14,-39,-59,31,-6,27
1491695041047,3,-5,10,-18,-8,-55,-126,-33,-10
1491695041047,3,-20,-39,-5,50,29,61,27,-44
1491695041048,0,40,-60,26,-54,-52,-84,-18,15
1491695041048,0,-3,-93,-26,45,127,-45,-70,0
1491695041049,2,-1,70,31,127,126,102,37,19
1491695041049,2,21,71,38,-14,30,37,42,-15
1491695041052,3,48,54,1,-116,-128,-65,9,-7
1491695041052,3,-43,-11,-61,-72,-9,-128,-97,-21
1491695041100,0,20,36,33,107,60,28,13,29
1491695041100,0,2,52,-14,-51,-128,51,47,-7
1491695041101,1,-14,52,53,17,127,127,-17,-16
1491695041101,1,-5,8,-26,29,-79,-26,-31,-9
1491695041102,3,31,0,18,54,66,41,46,18
1491695041102,3,-3,-84,-1,-26,39,63,42,-14
1491695041104,0,-29,-109,-27,-119,-93,-70,-42,-30
1491695041104,0,-1,-49,-16,80,45,111,29,20
1491695041145,1,-1,37,49,54,33,65,3,-15
1491695041145,1,11,57,12,47,44,31,5,-2
1491695041146,2,-12,63,-25,-79,-51,-29,6,12
1491695041146,2,16,37,-30,-26,11,-87,-22,11
1491695041147,0,3,44,56,103,53,86,47,4
1491695041147,0,15,31,20,-51,18,35,41,-6
1491695041148,1,-13,23,3,50,127,-6,-1,-13
1491695041148,1,5,19,7,11,-5,10,1,-6
1491695041193,2,-7,20,-26,11,15,49,8,-20
1491695041193,2,-21,-16,11,-74,-64,-39,25,3
1491695041194,3,0,-81,-111,-106,-128,-123,-101,-8
1491695041194,3,-6,-11,10,40,51,-4,2,23
1491695041195,1,-14,-15,50,12,-25,51,37,9
1491695041195,1,-12,-46,-34,-51,-63,-128,-97,-10
1491695041196,2,18,3,-4,67,83,-11,-6,17
1491695041196,2,-15,-4,-2,-9,-20,102,38,-10
1491695041242,3,27,6,23,29,-21,-34,-27,-11
1491695041242,3,5,0,-50,-64,-58,-40,7,-29
1491695041243,0,-34,26,-31,-128,-128,-14,-24,-24
1491695041243,0,12,-19,7,4,105,-98,-49,44
1491695041244,2,9,34,-6,10,70,-14,-24,-26
1491695041244,2,-12,-5,-19,-61,-105,-56,-35,19
1491695041245,3,-12,-46,-32,1,17,-16,-13,8
1491695041245,3,8,-41,-3,-16,-59,-21,12,-2
1491695041291,0,-2,-9,-30,2,-16,41,25,-1
1491695041291,0,7,55,70,126,127,127,32,-9
1491695041292,1,-5,43,34,-29,46,-53,-10,5
1491695041292,1,-8,13,-13,-60,-128,0,7,-2
1491695041293,2,-2,20,-23,46,71,-7,-14,16
1491695041293,2,21,-50,-12,-58,-47,36,-9,11
1491695041293,3,-11,-42,-29,18,-1,-50,8,-10
1491695041293,3,-9,-33,19,-73,-74,-20,-4,-9
1491695041340,0,-1,-32,13,104,57,20,24,10
1491695041340,0,-2,14,-20,-91,-55,-18,-8,-30
1491695041342,1,-9,47,20,-20,-101,3,18,-10
1491695041342,1,18,34,1,49,126,-20,-4,7
1491695041343,3,26,-13,18,17,-10,52,29,4
1491695041343,3,-5,-34,-18,-60,-78,-48,-16,-9
1491695041344,0,-14,-63,12,24,-17,-13,20,-13
1491695041344,0,3,-13,9,14,41,55,20,-22
1491695041437,1,-11,16,-51,-85,-102,-81,-26,2
1491695041437,1,2,15,3,36,8,-7,-9,6
1491695041439,2,39,27,39,-11,-42,21,1,-8
1491695041439,2,20,14,18,73,99,29,20,6
1491695041441,0,-36,-26,-18,-9,-40,-78,-28,1
1491695041441,0,-32,4,12,5,-82,10,1,-8
1491695041441,1,-6,-9,16,27,80,23,8,6
1491695041441,1,1,3,7,72,97,37,14,-9
1491695041489,2,0,0,-11,-60,-26,19,-2,-4
1491695041489,2,4,-21,3,6,-48,-35,-20,11
1491695041490,3,-3,-1,24,26,15,-22,-2,-4
1491695041490,3,22,-17,3,41,35,12,5,2
1491695041491,1,9,12,-9,-15,29,47,9,-15
1491695041491,1,-10,19,-23,-24,-50,-28,-4,9
1491695041492,2,-10,15,5,13,2,-8,-1,1
1491695041492,2,-16,12,23,13,-5,-11,-3,-14
1491695041535,3,2,30,-27,-31,-7,2,-6,-10
1491695041535,3,18,-15,-33,-22,-6,-11,-11,-2
1491695041537,0,-13,-14,-28,-16,-15,1,-4,0
1491695041537,0,-13,20,1,1,-5,-17,-21,-8
1491695041540,3,-52,-37,-23,16,6,-9,-9,-7
1491695041540,3,-6,-5,3,-21,-23,1,-3,-7
1491695041541,0,-26,-15,8,9,-3,-1,0,2
1491695041541,0,-8,11,-18,-8,18,5,3,-2
1491695041583,1,-30,8,27,16,16,-7,-2,6
1491695041583,1,-27,-6,-12,-16,-4,20,3,-5
1491695041584,2,-27,-9,-42,-27,-37,-19,1,5
1491695041584,2,-6,1,24,4,-31,-16,-5,-7
1491695041585,0,5,2,10,27,29,12,-1,-10
1491695041585,0,-17,-9,-23,-16,17,5,-6,-6
1491695041586,1,6,1,-12,1,7,13,12,-7
1491695041586,1,3,13,14,-7,-20,-20,-2,14
1491695041633,2,7,-5,6,-6,-12,0,-8,1
1491695041633,2,18,-29,-37,-23,-2,-2,-6,2
1491695041635,3,4,11,21,4,-4,-1,-11,0
1491695041635,3,4,7,-17,24,11,-7,2,-1
1491695041636,0,13,11,17,8,-8,-7,-4,5
1491695041636,0,-7,-4,-19,13,15,46,13,-11
1491695041637,1,13,0,20,7,1,-37,-6,16
1491695041637,1,-13,1,10,-22,-6,-4,-19,-14
1491695041681,2,-6,-15,2,-17,-21,3,-4,-6
1491695041681,2,-10,-22,13,-1,1,-22,6,-2
1491695041682,3,1,-5,-6,-9,-15,1,-5,6
1491695041682,3,3,8,-12,2,5,1,-5,5
1491695041683,1,-2,23,-12,-36,-16,2,-3,3
1491695041683,1,0,9,5,1,-7,-2,-4,-2
1491695041684,2,-13,15,-13,8,-2,-6,0,-2
1491695041684,2,15,37,23,20,27,2,4,2
1491695041778,3,-14,43,-8,6,11,1,-3,-6
1491695041778,3,-17,51,-25,-15,-31,-15,-4,-13
1491695041780,0,-15,7,23,4,8,-2,9,1
1491695041780,0,-78,-44,-9,-11,2,-10,-10,-2
1491695041780,2,3,-27,-7,4,-7,-9,29,11
1491695041780,2,-8,-1,3,-10,-18,-13,-5,-10
1491695041781,3,-26,-18,-11,0,4,-9,-6,-13
1491695041781,3,-47,1,19,8,2,0,4,13
1491695041827,0,-68,6,18,19,-2,-15,-25,-6
1491695041827,0,-33,-3,3,14,19,19,25,8
1491695041828,1,5,23,-19,-16,18,33,-2,-1
1491695041828,1,27,61,-13,-15,3,2,14,-2
1491695041829,0,9,-4,-9,-9,-27,-14,-5,-4
1491695041829,0,47,-3,-4,0,11,-7,-1,9
1491695041830,1,8,2,9,23,45,53,0,0
1491695041830,1,20,-9,18,25,-26,38,24,10
1491695041876,2,65,-5,-7,-24,68,6,-18,-11
1491695041876,2,3,10,-19,-22,-32,-48,-40,-7
1491695041877,3,23,9,-10,-8,-25,-19,-6,-17
1491695041877,3,-4,-4,3,6,-21,-12,32,18
1491695041878,1,-15,-9,-20,-34,-5,-23,4,11
1491695041878,1,16,-21,14,10,-13,47,-6,-11
1491695041880,2,24,10,17,15,5,-32,-27,-7
1491695041880,2,-69,-10,-7,-19,-8,0,38,14
1491695041925,3,38,13,4,35,65,30,7,-12
1491695041925,3,-24,0,-4,-1,72,-19,56,22
1491695041926,0,5,11,-5,-10,-72,-19,-55,-20
1491695041926,0,2,16,3,-21,-14,-12,-48,-19
1491695041927,2,43,24,3,8,1,58,39,5
1491695041927,2,-53,22,10,-15,1,-40,-34,16
1491695041928,3,14,9,-19,-18,-62,-31,3,-12
1491695041928,3,20,-53,-12,-1,-2,-11,-9,-6
1491695041974,0,-25,-14,29,41,67,37,-7,15
1491695041974,0,27,-30,5,0,-3,-76,1,-30
1491695041975,1,1,-5,-4,-3,10,-16,-21,32
1491695041975,1,-11,18,-7,-3,-71,80,-33,-25
1491695041976,2,-7,3,-21,-67,-78,-24,21,8
1491695041976,2,9,-5,-10,15,30,-51,18,-1
1491695041977,3,-22,2,-10,2,48,61,-43,-38
1491695041977,3,65,27,15,37,-4,-42,46,28
1491695042022,0,-45,-1,6,-23,-83,-18,-34,-34
1491695042022,0,1,10,-9,3,88,38,17,-5
1491695042023,1,52,-1,-28,-20,-45,56,36,17
1491695042023,1,1,6,9,0,-40,-70,10,5
1491695042024,3,-31,5,6,-32,-83,-88,13,-1
1491695042024,3,-5,-4,-34,-48,-23,41,24,-17
1491695042025,0,-49,-34,-20,-15,-40,-82,-1,11
1491695042025,0,-15,-6,13,32,7,43,16,33
1491695042071,1,-2,-2,8,12,71,4,-32,-25
1491695042071,1,-5,-9,1,-13,35,36,-39,-22
1491695042072,2,-19,-11,-10,13,1,-49,20,-9
1491695042072,2,29,29,1,-7,58,125,-38,10
1491695042073,0,-46,-22,2,12,29,61,45,-15
1491695042073,0,67,-35,-5,5,-35,59,61,12
1491695042074,1,47,-42,4,-1,-72,0,-36,-1
1491695042074,1,-49,-35,32,15,105,74,-1,-37
1491695042121,2,-10,-10,-10,7,-3,-15,-4,-3
1491695042121,2,16,-16,-8,-49,-108,-55,40,6
1491695042122,3,-27,-8,-19,-4,26,23,-95,-12
1491695042122,3,62,16,-1,25,23,20,6,17
1491695042123,1,-53,13,-24,-51,-54,-63,-88,-24
1491695042123,1,30,55,-12,-7,-12,19,30,21
1491695042124,2,-15,8,-3,20,41,-9,-10,7
1491695042124,2,63,23,22,33,50,6,-5,1
1491695042169,3,-93,-29,-13,-12,-18,44,19,-8
1491695042169,3,31,-2,4,-16,-61,8,14,-4
1491695042170,0,-11,-33,-5,-25,1,13,63,-2
1491695042170,0,19,-27,3,20,15,18,-39,10
1491695042171,2,45,1,-15,-4,-31,-40,-5,-3
1491695042171,2,-48,7,21,-2,26,49,-8,-16
1491695042173,3,45,-3,5,7,4,-40,18,5
1491695042173,3,-9,15,3,-6,-8,36,-53,11
1491695042217,0,3,-22,-13,-15,-69,-35,-2,-9
1491695042217,0,-25,-14,7,-4,37,-9,-18,-9
1491695042219,1,26,-14,9,8,16,79,10,4
1491695042219,1,-22,-20,-12,-10,-25,-128,7,6
1491695042221,3,37,44,6,16,43,81,53,2
1491695042221,3,-18,36,6,15,62,-12,15,-13
1491695042222,0,-31,65,-7,-5,-18,6,-48,-28
1491695042222,0,-13,43,-2,-8,-31,21,53,27
1491695042266,1,51,-3,1,-18,-36,-60,-8,2
1491695042266,1,-20,-38,-13,-6,-4,73,-10,-6
1491695042267,2,-21,-35,10,9,29,13,-33,-2
1491695042267,2,49,-40,-4,0,7,3,12,-1
1491695042267,0,1,-38,2,-12,28,12,19,8
1491695042267,0,13,-20,-23,-2,-27,7,-17,-9
1491695042268,1,-33,-4,10,-2,-34,-31,-29,-8
1491695042268,1,51,-7,-6,-10,-1,-52,18,11
1491695042315,2,15,-22,-7,8,18,5,-14,20
1491695042315,2,-1,-26,1,-4,-9,-16,11,7
1491695042315,3,-24,-24,-4,-3,-4,-1,-7,10
1491695042315,3,-28,-54,-6,-11,2,29,-52,-1
1491695042316,0,28,-27,3,7,11,-15,18,14
1491695042316,0,0,-13,2,-9,-16,36,-16,-1
1491695042317,1,-46,8,-7,2,11,-43,18,6
1491695042317,1,-5,25,-9,1,-16,-87,-4,15
1491695042364,2,4,10,-5,-6,-8,44,23,8
1491695042364,2,-18,14,3,7,6,-40,23,2
1491695042365,3,29,6,-7,-7,-12,-1,8,1
1491695042365,3,-63,-15,-12,-6,12,39,6,-13
1491695042365,1,-15,5,34,25,39,84,43,-36
1491695042365,1,12,14,-5,-15,-19,-51,-31,-23
1491695042366,2,10,28,1,8,-12,-18,43,-19
1491695042366,2,-61,-10,-19,-23,-33,-15,-27,-38
1491695042412,3,37,22,3,13,11,19,-4,3
1491695042412,3,-26,19,3,3,20,65,32,-5
1491695042413,0,5,24,6,3,6,-1,12,2
1491695042413,0,8,0,7,15,-3,-83,-38,13
1491695042414,2,-2,-6,-1,-24,-16,-70,-42,-1
1491695042414,2,-28,-8,-6,6,24,79,20,10
1491695042414,3,19,6,-1,9,2,-6,23,7
1491695042414,3,6,19,-2,-9,27,22,-26,-7
1491695042461,0,-29,8,-12,-5,-29,-13,-9,-5
1491695042461,0,33,-16,-27,-11,7,14,-49,-21
1491695042462,1,9,1,-20,-13,-19,-6,-9,28
1491695042462,1,-38,-8,-2,1,-30,31,4,23
1491695042462,3,-38,-21,-21,-38,-59,-6,20,-13
1491695042462,3,-21,-2,0,-17,-15,33,-34,-41
1491695042464,0,-50,10,4,4,-7,31,57,-20
1491695042464,0,66,37,42,36,36,76,8,2
1491695042510,1,24,7,20,31,63,-86,-13,-16
1491695042510,1,-11,-23,-11,-13,1,-8,-7,-3
1491695042511,2,-13,-34,-17,-29,-28,15,15,7
1491695042511,2,4,-11,-6,1,-24,-41,1,14
1491695042512,0,-53,-10,-4,13,43,72,2,-25
1491695042512,0,1,-16,-18,-49,-52,-45,4,11
1491695042512,1,50,-2,-4,-9,-7,-9,50,26
1491695042512,1,-10,-9,-13,8,-46,9,14,-6
1491695042607,2,-13,3,10,13,16,-45,-42,-5
1491695042607,2,-28,13,-7,15,70,116,39,-17
1491695042608,3,2,2,21,15,-9,-85,-55,3
1491695042608,3,1,4,-1,-8,-28,-42,-9,8
1491695042609,1,40,9,-8,11,15,-45,7,4
1491695042609,1,-14,13,3,9,24,77,-46,-7
1491695042610,2,-19,-3,-7,-27,-56,-44,26,-1
1491695042610,2,1,-9,-20,-3,29,-33,-95,-1
1491695042656,3,-24,-10,-11,-7,-30,9,38,-4
1491695042656,3,24,-7,15,-3,-10,-33,51,-9
1491695042658,0,72,22,1,8,52,84,-5,12
1491695042658,0,-10,-7,32,36,-23,-70,18,-9
1491695042659,3,-7,12,-12,-56,-117,-28,7,31
1491695042659,3,-8,-6,19,23,66,12,3,33
1491695042659,0,47,13,16,51,95,127,-5,3
1491695042659,0,-80,-2,-2,17,14,-115,26,5
1491695042705,1,48,0,19,-11,-79,114,-43,-36
1491695042705,1,-47,-18,-38,4,18,-95,40,8
1491695042708,2,-18,-9,-17,-36,-68,-56,-18,-6
1491695042708,2,1,3,26,-10,23,27,-66,3
1491695042709,3,9,23,14,5,8,70,81,-7
1491695042709,3,-9,11,3,-15,-101,-58,-25,16
1491695042710,0,-33,-9,-13,-6,29,13,17,11
1491695042710,0,74,9,1,27,8,23,-65,-15
1491695042754,1,-77,3,-16,-9,-45,18,25,-25
1491695042754,1,-14,-8,11,0,48,5,50,3
1491695042756,2,-1,13,34,94,96,-46,-37,-15
1491695042756,2,11,8,-18,-89,-100,104,29,8
1491695042757,0,7,29,37,121,126,78,45,21
1491695042757,0,-47,-48,-31,6,-90,-113,48,3
1491695042758,1,1,24,3,-93,-25,127,-34,-8
1491695042758,1,45,14,-28,66,86,80,-3,-21
1491695042803,2,27,-10,36,41,-103,-25,33,39
1491695042803,2,-69,5,3,-56,38,114,-59,-58
1491695042804,3,9,14,-22,8,-53,-23,51,-3
1491695042804,3,-21,-9,-45,-99,-45,47,-76,-6
1491695042805,1,-7,-6,-7,-36,-79,-128,-16,-27
1491695042805,1,5,12,8,-77,-94,7,-3,0
1491695042806,2,-49,-46,-63,3,-128,14,-88,-21
1491695042806,2,8,9,5,50,96,37,-31,32
1491695042851,3,24,-26,49,127,116,-6,65,55
1491695042851,3,30,12,17,-18,-55,59,52,-25
1491695042853,0,-9,64,-66,-128,-128,93,126,24
1491695042853,0,-15,-28,-35,-128,-125,-123,-124,-103
1491695042854,2,-42,-41,24,-17,-40,-93,-52,-13
1491695042854,2,29,-4,-3,-34,-107,7,66,29
1491695042856,3,20,6,-18,-14,26,70,-22,-14
1491695042856,3,-7,-24,24,37,-71,-128,32,10
1491695042900,0,30,15,30,-24,-7,127,-15,-40
1491695042900,0,-24,18,-28,45,74,34,53,-23
1491695042902,1,16,-26,23,-46,-128,-96,32,48
1491695042902,1,-27,-34,-37,8,116,-43,-97,-33
1491695042904,3,-29,12,7,66,100,61,-10,-29
1491695042904,3,-7,18,11,-10,0,78,29,-15
1491695042905,0,49,-8,30,34,-65,-46,-54,17
1491695042905,0,27,-9,-71,-7,54,-114,-18,15
1491695042997,1,-11,5,23,1,-78,-34,9,-14
1491695042997,1,8,-43,5,-1,20,33,-17,-3
1491695042999,2,-36,-50,-28,-55,89,-93,-10,-32
1491695042999,2,21,19,35,37,-47,126,25,69
1491695043046,0,21,36,7,45,109,-5,86,33
1491695043046,0,17,-14,85,118,72,42,-31,-15
1491695043095,1,-27,-65,-76,-122,-108,-78,4,-41
1491695043095,1,15,-69,-18,-17,-26,10,13,33
1491695043096,2,2,-33,-22,67,77,5,-46,14
1491695043096,2,4,17,45,110,70,50,24,21
1491695043098,3,16,61,39,54,127,127,52,28
1491695043098,3,-11,53,1,-99,38,-14,-58,-33
1491695043099,1,-37,-69,-26,-81,-82,104,21,-3
1491695043099,1,25,-110,42,49,88,-42,13,-7
1491695043144,1,-15,49,-20,-12,-97,-110,-57,-17
1491695043144,1,-20,65,-79,-93,-128,-43,9,16
1491695043145,2,-6,-3,4,-28,35,15,21,-33
1491695043145,2,-20,-18,-44,-124,-128,-112,-19,13
1491695043146,3,12,-20,-18,-86,-48,-29,44,29
1491695043146,3,-34,-13,-18,36,-15,14,-19,-3
1491695043147,0,12,23,-3,-5,-12,21,5,4
1491695043147,0,-17,48,-10,60,98,69,24,-28
1491695043192,1,21,36,32,-47,-29,8,9,19
1491695043192,1,8,-48,-11,-13,32,-71,-22,-3
1491695043194,2,-4,-66,-17,8,28,-90,-38,23
1491695043194,2,-26,55,-49,29,-102,53,22,-23
1491695043194,0,-9,-38,-1,-68,42,70,-2,-4
1491695043194,0,11,-94,21,95,84,-60,-24,6
1491695043290,1,-2,-10,21,-57,-50,119,49,-5
1491695043290,1,-16,-6,-43,-20,96,-57,-18,-10
1491695043292,2,2,19,-37,20,-68,-65,-38,7
1491695043292,2,3,17,-16,-77,-66,-62,-18,1
1491695043294,3,12,-62,-7,125,127,37,49,15
1491695043294,3,-3,-34,82,15,-49,66,11,-13
1491695043295,1,-11,-21,-32,-45,-87,-59,-16,6
1491695043295,1,1,-3,-4,38,121,43,13,2
1491695043341,2,-3,38,36,88,38,17,8,4
1491695043341,2,-4,13,-13,-60,83,7,-20,10
1491695043343,3,26,-43,-11,17,57,39,17,-14
1491695043343,3,-6,-32,-10,-26,-85,-28,-14,9
1491695043345,3,-5,10,-66,-16,-18,-51,-15,4
1491695043345,3,16,5,31,57,14,48,9,-5
1491695043346,0,13,8,-7,11,29,16,12,-2
1491695043346,0,8,-9,20,-13,-12,0,-12,-1
1491695043388,1,4,4,14,1,-48,-1,-1,-7
1491695043388,1,-11,-4,-7,0,11,9,1,-4
1491695043389,2,-10,2,22,47,43,22,11,-7
1491695043389,2,-7,-1,-44,-104,-75,-15,-13,-4
1491695043390,3,-7,-20,4,23,-62,-13,-22,-9
1491695043390,3,-20,-17,-28,-33,-3,-31,-9,15
1491695043391,0,28,-51,21,35,-16,-4,7,6
1491695043391,0,-18,-26,39,18,41,15,4,-16
1491695043436,1,-3,-39,22,27,31,1,5,-9
1491695043436,1,67,36,-25,-11,27,3,-8,16
1491695043437,2,0,22,-9,-24,-31,9,-1,-9
1491695043437,2,16,13,-11,7,-44,-32,-12,-4
1491695043439,0,-5,27,10,-16,-22,-23,-5,2
1491695043439,0,-20,-11,11,16,-3,-11,-14,-6
1491695043440,1,-3,5,4,-38,33,6,2,-11
1491695043440,1,-17,-11,-70,-92,-114,-25,-24,3
1491695043485,2,-12,3,13,32,6,7,-11,4
1491695043485,2,7,13,1,33,-4,-5,11,0
1491695043486,3,52,4,-6,14,51,-4,-5,2
1491695043486,3,39,-9,-8,2,10,-11,1,2
1491695043486,1,42,-34,28,4,9,17,0,6
1491695043486,1,-1,-33,18,-11,-25,-17,-3,5
1491695043487,2,2,0,-32,0,-19,-7,3,-10
1491695043487,2,-17,13,12,-6,24,15,5,4
1491695043533,3,-42,23,-54,-5,-9,-11,-5,-9
1491695043533,3,-36,11,15,-7,-13,-3,-3,-4
1491695043534,0,26,54,24,5,-5,-6,0,8
1491695043534,0,9,25,-5,14,52,11,2,-4
1491695043545,2,-11,4,-8,12,51,50,10,4
1491695043545,2,5,8,-2,-52,-84,-22,-2,0
1491695043546,3,-26,25,-17,10,-11,-29,-7,-4
1491695043546,3,-17,6,17,4,8,-9,-6,-11
1491695043582,0,-21,-8,-24,5,23,11,11,5
1491695043582,0,7,4,34,32,14,-6,-13,-2
1491695043583,1,3,4,-6,-5,9,20,14,-2
1491695043583,1,-18,14,-5,-19,-20,1,-9,0
1491695043584,3,-30,-4,6,-11,9,14,5,-4
1491695043584,3,6,0,-10,1,3,-13,-1,-3
1491695043585,0,23,58,-1,3,3,1,-5,0
1491695043585,0,-9,56,10,1,13,23,11,-2
1491695043632,1,-6,75,5,-3,-26,-13,5,3
1491695043632,1,3,20,0,10,4,-19,-28,-10
1491695043634,2,-10,-23,-31,-29,-22,-14,9,1
1491695043634,2,15,-38,28,12,1,9,-15,-8
1491695043635,0,-17,-23,2,8,16,-19,-12,-2
1491695043635,0,-1,-17,-12,-16,-18,-14,-7,-11
1491695043636,1,6,-31,-12,-21,-31,0,-6,6
1491695043636,1,0,-11,9,12,-5,19,9,5
1491695043680,2,-12,-2,-10,27,22,4,-12,-11
1491695043680,2,0,7,-11,-15,-4,11,12,18
1491695043684,3,-2,26,13,3,5,-4,-11,-16
1491695043684,3,9,21,-12,-23,-19,-20,4,-11
1491695043685,1,-6,-9,-7,-14,-35,-29,1,5
1491695043685,1,-35,19,4,10,6,13,0,-5
1491695043686,2,0,49,4,9,24,7,16,-8
1491695043686,2,19,10,-11,-5,3,24,7,-1
1491695043729,3,-61,-31,-9,-35,-25,-33,-12,2
1491695043729,3,-60,-24,-5,-1,-9,-8,-19,-11
1491695043730,0,-39,-14,23,10,0,9,15,-9
1491695043730,0,-7,-1,-11,0,8,-26,2,6
1491695043732,1,14,-6,2,11,-4,-2,6,-5
1491695043732,1,97,42,-13,-1,22,6,13,9
1491695043733,2,-35,18,1,13,-18,14,-6,-10
1491695043733,2,11,24,17,-11,12,20,14,10
1491695043778,3,5,0,-3,-11,-10,-1,-16,1
1491695043778,3,-18,-27,8,16,7,-10,3,1
1491695043835,0,40,-36,-17,-8,-2,14,-3,-4
1491695043835,0,53,-19,-19,-2,11,-15,-9,-8
1491695043876,2,-14,-15,-8,-20,-19,-23,-8,-4
1491695043876,2,-13,-23,-18,-5,-37,-54,-8,-2
1491695043878,3,22,-11,20,25,54,26,-2,22
1491695043878,3,-9,-20,-18,0,-23,-12,20,-19
1491695043880,0,-19,-15,19,-7,18,-12,23,-7
1491695043880,0,104,0,-8,-34,0,-43,-35,12
1491695043882,1,48,5,-19,-6,-11,-11,-13,-5
1491695043882,1,13,17,2,13,22,9,8,16
1491695043923,3,-64,-7,-10,1,5,-16,-14,-16
1491695043923,3,40,4,14,-18,-28,42,24,20
1491695043925,0,-8,13,-9,-5,-38,-37,-15,2
1491695043925,0,-50,11,18,17,-41,21,22,-9
1491695043926,1,34,6,22,16,23,116,36,17
1491695043926,1,-8,-22,22,48,125,-28,-39,-4
1491695043927,2,-4,20,-13,-25,-3,17,-17,-24
1491695043927,2,17,27,-13,-39,-106,28,2,-1
1491695043972,3,-30,27,-10,4,-19,-76,-9,11
1491695043972,3,28,-7,-9,-34,-22,33,29,1
1491695043973,0,-23,4,16,32,31,-81,6,3
1491695043973,0,2,10,13,18,6,-3,-42,-9
1491695043974,2,70,-4,3,11,8,10,-38,12
1491695043974,2,6,25,3,10,4,49,27,-14
1491695043975,3,-16,30,17,10,-17,0,-3,-14
1491695043975,3,-48,39,6,3,65,-25,-28,-7
1491695044021,0,8,7,-39,-38,-64,67,50,1
1491695044021,0,-24,31,14,-17,-47,-107,-24,16
1491695044022,1,23,-19,0,4,43,-10,14,-21
1491695044022,1,-1,-14,-1,24,-18,42,1,7
1491695044022,3,14,-10,-5,1,-19,22,-3,7
1491695044022,3,-29,-17,-5,-34,-65,52,-58,-27
1491695044023,0,54,-11,-3,-2,-18,-89,66,24
1491695044023,0,-24,-17,3,12,-20,-4,-2,-14
1491695044070,1,55,-25,-2,7,34,-8,-13,8
1491695044070,1,-42,-5,7,14,52,42,5,12
1491695044070,2,-56,48,20,-6,-36,14,-35,-24
1491695044070,2,45,47,-16,-13,22,-59,-1,5
1491695044071,0,-71,1,10,8,72,49,73,14
1491695044071,0,50,-19,-9,-25,-71,-41,-26,2
1491695044072,1,-32,-5,-14,-18,-70,-59,1,-26
1491695044072,1,38,-30,-7,18,45,52,61,12
1491695044118,2,-44,-28,5,14,-18,-83,-61,-6
1491695044118,2,103,-25,-2,21,98,67,38,15
1491695044120,3,-29,-26,1,-25,-66,54,-12,-11
1491695044120,3,-9,-18,-13,-44,-75,-76,10,-15
1491695044121,0,79,-5,19,26,33,12,-30,14
1491695044121,0,-116,-24,-6,27,56,69,17,-12
1491695044122,1,25,8,-2,-15,-7,-58,-32,-16
1491695044122,1,-16,2,-7,-12,-46,-53,18,13
1491695044167,2,-8,-14,-3,-1,15,7,33,9
1491695044167,2,8,7,2,-4,-10,-55,-36,-9
1491695044169,3,-19,3,12,15,64,78,-16,10
1491695044169,3,-11,-1,-11,-22,-54,-54,-9,8
1491695044170,1,15,-10,2,14,43,67,-30,3
1491695044170,1,-66,-3,-1,15,8,-46,-20,0
1491695044171,2,42,31,-2,-12,0,47,16,20
1491695044171,2,54,63,9,-11,-46,-4,-3,-11
1491695044216,3,-25,41,1,11,65,121,39,5
1491695044216,3,2,-17,-11,1,-47,-101,-45,4
1491695044217,0,-11,-21,-5,1,60,20,-43,-27
1491695044217,0,31,-20,6,-17,-73,3,32,22
1491695044217,2,24,-41,-7,9,16,8,25,20
1491695044217,2,13,-37,22,15,27,61,-49,37
1491695044265,3,-3,-31,2,-7,-18,-108,-43,36
1491695044265,3,-36,-34,-12,-1,13,57,21,-21
1491695044266,0,24,7,-8,-9,-4,7,-3,-28
1491695044266,0,-57,23,-3,-1,-15,71,85,-51
1491695044266,1,-3,19,16,22,30,-65,-1,-44
1491695044266,1,7,18,-1,-2,-25,-36,7,-22
1491695044267,3,41,21,5,5,-10,-41,-10,11
1491695044267,3,-27,6,1,16,56,76,-68,-17
1491695044313,0,-49,-46,-24,-6,-33,-69,46,12
1491695044313,0,11,-8,-7,-17,-18,-87,-83,-8
1491695044314,1,22,-2,15,-15,-6,80,7,35
1491695044314,1,29,-21,-18,-6,13,-9,13,26
1491695044315,0,-21,-11,2,11,4,0,29,23
1491695044315,0,3,-13,-5,-6,-1,-15,-34,-22
1491695044316,1,6,32,17,10,2,7,28,-15
1491695044316,1,0,6,9,5,3,72,41,-15
1491695044362,2,4,1,-2,-11,-34,-109,-7,-34
1491695044362,2,-32,-12,-3,-2,10,5,11,-16
1491695044363,3,42,-23,-15,11,-2,14,12,10
1491695044363,3,-21,-2,11,-1,21,38,12,-11
1491695044364,1,-51,9,-3,3,10,15,-11,-15
1491695044364,1,23,3,-10,-19,-22,21,2,-12
1491695044372,2,21,12,-2,-19,-22,-11,-38,5
1491695044372,2,-7,2,6,-7,-33,-86,5,0
1491695044413,3,-12,-2,3,4,29,-6,-4,10
1491695044413,3,-7,4,-1,5,22,43,19,-4
1491695044414,0,-31,-5,2,-3,-25,-55,-20,-13
1491695044414,0,53,1,-3,-1,44,20,-6,3
1491695044415,2,-25,6,-3,0,6,48,-5,-2
1491695044415,2,54,15,6,-1,-18,23,18,26
1491695044416,3,23,-11,0,-4,7,-46,-39,10
1491695044416,3,-29,4,5,10,18,51,37,23
1491695044460,0,1,-14,-1,-12,-22,-41,-5,9
1491695044460,0,-54,-9,0,-3,25,-11,-24,5
1491695044461,1,-31,10,0,8,23,77,13,-34
1491695044461,1,46,-8,-10,-15,-44,-91,-48,-20
1491695044461,2,30,-6,1,-5,7,66,19,-2
1491695044461,2,-105,-4,-3,-11,-28,-4,2,0
1491695044462,3,52,-14,-17,-5,-23,12,-22,3
1491695044462,3,-17,1,-11,24,34,35,50,-2
1491695044508,0,-36,-5,-17,9,45,26,-69,-10
1491695044508,0,2,-1,-5,-20,-58,-88,-53,-16
1491695044509,1,1,-8,-5,-5,5,-38,-14,-17
1491695044509,1,-15,0,8,12,-37,7,49,21
1491695044510,3,-1,-9,4,-10,-12,-121,-33,1
1491695044510,3,99,11,10,-3,-6,39,-10,16
1491695044511,0,-99,-13,13,8,-6,47,36,-5
1491695044511,0,73,-7,-6,16,50,-42,-33,-3
1491695044558,1,70,4,10,2,-28,72,52,16
1491695044558,1,-41,4,1,-10,-11,-56,-83,-4
1491695044559,2,-7,2,17,42,81,60,90,0
1491695044559,2,11,3,14,18,60,89,0,-18
1491695044560,0,49,-13,-21,-52,18,-67,-122,-16
1491695044560,0,10,14,24,34,-16,27,49,31
1491695044560,1,-63,-18,9,48,99,127,17,-10
1491695044560,1,-7,-4,-3,18,26,-37,-6,-15
1491695044606,2,74,36,30,25,-20,-80,3,12
1491695044606,2,-22,15,-4,-49,-84,13,-7,-26
1491695044607,3,-22,14,10,26,28,-46,4,-1
1491695044607,3,-63,-17,0,-8,44,-63,39,-13
1491695044608,1,40,14,-4,-1,38,-36,-25,-2
1491695044608,1,-42,5,1,46,93,125,-59,-18
1491695044608,2,-7,-13,18,77,35,-128,67,31
1491695044608,2,3,-3,0,-70,-21,-63,-11,-17
1491695044655,3,0,1,-10,-14,-80,93,1,-19
1491695044655,3,23,6,9,10,-27,-42,-7,-23
1491695044656,0,-67,-3,-37,-71,-12,55,91,0
1491695044656,0,-5,-2,0,39,12,-25,-94,-11
1491695044656,2,8,-2,5,37,-25,-49,46,19
1491695044656,2,-11,9,16,17,40,-31,-6,4
1491695044657,3,36,3,-5,-5,107,122,29,-23
1491695044657,3,-31,0,10,30,-71,-90,-18,2
1491695044703,0,11,9,-23,-87,-100,46,7,-10
1491695044703,0,-51,-12,-36,-37,-8,72,30,7
1491695044704,1,22,9,18,18,50,-19,-64,32
1491695044704,1,19,-45,-12,2,-50,-106,-30,29
1491695044705,3,-11,-16,-10,-40,24,-19,20,10
1491695044705,3,28,-20,-17,1,-69,-65,32,-6
1491695044706,0,-13,4,-5,-2,-110,77,33,-5
1491695044706,0,4,43,20,20,76,83,-3,-55
1491695044752,1,-19,17,-9,-74,-30,-23,15,-6
1491695044752,1,31,9,4,44,58,-105,-36,10
1491695044757,2,19,-18,-43,-26,-7,32,-90,-26
1491695044757,2,8,0,47,26,62,36,127,8
1491695044757,0,-55,-19,-23,-56,-124,-119,-80,-47
1491695044757,0,12,1,-22,-46,72,56,6,20
1491695044758,1,32,-12,-11,79,82,74,52,35
1491695044758,1,-20,11,38,3,-50,54,9,-36
1491695044801,2,4,13,12,-1,46,38,34,3
1491695044801,2,20,-21,3,31,-58,-128,17,30
1491695044803,3,-22,0,12,3,-11,78,-16,-38
1491695044803,3,3,3,14,79,8,127,-10,-24
1491695044804,0,-54,-19,-47,-97,-74,-57,-33,10
1491695044804,0,-1,-29,-9,13,89,-38,-27,0
1491695044805,1,67,3,-17,68,47,59,12,44
1491695044805,1,8,37,33,59,48,-34,-16,40
1491695044850,2,-14,16,54,12,-48,115,-100,-11
1491695044850,2,-45,-6,-35,-85,9,116,63,-42
1491695044852,3,4,-15,8,82,67,-45,-35,13
1491695044852,3,2,-7,-46,-128,-92,101,46,-53
1491695044854,1,-31,-10,14,-70,-76,28,-43,4
1491695044854,1,-17,-44,-36,-35,-29,-128,-36,34
1491695044856,2,26,-10,36,115,127,118,65,15
1491695044856,2,17,-10,42,15,-41,-59,-44,31
1491695044899,3,-42,-9,-35,-90,-81,-53,21,-66
1491695044899,3,-23,16,-20,-71,-40,29,-17,-9
1491695044901,0,24,0,-46,-42,-14,23,1,26
1491695044901,0,17,15,47,51,39,-3,-32,33
1491695044902,2,-13,-11,20,16,-33,-52,-18,1
1491695044902,2,24,-56,-48,-5,7,127,29,-33
1491695044903,3,-4,-7,11,-114,-128,-128,24,5
1491695044903,3,-29,1,3,49,65,108,31,-7
1491695044948,0,45,5,-24,18,114,-53,-84,-50
1491695044948,0,-28,22,-42,-96,-128,-16,16,-3
1491695044950,1,-3,-10,-7,41,101,-90,7,-17
1491695044950,1,-18,1,-20,-4,27,-34,-72,-4
1491695044951,3,-16,-15,-31,-22,-79,-56,-24,21
1491695044951,3,19,19,12,31,34,31,51,-12
1491695044952,0,-17,-5,-9,-70,-82,82,-43,-17
1491695044952,0,-1,-113,-25,-12,108,-112,7,-6
1491695044996,1,5,-90,38,73,70,127,-3,0
1491695044996,1,6,-43,-21,-108,-123,-98,16,8
1491695044998,2,3,5,19,-16,70,-12,56,20
1491695044998,2,20,-14,40,120,127,127,22,8
1491695044999,0,9,13,-42,7,-32,19,30,-9
1491695044999,0,-19,117,6,-8,-15,-11,-9,17
1491695045001,1,13,76,13,90,127,71,45,13
1491695045001,1,-2,72,36,40,44,15,-58,-15
1491695045048,2,1,52,-42,-20,36,49,41,-9
1491695045048,2,-16,20,-6,17,-95,-101,-21,-30
1491695045049,3,-4,36,-2,-118,-83,-42,11,22
1491695045049,3,23,21,-12,46,-24,84,37,0
1491695045050,1,-2,-1,-2,-23,-19,10,1,-9
1491695045050,1,-6,18,-19,-77,-128,-3,-15,5
1491695045050,2,8,-2,-31,40,52,-7,-9,16
1491695045050,2,19,38,6,98,-60,54,-4,-3
1491695045093,3,13,39,14,-128,8,-33,64,-16
1491695045093,3,-3,-19,12,127,127,51,-57,2
1491695045100,0,-5,-11,9,81,68,89,20,-23
1491695045100,0,-28,19,13,-115,-49,-76,-10,-31
1491695045105,2,-3,-30,29,73,68,-30,-13,-10
1491695045105,2,-5,1,-39,-29,-71,13,17,1
1491695045106,3,-1,100,18,38,-19,-37,7,-28
1491695045106,3,10,79,14,25,-111,2,33,10
1491695045142,0,-13,14,-36,-107,-48,-84,-55,-45
1491695045142,0,-5,-77,6,39,57,9,3,31
1491695045145,1,-23,-55,-14,34,-46,37,-40,-6
1491695045145,1,-18,-69,-22,-94,-100,-96,2,34
1491695045146,2,-4,-66,-8,26,-5,41,-2,16
1491695045146,2,30,-59,-2,73,100,79,35,-35
1491695045147,3,11,-41,42,47,127,23,26,-24
1491695045147,3,-4,1,28,2,-28,-37,-26,-31
1491695045191,0,-13,8,-43,-128,-128,-58,7,-3
1491695045191,0,14,67,-26,34,-21,-85,-42,26
1491695045240,1,-4,33,42,110,92,95,18,23
1491695045240,1,-4,-3,-7,73,127,88,29,-23
1491695045241,3,-4,-43,-66,31,22,-11,-38,16
1491695045241,3,18,-11,69,97,118,66,43,-28
1491695045243,0,3,7,15,20,36,45,16,5
1491695045243,0,-7,47,-6,8,2,31,25,-14
1491695045244,1,1,26,-55,-128,-97,-62,-39,-22
1491695045244,1,-2,-90,-39,12,-69,-37,-17,24
1491695045288,2,8,-42,13,55,-86,32,44,3
1491695045288,2,-14,4,3,-21,-65,-36,-55,0
1491695045290,0,0,15,20,49,-6,26,7,-3
1491695045290,0,-4,40,13,59,127,60,40,8
1491695045291,1,0,24,7,73,108,-53,-4,17
1491695045291,1,-11,20,1,-3,-8,12,-5,-10
1491695045292,2,-17,-2,-48,-75,-12,-17,-19,10
1491695045292,2,-5,-33,42,-4,-57,-30,-12,-18
1491695045337,3,-3,-80,-7,20,32,33,15,-6
1491695045337,3,-2,-34,20,12,21,29,26,-10
1491695045338,0,23,-10,-28,16,-14,-11,-14,4
1491695045338,0,21,20,15,-25,-2,-24,-7,11
1491695045340,2,-44,-14,13,17,35,13,-6,-6
1491695045340,2,-27,-22,3,-29,-61,-17,-8,23
1491695045340,3,4,15,3,78,67,23,6,-1
1491695045340,3,-6,8,5,2,1,19,6,-3
1491695045386,0,0,13,-15,-70,-89,-32,-9,-19
1491695045386,0,3,10,-13,35,12,-37,-10,9
1491695045387,1,-4,11,-12,-18,-26,15,-3,-1
1491695045387,1,20,7,25,20,-84,12,9,1
1491695045388,3,63,-7,-7,-34,-104,-56,-28,14
1491695045388,3,-31,-13,-1,35,15,-6,1,-16
1491695045389,0,-3,8,-34,-25,27,10,4,-20
1491695045389,0,-2,10,33,38,58,34,13,0
1491695045435,1,-8,-16,-9,-29,-35,3,2,-7
1491695045435,1,30,-11,-30,-39,-23,-20,-22,1
1491695045436,2,22,-14,14,35,23,-5,4,8
1491695045436,2,5,-45,-5,24,67,11,18,-8
1491695045437,0,-43,-8,-12,-20,-62,-39,-20,0
1491695045437,0,-16,26,3,-15,-20,2,9,-2
1491695045438,1,-37,12,11,6,22,34,8,-10
1491695045438,1,-12,7,-25,2,-12,-21,-3,0
1491695045483,2,-18,12,14,-9,-13,-22,-15,11
1491695045483,2,-29,4,0,29,8,-2,12,-11
1491695045485,3,-6,23,-6,-6,18,14,3,-7
1491695045485,3,-10,23,20,2,10,5,-7,12
1491695045485,1,-27,3,-10,1,-4,4,22,3
1491695045485,1,-3,28,-3,-27,-29,-20,-32,-14
1491695045486,2,0,9,-1,11,21,16,31,4
1491695045486,2,14,3,13,8,9,-21,-21,2
1491695045532,3,6,-6,-18,-17,-2,14,1,-9
1491695045532,3,-10,-21,-1,-19,-3,6,12,13
1491695045533,0,-5,-16,7,0,-6,-6,-28,-10
1491695045533,0,-4,-13,-17,15,20,6,9,-2
1491695045534,1,7,8,0,-13,-4,-3,-2,10
1491695045534,1,-11,-16,-18,-17,-27,-7,-1,0
1491695045535,2,-12,4,33,55,50,14,6,0
1491695045535,2,4,4,8,-17,-1,15,3,-1
1491695045581,3,2,-7,23,-11,-48,-29,-22,7
1491695045581,3,11,-6,-44,-24,-29,-29,8,-6
1491695045582,0,-13,-8,-6,4,-6,5,12,4
1491695045582,0,24,-6,27,9,34,18,6,-8
1491695045582,2,12,15,-25,-29,-14,-13,-23,-4
1491695045582,2,-1,15,17,8,-10,-15,1,-3
1491695045583,3,5,8,-16,-9,4,-3,-15,-7
1491695045583,3,-14,3,23,7,-5,14,12,-4
1491695045630,0,-82,8,-39,-22,-6,-10,9,5
1491695045630,0,-58,15,-5,-3,12,26,-15,0
1491695045630,1,-84,3,4,-7,-12,-50,4,0
1491695045630,1,-80,6,13,-1,-47,-10,-6,-6
1491695045631,3,20,3,-2,29,25,-2,14,-1
1491695045631,3,30,30,0,12,40,37,-3,1
1491695045632,0,50,20,1,-4,14,15,13,1
1491695045632,0,66,10,4,-46,17,-27,-21,-24
1491695045678,1,36,-6,5,12,0,14,15,9
1491695045678,1,-38,-10,-1,0,-5,1,-26,-2
1491695045680,2,50,0,22,23,13,10,16,22
1491695045680,2,11,26,-37,4,0,1,32,16
1491695045680,0,-14,-48,-3,10,4,46,6,-17
1491695045680,0,-4,-35,20,3,-31,-46,-22,6
1491695045681,1,-10,-35,-29,-23,-6,30,5,10
1491695045681,1,16,-14,10,13,-18,-43,-12,-4
1491695045727,2,8,-11,-4,-7,6,12,-4,-8
1491695045727,2,29,-5,-7,8,10,42,29,0
1491695045728,3,1,4,3,5,9,-16,-17,-9
1491695045728,3,22,1,1,32,26,8,0,-17
1491695045729,1,19,20,7,9,-21,32,-8,10
1491695045729,1,17,-4,-3,9,29,-14,0,-13
1491695045730,2,21,-3,16,39,29,61,43,16
1491695045730,2,-29,-6,-12,-25,-12,0,-20,-16
1491695045777,3,13,-24,-39,-48,-40,-68,3,27
1491695045777,3,13,-1,-11,-13,-19,0,-9,-5
1491695045780,0,40,11,4,4,11,-13,-45,-14
1491695045780,0,-12,-12,-3,30,35,-1,37,11
1491695045781,2,26,6,7,-27,-38,13,-9,10
1491695045781,2,7,-4,-6,12,1,-7,-24,18
1491695045782,3,-28,-1,-6,11,-4,-50,-2,-23
1491695045782,3,-4,3,8,1,1,57,32,3
1491695045826,0,-2,-18,1,2,7,-36,-7,1
1491695045826,0,-8,4,6,-2,-4,32,28,11
1491695045827,1,26,19,-6,-11,-34,-48,-21,-24
1491695045827,1,14,6,-7,-12,-15,32,1,12
1491695045828,3,13,-16,18,-3,-72,-66,65,5
1491695045828,3,67,6,-17,-20,49,17,-36,-4
1491695045829,0,-29,7,-18,-20,-41,-10,-13,-12
1491695045829,0,17,13,-1,9,-37,-11,-23,-11
1491695045874,1,-46,30,-6,9,86,42,9,-17
1491695045874,1,57,13,9,13,-77,79,41,8
1491695045876,2,-58,5,-23,-49,-25,-46,10,-33
1491695045876,2,12,3,13,10,-21,-48,-29,-12
1491695045877,3,-3,-16,-29,27,35,-61,-61,-28
1491695045877,3,-34,-7,14,3,-16,23,40,10
1491695045878,0,-4,-8,2,15,33,70,6,-3
1491695045878,0,-56,5,-2,-2,-37,-16,-28,-12
1491695045922,1,3,4,16,21,125,85,35,-11
1491695045922,1,-12,6,-12,-16,-44,-15,-6,-5
1491695045925,2,73,23,-5,-6,-21,-65,7,19
1491695045925,2,-29,29,-1,-15,-28,-14,6,-22
1491695045926,0,5,12,-13,-18,48,61,25,-2
1491695045926,0,25,28,11,18,53,13,3,24
1491695045927,1,21,36,-1,-20,-55,-110,-2,10
1491695045927,1,9,22,-12,3,35,72,-8,-19
1491695045971,2,20,7,19,37,18,5,18,18
1491695045971,2,13,-8,2,10,10,-56,-38,-48
1491695045972,3,80,-18,-4,-50,-11,44,18,20
1491695045972,3,-27,-10,0,5,19,66,19,-6
1491695045972,1,-3,-25,12,11,8,-51,-51,4
1491695045972,1,20,-24,15,15,-27,-16,-14,19
1491695045973,2,-7,-12,12,24,117,55,-5,-20
1491695045973,2,4,22,-13,-26,-49,2,10,-5
1491695046020,3,-28,13,-16,-26,-57,26,39,22
1491695046020,3,-39,20,-6,-12,-13,56,14,2
1491695046020,0,40,2,0,8,-22,-31,-16,-13
1491695046020,0,-100,19,3,1,44,-19,-35,-16
1491695046021,2,-41,-18,22,-9,-13,-7,34,15
1491695046021,2,27,-5,3,-12,-5,67,4,0
1491695046022,3,-22,-14,-14,0,8,-50,-46,-7
1491695046022,3,-21,19,-26,3,23,-9,32,-2
1491695046068,0,-5,35,32,34,35,49,-52,-2
1491695046068,0,60,4,3,-8,-11,-38,14,25
1491695046069,1,-2,-8,-9,-24,-32,-42,-16,-5
1491695046069,1,-32,-28,-17,-26,-17,-8,16,-6
1491695046070,3,16,-24,7,21,63,127,21,1
1491695046070,3,23,-24,-10,-24,-47,-126,-27,-11
1491695046071,0,-35,-3,-1,-13,-15,65,48,-4
1491695046071,0,-48,-15,-3,15,26,-21,-5,14
1491695046117,1,25,-15,8,2,-17,-2,12,-12
1491695046117,1,0,0,3,2,35,-2,5,0
1491695046118,2,-3,-5,-7,-12,-53,-63,-12,11
1491695046118,2,21,11,-1,-14,-33,-5,-22,-10
1491695046119,0,52,2,2,-11,-34,-48,13,13
1491695046119,0,-1,7,13,-1,10,7,2,-1
1491695046120,1,-37,-16,5,-6,-5,23,13,1
1491695046120,1,14,-36,-1,8,6,16,-8,-4
1491695046166,2,-1,-31,-9,4,-12,-66,-4,6
1491695046166,2,15,-51,-7,-3,12,51,40,6
1491695046167,3,-29,-29,2,-2,-28,-32,2,-6
1491695046167,3,23,-13,-2,-10,6,35,26,17
1491695046167,1,21,4,1,6,-14,-93,-20,2
1491695046167,1,-40,-8,-15,-7,-2,12,-5,18
1491695046168,2,-18,-19,-19,-12,-22,39,-28,-23
1491695046168,2,-22,12,6,2,12,14,5,11
1491695046217,3,6,5,1,10,-13,-45,-76,-14
1491695046217,3,24,11,19,15,29,14,39,-29
1491695046219,0,22,-1,-22,-29,-30,-18,47,-2
1491695046219,0,-10,-9,-18,-11,-9,14,9,-14
1491695046220,1,-13,-16,-8,-9,-19,-31,-57,-17
1491695046220,1,24,9,9,15,2,-2,-4,10
1491695046221,2,-1,13,3,19,30,44,15,-2
1491695046221,2,58,17,3,-9,-14,44,-22,-6
1491695046263,3,9,5,16,-2,-6,-58,16,5
1491695046263,3,1,1,-3,-11,-25,25,-8,9
1491695046268,0,2,-2,-7,15,68,55,28,-1
1491695046268,0,-5,-17,-14,-25,-54,-128,-53,16
1491695046270,2,3,-14,-1,-13,-16,-46,7,21
1491695046270,2,18,-13,2,0,19,14,40,-11
1491695046271,3,7,0,-6,-15,-14,-33,-8,9
1491695046271,3,-35,-3,-4,8,6,-13,-24,7
1491695046313,0,-4,-7,6,9,-1,18,3,-16
1491695046313,0,-1,13,1,-5,1,30,39,-8
1491695046315,1,-28,-2,1,13,-1,2,34,-31
1491695046315,1,34,2,5,-3,20,28,-54,0
1491695046316,3,7,-1,-2,7,11,63,-12,-2
1491695046316,3,-32,-4,3,4,22,-16,32,-17
1491695046317,0,-25,3,9,11,37,35,-15,-29
1491695046317,0,-20,5,-1,-8,-37,10,7,-13
1491695046361,1,-5,1,-9,-18,-11,-12,27,6
1491695046361,1,14,-2,10,3,-17,20,2,25
1491695046363,2,-8,-2,6,-2,57,-24,-30,1
1491695046363,2,-12,-14,6,18,-25,11,-14,18
1491695046364,0,-38,2,-11,-16,-22,-34,-34,-44
1491695046364,0,-44,-20,9,-16,-8,-26,15,-37
1491695046365,1,16,-4,1,16,11,55,25,-22
1491695046365,1,57,-8,2,-5,-15,32,-6,-11
1491695046410,2,5,8,-9,-5,3,-95,-22,35
1491695046410,2,-32,2,5,43,22,86,10,-22
1491695046411,3,23,30,15,-13,-5,-37,66,10
1491695046411,3,-23,12,-19,7,34,39,-56,-18
1491695046412,1,-9,-2,-2,-10,-90,-43,-10,-1
1491695046412,1,1,-8,-21,-40,38,34,64,0
1491695046413,2,-52,-1,-16,-33,-86,26,-24,4
1491695046413,2,31,-14,-7,-13,24,-71,-36,34
1491695046458,3,36,-3,18,60,49,127,6,4
1491695046458,3,-22,-16,-6,33,-7,-128,-75,7
1491695046460,0,-6,-28,-26,-50,-25,127,-1,-31
1491695046460,0,-36,9,-5,-42,-55,-67,-1,-4
1491695046461,2,2,6,17,46,127,63,40,23
1491695046461,2,76,-4,-3,25,-44,-61,-75,6
1491695046462,3,-42,-3,-8,-61,-24,47,1,-43
1491695046462,3,-28,-19,-28,-36,-19,-61,-28,-12
1491695046507,0,19,-1,-4,28,14,75,16,13
1491695046507,0,-24,3,-5,-1,-21,28,4,-24
1491695046509,1,-10,-12,11,2,-1,82,35,20
1491695046509,1,32,20,16,3,-78,-32,-4,-7
1491695046510,3,75,-10,-2,-40,-60,-68,-40,-7
1491695046510,3,-31,10,-12,-36,-78,127,14,-24
1491695046511,0,8,29,25,56,-26,-128,0,1
1491695046511,0,3,14,-3,23,94,79,15,-6
1491695046654,1,-30,10,2,0,29,31,-45,-15
1491695046654,1,5,19,-1,-7,51,18,27,-2
1491695046656,2,91,-21,-13,-30,-115,-92,7,9
1491695046656,2,-81,-23,-12,-6,3,110,23,-30
1491695046657,3,-36,19,-15,1,37,-84,9,50
1491695046657,3,34,-14,12,12,33,97,-28,-36
1491695046658,0,-46,21,16,-16,3,85,16,-6
1491695046658,0,53,-7,-18,-5,-38,-128,-75,-4
1491695046703,1,17,-18,-21,-22,-101,-61,-28,-7
1491695046703,1,-43,8,5,-11,6,112,54,14
1491695046706,2,9,-14,7,3,-18,-57,27,24
1491695046706,2,44,-10,0,22,83,-56,5,2
1491695046708,0,-70,-6,-15,-46,-23,95,71,16
1491695046708,0,56,11,7,27,54,109,1,5
1491695046710,2,24,-10,-28,34,-21,-128,28,38
1491695046710,2,-46,15,-17,-102,-128,72,-41,-38
1491695046751,3,18,-13,-2,53,64,36,-17,22
1491695046751,3,0,-25,-8,-12,-12,-128,-44,34
1491695046752,0,3,-40,-19,-90,-64,38,-94,4
1491695046752,0,2,12,20,127,127,106,39,61
1491695046755,3,-22,5,-49,-113,127,-5,-110,-8
1491695046755,3,-57,8,-48,-81,-128,32,-35,-24
1491695046756,0,-9,2,-26,26,112,-89,27,13
1491695046756,0,25,6,6,40,88,40,-15,-20
1491695046800,1,-18,6,-17,59,-37,-26,40,13
1491695046800,1,-21,-29,32,-49,-88,-69,-23,-14
1491695046803,2,24,-45,-4,29,13,127,34,-49
1491695046803,2,-37,-12,-16,-91,-82,-128,-52,-66
1491695046804,0,24,43,-22,-106,-31,44,9,-34
1491695046804,0,4,29,15,69,-32,64,6,15
1491695046804,1,-20,-17,-30,8,60,-35,-74,-52
1491695046804,1,-16,16,31,-37,-76,66,41,-45
1491695046848,2,25,-29,-58,-56,-53,-128,6,-16
1491695046848,2,17,4,-26,30,82,103,-2,4
1491695046849,3,-6,17,21,0,-60,111,78,4
1491695046849,3,10,-33,20,28,102,-9,71,35
1491695046850,1,-10,18,35,88,10,-80,45,23
1491695046850,1,10,-5,-34,8,63,-4,29,-34
1491695046851,2,14,-75,-12,-106,-128,77,-13,-23
1491695046851,2,-34,-121,3,-1,-63,9,59,12
1491695046898,3,8,-73,-19,-40,99,22,-49,33
1491695046898,3,-2,-3,-34,-11,-117,-19,-75,26
1491695046899,0,15,79,9,127,127,-106,33,17
1491695046899,0,30,56,23,-97,-52,4,33,16
1491695046900,2,-51,24,7,127,15,-11,-39,9
1491695046900,2,71,-3,1,47,97,-17,7,12
1491695046900,3,18,-6,16,-64,95,127,54,-1
1491695046900,3,9,3,-1,11,-18,-66,-70,14
1491695046946,0,15,40,58,26,-54,51,53,-1
1491695046946,0,-18,33,-34,-1,96,7,15,-20
1491695046947,1,-18,3,12,-86,-128,-60,-64,-2
1491695046947,1,6,-9,-34,50,37,88,13,19
1491695046948,2,-10,3,-16,-96,-44,-12,-11,7
1491695046948,2,-9,-39,-12,7,18,8,-60,26
1491695046949,3,2,-22,26,102,80,34,55,6
1491695046949,3,9,15,19,-26,-11,52,-10,-38
1491695046997,0,-13,20,-22,-96,-128,-43,6,-28
1491695046997,0,-5,19,-21,-27,-67,17,-11,20
1491695046998,1,-4,6,36,78,104,26,5,19
1491695046998,1,4,-3,-6,108,127,39,36,-17
1491695046999,3,20,-9,-17,-3,-69,-54,16,8
1491695046999,3,4,-13,40,78,97,36,63,-15
1491695047000,0,5,13,-17,-45,-41,36,-14,-15
1491695047000,0,-48,24,-16,-7,34,-11,12,-22
1491695047043,1,7,4,-45,-111,-128,-78,-53,17
1491695047043,1,13,-4,1,48,76,24,5,-5
1491695047044,2,-2,13,-3,25,98,-46,-9,0
1491695047044,2,0,18,25,24,-42,-42,-23,-5
1491695047045,0,-4,1,-10,-44,-62,1,-10,19
1491695047045,0,-1,32,-58,69,-57,-118,-42,10
1491695047047,1,1,7,10,66,69,45,16,-1
1491695047047,1,-7,-55,5,8,15,62,17,-4
1491695047092,2,5,-33,16,16,-14,-21,10,-2
1491695047092,2,-11,-10,-10,-81,-35,-35,-6,-17
1491695047093,3,-7,9,-26,-28,10,-39,-4,-20
1491695047093,3,-1,-10,-25,-31,2,-21,-21,29
1491695047095,1,-5,-6,-59,-126,-44,-45,-12,-5
1491695047095,1,-12,-3,19,59,-62,26,19,7
1491695047095,2,5,-31,-7,33,30,-9,-4,16
1491695047095,2,-19,-3,20,-1,-100,-29,-14,-3
1491695047141,3,-3,24,-16,7,-1,16,10,-8
1491695047141,3,11,-63,-18,-39,-62,-42,-7,1
1491695047142,0,1,-17,17,55,119,72,3,-10
1491695047142,0,3,0,20,-11,-44,-7,1,-1
1491695047144,2,3,39,12,78,32,-46,-8,6
1491695047144,2,-2,26,38,7,33,60,35,-15
1491695047145,3,2,18,-11,-119,-109,-13,-25,8
1491695047145,3,8,36,7,95,51,-10,25,18
1491695047190,0,-27,-18,-58,-35,-81,31,-16,-32
1491695047190,0,11,-2,33,54,29,-99,-11,21
1491695047191,1,-10,1,25,4,-60,20,-16,8
1491695047191,1,12,25,12,-51,-32,0,11,-20
1491695047192,3,14,-18,-50,11,46,9,-4,-12
1491695047192,3,14,16,80,47,64,22,11,7
1491695047193,0,41,-36,-1,-3,5,79,17,9
1491695047193,0,27,-52,-19,-90,-97,-73,-30,-19
1491695047238,1,-21,-28,-36,118,122,16,-11,8
1491695047238,1,-11,-4,-57,-55,-112,-15,-21,3
1491695047240,2,25,16,65,89,61,-11,10,-12
1491695047240,2,2,3,6,18,24,69,27,8
1491695047240,0,-6,6,-13,-15,-97,-42,-22,38
1491695047240,0,-9,-14,-11,-4,7,20,7,-8
1491695047241,1,-18,-20,25,78,97,26,16,-10
1491695047241,1,1,-55,-71,-96,-123,-34,-21,-7
1491695047287,2,-31,-42,-9,13,-40,-28,-18,-9
1491695047287,2,-15,-28,0,84,86,31,15,-3
1491695047288,3,27,2,27,-12,49,5,-4,18
1491695047288,3,92,13,50,8,-56,-9,-7,-4
1491695047290,0,50,5,-63,-57,12,-11,-8,5
1491695047290,0,20,28,-12,-37,-61,-49,-31,-4
1491695047291,1,22,19,19,40,29,15,10,-19
1491695047291,1,-29,22,-18,-42,-19,-24,6,5
1491695047336,2,-17,25,31,29,84,29,1,-11
1491695047336,2,-5,22,7,5,2,53,1,17
1491695047338,3,-23,-6,-25,-60,-73,-60,-3,-2
1491695047338,3,-42,12,-12,38,-5,-27,-29,10
1491695047340,1,-70,-11,0,18,18,11,2,-2
1491695047340,1,-8,2,-30,17,50,-4,-5,-3
1491695047341,2,-12,-41,18,15,-45,0,-9,-3
1491695047341,2,3,-30,4,-68,-14,-20,-6,5
1491695047385,3,9,12,-24,-22,-41,-16,-6,8
1491695047385,3,-15,15,26,53,76,46,34,-13
1491695047388,0,-21,-8,-22,-2,26,5,-5,-7
1491695047388,0,35,9,-8,-36,-22,-26,-12,8
1491695047390,2,-10,49,-5,-31,-31,-21,-18,-16
1491695047390,2,0,15,25,9,21,20,21,0
1491695047392,3,-7,-5,-16,12,35,10,-11,-13
1491695047392,3,5,4,-3,-27,-41,-12,-1,24
1491695047433,0,-6,7,-24,-51,-42,-21,-3,7
1491695047433,0,-27,4,-7,30,57,23,-2,-23
1491695047435,1,21,13,11,-13,-52,-41,-19,-1
1491695047435,1,-22,-44,24,-4,-3,2,18,-9
1491695047436,3,3,-13,12,15,15,19,15,-1
1491695047436,3,-9,19,-25,-31,-48,-24,-24,-2
1491695047437,0,18,11,15,-22,-18,3,2,-11
1491695047437,0,-11,12,-7,-13,1,4,-11,-9
1491695047482,1,16,17,2,-4,-30,-10,9,8
1491695047482,1,0,3,-10,19,21,18,13,0
1491695047484,2,-10,15,5,-7,14,3,4,-11
1491695047484,2,-1,-3,0,12,4,6,-8,-2
1491695047485,0,-25,8,2,-1,-30,-9,7,-1
1491695047485,0,42,13,-37,-28,-21,-7,-16,-10
1491695047487,1,-28,39,-3,-14,-21,-2,-5,1
1491695047487,1,34,13,-7,18,34,-7,19,16
1491695047531,2,-7,8,33,21,16,3,-20,1
1491695047531,2,-12,-34,-21,3,3,0,-5,-3
1491695047532,3,-30,-31,-16,-23,-20,0,5,2
1491695047532,3,-21,51,12,-21,-29,-23,4,-5
1491695047534,1,39,58,-6,4,5,-11,-5,4
1491695047534,1,25,-13,28,-1,-6,25,-8,1
1491695047535,2,-27,-60,-14,16,5,-23,-2,-5
1491695047535,2,-71,-41,6,14,39,4,-7,-4
1491695047580,3,-121,-55,9,3,-3,-4,5,-6
1491695047580,3,-128,-43,-29,-31,-22,-5,-17,5
1491695047581,0,-111,-5,-5,-1,-13,-23,-12,-2
1491695047581,0,-16,-8,7,2,-33,-19,8,-4
1491695047582,2,112,-16,2,24,18,33,27,13
1491695047582,2,-50,-27,5,-8,-16,16,-9,2
1491695047583,3,-6,-7,-12,0,-6,-39,-6,-14
1491695047583,3,14,0,-4,-11,4,26,4,2
1491695047628,0,44,12,17,18,14,-23,5,1
1491695047628,0,29,23,6,11,12,27,12,-4
1491695047630,1,18,11,-43,-41,-25,-9,3,23
1491695047630,1,-13,-3,-3,-22,-55,-5,-26,-15
1491695047631,2,39,-22,24,18,47,-73,-27,-22
1491695047631,2,52,50,-2,-5,-12,27,29,23
1491695047632,3,20,12,9,5,-20,-5,3,-5
1491695047632,3,11,-4,-9,3,11,18,-5,-2
1491695047726,0,-28,-48,-14,21,49,54,7,2
1491695047726,0,21,-28,33,-18,-56,-33,-21,5
1491695047728,1,13,-23,-2,-9,10,-14,5,-7
1491695047728,1,39,-20,4,-3,-45,-39,-22,-16
1491695047729,3,-36,-14,-15,-27,-27,-22,-9,-4
1491695047729,3,10,5,-3,-3,7,-15,13,21
1491695047730,0,-26,-7,-2,-6,-1,57,-22,-5
1491695047730,0,41,-8,-19,-9,-22,-63,-5,13
1491695047775,1,10,-1,9,16,-36,-18,-3,-13
1491695047775,1,43,1,25,19,63,64,4,-22
1491695047777,2,26,4,-12,1,46,-44,46,9
1491695047777,2,-2,-2,-3,-4,-47,-4,-43,4
1491695047779,0,16,12,11,8,-3,25,8,10
1491695047779,0,31,5,39,12,-38,93,32,-23
1491695047780,1,-32,2,-7,-4,-26,-13,-14,3
1491695047780,1,4,-26,-25,-25,-32,-52,-39,-23
1491695047824,2,-33,-21,-2,-11,-45,14,-4,8
1491695047824,2,1,-16,-6,-11,-6,2,-13,-11
1491695047826,3,43,13,8,26,38,42,34,0
1491695047826,3,-23,21,23,60,83,9,-7,-8
1491695047827,2,36,11,33,11,33,14,-16,1
1491695047827,2,-67,-8,-10,-19,-21,-127,2,9
1491695047835,3,3,5,-13,-14,-7,102,5,-19
1491695047835,3,-23,-5,6,18,-2,39,17,-2
1491695047881,0,13,13,-7,7,7,-48,-38,-9
1491695047881,0,5,28,17,13,43,90,16,6
1491695047883,1,36,-7,-22,-19,-20,-26,-43,-20
1491695047883,1,-57,12,-3,-29,-30,-30,-1,-5
1491695047884,3,9,55,18,28,2,61,-35,-14
1491695047884,3,-21,20,-3,-13,10,-31,38,4
1491695047885,0,-7,-12,-10,-35,-69,25,-34,-14
1491695047885,0,-27,-22,-30,3,-32,-101,-18,0
1491695047921,1,-49,-51,13,-1,1,28,-11,8
1491695047921,1,4,-37,9,2,9,47,37,11
1491695047923,2,7,-6,8,0,2,-90,-41,-24
1491695047923,2,21,3,-1,11,62,104,46,19
1491695047924,0,-56,-21,4,-10,17,5,-3,-15
1491695047924,0,-4,-38,1,-2,-34,41,24,2
1491695047925,1,4,13,2,-4,-32,-82,-37,0
1491695047925,1,63,50,-15,-9,-26,1,15,19
1491695047970,2,-66,31,-3,19,70,8,-1,-10
1491695047970,2,49,40,4,-7,-23,-76,-20,-7
1491695047972,3,-21,2,2,2,1,42,10,-1
1491695047972,3,-18,-4,-1,-6,-7,70,10,-9
1491695047973,0,-3,-11,-2,0,27,-10,14,19
1491695047973,0,-15,-47,3,12,12,-10,-40,-18
1491695047974,1,-11,-56,-17,-26,-17,1,54,2
1491695047974,1,29,-31,-12,-13,-1,-54,-87,-10
1491695048019,2,36,-5,2,20,46,115,2,-5
1491695048019,2,-32,-11,2,-9,-58,-118,63,26
1491695048020,3,8,-5,12,17,85,80,19,-15
1491695048020,3,-30,-8,9,8,-3,9,8,4
1491695048022,1,12,0,-9,-17,-43,7,19,23
1491695048022,1,4,-12,1,7,23,-5,-1,-13
1491695048023,2,41,-4,-6,25,44,52,23,-8
1491695048023,2,-53,10,-2,-14,-29,60,-30,-24
1491695048067,3,0,-13,-6,-3,33,-83,28,16
1491695048067,3,-7,-13,3,3,-31,-55,-35,-4
1491695048069,0,-2,-7,6,3,11,-45,4,0
1491695048069,0,53,12,-1,-7,-26,55,-15,-17
1491695048070,2,-34,4,-3,3,-7,60,20,8
1491695048070,2,-27,2,4,-2,-2,-71,-1,2
1491695048071,3,-15,26,-8,9,13,14,-17,-11
1491695048071,3,55,39,-7,-19,-4,17,16,-4
1491695048116,0,6,2,2,-15,-47,-69,-41,3
1491695048116,0,-22,-4,18,16,24,57,7,-21
1491695048118,1,-21,11,-2,6,-11,-67,-48,8
1491695048118,1,40,-14,-8,-4,-12,34,24,-10
1491695048165,3,2,-11,7,10,9,9,-39,-14
1491695048165,3,-22,-35,-6,-25,-44,3,17,11
1491695048167,0,37,0,14,-1,9,19,6,1
1491695048167,0,-24,-18,-15,6,23,12,9,-9
1491695048168,1,29,1,5,-5,-45,0,21,-22
1491695048168,1,-59,-23,6,24,78,99,2,-10
1491695048169,2,18,7,-10,-8,-40,-128,-5,0
1491695048169,2,5,-4,-20,-20,2,8,-4,10
1491695048214,0,32,4,-2,0,28,14,-47,-4
1491695048214,0,-53,6,8,5,4,24,1,-17
1491695048216,1,66,-21,-25,-17,-19,-70,20,24
1491695048216,1,-10,-11,10,-8,1,10,5,12
1491695048217,2,-5,-14,-10,5,4,5,-7,29
1491695048217,2,-7,22,-2,-10,-7,-19,-26,9
1491695048218,1,-23,-3,-7,-11,-15,-5,17,-2
1491695048218,1,-41,-17,-10,-10,-28,-33,20,3
1491695048263,2,-18,5,14,17,4,16,11,-9
1491695048263,2,32,18,-9,1,4,20,-18,-20
1491695048265,3,-42,13,11,-6,4,16,5,-10
1491695048265,3,-20,0,1,16,9,-33,6,-3
1491695048267,2,-21,2,-10,4,11,49,10,30
1491695048267,2,4,5,11,-3,-6,-45,-40,7
1491695048268,3,5,19,1,10,2,-11,-14,11
1491695048268,3,7,6,7,-18,-2,5,-3,-17
1491695048312,0,-14,12,-4,12,20,35,16,-4
1491695048312,0,22,0,-3,-6,-15,12,18,-8
1491695048313,1,-29,-10,-5,-11,-13,5,-6,-7
1491695048313,1,-12,-5,-14,-8,6,-20,2,-6
1491695048315,3,20,-13,0,0,-11,-26,-41,0
1491695048315,3,32,-17,-11,-20,-15,22,18,5
1491695048316,0,69,1,-4,-23,-42,-43,11,4
1491695048316,0,-12,-5,5,-3,6,31,-15,-16
1491695048367,1,-7,-16,-3,0,-3,-34,-18,-12
1491695048367,1,4,-12,-6,15,22,-7,-6,-5
1491695048369,2,-58,4,-3,-7,2,5,-19,-21
1491695048369,2,6,15,14,9,-4,3,68,-1
1491695048370,3,8,9,1,1,-32,-6,1,-2
1491695048370,3,6,4,-13,-21,2,4,1,-10
1491695048371,0,-3,12,3,0,-39,-8,22,4
1491695048371,0,3,1,0,19,71,23,-61,-17
1491695048409,1,-27,8,12,4,-17,8,-35,-1
1491695048409,1,2,8,4,-2,-6,-86,11,8
1491695048412,2,-57,-8,-10,-1,-12,68,15,-7
1491695048412,2,-8,9,-8,-37,-68,0,8,10
1491695048413,0,59,-6,-9,6,7,-59,-2,13
1491695048413,0,-33,-20,-9,1,35,62,101,-10
1491695048415,1,-69,18,8,-4,1,15,-51,4
1491695048415,1,38,-9,-8,10,-3,2,12,20
1491695048457,2,-18,1,22,4,5,34,-22,-28
1491695048457,2,11,-10,-8,6,44,16,11,-17
1491695048458,3,62,10,-2,29,7,97,45,46
1491695048458,3,-63,0,-11,-47,-108,-85,-7,-46
1491695048458,1,16,-10,1,-19,-68,-81,64,14
1491695048458,1,6,-5,-12,9,58,127,4,7
1491695048459,2,38,-4,-18,11,1,-128,-11,33
1491695048459,2,-31,-16,22,30,-22,57,-51,1
1491695048506,3,32,-1,-2,-5,84,12,-28,14
1491695048506,3,29,13,47,36,47,51,24,-16
1491695048507,0,-10,-19,-20,-46,-89,-67,-97,-14
1491695048507,0,-5,12,-17,-19,37,-46,49,10
1491695048508,2,-16,8,-4,-5,74,69,24,-25
1491695048508,2,16,10,-2,98,67,-32,14,4
1491695048508,3,-18,-4,12,-23,-92,-38,37,-8
1491695048508,3,23,-2,-5,-41,91,102,27,17
1491695048555,0,19,2,16,-7,-84,52,43,15
1491695048555,0,-29,1,-5,-3,-34,-117,-10,-2
1491695048556,1,-61,-3,-31,30,126,85,55,-15
1491695048556,1,22,-8,33,-36,-112,-88,-76,-8
1491695048556,3,9,-1,-8,-1,-68,-95,-106,-27
1491695048556,3,-9,-2,-20,-14,-26,-114,27,7
1491695048557,0,8,2,-6,17,86,116,28,1
1491695048557,0,26,3,19,-1,-68,-42,20,7
1491695048606,1,-82,15,-12,-10,-26,-27,31,-24
1491695048606,1,53,-1,3,-25,34,96,-21,-37
1491695048607,2,-23,1,-1,19,78,-128,-28,12
1491695048607,2,44,-8,3,31,-72,-93,-100,2
1491695048608,0,-16,6,10,9,34,127,-6,19
1491695048608,0,-7,20,29,58,111,107,-30,-23
1491695048610,1,89,14,19,33,-101,-94,-12,3
1491695048610,1,-22,-22,-47,-70,-18,-84,-38,-11
1491695048653,2,-13,-2,14,36,-128,44,-20,0
1491695048653,2,-2,6,4,-53,18,7,-51,29
1491695048655,3,-27,-6,24,106,127,127,29,-26
1491695048655,3,-24,5,-6,37,44,12,-9,11
1491695048656,1,1,-4,-3,14,-32,-23,32,23
1491695048656,1,-38,18,27,75,127,76,-24,-27
1491695048657,2,0,4,13,-19,-63,-73,-127,-24
1491695048657,2,-14,-15,-52,-128,-128,79,127,19
1491695048701,3,45,15,17,86,121,-37,-62,32
1491695048701,3,-39,-24,24,52,-100,-61,52,1
1491695048703,0,33,25,7,-22,-62,56,43,-15
1491695048703,0,-1,19,4,13,71,42,14,6
1491695048704,1,-26,2,-16,-25,70,-66,-8,-5
1491695048704,1,-2,19,-5,-19,-75,-7,36,-5
1491695048706,2,-5,-9,17,11,19,-10,-92,-8
1491695048706,2,36,-36,-40,38,-38,1,15,1
1491695048750,3,-88,-6,-34,-87,32,47,-34,16
1491695048750,3,48,9,94,127,127,115,-23,36
1491695048752,0,-1,-12,-4,-9,-38,-21,51,18
1491695048752,0,-28,-15,-39,-29,-3,6,5,-36
1491695048756,2,-58,-18,-42,-52,5,-88,-38,16
1491695048756,2,-25,-19,3,52,-59,80,-94,30
1491695048757,3,58,-13,56,72,14,-49,48,12
1491695048757,3,37,6,-62,-33,-128,115,104,58
1491695048799,0,-4,-8,17,0,26,-29,-27,-43
1491695048799,0,-39,16,38,-47,-67,23,71,14
1491695048801,1,30,-33,-29,50,72,-117,-70,-33
1491695048801,1,-15,-18,25,28,82,108,22,23
1491695048802,3,-13,25,-4,-111,-128,-34,-93,-4
1491695048802,3,1,0,-15,21,60,-81,-19,2
1491695048803,0,-21,1,0,112,127,-55,-4,-11
1491695048803,0,15,8,17,-99,-125,21,68,45
1491695048848,1,-40,-25,21,30,-12,5,27,-34
1491695048848,1,-17,-5,-119,-96,-52,35,84,8
1491695048858,2,20,-10,55,-4,-83,41,-103,-25
1491695048858,2,-40,-2,11,43,127,-45,36,-11
1491695048859,0,-7,-17,-82,13,25,-33,-23,-38
1491695048859,0,-12,1,-78,-128,-128,28,8,17
1491695048860,1,10,-3,44,3,-89,-37,-54,-21
1491695048860,1,-3,-3,-21,125,127,-34,-31,-43
1491695048896,2,17,24,101,-81,-103,127,61,11
1491695048896,2,5,-63,-12,15,-15,-67,7,-12
1491695048898,3,11,-92,1,-9,-44,9,34,21
1491695048898,3,-3,-40,24,109,72,-53,-55,-41
1491695048899,1,-34,-72,-58,-128,-78,-17,14,-16
1491695048899,1,-8,-41,33,76,-52,-13,-50,25
1491695048900,2,26,32,55,127,72,120,123,-26
1491695048900,2,-4,21,25,-93,-73,-128,-83,-20
1491695048945,3,-9,26,-19,47,86,-25,-77,44
1491695048945,3,-11,25,-25,17,-22,45,25,2
1491695048946,0,-13,40,-17,-85,-118,-92,-53,-63
1491695048946,0,3,53,10,71,127,-27,43,-7
1491695048947,2,9,25,8,-49,-82,-45,-22,34
1491695048947,2,-9,-27,-75,-88,-89,-87,-37,-51
1491695048947,3,-22,36,-38,50,82,-13,33,18
1491695048947,3,-12,52,10,74,75,54,13,5
1491695048994,0,4,18,-28,71,15,76,66,-2
1491695048994,0,17,-3,14,-58,-4,-68,-78,-8
1491695048996,1,-12,-26,23,-40,-19,44,26,3
1491695048996,1,22,-36,-7,-21,-22,66,35,-15
1491695048998,3,4,38,-31,1,-14,18,-34,-1
1491695048998,3,7,26,43,7,34,37,20,-17
1491695049000,0,1,4,-56,-86,-56,3,-12,32
1491695049000,0,-11,-11,29,127,127,120,38,3
1491695049042,1,20,6,22,-33,-108,108,25,-14
1491695049042,1,-31,-23,-44,-83,-123,-91,-25,-13
1491695049045,2,45,-17,29,93,109,75,-17,22
1491695049045,2,22,13,81,41,101,127,112,-24
1491695049046,3,-11,-73,-37,-38,-40,-73,-68,25
1491695049046,3,2,-39,-33,-85,-72,-52,-83,7
1491695049047,0,-5,-6,-84,-19,-7,16,19,12
1491695049047,0,5,57,94,127,49,47,-2,0
1491695049091,1,-1,77,81,56,87,90,66,-21
1491695049091,1,5,1,-30,-79,-42,-33,-2,-19
1491695049140,2,-27,-44,17,-10,6,-29,-46,16
1491695049140,2,30,-40,-47,-124,-128,-80,-24,7
1491695049142,0,-13,-22,36,10,51,44,-24,-28
1491695049142,0,12,-30,-19,-54,-68,-39,-28,19
1491695049143,1,-18,-29,-6,18,51,-6,2,-8
1491695049143,1,7,-9,-14,1,-33,-58,-27,9
1491695049144,2,-7,0,-30,25,31,52,35,-19
1491695049144,2,-12,-3,27,27,4,12,-6,0
1491695049189,3,6,-7,2,-26,-13,23,7,-4
1491695049189,3,-9,-79,41,81,74,-45,-3,-12
1491695049191,1,-6,37,-17,65,14,59,22,-15
1491695049191,1,4,54,6,-77,-24,-24,-19,13
1491695049192,2,15,53,22,71,22,-31,-11,9
1491695049192,2,6,49,-18,17,66,61,38,-19
1491695049193,2,-22,-3,24,81,25,50,15,2
1491695049193,2,28,0,-41,-38,-38,73,9,-21
1491695049238,3,6,0,-47,-37,-84,-121,-35,43
1491695049238,3,26,6,-2,64,10,-10,-16,15
1491695049239,0,-21,9,96,127,117,100,41,-11
1491695049239,0,10,-35,-44,-46,55,38,28,-44
1491695049241,3,16,6,-2,-53,-55,-12,-15,1
1491695049241,3,-35,10,-21,17,71,-6,5,12
1491695049241,0,30,6,-10,-128,-128,-108,-48,34
1491695049241,0,-13,-20,-20,117,127,36,17,-4
1491695049286,1,47,10,55,50,45,104,56,-52
1491695049286,1,-32,0,9,-121,-128,-43,-22,-40
1491695049288,2,-28,11,-89,-38,-85,-57,-8,6
1491695049288,2,21,19,40,32,-3,36,14,9
1491695049289,0,-64,-24,-28,-67,-126,-44,35,-35
1491695049289,0,12,-10,-35,-21,-15,-53,-32,-6
1491695049290,1,21,-4,63,107,87,84,45,-2
1491695049290,1,125,0,39,55,76,84,19,-8
1491695049335,2,17,0,-41,-80,-45,-38,-18,31
1491695049335,2,-31,7,-36,-88,-103,-86,-39,-31
1491695049337,3,-32,-37,-35,-8,-28,-27,-11,11
1491695049337,3,-90,-87,-35,40,10,-30,-2,-3
1491695049338,1,4,13,-45,-115,-105,-60,-23,17
1491695049338,1,-16,76,-7,-9,-107,-81,-38,15
1491695049339,2,-14,41,21,45,73,70,29,-16
1491695049339,2,-47,31,20,2,21,22,-15,4
1491695049383,3,-6,10,9,42,55,-21,12,0
1491695049383,3,-26,23,-16,-17,-1,2,-6,1
1491695049385,0,-22,12,-6,52,113,7,-2,9
1491695049385,0,-17,23,25,-15,-34,-38,-42,2
1491695049386,1,-29,-7,-19,-72,-56,-16,-15,-18
1491695049386,1,-42,7,-58,-38,-50,-13,15,-2
1491695049387,2,23,21,27,63,13,-8,-15,-6
1491695049387,2,16,25,23,45,50,41,28,29
1491695049432,3,-37,12,18,65,53,10,7,-1
1491695049432,3,-9,-16,-24,-93,-37,-13,-22,-43
1491695049433,0,3,0,34,-9,-10,23,10,0
1491695049433,0,-8,-22,-17,26,11,-34,23,-12
1491695049434,2,15,-3,-5,-16,-65,-62,-15,-3
1491695049434,2,21,-13,26,26,22,35,33,8
1491695049435,3,-52,-8,-4,15,74,50,-22,-21
1491695049435,3,39,-5,-23,-1,-53,-39,-1,18
1491695049481,0,-15,4,-12,-15,44,22,9,-14
1491695049481,0,-38,3,-28,-68,-70,-55,-27,1
1491695049482,1,-9,16,13,16,13,-2,-7,-14
1491695049482,1,11,82,26,29,63,36,-2,9
1491695049484,3,2,0,10,-19,-40,-17,-20,3
1491695049484,3,17,-32,-2,-11,-51,-48,-22,12
1491695049485,0,-1,-53,20,5,23,20,-8,-3
1491695049485,0,-12,-24,7,35,44,9,-22,-14
1491695049530,1,-2,-33,15,55,71,27,26,9
1491695049530,1,27,-18,-31,-54,-12,7,-4,2
1491695049531,2,-24,-18,-34,-49,-77,-7,-19,-8
1491695049531,2,19,-27,0,5,-4,-3,13,20
1491695049532,0,-7,-2,-36,-36,47,-7,-14,-2
1491695049532,0,15,-7,-1,-34,-48,-11,-6,15
1491695049533,1,29,29,-18,-16,-59,-66,-7,-4
1491695049533,1,-12,5,15,-15,-13,2,13,-14
1491695049578,2,-17,-1,-1,-1,-49,-10,5,-8
1491695049578,2,-28,11,5,15,42,7,2,-12
1491695049579,3,-89,-8,-1,27,52,28,12,12
1491695049579,3,-109,-10,-32,-25,-3,31,-3,-9
1491695049580,1,32,13,19,22,24,33,38,17
1491695049580,1,79,-5,1,14,18,14,13,16
1491695049581,2,42,-2,9,12,12,16,12,-2
1491695049581,2,31,5,10,40,20,23,11,2
1491695049627,3,14,-4,-17,-50,-2,-3,-41,-6
1491695049627,3,12,25,-1,-37,-73,-68,-2,-5
1491695049628,0,18,27,-15,-5,-25,23,-3,10
1491695049628,0,74,16,-11,0,-26,-39,-17,4
1491695049629,2,0,-14,7,-29,-64,19,18,-8
1491695049629,2,1,-13,-2,16,58,30,9,-5
1491695049630,3,32,-17,-14,-14,-33,-79,-24,12
1491695049630,3,-26,-27,-2,9,1,34,29,-4
1491695049676,0,59,2,4,14,36,3,-28,-9
1491695049676,0,7,-6,16,-6,-35,16,-17,-19
1491695049677,1,12,-10,-5,8,64,-15,11,1
1491695049677,1,5,-21,-17,-59,-102,17,-7,-4
1491695049678,3,24,1,15,7,25,14,-17,-11
1491695049678,3,-17,-2,16,25,46,57,-14,-8
1491695049678,0,11,3,13,-47,-53,-47,-13,16
1491695049678,0,23,9,-5,5,-4,-27,-13,3
1491695049725,1,13,1,-13,8,-27,31,13,-13
1491695049725,1,66,6,-12,15,52,-7,-8,13
1491695049726,2,-4,3,9,12,26,84,25,-18
1491695049726,2,-11,-7,-4,-8,-4,-47,-43,-4
1491695049728,0,5,7,-18,-31,-15,53,18,-11
1491695049728,0,18,14,10,-4,-38,-109,-13,13
1491695049728,1,-30,-6,-19,-4,27,15,-17,2
1491695049728,1,30,2,12,35,0,14,9,9
1491695049773,2,64,-16,-3,-14,-22,2,27,-6
1491695049773,2,28,-10,-4,9,34,65,19,-5
1491695049775,3,-23,-12,-4,-6,-23,-56,-10,-1
1491695049775,3,21,-4,2,8,13,-8,-2,-34
1491695049776,0,31,-2,24,51,70,35,30,25
1491695049776,0,-8,-9,-2,-33,-88,27,37,2
1491695049777,1,-9,1,-7,-25,47,50,19,-20
1491695049777,1,-39,-12,-34,-28,-50,-86,-29,12
1491695049822,2,0,-11,1,5,-53,27,12,11
1491695049822,2,-17,3,17,51,127,2,-10,-2
1491695049824,3,4,16,5,15,-128,11,-3,14
1491695049824,3,25,21,6,-2,85,21,-28,-7
1491695049825,1,-83,2,-15,-56,-82,2,-21,-7
1491695049825,1,-23,24,20,63,34,1,75,24
