1491694746677,0,36,-9,7,-90,76,-104,-31,69
1491694746677,0,57,-73,31,102,-79,-36,105,-98
1491694746677,1,-95,-106,41,117,-65,52,115,-114
1491694746677,1,-99,-60,26,103,-46,95,101,-128
1491694746678,2,-128,63,-23,116,-29,127,32,-128
1491694746678,2,-122,126,-14,33,41,127,26,-92
1491694746725,3,-66,127,-31,-38,-16,67,-42,-127
1491694746725,3,-128,125,-14,48,-27,52,-47,-77
1491694746727,0,-96,-96,-3,37,21,32,-47,-84
1491694746727,0,-40,-106,-1,16,12,17,-16,-25
1491694746728,1,41,23,-7,-50,96,64,14,59
1491694746728,1,118,23,2,-127,-23,-97,-61,125
1491694746728,2,103,42,3,-108,57,-103,-38,114
1491694746728,2,126,-3,-5,-128,-96,-128,-49,127
1491694746774,3,111,-62,-2,-71,7,19,-15,127
1491694746774,3,127,-18,3,42,26,22,-44,127
1491694746776,0,7,-28,12,-34,30,-47,34,87
1491694746776,0,85,-26,-9,-42,55,78,5,122
1491694746777,1,4,-39,0,-79,-26,-34,-5,125
1491694746777,1,43,-37,-4,-107,40,-98,2,118
1491694746777,2,98,-53,-2,-90,-58,-36,-30,94
1491694746777,2,7,9,-2,83,40,-113,-13,82
1491694746823,3,16,9,-1,64,-63,-128,-18,4
1491694746823,3,-22,0,0,60,-11,-4,7,-67
1491694746824,0,-83,21,8,89,-24,122,25,-53
1491694746824,0,-92,48,0,-6,-22,106,-16,-105
1491694746826,2,-107,54,-5,49,-54,25,11,-128
1491694746826,2,-60,23,12,54,27,47,31,-64
1491694746827,3,-7,-30,1,22,-26,-67,-10,-48
1491694746827,3,56,-17,7,-14,47,-8,-12,-9
1491694746871,0,60,-25,-4,-1,-24,-10,25,10
1491694746871,0,-21,-34,-2,-43,49,-69,-31,40
1491694746873,1,45,-23,3,-40,28,-60,-13,69
1491694746873,1,60,-13,-40,-68,-22,-53,44,84
1491694746875,3,-54,22,4,75,-25,30,17,-56
1491694746875,3,-22,-13,46,48,19,40,-12,-20
1491694746876,0,24,4,25,21,17,6,36,-7
1491694746876,0,-3,-1,7,-82,-15,-22,-32,-5
1491694746920,1,-5,-2,53,-35,4,27,10,6
1491694746920,1,-39,-9,98,17,26,3,-17,-38
1491694746922,2,-21,-21,24,4,-16,3,10,-4
1491694746922,2,21,4,-66,-22,1,-22,-56,-4
1491694746923,0,-13,6,-18,17,-2,14,55,11
1491694746923,0,9,14,8,-23,-57,-22,-18,-1
1491694746924,1,7,-37,-19,-26,21,-22,-24,1
1491694746924,1,-32,4,3,-14,7,24,-7,3
1491694746969,2,29,8,10,32,13,-32,-9,0
1491694746969,2,-20,3,13,21,-9,-16,-4,9
1491694746971,3,-5,11,10,-15,11,-32,-23,-31
1491694746971,3,-26,-1,-4,-14,-20,26,34,-19
1491694746972,0,-50,-2,-2,34,-15,-3,-7,-19
1491694746972,0,-19,8,12,-3,13,22,28,-14
1491694746973,1,-10,-10,15,-7,1,-70,-18,8
1491694746973,1,-12,-11,-7,-3,2,-116,14,2
1491694747017,2,12,3,-12,16,15,-27,14,13
1491694747017,2,0,-6,5,-31,-23,83,-26,-20
1491694747019,3,36,-20,-6,-24,4,113,2,31
1491694747019,3,1,-4,-14,7,12,33,-104,-14
1491694747020,1,-9,14,17,10,-25,-81,53,-12
1491694747020,1,-44,2,9,1,21,-114,33,-5
1491694747021,2,28,23,5,21,1,113,24,-27
1491694747021,2,-9,-1,1,4,21,69,34,-29
1491694747066,3,-10,5,-12,-11,-50,62,4,15
1491694747066,3,9,-23,-9,-16,-4,-7,-5,7
1491694747067,0,-11,-12,9,6,6,-74,-22,26
1491694747067,0,52,-12,0,-1,15,-63,-15,48
1491694747069,2,6,0,2,4,6,31,-26,-14
1491694747069,2,-38,-13,-5,-15,-3,-71,38,13
1491694747070,3,78,3,-2,-13,-20,9,-40,-7
1491694747070,3,-48,22,0,6,-16,0,-6,-16
1491694747115,0,-13,8,-2,8,-8,54,6,-6
1491694747115,0,-1,-5,2,7,7,-44,-14,-22
1491694747117,1,-20,18,2,10,7,-3,-20,-5
1491694747117,1,6,5,2,8,2,20,47,-3
1491694747164,3,-15,-4,-2,-2,6,-25,10,2
1491694747164,3,17,-2,-2,-2,1,43,12,4
1491694747165,0,-7,-8,-4,-13,-7,-38,-11,7
1491694747165,0,7,21,3,-1,-9,1,16,29
1491694747166,1,5,-12,-2,-2,11,-16,-29,-26
1491694747166,1,-4,9,-3,3,1,27,-14,1
1491694747167,2,-6,-5,4,2,-1,28,38,-1
1491694747167,2,5,3,2,1,-3,4,13,3
1491694747212,0,14,-19,-13,-11,-3,-34,-55,12
1491694747212,0,3,-9,0,-10,5,41,14,-5
1491694747214,1,3,-19,-7,-11,-7,-48,-6,32
1491694747214,1,14,-12,-17,-9,9,-1,4,20
1491694747214,1,-12,0,1,6,-3,6,-7,-27
1491694747214,1,-18,2,1,10,-20,-38,11,-20
1491694747216,2,-10,2,1,11,-7,53,-23,-24
1491694747216,2,-16,-7,-5,4,13,23,36,-22
1491694747262,3,-10,-11,-5,9,19,8,-10,-3
1491694747262,3,8,-3,3,-20,-32,-11,4,-1
1491694747263,0,-11,-7,-7,-17,-22,-9,-1,10
1491694747263,0,0,1,-10,11,2,-22,-29,-18
1491694747264,2,-10,22,12,7,-25,19,-1,-52
1491694747264,2,-34,23,-5,6,-34,3,-8,-77
1491694747264,3,-29,45,7,26,-20,0,31,-81
1491694747264,3,-37,12,5,34,9,77,-27,-91
1491694747310,0,-12,28,10,53,11,91,42,-106
1491694747310,0,-22,-12,-5,17,17,-49,-31,-51
1491694747312,1,-54,10,-9,-18,-64,61,-1,-71
1491694747312,1,1,-4,-17,-20,-4,-39,-25,-33
1491694747313,2,8,-3,11,4,2,-21,-5,4
1491694747313,2,14,0,0,4,64,12,-11,-17
1491694747313,3,11,-3,-5,-15,-3,-58,21,28
1491694747313,3,9,-16,-5,-15,-4,-17,-31,18
1491694747359,0,-17,-18,-14,-15,16,-24,-31,8
1491694747359,0,16,-19,-3,-30,-33,-81,-2,52
1491694747360,1,82,-101,-13,-63,20,-111,-50,118
1491694747360,1,78,-98,-13,-86,36,-80,27,121
1491694747361,3,104,-47,-14,-99,19,-44,-26,115
1491694747361,3,33,2,3,-56,-52,-13,31,121
1491694747362,0,3,28,1,-21,-18,-23,24,58
1491694747362,0,-53,63,14,31,-54,50,40,-34
1491694747408,1,-68,37,12,81,-12,42,-39,-81
1491694747408,1,-48,57,26,93,27,87,-11,-106
1491694747409,2,-68,49,7,80,-17,0,52,-124
1491694747409,2,-52,31,-1,62,-19,64,9,-108
1491694747410,0,-33,-13,-15,17,-20,43,-25,-37
1491694747410,0,-10,-8,12,10,-3,-35,31,-6
1491694747411,1,-17,-2,-12,15,20,10,-74,-42
1491694747411,1,-2,0,6,13,7,-3,61,-3
1491694747456,2,-21,0,-3,5,24,3,6,-55
1491694747456,2,5,-6,-31,-1,-4,-8,42,-16
1491694747458,3,-15,2,17,3,-19,-31,-11,-5
1491694747458,3,6,12,-29,-3,16,24,-2,-15
1491694747458,1,4,34,38,3,12,10,31,-13
1491694747458,1,-3,-2,16,5,-2,5,3,-31
1491694747459,2,-7,-11,-69,-11,-11,42,14,0
1491694747459,2,-5,29,0,11,6,49,-23,17
1491694747506,3,-7,22,31,6,18,-29,28,-14
1491694747506,3,4,-42,-21,-10,-13,-38,-37,3
1491694747507,0,16,35,42,0,15,43,12,-1
1491694747507,0,22,-33,49,-11,0,-89,-3,38
1491694747554,2,36,-4,19,2,1,-77,-48,37
1491694747554,2,20,-5,-24,-12,-11,54,-19,-31
1491694747555,3,3,27,100,24,-3,11,27,-8
1491694747555,3,-10,31,-7,21,-7,45,-8,-53
1491694747556,0,-15,16,-27,18,4,-26,0,-56
1491694747556,0,-36,27,57,19,-5,69,18,-63
1491694747557,1,-16,-12,-25,1,-10,10,-20,-31
1491694747557,1,-12,-14,-31,6,0,12,5,-18
1491694747603,3,-39,-16,-24,36,-31,13,9,-112
1491694747603,3,-18,-28,26,23,-3,48,-32,-109
1491694747604,0,-11,13,-8,19,16,6,7,-47
1491694747604,0,10,12,-12,33,-11,27,-13,-28
1491694747651,1,-41,28,-15,22,21,107,78,-99
1491694747651,1,-32,49,20,27,-31,27,27,-112
1491694747653,0,95,-105,-27,-84,48,-90,-3,114
1491694747653,0,39,-95,-29,-102,34,-126,7,127
1491694747654,1,29,-49,-32,-104,-2,-65,-25,127
1491694747654,1,104,-39,2,-72,34,77,-40,113
1491694747655,2,-20,-13,-10,-96,18,127,-23,127
1491694747655,2,108,-74,-13,-68,23,34,-32,127
1491694747700,1,-55,60,17,35,-28,127,49,-80
1491694747700,1,-37,40,5,58,-35,-51,10,-90
1491694747702,2,-51,12,12,-76,-11,-90,68,-100
1491694747702,2,-2,2,-9,41,-4,-128,-83,-12
1491694747703,1,8,6,-6,-72,-28,90,-23,-39
1491694747703,1,-15,19,10,-56,-18,83,-1,-39
1491694747704,2,17,2,-8,-31,-44,-36,-66,-37
1491694747704,2,24,-2,-3,-7,-65,-114,23,-32
1491694747749,3,-19,14,-6,-4,66,-128,3,5
1491694747749,3,-78,-23,-6,-39,74,-125,30,-15
1491694747750,0,7,26,4,27,45,127,-47,-22
1491694747750,0,-43,7,2,15,97,114,59,-12
1491694747752,2,-10,-30,-8,-20,-77,-113,-51,26
1491694747752,2,25,7,1,-5,-66,-112,-34,6
1491694747753,3,-9,-1,-1,-15,-46,-19,50,19
1491694747753,3,-38,3,-1,-9,4,-30,-24,-12
1491694747798,0,87,-4,7,22,6,17,8,19
1491694747798,0,-11,-15,-11,-18,10,44,-27,-7
1491694747800,1,30,1,4,6,17,-34,-20,-14
1491694747800,1,-6,13,0,9,-4,20,10,-19
1491694747801,3,23,-12,-3,8,0,38,6,-14
1491694747801,3,-54,6,0,6,-5,35,24,-19
1491694747802,0,27,-8,10,-1,0,54,-20,-19
1491694747802,0,-28,-13,-8,0,-1,-53,20,3
1491694747846,1,2,-8,-7,-18,-24,-100,-40,13
1491694747846,1,30,-9,-5,-15,12,20,45,15
1491694747847,2,-4,27,2,20,10,-4,-15,-30
1491694747847,2,-46,22,11,15,-1,50,12,-46
1491694747848,0,1,-29,-6,-8,-7,-5,-4,17
1491694747848,0,56,-70,-15,-56,-14,-108,-58,120
1491694747849,1,9,-107,-21,-93,1,-127,-21,127
1491694747849,1,9,-87,-16,-86,0,-128,4,127
1491694747895,2,106,-34,-4,-50,-6,-90,3,118
1491694747895,2,-16,6,1,-33,1,-55,-29,78
1491694747896,3,12,25,12,11,5,4,51,15
1491694747896,3,-5,34,-1,26,-10,57,-23,-38
1491694747897,1,-27,29,1,54,3,116,52,-89
1491694747897,1,-30,27,2,29,-9,31,-9,-82
1491694747898,2,-38,-18,-4,20,7,49,-23,-68
1491694747898,2,57,-9,-14,3,0,-21,41,-18
1491694747944,3,-10,9,19,13,-4,-11,-32,-21
1491694747944,3,-17,-3,-10,-5,-16,-19,-21,-29
1491694747945,0,-12,-7,-3,-2,4,-21,4,-18
1491694747945,0,-7,-29,-5,-3,4,19,30,-3
1491694747946,2,-4,-4,-2,4,12,16,8,-14
1491694747946,2,-20,6,6,-2,1,-4,-42,-29
1491694747947,3,0,-5,-8,4,6,8,2,-5
1491694747947,3,2,13,3,17,-2,17,-19,-32
1491694747993,0,-15,12,-4,4,-13,16,52,-42
1491694747993,0,21,-3,-9,-2,-12,14,-59,-39
1491694747995,1,-4,2,-3,6,2,14,-3,-36
1491694747995,1,-2,0,4,-1,3,12,10,-27
1491694747996,3,-30,9,-2,3,5,36,-41,-26
1491694747996,3,28,-5,-9,9,13,0,8,-31
1491694747997,0,2,3,-3,-13,-8,-9,9,15
1491694747997,0,-25,-13,-5,-4,0,-12,-57,11
1491694748041,1,25,-14,-4,-21,5,48,18,25
1491694748041,1,-5,-36,-13,-28,-2,-13,-65,31
1491694748043,2,12,-20,-2,-18,3,-20,-17,50
1491694748043,2,-3,-5,-5,-2,-2,-14,21,26
1491694748044,3,-13,33,1,14,-4,42,56,-12
1491694748044,3,-19,33,24,29,-12,-1,-1,-112
1491694748046,0,-26,37,-4,31,-1,48,-43,-82
1491694748046,0,-33,22,-16,22,0,94,46,-98
1491694748090,1,11,18,11,32,-1,22,56,-55
1491694748090,1,-15,19,-6,-7,-19,50,20,-42
1491694748091,2,27,-1,16,11,4,-6,0,8
1491694748091,2,0,-55,3,-32,4,-45,0,0
1491694748139,0,81,-126,-18,-102,14,-128,-57,127
1491694748139,0,56,-86,-58,-114,12,-103,-85,127
1491694748140,1,103,-54,0,-83,-6,-128,23,114
1491694748140,1,-6,7,-15,-29,-11,-24,52,79
1491694748141,2,-3,21,22,8,-20,-36,18,48
1491694748141,2,-34,71,20,43,-7,90,43,-66
1491694748142,3,-96,61,16,53,-16,0,-75,-106
1491694748142,3,-37,51,14,65,7,94,65,-63
1491694748188,1,5,6,29,22,-14,9,7,-86
1491694748188,1,-14,4,-34,27,0,28,-29,-67
1491694748189,2,-41,2,-4,20,-3,-5,37,-51
1491694748189,2,-26,39,8,18,7,29,-5,-24
1491694748190,2,9,9,22,-12,8,-12,-40,18
1491694748190,2,-3,-37,-27,-24,-11,-36,53,35
1491694748191,3,-14,-21,-13,-33,-18,-31,-30,48
1491694748191,3,30,-19,-2,-19,1,-7,-28,37
1491694748236,0,-9,-6,-19,-15,-2,-53,3,13
1491694748236,0,18,14,14,9,9,10,-22,29
1491694748238,1,-2,35,41,25,18,12,47,18
1491694748238,1,6,18,-27,10,8,-2,-25,-5
1491694748239,3,-5,12,32,0,-10,21,61,-8
1491694748239,3,-9,3,5,10,0,-2,-35,-13
1491694748240,0,-5,30,4,32,23,29,4,-14
1491694748240,0,0,0,-24,-9,-4,-23,8,-12
1491694748285,1,-2,27,28,29,0,23,-10,-2
1491694748285,1,-6,9,26,-14,-21,-15,6,-8
1491694748287,2,-9,-38,-63,-29,-15,-4,22,0
1491694748287,2,1,-18,53,-17,-1,-22,-15,17
1491694748287,0,11,28,0,-31,-15,8,-26,-14
1491694748287,0,8,-23,-38,22,-3,-15,22,-26
1491694748288,1,-30,35,34,21,3,22,-1,-47
1491694748288,1,-5,9,12,31,18,42,50,-49
1491694748334,2,-5,-20,9,4,-10,29,-21,-42
1491694748334,2,15,34,98,22,13,20,67,-8
1491694748335,3,-12,-6,-117,-42,-22,-18,-28,-10
1491694748335,3,7,-19,-14,-8,-6,1,25,12
1491694748336,1,2,-43,-13,-15,-9,-9,17,-17
1491694748336,1,2,23,-6,-32,-1,1,-9,-10
1491694748337,2,-16,-32,-52,6,-6,5,26,0
1491694748337,2,4,-7,32,1,-2,13,-13,-14
1491694748383,3,-5,5,-14,-3,5,16,-31,-15
1491694748383,3,0,-32,-24,12,-1,-37,-24,7
1491694748384,0,14,33,51,-10,-3,-13,-13,-10
1491694748384,0,-10,18,17,17,2,7,-38,14
1491694748385,1,-30,-62,-55,-38,-15,-8,19,2
1491694748385,1,10,-8,-21,-8,-15,-27,-22,22
1491694748386,2,4,0,30,9,12,-2,32,14
1491694748386,2,12,-1,-37,-17,-3,1,-13,28
1491694748431,3,13,-28,10,-1,9,-17,-11,50
1491694748431,3,0,-11,0,-22,-3,17,16,20
1491694748433,0,-12,16,15,3,2,-38,-17,33
1491694748433,0,-8,-39,-54,-29,-19,-34,24,8
1491694748434,2,8,-9,11,-5,-6,-28,11,22
1491694748434,2,-9,-11,-53,-9,-1,7,34,6
1491694748435,3,-14,16,28,21,15,16,6,-9
1491694748435,3,11,-2,12,-13,-14,-15,-4,4
1491694748480,0,5,-2,-1,-5,6,23,-3,4
1491694748480,0,-21,-10,-5,-12,-14,-34,-39,-6
1491694748482,1,-2,-1,-2,14,4,9,16,-6
1491694748482,1,2,8,22,11,0,13,-21,-13
1491694748483,3,-24,-10,6,10,9,34,35,-22
1491694748483,3,-25,-9,3,6,5,1,-43,-32
1491694748484,0,75,1,5,-2,1,-31,-27,-1
1491694748484,0,-39,-7,6,-1,9,40,30,1
1491694748529,1,-26,6,12,-4,-9,-52,2,8
1491694748529,1,-16,-3,1,-1,-1,1,-31,5
1491694748530,2,29,-24,-5,-3,3,-24,-6,-11
1491694748530,2,19,-13,-6,1,8,9,0,12
1491694748531,0,12,-3,1,5,-8,-20,-46,5
1491694748531,0,1,-23,-9,-2,-6,1,19,5
1491694748533,1,-3,12,-5,-4,-2,0,-4,-13
1491694748533,1,37,6,0,-2,-4,16,23,-4
1491694748577,2,-54,-8,-1,-7,3,24,20,-31
1491694748577,2,23,6,-2,13,2,17,1,-16
1491694748579,3,-4,11,-8,7,-15,-6,-31,-39
1491694748579,3,0,13,-6,4,1,25,19,-33
1491694748627,1,57,23,2,13,1,15,-8,-28
1491694748627,1,42,9,6,6,-4,-4,15,-18
1491694748628,2,-51,0,-9,1,-3,3,5,-9
1491694748628,2,23,22,1,10,2,8,0,-23
1491694748629,3,-7,6,-10,2,-6,7,-17,-27
1491694748629,3,-39,0,3,4,4,13,31,-13
1491694748630,0,56,5,1,4,0,16,16,-6
1491694748630,0,-49,6,-3,-6,-4,-12,-25,-14
1491694748675,2,-42,-28,-1,-10,12,-8,-10,8
1491694748675,2,39,-11,1,-13,1,3,-2,44
1491694748676,3,-9,-26,-13,-17,0,-25,-30,21
1491694748676,3,28,-7,5,-8,-2,-6,45,41
1491694748676,3,-21,-14,-7,-9,-5,-10,4,15
1491694748676,3,-43,-1,0,-10,-10,-22,-34,-1
1491694748678,0,7,-19,1,-6,12,19,43,21
1491694748678,0,15,-2,-1,2,-5,-25,-17,30
1491694748724,1,-24,-5,-6,-16,-2,-33,-14,-20
1491694748724,1,-39,0,0,8,-4,-13,0,-2
1491694748725,2,32,2,5,14,-4,-18,-11,-16
1491694748725,2,-33,19,1,4,-6,50,34,-11
1491694748726,3,-18,2,-4,2,-3,-8,-80,-5
1491694748726,3,-37,17,9,9,17,38,62,2
1491694748728,0,4,7,-4,-1,0,-39,20,-11
1491694748728,0,4,-9,0,2,-6,-56,-12,-18
1491694748772,1,53,-1,-1,6,-6,110,1,-5
1491694748772,1,-24,-9,-5,-1,-7,-19,-35,-7
1491694748774,2,-15,-10,-10,-11,-10,-61,-4,-1
1491694748774,2,54,-8,4,-6,-1,-110,3,1
1491694748775,0,-10,6,-5,2,-5,127,15,-10
1491694748775,0,28,2,2,8,-3,108,-10,-17
1491694748776,1,-14,-10,0,7,1,29,42,-9
1491694748776,1,-11,2,-10,-6,-5,-75,-15,-25
1491694748821,2,17,16,9,6,-5,-101,5,-14
1491694748821,2,-44,9,-4,4,4,-47,-30,-27
1491694748822,3,34,9,2,8,-2,-39,18,-23
1491694748822,3,-40,3,-5,0,0,3,5,-18
1491694748823,1,-32,-4,0,-1,-2,-14,6,0
1491694748823,1,40,-11,2,0,-4,-94,2,6
1491694748823,2,-31,-17,-11,-12,-1,-105,-9,18
1491694748823,2,61,-3,-4,-10,5,112,21,8
1491694748870,3,-21,-2,-3,1,-4,78,-10,6
1491694748870,3,11,-8,-7,-17,-12,-44,-11,11
1491694748871,0,6,-10,5,2,2,-58,18,27
1491694748871,0,7,-5,-6,-11,-8,-128,-37,24
1491694748871,2,-18,-10,-2,-8,4,12,5,4
1491694748871,2,-28,8,3,2,-10,-35,-6,-2
1491694748872,3,13,-2,-3,3,-6,10,-5,-5
1491694748872,3,-28,-7,1,-1,3,35,12,-12
1491694748919,0,5,18,-2,-1,-11,23,-11,-10
1491694748919,0,-3,6,4,7,12,44,17,-20
1491694748920,1,18,2,9,8,-2,-3,-12,3
1491694748920,1,-65,-9,-10,-14,-5,-13,-9,-14
1491694748921,3,-6,-6,-14,-13,-5,-38,3,-10
1491694748921,3,22,-9,2,2,4,1,5,15
1491694748921,0,-22,-3,0,-2,8,43,6,-2
1491694748921,0,-8,7,-1,5,-2,-1,5,13
1491694748967,1,-9,4,2,-5,-6,-52,-21,-18
1491694748967,1,15,-8,-1,4,6,9,-12,3
1491694748969,2,-30,-9,-11,-7,-6,-2,22,-14
1491694748969,2,2,-4,-5,-1,3,19,6,3
1491694748970,0,-13,15,8,10,2,7,-25,-4
1491694748970,0,22,-13,-3,-4,-1,-1,1,-9
1491694749016,1,6,13,4,3,1,1,42,0
1491694749016,1,51,-4,4,2,-9,-8,-27,0
1491694749018,2,-12,-12,-8,-7,14,13,-32,-6
1491694749018,2,-17,-2,-1,1,-3,-4,43,6
1491694749018,3,2,13,-3,-4,0,6,-15,2
1491694749018,3,14,0,8,9,-1,-8,4,6
1491694749065,1,7,-7,-7,-7,2,2,12,-2
1491694749065,1,-48,-2,-6,0,2,16,10,-7
1491694749066,2,29,20,7,9,-11,-10,-17,1
1491694749066,2,-15,-12,2,-6,5,4,9,-7
1491694749114,3,23,-5,-3,-4,-8,-15,-18,-4
1491694749114,3,-15,-5,-9,-10,9,22,6,-3
1491694749115,0,18,4,-1,0,-10,-24,7,0
1491694749115,0,-28,-2,-4,-3,-3,-16,0,-1
1491694749116,2,33,-13,-3,-1,1,-2,0,0
1491694749116,2,-4,12,2,-1,-3,-2,-1,0
1491694749117,3,-5,-15,-2,-5,-5,-32,-16,-8
1491694749117,3,-12,2,2,0,4,6,-10,0
1491694749162,0,19,-16,-4,-6,0,10,-18,3
1491694749162,0,-16,-2,-6,-6,-6,-12,0,-8
1491694749163,2,-11,-3,-7,-11,-6,-7,5,-3
1491694749163,2,3,0,4,4,-4,3,-4,3
1491694749164,3,23,7,-2,3,-2,-3,10,1
1491694749164,3,-14,-2,-3,-4,-1,-6,14,-7
1491694749165,0,-29,-6,0,-2,3,12,9,-10
1491694749165,0,25,9,8,8,-5,6,-17,5
1491694749211,1,16,4,-3,-3,2,7,3,-9
1491694749211,1,-20,-9,-5,3,-4,-8,-14,-10
1491694749212,2,3,6,0,-4,1,7,7,-6
1491694749212,2,-9,8,-1,1,-2,-8,1,-13
1491694749213,0,-4,2,2,-3,-4,-16,-5,-7
1491694749213,0,30,-23,-6,-9,2,6,-12,-6
1491694749214,1,-23,-1,-4,-6,-4,-13,8,7
1491694749214,1,-9,7,-2,-4,-6,-8,11,-1
1491694749309,2,3,-6,-4,-6,0,-12,-22,-5
1491694749309,2,-30,-2,6,-4,-9,-3,12,11
1491694749310,3,42,0,-3,6,0,-7,-9,-2
1491694749310,3,4,5,0,-6,3,9,1,-5
1491694749311,1,-10,-10,-2,-1,5,10,22,0
1491694749311,1,-13,0,-1,-2,0,-1,-28,-2
1491694749311,2,21,-3,-6,-1,4,12,27,8
1491694749311,2,-13,-8,-6,-5,-10,-13,-12,-14
1491694749360,3,-18,15,16,5,-3,5,21,0
1491694749360,3,11,-7,-1,1,0,-17,-30,-3
1491694749360,0,-3,8,-2,1,-5,-2,-1,-3
1491694749360,0,7,-12,-3,0,10,20,31,4
1491694749361,2,-16,-3,1,8,0,11,-5,-5
1491694749361,2,3,-2,1,2,-6,-11,-16,-4
1491694749362,3,-9,7,-2,-5,-1,-17,-16,1
1491694749362,3,-9,-4,-5,-1,-1,-17,13,2
1491694749410,0,19,-12,-2,-10,0,-4,-6,8
1491694749410,0,-9,-1,0,1,3,-11,-11,5
1491694749411,1,-1,-11,-1,-1,-3,-14,12,4
1491694749411,1,-12,4,-1,-2,-3,8,-10,-12
1491694749414,0,4,12,4,5,-2,14,-7,-20
1491694749414,0,-17,2,-8,4,1,14,-4,-18
1491694749415,1,-21,-6,-5,0,-1,21,1,-13
1491694749415,1,-18,-2,-7,-10,-4,-1,-7,-13
1491694749456,2,7,-3,8,9,-2,15,7,-6
1491694749456,2,-5,-12,0,-5,-4,-19,-13,6
1491694749457,3,-30,-9,-11,-15,-1,-29,-8,10
1491694749457,3,17,-10,-3,-10,2,-33,4,30
1491694749460,0,-11,-29,-2,-9,2,-41,-14,29
1491694749460,0,18,-12,-8,-13,-2,-22,3,25
1491694749461,1,-11,3,0,-10,0,-16,1,10
1491694749461,1,1,6,6,-2,-5,4,-29,-5
1491694749504,2,-10,3,-3,0,-1,15,6,-8
1491694749504,2,10,4,3,12,-3,9,12,-19
1491694749505,3,9,6,-8,1,-7,0,-18,-19
1491694749505,3,-33,-3,-1,1,10,35,34,-4
1491694749506,1,82,10,5,12,-3,-9,-9,2
1491694749506,1,-28,-5,0,-4,1,2,5,-1
1491694749507,2,31,1,-4,-5,-1,1,-9,-1
1491694749507,2,-1,-8,-6,-2,-2,-6,-7,-6
1491694749553,3,-21,1,2,-1,-2,4,9,-2
1491694749553,3,1,-3,-1,10,-5,-9,12,1
1491694749554,0,8,1,-1,-4,1,-6,-31,-14
1491694749554,0,-16,-4,-2,-4,-3,3,5,-2
1491694749602,2,18,9,-2,-1,-10,-5,14,7
1491694749602,2,-2,-9,-3,-7,4,-3,-23,-24
1491694749603,3,-9,-6,1,-2,0,5,9,5
1491694749603,3,0,0,1,11,5,9,5,-1
1491694749604,0,-10,-7,-4,-8,-10,-19,-13,-7
1491694749604,0,-9,2,6,3,0,-8,-5,10
1491694749606,1,50,-8,-3,0,2,-6,-12,16
1491694749606,1,-9,-8,-6,-7,-5,-9,13,-4
1491694749651,3,49,-6,-2,-5,-7,1,12,-3
1491694749651,3,11,2,4,2,1,-15,-5,4
1491694749653,0,-8,-5,-9,-3,-8,8,-5,-8
1491694749653,0,7,7,-1,-2,-6,0,25,-6
1491694749654,0,-40,0,6,6,3,-11,-23,-2
1491694749654,0,68,-4,-7,0,-7,-10,-5,3
1491694749655,1,3,-11,-3,-6,4,-2,22,11
1491694749655,1,-27,3,3,-6,-1,-9,-23,-1
1491694749699,2,-28,-6,-5,-5,3,5,22,5
1491694749699,2,22,-8,7,7,-8,-23,-11,15
1491694749701,3,-38,-14,-9,-7,-2,-24,-12,-9
1491694749701,3,32,-4,-4,-2,-4,-5,-10,2
1491694749702,1,-31,7,6,4,-1,-5,3,-11
1491694749702,1,-10,6,1,0,0,13,-5,4
1491694749703,2,-34,1,-9,-5,0,-7,-9,-10
1491694749703,2,44,7,-3,0,-1,8,18,2
1491694749748,3,-12,-6,3,-4,-1,-12,-3,9
1491694749748,3,0,-8,-7,-9,-5,-25,-4,11
1491694749752,0,35,3,5,-3,1,-7,-6,16
1491694749752,0,-23,-4,-9,-5,1,-4,1,2
1491694749753,2,8,0,0,4,0,-10,7,7
1491694749753,2,-12,7,6,0,-5,-6,5,1
1491694749754,3,-6,-5,-13,-7,3,12,-18,-10
1491694749754,3,-38,1,-2,-1,-8,-9,0,-8
1491694749796,0,52,0,7,16,1,6,4,-6
1491694749796,0,-31,-2,-2,-9,2,7,11,-11
1491694749798,1,-7,10,4,4,-5,4,-27,-8
1491694749798,1,-17,0,-9,-5,-5,6,2,-10
1491694749800,2,-18,-1,-3,2,1,9,-6,-27
1491694749800,2,13,3,-3,-2,-2,10,9,-18
1491694749801,3,6,3,2,10,-3,7,2,-16
1491694749801,3,-45,2,-2,-3,-3,-5,-1,-7
1491694749845,0,3,7,6,8,2,-3,-10,-7
1491694749845,0,-8,-6,-5,8,4,18,26,2
1491694749846,1,3,-2,-2,-1,1,-1,-2,-2
1491694749846,1,17,-4,-6,-8,-3,10,-32,-6
1491694749847,3,-15,-13,0,-1,5,-1,-3,-8
1491694749847,3,31,4,10,9,1,6,7,2
1491694749848,0,-20,1,-7,-1,-1,12,6,-4
1491694749848,0,2,-3,-6,-7,-5,-2,-9,-5
1491694749894,1,-8,2,-1,-4,0,-2,-1,0
1491694749894,1,-3,-15,-1,2,3,-7,11,8
1491694749895,2,19,-4,-4,-9,-4,-2,-11,5
1491694749895,2,-15,-18,3,1,1,-35,3,6
1491694749896,0,59,-4,2,-8,-6,-23,-3,10
1491694749896,0,-10,-1,4,17,5,-4,-9,6
1491694749903,1,-29,4,2,-9,-10,-5,-7,-7
1491694749903,1,18,5,3,5,4,7,-5,3
1491694749950,2,-5,3,-7,-11,-4,5,35,-5
1491694749950,2,-10,4,1,-2,-1,3,-55,-13
1491694749951,3,-9,-5,-1,4,-1,10,18,-6
1491694749951,3,-1,-11,-1,6,-3,5,0,-7
1491694749952,1,1,3,-6,6,6,0,-6,-9
1491694749952,1,11,-2,1,5,-5,-3,2,1
1491694749953,2,-12,-5,-1,5,2,3,6,10
1491694749953,2,3,-4,-11,-10,-6,-7,9,1
1491694749991,3,16,-1,1,-8,1,-5,5,16
1491694749991,3,-9,-7,-6,-12,-3,-21,-14,-2
1491694749993,0,-11,7,-1,-3,-6,-27,-9,7
1491694749993,0,13,-14,-7,-10,-1,7,-2,2
1491694749994,2,-15,-4,-4,4,-3,-10,-10,-5
1491694749994,2,-10,5,1,10,-2,-5,3,-12
1491694749997,3,9,1,2,-11,-10,-10,-27,2
1491694749997,3,-8,7,-4,4,3,11,8,-2
1491694750040,0,-3,-1,3,-1,2,11,-1,-11
1491694750040,0,7,9,-4,4,-3,-1,17,-9
1491694750041,1,-8,4,18,8,4,19,8,-11
1491694750041,1,4,17,-9,-6,-2,2,4,-9
1491694750089,3,-2,-16,-16,-9,-5,-11,1,0
1491694750089,3,-4,-4,8,2,-8,-11,-10,1
1491694750090,0,2,-8,-12,-1,4,9,11,5
1491694750090,0,4,15,18,15,16,0,27,-4
1491694750091,1,2,-15,-5,8,-9,-1,-17,-7
1491694750091,1,-5,7,-2,-8,-3,7,11,-11
1491694750092,2,-12,3,9,-3,-11,4,-7,-7
1491694750092,2,0,-1,2,0,1,19,6,-7
1491694750137,0,-2,11,18,-3,2,-5,5,-4
1491694750137,0,0,6,-4,-18,-8,-19,7,20
1491694750139,1,-6,-6,-29,-17,-4,-19,-59,7
1491694750139,1,0,-18,-6,-4,4,-21,-1,19
1491694750140,0,2,8,-10,4,4,-1,-5,-5
1491694750140,0,-10,-2,2,-2,-4,-1,-8,-13
1491694750141,1,6,15,25,11,10,7,33,-3
1491694750141,1,3,-8,1,-3,-1,13,-14,-14
1491694750186,2,-2,7,5,1,-1,12,23,-2
1491694750186,2,-5,12,-6,4,-1,25,10,-22
1491694750187,3,-1,30,28,11,-1,14,-4,-20
1491694750187,3,-7,-1,-7,6,-2,-1,-6,-18
1491694750188,1,-5,-29,-32,-8,-2,-9,11,4
1491694750188,1,5,-7,-1,2,5,20,13,-10
1491694750189,2,-4,-18,-20,-8,-6,-18,1,-10
1491694750189,2,-12,9,-32,7,-9,16,-10,-2
1491694750235,3,7,18,32,29,11,26,8,-27
1491694750235,3,-9,7,-11,-9,-3,21,22,-6
1491694750236,0,-3,-15,-5,0,-3,-8,-26,-9
1491694750236,0,0,-11,0,5,10,-6,7,-14
1491694750237,2,-1,1,-7,-28,-7,-4,-7,-10
1491694750237,2,6,-7,-13,-7,-1,-46,-19,25
1491694750238,3,4,23,4,6,7,-6,14,25
1491694750238,3,-5,-8,-2,-10,2,-42,-17,9
1491694750283,0,-9,-12,1,-13,-4,8,7,15
1491694750283,0,9,-7,15,-2,0,-6,-10,-8
1491694750284,1,4,-15,-47,-9,0,-12,-9,16
1491694750284,1,0,5,-5,4,-6,3,-6,-9
1491694750285,3,0,4,41,0,5,0,17,-14
1491694750285,3,3,-3,-3,6,2,10,0,-10
1491694750286,0,-3,-5,-22,-11,-3,-14,-14,-7
1491694750286,0,-20,-5,13,-2,-8,-1,-11,-6
1491694750333,1,3,-11,-3,-4,-4,-5,2,2
1491694750333,1,-9,0,24,-3,-2,-19,-6,-1
1491694750334,2,3,-20,-18,-8,1,-4,-13,0
1491694750334,2,-2,7,5,5,3,10,25,13
1491694750335,0,-4,-4,-10,10,7,3,4,-3
1491694750335,0,-10,-16,1,-17,-2,-1,-10,-18
1491694750336,1,5,-12,-4,9,-1,-3,7,6
1491694750336,1,6,3,-10,-1,9,-14,-15,-8
1491694750381,2,7,9,25,0,-8,-2,4,-2
1491694750381,2,10,-16,2,-12,-1,-7,-6,6
1491694750383,3,-8,14,-25,-10,-2,8,16,-6
1491694750383,3,-10,-9,-6,-3,1,0,-3,4
1491694750384,1,-4,16,44,1,-1,-7,1,14
1491694750384,1,5,-7,-25,-9,-2,-4,-3,3
1491694750385,2,-21,-14,-3,-3,-4,-16,19,14
1491694750385,2,22,0,18,-14,0,-6,-22,22
1491694750430,3,7,-5,-16,-4,-7,-36,-6,11
1491694750430,3,0,17,13,4,3,-1,0,2
1491694750431,0,-3,18,2,-3,5,1,10,-17
1491694750431,0,-10,8,0,6,0,4,21,-14
1491694750432,2,-43,1,-2,9,-4,11,0,-32
1491694750432,2,-1,1,-5,2,-1,11,8,1
1491694750433,3,-18,-17,2,1,6,27,32,-16
1491694750433,3,-4,8,-4,0,-4,16,0,-16
1491694750479,0,31,13,18,27,7,15,-3,-13
1491694750479,0,12,0,-6,-4,-1,9,4,-15
1491694750482,1,-11,-1,-5,0,-2,4,-39,-15
1491694750482,1,-1,-3,5,1,0,16,40,8
1491694750483,3,-11,-21,-18,-28,-6,-27,7,17
1491694750483,3,-6,-10,-4,-7,-4,-22,-16,10
1491694750485,0,27,-7,-1,-9,-2,-16,-10,14
1491694750485,0,-6,9,-1,4,-2,-11,-14,8
1491694750528,1,4,5,-3,6,0,11,17,-3
1491694750528,1,-21,-5,-8,-3,-2,10,-6,-9
1491694750531,2,-44,-3,4,2,-2,-7,-2,8
1491694750531,2,19,-11,2,-2,-5,-13,-22,-9
1491694750576,3,56,-6,-2,0,0,-3,8,1
1491694750576,3,3,11,4,0,8,23,23,5
1491694750578,0,6,-5,0,5,1,16,-15,6
1491694750578,0,1,10,-3,0,6,10,7,-18
1491694750579,1,-5,24,9,17,-5,6,-2,-21
1491694750579,1,24,-4,-1,4,-3,-3,-12,-13
1491694750580,2,17,5,-1,-1,-7,5,-1,-6
1491694750580,2,-39,5,-3,4,-6,-6,12,-8
1491694750625,0,-38,-8,-14,-6,-2,-13,0,11
1491694750625,0,-4,-16,-2,-4,-10,-29,-23,-1
1491694750626,1,-35,-13,-6,-9,-5,-11,8,11
1491694750626,1,23,-8,-7,-2,-1,-7,-30,5
1491694750628,1,-20,-19,-5,4,0,22,-16,-12
1491694750628,1,-1,-1,-2,-1,-5,-2,-15,-21
1491694750629,2,34,9,2,10,-4,-14,13,-12
1491694750629,2,-30,-3,0,10,7,31,23,-13
1491694750674,3,-31,10,4,9,0,19,0,-32
1491694750674,3,11,7,-6,-20,-9,2,-8,-5
1491694750675,0,20,2,-3,5,-4,2,-7,-7
1491694750675,0,-8,13,10,6,5,-47,-43,-13
1491694750676,2,5,4,-13,-4,-19,32,22,-17
1491694750676,2,-49,-5,-1,-16,0,20,24,-7
1491694750677,3,70,7,-8,-11,-17,-8,-36,-8
1491694750677,3,12,13,15,33,44,2,-25,3
1491694750723,0,5,-23,-3,1,-5,-49,12,0
1491694750723,0,-2,5,-14,-9,-18,97,42,14
1491694750724,1,-18,-30,-4,-24,10,-128,-2,12
1491694750724,1,12,-9,0,-1,-11,38,-41,18
1491694750725,3,6,-27,-6,-26,-21,-8,-31,46
1491694750725,3,-36,-9,-3,7,30,-27,26,-9
1491694750727,0,62,-17,-5,-15,-7,1,16,29
1491694750727,0,-38,-7,-10,-47,-8,-43,-60,2
1491694750771,1,-29,13,-2,25,-7,56,82,19
1491694750771,1,-20,-26,1,-37,-82,-102,-73,3
1491694750773,2,-30,7,5,18,25,47,-8,-10
1491694750773,2,-26,-7,-9,12,60,-40,29,16
1491694750774,0,-77,7,-10,21,-62,-103,71,-19
1491694750774,0,88,-1,-2,-37,-4,77,-46,-66
1491694750775,1,-50,51,2,35,4,41,8,-34
1491694750775,1,-36,-42,-17,3,-5,-76,72,22
1491694750828,2,44,-12,3,-28,-28,64,-86,-14
1491694750828,2,-23,8,21,61,64,14,34,23
1491694750830,3,11,-6,-5,3,15,-62,-94,-44
1491694750830,3,29,18,6,-22,-34,58,72,-14
1491694750831,1,46,36,-5,-43,-62,83,-16,-17
1491694750831,1,-48,-23,0,13,18,-39,53,-1
1491694750833,2,6,-5,0,10,56,-54,-50,15
1491694750833,2,6,8,-5,-41,-114,39,-39,-2
1491694750869,3,-15,-1,22,-6,-13,40,24,0
1491694750869,3,17,18,-17,30,38,-53,23,16
1491694750871,0,9,1,-2,-32,-91,47,5,-18
1491694750871,0,6,25,-6,53,99,53,-64,-8
1491694750873,1,-8,-24,-25,9,-63,-46,84,-32
1491694750873,1,-11,-15,2,-111,-68,-50,-62,12
1491694750874,2,7,16,14,40,-33,64,4,-1
1491694750874,2,-10,15,18,77,40,34,14,15
1491694750918,3,-2,14,-22,-31,-44,-32,8,3
1491694750918,3,25,-10,-6,16,4,-12,-85,-59
1491694750919,0,6,-2,-16,-106,-30,-62,21,-14
1491694750919,0,-19,-3,0,4,-128,22,3,32
1491694750921,2,4,-62,-7,-25,-68,-89,-96,20
1491694750921,2,17,23,3,-58,36,101,49,-34
1491694750922,3,1,-33,18,79,94,21,-128,23
1491694750922,3,17,59,4,69,57,105,109,29
1491694750966,0,-29,16,5,-25,7,-29,-34,-47
1491694750966,0,9,-39,-19,-108,-125,-34,0,18
1491694750968,1,-24,-19,-11,23,82,60,2,16
1491694750968,1,62,6,12,60,-90,-32,19,23
1491694750970,3,18,-59,18,-99,-128,-40,-7,104
1491694750970,3,18,-76,1,20,110,-40,-50,126
1491694750971,0,45,15,-16,-16,-91,61,124,93
1491694750971,0,14,-54,-18,-68,58,-117,-128,21
1491694751015,1,-5,18,-8,10,8,96,86,65
1491694751015,1,9,-28,7,-26,-72,-17,-2,43
1491694751017,2,13,24,18,55,127,23,77,55
1491694751017,2,-7,31,-10,-34,-24,-25,10,4
1491694751064,0,29,-9,-29,-44,-102,-39,-4,9
1491694751064,0,12,28,-4,30,-6,59,76,7
1491694751065,1,18,-31,30,51,110,-128,2,91
1491694751065,1,1,-14,-7,-64,-46,105,-25,43
1491694751067,2,7,-21,-14,-13,57,9,-50,25
1491694751067,2,4,98,32,127,103,-4,0,-32
1491694751068,3,-54,12,0,-47,-128,-14,-98,-111
1491694751068,3,-7,46,-17,-26,-86,-11,-65,-117
1491694751113,1,-47,74,0,48,127,48,6,-128
1491694751113,1,-44,31,2,30,-52,32,-20,-124
1491694751114,2,-38,-5,-16,0,-61,5,-17,-120
1491694751114,2,-28,9,24,87,1,127,30,-79
1491694751115,2,15,-22,18,-48,-36,-107,-15,27
1491694751115,2,-16,-11,-42,-69,-128,-104,-22,10
1491694751116,3,-14,-29,-7,-68,25,61,17,18
1491694751116,3,25,5,0,27,112,120,14,24
1491694751161,0,-17,-2,22,40,-45,56,4,-10
1491694751161,0,5,-22,-11,-69,112,-58,-38,15
1491694751163,1,-16,-3,-24,23,-25,-110,88,43
1491694751163,1,-2,1,17,74,77,-89,-55,-10
1491694751164,3,23,13,9,-33,-52,100,-21,24
1491694751164,3,-1,-33,-38,-3,-9,-75,-1,11
1491694751210,0,3,11,6,11,-3,-97,9,29
1491694751210,0,17,-3,13,-61,16,-13,1,17
1491694751212,1,47,6,-8,27,52,18,39,46
1491694751212,1,-30,7,21,-65,-92,-60,-26,-14
1491694751214,2,5,-22,-25,-43,84,-48,6,22
1491694751214,2,-7,-13,-2,12,-72,-13,-40,21
1491694751215,3,-4,1,18,13,-52,14,-20,4
1491694751215,3,17,18,-18,4,21,-103,31,9
1491694751259,0,-13,19,51,37,97,114,36,-1
1491694751259,0,-17,7,-35,-85,-46,109,-28,-15
1491694751261,1,-1,-26,-22,-54,37,-26,-9,8
1491694751261,1,14,-16,-18,30,-9,59,-6,20
1491694751262,2,-5,16,20,41,8,-81,-18,11
1491694751262,2,5,-9,19,42,-10,-25,35,15
1491694751263,0,-14,-13,0,42,127,-50,34,27
1491694751263,0,11,-1,-34,-74,-87,85,-43,15
1491694751307,1,-6,0,15,12,-128,41,-39,-15
1491694751307,1,-13,-16,-38,-65,32,-4,17,40
1491694751310,2,3,3,9,89,-42,2,-13,-29
1491694751310,2,8,-12,10,-27,83,-128,34,7
1491694751310,1,-2,11,-4,-8,-101,-103,-26,-17
1491694751310,1,-21,6,11,38,85,127,34,-49
1491694751311,2,0,-30,-51,-128,-113,-67,-60,12
1491694751311,2,11,-7,10,123,100,81,47,9
1491694751356,3,4,-48,18,22,-60,-23,41,-6
1491694751356,3,-10,21,-31,-109,-128,-59,43,5
1491694751357,0,13,24,8,50,60,6,-18,15
1491694751357,0,-1,18,18,15,-20,-20,30,-20
1491694751358,2,-29,-73,1,-13,16,18,-58,-30
1491694751358,2,13,60,-42,-81,-31,-71,-81,43
1491694751359,3,2,20,-39,11,-33,-16,-69,17
1491694751359,3,1,-47,30,36,63,65,-49,-11
1491694751405,0,-6,8,6,-2,-35,52,-95,4
1491694751405,0,-6,29,14,-1,4,-51,-97,-44
1491694751406,1,9,9,-23,-11,67,48,80,19
1491694751406,1,-19,5,1,-5,23,14,93,-4
1491694751407,3,-9,36,16,-37,-33,85,24,1
1491694751407,3,6,16,-13,-31,-125,-36,-121,-13
1491694751407,0,-17,71,1,-15,75,43,-67,-21
1491694751407,0,2,-69,-5,4,-71,-79,-122,-3
1491694751453,1,-17,-31,10,15,16,-128,12,-13
1491694751453,1,29,18,8,70,109,65,124,7
1491694751454,2,-12,-29,-15,-57,-116,11,48,32
1491694751454,2,8,7,7,-22,-49,-52,-80,-32
1491694751455,0,5,121,-18,50,60,42,3,-4
1491694751455,0,9,37,11,-43,-104,83,-40,-13
1491694751456,1,5,-30,-7,-30,-27,-31,-128,-2
1491694751456,1,-19,-48,5,38,39,95,23,6
1491694751502,2,24,-119,0,33,37,31,90,7
1491694751502,2,-9,-81,13,28,83,-67,42,18
1491694751503,3,1,107,-13,-51,-30,-34,-62,-27
1491694751503,3,-17,108,20,32,16,-128,-128,-18
1491694751551,1,53,-90,18,-35,-44,-73,-68,37
1491694751551,1,-5,-74,-75,26,-90,-13,-104,-21
1491694751552,2,25,-13,-17,-13,-22,-128,30,-34
1491694751552,2,-18,84,15,-1,-32,-112,-103,15
1491694751553,3,-41,22,2,50,90,-120,127,-11
1491694751553,3,15,14,91,9,-39,67,69,14
1491694751554,0,-4,-50,-35,-6,7,82,53,6
1491694751554,0,68,-32,-16,-57,-27,119,53,23
1491694751600,1,3,3,-18,-11,-15,127,-33,1
1491694751600,1,1,-43,-27,14,29,92,-21,3
1491694751602,2,-13,18,-64,-1,5,109,-41,13
1491694751602,2,31,6,-59,17,-20,-16,127,18
1491694751603,2,31,1,39,-4,35,-5,-12,-8
1491694751603,2,17,-83,-6,5,-9,-19,-33,-12
1491694751603,3,-1,-25,11,19,-12,-6,-4,-14
1491694751603,3,13,24,5,-17,1,-61,-10,18
1491694751648,0,17,12,-20,-13,-30,-46,-66,-5
1491694751648,0,-8,-38,15,-6,18,-48,13,-11
1491694751649,1,-1,18,6,19,19,-4,-6,-1
1491694751649,1,11,-4,-14,-21,-20,-12,-31,17
1491694751697,3,10,1,-12,-21,-26,-7,-32,4
1491694751697,3,-1,-10,-19,-4,-12,-21,-7,16
1491694751698,0,-18,16,-3,6,-16,-50,11,-12
1491694751698,0,-26,-17,2,9,29,21,2,-8
1491694751699,1,0,-6,9,-9,2,-13,-43,-3
1491694751699,1,-11,-10,-24,-5,-8,-2,31,-1
1491694751700,2,8,18,7,15,5,-14,-2,-4
1491694751700,2,-12,-18,-14,-4,2,-15,-4,-5
1491694751746,0,9,3,41,13,15,13,-3,8
1491694751746,0,7,-6,-11,-13,1,-5,-6,-5
1491694751747,1,7,-1,2,2,-12,-14,-11,9
1491694751747,1,14,6,-7,3,0,5,3,0
1491694751748,2,-7,-2,-13,9,19,28,7,-3
1491694751748,2,46,-4,24,0,28,-63,-13,3
1491694751749,1,-16,3,-8,7,32,11,-9,-7
1491694751749,1,-30,5,25,1,-4,4,-31,-11
1491694751795,2,-22,-2,-29,-7,27,-3,4,-4
1491694751795,2,-19,-5,-2,-7,-12,17,19,-2
1491694751796,3,11,-10,8,11,-3,-9,-7,-5
1491694751796,3,20,2,2,3,13,15,11,0
1491694751796,2,-25,0,7,9,18,88,41,-6
1491694751796,2,17,-1,-10,-15,-62,-93,-32,16
1491694751797,3,-17,-10,-15,-21,-14,16,-2,-12
1491694751797,3,-8,-6,5,20,45,27,5,-2
1491694751843,0,-19,7,12,12,61,-5,20,-4
1491694751843,0,-7,-6,-3,-1,1,11,47,21
1491694751844,1,1,13,-11,-25,-25,-61,-46,-16
1491694751844,1,2,-10,-10,3,-30,11,53,26
1491694751845,3,12,6,-4,19,97,26,6,-18
1491694751845,3,-9,-7,-6,-20,-41,30,42,2
1491694751847,0,-8,-3,-2,-29,-34,-31,-15,-8
1491694751847,0,7,-1,-10,14,-3,28,23,14
1491694751892,1,10,-11,1,-8,-36,-12,-15,-21
1491694751892,1,-26,5,8,19,51,-2,-4,4
1491694751893,2,36,9,1,-18,-86,-61,-23,-11
1491694751893,2,-39,-5,-9,-18,26,6,-20,-8
1491694751895,0,0,-2,12,22,50,18,20,1
1491694751895,0,-6,-6,-7,-23,-22,25,-2,-9
1491694751895,1,49,-4,-3,-13,-9,-60,-17,17
1491694751895,1,-40,-5,-4,-10,-26,18,-22,-12
1491694751941,2,16,8,-6,-8,-33,18,43,12
1491694751941,2,-3,1,7,29,51,26,6,-13
1491694751942,3,-32,0,-4,8,65,55,-4,13
1491694751942,3,30,3,-5,-8,1,-63,-29,12
1491694751990,0,-12,-2,6,9,2,-18,34,-11
1491694751990,0,4,-12,1,-6,-3,17,-25,-11
1491694751991,1,-15,-3,-1,-17,-70,-32,20,1
1491694751991,1,21,2,-2,12,67,44,7,3
1491694752038,2,-7,6,-10,-4,-16,55,-14,-18
1491694752038,2,6,-3,10,14,28,-25,-55,5
1491694752039,3,-25,-9,6,14,15,35,21,-14
1491694752039,3,24,-13,-9,4,21,-1,39,1
1491694752040,1,-21,-8,5,20,13,-10,-7,3
1491694752040,1,-1,2,-2,20,15,82,11,-2
1491694752041,2,34,-41,2,14,-22,-25,26,32
1491694752041,2,-4,0,0,1,70,-2,-20,-8
1491694752087,3,15,11,-4,-8,-27,-30,-19,-6
1491694752087,3,-1,12,-1,-15,-36,-41,-28,-29
1491694752088,2,41,27,-5,1,-46,-32,12,27
1491694752088,2,-42,-1,-5,-13,-47,-12,5,-18
1491694752088,3,-7,-4,-6,-29,-75,-76,39,-8
1491694752088,3,-44,-4,-4,15,51,105,17,-13
1491694752090,0,-3,-2,6,7,12,-87,12,-1
1491694752090,0,-52,-14,-20,-30,-44,-1,-42,-29
1491694752136,1,-13,4,6,-4,-29,49,33,11
1491694752136,1,4,4,1,12,56,95,33,4
1491694752137,2,16,-21,5,27,42,-45,-25,18
1491694752137,2,-28,0,6,-4,-56,48,40,-23
1491694752138,0,-7,3,10,5,58,36,9,-7
1491694752138,0,24,9,15,12,-38,-8,5,18
1491694752139,1,18,-8,-7,21,92,-27,31,-13
1491694752139,1,-69,11,8,-27,-50,71,-11,-37
1491694752185,2,49,1,-15,-15,-20,-83,-55,8
1491694752185,2,2,1,-10,-9,-14,48,1,-7
1491694752186,3,-24,10,14,10,-20,-26,-6,8
1491694752186,3,-16,-4,12,6,14,-43,-20,-16
1491694752187,1,-17,-4,-33,-8,11,-35,-1,-13
1491694752187,1,65,-8,8,-9,-33,-77,-30,38
1491694752188,2,-6,2,30,1,34,102,-16,-29
1491694752188,2,12,-5,11,-5,-11,-79,31,17
1491694752234,3,-9,8,6,9,21,81,-6,-9
1491694752234,3,16,-2,-17,6,6,-24,12,6
1491694752239,0,16,3,-56,-11,-48,-25,25,2
1491694752239,0,12,-11,1,-6,21,8,-13,6
1491694752241,2,-24,-4,10,-2,13,-15,-40,-1
1491694752241,2,-40,2,-14,8,8,32,-19,-16
1491694752243,3,25,1,-24,1,-10,-3,0,30
1491694752243,3,-8,2,12,-3,0,-48,-58,-31
1491694752283,0,-25,-3,-23,5,-8,-14,50,8
1491694752283,0,11,-3,-29,-3,2,35,23,-20
1491694752285,1,4,2,62,0,6,25,-43,-28
1491694752285,1,9,-1,15,0,-24,-80,14,21
1491694752286,2,25,1,8,-3,7,32,-16,8
1491694752286,2,2,-4,-6,12,5,15,0,27
1491694752287,3,30,3,-20,1,21,-28,-44,4
1491694752287,3,-23,8,-16,-4,-37,38,28,-12
1491694752331,0,-1,0,6,-17,-25,24,7,-23
1491694752331,0,19,-17,16,13,10,66,-16,-8
1491694752333,1,-32,-1,-8,12,6,-24,33,9
1491694752333,1,-20,-4,-16,-10,13,-40,-37,21
1491694752335,3,7,-16,-12,-29,-4,-1,10,13
1491694752335,3,-2,4,-1,10,6,70,0,25
1491694752337,0,10,-17,-74,-6,23,21,-1,16
1491694752337,0,-14,-1,66,-20,-25,-20,-2,10
1491694752380,1,51,-24,9,-37,-55,-89,-44,28
1491694752380,1,-7,-3,-15,-25,-6,-50,24,27
1491694752382,2,17,6,14,7,20,40,-15,11
1491694752382,2,35,33,-19,32,19,15,-20,19
1491694752385,0,-45,32,26,17,-15,-35,-29,-45
1491694752385,0,20,-5,-7,27,5,-31,8,-53
1491694752386,1,-28,7,4,13,-11,53,51,-67
1491694752386,1,-47,6,-6,20,20,49,20,-61
1491694752429,2,-33,-5,5,14,9,11,-10,-30
1491694752429,2,-25,-7,-13,-36,-44,-61,-52,-1
1491694752431,3,44,-9,-10,1,1,-4,8,19
1491694752431,3,-12,-5,7,13,20,-20,37,13
1491694752435,1,6,10,-9,13,42,69,12,-8
1491694752435,1,-10,1,-6,-13,-38,-16,-12,-9
1491694752436,2,-18,10,18,17,13,65,-1,-7
1491694752436,2,-6,-13,-10,-12,-14,-38,4,-13
1491694752477,3,14,27,14,9,-9,-47,11,7
1491694752477,3,1,5,8,15,50,21,-19,-2
1491694752478,0,5,15,1,-10,-53,-31,14,17
1491694752478,0,10,-14,-8,-22,18,-1,-17,-10
1491694752527,2,47,-20,1,-1,2,43,-1,17
1491694752527,2,-19,11,4,4,-5,42,35,12
1491694752528,3,38,-2,2,-3,7,-30,-29,0
1491694752528,3,-15,-5,-8,-7,1,-74,6,12
1491694752529,0,22,-19,-14,-20,-39,5,-14,-8
1491694752529,0,6,-7,2,-3,7,-4,1,13
1491694752530,1,-26,19,8,8,-9,59,13,1
1491694752530,1,42,-15,-4,-13,-4,-13,6,-11
1491694752575,3,-45,3,-17,-14,11,0,-35,-23
1491694752575,3,16,-4,7,2,-54,-21,1,16
1491694752576,0,-21,2,0,12,45,87,63,11
1491694752576,0,-30,-4,-12,3,-27,-11,-26,-13
1491694752577,0,8,30,-8,29,94,70,34,-23
1491694752577,0,-1,4,-3,-23,-9,-32,-19,-32
1491694752579,1,-3,-2,10,22,37,-23,-24,-16
1491694752579,1,-26,-11,-27,-77,-119,-39,-6,6
1491694752624,2,31,-9,6,28,43,-39,-11,11
1491694752624,2,-49,9,-5,19,-35,41,8,-14
1491694752625,3,29,-14,-3,12,33,-46,-33,23
1491694752625,3,-18,20,4,2,24,62,-4,-28
1491694752626,0,36,-13,3,29,6,-9,22,17
1491694752626,0,-10,14,1,-47,-36,31,-44,-12
1491694752627,1,15,-5,-2,8,65,15,33,-16
1491694752627,1,-34,-13,7,40,-10,41,-15,3
1491694752672,2,38,-8,-17,-108,-126,-60,-83,-14
1491694752672,2,-9,-2,13,72,85,78,77,23
1491694752674,3,-21,-7,-13,-19,59,-62,4,-18
1491694752674,3,16,1,-5,-15,-56,-33,-54,23
1491694752675,1,-38,-4,-25,-55,-45,-33,78,-4
1491694752675,1,10,12,7,39,41,98,50,15
1491694752676,2,-20,-12,14,37,-19,-37,-34,-28
1491694752676,2,-12,20,-7,-13,85,69,26,-27
1491694752721,3,-17,-13,4,-56,-122,-53,-85,9
1491694752721,3,23,4,0,21,-10,45,18,-21
1491694752722,0,-2,-17,3,30,75,21,28,24
1491694752722,0,-22,3,-5,-22,-3,-44,67,13
1491694752722,2,-9,-13,-4,-27,34,-2,-36,-8
1491694752722,2,30,1,20,30,77,57,29,36
1491694752723,3,13,26,18,63,33,-39,31,24
1491694752723,3,1,-12,-21,-113,-51,-126,-81,-12
1491694752770,0,-14,20,-17,-7,-57,20,-18,-15
1491694752770,0,-18,-33,-26,-14,45,-3,18,-11
1491694752770,1,11,26,17,12,-5,73,101,8
1491694752770,1,5,-15,6,34,25,1,-60,-25
1491694752771,3,-8,-19,-26,-91,-92,25,-46,-16
1491694752771,3,3,11,15,69,114,39,115,16
1491694752772,0,-26,9,3,24,-16,39,67,11
1491694752772,0,43,8,12,38,44,50,-77,-3
1491694752818,1,8,-12,-8,37,1,2,32,-19
1491694752818,1,-31,23,-17,-73,-107,69,5,-16
1491694752819,2,2,-36,10,33,55,21,-5,-4
1491694752819,2,-10,15,-3,-30,-79,24,68,2
1491694752820,0,-12,24,18,36,39,88,77,18
1491694752820,0,13,12,-12,12,-56,-121,-38,15
1491694752821,1,-8,29,-33,-58,95,109,67,-43
1491694752821,1,6,-6,6,-42,-104,-96,-76,0
1491694752867,2,-4,-13,17,52,111,46,-27,20
1491694752867,2,-6,7,-37,-4,-87,-11,31,-15
1491694752880,3,-44,-1,7,-37,-48,48,-14,-23
1491694752880,3,21,-13,16,103,48,-57,39,9
1491694752882,1,-33,-4,-11,25,-97,-35,-2,53
1491694752882,1,-2,3,-13,-65,-7,29,-5,-49
1491694752883,2,62,-11,18,37,18,-51,-16,27
1491694752883,2,0,9,22,75,127,43,-18,-11
1491694752916,3,-30,12,-3,-6,-47,61,82,-27
1491694752916,3,-10,-16,-18,-96,-4,-97,-82,-27
1491694752917,0,-8,-11,-8,-9,-51,-21,-17,8
1491694752917,0,2,4,-1,-18,36,102,38,-13
1491694752918,2,-12,4,-11,-37,-117,0,-16,-50
1491694752918,2,-16,-20,-9,-14,127,-24,-11,9
1491694752918,3,17,-7,2,-15,-71,-21,-40,14
1491694752918,3,-6,14,27,51,-19,36,37,2
1491694753013,0,-25,1,-8,11,115,48,-3,-2
1491694753013,0,24,-17,6,-5,-124,-71,-71,-6
1491694753015,1,-10,-4,4,34,127,65,13,-43
1491694753015,1,7,-9,-9,-33,-47,97,0,39
1491694753020,2,0,1,-4,-30,-47,-58,-13,3
1491694753020,2,-1,-12,-7,-5,-17,-53,3,-12
1491694753062,3,2,0,8,-20,-47,-65,-18,-2
1491694753062,3,-3,4,-9,40,126,-12,33,-5
1491694753063,0,0,-1,11,14,45,-10,-27,23
1491694753063,0,5,-1,-10,-36,-85,53,-57,-11
1491694753064,1,6,-2,70,104,127,1,75,33
1491694753064,1,4,-2,-45,-74,-109,-50,-2,-9
1491694753065,0,-4,6,13,30,-28,20,13,12
1491694753065,0,-30,7,4,80,119,21,25,-31
1491694753111,1,12,-9,22,-59,-102,-44,-18,-1
1491694753111,1,-26,-3,-29,-85,-63,-44,16,-27
1491694753117,2,13,-15,-32,18,57,-26,-7,46
1491694753117,2,40,7,14,37,2,11,-41,3
1491694753119,1,1,1,-14,18,-104,42,1,-20
1491694753119,1,-21,-6,-3,48,91,50,6,-22
1491694753121,2,-21,-1,-3,-124,-101,3,30,-32
1491694753121,2,31,-6,-28,58,94,-9,-45,24
1491694753160,3,-4,1,-8,-9,13,7,-9,-17
1491694753160,3,36,6,9,24,76,11,-7,53
1491694753161,0,-32,11,3,121,-14,-10,-17,-59
1491694753161,0,-55,-27,-3,-128,-98,-76,8,-55
1491694753161,2,36,10,13,59,127,26,28,27
1491694753161,2,-9,7,32,-26,-105,2,8,1
1491694753162,3,-36,-5,-42,-25,-46,-36,-12,-61
1491694753162,3,0,-22,30,-3,95,45,43,19
1491694753208,0,33,4,7,-25,-46,-45,-11,45
1491694753208,0,-29,-6,9,32,-97,57,-13,-39
1491694753210,1,1,25,1,-25,48,-3,10,24
1491694753210,1,-11,-4,-38,-77,-48,-15,-31,-24
1491694753210,3,-32,0,40,67,122,70,28,-14
1491694753210,3,-15,-1,9,-62,-115,-12,-18,-38
1491694753211,0,-17,-11,-44,-116,50,-27,-6,-16
1491694753211,0,65,7,-23,3,-40,-20,-17,78
1491694753257,1,14,-7,24,99,-4,16,-10,20
1491694753257,1,-10,12,30,58,89,27,35,-2
1491694753258,2,-21,-8,-25,-55,-128,9,-10,-10
1491694753258,2,-35,-5,2,-48,-47,-87,-1,-69
1491694753259,0,-24,-14,26,121,102,33,2,-24
1491694753259,0,-16,17,0,-61,123,37,35,3
1491694753260,1,31,6,-43,-102,-128,-94,-50,20
1491694753260,1,2,13,4,45,-9,-16,-5,-8
1491694753355,2,4,0,32,28,88,40,11,7
1491694753355,2,-26,-12,5,52,-67,45,23,-17
1491694753356,3,-18,-10,-23,-85,-33,-14,20,-23
1491694753356,3,25,-8,0,18,36,-39,-3,32
1491694753357,1,53,4,28,35,75,-7,-21,48
1491694753357,1,-19,-2,3,17,-53,68,21,-4
1491694753358,2,24,3,27,37,-34,3,-24,10
1491694753358,2,-62,0,33,69,104,68,42,-48
1491694753403,3,33,-4,-44,-106,-116,-50,-24,2
1491694753403,3,2,6,-25,60,110,-87,-2,-2
1491694753404,0,26,-15,31,25,22,-6,18,21
1491694753404,0,-10,3,-2,-7,-54,100,20,6
1491694753405,1,25,31,-4,1,-39,-21,4,2
1491694753405,1,0,-2,-9,-40,-80,-5,32,-16
1491694753409,2,3,-1,42,5,-20,83,-23,-8
1491694753409,2,26,-6,-20,18,-25,-63,-106,18
1491694753501,3,-17,21,4,58,77,110,-67,-28
1491694753501,3,15,-40,-101,-53,-16,45,78,12
1491694753502,0,2,12,-60,25,28,127,114,6
1491694753502,0,92,-63,-60,-80,-45,113,123,63
1491694753503,3,-43,-31,9,29,34,0,-12,-29
1491694753503,3,28,-23,-57,-28,-26,-38,10,13
1491694753503,0,22,-5,-68,18,-18,-99,-11,-3
1491694753503,0,-58,-16,-18,39,35,-10,-45,-20
1491694753550,1,19,14,25,-9,-32,5,22,15
1491694753550,1,5,-26,36,22,19,-44,-2,-3
1491694753551,2,17,-14,-7,-28,-6,-61,-29,6
1491694753551,2,-3,11,-8,13,-21,14,-16,-14
1491694753551,1,-30,-6,13,7,5,10,3,-6
1491694753551,1,17,-15,-11,-25,14,2,10,6
1491694753552,2,4,4,-12,5,-44,-58,-12,7
1491694753552,2,4,13,-15,-22,-22,4,-7,-16
1491694753599,3,1,-6,6,15,12,35,11,-1
1491694753599,3,-4,15,20,5,6,-51,-6,12
1491694753600,0,-9,-27,-18,-28,-17,19,0,-23
1491694753600,0,26,6,-33,-9,-9,-13,-15,-6
1491694753600,2,9,9,15,-18,-64,-43,-26,-4
1491694753600,2,38,-2,-30,13,44,28,6,-9
1491694753601,3,10,11,17,-7,-1,33,21,1
1491694753601,3,-18,-19,-32,3,6,-39,-8,-15
1491694753647,0,-12,22,28,-9,-12,-10,-10,12
1491694753647,0,-12,-9,0,-16,-32,31,7,-9
1491694753648,1,11,-6,-23,23,46,-20,-5,12
1491694753648,1,14,6,-8,-25,-36,-6,-10,3
1491694753649,3,-1,4,18,-2,42,26,8,6
1491694753649,3,1,2,-4,-10,-61,-46,-10,-5
1491694753650,0,-8,-15,-46,10,22,55,28,1
1491694753650,0,4,13,1,-41,-84,-88,-32,0
1491694753696,1,-6,-16,20,25,32,21,14,-4
1491694753696,1,25,3,3,22,50,40,7,4
1491694753697,2,5,9,-5,-27,-25,-55,-22,16
1491694753697,2,-12,5,-11,6,11,23,3,-11
1491694753697,3,-11,0,-1,-9,-55,35,17,-12
1491694753697,3,16,11,6,11,71,-57,-4,2
1491694753698,0,8,-6,-26,-17,-11,6,-3,4
1491694753698,0,-10,-3,2,12,38,33,15,14
1491694753745,1,19,1,3,-31,-76,-57,-69,6
1491694753745,1,11,6,-6,5,6,7,-10,12
1491694753746,2,25,2,12,-2,-49,28,12,16
1491694753746,2,-21,0,-5,-11,49,-21,10,5
1491694753747,0,-15,-6,9,9,26,-69,-30,1
1491694753747,0,-48,-8,-8,8,-18,30,38,6
1491694753748,1,34,1,1,-3,-34,-72,-51,-15
1491694753748,1,5,0,-5,-24,-14,25,26,-11
1491694753796,2,10,2,-6,17,-4,60,34,19
1491694753796,2,-2,-6,-6,-14,-20,-1,-30,-26
1491694753798,3,-40,-8,3,24,39,5,13,9
1491694753798,3,-32,-11,6,19,49,23,9,-20
1491694753798,1,-6,6,17,28,4,17,24,13
1491694753798,1,-25,11,-2,9,17,32,20,-8
1491694753799,2,-19,5,8,10,42,-16,-28,-16
1491694753799,2,22,-6,-6,-20,-27,-34,-19,9
1491694753842,3,44,-1,-23,-44,-66,-73,22,2
1491694753842,3,-23,-6,4,21,-22,21,-2,11
1491694753844,0,-8,21,12,25,71,14,13,-2
1491694753844,0,-1,22,11,40,29,-36,0,-15
1491694753845,2,4,-12,-18,-20,-90,-21,28,-18
1491694753845,2,-11,-6,-6,-39,-63,-35,-52,-6
1491694753845,3,21,14,7,43,41,64,31,-7
1491694753845,3,-52,3,0,4,4,-14,10,-8
1491694753891,0,25,-8,11,1,26,-14,6,-6
1491694753891,0,-60,-11,-6,12,23,93,-35,-41
1491694753893,1,9,-6,-15,-27,-122,-125,1,13
1491694753893,1,43,9,-1,-10,56,79,8,23
1491694753894,3,-12,-44,-14,-38,38,-13,-44,-27
1491694753894,3,-17,-25,-4,6,-44,-2,5,-21
1491694753894,0,40,4,-9,-13,-90,-95,45,23
1491694753894,0,5,11,0,14,65,108,-26,3
1491694753940,1,-17,64,5,37,52,40,32,-7
1491694753940,1,23,14,-9,-22,-37,-23,-27,-20
1491694753941,2,10,-49,-9,-55,-48,-36,-91,-3
1491694753941,2,-8,-41,-4,7,4,24,5,21
1491694753989,0,-32,29,3,22,93,44,31,-5
1491694753989,0,29,3,1,-1,-32,-57,16,-8
1491694753991,1,-25,-3,-2,-17,-9,-8,-37,-7
1491694753991,1,-34,23,-10,-4,-42,-68,-5,-7
1491694753993,2,-27,13,12,22,55,42,-26,-31
1491694753993,2,14,-40,-9,-19,-56,-41,11,-1
1491694753995,3,33,-84,-19,-27,-39,-29,6,24
1491694753995,3,75,-13,-14,-2,-24,2,-2,-22
1491694754038,1,-22,29,3,-5,6,0,-58,-44
1491694754038,1,-43,-8,-10,-18,-62,-5,-12,-1
1491694754041,2,50,-11,-17,-11,-17,1,26,-10
1491694754041,2,-52,9,7,12,45,-38,-44,-10
1491694754042,1,-12,0,-6,-31,-52,32,-37,-17
1491694754042,1,7,-8,-6,-15,20,20,24,32
1491694754043,2,16,-16,-1,-6,22,-8,-22,26
1491694754043,2,-8,4,15,-1,8,27,5,23
1491694754086,3,53,13,-20,3,-4,-114,-15,20
1491694754086,3,-37,-10,-19,-22,-57,-59,-31,-18
1491694754087,0,-10,-9,4,-10,-43,82,32,-11
1491694754087,0,45,-8,33,10,38,-90,-4,12
1491694754090,2,-48,-12,-28,-23,-49,-43,-22,-36
1491694754090,2,21,1,-38,-12,-7,1,0,-6
1491694754090,3,-23,9,-105,11,3,-31,2,3
1491694754090,3,-10,-5,40,26,5,24,26,-5
1491694754135,0,14,21,98,20,47,15,-13,-17
1491694754135,0,-19,11,86,24,-2,72,5,-10
1491694754138,1,12,1,6,-8,-10,-64,-16,-8
1491694754138,1,0,1,-41,-4,-10,58,32,-2
1491694754139,3,1,3,-67,-15,-25,-4,4,0
1491694754139,3,-28,6,83,12,6,10,-34,-32
1491694754140,0,-11,-1,108,2,22,-13,44,-9
1491694754140,0,-26,-10,34,11,2,81,-3,-50
1491694754183,1,-29,-6,-19,5,3,21,13,-21
1491694754183,1,-17,4,-55,-5,-22,-45,5,1
1491694754185,2,57,-5,-60,-28,-18,10,5,14
1491694754185,2,34,-2,-11,-5,11,-32,-6,89
1491694754186,0,-5,16,78,-9,-25,3,-41,18
1491694754186,0,6,5,23,-3,-19,-2,-15,-42
1491694754187,1,-17,24,53,33,10,110,15,-55
1491694754187,1,-57,8,-30,13,-5,71,-35,-95
1491694754232,2,-4,-13,-91,11,-10,-42,-18,-28
1491694754232,2,20,-8,-7,6,-22,-43,-3,-20
1491694754234,3,-2,-8,25,-13,0,14,9,11
1491694754234,3,7,-10,-11,21,33,-120,-4,25
1491694754235,1,88,-15,27,-46,-25,51,-44,98
1491694754235,1,19,-13,-13,-28,3,-22,-1,90
1491694754236,2,23,-18,-105,-2,38,-28,25,69
1491694754236,2,-16,26,36,28,23,-15,11,35
1491694754281,3,-32,11,111,9,10,-84,-17,-49
1491694754281,3,-25,30,35,-1,-33,-56,44,-39
1491694754283,0,-29,13,-1,27,-27,18,16,-42
1491694754283,0,-49,0,-78,15,12,127,38,-64
1491694754284,2,8,-14,-19,-17,7,-58,-11,-8
1491694754284,2,4,-4,-30,-16,-22,-56,-38,18
1491694754285,3,26,7,2,-6,-6,-7,18,31
1491694754285,3,-6,-4,-3,-8,2,11,-14,-7
1491694754330,0,-2,7,7,-16,-28,-28,-20,-6
1491694754330,0,-18,11,17,8,5,19,24,-15
1491694754331,1,-48,7,7,28,13,40,17,-52
1491694754331,1,-16,17,-7,5,-11,-10,5,-34
1491694754332,3,1,5,-9,14,10,10,-15,-23
1491694754332,3,-22,21,-3,20,34,89,70,-53
1491694754333,0,-66,37,27,20,15,8,-100,-126
1491694754333,0,19,-13,-19,18,-41,-30,80,-58
1491694754380,1,-7,20,-14,6,-7,73,36,-51
1491694754380,1,-8,-12,16,7,-31,21,-6,-28
1491694754381,2,-3,-4,0,-8,11,-14,33,40
1491694754381,2,17,-24,-9,-1,29,26,-60,-8
1491694754383,3,28,-13,-1,-18,33,74,-22,26
1491694754383,3,-1,-20,-12,-25,-33,-70,-17,38
1491694754385,0,77,0,-9,-26,-24,34,25,21
1491694754385,0,-23,14,5,14,48,15,-36,15
1491694754427,1,-11,1,12,15,15,2,-11,-5
1491694754427,1,-28,-7,-3,7,8,1,-4,6
1491694754428,2,37,-5,-11,-30,6,42,2,-6
1491694754428,2,15,-10,1,-22,-96,-128,-92,9
1491694754476,0,-10,-8,-11,-19,-9,28,4,11
1491694754476,0,-6,3,8,7,10,24,53,17
1491694754477,1,25,-7,9,7,-24,-86,-16,23
1491694754477,1,29,-15,-14,-28,47,63,2,31
1491694754478,2,16,-7,-1,-33,-74,7,-5,0
1491694754478,2,-13,-4,6,24,13,27,28,8
1491694754479,3,-23,5,-1,8,8,13,-33,17
1491694754479,3,15,16,9,33,41,41,45,-19
1491694754525,1,60,-18,-23,-43,-77,-86,6,-14
1491694754525,1,-18,-8,-4,-52,-61,14,28,7
1491694754527,2,1,-4,-3,61,68,40,-35,24
1491694754527,2,-17,12,5,30,68,65,5,-3
1491694754530,2,-24,15,2,-48,-81,48,-51,-11
1491694754530,2,53,-11,5,56,42,29,-10,21
1491694754531,3,-52,32,-11,17,111,61,80,-30
1491694754531,3,-1,-18,19,-8,-21,-97,-97,-7
1491694754582,0,17,0,-4,-18,-82,-18,38,17
1491694754582,0,-16,-4,-22,-18,2,19,15,-24
1491694754584,1,30,-33,3,16,-20,-45,5,34
1491694754584,1,23,8,23,41,58,48,-43,6
1491694754586,3,1,-2,-13,-36,-62,77,31,22
1491694754586,3,8,2,-9,39,56,19,-83,22
1491694754587,0,-22,24,14,23,-49,67,48,-1
1491694754587,0,-1,17,8,-3,20,31,-48,3
1491694754623,1,-37,-5,0,8,20,45,6,-16
1491694754623,1,-48,10,16,12,68,7,74,16
1491694754624,2,62,8,5,54,31,31,12,-2
1491694754624,2,-20,-4,-14,-14,-63,28,-10,-34
1491694754625,0,-14,-13,1,13,94,-33,-60,-31
1491694754625,0,10,-10,-14,-10,69,-25,48,3
1491694754630,1,12,-2,-5,-58,-114,-7,-4,9
1491694754630,1,4,16,-9,45,114,-65,-46,-37
1491694754671,2,-18,-21,-12,-31,-57,-27,55,2
1491694754671,2,-3,8,28,34,41,7,23,36
1491694754720,3,-24,-7,-27,-2,-23,-39,-37,-61
1491694754720,3,52,-39,-15,-108,-113,-47,-16,10
1491694754818,1,14,20,12,59,127,33,38,38
1491694754818,1,-14,35,-11,23,-37,49,51,-24
1491694754819,2,-25,1,-24,-123,-68,-91,-73,-33
1491694754819,2,15,-6,-44,-62,-56,67,8,-3
1491694754821,3,18,-6,22,98,67,84,-25,8
1491694754821,3,24,-9,17,26,-28,-21,9,30
1491694754866,0,7,0,-3,59,49,0,35,4
1491694754866,0,-24,-1,-9,-48,55,-69,-19,-31
1491694754867,2,45,-16,28,43,76,-85,18,125
1491694754867,2,42,8,-16,-46,-122,-94,-69,-9
1491694754868,2,8,4,12,39,53,62,61,0
1491694754868,2,-10,6,19,11,-53,33,21,-23
1491694754869,0,-17,-6,14,41,110,-100,-34,-4
1491694754869,0,2,4,5,42,-65,57,14,-17
1491694754915,1,-48,-3,1,-22,-62,6,78,5
1491694754915,1,-4,-6,-14,-18,-2,4,-82,-69
1491694754916,2,-27,0,-8,-15,-128,39,12,-55
1491694754916,2,-15,-10,-5,-46,127,71,39,17
1491694754964,3,10,-1,-12,84,-45,-36,-19,10
1491694754964,3,-8,-2,28,-83,-128,-11,35,7
1491694754965,1,12,-7,56,49,114,-8,-14,10
1491694754965,1,-35,5,4,47,55,83,30,4
1491694754966,2,31,-11,1,-28,15,-91,-57,-14
1491694754966,2,8,-5,-37,-28,-79,25,32,17
1491694754967,3,-33,2,30,3,67,45,-18,-17
1491694754967,3,2,-7,10,-28,41,-36,-2,-3
1491694755012,2,-44,2,31,20,103,-26,-18,-34
1491694755012,2,44,0,-15,-73,-88,-9,-13,35
1491694755014,3,-5,-3,-21,-59,-99,-2,9,-9
1491694755014,3,-25,-10,-25,-19,119,2,-16,-8
1491694755018,3,-13,-1,30,49,87,122,36,0
1491694755018,3,-9,-2,14,30,22,-116,-47,-37
1491694755020,0,31,0,-34,-76,-58,-63,-22,35
1491694755020,0,-6,-13,-39,30,-53,12,-10,10
1491694755061,1,18,-31,10,39,118,-38,-1,14
1491694755061,1,-1,25,12,78,77,61,13,4
1491694755063,2,-9,16,31,18,67,86,30,4
1491694755063,2,8,1,17,21,5,-17,2,4
1491694755065,0,3,1,25,94,44,19,-15,21
1491694755065,0,10,-5,26,39,99,1,29,10
1491694755066,1,8,13,9,29,-18,85,-8,-1
1491694755066,1,-2,-8,7,-50,-112,-31,-23,-8
1491694755110,2,-18,-11,-58,-128,-85,-49,0,-13
1491694755110,2,7,-23,46,35,33,21,-7,1
1491694755111,3,-11,13,-13,43,80,52,28,0
1491694755111,3,-4,0,-10,-40,-36,-17,-8,-1
1491694755112,0,-1,0,39,76,105,48,-3,-16
1491694755112,0,-8,0,-18,-106,-128,-61,-5,-3
1491694755113,1,-14,-7,-34,-50,-6,-6,14,-10
1491694755113,1,22,2,31,57,65,8,0,35
1491694755158,2,-4,-18,-29,1,-22,-31,5,-18
1491694755158,2,-8,-21,11,-13,-50,1,2,-10
1491694755160,3,13,16,-9,-13,31,-23,10,28
1491694755160,3,-14,0,14,17,-82,-23,-23,-29
1491694755160,1,-14,-25,-1,36,28,16,10,4
1491694755160,1,-9,11,-4,-33,-16,18,5,-6
1491694755161,2,-11,26,-36,-69,-60,-25,-15,-7
1491694755161,2,28,0,1,34,32,-24,-6,19
1491694755207,3,-19,-1,21,58,-4,28,4,-15
1491694755207,3,50,-16,23,12,32,29,19,46
1491694755208,0,-18,-30,-36,-77,-52,37,-26,-31
1491694755208,0,27,32,5,4,-6,-69,9,2
1491694755209,2,-6,9,-4,-25,30,17,14,7
1491694755209,2,26,17,-4,-54,-79,-20,-15,23
1491694755210,3,7,22,-5,24,-22,-2,15,13
1491694755210,3,-55,-6,13,5,18,17,5,-54
1491694755256,0,53,-8,-7,62,83,9,-11,24
1491694755256,0,-25,-11,4,-49,3,13,-6,-23
1491694755257,1,20,13,-18,-50,-56,-32,2,18
1491694755257,1,4,30,42,-21,-43,-25,1,-1
1491694755258,3,51,-11,-29,-11,-40,-16,-17,15
1491694755258,3,-8,3,-5,21,6,-7,-8,0
1491694755259,0,-18,5,30,20,21,12,12,-14
1491694755259,0,5,-4,1,54,95,13,5,21
1491694755305,1,-23,-6,-4,-22,21,-2,8,-13
1491694755305,1,43,-2,-13,-43,-43,-14,-16,6
1491694755306,2,-6,10,17,-24,-80,-61,-9,0
1491694755306,2,-22,-4,-15,1,6,46,13,-9
1491694755307,0,16,-3,-1,-3,-42,-33,12,31
1491694755307,0,-36,-5,13,-11,-2,3,-16,-38
1491694755308,1,1,4,9,-9,-33,6,2,-3
1491694755308,1,7,5,-29,-21,-31,0,-17,-4
1491694755354,2,9,-4,-4,-2,-13,0,10,1
1491694755354,2,9,9,16,29,18,-27,-26,-10
1491694755355,3,-5,-7,0,9,4,1,11,-2
1491694755355,3,-29,-2,6,21,8,11,2,-4
1491694755357,1,-4,-6,0,-42,-42,-39,-10,3
1491694755357,1,3,-2,-6,-2,-39,-11,-4,6
1491694755358,2,-44,-17,6,44,57,3,-2,-12
1491694755358,2,-30,-14,-1,-12,-1,24,15,-8
1491694755451,3,38,0,-13,-19,-30,-5,0,9
1491694755451,3,21,-10,-5,3,0,-8,-7,8
1491694755500,0,-4,-4,14,-6,12,9,-1,-19
1491694755500,0,16,4,-4,19,17,-24,-4,9
1491694755548,2,-47,-6,-4,1,-19,7,2,-16
1491694755548,2,-33,-3,0,17,31,3,-2,-10
1491694755549,3,-26,-12,6,-6,-45,19,8,-29
1491694755549,3,45,5,6,4,35,-45,-5,14
1491694755550,0,3,-5,-5,5,-21,61,9,-21
1491694755550,0,-31,-10,4,-1,-4,-29,2,-5
1491694755551,1,4,4,-4,23,9,-4,-23,-10
1491694755551,1,-19,-6,-10,1,4,4,-6,-20
1491694755597,3,35,12,16,28,58,-37,-3,15
1491694755597,3,8,1,1,12,53,34,3,4
1491694755598,0,3,2,8,18,71,9,-16,-30
1491694755598,0,14,5,-4,-71,-128,-53,24,12
1491694755599,1,34,9,0,26,25,-12,6,37
1491694755599,1,-28,-3,7,22,2,24,-34,-17
1491694755600,2,52,-4,-3,-17,26,-32,35,32
1491694755600,2,-19,-2,11,17,-28,23,-40,-24
1491694755646,3,-28,-10,-16,-37,-19,-37,-33,-16
1491694755646,3,15,24,10,-2,-46,-36,34,8
1491694755695,0,3,-15,-10,17,25,34,8,3
1491694755695,0,15,0,11,18,39,88,-1,-12
1491694755695,2,-11,6,10,-38,-59,-12,-17,-1
1491694755695,2,39,-4,1,13,-7,6,22,14
1491694755696,3,8,0,3,26,111,-17,-12,-13
1491694755696,3,-21,-8,3,15,42,82,48,16
1491694755697,0,-9,-6,-4,-34,-50,81,-12,-1
1491694755697,0,46,-1,-20,-27,-80,-128,-35,34
1491694755744,1,19,7,-1,2,-2,100,7,13
1491694755744,1,14,5,-2,-36,9,48,-4,3
1491694755745,3,-11,-13,-2,-9,52,48,24,-1
1491694755745,3,-8,-6,-14,-12,-37,-89,-9,10
1491694755746,0,5,6,1,3,14,54,-27,-21
1491694755746,0,5,11,3,0,5,-66,-17,19
1491694755747,0,15,-2,-11,-12,10,-36,-12,-2
1491694755747,0,-7,-9,27,49,86,-5,6,-3
1491694755792,1,-48,0,-9,-8,-25,-8,-68,-61
1491694755792,1,1,-8,-21,-64,-96,-27,16,-36
1491694755793,2,-36,8,-13,26,-10,-92,-15,-10
1491694755793,2,9,-5,2,30,63,93,16,-40
1491694755795,0,-16,-1,6,15,35,20,45,-3
1491694755795,0,-61,1,-9,-2,-27,77,6,-51
1491694755796,1,-50,-10,2,37,3,-50,24,-85
1491694755796,1,-88,-15,2,39,-1,76,53,-69
1491694755843,2,-20,-9,4,0,-60,-92,-55,-64
1491694755843,2,-48,13,-11,12,2,89,47,-29
1491694755844,3,-56,12,-3,-7,-13,-9,0,-2
1491694755844,3,-8,2,8,25,11,8,50,-4
1491694755847,1,-32,-2,-4,-10,4,-5,-12,-33
1491694755847,1,28,2,-5,24,7,-12,-14,-5
1491694755848,2,-71,7,9,19,14,91,28,-43
1491694755848,2,-1,3,-10,-20,-25,-59,-6,-47
1491694755890,3,-68,4,1,7,22,63,48,-31
1491694755890,3,-6,4,-1,6,-40,-14,-10,-25
1491694755891,0,32,5,-5,-7,7,-5,-7,7
1491694755891,0,-18,-5,-2,-18,-4,-82,-56,10
1491694755939,2,44,-2,6,-27,-17,38,-35,15
1491694755939,2,-8,-4,-6,-36,-16,-3,4,14
1491694755940,3,36,-4,-3,-8,9,-12,-19,31
1491694755940,3,78,0,4,-7,27,2,-12,48
1491694755944,0,34,-11,0,-7,7,-47,41,69
1491694755944,0,-11,-7,-60,-8,30,44,-24,30
1491694755953,1,90,0,8,-16,14,-42,-39,24
1491694755953,1,-28,12,25,-9,-43,-25,-16,-3
1491694755987,3,-9,-2,-18,2,-23,26,45,-10
1491694755987,3,-29,0,-10,14,5,4,-19,-36
1491694755988,0,16,-10,-11,-7,-4,-48,-33,-7
1491694755988,0,-21,-1,-3,-11,-32,6,26,2
1491694755989,0,-21,13,7,-5,-14,-19,15,-5
1491694755989,0,-11,3,-17,16,14,-73,-10,-14
1491694755990,1,-51,8,12,13,11,28,25,-40
1491694755990,1,-39,-11,13,4,-40,-69,-14,-4
1491694756036,2,-9,-14,-8,-16,1,48,8,-2
1491694756036,2,51,-18,4,-3,18,-99,-40,48
1491694756037,3,41,-16,-8,-19,-15,32,-23,32
1491694756037,3,9,-8,-14,-9,5,-48,-11,15
1491694756038,1,-10,-3,2,-3,-3,-32,-10,-12
1491694756038,1,12,-1,-9,5,8,19,6,-16
1491694756038,2,1,2,-1,5,-19,-39,15,-10
1491694756038,2,-17,19,11,18,12,100,22,-34
1491694756085,3,-21,18,-2,13,-18,-60,-16,-45
1491694756085,3,-2,13,2,3,-31,0,-34,-51
1491694756086,0,-70,8,-12,27,9,108,72,-83
1491694756086,0,-39,17,12,39,18,-30,3,-72
1491694756087,2,47,-21,-3,-7,17,17,1,46
1491694756087,2,48,-14,4,-23,-19,-10,12,72
1491694756088,3,-36,0,-8,-14,18,35,12,42
1491694756088,3,15,0,-10,-10,3,-14,-31,-7
1491694756134,0,1,2,4,-1,5,-54,-1,7
1491694756134,0,-7,12,0,0,2,40,5,-9
1491694756135,1,11,0,-1,4,-8,-34,-12,11
1491694756135,1,-23,-5,-2,-13,-3,-11,30,36
1491694756137,2,41,-3,-2,-6,10,-10,-14,28
1491694756137,2,-4,-1,-6,-9,-5,23,-6,7
1491694756143,3,-4,-3,4,-8,-8,-36,6,9
1491694756143,3,-37,8,-3,1,6,18,-26,-2
1491694756182,0,22,0,-3,9,-7,-53,11,24
1491694756182,0,-3,11,-4,-22,-25,-63,-28,-5
1491694756185,1,-2,-12,-12,-25,-17,49,-44,-27
1491694756185,1,37,-7,12,24,27,-48,42,11
1491694756187,3,22,9,8,16,4,17,14,-20
1491694756187,3,0,-5,-16,-9,-32,-5,-12,-14
1491694756188,0,-5,22,11,-1,-23,1,-8,-13
1491694756188,0,-33,-2,3,6,10,2,4,-14
1491694756231,1,-16,-2,-2,10,20,31,30,0
1491694756231,1,33,-11,7,17,15,-33,0,7
1491694756232,2,-48,-6,-10,-5,-5,15,-25,-16
1491694756232,2,-3,2,0,-19,-27,48,-19,-30
1491694756234,0,-9,-4,-3,-1,23,33,14,-23
1491694756234,0,5,-11,-13,-4,-34,-36,9,-1
1491694756235,1,-11,5,0,-24,-19,-18,-14,-34
1491694756235,1,44,-4,5,9,-6,54,-22,-4
1491694756280,2,28,0,-4,22,43,14,-4,-4
1491694756280,2,-10,0,8,14,-6,24,-2,0
1491694756281,3,8,-10,-6,-11,12,-15,-30,-10
1491694756281,3,22,-24,-12,-19,-53,-89,17,8
1491694756283,1,2,-5,9,2,52,19,-119,14
1491694756283,1,-1,-1,-5,-17,7,60,53,11
1491694756284,2,60,-24,3,2,-22,-44,-17,28
1491694756284,2,10,-1,-1,-20,5,38,-3,7
1491694756329,3,2,10,14,36,66,-48,-27,25
1491694756329,3,-31,4,-11,-41,12,100,14,-29
1491694756330,0,24,-1,-3,-9,-16,-93,15,7
1491694756330,0,-25,13,-12,9,-41,112,9,-16
1491694756331,2,-14,-12,6,23,40,-110,4,-7
1491694756331,2,2,10,8,18,-26,79,9,11
1491694756332,3,-28,-7,-6,-8,41,-48,28,-44
1491694756332,3,27,7,2,17,13,-66,-27,9
1491694756377,0,-20,-3,-3,-49,-29,93,16,-25
1491694756377,0,-11,1,2,34,51,-30,12,9
1491694756379,1,10,7,-3,24,-36,83,36,6
1491694756379,1,-30,6,4,-24,-37,-117,-30,-18
1491694756426,3,-3,14,-7,0,24,52,-47,-13
1491694756426,3,21,-20,-4,0,-21,-57,-1,7
1491694756427,0,21,18,-5,-2,-49,55,-43,-1
1491694756427,0,-30,2,-10,-3,33,-71,36,1
1491694756428,1,9,-6,16,12,-32,41,26,11
1491694756428,1,-12,15,6,12,11,-49,-14,-9
1491694756429,2,31,-8,-7,11,-32,-12,18,17
1491694756429,2,21,-6,0,-4,30,61,-79,-10
1491694756475,0,-23,-1,-4,14,55,8,14,2
1491694756475,0,6,-8,-6,-43,-26,-122,-27,-10
1491694756476,1,25,-25,-25,-63,-106,-43,-16,22
1491694756476,1,13,10,1,41,-10,101,34,42
1491694756477,1,20,6,18,111,66,-121,-22,19
1491694756477,1,-31,3,-12,-3,-68,61,-82,-65
1491694756478,2,-39,27,-1,-81,-50,18,97,-39
1491694756478,2,22,-33,-20,19,3,-125,-102,6
1491694756524,3,-42,21,-12,44,-8,123,48,-37
1491694756524,3,32,-1,23,-5,61,-87,48,40
1491694756526,0,-6,8,-24,-34,-37,-37,11,-23
1491694756526,0,-2,11,-2,-13,-2,84,10,3
1491694756527,1,23,-24,28,60,48,-51,11,50
1491694756527,1,1,3,-5,12,34,82,4,-7
1491694756528,2,-4,6,4,-52,-46,-23,-8,-26
1491694756528,2,25,-3,-7,9,53,47,15,-12
1491694756573,3,-37,8,17,32,1,21,-1,-21
1491694756573,3,20,-1,-4,-38,-21,-48,50,-9
1491694756576,0,-37,-24,-8,-7,-90,-84,36,-8
1491694756576,0,-29,12,6,68,2,60,36,-10
1491694756578,2,-22,31,-29,-18,63,125,27,-21
1491694756578,2,-8,18,3,43,-91,-93,-26,-47
1491694756580,3,-49,14,9,-128,-128,104,39,-57
1491694756580,3,-25,-13,-6,86,97,20,4,-28
1491694756621,0,3,-10,22,93,-27,1,-25,-19
1491694756621,0,-39,-1,-19,-108,-18,27,11,-33
1491694756622,1,-16,-21,-40,-3,32,-128,-63,-20
1491694756622,1,7,-16,10,13,-27,98,12,27
1491694756622,3,21,-8,-17,-128,-128,-48,-39,-1
1491694756622,3,49,-18,-17,55,115,71,33,54
1491694756624,0,22,-11,39,54,96,118,19,75
1491694756624,0,66,-33,-28,-128,-118,-99,-29,118
1491694756670,1,84,-22,-19,21,-20,7,-22,109
1491694756670,1,98,-3,6,-66,30,-89,-72,120
1491694756671,2,102,-13,-14,-55,-54,-43,-14,127
1491694756671,2,127,-8,21,-22,127,-69,-70,127
1491694756673,0,48,-2,-7,-49,47,-15,-55,105
1491694756673,0,83,8,13,107,99,-26,34,121
1491694756674,1,66,11,0,-4,-25,3,-14,51
1491694756674,1,68,-3,19,10,23,-128,-108,-20
1491694756719,2,-74,11,-6,-42,-44,45,35,-95
1491694756719,2,-58,12,-12,-50,-112,57,49,-120
1491694756733,3,-97,18,-14,109,12,87,48,-128
1491694756733,3,-128,23,42,101,19,127,32,-128
1491694756735,1,-82,-8,-22,-8,-122,-28,-17,-99
1491694756735,1,-98,-1,-16,80,95,43,38,-115
1491694756736,2,-46,3,-12,0,41,36,-13,-82
1491694756736,2,-72,2,43,127,-9,72,50,-101
1491694756767,3,-56,-5,18,-26,70,25,29,-84
1491694756767,3,-48,-5,-16,-6,-37,41,28,-37
1491694756769,0,-29,-8,-16,-19,-71,-45,-9,-25
1491694756769,0,0,-3,-6,10,88,-15,-26,-49
1491694756771,2,-4,5,26,108,68,60,11,24
1491694756771,2,9,-5,-18,-20,-61,35,16,29
1491694756773,3,10,-1,-10,2,93,-21,-96,-31
1491694756773,3,3,-2,36,28,-64,-58,15,15
1491694756816,0,18,-8,-9,-69,3,-28,-50,1
1491694756816,0,23,-3,16,-17,-82,3,4,32
1491694756817,1,33,4,8,27,79,29,19,36
1491694756817,1,21,-3,-7,-7,48,-65,-9,32
1491694756817,3,11,2,-37,-12,-95,64,38,26
1491694756817,3,1,2,7,52,74,22,-20,-19
1491694756818,0,47,-3,-24,-21,-94,30,15,27
1491694756818,0,-28,0,7,9,46,63,16,3
1491694756868,1,-2,-1,30,3,12,-19,23,2
1491694756868,1,-12,-5,-18,-2,22,23,2,-17
1491694756868,2,8,-4,-19,-18,-55,-16,-19,-3
1491694756868,2,-13,-1,-8,23,72,18,4,-20
1491694756913,3,16,-2,23,20,-23,-13,-13,20
1491694756913,3,-17,3,-16,-70,-73,42,0,-6
1491694756914,0,6,-3,-21,-35,-37,-98,7,23
1491694756914,0,34,1,-9,63,-30,-2,30,5
1491694756915,1,-5,6,4,-38,110,-24,-13,-7
1491694756915,1,8,1,23,41,38,107,26,7
1491694756916,2,-19,-7,-7,-2,-121,-109,-49,-19
1491694756916,2,27,0,-38,-73,-93,-47,-16,31
1491694756962,0,6,1,63,75,127,127,30,19
1491694756962,0,-2,-41,19,20,31,-78,-33,-6
1491694756964,1,10,18,-32,-112,-73,-5,-15,1
1491694756964,1,2,14,-2,10,13,9,14,12
1491694756964,1,-22,2,32,29,69,-7,-51,-38
1491694756964,1,-6,-1,30,47,52,42,73,-5
1491694756965,2,-50,-47,-38,-113,66,-44,-41,-52
1491694756965,2,28,-35,8,-54,-112,10,4,23
1491694757011,3,-63,47,10,72,54,-3,22,-32
1491694757011,3,45,8,-20,-103,-69,-88,-51,48
1491694757012,0,22,8,-8,99,90,-39,10,30
1491694757012,0,10,7,0,87,54,55,-2,3
1491694757012,2,-3,7,-28,46,47,47,33,22
1491694757012,2,-11,29,42,121,127,32,6,-2
1491694757013,3,28,-44,-16,3,80,32,5,29
1491694757013,3,6,17,16,-37,-104,-88,-33,-4
1491694757108,0,-8,-5,11,-18,-30,32,-20,-42
1491694757108,0,-61,-7,44,61,120,82,6,-33
1491694757158,1,45,13,-42,-108,-87,6,0,18
1491694757158,1,10,18,-6,-42,-75,-77,-9,1
1491694757160,3,20,10,-15,37,3,-50,-20,32
1491694757160,3,-8,-12,-31,67,97,76,22,-12
1491694757161,0,30,-6,-3,43,-29,-3,6,25
1491694757161,0,4,-1,-23,-65,37,22,12,-11
1491694757162,1,18,16,32,-27,-59,-18,6,6
1491694757162,1,-18,20,45,25,-8,0,-4,-9
1491694757206,2,-16,-7,122,15,1,-2,1,-7
1491694757206,2,-17,-38,-23,-56,-4,-24,0,-17
1491694757207,1,-2,-18,-13,4,32,15,5,10
1491694757207,1,-7,-10,-72,37,21,-4,16,15
1491694757208,2,13,-10,-81,-45,-20,-21,-16,-7
1491694757208,2,25,15,-15,-84,-101,-37,-29,13
1491694757209,1,-6,-18,-5,-79,-46,1,-2,-2
1491694757209,1,-35,-5,28,39,0,13,-1,-22
1491694757255,2,-7,4,-12,43,44,-24,-11,-31
1491694757255,2,32,-1,28,34,7,54,24,8
1491694757256,3,5,-6,1,-45,-73,-83,-9,4
1491694757256,3,-17,5,4,16,-24,10,-1,-22
1491694757257,2,-31,-13,-24,-4,-54,-51,7,-7
1491694757257,2,-42,-10,-4,-5,12,-6,-9,-37
1491694757258,3,7,-1,15,33,6,17,2,-7
1491694757258,3,-46,-8,3,29,62,19,13,-27
1491694757303,0,20,-6,-24,-29,15,61,21,20
1491694757303,0,0,-3,-11,-1,-39,-81,-16,14
1491694757305,1,-26,-6,-23,-26,-20,6,-26,-19
1491694757305,1,28,3,15,12,-2,11,-18,0
1491694757307,3,21,-3,-5,-16,9,23,14,12
1491694757307,3,-20,-3,-19,-28,-46,-85,-22,-1
1491694757308,0,-31,-8,12,8,-22,-3,-6,-10
1491694757308,0,29,1,-20,1,67,5,-5,-11
1491694757352,1,-2,-5,8,4,-34,19,10,2
1491694757352,1,-12,5,10,-33,-31,46,5,-4
1491694757354,2,47,11,-21,-34,-36,-111,-37,12
1491694757354,2,-14,-1,-5,18,7,26,20,8
1491694757401,0,-7,-7,8,-17,-50,-2,3,-32
1491694757401,0,9,1,-7,-12,-38,7,-11,-8
1491694757403,1,19,6,-11,35,74,-16,19,34
1491694757403,1,34,-5,23,-21,-25,11,-38,-1
1491694757450,2,12,7,-24,-25,-15,9,14,3
1491694757450,2,-41,3,23,29,-6,-20,3,3
1491694757452,3,-3,-9,-14,-7,3,15,-3,-3
1491694757452,3,-46,-2,-7,-1,-14,16,24,-6
1491694757453,1,16,-2,-5,6,-7,43,21,-9
1491694757453,1,-10,3,4,23,37,-11,4,5
1491694757455,2,-11,-8,14,25,56,26,50,0
1491694757455,2,-37,-3,-16,-34,-40,-31,-27,-28
1491694757499,2,28,0,-9,-17,-77,-43,-21,4
1491694757499,2,-35,-10,-18,-35,1,30,-6,-16
1491694757501,3,-1,9,19,17,9,-4,17,0
1491694757501,3,-25,-4,-5,6,20,40,-18,-11
1491694757502,0,48,3,16,12,-78,-85,-14,-2
1491694757502,0,-18,-4,-12,-26,105,-9,-27,-3
1491694757503,3,-39,-8,-9,5,101,15,14,-6
1491694757503,3,-17,-5,-5,-6,-8,4,-13,-1
1491694757548,0,-7,-4,-16,-30,-64,69,-1,-25
1491694757548,0,70,14,4,-9,-56,-60,1,8
1491694757550,1,-24,-2,-12,10,41,66,-22,-9
1491694757550,1,31,1,6,3,-65,-10,20,1
1491694757551,3,44,9,-3,-22,-12,-119,-44,-7
1491694757551,3,-10,-2,-8,-3,5,65,18,-12
1491694757552,0,-17,8,5,29,85,14,8,6
1491694757552,0,-6,4,-1,-7,-67,-33,-36,-16
1491694757596,1,34,-5,-8,-35,-118,-98,-18,-20
1491694757596,1,-15,-9,-2,-5,40,38,-1,6
1491694757598,2,24,6,7,28,28,-11,-7,18
1491694757598,2,2,2,-14,-26,-15,-30,-44,4
1491694757600,0,-7,-6,-9,-42,-45,11,11,25
1491694757600,0,28,9,1,26,8,-53,-10,2
1491694757601,1,-27,11,11,16,22,36,-10,-17
1491694757601,1,33,3,-4,7,93,-13,1,-10
1491694757645,2,-11,-6,-7,-12,-16,-46,12,5
1491694757645,2,9,-12,-1,-2,-24,-7,-26,-11
1491694757649,3,-43,-13,6,-14,-6,65,-17,-7
1491694757649,3,3,-4,0,12,2,-22,24,-13
1491694757650,1,-10,8,-4,12,13,20,8,0
1491694757650,1,-19,11,5,12,19,60,10,-4
1491694757651,2,-8,-1,-5,-28,-74,-18,-1,2
1491694757651,2,10,-5,-11,7,77,28,29,-9
1491694757693,3,29,3,1,-18,-46,-8,-4,19
1491694757693,3,-17,-9,-11,-3,-3,2,12,10
1491694757694,0,3,12,10,29,28,48,-9,-18
1491694757694,0,-6,6,14,25,40,14,-12,16
1491694757696,2,-27,-9,-4,22,-1,16,34,20
1491694757696,2,24,-2,10,-6,-1,49,-16,-22
1491694757697,3,7,-10,12,39,76,-8,30,14
1491694757697,3,-41,-2,-14,-5,9,37,12,-2
1491694757743,0,60,0,1,-13,-29,-84,-23,-19
1491694757743,0,-29,5,-5,-4,-28,54,31,3
1491694757745,1,3,6,5,-6,17,-25,-53,16
1491694757745,1,-3,-8,4,12,-12,69,36,-16
1491694757746,3,-3,2,-46,-28,-34,54,-54,-25
1491694757746,3,35,-7,-22,-17,-47,-122,-88,0
1491694757747,0,0,-8,11,12,7,39,11,21
1491694757747,0,-54,-7,21,-8,32,43,-1,-40
1491694757791,1,15,-2,15,6,30,32,25,14
1491694757791,1,27,-11,-2,-3,16,-72,0,11
1491694757793,2,-29,-4,-12,-18,-26,10,-4,-2
1491694757793,2,34,-8,-4,-26,-28,-8,-38,19
1491694757794,0,38,0,8,-16,-6,26,-25,5
1491694757794,0,15,-11,-14,-8,21,-24,33,16
1491694757795,1,-1,-2,-3,-17,-12,27,-19,-5
1491694757795,1,34,-1,-5,-12,-29,-80,4,45
1491694757840,2,10,-5,-64,5,-8,-28,-47,2
1491694757840,2,10,-4,-16,-14,10,45,9,1
1491694757843,3,-7,4,43,13,6,-15,-5,1
1491694757843,3,34,11,58,5,-5,25,0,-5
1491694757895,1,-19,-7,-37,11,-10,-90,23,-13
1491694757895,1,-32,0,-9,5,2,102,6,-20
1491694757897,2,8,4,-3,10,31,-3,55,3
1491694757897,2,-5,-9,-77,-19,-56,5,-12,-7
1491694757898,3,13,-3,51,-8,-19,0,10,-11
1491694757898,3,-6,-6,51,7,19,42,17,3
1491694757899,0,2,-2,23,-12,-7,-45,-44,-9
1491694757899,0,-5,-4,6,-2,11,29,32,10
1491694757937,2,-4,-9,-8,16,11,-5,15,5
1491694757937,2,-2,0,17,-7,-6,-25,14,-2
1491694757939,3,-14,-7,-102,-21,14,25,-43,-8
1491694757939,3,8,8,-19,-3,-8,29,-7,6
1491694757940,2,-40,23,-52,9,-31,41,23,-38
1491694757940,2,-15,8,2,10,-12,-6,18,-31
1491694757942,3,13,-2,19,25,8,35,5,-28
1491694757942,3,-51,8,-15,25,24,-1,-2,-48
1491694757986,0,-12,1,-11,-11,-27,25,9,-22
1491694757986,0,-1,-2,-58,-15,-2,-38,-11,3
1491694757988,1,35,-1,-1,-4,0,-14,2,38
1491694757988,1,11,3,91,-13,7,33,-5,39
1491694757989,3,14,0,-43,-22,-17,-47,-10,18
1491694757989,3,-6,3,-30,-7,-18,-35,-19,1
1491694757990,0,-2,-11,-2,2,26,47,8,-8
1491694757990,0,-1,0,-4,-1,-5,59,33,10
1491694758035,1,-29,11,1,-7,-13,-81,-44,-14
1491694758035,1,24,1,0,-9,-12,-22,-6,2
1491694758037,2,-22,19,-13,-1,-5,42,20,-3
1491694758037,2,14,9,1,21,8,-38,-9,5
1491694758039,0,51,-1,-31,-23,-22,-50,3,7
1491694758039,0,49,14,12,9,-8,13,15,9
1491694758040,1,-14,-6,16,7,-16,-59,-35,1
1491694758040,1,13,5,0,14,29,33,40,14
1491694758084,2,-9,-8,-16,-7,8,-8,-4,5
1491694758084,2,-24,5,6,2,12,60,-31,-9
1491694758087,3,44,-17,1,-26,-28,-83,36,23
1491694758087,3,15,-15,-14,-5,-5,-9,-38,32
1491694758089,1,47,4,-2,1,16,-20,2,9
1491694758089,1,-44,7,-6,9,-6,37,35,-29
1491694758091,2,-70,14,-6,-13,-58,-17,-51,-72
1491694758091,2,10,3,6,28,58,3,28,-40
1491694758132,3,-35,8,-2,5,-7,82,22,-45
1491694758132,3,29,17,8,18,-34,-61,39,-29
1491694758134,0,-22,6,-4,4,-24,50,-4,-18
1491694758134,0,-57,-3,5,22,18,-48,16,-38
1491694758135,2,-42,4,-21,-1,-18,37,37,-19
1491694758135,2,1,8,5,-2,5,31,13,-19
1491694758139,3,-19,-7,23,25,34,64,-3,1
1491694758139,3,10,-10,-8,-17,-55,-20,-71,-28
1491694758181,0,27,-21,3,-10,-12,-52,41,60
1491694758181,0,69,-15,-10,-30,-43,89,-27,16
1491694758183,1,-14,3,10,7,24,7,2,3
1491694758183,1,23,-8,-6,13,71,-39,-17,44
1491694758184,3,-23,14,5,4,-50,5,10,15
1491694758184,3,-53,-15,-15,-20,12,7,-12,-51
1491694758185,0,43,-10,1,3,-15,-87,3,32
1491694758185,0,-22,1,-10,-11,-51,4,-31,-2
1491694758230,1,45,-5,-6,-4,48,27,8,1
1491694758230,1,-12,-8,5,23,35,58,4,4
1491694758232,2,-8,-5,-5,-3,-25,-8,-1,-13
1491694758232,2,-22,9,1,10,21,41,24,-28
1491694758233,0,-26,18,-10,-2,38,63,0,-26
1491694758233,0,-6,-9,-3,-15,-92,-128,-82,-27
1491694758234,1,-30,-9,12,3,19,122,111,20
1491694758234,1,62,-8,-10,-10,32,-94,21,45
1491694758279,2,-2,-3,20,96,85,17,4,21
1491694758279,2,40,13,-1,-49,-56,83,-25,11
1491694758280,3,-5,-11,-29,-53,56,-39,29,-3
1491694758280,3,51,-12,42,40,-100,-111,-54,33
1491694758281,0,-2,20,-14,-22,56,127,34,-10
1491694758281,0,-10,-8,-13,19,56,-51,49,16
1491694758282,1,57,0,-15,-26,-107,-31,-71,-14
1491694758282,1,-29,12,12,-19,-32,121,5,-7
1491694758327,2,-21,1,-6,45,73,45,3,-18
1491694758327,2,37,-19,8,-12,56,-34,37,23
1491694758328,3,10,4,-12,-12,-48,-44,-53,21
1491694758328,3,-17,-12,-13,-10,37,17,70,10
1491694758376,1,-58,-4,-15,-77,31,65,-20,-14
1491694758376,1,35,-17,-2,-3,-62,-84,65,34
1491694758378,2,14,7,9,51,99,70,33,45
1491694758378,2,-2,-20,-20,-35,1,28,4,18
1491694758379,3,74,13,28,-11,-53,-5,8,37
1491694758379,3,8,8,-17,9,62,1,-49,16
1491694758380,0,-12,7,6,-21,42,9,97,15
1491694758380,0,17,-2,-2,31,16,-61,-85,-24
1491694758425,2,-1,6,1,29,35,-26,-22,-25
1491694758425,2,1,7,0,1,-35,-16,21,1
1491694758426,3,-45,-21,20,81,80,43,59,-11
1491694758426,3,23,5,-25,3,57,-13,-96,-12
1491694758427,3,9,19,17,21,-11,27,7,-15
1491694758427,3,-14,-17,-13,-41,-41,-5,2,-13
1491694758429,0,19,-11,-20,-57,-128,110,1,2
1491694758429,0,-4,-5,3,10,48,-16,-32,-2
1491694758473,1,-26,4,-6,45,127,29,-9,7
1491694758473,1,-14,4,18,22,-35,-44,6,11
1491694758475,2,44,11,18,22,127,37,-9,-17
1491694758475,2,-35,3,-21,-67,-128,-11,41,2
1491694758476,0,-8,-11,7,59,104,-37,-15,-6
1491694758476,0,-7,30,20,41,-32,127,-1,-36
1491694758477,1,-68,4,-20,-45,-104,27,33,-99
1491694758477,1,9,-19,0,-16,38,-33,45,-3
1491694758522,2,-34,-9,4,74,-4,22,2,-29
1491694758522,2,18,-6,-15,-45,3,-8,16,-19
1491694758524,3,-21,-4,25,14,-33,62,23,-3
1491694758524,3,-9,-11,9,40,-8,-70,-7,-7
1491694758525,1,53,-11,-13,16,99,-9,5,57
1491694758525,1,11,-15,-7,-35,-71,-8,55,24
1491694758526,2,-3,5,-6,20,125,28,-69,-12
1491694758526,2,-11,7,25,10,-124,-58,11,-19
1491694758571,3,-37,-5,-44,-121,-103,-47,-16,-10
1491694758571,3,9,1,-10,56,99,-33,1,19
1491694758572,0,43,-9,-7,28,-71,1,-7,38
1491694758572,0,-10,2,21,-13,14,80,44,16
1491694758573,2,-9,-4,-1,-36,-52,-57,13,-19
1491694758573,2,3,-5,3,-3,-34,72,17,6
1491694758573,3,-21,7,-2,-16,34,57,20,2
1491694758573,3,12,5,14,26,-84,-26,-14,10
1491694758620,0,-10,2,-14,0,111,-6,-17,-9
1491694758620,0,-2,1,29,60,54,33,15,-2
1491694758622,1,-11,0,4,-23,-49,-35,6,-7
1491694758622,1,27,-2,-30,-34,-60,-2,-25,33
1491694758623,2,-26,4,20,50,-8,25,12,-11
1491694758623,2,5,0,-10,-32,-9,-38,-24,-16
1491694758624,3,-25,-2,7,20,127,89,69,-14
1491694758624,3,-7,-11,-1,46,-37,-68,-82,-32
1491694758669,0,4,-11,-17,-128,-128,-128,-2,15
1491694758669,0,19,-6,-18,124,127,45,2,18
1491694758671,1,10,2,22,19,40,0,15,-4
1491694758671,1,-37,4,25,12,107,77,16,-22
1491694758672,3,-20,-2,5,-41,-43,-4,6,-17
1491694758672,3,2,1,-11,3,54,39,17,6
1491694758674,0,12,-2,-7,-36,-91,-13,-13,13
1491694758674,0,5,2,24,37,57,47,3,25
1491694758766,1,1,-6,-12,63,13,8,-5,-15
1491694758766,1,1,2,-16,-26,-11,19,21,-4
1491694758768,2,-16,-4,19,-58,-26,14,-18,-30
1491694758768,2,-14,-4,0,-39,-92,-42,-3,-2
1491694758769,0,26,1,26,74,17,54,3,21
1491694758769,0,-7,-8,-6,37,81,-17,32,6
1491694758771,1,15,-6,-1,-57,-40,-39,-14,4
1491694758771,1,-2,-2,-11,6,17,20,-9,-2
1491694758815,2,-40,1,0,64,33,55,6,-19
1491694758815,2,4,-6,2,-75,-99,-48,-16,-38
1491694758816,3,9,-1,-48,-46,-96,-74,-37,19
1491694758816,3,28,2,29,67,37,-8,-14,30
1491694758864,1,-21,-2,15,-33,-49,36,11,-26
1491694758864,1,-21,-5,-34,-101,-35,-54,24,-18
1491694758866,2,-18,-8,31,22,69,33,12,-25
1491694758866,2,-28,-10,-15,-53,33,13,-12,-4
1491694758867,3,-1,-2,5,1,-75,-9,25,-2
1491694758867,3,16,13,-35,-73,-73,-96,-61,-24
1491694758869,0,-23,-1,3,1,-66,31,4,-7
1491694758869,0,10,5,5,-34,51,36,14,12
1491694758912,3,1,17,26,51,84,4,-17,2
1491694758912,3,-34,-8,30,79,23,32,40,-30
1491694758913,0,29,-17,-17,-64,-65,-68,10,21
1491694758913,0,6,-8,-50,15,23,-72,-43,21
1491694758914,0,-1,-24,6,-30,-21,44,5,-15
1491694758914,0,-13,-25,-2,12,31,16,21,-17
1491694758915,1,14,9,26,0,-86,-5,-16,1
1491694758915,1,3,24,-17,-15,-41,2,10,4
1491694758961,2,6,12,45,16,127,-7,-2,-5
1491694758961,2,-36,-17,5,24,3,8,17,-22
1491694758962,3,26,-31,-38,-76,-94,-39,-16,18
1491694758962,3,5,11,-25,-28,-72,6,-1,9
1491694758963,0,7,31,20,69,12,-46,-30,-17
1491694758963,0,-9,16,2,18,62,54,25,-11
1491694758964,1,11,-14,-16,-24,-30,-50,-12,3
1491694758964,1,2,-8,-33,-16,-17,-6,4,-4
1491694759009,2,-44,-4,74,78,75,37,3,-25
1491694759009,2,38,11,-18,-73,9,-18,-2,14
1491694759011,3,6,-3,-4,-34,-78,-20,-10,3
1491694759011,3,2,-18,-12,58,-12,-27,-8,0
1491694759012,1,13,59,92,21,17,24,-1,3
1491694759012,1,-1,22,84,-8,-5,-13,6,-7
1491694759013,2,-2,5,58,23,7,-8,-5,7
1491694759013,2,-20,-12,8,-1,5,59,8,-28
1491694759060,3,22,-23,-77,-42,-48,-64,-11,3
1491694759060,3,-17,-1,-10,26,50,29,16,-10
1491694759065,0,31,-5,-34,42,12,-7,-11,28
1491694759065,0,-6,-7,-5,-59,-72,-41,3,-8
1491694759066,2,-14,-14,3,4,-2,14,2,-4
1491694759066,2,17,15,24,32,48,-23,-3,20
1491694759066,3,-15,2,10,29,95,55,29,-6
1491694759066,3,25,-1,-6,-52,-58,-22,-14,21
1491694759107,0,22,-4,-46,-59,-46,4,-12,0
1491694759107,0,3,24,28,56,45,-8,7,6
1491694759109,1,-15,-9,-13,-21,-35,-3,-5,5
1491694759109,1,10,-3,0,-15,35,9,-8,-3
1491694759110,3,27,5,-20,-9,-12,-22,3,12
1491694759110,3,-46,-12,-5,-14,-41,-16,-15,-29
1491694759110,0,10,-1,1,15,4,-12,16,14
1491694759110,0,-1,6,6,-16,-14,-1,0,-3
1491694759156,1,-17,-16,-11,15,28,33,4,-2
1491694759156,1,-29,-20,13,26,60,30,12,-5
1491694759158,2,9,15,18,-20,-44,-47,-16,2
1491694759158,2,-15,-6,-31,-29,-65,-11,4,-12
1491694759159,0,-3,-12,-1,28,38,1,0,-4
1491694759159,0,-12,1,5,31,61,27,12,2
1491694759159,1,40,13,9,-38,-48,-22,-30,12
1491694759159,1,-27,-8,-19,-17,-29,15,11,-14
1491694759253,2,-4,-4,-22,4,-2,24,8,-4
1491694759253,2,-2,-8,28,23,4,18,19,-1
1491694759255,3,-44,-6,-4,20,52,52,25,-17
1491694759255,3,-29,1,14,-5,12,-36,-17,3
1491694759257,1,20,-5,-18,4,5,-3,10,-2
1491694759257,1,20,2,7,6,15,0,-3,-10
1491694759259,2,10,0,-4,-19,-9,-8,-19,5
1491694759259,2,-42,1,11,3,-26,-20,-3,6
1491694759302,3,-48,-8,-6,-16,-33,-30,-6,-23
1491694759302,3,59,-1,-3,29,-13,14,-17,16
1491694759304,0,24,-3,8,2,24,4,6,-12
1491694759304,0,4,6,1,16,59,1,-13,-21
1491694759351,2,-1,2,-16,-27,-53,1,-22,-26
1491694759351,2,41,13,1,23,4,-47,-35,5
1491694759353,3,26,6,7,-2,-21,-7,-8,6
1491694759353,3,-10,-2,-2,17,59,-11,29,8
1491694759354,0,6,-1,2,-1,-25,4,-14,1
1491694759354,0,-39,-4,23,24,13,36,30,-11
1491694759355,1,19,3,-15,-44,-29,-86,4,13
1491694759355,1,12,13,-24,-35,-29,30,-8,-3
1491694759400,3,-19,1,0,4,11,47,12,1
1491694759400,3,-9,-9,0,-13,-20,-35,1,-4
1491694759402,0,39,5,-16,-18,-8,-14,9,14
1491694759402,0,32,-1,-10,-6,-17,-4,-12,4
1491694759403,0,-13,0,0,2,-34,47,30,17
1491694759403,0,-19,-5,5,-11,-29,6,4,-5
1491694759404,1,-29,0,-11,-41,-27,-58,-1,-30
1491694759404,1,35,6,1,3,-18,43,6,13
1491694759449,2,-3,-3,-3,10,66,8,-41,-10
1491694759449,2,-26,-1,-2,40,45,15,13,7
1491694759497,3,-12,4,3,-33,-40,32,-1,-6
1491694759497,3,-38,-5,-5,-26,57,42,8,-17
1491694759547,1,105,-3,0,26,13,63,2,39
1491694759547,1,-8,-1,-3,-19,-48,-91,-41,-19
1491694759549,2,-18,-5,-11,-3,5,42,40,0
1491694759549,2,1,7,16,20,-22,23,-33,-2
1491694759550,3,-8,-12,6,36,46,12,61,26
1491694759550,3,6,3,-8,-46,12,-47,-51,-21
1491694759551,0,-7,6,-18,-51,-72,-24,-38,-34
1491694759551,0,16,-1,6,10,-28,-105,-11,27
1491694759595,2,-65,-13,8,15,127,56,44,-33
1491694759595,2,29,6,-12,-38,-126,-30,-28,-3
1491694759596,3,-24,0,-20,-83,-128,-104,-18,-4
1491694759596,3,-52,-12,-4,11,10,20,-23,-24
1491694759598,0,35,8,-19,-29,-61,-30,-28,11
1491694759598,0,-35,0,-8,24,8,33,30,14
1491694759599,1,-23,1,27,65,127,26,-9,-9
1491694759599,1,39,-3,13,23,-112,-68,-7,-3
1491694759643,2,4,-6,-17,-65,73,35,23,-41
1491694759643,2,3,-2,-12,-23,-18,-85,-70,8
1491694759644,3,21,4,-10,26,-15,-15,-29,18
1491694759644,3,-40,-7,6,1,24,127,34,-6
1491694759645,1,-5,-4,-6,9,-5,-6,-30,4
1491694759645,1,25,1,-2,35,63,68,36,9
1491694759646,2,-47,14,7,36,65,19,-6,-6
1491694759646,2,-1,20,11,-3,67,108,34,-28
1491694759692,3,7,-3,-4,-41,-89,-94,58,9
1491694759692,3,-43,-6,-3,-9,-7,47,-11,2
1491694759693,0,24,-4,8,21,-91,-94,-22,3
1491694759693,0,25,-6,1,7,61,51,-2,-8
1491694759741,1,-27,-3,-3,-18,-28,52,47,-11
1491694759741,1,64,-6,-14,3,49,34,-7,-8
1491694759742,2,-14,3,5,24,-3,7,0,1
1491694759742,2,16,-4,14,-26,-58,-68,-9,20
1491694759743,3,7,8,0,-8,28,26,-20,-13
1491694759743,3,-30,-7,1,16,-26,-35,4,8
1491694759744,0,-4,-1,-2,1,-68,-41,1,6
1491694759744,0,23,-3,-9,18,106,17,8,1
1491694759790,2,28,-6,19,15,25,42,-4,9
1491694759790,2,-34,12,35,2,-46,37,43,15
1491694759791,3,20,-13,17,-14,9,-3,-38,0
1491694759791,3,17,-1,2,-9,68,48,18,14
1491694759838,0,-28,-15,-17,-13,-62,-73,19,9
1491694759838,0,43,-16,-34,-38,-84,-64,-38,-11
1491694759840,3,-4,-7,6,0,-8,-52,-9,-1
1491694759840,3,-42,8,17,20,8,29,6,-16
1491694759841,0,18,5,-11,9,37,0,3,-7
1491694759841,0,-17,-1,-13,-11,-25,-4,-13,-37
1491694759842,1,-2,2,-14,13,2,41,46,-11
1491694759842,1,-10,9,10,1,-34,-22,11,-23
1491694759889,0,-3,-8,34,10,-34,19,-4,1
1491694759889,0,5,-19,-8,1,62,-22,-20,10
1491694759890,1,42,-2,-4,-5,-9,-38,-5,23
1491694759890,1,40,10,-17,-6,-7,12,15,-17
1491694759892,1,-23,1,6,-10,1,-27,9,16
1491694759892,1,-24,1,34,12,-14,9,-34,-23
1491694759893,2,-47,-20,-18,-13,10,24,19,-2
1491694759893,2,42,-10,-5,-10,-6,15,-18,41
1491694759936,3,18,0,4,-8,14,-51,-26,34
1491694759936,3,5,-1,-15,-10,-5,-5,4,26
1491694759937,0,9,19,-1,-3,0,-25,-5,3
1491694759937,0,30,-9,0,11,7,2,-37,-18
1491694759938,2,-38,-6,-12,3,12,58,8,-22
1491694759938,2,-30,4,9,3,-2,-13,3,-10
1491694759939,3,-27,7,15,12,14,40,1,-20
1491694759939,3,36,-17,-8,8,12,-68,-2,10
1491694759984,0,12,-13,-9,-13,-21,1,36,14
1491694759984,0,2,-9,-10,-5,2,0,-30,-21
1491694759986,1,-1,0,19,10,9,48,12,5
1491694759986,1,2,-7,-4,3,20,-3,-14,2
1491694759987,3,6,2,0,6,-19,20,24,12
1491694759987,3,-7,-8,-3,-1,22,-16,15,21
1491694759988,0,31,-13,-13,5,29,49,-18,0
1491694759988,0,-39,14,6,0,-27,-10,33,-16
1491694760033,1,0,-10,-3,-29,-1,-12,-7,-22
1491694760033,1,-15,-1,-1,12,-10,27,11,3
1491694760035,2,-9,2,7,12,36,52,-10,-10
1491694760035,2,12,-15,-7,-5,-19,-61,18,18
1491694760036,3,14,1,-3,1,7,5,-24,-8
1491694760036,3,-14,-3,-8,-6,0,14,-42,-13
1491694760037,0,4,-10,-1,-17,-10,-32,2,-18
1491694760037,0,6,14,1,4,-13,16,5,0
1491694760082,1,8,-1,5,12,50,0,0,-8
1491694760082,1,-28,8,-1,3,-16,-18,16,-7
1491694760083,2,35,14,0,-4,-19,19,-5,-15
1491694760083,2,-1,5,5,7,19,-15,3,9
1491694760084,0,18,2,-3,6,30,-15,11,6
1491694760084,0,22,-6,-3,-11,-4,18,2,-8
1491694760085,1,7,3,-4,-9,-13,-77,-23,6
1491694760085,1,-2,-2,0,-5,-24,61,31,5
1491694760136,2,-8,9,1,19,31,18,-21,15
1491694760136,2,-8,-14,0,-11,-50,-23,40,-11
1491694760145,3,13,-5,-9,18,65,-12,-22,6
1491694760145,3,-30,14,5,-4,-40,-36,79,12
1491694760146,1,-27,10,1,2,67,31,-37,-25
1491694760146,1,-18,-4,8,4,-20,-41,61,-10
1491694760146,2,-36,24,-5,-18,-29,116,4,-20
1491694760146,2,25,-14,-9,-28,-1,-69,-56,5
1491694760180,3,22,-4,0,0,-94,-15,61,31
1491694760180,3,-21,-15,-13,11,89,74,-64,-5
1491694760181,0,10,2,15,35,-34,-87,-25,-11
1491694760181,0,-18,-6,-8,-23,44,0,-11,-12
1491694760182,2,-45,-11,4,17,72,-74,8,9
1491694760182,2,-9,1,-9,-46,-29,-41,-41,0
1491694760183,3,-2,-12,-2,-7,27,27,13,7
1491694760183,3,8,-11,-6,-26,-93,-86,-22,10
1491694760228,0,21,-4,-14,-30,-48,25,-14,5
1491694760228,0,6,18,16,78,90,31,12,11
1491694760230,1,-44,6,-4,-9,-45,48,-8,-24
1491694760230,1,-4,-13,-15,-45,30,0,-37,-23
1491694760231,3,-13,6,6,14,56,90,-58,-16
1491694760231,3,46,-3,16,25,77,26,6,3
1491694760232,0,-25,-9,-1,-11,-25,-60,0,11
1491694760232,0,41,23,-3,-17,-7,61,14,-20
1491694760279,1,-24,2,5,-4,-113,10,46,-13
1491694760279,1,-16,-3,-10,1,40,-116,-83,-19
1491694760281,2,-21,-6,-5,23,88,86,54,2
1491694760281,2,36,6,11,14,-72,22,1,4
1491694760326,0,17,-1,12,30,-13,47,61,24
1491694760326,0,6,-6,-15,-83,-68,-58,-52,-7
1491694760327,1,54,-8,-24,-31,-30,64,5,5
1491694760327,1,19,3,20,64,86,74,7,21
1491694760328,2,-5,10,14,23,6,-7,-35,-7
1491694760328,2,-4,8,12,49,95,-21,32,5
1491694760329,3,26,-15,-5,-83,-106,-72,-51,0
1491694760329,3,-14,4,-33,-7,33,-33,14,-16
1491694760374,1,-15,-7,2,44,15,-101,-4,-15
1491694760374,1,-12,14,-20,-48,-45,74,16,-55
1491694760375,2,-22,4,-21,-105,-76,-65,-21,-17
1491694760375,2,23,-1,-19,58,53,116,47,-2
1491694760376,1,6,-7,16,36,55,-9,-56,-6
1491694760376,1,-10,-5,-24,5,-40,29,13,25
1491694760377,2,10,-14,16,-12,105,-16,-1,-34
1491694760377,2,-21,-7,5,23,20,-40,-1,18
1491694760423,3,1,6,-8,-21,-35,13,30,9
1491694760423,3,-5,-4,-3,4,41,53,14,7
1491694760424,0,5,-25,-4,17,-82,-58,-67,-2
1491694760424,0,-33,-18,0,-29,-27,21,44,-10
1491694760425,2,-17,42,5,104,30,103,17,-3
1491694760425,2,-36,13,16,-43,66,-22,83,-3
1491694760426,3,5,7,-17,-32,-122,-35,-8,11
1491694760426,3,29,-47,-3,-16,-94,-128,-70,-12
1491694760472,0,-27,-20,-16,1,117,127,26,-20
1491694760472,0,28,-22,32,50,-16,-15,-92,15
1491694760473,1,-18,35,-13,51,84,127,127,30
1491694760473,1,23,12,8,-47,-86,-103,-106,-22
1491694760474,3,1,-19,2,-4,93,29,9,-14
1491694760474,3,11,-7,-7,-18,-52,18,29,36
1491694760474,0,14,5,-10,0,6,13,-30,19
1491694760474,0,-13,-8,17,14,-32,-10,-12,1
1491694760521,1,24,-2,-4,-25,24,30,29,-7
1491694760521,1,-9,0,-16,11,-28,-61,-33,5
1491694760523,2,11,-6,-13,-21,-5,44,33,-25
1491694760523,2,-15,-1,-12,-31,-43,36,-21,-5
1491694760524,0,37,-11,-17,-38,-70,-29,8,44
1491694760524,0,3,2,5,18,-53,-13,-16,18
1491694760525,1,3,-7,-17,21,35,-30,-37,0
1491694760525,1,-13,6,38,54,63,58,28,-7
1491694760570,2,0,-8,-11,-8,55,-63,-35,5
1491694760570,2,4,5,-33,23,72,85,30,-30
1491694760571,3,-44,-3,9,-90,7,-11,-22,-17
1491694760571,3,11,4,-20,-53,-60,-77,-50,-12
1491694760573,1,-6,-4,-1,90,46,41,2,-17
1491694760573,1,-39,-4,-3,-37,13,39,30,-28
1491694760574,2,2,-3,-4,-18,16,61,19,8
1491694760574,2,7,-5,-39,-8,-66,-128,-59,-10
1491694760619,3,56,-2,16,52,22,4,5,28
1491694760619,3,-30,12,37,92,127,114,41,-10
1491694760620,0,-4,-11,-10,-86,-61,-67,28,-1
1491694760620,0,-25,-6,-43,-127,-83,-75,-26,-31
1491694760621,2,-3,4,30,29,125,2,22,12
1491694760621,2,-31,-3,11,66,127,124,35,-25
1491694760622,3,-14,-7,-22,-128,-128,-103,-64,-17
1491694760622,3,26,-5,-46,-11,74,90,8,-1
1491694760668,0,4,8,42,110,53,113,-3,33
1491694760668,0,-9,3,-5,7,83,54,58,-9
1491694760670,1,-18,-3,-7,-73,-93,-10,-52,-39
1491694760670,1,-13,-1,-5,-13,91,-95,-6,-15
1491694760671,3,-5,-1,16,30,40,31,25,-11
1491694760671,3,-32,4,30,-2,49,59,-4,-2
1491694760672,0,16,1,-33,-10,-3,-43,15,-2
1491694760672,0,-10,-4,6,-49,-81,-22,-32,-3
1491694760716,1,31,-3,-18,-37,-63,14,-17,19
1491694760716,1,15,4,1,62,43,23,11,-6
1491694760718,2,-21,4,35,21,-26,-48,-16,1
1491694760718,2,6,-4,-19,-3,66,-48,15,0
1491694760719,0,-37,0,3,82,50,75,-17,-25
1491694760719,0,-20,2,30,-19,-81,45,-19,-40
1491694760720,1,-19,-2,-6,-69,-100,-68,21,0
1491694760720,1,28,-3,-23,30,104,54,37,14
1491694760765,2,37,-2,-5,-3,-41,-42,-12,36
1491694760765,2,16,2,24,10,-9,84,-2,8
1491694760766,3,-14,-4,-7,127,122,55,60,18
1491694760766,3,-28,-8,6,-57,-128,-8,-15,-40
1491694760813,0,-21,-10,-54,-128,-111,-104,-49,-33
1491694760813,0,34,1,18,125,113,60,17,41
1491694760815,1,-17,8,21,50,77,68,30,-16
1491694760815,1,8,-2,30,-26,-45,-39,20,17
1491694760816,2,-1,0,-13,-25,-43,39,-12,-33
1491694760816,2,35,-8,-34,-52,40,-62,-41,51
1491694760817,3,9,14,-14,-17,-72,-14,-23,-2
1491694760817,3,15,5,-4,62,49,68,-6,-2
1491694760862,1,9,-14,-9,-77,-67,-29,-24,6
1491694760862,1,19,-4,-26,67,-9,-39,-1,36
1491694760865,2,8,16,15,54,72,72,57,7
1491694760865,2,-21,-14,14,13,-29,-53,-17,-33
1491694760866,2,22,3,6,17,-3,-15,-10,16
1491694760866,2,-1,17,-1,-25,-53,-31,-37,4
1491694760867,3,8,3,10,40,22,15,5,-11
1491694760867,3,-33,-4,18,69,66,63,11,-23
1491694760911,0,10,-24,3,-13,-42,-45,6,2
1491694760911,0,-8,-8,-24,-72,50,-26,6,-20
1491694760913,1,1,19,-21,14,71,33,2,20
1491694760913,1,45,20,17,-19,-33,-48,-4,19
1491694760914,3,-5,-6,-3,58,55,30,26,9
1491694760914,3,-2,16,-38,-128,-96,-26,-10,-11
1491694760960,0,-18,6,-25,35,-28,-45,-5,-19
1491694760960,0,31,12,17,61,18,-46,-35,33
1491694760962,1,-4,-29,31,12,44,39,1,-13
1491694760962,1,-10,-26,22,32,46,46,17,-5
1491694760963,2,35,36,9,-31,-37,-62,-35,15
1491694760963,2,-34,5,-8,-12,-54,59,55,-14
1491694760964,0,8,-4,14,29,85,35,12,-12
1491694760964,0,-46,9,42,38,42,63,30,-12
1491694761008,1,-11,4,-1,52,106,35,-4,6
1491694761008,1,-4,0,-38,-72,-92,-14,8,10
1491694761010,2,-31,-6,34,67,103,-11,11,-17
1491694761010,2,8,-24,-34,-36,-8,1,6,-3
1491694761011,3,8,-13,35,65,2,20,0,-10
1491694761011,3,-20,0,-21,-30,-7,-3,-11,7
1491694761012,1,-28,-4,-7,-43,-21,14,7,-6
1491694761012,1,1,-26,15,-5,-11,-20,2,8
1491694761057,2,-54,18,-3,61,67,33,13,-46
1491694761057,2,25,0,-36,-108,-56,2,-8,19
1491694761059,3,-5,-21,-61,-7,-32,-27,-6,1
1491694761059,3,3,0,12,-23,-67,-24,-14,-9
1491694761060,2,-22,6,16,26,33,41,25,-13
1491694761060,2,-12,6,-2,16,35,-37,-13,-13
1491694761106,3,28,-6,-33,-88,-121,-42,-21,16
1491694761106,3,-50,2,-21,-17,6,-12,-1,-21
1491694761154,0,23,-23,-45,11,11,5,0,8
1491694761154,0,-4,-2,27,1,12,4,-5,-2
1491694761203,1,13,-2,9,54,55,8,14,11
1491694761203,1,1,16,-37,-58,19,29,-10,-36
1491694761205,2,8,-15,3,9,-3,-30,2,24
1491694761205,2,-32,-18,-6,-5,-38,6,23,-13
1491694761206,3,-2,10,-12,-38,4,-11,-8,-8
1491694761206,3,25,13,8,6,-15,3,3,16
1491694761207,0,19,-18,-1,4,-7,4,-8,12
1491694761207,0,7,3,-22,-35,-29,-8,-2,-7
1491694761252,3,-29,-5,20,-21,-41,-5,-9,-24
1491694761252,3,10,7,5,31,58,16,-3,11
1491694761253,0,-8,-3,-14,-4,30,16,7,-15
1491694761253,0,-1,-4,10,10,-17,4,-1,-5
1491694761301,1,-29,10,-5,-12,-29,-36,-33,-16
1491694761301,1,-40,-1,3,25,19,17,22,-16
1491694761302,2,16,1,-1,9,-6,9,-29,-5
1491694761302,2,17,3,-1,-9,4,-7,10,-5
1491694761303,3,14,0,-5,-8,-27,8,9,-6
1491694761303,3,24,-1,6,23,39,3,0,12
1491694761304,0,-11,4,-9,-16,7,-4,2,-3
1491694761304,0,1,2,-8,-27,-44,-12,-22,0
1491694761350,2,13,-9,-24,13,37,9,6,4
1491694761350,2,-14,-1,33,29,1,-19,-4,-11
1491694761351,3,2,-4,6,3,47,29,56,25
1491694761351,3,8,-1,-22,-39,-47,-38,-62,-20
1491694761353,3,-17,1,6,18,-6,-35,-9,1
1491694761353,3,5,-3,3,31,47,-15,-11,1
1491694761354,0,-32,-3,-4,-9,25,13,-9,-15
1491694761354,0,-7,4,-10,-14,10,46,24,-2
1491694761399,1,29,-1,-7,-14,-33,-40,-21,4
1491694761399,1,-8,-12,7,10,9,29,21,0
1491694761400,2,-13,-8,6,27,38,23,0,-6
1491694761400,2,-4,2,-3,-28,-12,-74,-29,-9
1491694761402,0,-2,-2,-2,4,-57,-12,-27,13
1491694761402,0,52,3,-5,-21,-1,15,41,11
1491694761402,1,-17,-10,-7,25,-1,-4,-55,-8
1491694761402,1,-5,8,-15,-46,-58,-59,-33,-15
1491694761447,2,-15,-8,25,100,74,98,55,-14
1491694761447,2,-40,1,2,-32,88,25,6,-36
1491694761449,3,4,18,6,-63,-49,22,-3,56
1491694761449,3,-18,3,-22,2,-25,-72,-19,-3
1491694761451,0,39,-17,-7,37,48,74,15,12
1491694761451,0,-51,-2,2,13,-83,-96,-18,-15
1491694761452,1,-20,-7,-1,-16,15,58,11,-13
1491694761452,1,-14,5,-9,-27,15,-13,-20,-3
1491694761497,2,-16,-1,14,-10,-40,-68,34,-14
1491694761497,2,16,-4,1,31,-6,58,24,5
1491694761498,3,12,-22,-14,15,75,-62,-11,9
1491694761498,3,19,19,16,-56,-34,26,17,18
1491694761499,1,3,10,-18,-1,-24,-4,55,22
1491694761499,1,-14,-12,27,48,-12,30,-43,-26
1491694761501,2,14,6,3,-7,17,-43,-9,3
1491694761501,2,-64,7,-18,-64,-92,19,-15,-18
1491694761545,3,11,-2,5,57,86,71,47,-3
1491694761545,3,43,4,-8,-39,-64,-68,-32,-18
1491694761546,0,-22,6,-8,-59,-30,35,54,8
1491694761546,0,39,-4,8,65,26,77,-55,27
1491694761548,2,1,3,0,32,11,15,-8,17
1491694761548,2,35,7,25,29,-17,-3,-1,19
1491694761549,3,4,-1,-5,8,53,87,19,18
1491694761549,3,-39,-11,30,76,45,-39,20,2
1491694761593,0,1,-4,-29,-57,41,-43,-73,-41
1491694761593,0,3,-6,-21,-73,-84,-22,43,25
1491694761642,1,-6,13,4,-17,-47,1,-4,-7
1491694761642,1,-11,-10,-1,43,64,48,12,17
1491694761651,3,20,-1,-12,-31,-91,-77,-46,-12
1491694761651,3,-40,-5,-16,-40,55,26,16,-2
1491694761652,0,-16,-7,-12,-40,-80,25,19,11
1491694761652,0,59,3,14,69,63,-1,-47,-10
1491694761654,1,30,2,4,-3,33,10,29,19
1491694761654,1,-12,-4,0,45,-71,-12,-42,-5
1491694761692,2,9,5,-4,-46,-26,-43,-48,-20
1491694761692,2,-17,-5,-23,-50,1,35,59,-12
1491694761693,0,-15,-10,8,-8,-8,90,25,-9
1491694761693,0,12,2,-9,1,-24,-87,4,27
1491694761694,1,-2,-5,25,58,94,109,-64,-35
1491694761694,1,-16,1,-9,-60,-38,-59,-14,-9
1491694761695,1,-23,9,-1,-2,-23,-67,-3,-4
1491694761695,1,-11,-5,10,12,18,127,36,7
1491694761739,2,-6,0,3,34,37,-69,10,12
1491694761739,2,60,-5,4,-23,3,51,15,-20
1491694761741,3,-24,-8,-17,-25,-54,-35,10,-9
1491694761741,3,-2,7,0,8,2,-10,35,-3
1491694761788,2,6,8,-1,29,36,20,-7,-5
1491694761788,2,10,4,7,8,-1,-66,-10,-5
1491694761789,3,-22,-9,-5,-20,29,82,23,7
1491694761789,3,12,-2,0,2,-32,3,-10,-4
1491694761790,0,-17,-4,11,12,19,-5,12,12
1491694761790,0,2,-1,-11,-11,57,35,14,-8
1491694761791,1,-29,0,-9,-35,-120,-73,-8,-16
1491694761791,1,-6,-11,-6,2,-11,50,15,15
1491694761837,2,16,-5,-7,-17,8,-21,-33,3
1491694761837,2,-19,-22,21,29,30,65,36,21
1491694761838,3,47,-10,0,27,97,1,-7,18
1491694761838,3,-30,17,7,-16,-64,-69,-28,-18
1491694761838,3,-15,-3,-7,-21,-30,-12,-32,-10
1491694761838,3,32,-6,5,-8,-27,-2,-7,-2
1491694761839,0,12,0,18,4,45,93,58,4
1491694761839,0,-11,4,5,-6,10,-20,-30,9
1491694761886,1,26,-17,-12,3,22,-23,-1,23
1491694761886,1,43,-2,-10,0,-15,-67,-31,8
1491694761887,2,-13,-19,-57,-13,-14,11,-3,13
1491694761887,2,16,0,13,-8,24,28,-11,2
1491694761888,0,11,11,21,19,44,61,6,1
1491694761888,0,-26,4,-20,-6,-49,-40,-31,-13
1491694761888,1,4,-12,-21,-4,-24,-9,10,12
1491694761888,1,-11,9,6,21,42,40,17,-16
1491694761935,2,-17,-7,12,17,-1,7,-22,-9
1491694761935,2,15,2,-15,-27,-27,3,20,-4
1491694761936,3,19,2,-63,1,-14,-21,-1,10
1491694761936,3,42,-2,30,-3,2,66,6,24
1491694761937,1,16,-4,-1,-13,1,-1,31,15
1491694761937,1,14,-1,-39,4,1,-13,-24,0
1491694761939,2,-13,13,-10,-13,-34,13,7,24
1491694761939,2,-43,-8,7,3,27,26,3,-18
1491694761983,3,1,9,-3,-5,35,11,31,9
1491694761983,3,-9,-2,-5,3,-15,-28,-30,-5
1491694761985,0,2,2,14,-5,-17,-13,-2,-5
1491694761985,0,22,5,-8,6,4,-24,-19,-7
1491694761987,2,-25,15,0,19,-5,21,11,-36
1491694761987,2,-40,-7,-17,-3,-4,-13,23,-24
1491694761988,3,-19,-5,11,10,2,18,-3,-10
1491694761988,3,37,-11,-10,-4,1,-34,4,1
1491694762033,0,42,-22,-14,-14,11,33,-26,22
1491694762033,0,25,-15,-1,-23,-6,-4,-37,42
1491694762036,1,9,-10,10,-26,-5,2,10,47
1491694762036,1,92,-3,-4,-19,-16,-35,-8,58
1491694762038,3,-27,5,4,2,-33,-73,-46,-42
1491694762038,3,-23,-5,-13,-17,-33,-20,17,-30
1491694762040,0,8,1,2,16,-2,21,19,-14
1491694762040,0,-12,0,-2,-5,-5,-22,-23,-15
1491694762081,1,30,8,3,10,7,22,-7,-16
1491694762081,1,-12,-1,-1,-1,3,26,1,-8
1491694762083,2,10,-6,-4,-5,-35,-65,8,-7
1491694762083,2,-31,3,-5,4,34,58,9,-23
1491694762084,0,-21,-5,-2,-8,9,36,19,-4
1491694762084,0,-5,-2,-4,-1,-15,56,3,-11
1491694762085,1,21,-14,11,8,3,-101,-23,16
1491694762085,1,28,2,-4,14,18,58,16,-5
1491694762130,2,-34,7,-5,-32,-45,-39,-55,-1
1491694762130,2,15,-8,-13,-15,-12,-4,9,-10
1491694762132,3,-7,1,5,13,47,41,34,6
1491694762132,3,-25,-4,10,11,1,20,0,8
1491694762133,1,-16,-6,-10,-25,-32,-66,-15,4
1491694762133,1,-7,7,-3,-6,-25,14,10,19
1491694762140,2,-15,1,3,-2,23,16,-13,-11
1491694762140,2,3,2,-5,1,-25,1,-28,-12
1491694762179,3,24,0,3,7,3,14,33,1
1491694762179,3,16,2,-2,9,-3,24,36,-1
1491694762180,0,-2,0,8,-6,0,-67,-21,-16
1491694762180,0,-3,5,9,10,30,94,44,2
1491694762181,1,-21,-1,1,3,-30,-14,-13,0
1491694762181,1,-38,2,-2,3,41,21,5,-1
1491694762182,2,64,-22,-21,-33,-55,-62,-66,-6
1491694762182,2,-26,19,19,28,-30,47,-2,-1
1491694762227,3,-14,-3,-4,5,53,-24,7,1
1491694762227,3,-53,3,-3,-28,-22,-9,-41,-34
1491694762229,0,4,-2,0,34,35,54,64,12
1491694762229,0,-29,4,-10,-18,-27,-14,-20,-22
1491694762276,2,-9,9,2,8,8,-44,5,6
1491694762276,2,15,-4,3,3,12,9,-18,1
1491694762278,3,66,2,1,-3,12,-24,-29,7
1491694762278,3,-4,-3,1,24,47,-48,7,6
1491694762279,0,4,1,-11,-51,-70,58,7,-1
1491694762279,0,8,2,5,-4,9,-52,17,7
1491694762280,1,-28,1,1,39,12,35,-19,-13
1491694762280,1,11,-2,3,-11,-58,-8,-11,-2
1491694762325,3,-48,1,-18,-48,-1,60,-52,-44
1491694762325,3,43,-28,5,7,-80,-83,-10,31
1491694762326,0,-24,-1,-11,39,83,121,23,-29
1491694762326,0,-14,7,12,-23,-83,-4,-8,-5
1491694762328,0,-31,4,3,36,10,24,4,6
1491694762328,0,27,5,12,-7,-20,-35,-8,-10
1491694762329,1,-41,-26,-7,-23,-79,-80,-19,-24
1491694762329,1,-70,0,-18,-11,79,45,-6,-24
1491694762373,2,46,-8,7,7,-58,16,7,-13
1491694762373,2,-65,-2,-8,-27,-11,28,17,24
1491694762375,3,24,18,26,4,-13,-52,-19,-4
1491694762375,3,-7,-16,-29,-27,-52,-21,-49,-11
1491694762376,1,74,-1,3,32,52,30,-13,29
1491694762376,1,-9,10,35,34,47,-21,15,19
1491694762376,2,36,4,-11,-50,-44,114,1,-20
1491694762376,2,28,-12,-14,-1,-83,-94,-30,52
1491694762422,3,-39,-15,0,4,18,8,39,-4
1491694762422,3,48,-8,-8,-15,-15,117,-9,11
1491694762423,0,-34,27,11,55,-3,111,-15,-14
1491694762423,0,-21,-10,6,-26,85,-30,78,19
1491694762424,2,48,-30,-20,-28,-86,-128,-1,45
1491694762424,2,-37,10,21,19,23,121,6,-64
1491694762425,3,30,11,3,29,96,55,30,20
1491694762425,3,-26,-8,-6,-19,-4,-57,-32,-22
1491694762471,0,44,2,-17,-38,-88,-12,-17,-3
1491694762471,0,13,-7,-12,37,-8,-14,-64,-9
1491694762472,1,-27,14,41,37,47,123,24,-21
1491694762472,1,21,-4,0,-16,-75,-89,-14,-11
1491694762473,3,25,1,-34,-80,-128,-13,-11,3
1491694762473,3,-2,5,-7,5,-51,-27,11,-5
1491694762474,0,-48,10,6,55,64,94,11,-27
1491694762474,0,31,-3,-17,-4,105,-34,-33,19
1491694762519,1,-62,-5,5,-6,-96,83,48,-34
1491694762519,1,44,-11,0,-16,127,-41,5,-2
1491694762521,2,-10,-8,-8,6,-24,18,-11,11
1491694762521,2,-16,8,26,92,123,69,30,-12
1491694762522,3,13,-8,-2,-67,-102,-75,-51,31
1491694762522,3,-13,-3,-45,-42,-34,-14,2,3
1491694762523,0,5,-7,-1,16,57,-10,-14,-8
1491694762523,0,-22,3,4,-17,29,65,11,13
1491694762569,1,26,9,35,52,68,76,48,25
1491694762569,1,6,7,22,48,108,3,-25,-34
1491694762570,2,-31,2,-32,-72,-100,-31,34,7
1491694762570,2,-8,-4,-9,-87,-90,-10,-69,-35
1491694762571,0,-6,2,2,12,-55,-71,-22,-1
1491694762571,0,0,-3,-16,-53,-128,-70,-46,-44
1491694762572,1,-61,-10,-2,46,79,64,39,19
1491694762572,1,46,7,25,71,52,-17,19,-20
1491694762617,2,-21,-10,-12,-91,-73,21,-52,-8
1491694762617,2,28,-10,-17,80,82,-94,14,15
1491694762619,3,15,-4,-13,33,28,-13,-41,22
1491694762619,3,-15,17,3,-19,51,92,-6,-1
1491694762621,1,34,5,17,57,61,17,19,14
1491694762621,1,-30,-3,13,49,113,103,61,8
1491694762622,2,-14,-3,22,-28,5,6,-8,-26
1491694762622,2,-17,2,-12,-3,-50,-45,12,-5
1491694762666,3,30,0,-1,-65,18,-16,-12,8
1491694762666,3,1,-5,30,39,-37,39,-16,-11
1491694762667,0,11,-5,-23,-37,32,-75,4,16
1491694762667,0,-12,0,-17,102,127,127,65,15
1491694762668,2,12,0,33,52,127,-36,-30,2
1491694762668,2,-10,-1,22,36,47,88,67,10
1491694762669,3,-32,-11,-47,-126,-63,-81,-15,-68
1491694762669,3,5,6,-4,-22,3,53,-11,9
1491694762715,0,14,-4,22,59,-41,46,-43,10
1491694762715,0,-9,1,-1,22,-46,17,41,7
1491694762716,1,7,0,-1,27,62,-30,-38,11
1491694762716,1,35,-9,-32,-55,-116,-76,-24,17
1491694762763,3,-29,-1,10,-5,-70,35,38,4
1491694762763,3,-24,-7,-11,-79,-35,20,9,-28
1491694762764,0,31,-10,-49,-8,-13,-16,4,44
1491694762764,0,5,6,42,58,-33,-26,3,-16
1491694762765,1,11,-1,-16,22,126,-2,-19,-8
1491694762765,1,-18,-1,-10,-15,-93,7,-8,-7
1491694762766,2,-23,5,34,-19,-46,75,39,-26
1491694762766,2,-5,-4,-8,-12,7,-21,38,20
1491694762812,0,21,4,-39,-25,-11,-80,-10,16
1491694762812,0,-28,-2,24,53,65,89,8,-15
1491694762813,1,33,-9,-4,11,-14,9,15,29
1491694762813,1,1,-3,39,77,83,-61,-20,9
1491694762814,1,14,4,-22,-23,-128,-112,-80,10
1491694762814,1,14,-4,26,24,-32,38,24,44
1491694762814,2,-14,7,36,126,68,58,35,-20
1491694762814,2,-51,-14,15,1,79,40,-10,-57
1491694762861,3,42,5,-10,-107,-28,-32,11,58
1491694762861,3,18,1,-56,-37,-76,-38,-12,-21
1491694762862,0,-8,8,21,94,96,20,-10,-5
1491694762862,0,-10,-2,22,-63,-128,36,16,-22
1491694762863,1,-32,-5,5,83,127,93,64,-1
1491694762863,1,55,-6,-14,-128,-109,-99,-41,60
1491694762864,2,27,2,-23,94,71,27,-14,12
1491694762864,2,12,6,30,109,41,34,23,27
1491694762910,3,-63,0,46,-22,34,26,19,-54
1491694762910,3,-5,-9,-25,-79,-7,-91,-32,-26
1491694762914,0,38,-8,-26,32,31,-4,5,30
1491694762914,0,-32,-5,21,-96,-128,31,15,-27
1491694762915,2,17,6,27,52,-49,-27,13,22
1491694762915,2,-25,-10,22,12,-93,-5,2,-25
1491694762916,3,-57,-22,-16,-16,16,17,17,-70
1491694762916,3,58,11,-8,-58,-26,-55,-15,62
1491694762958,0,-32,10,11,17,-19,12,-19,-16
1491694762958,0,3,11,-1,-11,127,21,2,13
1491694762959,1,21,-3,-43,-101,-128,-52,-26,-1
1491694762959,1,0,-17,-31,51,-51,13,2,7
1491694762959,3,-12,10,48,53,-37,29,23,6
1491694762959,3,28,10,-8,-4,57,0,-5,16
1491694762961,0,-24,-5,0,-59,-60,2,-4,-25
1491694762961,0,26,-18,-20,-8,18,-7,-13,21
1491694763007,1,-6,7,-38,5,-60,-59,-20,2
1491694763007,1,-42,2,67,124,127,45,25,-40
1491694763008,2,-14,-4,-30,-107,-103,4,7,-11
1491694763008,2,19,16,-35,12,-38,-33,-13,2
1491694763009,0,27,4,24,62,68,12,17,21
1491694763009,0,-57,-18,-23,-100,-66,12,14,-28
1491694763056,1,56,12,2,-26,-56,-68,-40,17
1491694763056,1,-29,3,-9,-40,-62,31,20,-12
1491694763058,2,-5,-16,-15,-23,7,15,11,-13
1491694763058,2,9,3,-9,24,43,-4,-7,13
1491694763059,3,-68,-5,84,127,79,100,38,-43
1491694763059,3,39,12,-57,-96,-33,-25,-11,13
1491694763059,1,-15,-38,7,46,65,30,14,-5
1491694763059,1,-48,1,13,20,127,58,24,-37
1491694763104,2,21,23,31,11,10,27,-10,10
1491694763104,2,21,12,-13,-107,-99,-128,-28,12
1491694763105,3,-30,-10,-7,13,94,84,25,-7
1491694763105,3,-20,-22,22,35,-30,34,20,-14
1491694763105,2,-31,35,41,43,75,51,7,-9
1491694763105,2,5,-7,39,-18,-25,-51,-35,-13
1491694763108,3,43,19,31,-25,-77,-8,4,28
1491694763108,3,-20,-8,-13,45,37,-8,4,-13
1491694763153,0,12,-14,-9,8,15,6,-9,-3
1491694763153,0,17,9,-41,13,-19,-9,-11,12
1491694763154,1,5,-6,-47,-64,-22,18,1,-6
1491694763154,1,-19,14,25,52,-7,-51,-12,-3
1491694763154,3,1,10,-26,3,0,11,17,-2
1491694763154,3,13,7,-11,-57,-38,-25,-24,3
1491694763155,0,-24,-14,7,8,-60,-10,6,-24
1491694763155,0,2,-5,-28,-4,41,41,20,7
1491694763202,1,-2,-9,4,-2,-25,-7,5,9
1491694763202,1,22,12,24,0,-5,-8,-13,0
1491694763251,2,-15,-15,17,11,3,39,17,-8
1491694763251,2,11,-13,3,0,11,-7,7,1
1491694763251,3,7,18,-13,-17,-31,-56,-20,-4
1491694763251,3,-18,-5,-25,2,-27,-6,-6,-2
1491694763252,0,6,-12,52,13,14,-9,-8,-13
1491694763252,0,-12,0,1,-1,25,36,9,-4
1491694763253,1,2,0,-41,-22,-7,-30,-12,-4
1491694763253,1,10,16,63,29,16,7,5,9
1491694763300,2,3,-12,-11,-8,-2,11,5,9
1491694763300,2,-47,-5,-22,-14,-23,1,0,-24
1491694763301,0,23,-5,-22,1,-1,-66,-26,-10
1491694763301,0,-8,-3,23,4,-29,19,21,-11
1491694763302,1,-5,-32,-24,17,66,62,9,-6
1491694763302,1,14,12,56,-11,-33,-47,-20,-15
1491694763303,1,-16,-16,109,22,-2,32,23,29
1491694763303,1,2,1,-34,-11,23,6,8,-6
1491694763348,2,-5,12,7,-12,-45,-49,-35,-19
1491694763348,2,21,-13,-8,-2,0,-30,7,21
1491694763349,3,28,-8,-4,0,32,44,10,-10
1491694763349,3,3,0,-2,17,6,-13,-4,4
1491694763350,2,-14,-13,-58,-2,21,68,33,-1
1491694763350,2,6,-9,12,14,-2,-17,-11,11
1491694763351,3,-2,6,18,30,13,0,-10,-6
1491694763351,3,1,-18,-5,1,50,29,-1,12
1491694763397,0,11,19,-16,-11,3,3,-7,8
1491694763397,0,-1,-2,15,5,-3,-3,16,1
1491694763398,1,8,16,-30,-49,-46,8,-22,-22
1491694763398,1,-14,-18,-9,19,75,2,10,12
1491694763399,3,-77,8,5,22,37,-25,14,-12
1491694763399,3,-13,-1,-8,-28,-56,-19,-11,-14
1491694763400,0,15,7,-18,-12,-4,2,6,0
1491694763400,0,34,15,-5,-1,22,-2,0,23
1491694763446,1,38,-4,6,3,-15,2,-26,9
1491694763446,1,33,9,7,28,28,9,42,12
1491694763450,2,-27,5,1,4,37,22,18,5
1491694763450,2,-19,-9,-8,-23,-11,23,21,-3
1491694763452,0,-12,3,-6,-3,-56,-44,14,11
1491694763452,0,56,0,0,20,65,-3,-20,-17
1491694763454,1,-29,-12,-6,-37,-36,-9,-4,6
1491694763454,1,13,12,-10,8,19,18,-28,-13
1491694763494,2,4,1,0,23,18,45,43,16
1491694763494,2,-30,-6,9,8,-19,-13,2,-1
1491694763495,3,-41,-6,-8,-47,-107,-74,-43,-4
1491694763495,3,-47,1,-15,-3,18,49,40,-12
1491694763496,1,21,6,-1,1,-9,42,10,-7
1491694763496,1,10,-1,-13,-72,-85,-23,-22,7
1491694763497,2,-57,-6,-14,6,11,44,59,-3
1491694763497,2,46,1,17,36,19,-19,-57,8
1491694763543,3,-54,1,-1,25,38,-19,16,-20
1491694763543,3,-13,9,1,12,84,1,14,-17
1491694763544,0,42,3,-19,-44,-49,-18,18,-1
1491694763544,0,-14,0,-3,-12,-25,-31,10,15
1491694763545,2,51,-8,-20,-48,-73,-95,-36,-10
1491694763545,2,-39,0,-4,-12,-55,-13,9,7
1491694763546,3,-13,0,6,35,110,54,-3,-7
1491694763546,3,44,9,2,7,-26,-55,11,22
1491694763592,0,-24,-6,-4,0,20,45,-20,-19
1491694763592,0,15,6,4,-13,-88,-61,-18,-7
1491694763594,1,23,-2,-8,13,52,53,-4,25
1491694763594,1,58,2,2,-36,-62,-26,-14,13
1491694763595,2,31,2,-3,16,67,38,22,-11
1491694763595,2,-28,-5,2,-6,-32,-18,-2,-2
1491694763596,3,-12,10,-9,11,32,18,25,-13
1491694763596,3,-30,7,20,45,37,0,-31,6
1491694763641,0,8,-9,-9,-19,-14,-56,-18,-23
1491694763641,0,-35,1,0,-36,-1,13,27,-4
1491694763642,1,61,-10,-17,-1,4,73,4,7
1491694763642,1,-10,-6,2,11,44,-84,-16,11
1491694763643,3,-49,6,13,-13,-7,-14,26,23
1491694763643,3,47,8,-17,-11,-56,7,1,10
1491694763644,0,-44,14,3,23,46,-42,-6,3
1491694763644,0,36,5,-8,-11,-49,22,2,-19
1491694763690,1,-14,-20,-1,-2,-2,67,5,-9
1491694763690,1,-2,-8,6,17,-6,-76,-8,-5
1491694763691,2,-50,0,-9,-5,-19,84,1,-29
1491694763691,2,3,17,-5,-10,75,-8,-23,-13
1491694763738,0,33,-1,-19,-45,-106,-57,-36,0
1491694763738,0,-20,-2,2,8,-25,-60,6,30
1491694763740,1,12,0,-1,9,38,-44,-27,-20
1491694763740,1,67,4,-8,-16,-78,65,41,-10
1491694763741,2,-43,3,5,-34,-11,46,3,-19
1491694763741,2,69,-13,-16,17,100,40,54,35
1491694763748,3,-13,-3,3,-12,-111,-128,-17,10
1491694763748,3,-11,-12,14,37,62,79,24,-4
1491694763787,1,33,5,-5,-7,-2,-11,-24,0
1491694763787,1,-13,2,-7,-13,-29,-3,-6,2
1491694763788,2,10,-8,10,20,60,3,23,3
1491694763788,2,15,-8,10,-9,-34,11,-20,2
1491694763789,2,2,17,4,18,34,59,71,2
1491694763789,2,-29,-6,-11,-22,-38,-45,-13,-8
1491694763790,3,-16,18,12,-7,-27,26,6,5
1491694763790,3,-35,-4,-3,-4,-5,14,-12,-27
1491694763836,0,26,-4,18,27,79,-9,-5,28
1491694763836,0,-12,-7,-11,-25,-45,83,-7,15
1491694763837,1,67,-7,-2,6,4,-109,-59,23
1491694763837,1,-26,-7,-23,-26,-18,76,4,-16
1491694763838,3,-38,-7,2,6,40,31,-40,-20
1491694763838,3,-17,2,6,6,18,-8,14,19
1491694763839,0,55,-5,-32,-20,-58,-85,-41,26
1491694763839,0,-4,-11,-10,-6,0,-7,-23,17
1491694763884,1,-30,-7,-12,-15,-17,7,33,7
1491694763884,1,9,1,-34,-5,14,-61,2,17
1491694763885,2,-10,-12,7,-1,-7,11,-32,3
1491694763885,2,-15,0,36,-16,-12,17,-6,-10
1491694763886,0,35,-7,-6,12,30,12,8,16
1491694763886,0,5,-8,-15,-5,-18,-46,-27,15
1491694763887,1,-23,-4,-19,-17,0,31,17,11
1491694763887,1,43,8,-3,6,19,54,44,16
1491694763933,2,-29,-4,25,-8,-14,5,-26,-16
1491694763933,2,-28,8,28,18,13,-8,70,-33
1491694763935,3,-10,21,33,29,24,15,-41,-54
1491694763935,3,34,-23,-17,-2,-13,-11,15,-41
1491694763936,0,-64,28,-15,5,-31,21,5,-58
1491694763936,0,20,-14,-17,4,5,-26,4,2
1491694763937,1,-29,15,-14,6,4,67,29,-4
1491694763937,1,17,-4,16,4,-3,-77,-15,14
1491694763982,2,-2,2,-14,-6,22,67,-12,-12
1491694763982,2,-14,12,0,8,-25,-15,-9,-19
1491694763983,3,-39,5,3,6,-3,49,11,-46
1491694763983,3,-59,14,3,5,-16,-46,-4,-57
1491694763984,1,-15,-15,-17,11,15,32,15,-13
1491694763984,1,-84,-8,3,-8,4,11,17,11
1491694763985,2,68,-28,0,-21,-3,-106,0,45
1491694763985,2,56,-19,-16,-29,-7,31,-64,37
1491694764031,3,71,-27,4,-28,-5,-23,5,64
1491694764031,3,83,-2,-10,-27,1,-7,-19,67
1491694764032,0,37,22,-24,-16,28,12,-23,81
1491694764032,0,95,7,29,-24,-12,-75,-10,66
1491694764032,2,-46,7,-15,-4,-18,3,-16,-62
1491694764032,2,-22,18,-11,50,15,76,47,-55
1491694764033,3,-44,-2,-19,16,-17,-75,-13,-43
1491694764033,3,-34,0,8,15,6,21,19,-17
1491694764083,0,28,-10,-5,-10,-20,-18,-27,-13
1491694764083,0,-55,-12,-2,-8,11,35,8,-28
1491694764083,1,91,-7,0,3,1,-10,6,24
1491694764083,1,-1,3,-1,-6,-1,-17,-35,1
1491694764084,3,-8,9,-5,-9,-3,-16,-6,-1
1491694764084,3,8,-9,-1,-11,-8,9,-35,-1
1491694764084,0,12,5,8,2,5,27,-1,9
1491694764084,0,-4,-7,-2,10,6,-70,-15,-3
1491694764128,1,-10,4,-10,1,-1,37,20,-15
1491694764128,1,-30,7,-5,-8,-21,17,5,-14
1491694764129,2,-40,-13,6,9,17,4,-13,-23
1491694764129,2,33,10,-4,13,11,39,27,-1
1491694764130,0,-19,-16,-4,-5,10,5,-9,-7
1491694764130,0,-23,-2,0,-2,-12,-5,32,17
1491694764131,1,22,1,-11,-12,-12,19,-35,-1
1491694764131,1,28,13,20,17,-8,-39,-17,12
1491694764177,2,-19,1,0,4,44,34,12,0
1491694764177,2,-18,1,-9,0,-16,25,-22,-22
1491694764178,3,-13,-14,-13,-23,-10,-43,4,-10
1491694764178,3,33,-3,-7,-10,-9,15,12,13
1491694764225,1,7,-14,4,21,26,23,62,15
1491694764225,1,-21,-2,-4,-9,-4,50,-20,-23
1491694764226,2,39,-6,4,-5,18,-34,31,11
1491694764226,2,-12,-7,-14,-9,-24,40,-25,-5
1491694764227,3,-36,3,-3,-8,-32,24,31,9
1491694764227,3,32,9,20,14,62,53,6,6
1491694764228,0,7,0,3,13,-24,-64,-9,17
1491694764228,0,-31,4,-11,-8,-6,91,33,-14
1491694764274,2,-36,1,-1,-28,-31,-31,-33,-18
1491694764274,2,-20,-5,4,26,2,29,57,-14
1491694764275,3,30,9,7,16,32,-67,-41,-9
1491694764275,3,24,9,0,8,25,83,34,4
1491694764276,2,62,21,16,2,-32,-8,33,35
1491694764276,2,-23,2,1,4,40,11,-71,-12
1491694764277,3,49,-5,4,-1,-27,-114,-17,12
1491694764277,3,62,2,5,-15,-57,-20,71,38
1491694764323,0,-15,-14,-13,13,32,35,16,-49
1491694764323,0,-31,-7,-12,9,47,-15,-25,-40
1491694764324,1,-41,-1,-11,-16,-118,-16,21,-15
1491694764324,1,-3,8,5,-31,-48,-49,-3,8
1491694764325,3,-19,9,-5,-11,16,-20,-48,-9
1491694764325,3,-1,9,17,23,40,69,-4,-3
1491694764326,0,6,-6,-18,-68,-71,-78,-16,-5
1491694764326,0,-5,-22,-3,-9,-14,-7,-19,18
1491694764374,1,-71,3,-6,1,52,92,-4,-39
1491694764374,1,-7,-1,-6,54,-12,-128,-38,30
1491694764375,2,-12,-2,-16,-86,-80,-27,11,-35
1491694764375,2,11,14,-5,46,58,99,-9,-5
1491694764375,0,-40,16,8,-9,-27,101,-60,-34
1491694764375,0,70,-11,-17,-92,-128,-128,25,31
1491694764377,1,7,-5,2,30,81,112,58,14
1491694764377,1,21,0,4,1,19,36,-47,1
1491694764421,2,-12,-12,3,30,5,-40,1,-2
1491694764421,2,-45,21,19,-19,48,124,34,1
1491694764422,3,27,-6,3,-3,-84,-128,-3,34
1491694764422,3,42,-2,-13,31,95,75,33,0
1491694764423,1,3,-7,-13,-14,-2,-28,-10,-3
1491694764423,1,-16,8,-10,-19,19,80,0,-33
1491694764427,2,3,-7,-10,-7,-89,-63,-11,28
1491694764427,2,-29,25,13,47,83,121,-5,-35
1491694764469,3,-30,0,32,80,77,107,41,0
1491694764469,3,-44,1,-19,-57,-81,-62,-10,-63
1491694764470,0,21,9,-1,-12,23,-28,24,9
1491694764470,0,7,-13,-17,-29,-90,-6,-32,-21
1491694764471,2,2,21,17,-40,65,127,40,-29
1491694764471,2,-2,-22,-15,3,-14,-54,-19,6
1491694764472,3,4,13,-17,-28,-7,38,33,-9
1491694764472,3,-17,1,0,-32,-58,-3,-24,-9
1491694764518,0,34,-34,-9,65,127,13,28,34
1491694764518,0,8,3,11,38,-6,-18,-33,12
1491694764520,1,21,-8,-4,-57,-48,11,-82,-27
1491694764520,1,-23,-1,-7,9,80,5,7,3
1491694764521,3,-32,11,-16,-19,-89,-34,46,-18
1491694764521,3,46,-12,9,-6,-19,64,28,54
1491694764523,0,-7,11,41,114,126,4,-32,-19
1491694764523,0,-14,9,-21,-51,-57,-64,17,-44
1491694764567,1,6,-2,-20,-103,-128,-44,7,-9
1491694764567,1,2,16,1,15,0,-46,0,9
1491694764568,2,11,3,-2,32,-9,94,25,-27
1491694764568,2,33,0,27,30,-45,-103,-54,25
1491694764569,0,26,-15,-11,-46,-74,-50,73,30
1491694764569,0,28,9,1,28,91,105,27,0
1491694764570,1,-9,-9,-13,-47,1,30,-27,-19
1491694764570,1,-34,-18,-5,-35,0,96,9,15
1491694764615,2,35,6,15,31,-1,-9,-27,10
1491694764615,2,-13,-10,-26,-35,-39,15,3,4
1491694764618,3,45,-12,-12,-9,-6,-96,-31,76
1491694764618,3,30,-6,3,0,-97,36,-17,-2
1491694764619,0,-15,3,24,27,41,111,23,11
1491694764619,0,27,3,-12,-25,77,-52,11,28
1491694764619,1,21,4,12,41,-55,86,-2,-9
1491694764619,1,6,4,-3,-50,-128,-128,-51,7
1491694764664,2,-34,3,-29,-60,1,-11,11,-39
1491694764664,2,47,-1,18,107,42,100,61,30
1491694764665,3,-33,-2,-10,-47,29,17,-10,-38
1491694764665,3,-46,-4,5,42,96,29,51,-19
1491694764713,1,19,-1,-4,-18,-95,-100,-57,6
1491694764713,1,11,-9,-12,-42,-52,39,36,-21
1491694764714,2,5,-2,4,80,66,-5,-10,8
1491694764714,2,-30,-2,-4,-42,-114,-83,8,-29
1491694764715,3,-4,-4,8,12,127,118,36,-19
1491694764715,3,26,1,32,65,-40,-78,13,25
1491694764716,0,-32,0,8,-88,-56,-5,-34,-29
1491694764716,0,8,-9,-32,-88,2,-40,-71,-6
1491694764762,2,-13,1,14,95,127,116,60,-16
1491694764762,2,-20,-3,24,-11,-128,-53,-10,6
1491694764763,3,-20,-1,1,0,71,18,-2,-22
1491694764763,3,-8,-7,-14,3,63,109,39,-11
1491694764764,3,-19,-3,64,55,79,14,-10,-35
1491694764764,3,-10,-5,-17,-53,-29,-83,-34,-1
1491694764765,0,46,0,-30,-90,-80,58,15,15
1491694764765,0,-15,-3,2,106,103,-26,-2,1
1491694764811,1,9,5,-10,-48,-81,-83,-17,-7
1491694764811,1,-23,0,-11,4,32,87,-30,-29
1491694764812,2,-2,-4,17,-16,-45,2,48,26
1491694764812,2,15,-1,4,-21,-128,-37,-23,-10
1491694764813,0,32,4,4,67,-36,33,-72,3
1491694764813,0,-26,1,5,-36,-24,15,113,-34
1491694764814,1,-19,-7,25,24,-20,9,29,-5
1491694764814,1,0,1,21,80,64,-40,-18,-18
1491694764859,2,-1,-3,-8,-80,-85,40,29,10
1491694764859,2,14,-13,-35,-12,-22,-59,-47,37
1491694764861,3,24,2,4,83,55,51,0,27
1491694764861,3,-7,4,23,59,121,44,-13,-1
1491694764862,1,-21,16,-38,0,-121,23,21,-13
1491694764862,1,-20,0,-15,-78,95,-42,-20,-19
1491694764863,2,58,5,-2,64,-78,-60,-39,54
1491694764863,2,-50,-6,20,58,97,126,45,-29
1491694764908,3,7,-6,-15,-48,-26,2,53,31
1491694764908,3,-23,-8,-20,-19,-116,-38,-49,-45
1491694764909,0,-4,-5,4,41,41,-48,14,-8
1491694764909,0,6,4,1,-33,51,107,29,22
1491694764910,2,19,6,-22,-110,-98,-128,-94,4
1491694764910,2,33,3,-25,-5,70,58,3,4
1491694764911,3,-15,-4,24,80,-71,-14,-7,-2
1491694764911,3,14,-7,-36,-128,-95,14,-10,6
1491694764957,0,-37,-8,23,127,127,37,34,-25
1491694764957,0,0,-6,1,-82,-71,-23,-6,7
1491694764959,1,7,11,-16,-43,-52,-16,-39,-8
1491694764959,1,28,1,-18,43,-47,-36,-13,11
1491694764960,3,6,2,-20,-11,65,-62,-3,-13
1491694764960,3,25,11,-19,-44,-46,-33,-14,27
1491694764961,0,-2,5,-12,-53,-68,3,9,-12
1491694764961,0,-12,-8,8,-12,-13,-63,-27,-16
1491694765006,1,21,-14,12,11,-63,50,21,47
1491694765006,1,1,6,-4,71,127,-6,-26,-24
1491694765007,2,-14,4,7,-34,-30,-13,12,-7
1491694765007,2,0,1,11,76,15,51,21,11
1491694765008,3,3,-8,-13,-66,27,3,-4,-32
1491694765008,3,13,-13,15,-16,-55,-61,-13,11
1491694765009,0,3,-8,-24,31,72,36,23,9
1491694765009,0,2,19,5,0,0,44,4,-11
1491694765054,1,-27,14,16,49,2,-30,10,-22
1491694765054,1,4,-1,-1,-83,8,30,20,9
1491694765055,2,25,-6,-28,-45,-69,-66,-36,16
1491694765055,2,14,-5,11,49,-21,-2,-5,11
1491694765056,0,0,12,20,10,18,30,21,7
1491694765056,0,6,21,-41,-63,-98,-57,-18,8
1491694765057,1,37,8,35,6,-26,-31,-15,16
1491694765057,1,-20,-1,-12,-3,0,36,2,-8
1491694765111,2,-13,-38,-22,11,61,30,8,-10
1491694765111,2,21,-11,17,16,-41,-18,-10,14
1491694765112,3,-25,25,1,-68,-33,-5,9,-21
1491694765112,3,-17,17,-4,25,-10,29,7,-12
1491694765113,1,20,-13,0,39,56,46,-4,31
1491694765113,1,24,-9,-60,-77,-106,-50,-27,-1
1491694765115,2,-20,3,-16,-32,-8,-9,-2,-16
1491694765115,2,-20,17,50,60,-6,16,-2,-18
1491694765152,3,23,-9,12,-35,-12,-16,-16,16
1491694765152,3,-42,-32,33,81,73,31,28,-7
1491694765153,0,65,15,-44,-36,25,-27,-28,18
1491694765153,0,-29,-4,-15,-55,-35,-9,-2,-2
1491694765201,2,-9,-18,26,44,26,-6,5,-9
1491694765201,2,-3,-38,-18,-1,20,4,6,-13
1491694765202,3,14,4,-5,-42,-39,-4,-11,14
1491694765202,3,-11,27,3,45,32,15,12,-14
1491694765202,0,-51,0,-41,24,2,-3,10,-18
1491694765202,0,46,7,4,-51,-18,-31,-1,27
1491694765203,1,-10,-25,14,-6,-25,9,-26,-12
1491694765203,1,-3,20,29,19,24,-8,6,5
1491694765251,3,-14,-15,-58,-7,28,-5,7,-16
1491694765251,3,-7,-10,17,-17,-37,-4,-11,-5
1491694765252,0,2,14,-12,-35,-60,6,6,6
1491694765252,0,12,-8,16,54,63,-22,-9,-1
1491694765253,0,-23,-4,9,-34,-43,-14,-9,-6
1491694765253,0,9,15,-12,-14,-49,-10,-12,-11
1491694765254,1,-5,11,8,27,25,17,8,1
1491694765254,1,14,-2,-9,-26,-10,-16,8,2
1491694765298,2,-6,-7,31,18,28,15,-12,-12
1491694765298,2,-36,4,-21,-35,-5,-5,-1,-23
1491694765299,3,6,-3,-6,-3,-45,12,9,13
1491694765299,3,42,-5,9,30,33,-28,-14,9
1491694765300,1,-48,-7,17,1,-16,1,0,-21
1491694765300,1,-5,-8,-13,-14,15,6,-6,-9
1491694765301,2,5,7,15,26,61,18,9,0
1491694765301,2,20,0,-5,-9,-31,-9,-4,14
1491694765347,3,7,4,-12,-6,-12,-33,-5,9
1491694765347,3,-23,-6,10,-20,-11,13,25,-4
1491694765348,0,26,10,5,23,22,-11,-28,-10
1491694765348,0,-6,-4,4,-1,-29,-22,-10,1
1491694765349,1,6,3,-12,7,17,-9,-4,-15
1491694765349,1,-1,-1,13,-13,-45,-24,-12,5
1491694765349,2,1,-4,-18,-12,8,28,13,-18
1491694765349,2,23,0,4,-22,-9,-13,2,25
1491694765395,3,-24,-8,-8,28,27,7,-3,-13
1491694765395,3,1,-4,-10,-7,15,8,-10,-10
1491694765396,0,1,1,11,-11,-26,-20,6,5
1491694765396,0,-6,6,-11,12,-24,-11,-4,-2
1491694765397,2,-1,3,-7,-48,-90,-8,1,5
1491694765397,2,10,-2,-6,5,2,0,5,-8
1491694765398,3,17,-6,2,-7,-21,-29,-10,2
1491694765398,3,32,-3,19,29,-4,7,11,9
1491694765444,0,-11,6,-9,6,50,14,-13,-6
1491694765444,0,36,-1,30,19,24,13,13,-7
1491694765445,1,-22,6,-23,-62,-58,-44,-15,-5
1491694765445,1,28,3,-18,-4,-44,-6,2,-7
1491694765446,3,1,4,10,14,59,15,11,-2
1491694765446,3,-70,-3,-12,-15,-33,23,19,-6
1491694765447,0,20,-8,-1,1,-20,-12,-1,10
1491694765447,0,-23,-1,-11,15,26,-3,-3,-7
1491694765493,1,5,-1,20,18,51,0,-15,-1
1491694765493,1,46,2,-18,-24,-28,-1,-6,17
1491694765494,2,-1,-1,17,-8,-41,13,32,10
1491694765494,2,1,-3,-2,39,2,-11,-21,-1
1491694765495,0,20,3,33,27,-12,-16,3,13
1491694765495,0,-34,-1,-5,4,55,37,15,0
1491694765496,1,6,4,-8,-7,-4,15,2,2
1491694765496,1,17,-7,-4,-6,-46,-35,-24,-6
1491694765542,2,26,-6,-12,11,8,15,12,-6
1491694765542,2,-6,-5,-13,-41,-15,7,9,-6
1491694765543,3,-46,-13,33,48,30,20,-20,-5
1491694765543,3,30,9,5,-2,61,-23,-2,8
1491694765543,1,21,4,-16,-38,-28,4,7,12
1491694765543,1,-33,-3,20,16,-1,-27,-20,-10
1491694765544,2,-32,-3,-4,27,65,6,-20,-27
1491694765544,2,20,8,1,-28,-21,-23,-2,12
1491694765590,3,4,-7,-11,9,25,43,13,6
1491694765590,3,20,-5,10,-12,-45,-2,13,5
1491694765591,0,-2,-1,-16,7,-28,44,39,27
1491694765591,0,7,1,13,7,46,-56,-62,-33
1491694765592,2,8,2,8,8,53,-4,19,-3
1491694765592,2,22,-1,-4,1,-26,23,-4,-6
1491694765593,3,2,3,-7,-6,8,-20,-28,-3
1491694765593,3,-7,-1,10,23,-12,26,11,-6
1491694765639,0,13,2,3,33,64,11,-17,2
1491694765639,0,-36,-1,-15,-55,-40,23,19,8
1491694765640,1,16,1,-10,-35,-54,-9,-5,-13
1491694765640,1,5,2,-4,29,-3,18,-17,1
1491694765688,3,5,-3,11,-5,32,70,-28,-19
1491694765688,3,-20,5,-6,-32,-64,-59,8,-1
1491694765690,0,6,-5,-10,0,12,25,4,-19
1491694765690,0,-7,8,-13,-43,-39,-101,-1,14
1491694765690,1,-6,-3,3,14,21,60,31,-12
1491694765690,1,-10,3,-4,-6,10,-58,-1,8
1491694765691,2,-12,-4,6,-12,-73,51,-31,-15
1491694765691,2,7,1,-24,2,80,5,5,-13
1491694765737,3,42,0,10,0,-30,-32,-22,30
1491694765737,3,-19,-2,4,11,-7,58,53,-11
1491694765739,0,6,-2,-19,-66,-41,-52,-19,-1
1491694765739,0,31,-1,17,29,-11,13,6,9
1491694765740,0,-32,-7,6,2,41,86,25,-18
1491694765740,0,3,-7,15,18,-45,0,4,-5
1491694765741,1,5,1,4,-15,37,-34,34,6
1491694765741,1,26,2,-24,-31,-22,-4,-30,-14
1491694765786,2,7,2,-1,-4,-41,-99,-11,-7
1491694765786,2,-18,-4,-6,9,-30,37,-2,0
1491694765787,3,-1,-5,3,4,1,65,-8,-17
1491694765787,3,1,-8,7,6,63,10,5,1
1491694765788,1,9,5,-10,-10,-5,94,21,13
1491694765788,1,36,1,13,29,70,-22,31,13
1491694765789,2,-54,-2,14,9,-15,-21,-32,-10
1491694765789,2,28,-8,-5,-1,69,80,49,20
1491694765834,3,2,9,2,-20,-32,-55,-37,-14
1491694765834,3,-17,12,-5,-17,-33,-54,-4,-19
1491694765836,0,87,5,-9,-10,-13,-17,5,17
1491694765836,0,-54,-21,-4,11,-47,0,-12,-20
1491694765837,2,-12,17,6,-10,-52,-99,-18,-10
1491694765837,2,-19,10,-11,-6,21,120,-9,-7
1491694765837,3,43,-1,1,7,-17,-54,-31,9
1491694765837,3,-53,-20,-1,4,25,26,11,-3
1491694765883,0,16,-7,0,12,66,-11,28,12
1491694765883,0,22,11,-7,-8,-20,8,-26,-3
1491694765885,1,-37,18,-14,-15,-59,-86,-5,-7
1491694765885,1,10,8,2,-7,-12,-5,-17,-2
1491694765886,3,-8,9,-7,-5,-8,-5,-28,-27
1491694765886,3,45,16,-12,-10,-9,-6,40,18
1491694765887,0,-49,2,-8,16,53,73,-3,-11
1491694765887,0,31,2,10,-38,-125,-107,18,19
1491694765932,1,0,-11,-11,16,80,127,18,2
1491694765932,1,4,-8,3,14,-25,-60,-49,-11
1491694765934,2,-12,6,0,9,1,67,-9,-7
1491694765934,2,4,1,9,6,26,-42,23,0
1491694765935,0,-5,9,11,-7,14,21,8,1
1491694765935,0,-40,8,6,17,11,44,-2,-11
1491694765936,1,-7,-11,-5,-2,28,20,20,-3
1491694765936,1,13,-1,16,18,-14,-77,-44,4
1491694765984,2,-6,1,-7,-8,13,57,5,-26
1491694765984,2,48,2,-8,-16,-6,71,-9,15
1491694765986,3,-2,-5,-1,0,-46,-104,6,16
1491694765986,3,-17,4,1,6,13,88,-21,-15
1491694765987,1,4,-15,0,1,-6,-5,-9,11
1491694765987,1,7,23,-4,-12,-6,45,17,7
1491694765988,2,27,9,-20,-10,-27,-112,-5,20
1491694765988,2,-25,19,0,-3,-5,47,-31,-29
1491694766035,3,51,-14,20,-2,-14,-44,-37,8
1491694766035,3,-19,-23,-7,6,17,41,36,4
1491694766037,0,-25,-1,0,2,25,-2,-16,-8
1491694766037,0,13,-11,-12,-8,-23,-50,4,9
1491694766038,1,-18,3,-10,-7,-3,-3,-34,-15
1491694766038,1,15,-8,10,17,-7,23,2,10
1491694766039,2,24,1,-28,13,16,-15,25,16
1491694766039,2,13,-1,17,-18,-23,-77,-33,-6
1491694766078,3,-25,7,23,7,15,76,38,0
1491694766078,3,-4,-10,-15,-16,-9,-42,-33,-11
1491694766085,0,11,1,5,4,26,74,42,6
1491694766085,0,-29,5,-12,3,-9,-33,-8,2
1491694766086,2,55,-38,3,-7,13,26,-14,29
1491694766086,2,17,-19,-9,-15,13,17,-17,21
1491694766087,3,1,22,19,-8,24,32,-7,17
1491694766087,3,71,-3,-25,-9,10,-1,23,40
1491694766225,0,3,7,14,-25,-57,-97,-39,9
1491694766225,0,29,-13,3,11,26,80,10,10
1491694766226,1,-12,2,-1,3,-5,-59,-23,-1
1491694766226,1,13,7,5,17,13,51,47,-11
1491694766273,3,-8,-2,-8,7,-12,-35,-6,-33
1491694766273,3,-32,26,12,19,11,54,-6,-47
1491694766322,0,-4,2,0,23,3,-15,30,-17
1491694766322,0,-58,3,14,9,-1,-2,6,-30
1491694766323,1,-14,-7,-13,0,-19,22,-19,-32
1491694766323,1,28,-12,-5,24,-14,-26,26,0
1491694766323,2,-42,7,-7,-26,-2,10,-19,-38
1491694766323,2,14,-9,-6,9,31,38,16,-5
1491694766330,0,-3,16,-1,2,-2,28,-14,4
1491694766330,0,31,-3,-5,-4,-13,-73,-16,8
1491694766371,2,6,-3,-10,-19,-18,-33,0,12
1491694766371,2,4,19,0,-2,-6,22,30,6
1491694766371,3,-2,-14,2,3,6,-47,-63,-14
1491694766371,3,-11,-4,-8,-9,-5,3,11,-8
1491694766372,0,-9,-9,1,10,-16,17,-11,-9
1491694766372,0,-9,-3,4,7,51,4,3,11
1491694766374,1,-3,-2,9,20,-10,40,43,-6
1491694766374,1,-37,1,1,-18,-18,-9,-2,1
1491694766419,2,10,-22,-9,-19,24,-34,-1,-18
1491694766419,2,33,-1,-5,-9,-36,-28,-10,23
1491694766420,3,-46,5,-1,-8,-25,56,5,0
1491694766420,3,16,-14,0,-2,16,-43,1,20
1491694766420,0,-13,10,12,21,26,52,21,2
1491694766420,0,29,-1,7,20,18,6,14,-3
1491694766422,1,-34,9,-18,-27,-11,22,-57,-24
1491694766422,1,28,-13,20,23,-29,-45,17,14
1491694766468,2,2,0,-3,-3,77,33,-6,2
1491694766468,2,-11,2,0,4,-82,-5,-9,3
1491694766469,3,47,-17,2,9,104,28,16,-11
1491694766469,3,-6,-7,-3,-14,-34,-64,-12,8
