1491087237765,0,-23,-20,-48,-60,-39,-63,-5,-12
1491087237765,0,-7,6,-2,20,9,-2,-17,-12
1491087237767,1,-9,-2,-11,7,-8,-14,-24,-6
1491087237767,1,6,5,8,9,-3,5,-9,0
1491087237768,2,7,-1,9,18,10,10,-12,-3
1491087237768,2,-2,-3,10,-17,-3,35,37,10
1491087237803,3,-8,-11,-10,-16,-17,-18,-19,-22
1491087237803,3,-4,-7,-10,-14,-16,18,24,12
1491087237804,0,3,8,9,12,12,12,17,11
1491087237804,0,0,-6,1,1,1,5,-26,0
1491087237804,1,5,6,9,8,28,14,17,5
1491087237804,1,-25,-8,-13,-10,-26,-26,-34,-36
1491087237805,2,2,-1,13,5,0,18,-43,-9
1491087237805,2,18,0,2,6,-2,7,57,14
1491087237841,3,-11,1,1,-6,-7,-42,-14,7
1491087237841,3,-6,-5,-6,-4,1,-26,-51,-11
1491087237841,0,2,1,-2,9,9,2,-7,-11
1491087237841,0,-20,-10,-6,-16,-19,4,48,1
1491087237842,1,-10,-4,-7,-1,-14,14,19,-2
1491087237842,1,-3,1,0,2,27,12,1,2
1491087237915,2,9,-1,4,5,13,-1,-23,11
1491087237915,2,-1,-3,-9,1,0,-8,-55,-16
1491087237916,3,9,-3,-1,-3,-25,-15,16,0
1491087237916,3,-1,-5,-6,-7,2,1,-32,-5
1491087237917,0,-2,5,2,2,1,12,36,2
1491087237917,0,-7,1,-3,-1,-3,-26,6,-6
1491087237917,1,6,3,8,4,2,5,-9,5
1491087237917,1,8,-1,2,2,2,36,53,12
1491087237953,2,-10,-4,2,4,4,6,-48,-18
1491087237953,2,10,2,-1,2,15,-44,-10,7
1491087237954,3,1,-2,-5,-3,16,42,43,-6
1491087237954,3,19,7,3,0,-24,11,2,3
1491087237954,0,-8,0,-1,-1,-27,-31,7,7
1491087237954,0,2,-2,-11,0,-7,-28,-72,-24
1491087237955,2,23,2,-2,9,6,25,38,17
1491087237955,2,-10,-3,-3,0,-14,7,7,-3
1491087237990,3,-8,-4,-3,-17,3,-7,-18,0
1491087237990,3,-18,3,-1,-4,-13,-12,-22,-17
1491087237991,0,-1,0,3,-5,-8,-19,-20,-4
1491087237991,0,1,-6,-1,9,14,11,-6,-1
1491087237992,2,0,2,6,-1,-1,13,102,21
1491087237992,2,2,0,-15,-20,-18,-13,-28,-10
1491087237993,3,-8,-3,-5,-6,-19,-60,-15,11
1491087237993,3,6,-1,3,-3,0,-17,-36,5
1491087238028,0,-14,-2,-5,-5,-2,11,9,-3
1491087238028,0,-5,7,3,2,26,26,-17,-15
1491087238029,1,15,-3,14,6,-20,1,5,-5
1491087238029,1,3,-5,-14,-1,6,-18,-23,-3
1491087238029,2,15,11,19,7,4,-2,12,0
1491087238029,2,1,0,-9,-5,4,15,-9,-6
1491087238030,3,-7,-3,0,-2,11,5,-15,-2
1491087238030,3,-20,-8,-8,2,12,25,94,8
1491087238065,0,0,-5,-14,-8,-14,15,-40,-10
1491087238065,0,-7,5,9,2,-20,-43,-4,4
1491087238066,1,-5,-6,-9,-4,-16,31,-14,-10
1491087238066,1,12,1,2,7,6,-38,-50,5
1491087238067,2,3,3,-1,-4,8,-2,44,8
1491087238067,2,1,-6,-9,-15,4,34,10,-8
1491087238068,3,-3,-2,-5,-4,-10,-29,-80,-16
1491087238068,3,-10,1,-3,-1,11,10,53,-4
1491087238103,0,-25,-15,-9,0,5,1,10,-2
1491087238103,0,21,-1,12,6,-4,5,24,23
1491087238104,1,-4,-4,-4,-3,4,12,6,9
1491087238104,1,13,6,4,-4,-29,-24,-87,-27
1491087238105,2,18,5,-7,-2,11,15,57,29
1491087238105,2,-26,-9,-16,-4,-8,-11,8,-6
1491087238106,3,-10,0,14,4,12,5,17,-3
1491087238106,3,0,-3,1,3,8,1,-15,5
1491087238141,0,-4,-2,4,-3,-10,-17,-56,-15
1491087238141,0,-4,-3,-2,-3,-6,4,-6,-4
1491087238142,1,5,4,-5,-1,-2,-18,-3,-5
1491087238142,1,-3,6,9,8,9,15,-32,-15
1491087238143,2,9,-1,3,-4,2,4,49,-6
1491087238143,2,-7,-3,-6,-5,-15,-31,6,33
1491087238178,3,-2,-2,-2,7,2,8,28,-9
1491087238178,3,0,1,3,-4,10,13,41,18
1491087238179,0,1,-1,-1,0,-9,12,-25,-1
1491087238179,0,5,-1,3,0,-4,-27,-40,-17
1491087238180,1,6,1,-3,-7,-8,0,20,-2
1491087238180,1,1,-7,-11,-10,3,4,8,10
1491087238180,2,-11,-4,-2,6,7,2,-25,-9
1491087238180,2,-9,2,10,-7,-3,7,9,-10
1491087238216,3,-4,-3,-8,2,-1,-7,-88,-17
1491087238216,3,7,6,6,3,8,11,49,2
1491087238217,0,-5,-6,-4,2,5,-9,56,15
1491087238217,0,21,1,0,-3,-2,19,-31,11
1491087238218,1,-11,-4,1,0,2,19,28,-4
1491087238218,1,2,-1,-2,3,2,-17,-18,14
1491087238219,2,-13,-11,-9,-5,-24,-28,-59,-37
1491087238219,2,-10,-1,3,-8,0,14,32,-1
1491087238328,3,-1,-1,-5,-13,-11,-7,22,15
1491087238328,3,12,-2,-5,9,-9,-7,-32,-8
1491087238329,0,-5,3,2,-4,3,-18,-43,-14
1491087238329,0,-3,-3,-4,6,11,25,29,7
1491087238330,1,-2,1,7,1,7,2,11,1
1491087238330,1,-12,0,2,-5,-3,-15,-12,-16
1491087238330,2,-4,-3,-10,0,-9,-4,-60,-7
1491087238330,2,-1,3,8,4,9,-5,25,-2
1491087238365,3,-7,-13,-11,-5,-13,-25,28,-5
1491087238365,3,5,-5,-8,-10,-5,-16,-30,-1
1491087238366,0,-10,1,6,1,3,7,29,-7
1491087238366,0,-5,-6,-11,-3,0,13,9,3
1491087238366,1,1,0,2,3,2,12,-11,12
1491087238366,1,-10,-5,1,-7,0,-9,5,-14
1491087238403,3,2,-6,-7,-1,-2,11,67,8
1491087238403,3,-3,0,-6,-5,-4,19,20,-7
1491087238403,0,-6,-1,1,10,15,-17,1,6
1491087238403,0,12,-1,1,-1,-7,0,-34,-10
1491087238478,1,-13,6,5,-3,11,-7,-20,12
1491087238478,1,15,0,-3,2,1,12,37,2
1491087238478,3,11,1,-2,-1,-14,-23,-9,8
1491087238478,3,-10,-10,-4,1,2,3,-3,-6
1491087238479,0,-5,1,3,-1,7,10,-10,4
1491087238479,0,8,0,-4,2,0,-8,-32,-18
1491087238480,1,0,-2,3,6,6,24,20,13
1491087238480,1,-8,-3,0,-12,-3,-41,-5,-8
1491087238515,3,25,2,-4,1,10,15,8,7
1491087238515,3,-4,-1,2,11,8,3,-24,2
1491087238516,0,-3,-4,1,0,2,-13,-23,-5
1491087238516,0,-1,2,-2,8,11,13,32,6
1491087238517,1,-19,-3,0,-3,-18,0,-11,-4
1491087238517,1,17,3,-2,0,-7,-20,-19,-8
1491087238517,2,1,3,3,3,7,6,5,6
1491087238517,2,-1,0,-4,-4,2,8,15,9
1491087238553,3,-13,-7,-7,1,-3,-9,-2,-13
1491087238553,3,16,3,5,0,-5,-2,-45,-11
1491087238553,0,2,-1,-4,-6,11,-4,32,21
1491087238553,0,-14,-1,-5,-7,-19,2,0,2
1491087238554,2,11,5,6,8,6,-16,-19,-9
1491087238554,2,-1,-4,1,10,23,6,5,0
1491087238555,3,1,3,-2,-11,-8,-16,-14,-9
1491087238555,3,-9,-4,-6,-23,-17,13,25,8
1491087238628,0,-6,-4,-8,-1,-5,-3,12,-6
1491087238628,0,-5,-4,-2,3,-9,3,-10,-1
1491087238629,1,7,5,0,2,-1,-4,13,0
1491087238629,1,-6,-7,-1,4,7,-6,-26,-15
1491087238629,2,-6,2,6,-3,-1,-20,-32,3
1491087238629,2,14,2,2,5,8,5,-32,-9
1491087238630,3,0,-5,-8,-4,4,13,105,25
1491087238630,3,-16,-5,-3,0,10,11,11,3
1491087238665,0,4,-4,2,4,6,2,-24,-10
1491087238665,0,0,3,1,-5,-26,-12,-18,-3
1491087238666,1,-11,-5,-6,4,3,2,-19,-5
1491087238666,1,0,0,-14,-13,-3,-8,-31,-3
1491087238666,1,-12,-4,-1,-11,-12,-6,-35,-12
1491087238666,1,-7,-4,-13,2,3,17,44,7
1491087238668,2,-13,0,10,-2,-4,10,-31,-15
1491087238668,2,7,-4,-4,-2,3,0,41,24
1491087238703,3,17,-1,-4,5,0,-12,-82,-4
1491087238703,3,7,4,12,4,5,2,98,21
1491087238703,0,-9,-4,-13,0,5,13,-9,-26
1491087238703,0,3,0,-2,-4,-4,-15,-16,3
1491087238704,1,-30,-13,-10,-8,-11,0,-16,-30
1491087238704,1,18,8,7,4,3,-1,-38,12
1491087238705,2,16,0,-3,-6,-12,3,18,6
1491087238705,2,-3,-4,1,5,9,29,-1,-10
1491087238740,3,22,4,5,9,18,-29,-17,4
1491087238740,3,-21,-8,-8,-9,-14,-10,6,-4
1491087238741,0,-8,0,-4,3,-1,16,8,6
1491087238741,0,3,1,-2,-4,-13,-17,-33,-26
1491087238778,1,-3,0,-5,-8,-5,13,56,31
1491087238778,1,-4,-3,2,5,8,-11,-18,-10
1491087238779,2,7,0,-5,-6,0,6,7,12
1491087238779,2,-7,-3,-5,-6,-5,-4,-44,-17
1491087238780,3,-6,0,2,-1,5,-3,-25,-10
1491087238780,3,-6,-3,-3,-2,-5,-19,23,-6
1491087238780,0,-4,-3,-4,-5,-20,3,2,11
1491087238780,0,-10,-6,-2,4,-1,-11,-26,-17
1491087238815,1,12,6,1,6,7,24,55,25
1491087238815,1,-3,-1,-4,-15,-12,5,-8,4
1491087238817,2,-21,-8,-8,-2,1,-35,-42,-18
1491087238817,2,14,7,6,2,1,5,24,12
1491087238818,3,11,-4,-6,-5,10,24,49,3
1491087238818,3,7,3,8,7,-1,-4,-60,-27
1491087238818,0,11,-3,-4,-5,1,10,43,27
1491087238818,0,-18,-3,1,-8,-6,-39,-76,-6
1491087238853,1,-10,3,2,0,5,9,65,2
1491087238853,1,-4,0,-6,-5,-10,0,-10,-12
1491087238854,2,-4,-3,-3,-2,0,-1,-11,-13
1491087238854,2,-1,0,1,9,13,15,8,6
1491087238854,0,-5,-1,-1,0,-12,-17,-54,-30
1491087238854,0,8,0,-4,-5,-3,13,100,33
1491087238855,1,-2,0,-3,3,1,-11,-26,3
1491087238855,1,2,0,7,11,19,19,33,6
1491087238890,2,-1,-3,-5,-2,-9,-8,-32,-8
1491087238890,2,-3,-4,-3,4,6,15,0,-5
1491087238892,3,-6,2,-3,-6,-15,-20,5,2
1491087238892,3,-3,-2,-1,-1,-3,-11,-37,4
1491087238893,0,-11,3,3,-5,-17,19,17,-11
1491087238893,0,3,-1,-1,4,21,-16,8,0
1491087238894,1,6,-5,-5,3,9,17,-9,-1
1491087238894,1,-8,-5,1,-1,-8,-19,-58,-12
1491087238928,2,-2,1,5,-3,-11,-22,39,12
1491087238928,2,16,-3,-7,-7,-4,25,29,-1
1491087238929,3,-11,-4,-3,-4,-11,7,-10,-12
1491087238929,3,-6,-2,-8,-4,6,-2,-12,-12
1491087238930,0,13,2,4,-1,19,14,29,8
1491087238930,0,-10,0,2,-4,-11,-25,-45,-1
1491087238931,1,-5,-8,-10,-9,-7,9,57,16
1491087238931,1,-2,0,0,7,-2,-1,-4,-4
1491087238965,2,1,0,2,2,11,1,-12,-2
1491087238965,2,-11,1,4,-8,-7,-19,-85,-26
1491087238967,3,15,2,8,7,9,4,69,16
1491087238967,3,-9,-5,-8,-3,-3,9,16,-1
1491087238968,0,10,3,-3,0,-5,-15,-33,-5
1491087238968,0,-11,-5,-5,-6,-3,6,23,4
1491087238969,1,-11,-7,-2,-1,-12,-14,-63,-26
1491087238969,1,16,4,2,4,15,5,5,15
1491087239003,2,-10,-5,3,14,-5,-1,-41,-14
1491087239003,2,-7,-8,-10,-15,15,24,81,26
1491087239004,3,4,0,-9,-10,-18,-4,-32,-5
1491087239004,3,8,5,2,8,2,-1,14,14
1491087239005,0,-3,-2,-3,-6,-7,-14,-17,-13
1491087239005,0,0,2,3,1,-9,-13,-13,2
1491087239005,1,-25,-6,-1,0,-2,-4,-21,-17
1491087239005,1,6,3,3,0,1,-7,-5,-2
1491087239040,2,7,2,-5,-7,-3,10,18,9
1491087239040,2,-7,-3,-3,1,-12,-22,-43,-32
1491087239042,3,13,5,4,3,14,20,44,16
1491087239042,3,-6,-7,-5,-8,-4,9,39,0
1491087239044,0,-5,1,2,3,3,2,18,2
1491087239044,0,1,-3,-6,0,1,4,22,4
1491087239045,1,-4,0,3,2,-5,-15,-78,-16
1491087239045,1,-15,1,4,3,0,-11,-38,-13
1491087239078,2,-9,-4,-5,-6,12,15,51,-1
1491087239078,2,-2,2,4,4,-8,-12,-3,10
1491087239079,3,9,1,-6,-7,0,-1,-3,6
1491087239079,3,-5,-4,-2,-1,-4,-13,-11,-3
1491087239080,0,-1,-7,-2,-4,-14,3,-24,-12
1491087239080,0,6,9,7,9,5,-4,-37,-3
1491087239081,1,-7,-4,-5,3,4,-8,43,4
1491087239081,1,-4,1,-1,-2,11,8,11,1
1491087239115,2,2,-2,-7,-7,6,12,13,11
1491087239115,2,-5,-4,-2,-5,-19,-1,-57,-26
1491087239117,3,-2,0,2,6,-1,-5,34,5
1491087239117,3,9,-4,-7,-8,-3,-4,7,14
1491087239118,0,6,3,6,10,3,2,1,2
1491087239118,0,-12,-8,-7,-15,-8,0,-9,-4
1491087239119,1,8,2,-2,-6,-8,-11,-20,-18
1491087239119,1,-13,-4,-1,0,-1,12,10,8
1491087239153,2,8,5,8,4,3,-26,-45,4
1491087239153,2,-5,-6,-3,-5,10,34,114,19
1491087239155,3,-7,-2,-4,-2,-3,1,-30,-14
1491087239155,3,8,0,4,5,6,-5,7,1
1491087239156,0,-7,-7,-9,-5,-3,4,-5,-2
1491087239156,0,-3,3,0,3,-4,-11,-40,-12
1491087239190,1,-5,-1,0,1,5,-6,-13,-3
1491087239190,1,5,0,-3,-8,-22,-10,-6,-6
1491087239191,2,-8,-1,2,4,14,-5,-45,-15
1491087239191,2,7,1,1,-1,2,10,43,11
1491087239192,3,-2,-7,-7,0,-1,-8,4,10
1491087239192,3,-5,-1,-2,-9,-3,-7,-8,-4
1491087239193,0,3,-3,-1,-8,-20,-13,-22,-7
1491087239193,0,5,-3,-6,-11,-6,2,33,8
1491087239228,1,-5,-1,-4,-2,10,8,-19,-15
1491087239228,1,6,0,4,5,-11,1,24,8
1491087239229,2,-11,-2,-8,-6,-4,4,10,-5
1491087239229,2,-14,0,1,6,6,-17,-44,-19
1491087239229,3,2,1,6,0,1,-5,-50,-12
1491087239229,3,13,-4,-5,3,7,8,43,12
1491087239230,0,7,1,0,2,10,9,71,21
1491087239230,0,-13,-4,-6,-2,-13,4,-14,-5
1491087239265,1,-8,-2,-3,-7,-5,2,15,-3
1491087239265,1,-16,-5,-1,3,7,-8,-76,-37
1491087239266,2,2,-3,-1,1,0,-2,2,4
1491087239266,2,11,2,1,-2,-3,6,29,17
1491087239267,3,2,-3,-7,-6,-3,3,-5,-3
1491087239267,3,4,0,1,-4,-4,-23,-31,6
1491087239268,0,-18,-2,4,1,-1,7,-27,-21
1491087239268,0,5,-3,-5,0,-1,-5,33,3
1491087239303,1,8,-2,0,-5,-11,12,28,10
1491087239303,1,-10,2,1,1,15,3,4,-3
1491087239304,2,0,-4,-5,-1,13,1,-15,-4
1491087239304,2,-3,-3,0,0,-18,-30,-48,-5
1491087239305,3,1,-1,0,-2,-16,0,-5,-8
1491087239305,3,2,-3,-3,-5,-7,-18,22,-1
1491087239340,0,-4,-4,-7,-12,1,16,-1,4
1491087239340,0,-4,2,3,5,6,-4,-9,-7
1491087239341,1,-2,-7,-8,-7,-2,13,30,18
1491087239341,1,-3,-2,-3,3,-2,-10,-19,-13
1491087239342,2,-7,-3,4,3,-2,0,0,9
1491087239342,2,-11,-3,-2,4,5,-6,-24,-17
1491087239343,3,19,2,2,0,5,5,15,13
1491087239343,3,-13,-6,-6,-3,-9,21,28,2
1491087239378,0,11,6,5,1,-1,-7,1,13
1491087239378,0,-4,-1,-1,-4,-7,-5,-44,-13
1491087239379,1,-13,-1,5,9,6,-9,33,2
1491087239379,1,11,-3,-9,-8,7,21,-14,-5
1491087239380,2,-3,-1,-2,0,-8,-14,8,-10
1491087239380,2,-7,-3,0,-3,0,-2,-48,-13
1491087239381,3,-2,2,1,-1,-5,-4,14,-8
1491087239381,3,13,4,3,-4,-6,-2,3,14
1491087239415,0,-4,0,-8,-2,0,-1,22,5
1491087239415,0,12,2,2,2,4,1,3,11
1491087239416,1,1,-3,-3,-5,0,-34,-101,-16
1491087239416,1,-8,-5,-3,-2,-9,40,89,14
1491087239453,2,24,6,2,1,-5,-8,16,13
1491087239453,2,-3,-5,-1,8,11,10,-9,-7
1491087239454,3,5,4,4,6,6,10,-36,-6
1491087239454,3,-8,-5,2,-9,-14,-34,-61,-13
1491087239455,0,-2,-5,-8,-11,-9,-2,32,6
1491087239455,0,8,1,-7,-9,-2,8,28,-4
1491087239456,1,-7,-2,1,0,3,8,30,16
1491087239456,1,1,2,1,3,-10,-13,-31,-13
1491087239490,2,-15,-4,1,6,-3,-14,-50,-20
1491087239490,2,1,-1,-4,-3,10,0,27,11
1491087239491,3,-1,0,-1,1,-9,-2,-36,-3
1491087239491,3,-3,3,3,9,18,52,106,20
1491087239492,0,-9,-8,-7,-2,1,-31,-45,-6
1491087239492,0,7,3,8,3,-2,-4,24,-10
1491087239493,1,-4,-1,-1,-2,6,18,7,12
1491087239493,1,-2,-1,-2,0,-4,-25,-86,-8
1491087239528,2,-1,-1,6,0,1,8,39,-13
1491087239528,2,8,-6,-12,-12,-18,12,9,11
1491087239529,3,-17,-3,-2,-5,-9,-45,-7,4
1491087239529,3,3,-3,-4,5,10,13,-13,-7
1491087239530,0,-4,-2,-1,7,-1,24,17,-10
1491087239530,0,11,-3,3,-2,-2,-37,0,14
1491087239531,1,-5,-3,-6,-6,-1,9,-29,-20
1491087239531,1,20,3,1,-3,0,-23,-34,7
1491087239565,2,-8,-4,-6,-7,0,15,-18,-9
1491087239565,2,0,1,1,2,0,13,36,7
1491087239603,3,-7,-5,-1,3,-6,-5,0,-8
1491087239603,3,-13,-4,1,-5,-1,-20,-18,-4
1491087239604,0,7,2,-1,-6,2,-10,-67,-9
1491087239604,0,1,0,1,7,-8,-1,65,9
1491087239605,1,10,1,-1,-5,3,2,41,7
1491087239605,1,-14,-4,-7,-9,-9,-3,-38,-19
1491087239606,2,-10,-4,1,5,-3,2,7,-12
1491087239606,2,-3,-1,-6,-7,-6,0,-41,1
1491087239640,3,9,-4,-3,4,2,-4,-18,12
1491087239640,3,-5,1,7,-1,5,3,99,15
1491087239641,0,0,-3,-7,-9,-14,-4,-11,0
1491087239641,0,-20,-1,-1,2,7,-4,-43,-21
1491087239642,1,8,4,0,0,-3,5,9,2
1491087239642,1,6,0,9,17,5,-21,-89,-17
1491087239643,2,-1,-4,-7,-9,15,43,100,20
1491087239643,2,-12,-4,-7,-10,-11,-6,9,0
1491087239678,3,-3,3,4,0,-3,2,18,6
1491087239678,3,-9,-1,-4,-6,-6,-10,-23,-10
1491087239680,0,3,1,6,7,-2,-2,3,-1
1491087239680,0,7,-2,1,7,4,-5,-37,13
1491087239681,2,2,0,-6,-9,-15,2,35,4
1491087239681,2,7,0,-2,-2,2,3,-11,-4
1491087239715,3,1,-2,-1,3,-11,-37,-121,-37
1491087239715,3,-17,-4,-2,-6,19,36,116,20
1491087239717,0,20,0,-2,0,-5,0,17,17
1491087239717,0,-8,0,2,-5,-16,-1,-22,-8
1491087239718,1,-8,-4,-2,0,3,8,-5,-12
1491087239718,1,-8,-1,1,1,-3,5,-7,4
1491087239719,2,-5,-4,-3,1,3,-33,-38,-6
1491087239719,2,-3,1,4,-1,11,20,23,-5
1491087239753,3,8,-1,-2,-4,-9,-9,-17,-6
1491087239753,3,-5,-1,-6,-3,-5,8,14,-9
1491087239754,0,-9,-2,6,5,-5,-27,-20,3
1491087239754,0,-12,-3,-7,-1,3,10,13,5
1491087239755,1,-8,-4,-5,-8,-3,10,28,-4
1491087239755,1,-3,-1,-1,2,14,17,9,1
1491087239756,2,-5,-2,-1,-2,-1,-11,-46,-13
1491087239756,2,-3,-4,-4,-1,-11,-10,-48,-21
1491087239790,3,9,1,1,-4,-10,-13,49,23
1491087239790,3,-2,-4,-5,-8,-15,-22,-24,-19
1491087239791,0,14,0,-1,-1,10,12,-23,1
1491087239791,0,-16,-2,2,2,3,-12,-43,-20
1491087239828,1,16,1,-7,-8,-17,17,102,52
1491087239828,1,-12,-1,-6,3,3,4,-4,-17
1491087239829,2,-2,0,5,-2,-9,-10,-11,6
1491087239829,2,-5,-2,0,0,5,2,17,1
1491087239830,3,-15,-9,-7,1,13,32,-39,-30
1491087239830,3,-3,-2,0,-2,5,-19,-4,-6
1491087239831,0,-7,0,-4,-3,-8,-5,-2,-1
1491087239831,0,2,0,-1,3,6,-7,-21,-5
1491087239865,1,-3,-1,4,-3,-9,-16,-26,-5
1491087239865,1,2,-1,-4,-2,-1,-2,-6,-2
1491087239866,2,-3,0,1,6,13,13,-1,-6
1491087239866,2,6,-3,-3,-6,-7,-2,53,25
1491087239867,3,7,6,-3,-3,-1,4,-1,-5
1491087239867,3,15,-1,-1,-4,-6,7,-31,-8
1491087239868,1,-4,-2,-1,-2,0,-9,-47,-22
1491087239868,1,2,-1,1,10,6,-9,-11,-4
1491087239903,2,-10,3,5,-3,-1,5,-3,-1
1491087239903,2,9,0,-12,-17,-7,2,13,8
1491087239904,3,-10,-6,-2,0,-2,-7,-3,-2
1491087239904,3,0,-1,4,-3,-3,-9,-33,-10
1491087239905,0,3,-2,2,5,-5,10,15,9
1491087239905,0,-2,-1,-1,2,-4,-23,-36,-15
1491087239906,1,1,3,0,-2,-4,5,76,20
1491087239906,1,-7,-4,-7,-4,5,23,13,-5
1491087239940,2,-4,0,2,4,14,-5,11,13
1491087239940,2,-1,-1,1,-1,-1,-1,-7,3
1491087239942,3,-1,-4,-6,2,2,-13,-39,-11
1491087239942,3,10,3,5,7,-7,-3,2,17
1491087239943,0,-9,-5,-9,-8,3,9,-5,-15
1491087239943,0,-6,4,2,0,-15,-11,-58,-17
1491087239944,1,-9,-5,-3,-4,0,-5,33,-6
1491087239944,1,-14,-4,-8,-11,-15,1,-3,1
1491087240015,2,10,3,2,2,-3,-1,16,-6
1491087240015,2,-11,-6,-4,4,6,-5,-4,6
1491087240017,3,4,3,8,6,5,3,-25,-8
1491087240017,3,-9,-7,-11,-12,-4,5,65,13
1491087240018,0,8,0,-2,-6,-8,-12,-25,-3
1491087240018,0,-1,-3,-1,-1,0,8,4,-2
1491087240019,1,-5,-3,-4,1,7,-2,-21,-16
1491087240019,1,1,0,5,12,-1,-15,-19,2
1491087240053,2,9,5,-3,-6,-9,-7,11,7
1491087240053,2,1,0,0,-1,3,14,8,-3
1491087240090,3,-2,-4,-3,-4,2,-3,-21,-8
1491087240090,3,-7,1,1,-2,-18,-16,-57,-30
1491087240091,3,7,1,0,-1,-10,-25,-16,13
1491087240091,3,4,-2,-2,11,23,-6,-22,-1
1491087240092,0,-12,-2,5,-3,-13,-4,-38,-22
1491087240092,0,-8,-2,-8,-16,-12,-6,28,-1
1491087240093,1,-4,-5,-13,-1,-2,14,28,4
1491087240093,1,9,7,4,0,-6,-10,-15,16
1491087240128,2,-10,-4,1,6,8,7,-8,-10
1491087240128,2,-14,-8,-2,6,7,-8,-34,-21
1491087240165,3,4,2,3,-4,-4,5,-5,-7
1491087240165,3,-3,-3,-6,-5,3,6,23,-2
1491087240166,0,4,0,4,1,-9,-7,1,10
1491087240166,0,-7,-1,5,11,1,7,14,9
1491087240167,3,17,2,5,4,1,4,39,20
1491087240167,3,-2,-5,-5,-4,4,26,10,6
1491087240168,0,-3,-1,-2,0,-2,-38,-51,-9
1491087240168,0,4,-2,-6,-6,5,40,75,18
1491087240203,1,-3,1,3,3,7,-19,-12,-2
1491087240203,1,-6,2,2,0,3,6,20,-2
1491087240204,3,-1,-2,0,-3,-9,-18,-66,-15
1491087240204,3,-4,-1,0,-3,1,2,34,-13
1491087240205,0,-34,-4,-4,2,6,21,40,1
1491087240205,0,-3,-1,2,0,8,-6,-13,-1
1491087240209,2,12,1,-3,2,2,26,55,25
1491087240209,2,-2,1,-7,-5,-1,-5,13,3
1491087240240,3,-16,-2,1,5,6,12,-1,3
1491087240240,3,3,-3,-9,-11,-17,-21,-34,-21
1491087240278,0,-2,-3,1,3,11,21,-15,-11
1491087240278,0,3,-1,3,5,1,-18,6,4
1491087240279,2,-22,-6,-9,-8,-5,2,2,-16
1491087240279,2,36,5,0,2,5,-7,-51,8
1491087240279,3,-10,-2,11,17,16,-11,-23,-14
1491087240279,3,-8,-9,-9,-15,-4,42,94,14
1491087240280,0,10,1,-13,-14,-9,-16,-49,0
1491087240280,0,-2,6,6,3,-2,-3,-7,-2
1491087240353,1,-2,-2,-5,-1,7,6,0,8
1491087240353,1,6,4,6,8,5,-13,-44,-12
1491087240354,2,3,-1,4,5,-7,-12,3,-4
1491087240354,2,-3,-4,-4,-6,-14,0,-15,-13
1491087240355,2,-5,-2,-8,-7,-10,7,88,21
1491087240355,2,-5,-3,-6,-7,2,3,-21,-7
1491087240356,3,-12,-1,-2,0,-7,-2,12,8
1491087240356,3,-3,-2,0,1,-7,-8,-48,-17
1491087240390,0,12,1,6,5,3,-10,-28,-10
1491087240390,0,-10,-3,2,4,9,16,-4,-9
1491087240391,1,1,-4,-5,-10,-9,-29,54,16
1491087240391,1,-12,-2,-3,2,-4,-4,-57,-23
1491087240392,2,-3,-3,2,2,-6,-12,5,6
1491087240392,2,-1,-4,-13,-11,-4,14,-24,-20
1491087240393,1,11,1,1,-5,2,1,-23,-1
1491087240393,1,-20,-4,-5,-3,-1,6,0,-25
1491087240465,2,23,5,3,8,9,11,11,13
1491087240465,2,-13,-5,1,-7,1,14,49,7
1491087240467,3,-2,-3,-9,-8,-16,-1,7,-8
1491087240467,3,-3,-3,1,6,1,-20,-75,-42
1491087240468,1,3,1,1,8,1,2,-15,10
1491087240468,1,-5,0,1,-7,-4,4,-27,-14
1491087240469,2,-7,-7,-4,6,8,-16,-19,-12
1491087240469,2,8,3,4,-6,-13,-2,-4,4
1491087240503,3,-12,1,1,-4,1,7,-40,-10
1491087240503,3,11,-4,-3,5,10,-9,29,4
1491087240504,0,-16,-1,-6,-7,-6,9,16,-1
1491087240504,0,10,5,-2,-1,2,9,29,18
1491087240505,1,-2,-3,1,1,-11,-13,-43,-47
1491087240505,1,4,-1,0,-3,4,-14,-12,32
1491087240506,0,12,-2,0,6,10,-3,35,5
1491087240506,0,-15,-3,0,-3,-9,6,-10,-9
1491087240540,1,-9,-4,-6,-3,-6,3,-1,-2
1491087240540,1,5,0,3,-1,5,-5,-21,-1
1491087240541,2,-4,3,-4,-3,-1,-6,-16,-5
1491087240541,2,5,-2,-3,-1,-8,-5,-16,-5
1491087240542,0,-4,-3,0,-3,-3,-6,-43,-24
1491087240542,0,0,-2,2,2,7,-1,-16,0
1491087240578,1,-3,-3,-4,1,1,-1,6,16
1491087240578,1,1,1,0,2,-9,-2,21,-2
1491087240579,2,4,-4,-4,-3,2,5,10,-6
1491087240579,2,0,2,-2,-4,5,16,31,17
1491087240580,3,-3,-6,-3,-1,-6,-16,-15,-10
1491087240580,3,-4,3,2,-1,-6,-6,-27,-8
1491087240580,0,11,2,2,-1,-1,7,-20,-5
1491087240580,0,-2,-4,-3,6,11,4,1,-7
1491087240615,1,1,2,0,-9,-4,9,26,14
1491087240615,1,-14,-4,-8,-11,-11,-13,1,2
1491087240616,2,10,0,2,-5,-14,-28,-115,-34
1491087240616,2,-12,-3,-1,4,9,9,69,-1
1491087240617,3,-10,-4,-6,-1,7,26,67,10
1491087240617,3,13,-2,-7,-1,7,18,33,21
1491087240618,0,-11,0,1,-3,-17,-6,-38,-1
1491087240618,0,7,-1,-2,1,-8,-23,-69,-19
1491087240653,1,6,2,1,5,4,-5,-6,2
1491087240653,1,-10,-2,1,-3,3,-3,-3,-1
1491087240654,2,-4,-2,-2,7,15,17,16,-4
1491087240654,2,1,-3,-2,0,-12,-26,-40,-7
1491087240655,3,-6,-2,-4,-5,-14,-1,16,-8
1491087240655,3,-3,-4,-10,-4,-4,-1,6,1
1491087240655,0,-11,-2,3,-5,-4,-4,-59,-13
1491087240655,0,26,8,0,-1,5,0,68,14
1491087240690,1,5,-5,0,4,2,0,-18,6
1491087240690,1,-12,-8,1,2,-1,-6,-43,-17
1491087240691,2,-12,-7,-9,-9,3,7,65,10
1491087240691,2,3,-2,-4,-2,-9,3,-50,-6
1491087240692,3,3,4,4,2,-6,-21,9,-1
1491087240692,3,2,0,2,0,10,17,18,-3
1491087240693,0,-2,-3,-5,-2,-1,-3,1,6
1491087240693,0,-10,-1,-2,3,-5,3,38,13
1491087240728,1,14,-4,-10,-6,-6,0,7,4
1491087240728,1,-10,5,3,0,4,-2,-17,2
1491087240729,2,-6,-1,-1,-13,-14,-10,-12,-13
1491087240729,2,-1,-4,0,5,8,-1,-22,-7
1491087240729,3,-5,-3,0,3,4,1,-12,1
1491087240729,3,-3,-5,-7,-9,-10,-5,14,-1
1491087240730,0,-2,0,-2,-2,-10,-15,-70,-18
1491087240730,0,-2,0,6,0,4,-2,-4,-22
1491087240767,1,-6,1,-5,-2,10,41,100,55
1491087240767,1,21,3,-3,0,3,2,-8,9
1491087240768,2,16,-2,-5,1,2,3,62,24
1491087240768,2,-22,-6,-6,-4,-7,-2,-42,-13
1491087240770,3,-2,-3,5,6,10,-18,-62,-25
1491087240770,3,-3,-5,4,7,-2,-2,24,1
1491087240771,0,-5,2,-4,-8,-5,-5,1,-3
1491087240771,0,5,3,1,-6,-18,0,-7,-3
1491087240803,1,16,3,3,-2,-8,-23,-67,-12
1491087240803,1,-4,-1,-4,-5,0,15,66,25
1491087240840,2,-11,0,0,4,3,-2,7,5
1491087240840,2,-5,-2,0,-1,3,0,-62,-23
1491087240842,3,-1,-3,-5,-3,-12,-10,19,7
1491087240842,3,-1,-1,2,4,-2,-3,4,-8
1491087240843,0,2,3,4,5,13,7,25,1
1491087240843,0,-6,-4,-5,-8,3,12,-11,-11
1491087240844,1,-7,0,-4,-4,-8,-3,-5,-17
1491087240844,1,-6,1,-1,-7,-6,-11,-25,-9
1491087240915,2,-1,2,1,3,-4,2,-3,4
1491087240915,2,8,-5,-1,1,-1,-3,29,16
1491087240917,3,-3,-7,0,11,11,0,-63,-20
1491087240917,3,18,3,2,-2,7,2,33,-2
1491087240918,0,-20,0,-1,-2,-10,-8,40,13
1491087240918,0,17,0,-8,-17,-16,-1,28,25
1491087240919,2,-22,-5,4,2,-5,0,-33,-30
1491087240919,2,2,0,1,2,0,-6,-18,1
1491087240953,3,-8,-4,1,-4,-11,0,28,-1
1491087240953,3,0,-5,-7,-2,-2,-13,-32,-13
1491087240954,0,13,4,2,1,18,4,-33,-2
1491087240954,0,-2,-1,5,-1,-14,-6,49,13
1491087240955,1,11,0,-1,2,2,14,30,-8
1491087240955,1,-22,-2,-2,-6,0,-1,-49,-25
1491087240956,1,0,2,-3,-5,-3,-4,-4,0
1491087240956,1,10,1,1,2,-4,-10,-18,7
1491087240990,2,-1,-2,-3,-3,7,10,-46,-17
1491087240990,2,-13,-8,-5,-2,0,-2,26,-5
1491087240991,3,-6,-3,-9,-5,-7,-3,-33,-9
1491087240991,3,10,5,6,2,-10,-1,37,4
1491087240992,1,0,2,-2,-5,-3,-4,-37,-5
1491087240992,1,13,4,6,3,-3,-9,17,14
1491087240993,2,-17,-8,-9,-8,-2,8,21,-6
1491087240993,2,6,1,-6,-4,-3,1,-5,6
1491087241028,3,20,4,6,6,2,3,0,-3
1491087241028,3,-9,-4,2,1,5,-14,-55,-10
1491087241032,0,21,2,-4,-4,-11,2,21,11
1491087241032,0,1,0,-10,-8,-18,-1,-4,8
1491087241033,1,-20,1,1,-5,-6,-8,-19,-17
1491087241033,1,7,0,1,2,5,4,6,2
1491087241034,2,2,-2,0,4,12,6,-13,-3
1491087241034,2,-10,-6,-6,-3,2,2,25,-6
1491087241065,3,1,1,5,7,6,-16,-36,-8
1491087241065,3,1,-1,-5,-5,-1,11,32,5
1491087241066,0,-9,-4,-7,-4,-8,7,-1,7
1491087241066,0,2,1,5,6,-4,-10,-26,-3
1491087241067,1,2,1,0,-7,-3,0,1,6
1491087241067,1,-5,-1,-4,1,4,4,34,4
1491087241068,2,-10,3,-2,-5,-17,-8,-3,-13
1491087241068,2,9,0,-1,2,0,-12,-42,-12
1491087241104,3,-11,-6,0,7,9,7,37,12
1491087241104,3,7,-3,-3,-12,-7,-3,-37,-8
1491087241106,0,7,-4,-1,1,2,-12,1,1
1491087241106,0,0,1,5,5,-2,6,15,1
1491087241107,1,-4,-1,-3,-2,1,-1,24,6
1491087241107,1,-2,-4,-6,-3,5,5,-13,-4
1491087241109,2,-10,-1,-1,-3,-9,-10,-1,-2
1491087241109,2,-6,-4,-2,-5,-4,-7,-28,-13
1491087241141,3,7,-2,-2,0,2,-2,-10,-1
1491087241141,3,-18,0,1,4,-2,-1,5,10
1491087241142,0,22,0,2,-2,0,-3,9,-6
1491087241142,0,0,0,-2,-3,2,18,46,2
1491087241143,1,0,-1,0,-3,-4,-6,-32,0
1491087241143,1,-9,0,-1,1,4,-6,-40,-44
1491087241144,2,-7,-1,-1,0,-1,0,54,37
1491087241144,2,20,3,-2,-4,-10,-4,-28,5
1491087241178,3,-25,-2,-3,-2,0,-2,42,-4
1491087241178,3,-6,-5,-5,2,2,8,-12,-12
1491087241179,0,-1,-1,-1,-3,-3,3,-12,-6
1491087241179,0,-14,-5,-5,-9,5,-8,-19,-4
1491087241180,1,7,-3,1,-4,-12,-2,-39,-14
1491087241180,1,2,2,0,1,8,-11,45,20
1491087241181,2,-1,-3,-4,0,1,-3,-13,-10
1491087241181,2,-9,-3,-1,-2,-6,-3,15,0
1491087241215,3,13,3,0,8,18,3,-5,1
1491087241215,3,-5,-7,-8,-13,-20,8,19,15
1491087241216,0,3,-2,1,-1,-8,-10,-35,-14
1491087241216,0,-14,-1,3,1,-8,-6,4,-7
1491087241217,1,14,-5,-11,-7,-6,14,43,7
1491087241217,1,-18,1,-5,-3,3,2,-1,-1
1491087241218,2,23,3,3,3,6,-5,-12,4
1491087241218,2,-17,0,3,7,10,-3,-28,-6
1491087241253,3,-10,-3,-4,-6,-7,-2,-12,-17
1491087241253,3,13,-2,1,5,-1,-1,3,14
1491087241254,0,-19,-8,-6,-7,-10,-14,-41,-22
1491087241254,0,10,1,1,7,0,12,67,6
1491087241255,1,-4,-1,2,0,7,-6,24,24
1491087241255,1,3,-1,1,-9,-8,-14,-59,-15
1491087241256,2,-5,1,-3,-5,-11,6,23,-2
1491087241256,2,-14,-8,-10,2,-6,-4,-37,-10
1491087241291,3,7,0,-1,0,12,9,51,7
1491087241291,3,0,-1,-2,2,-5,-7,-20,-3
1491087241292,0,-11,-3,3,11,8,8,-33,-13
1491087241292,0,-20,-6,-3,-5,0,-1,7,-11
1491087241293,1,0,-3,-5,-5,-7,-29,15,25
1491087241293,1,13,6,6,6,1,3,-6,5
1491087241294,2,-3,0,-3,-1,-3,-4,18,-1
1491087241294,2,4,1,2,-2,-5,0,-20,-7
1491087241328,3,-5,-2,-3,-5,1,-2,-51,-14
1491087241328,3,18,-1,1,3,-4,2,27,10
1491087241365,0,-15,-3,-1,-3,3,10,0,-4
1491087241365,0,1,3,1,-6,1,-5,10,-3
1491087241367,1,-14,-6,0,1,-2,-1,-44,5
1491087241367,1,5,-1,1,-2,-3,-6,25,-5
1491087241368,2,13,-1,3,4,-2,-1,-1,7
1491087241368,2,4,-2,-5,1,12,4,22,21
1491087241370,3,-13,-3,1,-3,-10,2,7,-15
1491087241370,3,1,-2,-5,-9,-3,-4,-56,-9
1491087241403,0,-4,-3,1,2,-1,-17,-12,-2
1491087241403,0,2,-2,1,-5,-2,7,26,3
1491087241404,1,4,2,-4,5,10,31,46,9
1491087241404,1,-11,0,1,5,9,-17,-14,-3
1491087241405,2,16,6,-3,-9,-15,-11,24,11
1491087241405,2,3,-4,-4,1,-6,-6,-26,5
1491087241406,3,-8,0,6,6,-10,0,-13,-14
1491087241406,3,-3,-2,-5,-2,7,17,25,-5
1491087241440,0,-15,-2,0,-3,8,2,-16,-21
1491087241440,0,22,2,-2,-6,-2,-5,4,8
1491087241442,1,8,0,0,1,-12,-11,-36,-16
1491087241442,1,-9,1,2,1,4,3,9,8
1491087241443,2,-4,-3,-6,-1,7,16,-10,7
1491087241443,2,-7,-2,1,5,-16,-4,33,-1
1491087241443,3,-16,-3,-3,-12,-12,-12,18,-11
1491087241443,3,-2,-9,-8,-8,-12,-16,-27,-11
1491087241478,0,2,-1,0,-1,12,12,-4,-5
1491087241478,0,-4,1,4,9,13,7,15,4
1491087241479,1,19,1,-5,3,3,-2,-1,19
1491087241479,1,-3,0,6,6,-2,12,11,-10
1491087241515,2,-27,-2,-2,-5,0,-10,8,0
1491087241515,2,-2,-2,-7,-6,-6,-7,-50,-28
1491087241517,3,19,2,0,1,11,12,17,3
1491087241517,3,-22,-2,-1,-6,-6,-3,-7,10
1491087241518,0,17,2,3,12,-7,-17,13,10
1491087241518,0,-2,0,0,-1,8,8,-8,-8
1491087241553,1,-6,0,-5,-4,5,4,-13,-6
1491087241553,1,-1,-2,-3,-7,-13,-3,-2,-8
1491087241554,2,12,-1,-2,-4,-4,1,-28,2
1491087241554,2,-20,-5,-1,-5,-3,-6,42,13
1491087241554,3,-3,-8,-6,-9,-16,-7,-82,-26
1491087241554,3,19,6,7,13,15,12,82,19
1491087241555,1,-8,-1,4,2,3,-2,-23,0
1491087241555,1,-3,-1,1,2,3,-10,-45,-12
1491087241590,2,-2,2,1,2,-2,15,43,8
1491087241590,2,-5,-2,-3,-8,0,0,-7,-5
1491087241592,3,-8,-5,0,18,-5,-10,39,3
1491087241592,3,-8,-5,-4,-9,5,-2,-26,-8
1491087241593,0,-1,-3,-3,-10,2,-10,-12,3
1491087241593,0,-7,-1,-3,-4,-1,3,-58,-33
1491087241594,1,0,-3,-3,-10,-22,-12,57,20
1491087241594,1,2,-3,-8,2,-11,-10,0,-9
1491087241628,2,-11,-2,4,7,14,3,-47,-15
1491087241628,2,6,1,3,2,5,16,41,23
1491087241629,3,12,2,-3,-1,7,-3,2,-7
1491087241629,3,0,2,0,-7,-1,15,11,10
1491087241630,1,17,-1,-5,-1,3,3,10,11
1491087241630,1,0,-4,-5,-2,0,9,-10,1
1491087241631,2,8,2,8,6,5,0,8,4
1491087241631,2,3,-2,-7,-1,5,-17,2,5
1491087241665,3,-20,-3,-2,-13,-21,-13,-8,-15
1491087241665,3,5,2,-1,-3,-11,-5,-29,1
1491087241740,0,4,-2,-1,4,7,10,42,14
1491087241740,0,5,-2,-5,-2,4,7,3,-1
1491087241741,1,-8,-3,0,-3,-7,1,-2,-4
1491087241741,1,11,1,0,2,4,-19,-54,3
1491087241742,2,-4,-1,0,6,8,-3,-12,-4
1491087241742,2,3,-2,-3,2,0,16,56,10
1491087241743,3,-3,-1,-4,-1,1,-4,-24,-10
1491087241743,3,-19,-5,0,-2,-4,-5,-20,-11
1491087241778,0,17,4,1,-18,-21,-11,-5,-8
1491087241778,0,2,-5,-9,-5,-3,0,3,11
1491087241779,1,8,4,1,4,11,19,6,2
1491087241779,1,-5,-4,-2,3,-6,3,9,3
1491087241780,2,-5,3,0,10,10,-14,2,4
1491087241780,2,-9,-5,-3,-9,-8,0,-26,-9
1491087241781,3,0,1,3,4,10,2,-29,-14
1491087241781,3,14,0,2,5,12,-1,16,5
1491087241815,0,-9,-4,-3,-5,-11,11,51,11
1491087241815,0,17,4,2,-4,-15,-25,-34,1
1491087241817,1,-21,-4,1,-1,5,4,-18,-11
1491087241817,1,-19,-4,-2,3,-5,-3,6,-12
1491087241818,3,-10,-5,-5,-7,-6,8,68,15
1491087241818,3,0,2,-6,-1,8,-1,22,-2
1491087241820,0,-7,-6,-2,-2,-5,2,-8,-8
1491087241820,0,-8,-2,3,0,-3,-19,-34,-9
1491087241852,1,-1,-2,-1,-6,-3,-11,-66,-22
1491087241852,1,-8,-3,5,2,-18,-9,16,13
1491087241854,2,6,-4,-9,-8,0,3,54,4
1491087241854,2,11,0,-2,-1,0,3,-30,-8
1491087241855,3,11,7,5,4,9,6,19,26
1491087241855,3,-10,-3,3,4,4,-17,-26,-18
1491087241856,0,-2,2,2,-1,0,2,-32,-4
1491087241856,0,-9,-1,4,3,-5,0,3,-11
1491087241890,1,-9,-3,-9,-8,-2,10,53,1
1491087241890,1,10,-4,-7,-7,-12,-13,-14,3
1491087241891,2,-12,-2,-1,4,-8,4,12,0
1491087241891,2,-1,-3,-4,-8,1,-2,-27,-8
1491087241891,3,4,1,2,1,-10,-2,-18,-11
1491087241891,3,-7,-3,0,2,13,2,9,-1
1491087241892,0,-9,1,-1,3,9,7,-7,-4
1491087241892,0,0,4,-3,0,-3,-1,-2,4
1491087241928,1,-17,-4,-6,-6,-4,-16,-32,-17
1491087241928,1,27,-2,-1,0,-9,-2,-8,-16
1491087241929,2,-19,4,6,1,4,6,72,25
1491087241929,2,14,0,-7,2,5,4,12,5
1491087241929,3,4,0,5,-2,0,7,26,17
1491087241929,3,2,6,-1,-2,2,-4,-20,-3
1491087241930,0,-8,-2,-2,-1,0,-13,-55,-25
1491087241930,0,15,1,2,1,-11,-5,-13,11
1491087241965,1,-14,-8,-7,3,15,9,18,-2
1491087241965,1,-4,-1,-5,-8,-12,-11,-16,-5
1491087241966,2,7,-4,-5,0,-9,-4,2,9
1491087241966,2,-6,4,5,-6,-2,-14,-47,-16
1491087241966,3,9,-3,2,0,-5,-11,13,20
1491087241966,3,0,-4,-6,2,2,19,7,-9
1491087241967,0,-10,2,1,-9,-6,10,41,0
1491087241967,0,6,-1,-6,5,14,5,20,6
1491087242003,1,-17,-4,-4,2,3,8,-6,-9
1491087242003,1,12,0,2,-1,1,-7,-18,10
1491087242040,2,10,-2,-3,-5,-16,-11,-25,-2
1491087242040,2,-18,-7,-2,1,-11,-2,-6,-21
1491087242041,3,-6,-2,-1,-5,0,-14,-9,-6
1491087242041,3,-9,-3,-2,-2,10,9,-11,5
1491087242041,0,4,-1,1,-2,-4,-15,-8,-1
1491087242041,0,19,1,-3,-5,4,12,33,1
1491087242042,1,10,2,-2,-3,-9,1,14,17
1491087242042,1,-9,2,1,-1,0,-4,-30,-7
1491087242077,2,6,0,2,6,8,16,68,7
1491087242077,2,-24,-6,-7,-3,-8,0,-38,-10
1491087242079,3,-6,2,5,5,8,-14,-36,-14
1491087242079,3,24,-1,-6,-11,-8,5,34,15
1491087242079,0,-10,-2,0,0,2,-7,-28,-11
1491087242079,0,-2,-2,4,5,9,0,15,1
1491087242080,1,5,1,0,-6,-18,-2,-21,-10
1491087242080,1,-8,-2,1,2,-6,-10,-26,-1
1491087242115,2,2,-3,-7,-3,6,19,44,7
1491087242115,2,0,0,-3,-3,-2,0,4,4
1491087242116,3,-3,-4,2,5,-7,-15,-28,-17
1491087242116,3,-14,-6,-2,-1,-1,-5,4,-4
1491087242116,1,5,-3,-8,-17,-6,8,12,-1
1491087242116,1,-5,0,-2,-2,-10,-15,5,-2
1491087242117,2,0,-2,-2,-8,-2,-3,-104,-27
1491087242117,2,-19,-3,-10,0,-9,2,84,13
1491087242152,3,-4,1,6,7,-1,-6,4,1
1491087242152,3,18,5,4,-4,8,9,-16,7
1491087242154,0,-11,-2,2,3,10,4,56,12
1491087242154,0,12,-1,0,-1,-6,-24,-62,-22
1491087242155,1,1,1,-4,-1,-6,0,34,15
1491087242155,1,-15,-1,-5,1,11,20,-14,-18
1491087242156,2,0,0,3,2,-3,-14,-27,2
1491087242156,2,0,0,0,-2,-12,3,-7,3
1491087242190,3,-11,-6,-6,0,3,-2,8,-7
1491087242190,3,-8,-3,-1,-4,-1,-9,0,5
1491087242191,0,8,-1,-4,-4,-7,10,6,5
1491087242191,0,-4,-6,-4,2,5,2,-19,-9
1491087242191,1,3,-5,-3,-2,-3,-13,-40,-14
1491087242191,1,-4,1,4,4,-4,-8,-21,-14
1491087242192,2,-7,-7,-4,3,9,27,82,20
1491087242192,2,20,6,-1,-9,-1,-15,-32,17
1491087242227,3,-1,2,-4,-4,-8,0,26,0
1491087242227,3,-7,-4,-5,-6,-3,-17,5,-1
1491087242228,0,-17,-1,1,0,-4,-18,-62,-40
1491087242228,0,3,-7,1,-3,11,16,30,15
1491087242229,1,15,3,2,5,2,12,4,4
1491087242229,1,8,1,8,3,-13,-13,14,20
1491087242230,2,-12,-4,-8,-6,4,-25,-14,-8
1491087242230,2,-2,-5,0,2,2,16,0,-20
1491087242265,3,6,2,1,3,0,-7,-20,7
1491087242265,3,2,-1,-1,1,3,18,49,12
1491087242266,0,-2,-3,-10,-8,-11,-18,-31,0
1491087242266,0,-24,-4,6,2,-9,-5,-2,-10
1491087242267,1,-8,-1,0,0,9,20,31,2
1491087242267,1,35,1,-5,-6,-11,1,-6,4
1491087242267,2,-6,0,0,3,1,7,-8,8
1491087242267,2,-2,3,-4,-9,-3,-8,-10,3
1491087242303,3,0,-3,2,3,-2,-2,-48,-17
1491087242303,3,-36,-3,0,-1,3,-10,49,-10
1491087242305,0,15,2,-4,-6,-5,2,-4,5
1491087242305,0,10,-1,2,5,4,-3,-14,7
1491087242306,1,0,-9,-11,-12,-21,9,-3,-16
1491087242306,1,-10,-3,0,2,-3,-13,15,3
1491087242307,2,-3,-1,0,-3,-7,6,23,6
1491087242307,2,-3,-1,-3,-5,-1,-3,-23,-10
1491087242342,3,-9,-5,1,2,15,12,32,1
1491087242342,3,10,1,-5,1,2,1,-32,-6
1491087242343,0,4,6,11,9,10,18,27,8
1491087242343,0,-1,-4,-5,-4,-8,-43,-23,-12
1491087242343,1,-10,-3,-11,-14,-19,-27,-34,-2
1491087242343,1,16,-2,-2,-2,-4,32,45,11
1491087242344,2,-8,-4,-6,-5,-2,-11,-21,-3
1491087242344,2,-6,-1,3,8,13,6,9,-20
1491087242378,3,3,2,0,8,3,3,15,21
1491087242378,3,-15,-4,2,-1,-15,-4,-30,-5
1491087242380,0,8,7,12,-4,9,-26,-8,-9
1491087242380,0,-14,-8,-5,-9,-18,42,30,-5
1491087242381,1,19,-1,-5,-4,11,-6,7,24
1491087242381,1,-8,-4,-3,4,16,-14,-42,-10
1491087242381,2,20,8,9,31,16,-2,46,-10
1491087242381,2,-38,-9,-15,3,-9,33,-44,-33
1491087242415,3,-14,3,1,-20,-62,43,12,-22
1491087242415,3,-8,2,-2,-33,30,-74,-17,37
1491087242416,0,-18,-11,-18,-19,-48,75,-21,9
1491087242416,0,-7,-6,-14,42,68,-123,53,-5
1491087242416,1,8,3,3,-7,-51,34,-96,-7
1491087242416,1,-9,-1,4,39,69,98,83,-56
1491087242417,2,11,5,6,-72,-70,-109,-64,53
1491087242417,2,-1,0,3,43,-11,31,39,48
1491087242453,3,-15,-7,8,-12,65,-20,127,10
1491087242453,3,51,8,16,-29,0,-25,-128,0
1491087242454,0,-46,-21,-40,-79,-55,127,114,-32
1491087242454,0,20,-8,-36,1,-2,-91,-96,-8
1491087242456,1,-33,4,33,109,89,57,32,-54
1491087242456,1,2,9,4,-76,-96,106,5,49
1491087242457,2,18,-8,9,111,65,-100,-24,31
1491087242457,2,6,-1,-29,-84,-102,113,-62,22
1491087242490,3,4,1,-33,-76,-41,-128,-95,-24
1491087242490,3,-56,2,19,88,97,106,101,-30
1491087242491,0,31,20,22,52,16,127,89,55
1491087242491,0,9,13,51,26,36,-104,-63,-28
1491087242492,1,20,3,23,113,-79,85,21,24
1491087242492,1,-1,-3,-4,-38,71,78,91,-12
1491087242528,2,-10,2,-13,-83,-103,-128,7,-24
1491087242528,2,-9,-18,-46,-51,-38,60,-21,-16
1491087242530,3,-22,-2,-37,-82,-22,70,44,-27
1491087242530,3,29,-13,-6,31,-35,-128,-128,-14
1491087242531,0,2,7,50,103,127,127,80,33
1491087242531,0,19,41,104,105,4,70,105,45
1491087242532,1,-24,-31,-78,-125,-93,-109,11,4
1491087242532,1,7,-4,-30,56,-78,103,4,-4
1491087242565,2,15,5,3,-22,65,-105,-38,-22
1491087242565,2,-5,-2,-29,-79,24,79,-112,-43
1491087242566,3,7,4,13,40,127,8,93,43
1491087242566,3,-1,3,15,-2,0,53,98,32
1491087242568,0,-12,-18,-21,12,-57,-100,-128,-62
1491087242568,0,8,-2,14,14,35,118,127,-4
1491087242569,1,28,14,47,53,-42,31,26,40
1491087242569,1,-29,-16,-44,-100,-53,-119,11,-29
1491087242640,2,-25,-8,-18,-35,-27,59,-86,-4
1491087242640,2,33,7,21,7,-125,-47,71,21
1491087242642,3,10,-11,-54,-99,-69,-64,-23,10
1491087242642,3,-12,2,8,34,-77,-28,-87,-102
1491087242643,0,5,-8,-17,20,28,70,48,4
1491087242643,0,5,3,4,27,43,-28,18,2
1491087242644,1,59,13,54,103,127,101,-2,41
1491087242644,1,7,1,10,-18,-83,-119,23,39
1491087242678,2,-6,-21,-28,-10,-65,-60,15,-12
1491087242678,2,-27,-1,32,56,104,91,26,6
1491087242680,3,-2,0,-15,-92,-122,-114,-53,-6
1491087242680,3,-3,-7,-46,39,104,9,-17,-1
1491087242681,0,6,6,7,-40,-28,91,-120,-36
1491087242681,0,16,-14,-46,-28,-10,-16,31,17
1491087242682,1,-27,-5,6,33,-10,-17,-35,-12
1491087242682,1,-35,0,9,18,33,-58,31,-20
1491087242716,2,-21,7,43,75,111,76,53,-30
1491087242716,2,10,7,35,28,43,-7,2,41
1491087242718,3,11,-2,-13,-58,-75,33,-113,-30
1491087242718,3,5,-12,-46,-46,-28,-91,75,5
1491087242719,1,-32,-16,-35,-42,-55,-66,-39,-59
1491087242719,1,7,1,-12,-9,-56,127,-20,34
1491087242738,2,56,-5,-34,-9,62,11,31,54
1491087242738,2,-27,1,53,85,66,30,-89,-7
1491087242753,3,-28,0,3,4,-12,-27,70,9
1491087242753,3,-13,-1,32,-19,-10,-12,-74,24
1491087242756,0,-13,-31,-25,56,25,68,94,11
1491087242756,0,11,10,-6,-96,-103,-74,-128,-62
1491087242757,1,-25,-4,11,82,127,-8,-64,-4
1491087242757,1,50,20,43,15,-1,114,-14,12
1491087242758,2,-22,-20,-99,-119,-120,-120,-41,-43
1491087242758,2,-19,-3,-23,30,32,85,-60,-105
1491087242790,3,35,23,83,79,-36,8,120,113
1491087242790,3,-41,-12,-29,-50,2,-14,6,11
1491087242828,0,-9,16,62,55,-22,86,49,8
1491087242828,0,-17,-22,-68,-125,-91,-128,49,44
1491087242829,1,2,-10,-14,-40,-36,127,-128,-106
1491087242829,1,-5,-11,-13,71,87,-33,48,8
1491087242830,2,19,12,51,53,60,38,84,-9
1491087242830,2,13,5,6,-11,-74,-23,-73,52
1491087242832,3,-2,-8,-3,-48,20,-50,127,36
1491087242832,3,8,1,16,9,53,73,38,19
1491087242865,0,-14,-19,-89,-128,-115,-72,-2,-23
1491087242865,0,-6,-4,-16,10,70,-23,-76,-48
1491087242866,1,-19,8,51,77,104,106,104,-20
1491087242866,1,30,12,11,94,27,-81,-64,67
1491087242868,2,18,16,62,61,-7,-122,-82,-21
1491087242868,2,-18,-21,-39,4,92,127,127,18
1491087242869,0,-29,0,-8,-36,22,28,-112,-53
1491087242869,0,0,-19,-56,-65,-128,-47,6,5
1491087242903,1,11,0,30,83,106,64,55,0
1491087242903,1,17,-1,-17,-17,-41,-36,-63,-15
1491087242904,2,10,7,40,42,-27,10,-35,27
1491087242904,2,10,-3,-6,-8,27,-19,46,22
1491087242905,0,2,-9,-32,-56,8,-16,8,-7
1491087242905,0,-5,11,47,70,87,113,62,13
1491087242907,1,2,-2,43,37,58,14,-99,4
1491087242907,1,-35,-12,-42,-80,-78,-18,-10,-35
1491087242941,2,0,-8,-24,-66,31,-3,6,-15
1491087242941,2,15,5,-8,-39,-56,16,-26,4
1491087242943,3,-13,-10,-69,3,21,-76,-60,-2
1491087242943,3,26,11,45,68,86,66,-32,-17
1491087242944,0,13,8,45,47,-12,7,12,0
1491087242944,0,4,19,76,127,23,99,114,87
1491087242945,1,-35,-26,-109,-110,-98,-64,-87,-25
1491087242945,1,-11,-2,-15,1,20,69,-14,-34
1491087242978,2,24,6,25,57,-21,47,46,42
1491087242978,2,-18,-22,-23,-63,-61,-59,-73,-40
1491087242980,3,18,0,17,19,13,50,84,27
1491087242980,3,4,-9,-5,-17,-18,-23,71,12
1491087242981,0,-21,-15,-17,30,44,-50,-47,-21
1491087242981,0,-10,15,33,46,116,127,1,-5
1491087242982,1,8,11,40,61,-54,41,7,-8
1491087242982,1,0,1,-74,-105,-80,-92,-86,-36
1491087243053,2,-7,-1,-26,-40,5,100,-39,18
1491087243053,2,-2,-9,2,2,16,48,90,27
1491087243054,3,-3,-2,-19,-7,-18,-90,-105,-32
1491087243054,3,4,9,60,43,89,65,69,-7
1491087243058,0,12,8,-14,-12,-37,-16,92,14
1491087243058,0,-9,-8,-4,20,79,-52,-126,-31
1491087243060,1,7,10,21,-35,-42,11,108,37
1491087243060,1,-5,-1,-11,5,-42,16,32,12
1491087243090,2,5,2,-54,-82,-12,-95,-105,-10
1491087243090,2,-9,-4,17,32,10,47,34,8
1491087243092,3,9,8,-7,-36,-23,-103,-82,-20
1491087243092,3,6,-9,-4,2,-7,61,41,34
1491087243093,2,-27,-8,28,30,44,32,-56,-10
1491087243093,2,8,-42,0,-46,-111,-71,-4,0
1491087243094,3,13,-9,-3,51,92,54,40,12
1491087243094,3,3,-2,-20,-31,-17,-47,-36,-2
1491087243128,0,-8,18,15,18,-21,7,-1,-5
1491087243128,0,1,35,-17,-29,-46,-50,-7,-11
1491087243130,1,0,-20,11,-47,-17,14,27,9
1491087243130,1,5,-106,18,37,59,8,-20,-5
1491087243131,2,-6,-109,-2,-10,-6,-25,63,5
1491087243131,2,-6,85,-3,-21,4,1,-94,-33
1491087243132,3,-7,116,2,13,31,3,35,24
1491087243132,3,17,-17,5,14,15,12,-44,1
1491087243165,0,-2,-56,-5,-26,-24,-1,27,9
1491087243165,0,-16,61,-36,-6,-9,-19,-2,-14
1491087243167,1,10,100,42,16,-11,21,-21,6
1491087243167,1,-11,127,-14,-32,-25,-24,-54,-15
1491087243168,2,38,127,9,22,-10,19,45,36
1491087243168,2,-14,37,-13,-20,-31,-15,-8,5
1491087243169,3,-10,36,15,23,15,11,49,12
1491087243169,3,-10,-11,15,0,2,19,18,-1
1491087243203,0,8,-4,-18,32,3,-16,-36,-5
1491087243203,0,-7,-42,-33,-30,-1,-2,-2,8
1491087243204,1,3,-64,-15,-36,-36,-12,3,-8
1491087243204,1,-1,-33,26,3,-4,-10,15,-13
1491087243206,2,-6,-6,15,6,5,9,5,7
1491087243206,2,8,-57,-23,-7,-25,-22,52,9
1491087243207,3,-12,-67,0,16,10,9,5,-21
1491087243207,3,9,-25,10,7,12,19,-14,7
1491087243241,0,-21,-3,-2,-17,-3,11,40,-15
1491087243241,0,8,-50,15,-5,-28,-38,-100,-20
1491087243243,1,0,-45,7,6,18,12,12,8
1491087243243,1,-12,3,16,6,-4,-25,-16,-28
1491087243244,2,2,6,-1,13,13,16,-5,0
1491087243244,2,4,0,16,9,21,28,40,9
1491087243245,3,4,-2,-14,19,-3,-9,28,-4
1491087243245,3,-12,25,-6,6,31,27,-11,-6
1491087243278,0,-2,16,9,-23,-51,-79,-60,-19
1491087243278,0,3,-9,-21,-18,-10,-18,19,34
1491087243279,1,-9,1,1,18,9,101,-36,-20
1491087243279,1,0,-7,-14,-8,42,-78,52,7
1491087243280,2,3,11,6,-5,-26,-21,-63,-35
1491087243280,2,-13,-4,-5,-5,25,22,3,-16
1491087243281,3,11,-6,0,-2,12,58,30,46
1491087243281,3,1,-9,-38,9,-32,6,-23,5
1491087243316,0,7,14,24,17,51,103,68,17
1491087243316,0,-9,10,38,48,35,-76,-96,-17
1491087243318,1,-4,-20,-32,-36,-29,-5,-3,-24
1491087243318,1,-5,2,-7,-13,-27,-66,-17,2
1491087243319,2,5,17,27,47,94,52,113,56
1491087243319,2,5,4,-6,-47,-75,102,-66,-55
1491087243320,3,-8,4,-10,-37,-5,-73,29,12
1491087243320,3,-11,-6,-4,-12,10,87,13,3
1491087243353,0,3,-14,5,-4,-6,-52,-19,-5
1491087243353,0,1,-18,-16,3,25,-49,6,7
1491087243355,1,1,-11,17,46,17,-19,-28,-14
1491087243355,1,19,-21,13,5,47,105,2,-4
1491087243356,2,-14,-17,-27,-36,-79,-53,-17,-9
1491087243356,2,4,-19,-1,-2,39,28,67,8
1491087243357,3,0,-9,-24,-25,-44,-54,-43,-18
1491087243357,3,-12,11,23,16,3,13,60,16
1491087243391,0,4,17,24,80,71,56,21,2
1491087243391,0,2,6,-55,-112,-92,-98,-69,7
1491087243392,1,-8,-3,-3,-24,-42,11,4,-9
1491087243392,1,1,8,-6,-19,4,-1,-18,1
1491087243393,2,11,-1,3,-3,0,6,-20,6
1491087243393,2,-38,9,21,44,80,45,49,-8
1491087243394,3,17,-76,-10,14,-1,14,-9,26
1491087243394,3,-2,-77,-19,-11,-16,-26,-9,-10
1491087243428,0,7,96,1,-12,-19,-30,-60,-12
1491087243428,0,-19,64,-7,-32,9,20,30,-13
1491087243430,1,-16,127,22,9,12,43,62,7
1491087243430,1,-17,86,1,-27,-100,-50,-83,-20
1491087243431,2,6,27,-61,-78,-24,-53,-8,-7
1491087243431,2,11,24,19,44,17,34,-10,-2
1491087243432,3,16,2,15,43,27,-32,-33,-3
1491087243432,3,15,-18,-12,-13,33,77,54,17
1491087243466,0,1,-19,25,9,40,-44,2,-3
1491087243466,0,14,-18,15,47,-16,17,2,15
1491087243467,1,4,-46,-22,-68,-33,-5,7,-4
1491087243467,1,24,5,12,55,27,46,44,17
1491087243468,2,-31,-28,3,-29,-26,2,-60,-18
1491087243468,2,-4,-33,-15,-52,-45,-42,57,11
1491087243503,3,1,-80,-6,29,23,10,-19,5
1491087243503,3,-20,-93,40,-36,19,44,57,3
1491087243505,0,-15,-9,-18,51,11,-42,-95,-37
1491087243505,0,26,52,6,16,2,-3,-8,14
1491087243506,1,9,-18,-10,1,52,25,113,31
1491087243506,1,13,9,-11,-8,-44,-8,33,4
1491087243507,2,-24,37,-16,45,31,26,-6,-7
1491087243507,2,-21,88,9,10,-23,-7,-43,-12
1491087243540,3,12,125,15,3,19,-83,-15,-19
1491087243540,3,16,44,49,127,84,80,15,15
1491087243542,0,-38,-42,-2,-61,-9,41,65,-2
1491087243542,0,12,-16,-61,-80,-117,-10,-38,-5
1491087243543,1,9,1,-5,-28,-44,-31,-96,6
1491087243543,1,-19,12,-22,-43,-19,-40,-49,-46
1491087243544,2,7,-4,11,43,-43,88,20,21
1491087243544,2,1,-26,20,104,121,18,87,17
1491087243578,3,-18,-12,14,-23,-5,-49,-52,-39
1491087243578,3,11,-8,-29,-65,-76,-48,-72,7
1491087243581,0,-3,-15,-3,17,-13,54,5,1
1491087243581,0,47,-77,24,21,55,-11,87,17
1491087243586,1,-10,-114,2,0,2,68,90,12
1491087243586,1,-13,-91,2,38,37,-39,-128,-18
1491087243587,2,30,12,23,-23,-10,-55,65,32
1491087243587,2,-20,84,-34,8,47,72,-42,-16
1491087243616,3,-33,127,-3,-64,-104,65,11,-31
1491087243616,3,17,127,-24,-49,-62,-104,-2,12
1491087243617,0,-1,77,-7,43,67,83,-18,-13
1491087243617,0,-4,30,31,-18,-72,57,15,1
1491087243618,1,-54,30,-22,20,127,48,11,-6
1491087243618,1,38,-3,-4,45,-43,-75,-13,-3
1491087243653,2,7,-27,5,-76,-29,-5,-9,0
1491087243653,2,35,-61,-28,10,-32,-9,-25,29
1491087243654,3,-29,-45,19,29,39,20,-36,-23
1491087243654,3,2,-23,22,18,31,-28,10,13
1491087243655,0,16,-41,-33,-25,-70,-95,-44,-5
1491087243655,0,-33,-57,-52,-103,-36,-17,12,-32
1491087243656,1,5,-43,-4,50,-20,68,-54,-25
1491087243656,1,-45,-21,-11,60,58,-38,-8,0
1491087243692,2,15,16,48,-22,77,79,76,9
1491087243692,2,-38,-42,16,6,2,-29,40,26
1491087243693,3,10,-11,-11,5,-65,-27,-58,2
1491087243693,3,-25,-4,0,-14,-61,32,31,-45
1491087243694,0,17,-2,0,-5,40,7,81,60
1491087243694,0,-8,-18,-1,-10,-11,-24,-85,-29
1491087243695,1,60,3,28,0,-25,-42,110,43
1491087243695,1,-19,8,-34,-54,10,-9,-58,1
1491087243728,2,5,-12,-11,-37,-100,-13,-11,-61
1491087243728,2,13,5,11,51,19,-49,27,20
1491087243729,3,-1,10,-2,-6,-5,-47,-74,-25
1491087243729,3,-32,-9,19,39,69,71,45,15
1491087243730,0,-1,-20,-4,-70,67,48,31,40
1491087243730,0,9,12,11,64,-13,41,8,-5
1491087243731,1,-37,-24,-41,-39,-37,-66,-47,-32
1491087243731,1,30,16,2,5,25,12,-87,-16
1491087243766,2,-19,-12,19,37,3,-56,-22,1
1491087243766,2,4,-19,-34,-20,30,127,39,-3
1491087243767,3,-31,18,48,-19,-43,-118,-16,-2
1491087243767,3,36,-5,-61,-99,-99,44,-15,6
1491087243768,0,5,11,10,98,-36,62,68,0
1491087243768,0,31,9,-10,-67,8,-102,-101,0
1491087243803,1,13,-3,-18,-5,9,66,14,-8
1491087243803,1,-69,-7,-5,-66,-64,-11,15,-20
1491087243804,2,40,3,3,25,29,-21,-49,-4
1491087243804,2,-39,-12,8,-11,-47,0,124,-7
1491087243805,3,48,20,-2,51,86,21,-8,60
1491087243805,3,1,6,53,74,37,81,13,4
1491087243806,0,-37,-31,-34,-19,54,100,85,17
1491087243806,0,-36,1,-11,-36,-56,-99,-109,-30
1491087243840,1,47,0,10,56,26,112,110,19
1491087243840,1,13,-17,-25,-75,15,90,63,21
1491087243841,2,-15,-4,-5,16,-23,-66,-125,-43
1491087243841,2,-26,-11,10,-15,-24,-4,-21,-32
1491087243842,3,26,0,-4,-5,50,38,105,70
1491087243842,3,32,8,-26,25,-39,-78,1,-6
1491087243844,0,-34,-8,-20,36,32,9,-86,-32
1491087243844,0,24,-6,32,48,22,29,3,4
1491087243878,1,-10,-11,-31,-15,5,19,79,17
1491087243878,1,3,36,68,28,23,-14,-27,9
1491087243879,2,0,-1,-9,-65,-124,-121,-102,-18
1491087243879,2,2,4,6,29,11,76,75,9
1491087243880,3,-49,-9,20,-14,-8,-30,30,-23
1491087243880,3,26,-4,-11,25,43,55,35,19
1491087243881,0,-21,-13,-35,-46,-61,-114,63,-4
1491087243881,0,2,20,-2,-11,-22,48,-99,-1
1491087243953,1,-32,-32,-43,-62,-24,37,-11,-41
1491087243953,1,75,46,60,42,19,30,5,34
1491087243954,2,-18,-5,7,52,94,-19,36,1
1491087243954,2,52,14,33,65,107,117,-60,-8
1491087243955,3,-23,16,27,54,-61,-121,11,-2
1491087243955,3,-68,-32,-40,-41,31,-22,10,-55
1491087243956,0,73,20,17,-23,-46,107,111,70
1491087243956,0,-22,-10,-27,-68,-47,-63,-73,-14
1491087243990,1,-33,-50,-31,25,102,56,-32,-10
1491087243990,1,38,66,56,0,-77,-116,12,-1
1491087243991,2,-56,-7,19,-29,-86,44,-38,-55
1491087243991,2,-13,-7,10,-45,-46,28,114,39
1491087244028,0,-69,-25,-25,11,-2,-16,44,-19
1491087244028,0,35,19,52,-34,-72,-15,-82,-8
1491087244029,1,-6,-3,-28,58,-7,26,-9,-22
1491087244029,1,-9,9,-2,-33,8,23,23,14
1491087244030,2,20,-6,-11,21,9,12,-90,-9
1491087244030,2,-84,-28,-45,-29,-50,-41,107,8
1491087244031,3,75,10,10,-52,-38,-59,-42,15
1491087244031,3,-10,-14,9,51,66,89,42,-27
1491087244066,0,6,11,23,54,29,57,-121,-39
1491087244066,0,-7,-16,10,-26,-1,-46,112,45
1491087244068,1,40,26,-30,-21,-5,-14,-128,-18
1491087244068,1,-21,-27,-12,-30,-112,-128,-43,-12
1491087244069,2,50,0,-36,-57,6,76,56,21
1491087244069,2,-54,-14,-1,31,14,-100,19,-33
1491087244070,0,-17,4,50,45,27,70,122,39
1491087244070,0,66,7,-24,0,-105,-77,-108,-40
1491087244103,1,-80,-3,-42,-63,16,40,56,-31
1491087244103,1,10,-11,8,77,50,37,-25,26
1491087244104,2,-10,-24,-14,-67,-86,80,86,44
1491087244104,2,56,28,57,124,127,-62,-79,-44
1491087244105,3,-26,-2,18,-79,-128,-65,23,-14
1491087244105,3,45,-16,-59,1,-10,74,95,10
1491087244106,0,-3,26,15,48,24,52,-16,-15
1491087244106,0,52,6,49,26,23,4,-77,64
1491087244140,1,-13,-10,-55,-64,-46,-128,-15,-13
1491087244140,1,-46,-39,-39,64,62,66,-49,-72
1491087244142,2,26,-2,-14,-12,-5,-128,-9,22
1491087244142,2,-40,-20,28,32,122,127,31,-39
1491087244143,3,72,-33,79,116,73,-67,11,63
1491087244143,3,-13,-74,-39,-101,-128,84,-14,-7
1491087244144,0,3,-117,2,32,0,-125,3,3
1491087244144,0,12,-110,-65,-71,-79,-47,-76,7
1491087244215,1,-24,-90,38,-19,-34,112,111,42
1491087244215,1,48,-101,53,40,-66,42,58,5
1491087244216,2,-13,-54,-97,-108,-100,-89,-126,-54
1491087244216,2,1,71,0,15,97,127,73,32
1491087244217,3,-19,97,-23,22,-23,16,-75,-35
1491087244217,3,40,127,36,47,102,84,56,26
1491087244218,0,-52,127,37,3,97,116,-59,-20
1491087244218,0,3,101,20,-27,-111,-111,86,4
1491087244252,1,15,122,-5,-15,4,-31,-33,5
1491087244252,1,-16,85,48,67,69,-6,-8,31
1491087244290,2,6,47,-44,-72,-97,-33,19,-35
1491087244290,2,-29,29,9,74,121,127,-16,-10
1491087244291,2,2,-19,-60,-29,-82,-128,-57,6
1491087244291,2,-4,-6,34,5,-38,109,58,-3
1491087244291,3,3,-49,-18,15,25,71,-63,-59
1491087244291,3,-17,-11,8,-70,-3,-35,97,72
1491087244292,0,-1,-25,-64,-80,-114,-75,-45,-32
1491087244292,0,36,-18,-39,-39,59,40,-108,13
1491087244327,1,-19,-26,8,49,25,3,28,18
1491087244327,1,-15,-9,1,33,9,8,-50,-48
1491087244328,2,5,-11,38,49,62,97,41,-4
1491087244328,2,-12,-5,24,-38,-10,-50,13,5
1491087244329,3,-12,-9,-12,11,2,19,1,-3
1491087244329,3,21,9,45,48,-1,-25,-14,22
1491087244330,2,-5,6,7,57,83,16,42,-6
1491087244330,2,-4,-4,69,60,61,127,-33,-5
1491087244365,3,19,6,47,63,85,-14,36,37
1491087244365,3,-11,-16,-55,-46,-121,-109,27,17
1491087244366,0,10,1,12,-9,-13,24,-35,-15
1491087244366,0,2,0,-6,1,-25,-14,19,2
1491087244366,2,8,0,-3,-44,-72,-20,-77,10
1491087244366,2,-7,-5,1,8,-32,54,-24,-32
1491087244367,3,8,-1,-9,-26,-6,44,2,0
1491087244367,3,-2,7,25,19,7,45,-31,11
1491087244402,0,-19,-5,-36,-83,-60,15,57,-13
1491087244402,0,-17,-12,-35,-27,-52,-66,9,5
1491087244403,1,66,34,57,121,124,57,7,24
1491087244403,1,0,5,-3,-37,-73,1,36,21
1491087244404,2,-6,-7,-36,-34,-68,-80,-97,-32
1491087244404,2,-18,-2,-9,20,59,39,76,6
1491087244405,3,13,3,26,-3,25,-20,55,12
1491087244405,3,-7,18,42,76,106,75,-18,0
1491087244440,0,14,11,35,28,20,70,40,22
1491087244440,0,4,-7,-47,3,17,-38,-35,-10
1491087244441,1,-12,-4,-21,-50,-104,15,-46,-7
1491087244441,1,-15,-2,53,4,-128,-20,39,6
1491087244441,2,-11,-28,-73,-64,8,-12,-23,-17
1491087244441,2,8,8,23,12,61,87,95,17
1491087244442,3,-26,-4,-38,16,-128,-128,-118,-29
1491087244442,3,-30,13,6,18,8,127,-51,-41
1491087244477,0,56,30,84,127,109,71,54,56
1491087244477,0,2,19,-1,-95,-65,23,41,31
1491087244479,1,5,-9,-71,-58,-52,-95,-30,-28
1491087244479,1,-9,2,17,10,51,6,3,-9
1491087244479,2,1,-2,1,15,6,6,46,-1
1491087244479,2,9,3,-12,2,3,-27,-46,-9
1491087244590,3,0,-1,45,59,54,55,12,21
1491087244590,3,-3,-28,-95,-121,-119,-128,-20,-19
1491087244591,0,-16,-17,3,-10,10,57,6,-6
1491087244591,0,9,-18,-27,5,-37,-17,-56,-7
1491087244592,1,-3,-6,12,20,35,21,24,3
1491087244592,1,-4,-10,30,0,45,9,3,-4
1491087244592,2,-27,-34,-52,34,14,4,18,-8
1491087244592,2,-2,3,20,-4,8,-41,-71,-15
1491087244627,3,8,-5,3,-45,-11,21,46,16
1491087244627,3,-15,-19,-14,-12,-30,36,-21,-4
1491087244629,0,8,6,15,-16,65,-39,29,17
1491087244629,0,-11,-27,-39,-15,-76,22,4,-25
1491087244629,1,0,-18,-2,-21,-6,0,-72,-15
1491087244629,1,3,-22,-9,33,5,1,-13,-5
1491087244630,0,-3,0,8,-55,-43,-24,-17,-15
1491087244630,0,-19,-23,4,10,9,14,11,-12
1491087244665,1,-10,2,-8,6,17,-2,-12,-1
1491087244665,1,0,-6,-19,9,16,-23,-21,-1
1491087244667,2,13,22,37,0,-13,-5,-13,16
1491087244667,2,-16,-9,-16,11,7,-6,6,-15
1491087244668,3,-5,1,-30,-8,12,8,9,0
1491087244668,3,-23,1,28,-17,-20,-19,-26,-27
1491087244669,0,-2,3,2,23,4,19,2,-6
1491087244669,0,14,3,2,-19,-6,-9,-1,16
1491087244703,1,-6,-5,1,20,-2,-13,16,0
1491087244703,1,-1,4,-11,-24,5,6,-26,-4
1491087244704,2,15,5,-7,-5,1,7,7,5
1491087244704,2,6,9,5,36,26,14,4,3
1491087244705,3,-13,-31,-54,3,10,8,-2,-2
1491087244705,3,3,21,20,-54,-24,-11,0,-7
1491087244706,0,6,-2,5,12,-8,-2,-1,-5
1491087244706,0,5,5,40,8,11,-6,-5,3
1491087244740,1,3,22,25,-21,-12,-4,-22,-5
1491087244740,1,-1,-19,-38,70,27,3,16,5
1491087244743,2,2,2,12,-50,-48,15,4,1
1491087244743,2,0,-2,-20,-18,-21,-39,-6,3
1491087244744,3,-2,-29,11,8,11,11,-14,-10
1491087244744,3,-9,-48,28,59,38,-23,25,2
1491087244745,0,12,-35,-16,-31,-4,-9,-15,1
1491087244745,0,-10,-43,10,-48,-29,-25,-43,-12
1491087244778,1,6,-16,18,0,3,40,26,-10
1491087244778,1,4,-22,-10,-30,-8,30,-13,-4
1491087244779,2,5,-75,0,59,22,-34,31,21
1491087244779,2,-4,-116,-31,13,9,31,-10,-7
1491087244780,3,-8,-128,-9,-30,-6,-8,5,-13
1491087244780,3,2,-128,-6,3,-1,17,25,15
1491087244781,0,-2,-123,6,22,0,-27,-13,10
1491087244781,0,-6,-5,-6,25,14,30,60,8
1491087244815,1,-4,69,8,5,-26,-3,-53,-15
1491087244815,1,5,120,-17,2,4,2,-28,-1
1491087244817,2,-6,127,20,18,-14,11,17,1
1491087244817,2,-7,107,4,3,17,7,-18,5
1491087244819,3,-7,121,-31,-2,0,56,127,38
1491087244819,3,4,127,15,-1,-17,24,-38,3
1491087244820,0,-4,127,3,0,-21,-77,-65,-23
1491087244820,0,-4,127,25,20,21,83,68,3
1491087244852,1,5,127,1,-14,-9,-92,-42,0
1491087244852,1,-11,81,-30,6,-5,31,-18,-13
1491087244853,2,1,54,-17,2,33,92,29,22
1491087244853,2,4,12,24,28,29,6,12,2
1491087244854,3,-13,-56,-28,-39,-21,-15,-40,-30
1491087244854,3,6,-54,4,-13,-22,-67,8,35
1491087244855,0,-16,-67,5,-19,-17,33,39,-36
1491087244855,0,-11,-73,4,19,50,-11,-5,-9
1491087244890,1,6,-64,-7,-13,-1,-7,-38,6
1491087244890,1,6,-81,13,-1,-23,-78,71,9
1491087244890,2,-12,-66,5,-5,5,60,-22,-13
1491087244890,2,7,-59,-19,18,-6,-11,-35,11
1491087244891,3,-6,-58,-3,-8,2,40,-23,-4
1491087244891,3,-2,-52,-2,-15,-26,50,75,5
1491087244892,0,-10,-25,-12,-28,-2,-75,-80,-15
1491087244892,0,-3,-31,-4,-31,-19,6,20,-11
1491087244927,1,15,-10,11,23,31,90,-65,5
1491087244927,1,-16,-13,1,4,-59,11,-39,-22
1491087244928,2,14,-15,4,33,8,24,29,7
1491087244928,2,-28,-18,-26,-17,-9,-7,-77,-38
1491087244929,3,20,-4,23,20,62,57,92,45
1491087244929,3,0,-4,4,28,17,26,-17,1
1491087244930,0,-30,-19,-44,-72,-52,-51,-12,-6
1491087244930,0,4,-4,24,-8,-60,11,8,1
1491087244965,1,0,-27,-9,21,-13,-66,5,-11
1491087244965,1,16,-3,0,-29,15,-51,-31,-5
1491087245002,2,22,-7,-5,18,9,47,-39,14
1491087245002,2,-6,-5,-8,-37,30,35,89,13
1491087245003,3,-18,6,-1,-23,-94,-89,-16,-14
1491087245003,3,-6,-19,16,45,74,84,5,-7
1491087245003,0,7,8,-8,-15,-6,73,85,17
1491087245003,0,-10,4,3,21,54,-29,-86,-30
1491087245005,1,-26,-18,8,-14,-32,20,12,-15
1491087245005,1,27,-12,-62,-52,-34,-73,15,19
1491087245040,2,2,16,51,52,25,-5,-33,-1
1491087245040,2,28,0,21,-40,31,45,81,42
1491087245040,3,-40,-19,-18,45,31,36,32,-16
1491087245040,3,-24,-13,-28,-54,-49,-83,-29,-53
1491087245041,0,23,3,21,35,-11,-33,-14,22
1491087245041,0,-30,-12,-53,-78,-71,-20,-54,-17
1491087245042,1,28,14,15,24,29,-24,-7,7
1491087245042,1,25,16,78,34,82,46,-99,0
1491087245077,2,-60,3,-31,29,-27,-43,70,-12
1491087245077,2,44,-4,-7,10,-14,66,12,-5
1491087245079,3,15,4,33,59,28,-110,-30,27
1491087245079,3,21,4,-50,-53,7,-19,-35,13
1491087245081,1,50,0,-37,-62,17,30,34,-2
1491087245081,1,2,9,72,125,29,4,-45,25
1491087245081,2,9,-6,-23,-81,-82,28,45,6
1491087245081,2,-7,13,-16,-30,-88,-76,-49,-12
1491087245115,3,-15,-20,-20,-8,8,20,19,-34
1491087245115,3,-6,13,2,-48,13,42,103,41
1491087245152,0,-6,-22,6,21,14,47,-20,-3
1491087245152,0,-26,-11,2,64,92,-71,-76,0
1491087245153,1,10,12,1,42,-17,21,-85,-38
1491087245153,1,-11,4,-4,-23,-14,-30,-50,-13
1491087245154,2,13,-11,-12,5,34,7,74,19
1491087245154,2,6,18,37,14,11,105,75,19
1491087245155,3,-19,-10,28,18,74,-45,-33,17
1491087245155,3,-31,-28,-43,-37,-66,6,-47,-32
1491087245190,0,-13,-21,-29,-35,-55,-39,-50,-9
1491087245190,0,16,-2,-10,18,-9,26,-13,-35
1491087245191,1,-19,29,41,59,25,79,100,20
1491087245191,1,-3,16,22,-41,33,113,46,-8
1491087245191,0,-9,43,86,78,120,-35,-77,5
1491087245191,0,26,0,-28,16,21,87,23,-8
1491087245193,1,-31,2,7,-7,-3,96,43,23
1491087245193,1,-39,-9,-4,-3,-41,-13,-6,-18
1491087245227,2,48,29,40,86,99,54,127,41
1491087245227,2,3,-2,-17,-103,-40,-116,-107,-15
1491087245229,3,-45,-24,-31,-75,-123,-78,-48,-26
1491087245229,3,14,-13,-27,7,34,21,41,0
1491087245230,0,-6,15,29,17,6,95,58,-7
1491087245230,0,9,1,31,38,-21,-59,-31,35
1491087245231,1,16,-9,-47,-100,-12,37,9,5
1491087245231,1,-45,-23,5,29,-32,-1,-19,-30
1491087245265,2,6,-3,1,-2,53,31,-1,6
1491087245265,2,-16,-5,34,50,33,14,49,-5
1491087245266,3,47,11,-9,28,20,-53,21,34
1491087245266,3,-54,-4,-1,-31,-59,4,-2,-33
1491087245266,0,28,2,7,-97,-69,11,-8,-8
1491087245266,0,61,19,28,46,-26,54,90,42
1491087245302,1,-28,-10,-29,17,-16,-41,-15,-2
1491087245302,1,-8,-6,-8,2,-10,-39,-48,-15
1491087245303,2,-22,13,-4,16,13,-14,-128,-42
1491087245303,2,-14,-4,-1,40,12,-17,116,10
1491087245304,3,21,-4,-32,-90,-28,40,-76,-12
1491087245304,3,8,30,9,6,73,-46,-71,-7
1491087245305,0,-64,-45,-35,3,-78,16,28,-34
1491087245305,0,37,10,1,17,48,24,35,20
1491087245340,1,31,32,56,3,24,0,127,64
1491087245340,1,-22,-19,-18,8,-14,-60,-86,-54
1491087245341,2,54,22,33,-47,-21,72,16,31
1491087245341,2,-64,-24,-49,14,-86,-75,-35,-35
1491087245341,3,-56,-23,-7,12,13,80,-14,-33
1491087245341,3,47,32,45,-9,42,117,-7,11
1491087245342,0,11,17,-3,19,-88,-99,-80,43
1491087245342,0,-65,-16,-57,-82,-41,15,-14,-86
1491087245415,1,29,-7,8,4,7,18,-20,-2
1491087245415,1,14,-20,-1,60,65,12,38,59
1491087245415,2,-12,-17,6,-24,-27,25,-9,-12
1491087245415,2,8,1,30,-2,98,108,-16,45
1491087245416,3,7,-7,-42,-31,-78,-119,6,-31
1491087245416,3,15,31,44,69,94,-15,93,30
1491087245417,0,-4,-9,-2,38,9,10,-77,-3
1491087245417,0,-16,19,39,-7,84,23,31,9
1491087245565,1,-17,-14,5,33,-30,65,86,-2
1491087245565,1,33,-17,-39,-85,-110,-115,-92,16
1491087245566,2,-58,-7,-52,-49,-51,14,42,-15
1491087245566,2,-29,-19,-30,-53,-40,51,-66,-54
1491087245566,3,32,25,35,33,34,-5,-60,-7
1491087245566,3,-65,-12,-2,72,23,22,98,-12
1491087245567,2,15,10,2,12,5,24,-44,-27
1491087245567,2,-23,22,57,64,87,-3,-42,15
1491087245603,3,26,-27,0,21,-25,-36,9,32
1491087245603,3,-28,-5,-70,-92,-59,0,-93,-52
1491087245604,0,-34,-30,-41,22,-17,-53,-7,-17
1491087245604,0,25,-1,-20,-38,-39,30,72,40
1491087245605,2,-39,-95,3,-27,32,84,116,-14
1491087245605,2,64,-116,-34,-29,-80,-128,-118,5
1491087245605,1,-9,60,-30,-38,-78,-61,-102,-43
1491087245605,1,7,11,37,111,127,127,15,-28
1491087245640,2,-1,9,37,-32,-2,-87,18,52
1491087245640,2,22,-44,72,18,-7,101,-19,24
1491087245641,3,-14,-126,-112,-128,-94,-47,-26,-7
1491087245641,3,-44,-128,2,55,23,7,-37,-78
1491087245641,1,6,2,32,60,76,38,110,51
1491087245641,1,-10,60,-5,28,-44,10,52,40
1491087245642,2,17,73,-13,-39,-62,-8,-90,-35
1491087245642,2,-9,127,44,19,75,-12,13,2
1491087245715,3,-8,114,45,39,-29,15,-115,-66
1491087245715,3,26,127,-57,-85,-20,-15,44,46
1491087245716,0,-4,126,31,81,125,108,87,34
1491087245716,0,-44,125,-71,-109,-108,-128,-107,-67
1491087245717,1,93,117,-36,-32,-23,127,127,48
1491087245717,1,-39,53,28,21,32,-8,-15,20
1491087245718,2,-58,-12,10,43,43,22,-108,-54
1491087245718,2,71,-12,29,73,49,51,108,65
1491087245753,3,-63,-87,-4,35,32,-44,48,-9
1491087245753,3,31,-110,-23,-77,-54,16,-1,-3
1491087245754,0,36,-90,-32,0,-11,-85,-115,3
1491087245754,0,-3,-71,25,28,-58,-8,95,-13
1491087245755,1,-14,-84,-7,-51,-11,-4,-88,-32
1491087245755,1,4,-95,41,13,63,-32,75,25
1491087245756,0,1,-111,-9,23,43,-71,-28,-18
1491087245756,0,21,-31,-2,6,37,79,-5,9
1491087245790,1,-64,92,-27,-60,-46,-58,-11,-48
1491087245790,1,-4,127,78,96,46,54,-17,13
1491087245801,2,-25,127,-19,-44,-10,33,55,-6
1491087245801,2,-7,106,-28,0,-60,21,-26,-33
1491087245802,0,9,-7,24,-60,-95,51,65,48
1491087245802,0,-27,-46,-94,-120,-104,-100,-68,-51
1491087245803,1,47,-45,9,32,60,76,-17,-51
1491087245803,1,26,-36,-1,-17,-45,17,-50,20
1491087245828,2,-15,-34,-6,35,55,113,77,9
1491087245828,2,-29,-39,5,-37,-29,-47,-78,-21
1491087245829,3,77,-38,-39,51,-11,44,37,47
1491087245829,3,-17,-48,34,19,36,18,41,-20
1491087245830,0,10,-34,33,10,112,58,60,23
1491087245830,0,-27,-44,-38,-30,-109,-83,-103,1
1491087245832,1,-53,-56,3,12,24,61,-45,-75
1491087245832,1,25,-43,3,22,98,113,63,52
1491087245865,2,-14,-17,-21,-92,-123,-128,-99,-36
1491087245865,2,-13,-43,-20,35,29,-30,-63,-10
1491087245866,3,-21,-30,10,23,4,88,67,3
1491087245866,3,3,-16,0,-31,-71,-1,-20,-2
1491087245867,0,4,14,8,67,59,16,-82,-24
1491087245867,0,1,7,-31,-46,5,-48,18,-2
1491087245868,1,27,18,17,-9,36,-75,41,36
1491087245868,1,-26,11,45,52,6,51,-65,-41
1491087245903,2,37,-33,-56,-78,-70,-31,-13,8
1491087245903,2,-5,-65,51,43,39,29,18,4
1491087245904,3,-8,-98,-19,-37,-42,-49,11,18
1491087245904,3,24,-67,40,1,68,56,14,-3
1491087245905,0,1,-54,-17,74,33,-100,23,9
1491087245905,0,-8,7,-23,-33,-39,18,-15,7
1491087245906,1,-8,82,17,14,22,78,48,6
1491087245906,1,13,127,-40,11,-91,-128,15,16
1491087245940,2,-10,127,52,50,82,127,-24,-23
1491087245940,2,22,106,-24,26,-1,-45,127,70
1491087245941,3,-17,54,-35,-58,-110,-13,-128,-45
1491087245941,3,-8,43,18,25,-15,9,29,-17
1491087245942,0,3,15,-7,24,112,-21,3,9
1491087245942,0,2,-4,27,36,29,20,60,20
1491087245945,1,20,-22,47,57,68,0,-8,33
1491087245945,1,-15,-41,-31,-18,-7,-80,-17,-25
1491087246015,2,5,-39,-36,-84,-115,-35,26,6
1491087246015,2,32,-15,27,-33,49,-20,-5,-2
1491087246016,3,-32,-34,0,56,15,57,-30,-11
1491087246016,3,-11,-33,-24,-69,-90,-74,-12,-4
1491087246017,0,8,-20,-8,-18,-1,48,19,-9
1491087246017,0,-11,-25,8,26,6,45,-37,-3
1491087246018,1,5,-11,-3,-11,-2,6,-12,8
1491087246018,1,17,-5,24,6,-7,8,-39,3
1491087246053,2,7,3,15,29,77,60,70,10
1491087246053,2,-1,-4,-14,11,-32,-50,-26,-14
1491087246054,3,-18,-13,-28,-48,-5,7,5,3
1491087246054,3,-16,-6,14,15,-29,-10,23,-8
1491087246055,0,17,4,-21,-31,-86,-36,-51,-1
1491087246055,0,17,5,56,93,97,102,59,22
1491087246056,2,-33,-9,33,46,20,-3,-6,-21
1491087246056,2,10,1,35,73,52,52,20,2
1491087246091,3,-10,3,-26,-87,-62,-58,-50,-16
1491087246091,3,12,4,21,73,98,77,53,19
1491087246093,0,-13,-29,-61,-50,-128,-82,-12,2
1491087246093,0,-12,-5,-11,-39,2,40,-36,-19
1491087246094,2,1,14,44,45,28,28,61,9
1491087246094,2,-14,0,-29,-42,-42,-61,-63,-7
1491087246095,3,6,-10,-30,-12,-31,14,48,-5
1491087246095,3,-2,1,4,9,13,20,-32,-3
1491087246127,0,9,-1,10,0,11,8,-6,3
1491087246127,0,11,2,-16,-16,-36,30,26,8
1491087246128,1,-11,-4,-27,-80,-92,-82,-91,-26
1491087246128,1,-5,-5,7,29,-23,-28,45,7
1491087246129,2,-2,1,10,-10,7,22,-41,-37
1491087246129,2,20,3,-7,-13,46,37,-1,10
1491087246130,3,-25,-13,-12,13,35,2,67,7
1491087246130,3,11,9,-2,-20,-15,12,-21,9
1491087246165,0,3,-9,17,66,46,-3,-17,-10
1491087246165,0,1,-6,11,-28,-21,-24,-7,3
1491087246167,1,13,-6,5,38,2,-21,3,1
1491087246167,1,-10,-15,-4,-4,13,64,9,-3
1491087246168,2,5,-9,-49,-26,-38,-71,3,19
1491087246168,2,-13,6,43,40,16,37,-9,-29
1491087246168,3,22,7,-13,-8,-31,-7,12,26
1491087246168,3,10,5,19,50,44,9,-6,-5
1491087246202,0,-7,1,13,22,47,41,26,24
1491087246202,0,-4,0,-39,-109,-94,-50,-5,-12
1491087246203,1,-32,5,12,50,45,10,-2,-21
1491087246203,1,0,0,-2,-48,-11,-11,-1,-13
1491087246204,2,3,2,11,-30,-5,8,4,6
1491087246204,2,1,-26,-19,27,20,16,39,2
1491087246206,3,1,-15,0,16,5,-22,15,-7
1491087246206,3,-24,-14,1,43,70,30,25,-8
1491087246240,0,-4,-11,12,-53,-45,-25,-39,-10
1491087246240,0,-16,-5,-32,-17,-36,8,-18,-12
1491087246242,1,-10,10,35,-7,5,-23,-11,-5
1491087246242,1,-8,-5,-5,19,27,17,4,1
1491087246242,2,15,11,-16,2,10,1,11,-14
1491087246242,2,-10,13,7,-29,-22,-17,-14,-2
1491087246243,3,57,13,16,7,15,40,15,35
1491087246243,3,-4,9,7,-26,-24,-46,-33,-12
1491087246277,0,-27,12,7,15,38,17,20,-11
1491087246277,0,-19,-5,-16,-22,-4,-30,-6,-11
1491087246278,1,3,-2,12,41,8,10,-1,0
1491087246278,1,0,-11,-34,-16,-58,-80,-21,-17
1491087246279,2,12,8,-13,-12,21,39,1,5
1491087246279,2,23,7,67,30,-18,-14,3,13
1491087246280,3,-27,-3,-6,3,42,-5,-33,-8
1491087246280,3,-7,-4,-5,27,-16,7,23,-10
1491087246315,0,-14,-8,-2,-34,-11,10,-39,-6
1491087246315,0,13,6,-29,-26,-32,-43,4,6
1491087246315,1,0,7,16,7,-19,13,-25,4
1491087246315,1,2,2,23,52,28,51,62,21
1491087246316,2,17,17,-15,9,-60,-31,-17,3
1491087246316,2,-15,-11,-30,-23,-24,51,37,7
1491087246317,3,-34,-14,-9,-20,-44,-44,-5,-25
1491087246317,3,16,-6,-26,-27,9,15,-31,2
1491087246352,0,11,6,34,37,25,0,24,24
1491087246352,0,2,-12,-13,-1,25,8,-8,2
1491087246353,1,1,-3,-30,-27,-20,34,24,-3
1491087246353,1,-24,-6,47,52,86,43,-10,-6
1491087246354,2,19,-16,-39,-73,-88,-31,-21,-6
1491087246354,2,-13,-4,-13,16,9,35,19,1
1491087246390,3,-22,3,-5,7,-24,-28,-10,-6
1491087246390,3,19,11,25,45,38,6,-4,15
1491087246391,0,-12,-5,8,-7,9,41,-22,-12
1491087246391,0,-7,0,-3,4,27,8,44,6
1491087246391,1,15,0,-7,-22,-46,16,-33,10
1491087246391,1,15,-5,-17,-34,-35,-13,2,-18
1491087246392,2,6,6,13,42,36,-14,-9,-10
1491087246392,2,21,-2,7,47,49,22,8,12
1491087246427,3,-17,4,23,6,78,79,48,15
1491087246427,3,0,8,-29,-68,-102,-33,-23,5
1491087246428,0,-10,-3,-23,-9,-38,1,-14,-11
1491087246428,0,-7,1,6,17,3,20,-5,-21
1491087246429,1,3,-6,-3,30,68,15,32,9
1491087246429,1,24,17,28,-27,-6,-10,-22,9
1491087246430,2,-11,-14,-24,-11,38,60,17,-3
1491087246430,2,5,3,-11,-21,-72,-109,-48,-1
1491087246465,3,-1,-7,10,26,5,79,-25,3
1491087246465,3,-34,-20,-30,-40,4,60,14,-8
1491087246466,0,-1,-10,-22,-73,-79,-55,0,-16
1491087246466,0,2,2,20,10,28,37,-8,7
1491087246467,1,26,1,-15,-22,-16,-46,19,-4
1491087246467,1,13,8,-3,10,-45,-69,-49,3
1491087246468,2,11,2,42,61,79,47,4,19
1491087246468,2,-17,1,-8,-3,53,74,10,-24
1491087246502,3,-7,-11,-11,-8,-41,-82,8,-5
1491087246502,3,-17,6,17,63,66,53,-65,-22
1491087246503,0,7,-3,-32,-35,-54,-8,32,0
1491087246503,0,17,1,-16,-27,-48,-97,-18,2
1491087246504,1,-19,-15,40,8,10,110,14,-3
1491087246504,1,-11,-6,-35,-50,-54,-77,25,-20
1491087246540,2,8,5,21,-8,35,19,17,25
1491087246540,2,15,7,-13,9,8,21,-12,5
1491087246541,3,31,11,-1,2,-8,28,-52,-13
1491087246541,3,-7,-6,3,-42,-19,32,-13,10
1491087246541,0,-20,2,-7,23,23,10,-6,-21
1491087246541,0,-21,-10,6,6,-5,123,82,9
1491087246542,1,1,-2,-9,6,16,-115,-47,-16
1491087246542,1,10,17,25,25,51,-10,-26,19
1491087246577,2,-24,-14,-33,-6,-18,-20,-17,-31
1491087246577,2,-13,0,21,34,104,36,0,-1
1491087246579,3,8,0,-20,-75,-120,-26,39,20
1491087246579,3,14,0,28,49,36,69,-21,-22
1491087246580,0,-21,-8,-1,-44,13,-81,19,-4
1491087246580,0,-2,-4,-30,-20,16,-22,-23,-13
1491087246580,1,-6,-9,-7,25,39,119,-4,18
1491087246580,1,-8,-9,-37,-85,-41,-35,30,-14
1491087246615,2,19,6,43,95,13,-40,0,21
1491087246615,2,-15,-14,11,-64,-74,-21,-1,-10
1491087246616,3,13,25,39,95,66,44,57,31
1491087246616,3,9,0,-28,-91,-54,27,-4,-7
1491087246616,0,-16,-19,-1,98,94,68,-38,-11
1491087246616,0,14,2,-22,-27,-103,-66,9,12
1491087246617,1,-3,-12,-4,-3,-106,-103,-82,-9
1491087246617,1,-13,-4,-23,-1,-95,-5,113,10
1491087246652,2,70,3,34,2,49,58,-1,14
1491087246652,2,9,-5,9,28,38,-101,9,-3
1491087246690,3,28,8,-5,-53,9,123,-1,11
1491087246690,3,-13,-7,-30,12,18,-38,14,21
1491087246691,0,-15,-3,6,18,44,119,76,3
1491087246691,0,0,-5,-13,16,-47,-4,107,38
1491087246691,1,-10,11,16,-16,-21,25,-97,-30
1491087246691,1,21,-5,-2,2,85,18,-27,-14
1491087246692,2,-43,-5,12,12,-125,3,82,26
1491087246692,2,18,-2,12,27,70,-43,-128,-44
1491087246728,3,-12,-8,-22,-6,20,18,68,3
1491087246728,3,13,-1,20,14,11,18,-3,43
1491087246729,0,25,30,-3,-35,51,52,31,8
1491087246729,0,-5,2,4,-32,-99,-29,-70,-17
1491087246730,1,12,-4,-25,-38,-16,45,68,3
1491087246730,1,-13,6,51,86,84,46,-90,0
1491087246730,2,33,-7,-23,-14,-24,-92,-8,1
1491087246730,2,-45,-19,-52,-90,-95,-57,-13,-5
1491087246765,3,-10,-11,-22,68,31,19,-16,-29
1491087246765,3,-17,-1,39,33,-16,11,-37,-46
1491087246766,0,-7,8,7,-73,14,-108,-16,23
1491087246766,0,-32,-16,-29,-14,33,79,77,-4
1491087246766,1,-11,24,9,40,51,-102,18,-6
1491087246766,1,28,4,15,35,53,46,20,22
1491087246767,2,-6,5,24,33,-12,57,-51,-7
1491087246767,2,25,15,37,50,47,55,29,36
1491087246802,3,-69,-33,-25,-19,93,109,-49,-26
1491087246802,3,31,9,-7,-28,-31,-128,29,40
1491087246803,0,5,0,-8,-18,-97,89,-21,-47
1491087246803,0,-4,3,-24,-56,21,71,-110,-20
1491087246804,1,7,-11,8,6,-105,-31,32,-6
1491087246804,1,-63,-18,-29,-67,18,-37,6,-36
1491087246840,2,4,-25,-28,27,36,-67,-40,0
1491087246840,2,12,6,44,63,19,75,83,23
1491087246841,3,-6,-11,22,-20,53,-66,-17,24
1491087246841,3,0,-14,-79,12,-10,-4,-17,-9
1491087246841,0,-32,2,-18,-61,-79,-47,-78,-25
1491087246841,0,18,9,29,70,40,-11,-2,10
1491087246842,1,-16,6,34,-27,83,78,70,16
1491087246842,1,-42,-35,-3,49,-128,-18,-38,-11
1491087246877,2,30,38,5,-19,59,48,28,21
1491087246877,2,-11,-14,-13,-55,-90,-40,-95,-50
1491087246878,3,28,-1,-47,-48,-19,73,23,-12
1491087246878,3,-27,3,44,23,60,30,-66,-17
1491087246879,0,-18,-18,-9,12,-9,29,116,27
1491087246879,0,-1,9,20,3,41,40,76,30
1491087246880,1,7,15,0,-11,-32,-91,-96,-6
1491087246880,1,3,-7,-33,-16,-16,-26,-42,-25
1491087246915,2,50,13,23,6,22,-12,16,27
1491087246915,2,-31,3,22,101,44,-4,56,4
1491087246916,3,4,2,-3,-14,-17,7,-17,-28
1491087246916,3,-18,-5,-13,-22,-17,38,123,26
1491087246916,0,44,23,4,-17,-61,-128,-128,-43
1491087246916,0,7,-6,-23,-54,-22,22,23,5
1491087246917,1,-4,2,9,66,15,54,53,4
1491087246917,1,27,7,13,-9,31,0,30,19
1491087246952,2,-42,-10,34,-11,-4,51,103,15
1491087246952,2,9,-2,-19,13,20,-23,-79,-37
1491087246953,3,10,16,14,23,29,18,49,2
1491087246953,3,-19,6,2,-30,-18,-53,-35,1
1491087246953,0,2,-8,-31,-4,-48,8,51,-11
1491087246953,0,-7,-3,-13,-2,-23,15,-23,21
1491087246955,1,-16,-11,13,-13,-4,-6,28,0
1491087246955,1,-13,-1,-6,-11,20,-39,0,-21
1491087246990,2,-31,8,20,34,89,91,-71,-13
1491087246990,2,-30,-25,-28,-14,6,39,91,9
1491087246990,3,-12,-10,-26,-29,-102,-91,-128,-61
1491087246990,3,19,6,15,87,50,127,109,-2
1491087246991,0,0,2,17,-40,46,53,50,-1
1491087246991,0,21,9,-14,-60,-55,11,8,14
1491087246992,1,32,-7,-54,-37,-44,-113,-73,19
1491087246992,1,4,21,33,-8,-38,96,65,1
1491087247027,2,-34,-11,5,33,15,-68,-14,-6
1491087247027,2,27,9,31,63,65,-3,12,7
1491087247028,3,-22,-10,18,22,14,8,8,19
1491087247028,3,-24,-17,-30,-63,50,42,6,-7
1491087247029,0,-25,-12,-30,12,-80,15,-39,-5
1491087247029,0,21,-3,-7,-40,-50,-104,-121,-66
1491087247030,1,-13,15,-9,7,-55,-64,64,21
1491087247030,1,-27,16,26,76,50,109,-10,1
1491087247065,2,26,-20,-10,-62,16,45,41,3
1491087247065,2,30,11,-4,-5,-75,-51,-128,-18
1491087247065,3,66,27,41,18,47,50,127,53
1491087247065,3,-11,-10,-46,-54,57,-9,-85,-68
1491087247066,0,-32,3,18,-20,-6,-31,-24,-1
1491087247066,0,-43,1,-9,8,-61,-24,100,-4
1491087247067,1,43,-14,14,59,26,51,77,26
1491087247067,1,-43,-25,-24,-83,-37,1,-47,-11
1491087247102,2,24,-15,20,54,113,-79,-96,38
1491087247102,2,-6,-47,-33,5,-29,72,-85,-37
1491087247103,3,-88,-7,-15,-88,-29,84,93,-41
1491087247103,3,11,0,-53,-104,-126,-128,-34,5
1491087247104,0,-10,-3,20,72,21,127,-12,-42
1491087247104,0,10,-1,40,-84,27,104,69,39
1491087247105,1,48,8,3,57,43,52,34,53
1491087247105,1,-40,-9,-28,8,34,-44,-60,-52
1491087247140,2,7,-3,-38,-6,-33,31,92,-34
1491087247140,2,17,27,64,62,46,91,-65,21
1491087247140,3,6,16,26,21,-2,27,34,22
1491087247140,3,35,4,23,-61,-101,78,6,27
1491087247141,0,-66,-58,-105,-78,-128,-118,58,16
1491087247141,0,-13,22,51,58,127,-114,33,-38
1491087247142,1,-15,-2,-17,-36,81,111,29,17
1491087247142,1,35,8,16,59,-49,-101,-48,-11
1491087247177,2,-17,6,17,7,-19,20,-45,13
1491087247177,2,-17,0,14,-26,-14,124,74,45
1491087247178,3,-40,-35,-24,31,13,-22,-8,-36
1491087247178,3,44,7,-37,-11,28,3,-15,-13
1491087247179,0,37,-11,-38,-42,-76,107,80,34
1491087247179,0,-28,48,39,45,49,-97,-59,-51
1491087247180,1,-14,5,9,-18,-48,-41,-53,5
1491087247180,1,2,-5,29,72,-35,-50,-2,34
1491087247215,2,-13,-4,9,-51,85,100,72,-6
1491087247215,2,-2,-20,-32,37,-14,-81,-7,15
1491087247215,3,-26,-21,-16,-65,-111,-90,-82,-48
1491087247215,3,18,2,-25,-23,7,56,27,-14
1491087247217,0,-7,-10,-22,1,13,-88,-110,-4
1491087247217,0,22,-8,53,106,118,127,113,60
1491087247252,1,-2,41,49,-43,-105,-17,14,2
1491087247252,1,10,7,-31,-59,-79,-61,-18,1
1491087247253,2,-4,27,18,40,34,106,58,31
1491087247253,2,-21,-27,-56,-29,-3,-128,-74,-44
1491087247254,3,-5,-20,3,-6,87,94,66,10
1491087247254,3,-9,-10,29,-4,-49,47,-32,18
1491087247255,0,25,15,-2,32,21,-34,-85,-18
1491087247255,0,-6,-5,-40,-97,-92,-60,-77,-28
1491087247290,1,-7,-30,-97,-48,-30,-49,2,9
1491087247290,1,16,43,110,87,127,66,110,-1
1491087247327,2,-15,9,1,-6,-88,-24,-20,-39
1491087247327,2,38,18,48,25,-52,107,127,70
1491087247328,3,12,-13,-60,16,-103,-125,-72,-19
1491087247328,3,-15,-8,11,23,101,119,-15,-18
1491087247329,0,-41,-33,-16,12,31,-63,77,16
1491087247329,0,8,5,30,-23,-58,-16,-82,-70
1491087247330,1,102,34,47,50,127,92,30,15
1491087247330,1,-77,-22,-45,-93,-97,-47,22,12
1491087247365,2,19,10,24,69,-6,68,20,-7
1491087247365,2,-4,-9,-73,-68,23,11,9,18
1491087247366,3,-18,15,87,127,127,75,-47,-24
1491087247366,3,13,-11,-29,-92,-81,-69,-45,16
1491087247367,1,-5,-10,2,20,20,30,-18,-2
1491087247367,1,17,10,47,127,127,98,127,33
1491087247368,2,-16,8,51,-64,-89,-36,-69,24
1491087247368,2,-9,-10,-52,-15,-41,-9,-14,-11
1491087247403,3,6,0,-30,51,101,82,-10,-24
1491087247403,3,21,-12,-12,-39,35,-49,12,2
1491087247406,0,35,6,-18,-62,-47,-94,93,66
1491087247406,0,-10,7,34,26,-12,88,-81,-29
1491087247407,1,-29,-14,-26,-118,13,13,-41,-21
1491087247407,1,31,-7,-9,40,-67,-16,70,5
1491087247408,2,22,33,48,61,98,49,-23,-26
1491087247408,2,11,-1,25,22,41,44,123,72
1491087247441,3,-5,4,26,22,-85,-35,-19,17
1491087247441,3,-27,-30,-94,-83,-79,-56,-80,-26
1491087247477,0,18,3,-2,6,51,1,-128,-52
1491087247477,0,-6,-5,30,36,25,90,92,18
1491087247515,1,-5,7,46,68,-75,-37,27,13
1491087247515,1,-6,-5,-8,21,21,-30,49,-4
1491087247516,2,6,1,-10,-74,-128,-5,-98,-13
1491087247516,2,-46,-19,-63,-20,117,59,27,-48
1491087247552,3,-31,0,-16,-40,5,-12,47,-16
1491087247552,3,25,13,50,-8,0,84,-33,23
1491087247553,0,-18,-17,-22,110,64,-38,-5,-10
1491087247553,0,0,8,8,-34,-51,-56,-39,-2
1491087247554,1,-8,6,49,48,26,36,-9,-7
1491087247554,1,-5,3,6,-36,95,-24,26,6
1491087247555,0,-8,-5,-32,-25,-25,-2,3,-23
1491087247555,0,19,8,17,93,47,-14,23,17
1491087247590,3,-10,-6,-50,-83,-86,-93,-90,-25
1491087247590,3,7,5,39,88,4,40,14,19
1491087247591,0,13,3,-16,-58,64,45,55,10
1491087247591,0,-15,-1,44,109,55,-9,-3,-2
1491087247591,1,16,1,14,-117,-48,-48,4,37
1491087247591,1,2,-15,-92,-81,-119,-75,-117,-55
1491087247592,3,26,7,11,68,61,43,2,23
1491087247592,3,6,5,54,-57,29,120,60,37
1491087247627,0,-11,-20,-91,2,-100,-123,-10,-2
1491087247627,0,-26,-8,-1,-2,-62,52,-28,-22
1491087247629,1,3,3,-44,-2,77,55,58,5
1491087247629,1,7,9,22,7,-97,-51,-87,-12
1491087247629,3,-20,-16,-38,-16,-23,55,-102,-51
1491087247629,3,31,14,50,82,103,77,51,36
1491087247630,0,11,-6,-38,-104,-93,-102,-10,15
1491087247630,0,-13,-15,-18,98,7,-40,-49,-24
1491087247665,1,-12,1,-24,-128,-38,-56,9,-6
1491087247665,1,-4,-11,-3,64,23,25,-16,-3
1491087247666,2,-12,-6,36,29,9,-6,-7,-11
1491087247666,2,27,2,-18,-55,-37,8,-33,13
1491087247666,3,-5,-1,34,55,40,6,8,-2
1491087247666,3,-13,-10,-40,-9,-22,0,43,11
1491087247667,0,-16,20,46,37,7,53,56,-8
1491087247667,0,9,-5,-11,-19,44,-4,-76,10
1491087247702,1,-3,3,10,-20,-80,1,9,1
1491087247702,1,-18,-6,-13,23,11,42,-16,-33
1491087247704,2,-4,-24,-47,-85,-39,-109,-81,-12
1491087247704,2,19,23,40,63,41,46,28,22
1491087247704,3,21,15,13,29,0,15,12,11
1491087247704,3,-5,15,8,0,-19,-11,14,5
1491087247705,0,-12,-15,-49,-80,-81,-57,6,-2
1491087247705,0,-3,10,36,3,-64,-22,-51,-25
1491087247740,1,4,-9,50,71,91,48,62,23
1491087247740,1,-19,-15,-62,-82,-56,-99,-88,-24
1491087247741,2,11,23,18,24,50,80,98,18
1491087247741,2,-14,-7,-35,-30,-46,-10,-33,-16
1491087247741,3,-4,-3,5,38,9,-22,-39,-18
1491087247741,3,4,0,36,56,43,23,33,8
1491087247742,0,1,-25,-28,-30,76,79,3,15
1491087247742,0,14,4,6,-4,-120,-77,-14,2
1491087247777,1,-19,-25,-11,19,33,2,30,-14
1491087247777,1,9,-5,21,44,49,36,47,30
1491087247781,2,8,-14,-19,-30,-58,-34,-75,-34
1491087247781,2,-15,-4,6,24,30,20,15,11
1491087247782,3,-13,-2,-6,0,-11,-31,-36,-16
1491087247782,3,32,22,-11,-38,-32,-29,1,13
1491087247782,0,-19,17,31,45,26,30,-4,1
1491087247782,0,-2,12,6,-13,51,41,46,10
1491087247815,1,11,15,-16,29,-1,-28,-41,2
1491087247815,1,-13,7,-8,-83,-44,-19,-6,-13
1491087247816,2,8,-14,5,59,28,30,-15,-10
1491087247816,2,-11,2,-9,-31,18,21,47,4
1491087247817,3,-5,9,-5,-87,-42,-9,10,2
1491087247817,3,-8,-2,6,64,-30,-45,0,-15
1491087247817,0,-23,-16,19,48,-1,0,-7,-2
1491087247817,0,-11,-21,-30,-22,-5,27,-6,-7
1491087247853,1,24,-2,8,7,28,-18,22,6
1491087247853,1,-19,-20,-21,-18,15,3,-11,-13
1491087247853,2,9,0,0,-12,-9,-11,-31,3
1491087247853,2,20,0,27,-4,3,11,8,-10
1491087247854,3,0,0,-28,-54,43,47,3,1
1491087247854,3,15,5,6,-18,-38,-2,-13,8
1491087247890,0,-10,-1,0,-24,-42,-39,-24,-14
1491087247890,0,-11,-11,-27,21,8,5,-3,-2
1491087247891,1,36,0,2,-20,-25,23,-4,5
1491087247891,1,-20,-9,11,48,14,-46,0,-23
1491087247891,2,10,11,-1,-13,5,49,29,12
1491087247891,2,21,3,-22,-23,15,-38,5,12
1491087247892,3,-12,-11,12,32,-9,-15,-48,-8
1491087247892,3,-8,-1,-9,6,-33,3,-31,-4
1491087247927,0,4,6,39,25,-19,-31,19,-5
1491087247927,0,-14,2,-1,-4,-19,26,11,5
1491087247928,1,-16,5,-22,-11,-16,-15,-3,-11
1491087247928,1,6,1,22,36,110,64,55,24
1491087247930,2,9,16,-12,-55,-112,-20,-44,7
1491087247930,2,-15,-4,-11,-22,13,15,-18,-17
1491087247931,3,-15,-3,-1,16,-4,12,-6,-7
1491087247931,3,-8,10,-5,-39,-20,-50,-11,6
1491087247965,0,-21,-15,-7,43,45,26,29,-4
1491087247965,0,15,-6,41,40,-2,54,2,20
1491087247966,1,-15,-12,-51,-72,-68,-83,-37,-3
1491087247966,1,-14,-3,24,11,-8,30,25,-6
1491087247966,2,17,-5,-25,5,48,-2,16,10
1491087247966,2,10,9,19,17,39,10,-20,0
1491087247967,3,-31,-21,-22,6,-22,5,12,-14
1491087247967,3,47,13,12,-15,-47,37,6,13
1491087248002,0,-20,-10,-35,-10,-37,-104,11,2
1491087248002,0,-13,-8,24,-15,19,36,-6,-17
1491087248003,1,14,-6,-9,9,11,-51,-37,1
1491087248003,1,-13,-10,15,23,25,20,-8,-8
1491087248004,2,25,-34,-5,19,44,49,2,2
1491087248004,2,-29,6,-5,-36,-30,31,9,-10
1491087248005,3,-18,3,-10,0,15,-16,15,8
1491087248005,3,-33,10,-28,-45,-33,-29,-38,-27
1491087248040,0,44,34,14,52,32,37,8,22
1491087248040,0,-27,-3,-13,1,-38,-24,-32,-14
1491087248041,1,31,-12,15,21,-22,-1,5,-2
1491087248041,1,-10,-20,-17,-21,-59,-5,32,14
1491087248042,2,-54,-23,5,32,48,34,-6,-23
1491087248042,2,21,-1,13,-9,9,-28,25,4
1491087248043,3,-10,8,29,33,66,127,41,5
1491087248043,3,22,7,-39,-46,-28,-96,45,20
1491087248077,0,-21,17,6,-39,-56,11,-110,-47
1491087248077,0,7,1,10,13,-21,-57,25,18
1491087248078,1,-9,6,32,82,57,31,5,2
1491087248078,1,-12,-10,-28,-75,6,32,11,-13
1491087248079,2,-9,0,-30,-23,13,20,25,7
1491087248079,2,-2,9,7,10,-45,-96,9,-15
1491087248080,3,-2,0,0,-20,-32,21,-2,-14
1491087248080,3,-1,-109,17,103,81,64,-36,15
1491087248115,0,2,-2,-7,-74,-4,-47,42,-5
1491087248115,0,13,35,-19,4,5,42,-9,9
1491087248116,1,26,80,16,42,-14,72,99,35
1491087248116,1,-3,91,-11,-54,-74,-93,-102,-33
1491087248117,2,-4,25,6,-5,8,89,25,-22
1491087248117,2,-5,-6,-8,19,14,19,-25,-7
1491087248152,3,-43,-13,23,41,15,20,-6,-21
1491087248152,3,-2,-10,-2,-42,9,-48,-52,-21
1491087248153,0,-8,-24,-9,17,12,43,83,33
1491087248153,0,-1,-18,-15,-37,-16,55,26,15
1491087248154,1,-23,-30,-19,-62,-70,-123,-28,-24
1491087248154,1,15,7,23,43,-1,93,19,4
1491087248155,2,30,2,2,-31,42,-110,-20,26
1491087248155,2,-48,-19,-9,-12,-48,37,28,-36
1491087248190,3,26,-10,-16,18,-40,-90,-27,18
1491087248190,3,-13,-12,12,49,52,101,34,13
1491087248191,0,5,10,-22,-25,-40,-83,-36,-14
1491087248191,0,28,-10,20,-26,25,-21,-42,4
1491087248192,1,-23,-34,-3,-42,-50,48,-10,-13
1491087248192,1,-3,18,-28,-60,-24,-128,70,32
1491087248193,2,33,18,24,60,62,127,-56,-10
1491087248193,2,-9,0,-27,-24,-3,6,45,11
1491087248227,3,-5,-5,23,5,7,34,-44,-4
1491087248227,3,-8,4,7,42,38,31,60,12
1491087248228,0,58,2,23,19,87,-23,-3,25
1491087248228,0,-9,-9,-44,-33,-84,-36,-45,-16
1491087248229,1,14,6,-19,-34,5,-26,-1,-1
1491087248229,1,-23,1,68,101,55,68,73,19
1491087248265,2,9,-16,-40,-72,-68,-47,-4,-8
1491087248265,2,-20,-4,4,24,44,64,-3,-10
1491087248266,3,11,3,9,59,43,-99,-42,-8
1491087248266,3,18,1,-11,36,54,95,-11,-18
1491087248267,0,-36,1,15,-11,-93,-63,-40,-5
1491087248267,0,18,0,15,-6,14,6,92,26
1491087248267,1,-10,-13,-50,-39,-22,16,-32,5
1491087248267,1,-61,-19,-16,-48,-104,-117,-50,-36
1491087248302,2,5,17,22,21,19,121,91,30
1491087248302,2,25,-4,-16,3,13,19,33,37
1491087248303,3,-49,-3,-14,-55,-66,-75,-81,-59
1491087248303,3,13,-14,-25,40,-44,39,-17,-19
1491087248304,0,-15,7,2,-55,-8,-12,-23,-8
1491087248304,0,-3,-21,5,55,35,39,-8,-2
1491087248305,1,15,2,21,60,81,42,107,31
1491087248305,1,37,-2,-2,-17,-20,67,70,17
1491087248340,2,-67,-8,4,-30,75,33,-72,-40
1491087248340,2,-5,7,-2,-7,-79,-117,-51,-7
1491087248341,3,3,-6,-83,-128,-54,105,-61,-25
1491087248341,3,10,25,33,37,11,-115,-8,-13
1491087248342,0,-3,-12,2,63,26,-66,-11,14
1491087248342,0,1,-51,10,-81,-35,46,-25,6
1491087248343,1,-24,-109,21,59,56,2,-22,-41
1491087248343,1,28,59,-12,-8,-16,2,36,22
1491087248377,2,53,98,29,20,5,32,69,31
1491087248377,2,-35,65,22,78,25,-26,-34,-24
1491087248415,3,54,49,0,-84,-59,17,67,32
1491087248415,3,-2,-22,-29,-68,-29,-31,-94,8
1491087248416,0,-27,-128,-17,55,7,-26,-24,-25
1491087248416,0,27,49,-15,-11,-68,-26,58,26
1491087248416,1,19,105,0,-20,-67,-22,15,18
1491087248416,1,-53,110,14,-31,-3,-18,-96,-89
1491087248417,2,-19,127,-5,60,35,-8,67,12
1491087248417,2,24,18,-6,57,127,101,10,0
1491087248452,3,33,57,84,120,59,-4,38,50
1491087248452,3,4,-15,-50,-118,-80,-36,-43,-1
1491087248453,0,-21,-47,-51,-96,-112,-8,-21,-17
1491087248453,0,-9,-45,13,3,13,2,18,-26
1491087248454,1,-1,-33,-14,29,11,-12,27,15
1491087248454,1,34,-47,28,-44,75,88,-5,21
1491087248455,2,13,-128,32,62,-85,-70,25,4
1491087248455,2,-8,-118,7,14,27,69,95,8
1491087248490,3,-6,-116,-64,-100,-54,-4,-110,-40
1491087248490,3,8,-86,19,57,-12,-17,32,18
1491087248491,0,15,-15,12,20,-7,64,-75,-14
1491087248491,0,-7,54,-13,-36,12,-34,6,14
1491087248492,1,-7,53,6,-20,10,8,-1,-16
1491087248492,1,-25,29,3,87,38,95,63,5
1491087248492,2,62,81,35,-26,86,77,36,16
1491087248492,2,-8,34,-14,49,-19,-117,-76,-26
1491087248527,3,-11,67,-14,-48,-42,-47,-34,-1
1491087248527,3,-28,92,-12,-11,-3,1,-1,-23
1491087248529,0,12,126,33,37,-95,84,60,13
1491087248529,0,31,108,-17,11,127,-79,-47,19
1491087248530,1,-31,42,-21,5,-12,16,15,-1
1491087248530,1,28,30,26,2,42,5,21,2
1491087248530,2,-47,-31,-51,-62,-52,40,-83,-43
1491087248530,2,4,0,21,-8,53,95,41,-8
1491087248565,3,-18,2,-17,-19,-89,-107,-92,8
1491087248565,3,21,16,20,127,49,-58,38,36
1491087248566,0,-58,-2,10,-84,68,57,37,-32
1491087248566,0,26,-13,-41,-46,-100,-100,-29,4
1491087248566,1,-20,-23,-10,-5,-16,-48,-68,-36
1491087248566,1,31,-32,-1,52,77,86,79,5
1491087248567,2,-10,-58,-33,-9,-77,-76,23,27
1491087248567,2,-9,-23,70,36,-31,67,44,-4
1491087248602,3,-22,-27,25,4,127,-17,44,32
1491087248602,3,-21,-65,-44,-26,-114,-16,-108,-20
1491087248604,0,-2,-26,7,-15,18,-18,73,15
1491087248604,0,6,-54,-44,46,-22,127,-62,-34
1491087248604,1,29,10,80,21,-20,-48,-5,10
1491087248604,1,-17,-60,-71,-91,-63,58,-2,-16
1491087248605,2,-5,-33,12,-3,17,-16,-5,14
1491087248605,2,8,-110,26,33,59,92,-9,27
1491087248715,3,-3,2,-29,-39,7,23,89,-2
1491087248715,3,-1,98,34,21,72,7,-21,-22
1491087248716,0,-34,103,-13,52,33,16,42,18
1491087248716,0,-17,96,-21,-53,-24,-69,-37,-10
1491087248716,1,57,32,30,48,-42,87,57,19
1491087248716,1,6,23,16,-128,-120,-93,-22,8
1491087248752,2,-31,-18,-68,27,-41,-77,-115,-65
1491087248752,2,-13,-28,-38,-4,14,-52,-122,-24
1491087248753,3,10,-20,9,11,76,78,95,3
1491087248753,3,5,-30,19,18,20,67,72,56
1491087248754,0,-12,-42,18,19,19,93,17,-26
1491087248754,0,-14,-47,7,-32,-39,-128,-89,16
1491087248755,1,-27,-19,2,35,38,53,-22,-51
1491087248755,1,21,7,36,95,116,54,29,34
1491087248790,3,-23,6,2,55,-15,68,-45,22
1491087248790,3,13,45,0,-36,52,70,93,33
1491087248790,0,21,73,-2,-43,-112,-62,-64,2
1491087248790,0,55,94,-4,27,65,12,-27,-29
1491087248791,1,-28,29,-12,-24,-22,-45,95,54
1491087248791,1,-31,3,-8,-24,79,-31,-128,-35
1491087248792,3,-15,-21,8,33,42,93,48,31
1491087248792,3,58,-13,33,39,61,90,79,31
1491087248827,0,8,-22,12,30,38,-128,-2,9
1491087248827,0,-2,-9,-70,-33,-70,94,-57,-43
1491087248829,1,42,-9,13,60,22,-43,68,41
1491087248829,1,-9,-19,-32,-103,-48,-8,-96,6
1491087248829,3,2,-21,-49,-101,17,81,-23,-61
1491087248829,3,8,10,39,102,63,-90,-25,-9
1491087248830,0,18,0,-17,-34,18,-15,-56,51
1491087248830,0,-1,6,85,86,92,102,90,-6
1491087248865,1,-28,0,2,-85,-88,-86,8,35
1491087248865,1,54,1,-70,-62,-128,78,-17,-8
1491087248866,2,70,0,12,42,81,116,69,-11
1491087248866,2,-10,-17,-13,31,83,44,26,12
1491087248867,3,-1,10,58,77,127,31,41,18
1491087248867,3,-30,-24,-25,31,-73,-44,-21,5
1491087248868,0,-3,7,18,66,21,19,98,12
1491087248868,0,-2,4,-15,-51,49,24,-39,-24
1491087248902,1,25,0,-3,1,-76,-45,-71,21
1491087248902,1,-18,-22,-44,-112,-90,68,-128,-35
1491087248903,2,-25,-20,-28,44,35,-18,53,-14
1491087248903,2,-24,0,-13,-69,-106,-65,-27,-67
1491087248904,3,3,5,63,-3,-42,127,103,96
1491087248904,3,-65,-29,-71,25,-61,-128,-28,-74
1491087248905,0,16,8,-7,-52,3,127,-25,13
1491087248905,0,3,2,13,29,31,-15,76,42
1491087248940,1,43,8,39,99,-27,-29,-63,-14
1491087248940,1,3,10,70,54,127,85,127,44
1491087248941,2,0,-10,-33,-128,-84,32,45,-2
1491087248941,2,-20,-28,-116,-128,-127,-128,-108,2
1491087248941,3,-7,10,14,26,45,-30,-121,-71
1491087248941,3,41,6,40,103,73,93,64,12
1491087248942,0,-14,11,75,110,106,70,68,9
1491087248942,0,13,-12,-23,-75,-87,-90,-107,-11
1491087248977,1,-27,-19,-106,-102,-78,-42,-18,-32
1491087248977,1,-50,-14,38,-32,2,33,44,-18
1491087248978,2,11,1,-66,-115,-68,-128,-122,-37
1491087248978,2,-1,23,57,127,93,127,117,25
1491087248980,3,7,-5,-3,-25,117,74,109,20
1491087248980,3,13,17,23,21,-88,-83,-81,-19
1491087248980,0,-21,-12,4,26,25,96,119,34
1491087248980,0,20,15,22,25,-10,-124,-114,-14
1491087249015,1,3,3,-27,3,-92,33,73,9
1491087249015,1,30,14,10,-1,127,98,68,45
1491087249016,2,-37,-9,-4,-4,-128,-58,-61,-35
1491087249016,2,32,6,25,38,8,40,-16,6
1491087249017,3,15,-8,-53,-74,-53,-16,44,24
1491087249017,3,-41,-27,-37,-6,-25,-18,3,-27
1491087249018,0,72,23,-7,-5,20,-22,-39,10
1491087249018,0,-37,-6,21,65,80,127,46,-26
1491087249052,1,4,10,48,38,43,-60,-33,5
1491087249052,1,-23,-8,11,-22,-12,44,58,41
1491087249054,2,-28,-4,-16,-14,-69,-128,-99,-8
1491087249054,2,21,11,36,-11,-55,85,80,43
1491087249055,3,-23,-8,-75,-68,-79,-96,-88,-56
1491087249055,3,-59,-27,-11,-3,76,-6,-128,-54
1491087249055,0,8,-2,-33,-54,0,100,78,-21
1491087249055,0,63,42,4,-5,-12,-63,-24,82
1491087249090,1,-55,-5,17,-33,-19,96,99,17
1491087249090,1,-10,-2,-33,-81,-128,-89,-44,-18
1491087249091,2,-31,-16,58,87,98,63,-17,-27
1491087249091,2,-14,-17,-39,-71,-24,-107,-4,-23
1491087249092,3,21,2,9,58,83,78,-39,-13
1491087249092,3,10,10,42,32,61,35,2,16
1491087249127,0,-6,-1,82,45,-76,-24,2,5
1491087249127,0,-31,-21,-91,-82,-1,25,46,-17
1491087249130,1,-6,-2,-3,10,5,-105,-105,-11
1491087249130,1,32,12,-4,-5,7,121,36,-19
1491087249131,2,-2,18,37,-116,-24,-107,45,33
1491087249131,2,-16,-17,-81,31,-24,-96,-51,-31
1491087249132,3,-26,-9,14,17,-49,37,-6,-12
1491087249132,3,27,-12,-2,4,10,-53,11,6
1491087249165,0,5,-36,4,57,0,-11,-9,-8
1491087249165,0,-16,-41,60,22,35,44,47,8
1491087249166,1,-14,2,-47,-46,-32,-52,9,-3
1491087249166,1,54,64,27,45,-14,-11,-24,8
1491087249167,2,-28,51,0,45,110,69,16,5
1491087249167,2,10,31,3,-4,-83,-113,-47,-1
1491087249167,3,-2,9,8,13,-5,72,14,-10
1491087249167,3,-16,-10,-64,-84,-14,65,-6,-9
1491087249202,0,-18,-10,-42,-74,-97,-87,-89,-24
1491087249202,0,-5,-5,16,36,79,73,24,-6
1491087249203,1,44,5,42,110,127,86,-10,21
1491087249203,1,4,-11,29,15,-109,5,81,16
1491087249204,2,-11,-23,-27,40,17,30,47,5
1491087249204,2,-12,-12,6,-50,-37,0,-32,-15
1491087249205,3,17,1,30,36,68,-9,50,14
1491087249205,3,-20,-11,32,9,47,37,-20,2
1491087249240,0,-5,-14,-37,-7,-53,-92,14,-9
1491087249240,0,16,21,49,-87,-100,-4,-16,18
1491087249241,1,-21,-22,-79,-16,6,-70,-63,-27
1491087249241,1,11,-4,-3,35,33,22,32,-1
1491087249242,2,5,-8,25,34,93,-45,26,21
1491087249242,2,-25,-9,-65,-60,-78,-47,-89,-37
1491087249278,3,6,5,51,29,-52,77,22,14
1491087249278,3,28,6,-41,-70,-43,-80,35,48
1491087249280,0,-11,5,18,15,-37,127,65,-13
1491087249280,0,-28,-7,41,95,127,91,59,13
1491087249281,1,14,-8,17,80,-100,88,53,28
1491087249281,1,10,22,-22,-55,-108,-96,-15,6
1491087249282,2,-12,-12,-25,-41,-99,-33,-32,-24
1491087249282,2,-4,-11,-12,9,23,28,23,-11
1491087249315,3,-10,-6,21,-14,17,70,23,-18
1491087249315,3,3,-9,48,28,70,116,64,33
1491087249316,0,11,-11,-102,-59,-90,-127,-128,-26
1491087249316,0,2,10,-10,-69,-21,-17,-34,-12
1491087249317,1,11,-7,21,29,6,27,22,7
1491087249317,1,-14,1,9,-2,-10,-19,-32,-23
1491087249318,2,13,13,22,44,94,54,-7,23
1491087249318,2,36,4,39,63,-68,15,69,22
1491087249390,3,-27,-5,-36,-7,76,-41,-20,-21
1491087249390,3,11,11,16,-29,-70,-64,-12,-18
1491087249391,0,-9,-9,8,25,12,-55,-36,0
1491087249391,0,27,21,34,41,33,24,19,21
1491087249392,1,-3,-15,-14,-48,36,-5,7,11
1491087249392,1,-12,-16,-10,-2,-69,-35,-52,-23
1491087249393,2,3,-16,-24,-52,-65,14,2,-10
1491087249393,2,-2,-19,-10,-7,8,0,-6,15
1491087249427,3,2,-3,-8,-18,18,-22,-21,-9
1491087249427,3,-9,-11,-25,27,44,1,18,-1
1491087249428,0,8,19,25,-9,6,30,-11,17
1491087249428,0,-14,11,-25,-17,25,3,-11,-18
1491087249465,2,-11,1,23,28,-41,34,56,-1
1491087249465,2,22,-6,-13,-25,-35,-44,-33,-3
1491087249466,3,-22,-5,-59,-102,-68,-39,-18,-25
1491087249466,3,9,10,9,14,17,-4,-2,1
1491087249466,0,6,9,14,10,64,45,23,5
1491087249466,0,-15,11,25,36,30,24,15,2
1491087249467,1,-6,13,15,2,-10,-41,20,-4
1491087249467,1,-9,1,8,-18,-20,-4,-25,1
1491087249502,2,7,3,20,20,7,21,15,-5
1491087249502,2,-19,-13,-30,-33,-25,26,6,1
1491087249504,3,11,0,28,-8,-23,33,-9,3
1491087249504,3,-7,-22,-26,-6,-34,-15,-21,-16
1491087249505,0,-7,-14,21,-23,-15,-24,-21,-8
1491087249505,0,12,-24,0,16,14,12,9,9
1491087249505,2,0,-18,-2,16,40,30,5,5
1491087249505,2,-12,-22,-28,-31,-38,-41,-8,-14
1491087249540,3,9,12,26,28,42,57,70,12
1491087249540,3,3,19,8,19,-43,-65,-91,-11
1491087249541,0,-6,31,14,-26,29,73,22,6
1491087249541,0,-8,17,-37,-30,-90,-100,-20,-2
1491087249615,2,2,13,-26,-36,30,0,-42,5
1491087249615,2,-13,7,2,-5,-18,-15,39,-11
1491087249616,3,6,3,-64,-56,-22,-68,-61,-14
1491087249616,3,3,-4,-73,-114,-103,8,43,19
1491087249617,0,-25,-9,26,109,-42,53,-83,-37
1491087249617,0,2,-7,-74,-80,-4,-43,-3,-19
1491087249618,1,-16,28,33,32,-35,-31,-13,-1
1491087249618,1,6,11,49,108,127,103,65,19
1491087249653,2,16,26,39,60,7,106,58,29
1491087249653,2,-14,26,-21,-37,-74,-65,-82,-18
1491087249654,3,-1,28,7,-44,-38,39,18,7
1491087249654,3,4,6,-16,37,63,73,12,-3
1491087249655,0,-17,25,6,-22,-60,-108,37,-7
1491087249655,0,1,13,-17,-24,-5,-32,10,-6
1491087249656,1,10,-24,0,3,-11,5,-13,14
1491087249656,1,-14,-31,-41,-89,-50,-14,56,10
1491087249691,2,11,-2,51,18,21,11,-23,25
1491087249691,2,-17,-24,-80,-61,-83,-68,-69,-73
1491087249693,3,-27,-58,-9,34,109,81,58,-18
1491087249693,3,27,3,29,77,60,0,-36,-22
1491087249694,1,0,-19,-18,-103,-74,14,55,0
1491087249694,1,-17,-26,-1,60,-17,-17,-109,-31
1491087249695,2,-2,1,-7,-44,103,83,86,-6
1491087249695,2,3,19,52,113,127,-41,-26,-11
1491087249728,3,0,4,3,18,-111,-128,-92,-13
1491087249728,3,-6,3,-26,-69,36,21,7,0
1491087249731,0,-5,-12,-43,-41,2,35,2,-31
1491087249731,0,4,22,-20,-61,-69,1,80,45
1491087249731,1,2,9,42,78,92,100,-43,-45
1491087249731,1,1,15,28,27,-82,24,61,13
1491087249732,2,1,14,-20,-9,46,112,-15,-5
1491087249732,2,6,12,43,41,75,127,127,48
1491087249765,3,-1,32,31,39,-5,-106,-121,3
1491087249765,3,-6,14,-23,-97,-123,-69,-51,-25
1491087249766,0,-15,-26,-90,-69,-112,-85,32,-20
1491087249766,0,-11,-14,54,58,32,87,36,22
1491087249767,1,-3,-20,-7,33,50,77,40,-32
1491087249767,1,19,46,62,28,-5,-7,-38,-32
1491087249768,2,-5,3,-4,-73,-120,42,31,22
1491087249768,2,-5,-6,42,39,62,83,-49,53
1491087249803,3,2,20,71,-21,-63,-52,4,-35
1491087249803,3,-3,-22,-30,56,99,100,127,61
1491087249804,0,-10,-24,-67,-63,-39,25,30,-22
1491087249804,0,8,15,60,-29,0,-53,-83,-8
1491087249806,1,-5,-8,-32,6,49,-18,-4,53
1491087249806,1,-25,-16,-49,-59,-99,77,-82,-76
1491087249806,2,5,-17,-22,6,-86,-128,-97,37
1491087249806,2,-1,17,-3,11,66,127,106,-65
1491087249840,3,2,31,55,99,-3,20,-2,15
1491087249840,3,-13,-11,-46,-12,62,-99,-49,-12
1491087249877,0,-11,10,30,49,36,-51,-128,-100
1491087249877,0,-5,-32,-53,-64,-68,11,10,33
1491087249915,1,-6,-7,-54,-108,-17,41,84,5
1491087249915,1,14,16,-10,-24,75,119,-56,29
1491087249917,2,-8,25,8,-54,-49,-77,-59,4
1491087249917,2,24,17,2,-13,-56,0,23,21
1491087249918,3,-7,2,-54,-105,19,73,-40,-26
1491087249918,3,-16,-17,38,23,-51,86,114,-44
1491087249919,0,8,-10,-2,60,91,-29,27,108
1491087249919,0,-10,18,-11,-38,-88,74,-69,-83
1491087249952,1,8,-15,-21,27,84,89,67,50
1491087249952,1,-2,-19,-9,-62,-18,-60,-29,-3
1491087249954,2,17,27,54,26,54,127,92,17
1491087249954,2,-5,-2,-14,-18,-2,-66,-96,-35
1491087249955,3,6,-10,-33,-49,-128,-70,3,0
1491087249955,3,4,-15,35,47,38,91,127,79
1491087249956,3,3,-13,22,-10,-18,12,-26,-23
1491087249956,3,51,35,21,67,77,-1,91,56
1491087249991,0,-4,16,55,28,-13,26,-91,-11
1491087249991,0,8,2,-14,-25,-45,-43,99,22
1491087249993,1,-12,-9,-43,-28,-33,5,39,10
1491087249993,1,-24,-8,-27,-40,-31,68,-33,-22
1491087249994,3,4,-1,46,-40,-128,87,39,19
1491087249994,3,-15,6,-53,-50,78,-128,-128,-59
1491087249995,0,-7,-9,-4,15,4,115,69,-24
1491087249995,0,-8,-1,7,-16,-83,-12,-86,-21
1491087250028,1,-18,-5,43,47,-2,56,94,53
1491087250028,1,35,2,-16,-43,-21,-76,-101,-40
1491087250031,2,-43,-13,2,-12,41,-37,7,-7
1491087250031,2,10,14,55,106,82,-14,-71,3
1491087250031,3,40,12,-1,-125,-47,-22,-68,-19
1491087250031,3,-31,-12,-20,16,3,48,68,-13
1491087250032,0,22,-15,-2,40,3,-13,79,23
1491087250032,0,-42,-4,-37,-75,-55,-46,-8,-20
1491087250102,1,-14,1,15,53,26,-23,-72,-32
1491087250102,1,-29,-26,-5,13,64,-33,46,1
1491087250103,2,74,19,27,94,-9,127,100,42
1491087250103,2,-21,-47,-31,-70,53,29,43,41
1491087250104,3,2,18,15,127,-19,-100,-73,-16
1491087250104,3,-17,-7,-32,-111,-128,11,-87,-57
1491087250105,0,-17,-18,-23,-53,49,77,66,20
1491087250105,0,5,-9,15,29,-1,101,38,-8
1491087250140,1,42,26,-1,-36,19,-63,17,23
1491087250140,1,2,-11,7,18,-30,16,-88,-5
1491087250140,2,16,11,44,54,38,25,5,3
1491087250140,2,-15,-14,-12,-56,-64,11,-64,-46
1491087250141,3,26,-7,-27,-18,124,68,63,11
1491087250141,3,14,0,-2,37,-45,-66,81,49
1491087250142,1,-16,-26,35,110,64,109,-62,2
1491087250142,1,-33,16,-8,-112,-80,-90,81,15
1491087250177,2,-29,-1,-23,-11,-42,-67,-126,-47
1491087250177,2,63,7,6,49,8,-22,18,18
1491087250178,3,-58,-45,-45,-25,115,43,-49,-44
1491087250178,3,17,35,81,43,30,29,74,67
1491087250178,1,-24,-30,-14,-84,-16,51,127,38
1491087250178,1,-34,-11,-50,115,-5,26,-101,-35
1491087250180,2,-25,1,-9,-40,-46,-120,-82,-27
1491087250180,2,16,11,30,29,88,113,109,6
1491087250215,3,11,4,-28,-31,6,-60,-18,0
1491087250215,3,16,-22,-23,-28,-92,-51,-22,11
1491087250216,0,-55,6,12,-42,-37,89,5,-76
1491087250216,0,16,-4,-17,14,12,-83,-57,42
1491087250217,1,-37,1,-16,-49,22,84,-5,-8
1491087250217,1,5,3,83,52,124,127,66,9
1491087250218,2,10,-32,-97,-35,7,-107,-61,6
1491087250218,2,2,6,-2,-21,-84,-7,42,-14
1491087250252,3,10,25,37,12,-36,43,-30,-19
1491087250252,3,-15,-9,-15,-48,47,33,94,2
1491087250254,0,49,1,48,57,99,-20,-52,-6
1491087250254,0,-44,-29,-52,-51,-83,-38,38,-26
1491087250254,1,5,13,-17,51,32,-107,-16,-14
1491087250254,1,9,-27,-9,44,10,55,48,17
1491087250255,2,30,35,59,33,53,-71,103,5
1491087250255,2,6,3,-24,-35,3,69,-86,3
1491087250290,3,-14,-10,-4,-10,-45,-6,48,-3
1491087250290,3,-22,-2,2,26,-6,-17,-128,-8
1491087250290,0,27,-8,14,24,26,61,127,39
1491087250290,0,-22,-9,-24,-58,-55,20,-3,-9
1491087250291,1,9,-3,-7,91,-4,88,-32,1
1491087250291,1,12,9,-23,-50,-66,-116,-54,-45
1491087250292,2,-26,-18,-28,-6,36,-78,-66,17
1491087250292,2,21,3,58,79,101,123,55,68
1491087250327,3,-27,11,-1,-77,-88,-114,85,-7
1491087250327,3,-26,-7,-8,-17,-14,92,-44,-48
1491087250328,0,69,27,6,7,17,-8,54,36
1491087250328,0,-14,0,2,25,34,-5,3,-21
1491087250329,1,15,-13,6,-4,77,101,-2,32
1491087250329,1,22,11,-1,38,-48,-119,-16,1
1491087250330,2,-37,-16,-36,-12,-49,80,52,-3
1491087250330,2,10,20,9,21,69,15,-78,-28
1491087250365,3,2,25,11,-50,-64,2,91,22
1491087250365,3,0,9,9,-77,-38,39,-89,-69
1491087250366,0,-27,-23,-5,6,103,127,50,36
1491087250366,0,33,-7,-25,19,-113,-128,4,25
1491087250366,1,-61,9,14,43,68,78,6,-83
1491087250366,1,71,9,25,-15,-34,92,88,68
1491087250367,2,-36,-15,-22,-4,-84,-98,-3,-9
1491087250367,2,0,-17,-14,30,64,24,55,1
1491087250403,3,12,-3,7,-39,-128,-23,-60,-23
1491087250403,3,27,-2,-43,-45,-53,-58,21,10
1491087250405,0,-16,15,44,50,81,116,-31,-59
1491087250405,0,-11,-4,4,-55,-85,53,59,31
1491087250406,1,-6,-16,-71,24,-15,-39,23,32
1491087250406,1,-38,9,39,48,117,43,-27,-57
1491087250407,2,113,16,7,-37,-26,61,73,17
1491087250407,2,-40,6,27,30,127,3,-7,20
1491087250440,3,3,-13,-32,12,-63,-82,-4,-1
1491087250440,3,-40,-23,-60,-85,-125,-50,-21,-25
1491087250442,0,3,-6,-16,-38,-21,-5,-89,-29
1491087250442,0,-1,15,48,24,113,127,48,-33
1491087250445,1,34,-4,21,-10,-63,25,-13,66
1491087250445,1,25,-15,-7,57,-6,-92,49,45
1491087250446,2,-99,-12,-42,-29,4,45,-65,-45
1491087250446,2,20,-4,28,63,69,-49,80,8
1491087250477,3,-26,3,-1,-86,-22,-39,-37,-18
1491087250477,3,-25,8,15,-11,-1,112,-70,-1
1491087250478,0,47,4,51,112,77,23,127,63
1491087250478,0,12,9,-38,-125,-128,-97,-126,-35
1491087250478,1,12,18,-2,106,72,63,12,-4
1491087250478,1,6,-9,-5,-79,-51,-2,104,17
1491087250480,2,-10,-12,-51,6,-34,-30,-67,18
1491087250480,2,19,11,21,14,35,-3,-10,-13
1491087250515,3,3,5,46,29,125,-17,-53,-17
1491087250515,3,-13,11,12,10,44,96,23,23
1491087250515,0,17,3,42,38,-94,-18,81,51
1491087250515,0,-15,-8,-50,-51,-53,-72,23,10
1491087250516,1,-4,3,-11,-61,-122,8,-30,-46
1491087250516,1,-12,17,23,84,89,25,-58,4
1491087250517,2,26,0,42,9,49,-9,44,3
1491087250517,2,-24,5,0,4,34,-35,-85,-3
1491087250552,3,1,-41,-83,-15,-67,110,54,-10
1491087250552,3,-26,5,48,-31,-7,-128,-20,-8
1491087250553,0,-7,6,2,-4,47,119,8,-24
1491087250553,0,-6,-4,15,0,-88,17,33,14
1491087250554,1,-12,4,25,-35,-83,-45,-5,42
1491087250554,1,22,-5,-45,51,-33,-41,-7,-5
1491087250590,2,2,9,-24,-38,-7,-16,-64,25
1491087250590,2,-38,-7,17,4,31,55,88,-28
1491087250590,3,24,19,56,31,100,31,12,3
1491087250590,3,6,-8,-6,50,97,127,127,28
1491087250591,0,-6,22,77,27,10,-20,-121,-31
1491087250591,0,-10,-25,-91,-73,-48,23,96,24
1491087250627,1,-54,-29,-72,-81,-103,-93,-105,-106
1491087250627,1,47,1,14,-53,-65,127,9,21
1491087250628,2,-26,-7,-8,-29,29,23,64,30
1491087250628,2,-2,9,19,89,8,-27,-62,-36
1491087250629,3,29,6,17,28,81,9,64,26
1491087250629,3,-51,-9,2,62,113,49,70,-8
1491087250630,0,-4,5,38,-47,-54,-94,-73,-6
1491087250630,0,31,-13,-70,1,-32,72,-74,-2
1491087250665,1,-30,-9,-25,13,-56,92,-3,-2
1491087250665,1,14,3,22,-18,55,-126,-112,5
1491087250666,2,-34,-36,-73,-32,-128,13,41,-15
1491087250666,2,5,24,58,29,68,120,65,-11
1491087250666,3,30,20,4,-22,77,-104,-28,23
1491087250666,3,-21,-20,-38,-47,-55,10,-85,-55
1491087250667,0,11,1,4,15,-1,80,18,10
1491087250667,0,-5,-22,-11,-73,-45,28,11,24
1491087250740,1,-1,-10,-11,127,41,0,54,21
1491087250740,1,49,8,41,40,111,5,21,20
1491087250740,2,23,8,-11,-23,-111,-102,24,8
1491087250740,2,-7,-6,-36,-62,-75,41,-58,5
1491087250741,3,10,11,37,-5,23,-17,49,-35
1491087250741,3,-28,-21,-19,31,40,-6,50,0
1491087250742,0,67,9,11,-71,-48,25,-7,45
1491087250742,0,13,18,99,123,125,109,13,-17
1491087250777,1,-16,-15,-59,-104,-98,-53,-11,27
1491087250777,1,-6,-3,-61,-59,-110,-103,-97,-68
1491087250778,2,-20,-19,-65,-1,-41,42,7,-25
1491087250778,2,-7,23,69,4,5,6,25,7
1491087250779,3,20,8,87,86,127,106,94,62
1491087250779,3,-22,-12,-38,47,-128,-38,-57,-38
1491087250780,1,24,18,9,-3,10,42,-17,-7
1491087250780,1,24,16,53,41,109,127,114,61
1491087250815,2,-27,-9,76,52,109,-19,-42,4
1491087250815,2,-12,-31,-124,-74,-86,-119,-91,-46
1491087250822,3,-1,-1,-1,-43,-45,69,71,-20
1491087250822,3,-7,-9,-1,-22,26,12,53,6
1491087250823,1,13,7,28,28,32,63,28,23
1491087250823,1,-2,0,-26,-42,-40,-78,-42,-2
1491087250824,2,-26,0,-29,-15,-82,-20,-35,-25
1491087250824,2,-22,-1,3,26,16,15,22,-16
1491087250852,3,-27,-13,4,6,36,-36,-53,-37
1491087250852,3,2,-1,27,-18,-48,6,28,10
1491087250853,0,-11,-8,-71,-76,-55,-88,19,-39
1491087250853,0,-15,-12,-11,-14,-72,-41,-37,25
1491087250854,1,-1,10,28,36,47,0,-51,-7
1491087250854,1,22,7,9,32,55,104,48,16
1491087250855,2,-17,1,28,0,48,-24,62,26
1491087250855,2,11,2,-15,5,-86,-27,-34,-15
1491087250890,3,-5,-8,-6,46,14,-85,-47,-40
1491087250890,3,21,12,4,-93,-101,16,19,25
1491087250890,0,-4,-12,-67,-11,-43,-25,-21,-42
1491087250890,0,8,12,60,62,127,82,60,25
1491087250891,1,-21,-17,-52,-54,-65,-46,33,28
1491087250891,1,8,-8,-43,-2,-74,-46,-58,-6
1491087250927,2,4,4,21,7,4,35,-19,-7
1491087250927,2,19,3,21,22,25,24,15,1
1491087250928,3,0,0,25,-3,26,30,3,17
1491087250928,3,8,7,13,-4,28,12,0,-4
1491087250929,0,-1,-6,-4,16,-17,27,35,15
1491087250929,0,4,1,21,46,113,44,21,12
1491087250930,1,10,10,-3,-66,-71,-80,-18,5
1491087250930,1,-31,-14,0,7,37,93,26,-15
1491087250965,2,-5,7,11,50,84,-42,-3,-19
1491087250965,2,-12,-15,-55,-52,-128,-110,-32,-18
1491087250965,3,6,-6,-14,24,0,23,-44,0
1491087250965,3,4,-4,-8,-12,6,-37,-16,14
1491087250966,0,3,14,28,2,44,37,68,22
1491087250966,0,10,-2,3,6,57,75,35,-11
1491087250967,1,-2,1,0,-7,-45,-46,-8,-6
1491087250967,1,-19,1,14,34,56,-7,12,0
1491087251002,2,-1,-8,-11,-7,-14,96,-10,13
1491087251002,2,-7,-3,-38,-57,-60,-111,-26,-11
1491087251003,3,8,3,19,-11,26,115,19,-13
1491087251003,3,-8,4,10,2,-45,-4,0,10
1491087251004,0,-16,-9,-37,-26,-44,-54,-62,-23
1491087251004,0,17,10,61,17,43,85,59,30
1491087251005,1,-15,-16,-48,3,-8,-16,-39,-19
1491087251005,1,2,-3,-37,-5,-13,-81,-49,-33
1491087251040,2,-15,7,44,0,-38,-45,-30,13
1491087251040,2,9,-4,-40,-23,-91,26,14,7
1491087251040,3,5,1,53,22,88,49,10,15
1491087251040,3,3,-2,0,19,41,-21,52,8
1491087251041,0,-3,1,-3,9,-9,-21,-15,-11
1491087251041,0,-9,-9,-31,-14,5,24,-37,-11
1491087251042,1,12,6,7,-13,-14,-44,41,20
1491087251042,1,7,2,19,17,106,80,1,15
1491087251077,2,5,-3,-25,29,-87,-67,-7,1
1491087251077,2,-11,-4,-37,-51,-83,-39,-32,-24
1491087251078,3,18,-3,-15,6,-38,35,15,-8
1491087251078,3,-22,-12,4,-25,8,-1,27,-13
1491087251078,0,5,8,51,4,109,42,72,24
1491087251078,0,14,4,-28,3,-31,-6,-17,-2
1491087251080,1,-9,-11,-12,17,-15,-31,-64,-11
1491087251080,1,-7,13,30,-10,-17,-44,-20,-8
1491087251115,2,-11,-7,-27,-29,-2,41,28,3
1491087251115,2,-11,7,37,28,31,0,15,8
1491087251116,3,8,-1,-8,-25,53,107,-16,-2
1491087251116,3,-6,-5,-40,4,-54,-73,10,-1
1491087251116,0,-1,-1,-3,-28,-60,-97,-1,-5
1491087251116,0,-11,-3,12,28,53,89,-58,-32
1491087251119,1,-10,7,17,5,-57,-122,-9,28
1491087251119,1,15,4,1,-29,26,26,-43,-8
1491087251152,2,-23,-9,-4,29,13,17,-4,0
1491087251152,2,13,-10,-11,-32,-90,-46,26,-4
1491087251153,3,1,-8,27,21,23,35,11,-7
1491087251153,3,-20,-15,-34,7,-14,25,25,0
1491087251154,0,20,0,0,-15,-4,-72,9,8
1491087251154,0,-1,18,53,23,64,72,25,11
1491087251155,1,-8,5,-2,-22,75,-37,-21,-7
1491087251155,1,-4,-6,-20,12,-65,107,43,13
1491087251190,2,-9,-5,-29,-64,-71,-56,-128,-48
1491087251190,2,-5,-1,7,25,37,97,50,7
1491087251192,3,6,-3,-25,0,-15,-8,48,13
1491087251192,3,-6,-7,-5,-54,-44,108,5,-18
1491087251193,0,21,8,31,15,117,-45,-15,32
1491087251193,0,0,0,-29,2,-57,1,-53,-10
1491087251194,1,7,-4,20,12,-25,27,25,10
1491087251194,1,2,-12,-20,3,80,37,12,-1
1491087251227,2,2,11,-5,18,-65,35,42,7
1491087251227,2,12,-2,52,21,71,-49,-9,9
1491087251228,3,-9,-6,-36,6,-29,2,10,3
1491087251228,3,-9,-10,-21,-36,-113,-51,-77,-1
1491087251229,0,3,-6,13,-19,47,34,27,5
1491087251229,0,-1,-16,-47,38,11,14,80,-7
1491087251230,1,-5,-13,19,-13,-47,-80,-98,-27
1491087251230,1,-12,-3,37,48,91,14,-28,0
1491087251265,2,-9,-6,-36,-22,-17,109,61,-10
1491087251265,2,8,9,25,-13,5,-94,-18,10
1491087251265,3,-8,7,-3,17,15,113,28,-8
1491087251265,3,-1,12,75,107,18,-42,-36,-1
1491087251266,0,-8,1,9,27,123,126,0,-3
1491087251266,0,-16,0,-88,-76,-90,-86,4,-3
1491087251302,1,3,0,-44,0,27,-3,-1,-13
1491087251302,1,-15,0,24,-13,-5,64,39,-2
1491087251303,2,19,-3,-5,-31,-79,-93,-27,-7
1491087251303,2,3,10,114,97,90,127,19,4
1491087251304,3,-12,-8,-81,-116,-51,-122,-25,-3
1491087251304,3,0,10,2,-6,1,0,22,0
1491087251340,0,11,0,25,43,61,3,4,4
1491087251340,0,-21,-5,12,-25,16,-7,-18,-11
1491087251341,1,20,3,40,23,9,-12,-11,-1
1491087251341,1,4,-19,-36,-44,-18,-36,30,6
1491087251341,2,4,-16,-22,-17,-19,14,9,-4
1491087251341,2,8,-21,21,-7,14,-13,-35,3
1491087251377,3,12,-16,10,36,-20,7,0,14
1491087251377,3,-5,-29,-43,-44,-68,-62,-2,-19
1491087251378,0,-13,-17,-13,3,-20,3,-37,-8
1491087251378,0,2,-13,-10,12,34,-18,27,12
1491087251379,1,-7,20,19,-10,34,32,24,-1
1491087251379,1,28,28,-4,45,-3,9,-23,10
1491087251380,2,-4,7,-30,-24,27,39,42,-1
1491087251380,2,3,24,-22,10,-25,-72,-65,0
1491087251415,3,-5,15,5,1,-52,6,2,-17
1491087251415,3,0,12,35,12,43,16,-9,-3
1491087251416,0,-16,-2,10,15,38,24,31,8
1491087251416,0,-7,-22,-17,-21,14,82,21,-1
1491087251416,1,-16,-11,25,2,-34,-51,-52,-18
1491087251416,1,-7,-10,3,1,1,-36,-33,-15
1491087251417,2,10,-10,16,10,-17,13,-18,-6
1491087251417,2,4,-10,10,-4,-11,3,6,3
1491087251452,3,-18,-9,1,12,-26,40,-1,3
1491087251452,3,-12,-2,-6,-4,21,9,9,-6
1491087251453,0,3,0,-12,-8,-46,-23,-41,5
1491087251453,0,-5,9,-14,1,71,101,72,-5
1491087251454,1,3,11,-15,-11,-68,-45,-25,4
1491087251454,1,-1,11,-27,-21,-47,-64,-37,-6
1491087251455,2,-8,18,4,19,-8,17,-1,-22
1491087251455,2,-9,27,8,-32,-14,-12,-11,7
1491087251490,3,-8,22,-7,9,63,90,53,9
1491087251490,3,8,25,-11,6,3,1,16,8
1491087251527,0,-15,39,16,-8,-47,-56,-7,6
1491087251527,0,8,38,-12,-11,7,-21,-32,-14
1491087251565,1,-5,35,-5,12,19,30,30,3
1491087251565,1,-3,39,-4,-18,32,63,30,-3
1491087251565,2,-5,27,5,3,-67,-63,-20,3
1491087251565,2,-12,6,-20,-12,-53,-12,-22,-14
1491087251566,3,18,-11,-17,-8,8,8,-17,5
1491087251566,3,22,-17,18,19,28,7,9,6
1491087251567,0,13,-25,2,2,55,52,24,5
1491087251567,0,-7,-28,2,10,29,-11,-16,9
1491087251602,1,-7,-35,-9,-6,-6,70,66,0
1491087251602,1,-23,-24,7,2,-54,-69,-65,-11
1491087251603,0,-9,-14,-1,9,-21,25,-18,4
1491087251603,0,4,-16,-2,19,30,-35,-47,-10
1491087251604,3,-15,13,6,-13,10,63,31,-7
1491087251604,3,0,9,-52,5,-105,-128,-26,-24
1491087251605,0,-12,15,10,24,26,8,-27,-18
1491087251605,0,-21,2,0,-26,70,85,24,23
1491087251640,1,-10,10,-11,0,-120,-108,-2,1
1491087251640,1,-14,-16,2,-2,82,102,91,-8
1491087251641,2,-5,-4,0,-1,-17,-78,-56,-6
1491087251641,2,7,-13,-4,21,7,6,-13,-18
1491087251642,3,-1,-17,1,0,53,3,4,12
1491087251642,3,2,-21,11,-1,102,127,127,28
1491087251643,0,-9,-17,10,-10,-85,-42,-67,-32
1491087251643,0,-14,-29,-54,-76,-101,71,3,-32
1491087251677,1,2,-13,16,10,-19,-70,-14,-8
1491087251677,1,6,-39,-7,32,42,105,20,10
1491087251678,2,-9,-45,31,1,74,-24,61,23
1491087251678,2,20,-29,-25,25,-76,72,58,-1
1491087251679,3,-4,-1,11,-5,19,11,-22,-13
1491087251679,3,-24,17,15,-4,-12,-128,-47,-23
1491087251680,0,32,21,26,63,67,12,19,49
1491087251680,0,-9,12,5,-58,-24,4,4,-17
1491087251715,1,2,-3,-59,-45,-41,31,-30,10
1491087251715,1,36,32,64,16,44,48,30,25
1491087251715,2,-13,-5,-9,-25,31,-18,4,-8
1491087251715,2,0,7,50,100,45,71,82,34
1491087251716,3,17,0,-70,-90,-84,-86,-30,-1
1491087251716,3,-16,-7,-16,-17,13,98,-3,-30
1491087251717,0,-6,8,-16,6,29,124,13,-10
1491087251717,0,0,19,33,-35,84,-54,-35,-7
1491087251752,1,-26,17,11,78,14,-53,-37,11
1491087251752,1,33,6,12,-8,-76,-50,-9,17
1491087251753,2,30,4,-53,-13,15,-9,-13,-16
1491087251753,2,-20,9,17,6,49,-14,-40,14
1491087251754,3,-24,-14,56,-15,42,127,33,-22
1491087251754,3,-15,12,-82,-6,-128,-128,-50,7
1491087251755,0,15,4,-4,-21,-4,2,-33,-52
1491087251755,0,9,1,-20,-5,27,-15,20,-11
1491087251790,1,34,4,40,28,33,32,21,18
1491087251790,1,-7,-9,36,7,4,45,30,17
1491087251790,2,-17,-8,-34,-9,-26,76,-22,-9
1491087251790,2,0,9,-5,13,-126,-122,-37,-3
1491087251791,3,11,14,-3,-55,68,-22,-71,-3
1491087251791,3,-39,-24,-34,15,29,-58,22,-17
1491087251792,0,-13,14,7,-20,-40,-21,-12,3
1491087251792,0,14,2,61,98,113,90,7,1
1491087251827,1,-20,-21,-39,-50,-60,-58,13,-3
1491087251827,1,27,-10,-32,-94,-54,26,-13,-6
1491087251828,2,-24,0,32,89,66,-61,38,9
1491087251828,2,-1,-1,-35,-35,-78,-26,-81,-34
1491087251829,3,28,-8,29,28,95,87,61,-2
1491087251829,3,6,30,39,-2,-41,-15,44,26
1491087251830,0,20,-6,-34,5,-67,67,-40,-14
1491087251830,0,15,4,16,24,28,76,86,10
1491087251865,1,-16,-5,-4,8,-27,24,40,1
1491087251865,1,12,5,68,66,104,127,10,16
1491087251865,2,-21,-4,-22,-49,118,-56,8,11
1491087251865,2,13,5,-27,-52,-128,-63,-15,6
1491087251902,3,-25,-4,-17,10,55,2,28,-28
1491087251902,3,15,1,-21,-18,25,4,-49,2
1491087251903,0,31,-2,49,5,-19,41,46,28
1491087251903,0,-41,-10,-34,-52,-6,-76,-79,-13
1491087251904,1,-5,3,-20,13,-9,12,42,-3
1491087251904,1,34,14,51,-2,15,6,-60,-1
1491087251905,2,-1,-2,-1,36,4,65,113,41
1491087251905,2,-27,-10,-57,16,2,-97,-113,-21
1491087251940,3,2,-1,12,21,-18,127,15,-12
1491087251940,3,-24,-12,-31,-18,-17,-15,-44,-12
1491087251940,0,28,2,33,-35,-27,85,64,19
1491087251940,0,-12,2,12,2,-6,-57,109,12
1491087251941,1,-11,-9,-12,22,-63,-78,-128,-27
1491087251941,1,4,3,-8,-22,88,90,47,4
1491087251942,2,-9,2,14,13,24,-110,-84,-14
1491087251942,2,9,-3,3,-19,-10,-3,-6,36
1491087251977,3,-20,0,-21,5,-42,-66,-16,-26
1491087251977,3,-11,-11,3,16,-16,64,24,-14
1491087251979,0,-74,-15,-31,-65,-15,-95,-61,-42
1491087251979,0,63,15,36,38,38,122,-2,22
1491087251980,1,10,5,5,-7,19,-72,36,29
1491087251980,1,-11,-1,-8,25,68,-6,-11,1
1491087251981,2,5,-2,-5,-16,23,0,-39,-5
1491087251981,2,-18,2,-19,-23,-72,-68,38,-7
1491087252052,3,-24,-18,12,-26,43,127,25,-2
1491087252052,3,-4,10,-37,-40,-100,-128,-63,-32
1491087252053,0,-12,1,4,-23,-20,79,8,-12
1491087252053,0,15,-5,2,-59,-7,102,-34,-10
1491087252054,1,17,1,20,62,87,68,25,19
1491087252054,1,-41,-10,15,31,15,-25,45,-5
1491087252055,2,37,0,6,-11,-49,107,1,18
1491087252055,2,-2,-5,24,127,64,-96,-27,-17
1491087252090,3,-7,-5,-18,-60,-35,-20,15,17
1491087252090,3,0,-2,-29,-65,-91,-53,-113,-38
1491087252091,0,17,2,-22,7,-23,21,80,19
1491087252091,0,-18,-13,38,-14,19,127,95,34
1491087252091,1,17,12,-14,35,36,-93,-101,-15
1491087252091,1,-5,-14,-55,27,-42,49,-6,-9
1491087252092,0,-22,-3,3,35,52,-69,25,13
1491087252092,0,35,-2,-7,-32,0,116,93,10
1491087252127,1,-1,21,21,-14,-18,-89,-125,-17
1491087252127,1,0,-9,10,8,22,45,28,18
1491087252128,2,-28,-8,7,89,117,82,67,-1
1491087252128,2,12,-4,16,-99,-98,66,21,12
1491087252129,0,-3,-10,-21,-67,-48,-20,63,-3
1491087252129,0,-18,2,-1,106,74,-128,-64,-23
1491087252130,1,17,-11,-6,11,2,85,47,31
1491087252130,1,-22,-3,24,-34,36,-1,-68,-1
1491087252165,2,-9,5,6,16,15,44,-2,-2
1491087252165,2,55,13,11,-2,33,-32,71,17
1491087252165,3,-32,-15,-8,21,-46,44,-33,-22
1491087252165,3,47,3,-11,2,-3,-109,-27,-3
1491087252166,0,26,15,21,11,4,55,21,20
1491087252166,0,-31,-4,19,-5,50,59,10,-16
1491087252167,1,11,5,-7,-25,-57,-71,-73,-22
1491087252167,1,-28,4,61,97,106,94,79,11
1491087252202,2,11,-16,-61,-115,-65,-128,-126,-26
1491087252202,2,-46,-1,-41,-40,-79,-89,-20,-25
1491087252203,3,28,-11,-1,71,91,127,17,23
1491087252203,3,-26,7,20,8,54,-128,92,46
1491087252204,0,11,8,14,53,-5,58,-86,-47
1491087252204,0,-29,-6,-6,-5,-40,13,-31,5
1491087252205,1,30,-19,-43,-48,-6,43,-2,1
1491087252205,1,26,28,56,-13,-23,20,67,17
1491087252240,2,1,-8,-5,14,-14,-66,24,22
1491087252240,2,0,8,-12,13,50,-27,-11,-18
1491087252315,3,-36,1,49,3,-40,23,27,-12
1491087252315,3,45,-7,-59,-46,-64,6,14,8
1491087252316,0,17,3,-2,-5,0,27,99,17
1491087252316,0,-14,-6,-2,17,62,-21,-128,-17
1491087252318,1,23,15,16,-4,101,4,-18,22
1491087252318,1,-28,-20,-45,-57,-96,-6,15,-37
1491087252318,2,34,16,23,-35,14,-64,27,45
1491087252318,2,-17,-26,-56,52,-9,-56,-36,-17
1491087252352,3,1,8,34,-17,-62,4,51,8
1491087252352,3,-8,1,-7,14,19,59,38,-22
1491087252353,0,16,3,29,-5,14,40,-38,-3
1491087252353,0,-35,-15,-21,21,-25,41,10,-6
1491087252354,1,14,19,4,10,38,-57,-18,24
1491087252354,1,-14,-8,-11,-29,-62,-1,-39,-19
1491087252355,2,-21,5,22,35,0,89,23,7
1491087252355,2,50,7,2,18,-8,-65,-70,7
1491087252390,3,9,13,26,-27,127,69,57,-3
1491087252390,3,-15,1,6,11,-65,-29,0,14
1491087252391,0,-27,-15,-42,46,-67,-62,-11,-33
1491087252391,0,-2,-1,2,-37,-42,-13,-81,-12
1491087252391,2,11,0,-7,-7,-18,-38,44,27
1491087252391,2,15,9,21,5,-24,-41,-12,-8
1491087252392,3,-27,-11,15,11,9,-3,36,8
1491087252392,3,-37,-5,-16,-12,68,84,-36,-30
1491087252427,0,-13,-15,-18,-40,-80,-31,-78,-37
1491087252427,0,-16,-8,-5,16,-4,37,-14,27
1491087252428,1,56,31,76,118,58,-10,52,-5
1491087252428,1,-3,-23,-57,-88,4,10,-32,19
1491087252429,2,0,12,18,60,40,11,66,16
1491087252429,2,17,0,-4,-45,-94,0,12,-13
1491087252430,3,-15,-6,-25,25,-22,21,21,6
1491087252430,3,-1,3,17,21,21,-66,-109,-15
1491087252465,0,-18,-1,11,12,48,-35,47,21
1491087252465,0,30,9,12,14,9,64,15,-7
1491087252467,1,-51,-21,-13,-24,-2,-23,10,-23
1491087252467,1,40,9,12,3,85,28,39,16
1491087252468,2,1,-3,16,50,85,127,116,32
1491087252468,2,-19,-1,2,-69,-92,-72,-67,-53
1491087252469,3,19,-8,-21,-30,53,79,-78,24
1491087252469,3,-16,-18,-50,-24,-75,-27,13,6
1491087252502,0,-42,-4,-7,-15,-84,32,-124,-49
1491087252502,0,-5,7,44,71,81,84,127,47
1491087252504,1,34,7,-9,-56,-10,-49,-60,-16
1491087252504,1,-61,-19,-40,-23,-45,-87,-95,-38
1491087252505,2,37,-4,11,15,52,58,73,32
1491087252505,2,-23,-3,15,20,27,-52,-18,14
1491087252507,3,-17,-2,-21,-44,-30,37,15,-8
1491087252507,3,10,4,15,21,29,38,27,42
1491087252540,0,-16,-12,-46,-22,-81,-95,1,-57
1491087252540,0,14,29,23,-6,-61,-10,16,22
1491087252541,1,10,-1,-4,-11,-42,-21,-76,-8
1491087252541,1,15,1,-17,44,58,40,56,-44
1491087252542,2,-6,4,-5,-19,-70,-78,-108,5
1491087252542,2,2,-5,-14,-32,37,83,-27,-16
1491087252543,3,30,16,19,48,44,51,52,24
1491087252543,3,-12,-2,14,-14,-22,90,22,7
1491087252577,0,19,12,13,1,49,-1,42,34
1491087252577,0,7,-6,-11,48,-18,-41,-33,-31
1491087252579,1,-40,-14,38,16,-64,101,-11,-11
1491087252579,1,-11,-11,-65,-74,-66,-128,-41,-31
1491087252580,2,-5,7,-7,-14,-18,-22,43,-5
1491087252580,2,-15,-5,14,-51,37,-28,-64,-13
1491087252581,3,-18,-21,-75,68,-40,72,92,4
1491087252581,3,24,34,79,107,105,6,28,46
1491087252615,0,14,-13,-9,-14,2,35,8,19
1491087252615,0,-11,-3,-24,-34,-60,-19,-11,-4
1491087252616,1,-2,6,16,-18,94,0,-64,-55
1491087252616,1,14,-1,-6,58,0,-36,50,59
1491087252617,2,5,12,16,-20,6,59,74,57
1491087252617,2,-48,-19,-20,-51,-29,35,-85,-67
1491087252618,3,31,-24,-55,-12,-54,-122,-60,1
1491087252618,3,3,11,79,-69,-61,69,44,-7
1491087252652,0,2,-11,-42,72,21,-91,8,-14
1491087252652,0,45,10,16,24,-36,67,56,21
1491087252654,1,-31,-9,-38,-23,-23,6,2,30
1491087252654,1,-25,-20,-18,27,-60,19,29,-9
1491087252655,2,40,-3,10,-68,-26,-12,-53,-21
1491087252655,2,-21,-4,-23,-1,49,31,102,3
1491087252656,3,11,16,22,-27,30,-44,-16,-13
1491087252656,3,18,13,29,68,117,104,55,16
1491087252765,0,-17,-11,17,-13,35,73,-14,-15
1491087252765,0,20,-6,-2,-21,21,-43,58,18
1491087252766,1,-5,6,5,29,38,-80,58,38
1491087252766,1,-4,2,-3,63,11,109,71,-35
1491087252767,2,-28,-2,30,-57,15,-70,-103,-19
1491087252767,2,-22,-14,-22,-20,-60,32,67,-21
1491087252768,3,-3,-14,-27,-46,-21,-22,45,-16
1491087252768,3,-7,-7,-79,-97,-108,-79,-104,-40
1491087252802,0,-32,3,11,109,42,31,11,-28
1491087252802,0,45,6,60,38,127,89,20,59
1491087252803,1,-22,9,30,23,-116,12,42,-6
1491087252803,1,-1,-24,-51,-33,-19,-20,-88,-9
1491087252804,2,59,20,46,47,60,-21,20,35
1491087252804,2,-38,-7,-5,-38,52,12,-70,0
1491087252805,3,54,5,13,-37,-14,37,-3,29
1491087252805,3,-19,4,15,49,69,62,6,-9
1491087252840,0,13,1,-4,-19,2,-69,6,25
1491087252840,0,-1,4,27,25,-21,-8,-40,-5
1491087252841,1,18,2,13,-11,32,21,-21,34
1491087252841,1,-6,-15,-28,-2,-71,-74,-68,4
1491087252843,3,-32,5,3,-82,-22,-65,-63,-22
1491087252843,3,15,-6,-12,10,-35,-11,83,14
1491087252843,0,7,-17,-66,-13,-13,-61,-34,-27
1491087252843,0,-56,-10,-18,26,54,-17,-31,-34
1491087252915,1,-3,7,49,-33,89,127,88,45
1491087252915,1,15,2,11,33,-11,-52,-19,-5
1491087252916,2,-33,-8,-11,-2,-58,-44,-8,-11
1491087252916,2,20,-9,-26,-11,-12,-26,-9,6
1491087252952,3,-7,3,34,76,58,-19,56,-9
1491087252952,3,-33,-6,-2,-95,-30,44,-82,-33
1491087252954,0,15,-1,-3,37,48,75,47,7
1491087252954,0,39,17,30,53,78,-65,75,69
1491087252955,1,29,16,-25,-65,-95,30,-81,-2
1491087252955,1,14,-15,-22,55,-42,67,75,-16
1491087252956,2,10,15,29,-22,-45,-78,-44,16
1491087252956,2,-26,-23,-88,-62,-89,7,-41,-15
1491087252990,2,9,-1,-3,21,57,-65,54,20
1491087252990,2,-17,6,92,50,49,112,-24,-8
1491087252992,3,5,-11,-42,59,-72,-102,-88,-23
1491087252992,3,2,8,-34,-128,-23,-20,-103,-24
1491087252992,0,-28,-23,-69,25,-31,7,63,-34
1491087252992,0,6,7,5,96,70,104,67,12
1491087252993,2,9,-3,-30,-21,22,58,-117,-6
1491087252993,2,-17,-1,-14,-72,-58,27,31,-5
1491087253027,3,1,7,51,94,127,22,14,4
1491087253027,3,-4,0,25,-26,-22,-82,-47,-13
1491087253028,0,-14,-5,39,-13,93,116,79,31
1491087253028,0,3,-8,-101,19,-115,-128,-118,-16
1491087253029,1,0,-4,-8,-128,-73,4,52,-13
1491087253029,1,-9,-2,23,113,81,67,-50,-22
1491087253030,2,-22,-4,-23,-96,39,56,-29,-25
1491087253030,2,11,-8,-31,-63,-98,-38,8,-9
1491087253065,3,-19,-4,6,31,42,67,1,-6
1491087253065,3,24,6,10,28,89,-1,61,33
1491087253066,0,8,17,28,-10,-41,15,-16,-3
1491087253066,0,-1,3,43,53,43,34,15,0
1491087253067,1,-3,-9,-40,-26,-51,-24,-7,-2
1491087253067,1,-33,-15,-34,-38,-84,-11,18,17
1491087253068,2,7,0,15,-26,-22,-74,-13,0
1491087253068,2,8,5,-2,19,15,-87,4,-18
1491087253102,3,11,12,35,112,127,80,3,4
1491087253102,3,8,-7,-4,-104,-72,69,59,20
1491087253104,0,-12,-6,-23,39,-45,-60,-96,-6
1491087253104,0,13,1,11,1,56,31,1,-5
1491087253105,1,-14,-6,-11,-27,5,18,-51,-11
1491087253105,1,2,4,12,35,-34,45,51,16
1491087253106,2,-3,-2,10,-6,5,-79,86,21
1491087253106,2,-8,-6,-22,-24,-5,65,13,-9
1491087253140,3,15,4,-30,0,-20,-29,-15,-12
1491087253140,3,-10,-1,-18,-27,-57,-21,-21,-2
1491087253141,0,14,18,111,110,72,117,69,30
1491087253141,0,-30,-14,-42,-84,59,-61,-71,-37
1491087253142,1,-19,-13,-87,-88,-128,-128,-8,-23
1491087253142,1,18,3,10,15,46,16,8,13
1491087253143,2,-11,-2,8,24,65,55,-24,-34
1491087253143,2,18,8,48,72,47,127,33,33
1491087253177,3,25,18,27,-47,105,-109,101,73
1491087253177,3,-25,-2,-26,90,-29,4,-94,-64
1491087253178,0,12,2,26,9,29,41,50,10
1491087253178,0,-4,-1,-37,-83,-101,-12,-12,0
1491087253179,1,-5,-13,21,-4,27,69,16,-1
1491087253179,1,-6,-13,-8,-9,2,3,3,13
1491087253180,2,2,-2,-42,-23,-101,-118,-119,-30
1491087253180,2,-22,-17,40,12,-11,-5,3,-12
1491087253216,3,1,-2,-10,4,-3,24,7,-8
1491087253216,3,0,-3,13,10,62,-9,0,17
1491087253217,0,-11,-10,-16,-26,-38,2,-18,-12
1491087253217,0,-4,5,-1,9,-56,-25,6,-7
1491087253218,1,0,4,5,11,-5,-57,-41,-8
1491087253218,1,2,9,10,5,25,44,22,1
1491087253219,2,-12,-5,-36,-27,25,3,-1,-2
1491087253219,2,12,13,-9,-6,-25,-70,-5,5
1491087253252,3,0,-2,19,29,18,96,-35,-12
1491087253252,3,-15,-9,-20,-35,15,39,34,1
1491087253254,0,4,2,-32,-37,-74,-100,-94,-23
1491087253254,0,-7,-6,52,21,64,120,51,6
1491087253254,1,-4,-7,-38,-14,-56,9,-5,-7
1491087253254,1,8,-4,5,-11,-1,-21,-12,1
1491087253255,2,-8,-4,31,28,67,1,36,0
1491087253255,2,-7,-1,-14,-16,-9,20,-61,-5
1491087253290,3,-16,-2,-3,-9,-61,-43,-95,-42
1491087253290,3,-6,0,1,4,32,37,27,13
1491087253291,0,0,-6,-30,-8,-5,19,3,6
1491087253291,0,5,-1,53,30,29,28,54,5
1491087253292,1,-11,-12,27,32,62,85,79,11
1491087253292,1,-15,2,-24,-59,-107,-128,-90,-24
1491087253293,2,-6,-9,-31,1,47,85,-2,-11
1491087253293,2,9,7,-31,-3,-33,-64,25,12
1491087253327,3,3,-1,14,28,61,73,21,15
1491087253327,3,8,3,33,22,66,-13,67,21
1491087253328,0,-14,-9,-51,-74,-112,-81,-46,-17
1491087253328,0,5,6,5,18,-2,6,-40,-18
1491087253329,1,6,-2,-4,0,17,4,-10,9
1491087253329,1,13,16,25,4,27,16,48,8
1491087253330,2,-9,-6,33,41,34,45,43,20
1491087253330,2,9,17,-27,-6,-64,-57,28,3
1491087253365,3,-4,-19,-28,-9,-32,15,-94,-28
1491087253365,3,-9,-5,15,12,52,107,-9,-14
1491087253366,0,-3,2,75,84,78,58,42,-2
1491087253366,0,2,-5,-55,-63,-44,-53,-31,25
1491087253368,1,-9,-1,-34,-30,-76,-61,11,-9
1491087253368,1,8,12,49,30,39,29,-18,4
1491087253369,2,6,13,-27,-42,-51,-17,27,5
1491087253369,2,-7,-2,29,44,78,20,-13,-20
1491087253402,3,11,3,4,10,3,-14,34,20
1491087253402,3,-10,-15,-40,-44,-46,-21,-35,-18
1491087253403,0,13,15,23,22,0,-36,-79,-2
1491087253403,0,-10,-10,1,-9,12,41,11,-6
1491087253440,1,-6,-4,-6,-18,3,2,44,7
1491087253440,1,4,14,52,36,45,-16,-20,3
1491087253441,2,2,-5,-12,-19,6,54,48,5
1491087253441,2,-8,-19,-12,-16,-2,-61,-43,-12
1491087253442,3,-7,15,-13,1,-65,-6,14,-7
1491087253442,3,-1,-10,-5,-10,-26,-79,-19,-3
1491087253443,0,-17,-13,-19,-13,39,39,7,0
1491087253443,0,23,10,6,-13,-43,-20,-54,-12
1491087253477,1,-6,-3,11,-20,11,20,30,-1
1491087253477,1,-1,-8,-27,-6,-17,-10,32,8
1491087253479,2,6,6,-4,5,-20,-35,-6,-4
1491087253479,2,-4,-10,39,28,61,88,32,15
1491087253479,3,-11,-6,2,4,18,-3,-7,-7
1491087253479,3,2,-6,-27,-12,-33,-31,-16,-18
1491087253480,0,-5,-6,-22,-63,-43,-23,-28,-7
1491087253480,0,10,-16,6,1,6,21,-6,1
1491087253515,1,26,6,6,-5,6,-5,19,11
1491087253515,1,-15,-15,-11,9,34,39,7,-10
1491087253516,2,19,-16,-36,12,-36,-44,-43,13
1491087253516,2,-6,9,36,28,65,31,93,16
1491087253517,3,-18,-2,22,-14,-61,-28,-63,-21
1491087253517,3,-15,-12,-28,-5,-22,11,-9,-11
1491087253518,0,-13,-10,-17,32,12,25,50,-10
1491087253518,0,3,19,12,-7,-60,-69,-30,1
1491087253590,1,8,8,7,16,51,19,3,7
1491087253590,1,11,3,16,2,31,81,48,24
1491087253591,2,-27,-6,-9,4,7,91,-51,-21
1491087253591,2,-27,-8,-39,20,-85,-77,-71,-26
1491087253592,3,7,-3,23,20,43,50,27,6
1491087253592,3,14,16,-36,-33,-77,-2,-17,-2
1491087253593,0,-1,9,37,6,57,54,17,4
1491087253593,0,16,6,-10,-17,-6,-18,3,-1
1491087253627,1,-11,1,22,37,58,10,-21,-1
1491087253627,1,-5,-14,-53,-21,-32,19,2,-4
1491087253629,2,-4,3,-4,-15,-97,-111,-21,-2
1491087253629,2,-12,-8,-27,-17,-3,39,-10,-1
1491087253630,3,4,11,23,18,14,15,18,15
1491087253630,3,-5,5,52,64,127,107,32,9
1491087253631,1,-8,1,-16,-28,-13,18,55,-7
1491087253631,1,25,10,17,19,52,53,23,19
1491087253665,2,-11,8,29,37,81,110,13,2
1491087253665,2,-3,-7,9,17,-10,-98,3,-4
1491087253666,3,-4,-6,-40,-48,-4,-57,-21,1
1491087253666,3,-18,1,-5,-43,-73,-48,-74,-25
1491087253667,1,-17,-15,10,11,4,-11,23,11
1491087253667,1,2,1,-5,-21,-119,-110,-25,-10
1491087253668,2,-2,-13,-7,-25,-19,-56,47,-4
1491087253668,2,-23,-6,16,20,25,19,-16,-18
1491087253702,3,8,-14,-9,-11,26,17,9,17
1491087253702,3,-22,-29,-54,26,-39,12,-11,-23
1491087253704,0,20,2,48,32,40,20,72,17
1491087253704,0,-6,4,7,6,13,-61,-25,3
1491087253705,1,-1,-2,-1,6,-19,-46,-41,-12
1491087253705,1,10,-7,3,-12,105,53,21,20
1491087253706,2,-9,-11,-32,-10,-90,-49,-105,-25
1491087253706,2,-35,-16,3,-5,100,127,104,-2
1491087253740,3,2,-3,-14,-20,-72,25,-23,-12
1491087253740,3,25,12,7,-20,-53,-91,-31,16
1491087253742,0,10,11,52,65,81,103,53,33
1491087253742,0,8,-2,-36,-51,-35,-30,-65,-20
1491087253743,1,-16,-19,-20,-22,-2,105,1,-14
1491087253743,1,1,-20,61,45,86,-4,105,14
1491087253744,2,1,-33,-90,-93,-99,25,-18,11
1491087253744,2,5,-5,19,32,-51,-68,-55,-7
1491087253777,3,12,-11,2,-20,-29,85,77,5
