1491088228392,0,57,-48,-96,-80,-40,-84,-4,-74
1491088228392,0,39,-13,33,69,-1,-26,-19,-35
1491088228394,1,17,-17,12,25,18,17,21,-3
1491088228394,1,-20,13,34,53,14,38,10,10
1491088228394,2,-23,22,32,1,-6,31,-4,41
1491088228394,2,-29,-5,-21,-37,-7,13,-28,15
1491088228430,3,-33,-9,-20,-21,-29,-32,-16,9
1491088228430,3,-8,0,-5,-20,-12,-13,-27,5
1491088228431,0,-22,4,11,8,6,13,-21,11
1491088228431,0,-15,1,-7,-7,0,4,17,6
1491088228432,1,1,2,3,4,6,11,-12,16
1491088228432,1,5,4,-5,1,7,-20,-32,-9
1491088228432,2,-20,4,33,30,3,-15,62,18
1491088228432,2,8,-1,-15,-27,1,23,0,18
1491088228467,3,-14,-2,-9,-8,-9,-25,27,-6
1491088228467,3,9,-10,-9,6,5,25,12,-7
1491088228468,0,-13,-1,1,0,11,-3,-35,-11
1491088228468,0,-5,0,10,4,-9,1,-2,2
1491088228469,1,16,-1,0,-9,-7,-33,-12,-13
1491088228469,1,5,6,-4,-1,4,-9,-44,-21
1491088228504,2,-6,10,18,23,2,29,73,31
1491088228504,2,-8,-12,-12,-6,6,4,-1,-10
1491088228506,3,4,0,3,1,-11,-9,-56,-17
1491088228506,3,-12,-6,10,-3,-3,5,5,-4
1491088228506,0,10,-1,-20,0,6,-4,1,18
1491088228506,0,-5,-2,-9,-12,-2,-4,12,-8
1491088228507,1,14,9,4,3,-8,-22,-36,9
1491088228507,1,-23,-11,-5,-10,5,28,68,5
1491088228542,2,-9,-13,3,-2,-14,0,-39,-26
1491088228542,2,16,0,7,9,-10,-51,-16,6
1491088228543,3,-5,12,11,14,16,11,-16,-6
1491088228543,3,13,-1,-12,-25,-5,-9,20,4
1491088228544,0,-1,-3,10,30,15,49,15,12
1491088228544,0,-26,-7,-23,-23,-4,8,1,-9
1491088228544,1,3,1,8,17,9,4,1,9
1491088228544,1,11,-1,6,7,-16,-41,-30,-11
1491088228580,2,-9,-3,-1,3,12,-9,2,-16
1491088228580,2,-3,5,3,-7,-6,-10,-19,-5
1491088228582,3,-8,-14,-12,-21,-22,-15,26,1
1491088228582,3,-4,-4,-6,-1,-3,13,13,7
1491088228583,0,6,-3,-2,0,0,2,-4,-2
1491088228583,0,0,-1,-1,-1,-14,-24,-49,-20
1491088228584,1,-6,-2,-11,-8,17,61,53,15
1491088228584,1,4,-3,0,11,-8,-4,-32,-18
1491088228617,2,-19,0,-12,-18,-20,-45,-24,2
1491088228617,2,-7,2,13,13,27,35,60,12
1491088228619,3,-6,-10,-7,-4,-17,-20,3,-19
1491088228619,3,8,-7,-11,-13,-5,-18,-55,-7
1491088228620,0,5,7,3,-5,6,13,25,21
1491088228620,0,-3,-2,-2,9,-16,-35,-13,-18
1491088228655,1,2,5,1,-17,12,21,-22,-8
1491088228655,1,-4,-1,0,-3,13,10,17,2
1491088228657,2,-6,4,2,-1,-15,-29,3,-15
1491088228657,2,8,2,2,-3,4,12,-13,0
1491088228657,3,-3,-9,-7,28,6,21,57,23
1491088228657,3,1,2,-2,-4,-18,-50,-46,-25
1491088228658,0,17,-5,-2,-18,-7,-6,-17,2
1491088228658,0,4,11,12,13,16,43,57,23
1491088228692,1,-7,-6,-2,-8,-21,-29,-39,-10
1491088228692,1,-2,-7,-20,-21,2,-8,15,19
1491088228693,2,4,-5,-2,4,3,-2,-26,-13
1491088228693,2,3,-1,6,-2,9,-2,-38,-11
1491088228694,3,8,10,3,2,-8,-1,-18,-3
1491088228694,3,-13,-10,2,-6,-4,-3,30,14
1491088228695,0,-1,-5,-9,-3,6,37,18,-12
1491088228695,0,3,-2,-3,12,-4,6,-9,8
1491088228730,1,4,1,5,-12,-4,11,36,2
1491088228730,1,20,4,-5,-5,2,12,-13,-1
1491088228731,2,-4,4,7,10,6,10,1,11
1491088228731,2,-4,-9,-6,4,-11,-7,-49,-35
1491088228732,3,4,11,5,-5,-6,-29,-19,21
1491088228732,3,-22,-6,4,12,2,2,6,6
1491088228733,0,-2,1,10,15,11,-16,-23,-6
1491088228733,0,-1,6,-8,-32,-6,35,43,2
1491088228767,1,-6,-7,-8,-12,24,40,-28,-15
1491088228767,1,-8,-8,-3,31,2,16,27,5
1491088228768,2,10,-6,-6,-11,-12,-34,-46,6
1491088228768,2,0,1,6,10,-6,-30,2,2
1491088228770,3,6,-2,-4,-8,6,11,-15,-7
1491088228770,3,0,3,2,-13,-2,17,48,9
1491088228804,0,5,-5,9,3,-9,-23,4,-10
1491088228804,0,6,-10,-18,-2,1,-34,8,11
1491088228805,1,-11,2,4,1,-6,15,-17,-28
1491088228805,1,21,5,2,2,-3,13,21,13
1491088228807,2,2,3,-1,4,-7,-5,4,-6
1491088228807,2,-10,-5,-4,-23,-11,-37,0,9
1491088228808,3,-18,-6,-1,3,1,4,-22,-9
1491088228808,3,-14,4,5,7,0,6,-7,-1
1491088228842,0,-2,-8,-12,-19,-4,21,11,5
1491088228842,0,5,-4,1,2,-1,-12,-19,-4
1491088228843,1,-5,0,5,16,3,-26,-5,-11
1491088228843,1,3,6,15,2,-10,-22,-49,-30
1491088228844,2,6,2,-12,-15,12,67,106,31
1491088228844,2,-21,-4,-7,3,6,6,-1,-4
1491088228880,3,9,4,-1,12,-6,-6,11,7
1491088228880,3,13,-3,-9,-23,-8,-6,-22,-14
1491088228881,0,-15,0,0,19,16,-25,-64,-17
1491088228881,0,-3,11,20,9,-15,-4,-4,-14
1491088228882,1,5,-9,-7,-11,17,36,52,24
1491088228882,1,-4,-3,-9,-2,4,-29,4,7
1491088228883,2,-8,0,-1,1,-11,7,-20,-23
1491088228883,2,0,-5,-2,-13,2,27,51,16
1491088228917,3,-9,-5,2,-5,-8,-26,-26,-3
1491088228917,3,16,2,2,3,1,-8,5,13
1491088228918,0,-16,-4,-10,-5,-6,-20,-25,-12
1491088228918,0,3,-8,-4,6,3,-9,-22,1
1491088228920,1,-7,-3,-3,-2,-14,-16,-39,-27
1491088228920,1,12,-1,5,-6,12,10,86,63
1491088228921,2,-3,0,-10,1,8,46,-11,-9
1491088228921,2,4,1,-12,-15,-16,-14,-15,9
1491088228955,3,9,-7,-5,1,2,-23,-14,5
1491088228955,3,-20,0,9,17,13,11,-14,-29
1491088228956,0,13,-2,-5,-13,1,15,7,7
1491088228956,0,-11,-2,-2,1,-17,-4,-17,-14
1491088228957,1,9,9,8,6,18,2,8,14
1491088228957,1,-29,-10,-9,-19,-7,-2,6,-22
1491088228958,2,-13,-2,-9,-13,-1,5,17,19
1491088228958,2,26,-2,5,11,16,11,-10,-9
1491088229030,3,-12,-2,0,-4,-11,-18,-5,2
1491088229030,3,-3,-7,-5,-1,-9,16,-29,-11
1491088229031,0,-12,6,8,5,-4,-15,-23,-4
1491088229031,0,-15,0,5,-10,-16,-40,-7,-9
1491088229033,1,29,1,-4,10,1,30,-8,6
1491088229033,1,-11,3,-7,-13,-1,18,37,8
1491088229035,2,-11,-7,-2,1,6,-24,-4,-10
1491088229035,2,-6,3,0,2,10,36,-25,-29
1491088229067,3,-5,-1,5,-7,-6,-16,31,12
1491088229067,3,1,-12,-15,-8,-15,2,-14,21
1491088229070,0,-2,-5,1,5,-9,-11,-18,-6
1491088229070,0,19,10,10,3,5,-9,7,7
1491088229071,1,-28,-11,-12,-15,-15,-17,-57,-33
1491088229071,1,18,3,10,-10,3,5,76,28
1491088229072,3,5,0,2,-1,14,-4,26,26
1491088229072,3,-1,-8,-11,-5,-8,12,-42,-30
1491088229105,0,16,3,1,-5,-16,-16,-9,-2
1491088229105,0,-3,-3,-13,-13,6,12,12,4
1491088229107,1,-11,5,0,10,-2,9,-25,-22
1491088229107,1,3,-1,-1,4,-1,-28,-16,-16
1491088229108,2,5,1,7,-4,5,26,18,9
1491088229108,2,-21,-14,-4,-2,-2,17,24,1
1491088229109,3,-3,-3,-7,-8,-4,-20,20,-5
1491088229109,3,6,3,1,10,-1,6,-17,-11
1491088229142,0,-3,-4,1,-9,-18,-8,-55,-34
1491088229142,0,-3,4,5,5,-1,-29,27,20
1491088229143,1,-2,0,5,3,13,43,18,19
1491088229143,1,-2,-1,-16,-14,-20,-29,-35,-4
1491088229143,2,15,0,5,7,-2,-49,-26,-6
1491088229143,2,-10,-3,0,2,19,64,73,26
1491088229144,3,2,2,0,3,-2,15,38,-10
1491088229144,3,-9,1,-4,10,1,-11,-47,-5
1491088229180,0,-14,-5,-6,-12,-11,-19,-27,-16
1491088229180,0,14,-6,-3,3,9,-2,20,37
1491088229181,1,20,5,-2,7,2,-11,-4,-2
1491088229181,1,-1,2,8,-7,0,-15,24,3
1491088229182,2,-5,-5,-6,-22,-10,17,-14,2
1491088229182,2,9,1,0,21,-1,-14,-52,-20
1491088229183,3,-20,-10,-6,-11,-8,14,30,10
1491088229183,3,2,-2,-2,6,-3,-37,-52,-25
1491088229217,0,2,12,10,14,21,31,62,12
1491088229217,0,-3,-6,-17,-25,-14,15,-4,3
1491088229218,1,-8,-6,-4,-5,-11,-49,-52,-16
1491088229218,1,-10,-1,3,7,12,35,37,11
1491088229219,2,-13,-8,0,0,-5,-21,0,-12
1491088229219,2,5,1,1,9,-6,1,-25,1
1491088229220,3,0,0,-3,-12,-9,-30,63,5
1491088229220,3,-12,-6,-5,-11,6,22,-46,-25
1491088229255,0,20,15,1,-4,14,43,96,39
1491088229255,0,-12,-2,1,10,-3,-9,-62,-23
1491088229256,1,-2,-6,3,4,-1,-12,1,6
1491088229256,1,-3,14,13,13,-8,-22,0,-5
1491088229257,2,-4,-9,-13,-5,-5,0,12,8
1491088229257,2,2,3,2,9,1,-42,-35,-16
1491088229292,3,-4,0,-2,-12,-8,7,-16,-3
1491088229292,3,7,-8,-16,-28,-7,-2,40,8
1491088229293,0,19,3,4,10,-7,-6,-105,-24
1491088229293,0,2,5,4,4,7,18,102,27
1491088229293,1,-7,-8,-6,5,8,34,-1,-9
1491088229293,1,-4,-2,1,10,-8,-32,-3,7
1491088229294,2,4,-5,-4,-8,-3,4,-10,4
1491088229294,2,-2,-5,-6,-21,-4,-3,-22,-15
1491088229335,3,13,5,2,6,-6,0,-38,-4
1491088229335,3,-6,-6,-1,4,8,21,31,10
1491088229336,0,-1,9,7,14,8,-20,-25,-13
1491088229336,0,0,3,5,1,-5,-47,-84,-24
1491088229337,1,-6,-1,-7,-4,2,36,99,31
1491088229337,1,4,-11,-16,-12,-10,15,-58,-10
1491088229338,2,4,-3,0,-1,-16,-39,14,15
1491088229338,2,-12,-11,-5,-10,2,27,63,9
1491088229367,3,7,5,9,12,11,6,-43,-18
1491088229367,3,0,-2,6,13,9,3,-6,1
1491088229368,0,-11,-5,5,10,-4,1,8,1
1491088229368,0,4,1,3,2,-4,-3,-8,-10
1491088229369,1,-8,-9,-19,-12,-12,-28,-18,-12
1491088229369,1,-2,-3,-2,-1,-2,-10,27,16
1491088229369,2,-3,4,6,-5,-3,8,1,-2
1491088229369,2,-9,-4,-5,-1,-7,-19,-21,-1
1491088229405,3,4,-5,-1,2,5,0,-9,-15
1491088229405,3,-3,7,12,21,11,9,19,10
1491088229406,0,-1,-5,-3,-2,7,22,54,2
1491088229406,0,2,2,1,-24,-14,-3,5,11
1491088229407,1,6,-2,-9,-10,-5,-17,2,-11
1491088229407,1,-17,0,4,-11,3,28,-29,-14
1491088229408,2,-3,0,4,17,11,5,-2,-10
1491088229408,2,-10,9,2,1,-8,-5,6,-4
1491088229442,3,1,-1,-4,-11,-14,-13,4,4
1491088229442,3,-6,-3,-3,-9,-5,-40,-39,-14
1491088229443,0,-17,-9,-7,-10,0,27,41,0
1491088229443,0,0,-9,1,6,16,10,-2,-2
1491088229443,1,2,18,14,5,0,3,-24,9
1491088229443,1,-3,0,-8,-14,-13,-30,-12,-12
1491088229444,2,5,-10,-4,2,-3,-15,-39,0
1491088229444,2,2,2,-5,-6,-2,27,79,29
1491088229480,3,-14,-5,1,7,13,32,1,-4
1491088229480,3,5,-4,-6,-6,1,10,19,8
1491088229481,0,6,4,7,0,-8,-42,-39,-6
1491088229481,0,-3,3,7,20,-2,-31,-45,-22
1491088229482,1,11,-1,-1,-3,0,25,37,49
1491088229482,1,-4,2,-7,-11,3,26,9,-9
1491088229483,2,-3,-6,4,5,-13,-23,-7,0
1491088229483,2,-3,-2,-11,-3,5,10,-1,1
1491088229517,3,-12,-6,-3,-15,-13,-40,-37,-27
1491088229517,3,5,-2,-3,-11,0,-2,5,2
1491088229524,0,9,3,6,2,14,26,27,8
1491088229524,0,7,8,-2,-3,-5,6,-5,5
1491088229526,1,9,-4,3,-1,1,-9,-22,-3
1491088229526,1,4,-4,14,21,2,6,-6,-10
1491088229527,2,16,0,-23,-22,2,10,-19,-6
1491088229527,2,-11,3,6,-4,3,6,-3,5
1491088229555,3,-2,-4,2,5,-8,-10,10,-11
1491088229555,3,7,-1,5,-3,-7,-30,2,14
1491088229556,0,-19,-10,-12,-7,-3,15,16,-14
1491088229556,0,12,-4,-6,-4,-5,-34,-23,-6
1491088229558,1,-18,-8,-4,-5,8,53,13,-13
1491088229558,1,0,-3,0,-1,-15,-23,-9,-6
1491088229558,2,-14,-6,-19,-11,7,7,13,-6
1491088229558,2,2,-5,-4,-2,-2,5,-22,-5
1491088229592,3,-11,6,6,9,1,-22,-32,-15
1491088229592,3,-6,9,15,15,-6,-22,23,3
1491088229593,0,0,-3,-5,-11,3,36,-4,33
1491088229593,0,-2,-6,-3,-9,-4,-6,-4,-27
1491088229595,1,23,2,4,11,3,4,42,19
1491088229595,1,-3,-1,-9,-6,7,25,-14,-3
1491088229599,2,-10,0,-3,24,1,-14,-15,-9
1491088229599,2,5,-1,-3,-19,-16,-19,9,6
1491088229630,3,1,-3,-4,-6,-4,-3,1,4
1491088229630,3,-3,5,0,6,8,11,-4,-14
1491088229631,0,-8,1,9,4,-6,-43,-1,-18
1491088229631,0,-3,-5,0,8,2,20,-3,6
1491088229632,1,-9,0,-1,-1,-4,7,-4,-14
1491088229632,1,-11,-11,-12,-11,2,35,31,18
1491088229667,2,-15,-1,3,8,-4,-58,-19,-7
1491088229667,2,25,0,-7,0,9,33,52,18
1491088229669,3,-10,-4,-2,4,-8,-24,-42,-16
1491088229669,3,6,-4,-15,-4,2,14,14,1
1491088229672,0,-17,-3,5,-6,-4,0,-31,-3
1491088229672,0,20,7,0,2,-4,-14,16,6
1491088229673,1,2,-12,-9,-14,-15,-55,-32,-2
1491088229673,1,6,5,9,6,16,35,28,8
1491088229705,2,-4,-5,-2,-10,-1,14,27,4
1491088229705,2,-11,-3,-6,1,-11,-4,-28,-27
1491088229706,3,-3,-5,1,6,10,-6,-1,25
1491088229706,3,20,0,0,-1,-8,-18,-3,10
1491088229707,0,-2,-1,-8,-11,-9,3,-34,16
1491088229707,0,-13,-5,2,-4,4,16,47,-6
1491088229708,1,-14,1,6,21,0,-14,-30,-16
1491088229708,1,7,1,-17,-10,-18,-45,-36,-11
1491088229742,2,13,5,15,10,4,27,26,-8
1491088229742,2,9,3,-4,-10,2,-13,-7,7
1491088229743,3,-18,-6,-8,-18,5,78,81,14
1491088229743,3,-4,-8,-4,3,-1,-12,-16,-3
1491088229744,0,2,5,-1,0,2,8,1,-14
1491088229744,0,-13,4,8,-11,-14,-59,-61,-24
1491088229745,1,15,1,-3,14,15,35,67,42
1491088229745,1,-22,-7,-3,-13,-8,10,-42,-27
1491088229779,2,12,0,-3,-1,-4,11,-17,2
1491088229779,2,0,-6,5,-2,17,19,7,5
1491088229780,3,7,3,8,-1,5,20,53,18
1491088229780,3,4,0,-6,-3,-26,-26,-54,-26
1491088229781,0,-14,-7,0,-9,23,16,48,3
1491088229781,0,16,-11,0,4,-7,17,18,-1
1491088229817,1,23,0,-2,2,4,0,-40,-7
1491088229817,1,-16,-4,4,1,2,13,18,-2
1491088229818,2,-8,6,-2,-14,-19,-59,-35,-25
1491088229818,2,-6,2,1,5,0,4,-24,12
1491088229819,3,0,-2,-11,-21,-11,4,1,-14
1491088229819,3,-3,3,4,13,5,-13,52,20
1491088229820,0,4,2,6,2,-4,-35,-51,-35
1491088229820,0,2,-4,-1,6,7,27,54,44
1491088229854,1,-24,-10,-5,-16,-18,-44,-38,-9
1491088229854,1,14,6,9,13,7,2,31,6
1491088229855,2,-5,-10,-10,-15,-10,35,18,34
1491088229855,2,4,2,-7,0,7,11,-42,-22
1491088229856,3,-15,-3,-3,-6,-8,-9,-47,-16
1491088229856,3,9,-1,-4,0,13,17,61,13
1491088229857,0,-9,0,4,8,1,5,11,-9
1491088229857,0,-11,2,6,3,-11,-41,-37,-8
1491088229892,1,-9,2,1,-7,-12,-9,-6,-8
1491088229892,1,2,-9,-5,-18,3,4,9,5
1491088229893,2,15,-3,-10,0,-3,9,1,8
1491088229893,2,-11,2,2,-4,3,-5,5,-2
1491088229894,3,7,2,-1,13,-1,-36,-21,-12
1491088229894,3,-4,-1,0,10,5,15,1,1
1491088229895,0,2,-1,4,7,0,6,22,12
1491088229895,0,-14,-11,-10,-6,5,8,-14,-9
1491088229929,1,-2,7,1,3,1,-2,-26,-10
1491088229929,1,-15,-7,6,11,5,8,43,15
1491088229930,2,4,-1,-12,-19,-12,-25,-9,5
1491088229930,2,-12,-9,-14,-5,-1,13,-8,-37
1491088229931,3,-1,1,3,7,6,0,-10,9
1491088229931,3,1,5,-3,3,-2,-12,-37,-24
1491088229967,0,-12,-6,3,18,-13,-29,-18,-3
1491088229967,0,-3,-2,4,7,6,11,41,-5
1491088229968,1,14,1,-12,-7,-10,14,-8,-7
1491088229968,1,2,1,4,-9,6,19,-17,0
1491088229969,2,-3,-3,3,5,0,-15,-4,-3
1491088229969,2,-2,-8,-21,-18,-8,-12,-9,2
1491088229970,3,-9,4,8,5,9,4,-8,-15
1491088229970,3,1,-1,-6,-9,-11,-29,-23,6
1491088230004,0,-1,1,2,-11,-3,12,37,-3
1491088230004,0,2,-13,-8,-8,0,33,25,5
1491088230005,1,-6,-2,-2,-9,6,-4,-3,-3
1491088230005,1,-20,0,0,-1,-8,-33,-25,-25
1491088230006,2,17,1,-3,-4,5,36,5,-3
1491088230006,2,-10,-2,3,8,0,-27,-24,-13
1491088230007,3,-5,-6,-1,-7,-14,-27,-30,-19
1491088230007,3,0,7,9,11,7,21,29,23
1491088230042,0,-12,-6,-7,-4,5,15,11,-4
1491088230042,0,21,0,1,-2,-2,-9,41,22
1491088230043,1,4,-3,2,11,-9,-2,-31,-6
1491088230043,1,-8,-7,-12,-12,-6,-52,-54,-5
1491088230044,2,-5,-3,-3,5,29,81,41,12
1491088230044,2,-4,7,11,-4,-8,-8,-58,-7
1491088230045,3,16,4,-10,-5,-3,-9,52,1
1491088230045,3,-1,3,5,2,-15,9,-9,5
1491088230079,0,3,0,-7,4,2,-4,5,-1
1491088230079,0,-5,3,3,2,-1,7,42,5
1491088230080,1,-6,-4,-5,-22,-9,1,14,-11
1491088230080,1,4,-3,-4,17,13,11,9,7
1491088230081,2,1,-2,5,5,-11,-30,-33,-19
1491088230081,2,8,4,5,10,8,-12,14,8
1491088230117,3,2,1,9,11,7,2,20,6
1491088230117,3,2,-3,-12,-18,-26,-8,-46,-11
1491088230118,0,-4,-4,-9,-17,-4,-26,15,-2
1491088230118,0,-12,0,3,6,-4,22,-1,5
1491088230119,1,4,-8,-1,4,12,19,-29,-6
1491088230119,1,8,0,4,-6,2,17,36,17
1491088230120,2,6,5,1,6,-8,-22,-20,4
1491088230120,2,-3,0,-3,-2,2,8,11,25
1491088230192,3,-16,-9,-12,-7,1,-27,2,-6
1491088230192,3,-14,-3,8,-2,9,17,-19,-39
1491088230193,0,9,8,0,0,-4,-9,-59,3
1491088230193,0,-9,3,2,-4,-6,-12,40,4
1491088230195,1,6,-10,-13,-5,0,-13,-27,-4
1491088230195,1,-9,-6,-5,3,-6,9,31,-5
1491088230195,2,-6,-7,6,-3,-10,15,18,-1
1491088230195,2,-7,-1,-1,8,6,-2,-29,-9
1491088230229,3,8,4,5,8,-4,-19,-7,-2
1491088230229,3,12,5,3,-11,-3,16,-5,7
1491088230231,0,-14,-17,-20,-12,7,12,-6,-13
1491088230231,0,14,0,-3,-4,-11,-7,-30,22
1491088230232,3,15,0,-1,-2,3,26,105,41
1491088230232,3,2,-9,-7,2,-3,-6,12,-12
1491088230232,0,7,1,5,-5,-3,-2,9,11
1491088230232,0,-11,-9,-5,5,1,-14,-12,-10
1491088230267,1,-6,1,2,1,3,22,0,-21
1491088230267,1,-4,-3,-2,4,0,-13,-36,7
1491088230304,2,-4,-6,-6,-2,-5,-6,30,11
1491088230304,2,-3,-4,-7,-18,-10,-8,-2,-24
1491088230342,3,-5,0,-2,6,8,-1,-33,1
1491088230342,3,3,0,-3,-15,-8,4,-18,1
1491088230343,0,-11,-2,0,0,-1,-16,-10,-3
1491088230343,0,4,9,15,17,10,-2,-7,3
1491088230343,1,-1,-1,-9,-5,-11,-4,7,12
1491088230343,1,-3,-6,-12,-11,-13,-39,-30,-11
1491088230344,2,1,1,2,6,11,11,6,3
1491088230344,2,6,-3,-5,-2,-5,1,30,10
1491088230379,3,-10,-1,4,-2,3,16,-16,-13
1491088230379,3,-2,2,10,15,4,-11,2,3
1491088230380,2,-4,5,3,8,1,-23,-15,-21
1491088230380,2,-1,-1,3,10,13,50,56,14
1491088230381,3,-2,-5,-5,-12,-21,-10,-13,8
1491088230381,3,5,8,-7,-14,-8,-15,4,-4
1491088230382,2,-2,-6,-11,-13,0,28,1,-11
1491088230382,2,-8,-1,1,4,-1,-28,-38,-41
1491088230417,3,-3,6,10,9,8,26,17,27
1491088230417,3,-1,-2,-2,-3,-2,17,69,21
1491088230418,0,-21,-8,-7,-6,-21,-26,-20,-16
1491088230418,0,4,-5,-9,-5,8,5,-49,-19
1491088230419,1,3,-1,5,6,4,15,15,8
1491088230419,1,4,-2,6,12,1,-29,-30,-13
1491088230420,2,-13,4,-7,-14,-20,-20,-17,-8
1491088230420,2,1,1,-2,-8,19,16,49,20
1491088230454,3,-14,-5,-8,-3,-9,12,2,8
1491088230454,3,16,7,7,4,2,-20,-37,8
1491088230455,0,-2,-5,3,3,8,29,51,22
1491088230455,0,-3,1,0,5,-23,-51,-32,-22
1491088230456,1,17,-4,-6,-12,6,16,80,36
1491088230456,1,-24,-9,-4,1,0,-18,-16,-38
1491088230457,2,16,12,18,17,6,-2,-41,5
1491088230457,2,1,7,-8,-11,-4,34,32,31
1491088230492,3,0,3,2,-1,-7,-24,-39,-24
1491088230492,3,4,2,7,6,-6,-19,-12,11
1491088230493,0,-4,-11,-10,-8,-11,-17,22,4
1491088230493,0,10,-7,2,-3,15,24,11,-17
1491088230493,1,-5,0,-7,-7,-11,-5,-3,-1
1491088230493,1,-16,-9,-8,-12,-5,27,20,1
1491088230494,2,-1,0,0,-2,4,-21,-36,-5
1491088230494,2,4,3,9,11,-10,-19,-45,-17
1491088230529,3,3,-6,-7,-4,-10,-41,23,8
1491088230529,3,9,-1,4,0,12,56,3,0
1491088230530,0,-5,0,-3,-7,0,10,18,-7
1491088230530,0,-4,-3,-5,-13,-11,24,26,22
1491088230531,1,1,0,5,3,8,-25,-53,-28
1491088230531,1,0,2,-2,3,-9,-31,-6,8
1491088230532,2,3,-1,-4,-3,11,23,25,17
1491088230532,2,3,-3,-6,-1,-6,-14,-48,-14
1491088230567,3,-19,-2,1,-3,-2,14,57,17
1491088230567,3,8,3,-1,1,-5,5,20,-4
1491088230568,0,-10,-1,-3,-15,0,0,-35,-17
1491088230568,0,17,0,5,8,2,-15,14,7
1491088230569,1,-18,-1,-4,6,-2,25,16,6
1491088230569,1,3,2,-5,8,10,6,-5,1
1491088230570,2,12,1,4,10,0,3,5,7
1491088230570,2,-21,-3,1,-18,-17,-29,-35,-8
1491088230604,3,5,-11,-9,-9,-3,4,2,5
1491088230604,3,-12,-7,-9,-17,0,9,3,-17
1491088230605,0,1,-2,3,12,12,13,-7,-13
1491088230605,0,-3,1,-2,1,-12,-24,-21,-16
1491088230606,1,20,-2,4,5,-11,-29,-11,14
1491088230606,1,-8,3,1,-1,9,46,20,-5
1491088230607,2,3,-1,10,14,7,16,7,-1
1491088230607,2,-10,-11,-3,10,2,-10,4,-9
1491088230642,3,-2,9,-1,-5,-2,-12,-14,-1
1491088230642,3,0,1,-3,-1,-5,-7,-18,0
1491088230643,0,7,-1,1,10,5,-1,14,-7
1491088230643,0,8,-2,0,-4,5,17,12,9
1491088230643,1,-5,-1,-7,-9,-14,-26,-51,-24
1491088230643,1,15,-7,-7,-15,-12,-15,48,30
1491088230644,2,-2,2,1,1,5,0,-32,-6
1491088230644,2,-7,0,-4,3,12,20,39,9
1491088230680,3,-8,-4,3,3,0,-6,-46,-17
1491088230680,3,18,5,6,-3,-11,-10,23,3
1491088230681,0,-22,-11,-15,-14,-14,-25,-24,-30
1491088230681,0,21,5,-5,6,9,11,-26,-3
1491088230682,1,-8,-2,-4,-11,1,-8,28,0
1491088230682,1,-5,-7,0,-5,-2,-18,-14,-9
1491088230683,2,-13,1,13,5,4,27,25,19
1491088230683,2,3,3,-9,5,6,0,-7,-6
1491088230755,3,12,1,1,-6,4,10,13,10
1491088230755,3,-14,-5,-10,17,-6,-5,-30,-18
1491088230756,0,14,0,-10,-20,-1,-15,-22,-7
1491088230756,0,-18,-7,4,7,1,14,18,3
1491088230757,1,1,8,3,4,-11,-3,-21,7
1491088230757,1,4,2,-2,-8,4,-7,-1,-10
1491088230758,2,-8,-4,-5,0,6,2,1,1
1491088230758,2,1,5,3,-6,-10,-13,-32,0
1491088230792,3,-1,-3,-1,0,6,-12,14,-1
1491088230792,3,0,-8,0,-3,-10,-19,0,-2
1491088230793,0,-12,0,-2,0,-4,12,-6,1
1491088230793,0,-5,-5,4,-8,-6,-9,-10,1
1491088230795,1,-10,-4,-6,5,5,11,15,-23
1491088230795,1,8,5,7,-4,5,-7,-43,38
1491088230796,3,10,-4,-1,-7,-15,24,-6,11
1491088230796,3,-20,-8,-6,0,4,12,-15,-23
1491088230829,0,10,2,-5,-2,-9,-24,-21,-2
1491088230829,0,8,7,17,6,-2,-4,46,20
1491088230831,1,-15,-4,-17,-6,-7,-6,-14,-22
1491088230831,1,10,-1,-8,-10,-7,-14,36,24
1491088230832,2,3,-7,-9,-4,3,-5,-17,-6
1491088230832,2,-11,0,1,1,-3,-12,-3,-8
1491088230833,3,-6,-8,3,5,-3,-10,-15,-6
1491088230833,3,-15,-1,-3,1,1,25,-6,-18
1491088230867,0,2,-5,-7,-1,0,-1,-29,-1
1491088230867,0,-11,-5,-6,-8,-16,0,10,8
1491088230868,1,-3,7,12,5,12,-1,45,12
1491088230868,1,2,1,-4,0,-5,-19,-12,-6
1491088230905,2,4,3,14,4,6,31,32,11
1491088230905,2,-11,-7,-2,4,5,9,7,-14
1491088230906,3,5,-6,-7,-2,-6,-6,-31,-14
1491088230906,3,-36,-9,-5,-9,-7,-12,-18,-36
1491088230907,0,20,6,2,-2,-15,-16,-5,18
1491088230907,0,20,4,-13,-13,-5,-3,19,6
1491088230909,1,17,-2,0,-2,3,8,-15,15
1491088230909,1,5,4,10,12,10,-9,9,1
1491088230942,2,-16,-4,2,6,1,6,-26,-23
1491088230942,2,-1,3,-5,4,0,4,-17,11
1491088230943,3,7,-1,-10,-34,-9,-1,29,0
1491088230943,3,-3,-1,-1,4,-1,-9,-16,-12
1491088230946,0,10,3,4,10,9,14,19,8
1491088230946,0,17,-4,3,0,-1,6,-18,6
1491088230946,2,-13,-12,-11,-5,10,14,49,-1
1491088230946,2,4,-7,-5,-3,6,-6,10,-12
1491088230980,3,-16,6,2,13,7,21,-17,11
1491088230980,3,-8,-5,2,1,0,-3,-19,-8
1491088230981,0,12,6,4,11,0,-23,-2,22
1491088230981,0,4,-5,-1,-9,-10,-4,5,19
1491088230982,1,-1,-6,-2,-6,-9,-19,-14,-15
1491088230982,1,0,-5,-4,0,12,2,12,4
1491088230983,2,-6,-2,-7,-25,-12,-2,-10,-5
1491088230983,2,-4,-3,-3,-4,-2,-7,-5,-5
1491088231017,3,-4,-2,11,10,14,9,-19,-3
1491088231017,3,10,6,0,12,5,3,26,8
1491088231018,0,-12,-5,-13,-9,-15,-12,-62,-36
1491088231018,0,-18,4,9,3,-2,2,65,16
1491088231018,1,-3,-4,-8,7,5,10,37,9
1491088231018,1,12,-9,-3,-15,-5,23,2,0
1491088231019,2,-4,4,-6,-13,-3,-17,-14,-9
1491088231019,2,-11,-6,4,0,-7,-35,-60,-14
1491088231055,3,3,2,2,12,7,26,10,0
1491088231055,3,-10,-2,-1,-6,5,-14,9,6
1491088231056,0,-4,-2,1,-4,-1,31,11,4
1491088231056,0,12,-2,-4,-2,-11,-9,-35,12
1491088231057,1,-8,-5,-8,-6,-1,-26,16,-25
1491088231057,1,1,1,1,-2,-3,3,-43,-6
1491088231058,2,-4,1,-2,2,0,13,30,18
1491088231058,2,-8,1,8,4,5,-1,-5,-18
1491088231092,3,-14,-5,1,2,6,10,-14,3
1491088231092,3,14,-1,-8,-8,-4,10,82,16
1491088231093,0,10,5,4,0,0,-8,-19,-7
1491088231093,0,-9,2,-4,1,-3,-1,-15,-20
1491088231093,1,2,5,5,4,0,3,4,4
1491088231093,1,-16,-7,-1,-5,0,-11,-22,-10
1491088231096,2,-2,-6,2,-1,-18,-22,-12,-7
1491088231096,2,-9,-5,-9,-7,2,9,15,0
1491088231130,3,14,8,9,8,-5,-32,-54,-8
1491088231130,3,-19,0,-8,4,9,27,38,-12
1491088231130,0,9,-5,1,-4,-5,-5,20,5
1491088231130,0,4,1,0,-3,1,-7,-16,-7
1491088231167,1,-3,-5,-3,-6,0,-2,-11,3
1491088231167,1,3,5,10,7,-2,-19,-33,2
1491088231169,2,0,0,1,3,-2,1,12,-7
1491088231169,2,-20,-1,-9,-10,3,17,22,-3
1491088231170,3,15,-7,-10,-6,-1,4,-65,-13
1491088231170,3,14,-9,-5,1,-1,-1,42,22
1491088231171,0,-17,7,6,5,7,14,-11,11
1491088231171,0,9,1,10,8,0,5,-3,4
1491088231205,1,-5,-8,-6,-2,4,15,31,-4
1491088231205,1,-10,-7,-11,-15,-8,-5,-62,-20
1491088231206,2,3,-9,-11,-12,-11,-22,-12,11
1491088231206,2,-1,-2,0,6,-8,-20,5,-1
1491088231206,3,-17,2,0,-2,-2,-11,-27,-32
1491088231206,3,9,-2,-3,-7,-5,9,43,42
1491088231207,0,9,-7,3,1,-1,0,11,-10
1491088231207,0,-3,-3,-17,-24,-11,-17,-16,-2
1491088231242,1,-4,5,3,7,1,-6,31,4
1491088231242,1,-5,0,5,12,6,3,-8,-16
1491088231243,2,-8,1,0,3,12,6,18,-9
1491088231243,2,2,-2,3,-8,-19,-26,4,0
1491088231243,0,5,-2,1,11,10,10,9,5
1491088231243,0,2,6,9,9,-1,0,-17,-16
1491088231244,1,-7,-3,-8,-11,-4,-3,-13,-19
1491088231244,1,2,-6,-7,-7,-11,2,51,47
1491088231280,2,12,-4,-2,-2,-5,-24,-45,-9
1491088231280,2,-7,3,6,19,19,16,51,19
1491088231281,3,10,4,-1,-19,-5,5,-34,-20
1491088231281,3,-18,-9,-8,-7,5,14,-1,-15
1491088231282,0,10,2,8,-1,-2,12,-1,6
1491088231282,0,9,1,-10,-3,0,-4,-6,13
1491088231283,1,-16,-1,4,12,-12,-35,-14,-9
1491088231283,1,20,-10,1,-2,4,25,28,18
1491088231317,2,-16,-4,-11,-9,-6,-21,-31,0
1491088231317,2,-4,-4,4,5,2,-12,-27,-21
1491088231319,3,33,3,1,-3,5,24,55,30
1491088231319,3,-9,1,2,-12,-11,-43,-76,-36
1491088231319,0,-14,5,8,14,4,17,47,-6
1491088231319,0,-11,-13,-18,-8,-9,-11,-9,5
1491088231320,1,-7,-3,0,18,19,30,39,21
1491088231320,1,7,7,7,-1,-3,-19,-24,0
1491088231355,2,-8,-4,-15,-20,-13,-24,-54,-30
1491088231355,2,1,-5,-6,-3,1,8,42,-4
1491088231356,3,-6,1,9,9,4,0,7,4
1491088231356,3,-10,0,-1,0,4,20,18,-3
1491088231358,0,4,-1,-5,-2,-2,-12,-33,-9
1491088231358,0,-6,-4,1,5,-6,4,4,14
1491088231358,1,10,-4,-1,-4,-2,21,-3,-3
1491088231358,1,7,-5,-4,2,-7,-28,-49,-15
1491088231392,2,7,9,2,-4,0,-4,52,20
1491088231392,2,-24,-6,7,4,7,22,-30,-26
1491088231392,3,18,3,-6,9,2,10,85,39
1491088231392,3,-9,-3,-7,-9,-12,-31,-28,-14
1491088231393,0,-8,-13,-13,-19,-3,24,9,-2
1491088231393,0,-7,-3,4,-2,-5,-37,-55,-28
1491088231394,1,-13,2,2,5,4,-4,8,-3
1491088231394,1,16,1,0,-6,-7,0,-4,10
1491088231429,2,-1,-3,1,6,0,-17,-15,19
1491088231429,2,-1,7,1,1,6,25,11,12
1491088231430,3,8,5,3,-6,-10,-21,-39,-6
1491088231430,3,1,3,-1,7,-1,9,57,13
1491088231431,0,-7,-4,5,-5,8,21,1,-6
1491088231431,0,-11,-10,-16,-5,5,22,-9,-14
1491088231432,1,6,3,6,-6,-16,-41,-22,1
1491088231432,1,4,-7,-2,-1,5,20,4,37
1491088231467,2,-20,-3,-6,0,-7,4,14,-19
1491088231467,2,10,4,4,2,-3,-1,-2,6
1491088231467,3,-4,-1,5,-5,6,-10,-40,1
1491088231467,3,5,2,-8,3,-3,-16,-16,3
1491088231468,0,-13,-2,-6,-10,-16,-31,0,-26
1491088231468,0,14,7,9,-2,6,13,39,26
1491088231469,1,-16,-10,-4,1,3,1,12,4
1491088231469,1,14,6,9,19,10,18,-14,-10
1491088231505,2,-13,1,4,5,1,-39,10,6
1491088231505,2,7,-4,-10,-10,-10,12,1,-7
1491088231509,3,4,4,-7,-11,1,-14,12,-1
1491088231509,3,-7,-2,2,2,8,22,-8,13
1491088231510,0,-2,-2,-5,-4,-13,-19,-27,-23
1491088231510,0,-3,-5,3,1,-2,10,11,1
1491088231542,1,-5,-8,-9,-3,3,5,-16,-9
1491088231542,1,-22,-2,-7,-6,-8,-22,-60,-42
1491088231542,2,15,7,16,12,-2,-26,70,24
1491088231542,2,16,-1,-5,-6,14,34,61,33
1491088231543,3,5,-7,-7,-12,-7,16,18,-2
1491088231543,3,-23,-2,-1,-3,-8,-20,-14,-21
1491088231544,0,28,4,8,13,8,8,-1,10
1491088231544,0,-17,-6,-8,-4,-4,-22,-11,-2
1491088231579,1,5,-6,-9,-11,-9,10,6,1
1491088231579,1,-12,-2,3,3,-4,-9,13,-18
1491088231580,2,1,-3,-3,-1,-1,-33,-49,4
1491088231580,2,7,3,0,11,7,7,-20,-5
1491088231580,3,1,-4,7,7,5,-4,29,29
1491088231580,3,-5,-9,-11,-7,0,27,-19,-12
1491088231581,0,-3,-10,-13,-16,-16,-18,-44,-14
1491088231581,0,2,6,5,5,6,12,14,-5
1491088231617,1,-17,0,-11,-10,-1,-1,-7,-18
1491088231617,1,4,1,6,5,-5,-1,67,9
1491088231618,2,0,-7,0,8,17,25,-1,5
1491088231618,2,-5,7,1,-10,-37,-84,-59,-21
1491088231619,3,-2,-16,-13,-15,9,45,30,-3
1491088231619,3,16,4,7,10,8,8,4,8
1491088231619,0,-15,1,-5,0,0,6,-12,-23
1491088231619,0,-14,-13,-5,-6,-5,-4,9,6
1491088231692,1,0,7,3,6,-7,-12,-17,-20
1491088231692,1,-9,-12,-16,-10,-2,-18,-20,-24
1491088231693,2,-1,7,11,11,2,-1,-32,6
1491088231693,2,-4,1,-10,0,6,20,40,4
1491088231694,3,-2,0,-1,-4,-3,9,-2,-4
1491088231694,3,12,2,-3,-7,-6,-28,4,2
1491088231694,0,-4,-1,2,5,10,32,33,1
1491088231694,0,10,-5,-5,-6,10,21,-8,14
1491088231729,1,4,2,11,15,1,-1,-19,-6
1491088231729,1,3,-1,-1,-4,-16,-19,-45,-16
1491088231731,2,-2,0,-7,-12,-7,-7,7,-1
1491088231731,2,7,-2,1,0,5,13,5,1
1491088231732,0,3,-3,-2,-9,-10,-14,20,34
1491088231732,0,-9,-4,-2,1,3,2,-14,-19
1491088231733,1,-10,-7,-2,-2,-8,-3,-36,-3
1491088231733,1,-2,-1,-2,-2,-8,-25,-27,-14
1491088231767,2,-8,2,3,11,9,48,3,-5
1491088231767,2,3,2,15,13,-9,-24,-6,-12
1491088231804,3,-3,1,-6,-16,-20,-46,-10,-9
1491088231804,3,2,-1,-2,-5,21,65,56,37
1491088231805,0,0,-13,-13,-11,-2,13,14,6
1491088231805,0,3,6,10,12,5,-25,-24,-10
1491088231806,1,6,3,3,9,-10,-24,-37,-5
1491088231806,1,-15,-2,-6,-19,-8,-22,-11,-12
1491088231807,2,-9,-6,-1,-1,3,23,36,12
1491088231807,2,-4,3,-9,-14,-4,1,-25,-2
1491088231842,3,3,1,4,7,4,-5,3,-2
1491088231842,3,-10,-5,-9,-12,-10,-24,-10,-11
1491088231843,0,9,-1,2,-3,-1,3,-5,0
1491088231843,0,-6,0,1,-6,-3,13,-14,-6
1491088231844,1,-9,-10,-11,-2,10,25,47,6
1491088231844,1,5,4,4,3,-5,0,-20,17
1491088231845,3,-2,-9,-1,-3,1,8,-27,-8
1491088231845,3,-7,1,0,12,0,-9,-5,0
1491088231879,0,2,-2,0,-12,3,15,37,6
1491088231879,0,3,-2,-8,0,0,-23,-67,-20
1491088231881,1,-7,2,6,0,-7,-15,-13,-14
1491088231881,1,-1,-2,-1,-2,4,22,23,9
1491088231882,3,4,-12,-14,-4,16,12,49,28
1491088231882,3,2,4,8,6,0,-21,-54,-18
1491088231883,0,-18,0,-1,-7,0,-10,-15,-15
1491088231883,0,4,1,6,12,13,40,29,23
1491088231917,1,11,4,-3,3,-16,-14,11,-8
1491088231917,1,-4,-4,-4,-14,-7,-14,-8,0
1491088231919,2,-24,-4,-8,-2,-1,-6,-44,-22
1491088231919,2,10,-6,-11,-17,-10,1,31,38
1491088231920,3,-4,-6,-10,-9,2,7,-6,3
1491088231920,3,-5,2,13,19,0,6,-8,-7
1491088231921,0,12,4,1,6,1,-7,11,11
1491088231921,0,-21,-8,-4,-1,-7,-19,-85,-35
1491088231954,1,13,13,5,-3,9,-7,11,2
1491088231954,1,15,4,-5,-11,-7,4,69,16
1491088231956,2,-6,-6,-2,5,7,6,-3,-10
1491088231956,2,2,2,6,11,-3,-31,-49,-8
1491088231957,3,-13,2,1,-3,-3,-1,32,0
1491088231957,3,-4,-5,7,-8,-7,51,-9,-2
1491088231957,0,17,-3,-15,-4,12,5,31,11
1491088231957,0,3,-5,-12,-15,-1,-7,-12,2
1491088231992,1,-5,-2,2,-1,-8,-18,-35,-8
1491088231992,1,5,-2,1,1,-4,-37,-46,-13
1491088231994,2,-5,-4,20,14,3,19,100,32
1491088231994,2,-6,-1,-20,-7,-15,-38,-24,-40
1491088231995,3,8,10,8,-1,2,-7,-13,1
1491088231995,3,-1,-5,-11,-12,14,42,74,19
1491088231996,0,-4,-5,3,11,3,-1,-44,-12
1491088231996,0,-7,-2,1,-7,-5,-18,-5,-16
1491088232031,1,7,-2,0,2,-18,-29,-11,-5
1491088232031,1,-4,0,1,5,6,27,4,6
1491088232033,2,7,-3,-9,-12,-4,18,37,16
1491088232033,2,-2,0,2,5,9,39,12,6
1491088232034,3,-8,-2,6,7,-14,-44,-12,-24
1491088232034,3,16,5,4,4,18,-14,-38,5
1491088232035,0,-13,-10,-22,-19,-20,-24,-25,-18
1491088232035,0,-13,-16,-2,-6,-7,-1,16,1
1491088232067,1,0,-13,-12,-21,-12,26,-21,-6
1491088232067,1,-10,-7,2,5,10,-3,27,5
1491088232070,2,11,5,15,11,9,12,-64,10
1491088232070,2,1,6,-4,-3,-3,-12,35,7
1491088232071,3,-19,-12,-4,1,-3,-60,-40,-20
1491088232071,3,11,11,11,9,18,64,23,12
1491088232072,0,-3,5,-15,-8,-43,-55,2,19
1491088232072,0,17,0,-5,-7,35,76,-22,17
1491088232104,1,-11,1,-8,-23,-1,25,-27,-3
1491088232104,1,9,0,-8,-1,-9,-12,11,-1
1491088232106,2,-2,3,5,16,8,-25,-5,-1
1491088232106,2,-12,-9,-5,5,-25,-30,10,-7
1491088232107,3,10,3,-3,-14,7,-9,-32,3
1491088232107,3,-11,-5,12,22,20,-1,-9,-13
1491088232107,0,8,2,7,-29,-32,-68,7,-13
1491088232107,0,6,6,9,37,6,-2,1,1
1491088232142,1,-12,7,-11,-9,37,126,15,7
1491088232142,1,-1,-15,-13,-2,-19,24,8,13
1491088232144,2,-9,-5,-2,-25,3,71,5,-12
1491088232144,2,11,7,25,43,33,-95,-32,-9
1491088232145,3,2,2,-5,-1,-35,-28,43,24
1491088232145,3,-31,4,-5,-31,19,68,-53,-42
1491088232146,0,26,6,0,19,-23,13,42,38
1491088232146,0,-29,-8,-10,-25,-1,-10,2,5
1491088232180,1,56,2,-6,-45,-35,14,-26,-6
1491088232180,1,-17,4,-5,20,26,3,17,6
1491088232181,2,-25,-25,-13,7,52,84,-32,-42
1491088232181,2,5,13,3,-32,-64,-65,-12,-2
1491088232218,3,-12,12,41,92,68,4,9,4
1491088232218,3,-6,0,-8,24,-76,-105,70,4
1491088232220,0,-18,-21,-41,-67,3,85,-30,-5
1491088232220,0,16,-9,-23,-18,-4,0,18,12
1491088232221,1,5,-20,9,-11,-23,-88,-12,14
1491088232221,1,13,32,49,-5,3,-127,-60,-57
1491088232222,2,-16,16,-9,-16,-13,68,-52,9
1491088232222,2,-17,-2,-5,48,74,126,47,-4
1491088232254,3,-18,-8,-4,-25,-61,7,45,-4
1491088232254,3,16,9,0,19,28,-7,56,2
1491088232255,0,-10,-11,-19,-76,-90,-87,-90,-11
1491088232255,0,-24,-29,-16,-10,36,-94,-84,5
1491088232256,1,-9,-5,19,101,63,112,60,-11
1491088232256,1,-20,-3,-21,-87,-80,35,-10,-11
1491088232256,2,7,20,35,127,46,-70,-8,-29
1491088232256,2,62,18,37,12,-19,-60,122,75
1491088232292,3,-7,10,11,-43,-21,10,-23,-14
1491088232292,3,-13,8,16,38,65,79,-65,-16
1491088232293,0,50,3,-23,-54,9,-95,36,23
1491088232293,0,-49,-33,-25,-39,-96,26,-36,-47
1491088232293,1,6,-6,-64,86,78,-117,14,46
1491088232293,1,-49,-43,-6,35,6,53,-113,-64
1491088232294,2,-20,-5,19,-105,-25,-81,42,14
1491088232294,2,-25,-7,-6,40,1,64,-82,16
1491088232329,3,70,17,-26,-128,-128,-22,1,-4
1491088232329,3,-6,0,-13,88,98,49,19,32
1491088232330,0,72,29,65,127,45,-43,41,-2
1491088232330,0,43,63,106,-49,-24,20,56,-9
1491088232331,1,-64,-32,-94,15,-86,-41,-88,-33
1491088232331,1,-33,-69,-71,30,-57,-44,8,0
1491088232332,2,-28,-17,-26,-11,0,-21,30,2
1491088232332,2,57,38,91,78,58,-3,58,-11
1491088232367,3,-23,28,5,43,106,112,-28,8
1491088232367,3,56,0,-12,51,10,-37,-70,37
1491088232368,0,-26,-2,-74,-42,-52,-22,65,20
1491088232368,0,-42,-35,-31,14,-17,17,-14,-14
1491088232368,1,38,44,123,93,119,45,65,10
1491088232368,1,14,4,-20,-128,-101,8,22,24
1491088232370,2,-40,-37,-63,127,-2,-22,-128,-63
1491088232370,2,1,-25,-64,-20,10,-27,-26,-6
1491088232404,3,-4,-4,14,-90,-53,43,-18,5
1491088232404,3,27,51,125,79,78,-1,-52,-23
1491088232405,0,-9,22,-21,-52,-65,127,101,-21
1491088232405,0,-14,-6,-63,28,13,-79,86,-5
1491088232406,1,-41,7,16,127,61,-37,-53,9
1491088232406,1,-1,21,-35,-115,-24,55,81,-7
1491088232407,2,9,-32,14,15,-18,-15,-41,-55
1491088232407,2,4,-31,0,57,45,-10,-91,-8
1491088232442,3,6,19,50,32,1,56,23,11
1491088232442,3,-16,29,43,62,109,64,-9,-19
1491088232443,0,-8,-50,-69,-16,-67,-13,8,19
1491088232443,0,-6,-22,50,-16,-68,-60,19,-27
1491088232445,1,-31,-66,-62,10,28,-66,-23,-35
1491088232445,1,5,-13,50,-7,43,35,100,23
1491088232445,2,-11,-9,-61,24,-31,-40,-35,46
1491088232445,2,-59,-18,6,26,59,-35,-43,-90
1491088232479,3,92,27,53,-79,53,54,-33,3
1491088232479,3,23,20,21,-60,88,15,80,42
1491088232480,0,44,17,20,110,127,-35,22,17
1491088232480,0,0,7,-4,33,94,81,-81,23
1491088232481,1,-19,-2,-39,-83,118,-47,-70,-37
1491088232481,1,-68,-61,-110,91,-128,-128,15,-11
1491088232482,2,-29,-5,30,-103,-55,112,17,-3
1491088232482,2,31,30,55,99,-72,29,-49,1
1491088232517,3,11,3,26,-92,-128,-59,127,57
1491088232517,3,24,-9,-74,-119,-108,-75,-43,26
1491088232518,0,-1,34,68,61,-90,-74,-71,-19
1491088232518,0,-3,12,9,86,66,127,-24,21
1491088232519,1,-13,10,1,-72,-86,78,-61,-65
1491088232519,1,31,-27,-65,111,6,-128,81,61
1491088232554,2,-8,2,31,-50,54,91,-104,-75
1491088232554,2,-9,0,-56,-16,33,-25,127,66
1491088232555,3,-23,-15,17,127,-19,-34,-94,-3
1491088232555,3,-6,12,43,-102,5,127,-40,-54
1491088232556,0,29,11,-14,69,-14,-41,29,28
1491088232556,0,-6,6,27,-10,-64,109,45,-23
1491088232557,1,6,13,23,-46,21,-66,50,20
1491088232557,1,-48,-53,-74,41,13,6,-58,-35
1491088232629,2,-7,-9,43,-82,48,90,81,40
1491088232629,2,25,37,26,-121,16,-14,-98,7
1491088232630,3,-112,2,45,127,-17,26,127,1
1491088232630,3,-89,-5,-3,-79,-4,44,-67,-15
1491088232631,0,-128,12,-2,-102,-71,0,4,-17
1491088232631,0,-115,-20,-94,-37,28,-91,-62,9
1491088232631,1,-73,5,45,8,-59,72,40,-4
1491088232631,1,116,27,39,127,77,-15,-11,-2
1491088232666,2,-118,-35,-44,88,-3,-57,42,34
1491088232666,2,0,-1,3,-128,-127,-38,60,-8
1491088232668,3,94,-33,-78,74,40,27,-84,-5
1491088232668,3,100,6,-7,-31,-19,-78,-104,3
1491088232668,0,127,33,113,36,89,75,74,-2
1491088232668,0,116,1,-54,-28,-34,31,14,10
1491088232669,2,74,37,123,60,3,89,-65,-12
1491088232669,2,7,-2,-81,69,-8,-56,-4,-13
1491088232704,3,0,-11,6,9,-18,45,-1,17
1491088232704,3,-7,29,36,-74,-44,-59,11,-6
1491088232705,0,-60,-35,-94,55,-76,-59,45,-4
1491088232705,0,-6,4,93,75,60,119,-7,17
1491088232706,1,-14,-9,-77,28,103,-128,1,-20
1491088232706,1,-87,-14,26,70,72,-89,-23,14
1491088232706,2,118,16,17,-106,113,79,59,-3
1491088232706,2,-103,-19,-31,93,40,-54,16,-3
1491088232742,3,120,-5,42,-43,-98,16,-32,-20
1491088232742,3,100,26,56,-46,-87,27,62,3
1491088232742,0,111,-10,-92,-86,-52,-128,-64,16
1491088232742,0,101,-33,-39,-39,-128,-39,-37,6
1491088232743,1,44,46,105,-7,59,127,4,-1
1491088232743,1,-74,-37,-122,48,-58,-76,-2,-19
1491088232744,2,-41,-27,-4,64,-39,-76,-109,-47
1491088232744,2,-45,27,62,49,70,-29,82,15
1491088232779,3,-5,7,48,-39,-3,-30,-46,0
1491088232779,3,25,-7,-18,-56,-41,-50,16,13
1491088232852,0,-7,19,61,-33,19,-23,37,24
1491088232852,0,-1,-19,-33,89,1,11,50,-27
1491088232858,1,-105,29,56,-1,-38,88,51,15
1491088232858,1,91,29,54,-72,-6,-45,18,19
1491088232859,2,84,-31,-87,80,41,83,-85,-13
1491088232859,2,80,-5,-33,-86,14,-74,-26,7
1491088232859,3,8,-7,-54,-93,7,-92,70,6
1491088232859,3,-72,-48,-50,116,68,-60,-20,-3
1491088232860,0,-36,19,45,-22,68,-78,53,3
1491088232860,0,34,33,84,-95,29,72,26,-16
1491088232861,1,-8,-10,19,127,109,12,-55,-15
1491088232861,1,-92,-7,-48,-70,17,76,49,-23
1491088232861,2,-96,-10,-10,28,-2,4,-24,19
1491088232861,2,78,3,6,-81,45,42,-61,-21
1491088232862,3,-49,-13,-43,-31,71,-2,22,-5
1491088232862,3,19,24,99,37,54,71,-7,-35
1491088232862,0,103,9,5,30,-48,47,-3,2
1491088232862,0,-70,-22,-83,22,63,102,21,-33
1491088232863,1,127,-1,14,-81,5,91,-26,19
1491088232863,1,69,22,91,87,112,-32,-7,2
1491088232863,2,4,-35,-78,-61,-31,-78,65,10
1491088232863,2,2,-5,59,-103,-27,59,13,24
1491088232891,3,-124,-32,-128,68,-19,-4,24,-12
1491088232891,3,-123,-5,31,101,21,54,-15,0
1491088232892,0,-98,17,29,-66,2,15,34,6
1491088232892,0,-35,-20,-57,127,-42,-23,-46,-24
1491088232893,1,1,13,-13,-97,95,-128,40,57
1491088232893,1,68,23,50,21,68,127,-6,-5
1491088232894,2,52,-9,-75,-2,31,94,-87,-11
1491088232894,2,60,-22,-97,-114,-15,52,-31,-18
1491088232929,3,39,-14,39,30,72,87,55,-11
1491088232929,3,54,28,91,-123,-45,61,-48,-2
1491088232930,0,22,-55,-65,-5,-48,-26,48,-24
1491088232930,0,21,0,29,-17,-30,-128,-10,8
1491088232931,1,54,-19,73,32,-69,-6,-20,-28
1491088232931,1,32,-3,-31,-22,37,5,62,11
1491088232932,2,0,52,126,127,33,45,25,33
1491088232932,2,20,20,68,18,21,90,50,-16
1491088232967,3,14,-11,-98,31,-106,-121,-63,-1
1491088232967,3,13,-7,11,34,-69,-45,-49,34
1491088232968,0,-3,0,-31,-110,-76,54,19,-2
1491088232968,0,9,8,59,61,-47,-37,-97,11
1491088232969,1,1,6,-48,-44,-116,-62,4,-16
1491088232969,1,1,-24,-59,36,-117,17,-4,-27
1491088232970,2,12,17,-32,35,-80,-13,23,19
1491088232970,2,6,30,101,29,-59,54,62,25
1491088233004,3,-3,9,86,5,-79,117,28,-21
1491088233004,3,5,-24,-115,-45,-128,-111,-83,10
1491088233005,0,0,9,63,18,-27,9,11,0
1491088233005,0,2,-21,-59,5,-91,10,3,-2
1491088233005,1,-2,-13,-77,-35,-48,-18,-49,-3
1491088233005,1,3,9,35,36,-21,-47,47,14
1491088233006,2,-3,28,78,-42,34,-62,27,-6
1491088233006,2,-2,-7,-64,13,-36,-115,-54,15
1491088233042,3,6,17,17,22,52,67,-38,-27
1491088233042,3,2,-2,-19,-58,-30,-69,48,27
1491088233042,0,-4,5,59,15,81,18,61,-2
1491088233042,0,1,20,53,-60,-38,56,-11,-21
1491088233043,1,1,22,127,-8,24,14,36,20
1491088233043,1,1,-9,68,-48,59,127,12,-16
1491088233044,2,-2,-1,35,26,41,-25,-24,3
1491088233044,2,0,-5,-22,-85,-16,-104,10,17
1491088233079,3,-2,10,-3,60,8,45,-43,-1
1491088233079,3,-1,-26,-57,1,-51,19,-5,1
1491088233080,0,2,8,-31,0,44,-53,36,16
1491088233080,0,0,65,23,106,66,110,-38,-26
1491088233081,1,-2,44,-2,-45,-6,38,52,9
1491088233081,1,0,16,-2,-3,-54,-70,45,6
1491088233081,2,-1,-12,-42,-114,13,84,-80,-56
1491088233081,2,0,-28,-83,-45,-47,-13,-19,21
1491088233117,3,-1,-5,19,50,105,109,108,-2
1491088233117,3,0,-19,-82,127,14,25,-2,-10
1491088233119,0,-1,35,-51,-8,12,2,20,-24
1491088233119,0,-1,-83,-47,47,67,94,-105,18
1491088233120,1,20,-34,-90,70,-80,-90,-34,-12
1491088233120,1,6,-72,-105,-112,-64,33,53,-17
1491088233154,2,97,72,-63,-57,-36,-32,-15,-14
1491088233154,2,74,-29,-7,-72,58,1,52,-19
1491088233155,3,124,-5,-26,74,55,-128,-108,32
1491088233155,3,14,-48,-35,-39,49,-24,-92,11
1491088233156,0,64,27,-128,106,-92,96,16,-18
1491088233156,0,100,2,-11,93,24,-112,84,11
1491088233157,1,-98,-47,8,-15,14,86,62,-4
1491088233157,1,-20,20,2,-61,76,127,73,-8
1491088233192,2,-98,-3,117,86,-5,-60,-128,9
1491088233192,2,-6,-49,-128,-109,-77,81,10,-15
1491088233193,3,68,-62,-111,-88,0,38,-27,10
1491088233193,3,-58,60,-5,96,90,-89,75,-1
1491088233194,0,-64,10,29,-113,-6,35,-33,-1
1491088233194,0,-111,34,44,105,96,-58,-60,26
1491088233195,1,16,-44,52,-53,40,-96,46,-1
1491088233195,1,-127,-8,-34,-83,-90,105,26,-24
1491088233267,2,-3,-76,31,79,76,-18,-18,10
1491088233267,2,-117,38,35,-34,20,-60,41,-3
1491088233269,3,89,-6,96,24,-29,14,15,15
1491088233269,3,11,-35,16,23,-11,80,-128,-1
1491088233270,0,-97,-44,-24,-43,0,-17,111,30
1491088233270,0,68,-5,112,-112,-46,-29,109,27
1491088233271,1,-41,31,6,86,97,127,-15,-34
1491088233271,1,-39,21,85,-80,-64,-93,84,1
1491088233304,2,-10,-26,60,88,76,27,57,-3
1491088233304,2,-19,-49,-79,-61,-92,127,58,-39
1491088233305,3,-84,23,-25,20,-12,8,-33,3
1491088233305,3,4,-2,28,22,52,32,42,27
1491088233306,0,-93,-24,11,47,-3,-76,-44,4
1491088233306,0,-117,46,110,121,47,61,117,14
1491088233307,1,-69,20,15,-34,21,-102,89,11
1491088233307,1,67,0,-70,109,-30,-53,32,-4
1491088233342,2,-88,-42,-50,-50,-15,-65,-39,36
1491088233342,2,19,19,38,3,40,-9,11,-46
1491088233343,3,-9,-9,-3,-57,-81,105,-128,14
1491088233343,3,-113,48,127,127,92,-42,43,36
1491088233344,1,-23,0,37,51,5,-42,127,5
1491088233344,1,78,59,18,-24,23,-112,13,-2
1491088233345,2,49,-1,62,-4,33,127,-64,2
1491088233345,2,27,-25,-41,-80,-49,-22,-65,2
1491088233379,3,-34,14,-52,23,-13,101,41,1
1491088233379,3,47,-29,32,0,28,-23,-88,7
1491088233380,0,107,23,-21,-46,-21,23,109,3
1491088233380,0,95,5,5,-12,37,72,-75,-29
1491088233381,1,-100,-10,-7,-22,-33,4,-23,-17
1491088233381,1,99,3,-17,-53,-41,-28,-61,-5
1491088233381,2,100,2,41,13,4,55,11,-10
1491088233381,2,13,1,-5,-10,29,-56,50,28
1491088233417,3,-98,20,79,34,60,18,-60,-10
1491088233417,3,-128,-13,-20,-21,16,127,8,-47
1491088233417,0,-128,-10,-52,15,-68,-111,-12,20
1491088233417,0,-34,-1,15,-9,-13,117,30,15
1491088233418,1,55,2,2,-77,-34,39,40,24
1491088233418,1,28,-3,5,96,109,-18,-84,17
1491088233419,2,96,0,49,-15,-1,9,-22,-17
1491088233419,2,-19,-3,-33,-39,-41,-114,-14,-17
1491088233454,3,44,0,2,-40,-6,12,-26,-10
1491088233454,3,80,12,20,-26,-40,17,4,-37
1491088233455,0,22,-13,-1,17,3,-61,19,-32
1491088233455,0,-29,9,14,26,-2,-23,-59,-37
1491088233456,1,16,-8,-25,-47,-54,-69,24,-25
1491088233456,1,76,43,32,-3,7,127,-11,3
1491088233456,2,57,17,38,26,31,-107,7,27
1491088233456,2,-15,-44,-32,-18,-29,124,25,-40
1491088233492,3,52,26,-28,-128,-7,-128,77,94
1491088233492,3,-30,-37,-18,101,26,-7,-38,11
1491088233493,0,-26,-9,-3,-61,-40,29,8,-6
1491088233493,0,31,16,91,98,68,63,-3,6
1491088233493,1,-34,-17,-76,-64,-48,-101,-56,-25
1491088233493,1,-9,-1,-17,-4,-11,51,-5,8
1491088233494,2,50,15,22,44,46,86,26,46
1491088233494,2,32,29,38,1,-21,-21,-42,7
1491088233529,3,8,-7,-20,58,46,-56,18,-27
1491088233529,3,-40,-25,-11,-65,8,-100,7,9
1491088233530,0,-26,-29,-73,-89,-50,103,-37,-14
1491088233530,0,-29,10,-3,42,69,24,-56,31
1491088233531,1,98,36,82,67,9,127,-11,-19
1491088233531,1,-34,-17,-54,-75,-15,-17,38,-38
1491088233531,2,-25,-17,-10,-23,-52,-105,-42,4
1491088233531,2,52,-4,-35,-117,-85,-91,36,16
1491088233566,3,-39,-31,-30,50,21,105,-112,-22
1491088233566,3,16,32,49,-17,-30,9,31,22
1491088233567,0,-33,8,20,124,93,127,34,-32
1491088233567,0,38,-35,-13,-30,-67,39,-37,34
1491088233568,1,11,14,3,6,16,4,-3,5
1491088233568,1,-3,3,-3,-60,-15,120,28,-18
1491088233569,2,-20,1,18,58,24,-95,-6,-4
1491088233569,2,5,50,40,-3,16,29,75,0
1491088233604,3,-74,-51,-79,43,30,51,-93,-4
1491088233604,3,4,-24,-1,28,2,-27,-11,-4
1491088233605,0,-24,19,48,-49,2,106,53,-8
1491088233605,0,24,35,17,40,-8,-120,76,-10
1491088233606,1,50,12,61,-95,-40,57,17,6
1491088233606,1,-38,-27,-90,87,-34,-99,-95,-21
1491088233606,2,-46,-22,6,11,-56,24,23,12
1491088233606,2,86,30,9,-17,27,-53,40,34
1491088233641,3,-72,-18,-29,29,16,-76,-10,-23
1491088233641,3,-6,-1,19,-38,-10,-13,-5,13
1491088233642,0,5,-12,-18,-56,-9,59,-2,-6
1491088233642,0,-14,-5,-6,40,7,-28,-31,34
1491088233679,1,37,35,75,66,67,29,53,23
1491088233679,1,-8,-2,-18,-52,-69,-73,20,-15
1491088233717,2,-50,-42,-25,-13,-36,-25,-95,-39
1491088233717,2,-3,4,6,-114,25,98,-23,10
1491088233718,3,34,-14,-62,72,-38,38,45,6
1491088233718,3,-24,1,-4,16,27,-8,-90,-30
1491088233719,0,22,12,33,73,59,35,-4,10
1491088233719,0,1,11,14,-38,9,-36,31,-29
1491088233720,1,-8,-40,-36,87,17,78,-12,6
1491088233720,1,48,7,-4,-44,-48,96,-20,-2
1491088233755,2,16,18,38,4,6,13,106,33
1491088233755,2,-63,-17,-40,-13,35,10,-92,-50
1491088233756,3,10,-13,-11,-113,-85,-109,-55,-27
1491088233756,3,0,-14,6,66,88,83,70,-13
1491088233756,0,24,16,-9,-117,-47,-84,-74,-23
1491088233756,0,52,-11,24,127,7,-78,-17,15
1491088233757,2,34,14,-17,-28,-22,-56,60,0
1491088233757,2,-62,-24,-4,-25,29,113,-93,-20
1491088233792,3,47,18,76,63,19,-95,76,17
1491088233792,3,-17,0,-8,-19,-24,-76,102,35
1491088233793,0,-15,-18,-37,-28,-22,100,-11,4
1491088233793,0,-16,-30,-56,-62,-82,-122,-47,0
1491088233829,2,7,-18,-6,127,28,-111,-35,-65
1491088233829,2,-24,8,-18,47,-25,91,35,41
1491088233830,3,33,-14,-11,-38,19,-93,-57,-28
1491088233830,3,-2,54,29,39,44,35,-11,-4
1491088233831,0,-42,-19,-42,-45,-74,-25,-1,17
1491088233831,0,-6,10,4,-63,-43,-48,-20,-28
1491088233832,1,-44,18,57,99,22,70,52,-24
1491088233832,1,7,-2,-30,10,51,-47,-97,36
1491088233867,2,6,-19,-33,-45,-18,-57,-10,-13
1491088233867,2,61,23,34,99,53,91,52,5
1491088233869,3,38,6,25,-49,-39,-84,1,-25
1491088233869,3,19,-13,-28,-28,-15,45,-73,-21
1491088233870,1,95,30,16,-32,32,-114,36,-35
1491088233870,1,-4,5,10,115,15,101,-57,46
1491088233871,2,-5,2,-1,-31,36,12,3,48
1491088233871,2,-13,10,-22,41,27,-53,28,-29
1491088233904,3,-40,15,33,-18,7,18,17,47
1491088233904,3,-34,2,9,-14,-67,-92,-3,-45
1491088233905,0,51,-4,43,-49,24,99,55,39
1491088233905,0,15,6,-12,42,-9,-116,9,26
1491088233906,1,-54,-13,-26,-17,-37,77,82,-58
1491088233906,1,38,-3,-7,-2,40,-29,-67,10
1491088233906,2,-48,17,64,5,-44,-99,-80,-30
1491088233906,2,45,-4,-30,-44,80,117,93,58
1491088233941,3,-16,-34,-102,-90,-97,-52,-90,-23
1491088233941,3,69,-5,81,73,83,-105,127,105
1491088233943,0,-26,-3,-85,-91,-96,100,-86,-75
1491088233943,0,-10,-3,71,87,37,14,-35,-60
1491088233943,1,-25,-2,4,-76,14,29,8,29
1491088233943,1,42,-4,-39,-124,-53,-16,24,-37
1491088233944,2,3,-13,2,6,4,-17,-37,-20
1491088233944,2,-32,-27,-36,11,-42,-85,3,57
1491088233979,3,-53,7,-28,-97,19,85,-94,-65
1491088233979,3,-20,9,55,65,73,39,-7,28
1491088233983,0,47,3,-47,38,101,-38,127,45
1491088233983,0,-44,14,21,-46,28,29,-90,-35
1491088233983,1,14,-34,-70,86,94,-61,-11,13
1491088233983,1,-13,14,28,59,76,106,-34,-21
1491088233984,2,85,67,102,102,64,-64,62,25
1491088233984,2,4,-4,9,-31,106,112,73,14
1491088234017,3,24,21,48,-11,-76,40,-42,53
1491088234017,3,-84,-71,-95,110,41,-59,-24,-56
1491088234017,0,33,-23,-37,65,-2,-52,-18,63
1491088234017,0,34,42,93,-25,-81,49,-42,-63
1491088234018,1,-8,-9,-18,33,-14,-106,78,15
1491088234018,1,17,-39,-76,-128,-109,127,-40,19
1491088234020,2,-41,22,69,-7,-54,55,-53,-34
1491088234020,2,50,10,-73,-83,-63,-104,58,38
1491088234054,3,-30,-31,18,53,45,-44,59,-12
1491088234054,3,-14,-11,-23,-42,-125,24,-44,-28
1491088234055,0,-26,-17,-45,-17,-34,-62,81,5
1491088234055,0,2,-19,-12,-99,-45,112,-1,2
1491088234055,1,25,33,61,11,-26,-17,34,-7
1491088234055,1,21,48,89,87,-5,-127,24,15
1491088234057,2,-14,-10,-9,57,58,97,24,-66
1491088234057,2,-36,-5,-16,-3,-70,-91,-105,4
1491088234092,3,29,-44,-56,-52,-97,17,25,11
1491088234092,3,11,20,10,-36,-81,77,118,51
1491088234092,0,-10,17,-2,27,11,-38,-5,37
1491088234092,0,-2,-4,15,-10,47,41,-15,-26
1491088234093,1,3,-24,-96,102,91,-70,-41,5
1491088234093,1,-34,-10,-8,-128,-68,-47,26,-27
1491088234094,2,7,15,84,88,-20,24,-118,-6
1491088234094,2,-4,-19,-94,-81,-37,107,110,-15
1491088234129,3,5,50,80,-69,-37,7,-62,13
1491088234129,3,16,7,-4,99,60,102,-42,-20
1491088234130,0,-43,-27,-32,-17,-34,-72,-33,-7
1491088234130,0,5,-8,27,87,42,19,80,27
1491088234131,1,22,12,-3,-128,-122,90,-104,12
1491088234131,1,-28,1,-21,73,83,-128,56,14
1491088234132,2,27,-14,-21,-108,-109,98,-28,4
1491088234132,2,-7,19,66,16,24,-91,-102,8
1491088234167,3,-13,-12,20,-62,34,-16,35,-24
1491088234167,3,-11,-45,-91,40,-73,-128,27,18
1491088234167,0,-18,-20,-20,45,-16,85,-45,-23
1491088234167,0,19,1,28,-27,-128,-128,83,3
1491088234168,1,-10,6,-16,-27,44,117,13,-18
1491088234168,1,15,32,119,-128,-88,101,18,7
1491088234169,2,-16,-15,-72,17,-5,-109,57,-30
1491088234169,2,-4,-46,-65,-8,24,49,-128,-23
1491088234204,3,1,10,16,-23,26,-21,110,31
1491088234204,3,-8,-1,-1,61,121,127,-36,-12
1491088234205,0,66,50,127,85,122,127,52,55
1491088234205,0,-23,-22,-108,-63,-21,2,-43,-29
1491088234205,1,28,8,63,87,-29,45,16,9
1491088234205,1,-2,-19,-103,-77,-25,-98,-62,-19
1491088234206,2,-16,-5,61,29,65,-98,5,-41
1491088234206,2,56,40,96,-24,1,-70,66,28
1491088234242,3,-28,-22,-52,127,47,-103,31,22
1491088234242,3,47,-12,-32,-81,-31,104,-25,-32
1491088234242,0,108,29,38,-128,-69,67,-33,19
1491088234242,0,12,-24,-53,114,39,-61,4,-19
1491088234243,1,116,-4,16,-32,-59,-63,-10,7
1491088234243,1,-96,-11,-21,66,85,-86,3,-2
1491088234279,2,-4,7,-51,-128,-22,12,-4,6
1491088234279,2,93,-10,42,107,107,121,-12,-10
1491088234280,3,77,9,31,-17,29,-49,-74,-19
1491088234280,3,-76,-16,-76,-25,-33,-128,28,22
1491088234281,0,-115,3,29,79,-13,2,11,-12
1491088234281,0,-128,15,53,-40,-74,15,24,4
1491088234316,1,56,-68,-128,-28,44,3,-28,-22
1491088234316,1,127,47,127,67,76,57,-35,13
1491088234317,2,37,-20,-58,-43,-24,20,-2,-29
1491088234317,2,-63,-24,-65,88,-5,-94,-86,16
1491088234318,3,10,3,4,-31,20,121,18,-61
1491088234318,3,127,9,-8,-19,-70,61,-14,28
1491088234319,0,-75,-27,-20,-41,-46,-100,34,-3
1491088234319,0,-59,24,66,45,24,117,-11,-31
1491088234392,1,-123,56,85,2,-12,-14,71,26
1491088234392,1,73,-7,23,27,-39,127,-63,-29
1491088234393,2,127,-27,-82,-28,-75,-113,26,12
1491088234393,2,127,-42,-73,-61,-109,0,14,-5
1491088234394,3,20,-15,-30,19,-43,-24,-31,6
1491088234394,3,-109,30,80,-111,1,-43,35,-4
1491088234395,0,-115,4,53,14,28,111,20,-8
1491088234395,0,-19,8,-25,34,124,31,-68,14
1491088234429,1,88,-20,-41,51,-80,-7,-49,10
1491088234429,1,-56,15,77,83,-40,33,64,-17
1491088234430,2,127,2,-73,-54,-12,0,-21,14
1491088234430,2,-94,-17,-74,-128,-82,-128,28,-5
1491088234467,1,-128,-14,-64,-14,43,-55,-4,20
1491088234467,1,-90,-7,47,-121,20,37,-9,-30
1491088234467,2,21,-30,-45,109,36,-51,0,-27
1491088234467,2,34,29,84,-1,30,-8,-24,-2
1491088234468,3,-60,17,105,127,106,127,19,-13
1491088234468,3,14,-2,-128,-128,-52,-70,-5,10
1491088234469,0,-67,1,20,7,88,84,17,36
1491088234469,0,41,25,81,-5,108,37,-62,-15
1491088234504,1,-102,-18,-46,-101,-59,-10,-26,-28
1491088234504,1,-86,-25,-75,127,44,2,-4,2
1491088234541,2,-24,13,70,-128,-22,67,3,-6
1491088234541,2,-6,-39,-106,77,-8,-105,-47,-26
1491088234579,3,124,31,63,-87,-40,127,107,31
1491088234579,3,124,-6,-35,10,3,-128,-60,-14
1491088234581,1,1,9,29,-5,42,11,-41,17
1491088234581,1,-59,-35,-39,-65,-6,-5,23,-30
1491088234582,2,69,48,81,72,84,-16,3,2
1491088234582,2,45,-10,-56,-1,-112,15,85,13
1491088234583,3,1,-60,-116,-36,-43,-57,-41,-11
1491088234583,3,37,-2,59,-70,55,61,35,1
1491088234617,1,52,-16,-69,-21,-7,-36,-11,-7
1491088234617,1,0,-9,8,7,-11,114,-10,9
1491088234618,2,10,18,45,-42,58,77,-62,-27
1491088234618,2,52,3,29,53,-5,-15,25,1
1491088234619,0,14,-11,38,4,-49,-9,45,9
1491088234619,0,-9,-18,-52,33,26,-52,-13,-20
1491088234619,1,1,65,127,115,119,72,41,1
1491088234619,1,7,-2,-60,-48,-71,-56,9,17
1491088234654,2,-7,-16,-28,-10,31,-6,-4,-2
1491088234654,2,-10,5,16,29,86,88,28,3
1491088234655,3,4,15,11,9,-7,-63,-66,-10
1491088234655,3,-11,18,23,24,-31,-17,-2,-22
1491088234691,0,8,5,-3,63,8,68,19,3
1491088234691,0,-7,-3,-49,-62,-56,-61,-60,-8
1491088234729,1,2,-1,-36,35,-70,22,-23,-8
1491088234729,1,1,18,-13,31,-44,63,27,22
1491088234730,2,4,-11,-22,-37,-48,34,5,-3
1491088234730,2,-3,1,-16,-41,-95,-13,-56,-33
1491088234731,3,-8,33,60,-57,-17,2,15,-9
1491088234731,3,-1,4,-39,97,-1,-37,11,18
1491088234732,0,4,-13,-67,-30,-89,-29,-56,-5
1491088234732,0,-9,43,-11,-22,-23,27,28,4
1491088234766,1,1,-8,8,3,-56,-48,0,-22
1491088234766,1,-1,6,59,6,57,127,-8,-6
1491088234768,2,3,-4,25,6,-27,77,6,-23
1491088234768,2,-3,14,40,-7,-87,-125,12,-9
1491088234768,3,-25,2,39,-5,23,-82,-18,-6
1491088234768,3,113,2,-83,-56,-108,66,29,-20
1491088234769,0,-3,29,18,23,42,-84,9,7
1491088234769,0,71,-10,26,15,18,127,-10,-1
1491088234804,1,34,-10,8,59,-14,-103,36,9
1491088234804,1,43,-9,59,-27,56,123,8,-18
1491088234805,2,110,11,-5,34,-48,-77,-8,7
1491088234805,2,116,-3,-9,-10,-28,-29,-13,-4
1491088234806,3,-67,-21,-11,3,62,-95,-27,8
1491088234806,3,26,-5,39,73,15,89,-7,-3
1491088234806,0,115,-4,-13,-43,-29,77,59,26
1491088234806,0,69,-11,-34,-38,23,-114,-53,-12
1491088234841,1,-10,3,59,88,71,119,27,1
1491088234841,1,-128,-30,-59,-40,-21,-115,8,0
1491088234842,2,-128,9,70,124,87,24,8,4
1491088234842,2,-107,-22,-72,-84,-31,31,-28,-15
1491088234917,3,-8,13,66,-41,54,99,-2,-5
1491088234917,3,84,4,-23,86,-17,-38,-14,-13
1491088234918,0,-43,-3,4,-5,30,14,-5,-8
1491088234918,0,-19,-18,-16,-91,-34,52,44,1
1491088234918,1,53,4,9,85,15,-97,-64,-25
1491088234918,1,-128,13,20,-97,69,31,-3,27
1491088234919,2,56,-2,7,1,-86,-75,48,15
1491088234919,2,20,8,35,47,76,115,23,2
1491088234954,3,-29,-23,-42,-81,-25,74,12,10
1491088234954,3,-56,-12,20,26,20,-109,-30,-4
1491088234955,0,-119,-10,-31,-64,-7,0,8,-20
1491088234955,0,14,3,50,-31,10,-11,11,11
1491088234956,1,35,4,-101,-121,-82,14,37,3
1491088234956,1,63,15,-6,-83,-50,-32,-5,18
1491088234957,2,127,-13,9,-20,52,21,-22,-20
1491088234957,2,2,-5,-9,-93,-17,-25,-25,-2
1491088234991,3,4,-14,-25,0,-84,-119,-7,9
1491088234991,3,-5,-18,1,38,45,93,6,-6
1491088234992,0,-61,27,9,44,28,77,-13,13
1491088234992,0,-95,3,31,33,46,45,-13,0
1491088234993,2,-21,-2,-26,-74,-58,65,45,27
1491088234993,2,13,-5,-39,5,1,-16,-69,17
1491088234994,3,-92,17,56,113,58,-13,-26,-26
1491088234994,3,-19,-4,-15,25,-10,-31,15,8
1491088235029,0,-113,-8,-38,28,10,98,29,-2
1491088235029,0,-115,-7,-94,-37,-19,-69,8,-11
1491088235030,1,0,1,-65,-16,-20,-39,-34,20
1491088235030,1,27,-8,46,-44,-15,-1,-6,-13
1491088235031,2,107,14,34,-68,16,-14,-5,-13
1491088235031,2,-16,-6,36,86,22,4,20,5
1491088235031,3,-81,-5,105,41,-2,35,-5,-10
1491088235031,3,-24,-43,-64,-84,3,-13,42,-6
1491088235067,0,25,-10,2,-40,-19,-89,-105,15
1491088235067,0,92,-3,22,-82,-11,52,43,-11
1491088235068,1,109,16,45,48,36,-67,23,3
1491088235068,1,32,9,8,40,-1,127,-40,-2
1491088235068,2,-109,-16,-21,7,48,-128,78,-23
1491088235068,2,48,3,39,9,3,80,-44,-10
1491088235069,3,86,-26,-45,-31,-40,-86,-50,-25
1491088235069,3,-45,20,-4,56,-20,-81,21,24
1491088235105,0,-66,-20,-30,17,20,63,-25,-1
1491088235105,0,-128,13,27,54,-14,-34,26,-1
1491088235106,1,-126,-10,-17,-79,10,82,20,2
1491088235106,1,-69,16,3,32,10,16,-22,-12
1491088235107,2,-61,5,9,63,58,85,7,12
1491088235107,2,10,3,-4,55,6,-123,18,10
1491088235108,3,-45,-10,5,4,-9,70,-8,-23
1491088235108,3,16,8,4,23,36,83,30,4
1491088235142,0,46,-43,-30,60,-44,-80,-53,-49
1491088235142,0,18,27,-5,-98,17,46,-12,15
1491088235143,1,5,10,18,14,48,58,18,16
1491088235143,1,26,0,-13,-2,-65,-48,-10,16
1491088235145,2,44,5,4,-73,31,98,34,17
1491088235145,2,-33,2,23,89,5,15,-3,-46
1491088235145,3,-5,-5,-70,-84,-16,-10,16,26
1491088235145,3,-9,8,59,38,37,127,43,-29
1491088235180,0,55,14,-5,84,-5,-125,-89,5
1491088235180,0,-23,-23,-26,-51,-47,-11,40,14
1491088235182,1,24,12,-4,-92,-26,66,-7,17
1491088235182,1,18,-48,-20,68,-3,-90,101,-27
1491088235182,2,16,51,21,47,4,97,-67,-9
1491088235182,2,-16,-7,-1,-51,18,28,-48,-15
1491088235183,3,13,-2,15,42,-19,-60,22,-6
1491088235183,3,84,37,43,11,31,-18,-43,24
1491088235217,0,-57,-14,-40,37,74,-20,-15,7
1491088235217,0,34,-58,-7,34,-43,-70,49,-17
1491088235218,1,9,33,-43,35,71,86,84,7
1491088235218,1,26,-38,-34,51,29,-7,-39,21
1491088235220,2,23,57,39,-128,-24,-77,-75,-11
1491088235220,2,-64,-39,5,62,-1,5,108,-18
1491088235221,3,-6,0,12,-7,19,20,8,10
1491088235221,3,86,-42,-8,-5,6,38,29,-12
1491088235254,0,0,55,59,-23,-27,127,9,4
1491088235254,0,66,34,-28,-53,-3,-14,-8,11
1491088235255,1,-18,-9,0,-3,-70,-87,-24,13
1491088235255,1,24,11,28,-4,-44,127,-99,-17
1491088235257,2,35,-24,-2,50,46,44,39,-37
1491088235257,2,1,-8,-37,-103,-12,48,-98,22
1491088235291,3,-49,-30,-34,51,-35,56,53,-35
1491088235291,3,24,0,-18,-56,-26,-68,-117,6
1491088235293,0,-40,-28,61,-36,-47,16,116,-36
1491088235293,0,54,22,-22,48,81,-19,61,45
1491088235293,1,16,19,21,25,-15,-10,-5,-9
1491088235293,1,-48,17,-2,-37,42,6,42,-1
1491088235294,2,58,-15,0,45,-53,-65,-72,2
1491088235294,2,-35,-13,-13,-45,-33,27,21,-12
1491088235329,3,68,2,24,15,12,29,-53,7
1491088235329,3,-55,-8,2,13,-63,-7,-21,-28
1491088235330,0,53,-6,-19,-114,67,12,65,61
1491088235330,0,-11,-21,-41,26,-8,-29,-70,-46
1491088235332,1,-30,3,21,-35,-28,-64,-28,42
1491088235332,1,-21,1,-19,-40,32,-30,-1,-24
1491088235332,2,61,4,-5,65,-44,42,88,30
1491088235332,2,-11,17,30,-77,19,12,-78,-30
1491088235367,3,4,-8,-25,59,38,19,-71,6
1491088235367,3,-18,28,58,44,23,38,110,27
1491088235368,0,-20,-58,-31,-52,-37,-16,-3,-2
1491088235368,0,28,41,28,83,-6,-105,4,39
1491088235368,1,-14,-24,-52,-40,-50,58,-58,-13
1491088235368,1,3,-2,-23,-68,15,40,27,-18
1491088235369,2,-17,-3,-29,21,66,-43,-34,24
1491088235369,2,-5,-5,5,39,-35,-54,69,-5
1491088235404,3,-13,-12,-9,18,30,30,36,-24
1491088235404,3,2,18,-46,-36,-52,-110,-35,22
1491088235405,0,10,-5,-46,-35,-2,37,-22,3
1491088235405,0,-22,10,37,-13,19,67,-22,-18
1491088235406,1,1,8,16,-58,-11,-69,9,-19
1491088235406,1,10,-27,-5,33,53,37,-7,-3
1491088235442,2,-10,18,58,-59,-81,-72,-16,-1
1491088235442,2,17,-14,16,96,96,106,50,22
1491088235443,3,-38,-8,22,-74,-102,-54,47,-30
1491088235443,3,19,-2,37,63,40,85,-66,6
1491088235443,0,-5,5,-48,-52,-57,-110,-32,-42
1491088235443,0,9,-14,-15,-60,-13,-11,-47,7
1491088235444,1,-17,37,47,47,42,-2,45,12
1491088235444,1,23,-2,-1,-97,-87,11,9,0
1491088235480,2,-26,-28,42,127,100,34,83,-13
1491088235480,2,58,43,-32,-128,-75,49,-66,29
1491088235481,3,-18,-21,-10,-12,-22,-103,77,-12
1491088235481,3,-19,3,3,78,48,-1,-43,4
1491088235482,0,37,2,-34,-52,12,59,20,54
1491088235482,0,-19,-8,22,62,-42,-16,12,-2
1491088235482,1,39,13,14,10,-1,-82,6,17
1491088235482,1,-74,-29,-25,62,36,95,-29,-60
1491088235517,2,53,16,3,-51,-51,14,93,68
1491088235517,2,13,18,-24,-11,16,-83,-85,-30
1491088235518,3,38,18,19,-12,55,26,71,23
1491088235518,3,-5,-9,9,-28,-6,-20,26,11
1491088235518,0,-59,8,25,78,-2,-70,-98,-23
1491088235518,0,-21,-16,-3,4,-7,114,25,-16
1491088235519,1,-26,-26,-22,-21,-9,-80,-8,-12
1491088235519,1,8,1,-20,-79,1,60,-67,13
1491088235592,2,10,-10,-54,85,28,-46,-27,-3
1491088235592,2,9,4,15,-60,-51,93,119,9
1491088235593,3,6,-16,-1,79,9,-25,-38,9
1491088235593,3,-2,33,22,-60,-17,-29,-18,30
1491088235594,0,-49,-4,-21,64,24,39,-79,-34
1491088235594,0,1,-31,-3,59,25,-1,31,21
1491088235595,1,6,-3,-9,-34,23,54,-1,-29
1491088235595,1,11,19,-1,-91,-70,-20,25,-1
1491088235630,2,-36,15,44,-5,-14,-67,-105,-45
1491088235630,2,-36,-21,-32,-80,29,17,73,-39
1491088235631,3,14,9,-8,120,64,19,-128,43
1491088235631,3,-11,-3,11,30,15,-10,117,-14
1491088235633,1,-31,-45,-46,1,-103,-36,-122,-9
1491088235633,1,68,14,-35,45,35,30,72,45
1491088235634,2,-23,13,10,-23,9,66,-21,-9
1491088235634,2,-2,-33,20,-67,-62,-83,-27,-7
1491088235667,3,-69,-10,-53,84,103,32,-56,-27
1491088235667,3,28,0,4,27,-44,-32,-48,-25
1491088235668,0,32,-22,-12,-15,-29,4,17,45
1491088235668,0,29,12,-19,-6,9,23,62,33
1491088235669,1,3,40,113,-49,37,53,-12,-9
1491088235669,1,-9,-27,-67,-27,-38,-115,11,0
1491088235779,2,-15,-14,-41,-50,-70,119,-60,-52
1491088235779,2,-10,31,89,-70,-5,19,12,36
1491088235780,3,52,-1,-42,93,75,-42,90,10
1491088235780,3,-67,34,84,-20,-53,-4,-15,-10
1491088235780,0,39,-20,-54,2,80,-110,-56,-47
1491088235780,0,-35,-11,-28,23,-7,72,28,14
1491088235781,1,28,1,-11,-128,-33,62,49,-14
1491088235781,1,38,11,35,119,19,-111,72,49
1491088235816,2,-82,3,21,-10,-32,14,-93,-39
1491088235816,2,58,-2,-10,-12,0,35,50,30
1491088235818,3,34,-10,-34,-113,-99,-54,34,33
1491088235818,3,5,-19,6,-65,44,64,-50,-22
1491088235818,0,-8,-2,-35,39,-66,23,103,5
1491088235818,0,-36,-2,-3,125,51,-116,24,8
1491088235819,0,-1,-17,-57,39,-10,-128,27,-1
1491088235819,0,-20,-75,-86,74,-49,50,-12,44
1491088235854,1,-4,43,67,46,24,47,27,1
1491088235854,1,-17,-7,22,-6,-95,46,5,-35
1491088235855,2,29,67,127,84,80,109,-29,10
1491088235855,2,-18,-30,-73,-49,-69,74,-12,-14
1491088235856,0,-24,-22,29,61,-108,-14,-55,-39
1491088235856,0,17,54,92,63,80,-117,-65,-1
1491088235857,1,-17,-32,-81,-12,10,21,88,20
1491088235857,1,-7,-35,-48,-26,-109,-58,-39,8
1491088235892,2,-13,19,27,-60,-11,35,-64,3
1491088235892,2,27,27,104,127,0,-104,79,72
1491088235893,3,-9,-6,-54,79,92,68,59,-2
1491088235893,3,-26,-14,6,-13,38,64,-84,-24
1491088235893,0,35,21,-58,-125,-36,-76,68,46
1491088235893,0,-62,-56,-100,36,-100,13,-55,-29
1491088235894,1,9,11,19,-6,23,-4,-33,-27
1491088235894,1,16,11,48,74,61,94,41,-5
1491088235929,2,-17,1,0,24,-28,14,14,-17
1491088235929,2,13,15,18,-128,-68,-52,-56,-42
1491088235930,3,-27,-27,-53,64,-16,105,-35,-19
1491088235930,3,-13,-19,-40,-6,-42,-70,-34,-7
1491088235931,0,12,9,52,50,-109,45,11,-22
1491088235931,0,12,24,94,-32,47,-54,7,9
1491088235932,1,0,-1,-83,127,85,-8,5,-14
1491088235932,1,-44,-49,-89,-34,-128,-86,40,-4
1491088235966,2,4,-4,2,-33,14,29,-11,20
1491088235966,2,6,0,-65,-63,-76,-55,3,-21
1491088235968,3,18,37,127,66,7,13,-31,-7
1491088235968,3,11,21,16,-35,96,16,56,14
1491088235968,0,-47,-46,-95,-92,-45,-123,5,-19
1491088235968,0,7,-10,-3,-50,-40,66,-34,-15
1491088235969,1,36,22,66,-5,-30,15,10,8
1491088235969,1,15,28,67,122,-83,64,-42,3
1491088236004,2,16,-6,-89,16,-3,-107,-44,18
1491088236004,2,-59,-48,-75,11,-97,94,-55,-54
1491088236005,3,-10,2,19,-28,-56,-44,2,15
1491088236005,3,16,-7,71,109,-31,24,14,-10
1491088236006,0,-9,8,-32,-96,9,126,-47,-18
1491088236006,0,34,24,36,-78,79,32,23,22
1491088236006,1,-22,-36,-71,-32,29,-125,-29,-26
1491088236006,1,-17,13,33,21,72,96,-3,5
1491088236042,2,2,-17,-4,-74,75,-6,48,-12
1491088236042,2,-18,-8,-49,44,12,-25,-31,-5
1491088236043,3,83,10,125,-117,-62,124,27,-7
1491088236043,3,94,22,-92,39,95,-128,-10,24
1491088236044,0,-22,-20,-19,-46,4,75,-8,-5
1491088236044,0,13,-1,14,27,105,-11,32,-18
1491088236044,1,-59,14,2,-126,40,34,-24,-7
1491088236044,1,-29,-20,-18,44,80,2,71,-6
1491088236079,2,-7,32,47,-15,28,105,-64,11
1491088236079,2,-28,-6,63,10,-3,-38,20,21
1491088236080,3,-72,-12,-95,90,65,-128,-30,-17
1491088236080,3,-36,-12,-29,-114,2,67,0,1
1491088236081,0,6,12,120,127,102,65,6,-40
1491088236081,0,113,-15,-79,-57,-9,-51,79,17
1491088236081,1,127,-10,-16,31,23,125,-16,22
1491088236081,1,116,9,41,-34,33,-128,-18,5
1491088236192,2,114,-4,-42,58,-41,24,31,3
1491088236192,2,-58,8,-35,-82,-24,112,-34,-8
1491088236193,3,-103,-29,-20,45,-33,-111,-56,-27
1491088236193,3,-116,0,13,-93,-118,8,44,18
1491088236193,0,-27,17,127,89,74,48,21,-14
1491088236193,0,87,7,-49,24,36,-94,15,22
1491088236194,1,13,-22,-62,12,-77,24,71,-10
1491088236194,1,-96,3,-56,-63,-107,-117,-128,-6
1491088236239,2,-72,-2,79,14,23,8,53,6
1491088236239,2,-109,37,51,21,79,114,3,-8
1491088236240,3,-105,-7,11,-106,-59,-47,-18,11
1491088236240,3,-32,-6,-41,40,33,12,29,-20
1491088236246,1,-19,-31,-78,-99,-95,-92,-27,-11
1491088236246,1,-79,-78,-60,52,31,99,-22,-45
1491088236247,1,-128,10,-17,-25,-35,13,11,-12
1491088236247,1,-91,8,-29,57,69,-2,8,24
1491088236266,2,-61,-10,-23,-5,6,7,-18,-9
1491088236266,2,-26,0,-15,2,-84,-30,1,-5
1491088236267,3,-50,-3,47,32,91,67,10,-1
1491088236267,3,109,31,24,-53,-42,-50,-19,2
1491088236268,1,-2,2,2,12,10,-56,9,-2
1491088236268,1,-16,-51,-56,-103,-98,-58,-28,-9
1491088236269,2,77,-36,-59,-19,54,13,16,-21
1491088236269,2,98,-36,8,13,47,15,-20,28
1491088236304,3,56,24,81,26,47,21,13,16
1491088236304,3,26,8,49,-8,45,-13,-17,-11
1491088236305,0,52,0,-16,-4,34,31,7,-14
1491088236305,0,12,-19,-76,55,-63,-51,47,6
1491088236306,1,88,-17,-69,-58,-7,-40,-65,-9
1491088236306,1,50,0,-52,-34,67,26,26,8
1491088236306,2,-13,-14,48,58,9,-97,-23,-3
1491088236306,2,47,10,-27,-25,99,26,18,8
1491088236341,3,9,-2,10,-24,45,2,31,-4
1491088236341,3,0,-36,-5,98,25,5,-8,-1
1491088236342,0,0,45,75,4,34,59,-9,-1
1491088236342,0,-45,32,-14,-21,81,-37,6,-23
1491088236344,1,-24,39,95,127,93,-47,32,48
1491088236344,1,-6,9,-70,-115,-30,27,-4,34
1491088236344,2,-32,-12,-39,-14,-34,81,27,-10
1491088236344,2,92,3,6,37,-46,26,-28,-21
1491088236379,3,-109,44,96,54,-37,85,-27,-24
1491088236379,3,-96,48,127,120,32,88,41,5
1491088236380,0,71,29,-24,-30,-128,-18,47,28
1491088236380,0,-128,22,28,72,-112,0,-100,-46
1491088236381,1,37,27,-17,-8,-67,-25,-21,10
1491088236381,1,2,10,-43,64,-114,49,-30,4
1491088236454,2,70,-20,3,29,-96,-99,-41,-4
1491088236454,2,127,3,94,-33,-21,-20,37,11
1491088236455,3,127,6,-27,46,-20,66,2,5
1491088236455,3,105,11,79,-27,5,-17,-27,-9
1491088236455,0,82,-9,-28,100,-50,81,-8,-6
1491088236455,0,100,-20,-6,40,-43,-79,10,2
1491088236456,1,5,-17,10,-38,-64,-51,-2,3
1491088236456,1,30,9,15,23,80,18,-14,-25
1491088236491,2,-40,9,-14,-58,-39,-15,-15,-5
1491088236491,2,-68,-7,-44,-46,37,35,12,5
1491088236492,3,-6,10,-58,-16,-57,-39,38,7
1491088236492,3,-21,-10,-45,-36,23,50,-42,-10
1491088236493,0,-82,-9,-15,-35,41,16,-26,-12
1491088236493,0,-79,9,-62,-24,-16,12,-57,-14
1491088236494,3,-55,-16,-91,-95,-68,16,-37,-25
1491088236494,3,34,-17,-39,-37,-8,0,37,-6
1491088236533,0,65,-5,-26,-19,13,27,27,4
1491088236533,0,-10,1,-21,-33,-32,-40,-9,-11
1491088236533,1,94,-1,42,-15,30,-6,-15,32
1491088236533,1,-70,7,-2,11,26,-6,19,0
1491088236534,3,-34,5,-9,-20,32,0,5,9
1491088236534,3,101,-20,16,24,-4,31,6,-17
1491088236534,0,109,13,-11,19,44,-107,-19,6
1491088236534,0,-98,-11,-39,-110,-28,85,9,18
1491088236566,1,110,-3,-16,16,-17,81,-1,-16
1491088236566,1,120,15,10,6,45,-20,74,24
1491088236604,2,-63,-9,21,43,58,123,3,-3
1491088236604,2,127,-6,-117,-38,-85,14,22,-23
1491088236605,3,43,-13,13,34,55,44,-14,-1
1491088236605,3,-28,24,42,3,58,21,-3,-9
1491088236606,0,67,-7,26,36,35,6,24,3
1491088236606,0,55,-1,42,-76,9,-63,-48,0
1491088236607,1,42,-12,-24,121,78,82,49,-3
1491088236607,1,127,9,3,-48,-43,-1,20,7
1491088236641,2,-46,-13,-16,-52,-48,-27,-16,38
1491088236641,2,31,1,110,78,127,59,32,5
1491088236642,3,-68,-25,-75,-102,-114,-44,-20,-19
1491088236642,3,-33,-23,-24,-22,8,59,-19,15
1491088236643,0,-109,26,11,-7,-78,-118,13,17
1491088236643,0,-69,2,-15,2,79,122,-1,18
1491088236644,2,-95,-14,-27,-30,16,-10,14,-9
1491088236644,2,-55,23,14,-51,-52,-128,-15,2
1491088236679,3,-121,-19,-38,47,-42,15,3,-5
1491088236679,3,-75,40,36,38,62,84,14,5
1491088236680,0,5,0,-19,-70,-50,41,22,12
1491088236680,0,70,-19,-89,127,26,-124,17,-18
1491088236681,2,-117,13,21,-3,60,48,68,-8
1491088236681,2,-58,19,57,-23,-3,62,-10,-2
1491088236681,3,80,9,13,-57,45,20,23,-2
1491088236681,3,-72,12,-15,117,-2,-43,-41,-10
1491088236716,0,-45,-17,-26,-6,-84,-84,-49,-26
1491088236716,0,-23,-25,-11,-63,-39,-93,11,37
1491088236717,1,-90,-33,-14,71,64,80,-9,-39
1491088236717,1,1,-21,10,-76,-41,51,17,4
1491088236718,2,-53,-6,-39,44,55,57,-15,-13
1491088236718,2,-37,14,43,67,26,-10,-8,5
1491088236719,3,-81,12,-25,-98,-95,-59,-20,7
1491088236719,3,-22,-9,-33,9,25,64,7,-7
1491088236754,0,127,-37,-45,22,-17,-49,-1,-7
1491088236754,0,127,-20,-44,16,-36,28,28,14
1491088236755,1,27,-4,-38,-71,24,66,-59,4
1491088236755,1,-37,11,42,-128,-21,89,37,9
1491088236756,2,-44,-6,-12,127,4,-3,16,-36
1491088236756,2,-18,-5,31,-74,51,127,-29,-29
1491088236757,3,-73,-11,-62,25,-64,-128,-26,37
1491088236757,3,-52,5,-18,18,-17,-41,-35,-6
1491088236791,0,12,15,91,36,66,126,67,-24
1491088236791,0,-4,-42,-60,-58,-39,-81,-25,-19
1491088236794,1,-59,-10,3,-15,6,52,-13,-17
1491088236794,1,-58,-7,16,-21,-20,9,20,2
1491088236796,2,-58,0,27,-17,0,71,-65,10
1491088236796,2,-40,45,28,-32,-2,2,20,7
1491088236797,3,-32,-9,37,3,6,-40,3,-13
1491088236797,3,10,-14,-40,72,-10,-22,18,-6
1491088236829,0,39,-12,9,-15,36,-36,-16,-6
1491088236829,0,-11,9,71,45,-20,32,44,-4
1491088236830,1,16,9,57,47,21,22,-47,24
1491088236830,1,39,-18,-92,-105,-3,-65,34,12
1491088236831,2,34,-19,-45,-31,-37,82,-62,28
1491088236831,2,79,-12,-1,7,8,39,1,-12
1491088236832,3,-1,-7,29,16,10,-3,-18,-27
1491088236832,3,-9,8,63,57,-7,27,17,-5
1491088236866,0,93,-9,12,-43,-13,-69,-23,14
1491088236866,0,78,-6,-45,23,9,-59,-20,1
1491088236867,1,109,-1,22,-79,-4,68,29,-4
1491088236867,1,60,1,-23,87,-23,-102,-7,-12
1491088236868,2,-15,5,-10,6,53,79,57,-1
1491088236868,2,-42,10,-23,-42,-42,-65,-122,3
1491088236869,3,22,-14,-17,96,-6,-25,25,-9
1491088236869,3,-10,-9,24,-40,6,75,30,-5
1491088236904,0,-32,7,-8,3,9,-12,17,1
1491088236904,0,-34,7,9,-12,0,-48,16,13
1491088236905,1,-59,3,-25,-32,5,-86,-18,-2
1491088236905,1,-44,2,-36,11,23,108,-45,7
1491088236905,2,-22,-1,42,91,26,-111,17,-1
1491088236905,2,-26,-12,-57,-101,-9,127,17,-8
1491088236906,3,-33,-22,-35,24,-25,0,-59,-16
1491088236906,3,-12,17,49,10,-10,18,7,49
1491088236943,0,-20,4,19,-10,1,57,-55,-61
1491088236943,0,6,-17,-15,62,10,17,58,44
1491088236948,1,-25,15,27,-94,-36,64,27,5
1491088236948,1,18,-12,-12,44,39,-128,17,-25
1491088236949,2,-9,2,-18,-21,-26,118,-33,22
1491088236949,2,-15,-5,17,41,10,11,8,-13
1491088236950,3,10,13,-13,-2,-15,106,57,-2
1491088236950,3,7,5,7,-108,-14,-49,-40,-10
1491088236981,0,-2,3,12,53,-17,-93,-19,7
1491088236981,0,-24,-21,-20,80,-2,119,-19,-16
1491088236982,1,-25,-6,12,19,-49,15,57,-27
1491088236982,1,-38,-25,-17,-22,35,-55,-106,-24
1491088236983,2,9,2,-34,-67,12,87,40,-6
1491088236983,2,0,-1,49,43,26,23,71,30
1491088237016,3,11,31,-26,-30,-30,-80,-10,12
1491088237016,3,7,-4,4,35,19,75,14,-32
1491088237017,0,3,-8,-16,3,-10,-56,25,11
1491088237017,0,-34,-17,-12,-6,-33,-86,-5,-21
1491088237018,1,-7,-3,25,51,64,51,-49,-1
1491088237018,1,-2,1,-19,-49,18,8,11,7
1491088237019,2,19,8,5,-26,-12,-43,-3,30
1491088237019,2,8,-1,27,64,37,47,-16,-32
1491088237054,3,42,17,9,51,31,-122,64,48
1491088237054,3,-20,-8,-13,-28,-43,-36,4,17
1491088237055,0,19,17,40,20,-20,100,28,10
1491088237055,0,-2,2,-27,-46,21,-128,25,22
1491088237055,1,-35,-54,-47,74,-15,81,-11,-26
1491088237055,1,-4,14,40,29,5,38,-40,2
1491088237056,2,3,7,-17,29,25,-25,80,8
1491088237056,2,15,16,24,-75,-24,-4,-128,-33
1491088237091,3,-22,7,37,27,8,-95,89,33
1491088237091,3,-3,-6,-12,-54,-45,-10,-31,-24
1491088237092,0,2,-5,-38,-59,18,43,-62,5
1491088237092,0,-5,4,-7,15,-54,-36,33,-50
1491088237093,1,10,7,8,-54,20,-16,-29,30
1491088237093,1,-18,-18,-7,53,-4,-49,17,-13
1491088237094,2,-19,6,-14,-66,-79,-128,-43,0
1491088237094,2,-6,1,18,47,78,92,10,0
1491088237129,3,13,11,-4,105,47,23,12,9
1491088237129,3,0,-2,-26,-93,-85,20,-28,-11
1491088237130,0,-40,-22,37,114,31,-28,-41,-57
1491088237130,0,32,7,-11,-67,-47,40,29,25
1491088237166,1,5,-11,-13,15,49,85,66,1
1491088237166,1,17,28,51,101,46,97,-26,-21
1491088237167,2,15,2,-29,-91,-28,-44,81,8
1491088237167,2,-29,-1,72,93,-26,-12,-8,-14
1491088237168,3,-28,-14,-92,-128,-22,46,-41,2
1491088237168,3,-10,-20,-30,-21,-35,-26,61,-2
1491088237169,0,10,2,44,68,19,-16,-87,-22
1491088237169,0,46,4,-24,-11,39,87,4,13
1491088237241,1,55,13,37,37,0,-82,-26,-8
1491088237241,1,15,-4,8,35,14,-20,-45,-17
1491088237242,2,-17,12,-19,-113,-57,-24,43,44
1491088237242,2,-54,0,-27,0,32,-77,39,-8
1491088237243,3,2,9,13,-61,-8,13,-128,-33
1491088237243,3,0,-1,6,39,23,5,104,49
1491088237244,0,5,4,4,42,-2,1,-61,3
1491088237244,0,-41,-16,-11,-22,-35,21,20,5
1491088237280,1,-37,13,-11,-107,-14,47,-45,13
1491088237280,1,5,3,13,100,29,-76,-4,-24
1491088237282,2,20,-17,-12,36,44,121,70,38
1491088237282,2,10,12,20,7,-14,-16,-29,-20
1491088237283,3,-23,-21,-23,-29,-49,-28,-8,9
1491088237283,3,-30,6,29,-90,-27,43,29,-7
1491088237284,2,-11,-20,-6,6,-88,-56,-43,4
1491088237284,2,-21,8,-49,-103,-3,-26,-43,14
1491088237316,3,-14,-33,-43,-3,-34,-44,-12,-54
1491088237316,3,-7,9,1,-34,24,26,64,19
1491088237317,0,3,13,27,32,31,32,-32,-26
1491088237317,0,44,-7,19,3,-17,-77,99,37
1491088237318,1,-8,18,35,2,-5,-33,-72,-16
1491088237318,1,19,-15,-37,-61,-30,4,-16,25
1491088237319,2,-58,-15,-12,-34,-9,-5,47,-34
1491088237319,2,55,15,19,41,2,-64,-95,29
1491088237354,3,15,1,-7,57,40,75,55,-16
1491088237354,3,-6,-17,-2,30,-18,-24,-21,44
1491088237355,0,-15,27,11,13,21,29,3,-4
1491088237355,0,-40,-22,-30,-30,-10,-123,-36,-23
1491088237355,1,7,-24,-19,-40,-14,-10,2,10
1491088237355,1,29,34,15,-3,14,-10,-93,-27
1491088237356,2,1,-10,-4,-3,22,-48,36,-2
1491088237356,2,10,11,16,31,48,90,-27,-1
1491088237391,3,6,-7,7,-21,-78,-18,21,-16
1491088237391,3,20,-12,-47,-82,-29,-80,0,-8
1491088237392,0,8,3,-17,-31,21,104,-7,-1
1491088237392,0,23,-2,25,98,9,94,-6,-16
1491088237393,1,30,16,1,-106,-24,-101,54,6
1491088237393,1,23,-28,-19,113,13,61,13,-16
1491088237394,2,-48,-18,-18,-28,-14,-16,-62,7
1491088237394,2,41,4,9,-12,21,28,68,23
1491088237429,3,-72,1,-12,32,24,-46,18,33
1491088237429,3,-77,21,22,-35,0,10,-8,-12
1491088237430,0,-55,-22,-20,-16,-30,-26,6,13
1491088237430,0,-57,-9,-9,-18,-15,2,0,-6
1491088237431,1,22,8,6,-11,-2,-76,-39,5
1491088237431,1,-10,-25,-6,47,10,17,103,-21
1491088237431,2,6,31,9,-31,33,21,-124,-13
1491088237431,2,-37,-10,-5,-56,-58,-128,100,-8
1491088237467,3,-3,-5,31,113,101,127,-43,-11
1491088237467,3,-5,-13,-39,-95,-79,127,-28,-18
1491088237467,0,17,-4,24,103,-32,-105,77,15
1491088237467,0,-1,-6,-56,-23,41,-49,-102,-6
1491088237468,1,-35,-18,-31,10,2,68,55,-31
1491088237468,1,13,10,20,-19,-1,-93,40,16
1491088237469,2,100,7,14,-41,8,70,2,3
1491088237469,2,31,34,61,74,5,-19,-11,-48
1491088237504,3,41,-26,-23,-83,-38,17,-31,38
1491088237504,3,23,-1,-13,67,39,-28,36,12
1491088237505,0,19,13,-13,-81,-44,42,-10,-14
1491088237505,0,-28,-23,-4,30,-5,16,-73,-46
1491088237505,1,7,-5,-5,-84,-48,21,53,11
1491088237505,1,-87,19,14,41,-2,-77,12,10
1491088237542,2,-49,-15,19,48,103,113,-44,-25
1491088237542,2,101,31,17,3,-2,46,97,78
1491088237542,3,110,-29,-46,-57,-75,-70,-84,-45
1491088237542,3,127,-20,10,-10,0,103,-59,-24
1491088237543,0,12,2,-30,-49,-12,-53,-13,38
1491088237543,0,-51,4,31,20,19,76,88,-3
1491088237544,1,-79,29,57,52,26,8,-13,2
1491088237544,1,-53,7,1,43,26,-65,-67,17
1491088237579,2,-68,-2,-15,4,-21,-50,45,-14
1491088237579,2,-59,-16,-22,-60,-45,-24,-19,17
1491088237580,3,-52,24,25,-1,-1,108,-5,2
1491088237580,3,-50,-8,6,-22,-12,-28,21,-9
1491088237581,0,-33,-15,-4,50,-38,-20,-18,-14
1491088237581,0,-21,3,-50,17,59,-20,-38,-2
1491088237582,1,-31,-8,7,-2,-21,77,-15,-12
1491088237582,1,-21,25,26,1,9,-51,-12,8
1491088237691,2,-13,13,45,-29,14,97,-15,-11
1491088237691,2,-6,-29,-40,7,-92,-60,16,-18
1491088237692,3,-20,5,-20,22,74,-80,-24,42
1491088237692,3,-8,-20,-57,-106,-46,126,-4,16
1491088237693,0,0,-7,-19,-61,8,-128,32,-6
1491088237693,0,-9,14,22,48,23,96,-23,11
1491088237694,1,-9,16,77,-32,-5,35,51,-5
1491088237694,1,0,-22,-54,-22,-69,19,-83,-64
1491088237730,2,-2,-8,-18,45,61,-73,-28,35
1491088237730,2,-4,-7,23,4,10,105,55,9
1491088237731,3,-6,11,-22,49,0,-83,33,-6
1491088237731,3,1,3,34,-43,11,64,3,5
1491088237766,0,-3,5,73,96,0,-68,-48,-42
1491088237766,0,-2,-2,-60,-128,-28,21,-14,-15
1491088237768,3,-125,-21,-63,-83,-37,11,-29,28
1491088237768,3,55,26,3,-57,9,-34,20,11
1491088237768,0,113,-25,23,55,2,72,13,-6
1491088237768,0,127,13,5,61,-12,-94,26,24
1491088237769,1,127,-54,-20,42,-16,-40,-9,-14
1491088237769,1,86,75,54,-2,50,96,0,-23
1491088237804,2,76,3,-34,-104,1,-40,-19,32
1491088237804,2,5,-5,2,74,7,48,-21,-38
1491088237806,3,25,43,127,26,6,45,22,12
1491088237806,3,-56,-31,-105,33,22,-58,-38,4
1491088237806,0,-76,-42,-93,-14,6,22,-22,-16
1491088237806,0,-26,-13,30,-65,13,112,26,26
1491088237807,2,-128,44,61,-30,-17,-118,79,25
1491088237807,2,-121,-43,-94,-54,-4,18,-77,-16
1491088237842,3,-103,5,-8,-58,-11,20,-17,-48
1491088237842,3,-128,-32,-65,-22,12,-114,62,42
1491088237844,0,-100,6,18,111,11,14,50,-4
1491088237844,0,-39,1,13,6,14,-83,-49,-5
1491088237848,2,67,-13,-45,-43,-75,-100,-10,-13
1491088237848,2,121,-2,35,-3,-15,125,-47,-9
1491088237850,3,109,23,-29,-86,-82,49,-23,-13
1491088237850,3,89,-45,-34,77,43,-42,12,4
1491088237879,0,121,19,42,-19,-30,-21,-63,2
1491088237879,0,90,-1,-24,-85,-36,-7,-23,-32
1491088237881,1,100,1,49,100,60,-124,105,32
1491088237881,1,97,34,43,-80,-8,76,-69,-10
1491088237881,2,30,-48,-96,-80,-75,-28,53,22
1491088237881,2,98,-15,-18,1,24,82,-11,-26
1491088237882,3,54,-26,-27,86,-26,52,109,2
1491088237882,3,65,47,10,-27,-22,43,-58,15
1491088237916,0,64,15,48,39,-9,-18,-11,-27
1491088237916,0,-1,6,19,55,28,-27,37,25
1491088237918,1,75,-2,-35,-99,-21,-28,-33,2
1491088237918,1,-3,-24,12,67,2,14,-6,-20
1491088237919,2,37,-3,-5,-72,-46,7,35,-21
1491088237919,2,43,22,12,21,28,-97,-13,45
1491088237925,3,-19,-3,34,-87,-15,-43,-4,-37
1491088237925,3,-18,-11,-49,85,-61,-44,8,10
1491088237954,0,24,8,25,-9,29,-18,28,33
1491088237954,0,-4,5,-13,-58,-70,67,-4,-48
1491088237955,1,-17,-7,28,96,16,-60,18,14
1491088237955,1,17,-11,-8,-55,-80,-80,-37,0
1491088237955,2,30,20,37,102,-58,127,19,25
1491088237955,2,-20,-3,-78,-96,-19,-21,-15,-32
1491088237956,3,11,-29,-38,-78,-115,22,-38,-10
1491088237956,3,-17,2,9,34,85,5,-21,12
1491088237991,0,0,-34,-56,54,58,43,-32,-12
1491088237991,0,-34,3,35,26,67,-68,-10,-24
1491088237992,1,-27,-13,-28,5,25,127,62,-9
1491088237992,1,40,33,69,-120,49,-98,24,33
1491088237993,2,-6,6,-4,51,68,-25,-23,10
1491088237993,2,-17,-14,15,31,25,29,6,-11
1491088237994,3,12,23,-33,-70,17,46,24,-6
1491088237994,3,-19,-51,-76,29,-67,-61,-31,-16
1491088238029,0,-22,-17,23,-3,45,57,57,13
1491088238029,0,43,64,72,65,36,-125,62,40
1491088238030,1,-6,9,-33,46,51,-18,-10,1
1491088238030,1,10,25,112,32,-75,127,1,-31
1491088238031,2,-52,-56,-126,-109,-21,-15,-85,-22
1491088238031,2,14,-22,4,85,-38,-33,-68,41
1491088238032,3,18,24,58,-112,-68,-42,-60,-34
1491088238032,3,-48,-56,-118,31,42,52,57,-2
1491088238066,0,-6,9,62,102,66,24,-9,-19
1491088238066,0,9,22,31,-123,-21,-17,50,17
1491088238067,1,-17,-39,-42,1,9,-36,-16,21
1491088238067,1,23,47,94,57,65,121,-19,5
1491088238068,2,1,31,32,-30,-41,79,37,-17
1491088238068,2,26,8,-28,-3,-21,-1,34,27
1491088238069,3,-19,-32,-90,94,39,-85,21,5
1491088238069,3,7,-6,-67,-128,-127,12,81,15
1491088238104,0,5,-24,-37,76,42,29,-7,-2
1491088238104,0,-2,18,81,127,102,78,12,23
1491088238105,1,-13,41,93,-51,19,67,-8,-18
1491088238105,1,-34,-54,-128,26,-100,-112,-62,6
1491088238142,2,-4,22,25,-83,-20,92,2,-7
1491088238142,2,-13,-18,12,41,-38,29,13,-28
1491088238143,3,-21,-15,-51,-72,-70,45,-45,19
1491088238143,3,-29,37,127,78,55,127,46,-32
1491088238143,0,-64,-16,-94,-127,-55,-123,-3,4
1491088238143,0,-36,-10,-7,-35,11,-90,-52,20
1491088238144,1,-10,9,33,8,24,102,-35,-1
1491088238144,1,-22,4,44,78,29,-64,-37,5
1491088238179,2,-27,35,53,18,53,39,-17,4
1491088238179,2,-111,-24,-37,22,16,65,33,-25
1491088238180,3,-103,1,-20,-40,-11,-121,2,5
1491088238180,3,-69,32,39,-79,-2,82,-10,-6
1491088238181,0,-53,-33,-41,97,-87,-120,10,4
1491088238181,0,-26,4,-34,-128,-18,51,12,-1
1491088238181,1,-12,-17,7,127,0,-51,-8,-13
1491088238181,1,-12,-16,-90,-102,-61,-75,-76,5
1491088238216,2,32,32,82,60,83,-25,1,-6
1491088238216,2,30,11,73,31,13,-4,52,-4
1491088238217,3,41,-4,-115,41,-88,38,-31,-26
1491088238217,3,5,-62,-60,2,-55,-59,40,2
1491088238218,0,33,13,93,-89,32,65,-2,-11
1491088238218,0,11,-50,-128,91,-116,84,13,-16
1491088238219,1,38,14,66,-105,66,-47,76,31
1491088238219,1,24,-3,28,32,86,-26,-22,-26
1491088238254,2,8,-21,-85,-88,-90,1,-42,1
1491088238254,2,9,14,66,-42,71,126,-32,-2
1491088238255,3,6,-32,-76,-106,-92,68,-5,-2
1491088238255,3,-24,-58,-75,18,-74,-83,-46,-5
1491088238256,0,16,7,108,118,88,116,-14,-10
1491088238256,0,28,17,-28,-17,42,102,75,-9
1491088238257,1,20,2,-42,-5,-38,-71,-98,9
1491088238257,1,35,34,28,-115,64,127,15,-6
1491088238291,2,28,-8,-6,54,-44,11,-26,-10
1491088238291,2,16,-2,97,46,69,59,41,-4
1491088238292,3,12,-46,-34,15,14,-57,34,17
1491088238292,3,13,-3,24,-34,-28,60,-33,-25
1491088238293,0,11,5,-29,-128,35,-22,40,42
1491088238293,0,8,9,23,91,-24,13,-58,0
1491088238294,1,1,-11,23,23,109,81,10,6
1491088238294,1,10,12,60,80,66,-80,103,27
1491088238329,2,6,3,-19,-96,-49,56,-39,-15
1491088238329,2,4,-38,-50,34,-38,-60,-42,-9
1491088238330,3,-2,13,51,14,23,68,26,4
1491088238330,3,2,44,60,55,13,-18,72,54
1491088238331,0,4,-33,-65,-66,-56,91,15,-14
1491088238331,0,-1,-22,-30,-58,12,40,13,18
1491088238333,1,-3,-4,-33,39,3,-8,-58,-35
1491088238333,1,2,0,18,-51,49,127,62,-17
1491088238366,2,1,25,-8,97,-51,-92,-73,11
1491088238366,2,1,-3,0,-24,-24,-94,0,-2
1491088238367,3,-1,11,52,118,102,82,6,-10
1491088238367,3,2,0,-56,10,-28,14,-18,-2
1491088238368,0,1,-6,-6,-20,-24,-114,4,0
1491088238368,0,-1,-7,0,-5,-24,54,-4,-12
1491088238369,1,-1,25,12,-22,21,-4,-17,5
1491088238369,1,-1,9,-29,-16,23,29,17,-6
1491088238404,2,-1,-7,-42,22,-33,-67,-2,-9
1491088238404,2,0,24,-2,-6,-37,56,-7,5
1491088238406,3,-1,14,-2,-16,26,29,36,5
1491088238406,3,0,-18,-53,-11,-79,19,2,-13
1491088238407,0,0,39,78,21,85,50,33,-14
1491088238407,0,-1,26,-17,-46,-50,-109,-22,-5
1491088238408,1,-1,8,10,9,-55,-2,3,1
1491088238408,1,-1,-13,1,17,-7,91,-3,-15
1491088238442,2,0,18,6,-62,30,-37,-7,-3
1491088238442,2,-1,15,69,77,32,84,12,5
1491088238443,3,-1,-4,63,2,-98,-90,15,-20
1491088238443,3,0,17,78,-18,98,-43,-47,5
1491088238443,0,0,-20,-94,-8,-75,86,-8,1
1491088238443,0,-1,-5,-76,-34,95,0,10,-7
1491088238479,1,-1,25,-23,27,-25,29,1,1
1491088238479,1,-1,4,-20,-6,8,49,8,-15
1491088238480,2,-1,13,31,-39,-7,34,52,-4
1491088238480,2,-1,-10,-38,29,37,20,-25,-14
1491088238481,3,-1,-16,-99,-92,-72,-69,-85,-12
1491088238481,3,-1,11,-37,-34,-97,-27,-76,-6
1491088238516,0,0,-7,11,50,41,45,33,-9
1491088238516,0,-1,8,55,4,14,14,37,14
1491088238518,1,-1,32,109,63,97,70,-44,-18
1491088238518,1,-1,3,73,-78,-65,-96,6,8
1491088238518,2,-1,-14,18,8,-5,65,-18,9
1491088238518,2,-1,2,7,-56,-79,-28,-31,4
1491088238519,3,-1,-6,19,6,101,85,53,5
1491088238519,3,-1,-18,-31,71,-49,32,-1,8
1491088238554,0,-1,14,15,-28,-42,-46,-2,-7
1491088238554,0,-1,-15,-17,-34,-13,41,-23,-5
1491088238555,1,-1,-7,-14,21,31,59,54,10
1491088238555,1,0,16,17,70,85,127,73,-4
1491088238591,2,-1,-18,-82,9,8,-82,-94,-15
1491088238591,2,-1,4,-62,-59,15,-7,20,-27
1491088238592,3,37,-68,-38,-15,-56,-7,23,12
1491088238592,3,91,51,69,18,100,95,5,-6
1491088238593,0,57,-3,-48,62,-86,-61,64,2
1491088238593,0,52,14,-86,-75,-74,-81,-37,15
1491088238594,1,33,-26,-61,-11,13,22,-90,-19
1491088238594,1,48,-9,-69,-76,6,44,51,11
1491088238629,2,78,50,86,114,53,-54,-23,3
1491088238629,2,-3,-17,-65,-12,-44,-80,-6,1
1491088238630,3,-16,33,55,16,23,-68,44,-2
1491088238630,3,-37,27,-7,-14,28,62,-31,12
1491088238630,0,30,-55,-20,-74,6,98,-31,11
1491088238630,0,91,68,76,4,-22,55,13,-6
1491088238631,1,87,3,2,47,-13,104,6,0
1491088238631,1,100,-13,4,-32,-27,-116,-6,3
1491088238704,2,27,57,32,-6,41,-22,38,-1
1491088238704,2,0,-15,-8,12,-3,75,-14,6
1491088238705,3,104,37,42,-18,1,32,25,-3
1491088238705,3,69,-41,-24,73,-15,-121,42,7
1491088238705,0,124,-81,-7,-31,77,81,4,-21
1491088238705,0,113,-59,5,30,-34,-5,46,14
1491088238706,1,-64,91,83,-9,-11,-19,-44,-1
1491088238706,1,-118,-81,-98,-14,-47,-27,11,0
1491088238741,2,-128,103,-34,-91,55,67,-35,8
1491088238741,2,-128,-55,-4,74,13,21,11,-13
1491088238742,3,-116,-34,40,81,77,-1,-17,3
1491088238742,3,-120,-40,-1,-28,-128,-128,0,15
1491088238743,0,104,-2,-74,73,-101,6,-29,3
1491088238743,0,-95,-9,-70,-42,-28,-34,-18,-16
1491088238744,1,-110,19,-8,0,-32,17,64,16
1491088238744,1,-128,16,23,53,41,-10,33,10
1491088238779,2,-128,2,47,-27,23,-74,28,30
1491088238779,2,-93,-30,-6,-52,-6,123,93,-8
1491088238780,3,-44,25,17,77,-15,19,-100,-1
1491088238780,3,66,3,46,-56,42,64,27,17
1491088238780,0,0,-10,-19,109,-35,-62,26,11
1491088238780,0,108,15,-1,-24,1,-55,0,-4
1491088238781,1,53,-15,-13,33,-11,-21,44,0
1491088238781,1,75,17,35,-39,3,14,3,-7
1491088238816,2,16,4,50,-80,-46,8,-24,-11
1491088238816,2,-24,-6,10,-26,-8,-25,-47,-39
1491088238817,3,36,25,26,-48,-5,-60,-34,30
1491088238817,3,7,2,10,98,31,-28,23,-16
1491088238818,0,-15,-13,-6,11,3,67,25,2
1491088238818,0,-6,23,-66,-4,7,-4,-10,3
1491088238819,1,13,-5,-28,18,21,50,45,-4
1491088238819,1,15,-16,-104,-93,45,7,6,-7
1491088238854,2,25,2,-54,75,-28,-20,15,10
1491088238854,2,72,14,-23,8,-25,-34,-49,-1
1491088238855,3,38,-9,-18,-81,-4,78,-26,-6
1491088238855,3,2,5,56,42,-19,56,69,-5
1491088238855,0,-47,17,44,-53,1,-29,-46,-19
1491088238855,0,-20,1,32,47,39,87,22,6
1491088238856,1,-32,-10,-35,-20,-39,-122,44,-3
1491088238856,1,9,16,63,21,-14,54,-128,-9
1491088238891,2,1,-20,-57,-6,10,-82,76,23
1491088238891,2,-10,-32,-21,-30,-14,115,-53,-25
1491088238892,3,4,21,54,8,45,-21,74,3
1491088238892,3,1,-22,-58,-14,-31,-125,-128,14
1491088238893,0,58,17,74,35,53,127,-92,-32
1491088238893,0,113,10,34,-36,-31,-51,55,24
1491088238894,1,99,12,21,-59,-11,48,51,25
1491088238894,1,66,-18,24,120,31,-15,71,-7
1491088238929,2,87,8,53,-128,-23,28,-82,-9
1491088238929,2,60,28,99,127,38,-120,79,38
1491088238929,3,13,-37,-32,-36,-67,-35,-70,-53
1491088238929,3,38,7,5,-77,8,31,-41,7
1491088238930,0,7,-22,-24,9,-7,-66,49,-8
1491088238930,0,11,-5,7,9,21,123,-22,0
1491088238931,1,-10,0,-82,-49,-17,56,-49,1
1491088238931,1,-16,0,-53,19,-11,88,10,-6
1491088238966,2,0,-2,30,62,51,-56,-44,32
1491088238966,2,-22,6,-64,-43,-32,63,32,-48
1491088238968,3,-21,-17,-61,37,-28,51,120,61
1491088238968,3,-75,-3,2,40,-15,-52,11,-2
1491088238969,0,-106,10,49,41,60,118,51,-14
1491088238969,0,-87,-8,-24,-83,-36,25,-31,-1
1491088238970,1,-84,-1,-12,-11,-7,-85,-36,6
1491088238970,1,-29,-17,28,-91,-64,55,16,-24
1491088239004,2,38,9,-2,93,56,16,32,7
1491088239004,2,12,2,34,27,19,-125,-26,6
1491088239005,3,83,7,-14,14,53,65,12,2
1491088239005,3,72,-8,0,-51,-10,-17,-25,-28
1491088239006,0,70,-51,47,-46,-45,127,53,-43
1491088239006,0,76,69,98,70,61,-83,-78,39
1491088239041,1,26,-12,37,-30,-37,29,-115,-4
1491088239041,1,0,36,127,127,53,69,105,-15
1491088239042,2,21,8,-76,-123,-1,-41,-128,29
1491088239042,2,27,-57,-31,41,-9,18,83,-13
1491088239043,3,-9,12,22,-4,-36,-94,24,1
1491088239043,3,27,8,-32,-52,58,96,-75,12
1491088239044,0,-64,-5,-9,31,-15,98,47,25
1491088239044,0,-67,5,-24,-79,-32,-97,12,-40
1491088239116,1,-34,-9,-3,71,30,28,-23,-19
1491088239116,1,-16,0,-37,-128,-61,38,-40,-10
1491088239117,2,31,0,8,99,43,-89,4,-29
1491088239117,2,104,-6,-2,-33,-8,120,26,16
1491088239118,3,81,17,23,82,-10,-69,32,-35
1491088239118,3,113,7,-47,-38,14,-128,-21,34
1491088239119,0,78,-5,-65,-128,-76,92,-81,-14
1491088239119,0,75,6,55,93,37,127,85,19
1491088239154,1,119,-9,-56,-71,11,-39,-38,2
1491088239154,1,126,-16,5,50,59,76,-3,9
1491088239155,2,25,-1,-24,-24,-64,-17,7,-32
1491088239155,2,-100,-18,-11,23,7,52,47,4
1491088239155,1,-87,8,2,-53,21,-51,11,12
1491088239155,1,-128,24,0,72,-3,38,-9,-1
1491088239156,2,-115,-17,26,39,5,-71,111,-1
1491088239156,2,-115,44,3,23,106,-10,-58,12
1491088239191,3,-124,-18,-12,9,19,60,1,-27
1491088239191,3,-38,-13,-21,-37,-73,-54,-11,-26
1491088239192,0,106,12,-22,-28,-3,4,-32,42
1491088239192,0,127,-4,31,57,46,46,9,-26
1491088239193,1,127,8,-7,-7,-13,-24,-19,13
1491088239193,1,112,-19,-36,-71,-43,49,-5,10
1491088239194,2,89,16,20,66,4,-57,14,12
1491088239194,2,83,-20,-16,-10,-4,-16,-17,-20
1491088239230,3,-13,12,19,-4,-10,127,-23,-18
1491088239230,3,-67,2,18,41,7,-109,61,-1
1491088239232,0,-118,-11,-31,-77,-31,85,-30,-35
1491088239232,0,-60,10,15,-78,1,-82,-32,36
1491088239233,1,21,-16,7,114,-13,-22,82,17
1491088239233,1,39,-25,-35,-7,78,27,-52,7
1491088239234,2,91,10,56,73,38,127,85,-17
1491088239234,2,-61,-51,-84,-93,-58,-58,-71,-2
1491088239268,3,35,23,-49,-85,-53,81,35,10
1491088239268,3,-28,-7,11,-41,-20,-16,-36,-18
1491088239270,0,-8,19,41,30,16,34,35,-3
1491088239270,0,-23,-5,29,65,-21,-73,-88,-29
1491088239271,1,-41,3,11,20,72,-6,-17,22
1491088239271,1,-48,-19,-41,21,24,61,32,-26
1491088239272,2,-88,-7,1,-21,-11,-31,-86,2
1491088239272,2,16,29,25,-1,-8,60,101,52
1491088239305,3,0,11,52,-7,-35,-63,-45,17
1491088239305,3,-39,11,-26,45,1,79,-67,-14
1491088239307,0,-82,-43,-65,-93,-17,-36,-9,-18
1491088239307,0,-2,-7,-3,-24,-4,72,17,15
1491088239308,1,-14,0,-7,55,42,-95,-51,-30
1491088239308,1,-11,-8,-4,44,12,37,48,33
1491088239309,2,-44,-35,-8,0,-40,-47,19,12
1491088239309,2,-41,11,-22,-26,1,52,-112,-33
1491088239342,3,-26,20,39,-13,21,33,88,17
1491088239342,3,6,-5,58,-18,-76,-29,11,-41
1491088239344,0,-18,5,-44,-3,107,65,-10,-4
1491088239344,0,4,12,32,-56,2,115,37,8
1491088239346,1,-55,-29,-8,101,-31,77,-60,-20
1491088239346,1,-13,35,4,-18,-3,-128,56,24
1491088239347,2,54,18,-25,-26,-43,113,91,22
1491088239347,2,-49,-24,-28,27,-15,-16,-11,-12
1491088239417,3,-3,0,4,-29,4,-7,-40,-34
1491088239417,3,29,-10,10,37,50,-35,14,13
1491088239419,0,10,12,47,6,-21,-59,-46,-21
1491088239419,0,38,34,-2,-30,7,-70,4,-12
1491088239420,1,-1,-8,-14,-122,-55,64,29,33
1491088239420,1,-20,-13,50,43,-65,-16,16,-18
1491088239421,2,2,5,-66,-51,16,-124,-105,16
1491088239421,2,-18,-37,-62,100,-7,77,-4,0
1491088239492,3,27,-1,-23,16,2,94,119,17
1491088239492,3,2,33,31,-43,29,-31,-108,-13
1491088239530,0,15,21,15,-43,-25,1,-41,1
1491088239530,0,4,-27,-33,2,-49,-13,32,-12
1491088239531,3,-1,-15,37,51,-6,-52,-29,-31
1491088239531,3,-38,-1,-31,-59,-52,41,20,-17
1491088239532,0,-8,-19,9,-60,-6,0,15,28
1491088239532,0,-8,-2,85,-5,-26,19,5,-21
1491088239533,1,12,-2,62,31,3,53,-62,-24
1491088239533,1,15,-17,70,65,92,-12,88,49
1491088239568,2,-35,13,69,77,34,-19,-68,-50
1491088239568,2,53,-11,-25,-67,-32,-17,22,52
1491088239571,2,-28,-7,-4,28,6,12,-86,-9
1491088239571,2,9,-21,-54,-10,-18,4,85,-33
1491088239572,3,19,25,18,-48,2,-37,-42,5
1491088239572,3,-89,-4,4,48,19,1,-98,13
1491088239573,2,10,2,-7,40,-47,-104,97,28
1491088239573,2,20,21,-20,-36,63,114,-128,11
1491088239605,3,-8,-10,7,22,31,-65,43,-64
1491088239605,3,-29,2,35,36,0,-81,-40,-18
1491088239607,0,-17,-2,-14,-82,-69,31,41,9
1491088239607,0,-54,-34,-44,-80,-27,-15,-4,-26
1491088239608,2,-11,23,-8,-59,50,107,-69,-32
1491088239608,2,-22,27,62,-24,-12,-69,-24,0
1491088239609,3,5,-47,-109,8,-59,-24,11,-31
1491088239609,3,15,29,-2,-14,49,-43,62,-2
1491088239642,0,14,-3,8,49,-29,42,8,12
1491088239642,0,3,15,17,8,60,-114,25,14
1491088239644,1,-21,1,54,-23,46,50,-19,-33
1491088239644,1,9,0,27,-80,-51,65,29,-13
1491088239645,2,21,-3,-3,29,4,-86,-15,-33
1491088239645,2,-4,15,7,55,-12,23,-51,-45
1491088239646,3,-7,-7,27,-29,11,53,117,43
1491088239646,3,-2,-17,-39,-33,-45,21,-52,-19
1491088239717,0,-29,-20,26,12,-30,-96,57,26
1491088239717,0,13,11,-3,35,22,122,-57,-3
1491088239719,1,0,-7,-36,-54,2,-7,10,-14
1491088239719,1,-12,18,14,81,37,-98,52,53
1491088239720,2,20,3,12,3,21,127,-46,-25
1491088239720,2,24,2,18,-91,-15,-38,24,15
1491088239721,3,-7,6,15,127,33,-30,2,-12
1491088239721,3,17,-10,0,-32,-37,-36,11,-13
1491088239755,0,-1,4,-8,-5,-23,-128,-69,3
1491088239755,0,-25,1,44,44,43,53,9,-7
1491088239757,1,18,26,38,-98,-41,-75,-17,56
1491088239757,1,-19,-22,-28,-6,-59,70,-72,-41
1491088239758,1,4,2,-5,-32,13,-42,-74,-8
1491088239758,1,54,19,11,-71,-22,127,54,36
1491088239759,2,-16,-17,7,21,15,-16,4,-24
1491088239759,2,-1,-8,-31,31,-34,-71,-2,41
1491088239829,3,-4,11,42,20,-14,39,-35,-29
1491088239829,3,-9,0,0,27,27,-72,31,-13
1491088239831,0,15,21,0,-81,-5,67,107,-42
1491088239831,0,-10,-11,-3,-21,-13,-67,-66,54
1491088239870,1,32,13,-15,39,75,-94,29,30
1491088239870,1,-8,-17,-8,50,-4,58,-42,-4
1491088239871,2,-14,-3,4,-3,17,-73,62,-15
1491088239871,2,-22,-12,13,3,15,-16,-5,-33
1491088239872,3,6,14,-3,-52,-35,58,-4,18
1491088239872,3,-5,8,37,-21,14,103,6,-30
1491088239873,0,-13,-27,-40,16,-18,-76,-18,-13
1491088239873,0,-117,6,11,-11,-58,-113,-58,-46
1491088239980,1,-34,-20,-40,-12,59,87,-53,-8
1491088239980,1,24,2,2,-13,2,42,23,24
1491088239982,0,127,28,54,26,2,-3,-20,7
1491088239982,0,127,10,-46,-3,-20,-84,24,-2
1491088239983,1,125,-17,2,-1,-44,62,31,37
1491088239983,1,70,15,55,19,-7,4,-19,-13
1491088239983,3,47,-14,-20,-78,-71,-73,99,62
1491088239983,3,-24,23,14,109,69,97,26,16
1491088240016,0,-3,-8,18,16,13,-41,3,-7
1491088240016,0,19,12,23,-34,-22,112,49,25
1491088240017,1,-51,10,-21,31,-24,-65,-36,-42
1491088240017,1,-16,-22,-33,-3,1,-8,-29,76
1491088240018,3,-23,2,6,-30,28,63,-59,-6
1491088240018,3,-30,12,14,-19,-11,-10,-20,-8
1491088240019,3,-5,5,9,-39,18,-31,-57,14
1491088240019,3,-4,15,55,77,-12,-49,-36,-41
1491088240054,0,-9,-16,-51,-58,3,70,-5,10
1491088240054,0,-3,-13,-20,7,-36,14,21,22
1491088240055,1,-8,-13,-35,-46,-62,-51,38,6
1491088240055,1,2,3,6,-26,15,55,-16,16
1491088240055,2,-14,7,-10,-75,-34,-88,16,8
1491088240055,2,1,-16,30,122,58,-21,0,20
1491088240056,3,17,23,31,-54,-21,118,17,-5
1491088240056,3,-26,-16,-26,31,-12,-112,-30,25
1491088240091,0,14,-1,45,33,28,123,49,-8
1491088240091,0,-8,4,-17,-46,-11,-92,-26,0
1491088240092,1,-4,-17,-15,-14,-51,75,-7,-26
1491088240092,1,14,-4,-26,-34,42,74,-23,12
1491088240092,2,-7,6,-1,29,17,-80,2,7
1491088240092,2,-11,9,23,31,13,33,46,-17
1491088240094,3,22,9,14,34,-1,6,-20,16
1491088240094,3,-27,-13,-49,-87,-49,-28,13,-24
1491088240129,0,-2,-23,-31,-17,-8,26,-14,-10
1491088240129,0,9,4,8,10,-9,-34,-1,-2
1491088240130,1,-3,-4,14,28,38,-128,-10,-2
1491088240130,1,-8,5,15,-30,-10,92,19,12
1491088240130,2,0,2,0,61,2,24,-20,-11
1491088240130,2,-5,6,-29,-79,-60,-18,-19,-9
1491088240131,3,11,10,92,106,87,-6,19,4
1491088240131,3,-11,4,-81,-57,-32,82,-28,0
1491088240166,0,-16,-31,-95,-101,-25,-3,-4,4
1491088240166,0,-11,-12,-16,101,-37,-65,-38,1
1491088240168,1,-3,13,6,-29,2,14,-68,-5
1491088240168,1,14,14,68,44,66,117,124,5
1491088240169,2,30,20,54,-64,-20,-25,28,15
1491088240169,2,16,8,20,84,-20,21,-7,11
1491088240170,3,10,-9,-40,-30,32,-7,71,36
1491088240170,3,2,0,18,-56,-67,-35,-56,-28
1491088240204,0,-13,-26,-26,114,99,23,8,4
1491088240204,0,-10,13,3,-64,-75,37,-10,-10
1491088240205,1,4,-21,-45,29,52,-119,-16,7
1491088240205,1,-17,-2,-37,-93,-80,-41,39,11
1491088240205,2,27,16,25,16,7,117,3,-8
1491088240205,2,-7,-11,3,-27,42,2,22,25
1491088240206,3,-11,3,50,35,-2,-5,14,-19
1491088240206,3,-6,15,47,78,53,51,23,-19
1491088240241,0,0,-6,-54,-117,-80,-13,-36,15
1491088240241,0,-25,-27,-42,116,28,-109,-50,-16
1491088240242,1,-4,12,-4,-128,-128,127,30,-35
1491088240242,1,1,-27,-36,127,65,-128,15,8
1491088240243,2,-23,-5,22,-42,-10,49,-51,-18
1491088240243,2,1,12,48,-41,69,127,2,-6
1491088240244,3,9,4,-25,-33,-17,-30,19,14
1491088240244,3,15,50,100,17,74,62,15,18
1491088240279,0,-39,-28,-76,-65,-84,-78,-56,-23
1491088240279,0,-12,-16,-11,-126,-53,7,36,-6
1491088240280,1,-28,-34,-65,85,51,-47,-38,-34
1491088240280,1,-7,-13,22,45,7,117,67,-3
1491088240280,2,16,49,100,111,122,70,-6,18
1491088240280,2,-2,-1,-14,-109,-58,-35,-20,4
1491088240281,3,-6,0,-6,118,51,-86,7,20
1491088240281,3,-1,-9,5,59,-19,61,-7,-3
1491088240316,0,-29,-27,-27,-21,-48,-71,23,-29
1491088240316,0,-30,27,7,-35,13,-70,12,22
1491088240317,1,-63,17,20,8,-5,-51,82,48
1491088240317,1,-69,-7,2,-128,-56,-58,-128,-14
1491088240318,2,-98,-2,4,127,51,-89,56,-10
1491088240318,2,-19,3,7,-74,-36,77,-10,-13
1491088240319,3,27,-20,-32,80,-14,-51,-22,10
1491088240319,3,95,14,53,-69,-2,35,-6,-10
1491088240354,0,127,-16,-38,45,-61,-43,41,-4
1491088240354,0,98,4,-2,63,34,-28,10,2
1491088240355,1,69,-6,7,-88,-7,127,-6,-12
1491088240355,1,56,9,-3,69,-27,-113,10,8
1491088240355,2,4,-21,62,79,90,127,59,-25
1491088240355,2,31,39,63,113,65,-3,-111,12
1491088240356,3,-42,-56,-90,-76,-95,-29,3,-7
1491088240356,3,-28,-19,-14,-41,38,26,-36,-13
1491088240391,0,2,8,20,-18,-1,80,14,18
1491088240391,0,-8,10,33,65,84,96,64,-21
1491088240392,1,4,42,103,-5,0,12,-23,2
1491088240392,1,-21,-34,-89,-8,-16,67,-29,-16
1491088240393,2,6,-11,-17,-32,-10,-7,-6,3
1491088240393,2,-18,-10,-16,-17,-20,106,-30,-27
1491088240394,3,10,15,-10,-96,-38,-30,-47,-6
1491088240394,3,-12,4,-7,78,-21,-126,57,35
1491088240429,0,-17,2,33,-61,31,85,5,-6
1491088240429,0,-29,-21,-48,109,-7,-128,28,34
1491088240430,1,-59,-4,-5,65,93,106,6,-27
1491088240430,1,-119,23,80,127,79,117,23,1
1491088240430,2,-84,-32,-80,-114,-51,-126,-41,2
1491088240430,2,-9,5,-4,-12,-11,-82,9,1
1491088240466,3,45,2,39,-72,-1,122,25,-7
1491088240466,3,83,-14,-75,93,-40,-67,-69,4
1491088240468,0,70,-9,17,-32,-31,94,-1,8
1491088240468,0,49,-10,-21,-67,-20,-120,14,1
1491088240469,1,50,-6,61,93,91,88,-37,-17
1491088240469,1,48,40,53,65,-56,4,49,-17
1491088240470,2,34,21,68,-48,-55,-128,-73,16
1491088240470,2,28,-23,-72,127,-86,31,-45,-12
1491088240504,3,20,6,10,38,40,102,26,-25
1491088240504,3,20,-20,-68,-128,-20,25,-79,10
1491088240505,0,23,10,2,49,44,-104,-6,4
1491088240505,0,13,24,60,-121,95,104,81,28
1491088240505,1,2,-37,-58,109,-86,-72,-36,-6
1491088240505,1,9,-3,5,49,79,67,27,-27
1491088240506,2,12,-10,-53,-33,-77,33,-59,1
1491088240506,2,0,-31,-26,-91,5,98,-23,-20
1491088240541,3,-5,0,-15,-19,-27,13,48,-1
1491088240541,3,6,7,25,-55,6,15,-44,-5
1491088240542,0,6,33,80,88,74,102,31,3
1491088240542,0,-3,-15,-51,-46,-87,-128,96,-13
1491088240543,1,-1,15,86,38,92,95,-22,18
1491088240543,1,5,-21,-88,-111,-62,-58,20,-2
1491088240616,2,1,-14,-80,-1,7,32,-57,6
1491088240616,2,-2,-16,8,23,17,125,8,-12
1491088240617,3,-1,10,-45,-23,13,-30,-3,5
1491088240617,3,1,9,84,73,107,83,35,14
1491088240618,0,-1,3,24,92,53,-7,44,-2
1491088240618,0,-1,-5,20,35,9,-29,-14,-13
1491088240619,1,-1,3,-20,-96,-102,-128,-15,-11
1491088240619,1,0,-12,-12,-44,-51,-5,-4,25
1491088240654,2,1,-11,-2,-111,-33,8,22,-9
1491088240654,2,0,-5,33,109,72,-1,-22,-13
1491088240655,3,-2,1,38,48,-14,56,2,-17
1491088240655,3,0,-22,-69,-115,-92,-109,6,6
1491088240655,0,1,-23,-51,-43,-23,3,-10,-19
1491088240655,0,-2,-5,27,-17,15,-31,1,7
1491088240656,2,0,30,57,75,60,126,47,-4
1491088240656,2,-2,21,-5,12,-35,24,-12,10
1491088240691,3,-1,-10,6,-26,11,6,17,23
1491088240691,3,0,25,43,-8,17,-53,25,-4
1491088240692,0,0,18,33,48,-13,-42,4,9
1491088240692,0,-1,-11,-41,-52,-21,61,-17,2
1491088240693,2,-1,19,-19,-3,20,-90,8,4
1491088240693,2,-1,13,43,93,42,44,-57,1
1491088240729,3,-1,-12,-95,-98,-32,7,22,18
1491088240729,3,-1,-5,-48,-29,-45,-54,-53,-17
1491088240730,0,0,-1,-6,37,67,14,27,11
1491088240730,0,-1,14,35,12,19,-19,4,-8
1491088240731,1,-1,5,-11,61,-29,-43,-17,6
1491088240731,1,-1,-6,3,17,4,60,-4,-18
1491088240732,2,-1,13,13,-72,55,15,4,4
1491088240732,2,-1,-10,-2,71,-14,-34,-18,-3
1491088240767,3,-1,10,-19,-46,-74,-3,-40,9
1491088240767,3,-1,-10,-3,-5,32,117,65,10
1491088240768,0,-1,6,3,-36,-32,-58,-9,-17
1491088240768,0,-1,4,7,-2,41,61,11,12
1491088240769,1,-1,11,-39,-9,30,-1,7,-25
1491088240769,1,0,1,23,49,45,-75,6,-12
1491088240770,2,-1,-5,-35,-34,-73,-63,9,-4
1491088240770,2,-1,18,18,20,45,82,52,-12
1491088240805,3,-1,9,-54,12,-112,-122,-35,42
1491088240805,3,35,-12,-41,-33,62,25,-44,-21
1491088240807,0,80,0,-18,56,47,65,5,-3
1491088240807,0,48,-9,-32,-11,22,-12,-4,2
1491088240808,1,45,19,72,58,43,36,15,-10
1491088240808,1,23,-6,-24,-66,-27,5,23,1
1491088240809,2,66,3,-1,40,-64,-44,-24,9
1491088240809,2,127,-17,11,17,-72,-16,-19,-19
1491088240842,3,-81,5,77,-13,54,-21,-3,21
1491088240842,3,-103,-8,68,33,9,37,17,-10
1491088240916,0,-67,15,18,-54,-45,-52,-40,-3
1491088240916,0,66,5,26,-6,14,-127,9,10
1491088240917,1,-64,-13,17,3,-15,127,-36,-18
1491088240917,1,-85,-5,-5,17,-8,10,17,31
1491088240918,2,-128,1,-6,25,46,99,-15,30
1491088240918,2,59,7,-5,-13,12,-97,24,-8
1491088240919,3,127,-16,-30,-12,-41,13,1,-8
1491088240919,3,-16,11,36,15,71,33,49,9
1491088240954,0,-52,-28,-36,-43,-49,63,-34,-16
1491088240954,0,-46,-9,-72,-83,-13,33,-14,10
1491088240955,1,-7,-1,25,74,55,9,8,-2
1491088240955,1,43,-34,-4,14,-30,-34,-23,-35
1491088240956,2,-4,25,35,50,28,90,40,33
1491088240956,2,-128,-15,-17,16,-35,-22,-32,-12
1491088240957,0,0,8,0,2,-35,-3,-14,-18
1491088240957,0,-26,-10,44,37,127,127,35,0
1491088240991,1,-30,-10,-54,17,-73,-128,13,13
1491088240991,1,-2,-26,-69,-69,-60,-27,-36,0
1491088240992,2,13,-22,4,36,25,-15,1,-1
1491088240992,2,-26,8,26,-71,-6,59,38,10
1491088240993,0,10,-4,-63,-100,-56,-123,-33,17
1491088240993,0,-20,1,42,33,63,78,-19,41
1491088240994,1,-5,-12,-79,-62,-95,6,-28,-61
1491088240994,1,7,9,5,57,20,-20,-4,-10
1491088241029,2,-2,11,16,-28,6,42,62,3
1491088241029,2,-121,-1,-36,-23,-44,-100,-26,-23
1491088241030,3,-119,15,8,-44,23,80,-5,-9
1491088241030,3,-128,-11,-14,-69,26,36,-24,-8
1491088241030,0,91,-2,31,-14,5,-62,46,-14
1491088241030,0,68,-17,-5,73,0,-10,-48,-1
1491088241032,1,-70,-10,0,-103,-34,73,34,7
1491088241032,1,-125,36,118,114,84,-45,21,25
1491088241066,2,41,12,-82,-97,-47,-59,82,31
1491088241066,2,-96,-18,-42,19,-24,23,-43,-32
1491088241067,3,70,-3,21,5,-31,48,-12,-17
1491088241067,3,-82,-9,-60,-93,-3,-68,35,18
1491088241068,0,57,9,71,109,39,-21,-36,-16
1491088241068,0,127,24,46,13,-27,39,5,-5
1491088241069,1,-100,-33,-75,8,53,30,-53,-29
1491088241069,1,-53,-3,12,-64,-37,106,47,23
1491088241104,2,-128,20,37,41,51,-32,-77,3
1491088241104,2,-128,-8,-20,-63,-26,-18,-4,-20
1491088241104,3,-108,14,32,69,25,28,8,4
1491088241104,3,127,-8,-32,-45,5,-5,55,15
1491088241105,0,38,-29,8,91,-7,108,-61,-24
1491088241105,0,127,-9,17,-64,-27,126,1,-10
1491088241106,1,127,6,2,75,15,-99,52,30
1491088241106,1,127,-10,-23,24,9,50,-54,-14
1491088241141,2,51,-20,-21,-44,-22,2,-22,-1
1491088241141,2,17,-7,30,93,44,19,72,18
1491088241142,3,56,25,41,-108,-13,-122,8,-3
1491088241142,3,-52,-6,-50,-79,-29,79,-51,15
1491088241143,0,-88,-18,-21,-38,-12,31,-12,-18
1491088241143,0,-54,12,-6,-14,-34,8,35,48
1491088241144,1,-62,2,2,22,44,29,-8,4
1491088241144,1,-60,-11,38,127,-14,-97,-7,-4
1491088241179,2,-78,6,-15,-109,15,127,-58,-6
1491088241179,2,-82,-17,-74,-68,-12,-22,-4,8
1491088241180,3,-14,10,40,53,-3,32,-38,1
1491088241180,3,-34,9,35,-68,-1,-39,-3,-13
1491088241180,0,-55,-3,-1,60,11,-34,63,21
1491088241180,0,-35,-5,-18,-59,-27,-128,-15,-12
1491088241181,1,-37,2,11,19,6,-26,-46,-17
1491088241181,1,-35,-18,-29,-25,7,60,-4,-31
1491088241216,2,-31,19,-9,-4,41,-40,-49,28
1491088241216,2,3,1,14,48,-17,-54,41,-7
1491088241217,3,-28,-20,-27,-128,-37,117,-22,-20
1491088241217,3,4,-4,1,127,12,-14,73,-12
1491088241218,0,-13,13,50,-4,-18,-41,-21,-1
1491088241218,0,-12,12,-14,103,23,-31,-12,19
1491088241220,1,-17,-29,-53,0,-57,-54,-20,0
1491088241220,1,1,23,72,4,27,40,47,-7
1491088241254,2,7,-5,-10,-14,-17,3,66,-30
1491088241254,2,-10,-16,-58,-20,-1,73,-108,-14
1491088241255,3,-20,-16,-16,-57,-23,79,13,29
1491088241255,3,19,19,-10,-11,25,4,-17,35
1491088241255,0,15,10,64,46,49,93,83,-34
1491088241255,0,1,20,31,-17,-13,-4,-37,4
1491088241256,1,-18,-24,-41,-67,-38,39,-34,-35
1491088241256,1,21,10,0,-5,-47,-20,-30,-25
1491088241291,2,18,10,20,122,53,78,62,28
1491088241291,2,-15,-5,12,-81,35,12,39,11
1491088241292,3,58,-4,45,74,0,-60,-43,28
1491088241292,3,-5,-10,-74,-93,-24,-88,58,-2
1491088241293,0,-40,-9,-33,-19,-14,47,3,11
1491088241293,0,-109,4,16,74,17,68,0,-38
1491088241294,1,-98,8,6,16,51,88,13,-5
1491088241294,1,-121,-1,32,-12,-27,79,-87,-27
1491088241329,2,-54,3,22,108,36,-128,94,50
1491088241329,2,-17,-2,-1,-72,-26,127,-34,-28
1491088241330,3,61,56,57,-5,-6,-102,102,63
1491088241330,3,115,-17,-63,47,47,-19,-21,-37
1491088241331,0,93,-11,-6,23,-29,3,-86,14
1491088241331,0,127,4,29,7,-34,-68,25,-4
1491088241366,1,28,1,13,14,-12,-128,33,-14
1491088241366,1,21,-3,34,22,-13,118,-43,6
1491088241367,2,-128,4,-65,-128,-33,-41,-39,3
1491088241367,2,-123,-9,-2,62,49,0,40,12
1491088241368,3,-78,-24,-60,-35,-35,35,60,-8
1491088241368,3,-1,18,77,32,-48,-1,9,30
1491088241369,0,51,-6,-36,-71,21,0,-55,-62
1491088241369,0,90,-20,-21,-89,-27,29,18,51
1491088241404,1,95,7,-5,80,26,-26,-69,-24
1491088241404,1,57,0,1,-81,-29,78,70,29
1491088241405,2,57,22,44,127,33,-68,-2,-17
1491088241405,2,51,-5,-9,39,14,-64,-17,-6
1491088241406,3,62,-5,16,-29,35,124,59,-9
1491088241406,3,30,1,-28,-84,12,-54,-65,24
1491088241406,0,23,-16,20,-83,-109,22,6,-27
1491088241406,0,31,-8,-33,44,63,97,-64,-33
1491088241441,1,32,-2,4,26,10,85,69,2
1491088241441,1,10,-9,-43,-52,-77,-82,1,-1
1491088241443,2,5,-26,0,49,61,125,-36,-11
1491088241443,2,12,25,24,43,-27,-127,-13,14
1491088241443,3,17,20,44,57,23,28,33,-3
1491088241443,3,-6,-6,10,-107,-13,-27,-18,-30
1491088241444,0,0,-16,-38,76,-7,-40,-14,24
1491088241444,0,7,-18,-11,-7,-74,63,12,-32
1491088241479,1,8,0,-19,-30,57,58,-58,-2
1491088241479,1,-2,-11,-11,-46,-11,75,45,14
1491088241480,2,-1,45,61,71,46,-41,90,-9
1491088241480,2,4,-10,13,39,22,28,-93,-8
1491088241481,3,4,-31,-64,-98,-119,-8,-11,-25
1491088241481,3,-4,11,-18,9,42,64,16,-16
1491088241516,0,-2,-8,-4,-61,-14,67,-6,-5
1491088241516,0,-2,2,30,7,2,36,58,25
1491088241518,1,3,17,47,53,-2,-109,-128,11
1491088241518,1,43,6,-21,67,40,-108,60,-14
1491088241519,2,110,3,-13,42,47,80,-23,8
1491088241519,2,55,15,18,3,-29,-82,-6,-23
1491088241519,3,96,-20,-20,-81,-28,84,-11,27
1491088241519,3,5,7,30,123,38,-93,-12,5
1491088241554,0,61,-10,-19,-101,-42,-59,-6,32
1491088241554,0,-3,-4,-36,-12,21,70,37,13
1491088241555,1,-54,-4,-19,-44,-33,-70,14,20
1491088241555,1,-82,2,-23,-20,-18,85,-8,-11
1491088241555,2,-94,-7,27,10,5,-65,-19,13
1491088241555,2,-53,4,-7,-119,-52,67,104,27
1491088241557,3,10,8,23,112,84,-79,-38,-71
1491088241557,3,-89,-10,-2,-65,-41,-44,-37,23
1491088241591,0,-115,-14,-23,18,23,-92,-76,-34
1491088241591,0,-109,-14,-13,-27,0,6,22,21
1491088241592,1,-115,38,46,-26,-36,29,28,36
1491088241592,1,-46,0,-17,18,42,58,19,-54
1491088241593,2,-27,8,-21,-83,-72,-6,-35,3
1491088241593,2,25,-35,-44,-62,11,-41,-61,-29
1491088241629,3,41,5,-1,1,49,39,58,3
1491088241629,3,76,-6,44,80,26,41,-53,-18
1491088241631,0,35,15,7,-51,-25,19,122,2
1491088241631,0,47,2,6,9,13,89,-23,-9
1491088241634,1,42,-20,-21,34,-15,-54,-17,-4
1491088241634,1,34,8,35,48,19,-18,42,-35
1491088241635,2,6,-23,-26,-61,16,66,-34,59
1491088241635,2,28,20,37,65,-32,-128,-15,-48
1491088241666,3,5,11,-13,-67,84,127,-5,47
1491088241666,3,112,-26,-68,42,-67,-106,-35,-17
1491088241667,0,124,-54,-40,-66,-86,29,10,-34
1491088241667,0,127,43,107,85,17,23,-47,-12
1491088241668,1,126,-28,-79,48,55,-54,38,6
1491088241668,1,124,-16,-8,-16,-20,63,-28,9
1491088241669,2,127,35,21,62,-15,12,-46,8
1491088241669,2,127,27,21,44,55,25,32,52
1491088241704,3,121,34,48,33,25,-100,43,-29
1491088241704,3,71,-9,27,-105,-60,120,-16,20
1491088241741,0,-5,-28,-81,127,-23,-44,5,11
1491088241741,0,-46,-22,-2,18,12,38,-21,-17
1491088241742,1,-116,12,34,-101,-85,102,60,32
1491088241742,1,-122,3,-4,99,71,-94,-68,-20
1491088241743,2,-128,-8,-6,-115,41,127,-74,30
1491088241743,2,-128,-19,-19,39,-67,-63,99,12
1491088241744,3,-117,12,-8,-67,-51,67,-72,-25
1491088241744,3,-120,22,-22,-128,-28,-99,35,35
1491088241779,0,-128,-37,34,104,107,79,0,-50
1491088241779,0,-64,-11,-34,40,-9,62,-23,-57
1491088241780,1,-57,5,-35,-22,32,42,-83,47
1491088241780,1,-69,-6,31,105,65,29,48,32
1491088241780,2,-55,24,-2,1,-11,-19,-1,-3
1491088241780,2,-56,-37,-32,-24,-72,-15,6,3
1491088241782,3,-45,-27,9,-35,-9,84,66,-41
1491088241782,3,-51,22,19,1,28,-66,-118,28
1491088241816,0,-57,-17,23,40,14,113,24,-39
1491088241816,0,-40,46,-16,-124,-25,76,55,10
1491088241817,1,-94,-37,-14,92,-72,-128,-6,-29
1491088241817,1,-94,8,-38,-27,26,-64,-43,68
1491088241818,2,-113,-3,11,-59,-78,48,65,34
1491088241818,2,-128,4,-28,63,116,-49,-59,-21
1491088241854,3,-128,-32,-5,-16,-9,0,-21,-18
1491088241854,3,-120,-13,-20,-70,-75,-16,-37,-32
1491088241855,0,-106,30,21,-92,-22,11,1,5
1491088241855,0,-56,-14,38,-54,1,90,19,13
1491088241856,1,86,27,59,118,38,-69,41,34
1491088241856,1,122,-17,-40,0,40,127,42,-38
1491088241857,2,127,0,-61,-100,-67,-48,-126,-59
1491088241857,2,127,-24,-29,-106,-40,3,92,49
1491088241891,3,119,12,71,123,48,10,-34,-25
1491088241891,3,122,2,13,9,-1,-104,3,7
1491088241892,0,115,24,37,0,14,101,49,-6
1491088241892,0,93,23,7,-40,73,-1,86,6
1491088241893,2,59,12,-7,42,26,-128,-33,9
1491088241893,2,41,-21,1,-78,-50,43,-4,-32
1491088241894,3,33,61,77,-99,-42,127,4,17
1491088241894,3,21,-18,-96,113,19,-53,-20,-13
1491088241929,0,23,-30,-3,68,-9,-54,54,6
1491088241929,0,17,14,-10,9,-17,-6,-51,-2
1491088241930,1,7,-14,30,-33,-65,-7,-3,4
1491088241930,1,6,34,30,-111,22,90,44,-6
1491088241930,2,12,9,41,58,53,-128,7,17
1491088241930,2,9,-18,-71,-52,-17,3,-43,-6
1491088241931,3,3,-12,-32,93,30,62,107,-15
1491088241931,3,0,-12,51,-96,-102,20,-17,-2
1491088241967,0,7,8,-23,-95,-20,-28,-32,-19
1491088241967,0,2,6,51,61,65,3,-4,-9
1491088241976,1,-1,-20,-52,-44,16,-18,8,45
1491088241976,1,0,0,18,42,-8,20,17,9
1491088241976,2,33,43,97,-58,-49,105,16,-10
1491088241976,2,15,-30,-58,43,71,-117,-16,-31
1491088241977,3,8,-26,-101,-69,-39,0,8,-28
1491088241977,3,42,1,31,53,10,-125,-61,32
1491088242004,0,49,23,45,-12,77,127,74,-7
1491088242004,0,66,12,20,-7,-10,-128,-15,-1
1491088242005,1,-1,-52,-73,47,9,-90,8,-6
1491088242005,1,64,42,84,75,91,-35,-80,40
1491088242005,2,7,-49,-128,-56,-97,-6,-2,-6
1491088242005,2,1,1,-3,-54,-104,-23,-9,-46
1491088242006,3,-4,3,-3,-51,31,-34,4,2
1491088242006,3,17,6,45,-3,5,56,-10,-44
1491088242041,0,18,27,91,71,99,5,-7,-30
1491088242041,0,18,-11,-18,26,-28,61,11,41
1491088242042,1,48,17,37,-51,16,-7,-36,25
1491088242042,1,26,-21,-16,37,-28,52,33,-6
1491088242042,2,122,2,-47,-50,-116,-128,19,23
1491088242042,2,111,-10,-9,-85,-89,79,-15,-2
1491088242044,3,127,-30,-27,117,81,-53,-29,-16
1491088242044,3,127,1,7,50,-43,88,25,-4
1491088242079,0,78,29,13,-64,-72,-88,15,43
1491088242079,0,-96,-41,-65,127,61,-111,-21,-16
1491088242080,1,-101,26,41,-98,-45,47,-49,13
1491088242080,1,-128,-6,-20,-68,-13,-29,40,-26
1491088242080,2,-128,-9,22,29,83,10,-53,0
1491088242080,2,-105,36,105,46,-5,72,-2,3
1491088242081,3,-100,9,-10,-61,-8,65,19,-4
1491088242081,3,-110,-27,-62,43,16,-89,-32,4
1491088242116,0,-97,5,-20,19,26,113,66,43
1491088242116,0,-8,-24,-35,46,-20,-51,-48,4
1491088242118,1,103,36,100,127,61,75,38,-11
1491088242118,1,127,10,-82,-105,-120,-65,-37,24
1491088242119,2,127,10,72,-45,-78,109,6,1
1491088242119,2,127,17,-58,23,110,0,64,39
1491088242119,3,118,-70,-86,-35,-100,-83,-7,10
1491088242119,3,118,12,56,-70,6,37,39,-22
1491088242154,0,59,-3,-21,-75,11,2,30,9
1491088242154,0,-49,-6,14,-48,45,-24,3,-23
1491088242155,1,-114,34,52,5,53,41,75,22
1491088242155,1,-128,-8,-23,10,52,24,-56,10
1491088242155,2,-128,-9,31,127,-2,-2,-1,-18
1491088242155,2,44,15,8,-65,-52,-11,36,17
1491088242156,3,110,39,81,-45,19,-91,-110,3
1491088242156,3,38,-88,-118,-120,-125,-40,73,-8
1491088242191,0,46,-42,-20,11,2,73,-94,-11
1491088242191,0,39,45,103,-44,17,87,66,11
1491088242192,1,4,-5,15,119,73,-127,-9,-30
1491088242192,1,29,42,17,-60,11,82,1,17
1491088242193,2,-28,18,-13,30,92,0,-69,-51
1491088242193,2,-60,-71,-109,-44,-41,-101,-31,-28
1491088242229,3,-79,4,-23,-128,-18,55,57,-8
1491088242229,3,-127,77,127,126,127,95,120,0
1491088242230,0,-128,-63,-128,-119,-30,-128,-81,-23
1491088242230,0,-78,-17,20,19,9,-6,8,27
1491088242231,1,17,23,81,91,76,120,109,8
1491088242231,1,61,-5,-55,-90,-37,-119,-35,-18
1491088242232,2,107,72,127,65,16,-36,97,89
1491088242232,2,12,5,-10,-80,-67,103,-3,-54
1491088242266,3,-58,-49,-118,7,-28,-109,-128,13
1491088242266,3,-38,-14,-33,83,40,102,127,-16
1491088242267,0,-10,-33,-84,-47,40,20,22,-31
1491088242267,0,-11,44,34,-60,7,5,-45,-44
1491088242268,1,-39,6,0,-48,-81,49,45,-60
1491088242268,1,-8,9,113,20,29,66,-55,-50
1491088242269,2,-23,30,107,117,112,54,12,-11
1491088242269,2,-36,-31,-79,53,-75,-75,-72,-11
1491088242304,3,-50,-38,-69,-128,-86,-30,4,4
1491088242304,3,-33,-5,12,86,56,-22,0,16
1491088242304,0,3,-1,-15,-23,-120,-7,-54,17
1491088242304,0,-24,6,41,81,43,26,28,55
1491088242305,1,-115,8,-7,-54,49,127,-10,26
1491088242305,1,-128,-17,-47,-11,-20,-72,60,19
1491088242306,2,-128,-2,43,2,90,125,-13,-18
1491088242306,2,-119,30,-12,30,19,-88,9,5
1491088242341,3,29,-16,-34,-39,-98,-77,-54,20
1491088242341,3,97,-53,-74,-114,-84,-26,4,11
1491088242342,0,125,-35,-93,-17,-45,11,52,21
1491088242342,0,127,11,24,18,27,28,68,34
1491088242343,1,121,58,127,92,127,127,37,-17
1491088242343,1,120,14,-84,94,-40,-83,-112,-6
1491088242379,2,102,-29,-14,39,-44,0,-4,-6
1491088242379,2,127,15,108,52,118,121,7,-15
1491088242380,3,103,-52,-94,58,-119,-30,32,6
1491088242380,3,-92,-17,-14,-12,16,-66,-48,3
1491088242380,0,-93,11,61,-113,-21,56,101,-5
1491088242380,0,-42,-21,-74,5,-43,-21,-19,-10
1491088242381,1,29,18,5,-15,127,16,-57,-7
1491088242381,1,127,47,83,-75,15,110,-90,-18
1491088242416,2,-109,-69,-128,-91,-77,-128,-3,-3
1491088242416,2,-32,-12,91,-87,18,87,60,12
1491088242417,3,-33,4,2,7,10,74,-40,10
1491088242417,3,1,-8,-10,107,60,-2,10,-10
1491088242418,0,55,26,57,55,127,120,48,-13
1491088242418,0,36,-14,31,-25,-43,-105,-42,12
1491088242419,1,0,-51,-45,87,33,-12,62,-18
1491088242419,1,0,-9,-60,-91,-81,-36,-42,-6
1491088242454,2,51,8,-13,-7,88,13,-5,-9
1491088242454,2,9,-1,25,5,52,-44,-2,-8
1491088242455,3,7,22,11,-62,-6,-45,-62,-29
1491088242455,3,1,18,72,75,121,53,77,2
1491088242456,0,17,-14,-25,20,-64,-36,-16,1
1491088242456,0,14,-17,-86,-91,-31,-57,-36,-10
1491088242491,1,-4,23,61,43,-31,11,52,48
1491088242491,1,-8,-12,39,-55,57,102,16,-4
1491088242492,2,10,-7,-25,50,-75,-101,-30,-7
1491088242492,2,6,-3,16,16,-5,29,1,7
1491088242493,3,2,3,20,-11,-5,8,18,7
1491088242493,3,-14,1,22,-37,8,72,21,7
1491088242494,0,12,3,-57,-9,-18,-63,-40,-24
1491088242494,0,6,8,19,-23,-20,-26,-17,-7
1491088242529,1,-7,-12,-95,-99,-54,-39,-11,27
1491088242529,1,-5,6,46,23,35,50,95,-11
1491088242530,2,6,26,43,69,61,32,-50,-27
1491088242530,2,2,21,-10,13,-23,-65,-9,7
1491088242530,3,-6,32,36,28,-11,23,21,-1
1491088242530,3,-5,15,10,35,-31,14,9,-1
1491088242531,0,7,15,19,12,34,-14,-5,-11
1491088242531,0,-2,-13,-49,63,-30,38,32,9
1491088242566,1,-2,14,-27,-90,-57,-85,-55,-16
1491088242566,1,-2,-8,-18,-40,-44,-25,43,2
1491088242567,2,2,2,-12,-40,-38,5,-2,-8
1491088242567,2,1,18,31,33,73,42,-2,2
1491088242568,3,-2,-4,8,47,-6,19,24,-10
1491088242568,3,-3,2,7,-10,-99,-66,-44,0
1491088242569,0,1,4,27,-19,53,-48,-37,-14
1491088242569,0,0,-16,-58,-34,-71,12,26,17
1491088242604,1,-2,-15,-34,-47,6,-21,-26,-14
1491088242604,1,-4,22,-22,14,-44,-11,-3,22
1491088242605,2,2,10,51,20,15,2,-2,7
1491088242605,2,0,17,18,11,19,48,14,-31
1491088242606,3,-2,8,22,28,-11,10,40,66
1491088242606,3,-2,-16,-1,-22,54,14,-16,5
1491088242641,0,0,-11,-20,-38,-102,-21,23,15
1491088242641,0,0,0,-5,47,49,24,10,2
1491088242642,1,5,10,-10,-56,-61,-76,-37,-19
1491088242642,1,-7,-7,4,6,25,35,3,-8
1491088242643,2,-1,-5,-20,-13,-54,34,13,3
1491088242643,2,18,-12,39,28,76,78,-14,-19
1491088242644,3,-15,0,5,-17,-40,-14,-60,-23
1491088242644,3,97,-6,-39,3,-8,22,-1,2
1491088242679,0,76,-2,-32,-44,-16,23,51,-1
1491088242679,0,53,-17,8,-5,44,54,11,-8
1491088242680,1,104,23,37,0,96,45,28,-21
1491088242680,1,2,14,-24,9,-20,-47,-5,-16
1491088242680,2,62,0,-22,-51,57,0,-5,-5
1491088242680,2,97,-14,-60,-11,-101,-123,-38,20
1491088242681,3,101,4,-13,-14,42,22,34,-5
1491088242681,3,122,-13,-2,20,-1,-32,-23,-3
1491088242716,0,-93,-2,56,45,86,108,57,-2
1491088242716,0,-118,36,-2,11,-11,-101,-52,6
1491088242717,1,-127,0,11,17,25,65,62,-25
1491088242717,1,-57,-10,4,4,-55,41,-60,-9
1491088242718,2,116,-3,-25,38,-29,-44,9,2
1491088242718,2,127,-9,-21,-67,6,57,-4,-2
1491088242719,3,-8,-17,0,19,-4,-41,7,-7
1491088242719,3,-61,1,-4,-41,-18,-9,-5,-9
1491088242754,0,-40,6,70,-35,-34,-12,-15,-13
1491088242754,0,-22,-20,-98,47,-9,22,-14,-2
1491088242755,1,85,-9,7,23,37,56,39,-13
1491088242755,1,112,7,8,-116,-32,-1,-60,-10
1491088242756,2,40,-13,-18,55,-84,-94,-46,21
1491088242756,2,-56,1,54,-5,41,48,3,-14
1491088242791,3,-113,-5,-3,27,31,54,15,-16
1491088242791,3,-128,-25,-20,-61,-8,-95,12,12
1491088242792,0,-103,31,24,-7,77,127,50,11
1491088242792,0,-103,-5,34,58,-21,-26,-52,0
1491088242793,1,-95,-11,-65,-84,-53,-98,-48,0
1491088242793,1,-70,-29,-8,11,11,106,98,-7
1491088242794,2,-65,23,6,7,23,-108,-89,-4
1491088242794,2,-65,-9,-50,-110,-19,51,71,-2
1491088242829,3,-30,7,71,30,49,127,-23,-20
1491088242829,3,-41,1,-7,113,25,87,-2,-23
1491088242830,0,-44,-27,-39,1,-59,-104,-31,5
1491088242830,0,-25,18,59,-13,15,69,19,-6
1491088242830,1,-4,-12,-18,-55,-85,-38,-12,6
1491088242830,1,-21,-8,0,-21,24,66,-51,11
1491088242831,2,-21,-15,7,117,69,105,37,-25
1491088242831,2,2,13,16,-126,-3,-128,-25,16
1491088242866,3,2,-23,-80,-94,-47,51,-10,15
1491088242866,3,-15,12,20,69,-10,-26,51,36
1491088242873,0,-3,-8,-51,-111,-18,-24,52,34
1491088242873,0,-1,4,52,127,3,10,-15,12
1491088242873,1,-4,59,47,90,102,-67,-33,26
1491088242873,1,-7,-4,-9,-14,48,78,-61,-14
1491088242874,2,0,6,19,-11,-29,-8,39,8
1491088242874,2,-2,-48,-62,61,-112,-69,25,-1
1491088242904,3,-2,-17,35,-49,50,98,99,-36
1491088242904,3,0,1,-65,21,-40,-59,-88,-36
1491088242904,0,-1,-8,59,73,50,85,21,-44
1491088242904,0,-3,38,40,-86,10,15,-88,-68
1491088242906,1,2,-20,-45,-16,-116,21,-10,-77
1491088242906,1,-2,14,36,-26,25,-49,43,22
1491088242941,2,-4,2,-8,-26,-2,103,12,-22
1491088242941,2,-1,-3,32,75,54,17,8,14
1491088242942,3,2,-8,22,33,19,68,-28,17
1491088242942,3,-3,-3,-8,-16,-53,-90,7,-50
1491088242942,0,-3,-13,-60,-109,-7,22,-47,30
1491088242942,0,1,-28,-54,48,-50,-82,74,12
1491088242979,1,1,-3,-9,-1,14,81,-42,17
1491088242979,1,-3,-13,0,-86,-30,81,84,32
1491088242979,2,-1,13,29,120,40,-64,-9,-4
1491088242979,2,0,5,52,37,53,127,-22,27
1491088242980,3,-1,-9,-58,-43,-59,-128,-29,9
1491088242980,3,-2,-19,-12,-35,-12,47,15,23
1491088242981,0,-1,13,10,-42,-12,48,-17,6
1491088242981,0,-1,-19,-13,-22,12,123,-13,-4
1491088243016,1,-1,45,49,47,-14,-105,69,77
1491088243016,1,-1,9,16,-44,40,71,53,4
1491088243017,2,-1,-49,-106,-96,-79,-24,-74,-6
1491088243017,2,-2,0,-23,-45,-36,125,21,12
1491088243018,3,-20,-2,26,74,-7,26,26,5
1491088243018,3,-53,-3,6,66,36,-106,55,-14
1491088243019,0,-25,21,60,-47,0,100,-39,-6
1491088243019,0,-6,2,-47,27,90,-13,70,20
1491088243054,1,1,-5,23,67,-13,-55,-15,11
1491088243054,1,7,9,50,18,36,-42,-35,13
1491088243054,2,7,-18,-32,52,-21,-8,7,16
1491088243054,2,2,10,1,0,4,-9,-13,-21
1491088243055,3,4,-31,-12,22,33,-71,48,36
1491088243055,3,3,22,3,11,6,25,-61,16
1491088243129,0,-20,-20,-37,-52,2,52,11,-11
1491088243129,0,-28,-9,32,-75,-53,-55,32,5
1491088243129,1,-31,-2,-40,7,44,-91,-20,-12
1491088243129,1,-53,-20,-18,16,-35,60,-29,15
1491088243130,2,-28,21,109,58,37,90,-19,-6
1491088243130,2,-14,3,-102,2,0,-83,80,24
1491088243131,3,61,-11,-13,79,12,127,-21,36
1491088243131,3,4,3,-4,-55,-21,-1,8,-1
1491088243166,0,24,10,25,71,38,-15,48,23
1491088243166,0,-8,32,38,-21,-2,-59,-52,1
1491088243167,1,20,-16,-7,-93,5,21,-10,-10
1491088243167,1,0,-2,10,104,16,36,-56,52
1491088243168,1,-38,5,54,96,23,56,-25,-12
1491088243168,1,12,-18,-21,-19,-22,-78,117,-30
1491088243169,2,-10,18,69,-5,55,32,-28,-25
1491088243169,2,7,-6,-60,16,-15,-51,-47,-40
1491088243204,3,18,-5,-4,-27,1,29,31,-6
1491088243204,3,-20,-16,20,27,-50,-9,19,-14
1491088243204,0,4,10,-50,-62,-59,-128,-64,32
1491088243204,0,-10,11,52,-23,47,127,40,26
1491088243205,1,-31,-1,-8,-128,-77,80,-1,-20
1491088243205,1,17,0,-21,127,115,-78,-84,8
1491088243206,2,-12,0,7,44,-34,-30,46,34
1491088243206,2,42,3,25,-42,3,-15,-31,32
1491088243241,3,-2,-4,-15,24,21,-27,83,44
1491088243241,3,41,6,-5,-125,-22,127,9,27
1491088243242,0,-8,2,9,74,69,78,3,27
1491088243242,0,-23,-13,-22,-31,14,93,66,-41
1491088243242,1,-50,3,14,78,-22,-101,-44,-22
1491088243242,1,14,-4,-15,-54,-31,22,-81,-35
1491088243244,2,12,-12,-56,-84,-5,-126,123,25
1491088243244,2,-12,-21,-39,38,-60,-54,-91,-34
1491088243279,3,28,-5,10,14,52,35,31,15
1491088243279,3,-20,32,28,53,-11,4,14,-8
1491088243280,0,4,-12,12,-43,-41,-16,91,-32
1491088243280,0,3,6,45,52,51,-39,-92,-13
1491088243280,1,20,17,3,-110,-21,65,-1,-62
1491088243280,1,16,-10,2,116,24,-18,16,31
1491088243281,2,-2,-23,-50,-3,-4,-13,52,-51
1491088243281,2,-5,0,3,-32,-43,-35,-70,-49
1491088243316,3,6,-11,-4,50,7,-64,65,10
1491088243316,3,24,18,34,-89,-10,127,-1,-13
1491088243317,0,4,-11,-58,-80,-28,9,12,25
1491088243317,0,-1,-7,2,61,-17,-1,32,-23
1491088243318,1,55,18,34,112,50,-96,-47,12
1491088243318,1,-40,-11,-22,-25,-28,-14,-59,-62
1491088243319,2,6,-7,24,65,-26,-40,-10,7
1491088243319,2,0,-1,-4,-55,-22,-10,25,-2
1491088243354,3,-4,13,4,-53,-7,92,-27,-19
1491088243354,3,1,-20,-11,9,-23,-43,-20,-35
1491088243355,0,10,4,-6,-12,20,72,-61,20
1491088243355,0,10,-10,-4,55,24,-106,61,-2
1491088243391,1,2,3,-15,-47,-6,39,42,33
1491088243391,1,-25,-2,-7,-117,-40,47,-23,4
1491088243392,2,-2,-20,-43,127,75,-45,-51,-22
1491088243392,2,12,-16,2,-21,-18,95,-2,-18
1491088243393,3,-45,28,40,-12,33,34,5,-33
1491088243393,3,7,-13,3,3,-45,-22,-19,0
1491088243394,0,16,11,8,-46,-17,-36,-30,1
1491088243394,0,11,-3,11,8,-9,1,91,-20
1491088243429,1,9,-1,6,37,18,-77,-91,12
1491088243429,1,7,22,24,-11,-9,31,-11,3
1491088243430,2,-7,-34,-58,-59,-47,28,-5,-18
1491088243430,2,-32,1,23,70,28,23,60,-15
1491088243430,3,10,23,0,-71,-13,-117,-19,-24
1491088243430,3,-17,-22,-17,22,49,-89,21,-10
1491088243431,0,-13,8,-20,-14,16,62,19,5
1491088243431,0,-5,-2,-6,-64,-54,100,-44,-10
1491088243466,1,16,-4,-4,1,0,-29,68,-2
1491088243466,1,24,33,21,75,29,-46,72,35
1491088243468,2,-38,-12,20,-21,55,-34,-48,-43
1491088243468,2,3,17,-2,-128,-67,-29,34,-3
1491088243468,3,-38,-31,16,127,53,46,-49,-60
1491088243468,3,58,12,23,49,36,75,1,-7
1491088243469,0,7,12,-1,-39,-38,-41,-1,-39
1491088243469,0,-7,-7,-22,-61,-20,-88,-98,47
1491088243504,1,3,-20,-40,-43,-3,23,-99,-38
1491088243504,1,-30,-11,-43,-65,-26,36,126,18
1491088243505,2,30,12,47,72,33,4,-128,4
1491088243505,2,-13,16,45,28,19,-91,-16,15
1491088243505,3,22,-9,-36,-41,-88,-78,107,25
1491088243505,3,-29,-21,13,27,82,113,-128,-12
1491088243506,0,1,0,-17,-1,6,81,126,25
1491088243506,0,3,-10,-31,24,-16,40,-17,-24
1491088243541,1,28,0,-10,-1,-24,60,15,32
1491088243541,1,-30,-2,14,-7,-4,-94,-34,4
1491088243542,2,17,28,23,-41,-13,55,2,-1
1491088243542,2,27,17,48,85,34,49,15,-6
1491088243542,3,-31,-12,-14,64,38,-45,10,-17
1491088243542,3,-25,-17,-35,-46,-75,13,-8,8
1491088243544,0,15,-15,-32,-23,-34,-4,-42,-4
1491088243544,0,-18,18,22,0,27,17,-40,-2
1491088243579,1,-6,11,48,59,5,72,18,-7
1491088243579,1,-23,-15,-38,-34,-27,31,56,-54
1491088243580,2,43,6,31,124,64,-93,4,65
1491088243580,2,-17,-22,-38,-105,-39,51,3,-21
1491088243581,3,27,-1,-13,-51,-40,-54,-77,-47
1491088243581,3,22,27,30,6,34,50,-64,-28
1491088243581,0,-45,0,22,-77,-30,-27,73,-36
1491088243581,0,52,1,-16,127,58,85,51,30
1491088243616,1,-67,-10,-23,-18,-14,21,-92,14
1491088243616,1,83,4,-14,-64,-29,-26,33,27
1491088243617,2,-30,15,63,90,39,-33,-21,23
1491088243617,2,-11,-18,0,-32,22,-104,43,-6
1491088243618,3,31,18,-27,-69,-18,87,82,112
1491088243618,3,-33,-18,-16,36,-34,-85,11,-25
1491088243619,0,23,9,20,27,-15,68,-26,24
1491088243619,0,-8,-22,-5,-4,-3,-101,81,27
1491088243654,1,-18,14,55,84,47,44,-67,-26
1491088243654,1,29,-8,-41,-95,-17,-45,39,19
1491088243691,2,-43,-25,-41,-70,-63,-11,25,-30
1491088243691,2,6,-7,1,65,73,3,-58,-13
1491088243692,3,6,13,6,-26,-16,-96,-21,3
1491088243692,3,-15,12,42,99,61,41,-9,-22
1491088243693,0,23,-8,-27,-30,-3,51,-13,-12
1491088243693,0,7,11,-6,-109,-93,-5,-31,24
1491088243694,1,3,0,32,85,84,60,34,17
1491088243694,1,3,-9,-39,-31,-21,-88,-56,-5
1491088243729,2,-18,5,-4,-35,15,56,-37,-9
1491088243729,2,25,11,-1,-37,-33,35,57,2
1491088243730,3,-15,-6,-14,-46,61,-15,-77,-29
1491088243730,3,-3,1,21,13,-28,19,46,31
1491088243731,0,-3,-10,28,7,-25,-85,-22,-39
1491088243731,0,-25,-15,-60,-23,-39,89,-99,-39
1491088243732,1,-14,-19,-21,-25,32,127,106,49
1491088243732,1,13,-8,-4,-60,-32,14,39,-36
1491088243766,2,6,24,50,102,94,-40,-58,24
1491088243766,2,-59,-2,35,-22,-4,38,-41,26
1491088243767,3,77,-20,-53,-20,-31,-112,-25,-29
1491088243767,3,-36,2,14,21,-33,-61,26,-5
1491088243767,1,-52,-31,-17,78,-10,1,-5,38
1491088243767,1,-4,0,11,34,11,-16,-1,-31
