1491089933716,0,-21,-61,-71,-77,-47,7,-22,-13
1491089933716,0,16,14,33,35,29,-94,-78,57
1491089933718,1,-13,3,10,-4,-4,33,26,-25
1491089933718,1,3,7,8,18,-11,42,-14,-31
1491089933718,2,-23,18,14,14,45,-44,41,12
1491089933718,2,3,2,1,27,18,93,-4,-33
1491089933814,3,-6,-8,-30,-18,-44,-19,28,-36
1491089933814,3,-9,-14,-17,-5,-2,-50,9,29
1491089933815,0,-6,-4,-7,-5,-37,43,6,-17
1491089933815,0,-14,-14,-9,6,20,-16,-21,-9
1491089933816,1,-4,-6,-6,5,47,38,-5,-6
1491089933816,1,0,-15,-12,-18,-44,-71,-3,4
1491089933817,2,15,16,27,38,28,8,11,-3
1491089933817,2,7,14,-5,-108,-12,-2,-28,11
1491089933863,3,-2,3,-4,81,21,-23,36,35
1491089933863,3,-14,-10,-10,-11,1,60,9,-7
1491089933865,0,19,-1,16,15,14,-34,-10,50
1491089933865,0,-3,-5,1,-2,-33,61,4,12
1491089933866,2,7,-8,-21,-45,16,50,-50,0
1491089933866,2,-3,-1,1,31,-8,28,-6,-30
1491089933911,3,-2,6,-26,-56,-44,22,-68,-6
1491089933911,3,-10,11,32,38,37,-43,-5,-2
1491089933912,0,8,2,-12,-54,-31,-3,39,-21
1491089933912,0,-14,1,8,47,18,-21,39,5
1491089933913,1,-4,-14,0,-6,-13,66,-10,16
1491089933913,1,0,-8,-11,-29,-14,-32,-25,-12
1491089933915,3,4,9,7,23,38,66,8,3
1491089933915,3,-4,3,13,22,60,1,-15,10
1491089933960,0,16,6,-18,-8,-41,-55,-6,12
1491089933960,0,4,-14,-18,-41,-49,55,30,-13
1491089933962,1,-8,-12,-5,43,43,-46,-33,-19
1491089933962,1,-2,5,-1,-23,10,75,7,14
1491089933963,0,-5,-16,5,38,28,25,11,34
1491089933963,0,-25,-1,-19,-49,-36,-33,-30,-35
1491089933964,1,13,-1,10,11,-19,57,7,-16
1491089933964,1,-5,-2,-4,6,22,-26,10,3
1491089934009,2,8,-1,4,20,-23,-29,-13,15
1491089934009,2,4,11,21,50,80,-12,-20,14
1491089934011,3,-11,-31,-35,-85,-19,-15,-11,2
1491089934011,3,-6,-1,-29,-10,-37,2,-35,-22
1491089934012,0,-1,2,1,43,11,-32,-31,-11
1491089934012,0,7,0,9,0,0,26,35,13
1491089934013,1,6,13,2,-12,13,7,12,4
1491089934013,1,-10,-16,0,-19,-31,-34,1,-6
1491089934106,2,-14,18,17,9,60,40,1,-17
1491089934106,2,12,-6,-6,-21,-24,-9,-20,20
1491089934108,3,-5,1,-1,19,5,-55,11,2
1491089934108,3,0,-9,1,9,-34,6,-35,-11
1491089934109,1,13,10,20,18,43,64,37,19
1491089934109,1,9,-4,-14,-3,-8,-39,-11,29
1491089934110,2,5,10,-1,-38,-46,-17,31,-17
1491089934110,2,-7,-8,-15,-18,-12,-6,-12,19
1491089934350,3,-4,-9,-12,42,-16,-48,-2,7
1491089934350,3,-8,-15,9,14,39,89,-17,-33
1491089934351,0,5,2,-21,-23,-39,4,-11,-8
1491089934351,0,-6,2,8,-8,15,-52,3,0
1491089934351,3,11,22,31,29,25,56,-57,-29
1491089934351,3,-5,-6,-38,-52,0,-42,-6,-20
1491089934352,0,16,-15,-2,34,-7,40,57,15
1491089934352,0,0,10,-3,-36,-24,-97,-12,8
1491089934447,1,7,-2,-16,-8,10,3,-39,10
1491089934447,1,-12,-1,35,49,11,31,48,-18
1491089934448,2,7,5,2,-29,-12,103,-6,6
1491089934448,2,-11,-4,-11,-25,-25,-63,-24,-5
1491089934448,0,-17,-18,-11,45,-6,-15,4,-14
1491089934448,0,-2,3,10,23,0,78,6,-33
1491089934449,3,-9,-6,-7,-2,25,68,66,1
1491089934449,3,12,6,-2,-63,-28,-50,-36,32
1491089934496,0,-8,-18,-27,39,-16,15,-14,-9
1491089934496,0,-14,-10,11,68,-3,18,-38,-35
1491089934496,1,3,9,19,10,2,-73,36,-4
1491089934496,1,10,8,-21,-14,2,14,-1,2
1491089934497,0,-4,8,30,58,38,-53,11,-2
1491089934497,0,-16,-16,-29,-51,-9,-26,-31,-29
1491089934498,1,-9,-8,-21,-20,-30,21,20,-21
1491089934498,1,0,5,20,27,5,5,18,-5
1491089934545,2,8,5,7,-19,7,47,16,22
1491089934545,2,-5,-28,-41,-19,-27,-66,-16,-8
1491089934545,3,-8,-13,0,38,14,62,-11,-34
1491089934545,3,-2,2,-15,-41,-26,-28,14,14
1491089934546,2,-8,-12,-21,-16,-57,6,-45,-7
1491089934546,2,-6,7,7,-17,54,6,10,10
1491089934547,3,-9,5,30,35,36,86,3,-28
1491089934547,3,4,6,-12,-6,-5,-128,64,3
1491089934593,0,-3,-23,-27,4,-3,98,-68,3
1491089934593,0,5,6,12,29,-1,-47,-17,21
1491089934594,1,-15,-6,-10,-17,-8,-37,-17,-15
1491089934594,1,2,-13,-10,-12,2,-2,-22,-10
1491089934642,3,-10,-7,-14,-78,-31,11,-39,-34
1491089934642,3,-8,-12,-10,46,-4,-56,-28,-7
1491089934643,0,1,28,9,35,11,45,23,-17
1491089934643,0,-1,-13,-11,-44,6,39,32,34
1491089934644,1,-5,-11,-2,23,1,-22,10,-17
1491089934644,1,-1,5,-1,-41,-8,-33,-84,-4
1491089934644,2,8,-3,11,17,4,69,18,19
1491089934644,2,-7,-6,-18,4,-28,71,-26,-21
1491089934691,0,-16,-10,13,9,-10,-75,-17,10
1491089934691,0,1,18,-5,-53,-20,50,-25,-41
1491089934692,1,-7,3,-2,37,22,30,-5,47
1491089934692,1,-7,-13,-10,0,3,49,-6,-8
1491089934693,1,20,16,5,7,21,79,22,24
1491089934693,1,-15,-24,2,4,-17,53,17,9
1491089934693,2,1,21,-3,-74,-6,-68,-31,-35
1491089934693,2,8,-6,3,79,23,7,65,65
1491089934788,3,2,-1,-1,-28,-39,14,-47,-17
1491089934788,3,-16,-4,12,-3,23,20,44,-16
1491089934790,0,6,23,-10,12,2,-48,-5,10
1491089934790,0,12,-12,-13,-4,-18,-59,-73,-22
1491089934790,1,-5,-6,0,-33,-4,32,52,15
1491089934790,1,10,4,-4,-24,-23,2,-25,0
1491089934791,2,-5,3,12,-3,3,13,-48,14
1491089934791,2,-6,-13,0,32,17,26,39,-28
1491089934837,3,0,0,-11,-16,-12,-9,9,10
1491089934837,3,1,-3,5,-16,-18,27,40,-7
1491089934839,0,-11,-2,-5,40,12,-79,4,33
1491089934839,0,3,3,-8,-24,2,80,-47,-7
1491089934840,2,-15,-21,-26,-42,15,-83,-34,-15
1491089934840,2,4,1,2,-9,-9,-7,-52,-5
1491089934886,3,-7,-5,8,-8,-25,-42,-36,1
1491089934886,3,0,-8,-25,-27,-7,-7,-40,-6
1491089934887,0,-16,7,37,96,47,16,58,-11
1491089934887,0,2,-6,-2,-40,-13,15,37,17
1491089934889,1,3,-6,-26,-21,5,-28,-52,-4
1491089934889,1,14,12,21,-12,41,-11,12,6
1491089934890,0,6,17,39,-4,-5,-31,75,10
1491089934890,0,-8,16,-7,-15,6,49,-5,-11
1491089934935,1,-10,-16,-18,-3,4,-69,-13,-9
1491089934935,1,3,2,1,-4,1,43,-6,8
1491089934936,2,1,3,-10,-18,-3,27,14,3
1491089934936,2,-6,-11,-4,-15,13,36,-27,-1
1491089934983,3,-1,-5,8,-25,-9,23,-10,-7
1491089934983,3,-14,-12,-20,-2,-16,-118,-89,20
1491089934984,1,-11,0,-7,-17,35,-21,-56,-17
1491089934984,1,22,5,-13,-47,-33,22,7,23
1491089934985,2,1,0,9,54,5,-33,-17,6
1491089934985,2,-6,-6,7,-55,7,19,41,-3
1491089934986,3,12,10,25,57,-1,36,50,4
1491089934986,3,-8,-1,-14,-9,-39,-30,-69,-14
1491089935032,2,-7,-6,-7,4,-30,-35,-34,-11
1491089935032,2,-4,2,6,19,20,-36,6,37
1491089935033,3,-11,4,-3,-11,-40,37,29,3
1491089935033,3,8,18,17,30,30,-70,-41,2
1491089935034,0,-11,-8,-4,-36,14,55,28,30
1491089935034,0,10,-7,-12,45,10,-3,8,-2
1491089935035,3,3,-10,-17,-23,-23,-50,76,11
1491089935035,3,-13,3,10,19,-2,37,-72,-8
1491089935081,0,-4,1,-18,-78,-30,-20,56,-41
1491089935081,0,-3,-12,-5,3,-7,30,17,-18
1491089935083,1,16,23,18,20,42,-41,28,17
1491089935083,1,-3,-12,0,27,-5,13,-14,-2
1491089935130,3,-10,0,13,-47,-57,61,46,-38
1491089935130,3,11,9,-12,24,22,-79,-60,11
1491089935178,0,-1,9,24,3,9,-32,-41,-20
1491089935178,0,-3,-12,-6,-31,-27,43,72,-3
1491089935179,1,0,14,-24,1,36,-49,42,6
1491089935179,1,-12,-3,4,13,-4,89,71,5
1491089935227,2,-2,-16,-6,-13,-30,-45,-98,-11
1491089935227,2,-3,-2,-27,-122,-23,-43,6,-17
1491089935325,0,1,1,-52,-72,-24,-16,-55,-1
1491089935325,0,-14,-16,0,66,-4,-39,42,-12
1491089935325,1,2,9,2,-43,2,82,-128,-17
1491089935325,1,3,-2,20,34,24,-73,47,-6
1491089935326,2,12,24,40,36,43,81,-22,13
1491089935326,2,-4,4,-29,-43,-39,-10,17,2
1491089935327,1,-2,1,8,31,-2,69,71,-28
1491089935327,1,3,-11,-1,-56,1,-95,-84,59
1491089935568,2,1,-7,4,26,-1,78,45,5
1491089935568,2,8,24,1,6,11,-12,-62,1
1491089935571,3,5,13,2,6,2,-73,-42,31
1491089935571,3,-14,1,0,5,25,72,83,12
1491089935572,1,-13,-26,-35,14,-22,26,30,-10
1491089935572,1,9,8,21,-9,9,2,-38,33
1491089935573,2,-13,-22,-27,-56,-66,6,-33,-11
1491089935573,2,10,21,28,1,61,-58,26,-1
1491089935617,3,-10,-22,-27,-27,-23,41,-30,-9
1491089935617,3,5,7,12,-12,12,-16,18,-3
1491089935618,0,-15,-2,0,8,-14,-10,-9,-13
1491089935618,0,9,-5,-18,-22,-21,-16,25,-5
1491089935621,1,7,0,30,69,-20,-1,-21,39
1491089935621,1,-3,-9,-26,-7,-8,-55,4,-11
1491089935622,1,-10,-22,-54,-41,-27,56,-9,-11
1491089935622,1,13,4,6,-15,-29,-14,-10,-30
1491089935666,2,-13,-4,-18,-32,-5,56,16,-5
1491089935666,2,10,7,8,45,23,30,-4,-8
1491089935667,3,7,22,36,15,17,-56,-52,3
1491089935667,3,-26,-39,-38,0,2,51,36,4
1491089935668,2,-9,15,33,-18,6,-13,5,-13
1491089935668,2,17,-2,-6,17,-39,-10,-35,0
1491089935714,3,8,26,14,-30,26,-65,16,18
1491089935714,3,1,-24,4,96,42,61,22,0
1491089935715,0,-5,3,-1,37,-21,-33,-30,-6
1491089935715,0,-15,15,5,-112,18,-28,-13,5
1491089935716,1,9,-26,-38,33,-8,38,15,0
1491089935716,1,5,29,19,-5,-11,-17,-76,-13
1491089935717,3,5,30,-9,-36,4,-58,11,25
1491089935717,3,1,4,13,10,16,70,33,-10
1491089935763,0,-2,-10,-17,21,-6,-10,-48,-14
1491089935763,0,-1,4,7,6,16,21,10,34
1491089935765,1,0,7,14,-64,7,7,-16,-9
1491089935765,1,3,6,2,64,-27,-66,36,40
1491089935766,3,-3,-1,-6,-4,21,-25,-24,11
1491089935766,3,-2,-4,5,-51,-5,94,-36,-2
1491089935812,0,-7,3,-5,33,21,-92,16,-3
1491089935812,0,11,-1,-2,-76,-34,24,25,16
1491089935813,1,-3,8,19,104,61,103,28,-9
1491089935813,1,-19,-21,-33,-45,-52,-57,-39,-35
1491089935909,2,10,0,12,15,3,17,14,-2
1491089935909,2,-8,0,-5,-38,-1,-2,-16,-12
1491089935958,0,8,-8,-20,-32,-63,25,-20,-12
1491089935958,0,-3,8,16,41,48,2,18,-9
1491089935960,1,4,12,15,-28,-16,-15,0,18
1491089935960,1,-9,-10,-11,8,31,29,5,-7
1491089935960,2,-7,6,6,-27,2,-32,-31,15
1491089935960,2,11,3,3,9,-4,31,9,-13
1491089935961,3,1,1,-6,-2,-24,69,-24,-1
1491089935961,3,8,-4,-21,-24,-23,-123,46,-22
1491089936007,1,1,-2,-11,-20,-26,23,-29,-10
1491089936007,1,-3,15,-18,-80,-40,-5,23,1
1491089936008,2,-10,-14,-9,16,-20,84,9,-41
1491089936008,2,-3,-21,-12,9,-1,-103,-28,0
1491089936010,0,-5,-1,14,3,22,19,71,4
1491089936010,0,2,2,-20,9,-18,-47,-51,-4
1491089936011,1,-6,-25,-15,18,-5,64,5,-25
1491089936011,1,1,14,13,-48,8,-8,14,-1
1491089936056,2,7,-3,-4,36,-23,-62,-28,0
1491089936056,2,-13,-3,-2,-2,38,14,-14,-25
1491089936057,3,0,0,6,20,9,62,23,13
1491089936057,3,4,0,6,4,-1,-25,57,4
1491089936057,1,1,-7,6,15,25,77,61,22
1491089936057,1,-6,-12,-17,-6,6,-73,-70,3
1491089936058,2,-3,-5,11,-63,-28,43,20,7
1491089936058,2,14,7,-11,23,-7,30,11,-21
1491089936251,3,-18,-15,-13,6,13,-27,-40,-18
1491089936251,3,-11,6,10,-15,6,-2,36,1
1491089936252,0,6,-1,-5,29,-27,-23,-8,3
1491089936252,0,-13,0,14,12,24,28,-42,-14
1491089936253,2,-14,-11,-18,-39,-58,4,9,-6
1491089936253,2,1,-8,18,59,57,45,-18,-24
1491089936254,3,8,12,-7,-85,-68,-69,-12,0
1491089936254,3,-14,-26,-48,-49,49,-35,-21,-18
1491089936349,0,3,4,7,60,4,79,12,-20
1491089936349,0,5,16,4,-40,-14,-87,32,10
1491089936350,1,-11,-11,5,9,1,62,-27,4
1491089936350,1,5,15,16,-6,-13,-14,-30,-2
1491089936351,1,2,15,-20,46,8,2,25,13
1491089936351,1,-5,-22,-20,10,5,-78,-17,-15
1491089936352,2,0,-5,-21,-108,-76,36,-37,53
1491089936352,2,-2,-14,-19,50,57,12,21,-17
1491089936398,3,9,6,34,10,20,-43,9,6
1491089936398,3,-7,-1,4,9,-4,95,-4,-31
1491089936399,0,11,2,-17,-14,-15,10,-19,15
1491089936399,0,-13,10,4,-46,30,-128,-6,-18
1491089936400,3,-30,-8,-7,-35,-25,-63,-97,2
1491089936400,3,18,7,-7,-8,-3,51,74,10
1491089936400,0,-6,-11,-18,0,20,15,-21,-23
1491089936400,0,-1,6,9,5,32,-38,-29,2
1491089936446,1,7,5,2,34,-9,15,50,13
1491089936446,1,-2,-8,-16,-31,3,-35,-22,-17
1491089936448,2,-9,3,2,15,-12,34,8,28
1491089936448,2,-6,7,23,12,-1,-27,-23,-27
1491089936449,0,-6,-17,13,36,-8,-58,-9,-24
1491089936449,0,-5,4,-17,7,9,28,5,-19
1491089936450,1,-4,-8,-1,14,-21,5,-17,0
1491089936450,1,3,0,-1,-66,-30,32,-3,-15
1491089936495,2,-20,-7,-20,-28,-34,-22,-25,21
1491089936495,2,-5,-11,-13,-22,-1,-67,26,12
1491089936496,3,18,8,19,-22,14,82,-9,-31
1491089936496,3,-4,10,7,31,-14,24,1,-13
1491089936497,0,-3,2,-2,37,39,-31,74,24
1491089936497,0,-7,-5,-7,-5,6,15,-8,-27
1491089936498,1,0,-6,-11,-3,-55,-90,-21,8
1491089936498,1,2,8,15,29,38,98,69,22
1491089936543,2,-1,-4,12,2,33,8,-2,-34
1491089936543,2,0,3,-7,26,-2,7,27,24
1491089936545,3,1,4,11,-41,-33,21,-19,-5
1491089936545,3,-18,-12,-14,15,-20,-98,-42,-24
1491089936546,1,14,-9,-8,17,2,-12,61,37
1491089936546,1,-5,9,7,-17,-9,25,-10,9
1491089936593,2,0,2,-18,-49,5,-29,-44,-44
1491089936593,2,-14,-18,11,-2,-33,-9,-92,-13
1491089936593,3,-3,7,-2,28,-33,1,62,-7
1491089936593,3,6,1,0,-35,72,-35,2,-19
1491089936641,0,4,6,9,64,22,9,3,-7
1491089936641,0,-8,-4,-20,-26,-20,-10,-19,-13
1491089936643,2,3,-9,-11,11,-2,41,3,19
1491089936643,2,14,4,-6,-45,-58,-47,-7,-18
1491089936643,3,-8,-8,12,65,71,63,3,35
1491089936643,3,-11,3,-23,-35,-42,42,-14,-9
1491089936644,0,5,-5,13,29,-11,-65,-79,-9
1491089936644,0,-11,-9,-18,6,31,48,90,16
1491089936690,3,-16,-1,1,27,-12,39,-5,-16
1491089936690,3,2,-13,-12,-6,34,29,-3,24
1491089936738,0,-1,12,8,-83,-57,-7,11,-30
1491089936738,0,-3,-10,-25,8,19,1,-19,-1
1491089936740,1,-5,-3,0,-15,6,13,-34,-1
1491089936740,1,9,7,15,-5,7,-22,-13,10
1491089936742,0,-11,3,4,-22,12,-27,0,-13
1491089936742,0,-2,-1,-5,-5,17,65,-1,31
1491089936743,1,-12,-14,-16,-13,-8,-68,-40,-39
1491089936743,1,13,-9,-3,11,-1,41,62,7
1491089936787,2,12,10,7,-26,-13,79,19,36
1491089936787,2,-2,9,1,-29,-2,-67,-15,-8
1491089936788,1,1,10,-2,64,36,-17,-21,25
1491089936788,1,4,-13,-8,-1,-45,-15,-34,-21
1491089936789,2,-14,1,-30,-95,-44,-70,-8,7
1491089936789,2,2,-12,12,71,26,37,22,-4
1491089936790,2,3,7,-13,9,13,34,-2,-13
1491089936790,2,5,15,30,45,3,40,26,13
1491089936836,3,-17,-21,-24,-17,11,-27,14,-16
1491089936836,3,-1,11,22,-41,-45,43,-25,-4
1491089936837,0,7,15,17,19,44,2,15,-29
1491089936837,0,-7,-14,-46,-27,13,-53,-15,25
1491089936838,2,-3,-10,-26,-50,-87,13,25,33
1491089936838,2,6,15,16,12,-6,42,-2,6
1491089936839,3,-1,-3,-1,-33,-4,22,-12,4
1491089936839,3,0,-3,-2,5,21,1,-9,0
1491089936885,0,8,0,45,101,55,-2,62,28
1491089936885,0,17,4,-31,-81,-38,-35,-35,11
1491089936886,1,-17,-5,-27,-39,-26,1,-30,-19
1491089936886,1,6,4,16,-2,-37,7,55,22
1491089936933,3,25,11,-16,-34,-31,-18,-22,-21
1491089936933,3,0,13,4,3,4,16,9,37
1491089936935,0,-23,-22,-2,-30,66,-9,-5,-28
1491089936935,0,-6,1,11,64,-49,-11,-12,45
1491089936935,1,11,-2,-14,2,10,22,18,-2
1491089936935,1,-4,-2,-1,-4,34,-29,-45,-13
1491089936936,2,-15,2,18,8,-20,30,40,10
1491089936936,2,6,-9,-26,-115,-12,-12,39,-14
1491089936982,0,43,2,1,4,-6,-1,35,44
1491089936982,0,-4,29,45,73,-12,39,8,-16
1491089936984,1,-1,-6,1,-4,0,-16,-12,8
1491089936984,1,-1,-4,-9,-38,25,17,19,-5
1491089936985,1,-2,3,3,43,25,6,54,11
1491089936985,1,-26,-25,8,22,15,27,17,-5
1491089936986,2,16,23,-6,36,16,-15,-18,41
1491089936986,2,6,-4,1,-50,-40,-17,-36,-9
1491089937031,3,-21,-17,-4,1,-1,-2,20,4
1491089937031,3,29,22,7,12,-18,2,-16,-28
1491089937032,0,12,-3,2,-15,-9,-20,14,11
1491089937032,0,-11,-22,-23,-9,-24,7,-19,-28
1491089937033,2,2,-25,12,-7,-11,-57,-93,8
1491089937033,2,13,19,-20,-60,-14,83,86,13
1491089937034,3,-3,-19,-34,28,-6,-58,-2,-30
1491089937034,3,-8,-3,-7,-8,24,40,-13,13
1491089937087,0,3,10,-5,-23,7,-8,17,5
1491089937087,0,-18,5,31,4,-33,6,-22,-15
1491089937090,1,13,14,7,-8,11,-8,19,-20
1491089937090,1,-8,3,3,-15,-4,-7,-5,-23
1491089937093,3,6,31,6,-2,-9,26,-7,-15
1491089937093,3,8,-11,9,5,-10,-22,7,-19
1491089937094,0,3,18,3,-18,2,-17,-48,6
1491089937094,0,-7,34,0,-6,13,-3,64,-12
1491089937129,1,-3,-36,4,57,33,-20,-71,55
1491089937129,1,-7,18,-2,-49,10,15,73,13
1491089937131,2,-13,-23,-34,-1,-20,33,-11,-53
1491089937131,2,1,-16,-2,46,11,-36,1,-6
1491089937132,0,-21,-28,-9,-44,-8,-108,29,-23
1491089937132,0,29,-4,-19,1,13,73,-25,31
1491089937133,1,-10,-8,-14,-24,-16,19,17,-38
1491089937133,1,-4,-8,12,28,14,-2,18,-6
1491089937226,2,0,35,8,-49,-2,22,11,42
1491089937226,2,-7,1,6,48,16,-36,-11,-31
1491089937228,3,14,-10,7,-44,-22,-14,5,44
1491089937228,3,-6,13,3,48,3,-68,-94,16
1491089937229,0,-9,-19,-4,1,-13,40,88,-5
1491089937229,0,-6,7,21,8,-33,-22,-34,-6
1491089937230,1,9,20,-13,-30,44,-38,56,-29
1491089937230,1,-4,-33,16,28,-5,16,-22,-13
1491089937275,2,-21,5,-53,-50,-10,-9,-36,27
1491089937275,2,9,24,17,22,-23,-5,-50,-7
1491089937276,3,3,-15,-18,30,7,31,86,16
1491089937276,3,-13,-8,0,-16,-15,-7,24,-19
1491089937421,2,-3,9,-11,14,22,64,5,3
1491089937421,2,-22,-23,7,-17,-14,-22,6,-36
1491089937423,3,14,1,7,5,11,53,45,56
1491089937423,3,-7,5,14,-11,15,-20,-6,-43
1491089937424,0,4,14,10,17,-36,2,-17,26
1491089937424,0,-17,-29,-3,14,28,17,-30,-14
1491089937425,1,-12,-18,-35,24,-10,3,-15,10
1491089937425,1,5,21,23,-10,11,-10,-19,-30
1491089937569,3,-8,-12,-6,-16,3,31,26,15
1491089937569,3,-11,-19,1,32,-24,-2,17,-19
1491089937571,0,7,9,6,-10,8,-77,-46,14
1491089937571,0,-1,-8,-1,-20,-24,26,7,-23
1491089937573,1,22,-2,-31,-5,10,-26,11,-10
1491089937573,1,-7,5,20,-47,-23,-77,-9,-18
1491089937574,2,3,7,-1,2,2,80,101,-13
1491089937574,2,3,-32,-29,-13,5,-85,-5,2
1491089937617,3,-9,12,18,19,-23,48,-13,0
1491089937617,3,-4,10,11,12,56,37,2,-41
1491089937619,0,-9,-4,-11,-29,-31,-4,-34,-11
1491089937619,0,-13,3,18,43,19,12,-14,-30
1491089937621,3,-1,2,10,12,1,5,-9,-5
1491089937621,3,-5,-3,-21,-5,-15,-16,-11,13
1491089937622,0,-3,-4,27,25,-18,-31,-13,23
1491089937622,0,-10,2,-21,-70,-37,15,5,18
1491089937665,1,-4,-11,-14,-40,-10,-20,-40,-34
1491089937665,1,10,8,14,-18,-9,18,-23,23
1491089937763,2,33,11,21,97,7,-86,52,14
1491089937763,2,-7,-3,14,36,67,80,-14,10
1491089937770,1,-21,0,8,9,-22,9,14,-4
1491089937770,1,-2,-14,14,1,26,10,30,-11
1491089937771,2,5,24,-22,-86,-5,-8,-35,-10
1491089937771,2,-1,-23,-24,41,-7,2,40,-5
1491089937772,3,-17,-1,6,-6,9,17,-86,-42
1491089937772,3,5,-9,-2,22,-15,-24,71,-1
1491089937861,0,-9,-3,12,38,28,14,7,-5
1491089937861,0,6,6,12,-27,-32,21,3,24
1491089937867,2,-3,-35,-16,26,34,-34,-33,-9
1491089937867,2,-25,8,-14,-29,-26,-58,18,-10
1491089937868,3,18,10,27,46,-3,27,0,26
1491089937868,3,1,7,1,-5,-12,-26,-34,-24
1491089937869,0,2,16,8,2,0,-26,-18,3
1491089937869,0,-11,-26,-27,-22,-20,-27,-43,-4
1491089937957,1,3,-15,4,-1,-10,38,32,-5
1491089937957,1,-2,7,-5,7,23,-9,8,29
1491089937959,2,1,6,11,-22,-24,-20,-5,-16
1491089937959,2,10,1,-4,10,21,82,19,-1
1491089937962,1,8,11,15,-6,-15,18,31,-12
1491089937962,1,-9,0,-17,-36,12,-5,-28,21
1491089937969,1,-5,6,26,96,52,-42,79,33
1491089937969,1,-3,10,6,3,-3,51,-6,-41
1491089938006,2,13,-8,-22,-29,-39,-58,-20,24
1491089938006,2,-14,-13,-16,-17,-3,26,16,12
1491089938055,3,3,22,21,-16,-11,-22,-21,-12
1491089938055,3,4,2,-4,-81,7,62,33,3
1491089938057,3,-4,-10,-26,-47,-58,42,-20,-31
1491089938057,3,-5,-9,-15,8,-40,-8,-22,7
1491089938058,0,-3,-12,7,-11,19,-39,-1,0
1491089938058,0,9,15,5,43,16,17,-3,4
1491089938059,1,-7,1,11,14,5,25,-2,-17
1491089938059,1,-5,5,-3,5,36,-27,15,0
1491089938105,2,3,10,18,-62,-75,66,17,11
1491089938105,2,-9,-22,-24,-1,38,-49,-7,-19
1491089938106,0,9,7,0,-31,-10,49,13,-15
1491089938106,0,-12,21,58,65,28,5,8,31
1491089938107,1,7,-16,-45,-36,-41,-78,-13,-18
1491089938107,1,-5,-10,-12,-11,-29,-31,-42,22
1491089938108,1,6,12,-12,-47,24,20,-14,-10
1491089938108,1,-6,-2,18,34,-10,-12,31,-15
1491089938201,2,-5,1,-10,-23,-21,-33,-19,1
1491089938201,2,11,-8,-1,20,13,6,26,18
1491089938203,3,-4,7,16,-19,-23,96,-10,-15
1491089938203,3,2,-1,8,29,17,-95,-17,24
1491089938251,2,-9,6,11,3,1,-19,-39,-37
1491089938251,2,11,-1,-24,-50,-29,16,8,21
1491089938252,3,-4,-5,-1,52,6,39,17,-3
1491089938252,3,-8,6,8,23,14,-45,7,-22
1491089938253,0,5,-7,4,-14,27,5,1,-13
1491089938253,0,-9,-12,0,25,-1,-5,-13,-7
1491089938254,1,7,14,6,-46,0,11,-8,9
1491089938254,1,-8,-9,-25,-55,-22,-9,14,-3
1491089938349,3,7,9,-15,-32,12,-78,40,36
1491089938349,3,-8,-11,-3,10,10,42,-34,-28
1491089938350,0,2,-3,-10,-27,-41,5,-17,4
1491089938350,0,5,-10,8,62,64,-27,-9,18
1491089938351,1,-15,2,12,-7,-26,-4,20,-1
1491089938351,1,15,2,-10,-41,-22,47,-24,9
1491089938352,0,2,-21,-24,49,-32,-8,-28,-24
1491089938352,0,5,4,-19,-53,70,-64,13,37
1491089938396,1,-6,-15,-8,36,-15,46,-18,-11
1491089938396,1,-3,3,20,27,-5,26,-24,-12
1491089938409,2,-9,17,18,-18,35,6,5,-5
1491089938409,2,-9,1,-7,-25,-32,-24,31,-8
1491089938410,2,14,-12,-8,18,0,32,19,-1
1491089938410,2,-5,8,-23,-36,-49,-29,-12,-8
1491089938445,3,6,-16,-1,34,6,-11,23,1
1491089938445,3,-9,14,19,-7,22,37,-22,-39
1491089938446,0,-9,11,7,-18,-4,-49,-2,65
1491089938446,0,4,5,-4,-39,-20,24,13,-5
1491089938447,1,1,-4,19,97,24,-38,48,15
1491089938447,1,3,-12,-6,-35,-42,12,-81,4
1491089938448,3,5,4,8,42,9,-83,-31,2
1491089938448,3,8,-13,-55,-120,-78,16,32,8
1491089938543,0,8,11,16,92,12,-31,24,10
1491089938543,0,-8,-3,-5,-9,7,43,-26,-12
1491089938545,1,-3,4,18,27,15,31,18,-25
1491089938545,1,10,5,20,25,43,-13,63,53
1491089938549,0,-5,-9,-7,26,-8,17,-25,-23
1491089938549,0,5,-3,-12,-4,6,-11,4,11
1491089938550,1,-2,-25,-33,-56,-20,-12,-25,34
1491089938550,1,-2,20,5,-3,30,67,47,-11
1491089938591,2,-5,-12,13,17,-5,0,-13,-3
1491089938591,2,8,4,6,4,-10,-70,2,-27
1491089938591,3,-4,1,4,-12,31,52,-28,-22
1491089938591,3,-9,8,-1,28,-38,-22,-9,17
1491089938592,1,0,-5,-13,9,1,3,-23,15
1491089938592,1,-5,-5,-9,-86,-91,-65,-33,-23
1491089938593,2,-12,-20,-34,77,76,-14,-30,-15
1491089938593,2,10,3,11,40,-3,35,22,33
1491089938688,3,-3,6,14,-19,-20,-43,-5,-21
1491089938688,3,-4,-2,19,57,89,56,-24,-24
1491089938689,0,-4,4,-10,-120,-71,-43,4,8
1491089938689,0,-4,-20,-23,11,-4,-5,-21,-1
1491089938690,2,1,3,4,-6,24,13,-13,45
1491089938690,2,5,-7,-8,-27,-11,-3,-3,-19
1491089938691,3,2,8,5,-15,-28,90,25,-11
1491089938691,3,3,2,-12,-41,62,-113,-29,-21
1491089938834,0,-5,0,16,46,3,52,55,4
1491089938834,0,11,-10,-19,-2,-45,-10,-19,5
1491089938835,1,4,-6,-8,-3,5,3,-60,-11
1491089938835,1,4,19,12,-8,-6,-26,29,22
1491089938836,0,-1,-13,-29,-26,14,-30,15,-12
1491089938836,0,-8,-18,-13,-70,-51,0,-34,-19
1491089938838,1,-5,2,0,42,-7,-15,35,4
1491089938838,1,-3,-6,17,30,34,57,-21,-1
1491089938883,2,-3,4,-5,-43,-37,-62,-4,30
1491089938883,2,-22,-19,-11,41,48,-38,4,-32
1491089938884,3,-5,-1,12,15,14,33,-3,1
1491089938884,3,-6,-9,-6,-66,-30,-2,1,-8
1491089938885,1,-4,1,-21,-17,-9,-19,65,17
1491089938885,1,-1,-5,10,16,-11,-73,-14,-9
1491089938886,3,-2,-8,10,121,56,-9,3,-3
1491089938886,3,2,5,13,31,28,38,65,-21
1491089939030,0,12,-1,-7,-55,-59,28,18,5
1491089939030,0,-5,-6,-4,-11,20,-25,-32,0
1491089939031,1,15,12,-5,-26,4,-50,-34,-29
1491089939031,1,7,2,-4,-4,2,63,31,64
1491089939032,0,-8,-3,5,9,-38,-8,-62,9
1491089939032,0,2,1,15,30,53,-30,18,15
1491089939033,1,-8,-2,1,-55,-41,-13,-17,-23
1491089939033,1,1,-1,15,73,58,-25,-13,-22
1491089939079,2,7,6,2,28,24,-16,-2,43
1491089939079,2,-6,-7,-17,-3,-21,109,6,-22
1491089939080,3,1,19,27,4,-4,-50,-15,3
1491089939080,3,-7,-10,-25,-115,-3,-37,-17,-13
1491089939081,2,-14,-5,-5,36,16,-12,-45,-12
1491089939081,2,-1,3,12,-2,23,-9,28,-17
1491089939082,3,-13,-3,1,1,-17,-42,7,-3
1491089939082,3,-13,-9,18,74,9,79,21,-28
1491089939127,0,15,-2,-19,-58,-21,-99,-49,48
1491089939127,0,-6,-25,-47,-48,-14,38,12,-8
1491089939129,1,6,13,20,37,-6,54,12,6
1491089939129,1,4,0,5,-9,43,-15,14,-9
1491089939130,3,-8,-9,-16,21,-5,-53,-12,-2
1491089939130,3,3,-9,1,-47,33,-13,-9,6
1491089939131,0,-6,0,-8,8,-3,61,55,-39
1491089939131,0,3,9,31,58,16,-49,-56,5
1491089939176,1,-7,25,39,8,14,95,21,-13
1491089939176,1,-11,-18,-28,-61,-40,-86,-12,-23
1491089939177,2,4,2,-7,-4,9,16,18,-26
1491089939177,2,-4,4,4,-5,8,33,-4,9
1491089939178,0,-12,-4,2,-2,7,-65,-21,23
1491089939178,0,21,12,8,-5,-64,-22,0,-7
1491089939179,1,-9,-7,-20,-20,85,35,-13,-5
1491089939179,1,-2,-8,0,15,-10,47,3,-10
1491089939225,2,8,10,18,-16,-32,-14,-9,42
1491089939225,2,-11,-10,-2,-12,55,-94,57,6
1491089939322,3,1,9,9,16,8,71,2,-5
1491089939322,3,7,0,-16,-11,-45,13,39,26
1491089939371,1,-3,8,10,33,11,-79,-52,19
1491089939371,1,-4,8,4,4,41,9,4,-9
1491089939374,2,6,2,25,75,42,-14,-28,10
1491089939374,2,11,-8,-26,-89,-25,27,-11,6
1491089939375,3,-10,2,33,94,-21,-7,-21,-26
1491089939375,3,5,-3,-17,-52,27,-16,55,56
1491089939376,0,-3,-16,-19,-16,-12,22,-45,-31
1491089939376,0,-13,0,3,-50,-36,-85,47,26
1491089939420,2,0,11,9,7,-7,-18,39,-16
1491089939420,2,-4,4,-21,-31,17,82,-7,35
1491089939421,3,5,4,29,22,1,42,8,61
1491089939421,3,6,1,-4,-61,32,-51,-26,-14
1491089939422,0,5,2,-6,-42,-12,-22,18,26
1491089939422,0,-4,3,-9,21,-37,4,4,6
1491089939424,1,5,2,-5,4,31,-11,-29,-7
1491089939424,1,-16,-8,-13,-49,-44,73,39,7
1491089939615,2,3,0,32,39,38,-102,-41,-2
1491089939615,2,-6,-10,-36,-24,2,17,-19,26
1491089939616,3,16,2,-4,-20,11,29,19,-8
1491089939616,3,-8,-3,-12,28,-26,-20,-24,-12
1491089939617,1,-11,8,-3,-46,-22,-55,-19,-17
1491089939617,1,8,-7,5,71,13,12,38,6
1491089939618,2,21,18,1,-101,-40,21,4,2
1491089939618,2,-13,-5,-12,56,19,-28,-38,-23
1491089939663,3,-1,-14,-12,6,-11,29,24,6
1491089939663,3,-5,-6,-8,-33,-55,3,-21,-8
1491089939665,0,-12,-9,-4,19,-8,-35,-4,3
1491089939665,0,9,-2,-13,-50,60,-9,-1,21
1491089939666,0,3,-2,-20,-25,-2,-21,-37,16
1491089939666,0,-7,-10,-5,5,-80,37,35,29
1491089939667,0,23,7,9,16,16,-8,-37,-2
1491089939667,0,6,14,9,3,3,36,-1,0
1491089939712,1,-2,-12,20,54,27,-3,-1,1
1491089939712,1,-4,-5,-35,-92,-46,-26,-17,-22
1491089939761,2,-18,-21,-7,-26,-40,25,-7,-6
1491089939761,2,6,15,2,-49,-4,-33,34,-7
1491089939762,1,-3,10,0,41,-10,21,45,-16
1491089939762,1,9,-3,6,-2,23,-34,-24,29
1491089939763,2,-1,7,-7,-19,-12,37,17,-10
1491089939763,2,0,8,23,71,40,-16,27,3
1491089939764,3,-6,-2,-9,-36,-29,36,-20,10
1491089939764,3,-5,-10,-11,-13,-13,-22,-18,-28
1491089939809,0,-1,15,30,65,19,-6,36,-4
1491089939809,0,7,-6,-20,-91,6,50,8,7
1491089939810,2,-8,-3,12,-56,-20,24,-8,-32
1491089939810,2,2,4,-17,-22,-28,-63,-13,22
1491089939811,3,6,10,23,7,65,30,-6,20
1491089939811,3,-6,16,10,-5,-14,15,19,-13
1491089939812,0,-2,-21,-49,-99,-71,-73,-23,10
1491089939812,0,-6,-12,-4,64,14,14,2,-22
1491089939858,1,-3,-8,-2,-5,8,8,8,1
1491089939858,1,1,11,30,31,14,37,54,-2
1491089939859,2,10,1,-6,19,16,11,-9,-5
1491089939859,2,-1,9,-7,-49,-3,-82,-13,-22
1491089939860,0,-2,-1,-12,-4,-27,23,22,19
1491089939860,0,-1,-2,13,16,12,-19,-19,15
1491089939861,1,-1,30,44,47,58,37,10,45
1491089939861,1,12,-3,-5,-23,-26,49,-26,-2
1491089939956,2,-11,-18,-41,-66,-25,-50,43,0
1491089939956,2,-13,-19,-22,-19,5,-46,-28,-12
1491089939957,3,-3,-16,-3,44,-17,-23,16,-7
1491089939957,3,-5,14,8,-29,29,72,4,-16
1491089939957,1,-9,2,-22,-74,-34,-12,-24,-17
1491089939957,1,-12,-29,-39,-24,-37,-89,-42,-20
1491089939958,2,-5,-8,-8,6,-24,-64,-66,-25
1491089939958,2,10,20,14,10,36,104,47,-7
1491089940005,3,8,6,28,55,26,52,5,47
1491089940005,3,2,4,-14,-53,-20,-41,-9,6
1491089940006,0,2,-4,-16,-90,-12,78,3,28
1491089940006,0,-10,-22,-13,120,14,-74,-48,-12
1491089940006,2,-5,-7,13,22,5,-40,14,-22
1491089940006,2,-1,-12,-12,-7,13,45,-5,-13
1491089940007,3,4,1,-14,-49,-38,-59,24,-2
1491089940007,3,-2,6,6,34,16,106,-26,-7
1491089940053,0,-1,7,10,11,26,-109,-23,-8
1491089940053,0,-5,-10,-6,4,-35,49,71,4
1491089940055,1,-1,10,11,-29,10,17,-45,-9
1491089940055,1,-3,0,3,-5,35,-4,3,-28
1491089940055,3,-20,-12,-5,-15,-9,21,-3,-17
1491089940055,3,9,-8,16,44,23,7,35,26
1491089940056,0,9,26,45,-13,-37,-9,-19,7
1491089940056,0,1,-10,-22,-14,16,-47,2,-32
1491089940152,1,-16,-19,-29,-36,-26,12,-2,17
1491089940152,1,9,-7,-7,-18,0,-43,-7,4
1491089940153,2,0,-14,-2,41,17,44,30,20
1491089940153,2,-11,3,22,31,-16,-2,-75,-21
1491089940154,0,-7,0,1,-2,-1,-6,-1,-2
1491089940154,0,5,12,19,7,-27,-9,-3,10
1491089940154,1,1,-8,6,-9,54,44,-12,-14
1491089940154,1,-8,11,0,25,8,-59,11,5
1491089940200,2,-4,-18,-30,-21,-5,-7,-27,-25
1491089940200,2,8,5,13,12,-1,20,21,32
1491089940201,3,0,1,8,-18,-1,-13,-3,-3
1491089940201,3,-4,-20,-17,29,-45,37,-3,-17
1491089940202,1,-14,7,6,-10,1,-47,-68,-42
1491089940202,1,4,5,2,-6,13,45,15,19
1491089940207,2,-5,-4,-7,15,13,37,-11,-1
1491089940207,2,-9,2,7,-55,4,-15,-13,13
1491089940249,3,6,-14,2,89,-7,27,33,7
1491089940249,3,-7,-9,-20,-31,23,-31,14,7
1491089940250,0,9,0,-6,-16,-16,35,8,-10
1491089940250,0,-9,7,-5,-11,-7,-3,-28,13
1491089940253,3,4,-14,-11,-32,16,-41,38,37
1491089940253,3,5,-2,0,26,-5,31,1,-15
1491089940254,0,12,14,22,28,22,-8,-35,2
1491089940254,0,4,2,2,-49,-12,32,61,27
1491089940298,1,-5,11,7,48,34,-32,-7,5
1491089940298,1,-2,-19,-8,-38,-47,-23,-41,-20
1491089940299,2,-3,-7,-7,32,4,16,-9,5
1491089940299,2,-5,-12,5,34,-20,-7,19,-5
1491089940347,0,-1,-7,-18,-27,-27,-9,-19,-7
1491089940347,0,-8,-5,-4,34,-7,-70,69,-4
1491089940350,1,4,14,13,-4,13,15,-35,2
1491089940350,1,-5,-1,5,-21,21,51,-8,-20
1491089940351,2,5,0,21,-6,-4,42,41,7
1491089940351,2,-10,11,29,21,24,-52,-20,-17
1491089940352,3,-16,-24,-17,41,14,-67,-37,-3
1491089940352,3,0,-26,-56,-96,-61,-70,5,-8
1491089940395,1,-14,3,2,-37,-35,-40,37,-2
1491089940395,1,5,7,20,80,34,36,-27,17
1491089940396,2,-5,-11,-9,-35,-6,9,-3,-12
1491089940396,2,9,-4,8,33,-6,-1,26,-7
1491089940397,3,-3,11,29,18,39,-8,-72,-22
1491089940397,3,1,-2,-8,-2,-8,20,42,49
1491089940398,1,-1,7,-26,-40,-43,89,23,-13
1491089940398,1,-6,-21,-42,-85,-8,-31,-21,-26
1491089940443,2,0,4,13,15,16,-6,41,3
1491089940443,2,-4,14,44,79,61,10,-28,-38
1491089940444,3,3,8,8,-1,16,15,9,11
1491089940444,3,-9,-14,1,28,-13,7,1,-11
1491089940445,2,-11,-25,-33,-15,-25,-4,17,-9
1491089940445,2,17,24,45,20,52,26,-8,7
1491089940446,3,1,4,-8,-50,-95,-58,-14,-14
1491089940446,3,-5,-9,-10,51,58,10,-41,37
1491089940541,0,-1,6,34,71,59,28,20,9
1491089940541,0,16,4,-63,-96,-30,0,3,-3
1491089940541,1,-6,-35,-26,54,-14,-8,9,2
1491089940541,1,-5,-1,-7,-34,-30,-39,-9,-27
1491089940542,3,2,-6,18,7,16,-49,-25,-10
1491089940542,3,0,26,17,-24,7,19,-27,-8
1491089940543,0,-5,-3,-16,-31,-4,36,39,39
1491089940543,0,-7,-13,5,-11,-43,10,9,-31
1491089940590,1,0,-13,-47,57,27,13,17,24
1491089940590,1,-10,-18,-1,68,-22,9,-41,-50
1491089940591,2,11,9,18,-36,-22,-55,-16,31
1491089940591,2,-2,-1,-13,-19,4,29,6,6
1491089940591,0,15,9,-27,-61,-2,-88,26,12
1491089940591,0,-12,-53,-110,-128,-75,-33,-58,-33
1491089940592,1,-4,1,7,-37,-36,-20,-40,-32
1491089940592,1,-3,7,34,12,25,19,31,7
1491089940638,2,10,4,10,-9,-37,-22,-19,-18
1491089940638,2,-10,-4,-19,-10,33,21,-7,4
1491089940639,3,3,4,1,46,-26,52,26,-8
1491089940639,3,6,1,-7,-31,14,10,9,5
1491089940640,2,-5,-11,-25,-35,40,23,-9,-3
1491089940640,2,-13,-13,-11,82,10,10,6,18
1491089940643,3,10,-11,-7,-24,2,-13,13,30
1491089940643,3,-7,-10,5,6,-22,54,-17,-16
1491089940687,0,7,29,52,35,7,12,-21,6
1491089940687,0,-9,3,-1,-79,20,-15,-8,23
1491089940688,1,0,-16,-23,23,6,-7,61,4
1491089940688,1,-1,-9,-12,-122,-32,1,23,-1
1491089940690,3,5,15,43,-6,-8,38,-7,-1
1491089940690,3,-2,-11,-51,-83,-23,-72,43,-4
1491089940736,0,-4,9,16,55,16,-91,-48,-12
1491089940736,0,-2,-4,-25,-63,-35,70,45,27
1491089940737,1,-10,3,26,47,32,34,0,-31
1491089940737,1,13,16,52,98,33,39,-19,9
1491089940737,2,-9,-4,-38,-107,-42,15,22,-14
1491089940737,2,-5,-14,8,52,26,-1,-52,-17
1491089940738,3,0,14,5,-10,-2,-98,-5,25
1491089940738,3,-5,-10,-42,-7,22,79,29,-9
1491089940833,0,-4,-32,-43,6,-54,-31,-20,-3
1491089940833,0,3,4,16,-46,-23,8,-12,19
1491089940834,1,2,-1,-23,-27,-44,37,37,-31
1491089940834,1,-9,1,58,117,50,-3,6,6
1491089940835,0,9,8,2,-28,48,-91,14,14
1491089940835,0,8,-6,-17,10,-37,-12,12,-35
1491089940836,1,-6,-4,22,-78,-19,62,0,28
1491089940836,1,-1,-26,-73,52,-42,-18,-48,-1
1491089940931,2,-10,-2,33,67,47,5,3,-1
1491089940931,2,6,33,74,16,42,22,51,16
1491089940932,3,14,24,3,23,-44,-33,-18,34
1491089940932,3,-10,-30,-52,-48,-56,-36,-25,-39
1491089940933,2,11,12,-2,-81,-19,12,-37,-16
1491089940933,2,-12,-13,-47,-39,-50,0,-17,8
1491089940934,3,-14,-18,-9,118,23,-57,-27,-6
1491089940934,3,9,10,83,62,39,39,-6,17
1491089940980,0,13,45,84,-5,1,22,44,8
1491089940980,0,-12,20,-52,-91,-50,2,-17,-22
1491089940981,1,-16,-87,-117,41,-19,-88,0,-3
1491089940981,1,2,-28,-41,-15,-19,-22,-42,-15
1491089940982,0,-1,21,29,58,41,27,-18,14
1491089940982,0,10,3,40,43,54,-64,15,1
1491089940983,1,-3,3,-4,-15,-12,40,17,-13
1491089940983,1,-6,2,8,22,26,4,9,1
1491089941028,2,-5,5,11,22,-27,26,13,-27
1491089941028,2,-5,3,8,-34,15,-3,-34,35
1491089941029,3,10,2,-6,-67,-35,-49,-23,1
1491089941029,3,-1,2,-12,-20,79,30,47,-5
1491089941030,1,0,-3,-6,-5,-50,44,-27,29
1491089941030,1,-2,-1,-3,-23,22,-88,-25,33
1491089941031,2,-2,16,62,116,23,94,-3,-23
1491089941031,2,-7,6,-11,-64,-52,-85,5,7
1491089941126,3,-1,-10,57,87,107,74,2,-9
1491089941126,3,5,-3,-79,-66,-51,-66,-9,-14
1491089941127,0,-2,-18,-18,82,-2,27,22,10
1491089941127,0,-4,-13,3,-57,-35,4,26,-7
1491089941127,1,-5,10,-19,53,6,-15,-26,6
1491089941127,1,-20,-26,7,-8,3,49,1,-33
1491089941128,2,15,25,29,-58,-21,-38,-85,21
1491089941128,2,-16,12,8,110,55,48,-19,-33
1491089941174,3,8,-17,-34,-64,-2,-49,-26,-16
1491089941174,3,-10,-2,18,58,-30,107,22,-25
1491089941176,0,27,31,10,-26,18,3,-70,54
1491089941176,0,-15,9,-3,-46,5,-17,78,14
1491089941176,3,19,31,5,-5,59,-8,35,32
1491089941176,3,-15,13,20,100,45,-49,12,0
1491089941177,0,3,-17,-10,-22,-18,26,-9,-1
1491089941177,0,-9,-2,-14,-53,-27,90,32,-16
1491089941223,1,11,12,56,77,40,39,18,4
1491089941223,1,-10,3,-1,-31,-46,-69,-62,-43
1491089941321,2,1,3,-30,-20,13,-31,27,15
1491089941321,2,4,-15,12,12,-38,-8,-49,1
1491089941322,0,-9,5,15,97,7,-37,-33,-12
1491089941322,0,2,-2,9,39,38,-24,-56,-13
1491089941322,1,-8,-5,23,94,31,55,92,16
1491089941322,1,2,2,-37,-107,-38,-39,-81,28
1491089941418,2,5,-12,-15,-53,-2,17,41,19
1491089941418,2,12,16,26,29,32,47,14,25
1491089941419,3,0,-3,-44,-61,-25,-39,-59,-19
1491089941419,3,8,11,48,127,40,62,63,16
1491089941565,1,1,-12,2,-7,31,51,-6,5
1491089941565,1,-8,10,42,-28,-49,38,6,-8
1491089941566,2,3,0,-36,-1,17,-113,9,8
1491089941566,2,-19,-17,9,66,8,21,9,-15
1491089941567,3,-4,2,9,-93,-15,67,-24,2
1491089941567,3,-8,-9,-55,3,53,-128,-65,-12
1491089941568,0,-2,-17,3,92,52,-2,-28,-9
1491089941568,0,11,24,55,7,6,108,13,-18
1491089941614,1,10,-2,-14,34,17,-86,-19,-3
1491089941614,1,-6,-15,11,-7,7,71,7,-8
1491089941615,0,1,5,25,-48,-27,-17,-1,-3
1491089941615,0,-5,1,-21,14,46,48,47,-12
1491089941616,1,-13,-27,3,105,16,-31,12,-12
1491089941616,1,-8,1,-18,-38,-21,-10,-8,-22
1491089941617,3,-3,5,24,39,47,67,56,26
1491089941617,3,-14,-28,-59,-113,-38,-41,-38,-17
1491089941662,0,-6,-5,3,88,4,14,25,-14
1491089941662,0,8,8,-13,-32,-33,-54,-1,9
1491089941663,1,-8,-1,-5,-42,-14,57,77,-20
1491089941663,1,-2,3,5,7,6,-90,-39,-2
1491089941665,0,2,8,12,-21,12,23,68,-18
1491089941665,0,2,-7,0,4,-13,-46,31,-6
1491089941760,1,-5,-2,-11,-15,-17,-20,-69,-18
1491089941760,1,-1,-2,12,48,0,14,30,67
1491089941761,2,2,6,-20,-27,11,-8,-89,-10
1491089941761,2,-10,-5,17,-4,1,75,70,-44
1491089941809,3,3,8,4,-4,-31,-51,127,37
1491089941809,3,4,6,19,42,51,11,10,-13
1491089941811,1,-10,-17,-12,66,-18,10,-5,-30
1491089941811,1,-6,6,28,41,35,14,-17,-31
1491089941812,2,-3,4,-17,-104,-64,18,26,15
1491089941812,2,-5,-15,-42,-1,22,-59,-113,13
1491089941813,3,2,-9,8,-32,-30,24,-42,9
1491089941813,3,1,13,-16,21,8,-26,16,-19
1491089941858,2,0,-19,-31,-44,-49,-1,32,-21
1491089941858,2,-8,7,30,70,55,13,29,-21
1491089941860,3,-16,4,-4,-17,-25,47,12,-10
1491089941860,3,0,-17,-27,-45,-26,-78,-66,-12
1491089941861,0,-3,6,9,-2,-2,-20,-35,16
1491089941861,0,-13,-26,-22,-1,6,-7,3,-29
1491089941862,3,-2,20,22,3,-18,-22,-44,-19
1491089941862,3,-18,-17,-10,3,-3,32,36,6
1491089941906,0,0,6,20,-30,21,38,-59,3
1491089941906,0,1,-4,-24,-12,-41,-57,-21,-5
1491089941909,1,1,-10,-24,19,19,2,-35,5
1491089941909,1,7,0,11,-30,-21,-24,0,24
1491089941911,0,-1,-8,-5,72,4,-17,24,0
1491089941911,0,5,3,42,22,13,51,-36,1
1491089941912,1,-6,1,-28,-69,-25,-3,-11,-27
1491089941912,1,-2,-2,-18,1,22,-22,-41,-21
1491089941955,2,5,9,4,20,20,-32,-13,9
1491089941955,2,4,5,0,-46,-6,39,-35,-4
1491089941957,3,-11,-20,3,59,0,6,35,-17
1491089941957,3,2,7,20,33,9,-64,-8,-8
1491089941959,1,4,-18,-21,-19,-14,-12,-31,12
1491089941959,1,-16,-11,-2,8,-23,41,31,-15
1491089941960,2,3,2,0,-11,-7,-18,67,-16
1491089941960,2,4,19,25,-27,25,-18,0,-14
1491089942052,3,-10,-12,6,10,-20,17,20,9
1491089942052,3,4,2,-10,8,-20,23,-5,20
1491089942054,0,-10,-27,-1,32,2,9,-24,14
1491089942054,0,4,12,10,11,40,-33,0,2
1491089942056,2,-4,-10,6,7,-38,56,10,-26
1491089942056,2,2,10,-21,-72,-26,-87,6,8
1491089942057,3,-5,-17,-6,70,24,-23,-7,-50
1491089942057,3,12,20,36,45,9,34,40,13
1491089942101,0,-15,-6,-13,-27,6,-4,6,-28
1491089942101,0,0,-6,5,-6,-34,14,-15,-4
1491089942101,1,0,19,8,-26,11,7,65,31
1491089942101,1,2,-4,3,27,-6,-37,-41,11
1491089942102,0,-11,3,13,3,19,-36,8,-22
1491089942102,0,6,16,-6,-22,-26,37,16,-5
1491089942103,1,-13,-23,-38,-11,-37,-17,-2,4
1491089942103,1,-12,-3,22,31,60,15,-20,-39
1491089942150,2,8,1,-17,-16,-25,-72,21,-11
1491089942150,2,-8,-7,-8,-5,9,-1,20,-20
1491089942151,3,12,15,15,-17,-21,51,16,17
1491089942151,3,-8,-1,-9,12,-2,38,-26,-32
1491089942151,0,4,4,33,30,26,20,-60,3
1491089942151,0,9,15,7,-24,14,0,-68,27
1491089942152,1,3,-8,-17,-13,20,-19,-87,22
1491089942152,1,-5,-22,5,28,8,11,58,-23
1491089942198,2,-1,2,-22,-20,-18,-13,58,2
1491089942198,2,-6,-9,-2,-38,-14,6,-46,-4
1491089942199,3,1,9,17,31,-29,-25,-20,-13
1491089942199,3,0,9,5,-23,15,32,59,25
1491089942200,1,-15,-21,-31,-28,-31,-78,-35,-19
1491089942200,1,1,-17,-7,24,-30,-50,14,-27
1491089942201,2,-17,1,-5,-23,25,66,46,-9
1491089942201,2,24,30,19,-42,4,5,101,7
1491089942247,3,0,-5,1,19,11,4,63,-22
1491089942247,3,15,14,16,31,23,-6,54,24
1491089942248,0,1,-7,-36,-59,-27,4,-3,4
1491089942248,0,-11,-19,0,24,-5,-36,36,-14
1491089942248,2,-5,-2,4,56,31,-54,-79,-4
1491089942248,2,0,-6,16,-5,19,36,-35,-4
1491089942249,3,0,3,-16,-88,-71,27,-16,16
1491089942249,3,-3,3,4,18,26,-38,-37,-32
1491089942393,0,6,4,22,44,24,36,6,24
1491089942393,0,-15,-14,-31,-52,4,-25,19,-38
1491089942491,1,4,-11,10,70,7,12,-82,18
1491089942491,1,0,5,4,-36,-14,-4,-18,-2
1491089942492,3,-1,8,-3,-46,46,-63,-69,4
1491089942492,3,-8,-7,-40,30,-7,-8,-69,-12
1491089942493,0,-4,-31,-38,-28,-26,-46,31,19
1491089942493,0,-7,13,35,52,13,26,-22,12
1491089942493,1,16,14,17,-2,20,57,44,-17
1491089942493,1,17,7,27,23,-4,-57,-15,51
1491089942540,2,-1,-5,7,-6,61,46,12,-9
1491089942540,2,-8,2,-17,-10,-67,-38,-20,56
1491089942541,0,28,4,19,-2,-12,10,-81,65
1491089942541,0,-3,10,18,21,-18,19,-75,-9
1491089942541,2,6,2,14,29,54,-60,-54,26
1491089942541,2,-13,-29,-25,-11,-51,-14,-55,-18
1491089942542,3,12,22,25,61,-2,8,87,-13
1491089942542,3,4,-1,-17,-5,7,-28,91,33
1491089942588,0,-10,3,-16,-56,2,-27,64,-10
1491089942588,0,9,4,39,90,37,29,-70,-7
1491089942589,1,-11,-3,-15,-28,-8,-19,-101,-13
1491089942589,1,7,-17,-6,-23,-24,29,-2,26
1491089942589,0,2,-6,-47,-76,-29,-6,-21,-1
1491089942589,0,-4,-12,-8,50,9,44,44,8
1491089942590,1,3,-1,21,11,7,-32,52,-8
1491089942590,1,-18,-25,-9,-66,-35,12,32,-13
1491089942637,2,9,43,22,92,-14,-64,-119,34
1491089942637,2,-1,10,28,60,73,33,-78,-13
1491089942638,3,3,2,-13,-67,-50,7,-68,-1
1491089942638,3,-10,-24,-33,-66,41,-35,-68,11
1491089942638,1,-9,-6,-2,44,48,-52,-6,6
1491089942638,1,4,12,-4,-80,-82,-52,-66,-16
1491089942639,2,0,-3,16,97,53,35,-15,-34
1491089942639,2,-6,-1,10,-12,-1,31,4,2
1491089942686,3,6,-7,-4,-26,11,26,62,12
1491089942686,3,8,16,-6,29,-2,-38,-10,-3
1491089942687,0,-15,-5,41,2,17,-11,19,4
1491089942687,0,13,3,-44,-29,13,100,14,-14
1491089942687,2,3,7,-6,-42,1,19,44,-19
1491089942687,2,-4,-9,-4,4,15,-74,-61,2
1491089942688,3,-6,-15,-11,7,-14,44,60,5
1491089942688,3,6,21,25,43,65,-12,1,34
1491089942734,0,9,-11,10,42,-7,61,80,7
1491089942734,0,0,9,-5,-6,12,-67,30,-24
1491089942735,1,-5,-21,-24,-35,-9,39,14,-15
1491089942735,1,-24,3,9,29,-36,6,-5,-31
1491089942736,3,-2,9,-7,59,42,37,-24,-1
1491089942736,3,-16,-29,-29,4,-6,-12,-7,-24
1491089942737,0,-1,-2,-3,-2,2,-27,-48,-16
1491089942737,0,0,5,8,-1,18,12,24,20
1491089942783,1,1,21,21,-22,-47,-8,-23,-12
1491089942783,1,1,-1,16,24,37,39,6,-22
1491089942785,2,-17,-32,-62,-55,-51,3,28,-7
1491089942785,2,6,12,9,26,-42,35,4,-1
1491089942786,0,2,28,-6,15,20,-25,-44,-15
1491089942786,0,-2,8,10,-30,-36,41,36,7
1491089942786,1,-5,-5,16,16,-10,-70,8,7
1491089942786,1,12,33,10,-51,22,28,-13,-32
1491089942832,2,-13,-19,-7,-28,36,14,30,-34
1491089942832,2,-3,-27,-31,67,-2,-18,-31,-29
1491089942833,3,1,12,18,26,-5,-17,-1,-48
1491089942833,3,-1,-21,-20,-43,-52,41,1,-12
1491089942834,0,-5,1,20,-4,-21,49,0,-9
1491089942834,0,6,18,6,-9,24,-85,31,-14
1491089942835,1,-9,-15,7,21,55,18,-26,-4
1491089942835,1,6,20,-4,-44,-39,-3,-57,0
1491089942881,2,-2,-12,-9,-52,-75,20,39,6
1491089942881,2,-8,-13,-17,50,13,-112,34,14
1491089942930,3,20,-3,-27,-46,-6,70,44,46
1491089942930,3,-2,0,5,106,27,-20,57,51
1491089942935,1,7,5,-10,-9,24,69,-62,40
1491089942935,1,-1,3,-32,-19,-12,-119,-30,0
1491089942935,2,-7,-3,10,6,-46,36,-12,-19
1491089942935,2,2,-14,-5,-7,67,-46,-67,-25
1491089942936,3,-1,-3,-12,-39,-21,0,31,-9
1491089942936,3,0,-7,7,32,-16,39,-5,-9
1491089942979,0,-5,4,1,-17,-7,45,3,-21
1491089942979,0,-9,-9,14,35,57,-58,29,-12
1491089942980,2,0,7,-7,27,1,30,29,2
1491089942980,2,11,8,17,0,32,16,-98,11
1491089942981,3,-4,-24,-26,-63,-6,-64,100,-30
1491089942981,3,-18,-9,23,48,-11,115,14,-32
1491089942982,3,-3,-2,13,55,-17,14,-51,-43
1491089942982,3,19,11,27,59,38,63,38,-8
1491089943028,0,-14,-33,-43,-19,37,-81,11,-53
1491089943028,0,0,-12,-22,-94,-96,87,50,-2
1491089943030,1,-2,16,8,-31,8,89,100,66
1491089943030,1,-1,-6,-9,90,45,-19,-27,56
1491089943031,0,-1,-7,-14,-36,-2,-43,-123,-11
1491089943031,0,-13,-24,-40,17,-18,-27,-51,-13
1491089943032,1,8,-1,-8,-10,-22,-7,-23,-34
1491089943032,1,4,9,32,-1,14,-30,-9,19
1491089943174,2,-18,-4,2,45,-18,-46,-6,29
1491089943174,2,-4,-4,-9,-12,3,53,0,47
1491089943175,3,7,11,8,16,14,-108,49,88
1491089943175,3,-4,-7,-26,-52,-41,50,75,12
1491089943176,1,-7,-7,7,56,26,61,74,-4
1491089943176,1,-15,-17,-35,-78,-14,-107,93,-7
1491089943176,2,13,16,-15,-70,-85,8,-33,8
1491089943176,2,10,34,53,77,81,82,32,-1
1491089943222,3,-1,-1,12,-25,8,-6,-46,-26
1491089943222,3,-7,-12,-22,-3,-8,10,-125,-14
1491089943224,0,-11,-13,3,13,-22,-34,-90,-18
1491089943224,0,5,-14,-4,-26,6,-10,-75,23
1491089943225,3,-20,-4,7,-1,-1,37,18,-77
1491089943225,3,11,23,36,14,-18,40,94,18
1491089943226,0,-22,-17,-34,-32,-23,-25,-62,-37
1491089943226,0,23,16,9,18,1,-37,-39,14
1491089943271,1,-2,-10,4,-16,31,80,-31,-10
1491089943271,1,-23,-6,-35,11,-28,-38,-63,70
1491089943273,2,8,-26,-2,65,-3,22,35,38
1491089943273,2,-2,14,14,-5,-8,-25,-21,36
1491089943274,0,11,-10,-3,1,43,-82,-82,35
1491089943274,0,-1,16,1,13,-29,47,16,7
1491089943275,1,4,-3,8,-5,26,-63,22,38
1491089943275,1,-11,-35,-39,-50,-18,53,5,-19
1491089943369,2,19,26,0,-13,-29,6,64,24
1491089943369,2,1,14,10,48,38,51,-5,-31
1491089943371,3,-4,-7,-21,-23,-13,-15,-50,-18
1491089943371,3,-9,-16,-6,49,16,-57,-35,10
1491089943372,1,-5,-3,-5,-11,-18,86,91,-8
1491089943372,1,14,-19,-21,-4,-5,15,-79,-32
1491089943373,2,16,43,22,-46,-5,-79,39,-16
1491089943373,2,-7,-12,2,30,4,-119,-82,-9
1491089943417,3,-16,-9,-15,-2,15,26,24,19
1491089943417,3,13,-10,3,-6,-3,46,-20,-30
1491089943466,0,0,17,21,10,-14,25,61,8
1491089943466,0,-7,-10,-28,-27,-15,-85,-70,-22
1491089943467,3,-12,-8,-5,-21,-33,83,-22,-17
1491089943467,3,10,11,17,-58,1,3,40,-1
1491089943468,0,-34,-41,-34,75,26,9,-30,14
1491089943468,0,-4,4,14,0,-23,10,-19,-29
1491089943469,1,12,0,-8,17,22,-33,6,33
1491089943469,1,-10,-28,-28,4,-48,1,-17,-1
1491089943515,2,5,16,20,3,-5,-33,11,10
1491089943515,2,7,15,10,-59,-10,42,-8,10
1491089943517,0,3,-9,-32,-64,30,-7,58,-6
1491089943517,0,5,-17,-18,13,-19,100,-42,11
1491089943518,1,-9,16,15,-8,-53,7,23,-11
1491089943518,1,-4,14,35,56,32,-35,59,-9
1491089943519,2,-7,-11,-15,-21,-16,15,-19,-17
1491089943519,2,-6,2,0,-63,-53,8,4,7
1491089943564,3,18,9,12,83,62,-19,-23,3
1491089943564,3,0,-4,-10,-10,11,33,-27,11
1491089943566,0,-17,-28,-5,9,-8,54,-75,-21
1491089943566,0,-1,43,31,19,-10,-99,52,20
1491089943567,1,-3,-7,-4,-39,-18,3,-46,-26
1491089943567,1,3,-14,-4,18,50,43,44,26
1491089943568,2,2,9,-18,-59,-36,-13,34,40
1491089943568,2,-11,-18,-8,76,25,-25,-61,-24
1491089943613,3,5,6,-12,-62,-35,37,28,-26
1491089943613,3,13,8,-9,-51,9,-12,31,-7
1491089943615,0,-24,2,38,89,14,37,-17,-21
1491089943615,0,5,-13,-11,-24,4,-2,34,24
1491089943616,2,-1,4,-13,-65,15,16,7,-10
1491089943616,2,-9,-9,11,49,38,0,-10,-14
1491089943618,3,5,-20,-15,-43,-37,-29,-12,-18
1491089943618,3,1,-4,-19,17,-22,-38,-8,10
1491089943661,0,12,20,49,-11,35,7,-3,7
1491089943661,0,10,0,-14,21,-1,62,38,-44
1491089943664,1,-19,-35,-26,-43,-12,-11,22,1
1491089943664,1,-1,26,2,-39,-8,6,-35,0
1491089943665,3,9,13,10,12,14,52,40,81
1491089943665,3,-10,-18,-29,-21,-15,12,55,-35
1491089943666,0,8,5,7,8,9,-26,94,3
1491089943666,0,-7,-4,-7,-49,-18,-35,77,8
1491089943710,1,-6,8,-8,31,-6,80,-1,-26
1491089943710,1,-3,-2,16,42,14,-77,-13,17
1491089943759,2,-4,9,1,-8,-26,50,-14,6
1491089943759,2,2,5,13,-17,-3,-93,-64,23
1491089943807,0,-1,-9,-39,-47,-62,99,-44,31
1491089943807,0,11,9,-1,-6,29,-51,-25,-8
1491089943809,1,-9,-6,-11,-49,-27,-26,-6,-26
1491089943809,1,14,-3,23,53,45,12,87,82
1491089943810,2,1,27,23,-24,-29,0,41,-20
1491089943810,2,-5,0,-4,38,-31,21,11,14
1491089943811,3,9,-1,-15,-20,30,-15,-4,-29
1491089943811,3,2,-9,-17,-10,-16,4,-47,-9
1491089943905,1,-3,13,12,-28,-16,-22,-48,-20
1491089943905,1,-11,-22,-21,-1,-40,3,-94,-9
1491089943907,2,-6,-10,-25,6,-36,-39,68,-14
1491089943907,2,1,-15,-14,-40,-18,-3,-12,27
1491089943908,3,-11,-8,-23,9,-10,16,-52,-33
1491089943908,3,-9,-8,14,41,16,-59,-19,-25
1491089944002,3,8,-5,-7,-12,4,2,-10,-30
1491089944002,3,1,6,22,39,0,51,-14,-4
1491089944003,0,-8,-6,6,14,-4,-19,-51,-29
1491089944003,0,-14,0,3,-1,2,65,31,14
1491089944003,1,12,-6,-35,-52,-33,-56,-26,27
1491089944003,1,4,5,-8,-20,11,-19,-35,-18
1491089944051,3,-5,-15,-16,-16,-27,4,-5,49
1491089944051,3,2,8,15,17,45,28,-114,-16
1491089944051,0,6,-1,-11,-20,-6,-33,58,2
1491089944051,0,4,-11,-16,-52,-8,25,-15,6
1491089944052,1,4,1,22,39,6,-15,-55,-2
1491089944052,1,0,10,9,-14,-14,54,-14,-18
1491089944053,2,-8,-16,-11,-14,-8,-37,7,-4
1491089944053,2,9,8,28,55,43,30,22,11
1491089944099,2,-3,1,-7,-25,-1,-39,-39,-2
1491089944099,2,3,-12,-27,11,-20,-11,-49,37
1491089944100,3,-11,-17,-8,-53,-35,33,29,-9
1491089944100,3,12,9,14,68,37,-19,-28,19
1491089944101,0,-6,-6,-8,8,3,14,13,-6
1491089944101,0,-7,-10,-10,-27,-16,9,-68,14
1491089944102,3,7,-14,-34,-39,-47,-18,45,-14
1491089944102,3,-12,-3,-11,-45,-13,-8,120,-15
1491089944148,0,5,3,15,41,24,71,3,-8
1491089944148,0,-7,9,0,-12,-9,-35,42,-19
1491089944149,1,-20,-5,-2,1,-16,-50,-3,-3
1491089944149,1,9,-8,13,1,22,51,-1,-15
1491089944150,0,4,4,-5,-37,-42,-67,-15,-9
1491089944150,0,-1,8,-9,-8,-40,49,-48,28
1491089944150,1,-5,-11,3,9,2,9,50,6
1491089944150,1,-2,12,-11,-41,20,-1,31,-20
1491089944246,2,5,-10,-2,7,22,38,0,21
1491089944246,2,-11,-1,-9,52,-25,-76,-30,-36
1491089944247,3,1,-4,-2,-4,34,-23,13,-3
1491089944247,3,3,-5,13,-26,-57,73,-19,-31
1491089944248,1,23,-8,-11,73,51,13,34,0
1491089944248,1,-9,-1,-9,-37,-37,2,-33,-20
1491089944249,2,-5,-16,-36,-29,-6,40,-9,6
1491089944249,2,-4,-3,-1,-20,24,67,-27,-37
1491089944294,3,0,17,14,10,-15,-40,-31,6
1491089944294,3,1,-1,18,21,32,-31,-31,3
1491089944295,0,-4,5,11,-6,1,2,-128,15
1491089944295,0,0,-2,-21,-3,-11,-8,-52,18
1491089944343,2,6,11,19,14,-9,19,0,-5
1491089944343,2,-2,21,25,-18,-12,49,-5,-2
1491089944344,2,23,3,-16,-48,-7,-4,34,-35
1491089944344,2,-11,-10,10,76,48,1,53,54
1491089944344,3,-4,4,20,-30,-69,28,22,-1
1491089944344,3,-1,-13,-27,7,1,-57,-12,8
1491089944345,0,1,7,-5,-89,-23,-15,10,-3
1491089944345,0,1,-4,4,108,53,13,125,-24
1491089944392,3,-6,19,13,7,18,45,-20,7
1491089944392,3,5,7,7,-18,45,43,-44,-28
1491089944393,0,-8,-12,-6,30,-43,2,-58,10
1491089944393,0,-14,-11,-27,-56,27,-28,-80,-36
1491089944394,1,-6,-14,-21,29,-26,-17,-6,33
1491089944394,1,-7,-7,19,36,-8,-16,25,8
1491089944394,0,-10,-12,13,83,40,28,66,-10
1491089944394,0,2,-5,9,14,-23,-26,66,14
1491089944441,1,3,15,0,-99,-37,18,14,-18
1491089944441,1,0,-12,-19,76,-1,-63,64,27
1491089944441,2,-9,-20,-21,-29,3,25,29,3
1491089944441,2,5,-7,-15,-20,-28,13,-50,20
1491089944442,1,1,-3,3,-61,-37,66,-40,57
1491089944442,1,-3,0,8,67,18,-28,-113,-58
1491089944443,2,-7,9,11,-43,27,10,-5,-12
1491089944443,2,-7,-7,-9,28,-17,-56,-31,-1
1491089944538,3,7,-4,-12,-21,-11,2,92,-19
1491089944538,3,-1,-14,4,34,21,17,45,21
1491089944539,0,-4,-3,-3,0,-16,38,26,-21
1491089944539,0,-2,24,45,19,17,0,-18,-9
1491089944540,2,2,-3,1,-8,-8,6,-20,-22
1491089944540,2,4,3,6,-6,10,-20,10,16
1491089944541,3,-7,3,17,21,4,-4,-28,-8
1491089944541,3,-10,-6,-8,-52,-32,42,-55,-12
1491089944587,0,-5,-12,-26,37,-13,-2,43,4
1491089944587,0,-1,-8,-14,-2,-8,20,-23,-17
1491089944588,1,12,6,21,33,28,13,-25,-3
1491089944588,1,9,-2,-5,-56,-2,9,9,39
1491089944588,3,-8,6,-3,11,9,59,-29,-11
1491089944588,3,1,2,9,-46,7,-77,36,-17
1491089944589,0,11,-9,-9,-5,-2,-42,-14,5
1491089944589,0,8,11,15,-29,-17,119,-56,22
1491089944636,1,-3,14,4,-55,-24,-91,-94,-16
1491089944636,1,-13,-15,-30,29,51,-28,-94,-35
1491089944637,2,-6,0,12,2,-13,84,-2,-1
1491089944637,2,25,6,-10,-54,-22,-49,46,82
1491089944637,0,-2,5,5,-10,16,46,59,12
1491089944637,0,-2,-6,-3,-7,-5,47,38,-36
1491089944638,1,-10,-4,-5,-40,-19,-31,2,0
1491089944638,1,11,13,13,22,-15,-20,39,16
1491089944733,2,6,13,14,11,42,-11,4,-37
1491089944733,2,-8,-21,-35,0,28,20,23,65
1491089944734,3,0,-12,6,53,15,48,40,-12
1491089944734,3,-6,1,-2,-42,-59,-13,8,-16
1491089944735,1,25,0,-9,-9,-3,29,76,73
1491089944735,1,-2,10,5,-35,-27,-20,67,-12
1491089944736,2,-2,6,13,16,-22,-26,74,-10
1491089944736,2,0,-4,-7,0,-1,-59,81,-23
1491089944782,3,-1,1,-22,-30,32,121,77,12
1491089944782,3,8,14,17,-77,16,-80,22,0
1491089944783,0,-2,-6,-28,81,1,-3,13,-1
1491089944783,0,-16,-24,-13,-1,-48,31,-10,-17
1491089944784,3,-9,-24,-37,51,14,-72,-44,5
1491089944784,3,0,-12,2,-10,-15,77,-20,19
1491089944785,0,-8,7,29,56,-2,-39,-44,4
1491089944785,0,18,6,-3,-30,4,15,-36,10
1491089944831,1,-8,3,8,3,-5,-18,25,-24
1491089944831,1,-7,-11,-29,-35,-29,11,8,7
1491089944832,2,4,3,24,46,13,8,-4,-14
1491089944832,2,-3,-4,-14,-52,-7,-35,41,3
1491089944832,0,16,1,-13,-46,-21,38,25,24
1491089944832,0,1,5,24,22,-26,65,35,-13
1491089944833,1,-22,-10,-23,-30,13,-73,55,4
1491089944833,1,-3,-12,-15,-30,-59,28,14,5
1491089944879,2,6,-7,-19,-38,-2,-40,-26,-7
1491089944879,2,16,-4,-12,58,39,55,15,0
1491089944881,3,2,15,8,-61,-54,9,-36,44
1491089944881,3,-3,-2,5,10,-9,6,22,-17
1491089944882,1,-10,-18,-18,-10,11,36,54,-20
1491089944882,1,2,11,8,31,-8,1,-2,1
1491089944928,2,15,9,-3,-28,35,-40,105,19
1491089944928,2,1,-10,-6,7,29,9,53,9
1491089944929,3,-5,6,-7,-31,-41,59,-3,-22
1491089944929,3,-11,-24,-4,42,-22,-75,58,-9
1491089944930,0,8,-3,-22,-30,17,79,40,-7
1491089944930,0,1,10,8,35,15,-55,14,-20
1491089945074,2,-17,6,-4,-27,-11,-119,-49,-11
1491089945074,2,-5,-8,-12,22,-12,-36,-52,6
1491089945075,3,-4,-8,4,11,-14,-8,-41,-10
1491089945075,3,11,-11,-22,-10,10,-13,3,-30
1491089945076,0,-5,-12,4,7,-10,-1,17,-21
1491089945076,0,-4,15,9,-7,-4,27,-24,-8
1491089945077,2,1,11,-1,-15,37,-32,9,17
1491089945077,2,4,2,4,1,5,24,-29,26
1491089945173,3,4,3,0,-16,9,27,-49,-7
1491089945173,3,-9,-8,-8,10,-7,-61,17,26
1491089945174,0,-13,-10,-9,12,-7,-24,-39,1
1491089945174,0,-10,-5,-3,-22,-15,8,19,-21
1491089945175,1,11,17,38,63,2,-13,-57,0
1491089945175,1,8,-2,-31,-31,6,51,-4,12
1491089945270,1,6,7,-16,-44,-10,-59,63,31
1491089945270,1,-11,-8,0,21,1,12,14,-16
1491089945271,2,4,-1,26,10,4,24,18,-17
1491089945271,2,1,-15,-42,-38,-29,-96,-6,4
1491089945272,3,3,0,-10,-15,-3,66,57,-20
1491089945272,3,-2,-5,-1,17,5,-81,4,22
1491089945273,3,4,12,-4,0,36,3,-35,15
1491089945273,3,0,4,0,6,-26,-3,-27,26
1491089945367,0,-3,-15,-22,-20,-4,-45,-25,9
1491089945367,0,5,15,26,27,9,53,-19,-5
1491089945368,1,-4,-5,9,-16,11,-9,-29,-32
1491089945368,1,-3,-15,0,40,-8,20,-12,2
1491089945370,0,-15,-14,-11,-6,-25,6,-58,-8
1491089945370,0,18,1,0,1,34,-74,-103,-3
1491089945371,1,-5,-17,3,-2,-11,43,-65,-7
1491089945371,1,1,22,6,27,-40,-50,-74,-32
1491089945417,2,-4,-5,-3,10,16,-8,36,30
1491089945417,2,-16,0,19,12,-28,2,87,-9
1491089945419,3,-4,-10,-24,-11,52,-28,76,-16
1491089945419,3,7,6,6,-18,15,-52,114,19
1491089945420,2,-4,-10,-9,-32,4,18,7,10
1491089945420,2,-3,12,2,-13,19,27,-9,-35
1491089945421,3,8,8,19,14,-3,42,-5,7
1491089945421,3,-10,-13,-18,-17,-53,-17,-35,-18
1491089945465,0,-8,2,3,-2,-9,-52,8,42
1491089945465,0,7,1,-4,16,50,35,21,-3
1491089945466,1,5,6,-8,-15,-46,-22,-54,43
1491089945466,1,-13,-8,16,68,51,60,22,-12
1491089945467,3,11,24,9,-9,7,13,-7,7
1491089945467,3,-3,4,-32,-66,3,-19,16,-2
1491089945469,0,10,-7,-4,53,7,33,-10,-7
1491089945469,0,-1,0,-8,-54,-27,-11,-21,9
1491089945562,1,-12,-11,19,113,33,-49,-54,-7
1491089945562,1,-2,-2,7,-49,17,38,-120,-26
1491089945564,2,8,2,-5,-1,-10,43,-99,-29
1491089945564,2,10,6,14,29,9,-85,-21,10
1491089945565,0,8,-5,0,-6,-20,-14,77,29
1491089945565,0,-3,-11,-18,0,-8,-14,67,-19
1491089945566,1,-13,-18,-9,-2,11,45,82,2
1491089945566,1,13,15,10,3,8,-28,-84,-17
1491089945611,2,-7,-1,0,-13,-27,-5,-91,-16
1491089945611,2,-2,-4,4,11,20,-17,-118,-34
1491089945613,3,7,30,20,50,33,48,-50,48
1491089945613,3,4,-12,11,-6,-4,-48,-7,-3
1491089945614,2,9,8,-17,-3,55,-77,-11,-3
1491089945614,2,-10,-16,-6,-23,-19,85,-36,18
1491089945615,3,3,4,-8,-50,-6,-95,-33,-35
1491089945615,3,-6,-7,-4,40,10,29,-15,25
1491089945660,0,-10,7,21,62,-18,48,33,-16
1491089945660,0,11,13,16,-50,1,3,-14,25
1491089945661,1,3,-11,-33,7,22,-3,-87,-48
1491089945661,1,-24,-27,-15,9,3,-2,-11,-18
1491089945757,3,0,-20,-4,-4,-51,49,-28,-4
1491089945757,3,15,7,16,-16,61,-88,-17,22
1491089945758,0,-3,-4,-1,-3,18,69,-4,3
1491089945758,0,-3,-9,-13,-32,-24,30,-29,-15
1491089945761,1,-26,-5,-5,5,-3,-68,-38,-6
1491089945761,1,15,4,-6,-4,-6,77,10,0
1491089945762,2,1,1,21,-7,0,-75,-35,-8
1491089945762,2,2,6,-13,-21,-12,-30,2,-30
1491089945806,3,-7,2,13,40,10,19,16,-2
1491089945806,3,0,19,-11,-44,-48,-34,-11,-3
1491089945806,0,-13,-12,-16,-29,-34,-19,0,-6
1491089945806,0,3,0,5,-72,29,6,-71,31
1491089945807,1,-4,0,9,104,29,-19,59,5
1491089945807,1,-3,-3,-6,-14,-23,25,-4,-45
1491089945808,1,0,12,21,35,10,-32,-5,-25
1491089945808,1,-17,-18,-23,-20,30,-3,4,-16
1491089945856,2,7,4,1,88,31,-58,40,3
1491089945856,2,-12,-8,-11,-15,0,17,-8,5
1491089945857,3,3,-12,-18,-25,-48,-29,-66,-45
1491089945857,3,3,16,12,-25,-2,11,33,16
1491089945858,2,-15,1,2,-23,-28,63,-1,-11
1491089945858,2,14,11,21,5,35,-39,10,28
1491089945859,3,9,-3,-14,5,4,-60,-53,-7
1491089945859,3,-2,-13,-4,-15,-48,40,34,7
1491089945952,0,-3,2,-6,38,30,-19,-24,-17
1491089945952,0,-3,-1,12,25,33,28,50,5
1491089945953,1,8,-16,-17,-23,-47,12,-28,5
1491089945953,1,-6,20,18,28,18,-29,-34,-4
1491089945954,3,7,-13,7,40,20,46,45,-1
1491089945954,3,-10,-2,3,32,-17,-64,-43,5
1491089946001,0,2,-16,-8,-8,64,11,-34,20
1491089946001,0,4,17,13,-58,-75,-26,-18,34
1491089946002,1,-10,-2,-20,-8,-10,12,14,-7
1491089946002,1,1,-10,-5,-13,22,-16,-21,2
1491089946003,2,-15,-8,4,7,-13,-20,54,-14
1491089946003,2,13,-7,10,43,21,52,-17,-10
1491089946004,0,-9,1,15,42,18,-14,27,2
1491089946004,0,3,-16,-27,-22,-32,-15,-13,-14
1491089946049,1,-5,0,18,72,68,16,6,42
1491089946049,1,12,-7,-29,-58,-23,-23,0,-26
1491089946098,2,-11,-11,-28,-29,-18,-43,-8,16
1491089946098,2,15,2,-13,-29,-14,55,1,-14
1491089946099,3,-5,-4,2,43,9,5,-22,-12
1491089946099,3,3,3,17,37,5,10,24,-11
1491089946147,1,2,-11,1,6,3,9,21,20
1491089946147,1,-7,18,43,41,25,42,-15,-32
1491089946148,2,8,11,0,-22,-59,-31,21,55
1491089946148,2,-13,-24,-49,-40,31,-10,6,4
1491089946150,3,4,-8,-23,-33,-39,-26,-73,-15
1491089946150,3,-25,-4,7,23,-6,-18,-21,-17
1491089946151,2,-6,-9,16,8,31,-81,15,-30
1491089946151,2,3,4,-11,16,-48,-42,-29,-13
1491089946196,3,-1,3,23,44,26,41,49,-2
1491089946196,3,2,10,-11,-15,13,13,16,3
1491089946197,0,4,-10,-10,9,-34,28,1,-18
1491089946197,0,-10,-6,-10,-30,-9,-58,-34,8
1491089946198,0,-18,1,-23,-35,-23,-4,-25,3
1491089946198,0,-10,1,4,5,-19,-8,-17,-20
1491089946199,1,13,-1,16,-72,2,21,61,26
1491089946199,1,-7,0,-26,21,13,-100,-19,2
1491089946245,2,4,0,2,22,-10,126,-18,17
1491089946245,2,-4,-6,-5,-3,-16,26,-16,13
1491089946246,3,-10,0,7,27,-31,-12,28,-40
1491089946246,3,4,1,11,-8,85,14,-35,16
1491089946247,1,-8,9,7,-2,-1,-2,-28,-11
1491089946247,1,-11,-8,-6,-40,-36,-1,8,-20
1491089946248,2,6,0,-9,-10,20,14,24,21
1491089946248,2,8,12,21,26,18,89,54,10
1491089946342,3,-15,-16,-17,-13,-11,-74,-99,1
1491089946342,3,8,-1,-4,-2,-13,-7,18,-15
1491089946344,0,11,-11,-3,-8,10,74,-23,-14
1491089946344,0,-5,13,30,70,29,-27,38,-1
1491089946345,2,-3,15,18,41,56,64,19,-7
1491089946345,2,4,-16,-28,-52,-34,-15,4,-16
1491089946346,3,2,-4,2,10,8,11,-38,-4
1491089946346,3,-12,11,15,-6,1,14,41,18
1491089946391,0,4,-12,-17,-14,-45,-32,28,-23
1491089946391,0,-7,-2,17,37,47,5,1,21
1491089946393,1,-3,3,-13,-27,-9,-18,14,-24
1491089946393,1,-4,-3,-8,-24,-21,33,-10,-2
1491089946394,3,-5,-17,-23,8,6,-32,-3,-1
1491089946394,3,2,16,7,-11,-21,21,-20,-20
1491089946395,0,4,-11,-16,-44,-29,-72,-20,23
1491089946395,0,2,-2,6,32,23,-36,-17,0
1491089946441,1,-2,5,-1,17,17,-10,-40,-4
1491089946441,1,-2,-15,-11,-8,-15,43,35,-29
1491089946442,2,5,3,17,42,32,-3,-21,71
1491089946442,2,4,-15,-10,-59,-15,34,-23,-42
1491089946443,0,1,9,-14,-37,-42,-100,15,-25
1491089946443,0,-8,-20,-21,15,15,4,-5,-19
1491089946444,1,-5,-10,0,-36,-36,-15,-9,-8
1491089946444,1,-6,-12,-2,11,5,60,27,-5
1491089946538,2,6,28,25,-1,36,-78,-39,9
1491089946538,2,-13,-16,-26,-42,-48,4,-26,-17
1491089946540,3,-2,6,6,14,20,12,18,7
1491089946540,3,7,-3,5,27,-5,36,16,-2
1491089946541,1,1,-2,-30,-81,-15,32,50,41
1491089946541,1,14,0,-31,-4,-5,2,-8,-9
1491089946543,2,-7,6,19,28,-4,49,-10,0
1491089946543,2,6,18,8,41,9,-30,-27,-6
1491089946586,3,-4,-3,25,45,50,29,22,3
1491089946586,3,0,-3,1,-34,-17,7,-4,-32
1491089946589,0,5,-9,-34,-29,12,-2,21,55
1491089946589,0,-4,1,12,-11,2,88,-2,-15
1491089946591,2,7,21,12,13,-19,-14,-17,5
1491089946591,2,-12,-4,16,-6,-22,12,8,-1
1491089946592,3,3,-11,-8,-13,-17,19,50,22
1491089946592,3,7,4,6,3,-12,-8,-22,61
1491089946635,0,-11,-5,26,35,55,-1,-20,-20
1491089946635,0,0,16,-11,-42,-25,19,35,18
1491089946637,1,1,-24,-30,34,-23,32,-22,-11
1491089946637,1,4,12,-4,-65,-35,-42,-34,-4
1491089946638,0,13,20,24,8,-13,-19,-5,2
1491089946638,0,-7,-7,-16,-54,-25,-27,-37,-38
1491089946640,1,-11,-8,3,40,11,-42,-21,-21
1491089946640,1,1,-18,-14,-7,28,28,6,28
1491089946684,2,-10,3,-7,-25,-14,-45,-17,-2
1491089946684,2,1,3,-10,34,-31,96,24,-9
1491089946685,3,-14,-17,-15,-21,20,-115,-3,-13
1491089946685,3,-2,11,14,11,10,-15,-34,-17
1491089946687,1,-12,1,5,42,19,27,1,13
1491089946687,1,-4,-5,-6,-2,-13,-6,-12,-17
1491089946733,2,-1,-14,-5,27,-12,30,4,30
1491089946733,2,-2,4,14,29,13,-87,7,0
1491089946735,3,9,2,5,-45,-46,16,-8,-1
1491089946735,3,-5,3,-23,-8,5,6,-12,-19
1491089946736,0,-9,-17,16,18,-19,17,-46,-36
1491089946736,0,3,2,-20,-16,23,18,61,10
1491089946737,1,-13,-13,-16,-18,16,-39,28,11
1491089946737,1,-2,-3,7,14,-8,1,3,-17
1491089946781,2,-7,-6,-12,-52,-36,16,-9,36
1491089946781,2,-2,5,21,50,43,-39,24,4
1491089946784,3,16,23,37,15,-3,-11,-16,9
1491089946784,3,-11,-7,-18,-7,-25,60,-6,-25
1491089946785,2,3,19,8,2,18,-33,-15,-1
1491089946785,2,-8,-17,-13,6,-1,-4,-7,-11
1491089946786,3,-2,9,14,-14,-27,4,17,3
1491089946786,3,3,-6,-8,2,28,5,37,-15
1491089946830,0,-7,0,6,-9,7,-15,-30,-15
1491089946830,0,1,5,0,-10,-2,-6,-33,-28
1491089946832,1,-1,-17,-38,-12,-37,-14,22,9
1491089946832,1,0,8,1,-29,20,26,37,27
1491089946833,3,2,-1,-16,-19,-39,-75,-43,12
1491089946833,3,9,3,9,-18,2,15,-24,10
1491089946834,0,-5,2,-9,-4,-31,6,6,-8
1491089946834,0,4,-9,21,89,70,60,2,6
1491089946878,1,-6,-5,-2,-8,-26,2,-29,-13
1491089946878,1,0,5,-12,1,1,-37,8,7
1491089946879,2,-3,-3,-4,-42,-8,37,-20,-29
1491089946879,2,13,1,-6,-15,3,-74,65,57
1491089946880,0,-8,-1,-16,-51,-18,8,51,1
1491089946880,0,-2,-15,-39,8,-21,-57,-50,-1
1491089946881,1,-4,-4,-9,-5,-3,16,50,-23
1491089946881,1,-1,-1,19,59,19,61,-20,44
1491089947024,2,10,5,11,-9,38,-53,44,5
1491089947024,2,2,-5,-20,-60,-57,-38,-20,-5
1491089947026,3,0,3,-9,-64,-44,48,9,6
1491089947026,3,-10,-2,5,72,19,-18,9,-5
1491089947027,1,-3,3,5,40,20,-6,27,-16
1491089947027,1,4,2,7,-60,-27,39,20,5
1491089947028,2,-13,5,9,-14,16,9,-1,1
1491089947028,2,0,-18,-23,-1,-37,-49,-64,-31
1491089947074,3,8,-3,-4,-12,0,-9,20,13
1491089947074,3,-6,-7,-3,-18,-21,27,24,-7
1491089947076,0,12,-5,-13,-15,-5,-59,10,13
1491089947076,0,2,17,40,36,42,55,42,1
1491089947077,2,-8,-25,-18,55,-5,0,-2,8
1491089947077,2,-3,17,17,-88,-77,21,1,-15
1491089947078,3,-5,-23,-3,63,15,-4,-12,-19
1491089947078,3,1,5,-10,-29,-21,6,-6,-5
1491089947219,0,-3,11,11,24,4,-22,-6,11
1491089947219,0,1,8,17,-2,-8,17,-48,4
1491089947220,1,-8,4,13,-16,13,-13,95,5
1491089947220,1,8,-6,1,26,2,-4,-35,-6
1491089947221,0,-15,-19,-12,56,21,-12,5,-17
1491089947221,0,5,16,15,-24,-36,8,20,-20
1491089947222,1,6,-8,-25,-81,-14,26,-29,34
1491089947222,1,-5,-4,-25,-30,-9,-10,-12,-15
1491089947318,2,-7,-12,-4,79,-9,-18,-44,-24
1491089947318,2,-19,-12,1,9,-2,-40,-1,10
1491089947319,3,18,16,12,6,30,12,21,-6
1491089947319,3,-4,-13,-1,-4,-34,40,-14,-18
1491089947415,1,-6,-1,10,12,16,-98,-22,7
1491089947415,1,0,10,-3,-43,-4,5,-25,-10
1491089947416,3,1,-2,-5,-43,-20,-36,-78,-15
1491089947416,3,-10,-18,-15,18,-9,-34,55,12
1491089947417,0,12,28,24,18,49,25,-40,-17
1491089947417,0,7,-3,-17,-17,-55,14,23,30
1491089947418,1,-12,-10,-26,-2,18,-23,3,-33
1491089947418,1,-6,-12,4,54,4,-36,-20,4
1491089947708,0,-18,-12,-15,30,1,5,-17,6
1491089947708,0,-7,-9,1,24,25,-33,-8,-27
1491089947710,1,10,-6,-7,-9,38,40,29,-5
1491089947710,1,-5,-4,0,4,5,27,-32,-4
1491089947719,2,-6,6,25,-24,-52,-30,1,23
1491089947719,2,-2,-9,-36,3,11,-10,-2,-29
1491089947720,2,14,17,26,46,20,-23,13,-8
1491089947720,2,-4,11,-6,-47,15,78,54,21
1491089947756,3,-4,-14,-12,32,-21,-95,-17,-13
1491089947756,3,-8,-10,-10,27,23,44,-9,27
1491089947758,0,-6,5,16,-30,-14,-30,-18,-10
1491089947758,0,-7,-17,-13,11,22,5,-61,-32
1491089947759,0,-6,6,10,21,22,54,11,11
1491089947759,0,4,-2,-15,-10,-9,-42,-47,-11
1491089947761,0,-1,-5,1,11,18,48,-33,-9
1491089947761,0,9,21,24,21,-28,24,-9,1
1491089947805,1,-12,6,14,38,10,-43,-10,-9
1491089947805,1,9,-3,-39,-53,-25,-59,4,-8
1491089947806,2,-6,-12,-11,4,10,26,-15,-9
1491089947806,2,-11,-11,2,-16,-12,-22,4,-20
1491089947807,0,-5,-11,-10,11,23,-86,40,7
1491089947807,0,-12,-17,-12,-24,-30,-10,-36,-27
1491089947808,1,5,17,21,13,1,-32,-16,13
1491089947808,1,-10,-3,-17,-20,28,42,21,-26
1491089947853,2,-11,-1,13,20,8,29,2,6
1491089947853,2,2,2,-17,-77,-43,6,-54,12
1491089947854,3,-10,-10,-4,37,-6,-10,12,-30
1491089947854,3,2,-7,7,23,12,-35,39,21
1491089947855,1,-2,-8,-14,-7,2,17,-47,-1
1491089947855,1,0,-4,-8,-14,3,-45,-2,2
1491089947856,2,4,12,21,60,45,5,24,-16
1491089947856,2,6,16,38,6,5,40,-20,0
1491089947951,3,-12,-14,-53,-26,-39,-36,-14,16
1491089947951,3,4,-11,-5,-4,-18,-101,-11,5
1491089947952,0,8,0,9,-10,1,59,16,10
1491089947952,0,-4,6,1,26,22,36,18,-33
1491089947952,2,-5,-4,-1,-64,-48,-32,-69,-16
1491089947952,2,0,-6,-9,64,13,-42,54,17
1491089947953,3,7,-6,-5,-26,9,-3,-28,-21
1491089947953,3,2,15,31,70,39,56,17,4
1491089948001,0,5,3,-10,-44,6,-9,9,-2
1491089948001,0,2,-10,-10,18,11,-38,-44,9
1491089948004,1,6,-5,-12,-41,-24,29,-33,-22
1491089948004,1,-1,-4,3,35,8,-17,-42,65
1491089948005,3,2,-11,8,25,-28,3,46,16
1491089948005,3,-1,4,5,-29,29,-16,-18,-39
1491089948005,0,-12,-7,-13,-9,-18,-40,-9,-8
1491089948005,0,6,-11,4,17,-21,48,9,7
1491089948048,1,-22,-6,-8,-4,-1,-84,-55,-13
1491089948048,1,1,1,-5,-2,-11,-6,63,2
1491089948058,2,3,3,14,-23,-17,-6,-49,5
1491089948058,2,-7,12,-7,-3,6,0,18,-8
1491089948058,1,-5,5,6,14,12,10,-36,21
1491089948058,1,8,9,-3,-8,-19,39,34,11
1491089948059,2,-5,-10,1,48,7,-40,-3,1
1491089948059,2,9,6,9,9,39,26,55,26
1491089948146,3,0,6,-4,-58,-41,-31,6,-22
1491089948146,3,4,-14,-16,8,-16,-25,4,-17
1491089948147,0,-25,-19,-11,8,8,65,37,-20
1491089948147,0,10,-2,10,-3,19,-53,53,32
1491089948148,2,4,13,3,27,24,-24,21,-3
1491089948148,2,-11,-6,7,4,16,21,-68,-6
1491089948150,3,-15,-16,-11,-4,5,50,-25,-12
1491089948150,3,-1,4,-16,-91,-58,10,-4,-9
1491089948342,0,4,-11,-11,51,-2,-29,73,4
1491089948342,0,7,9,27,16,7,-39,21,-5
1491089948345,1,11,-4,-24,-10,-6,-11,-18,17
1491089948345,1,-25,-13,-5,-24,-8,8,-29,-21
1491089948346,2,0,2,8,19,23,0,-106,-33
1491089948346,2,7,4,15,10,-25,-7,-27,-6
1491089948346,3,6,15,16,14,-18,-46,6,10
1491089948346,3,-3,0,4,21,10,-3,-16,5
1491089948390,0,3,6,3,-51,13,42,-49,-14
1491089948390,0,-8,-2,-1,26,-2,-12,-4,5
1491089948392,1,2,-7,7,23,-22,12,36,31
1491089948392,1,9,13,4,13,-10,-1,-54,-33
1491089948487,0,11,8,6,-3,6,9,-17,6
1491089948487,0,-8,-7,-13,-30,-13,-1,-8,2
1491089948489,3,-5,0,2,90,5,-15,-24,-11
1491089948489,3,11,-5,2,6,-29,-77,18,19
1491089948490,0,-9,-8,4,28,20,50,-26,-25
1491089948490,0,-4,-2,8,-10,33,39,-2,33
1491089948536,1,2,16,16,-61,-4,-43,30,20
1491089948536,1,-8,-8,-3,45,20,1,-30,28
1491089948537,0,2,-2,-11,-29,21,-19,1,-19
1491089948537,0,-4,-6,-7,3,-3,6,-36,-1
1491089948538,1,-11,-3,-6,7,-26,7,21,12
1491089948538,1,6,-1,20,-47,1,2,4,-8
1491089948539,2,-3,-4,-50,-18,-40,-96,-30,-29
1491089948539,2,-13,-20,-24,-7,-1,17,-32,-21
1491089948633,1,-8,1,4,10,27,15,-14,14
1491089948633,1,-9,12,19,30,20,-47,28,-12
1491089948634,2,-3,-4,0,-1,-10,57,-13,1
1491089948634,2,-2,-9,-3,-38,-59,18,-19,-18
1491089948634,3,5,-4,-1,-34,15,-13,-29,-12
1491089948634,3,-6,-4,-14,40,-2,-9,13,4
1491089948635,2,-4,2,20,39,21,-22,11,11
1491089948635,2,14,-3,-6,-19,2,-17,-8,4
1491089948682,3,-5,-22,-17,10,3,-18,12,-13
1491089948682,3,-8,12,16,1,5,28,-31,-20
1491089948684,0,8,-8,-31,-18,-2,60,19,10
1491089948684,0,0,12,13,5,-4,-10,12,29
1491089948685,0,11,6,3,20,-21,0,36,86
1491089948685,0,-5,2,-4,-14,-11,8,14,-13
1491089948686,1,7,2,-23,-29,14,-24,9,-19
1491089948686,1,-6,-3,20,44,7,-6,-71,-8
