1490742775419,-23,-104,-73,10,33,-6,25,-4,36,90,-2,-45,-106,-26,-62,-43
1490742775468,-13,-20,-2,-45,-76,-59,-97,5,12,-89,-19,-4,-60,-40,16,-16
1490742775470,48,-3,-24,-41,87,33,-33,20,-122,-27,3,-10,34,6,-11,27
1490742775517,95,-29,-17,-126,-44,10,86,35,-108,-34,-40,-38,51,92,58,-58
1490742775566,-22,60,26,-25,-94,-35,9,19,-11,-83,-13,-67,-128,-128,-27,-16
1490742775662,12,13,25,72,119,69,-14,69,-56,-76,-5,-36,3,85,-70,-40
1490742775665,17,27,-4,7,-14,98,28,-1,73,80,26,10,36,57,-3,-2
1490742775711,-47,27,-9,-19,-90,34,49,-17,-66,-22,-22,-2,105,-76,-55,-55
1490742775712,-43,-3,-8,27,96,9,94,-5,127,125,35,79,-24,127,-66,36
1490742775760,99,-27,-25,-43,0,-26,-124,-71,-65,-77,-6,-100,-124,38,102,21
1490742775809,48,42,-12,56,-15,-33,-3,-24,26,45,9,27,127,105,37,47
1490742775858,-128,1,-26,-98,-121,78,-105,-43,-58,-37,-4,60,-101,-128,-33,-20
1490742775906,15,24,11,-19,-79,127,70,71,12,-110,-42,-92,-86,-100,-128,-119
1490742775908,65,37,-2,11,99,-57,-59,-28,42,45,12,29,127,127,65,39
1490742775955,1,15,10,93,53,-4,64,65,40,-27,5,-28,-88,-16,-60,-78
1490742776004,-74,-6,9,-10,-82,23,53,-52,79,24,18,-4,83,-38,51,102
1490742776053,64,-37,-23,-35,-11,64,30,1,-128,-43,3,-47,40,78,-4,-43
1490742776102,-4,2,32,-14,-32,-51,-26,-17,-38,114,-25,1,67,124,127,-4
1490742776150,-84,-102,-50,-91,-128,32,48,-78,-36,-107,-15,-25,58,-110,-94,49
1490742776151,91,101,45,91,127,127,122,107,5,31,1,45,-123,78,112,-82
1490742776199,8,-88,10,63,50,-71,-111,-76,-13,-20,23,26,-79,37,-107,15
1490742776248,1,24,-9,-118,-105,-84,-53,4,10,-67,-9,-59,51,-16,106,19
1490742776297,-8,3,6,38,33,95,-17,-31,15,29,3,-16,90,94,98,86
1490742776345,-69,30,-10,-60,-93,121,71,121,113,-84,-21,-53,47,-124,-128,-120
1490742776346,8,90,20,106,0,-4,101,-9,-38,12,31,-17,14,-6,-52,67
1490742776394,51,50,50,-21,54,-105,-73,18,-48,-7,-22,-57,-128,-48,16,-83
1490742776443,-29,-112,-21,11,-20,-118,-75,-74,23,-128,15,-9,-20,94,53,81
1490742776492,-12,-109,-78,-128,10,-28,43,12,-37,-128,-4,60,8,79,-53,-37
1490742776540,67,29,93,97,115,84,94,76,28,125,-14,-11,-55,70,78,114
1490742776588,4,-91,2,-114,-128,-98,-117,-56,-38,-27,-10,-15,95,-56,-53,-60
1490742776590,24,-44,-6,-128,-128,-33,64,88,-67,8,-94,-67,-3,-33,-19,-100
1490742776638,-27,-11,-30,85,19,-128,-67,-24,9,8,-10,104,47,-13,20,9
1490742776783,-2,-7,-3,-128,-77,-101,-46,-36,-8,1,-56,-26,-55,-55,-15,-12
1490742776785,-21,-6,21,-22,127,17,15,16,24,5,30,-96,-123,-25,-24,-27
1490742776785,54,-12,-12,-11,42,29,4,10,9,2,-41,-88,-43,-41,-25,-4
1490742776832,-48,5,-41,-60,26,-52,-16,-16,-56,4,10,80,29,-63,-14,-11
1490742776833,25,-10,14,21,18,-20,11,4,-27,22,42,82,101,58,24,19
1490742776882,-5,-43,-36,-24,-64,34,4,-9,1,4,19,62,20,13,15,7
1490742776930,15,55,-29,-86,-95,-37,-38,-29,92,-55,-16,-1,52,-4,2,1
1490742776979,-63,25,-57,-40,63,-35,-12,-15,-116,47,23,-22,30,18,-9,-4
1490742777027,58,87,21,-57,-88,-60,-8,11,-91,-17,-67,-95,7,-37,2,-17
1490742777029,45,5,23,-3,70,41,5,5,12,36,1,-4,33,-35,5,8
1490742777077,12,26,20,-58,-79,-68,-9,-4,16,17,6,27,-58,-58,20,0
1490742777125,3,6,-20,13,8,-43,-14,-26,2,-5,30,20,14,8,21,8
1490742777174,-7,-4,8,34,-7,-125,11,0,5,-4,-2,66,32,-121,15,-8
1490742777223,3,-5,5,4,20,57,11,-6,40,-8,2,-67,-20,70,-2,5
1490742777271,31,0,-52,-10,22,78,4,4,-8,2,9,33,0,85,7,0
1490742777272,55,4,29,31,36,47,66,10,49,-2,-10,-11,-28,36,5,43
1490742777320,-53,16,-15,-9,-10,-25,-29,2,-112,21,9,1,12,-19,-22,-15
1490742777369,127,-99,-11,2,13,19,12,21,127,-128,-28,22,42,32,5,8
1490742777418,-100,-40,-24,1,-8,36,0,-38,-56,-112,14,-23,-25,-57,10,19
1490742777467,-15,-106,22,45,115,74,32,38,-9,-54,12,-9,34,80,30,-4
1490742777515,-6,57,-11,16,-47,2,14,17,-38,-42,30,60,-4,106,36,-36
1490742777516,-40,72,-8,-31,29,-83,-40,-10,-23,75,12,-46,-72,-95,-77,-30
1490742777564,-104,3,34,58,2,82,61,-18,62,96,-1,11,58,-2,-17,44
1490742777613,8,-73,3,31,98,-71,-50,-19,-21,-57,26,17,25,54,47,10
1490742777662,-42,-4,-4,6,99,62,76,-6,89,-3,3,2,5,-72,-4,9
1490742777710,68,4,-6,-74,-84,-102,-119,-52,-87,63,-35,-47,-128,23,102,-2
1490742777711,36,46,17,36,81,81,112,70,16,76,-11,25,-65,-55,-79,-73
1490742777759,-66,48,31,80,-43,75,96,15,-78,36,21,97,74,9,32,26
1490742777808,-23,-117,-24,-70,-107,-128,-76,16,-11,-111,-23,-59,-89,53,96,43
1490742777905,-5,-127,-28,-14,127,-57,-35,5,59,-57,26,22,-37,63,-98,-1
1490742777906,57,14,20,26,21,-93,-46,-44,-29,-13,31,22,121,-72,-72,8
1490742777953,51,-77,-4,-15,-98,-17,-65,-21,-5,-4,4,-1,-61,-45,30,-15
1490742777955,-128,34,17,-6,-66,7,-10,-34,127,18,4,23,65,25,-1,59
1490742778005,-46,-89,12,-5,-34,-97,-88,-3,-70,-19,-5,5,-3,-79,-47,-73
1490742778052,-54,49,25,103,127,56,-10,27,55,15,14,33,-48,-19,-2,-1
1490742778100,-87,32,-13,-12,-11,43,-92,-44,37,-33,-1,-30,-20,-83,-15,2
1490742778149,-43,62,28,70,-12,-4,-75,-64,-20,29,20,57,79,-39,11,52
1490742778246,62,-1,-11,-32,16,-46,20,7,-19,-7,18,14,-12,-36,-36,-34
1490742778247,-50,10,-20,-22,13,-5,78,-3,103,-69,-1,4,-10,-74,-69,-25
1490742778248,90,43,4,-26,-4,4,7,-19,9,-11,28,-28,-2,17,25,-12
1490742778295,14,-76,1,-12,-7,17,-22,-16,-32,-32,-20,-22,3,-8,-11,-15
1490742778344,-95,44,6,9,-9,-57,-86,-54,28,6,17,20,9,21,4,45
1490742778392,-18,-33,24,28,-24,-3,5,0,-12,-4,-32,-46,-29,-29,-43,-28
1490742778394,-14,-7,9,1,-12,-6,-10,-2,-128,-14,12,36,14,34,61,4
1490742778442,72,-6,-5,-17,-21,18,11,21,16,-30,-14,-24,-17,17,10,19
1490742778491,86,-53,12,-10,19,8,75,76,26,-35,-18,-27,-45,-34,-23,-3
1490742778541,-6,31,-5,9,4,35,-85,-17,77,-21,11,46,63,-11,84,46
1490742778588,127,23,7,-29,-36,-77,-72,1,-112,6,6,10,-35,50,60,-33
1490742778636,66,-81,37,42,80,99,58,53,-29,65,27,115,87,95,60,12
1490742778638,7,-48,-36,22,-25,-12,9,18,105,49,31,-11,-128,52,12,14
1490742778685,-90,116,54,127,-39,-25,45,-46,26,31,-16,-34,100,-43,-11,39
1490742778734,102,-128,-54,-107,44,-102,-103,-2,-27,80,29,114,90,88,64,50
1490742778783,-74,41,20,12,127,4,58,-72,127,-46,16,64,58,83,-36,17
1490742778833,-72,74,60,80,35,87,102,54,81,-18,-51,29,92,-3,73,-39
1490742778880,-25,54,13,29,64,50,53,-31,37,-39,31,62,41,5,3,120
1490742778881,62,34,28,-42,34,19,82,90,-74,-103,-47,-81,-128,-128,-17,-53
1490742778929,37,73,-19,-26,-74,93,42,84,-123,-106,22,-95,-128,-128,-92,-89
1490742778978,-124,33,-23,39,78,30,49,-64,-31,-33,1,-13,-124,-123,-9,25
1490742779027,127,-128,12,-5,48,68,74,66,-13,-16,33,67,-70,12,-128,-94
1490742779075,-40,36,11,52,-10,71,86,121,42,54,2,-36,-128,14,-81,78
1490742779076,-128,-35,13,5,-62,101,-128,-74,112,15,12,39,65,42,76,61
1490742779125,44,-24,-64,-6,89,84,122,-82,-22,104,41,78,101,-17,10,-25
1490742779173,-13,-27,40,51,-61,50,82,7,-76,-19,-28,-8,67,88,58,-44
1490742779223,95,-128,-12,-51,-128,-58,-116,91,-128,-96,-6,-33,50,-128,-7,-46
1490742779318,120,21,-48,29,-87,-9,-29,56,-81,77,27,-9,-108,-53,-45,-52
1490742779319,-24,-59,-35,5,61,-40,-128,-123,28,40,9,62,-73,24,1,13
1490742779320,14,-122,8,-93,120,50,10,-34,5,-16,3,80,127,86,108,38
1490742779368,-27,108,22,-53,-95,-98,-29,-19,66,118,-21,-42,48,109,-5,50
1490742779417,-1,-80,67,126,71,84,24,-14,-9,-116,21,127,127,75,127,41
1490742779465,-19,78,-67,-128,-119,-53,-84,-27,5,46,11,-10,62,12,-37,-9
1490742779514,16,-109,6,30,63,-58,-128,-60,-24,-93,-44,-118,-128,-23,-32,-53
1490742779515,-41,-21,5,123,84,20,-50,-53,15,-21,69,20,-128,127,127,26
1490742779565,-27,-13,8,53,3,-35,-13,-29,0,-5,21,9,73,90,73,26
1490742779611,7,3,84,82,118,68,47,-3,36,-6,22,-85,-40,-20,11,29
1490742779661,-6,-6,8,-61,49,5,-4,-22,0,-2,16,88,95,26,17,19
1490742779709,12,3,-28,-128,-120,21,0,1,37,0,-26,-11,-100,-85,-7,3
1490742779757,-17,-3,-44,-104,58,-28,-17,-5,26,3,-55,-122,-17,-26,-15,-11
1490742779759,9,-8,-10,1,80,-16,6,5,33,0,71,21,74,-5,-10,-2
1490742779807,-25,28,-11,12,-77,-3,17,20,-19,17,-14,-61,-66,127,71,14
1490742779855,47,24,61,127,127,108,32,11,44,17,53,118,13,79,39,36
1490742779904,-7,-9,-12,35,47,12,-22,-14,21,-6,44,65,127,64,4,4
1490742779953,-107,12,46,62,94,78,51,6,-83,25,-2,99,54,50,19,3
1490742780006,37,37,-90,24,-41,41,8,-10,35,29,19,14,6,22,9,-1
1490742780007,0,-106,-31,-128,-24,14,-3,11,15,-42,50,64,-18,44,-3,-6
1490742780051,-1,-11,6,-42,-12,-17,-7,-14,5,-17,-85,-24,-20,-25,10,3
1490742780099,0,-4,-14,-34,3,-106,-17,-20,1,-1,58,14,30,-32,4,12
1490742780148,43,-3,-48,27,29,-11,19,11,-12,1,15,-5,-42,-98,-32,-27
1490742780196,-74,-4,41,80,-58,-70,-30,-28,16,3,-16,8,-21,-29,-7,21
1490742780198,-10,-9,-76,-37,20,3,4,-13,-7,-7,-2,-26,18,-19,-21,-29
1490742780245,0,1,27,21,39,-4,12,16,70,-1,10,1,4,-15,-3,-2
1490742780294,34,-7,-39,10,15,23,8,-1,41,-1,22,13,33,67,18,-2
1490742780343,-61,-1,-6,35,40,36,5,-22,67,-2,4,-25,-58,7,10,-16
1490742780392,7,-1,12,4,7,53,12,17,-87,-3,-16,-7,0,39,29,5
1490742780440,-51,4,7,44,22,34,15,-14,-42,-1,-22,-1,25,-9,-21,9
1490742780442,-21,-2,43,21,8,1,13,16,-59,-12,-36,-32,0,48,27,2
1490742780489,-2,-24,-28,10,47,31,-4,-5,-5,-111,11,-4,-39,-77,-19,30
1490742780538,6,-64,11,-7,6,0,17,15,-1,44,-10,24,32,35,-1,6
1490742780587,0,20,22,21,-39,28,28,14,2,65,-27,-24,65,10,45,-2
1490742780636,-35,-39,0,-15,65,35,12,-10,-35,2,-14,-25,-41,-117,-82,-11
1490742780684,46,0,36,116,87,127,96,13,-65,14,-27,-62,-90,-50,-76,-16
1490742780685,80,-1,27,11,-53,-71,-3,64,-61,3,-7,53,111,88,53,9
1490742780734,16,-61,-11,-30,-87,-43,-73,1,27,-86,7,-12,-120,33,86,12
1490742780782,57,-18,20,47,68,39,76,52,-126,12,9,50,43,39,37,-52
1490742780830,46,5,32,52,48,16,11,-12,121,18,6,-23,-66,-76,-16,21
1490742780879,-21,15,0,-22,55,120,127,116,79,40,-36,-20,-29,-63,-47,-5
1490742780880,59,23,-4,7,69,33,14,18,-93,29,2,47,-34,52,47,31
1490742780928,-67,-27,24,-83,-122,-52,-81,9,55,61,-8,-41,35,-122,15,41
1490742780977,23,124,34,68,92,127,120,25,-94,113,4,14,-70,-50,74,54
1490742781026,-95,-62,-17,-14,-63,-50,-102,-106,48,-72,-12,-3,70,110,-6,-6
1490742781074,-12,-67,-27,-13,1,12,-52,-3,9,-115,0,-2,-87,-43,-23,-16
1490742781123,47,20,27,14,77,60,44,6,-50,5,20,68,-4,9,25,-16
1490742781124,106,-20,-5,11,108,23,29,28,-99,-14,10,-3,-90,-36,-53,-54
1490742781171,-11,50,-14,-43,-106,-9,-80,-25,109,41,5,-57,28,44,127,94
1490742781220,67,-24,-56,-90,-60,-80,24,-17,-110,-59,-12,9,3,19,-63,-41
1490742781269,107,84,3,25,-24,11,3,27,-116,28,-10,-20,-116,-26,23,-22
1490742781318,127,15,27,22,37,31,51,44,-109,-3,-15,-35,-18,31,18,-16
1490742781368,-42,75,-2,-33,43,5,-66,-41,20,-3,-7,1,-22,-15,-32,4
1490742781369,40,-17,8,0,30,-17,-1,-21,-87,12,-14,2,-27,30,-25,-19
1490742781415,52,-18,-18,26,-4,10,22,19,37,-3,-23,-27,-15,0,7,6
1490742781464,-50,7,-1,-49,0,-41,-1,-3,42,21,5,-5,13,1,-30,-4
1490742781514,-15,51,-5,21,1,-35,-39,-33,6,-28,10,6,0,21,68,58
1490742781609,-90,13,-13,-29,-21,-4,-12,-33,73,32,-22,-12,20,16,-3,25
1490742781610,-42,-20,-12,-47,11,7,-11,-5,-1,24,10,-23,-16,-32,-59,-5
1490742781611,-39,-13,16,25,13,30,47,8,-113,-19,-1,-13,-7,7,-19,-22
1490742781659,47,13,-3,-11,3,-11,12,0,-102,-13,-8,-18,5,-11,28,9
1490742781708,-1,16,3,14,-2,-7,7,16,-17,-6,-16,-18,5,1,1,-17
1490742781757,35,-14,-6,-44,5,1,11,-16,-64,-7,-2,16,-11,-37,-31,-20
1490742781805,87,55,25,10,9,-5,-15,9,-96,20,-7,14,26,95,-46,-40
1490742781808,36,-105,40,41,17,84,14,35,69,53,0,-2,-53,-86,-40,-24
1490742781854,-128,-5,-30,-86,66,74,-22,4,-3,-35,34,-67,-76,28,54,25
1490742781951,-78,8,-1,42,-16,102,-15,11,69,55,-21,-59,39,-84,0,17
1490742781953,-128,-68,12,-62,48,17,19,-72,112,12,-6,100,-13,90,-33,61
1490742782000,67,38,19,26,34,62,49,11,15,30,52,127,127,127,-37,31
1490742782002,36,120,78,117,127,127,-112,-3,-27,51,32,96,72,48,35,-12
1490742782050,72,25,4,110,-80,-114,-5,17,-128,-97,-19,-125,-128,-99,-118,-72
1490742782098,34,54,-11,-45,-61,-113,-13,-6,-42,20,-56,-91,49,-19,127,25
1490742782147,-107,-128,-24,-26,-128,63,31,-2,97,3,20,-64,55,127,-18,-78
1490742782196,-20,51,26,125,108,13,-106,80,-85,-69,-17,-36,-75,-66,-4,-71
1490742782243,-42,38,-17,30,-3,77,108,59,108,66,25,-27,114,71,23,-34
1490742782244,-46,-127,-29,-128,-27,-83,66,44,32,68,0,-13,119,127,127,23
1490742782293,104,-41,-12,-59,-128,-41,-71,78,-59,-127,-20,-74,89,-75,-33,-22
1490742782343,-41,92,18,127,122,127,71,-20,71,-116,4,36,-53,-89,-97,-56
1490742782390,-29,52,11,1,71,127,71,-4,-128,46,-19,87,52,65,90,49
1490742782439,47,-109,-17,-87,-128,34,30,7,-29,-50,-14,24,-90,-67,-106,26
1490742782487,-12,-61,-25,4,-100,106,-89,-6,-44,-128,22,-34,-105,-106,-103,-109
1490742782490,27,-6,69,48,93,-85,-41,12,-24,72,-63,-33,-108,100,110,-7
1490742782537,123,127,73,117,124,89,102,-10,-51,32,-45,20,-57,-83,-15,24
1490742782587,50,-5,36,27,54,84,116,65,-22,-22,32,100,127,-52,78,64
1490742782682,-81,92,-63,-117,-128,80,69,79,3,42,-16,-33,57,-74,-96,-94
1490742782684,47,117,33,86,127,-9,-25,36,-65,39,9,-50,-128,-35,100,-45
1490742782685,-20,-87,-31,-91,-74,-68,-45,5,54,-56,17,52,-76,102,101,66
1490742782731,-16,8,46,34,120,83,62,38,35,-19,-21,-59,-88,109,-73,2
1490742782780,-24,-7,-12,-18,-128,111,-9,-2,9,-14,46,85,-41,17,76,32
1490742782829,34,-4,-3,28,113,76,89,42,21,7,7,-39,-36,-72,14,60
1490742782878,44,-4,8,-60,-96,95,34,-19,-21,-6,11,-39,-77,-60,-78,-61
1490742782926,21,0,-12,6,-67,28,55,20,6,0,-18,-20,-51,-4,-26,-46
1490742782927,-55,-1,-18,97,80,-22,-48,-30,35,2,15,5,127,-8,-1,15
1490742782975,6,-1,18,65,32,9,-5,-26,-6,-1,-37,22,-105,102,42,13
1490742783024,-13,-2,-57,6,-119,-126,-90,-22,-39,-2,-10,10,127,6,-34,-34
1490742783073,18,-2,57,80,88,74,109,39,18,-4,39,127,89,75,73,30
1490742783122,32,-4,-17,-81,18,-83,-12,29,-9,0,-19,-128,52,-128,-128,-59
1490742783171,-54,-11,30,-16,-73,30,19,10,19,9,27,58,52,42,37,18
1490742783173,31,-22,-45,-97,-97,-78,-44,-24,-52,-15,5,-75,-110,-56,-30,-43
1490742783221,33,-96,37,50,43,38,-11,8,-57,-93,19,73,57,19,21,10
1490742783268,-30,-58,-41,-78,89,68,22,15,-128,-127,36,54,-27,10,-4,1
1490742783316,-3,43,-32,84,4,45,25,0,39,55,-12,-3,127,121,59,34
1490742783364,16,-114,22,70,15,1,13,12,39,-56,27,-50,-40,-34,-39,-11
1490742783366,12,89,7,103,-1,23,26,18,-1,81,15,77,-3,-17,-34,-20
1490742783414,-8,-51,96,18,-33,-67,-23,-14,5,-52,37,29,17,-46,4,-12
1490742783463,2,-3,-31,21,95,55,2,2,4,2,3,-52,21,27,12,40
1490742783512,0,5,-21,-42,-12,-16,-41,-13,-1,5,-7,91,46,0,23,7
1490742783561,0,6,39,-82,-41,-26,7,10,1,-2,19,34,-21,-15,7,-15
1490742783609,0,-4,-36,113,46,17,18,17,-1,-5,19,-69,-49,-17,-22,-12
1490742783612,61,2,17,-57,-25,-9,-13,2,16,1,-19,-1,-1,0,-5,-13
1490742783659,23,0,-35,0,21,-45,40,15,-23,-3,-35,10,36,14,13,5
1490742783708,12,5,-7,-29,-17,5,6,-3,93,4,-18,-29,-34,-9,-29,2
1490742783805,107,14,-18,1,-37,9,-19,-1,81,23,8,16,28,41,34,6
1490742783806,-97,-96,-6,-14,-31,14,-30,-8,-104,-102,22,26,-18,16,28,-6
1490742783901,-13,76,-1,21,38,26,38,14,-12,-78,-20,15,9,21,13,4
1490742783902,-1,96,10,-20,-2,-24,-20,-6,-7,108,-38,-34,-45,-22,-55,-39
1490742783904,0,29,16,-26,42,-10,6,-21,-3,39,-31,34,79,-15,39,40
1490742783952,2,70,16,31,-8,26,19,-2,-3,36,2,-8,-81,6,-31,16
1490742784000,-35,-10,-32,-76,-38,12,16,29,-123,22,-13,70,41,-1,9,-24
1490742784047,-23,6,3,23,-83,-11,49,11,37,10,7,60,60,9,-9,1
1490742784049,120,2,18,105,-43,68,1,9,-103,3,38,96,117,81,20,1
1490742784097,-128,-2,-40,-113,1,-61,-128,-91,105,1,21,-6,56,42,59,38
1490742784145,69,-1,-8,-77,-108,-91,-66,-28,58,1,-12,-43,66,51,44,38
1490742784194,-94,22,36,117,127,64,72,15,-6,109,-3,15,-74,10,-24,-39
1490742784243,19,-14,16,-65,11,-58,-80,-24,-75,-44,-35,-26,26,-19,57,-11
1490742784291,-64,-60,-11,-8,-1,-5,-36,-29,-17,-74,5,60,14,56,104,75
1490742784293,127,64,-34,-89,-62,2,25,14,-2,127,-2,15,26,80,-14,4
1490742784340,58,97,27,126,127,117,41,42,29,127,-5,-61,-100,-23,55,19
1490742784391,-53,-128,-34,-5,72,-49,-97,-94,-75,-42,5,-33,-103,34,127,58
1490742784438,-77,127,-12,-58,-84,23,75,63,54,65,10,78,54,27,-10,-24
1490742784487,15,90,24,51,105,127,107,101,37,104,35,68,29,41,31,54
1490742784584,77,-59,6,42,127,52,-9,3,-110,47,-3,-46,-128,-27,10,-17
1490742784585,-128,50,14,6,-4,13,-22,-62,-28,28,-18,-2,-31,48,58,17
1490742784587,46,21,2,-5,18,15,76,15,-59,-97,14,42,13,-59,-39,-3
1490742784633,-40,-65,1,-17,36,-57,-82,-38,66,-40,-22,-48,-86,-70,-40,37
1490742784681,27,-87,-8,7,-41,-6,84,27,-59,45,5,6,-24,6,-50,-25
1490742784729,27,53,12,-8,63,53,-13,2,-38,42,-4,26,42,-16,-16,10
1490742784731,-23,-24,-19,-12,-5,-78,-128,-17,6,11,18,28,-30,-29,50,-2
1490742784779,67,-10,3,43,38,-40,-24,6,5,10,13,21,23,53,7,12
1490742784828,61,44,-11,0,16,12,2,7,-6,-39,5,12,31,1,43,-16
1490742784877,-63,5,-5,-24,31,1,79,8,73,-39,0,-21,1,10,10,34
1490742784926,-9,-21,-2,-4,-38,17,-42,-14,3,10,-1,-13,-17,6,0,-3
1490742784974,-29,5,7,22,-1,17,24,25,9,-26,-23,-65,-19,9,14,0
1490742784976,-75,12,-4,-6,-10,-3,-12,-26,57,31,-33,-38,4,-15,21,6
1490742785023,58,49,-18,-41,-35,-5,-7,35,-56,-49,-11,-61,-42,4,29,-21
1490742785071,56,-41,-52,-8,11,53,56,36,-82,31,21,58,-12,-95,-35,-7
1490742785120,-16,-9,39,29,42,74,74,47,-128,-12,12,33,-24,6,-47,-54
1490742785168,25,6,27,90,72,-37,-128,-31,12,33,-10,19,-31,35,28,-10
1490742785169,-102,-3,-6,-99,-97,73,-11,2,36,-39,-13,-27,17,-2,51,7
1490742785218,-35,77,-17,-71,-95,41,105,-22,69,34,-29,-115,127,-5,-93,-34
1490742785267,10,-42,-63,-42,-78,-107,-128,-32,-50,-71,-48,-128,-128,41,15,-33
1490742785316,11,-109,14,57,-70,-128,-35,-17,-53,64,-38,56,46,-95,-69,-3
1490742785364,66,-10,-4,39,-13,86,-64,-7,-90,-85,-39,79,44,-73,-60,-48
1490742785413,122,19,12,-70,-128,-103,74,24,-36,-41,-48,-71,90,65,-14,-6
1490742785414,20,-70,-54,-128,51,-49,-44,57,-54,-42,-32,66,-37,12,116,-49
1490742785462,124,37,13,41,-78,26,96,117,-23,-60,-29,-128,-128,-101,-110,-84
1490742785510,115,-48,-10,-19,-49,-35,32,96,23,-102,-22,4,9,-128,-4,74
1490742785559,-96,25,27,47,101,121,-6,-76,-111,63,-19,36,80,60,127,18
1490742785608,-115,83,-104,-72,-37,53,-68,-105,49,65,-46,-47,5,53,127,56
1490742785656,-65,-66,-10,60,124,-45,17,41,-31,12,30,34,-37,25,58,-27
1490742785658,-81,24,-53,-74,-70,107,-100,-66,59,-80,-10,0,-128,-101,24,60
1490742785705,54,92,-6,-17,2,-52,-21,-18,-115,-48,6,-74,-58,-128,-30,-15
1490742785754,65,82,45,95,50,127,127,127,-56,127,-9,-38,108,-82,-128,34
1490742785803,-126,-52,-29,-104,126,70,120,5,-18,24,-7,-44,85,62,75,48
1490742785851,99,-47,-33,-87,-128,-128,-99,-86,-32,107,14,6,58,19,127,17
1490742785853,-19,12,9,101,115,127,127,103,24,-115,36,64,-43,-128,-128,-13
1490742785901,2,-68,-19,18,-44,-92,-59,-72,62,-7,40,124,70,63,63,67
1490742785949,-6,105,49,-49,-114,-84,35,40,7,13,-10,-75,-37,-73,-47,-70
1490742785998,29,-112,2,64,-102,88,127,72,60,-73,-28,-70,-8,26,44,127
1490742786047,-11,-108,-58,-19,17,-10,-113,-54,30,-91,24,9,26,96,127,34
1490742786095,-6,10,-15,-91,-23,-97,81,-48,6,-25,-28,61,88,110,40,72
1490742786096,6,-13,-36,-93,-51,-76,102,46,-46,-4,11,-45,-49,-103,-127,-128
1490742786144,-14,8,4,127,127,-30,-91,-41,14,1,25,25,89,-62,27,3
1490742786194,35,1,5,-16,-60,127,118,55,14,-1,18,82,17,-16,-3,1
1490742786242,-59,-3,-1,-84,68,-43,-97,-127,14,0,-25,9,106,39,24,32
1490742786290,27,-1,46,127,127,127,120,127,-18,-9,12,-84,-128,58,-86,-57
1490742786339,-27,5,53,71,60,72,18,-37,-25,5,-8,71,52,-58,52,24
1490742786340,34,3,77,12,127,127,86,36,-7,-5,-1,60,-116,37,56,80
1490742786388,64,-5,-3,3,82,-7,1,-17,11,-7,-29,-13,46,48,38,5
1490742786437,2,1,5,127,-95,-45,-14,26,-8,5,6,-116,-83,0,34,-1
1490742786485,27,-14,-53,-107,-79,-84,-39,-14,-10,-4,-4,-101,-93,34,-11,-11
1490742786534,25,-9,-10,-87,-71,-125,-101,-58,40,-4,8,23,-50,127,111,48
1490742786536,-63,-10,49,12,-119,11,15,-5,16,-6,35,109,-51,34,40,16
1490742786587,55,-7,9,-58,34,-71,-25,-26,3,5,-24,21,21,-74,-32,-18
1490742786632,1,0,41,17,82,58,3,10,12,-10,63,127,127,127,70,33
1490742786680,-88,-4,58,107,-58,61,35,11,-14,34,-14,-59,-113,-67,-80,-32
1490742786729,45,13,1,-45,32,-58,-39,-23,33,-53,21,37,-24,-36,10,-3
1490742786777,1,-29,-59,-9,2,-2,-4,-9,16,14,-7,-91,-55,-16,-4,-2
1490742786779,-5,-44,49,102,-11,-10,-14,11,3,-3,-50,-69,-27,-22,9,11
1490742786827,-4,-14,-1,-69,-60,-15,-10,-4,2,-43,61,71,-29,-16,-15,-11
1490742786875,1,-35,-74,-55,3,-1,5,-10,0,-22,-52,-41,-67,-47,-38,-16
1490742786924,0,23,2,-12,69,34,17,-12,0,18,-40,56,77,15,29,47
1490742786973,-1,-16,-44,-47,-1,-16,-5,-8,0,-9,-14,-12,-65,-26,-2,-5
1490742787021,-26,16,-35,35,14,6,-4,-2,66,9,11,9,-5,-6,-6,6
1490742787023,28,0,-49,11,-9,-114,-38,-22,-7,4,58,18,47,-15,44,16
1490742787071,100,-17,18,36,30,26,-8,-11,82,28,-6,-32,-20,-8,-2,-10
1490742787119,70,-15,-23,5,26,56,42,46,104,17,-51,-18,31,17,-30,-28
1490742787168,90,107,-22,-42,-92,-4,-27,-7,127,24,21,-43,-72,-43,-9,7
1490742787217,-115,-67,2,-29,3,-14,10,-19,-117,-71,28,14,23,-12,-28,13
1490742787220,-27,-17,31,-1,4,12,16,-17,-22,-21,-16,23,28,7,-1,9
1490742787267,-11,-84,-22,50,23,34,-4,-3,-2,-52,-30,-21,-50,19,3,-5
1490742787362,-5,66,-30,21,-5,70,29,11,-2,64,43,64,20,-87,-12,-15
1490742787364,-2,-30,-6,13,-44,11,25,12,-2,-122,-20,-92,-80,-14,-44,-19
1490742787412,-89,64,12,-1,47,51,32,10,-75,95,-60,-42,5,-89,-97,-19
1490742787460,65,-14,8,-89,-1,-55,-62,11,21,17,-24,-37,-36,-4,-40,-59
1490742787462,27,-16,-24,-26,-20,-42,45,3,21,4,26,-80,-8,-20,1,41
1490742787509,46,-4,38,-63,-14,-102,-90,3,72,0,-43,9,28,93,69,0
1490742787558,-8,-4,-12,-93,-6,-78,-9,-5,-14,0,-42,-66,-50,-56,-29,-16
1490742787607,-128,-2,-18,-17,15,14,-42,-72,68,0,-1,14,-128,-75,16,25
1490742787655,-18,-2,12,51,85,61,-18,-40,-60,0,-3,-62,-56,22,116,43
1490742787661,-63,-1,13,127,127,61,19,-8,87,0,53,45,-74,21,47,18
1490742787704,114,-13,2,-43,52,63,65,40,-49,36,-20,1,26,-22,-47,-35
1490742787753,-42,87,25,-12,-122,-11,31,-6,101,102,29,89,109,74,30,45
1490742787898,-75,106,-22,0,-69,-54,-44,-60,109,127,-13,-27,-21,10,16,56
1490742787899,107,-90,-20,-22,-116,-44,-8,46,39,2,52,53,110,-16,56,36
1490742787901,93,-128,0,7,-11,1,-48,-47,2,-128,-2,-19,-46,-79,-53,-20
1490742787902,-52,-75,-14,-33,-44,-53,-62,-12,-54,-8,-24,-5,59,55,76,2
1490742787948,40,-11,13,18,119,88,6,-1,-26,-93,-14,5,-15,-60,15,18
1490742787996,-93,65,12,18,15,-22,-6,-16,6,16,-14,-10,-48,13,4,22
1490742788045,-128,-64,18,35,59,94,77,58,119,6,-6,1,0,-13,46,12
1490742788094,9,-46,-10,-36,17,-12,5,-39,68,-18,4,-17,-11,-45,-25,20
1490742788142,-8,49,-17,-47,-67,-64,-31,-20,38,85,-11,-24,-6,-22,-79,-31
1490742788144,-47,-58,-9,35,-35,37,-67,-46,-31,-16,33,67,81,-6,25,17
1490742788192,30,1,24,-38,12,38,80,34,97,26,23,-1,73,-9,-53,-28
1490742788241,-72,-71,14,31,3,-3,32,0,33,-41,-15,-17,-38,-8,38,-6
1490742788289,44,28,-11,-60,-51,-40,-15,-5,-103,5,-9,-47,-8,19,3,15
1490742788337,7,-28,17,-36,26,5,26,-20,-43,9,11,18,15,-14,-43,-31
1490742788339,-5,-16,2,19,6,24,93,21,-32,-6,-1,-3,-7,-42,-30,-28
1490742788387,-28,-87,-15,-10,11,5,-21,-24,55,-68,8,-35,-29,-4,-6,30
1490742788435,14,25,-8,-18,0,-29,-16,-5,-128,35,-1,28,20,-13,-13,-36
1490742788484,55,-10,-5,0,-17,12,13,-4,70,-12,-3,13,-6,0,-21,-9
1490742788533,56,48,-12,12,-3,-7,-9,18,-21,16,5,-10,-1,6,25,3
1490742788581,88,-57,17,-10,-2,37,28,19,19,-21,-1,2,-24,27,21,-6
1490742788582,-128,-5,24,4,-65,5,2,-17,94,-19,-1,-25,-21,-7,-78,-14
1490742788630,-29,2,24,98,35,-4,41,8,-119,71,10,51,43,-42,-36,-52
1490742788679,-101,-40,-7,-21,30,-91,-88,-74,99,-11,8,82,113,78,25,38
1490742788728,-31,-99,-17,-59,71,-2,-37,11,84,20,25,43,13,75,43,-10
1490742788777,82,28,-8,-75,-9,70,127,23,-40,35,-7,64,34,53,26,58
1490742788825,105,10,62,16,65,123,-40,39,77,74,-12,-18,-32,26,53,9
1490742788826,-67,-4,17,-20,35,-128,-12,8,127,-46,-30,-87,-128,35,-25,23
1490742788874,87,127,20,127,127,127,127,2,82,3,-5,-5,-128,-128,-128,-65
1490742788923,-128,-71,-81,-112,-128,-87,52,-73,93,-108,12,24,127,79,68,94
1490742788971,-110,127,26,27,-63,48,127,117,55,66,11,-12,-102,12,-108,-7
1490742789019,-57,28,-14,-8,127,-50,59,22,-86,66,61,127,-22,25,-10,-16
1490742789021,-34,-89,61,69,-81,-77,-114,-99,96,-8,-31,-34,127,127,127,29
1490742789069,53,-80,-76,-98,-36,17,8,78,-30,95,48,5,58,79,79,-3
1490742789119,-17,-22,14,-82,-128,-50,-9,-64,-35,68,-26,-105,55,72,-57,69
1490742789166,18,-35,-20,-31,127,82,86,-9,-126,21,17,34,54,67,68,-30
1490742789215,24,-2,-42,-42,65,127,66,67,39,-98,-17,42,-128,17,62,110
1490742789263,-75,127,-75,-44,-32,127,127,87,95,-114,-42,-100,-22,-128,-101,-73
1490742789265,-17,34,51,73,-46,-81,-97,-86,-66,-13,24,-33,-49,106,44,61
1490742789313,-48,-73,-57,7,-8,-128,-37,39,20,46,-35,-24,-31,83,105,61
1490742789410,64,63,75,32,32,15,89,71,37,17,-12,-37,-50,-21,-10,88
1490742789411,28,61,25,52,127,127,70,80,82,-128,2,37,49,-128,-128,-107
1490742789459,-20,13,-1,18,-70,90,127,80,73,-25,35,25,4,26,-16,20
1490742789507,127,-83,-17,-71,-4,-29,127,111,-27,-105,-49,-90,-58,-19,-11,-62
1490742789509,22,-31,78,74,106,40,-3,-2,38,-28,54,104,127,127,81,49
1490742789556,-37,-16,-35,-128,-128,-128,-89,-85,55,95,62,100,91,59,124,8
1490742789605,-3,73,-36,-63,-77,41,89,87,70,-73,-3,10,17,-67,25,-62
1490742789654,14,33,60,101,-57,81,58,44,10,47,4,35,-128,-48,-28,31
1490742789702,17,-58,57,102,127,94,42,-6,-63,-59,-49,-10,-1,-76,-61,29
1490742789704,-52,-18,38,127,-35,113,-48,-128,23,1,-43,-128,-29,-92,-41,82
1490742789752,37,12,18,108,-24,-85,-34,-4,-27,6,-19,-61,103,94,86,-12
1490742789801,45,2,-5,78,59,127,76,38,-17,-1,45,-10,17,-128,-42,17
1490742789849,3,8,22,-128,-111,-96,-62,8,32,7,-25,-128,-13,127,91,32
1490742789897,11,3,-22,66,0,73,21,20,4,2,49,98,116,42,2,1
1490742789946,88,-7,53,127,127,127,63,39,-13,-3,95,120,116,113,76,42
1490742789947,19,-1,47,43,-9,-48,10,12,-15,-4,-49,-57,21,-27,-15,-6
1490742789995,28,89,19,68,-81,-19,-5,7,13,92,-19,26,-8,-30,-34,2
1490742790044,-107,-117,-63,-1,-10,-35,-31,-26,40,93,31,-59,-82,-20,-22,-17
1490742790093,-63,-60,19,-2,3,7,1,-10,-24,-59,-32,-12,43,-13,-14,-13
1490742790142,10,72,66,32,-22,-2,-7,-2,-24,124,-17,-48,29,33,5,-1
1490742790190,-57,-57,-19,3,26,4,-1,-2,-107,-63,2,26,-10,19,21,2
1490742790191,9,29,-22,46,43,21,29,27,38,60,-33,-52,-49,-3,12,-1
1490742790239,30,27,-42,9,28,2,23,7,23,0,18,-82,-84,-28,9,-17
1490742790288,10,3,50,67,-46,5,10,-19,30,15,23,39,-34,2,-17,-4
1490742790336,10,7,33,-39,48,-5,-2,6,1,8,-25,55,-2,-17,-18,1
1490742790384,-5,0,-68,-51,-1,-1,-14,-23,-2,6,50,34,-48,-20,-8,-8
1490742790386,-1,12,48,-44,-28,-24,-33,-22,1,8,-24,-6,25,-21,-5,24
1490742790434,1,0,-52,-21,-18,-19,-2,8,-2,2,24,-1,4,-5,-4,-2
1490742790483,-78,-4,-30,23,32,32,15,-13,22,0,-27,-53,-20,3,13,3
1490742790532,68,-4,-40,5,9,-5,2,1,94,0,8,-4,9,-37,12,-11
1490742790581,-46,1,-32,-13,6,24,16,16,-24,0,-2,2,11,19,-3,23
1490742790628,-48,-3,-21,-11,11,-10,-29,-39,-74,-1,40,12,6,12,26,26
1490742790630,-63,28,1,-14,-16,4,26,41,-25,22,-3,-23,-28,-42,-51,-45
1490742790678,-11,1,-21,-58,27,-25,-12,-23,3,-8,-6,11,51,35,21,50
1490742790727,-24,81,-24,-124,-33,-66,-37,44,-78,-13,-11,51,-35,66,43,-20
1490742790776,23,-123,-6,73,1,44,1,-28,-54,-128,24,61,119,48,13,31
1490742790824,87,-53,-33,-32,-29,24,39,41,35,56,28,-30,-99,-45,-3,8
1490742790826,101,92,8,-34,-12,-46,-66,27,94,90,-25,-18,108,-24,-3,-48
1490742790873,-43,-22,11,102,-33,110,127,112,15,-52,22,-99,-79,-31,-63,-61
1490742790922,-47,32,4,-40,-95,27,-27,-79,70,18,-35,-109,84,-70,-43,27
1490742790970,-73,7,1,-81,-40,3,13,-12,43,26,7,25,83,12,-12,35
1490742791019,-128,-82,10,36,93,65,-16,10,-7,-86,-8,15,-71,92,124,61
1490742791067,38,38,12,-12,107,-26,7,11,-86,14,-9,6,-74,8,-16,83
1490742791069,-71,41,-15,-38,-128,-63,-18,-70,-69,60,-3,-49,-40,24,-45,-29
1490742791117,-30,-119,23,26,53,-88,-20,30,110,72,-29,-46,-98,23,-9,13
1490742791166,-55,45,24,61,-72,12,62,36,-16,-13,-16,-78,-85,-75,-88,-25
1490742791214,-3,26,-14,11,-83,85,-14,-52,-61,26,-16,-28,-91,-69,12,18
1490742791263,-45,-21,-3,-48,-37,-35,17,-8,114,20,20,-60,8,-81,24,40
1490742791311,-38,-1,17,34,127,32,-11,32,-62,6,8,22,63,53,7,8
1490742791312,-9,4,-12,-42,-128,20,70,20,-35,-4,-8,4,112,-29,-128,-65
1490742791360,111,-14,10,12,56,37,124,95,-87,-60,20,9,-58,-35,-81,-55
1490742791409,16,-15,-35,-78,-46,-65,-77,21,-10,-6,1,47,79,111,51,9
1490742791461,-128,-12,17,62,55,113,10,-56,37,-54,-14,-25,-65,-128,-89,-23
1490742791506,-50,42,-3,3,-13,-36,-10,13,66,102,0,26,40,43,33,13
1490742791508,85,-8,-28,-15,17,-22,-24,-34,-8,20,-14,27,35,48,40,33
1490742791555,30,-48,-4,-54,-23,-9,-30,3,-105,-3,-27,-123,-103,-85,5,-54
1490742791604,-66,22,4,6,77,79,73,33,16,-17,7,31,20,-42,-4,4
1490742791653,-36,-14,-32,-91,-58,-18,79,25,-57,-4,18,8,8,7,-39,0
1490742791702,-1,6,1,27,23,3,-62,2,-52,5,11,39,7,24,41,-16
1490742791750,-44,-14,-7,45,-6,-19,11,-26,46,9,-27,-54,-34,-29,-5,19
1490742791752,0,-18,-11,1,-6,-6,5,-1,-43,15,-7,13,-9,-15,-26,-42
1490742791799,73,-7,1,3,-14,-10,-15,-25,-65,15,-4,-38,-3,1,-4,-4
1490742791848,-79,108,10,9,36,35,10,29,22,35,-18,-3,13,23,17,10
1490742791897,37,16,-7,-4,-8,14,59,37,-16,-8,-36,-22,-6,-17,33,-13
1490742791945,3,3,1,37,3,17,45,21,40,-6,-4,-9,-4,3,-55,2
1490742791993,127,-59,-1,-46,-8,-11,-3,51,-111,-50,-19,-24,-30,3,-14,-5
1490742791995,-65,30,3,27,-48,-30,-8,-18,55,-10,20,-13,30,-47,-26,-38
1490742792043,-57,75,16,59,51,-13,-49,-8,112,51,1,8,-12,50,32,23
1490742792091,-95,-27,-45,-128,-37,-25,-32,-44,8,-6,-32,-65,47,47,-15,21
1490742792140,107,-47,-20,-75,-104,-14,64,27,81,-6,-14,-19,-83,-13,-36,-2
1490742792189,56,106,40,84,-6,126,51,64,84,37,50,120,12,17,127,70
1490742792192,-71,-120,-47,-125,-36,-128,68,-73,62,-63,15,61,74,117,-34,-2
1490742792239,-42,53,62,127,127,101,101,43,-39,66,-2,116,-1,-58,-80,-49
1490742792287,-113,-45,-38,-38,21,-74,-127,-52,45,104,-11,-88,-90,-37,-39,50
1490742792335,10,20,-47,-106,-53,13,38,1,-74,17,2,43,36,50,55,-21
1490742792384,37,-59,-12,-38,-128,-79,44,-35,-8,45,-55,-128,-66,8,-68,-36
1490742792432,66,-104,31,127,112,100,37,44,-21,57,51,57,127,21,112,-31
1490742792433,-62,34,-46,-91,-121,-80,-39,-52,125,-67,-4,9,106,56,61,-35
1490742792482,41,-79,-11,-17,85,-46,-117,54,-77,-32,-3,-19,-59,33,52,16
1490742792530,-47,-33,-1,-55,-124,-85,-128,-128,127,-15,-41,43,17,-32,64,107
1490742792579,-35,-23,10,113,50,101,-102,11,-109,127,-38,-43,0,-34,34,-23
1490742792628,23,-46,4,-15,82,5,84,14,89,-83,-31,-48,-83,-50,-98,-54
1490742792676,-93,20,-5,28,40,127,-73,-118,-11,13,-28,-21,109,-5,-2,-16
1490742792678,88,31,17,20,23,119,127,127,-13,29,22,19,47,-2,-128,-69
1490742792725,19,-30,-36,-114,-122,15,-110,-96,49,77,65,75,112,127,127,127
1490742792775,-68,-93,0,56,-110,-128,35,-23,91,-12,-30,-56,-110,127,-36,7
1490742792823,-89,52,-29,-99,-40,-2,59,49,4,-66,-27,-81,34,39,125,8
1490742792871,-21,-39,26,38,79,-87,-96,-109,-128,-22,32,77,-54,35,127,43
1490742792872,-17,-76,-37,45,127,-29,-6,-37,-42,58,-51,-20,-93,-128,-92,-2
1490742792921,0,-54,26,-31,77,127,-16,51,10,62,18,66,10,127,54,-14
1490742792969,6,127,-22,-19,21,-8,43,-54,13,127,-24,-79,101,96,89,85
1490742793018,-62,54,39,111,19,-119,17,-38,-16,38,16,55,106,-76,-30,-119
1490742793067,24,-68,-74,-72,-90,54,62,-25,-63,-41,31,92,-39,10,-14,-13
1490742793116,25,-18,11,-97,-126,-40,-62,70,-16,-12,-9,45,-128,-16,-34,-6
1490742793117,26,-6,5,118,100,106,76,122,41,4,-39,-42,-17,-47,5,42
1490742793164,-11,0,2,-53,29,-96,-101,8,4,-4,-81,-64,127,-38,50,-40
1490742793213,-20,8,-2,73,-128,-35,-81,-55,-46,1,-39,-98,-57,-95,-94,-70
1490742793262,-9,-1,17,80,127,99,66,29,-7,-1,1,-61,-96,-68,-55,-42
1490742793311,-14,2,0,30,-99,-31,-81,-49,19,-3,-25,-102,-128,53,85,42
1490742793312,-11,6,5,93,17,-45,-83,-50,8,-1,0,27,12,-3,-4,12
1490742793360,52,0,23,-53,-106,55,119,76,34,-1,24,34,116,105,127,105
1490742793408,-2,1,-47,-85,127,104,64,9,30,-4,68,105,53,69,31,20
1490742793457,-33,4,-13,-27,82,-128,-53,-40,-20,-1,-45,17,127,99,9,-12
1490742793506,38,-11,75,127,127,108,23,12,2,0,41,80,28,19,19,33
1490742793554,-3,4,-56,90,56,56,-19,-9,-22,0,9,39,109,95,89,-3
1490742793556,8,-3,29,26,-16,31,32,4,8,10,46,61,73,127,87,41
1490742793604,-9,7,-9,-89,-108,-5,17,3,-18,-11,-19,-16,-80,-76,-48,-25
1490742793652,14,-3,43,-5,47,7,42,3,-25,0,-68,-118,-4,-55,-6,-22
1490742793701,-88,1,55,49,57,93,-2,-18,50,-4,-27,-2,127,58,18,9
1490742793749,9,2,33,23,22,20,13,6,-113,0,-21,36,-24,12,-25,-17
1490742793797,76,2,6,-14,74,26,10,18,-4,-7,9,-65,-59,-3,26,0
1490742793799,-95,-23,3,52,-17,76,-9,-39,91,-60,-15,-83,-114,-103,-29,23
1490742793895,-71,-48,-65,-115,-16,-59,-20,-19,-19,-50,-36,49,127,37,13,-6
1490742793896,35,-17,-33,-128,-128,-107,-35,-12,17,7,-42,-4,-103,-31,-19,-20
1490742793944,15,-3,-104,-120,-88,-22,15,24,-2,5,-62,-128,-128,-81,-27,-29
1490742793992,10,103,-25,-74,-120,-52,-21,-6,-7,101,-53,-43,-49,-19,-8,-26
1490742793994,7,-12,72,14,14,12,8,28,-8,36,19,28,5,-1,-21,4
1490742794041,1,10,-20,-43,-29,-39,-5,-1,-4,-43,-89,-13,35,-2,18,1
1490742794090,28,3,-22,-31,-37,13,5,-6,-62,-68,5,-1,-33,-12,-14,-14
1490742794139,5,-56,63,22,-36,-34,-23,-11,-52,-6,14,-21,2,-2,0,-24
1490742794189,6,0,-22,46,27,9,-7,3,-1,0,-27,-3,5,23,-1,-12
1490742794236,31,0,7,-24,-7,0,-30,-24,59,57,-1,-11,2,20,-1,7
1490742794239,44,43,28,10,-8,-5,-3,-5,-34,27,-31,-46,17,-15,-3,-12
1490742794285,-69,-66,-32,10,16,16,-6,9,-77,17,2,8,-18,-29,-32,-31
1490742794334,-45,-21,-27,16,22,-9,-27,-27,-6,-1,4,-22,-33,-9,5,45
1490742794383,-11,81,7,-37,-70,-38,-37,-30,9,-2,-19,-26,-47,6,-5,17
1490742794431,-3,-128,9,26,-25,2,-19,-18,-15,8,40,37,62,62,59,27
1490742794480,-63,-5,10,24,12,33,56,35,-38,-86,6,3,27,39,-40,-43
1490742794481,-13,-5,-11,-40,-78,-43,-98,-39,49,34,-70,-110,-90,-39,11,5
1490742794530,-20,127,-26,-49,69,-17,-12,-18,-56,77,1,-22,-85,-55,-48,-65
1490742794579,-67,18,9,65,120,14,14,-14,90,20,11,65,-79,-86,-35,11
1490742794630,11,5,22,62,0,-128,-68,-50,-27,3,-8,22,-48,99,59,16
1490742794676,102,2,38,58,24,48,27,53,58,-5,11,79,-35,-57,63,4
1490742794679,-40,2,21,81,6,36,44,-28,8,-2,8,-41,24,-47,-104,-21
1490742794724,65,0,-40,-18,6,-42,35,-5,-70,-1,2,47,-37,76,24,8
1490742794772,-4,-1,-25,4,-75,43,36,67,76,-1,-9,-60,69,-29,0,27
1490742794821,65,0,-27,-15,23,56,53,40,-128,0,-3,15,80,-65,40,-4
1490742794870,24,-69,33,25,87,51,-29,49,7,-47,-28,-6,-70,-49,-79,-73
1490742794967,-19,-94,-26,-40,-1,-12,-87,-122,-79,-17,6,-12,10,50,9,-11
1490742794968,67,-103,19,-26,-38,27,43,20,-45,-66,3,5,82,70,39,7
1490742794969,-115,70,-13,-124,-88,-66,65,37,105,34,-41,-38,42,-19,-32,-24
1490742795016,-81,-55,-27,20,66,66,17,-25,42,-19,26,7,-70,17,-6,-9
1490742795113,-63,67,36,67,-10,11,59,22,93,24,2,-8,-49,16,69,47
1490742795114,-35,28,1,21,39,83,-20,-10,28,18,-4,40,98,-28,-6,-3
1490742795162,-25,54,19,45,5,-54,78,43,59,48,7,-32,-116,-41,6,6
1490742795164,119,2,5,9,-15,112,1,46,-75,-98,33,-17,19,-88,88,23
1490742795212,-15,-16,-6,-28,-51,4,-10,3,-128,-29,-5,11,40,17,-10,-27
1490742795260,42,15,-14,24,4,31,-7,2,-94,17,-22,-6,3,39,19,-3
1490742795309,-75,-15,6,6,38,23,-22,-24,77,18,-2,13,62,63,68,55
1490742795357,87,42,-3,32,38,-51,-48,-38,-128,-65,-20,10,43,43,-14,-18
1490742795358,107,-82,7,19,8,24,53,-8,15,-28,38,51,-9,13,-27,3
1490742795406,-47,0,33,7,35,58,24,18,58,-13,25,34,39,12,53,33
1490742795455,-22,24,11,-2,-9,-6,-19,-18,58,22,-18,-29,-2,5,-2,-4
1490742795504,-20,31,-1,-22,13,-9,33,24,17,0,-11,-1,15,17,-5,-23
1490742795553,54,-12,1,-21,-21,-7,-1,2,-128,-1,1,-13,-13,-9,-17,-20
1490742795601,2,75,-1,-17,5,2,-57,-32,12,12,6,19,20,-13,59,30
1490742795603,6,21,-18,-44,-9,-24,-39,-16,65,12,42,39,10,19,34,77
1490742795651,-6,-34,-4,-1,-3,-21,-54,-3,37,14,1,5,4,11,15,23
1490742795699,69,-29,21,18,-2,-21,-31,-20,-78,-10,-15,-6,7,-9,14,-11
1490742795748,-65,-12,3,-10,-3,-8,5,-14,118,-10,4,15,26,46,93,66
1490742795796,41,-1,-13,-20,-5,5,23,41,-67,-10,-16,5,21,20,-17,-24
1490742795844,9,4,52,49,-28,10,-21,-19,-80,78,-5,61,116,-10,-17,-9
1490742795845,-79,-10,35,53,39,-22,-46,-32,100,-46,-15,-54,-46,66,46,49
1490742795894,59,70,4,6,127,-53,-27,-11,-101,-92,-4,38,34,-9,32,-39
1490742795944,-72,-7,-1,-32,-128,8,50,21,0,-44,-18,-117,-84,-103,-54,-33
1490742795992,-19,50,29,85,117,124,-37,-23,18,81,1,43,-12,36,34,5
1490742796041,127,-47,2,-128,-12,73,5,-45,-67,20,14,2,-42,18,75,55
1490742796042,-12,72,68,107,103,127,77,65,-46,127,62,127,9,44,56,45
1490742796090,-93,67,15,-19,-13,38,-102,-41,127,114,97,118,111,127,29,93
1490742796138,-31,56,-13,-80,-128,-109,102,14,-127,-70,23,-17,110,-105,58,-53
1490742796186,-13,-48,13,89,73,-43,-47,13,-48,61,-9,56,-76,127,-32,-70
1490742796235,3,88,13,-6,-99,44,-30,-128,127,-63,-15,-96,-111,-55,127,127
1490742796283,79,-94,-4,-5,-37,-112,-40,-92,-95,126,27,-10,0,127,110,40
1490742796284,-72,75,-3,46,68,55,-2,-70,-71,31,22,6,89,42,-8,75
1490742796333,-128,26,-16,68,-3,-4,81,43,-91,77,45,79,127,79,-21,-13
1490742796381,69,9,23,-56,53,93,-42,-39,-37,-6,36,48,-9,-59,45,-41
1490742796430,96,9,0,-25,68,68,64,127,77,4,-12,-56,-62,37,-5,0
1490742796478,30,4,29,106,72,-128,-109,-109,58,-64,-56,26,-115,14,3,-26
1490742796480,-26,-50,-97,-107,-94,-53,107,80,-4,51,74,-10,-92,127,12,46
1490742796528,31,25,27,10,44,-23,34,118,101,5,33,27,127,127,-43,-21
1490742796576,-7,-35,-26,86,-128,1,75,51,-9,41,23,-55,36,-56,55,41
1490742796625,-112,41,-86,-128,-69,58,-110,-94,68,-27,54,107,66,29,93,12
1490742796674,-2,127,61,85,13,127,127,85,18,-88,-21,21,-57,-88,-128,-103
1490742796722,-98,-20,-95,-128,-83,-88,-12,-26,52,74,27,5,126,50,-108,-6
1490742796724,-33,-67,26,127,127,127,100,-27,-24,-99,-4,59,-71,-109,-34,83
1490742796772,48,-47,8,-121,24,49,-81,83,-33,-57,26,-35,67,34,86,-24
1490742796820,66,127,52,127,100,66,-81,-4,-98,4,23,-39,70,-118,68,-17
1490742796869,-14,-49,-61,-90,9,-69,33,42,11,-56,45,-63,-128,-18,-123,27
1490742796918,66,-14,85,116,127,121,10,-70,42,5,-13,109,-73,68,6,63
1490742796966,-65,15,-73,-93,-128,-28,73,-18,41,-12,53,72,3,64,6,65
1490742796967,-41,13,-8,40,-5,-27,8,-36,41,-9,-21,-35,86,126,99,90
1490742797015,15,7,-35,2,-84,-29,43,23,-4,4,10,14,79,-110,-99,-9
1490742797064,-88,-1,-19,-24,113,74,117,63,86,-5,18,100,75,110,43,36
1490742797113,-24,-1,6,45,-128,-128,-128,-78,29,0,-1,-128,-128,114,127,123
1490742797161,40,0,82,64,82,-95,-128,-49,-21,4,-8,95,127,45,75,34
1490742797163,25,-3,12,70,116,-50,-52,10,-26,-5,6,-47,39,-19,-52,-41
1490742797210,-22,6,-18,58,118,73,11,-12,24,0,32,-94,-39,123,70,68
1490742797259,-2,7,20,-10,77,109,67,7,4,2,20,-20,-3,64,95,12
1490742797308,32,-7,100,74,56,85,23,19,6,-6,1,28,-10,68,28,-3
1490742797405,-28,0,-10,61,-45,-124,-42,-21,-19,0,14,-103,3,15,34,-18
1490742797454,12,-4,44,127,4,23,0,8,-11,4,-35,15,-128,37,77,60
1490742797455,-32,2,33,-6,110,127,34,-30,53,-5,-54,-67,68,-84,10,20
1490742797456,60,-1,26,-58,-128,34,46,41,-41,-3,0,-116,-115,22,-22,9
1490742797503,34,-4,19,86,110,117,103,91,-73,-7,-42,-85,-70,-8,-67,-91
1490742797551,6,3,64,-31,-114,-74,-61,13,-49,6,-88,-32,-128,-36,-97,-80
1490742797600,19,4,52,72,33,14,-3,20,-8,7,14,26,-90,-24,11,10
1490742797648,3,4,20,12,-100,-128,-31,-29,35,-4,-40,-125,-10,-128,-21,-20
1490742797649,16,1,-76,-128,-107,-70,-12,-7,1,1,-4,-109,68,-20,-56,-16
1490742797698,-44,0,-61,-94,69,53,-1,-19,-33,-4,-71,-17,93,-128,-54,-12
1490742797747,-13,1,-1,-106,-79,14,2,-21,-23,-5,2,-84,-32,-30,17,18
1490742797796,5,6,26,109,-61,-15,20,21,17,2,26,-97,-83,-89,-44,7
1490742797843,12,6,20,-10,127,-18,5,9,-9,-16,0,71,-61,43,39,-3
1490742797845,40,-2,21,-9,19,-29,-20,-10,-17,1,-36,-9,94,127,28,16
1490742797893,-57,-1,-48,-90,-103,-123,-30,-28,39,3,-72,-128,-34,-92,-34,-22
1490742797942,44,-7,-38,-25,64,47,3,-11,-60,-1,21,86,127,103,35,14
1490742797991,-16,-7,-17,-42,-53,-54,-6,-2,32,-8,-63,-92,15,-82,-54,-16
1490742798039,-1,4,-71,-49,-96,-65,-28,6,24,-4,47,37,-70,-17,0,8
1490742798087,30,14,66,99,-11,-10,-9,7,18,-3,-69,70,81,101,65,12
1490742798089,31,14,1,35,41,20,27,19,-34,-6,30,-74,-65,-38,-35,-1
1490742798137,-53,-13,96,-95,-77,7,12,6,-11,-56,-67,-36,42,11,-4,-6
1490742798185,-19,-16,-86,-93,14,-14,0,16,-16,-7,46,63,-24,-8,-6,-8
1490742798234,8,1,-59,36,54,32,10,-15,-22,21,54,-76,-55,-29,-43,-18
1490742798283,83,-37,85,-22,-8,-22,-16,-18,-3,-43,-32,50,42,8,-24,-29
1490742798331,-7,-6,-79,-93,-123,-69,-17,15,77,17,5,-100,-70,-81,-94,-57
1490742798333,-5,-99,2,-68,82,-8,30,11,-90,-66,-41,-86,-42,-39,-15,-27
1490742798381,-79,127,4,34,-33,-24,-29,19,30,127,58,96,74,52,100,37
1490742798477,-55,63,-37,-83,34,-34,-13,-14,-8,127,-5,17,26,0,13,15
1490742798479,51,22,21,48,113,80,33,-28,-23,21,-20,88,115,73,34,8
1490742798526,-32,-10,38,-79,-128,-46,-24,0,33,-3,-12,-69,-71,-81,-71,-29
1490742798575,-66,-7,-31,-80,-53,62,-22,-70,16,116,-24,-72,-93,-52,-11,-9
1490742798576,24,-9,-45,-79,-69,-57,-59,-19,96,-50,5,-105,-87,18,26,44
1490742798624,30,35,0,21,38,96,28,44,76,6,-3,1,-4,-50,-26,13
1490742798673,21,10,7,-2,-59,-97,-13,-27,4,4,-11,-47,-21,109,25,25
1490742798722,77,115,-29,-51,1,27,-48,-24,-49,118,-19,-4,-10,56,26,6
1490742798770,78,-19,-5,-20,-67,-128,-96,-52,-47,-2,-30,-43,63,76,72,-7
1490742798771,15,50,30,23,33,64,18,12,-111,-68,-41,-65,-124,-119,-17,-1
1490742798819,13,-38,0,40,68,-59,29,9,3,73,-4,59,9,85,98,41
1490742798868,26,59,18,7,91,69,2,-2,-128,-30,-47,-58,-62,-38,-72,-63
1490742798916,76,76,24,-24,-78,55,75,25,-95,55,-10,28,60,-80,38,-9
1490742798964,47,-52,-45,-17,-17,9,-38,-62,24,-80,11,10,56,127,106,29
1490742798966,-20,-13,-7,8,78,-9,39,16,-6,-3,-18,5,-17,59,-16,-46
1490742799017,8,83,13,-8,26,51,37,23,49,32,-41,-66,-14,-64,-104,-52
1490742799063,45,-41,-6,-32,-99,-114,-122,-108,-108,-4,-11,29,56,56,110,62
1490742799111,-51,47,12,-4,-28,-53,-43,-11,-9,125,-7,-84,-72,127,45,17
1490742799160,-14,-45,-15,46,23,-18,-70,-46,-125,8,-28,-62,-97,-70,16,25
1490742799208,-107,50,11,-13,-120,-77,-114,-99,55,2,-39,-57,-100,-101,-71,-16
1490742799210,-122,-29,7,-16,-1,-56,-17,-60,33,3,9,-18,-9,0,-12,4
1490742799258,-35,7,7,-2,27,58,-8,-2,10,-67,26,10,77,58,54,0
1490742799307,96,63,16,-19,-4,84,59,51,-89,-35,45,44,55,-25,-39,-4
1490742799355,-40,1,11,18,-31,5,35,43,0,24,-39,-21,-8,-7,-32,-30
1490742799404,-30,7,-8,-4,31,19,56,2,65,-8,-9,-7,-18,-63,-88,-64
1490742799453,37,27,7,17,-11,75,-2,28,-3,26,30,41,57,-2,14,6
1490742799455,61,18,6,1,-20,-12,16,-4,-47,-17,-17,-31,-30,32,71,23
1490742799502,-128,-71,4,7,15,-6,-38,-36,-5,12,0,0,-13,29,36,30
1490742799550,-37,-28,4,17,26,68,66,31,53,0,-6,12,14,-3,35,6
1490742799599,-60,-11,2,6,-16,-15,11,-6,-128,-24,-15,5,12,16,-71,-41
1490742799647,127,-40,-24,0,8,-34,-10,3,29,37,1,-21,-14,20,-3,13
1490742799648,-40,56,-10,-30,-5,-22,-85,-36,-36,10,-12,-41,-1,-30,11,24
1490742799697,-25,20,12,2,-13,-56,-93,-16,96,12,-8,-19,3,39,59,34
1490742799745,-91,-101,-2,16,8,-18,-14,-52,-9,-109,-31,-20,-15,8,-42,6
1490742799794,-27,88,-3,7,7,-7,-49,-21,25,47,13,11,4,5,10,-3
1490742799843,4,-7,-9,17,29,29,-9,26,37,28,-2,17,-3,6,-2,4
1490742799891,-86,25,-22,3,32,19,-17,-33,21,10,10,49,6,-24,6,16
1490742799892,19,-19,-11,-65,-41,91,57,35,87,-60,32,-32,40,15,72,80
1490742799941,77,-8,7,36,27,-23,-91,-1,-128,-14,-25,-66,-73,-1,19,-73
1490742799990,-42,-10,28,-30,53,127,21,34,-57,16,-10,95,10,77,49,-45
1490742800039,-87,-18,-7,-58,115,41,50,-16,-108,80,28,115,-2,71,-100,-58
1490742800087,47,-128,-93,-128,35,3,-87,-67,114,-86,37,62,107,42,23,15
1490742800136,-86,101,-49,111,-22,-7,-76,-42,116,-66,-71,-101,-128,-128,-120,-22
1490742800140,-17,18,34,98,124,-85,-8,16,30,127,-6,90,-128,83,30,-34
1490742800185,41,106,39,45,-78,127,105,30,9,-67,21,77,-55,58,53,11
1490742800233,-42,64,-8,48,16,0,-28,14,107,-5,40,-101,-78,-101,-63,-40
1490742800281,-74,-84,-62,-120,-128,-91,106,-7,-18,36,-35,-120,-126,27,22,-60
1490742800329,50,-56,-12,11,127,54,-97,-23,-108,22,6,-1,-51,-93,10,88
1490742800331,11,-15,-2,-21,67,127,46,43,127,93,50,127,84,127,127,116
1490742800379,-23,-28,-62,-128,-122,46,-1,-2,-8,26,3,-35,127,29,127,22
1490742800427,-47,116,-39,45,83,127,127,50,-33,-46,24,113,-58,-75,-128,-116
1490742800476,-32,44,9,-62,-128,-128,-102,-88,-40,-56,-95,-95,-98,-91,-6,5
1490742800525,-9,-110,-73,-2,104,13,-81,-84,-32,-85,-25,9,-43,53,64,86
1490742800573,30,27,59,91,124,127,127,88,-28,-75,-31,7,-51,-53,-68,-96
1490742800574,127,-122,-79,-128,-81,-104,82,27,-44,69,-6,-48,-90,41,127,29
1490742800622,-128,31,-74,-110,-30,-128,-128,-128,124,-10,33,-53,69,127,19,67
1490742800672,-128,115,1,127,-12,58,83,51,-3,-6,17,7,-74,59,54,-18
1490742800720,-35,-128,-9,51,-128,-91,-128,-128,-60,38,-44,-44,-76,-73,-16,2
1490742800769,-40,-116,-18,61,45,39,42,39,-6,24,63,65,127,127,119,75
1490742800817,79,-94,10,-45,85,-5,-8,25,99,127,-22,13,-121,100,86,127
1490742800819,76,71,16,80,65,39,-6,-60,-128,-39,-39,-123,57,-28,-128,-44
1490742800866,73,-115,-8,26,114,30,-124,127,65,-128,32,110,104,125,96,23
1490742800915,7,-56,-45,-102,-99,26,54,23,69,-25,29,82,69,35,59,8
1490742800964,-128,71,-3,99,-2,34,46,-91,117,50,-17,-56,-109,-41,69,43
1490742801012,14,5,92,13,-101,85,127,49,-29,-13,-5,55,87,14,-29,58
1490742801013,-89,13,-71,-109,-128,-128,-128,-128,-5,-19,-53,-83,-120,127,126,96
1490742801062,94,8,-12,-45,-26,63,-43,43,-22,-15,39,11,-77,26,24,-62
1490742801110,14,6,9,-63,-108,49,110,96,16,-14,-32,-82,-121,-36,107,-30
1490742801159,25,12,52,96,127,22,-17,30,-13,14,-8,90,127,37,4,-49
1490742801208,-62,-3,32,-7,112,30,8,-35,-85,1,-42,-49,-37,-26,-85,-60
1490742801256,2,-8,-31,96,45,44,55,26,-47,-18,-7,1,-66,-61,-90,-100
1490742801257,-5,-14,-19,-62,-99,-127,-77,-40,-30,9,1,-32,-128,-112,-32,15
1490742801305,-16,6,-11,-90,-89,-128,-99,-60,29,3,-5,-6,-20,78,74,39
1490742801354,-8,6,-7,-64,-105,44,-25,-57,-41,7,-28,-22,-103,-128,80,61
1490742801403,9,6,-22,-29,127,26,2,3,-17,2,-4,74,88,127,43,-7
1490742801451,0,0,-8,-64,-128,-92,-87,11,21,-1,1,79,56,70,39,-13
1490742801500,-7,-5,73,127,-44,127,79,-8,12,-1,0,-48,-128,3,-7,54
1490742801501,6,-19,32,-37,46,34,48,25,7,-8,-33,-103,-128,-71,-43,-19
1490742801549,-1,8,-14,-12,-128,72,60,7,-24,-3,-35,-70,47,-122,-111,-56
1490742801598,54,-8,-29,-92,-79,-92,-41,-8,-8,1,-36,73,74,27,-2,-10
1490742801646,4,-4,-13,125,-3,127,91,23,-7,-5,13,3,-93,-30,11,8
1490742801694,63,3,66,127,127,78,25,18,16,-7,-23,63,8,66,8,11
1490742801696,69,-3,64,76,-105,-32,-13,4,-14,-6,19,33,-5,74,60,20
1490742801744,-73,-8,-40,-121,-41,-54,-71,-36,28,11,-64,28,127,83,15,-6
1490742801793,-26,-3,-19,36,85,17,32,18,-92,-2,-41,-128,-97,-96,-45,-21
1490742801841,10,-8,116,115,33,116,89,31,16,6,-8,23,110,-30,6,1
1490742801890,91,5,-1,-23,80,51,41,22,-19,-5,38,-4,-117,10,-13,7
1490742801939,4,2,-78,-79,-69,-66,-41,-23,-70,-8,-45,37,-16,32,-14,-5
1490742801942,21,-1,42,10,13,-32,-12,3,-54,-2,-51,-115,-65,6,14,-8
1490742801988,10,0,15,68,126,98,77,36,74,-5,92,127,127,95,61,34
1490742802036,-13,-2,117,85,-15,111,57,16,26,-3,-30,-19,-92,-48,-10,-5
1490742802088,24,68,-20,-95,-73,-50,-23,7,-64,47,-13,-71,-90,-53,-36,-23
1490742802134,16,53,-92,-52,-66,-78,-51,-18,-8,-32,-3,-39,-88,-23,17,15
1490742802136,-37,-22,23,76,41,22,3,-14,21,-54,-32,14,29,-35,23,-3
1490742802183,-33,-46,-42,-41,-76,24,12,-6,54,-16,-31,-76,9,12,-14,-15
1490742802231,-63,-8,-11,-63,-62,-106,-57,-33,93,15,-47,-107,-79,-38,-36,7
1490742802280,-17,127,45,98,75,37,17,24,37,53,-14,76,9,94,70,34
1490742802329,21,93,35,81,67,-7,14,22,16,34,30,127,127,59,8,40
1490742802377,-10,-33,-20,36,127,53,32,15,-40,20,45,56,-122,13,4,-30
1490742802380,-85,-19,-4,-33,-99,-17,34,35,-50,-52,29,39,103,54,51,28
1490742802426,38,57,-20,-61,-25,-91,-63,-37,-45,74,7,-128,-44,23,-4,-28
1490742802475,-17,20,-6,-64,-95,13,-33,-20,-15,17,-8,40,-70,13,31,33
1490742802524,-89,1,-25,18,78,26,-34,-47,-24,4,29,93,-1,67,106,19
1490742802576,26,8,50,127,127,84,127,57,-53,13,-3,-27,-79,-92,-117,53
1490742802622,-50,-113,-47,-89,-127,-127,-106,-9,127,3,-38,-97,74,127,100,57
1490742802624,1,-82,-7,55,51,35,44,44,-1,27,6,85,127,79,-24,-95
1490742802673,-27,55,6,-3,75,-3,-39,-64,98,68,8,-15,-38,-9,-48,-34
1490742802721,78,20,14,44,-11,127,34,17,-106,-30,-29,21,116,-8,-5,40
1490742802768,-102,-42,11,-12,-115,74,-12,-13,100,-112,-20,-49,90,-111,-113,-5
1490742802816,-73,35,3,28,75,-49,-42,-76,-17,-38,-14,-18,49,-117,-2,-3
1490742802818,85,40,22,18,26,-23,24,37,-31,8,1,-32,-41,15,35,-27
1490742802865,-17,-69,-14,33,-1,14,24,20,77,-44,-8,-113,-118,-78,-85,-11
1490742802914,-34,42,23,16,-2,-23,0,-18,-51,127,2,-36,-11,-34,32,-19
1490742802963,31,74,14,15,-15,-32,13,15,-7,-19,7,35,-3,-32,-19,2
1490742803012,-49,1,8,47,17,73,-2,-26,-40,-30,15,43,109,-4,-37,-27
1490742803062,-4,42,1,-30,-31,-8,0,2,54,72,-13,-38,-51,-43,-9,3
1490742803064,22,-39,0,-31,-17,17,15,11,-5,6,16,36,29,61,15,12
1490742803109,-21,56,11,19,7,15,24,4,-63,11,4,21,32,54,6,-12
1490742803160,7,-33,-21,0,-17,12,-16,-38,12,-16,-5,11,-13,-24,-26,-17
1490742803207,10,10,-11,-36,-45,-26,-4,-6,-30,92,2,-21,-3,-7,-16,-13
1490742803255,-6,9,29,33,47,35,8,4,-16,-28,7,10,25,75,49,21
1490742803303,0,-3,-28,-34,-37,-26,-16,-4,19,-8,-14,-77,-50,-38,-5,-3
1490742803305,57,-85,-37,-11,6,7,27,11,-25,-84,8,-2,28,36,-43,-20
1490742803354,-25,121,-2,82,54,13,-12,-16,0,119,39,23,4,-9,-20,-13
1490742803402,14,88,-60,-16,5,47,-2,6,-11,10,31,32,-1,65,-12,1
1490742803451,-5,-94,20,19,14,-70,-47,-29,-9,-49,-71,-29,-1,51,-36,8
1490742803498,-19,107,16,9,4,12,22,10,-3,-5,8,-42,5,-5,-10,-7
1490742803500,46,52,43,37,20,23,28,20,-63,33,-17,34,15,4,6,4
1490742803548,-23,-45,29,-101,-13,17,-5,3,-64,-69,11,-50,-30,-16,-30,-31
1490742803597,-1,122,8,80,19,-3,-7,-5,-2,79,-18,74,21,-1,-1,13
1490742803645,17,-110,-7,4,-3,-4,3,-1,-1,-107,9,-5,2,-6,3,1
1490742803694,-8,-13,-24,-14,-7,-17,15,4,3,-29,-40,-27,-16,-31,-35,-12
1490742803742,10,-5,21,1,-4,10,1,-4,4,-2,-18,13,7,12,4,5
1490742803743,0,-17,-4,-10,-7,-1,-4,-1,-4,-49,1,0,1,7,-2,-2
1490742803792,1,25,15,9,3,7,7,-2,1,-16,-3,0,7,13,9,3
1490742803840,4,-90,17,-12,3,-2,-11,2,-5,-77,-24,-49,-39,-15,-13,-13
1490742803889,2,26,-2,-11,-33,-23,-7,-1,-6,6,-25,-14,-27,-13,-11,-12
1490742803938,4,-44,23,20,5,-2,-6,5,-1,-17,4,-2,-7,0,-4,-4
1490742803986,-3,-5,0,2,-7,1,0,5,-1,18,9,7,11,6,4,2
1490742803987,0,13,-2,-1,-3,-4,-2,-2,2,52,-1,0,-1,-5,-16,-2
1490742804035,-5,23,-9,1,0,1,1,-1,2,12,25,-3,-9,1,-2,0
1490742804084,-1,-1,6,-8,-3,2,-4,3,-1,12,-1,-1,0,1,1,-1
1490742804183,-5,-12,-5,-1,-1,0,4,-1,1,-4,11,5,2,-2,3,-5
1490742804186,-1,-3,5,-3,3,-4,-1,-3,0,6,-9,-4,3,-3,-3,-2
1490742804188,-1,2,10,-1,-2,-1,3,3,-7,-9,-23,-2,3,3,-1,0
1490742804234,-1,-11,-5,-6,-5,1,-5,1,3,-9,4,-1,8,5,-1,2
1490742804279,0,-6,7,18,12,1,4,0,-2,0,-8,-10,2,3,2,-2
1490742804327,-2,-5,2,-2,10,1,5,7,1,-4,5,-2,1,-3,0,2
1490742804376,-4,-5,12,11,-4,-1,4,-1,0,-1,3,1,-5,-2,3,0
1490742804424,2,8,-2,-7,0,2,0,-2,-4,-4,-14,-4,-1,1,0,-5
1490742804425,0,3,12,-3,2,-3,0,3,0,-1,-6,3,1,-4,-4,-3
1490742804474,-7,-10,-27,-12,2,2,-1,-6,0,3,2,-4,1,4,1,-2
1490742804526,-3,-9,-10,2,-1,0,2,-4,-1,6,-3,-2,-2,1,-1,5
1490742804571,-4,9,1,-3,1,0,-2,-10,-2,-5,-6,-6,1,-1,0,4
1490742804620,1,-26,-7,7,7,-4,2,-3,2,-14,0,8,2,1,7,2
1490742804621,1,-4,-19,0,0,-5,-6,-1,3,10,4,-5,6,2,-4,1
1490742804669,-3,5,-6,0,6,-2,0,-7,5,5,-10,1,3,-4,1,3
1490742804765,1,0,-3,-1,-5,0,2,0,3,6,5,6,4,0,2,-2
1490742804767,-1,-3,4,6,-1,-5,-7,-2,0,-7,7,2,-3,-5,-3,2
1490742804815,0,3,-9,-10,5,5,0,1,-3,-44,-6,-11,1,2,-2,4
1490742804863,-1,26,0,5,0,-10,-4,-3,-2,27,-5,5,-4,-11,4,-2
1490742804864,-3,-17,-6,-3,2,-1,-1,0,-2,-14,-6,4,-6,-1,-2,-4
1490742804914,-3,-4,1,2,-2,7,0,2,0,0,-6,5,0,-1,0,-1
1490742804961,3,0,3,5,4,-4,5,-7,-3,-5,0,-1,3,-2,3,-1
1490742805010,-3,-8,-1,0,-4,2,3,6,0,3,-2,5,-5,1,-1,-1
1490742805059,0,4,-1,1,-6,-2,3,1,-1,0,3,-2,-6,-3,4,1
