1491087042430,0,-36,-42,-57,-40,-46,-51,-18,-26
1491087042430,0,17,18,14,8,16,3,-9,3
1491087042431,1,-6,-9,3,-4,8,-14,-43,-21
1491087042431,1,15,12,16,12,23,39,73,34
1491087042432,2,-1,5,16,31,30,-2,-20,-8
1491087042432,2,9,-4,0,19,9,-26,-45,11
1491087042432,3,-23,-3,-2,-28,-30,37,84,2
1491087042432,3,-3,-16,-16,-28,-13,18,-13,-7
1491087042468,0,2,11,13,-1,13,-20,-12,8
1491087042468,0,-11,-11,-10,-11,-2,41,35,8
1491087042469,1,8,6,-1,12,10,-27,-60,-12
1491087042469,1,-13,2,1,0,-18,-6,-20,-11
1491087042469,2,8,4,3,0,2,3,-7,-2
1491087042469,2,-5,2,4,13,-2,-56,-6,-5
1491087042470,3,-6,-4,-8,-14,-20,-18,2,-17
1491087042470,3,-8,1,-6,-4,2,16,-30,-20
1491087042505,0,12,-1,-1,3,-14,33,60,35
1491087042505,0,-6,-7,-10,-32,-5,-53,-39,-14
1491087042506,1,-4,-5,-3,10,12,37,52,12
1491087042506,1,2,-7,-1,11,6,-14,-48,-10
1491087042507,3,4,0,-4,-20,-28,-41,17,4
1491087042507,3,-10,-8,-15,-26,-36,-5,-50,8
1491087042542,0,2,5,5,7,12,25,57,12
1491087042542,0,-16,-8,-6,-33,-30,28,6,4
1491087042544,1,6,-4,-1,43,40,-49,-48,-12
1491087042544,1,-13,1,-1,2,15,28,12,-9
1491087042544,2,-13,-6,-2,-21,-62,-44,-29,-7
1491087042544,2,13,2,-6,0,5,7,-22,-1
1491087042545,3,-9,4,3,-3,-11,16,-35,-4
1491087042545,3,11,9,8,12,17,-18,64,30
1491087042580,0,-4,-4,-5,4,8,24,-17,-11
1491087042580,0,0,10,7,-10,-25,-20,11,-7
1491087042581,1,-17,-7,-4,-3,-1,-12,-96,-70
1491087042581,1,1,1,1,4,15,42,127,80
1491087042582,2,58,11,-3,15,37,-30,-79,21
1491087042582,2,-27,-8,-5,-23,-31,-1,-32,-6
1491087042582,3,11,2,1,-12,-11,14,-11,14
1491087042582,3,-35,-6,-7,-50,-82,-59,-112,-73
1491087042617,0,-6,-3,7,15,40,-16,35,29
1491087042617,0,11,0,1,11,29,20,67,16
1491087042619,1,-6,2,4,-15,-12,13,-14,-15
1491087042619,1,9,-2,2,39,37,39,51,15
1491087042620,2,-14,-10,-13,-19,-50,-60,1,-4
1491087042620,2,6,-5,-13,-13,-24,-37,-40,-11
1491087042621,3,-6,2,5,4,8,30,-24,-5
1491087042621,3,3,1,2,29,29,22,68,20
1491087042655,0,16,-4,9,-5,21,8,-44,0
1491087042655,0,7,17,1,-4,-40,67,42,6
1491087042656,1,-11,-3,-4,-5,31,-63,49,14
1491087042656,1,11,-6,-7,-2,-31,42,-78,-26
1491087042657,2,9,6,1,5,39,99,48,-4
1491087042657,2,-3,-15,3,10,11,-17,15,-8
1491087042658,3,31,16,14,-21,-35,-56,33,25
1491087042658,3,-7,-6,7,35,40,-19,-43,-37
1491087042692,0,-25,-9,-18,-14,-14,18,74,51
1491087042692,0,-10,-14,-14,1,6,8,-47,10
1491087042693,1,15,2,-6,5,-7,23,31,0
1491087042693,1,2,-1,-4,-2,15,-59,-31,-25
1491087042694,2,-7,11,17,4,9,-30,-128,-75
1491087042694,2,0,-3,-4,-6,-12,66,107,39
1491087042695,3,-20,-18,-15,3,-11,-64,-32,-13
1491087042695,3,-1,0,20,-19,-23,-45,-6,-6
1491087042730,0,13,8,-3,3,-17,54,-5,27
1491087042730,0,-27,-5,-2,6,15,-57,-81,-51
1491087042731,1,26,1,-5,4,17,97,63,80
1491087042731,1,1,6,-2,-19,-7,-46,-3,35
1491087042732,2,-11,-3,-2,-3,-32,-2,-68,-81
1491087042732,2,20,6,-6,3,28,-25,24,10
1491087042733,3,19,10,22,-6,-7,43,100,47
1491087042733,3,-19,-10,1,-10,-16,32,-32,-20
1491087042805,0,-7,5,-1,24,43,-38,34,-21
1491087042805,0,-10,5,2,24,7,3,43,19
1491087042806,1,-17,-17,-23,-6,-17,24,-28,-33
1491087042806,1,20,9,3,-21,-17,-19,-41,12
1491087042807,2,-5,-10,-1,-3,5,-3,25,9
1491087042807,2,-2,-9,-6,3,-8,-48,-112,-73
1491087042808,3,-21,5,12,14,39,45,97,49
1491087042808,3,7,-2,-13,-1,-15,26,40,-36
1491087042843,0,-2,-5,-8,-18,-30,-80,-84,-15
1491087042843,0,2,2,8,15,59,97,94,44
1491087042844,1,-25,-8,8,-30,-36,-56,-98,-45
1491087042844,1,4,0,-6,0,-21,-34,-107,-55
1491087042845,2,-28,-8,-14,-26,-29,80,127,86
1491087042845,2,34,11,5,-2,-8,-2,-43,1
1491087042846,0,-16,7,10,2,-15,-24,60,19
1491087042846,0,9,-4,-1,-6,9,-22,-98,-12
1491087042880,1,8,0,-4,4,2,-23,-18,26
1491087042880,1,-4,-11,-17,0,10,33,42,-33
1491087042881,2,0,-1,8,-31,-36,52,-65,-16
1491087042881,2,3,-1,5,17,17,-15,49,42
1491087042882,0,-15,1,3,-18,3,-89,-3,-29
1491087042882,0,-8,-12,-12,-5,-25,46,-36,-18
1491087042883,1,0,9,-2,-7,-1,11,2,-4
1491087042883,1,2,-3,-4,0,10,-31,27,39
1491087042918,2,11,11,6,6,-16,50,67,4
1491087042918,2,-7,4,-3,-11,-19,-45,-96,-43
1491087042920,3,2,-2,0,12,4,-17,-29,-7
1491087042920,3,-8,-4,2,19,36,78,44,7
1491087042921,0,13,-4,-7,-16,-31,-77,-128,-34
1491087042921,0,-7,-4,-4,-16,-17,-65,127,44
1491087042922,1,-3,-5,-5,17,24,103,41,22
1491087042922,1,-14,-2,-4,0,-10,-78,-58,10
1491087042955,2,16,-5,-8,10,26,35,-20,6
1491087042955,2,-19,1,13,-6,-45,-29,-96,-42
1491087042956,3,14,-2,-2,-18,11,-2,-23,2
1491087042956,3,-8,-10,-11,-5,10,31,62,-3
1491087042957,0,12,-11,-4,19,37,-33,29,12
1491087042957,0,-4,1,4,-42,-17,18,-4,-5
1491087042958,1,-5,-12,-5,24,-9,-53,-19,-10
1491087042958,1,12,2,-1,-7,-21,43,-7,12
1491087042993,2,-14,2,8,20,40,-82,-57,-51
1491087042993,2,10,-5,-2,13,-6,44,-3,36
1491087042994,3,1,4,-1,-27,-23,-9,31,-1
1491087042994,3,20,-6,-5,-5,-30,-16,-4,19
1491087042995,0,-17,0,4,-28,-35,73,40,-1
1491087042995,0,-4,2,-5,21,37,-23,-59,-20
1491087042996,1,2,7,7,-17,-5,-19,15,-8
1491087042996,1,-11,-1,-4,15,11,-10,-14,2
1491087043030,2,-3,-7,-4,0,-4,-20,-18,0
1491087043030,2,22,11,2,3,4,18,22,-1
1491087043031,3,-6,0,5,16,6,8,-40,-4
1491087043031,3,10,2,-3,-23,9,-10,-40,14
1491087043032,0,-18,-11,-18,-15,-15,14,-3,-6
1491087043032,0,9,-2,-9,-16,-31,-36,38,25
1491087043068,1,-10,-8,-7,-6,-4,33,-16,-28
1491087043068,1,1,6,8,28,36,-29,-22,-3
1491087043069,2,4,9,12,9,1,31,7,7
1491087043069,2,-23,-8,-13,-13,-12,-21,-10,-4
1491087043070,3,5,-2,-7,-19,-37,-18,-26,-6
1491087043070,3,4,0,2,-2,4,-15,9,12
1491087043071,0,9,1,-2,6,1,-18,15,2
1491087043071,0,-6,-4,2,8,14,41,18,-9
1491087043105,1,-3,-6,-1,4,16,1,-41,3
1491087043105,1,-6,-4,-4,-10,-22,-47,17,-11
1491087043106,2,1,-1,-6,-7,-19,16,-46,-3
1491087043106,2,-27,-12,-13,5,13,103,61,-5
1491087043107,3,6,5,2,5,9,-107,-9,17
1491087043107,3,28,-4,-5,9,19,82,-11,2
1491087043108,0,-3,1,11,6,8,33,-8,7
1491087043108,0,8,4,-1,3,25,-30,-15,-10
1491087043181,1,-11,-8,-8,-27,-47,-2,-57,-24
1491087043181,1,-7,-9,-14,-26,-10,10,38,6
1491087043182,2,-4,3,1,6,5,-39,33,0
1491087043182,2,-3,-4,5,6,26,21,4,-2
1491087043182,3,9,10,14,9,-39,-8,10,-7
1491087043182,3,-11,8,-3,-27,-26,-67,-114,-17
1491087043183,0,-3,-15,-16,-1,20,28,57,4
1491087043183,0,9,8,9,10,8,-19,46,13
1491087043218,1,2,-3,-8,2,13,31,35,14
1491087043218,1,0,6,15,5,-18,-21,-14,4
1491087043221,2,10,12,5,21,33,28,-43,-9
1491087043221,2,-20,-8,-1,14,-9,-33,-52,-31
1491087043222,2,4,-4,-7,-23,-61,-55,-22,-9
1491087043222,2,2,3,1,16,-11,8,-32,4
1491087043227,3,12,7,6,-10,23,34,16,9
1491087043227,3,-1,-1,-1,35,46,-33,6,-18
1491087043256,0,5,1,0,3,24,5,-24,0
1491087043256,0,-14,-1,-3,0,-10,21,63,12
1491087043257,1,2,0,3,13,27,77,-15,-15
1491087043257,1,33,12,3,-20,-27,-71,17,13
1491087043258,2,-39,-12,-13,18,-11,28,-10,7
1491087043258,2,4,-4,-5,-17,-7,4,-25,5
1491087043259,3,-10,-9,-3,17,-14,-40,-94,-30
1491087043259,3,2,0,7,-6,-7,46,100,34
1491087043293,0,-15,-6,-1,-4,-1,-23,1,-40
1491087043293,0,21,3,-5,-22,-23,-33,-59,5
1491087043294,1,-3,-5,-7,-11,-47,-8,56,23
1491087043294,1,-6,-4,3,35,15,-21,-107,-39
1491087043295,2,1,2,6,-18,32,85,91,21
1491087043295,2,-5,-5,-9,-11,-24,-98,-23,-8
1491087043297,3,22,6,4,9,20,23,29,17
1491087043297,3,-8,3,5,-6,-41,47,-28,-12
1491087043330,0,28,12,7,26,33,-72,-64,4
1491087043330,0,-15,-1,-2,12,31,16,37,-13
1491087043331,1,-4,-6,-9,-7,13,1,50,22
1491087043331,1,-2,1,2,-8,-5,-6,-55,-3
1491087043332,2,9,-3,-1,22,5,38,16,1
1491087043332,2,-8,3,3,-28,-34,10,-22,-4
1491087043368,3,-6,-1,-4,-32,-60,-55,-45,-23
1491087043368,3,-3,-7,-8,-3,48,63,42,14
1491087043369,0,-4,5,1,-5,-36,-47,-17,-3
1491087043369,0,17,-7,-1,19,-14,-18,32,19
1491087043370,1,-13,2,-1,-18,10,19,-9,-6
1491087043370,1,-7,-6,-4,-15,-8,-18,-53,-12
1491087043371,2,-1,-10,-7,-13,8,-7,-36,-41
1491087043371,2,-1,-10,-11,-24,-6,-45,13,19
1491087043405,3,8,10,8,33,9,-32,-6,33
1491087043405,3,10,-7,-10,3,27,79,55,-8
1491087043406,0,-9,-1,5,6,-19,15,50,27
1491087043406,0,-10,0,0,-14,-26,-19,-83,-55
1491087043407,1,-22,-18,-17,-16,-3,-2,26,-6
1491087043407,1,7,7,5,-3,15,-29,-25,9
1491087043408,2,-8,-2,-3,-1,-15,-1,36,-2
1491087043408,2,10,4,4,-22,-11,28,-27,-14
1491087043443,3,10,7,5,17,37,-18,-16,6
1491087043443,3,-20,-7,-5,1,-47,-1,13,-9
1491087043444,0,12,0,0,-32,-37,-14,-93,-21
1491087043444,0,11,1,3,25,19,7,97,40
1491087043445,1,-26,-8,-12,14,27,-26,-6,-23
1491087043445,1,-15,-8,-6,-26,-26,-32,-34,2
1491087043446,2,1,4,-3,1,13,63,-23,-27
1491087043446,2,-4,2,1,-6,3,-31,20,11
1491087043480,3,-6,-6,2,-4,35,34,0,-11
1491087043480,3,20,-2,0,47,43,10,17,20
1491087043481,0,-9,-4,5,-33,-30,-63,-10,10
1491087043481,0,-11,-2,-8,-9,-38,19,-128,-51
1491087043482,1,29,-7,-5,-13,-35,-1,111,28
1491087043482,1,-7,4,5,18,24,-23,-21,-13
1491087043483,2,2,-4,1,26,14,83,20,-1
1491087043483,2,0,0,3,-19,13,-73,-17,32
1491087043518,3,-13,0,1,6,28,60,16,1
1491087043518,3,-13,-3,-9,-25,-33,-34,-92,-50
1491087043519,0,0,1,-3,1,-11,23,74,34
1491087043519,0,2,2,-4,0,-19,52,102,11
1491087043520,1,-1,0,5,4,-16,0,-106,-39
1491087043520,1,10,-3,0,18,49,-67,-18,-7
1491087043521,2,16,1,-7,-2,13,41,77,66
1491087043521,2,-22,-12,0,19,27,7,-17,-33
1491087043555,3,5,11,13,16,-10,46,35,6
1491087043555,3,9,-1,-1,29,16,-19,-26,-41
1491087043556,0,-12,-9,-9,-38,-37,-67,-29,19
1491087043556,0,-4,4,2,23,24,42,34,-5
1491087043557,1,26,-3,-3,-40,-38,37,-17,1
1491087043557,1,-16,1,2,8,-9,-44,8,6
1491087043558,2,1,-1,-5,-4,14,6,3,-17
1491087043558,2,6,-4,-4,-5,15,7,-72,-19
1491087043593,3,-20,-7,-8,7,1,-4,51,-7
1491087043593,3,10,5,2,-28,-9,1,17,36
1491087043630,0,-6,2,0,21,6,-49,16,15
1491087043630,0,-2,2,1,-5,-1,5,27,-5
1491087043631,1,7,5,8,19,34,11,-104,13
1491087043631,1,-6,-11,-15,17,-17,112,127,40
1491087043632,2,-9,3,-2,-25,1,-64,-109,-54
1491087043632,2,0,-4,-4,-6,7,57,84,14
1491087043633,3,-6,4,6,9,2,-46,-20,-10
1491087043633,3,8,5,7,-1,8,55,68,21
1491087043668,0,-3,-2,-2,-5,-48,-23,-93,-44
1491087043668,0,1,3,3,-9,4,42,-3,13
1491087043669,1,-8,-2,1,13,-4,-68,8,-11
1491087043669,1,-15,-7,-14,-49,-19,-6,-79,-33
1491087043670,2,-4,-10,-13,1,10,47,14,-7
1491087043670,2,1,1,4,8,17,-55,-1,30
1491087043671,3,-8,-11,-9,-16,-6,83,57,5
1491087043671,3,6,8,15,40,25,-31,32,16
1491087043705,0,4,3,5,4,28,8,-34,-5
1491087043705,0,-6,0,1,37,-4,30,1,-12
1491087043707,1,-6,-6,-9,-47,-60,-64,-40,-14
1491087043707,1,-3,8,5,44,45,7,44,5
1491087043708,2,5,-5,-3,-36,-27,-19,-28,7
1491087043708,2,2,-3,8,4,49,-6,3,21
1491087043709,3,-10,1,1,11,-52,-18,-92,-53
1491087043709,3,-4,-10,-14,-40,-60,27,66,31
1491087043743,0,-5,-4,-5,-2,28,81,83,-13
1491087043743,0,2,-4,-10,-4,-17,-78,-47,17
1491087043744,1,-4,-2,1,8,42,11,12,-26
1491087043744,1,-14,-14,-8,-24,-6,70,-111,-40
1491087043744,2,4,3,6,13,-13,-54,127,30
1491087043744,2,-3,1,-5,-23,-47,26,-108,-71
1491087043745,3,1,-3,3,13,13,-33,31,38
1491087043745,3,7,3,-3,-8,-34,26,-4,8
1491087043780,0,-9,-5,6,21,26,-43,61,7
1491087043780,0,-2,-3,-5,-25,-2,-27,-20,-50
1491087043781,1,5,1,-1,18,26,63,-43,66
1491087043781,1,-14,-12,-15,-43,-46,-110,24,4
1491087043782,2,0,-7,-5,1,-26,13,-93,8
1491087043782,2,-7,-1,-1,-10,-13,31,66,-13
1491087043783,3,1,-1,-1,11,15,-32,-37,-9
1491087043783,3,2,-2,7,12,32,100,56,8
1491087043818,0,2,5,3,11,23,-104,-22,26
1491087043818,0,3,-7,1,6,-4,42,-9,1
1491087043893,1,-17,-4,-11,-9,-9,30,9,-46
1491087043893,1,7,2,9,-6,20,-15,-2,34
1491087043894,2,0,9,-1,1,-29,77,-57,-35
1491087043894,2,-12,-4,-7,-10,-23,-78,-61,4
1491087043895,3,-5,6,1,3,-9,10,-13,-1
1491087043895,3,3,-2,-8,-19,-4,80,-4,-10
1491087043896,0,-5,-30,-37,9,10,-51,-37,-9
1491087043896,0,11,25,13,8,15,78,8,5
1491087043930,1,-6,-1,-3,6,9,30,0,-45
1491087043930,1,4,-1,20,22,14,-58,21,8
1491087043968,2,-15,-14,-13,-2,-4,67,31,-22
1491087043968,2,12,22,36,-18,-50,-90,-1,57
1491087043969,3,4,-10,-59,-13,5,30,54,24
1491087043969,3,20,73,110,21,35,-95,8,-12
1491087043970,1,-7,6,9,-13,-34,36,25,-54
1491087043970,1,2,10,31,-3,-14,59,-6,2
1491087043970,2,4,2,-16,-1,20,46,12,8
1491087043970,2,-8,-46,-62,-11,8,20,23,-13
1491087044005,3,11,11,17,-8,-5,-13,34,43
1491087044005,3,-13,9,13,5,8,-22,-103,-55
1491087044006,0,4,12,18,-4,19,-25,20,20
1491087044006,0,-5,-26,-42,1,-6,2,42,0
1491087044007,1,4,4,20,16,12,-18,40,23
1491087044007,1,-12,-29,-26,-23,-43,55,-91,-39
1491087044043,0,-6,1,14,33,29,-27,-87,-40
1491087044043,0,-8,11,20,2,8,22,-2,14
1491087044044,1,-4,-14,-33,4,-14,-36,-65,-45
1491087044044,1,-15,-19,-38,3,39,15,67,14
1491087044044,2,4,-1,10,-12,-64,-5,22,17
1491087044044,2,-3,16,29,28,19,26,-40,-31
1491087044045,0,1,12,-14,-29,2,47,33,-29
1491087044045,0,9,3,2,-28,-46,54,-50,9
1491087044080,1,-39,-15,-21,8,-2,-64,-128,-74
1491087044080,1,15,-9,-15,-3,-3,-12,96,57
1491087044081,2,-7,-2,-2,30,-11,78,-45,38
1491087044081,2,-11,-8,-11,11,8,26,-74,-69
1491087044082,0,-46,1,16,66,60,36,73,-76
1491087044082,0,52,17,6,-57,19,100,123,127
1491087044083,1,37,-3,-12,6,36,5,-49,-7
1491087044083,1,-5,-5,-14,5,4,-20,-61,-4
1491087044118,2,9,-11,-16,-41,-84,-18,-11,-16
1491087044118,2,-18,10,18,1,-21,-43,-90,-46
1491087044119,3,-4,6,11,19,-3,-104,105,30
1491087044119,3,13,-4,-6,24,61,105,112,58
1491087044121,0,-9,4,11,75,63,-42,-126,-55
1491087044121,0,12,7,11,-5,42,-5,88,66
1491087044121,1,-44,-10,-12,-91,-79,6,-9,-18
1491087044121,1,3,-6,-19,-9,-49,-52,14,14
1491087044155,2,12,-5,5,0,64,125,-14,20
1491087044155,2,-20,0,-6,32,-46,-98,-29,-36
1491087044156,3,39,-2,10,55,-43,14,13,31
1491087044156,3,-16,-2,-15,-67,-61,9,-23,-4
1491087044157,0,9,-2,-23,-15,8,30,36,5
1491087044157,0,-6,-3,9,7,56,-75,-36,2
1491087044157,1,-9,0,-2,-1,-4,74,-2,12
1491087044157,1,12,-5,4,44,23,66,75,-12
1491087044192,2,-12,11,16,-24,20,12,-23,11
1491087044192,2,4,0,-2,-42,-28,-28,-71,-36
1491087044193,3,-26,-8,2,76,87,-55,-16,37
1491087044193,3,6,-3,0,-35,31,100,101,0
1491087044194,0,2,2,-4,-9,-33,-76,-95,-22
1491087044194,0,-13,2,-12,-51,-72,74,-50,-6
1491087044195,1,-1,-9,-11,-23,-43,-21,38,-41
1491087044195,1,-35,-21,-16,4,-46,14,-31,-46
1491087044230,2,27,8,25,114,113,94,67,56
1491087044230,2,-3,3,-7,-20,32,-63,-20,-25
1491087044231,3,10,-6,-16,-64,-69,32,-35,-2
1491087044231,3,-13,4,2,-3,6,-2,-81,-12
1491087044231,0,-25,-9,-4,-44,-126,-67,-39,-35
1491087044231,0,12,2,8,41,57,-36,76,29
1491087044232,1,4,-3,-10,35,24,49,-3,14
1491087044232,1,-25,0,7,33,0,-51,-62,-13
1491087044305,2,-6,-18,-23,-52,10,50,85,-21
1491087044305,2,-12,5,9,41,-11,-50,-96,1
1491087044307,3,-14,-6,3,-30,40,33,-33,-54
1491087044307,3,14,9,13,26,105,70,46,4
1491087044307,0,3,-2,-1,-28,-110,-68,-21,27
1491087044307,0,-21,-19,-17,-51,-54,44,35,-28
1491087044308,1,55,8,-1,-8,70,-3,-3,17
1491087044308,1,-17,-11,-13,30,6,5,-54,-31
1491087044342,2,32,20,-13,-32,-1,-96,32,62
1491087044342,2,1,-21,-13,12,-37,53,28,-8
1491087044343,3,-23,4,17,19,4,14,-27,-4
1491087044343,3,26,9,11,-20,6,-28,49,16
1491087044380,2,-16,-10,5,-11,-23,-60,-121,-5
1491087044380,2,31,-3,-3,-95,-79,91,127,-2
1491087044381,3,3,14,18,113,97,8,54,61
1491087044381,3,-28,-6,-23,-69,-104,-43,-82,-68
1491087044381,0,11,-18,-14,6,-43,-63,-16,9
1491087044381,0,-11,0,6,-3,56,127,-8,-3
1491087044382,1,-12,-13,-9,26,-15,-128,-5,11
1491087044382,1,36,0,1,-24,1,88,-85,-12
1491087044417,2,-3,2,0,29,34,50,-48,-59
1491087044417,2,-12,7,10,14,2,-13,38,33
1491087044418,3,15,3,16,-13,5,89,-48,15
1491087044418,3,-17,0,-12,-12,-32,-105,-19,39
1491087044419,0,-39,-31,-30,-10,4,-1,-66,-45
1491087044419,0,12,20,13,-5,-18,23,119,0
1491087044420,1,-10,4,4,8,61,-32,-86,-18
1491087044420,1,4,-1,10,21,6,-89,68,3
1491087044455,2,24,0,6,-2,2,-23,-41,12
1491087044455,2,-10,-4,6,105,74,27,37,33
1491087044456,3,-40,-5,-16,-77,-113,-60,-58,-25
1491087044456,3,9,-7,-5,-23,-40,78,-93,-3
1491087044456,1,33,8,13,2,31,63,127,43
1491087044456,1,-24,-7,0,46,8,-59,-95,-30
1491087044460,2,10,6,-1,-7,6,32,116,37
1491087044460,2,-28,-16,-9,43,-7,26,-12,-27
1491087044492,3,18,5,-2,-52,-6,32,78,27
1491087044492,3,-6,4,-7,-8,24,-86,-78,-14
1491087044493,0,-6,6,18,-17,70,109,0,-23
1491087044493,0,13,0,0,36,-17,-97,-40,13
1491087044494,1,-25,-11,-29,-34,-78,25,43,-21
1491087044494,1,11,-3,-9,-15,-5,-18,-31,-3
1491087044530,2,-2,21,13,35,14,22,-73,-39
1491087044530,2,0,6,12,-6,26,-22,30,31
1491087044531,3,36,6,2,-10,-1,38,86,28
1491087044531,3,-17,-15,-13,-10,-8,13,33,22
1491087044531,0,4,-6,-2,29,26,-30,17,30
1491087044531,0,-25,-2,8,14,50,30,-124,-97
1491087044532,1,-2,-5,5,-64,-93,7,11,1
1491087044532,1,-2,1,0,78,56,-32,127,23
1491087044567,2,-14,-9,-11,3,-20,-5,-36,2
1491087044567,2,-3,-2,-2,-12,7,-6,-72,-15
1491087044569,3,2,0,6,46,-1,2,-60,-14
1491087044569,3,8,14,16,-70,-16,-38,16,1
1491087044569,0,-14,-6,-6,-21,-54,28,42,18
1491087044569,0,-4,-10,-17,-2,23,51,11,1
1491087044605,1,-15,-2,-6,8,6,-33,-112,-35
1491087044605,1,-1,-3,7,20,30,55,44,-2
1491087044606,2,-5,0,-3,2,-6,-64,28,-9
1491087044606,2,13,5,-3,-3,-2,27,22,22
1491087044607,3,7,3,6,10,27,19,107,53
1491087044607,3,-14,-8,-4,29,2,60,-19,-13
1491087044607,0,-9,-7,-4,-54,-15,-54,-71,-19
1491087044607,0,7,-1,-17,-49,-70,-6,-1,18
1491087044642,1,19,-4,-5,29,28,-32,-45,-13
1491087044642,1,-10,8,11,-8,-14,-2,-100,-32
1491087044644,2,18,6,11,13,13,49,126,60
1491087044644,2,-24,-6,-8,21,-29,-22,15,-25
1491087044644,3,-6,-5,-15,-28,-32,-128,-76,-21
1491087044644,3,13,11,2,-11,-10,89,-55,12
1491087044645,0,-10,-12,-3,-7,5,33,-16,-18
1491087044645,0,1,-2,-5,2,49,48,27,7
1491087044680,1,-13,1,12,36,10,14,-74,-38
1491087044680,1,2,4,-2,-28,2,14,-1,9
1491087044682,2,0,-2,-4,-11,-6,-31,39,29
1491087044682,2,4,-17,-10,-7,-13,-32,37,18
1491087044683,3,-22,3,0,-2,4,3,-40,-37
1491087044683,3,18,-6,6,14,16,17,38,13
1491087044684,0,-1,-1,1,2,-4,3,-8,-2
1491087044684,0,16,20,11,13,10,-9,39,11
1491087044755,1,-9,-2,11,24,19,-10,-58,-7
1491087044755,1,0,-23,-12,-26,-1,-1,18,-12
1491087044757,2,-18,-2,-21,-40,-67,-28,-42,-16
1491087044757,2,-13,5,7,-16,0,-50,-104,-31
1491087044758,3,-37,-6,-1,5,19,68,117,17
1491087044758,3,43,3,12,-8,-42,-27,-24,-24
1491087044793,0,22,11,5,41,62,-8,-58,29
1491087044793,0,15,-9,-7,42,62,1,60,41
1491087044794,1,-18,0,-4,-20,-28,-10,33,3
1491087044794,1,-37,-11,-5,37,20,13,-31,-36
1491087044795,2,-2,-11,-11,-58,-67,4,-23,-19
1491087044795,2,9,-12,-9,-20,-52,-37,-45,-12
1491087044796,3,-6,0,-3,1,-7,14,-31,-10
1491087044796,3,1,0,-15,-28,-12,18,46,25
1491087044830,3,19,-15,-3,4,34,-27,-110,15
1491087044830,3,4,4,8,50,15,-41,101,50
1491087044832,0,-36,-9,3,9,-4,71,22,-67
1491087044832,0,-14,5,14,-29,-51,-53,-53,-72
1491087044833,1,9,-16,-20,-4,-4,48,58,36
1491087044833,1,5,-2,-20,-28,18,9,37,58
1491087044834,2,12,12,10,5,-11,-92,-68,-9
1491087044834,2,-19,-26,-19,-27,-24,29,-8,6
1491087044868,3,11,8,17,1,-8,-16,-23,-32
1491087044868,3,-1,0,2,-3,-31,17,51,16
1491087044869,0,5,-4,-6,18,43,20,-20,-5
1491087044869,0,4,17,15,16,12,-71,-89,-15
1491087044871,2,23,0,-3,-11,-1,75,7,-1
1491087044871,2,-23,-16,-15,-9,5,-11,-34,8
1491087044872,3,14,2,-7,17,-11,-34,21,-8
1491087044872,3,-13,9,11,-24,-57,-21,62,-3
1491087044905,0,12,3,1,20,25,16,35,28
1491087044905,0,6,8,-5,6,48,39,30,11
1491087044906,1,21,-5,-8,-58,-74,-38,-66,-14
1491087044906,1,-20,-15,-12,10,2,-61,-52,-19
1491087044907,2,-12,-13,-15,-9,-5,1,-36,-37
1491087044907,2,34,23,25,19,-1,75,21,39
1491087044908,3,-13,12,10,20,59,-19,-34,-13
1491087044908,3,-5,-8,-7,-26,-68,49,67,8
1491087044942,0,-4,13,4,-16,-43,-108,-60,-27
1491087044942,0,-26,-16,-7,-10,2,31,55,-3
1491087044943,1,48,5,-6,-20,35,63,-66,15
1491087044943,1,-22,-2,7,32,29,-1,9,7
1491087044944,2,20,13,13,-12,-48,-23,18,6
1491087044944,2,-15,-7,-8,-21,-34,2,-40,-25
1491087044945,3,-3,-1,-1,-20,27,-26,107,59
1491087044945,3,-5,-8,-1,-10,-21,-8,-97,-43
1491087044980,0,28,12,10,58,21,0,37,29
1491087044980,0,42,32,18,-30,-11,28,107,75
1491087044981,1,-4,-4,11,75,58,58,-77,-22
1491087044981,1,4,21,20,-36,28,-60,-53,-4
1491087044981,2,-20,-13,-5,8,-25,58,-98,-16
1491087044981,2,-22,-31,-13,-16,-35,-99,-93,-91
1491087044982,3,-6,-5,11,69,49,79,29,-9
1491087044982,3,-21,-4,-12,-65,-20,5,73,52
1491087045017,0,-6,-6,-2,-10,33,-19,-32,-8
1491087045017,0,-1,-13,-6,9,24,3,76,67
1491087045055,1,4,-12,-20,18,-33,-47,-68,-60
1491087045055,1,2,-12,-13,20,33,-18,-105,-39
1491087045056,2,-30,-6,10,-6,56,85,44,4
1491087045056,2,-6,13,14,34,-41,-51,-45,-9
1491087045057,3,23,1,-5,-53,-12,25,-70,-23
1491087045057,3,24,-4,2,-14,-11,-86,127,83
1491087045057,0,-10,-9,-24,-30,-47,56,-66,-49
1491087045057,0,-6,6,13,30,18,67,0,7
1491087045093,1,-11,-11,0,12,7,62,106,34
1491087045093,1,8,10,7,18,24,-81,-128,-90
1491087045094,2,-2,-6,5,11,21,29,127,107
1491087045094,2,5,-3,-13,-13,-13,-58,-90,-46
1491087045094,3,0,10,6,-45,-99,34,70,34
1491087045094,3,-9,-7,3,3,-1,-22,-62,-22
1491087045130,1,-24,-5,-9,-25,-36,-37,-94,-38
1491087045130,1,5,-1,-3,-13,-15,57,6,17
1491087045131,2,11,6,4,-10,-29,-97,-118,-115
1491087045131,2,-27,-20,-7,-1,39,127,68,87
1491087045132,3,63,12,11,20,2,-81,-66,22
1491087045132,3,8,-5,-5,21,7,-7,-52,-50
1491087045133,0,4,-11,4,26,55,20,-128,-12
1491087045133,0,17,10,1,-43,-8,-68,77,-19
1491087045168,1,-29,4,-25,32,-31,19,127,31
1491087045168,1,5,9,-8,-76,-119,40,-52,11
1491087045169,2,19,-2,-1,13,18,-42,-62,4
1491087045169,2,-19,13,18,19,65,69,-52,-80
1491087045170,3,-8,-12,4,-7,-7,-65,70,27
1491087045170,3,-35,-5,-46,14,-5,-7,4,14
1491087045171,0,-36,6,32,0,10,11,30,-17
1491087045171,0,26,-14,17,7,-46,-67,80,77
1491087045205,1,-29,-2,-42,-22,2,21,-4,-37
1491087045205,1,34,19,8,32,55,93,-2,2
1491087045207,2,-4,8,54,25,8,-85,127,35
1491087045207,2,31,0,-46,-29,17,102,-128,-57
1491087045208,0,-19,-20,-32,-42,-72,70,12,39
1491087045208,0,-46,-4,3,71,90,16,-24,-23
1491087045208,1,14,1,11,-52,-38,36,-128,-34
1491087045208,1,3,-1,6,9,20,11,41,12
1491087045243,2,-41,-12,-24,-10,-25,-24,-92,-87
1491087045243,2,9,-20,-18,-11,-22,-30,117,101
1491087045244,3,81,37,-25,30,100,110,-80,3
1491087045244,3,-10,7,51,28,-5,10,-21,-3
1491087045245,0,10,7,29,-6,-7,-38,-10,21
1491087045245,0,-41,-12,-12,-20,-24,-81,-89,-46
1491087045246,1,-57,-21,5,7,3,-10,22,-18
1491087045246,1,24,15,1,-19,-5,32,71,2
1491087045280,2,9,10,-32,-31,-43,-57,-35,-13
1491087045280,2,-19,-11,-12,-34,-72,49,-23,32
1491087045281,3,3,-4,-3,41,69,-22,-54,-5
1491087045281,3,-37,12,4,9,-12,11,18,-2
1491087045282,0,-12,-7,20,-2,25,-32,40,-12
1491087045282,0,24,8,-1,1,-48,-16,-43,-54
1491087045283,1,3,1,24,35,8,6,98,81
1491087045283,1,-32,-13,-33,-2,33,64,-71,-23
1491087045318,2,-11,-3,-14,-23,-47,78,-66,-17
1491087045318,2,8,-8,3,7,50,-102,-69,-60
1491087045319,3,-24,-2,-18,-6,25,50,79,15
1491087045319,3,-18,-11,32,-12,-58,-16,58,-4
1491087045319,0,12,-12,-14,11,37,15,-32,27
1491087045319,0,-10,-7,-15,-16,-46,-41,-57,-12
1491087045320,1,-32,-9,-1,-38,-55,-20,-100,-52
1491087045320,1,19,-9,-10,39,51,8,56,-5
1491087045355,2,36,2,-3,4,25,77,-46,-24
1491087045355,2,-23,5,0,-9,-11,-55,60,61
1491087045357,3,-1,-16,-5,-16,36,40,-86,-79
1491087045357,3,-4,-12,-10,-12,-25,-22,24,38
1491087045359,0,10,8,-2,14,-24,15,-74,0
1491087045359,0,-8,4,8,19,12,-2,12,-15
1491087045360,1,21,0,7,-47,-31,-7,-4,21
1491087045360,1,-8,-5,8,36,46,-4,-50,-26
1491087045393,2,-10,-9,-19,-22,-21,45,76,-7
1491087045393,2,1,-2,5,6,-1,-53,-36,15
1491087045395,3,-2,15,1,-36,-57,2,25,27
1491087045395,3,-6,-12,-5,-20,-22,-14,-69,-30
1491087045396,0,-38,3,9,30,36,-18,3,-58
1491087045396,0,46,5,4,-4,-35,41,15,81
1491087045398,1,-15,-2,4,48,36,-32,57,-19
1491087045398,1,-7,-14,-9,-39,-6,38,-86,-48
1491087045430,2,27,14,5,28,22,-52,102,76
1491087045430,2,5,-5,-5,-22,-14,54,14,-31
1491087045433,3,-36,-6,-5,-13,-1,10,-122,-47
1491087045433,3,10,-1,2,35,6,-29,69,64
1491087045434,0,-26,-5,-1,-30,-31,15,35,12
1491087045434,0,3,-3,-5,-14,-10,-2,-66,-36
1491087045435,1,39,3,-2,21,12,9,11,36
1491087045435,1,-13,4,-4,-12,9,-71,-119,-47
1491087045468,2,5,2,-3,3,-18,15,81,30
1491087045468,2,-12,3,8,21,36,93,99,47
1491087045469,3,9,-3,-9,-14,-37,3,-3,-3
1491087045469,3,4,-3,-4,-4,24,-53,-64,-27
1491087045470,0,14,-3,-12,21,20,-55,-58,29
1491087045470,0,-9,-5,-1,11,20,50,16,-51
1491087045472,1,-33,-9,-4,-15,13,-15,-27,-11
1491087045472,1,-32,-10,-8,-17,-91,-30,-54,15
1491087045505,2,54,5,-7,-50,-13,-9,-16,5
1491087045505,2,-23,1,-4,16,22,-45,3,-9
1491087045507,3,23,3,3,10,15,44,19,14
1491087045507,3,19,2,2,25,13,34,-25,-8
1491087045509,0,-33,-6,4,8,39,51,33,2
1491087045509,0,-11,-5,-4,-26,-7,-72,-29,-9
1491087045543,1,2,8,1,-2,-29,-36,-25,-9
1491087045543,1,-3,2,-1,-1,8,14,58,35
1491087045544,2,-2,-15,-15,-10,-45,3,-46,-23
1491087045544,2,-2,13,16,22,32,24,-36,-36
1491087045545,3,-7,-5,-1,-15,-19,-39,33,52
1491087045545,3,-2,0,4,-17,-37,32,118,25
1491087045546,0,14,-10,0,19,11,63,26,-12
1491087045546,0,-36,4,-4,5,20,-54,-128,-33
1491087045580,1,63,-9,-14,-22,-36,-43,35,-22
1491087045580,1,18,9,4,0,18,44,17,3
1491087045581,2,-7,2,4,9,14,-59,-8,7
1491087045581,2,32,12,10,8,-5,31,-29,18
1491087045582,3,-43,-4,4,6,-3,33,-34,-31
1491087045582,3,7,-2,-1,8,15,-48,27,-13
1491087045582,0,22,-3,-12,-13,-8,55,48,50
1491087045582,0,36,0,-3,27,10,23,-21,11
1491087045617,1,-23,-9,-3,-8,45,14,-16,11
1491087045617,1,-3,1,13,2,-47,-57,-19,-30
1491087045619,2,-21,1,1,-9,9,40,21,-13
1491087045619,2,31,-5,-4,-23,-48,42,-2,-16
1491087045619,3,-15,0,-7,0,55,-26,-75,-18
1491087045619,3,13,2,-4,-5,40,126,121,59
1491087045620,0,-24,-9,-8,-2,-42,-117,-103,-19
1491087045620,0,-23,0,-3,-13,-4,8,-42,-59
1491087045655,1,4,2,6,-6,-13,1,44,44
1491087045655,1,-4,4,3,32,72,-9,-46,-13
1491087045656,2,-15,-1,-2,-1,-25,42,32,-11
1491087045656,2,16,3,-14,-22,-15,-47,-10,-2
1491087045657,3,7,-3,-4,9,-5,41,-23,-10
1491087045657,3,-2,-1,0,13,3,-2,-47,12
1491087045692,0,-18,-11,-2,-13,-2,28,-22,-24
1491087045692,0,-11,-3,-4,-26,-21,2,118,10
1491087045694,1,7,-8,-11,-7,-1,-30,81,34
1491087045694,1,-9,-9,-16,-9,-20,12,-71,-20
1491087045694,2,23,13,16,7,13,-36,58,-23
1491087045694,2,51,3,6,8,11,9,-45,36
1491087045695,3,-23,14,7,17,1,-50,-74,-38
1491087045695,3,-21,-17,-8,13,40,40,-52,-46
1491087045730,0,32,18,2,-7,-45,-52,94,88
1491087045730,0,30,-14,-12,-18,-19,74,127,37
1491087045731,1,0,0,8,-9,-30,-76,-82,-46
1491087045731,1,-11,-9,-17,-26,-10,60,102,-6
1491087045731,2,-3,8,4,11,29,-73,-128,-53
1491087045731,2,-20,-3,5,-58,-82,65,127,30
1491087045732,3,6,1,7,92,97,-32,82,32
1491087045732,3,-16,12,5,-28,-56,-13,90,-15
1491087045767,0,13,-2,-11,-23,-7,4,118,61
1491087045767,0,-37,-11,-9,28,50,19,-113,-97
1491087045769,1,14,-5,4,2,20,22,89,10
1491087045769,1,-5,-4,12,-17,2,-31,-87,7
1491087045769,2,5,-9,-12,-30,-80,3,74,15
1491087045769,2,-28,-7,2,-5,-37,-59,-60,-29
1491087045770,3,5,8,0,-5,-4,72,48,34
1491087045770,3,29,15,5,24,36,34,46,31
1491087045805,0,-13,-17,-13,-22,-7,-63,21,-20
1491087045805,0,-8,2,-3,28,37,52,-94,-34
1491087045806,1,-21,-5,2,4,6,-18,-94,-27
1491087045806,1,8,-3,5,-11,-37,-41,-9,-14
1491087045807,2,-8,-8,-2,12,18,79,-25,33
1491087045807,2,-22,2,-2,8,3,-32,-41,-41
1491087045842,3,26,-5,-14,-10,-8,15,101,85
1491087045842,3,-33,-12,-6,-24,-17,12,-4,-23
1491087045843,0,9,19,30,37,56,39,-66,-14
1491087045843,0,18,2,-3,-7,-6,-75,-36,11
1491087045844,1,-18,3,-12,-16,-24,-13,-87,-42
1491087045844,1,-8,-1,1,14,52,11,-33,-8
1491087045845,2,49,-17,-8,-1,-50,39,41,12
1491087045845,2,-37,15,8,-6,-4,-33,-15,-4
1491087045880,3,-4,-6,2,-35,-40,-15,-12,1
1491087045880,3,2,-9,-9,16,31,-60,-6,6
1491087045881,0,-21,-27,-34,0,22,19,-103,-43
1491087045881,0,9,22,27,4,-4,16,-2,26
1491087045881,1,-21,-9,-2,-22,-48,21,-18,-32
1491087045881,1,11,-11,-2,18,7,-60,-48,-26
1491087045882,2,-50,3,6,-3,26,27,5,-6
1491087045882,2,-6,-11,-11,7,6,-9,95,46
1491087045918,3,-4,-9,-9,-1,4,-24,-71,-41
1491087045918,3,21,13,2,10,12,14,7,-5
1491087045919,0,-16,-14,-13,-11,-17,-11,28,10
1491087045919,0,8,-9,-5,4,11,57,-65,-59
1491087045919,1,-19,3,10,12,11,2,115,56
1491087045919,1,0,-5,-13,-22,-41,0,-16,-5
1491087045920,2,-10,-2,11,46,33,-1,-76,-14
1491087045920,2,-6,6,-5,-20,7,71,45,37
1491087045955,3,-8,-5,1,-23,-38,-70,-97,-53
1491087045955,3,34,-3,-7,0,-13,-44,-42,27
1491087045956,0,-5,18,3,-12,-4,-4,81,19
1491087045956,0,9,-9,-2,23,33,25,-17,10
1491087045957,1,18,3,3,-2,13,33,-128,-53
1491087045957,1,-7,12,4,4,-7,-28,39,16
1491087045992,2,-26,5,11,28,56,40,49,-7
1491087045992,2,68,13,-4,-21,-60,-54,-14,31
1491087045994,3,4,12,-8,-14,5,27,119,42
1491087045994,3,-17,-6,-8,-2,-2,-6,-97,-70
1491087045994,0,25,15,13,-17,-12,-26,-12,8
1491087045994,0,-54,-16,8,43,34,78,-1,-39
1491087046030,1,2,-7,-2,-7,-16,-58,63,52
1491087046030,1,-12,-9,-15,-14,-10,31,-78,-17
1491087046067,2,13,9,2,-19,-17,-96,-33,-17
1491087046067,2,7,-4,-5,12,11,61,126,38
1491087046069,3,-11,-1,-1,-6,-2,-56,-35,-64
1491087046069,3,-16,-11,9,74,47,75,30,59
1491087046105,0,17,3,-5,-79,-40,-47,-128,-15
1491087046105,0,0,-1,-16,25,42,-72,-8,-7
1491087046142,1,22,-7,-6,-12,-6,72,55,29
1491087046142,1,-4,0,2,-9,-24,-8,45,15
1491087046143,2,-1,-8,-4,-1,-34,13,-41,-19
1491087046143,2,-27,-2,12,-42,-37,-42,-59,-27
1491087046144,3,11,1,-6,40,54,14,-27,-10
1491087046144,3,-5,2,-2,-22,-28,-20,-3,-16
1491087046145,0,-9,6,9,16,32,34,56,4
1491087046145,0,-15,0,0,-37,-28,-27,-34,-12
1491087046180,2,-1,-6,-4,42,21,-89,-99,-82
1491087046180,2,14,2,2,-20,-38,1,125,90
1491087046181,1,1,6,6,-7,-27,-18,-46,-21
1491087046181,1,19,3,-10,-25,-44,-24,63,20
1491087046181,1,21,-7,0,53,43,54,78,55
1491087046181,1,1,12,9,-42,-27,39,14,6
1491087046182,2,15,4,-13,5,-30,-67,1,-22
1491087046182,2,1,-6,-18,-36,-11,1,-18,-17
1491087046217,3,-24,1,6,9,30,-6,-4,3
1491087046217,3,36,-10,-10,-5,-19,0,45,1
1491087046219,0,-34,-8,-3,-8,-22,80,117,36
1491087046219,0,-4,-5,5,23,18,-80,-123,-35
1491087046219,1,-13,7,5,-1,17,2,-79,-43
1491087046219,1,-17,-20,-16,10,7,19,11,12
1491087046220,2,-14,-6,-4,-15,15,55,-43,-9
1491087046220,2,-12,-10,-13,12,-21,-56,6,-5
1491087046255,3,9,16,14,-15,-12,8,-66,-39
1491087046255,3,-5,1,6,24,44,58,-30,33
1491087046256,0,16,3,3,12,9,-35,98,57
1491087046256,0,-19,-4,-9,-46,-34,-58,-109,-31
1491087046256,1,10,-15,-21,-20,-52,-31,14,-9
1491087046256,1,-42,-11,-13,-21,-18,-27,26,-25
1491087046257,2,-7,1,6,7,10,54,20,18
1491087046257,2,2,1,13,36,32,48,-35,-9
1491087046292,3,9,21,15,6,13,-26,127,46
1491087046292,3,5,-9,-16,-5,-19,-14,-44,-11
1491087046293,0,-8,-13,-9,-31,-26,-13,-8,-13
1491087046293,0,-1,-3,-1,5,-3,13,13,-17
1491087046294,1,-10,-3,-2,-14,-2,-16,-128,-25
1491087046294,1,18,15,11,5,9,8,-35,-25
1491087046295,2,-82,-22,-8,8,-28,0,25,22
1491087046295,2,31,0,1,-9,-10,-88,-55,-29
1491087046330,3,56,17,-8,-1,24,115,14,33
1491087046330,3,-31,3,8,-13,-16,-39,1,-6
1491087046331,0,28,-2,7,29,36,7,28,26
1491087046331,0,-45,-1,6,-8,-20,26,13,-16
1491087046331,1,-9,-16,-17,-16,-59,-47,-26,3
1491087046331,1,3,2,-8,-6,8,-11,-52,-16
1491087046332,2,6,4,5,-14,-22,-17,-42,-48
1491087046332,2,-7,-7,2,26,17,40,48,48
1491087046367,3,-1,6,-7,-9,6,-22,-3,-11
1491087046367,3,-12,-9,-9,0,0,-4,-12,21
1491087046368,0,12,-8,-10,-19,-10,-17,4,11
1491087046368,0,-14,-3,3,-2,8,27,-20,-30
1491087046369,1,2,7,11,20,21,12,19,35
1491087046369,1,15,6,10,5,-11,-46,-104,-69
1491087046370,2,36,8,1,-11,-4,5,25,54
1491087046370,2,-42,-11,-15,-4,6,50,23,22
1491087046405,3,7,-18,-14,-20,-12,2,-64,-35
1491087046405,3,-32,4,6,11,0,-40,-92,-16
1491087046406,0,13,7,11,15,17,26,96,27
1491087046406,0,3,0,-5,6,12,0,-15,-15
1491087046406,1,-22,-12,-8,-23,-48,15,38,9
1491087046406,1,-7,-13,-9,-7,-18,-36,-1,-29
1491087046407,2,-14,-2,-7,-22,-10,-10,-92,-31
1491087046407,2,35,11,2,23,22,25,34,4
1491087046442,3,-27,-3,9,12,48,6,34,2
1491087046442,3,72,15,6,7,-6,67,27,21
1491087046443,0,-20,-13,-15,-17,-27,-88,-24,-12
1491087046443,0,-1,-11,-10,-24,-21,17,63,40
1491087046444,1,-22,11,8,5,-3,21,36,4
1491087046444,1,12,0,14,-11,-17,55,-60,-17
1491087046445,2,15,1,3,63,90,-48,-3,-3
1491087046445,2,31,7,0,4,12,-25,-6,38
1491087046480,3,7,-13,-6,1,21,-16,104,28
1491087046480,3,-8,-4,-12,9,-12,-4,15,10
1491087046555,0,-13,-7,5,-57,-64,48,-67,-37
1491087046555,0,-7,4,3,4,-1,-69,-40,-31
1491087046556,1,-9,-9,-13,-1,-4,-9,4,-3
1491087046556,1,18,4,-1,-8,5,-7,-44,-2
1491087046556,2,-5,6,1,13,15,13,22,30
1491087046556,2,-1,3,6,6,19,-5,-33,-32
1491087046557,3,4,0,7,-5,-31,0,33,16
1491087046557,3,-44,-17,-17,-13,-7,-20,11,-21
1491087046592,0,1,7,11,16,3,34,19,-9
1491087046592,0,25,-1,-7,-35,-53,-6,-113,-30
1491087046593,1,-10,11,11,26,53,-2,76,67
1491087046593,1,-3,-9,-7,9,-1,-73,53,49
1491087046594,2,-17,-15,-17,-7,-1,28,-111,-63
1491087046594,2,15,8,7,3,0,-4,107,4
1491087046595,2,10,-2,-6,8,14,-48,-110,-55
1491087046595,2,-6,-3,-5,-9,-12,-14,89,70
1491087046630,3,31,7,-5,27,30,-15,-53,-35
1491087046630,3,21,1,9,13,34,23,-71,-24
1491087046667,0,-26,-4,-5,-2,-5,21,127,64
1491087046667,0,-4,-8,-3,-10,-13,81,-28,3
1491087046668,2,54,11,4,11,6,51,76,67
1491087046668,2,-42,-15,-14,5,31,-31,-75,-62
1491087046669,3,21,5,4,-9,-43,36,127,84
1491087046669,3,-10,-6,-3,-19,-8,-28,-82,-33
1491087046670,0,-26,-5,-1,-12,-36,-35,-25,-44
1491087046670,0,32,11,17,7,43,53,49,33
1491087046743,1,-9,-10,-4,10,-5,80,-51,-64
1491087046743,1,-30,2,1,15,23,-87,73,20
1491087046744,2,-24,0,-5,-39,-71,48,17,8
1491087046744,2,-27,-8,-17,8,-4,-14,-72,-57
1491087046744,3,-7,-16,-11,-14,7,-14,59,-6
1491087046744,3,8,-1,5,4,27,60,-15,30
1491087046745,1,6,5,0,-15,-22,-2,-78,-30
1491087046745,1,-12,-6,-10,-3,-11,-35,122,36
1491087046780,2,29,1,0,-1,5,58,18,2
1491087046780,2,-7,1,13,25,11,-95,-33,-30
1491087046781,3,-9,12,7,5,-38,-8,-83,29
1491087046781,3,-24,-27,-37,-74,39,127,127,41
1491087046782,1,56,8,-6,-20,-37,-89,31,7
1491087046782,1,44,7,6,2,14,39,-19,-1
1491087046783,1,-9,-22,-10,-51,79,-21,127,67
1491087046783,1,-38,-4,-17,17,81,-73,-116,-96
1491087046817,2,-82,-20,13,61,67,66,38,68
1491087046817,2,40,-9,-25,-120,-84,-105,-19,18
1491087046819,3,48,47,11,-22,10,127,7,77
1491087046819,3,-4,5,29,107,69,-79,-6,7
1491087046819,1,15,-8,-41,-69,-81,-69,-97,-6
1491087046819,1,3,0,-23,-56,-44,-30,-18,-2
1491087046820,2,-25,9,11,-46,-24,38,29,43
1491087046820,2,-37,-27,29,42,43,127,100,-40
1491087046855,3,64,28,11,25,114,-102,-26,58
1491087046855,3,6,5,-33,-20,-81,1,55,25
1491087046892,0,39,0,-9,-109,-22,-13,-128,-80
1491087046892,0,6,3,-18,-77,-128,-11,52,23
1491087046893,1,-64,-22,2,73,81,-82,-9,-50
1491087046893,1,-19,-3,44,83,92,118,59,12
1491087046894,2,20,1,-7,-61,-56,-128,-94,-5
1491087046894,2,-26,12,-13,-62,-37,-58,50,-31
1491087046895,3,-22,6,29,-2,-20,127,-31,-6
1491087046895,3,-9,-35,-34,90,103,-31,88,37
1491087046931,0,-43,-21,-19,-75,-97,-5,-42,35
1491087046931,0,68,34,18,95,118,-60,-105,29
1491087046932,1,-100,-6,56,102,16,98,107,-54
1491087046932,1,103,38,33,-95,-90,95,78,57
1491087046932,2,-42,-34,-78,17,-70,-128,97,-36
1491087046932,2,-17,-20,-34,-37,31,72,-100,-23
1491087046935,0,-32,12,-13,-90,-66,-111,98,103
1491087046935,0,-3,-45,-91,-28,13,102,65,15
1491087046968,1,48,11,52,4,49,-17,-44,-58
1491087046968,1,-38,13,40,101,-67,35,-46,-68
1491087046969,2,-15,2,-60,-52,7,-64,30,21
1491087046969,2,-15,-27,-29,-1,-2,17,-83,-20
1491087046970,0,34,14,35,127,30,-64,27,38
1491087046970,0,-45,-45,-50,-93,-82,-37,-51,-29
1491087046970,1,-2,-3,-24,-75,-27,-30,70,68
1491087046970,1,-32,-4,-19,11,120,62,-122,-57
1491087047005,2,6,6,35,-34,-5,40,-52,-61
1491087047005,2,41,19,10,-38,86,-69,58,24
1491087047006,3,-61,-51,-96,-124,-128,-37,-128,-67
1491087047006,3,11,5,11,34,127,77,127,76
1491087047007,0,92,33,51,29,-40,-24,-126,-32
1491087047007,0,-26,4,24,42,-52,55,69,-33
1491087047007,1,-73,-15,-15,-16,57,-39,-128,-85
1491087047007,1,-22,-36,-85,-85,-118,-101,78,53
1491087047042,2,43,15,3,17,48,113,82,-3
1491087047042,2,62,54,103,90,9,14,-128,12
1491087047044,3,5,-7,-17,-23,39,27,72,20
1491087047044,3,-49,-32,-34,-62,-106,40,-13,26
1491087047045,0,25,8,2,15,55,-89,77,18
1491087047045,0,26,1,-1,54,98,88,-69,-49
1491087047080,1,-58,-29,-39,-73,-113,103,95,62
1491087047080,1,72,-6,3,31,-91,-39,-11,-26
1491087047081,2,20,11,32,26,41,66,60,-15
1491087047081,2,0,12,-33,-88,-39,-41,-54,39
1491087047082,3,-18,4,28,127,119,12,30,-29
1491087047082,3,-3,-5,-37,-46,-42,67,75,36
1491087047082,0,58,3,-13,-56,-103,-18,-102,-71
1491087047082,0,-80,-12,13,11,-48,-6,58,60
1491087047118,1,88,4,17,-21,54,43,-52,-8
1491087047118,1,-45,-7,-29,22,-32,-50,-73,-56
1491087047119,2,-31,-7,56,127,127,109,19,77
1491087047119,2,-2,-4,-33,-19,-36,-76,-16,-24
1491087047121,3,17,8,30,-119,-128,64,80,78
1491087047121,3,17,-5,-12,42,61,-71,59,-13
1491087047122,0,-19,-10,4,77,102,81,-103,-56
1491087047122,0,2,-14,-40,-48,-78,-2,96,26
1491087047155,1,-44,-14,-37,-2,-67,-22,-33,-23
1491087047155,1,98,96,116,77,92,-10,-7,49
1491087047156,2,-100,-41,-33,-128,-128,83,-45,-92
1491087047156,2,-17,0,-28,73,127,-52,63,82
1491087047157,3,80,-10,11,47,-107,-16,36,23
1491087047157,3,-29,7,-43,-81,-57,6,-128,-10
1491087047158,0,72,17,-3,88,74,-11,82,70
1491087047158,0,-20,12,35,-79,-128,91,62,30
1491087047193,1,25,-6,-26,7,69,-128,-54,-31
1491087047193,1,-72,-22,36,13,127,12,-115,-41
1491087047230,2,-34,-26,-34,6,-101,-23,115,-25
1491087047230,2,14,-3,-1,-98,-38,42,-5,0
1491087047231,3,-36,-12,-9,104,38,-128,-82,-23
1491087047231,3,16,10,37,-70,-42,75,-24,-10
1491087047232,0,11,17,20,16,-8,-93,-35,26
1491087047232,0,-5,-7,-48,-58,-88,-57,-35,-61
1491087047232,1,7,-16,-20,-46,-94,127,11,-4
1491087047232,1,-38,7,14,-17,-58,-128,32,10
1491087047267,2,-11,-49,-65,-26,56,85,-123,0
1491087047267,2,-2,8,62,111,32,89,42,-25
1491087047269,3,55,42,12,-81,28,-87,13,67
1491087047269,3,29,-23,-25,55,4,-1,-40,7
1491087047269,0,-7,12,38,7,74,90,-86,-50
1491087047269,0,-58,-30,-36,-15,-58,-112,-28,-5
1491087047305,1,-5,0,-22,-75,-12,127,52,-20
1491087047305,1,3,-6,-10,-2,-34,-65,79,57
1491087047306,2,-15,3,25,54,93,31,-74,-35
1491087047306,2,12,2,-2,-8,5,-126,-59,-29
1491087047306,3,-23,5,21,49,41,-71,92,38
1491087047306,3,22,12,-10,-52,-10,107,-83,-23
1491087047307,1,21,1,-32,-69,-103,-126,-9,-10
1491087047307,1,-13,-11,-31,32,101,97,64,-4
1491087047342,2,-25,-17,-37,-83,-116,-78,-37,-6
1491087047342,2,28,10,16,20,64,24,17,28
1491087047343,3,-23,0,43,92,14,62,-31,-13
1491087047343,3,-4,-4,7,30,68,1,24,4
1491087047344,0,4,5,15,50,49,8,33,24
1491087047344,0,-8,-9,-19,-40,21,-50,-51,-52
1491087047345,1,-35,-12,-7,-3,-3,77,-14,-37
1491087047345,1,8,10,1,-33,14,-128,-67,-13
1491087047380,2,6,-4,-44,3,11,102,8,-23
1491087047380,2,10,11,28,102,127,91,-65,24
1491087047381,3,0,-6,-40,-70,-74,-90,43,-17
1491087047381,3,-51,-24,2,-10,-112,84,127,29
1491087047381,1,11,20,40,-68,-51,93,47,30
1491087047381,1,-31,-33,-89,-81,-99,-93,-46,-46
1491087047492,2,0,18,23,15,-21,0,-15,20
1491087047492,2,11,4,19,-10,45,88,74,7
1491087047493,3,-9,-2,-7,78,125,-82,-52,-33
1491087047493,3,21,1,16,15,-17,-23,-80,0
1491087047530,0,-17,-15,-33,-100,-74,-30,1,14
1491087047530,0,15,6,-12,-17,-11,-91,44,24
1491087047532,1,-6,10,13,87,57,-15,-39,-17
1491087047532,1,-8,17,17,-10,3,-28,-8,-16
1491087047532,2,15,-10,-2,-24,-8,84,63,12
1491087047532,2,6,0,39,-28,-92,104,13,-6
1491087047533,3,1,-5,-36,71,59,-65,-25,-1
1491087047533,3,14,-5,-36,-75,-85,61,-117,-25
1491087047567,0,3,12,30,-27,-65,-128,0,41
1491087047567,0,-33,-27,-19,-16,-42,31,16,-8
1491087047568,0,-1,-1,-19,-19,-2,-6,-19,-50
1491087047568,0,19,8,-33,-92,-56,-77,26,47
1491087047570,1,-5,-29,-44,-25,-14,24,-31,-33
1491087047570,1,-2,-6,-6,18,8,15,30,16
1491087047605,3,-10,15,27,39,-7,3,37,14
1491087047605,3,43,50,0,11,7,5,-33,7
1491087047606,0,-19,-17,-42,-16,30,42,23,2
1491087047606,0,13,35,24,54,54,59,19,10
1491087047607,1,17,15,10,-21,-3,8,27,20
1491087047607,1,-13,13,-29,35,63,-21,-43,-28
1491087047642,3,40,30,18,85,71,41,22,29
1491087047642,3,-8,-11,2,-106,-109,20,15,8
1491087047643,0,16,42,7,20,-7,-5,-31,-3
1491087047643,0,-10,48,5,6,0,-25,4,1
1491087047644,1,-29,19,20,-10,21,-33,-40,-33
1491087047644,1,-13,-20,-19,51,51,76,101,91
1491087047645,3,-24,-42,-21,-52,-56,-5,-22,2
1491087047645,3,8,-13,73,8,-73,-46,-8,-4
1491087047680,0,-5,-20,-4,-87,-50,9,17,0
1491087047680,0,-37,-47,-27,1,7,20,-28,-8
1491087047717,1,-19,-28,-7,15,-17,-39,25,13
1491087047717,1,-24,-27,-8,13,-5,11,4,-20
1491087047718,3,-28,-66,-30,-30,-30,-20,-78,-37
1491087047718,3,-7,-50,21,7,28,89,25,-26
1491087047755,0,1,-18,3,15,-78,-96,-115,-19
1491087047755,0,56,-49,-22,-18,-27,20,29,15
1491087047756,1,45,-25,16,-20,-27,65,83,60
1491087047756,1,43,-28,-28,15,3,6,33,0
1491087047756,2,43,-10,19,14,17,19,18,-7
1491087047756,2,41,-2,9,-6,-21,-31,-64,-32
1491087047757,3,31,-13,0,-19,-7,10,2,7
1491087047757,3,10,2,-4,-25,-18,-52,-59,-11
1491087047905,0,-5,-3,21,10,35,53,57,32
1491087047905,0,-16,12,-3,-34,-70,-49,21,27
1491087047906,2,-47,-14,1,30,52,51,-13,-1
1491087047906,2,-47,8,-43,-45,-11,118,34,6
1491087047907,3,-42,17,0,-19,-83,-64,-45,-82
1491087047907,3,-48,-13,-7,12,14,90,58,7
1491087047942,2,-36,-127,-17,-11,8,76,1,-7
1491087047942,2,-28,-97,34,-4,-18,24,103,65
1491087047944,3,-9,-124,15,64,70,43,-48,32
1491087047944,3,-22,-122,-14,-11,80,-49,-9,-72
1491087047945,0,-14,-125,-9,9,47,127,4,-20
1491087047945,0,-11,-53,-2,51,-9,-54,4,0
1491087047980,1,22,10,-11,-9,21,50,14,44
1491087047980,1,3,-17,-19,-45,-93,-17,-128,-118
1491087047981,2,9,-4,9,32,46,90,127,28
1491087047981,2,-6,-26,-19,-62,-66,16,13,-37
1491087047982,3,8,3,12,16,37,82,40,61
1491087047982,3,24,6,-2,3,-97,-55,-113,-21
1491087047982,1,-24,-13,-11,91,93,15,61,2
1491087047982,1,33,8,-13,-102,-18,32,-25,-20
1491087048017,2,-20,-18,-1,37,-43,51,15,-15
1491087048017,2,26,28,17,-12,-64,-120,-92,11
1491087048018,3,3,-23,-4,-45,-29,36,-86,-65
1491087048018,3,-49,-15,8,-96,-76,92,27,-1
1491087048055,0,-21,-1,-28,64,-5,-37,90,10
1491087048055,0,-1,-22,-31,-47,-21,-28,-81,-90
1491087048056,1,64,18,58,-5,-75,26,74,73
1491087048056,1,22,-20,-35,-28,-14,-97,36,-15
1491087048056,2,-24,-14,35,28,46,119,29,16
1491087048056,2,16,-14,-20,-48,-67,-24,-48,-4
1491087048057,3,-17,-24,-10,-21,5,-64,-100,-58
1491087048057,3,112,2,3,-100,29,116,95,44
1491087048092,0,37,16,-37,-85,-126,-111,-82,33
1491087048092,0,-30,-19,33,28,42,127,49,-60
1491087048093,1,39,8,19,94,94,-85,-34,47
1491087048093,1,-48,-24,-14,-14,38,105,18,-23
1491087048094,2,16,3,8,-23,-95,-128,-42,-19
1491087048094,2,-26,-21,-13,16,48,127,71,46
1491087048095,0,23,-4,24,-116,-22,30,-15,-36
1491087048095,0,8,-17,-13,3,21,108,99,27
1491087048130,1,54,30,20,26,103,-47,10,93
1491087048130,1,44,-11,-21,-3,-113,60,-45,-34
1491087048132,2,-53,-2,-8,-106,46,32,46,-28
1491087048132,2,-14,-1,-17,29,-25,-83,8,-9
1491087048133,0,28,-10,11,75,71,-17,-100,-6
1491087048133,0,-15,10,32,40,48,49,6,-10
1491087048133,1,-33,-28,-12,48,48,91,94,16
1491087048133,1,23,25,50,103,107,-5,109,89
1491087048167,2,4,15,-13,-76,-89,46,-26,23
1491087048167,2,-3,-24,-65,-81,-50,-128,-101,-73
1491087048168,3,-13,12,-6,-41,-49,115,-11,-33
1491087048168,3,-18,1,25,62,72,127,93,13
1491087048169,0,18,6,20,24,-11,16,-15,46
1491087048169,0,33,16,-4,101,127,-100,-101,-27
1491087048170,1,-67,-29,-22,-106,-128,104,76,-20
1491087048170,1,-9,-5,-33,-40,-52,-110,-21,-34
1491087048205,2,-33,8,21,42,39,-22,13,-34
1491087048205,2,91,21,5,-28,-113,-42,-73,25
1491087048206,3,-11,-26,-3,21,114,-32,65,74
1491087048206,3,4,15,-61,-118,-125,-72,-122,-57
1491087048207,0,56,-7,17,57,0,127,80,50
1491087048207,0,10,14,60,60,46,127,61,-12
1491087048208,1,-30,-9,-47,-92,-41,-116,-21,13
1491087048208,1,-46,-21,21,-91,-99,100,93,67
1491087048242,2,-1,-5,-48,-37,-5,-30,-24,-32
1491087048242,2,-20,-20,1,13,-7,114,36,37
1491087048243,3,35,25,95,98,-8,102,40,-10
1491087048243,3,2,-18,-59,-9,20,-78,-116,-65
1491087048244,0,-31,-13,-20,-74,-89,-23,54,39
1491087048244,0,-25,-15,-3,77,125,126,33,15
1491087048245,1,7,-3,3,21,30,18,54,54
1491087048245,1,-14,-13,-18,-35,-41,-73,-49,-6
1491087048280,2,40,21,59,30,50,127,-20,-39
1491087048280,2,63,11,32,61,75,66,65,52
1491087048281,3,-38,9,-43,-112,-5,52,-61,-48
1491087048281,3,48,1,-13,24,58,-50,-28,25
1491087048282,0,-98,-39,-63,-6,-46,-111,-51,-47
1491087048282,0,9,32,17,-37,-102,-68,-24,12
1491087048283,1,-19,-18,5,46,45,49,87,-2
1491087048283,1,-14,-5,40,-24,-22,86,-90,21
1491087048317,2,-17,-14,-8,79,101,-53,-63,-38
1491087048317,2,-9,-20,-25,-29,-38,3,-128,-77
1491087048318,3,43,8,20,16,-22,-4,2,9
1491087048318,3,-59,-19,-23,50,103,115,125,-69
1491087048319,0,29,31,27,-48,-43,-19,87,52
1491087048319,0,-40,-30,-66,-128,5,8,-57,-70
1491087048320,1,-25,-19,-37,24,31,-22,-43,-20
1491087048320,1,23,-1,32,46,-31,62,58,33
1491087048392,2,14,16,47,-5,9,60,20,20
1491087048392,2,36,5,6,17,-36,-7,37,25
1491087048394,3,0,-4,-25,-31,-56,-4,-43,-26
1491087048394,3,-2,1,20,10,107,42,3,23
1491087048395,0,2,15,16,-12,-106,104,40,16
1491087048395,0,-24,-12,-48,-88,-30,-102,-71,-32
1491087048396,1,10,-29,-44,-6,40,-48,-50,-18
1491087048396,1,-50,17,49,-33,-117,62,10,-42
1491087048430,2,71,-4,-18,112,127,-71,56,69
1491087048430,2,6,12,32,45,25,38,6,12
1491087048431,3,-8,8,19,40,-34,13,16,23
1491087048431,3,6,5,-20,-92,-52,-31,-49,-43
1491087048431,1,-48,-33,-62,-61,-26,-124,55,-26
1491087048431,1,-3,-22,-30,-28,-37,39,-4,11
1491087048432,2,34,12,7,-33,-46,-48,-19,-67
1491087048432,2,-6,17,52,127,123,93,62,57
1491087048467,3,-55,-4,-16,-64,72,-78,-51,-12
1491087048467,3,10,0,-37,5,-20,-25,-33,18
1491087048469,0,-63,-16,14,3,23,119,12,-68
1491087048469,0,6,1,-33,39,9,-78,114,64
1491087048470,1,-36,2,56,121,78,111,-38,-30
1491087048470,1,35,26,1,-7,-36,-25,88,49
1491087048505,2,-18,-19,-36,-77,-44,12,-88,-36
1491087048505,2,-23,-8,9,-52,-26,127,-24,-41
1491087048506,3,27,2,-34,-118,-128,-104,-35,32
1491087048506,3,-52,1,8,112,124,-41,15,-46
1491087048506,0,84,19,20,74,90,82,16,80
1491087048506,0,-19,6,23,20,-35,-10,38,7
1491087048507,1,-27,-27,-8,-73,-84,50,4,-64
1491087048507,1,-7,10,-11,31,-20,11,-125,-53
1491087048542,2,49,-19,20,-52,-23,64,42,42
1491087048542,2,5,-14,-82,-110,-34,-112,-96,-70
1491087048543,3,-31,8,5,-11,-1,127,43,17
1491087048543,3,-64,-30,9,30,20,-120,-57,-67
1491087048544,0,46,6,2,14,52,31,-34,33
1491087048544,0,-18,-5,9,20,29,85,127,60
1491087048545,1,4,12,18,3,-83,-75,-128,-43
1491087048545,1,55,15,29,-42,-54,79,64,45
1491087048580,2,-90,-38,-55,29,85,-105,-90,-41
1491087048580,2,59,18,17,5,12,-3,94,-1
1491087048581,3,-27,22,18,-14,49,78,102,33
1491087048581,3,-16,-8,-27,-87,-69,-19,-32,24
1491087048582,0,-32,-4,-16,-26,-124,-109,-62,-62
1491087048582,0,36,8,2,-19,-85,122,85,20
1491087048582,1,-20,10,4,74,67,19,-3,-35
1491087048582,1,115,17,36,26,-4,-5,31,98
1491087048618,2,-95,-28,15,19,-61,73,11,-7
1491087048618,2,14,-6,-38,-72,9,-114,-38,-58
1491087048619,3,63,29,40,6,-44,-22,-47,87
1491087048619,3,-10,-12,-9,82,84,60,118,-10
1491087048620,0,-13,7,16,-17,-31,-11,-50,-50
1491087048620,0,-44,-21,27,34,-20,73,39,37
1491087048620,1,76,8,-48,-70,21,-26,94,65
1491087048620,1,-48,3,-17,-6,-64,38,-60,-63
1491087048655,2,10,-10,10,11,-25,71,127,26
1491087048655,2,-59,-2,-6,26,34,-72,-57,-23
1491087048657,3,28,27,18,75,85,53,-81,-16
1491087048657,3,81,22,0,-18,-32,-57,91,76
1491087048658,0,-88,-1,-47,-26,21,65,-75,-106
1491087048658,0,40,25,15,-28,-33,-2,12,47
1491087048659,1,28,-17,12,121,95,-9,18,21
1491087048659,1,-63,-25,-2,-2,98,-30,20,5
1491087048693,2,86,50,69,-72,-69,10,17,36
1491087048693,2,-105,-34,-110,-99,-9,6,32,-4
1491087048694,3,-6,-8,0,57,12,-106,-123,-58
1491087048694,3,7,-7,25,-34,23,28,74,-24
1491087048694,0,4,-7,-28,42,114,5,75,19
1491087048694,0,-42,-19,8,-13,-52,3,-128,-41
1491087048695,1,16,2,9,67,35,37,77,-4
1491087048695,1,40,38,53,19,-21,39,-11,84
1491087048730,2,-10,-16,-61,7,-12,-114,-88,-66
1491087048730,2,41,-21,-19,1,62,69,-9,-35
1491087048731,3,23,-26,-74,-128,-128,29,42,21
1491087048731,3,-49,44,48,88,66,-56,-110,-51
1491087048732,0,89,27,42,39,88,37,-21,7
1491087048732,0,-44,-22,-18,-32,-57,35,54,45
1491087048733,1,-50,-9,29,33,70,111,95,-25
1491087048733,1,-36,-22,-6,-7,-87,-68,-118,-103
1491087048768,2,0,2,-47,7,46,-75,93,100
1491087048768,2,52,-8,-8,15,96,7,5,-20
1491087048769,3,30,12,19,-115,-103,-37,-20,37
1491087048769,3,-29,-9,38,84,70,0,-47,-45
1491087048770,0,40,-11,-23,-22,25,40,-26,19
1491087048770,0,-41,-8,50,21,80,29,47,-10
1491087048771,1,5,-27,-69,-37,-128,-60,119,52
1491087048771,1,-56,-23,-33,-13,41,120,-75,-82
1491087048805,2,70,32,127,62,-22,-107,25,83
1491087048805,2,-47,-16,-47,-42,70,72,27,1
1491087048806,3,-55,29,45,-75,-78,16,-46,-59
1491087048806,3,14,-25,-16,-49,-38,-4,106,35
1491087048806,0,1,-4,-50,78,53,75,-56,-89
1491087048806,0,52,3,8,-65,-97,12,54,79
1491087048808,1,-87,-15,-20,22,53,-115,-126,-59
1491087048808,1,36,-5,-55,-38,-52,32,41,50
1491087048843,2,-58,-14,28,-85,-40,74,21,-32
1491087048843,2,41,57,43,84,8,-87,39,39
1491087048844,3,23,9,-9,-7,-42,-8,-23,6
1491087048844,3,16,-20,2,-20,-35,99,67,37
1491087048845,0,-37,38,3,-20,33,-112,-74,14
1491087048845,0,-12,12,42,46,-38,-20,-79,-20
1491087048846,1,5,-12,-2,-91,93,127,-53,-60
1491087048846,1,-70,-7,-22,58,25,-20,63,14
1491087048880,2,-5,33,40,28,29,-35,48,92
1491087048880,2,-36,-35,-88,-4,116,79,-54,-72
1491087048881,3,58,15,48,127,120,61,-15,9
1491087048881,3,1,-4,-38,-128,8,6,-2,32
1491087048881,0,40,-14,45,48,32,-47,-69,-81
1491087048881,0,-9,35,4,-100,-128,8,70,65
1491087048882,1,-14,-2,-17,63,127,-52,-59,-26
1491087048882,1,-10,-3,39,54,119,31,31,13
1491087048917,2,-94,-40,-56,-33,-114,-58,-84,-43
1491087048917,2,6,-8,60,127,103,80,39,-26
1491087048919,3,1,-8,-28,42,-32,-87,-44,-18
1491087048919,3,3,7,-22,-63,-45,55,41,-29
1491087048919,0,17,-18,-36,-63,-65,-101,-115,-1
1491087048919,0,-4,-34,-53,-21,11,80,64,-4
1491087048920,1,14,39,117,121,77,51,73,49
1491087048920,1,-32,-5,-71,-93,5,-60,-51,1
1491087048955,2,42,-40,-78,-51,-82,22,102,33
1491087048955,2,-35,-17,25,72,62,40,-36,-20
1491087048956,3,-16,40,15,-34,-10,-38,72,48
1491087048956,3,49,18,-9,-63,-105,-38,-59,-35
1491087048957,0,0,21,88,-9,37,127,93,35
1491087048957,0,7,-28,-69,-70,-77,-96,-19,-39
1491087048959,1,-11,-34,-63,-102,-111,-25,-77,55
1491087048959,1,-12,-15,51,48,-44,41,38,9
1491087049030,2,17,2,-99,-90,-47,38,-76,-52
1491087049030,2,-19,32,82,101,40,-90,44,15
1491087049031,3,42,-30,-22,-128,-86,68,-51,-57
1491087049031,3,-39,-6,-47,66,-47,-85,-46,-32
1491087049032,0,11,-14,35,41,8,127,16,14
1491087049032,0,20,33,40,-75,-79,-78,-89,31
1491087049032,1,-42,-23,-91,-108,-92,12,3,-29
1491087049032,1,-61,-36,12,125,127,122,-26,27
1491087049067,2,75,29,22,-79,25,93,109,39
1491087049067,2,-37,-14,-57,-48,-81,-88,-128,-75
1491087049069,3,4,-2,46,-25,-70,127,127,29
1491087049069,3,-22,-49,-71,69,94,-26,-13,-47
1491087049070,1,29,-5,-18,1,-2,42,76,63
1491087049070,1,-11,8,68,-128,-128,-70,-106,-25
1491087049071,2,-45,-17,-81,21,61,-51,-18,-17
1491087049071,2,-29,-7,15,-20,-11,127,5,9
1491087049105,3,-7,4,21,127,86,8,0,-32
1491087049105,3,30,20,14,-6,81,1,-17,16
1491087049106,0,-59,21,21,34,1,-80,35,-17
1491087049106,0,32,-7,17,-1,73,64,-94,30
1491087049107,1,-58,-29,-11,8,-63,-80,-19,-82
1491087049107,1,55,14,-14,-101,-49,55,63,41
1491087049108,2,-3,3,-21,-73,-43,-114,-106,1
1491087049108,2,-13,-18,-10,50,98,41,127,48
1491087049180,3,-32,3,32,0,-37,-46,-119,-37
1491087049180,3,66,35,32,80,80,79,97,29
1491087049181,0,-44,-34,-46,-108,-118,-24,-35,-9
1491087049181,0,4,16,45,107,-44,31,36,-61
1491087049181,1,17,-3,-15,-11,63,27,51,74
1491087049181,1,22,27,-23,-119,15,-45,15,5
1491087049182,2,-78,-25,32,76,70,93,48,10
1491087049182,2,45,-22,-37,-62,-1,8,86,15
1491087049217,3,-2,16,-8,-49,-19,-111,-83,-65
1491087049217,3,3,2,27,65,-45,104,17,2
1491087049219,0,41,-6,35,96,98,82,109,53
1491087049219,0,-14,5,-37,-54,-121,-72,-76,-21
1491087049219,1,-38,-29,-41,-65,27,-16,-1,-14
1491087049219,1,37,-13,-27,16,40,-15,-58,0
1491087049255,0,-39,-5,-19,64,68,-62,-98,-55
1491087049255,0,3,15,-18,17,-43,28,24,7
1491087049256,1,16,13,29,40,27,-14,50,5
1491087049256,1,-68,-14,3,-13,-87,-50,75,25
1491087049256,2,67,-7,-22,-37,-76,123,-11,-1
1491087049256,2,-7,17,0,-66,-93,40,10,1
1491087049257,0,-4,-11,-37,-56,-5,5,24,-10
1491087049257,0,-6,14,34,14,37,-128,-50,12
1491087049293,1,32,-10,-28,-124,-108,10,53,20
1491087049293,1,-27,-6,-11,83,93,-58,-38,-13
1491087049330,2,-5,-3,1,-75,-71,10,3,-18
1491087049330,2,5,-20,-13,-56,-62,-24,-8,-9
1491087049331,3,-14,2,59,109,3,108,40,23
1491087049331,3,46,25,-81,-128,69,-92,-10,0
1491087049332,0,-25,-17,-24,-52,-66,47,-69,-53
1491087049332,0,-2,14,74,84,92,123,33,10
1491087049332,1,24,-17,-43,-98,-79,-8,52,11
1491087049332,1,-11,-20,-36,-23,-59,-76,-98,-33
1491087049367,2,7,17,32,31,10,51,22,42
1491087049367,2,-18,8,-11,11,16,-6,17,6
1491087049368,3,5,-2,16,50,79,33,-22,-16
1491087049368,3,46,22,19,8,13,109,12,18
1491087049369,0,0,13,-15,-55,-44,-38,10,-3
1491087049369,0,0,0,49,56,-34,53,43,13
1491087049370,3,-10,18,43,45,-37,-64,44,-9
1491087049370,3,-41,-37,-56,-61,-9,-112,-83,-12
1491087049405,0,26,-2,-14,83,-18,-94,10,-32
1491087049405,0,30,8,57,47,61,4,48,35
1491087049406,1,-8,3,-39,-42,-42,-116,-58,-19
1491087049406,1,11,-7,60,85,127,-50,9,22
1491087049406,3,14,-1,-13,20,39,-12,-4,5
1491087049406,3,-6,2,50,-22,-102,16,36,8
1491087049407,0,-3,-2,-6,-38,71,-91,-55,-20
1491087049407,0,-1,-31,-59,-57,-58,-64,42,-8
1491087049442,1,22,10,-13,-24,-10,-57,23,4
1491087049442,1,-15,-1,7,-23,-30,-55,-14,-32
1491087049443,2,-5,-1,8,20,52,31,39,14
1491087049443,2,-20,1,16,3,-13,27,-32,-8
1491087049444,3,4,-14,3,39,98,3,-37,-3
1491087049444,3,15,21,2,-31,-69,-8,21,-4
1491087049445,0,-10,17,50,88,12,-2,15,16
1491087049445,0,-3,0,-49,-70,25,-32,-30,-9
1491087049480,1,-21,5,44,-56,-108,83,33,4
1491087049480,1,39,1,-57,-16,109,-100,-54,-2
1491087049481,2,-34,-10,-60,-80,-58,-4,9,-12
1491087049481,2,-31,7,45,66,32,109,47,-8
1491087049481,3,78,32,6,1,108,-51,-58,36
1491087049481,3,-28,-7,-10,-49,-50,14,23,-3
1491087049482,0,7,6,7,54,21,-16,-25,12
1491087049482,0,-29,-25,-42,4,-5,-27,-2,-10
1491087049517,1,-56,-23,26,31,32,113,40,-37
1491087049517,1,29,36,17,37,-37,-72,-32,-4
1491087049518,2,-7,1,-12,1,1,15,17,24
1491087049518,2,-1,6,32,16,-36,28,-34,0
1491087049519,3,-45,-32,-95,-93,-21,-4,-22,-18
1491087049519,3,2,12,96,127,120,46,56,14
1491087049520,0,-34,-15,-93,-104,-76,-59,-43,-33
1491087049520,0,45,10,8,104,57,-100,-43,21
1491087049555,1,-62,-10,19,-15,-20,-12,-11,-22
1491087049555,1,17,13,53,45,103,74,40,17
1491087049556,2,-5,35,34,49,95,78,34,30
1491087049556,2,-45,5,-7,-58,8,21,3,-4
1491087049556,3,-40,-22,-27,-62,-57,-41,-5,-12
1491087049556,3,-8,21,46,115,125,127,91,68
1491087049557,0,-46,-16,-34,5,-95,-105,-33,6
1491087049557,0,-25,26,-25,-126,-88,-68,-5,-12
1491087049592,1,-56,-3,-36,95,102,37,64,6
1491087049592,1,-18,-34,0,-6,-32,40,-21,-30
1491087049630,2,-40,22,53,91,127,114,36,-17
1491087049630,2,11,24,-38,-36,-22,-14,6,20
1491087049630,3,-3,28,27,45,-22,-37,-47,-10
1491087049630,3,-11,-55,-32,-19,-79,-24,-15,-22
1491087049631,0,24,32,51,10,15,23,25,12
1491087049631,0,12,32,34,-2,-36,-7,-23,-5
1491087049632,1,20,52,-3,-18,-38,-16,-43,-9
1491087049632,1,-5,50,-23,3,-44,9,-8,6
1491087049667,2,34,27,23,50,16,32,18,5
1491087049667,2,7,12,-60,-69,-68,-27,-61,-20
1491087049668,3,12,15,-25,10,-44,-23,51,16
1491087049668,3,37,24,-24,-48,-103,-38,-18,-14
1491087049669,0,6,-23,19,32,-4,40,16,-20
1491087049669,0,32,-43,9,31,44,52,29,18
1491087049670,1,-16,-36,14,-13,-31,29,14,3
1491087049670,1,43,-38,22,49,24,-2,-29,42
1491087049705,2,53,-65,2,-35,-54,-14,3,4
1491087049705,2,6,-74,0,45,-8,39,-17,-16
1491087049706,3,-6,-73,-30,-54,-66,-38,-19,-8
1491087049706,3,-24,-14,-11,-35,-13,18,15,-7
1491087049707,1,33,-30,25,7,7,16,3,8
1491087049707,1,5,-12,-22,-27,-36,-27,-14,-12
1491087049707,2,21,-5,-39,-17,29,85,23,15
1491087049707,2,-26,-15,17,14,-10,-22,-17,-21
1491087049780,3,43,3,1,3,16,39,-18,-6
1491087049780,3,-50,-34,-14,4,-5,-10,-18,-16
1491087049781,0,6,-2,9,53,111,51,22,11
1491087049781,0,20,-18,3,12,-34,-21,-9,13
1491087049782,1,16,18,-15,-83,-47,-55,7,7
1491087049782,1,-4,-10,-6,6,-17,32,25,-17
1491087049783,2,3,-36,36,6,-14,-7,8,26
1491087049783,2,-1,-43,-87,-72,-30,-38,-14,-19
1491087049817,3,45,-11,65,27,-5,78,28,3
1491087049817,3,13,5,-10,-23,19,27,70,16
1491087049818,0,-44,-19,21,87,113,51,-34,-27
1491087049818,0,24,10,-31,-62,-24,-42,-46,14
1491087049819,1,-10,-49,2,-20,-1,-9,-22,-13
1491087049819,1,-32,-59,-16,-20,11,1,22,-11
1491087049820,0,-41,-19,-37,-68,-105,-57,7,-18
1491087049820,0,8,64,-2,-36,25,98,-56,-11
1491087049855,1,22,67,-26,-16,-10,-38,31,19
1491087049855,1,-35,47,-5,32,-16,-20,-41,-32
1491087049856,2,26,78,13,14,30,-20,-24,17
1491087049856,2,-2,20,14,8,20,114,52,10
1491087049856,0,6,30,-20,-20,-117,-125,-24,-19
1491087049856,0,-1,23,-12,-61,44,-10,-13,-9
1491087049857,1,-8,-1,-2,77,15,98,85,42
1491087049857,1,-2,6,-49,-79,-31,43,-69,-38
1491087049892,2,10,30,28,60,25,-3,-6,7
1491087049892,2,-14,-16,-32,25,81,26,27,-37
1491087049967,3,-16,-9,-11,-58,-56,12,-14,-20
1491087049967,3,28,-3,24,55,-6,109,66,39
1491087049968,0,20,14,-6,-87,41,53,31,16
1491087049968,0,-15,10,72,83,41,63,33,-5
1491087049969,1,8,-8,4,33,127,127,55,24
1491087049969,1,-3,-23,-111,-128,-116,-128,-128,-60
1491087049970,2,-21,9,-2,-30,2,88,50,3
1491087049970,2,5,-8,16,41,9,31,40,9
1491087050005,3,-33,-27,11,60,56,-26,-29,-25
1491087050005,3,29,-7,15,62,95,87,56,42
1491087050005,0,-37,-22,-10,-19,-27,-128,-123,-31
1491087050005,0,29,23,55,21,22,127,86,30
1491087050006,1,-28,-19,-41,-95,-101,-125,-101,-30
1491087050006,1,-8,-15,4,-16,-38,15,38,15
1491087050007,3,48,16,38,54,46,-43,3,72
1491087050007,3,-9,-16,-17,-54,-85,120,0,-32
1491087050042,0,22,27,1,99,119,32,85,15
1491087050042,0,-18,-12,-19,-128,-128,-10,-19,0
1491087050080,1,-22,-20,-41,-47,-52,-56,-63,-74
1491087050080,1,19,21,90,102,127,43,32,37
1491087050081,2,18,14,-41,-117,-55,-95,-38,1
1491087050081,2,-21,-16,11,66,45,50,32,-3
1491087050117,3,53,14,27,-3,-76,94,40,28
1491087050117,3,-41,-32,-27,-15,-20,-103,-34,-33
1491087050155,0,-6,-12,42,30,-13,127,-33,-20
1491087050155,0,-14,-5,-3,74,24,-77,-14,15
1491087050155,1,12,-19,-38,-55,23,-29,-57,1
1491087050155,1,-2,29,46,-85,-65,50,60,-5
1491087050156,2,-25,0,-27,37,33,-62,-43,-2
1491087050156,2,-25,-13,11,7,-10,-27,92,8
1491087050157,3,35,16,-30,-7,52,-67,-115,-44
1491087050157,3,15,-6,4,8,97,111,0,15
1491087050192,2,47,-17,-27,-77,15,11,2,47
1491087050192,2,-6,0,-8,53,-12,-5,18,-7
1491087050193,1,-28,-19,-1,4,-79,-29,71,-6
1491087050193,1,-26,29,-3,-51,-73,-77,20,9
1491087050193,1,44,12,4,-34,20,-22,-128,-22
1491087050193,1,-13,-2,-18,28,-89,6,120,24
1491087050195,2,-13,-11,7,32,15,75,43,2
1491087050195,2,32,14,1,10,59,-77,0,-44
1491087050230,3,-26,7,15,50,6,-5,50,26
1491087050230,3,-15,14,20,-61,127,-34,-125,-2
1491087050230,0,32,-25,-72,-96,-104,-57,-13,29
1491087050230,0,-69,11,23,-24,-12,127,-13,-75
1491087050231,1,31,-24,-33,-5,-14,37,-32,7
1491087050231,1,28,17,36,-15,21,3,-7,15
1491087050232,2,-18,-15,21,112,109,3,74,32
1491087050232,2,-10,21,-55,-128,-26,-128,-96,-16
1491087050268,3,79,-2,24,14,-33,23,73,-1
1491087050268,3,15,-15,-12,59,-64,44,-67,28
1491087050269,0,-43,6,38,-22,4,18,-26,-52
1491087050269,0,2,-16,14,37,101,45,58,39
1491087050270,1,18,17,-3,-19,30,-88,18,18
1491087050270,1,-43,-13,-6,61,42,127,6,-29
1491087050270,2,30,24,68,105,102,29,45,14
1491087050270,2,-16,-13,-33,-54,-119,-62,-24,6
1491087050342,3,-47,21,18,-3,-63,88,3,-25
1491087050342,3,81,5,-8,28,-2,-93,-20,17
1491087050343,0,-55,-32,-70,-77,33,-46,-13,-59
1491087050343,0,31,10,44,-11,-11,108,26,35
1491087050343,1,-61,-11,12,-27,-72,-45,3,-27
1491087050343,1,-40,-4,31,19,-85,72,1,-22
1491087050345,2,43,3,-12,29,72,-29,9,23
1491087050345,2,-14,-21,-14,-43,-42,-18,-74,-9
1491087050380,3,-48,-19,-21,-8,45,-12,3,-35
1491087050380,3,10,-7,18,58,98,127,50,-8
1491087050381,0,37,21,2,-128,-128,-108,-60,7
1491087050381,0,-45,-13,-26,27,24,76,-58,-47
1491087050381,1,27,13,13,41,23,83,-30,-6
1491087050381,1,-70,-11,25,-18,-91,91,8,-23
1491087050382,0,-82,-29,-72,-128,-128,11,-81,-93
1491087050382,0,21,31,88,117,80,65,110,31
1491087050417,1,26,-33,-36,-83,10,56,55,44
1491087050417,1,-34,33,-15,43,28,-88,-17,-14
1491087050418,2,17,2,48,15,74,95,49,-20
1491087050418,2,-8,-31,6,-98,-82,36,23,7
1491087050419,0,80,13,22,74,57,-78,22,70
1491087050419,0,-16,-7,-36,-25,-95,80,-87,-19
1491087050455,1,-27,-7,56,-78,-71,74,64,25
1491087050455,1,-56,-28,-25,43,50,-24,-62,-55
1491087050492,2,-31,-5,0,-95,-128,43,-87,-64
1491087050492,2,127,3,-7,80,127,-43,56,88
1491087050493,3,-33,-16,-33,-74,-90,-76,-106,-53
1491087050493,3,62,18,12,43,48,-7,-48,21
1491087050493,0,-73,0,56,-21,16,90,76,0
1491087050493,0,42,4,-15,95,4,-2,49,22
1491087050495,1,4,18,-14,-92,-3,-39,35,-34
1491087050495,1,24,0,11,22,44,50,16,15
1491087050530,2,10,-14,-48,-54,-35,106,13,3
1491087050530,2,-109,2,59,66,60,-75,17,-50
1491087050532,3,-6,19,-10,10,-40,26,77,49
1491087050532,3,49,-17,-21,-77,-70,17,-100,-16
1491087050533,0,-10,-21,-24,0,82,28,80,-19
1491087050533,0,84,61,4,16,48,-33,-90,52
1491087050533,3,36,-14,-58,-42,-7,-68,31,33
1491087050533,3,-107,-4,28,11,-47,-72,-59,-23
1491087050642,0,57,18,-4,-37,-86,-44,73,19
1491087050642,0,-15,24,45,126,127,127,-28,-41
1491087050643,1,10,-19,-2,-46,-61,-119,-15,11
1491087050643,1,-21,-11,-49,-101,-4,127,-17,-42
1491087050644,3,32,9,26,105,-20,22,-77,-36
1491087050644,3,25,-6,18,11,-19,-91,16,-22
1491087050645,0,-46,7,-5,-110,-127,-6,-71,4
1491087050645,0,-1,8,16,-128,-128,54,119,7
1491087050717,1,-30,-40,-71,122,127,-89,-124,14
1491087050717,1,64,-7,-11,52,95,95,20,-24
1491087050718,2,-27,35,23,-15,-78,-71,-23,33
1491087050718,2,-94,-46,17,75,12,72,-20,-92
1491087050719,3,62,3,-13,-62,-117,-71,98,71
1491087050719,3,15,19,54,15,-50,105,-27,35
1491087050720,2,22,-1,-37,-21,55,126,78,32
1491087050720,2,46,2,-2,-20,-96,-128,-55,-23
1491087050755,3,-48,-23,-69,19,48,12,83,-70
1491087050755,3,61,15,-30,-80,6,-7,-111,1
1491087050755,0,-7,29,127,127,127,106,95,15
1491087050755,0,-11,-3,-33,-94,-48,-51,1,44
1491087050756,2,74,16,-23,8,89,87,124,-1
1491087050756,2,-22,-16,11,-14,-29,123,-34,-14
1491087050792,1,-24,14,55,-78,-103,-50,-95,19
1491087050792,1,-11,-49,-70,79,59,3,90,-16
1491087050794,2,-55,6,20,50,17,1,62,-4
1491087050794,2,-26,-20,53,-12,-24,-42,-65,-14
1491087050794,3,-23,-6,-22,-52,82,98,56,-40
1491087050794,3,25,15,-39,-87,-67,6,-34,9
1491087050795,1,-105,-33,-10,-43,-16,-93,-80,-92
1491087050795,1,82,20,24,36,-13,88,-63,-13
1491087050830,2,0,-10,0,89,48,38,24,31
1491087050830,2,-72,5,28,-35,-60,13,-124,-52
1491087050830,3,7,-3,-4,-54,-100,-48,95,17
1491087050830,3,4,18,22,-128,-30,91,118,14
1491087050832,0,21,-6,-9,19,-18,-94,-96,5
1491087050832,0,-22,-11,-30,-23,-9,62,47,29
1491087050833,1,19,-17,-5,-42,106,71,-128,-37
1491087050833,1,-5,7,-30,-25,-105,-86,-32,-13
1491087050867,2,0,20,6,-119,-37,-93,-84,-8
1491087050867,2,-46,-11,-44,-63,-32,36,72,-23
1491087050868,3,49,9,-17,95,74,35,-4,15
1491087050868,3,22,7,39,87,-23,93,10,3
1491087050869,1,14,6,-26,-107,-128,-3,82,58
1491087050869,1,-36,-33,-47,-47,3,-117,-86,-27
1491087050870,2,44,3,25,42,58,65,41,26
1491087050870,2,-31,-29,1,35,-7,22,-86,-31
1491087050905,3,27,8,8,76,81,50,45,24
1491087050905,3,-11,-1,24,57,65,83,40,19
1491087050906,0,-23,4,27,-65,-24,-76,-58,-33
1491087050906,0,24,-26,-82,-37,-63,-79,38,-6
1491087050906,1,44,29,22,28,-111,-115,-128,9
1491087050906,1,-39,-2,-48,-128,-108,-102,-3,-5
1491087050942,2,23,22,34,65,69,60,-82,-25
1491087050942,2,51,7,54,115,111,112,86,52
1491087050943,3,19,0,-30,38,34,-70,-96,-20
1491087050943,3,-13,-13,31,99,95,112,96,58
1491087050943,0,-30,-9,-72,-89,-128,-95,-5,-68
1491087050943,0,-51,-1,-9,108,125,-36,-7,6
1491087050945,1,-21,-15,16,-63,-111,126,24,-21
1491087050945,1,19,23,29,99,70,-101,-76,-10
1491087050980,2,66,33,36,23,64,70,77,39
1491087050980,2,17,-9,-83,-128,-128,-4,60,42
1491087050980,3,-26,-11,-8,32,88,17,-46,-29
1491087050980,3,-22,-9,95,13,-40,89,53,25
1491087050981,0,39,-3,-75,-100,-74,-126,-88,-24
1491087050981,0,-4,3,-8,-46,-32,83,-53,-83
1491087050982,1,-14,-4,30,79,68,60,13,40
1491087050982,1,-40,-17,-24,-104,-97,-88,1,-45
1491087051017,2,-16,7,39,126,116,74,2,7
1491087051017,2,18,11,26,-42,-30,-128,-3,26
1491087051018,3,31,-8,-80,-16,15,74,71,21
1491087051018,3,-27,8,25,46,52,127,58,-5
1491087051019,0,-59,-25,-9,1,14,-52,-33,-16
1491087051019,0,8,15,21,-10,-62,10,-19,16
1491087051020,1,11,3,31,9,-36,23,5,38
1491087051020,1,10,-15,-50,-35,-62,-43,14,-27
1491087051092,2,-15,-2,5,-82,-128,-5,13,37
1491087051092,2,1,-13,-23,-9,127,-94,-115,-25
1491087051094,3,-1,-5,-15,22,44,30,81,-3
1491087051094,3,14,4,13,-14,-37,127,31,-3
1491087051094,0,-11,-5,3,9,91,125,77,-18
1491087051094,0,26,5,5,-33,-38,-84,-59,19
1491087051095,1,-59,-12,2,-43,-95,53,-15,-32
1491087051095,1,69,20,30,55,66,62,-49,1
1491087051130,2,-13,-15,-65,-106,-18,53,66,-8
1491087051130,2,0,-10,14,2,-44,-25,-46,-26
1491087051131,3,44,28,20,-16,18,-23,19,58
1491087051131,3,-41,-19,-1,33,54,-5,-29,-25
1491087051132,0,7,-5,22,1,70,65,53,25
1491087051132,0,-25,-16,-33,18,-22,16,-8,-31
1491087051133,3,18,-18,-36,-47,-126,-72,-100,-50
1491087051133,3,-29,2,-2,37,20,36,89,-6
1491087051167,0,49,11,24,22,3,26,-24,38
1491087051167,0,-24,-3,-8,-29,-1,-41,42,8
1491087051168,1,15,6,53,47,84,67,78,29
1491087051168,1,-25,-20,-116,-128,-54,-47,-35,-23
1491087051169,2,0,-4,19,19,-70,-46,-17,-7
1491087051169,2,-36,21,88,21,6,127,76,20
1491087051170,3,22,5,-37,28,115,-105,-42,15
1491087051170,3,-37,-20,-3,-43,-4,-21,10,-25
1491087051205,0,-8,20,7,-24,-20,56,-4,-3
1491087051205,0,13,-2,-19,6,-9,56,-45,-18
1491087051206,1,-25,1,79,40,-93,43,13,-9
1491087051206,1,-5,-16,-47,50,39,72,-51,-1
1491087051206,2,14,-12,-32,-105,-79,107,-50,-50
1491087051206,2,44,21,40,32,-44,112,-13,22
1491087051207,3,-43,-9,-28,20,20,101,-5,-22
1491087051207,3,-8,-3,59,103,112,-72,11,6
1491087051242,0,67,31,13,-34,-19,-39,69,50
1491087051242,0,-44,-29,-66,-93,-77,-92,-1,-40
1491087051245,1,23,9,25,29,-30,-64,9,7
1491087051245,1,-9,-16,-14,1,-2,-113,-35,-10
1491087051246,2,-25,-6,33,69,26,-69,35,-4
1491087051246,2,15,15,46,112,112,-31,33,15
1491087051246,3,0,-14,-55,-97,-20,-128,-62,-11
1491087051246,3,16,8,-1,-6,-57,-27,39,21
1491087051280,0,2,10,73,50,17,59,32,25
1491087051280,0,33,-16,-110,-85,-82,-115,-21,39
1491087051281,1,3,-4,32,-1,15,127,90,-16
1491087051281,1,-3,12,4,-2,-101,-128,-7,-9
1491087051281,2,4,-11,-6,54,45,77,-6,-10
1491087051281,2,-16,3,63,67,23,15,-28,-18
1491087051282,3,-5,-11,-18,6,-17,-5,10,9
1491087051282,3,29,12,8,-80,-42,-5,0,18
1491087051317,0,-11,1,-12,70,11,31,17,4
1491087051317,0,9,12,31,37,118,61,33,17
1491087051318,1,-11,-19,-108,-117,-125,-81,-70,-26
1491087051318,1,-18,-5,-28,-60,-61,-36,-50,-37
1491087051319,2,-32,-11,-53,-26,-12,-60,-48,-29
1491087051319,2,11,19,30,51,36,91,91,23
1491087051320,3,-20,20,80,86,76,57,40,1
1491087051320,3,49,9,-14,25,127,-20,-28,61
1491087051392,0,-15,-24,-101,-110,-101,-99,-90,-98
1491087051392,0,-21,1,-6,39,12,-9,2,-1
1491087051393,1,16,16,46,15,29,30,34,14
1491087051393,1,-5,2,13,-6,3,62,19,24
1491087051394,2,-7,-22,28,28,19,-45,-15,0
1491087051394,2,-4,-16,-9,21,5,14,-1,-4
1491087051395,3,10,-27,-15,-10,5,-21,-10,-6
1491087051395,3,-5,2,5,-50,88,46,1,-1
1491087051467,0,-9,-24,-28,-75,-99,-73,-47,-14
1491087051467,0,10,-13,-11,-9,-23,44,-23,-5
1491087051469,1,-25,-32,-10,-50,-80,-100,57,0
1491087051469,1,13,-3,8,32,2,26,8,-12
1491087051469,2,12,12,-8,63,84,61,73,31
1491087051469,2,-19,-17,26,25,15,-5,-47,-20
1491087051470,1,8,11,-32,-99,-84,-13,6,34
1491087051470,1,-11,-3,-22,9,-62,8,-52,-42
1491087051505,2,-21,7,37,-11,13,104,5,-3
1491087051505,2,-37,-25,-56,73,96,35,29,-19
1491087051506,3,12,17,36,-14,25,40,-23,1
1491087051506,3,9,8,-24,-45,-24,46,25,24
1491087051506,0,0,-5,0,-27,49,-47,-55,13
1491087051506,0,-1,-12,-83,-97,-127,-49,-14,-26
1491087051507,0,14,0,-13,7,-39,37,4,-25
1491087051507,0,32,26,13,-25,-6,33,9,37
1491087051542,1,36,14,2,34,-11,-8,-9,25
1491087051542,1,26,-3,1,-3,-13,23,-20,-22
1491087051580,2,-46,-20,-7,20,-60,16,35,-4
1491087051580,2,11,11,-41,-47,-32,-26,2,10
1491087051581,0,0,13,37,-3,1,82,10,1
1491087051581,0,-2,-7,0,-45,-114,-110,-63,-14
1491087051581,1,-20,-3,18,27,28,38,-26,5
1491087051581,1,-1,2,2,-13,-25,6,-14,-27
1491087051582,2,45,1,3,-23,-29,21,62,16
1491087051582,2,-37,13,54,17,27,3,-31,-14
1491087051617,3,-6,-5,-32,13,51,3,-23,-15
1491087051617,3,25,25,10,2,-2,11,17,10
1491087051618,0,-5,-4,-19,0,-8,-11,14,-3
1491087051618,0,-3,-4,31,-5,-48,-31,-16,0
1491087051619,1,-8,-10,-9,-20,34,3,-3,15
1491087051619,1,6,2,15,9,9,17,18,7
1491087051620,3,15,0,-7,39,55,50,24,10
1491087051620,3,-40,-20,-24,-48,-34,-65,-74,-11
1491087051655,0,-13,5,33,33,31,28,-22,0
1491087051655,0,69,16,13,-27,-68,-95,16,23
1491087051657,1,-31,-20,2,53,44,52,-7,-11
1491087051657,1,22,7,5,-3,121,110,29,-6
1491087051658,3,53,19,5,-37,-33,-27,-28,3
1491087051658,3,-29,-10,6,-7,3,3,24,11
1491087051659,0,-30,-6,19,50,72,90,53,-2
1491087051659,0,-24,1,-40,-83,-66,-1,14,-1
1491087051693,1,4,-1,24,27,-1,-20,-10,8
1491087051693,1,-24,-7,-3,-39,4,42,31,-24
1491087051694,2,13,9,-2,39,43,-19,-59,15
1491087051694,2,-16,-14,50,114,70,83,-5,8
1491087051695,3,-51,-4,-17,-77,30,105,95,-14
1491087051695,3,74,38,-14,-15,-102,-128,-98,14
1491087051730,0,22,-22,0,-21,34,127,49,7
1491087051730,0,-16,-8,-48,-76,-8,68,-33,-24
1491087051805,1,8,21,56,69,55,52,65,40
1491087051805,1,0,0,43,-76,-79,88,53,21
1491087051806,2,20,-1,-91,-128,-85,-114,-38,-13
1491087051806,2,-17,6,27,96,40,15,-40,-30
1491087051807,3,104,5,35,-80,-25,34,29,67
1491087051807,3,-34,-25,-49,77,-94,-53,-57,-31
1491087051842,0,-9,-19,23,92,94,40,-1,-19
1491087051842,0,22,-7,-50,-111,8,53,43,13
1491087051843,1,9,-8,-6,-9,-65,-48,-44,-51
1491087051843,1,76,6,57,37,-21,-80,-6,38
1491087051843,2,-4,-14,-68,-128,-43,-39,-24,-6
1491087051843,2,2,-5,21,106,76,12,-17,0
1491087051845,3,-21,-20,-14,-70,51,100,20,-14
1491087051845,3,-46,-15,-26,-57,-23,-23,-11,-37
1491087051880,2,23,-1,-13,-17,16,-36,-9,-31
1491087051880,2,24,9,19,19,43,54,3,7
1491087051881,3,-26,9,-18,6,-23,-54,-44,-24
1491087051881,3,46,-1,-5,73,56,59,-3,42
1491087051881,2,-23,18,-30,-14,-67,0,26,-19
1491087051881,2,62,5,10,30,97,127,-34,4
1491087051882,3,36,5,-7,-19,12,-6,10,8
1491087051882,3,-22,7,-6,68,93,-23,-35,-32
1491087051917,0,0,-13,4,62,6,72,70,7
1491087051917,0,-60,9,-17,-97,-85,-11,-41,6
1491087051919,1,-34,3,48,127,102,52,-15,-26
1491087051919,1,-3,-22,-4,-5,53,20,15,-5
1491087051919,2,33,1,25,-47,53,-49,-16,3
1491087051919,2,13,11,-17,-31,-18,-97,60,25
1491087051920,3,-53,-14,2,-86,-99,24,36,-40
1491087051920,3,-14,-3,-15,-28,77,-30,-55,-32
1491087051955,0,75,18,-2,53,-28,75,40,95
1491087051955,0,-76,-11,5,-31,-30,-97,-78,-57
1491087051956,1,-20,10,-23,-64,-85,-18,-30,-14
1491087051956,1,-14,-4,5,75,-10,89,65,8
1491087051956,2,22,8,11,-20,-8,-64,-88,-46
1491087051956,2,-7,-24,20,80,101,127,97,53
1491087051957,3,-45,7,-44,-46,-66,-128,-101,-46
1491087051957,3,114,22,1,43,-6,119,27,60
1491087051992,0,-51,-3,52,-2,-77,101,34,4
1491087051992,0,9,-1,-11,1,-45,-31,-52,2
1491087051993,1,-49,-3,-49,-83,-71,-128,-128,-88
1491087051993,1,17,-12,4,-29,-89,39,79,-7
1491087051996,2,-6,-8,85,45,25,100,94,23
1491087051996,2,50,7,-53,19,83,-23,113,48
1491087051997,3,8,24,-16,-36,-31,-33,-7,-2
1491087051997,3,11,-30,-22,-11,-43,98,69,-10
1491087052030,0,-50,22,41,81,99,-6,-128,-49
1491087052030,0,53,-18,12,-54,16,-24,119,-5
1491087052031,1,-16,-21,-18,50,14,24,123,41
1491087052031,1,36,-23,-17,-68,-26,4,16,-7
1491087052032,2,31,20,-48,-85,-106,-82,-28,31
1491087052032,2,-34,-33,-5,41,-8,5,-102,-116
1491087052033,3,41,34,51,24,13,76,53,44
1491087052033,3,17,-26,-15,24,93,-14,-83,18
1491087052067,0,8,6,-70,-119,-100,1,25,17
1491087052067,0,-24,0,-5,-66,-69,36,-18,27
1491087052068,1,-66,-36,36,10,-62,63,-20,-46
1491087052068,1,9,24,57,55,-40,-31,52,-43
1491087052069,2,-12,11,-44,-28,-20,21,-120,69
1491087052069,2,-8,-7,-28,-17,-22,107,-88,-20
1491087052070,3,-66,-11,34,71,51,-34,116,75
1491087052070,3,40,57,74,65,90,127,-100,-5
1491087052180,0,-85,-62,-53,-8,23,-84,45,-26
1491087052180,0,11,31,-27,-128,-4,-5,51,-22
1491087052181,1,-41,-20,-7,-13,-2,3,-23,-39
1491087052181,1,-49,-38,-34,-121,-127,-117,-91,-29
1491087052181,2,-3,18,2,62,78,-8,94,4
1491087052181,2,8,0,30,103,67,64,-37,14
1491087052217,3,45,-13,1,-32,45,-83,-111,-35
1491087052217,3,51,58,11,2,-27,106,127,70
1491087052218,0,10,-5,14,12,-97,-43,12,-26
1491087052218,0,21,16,5,10,66,-102,-41,40
1491087052219,1,94,12,15,73,43,98,125,67
1491087052219,1,-26,-11,-44,-18,-42,-58,-103,-50
1491087052220,2,42,0,39,70,121,23,11,-6
1491087052220,2,-89,-18,-22,-93,-66,-14,-10,-17
1491087052255,3,-83,-32,-74,-65,16,-88,93,-10
1491087052255,3,30,26,31,39,12,-63,-91,-45
1491087052256,0,-54,-3,21,-94,-62,49,70,18
1491087052256,0,-28,-47,-69,3,57,127,127,23
1491087052256,1,14,48,51,77,103,-84,-62,-1
1491087052256,1,-62,-4,9,15,-8,74,50,-6
1491087052257,3,17,-7,-17,-16,-44,-22,-23,66
1491087052257,3,-33,-4,12,11,85,-11,52,-17
1491087052292,0,70,35,43,30,-31,73,-45,54
1491087052292,0,-8,-3,19,-90,-93,-67,0,35
1491087052293,1,53,-15,-93,-51,19,40,-80,-91
1491087052293,1,39,8,1,4,92,-4,15,12
1491087052294,3,47,23,24,66,87,127,-7,40
1491087052294,3,-27,-7,-4,-12,-4,-14,65,40
1491087052295,0,10,-10,-32,-65,-45,-93,-80,-61
1491087052295,0,45,9,-5,76,122,51,95,41
1491087052330,1,-38,10,37,55,51,1,127,-2
1491087052330,1,-24,-18,24,66,51,127,-71,0
1491087052331,2,-9,-27,-101,-54,71,-113,-44,-21
1491087052331,2,-31,-6,-16,-78,-43,-79,-120,-80
1491087052331,3,37,0,-4,-102,-128,95,17,69
1491087052331,3,68,52,52,-14,-63,56,84,-32
1491087052332,0,4,12,34,70,83,-2,37,34
1491087052332,0,9,-7,10,16,20,20,-83,8
1491087052367,1,19,-18,14,83,-48,-14,-21,-10
1491087052367,1,10,-25,-68,-85,-18,-128,26,41
1491087052368,2,-25,-41,-51,2,-49,110,56,-70
1491087052368,2,-11,23,3,-99,-66,28,30,35
1491087052369,3,34,-9,10,48,4,-100,-81,-7
1491087052369,3,-5,1,-20,-69,-113,55,-92,-12
1491087052370,0,-24,-45,-27,38,19,19,65,-28
1491087052370,0,-59,45,93,83,8,94,69,-60
1491087052405,1,15,-1,-9,-19,40,114,84,78
1491087052405,1,-7,-18,-20,-92,-123,-108,1,42
1491087052442,2,-73,-24,-26,-117,-74,94,-23,-82
1491087052442,2,71,-14,-13,117,65,-93,-103,13
1491087052444,3,13,32,6,25,70,59,115,43
1491087052444,3,-68,5,52,-11,34,70,-45,-50
1491087052445,0,76,1,70,87,89,-53,-40,-2
1491087052445,0,-14,3,-80,-41,55,-28,127,69
1491087052446,1,-96,-52,-76,-128,-3,-52,-102,-128
1491087052446,1,59,60,22,3,-60,17,65,82
1491087052480,2,-53,9,88,79,117,91,-51,-47
1491087052480,2,21,-20,-86,-90,-86,-63,-85,12
1491087052481,3,-32,-27,-12,-45,-9,103,61,-67
1491087052481,3,-19,-32,-14,113,127,-128,-57,-35
1491087052482,0,15,23,35,-128,-80,111,99,45
1491087052482,0,37,-9,10,102,30,-75,-42,5
1491087052483,1,36,9,-21,-19,-9,127,96,82
1491087052483,1,37,-1,-4,49,-73,98,-69,-34
1491087052517,2,1,56,14,-90,-113,76,53,-4
1491087052517,2,-50,-20,-15,33,127,-21,63,-2
1491087052518,3,24,3,38,-43,-83,-30,-128,-79
1491087052518,3,-62,-18,-42,65,64,97,127,63
1491087052519,1,-75,-8,35,-16,-10,-73,-56,-66
1491087052519,1,66,16,-40,-61,-81,-78,65,-27
1491087052592,2,-91,-34,-58,-19,-15,80,-104,-68
1491087052592,2,53,-5,54,108,102,127,127,73
1491087052593,3,36,58,30,-30,-76,-62,-42,-19
1491087052593,3,-67,-45,-38,76,108,-84,14,-4
1491087052594,0,14,11,-42,-94,-98,-102,-105,-32
1491087052594,0,-98,-29,10,-63,-31,122,-52,-128
1491087052595,1,79,37,62,127,124,91,114,107
1491087052595,1,-17,17,20,38,58,-102,-128,-20
1491087052630,2,-31,-58,-91,-82,-32,70,57,-9
1491087052630,2,-10,13,-11,-87,-122,15,3,55
1491087052631,3,-3,-30,-53,18,-26,-9,41,-44
1491087052631,3,-22,18,52,36,86,-36,-82,44
1491087052631,1,0,-10,4,-98,-114,11,31,70
1491087052631,1,-28,-35,-46,38,82,-9,-39,-58
1491087052632,0,-31,23,37,-64,-103,-52,-11,19
1491087052632,0,-10,7,24,107,127,54,127,-18
1491087052705,1,-31,-22,-14,59,-20,-98,-43,16
1491087052705,1,-61,-19,-31,-94,-49,-6,-53,-49
1491087052706,2,72,40,19,61,47,-63,-85,11
1491087052706,2,19,-7,28,-15,-25,1,74,7
1491087052742,0,12,-31,-19,28,-75,83,123,-11
1491087052742,0,-40,23,14,-15,-43,-128,-128,-38
1491087052743,1,59,13,1,37,78,127,96,92
1491087052743,1,35,12,13,-51,70,-77,-18,-25
1491087052744,2,-55,-20,-33,15,-54,58,70,13
1491087052744,2,26,14,31,-32,-46,-48,-27,9
1491087052745,3,-2,12,45,-10,-112,-41,21,-8
1491087052745,3,-99,-30,-34,42,8,127,-21,-60
1491087052817,0,70,25,23,-38,-27,-128,31,71
1491087052817,0,9,-6,27,21,59,127,-55,-1
1491087052818,0,-3,-8,-42,-38,28,-70,33,-91
1491087052818,0,-1,4,18,-20,-66,91,101,49
1491087052819,1,22,8,-37,-90,-101,-109,-114,-11
1491087052819,1,39,28,69,28,55,123,47,63
1491087052820,3,-8,-5,29,24,10,82,31,-25
1491087052820,3,-5,-17,-16,-50,-26,-27,40,25
1491087052855,0,-22,-21,-55,-20,52,-128,-128,-12
1491087052855,0,0,-5,-6,25,-42,27,29,-42
1491087052855,1,3,-4,21,-11,-51,99,-70,-22
1491087052855,1,-35,4,21,96,36,14,97,56
1491087052856,3,-15,35,40,-6,-128,46,57,-19
1491087052856,3,55,-8,-12,33,53,-42,-12,26
1491087052857,3,4,-3,13,-19,22,-23,-39,5
1491087052857,3,-2,2,-46,-64,-18,-18,51,-23
1491087052892,0,8,16,40,13,-103,15,9,11
1491087052892,0,-15,-14,-4,-10,78,17,-19,-15
1491087052893,1,33,22,5,-10,62,-12,20,52
1491087052893,1,-13,4,26,51,11,63,6,-44
1491087052893,2,-4,-15,-33,-66,-22,111,27,53
1491087052893,2,23,2,-25,-74,-93,-53,-23,0
1491087052895,3,-1,-4,-32,-17,-4,-12,-73,11
1491087052895,3,-20,-18,-5,3,-16,127,59,-57
1491087052930,0,4,13,-16,-28,70,-108,-28,-3
1491087052930,0,-9,0,0,20,110,73,26,14
1491087052932,1,-16,-22,-29,-67,-101,-64,-6,11
1491087052932,1,22,27,52,-20,-58,31,-26,12
1491087052933,2,-26,-10,26,66,82,9,28,3
1491087052933,2,27,15,18,2,10,34,-7,17
1491087052934,3,5,-5,-20,-56,24,-46,19,2
1491087052934,3,32,7,18,50,32,-2,14,16
1491087052967,0,30,7,-41,-40,67,-103,3,24
1491087052967,0,-36,-17,-14,-60,-71,18,-38,-23
1491087052968,1,0,-18,-3,28,1,26,-19,-12
1491087052968,1,-1,31,4,35,-37,28,47,15
1491087052969,2,21,-8,36,25,85,49,-21,0
1491087052969,2,3,1,-6,23,9,112,-3,-3
1491087052970,3,-27,-10,-45,-50,-79,52,8,-22
1491087052970,3,-15,-14,-3,-87,-80,87,56,12
1491087053005,0,10,14,35,86,-48,19,30,-18
1491087053005,0,-25,-2,22,30,90,-12,17,2
1491087053007,1,-27,-22,-17,60,83,-105,12,14
1491087053007,1,33,0,-13,-74,-98,-128,-47,12
1491087053008,2,-15,12,24,13,-29,-77,2,4
1491087053008,2,-9,-1,-2,8,5,-122,15,0
1491087053008,3,-42,-11,-9,-27,-8,-107,-11,-14
1491087053008,3,23,6,-13,19,21,-74,1,-11
1491087053042,0,6,21,18,-51,-29,-53,19,12
1491087053042,0,47,11,1,47,54,-50,-21,11
1491087053043,1,8,14,58,-32,107,54,3,-18
1491087053043,1,-11,-40,-114,-100,-75,-77,14,5
1491087053044,2,-28,-19,-53,-41,-73,-102,-97,-51
1491087053044,2,-10,-4,-4,-25,-31,52,-4,-39
1491087053045,3,19,6,28,84,38,-45,6,49
1491087053045,3,0,-2,31,20,19,8,28,36
1491087053080,0,-10,-5,-1,103,106,-26,-36,4
1491087053080,0,-36,-19,-15,-42,-95,15,47,-26
1491087053081,1,27,24,13,1,-53,51,39,12
1491087053081,1,-6,3,2,-28,-55,-21,-54,-13
1491087053081,2,8,-15,-69,-82,-105,-73,-12,-5
1491087053081,2,-7,14,45,55,73,52,9,11
1491087053082,3,-36,-8,-13,30,-59,-39,6,-18
1491087053082,3,16,2,23,57,75,16,-25,-2
1491087053117,0,40,27,15,-43,-26,77,87,46
1491087053117,0,6,-3,-7,-41,-20,3,-26,3
1491087053118,1,38,-1,34,59,66,-5,6,-2
1491087053118,1,-84,-14,-72,-82,-17,-4,-17,-53
1491087053119,2,20,-7,31,-11,2,27,-39,-11
1491087053119,2,44,18,-3,4,-45,-1,21,10
1491087053120,3,-5,2,19,4,-4,19,14,21
1491087053120,3,6,-8,23,54,57,38,13,-4
1491087053155,0,-18,-9,2,34,61,12,-13,-13
1491087053155,0,-18,-18,3,59,-18,-39,12,23
1491087053155,1,10,7,8,76,52,47,-14,-26
1491087053155,1,-15,-8,-33,-65,-60,-77,-26,-22
1491087053156,2,-1,-3,-58,-32,-6,-35,-18,-7
1491087053156,2,-11,3,41,56,29,33,7,3
1491087053157,3,44,-1,-41,6,19,15,18,21
1491087053157,3,2,37,70,81,41,29,-4,6
1491087053192,0,-24,2,47,40,49,46,51,11
1491087053192,0,45,0,26,17,47,25,-19,4
1491087053193,1,-31,-38,-118,-126,-111,-107,-66,-25
1491087053193,1,-7,-1,36,53,17,53,2,-6
1491087053194,2,-45,-5,-28,-37,-30,-5,-22,-31
1491087053194,2,48,50,11,38,48,26,13,36
1491087053195,3,-43,-11,27,-82,62,60,25,10
1491087053195,3,52,-4,-19,-114,-109,-90,-29,0
1491087053230,0,-47,-6,21,111,77,41,6,2
1491087053230,0,-38,-35,-65,-72,-110,-60,-32,-36
1491087053230,1,22,17,49,56,-3,13,7,11
1491087053230,1,-4,-15,-31,15,50,39,31,6
1491087053231,2,41,17,101,127,105,83,47,30
1491087053231,2,-71,-14,-62,-128,-120,-58,-67,-22
1491087053232,3,13,-1,-34,-57,-87,-109,49,-9
1491087053232,3,-11,-12,39,79,82,69,6,0
1491087053267,0,29,-9,-28,-33,-49,2,-1,2
1491087053267,0,-13,10,44,41,49,63,6,22
1491087053268,1,-45,-7,-13,-45,-30,-3,-37,-56
1491087053268,1,80,19,12,9,-29,18,17,33
1491087053269,2,-26,-18,-22,-44,-7,-13,-3,-12
1491087053269,2,8,-8,10,-1,2,30,24,-20
1491087053270,3,2,26,60,104,106,121,21,12
1491087053270,3,-17,5,-48,-114,-75,-70,-35,-19
1491087053305,0,55,38,-2,21,-27,29,-78,0
1491087053305,0,-15,5,-21,-22,-18,-11,31,2
1491087053305,1,-45,-25,-11,2,18,78,36,-11
1491087053305,1,23,40,44,52,47,1,1,16
1491087053307,2,-27,-14,4,15,0,-5,41,-6
1491087053307,2,1,-27,-13,7,-2,-64,-56,-14
1491087053342,3,37,-4,-11,-4,-23,8,21,23
1491087053342,3,-42,-31,-30,-9,-15,22,-6,-13
1491087053343,0,-16,-22,-11,-58,-12,-16,18,2
1491087053343,0,44,21,23,33,13,52,21,23
1491087053344,1,-42,-25,-32,-45,-44,-76,-16,-21
1491087053344,1,-22,-15,-2,2,16,2,-17,-12
1491087053380,2,59,-5,35,13,2,45,-22,3
1491087053380,2,0,-17,-18,-16,40,114,125,10
1491087053381,3,27,6,56,102,85,-29,-60,28
1491087053381,3,-30,-2,-28,-78,-58,-37,-68,15
1491087053381,0,12,3,1,-58,-28,64,-1,-22
1491087053381,0,-38,-23,-22,-56,0,33,-38,-32
1491087053417,1,11,-5,16,7,18,71,28,9
1491087053417,1,33,-4,29,44,76,19,47,18
1491087053418,2,-40,-18,-1,16,-64,-39,22,2
1491087053418,2,-3,-7,0,-63,-99,-46,-61,-4
1491087053419,3,44,-10,-22,48,67,13,23,20
1491087053419,3,-70,-45,-40,-89,-34,-24,-20,-54
1491087053420,0,20,11,4,12,37,82,63,32
1491087053420,0,-33,36,16,56,-10,-116,-45,19
1491087053455,1,13,17,-2,-48,-78,42,-11,-35
1491087053455,1,-36,12,52,14,73,127,106,15
1491087053455,2,9,17,-59,52,-33,-123,-110,-4
1491087053455,2,-19,-16,-6,35,23,-33,11,-20
1491087053456,3,-11,11,-18,-69,33,73,37,-11
1491087053456,3,13,30,10,-36,-45,11,-21,1
1491087053457,0,6,-4,1,49,99,59,17,18
1491087053457,0,-5,19,42,54,35,29,29,41
1491087053492,1,-44,-18,-94,-89,-128,-128,-127,-68
1491087053492,1,34,-3,-10,-11,-3,-21,1,8
1491087053493,2,6,-3,6,-7,8,36,85,35
1491087053493,2,2,18,35,101,60,39,-14,-9
1491087053494,3,-24,-11,23,-16,-17,-37,80,53
1491087053494,3,-30,-17,-29,-43,-46,54,-56,-57
1491087053495,0,66,20,0,-60,-16,87,67,-4
1491087053495,0,-16,-10,-24,-7,71,-33,79,25
1491087053530,1,9,20,53,113,28,114,19,20
1491087053530,1,24,-22,-50,-55,-7,-35,36,8
1491087053567,2,-22,-9,13,-2,-100,-128,-125,-26
1491087053567,2,27,3,-21,-71,44,85,18,-11
1491087053568,3,-19,-7,1,-90,-48,8,17,14
1491087053568,3,6,12,17,127,92,-67,-15,18
1491087053569,0,-25,-25,-40,-122,-67,-6,23,-45
1491087053569,0,104,1,-13,79,63,19,-56,23
1491087053570,1,-49,-7,-6,12,-5,109,59,0
1491087053570,1,-8,7,29,127,127,-62,-24,-5
1491087053605,2,-48,65,30,-2,25,110,-31,-3
1491087053605,2,-49,-30,65,51,43,84,83,13
1491087053606,3,45,-3,-107,-117,-86,-123,-118,19
1491087053606,3,-16,-7,41,6,-23,92,-33,-49
1491087053606,0,-34,-31,-16,-28,18,19,52,33
1491087053606,0,-16,-2,-24,-38,-120,-46,-58,-29
1491087053607,2,85,18,9,-78,-101,-55,38,27
1491087053607,2,-70,-32,-29,53,99,-16,-91,-62
1491087053642,3,42,-11,-3,66,124,48,-16,30
1491087053642,3,66,68,94,90,-57,-56,29,67
1491087053643,0,-6,-23,-83,-29,127,-6,-51,-55
1491087053643,0,-51,-8,10,-128,-122,-13,16,-12
1491087053644,1,23,-3,-63,-121,-35,-63,-57,-45
1491087053644,1,-25,-11,-1,44,37,112,-56,4
1491087053645,2,-67,-4,57,82,12,69,43,10
1491087053645,2,38,-5,-12,25,-69,-128,-79,-33
1491087053680,3,-90,-9,19,-26,-27,94,56,-63
1491087053680,3,57,-24,-46,-39,6,-93,-3,66
1491087053681,0,43,22,36,27,-40,26,37,4
1491087053681,0,-15,-4,-59,24,56,103,-16,10
1491087053681,1,-4,5,24,39,-30,-128,-32,-61
1491087053681,1,-38,-26,33,-24,-50,127,127,77
1491087053682,2,-3,-25,-75,-27,27,51,-27,-25
1491087053682,2,-5,-2,19,-51,41,-7,-30,-26
1491087053717,3,-10,11,8,28,46,6,-4,-35
1491087053717,3,-61,-5,-3,21,-71,47,36,-41
1491087053718,0,38,-28,-28,42,46,-11,-48,-7
1491087053718,0,-87,36,34,-5,6,39,127,22
1491087053719,1,36,0,18,34,32,-42,-103,40
1491087053719,1,21,-1,-76,-52,-31,-69,33,-79
1491087053720,2,9,37,112,102,55,99,82,86
1491087053720,2,-1,-20,-84,-103,-83,-108,-75,-20
1491087053755,3,-8,5,23,-18,0,-102,41,14
1491087053755,3,-3,-7,14,16,-14,45,-92,-17
1491087053757,0,-29,-5,-17,31,99,4,32,-29
1491087053757,0,80,34,73,64,-35,100,0,30
1491087053758,1,-4,-10,-59,-51,-7,-6,13,34
1491087053758,1,39,-3,7,-18,66,65,-20,-25
1491087053759,2,-35,-7,-21,-34,-98,-80,88,5
1491087053759,2,62,-6,-9,11,35,32,-86,21
1491087053792,3,-35,-9,-12,-16,-94,-48,-37,-85
1491087053792,3,24,8,15,117,127,59,39,40
1491087053794,0,-59,-1,-15,-84,-71,-52,-73,-61
1491087053794,0,23,-20,-8,-57,-91,66,93,6
1491087053794,1,20,14,13,83,50,30,57,80
1491087053794,1,26,18,50,-66,-57,114,14,-5
1491087053795,2,55,-16,-20,127,122,-128,-128,13
1491087053795,2,-66,-11,-45,-23,-25,-68,15,-35
1491087053830,3,-27,-13,6,-75,-64,67,-31,-38
1491087053830,3,47,37,81,48,-75,24,24,76
1491087053831,0,-71,-49,-62,6,49,51,43,-17
1491087053831,0,-28,-20,-52,-89,-102,-91,-116,-61
1491087053832,1,-59,-16,18,85,13,-106,101,-14
1491087053832,1,-2,9,3,-33,47,67,-99,9
1491087053833,2,-52,-15,27,-42,-86,-50,0,-39
1491087053833,2,102,33,7,55,58,67,6,100
1491087053943,3,-88,-10,26,0,-50,-48,36,-2
1491087053943,3,78,8,-7,27,61,52,43,37
1491087053945,0,44,4,18,-20,-73,-71,3,60
1491087053945,0,-20,-14,-29,-69,-61,24,-8,-46
1491087053946,1,16,-2,-27,-25,62,-30,-61,-24
1491087053946,1,-10,17,-1,12,39,5,100,33
1491087053947,2,-88,-11,43,-63,-43,127,-28,-38
1491087053947,2,73,12,-24,27,116,-78,7,41
1491087053980,3,-55,-35,-16,-29,-34,104,69,7
1491087053980,3,-4,-6,-24,-107,-128,-9,-45,-101
1491087053981,0,24,2,-32,-4,-86,-92,-81,-18
1491087053981,0,-35,5,62,16,-37,37,120,10
1491087053981,3,15,29,9,-76,-77,33,-80,-6
1491087053981,3,-102,-43,-85,-120,-74,-128,105,-8
1491087053982,3,57,-10,3,7,11,115,66,55
1491087053982,3,-111,-7,10,-44,-19,-89,-58,-38
1491087054017,0,25,-15,15,121,-9,62,-5,43
1491087054017,0,-51,-10,21,50,59,1,-47,-58
1491087054018,1,30,-27,-66,-119,-37,-128,29,-10
1491087054018,1,-40,-24,-53,-62,-109,-92,-15,0
1491087054019,3,-45,-5,6,61,105,4,-54,-10
1491087054019,3,-52,4,32,-23,-27,21,71,-65
1491087054020,0,-20,4,-21,-17,-27,22,-87,-14
1491087054020,0,-71,-18,-13,-62,-31,33,127,24
1491087054055,1,60,21,31,1,-48,9,-29,-5
1491087054055,1,-10,-21,-44,74,106,47,-87,-61
1491087054055,2,80,16,-1,-128,-103,-124,16,97
1491087054055,2,-66,-16,1,61,65,82,-42,-68
1491087054056,3,35,17,-6,-23,37,1,52,9
1491087054056,3,-48,-6,7,40,48,-21,-47,-26
1491087054057,0,-21,-8,15,-44,52,127,63,-32
1491087054057,0,57,21,-44,10,-45,-107,-5,66
1491087054092,1,-59,5,16,-11,-38,66,-62,-51
1491087054092,1,-2,-22,-33,-20,-63,-17,-38,3
1491087054093,2,-57,15,10,52,127,11,-50,-25
1491087054093,2,-93,-42,-17,-97,-35,31,85,-57
1491087054094,3,-2,23,39,64,-38,112,81,10
1491087054094,3,20,-12,-47,-83,-53,-77,-27,0
1491087054095,0,8,-9,-8,25,21,96,-7,45
1491087054095,0,14,-7,27,52,4,-61,-3,8
1491087054130,1,-72,-29,-29,-12,60,28,-33,-65
1491087054130,1,74,21,-4,79,61,99,114,40
1491087054131,2,21,30,30,-23,-114,-41,-121,37
1491087054131,2,67,29,32,41,127,127,115,50
1491087054131,3,-98,-51,-31,54,42,-69,-11,-29
1491087054131,3,33,8,-22,-115,-105,-32,-98,-32
1491087054132,0,71,13,26,87,63,-84,127,70
1491087054132,0,-26,-12,32,-75,-60,105,-128,-53
1491087054167,1,27,25,7,99,75,-122,-99,-36
1491087054167,1,32,18,28,21,80,71,53,106
1491087054168,2,-9,-39,-64,-5,-14,29,4,-80
1491087054168,2,-26,20,11,-37,108,-14,13,10
1491087054169,3,11,-15,18,-57,-123,-7,108,64
1491087054169,3,-73,-16,-26,112,76,11,-75,-71
1491087054170,0,36,4,28,-97,-3,-92,4,7
1491087054170,0,106,25,-20,84,58,42,53,37
1491087054205,1,92,38,47,-24,-68,47,-16,27
1491087054205,1,-2,9,6,-79,34,-34,57,15
1491087054206,2,-37,-5,-21,91,18,110,57,41
1491087054206,2,-56,-20,-4,-28,42,-117,24,7
1491087054206,3,41,34,-4,-51,-93,32,-50,-50
1491087054206,3,57,1,28,13,71,76,31,80
1491087054207,0,-23,-20,14,-15,-1,-40,0,-39
1491087054207,0,16,15,11,30,76,-46,-88,1
1491087054242,1,-66,-27,-112,-96,-33,-30,86,-71
1491087054242,1,25,15,46,83,97,46,-95,-45
1491087054243,2,41,10,10,-122,-76,60,97,79
1491087054243,2,-121,-28,-30,19,27,-52,48,-99
1491087054244,3,28,4,76,-44,-1,83,33,116
1491087054244,3,57,18,-77,-128,-101,-128,-120,-16
1491087054245,0,-59,-24,-33,45,108,87,17,-71
1491087054245,0,-29,-17,19,24,21,30,-128,-25
1491087054317,1,3,-3,1,87,-15,38,53,30
1491087054317,1,77,15,103,104,50,-15,17,22
1491087054318,2,-6,14,-61,-119,-122,-39,-23,30
1491087054318,2,21,-8,-86,-128,-128,-18,-99,-10
1491087054319,3,-80,-37,0,84,127,-53,-60,-32
1491087054319,3,-22,37,107,79,27,122,76,18
1491087054320,0,88,20,-16,14,-52,-102,-10,10
1491087054320,0,-81,-13,-4,-27,-128,1,-46,-56
1491087054355,1,65,-5,-10,10,30,73,81,82
1491087054355,1,-96,-9,15,-34,-104,80,-89,-82
1491087054356,2,81,17,23,113,127,-93,90,52
1491087054356,2,-17,-23,-11,7,12,127,109,-5
1491087054356,3,-1,1,-26,18,95,-127,-128,-26
1491087054356,3,2,-20,-21,-55,-75,16,57,8
1491087054357,0,-99,4,49,83,82,98,74,-67
1491087054357,0,12,-9,-3,-67,-58,-81,-128,24
1491087054392,1,-9,18,25,-61,-10,-11,26,-59
1491087054392,1,42,-5,-59,-51,-85,-66,36,27
1491087054393,2,-6,-11,-33,-128,-112,-8,-80,-44
1491087054393,2,-9,-1,62,-24,-77,24,15,24
1491087054394,0,-49,48,81,66,-60,-10,-96,-53
1491087054394,0,51,0,-29,-27,36,-20,88,-60
1491087054395,1,-30,7,40,20,46,118,3,38
1491087054395,1,-54,-35,-67,-94,-128,-128,24,-35
1491087054430,2,62,3,-1,-31,59,103,10,79
1491087054430,2,19,25,61,29,70,96,-52,-21
1491087054430,3,-21,31,15,23,75,-105,8,32
1491087054430,3,31,-3,-41,-36,103,75,50,36
1491087054431,0,-41,-51,-24,5,-128,-34,-37,-8
1491087054431,0,-44,-2,-44,1,112,1,72,29
1491087054432,1,85,20,18,40,-19,82,59,38
1491087054432,1,0,-2,17,-41,-34,-41,-26,-10
1491087054467,2,24,20,7,-8,53,27,-44,-34
1491087054467,2,-7,15,15,69,-20,-53,80,74
1491087054468,3,-1,4,90,64,-35,80,-12,1
1491087054468,3,-59,-39,-82,-73,-65,-71,-55,-69
1491087054469,0,25,-8,-36,-93,-40,111,-6,-24
1491087054469,0,28,3,29,74,42,-76,1,30
1491087054505,1,-43,-12,-12,-38,67,54,69,-39
1491087054505,1,-24,40,53,62,54,73,5,-11
1491087054506,2,40,14,-3,-81,-75,-85,36,53
1491087054506,2,-11,-22,-44,23,27,125,-15,-54
1491087054506,3,82,11,53,54,-128,-39,-92,30
1491087054506,3,-64,-3,27,-27,-15,79,61,-15
1491087054507,0,-23,-33,-124,-74,15,-91,10,-17
1491087054507,0,13,5,-2,-59,-47,-122,-14,19
1491087054580,1,-56,-19,-6,26,40,-4,-58,-75
1491087054580,1,89,27,56,38,11,20,-48,50
1491087054583,2,-15,-3,34,50,-8,33,44,18
1491087054583,2,71,-2,-19,56,-26,74,-42,-31
1491087054584,3,-52,-9,-63,-84,32,-112,-13,8
1491087054584,3,-37,-4,73,73,113,47,-23,-29
1491087054584,0,73,26,-30,-15,-6,-25,21,71
1491087054584,0,-27,-9,-17,-23,-100,82,-54,-31
1491087054617,1,-4,-4,-4,-18,38,-43,64,44
1491087054617,1,7,2,-62,-12,-69,-4,-23,-5
1491087054618,2,-68,-12,58,74,70,86,-14,-35
1491087054618,2,35,1,18,-31,-62,-19,15,25
1491087054618,3,3,2,5,53,20,101,60,9
1491087054618,3,-28,-4,29,-13,71,38,71,17
1491087054620,3,31,-15,-5,-57,-81,17,-69,-63
1491087054620,3,29,10,4,33,71,76,69,54
1491087054655,0,-30,2,33,-3,-54,-32,-12,-2
1491087054655,0,3,5,19,-96,-61,112,40,22
1491087054656,1,5,-12,-66,-128,-15,-67,-57,-33
1491087054656,1,-10,-16,-48,-127,-128,-77,-51,-28
1491087054657,2,-6,3,24,-93,56,22,18,4
1491087054657,2,-17,-4,59,43,-10,-26,-22,2
1491087054658,3,-30,-22,-79,8,-44,-20,-5,6
1491087054658,3,7,10,17,91,-65,-29,8,-39
1491087054692,0,-27,0,31,127,46,98,38,16
1491087054692,0,48,0,-48,73,-14,-99,57,-10
1491087054694,1,-17,-12,18,127,32,35,-41,8
1491087054694,1,0,5,13,106,-88,-65,29,28
1491087054694,2,-72,-22,-59,48,-9,0,-55,-68
1491087054694,2,10,-8,-12,92,30,17,-43,-4
1491087054695,3,8,-3,-17,17,-9,34,18,-5
1491087054695,3,8,-1,26,-6,3,26,1,4
1491087054767,0,19,11,74,90,98,97,49,15
1491087054767,0,17,21,7,-88,-49,54,0,37
1491087054769,1,-40,-31,-53,13,94,35,-39,-42
1491087054769,1,3,-7,-24,-113,-27,127,-46,-10
1491087054771,2,-40,-1,-7,-79,-70,76,-33,7
1491087054771,2,-25,1,-17,37,66,126,18,-36
1491087054772,3,0,19,44,10,12,0,37,30
1491087054772,3,24,20,43,-3,116,-112,-39,22
1491087054805,0,-8,-23,-79,-87,-53,-128,-15,1
1491087054805,0,-19,-3,20,-37,-59,-56,-10,-45
1491087054806,1,13,16,9,-57,14,-22,45,14
1491087054806,1,-44,-26,-3,83,8,-110,0,-14
1491087054806,2,72,17,-25,-59,53,-114,-11,30
1491087054806,2,-31,-16,45,-8,-55,-104,-5,7
1491087054807,1,4,-8,-44,-102,44,-15,5,20
1491087054807,1,12,1,-1,26,23,36,37,33
1491087054842,2,-23,7,0,-21,43,68,24,-26
1491087054842,2,-35,-16,-30,-33,-49,-96,-105,-30
1491087054844,3,57,17,92,104,-18,102,-38,-6
1491087054844,3,-5,-2,-37,-12,64,5,95,23
1491087054845,1,4,0,-16,-22,-23,44,-122,-38
1491087054845,1,-20,-11,25,98,96,80,69,-4
1491087054880,2,4,11,53,-2,-3,40,-40,9
1491087054880,2,-6,-9,-23,65,127,31,57,-5
1491087054881,3,62,0,10,-47,-30,26,37,7
1491087054881,3,-5,13,-6,-8,-87,20,-2,9
1491087054883,0,-25,-14,-56,-75,-92,-111,-45,-27
1491087054883,0,-7,-5,16,12,-12,0,-61,-2
1491087054884,1,-34,-6,-18,-27,-86,4,34,-32
1491087054884,1,23,7,25,42,61,21,-19,16
1491087054917,2,-25,-10,-3,60,49,-6,-44,-28
1491087054917,2,25,34,18,19,46,21,92,58
1491087054918,3,-14,-3,36,13,90,66,16,-4
1491087054918,3,-18,2,-13,-90,-75,-3,-72,-37
1491087054955,0,-25,-11,-54,-74,-110,-51,15,0
1491087054955,0,4,-2,60,45,24,87,68,14
1491087054956,1,-34,-24,-107,-128,-128,-128,-62,-34
1491087054956,1,-2,-18,36,51,9,43,-22,-9
1491087054956,2,38,29,16,18,-15,-41,12,26
1491087054956,2,-10,-2,30,12,65,46,-5,-1
1491087054957,3,-31,4,29,100,27,71,91,8
1491087054957,3,38,1,-27,-10,32,-40,-31,0
1491087055030,0,35,18,93,113,83,27,9,-5
1491087055030,0,-62,-12,-58,61,98,71,8,-21
1491087055030,1,-46,-9,-22,-93,-102,-105,-37,-11
1491087055030,1,66,11,-33,-15,-42,36,27,12
1491087055031,2,-52,-3,28,-6,85,99,-5,-46
1491087055031,2,54,9,-38,-67,21,-87,-51,37
1491087055032,0,-19,-35,-60,-41,-73,-92,-75,-30
1491087055032,0,-19,39,22,77,57,23,-13,-35
1491087055105,1,-2,47,-2,72,46,84,37,56
1491087055105,1,21,50,49,42,6,-64,-15,3
1491087055105,2,-30,2,-13,75,74,84,31,15
1491087055105,2,-15,-35,-49,-53,-109,-68,1,-43
1491087055142,0,6,-37,-15,-20,74,114,43,13
1491087055142,0,4,-8,25,2,-123,-87,-123,-40
1491087055143,3,43,-11,-40,-116,-39,-120,-84,8
1491087055143,3,-58,-39,22,-1,18,11,-34,-53
1491087055144,0,-24,-24,-32,33,64,-10,49,28
1491087055144,0,68,7,48,-5,-1,62,-28,14
1491087055144,1,4,2,-32,-19,-29,24,-5,-23
1491087055144,1,-20,-8,-13,-2,-38,-69,-52,24
1491087055180,3,34,-11,-50,-57,-61,-70,-76,5
1491087055180,3,-33,-10,3,35,-5,-63,-26,-36
1491087055181,0,-8,-11,-12,-29,-11,95,54,2
1491087055181,0,-17,2,1,-4,50,80,41,-1
1491087055181,3,-45,6,1,-103,-61,-47,-48,-46
1491087055181,3,90,21,-14,-34,-46,-11,45,60
1491087055182,0,-96,-16,-16,72,-14,-38,-10,-50
1491087055182,0,65,14,12,19,1,-42,-51,46
1491087055218,1,11,13,79,127,125,21,34,17
1491087055218,1,-29,-15,-42,-67,-78,21,61,10
1491087055219,2,29,22,59,37,64,73,93,-5
1491087055219,2,4,-12,-85,-22,27,-128,-128,-24
1491087055219,3,-51,-11,-26,-65,-41,-56,-52,-20
1491087055219,3,33,2,15,-12,29,111,2,0
1491087055255,0,21,4,80,79,54,67,89,83
1491087055255,0,-69,-12,-50,-117,-128,-119,-117,-114
1491087055256,1,-3,-35,-60,-73,37,127,77,-9
1491087055256,1,11,11,13,49,70,39,-70,6
1491087055256,2,54,-23,17,80,86,51,5,-29
1491087055256,2,-10,14,10,-16,-35,-8,21,54
1491087055257,3,-19,3,-4,-58,-38,-43,40,14
1491087055257,3,26,22,43,1,-61,-2,14,55
1491087055292,0,-37,-24,-63,-74,72,-50,-74,-40
1491087055292,0,-35,-7,-33,-69,-79,-14,8,-6
1491087055293,1,6,-20,30,-19,-56,83,22,-23
1491087055293,1,14,1,-14,33,66,-128,14,2
1491087055294,2,-12,14,55,31,15,38,-51,-4
1491087055294,2,-13,-26,-51,90,66,56,87,50
1491087055295,3,-3,21,0,-16,-24,-54,-102,1
1491087055295,3,-13,-19,26,36,-31,87,42,-3
1491087055330,0,-59,-28,-101,-128,-128,-64,52,-20
1491087055330,0,44,33,28,44,-44,21,-22,11
1491087055330,1,-18,-14,32,94,117,33,17,-14
1491087055330,1,-48,22,-8,3,43,-42,18,34
1491087055331,2,41,-5,7,-86,-128,45,-8,-5
1491087055331,2,-27,-27,8,-65,-15,-70,-28,-4
1491087055332,3,70,37,-16,73,37,-24,-12,-15
1491087055332,3,-38,2,13,27,23,119,70,-15
1491087055367,0,-4,-2,-40,-111,-58,-57,-82,11
1491087055367,0,7,-16,50,37,18,127,59,-10
1491087055368,1,12,8,-19,-72,-78,-100,-105,-46
1491087055368,1,22,-11,-14,7,-25,57,-10,-4
1491087055369,2,-57,-3,8,119,82,70,74,0
1491087055369,2,23,23,42,78,55,95,71,37
1491087055370,3,-25,-41,-68,-84,-27,-9,-12,-1
1491087055370,3,77,36,-4,9,32,43,-107,-19
1491087055405,0,13,7,11,27,-58,1,32,52
1491087055405,0,18,-3,54,1,-43,108,-4,-36
1491087055405,1,1,35,-21,72,116,69,125,51
1491087055405,1,-13,-25,-42,-103,-120,-128,-72,-35
1491087055406,2,52,-10,-2,30,80,-13,-29,7
1491087055406,2,15,14,11,1,-106,19,16,11
1491087055407,3,-48,-20,-3,-25,105,-1,24,22
1491087055407,3,43,-11,3,-19,-118,-45,-82,-30
1491087055442,0,-57,-4,-53,-81,2,-128,-75,-50
1491087055442,0,68,11,0,15,18,44,-60,-27
1491087055443,1,-53,-18,36,60,36,127,81,-13
1491087055443,1,-4,34,23,29,117,-54,82,69
1491087055443,2,-21,-15,34,69,-1,20,19,-43
1491087055443,2,4,35,-46,-72,-19,-115,22,55
1491087055445,3,83,-3,-32,-42,-97,-11,-67,20
1491087055445,3,1,-8,18,-75,-49,74,32,-12
1491087055555,0,-87,-29,-24,75,45,57,51,-35
1491087055555,0,54,22,6,28,14,-112,-4,45
1491087055555,1,-19,-1,63,35,-59,5,-52,-37
1491087055555,1,-102,-35,-62,-99,-82,-66,4,-36
1491087055556,2,74,59,51,31,36,26,-21,21
1491087055556,2,-48,-47,-48,-18,127,118,62,-5
1491087055557,3,-45,-5,-18,-44,-50,-89,-60,-56
1491087055557,3,70,17,7,80,59,121,65,25
1491087055592,0,28,-10,11,35,44,52,88,42
1491087055592,0,-59,-21,-41,-57,-90,-96,-105,-101
1491087055593,1,15,3,-8,-69,-74,97,67,47
1491087055593,1,-54,-3,18,26,13,36,31,33
1491087055593,2,-4,-12,-31,-34,-57,-24,-48,-18
1491087055593,2,-39,3,18,14,105,48,39,20
1491087055595,0,-100,-39,-56,-7,77,-5,26,-9
1491087055595,0,16,-6,17,80,4,45,-82,-91
1491087055630,1,-8,25,22,22,-83,62,106,43
1491087055630,1,13,-26,-25,-112,-82,-42,-34,-6
1491087055630,2,45,8,13,16,-51,-54,-75,-2
1491087055630,2,-72,-32,-4,-67,-45,57,25,3
1491087055631,0,51,45,83,92,62,-45,-77,10
1491087055631,0,-62,-37,-22,-88,-101,4,14,-13
1491087055632,1,8,-15,-54,-110,-105,-84,4,5
1491087055632,1,-5,1,-19,23,57,105,23,-13
1491087055667,2,73,44,61,27,38,85,63,79
1491087055667,2,7,0,10,98,72,14,0,-9
1491087055705,3,-11,19,33,64,4,-27,-49,-10
1491087055705,3,45,-4,-2,-31,25,21,79,37
1491087055709,0,-37,-32,-48,-45,-75,-16,44,-26
1491087055709,0,-14,20,10,1,41,-40,-107,-29
1491087055742,1,41,12,20,18,42,127,74,27
1491087055742,1,-34,-8,9,28,-62,-100,89,34
1491087055743,2,44,17,5,3,83,127,-73,-26
1491087055743,2,-99,-25,2,-55,-128,-119,-5,16
1491087055743,3,-33,-46,-90,-25,58,127,61,-64
1491087055743,3,13,30,32,-42,-69,-91,-68,33
1491087055745,0,-28,-9,-24,-56,-3,80,-75,-8
1491087055745,0,-17,-10,-7,72,41,23,17,-18
1491087055780,1,34,43,68,55,76,55,25,48
1491087055780,1,-39,-24,39,-53,-44,80,-28,-25
1491087055780,3,-41,-14,-3,-37,-103,26,-48,-11
1491087055780,3,2,15,44,91,87,-24,-79,-10
1491087055817,2,-7,-23,14,-41,-60,60,-128,-32
1491087055817,2,79,34,-5,53,36,-48,127,100
1491087055818,3,-106,-1,38,-31,-36,-34,-109,-118
1491087055818,3,111,15,-44,12,78,16,-16,47
1491087055818,0,-127,-11,6,15,53,-125,118,-27
1491087055818,0,78,-16,25,-14,-39,50,-33,9
1491087055820,1,7,9,1,6,44,19,38,0
1491087055820,1,19,5,-27,-4,54,-23,72,29
1491087055855,2,-61,-4,36,74,32,89,-66,-69
1491087055855,2,60,-3,-34,-92,-51,-99,-24,64
1491087055855,3,58,7,20,9,59,89,114,34
1491087055855,3,-128,-17,8,33,-17,23,-2,-33
1491087055856,0,122,24,-24,18,66,-110,-80,-2
1491087055856,0,-85,14,38,88,91,127,91,-16
1491087055892,2,69,36,-4,-57,-36,97,127,107
1491087055892,2,-127,-20,75,-9,-14,-101,-128,-109
1491087055893,3,0,-22,-17,84,48,-47,113,37
1491087055893,3,-29,-41,-71,-119,-82,-39,-107,-93
1491087055893,0,-90,-11,-22,-13,-128,-51,39,-41
1491087055893,0,71,40,22,68,115,48,-55,51
1491087055895,2,-19,-7,75,-97,-92,8,-67,-75
1491087055895,2,-67,-22,-89,-31,17,-76,-37,-40
1491087055930,3,-94,-15,-1,-89,-50,16,4,-32
1491087055930,3,63,-15,-34,46,59,-48,-59,-10
1491087055930,0,42,38,-19,-29,-128,114,119,85
1491087055930,0,-29,-9,2,-87,-103,-34,101,23
1491087055931,1,42,-10,20,127,125,-11,-128,-68
1491087055931,1,-17,-2,19,-24,-70,39,104,5
1491087055967,2,-42,-28,-62,-12,80,33,44,14
1491087055967,2,127,43,38,30,88,-25,-47,37
1491087055968,3,-60,-38,-44,-119,-106,31,22,-57
1491087055968,3,-90,6,7,73,44,97,23,-18
1491087055969,0,-45,-6,60,72,8,62,96,38
1491087055969,0,-47,-29,-44,52,68,19,21,-24
1491087055970,1,118,9,-81,-128,-128,-120,43,28
1491087055970,1,-71,6,63,32,66,71,-81,-60
1491087056005,2,16,-10,-30,41,-14,-27,-42,44
1491087056005,2,3,-10,26,-10,7,38,22,-25
1491087056005,3,46,21,20,102,82,83,23,58
1491087056005,3,-66,-9,-21,-4,-29,3,-35,-45
1491087056006,0,90,0,5,5,66,24,-49,11
1491087056006,0,-33,-26,-66,-68,14,-47,73,26
1491087056007,1,-41,-1,22,-11,-23,-43,40,-32
1491087056007,1,87,30,5,59,-27,97,-30,48
1491087056042,2,26,10,31,-93,-65,-128,-21,-17
1491087056042,2,53,-8,-16,97,36,69,-35,5
1491087056043,3,11,26,33,65,127,65,48,-15
1491087056043,3,66,10,-5,-91,20,11,82,73
1491087056080,1,-128,-87,-47,116,79,-74,14,43
1491087056080,1,-9,1,26,-3,-104,-104,-82,-68
1491087056081,2,17,13,-38,42,100,-55,-45,46
1491087056081,2,-15,23,93,101,112,127,127,-4
1491087056081,3,-48,-23,10,12,-61,36,-128,-3
1491087056081,3,39,-3,-9,-42,103,89,109,3
1491087056082,0,-28,-31,-40,-22,-62,6,-90,-24
1491087056082,0,-93,-24,-54,-20,24,-54,55,-65
1491087056155,1,75,55,72,69,56,98,25,89
1491087056155,1,1,-19,23,71,30,-87,-93,21
1491087056156,2,-35,90,32,-24,124,127,91,52
1491087056156,2,-16,5,46,82,-37,-52,-35,-28
1491087056156,3,24,0,3,-56,-89,-2,2,53
1491087056156,3,-58,-10,-59,-92,-83,36,-82,-116
1491087056157,0,20,-50,-29,86,116,-67,-15,9
1491087056157,0,80,23,3,-102,-128,62,70,66
1491087056192,1,-65,16,28,-20,-31,47,-38,-32
1491087056192,1,85,30,21,78,107,64,-102,-29
1491087056193,2,-83,-9,75,54,33,118,78,-48
1491087056193,2,39,-7,-38,-23,-74,-88,-28,40
1491087056194,0,-38,-24,-72,-62,-90,-28,71,-70
1491087056194,0,28,35,66,56,42,39,127,81
1491087056230,0,33,-34,-49,-63,-111,-44,-94,-114
1491087056230,0,-29,-13,-1,-6,22,98,95,47
1491087056231,1,25,-4,-9,-50,-69,46,-8,11
1491087056231,1,21,23,31,-7,-20,-69,-31,2
1491087056231,2,-50,2,43,81,20,36,106,-52
1491087056231,2,-45,-22,-17,-38,-6,-80,-128,-49
1491087056232,3,-2,12,-28,2,115,99,44,37
1491087056232,3,44,-6,20,32,25,73,100,29
1491087056268,0,21,-29,-52,-113,-128,-95,-119,-7
1491087056268,0,-50,39,27,49,14,108,91,-44
1491087056269,1,-35,-5,7,-47,-77,-110,34,21
1491087056269,1,41,-12,-48,-28,-56,-47,-82,-26
1491087056269,2,-32,3,42,35,127,72,-8,29
1491087056269,2,5,-9,-3,54,61,100,22,10
1491087056305,3,-27,-11,14,-1,4,-39,12,-39
1491087056305,3,-73,24,78,113,107,66,22,38
1491087056306,0,17,-11,-43,-91,-108,-125,-46,-11
1491087056306,0,3,-6,11,-72,-73,26,-22,-24
1491087056307,1,-1,12,14,66,40,47,84,16
1491087056307,1,-16,-48,-112,-105,-97,-73,-108,-88
1491087056308,3,-26,19,24,-22,-24,127,-30,-64
1491087056308,3,39,51,-20,-16,-4,-105,45,112
1491087056342,0,19,0,-22,-72,-56,80,31,-26
1491087056342,0,-73,-11,48,-2,-2,21,-47,-24
1491087056343,1,41,-7,-5,39,-1,-70,4,25
1491087056343,1,25,12,39,105,127,126,33,-4
1491087056344,2,-28,-19,-49,-34,-40,-45,-15,-27
1491087056344,2,47,17,-8,-11,1,-34,-36,59
1491087056345,3,4,3,8,3,-26,26,68,6
1491087056345,3,-44,3,17,18,-50,5,-56,-26
1491087056380,0,-18,1,46,96,63,-11,69,37
1491087056380,0,15,-12,-63,19,37,15,55,15
1491087056380,1,-16,-9,-11,-1,63,-104,-78,-15
1491087056380,1,6,16,50,44,79,21,-21,-26
1491087056417,2,21,-4,-23,-2,-34,32,-9,14
1491087056417,2,-41,-2,-7,-49,24,56,-11,8
1491087056418,3,-27,-6,-17,24,-85,-111,-17,-17
1491087056418,3,7,-9,70,47,81,40,-17,-11
1491087056419,0,-50,-19,-55,-62,50,-29,19,-36
1491087056419,0,41,7,-40,-49,-80,-71,-61,22
1491087056420,1,-42,-33,6,-42,13,69,5,10
1491087056420,1,69,29,-9,-55,-102,-13,48,15
1491087056455,2,-17,21,56,57,28,39,16,25
1491087056455,2,-22,-17,-2,17,22,-102,-25,-17
1491087056455,3,-57,-20,-20,-32,-3,18,-49,-43
1491087056455,3,26,-17,-39,-56,-35,19,104,12
1491087056456,0,56,49,61,20,9,18,-9,38
1491087056456,0,13,-11,-34,-30,-27,-20,-20,20
1491087056457,2,4,-9,-12,-15,-16,101,-39,-6
1491087056457,2,-33,4,66,37,28,8,-1,-31
1491087056492,3,118,19,-9,-19,-27,-80,23,54
1491087056492,3,-57,-22,-30,-56,-75,-128,-41,-13
1491087056493,0,-7,3,12,32,26,-98,-7,-20
1491087056493,0,1,8,-2,35,11,-121,-6,1
1491087056494,2,-10,-1,-3,17,-27,-62,-33,21
1491087056494,2,9,-15,-6,4,1,-93,31,-8
1491087056495,3,14,10,-12,-21,-18,-67,-29,8
1491087056495,3,-48,-19,-12,14,-13,-35,-14,-20
1491087056530,0,-1,-6,-8,-6,24,-27,-19,-15
1491087056530,0,15,-7,18,16,23,21,-6,10
1491087056531,1,18,35,68,15,-57,65,45,31
1491087056531,1,-14,-9,-34,31,51,-11,-40,-22
1491087056531,2,-11,-27,-89,-93,-71,26,62,0
1491087056531,2,-28,6,-31,-68,-80,-102,-97,-27
1491087056605,3,-1,-7,-42,28,22,77,-9,2
1491087056605,3,-2,16,43,2,-13,36,5,-1
1491087056606,0,-14,0,75,127,111,112,63,16
1491087056606,0,21,3,44,67,64,-26,-17,4
1491087056607,1,8,5,-61,-115,-12,-80,13,2
1491087056607,1,-22,-1,-5,-95,-106,-56,13,-6
1491087056608,2,-8,-5,5,68,98,-51,-64,-36
1491087056608,2,10,15,9,43,25,72,60,20
1491087056642,3,22,32,27,83,89,48,-7,3
1491087056642,3,-26,21,9,3,69,109,22,25
1491087056644,0,22,14,-35,-106,-109,-92,-70,-43
1491087056644,0,14,-8,-6,-40,12,75,7,-2
1491087056645,1,54,25,26,57,41,37,22,17
1491087056645,1,9,-10,-50,7,-52,43,-1,13
1491087056646,0,-21,-8,-23,79,76,-64,1,5
1491087056646,0,44,12,-10,-86,-80,-58,-42,-12
1491087056680,1,-35,-26,71,127,55,60,46,19
1491087056680,1,87,23,-45,-75,8,-20,6,6
1491087056681,2,-53,-13,-21,-17,-17,20,24,11
1491087056681,2,-31,2,22,-1,22,-31,-40,-17
1491087056681,0,33,-13,8,-1,-1,1,-6,13
1491087056681,0,15,54,-24,-16,5,5,29,32
1491087056682,1,5,-17,-16,-35,-109,-79,-77,-32
1491087056682,1,-77,-23,-59,-15,-4,-15,-54,-44
1491087056717,2,38,5,15,8,36,40,21,15
1491087056717,2,-27,-8,16,21,28,50,78,19
1491087056719,3,34,6,-51,-77,-14,11,-6,19
1491087056719,3,-52,-13,32,9,-67,-52,6,-4
1491087056720,0,20,-14,-10,2,20,0,-69,-11
1491087056720,0,-56,-10,32,-7,-25,-5,15,-26
1491087056720,1,-8,8,8,104,127,83,8,3
1491087056720,1,33,-29,-14,-52,-23,-33,-14,-17
1491087056755,2,-5,22,40,-26,-80,-2,6,8
1491087056755,2,-40,-56,-30,26,-44,-14,19,-17
1491087056756,3,92,-9,7,25,3,10,5,47
1491087056756,3,-59,-46,21,22,57,15,-22,1
1491087056757,0,38,-8,14,-30,3,87,12,-10
1491087056757,0,-7,-17,-71,-50,0,-9,-74,-11
1491087056757,1,21,19,-17,-51,-37,-76,7,-1
1491087056757,1,-24,1,5,8,-24,-9,-5,3
1491087056792,2,-13,-9,25,71,34,56,20,12
1491087056792,2,3,0,26,-38,-21,-4,8,-2
1491087056793,3,-28,-54,-44,-25,-39,49,-22,-5
1491087056793,3,2,14,-14,-4,0,-61,-13,8
1491087056794,0,-23,8,6,31,-11,-48,19,-22
1491087056794,0,-26,-16,-39,0,12,75,14,-7
1491087056795,1,4,-15,21,-33,-84,-49,-26,-17
1491087056795,1,55,20,2,0,41,27,54,31
1491087056830,2,13,-8,-6,11,-21,-5,-40,23
1491087056830,2,10,-5,21,0,-14,35,35,-3
1491087056831,3,0,-20,11,40,42,24,36,-13
1491087056831,3,-28,-25,-13,-17,-17,-15,-45,-30
1491087056831,0,32,19,-9,-10,-4,-4,12,38
1491087056831,0,-27,-22,-37,9,-13,-21,-18,-17
1491087056832,1,28,7,-23,-66,-24,23,-10,18
1491087056832,1,-59,-31,34,28,46,20,1,-43
1491087056942,2,-4,3,8,35,15,36,24,-25
1491087056942,2,-5,55,15,-34,-15,-32,-20,39
1491087056943,3,7,23,-21,3,-15,-16,-43,-10
1491087056943,3,-17,22,-9,-14,-36,18,-46,-13
1491087056980,0,-27,-5,-19,-45,-24,-119,40,-2
1491087056980,0,34,22,6,0,-67,31,8,-11
1491087056980,1,-17,-6,53,77,67,21,-33,-4
1491087056980,1,-10,-2,-49,-82,-10,-10,9,-15
1491087056981,2,19,-2,20,-18,-18,20,-18,22
1491087056981,2,22,-21,-17,59,42,-38,3,-20
1491087056982,3,13,-2,33,-7,-44,70,40,22
1491087056982,3,26,-8,-48,-61,-73,-48,12,23
1491087057017,0,-21,-20,0,4,45,69,8,8
1491087057017,0,37,-35,6,6,-2,-17,-22,12
1491087057018,2,-74,-18,7,50,37,-3,66,-2
1491087057018,2,58,25,-27,-44,-79,25,-3,-1
1491087057018,3,2,11,-3,-9,62,92,64,23
1491087057018,3,-71,15,36,78,71,65,-67,-84
1491087057020,2,-2,-6,-71,-98,-91,-83,-42,-12
1491087057020,2,-9,8,-13,-46,-5,-13,16,-19
1491087057055,3,-59,-6,22,-26,-33,25,-10,-28
1491087057055,3,-4,-7,-57,23,-104,31,-23,5
1491087057056,0,-26,1,29,29,-81,-53,-81,-68
1491087057056,0,72,24,84,39,70,103,6,51
1491087057057,2,-57,-16,23,-48,-54,83,-40,-18
1491087057057,2,44,25,-66,24,112,-58,-21,34
1491087057058,3,-28,-12,-7,-14,-9,-27,-50,-31
1491087057058,3,-69,-9,45,60,-61,-47,71,0
1491087057130,0,75,17,16,26,80,121,44,10
1491087057130,0,-90,-21,-3,-14,23,-79,41,-24
1491087057131,1,45,20,59,127,36,109,-44,-1
1491087057131,1,-35,-31,-97,-128,-10,-128,-51,12
1491087057131,2,28,0,31,44,48,83,71,-12
1491087057131,2,-28,15,49,78,-22,127,56,36
1491087057132,3,55,11,-51,-26,-2,-85,19,-7
1491087057132,3,-20,-12,90,126,82,90,-56,-22
1491087057167,0,-15,-11,-104,-15,15,-117,-13,-4
1491087057167,0,56,40,58,36,17,52,18,15
1491087057205,1,-37,-24,-20,-128,-128,-128,85,30
1491087057205,1,15,11,-21,-24,67,-71,-46,3
1491087057205,2,17,-3,21,-11,-70,25,-37,19
1491087057205,2,38,-22,-35,30,78,51,-71,-39
1491087057206,1,44,15,58,117,74,16,-18,33
1491087057206,1,-37,12,-95,-112,-85,-54,-61,-12
1491087057207,2,35,-3,3,-19,17,127,70,-61
1491087057207,2,-73,-12,8,-55,-75,86,74,-36
1491087057242,3,31,-5,-39,-72,-6,-74,12,85
1491087057242,3,10,2,8,4,-71,90,-11,-50
1491087057243,1,24,-14,-33,69,61,-85,23,-9
1491087057243,1,-25,4,-1,1,30,5,-40,-6
1491087057244,2,-41,-28,36,80,-41,92,65,5
1491087057244,2,-19,6,-39,-40,99,-116,-11,-14
1491087057246,0,-20,7,51,120,127,87,29,27
1491087057246,0,65,35,-23,-99,-73,10,2,47
1491087057281,1,-69,-41,-37,-82,-128,-50,-51,-90
1491087057281,1,5,44,73,65,106,127,1,75
1491087057282,2,2,-6,0,0,26,-128,31,41
1491087057282,2,-9,-5,0,-34,-114,98,-39,7
1491087057283,0,9,9,29,56,-60,109,10,-23
1491087057283,0,48,20,15,-43,90,-75,80,63
1491087057283,1,-8,-2,-32,97,109,6,-74,-33
1491087057283,1,39,-3,14,78,-8,76,2,-9
1491087057317,2,-27,-5,-18,-128,-118,-24,-2,15
1491087057317,2,-99,-41,-16,106,68,35,-51,-76
1491087057318,3,102,21,35,-27,-43,44,25,-28
1491087057318,3,-10,32,18,37,-25,41,92,85
1491087057321,0,11,23,-9,1,98,-73,11,32
1491087057321,0,-56,-35,-62,-128,-128,-84,-54,-81
1491087057321,1,-72,22,51,19,-21,127,11,-11
1491087057321,1,39,-11,28,118,86,-86,77,60
1491087057355,2,-45,4,-91,-128,-116,-16,-109,-90
1491087057355,2,27,-20,44,118,91,73,-42,23
1491087057356,3,63,14,60,44,-77,106,-51,23
1491087057356,3,-84,-16,-73,-116,-128,-48,47,-32
1491087057356,0,73,-6,-15,-4,63,60,39,11
1491087057356,0,-48,-23,-42,-28,-128,-48,1,-31
1491087057357,1,26,38,0,21,114,127,86,53
1491087057357,1,-4,14,63,63,98,-31,-118,-53
1491087057392,2,35,-4,27,5,-27,5,72,77
1491087057392,2,30,-4,-53,-35,86,74,22,-20
1491087057393,3,43,-17,18,-51,-106,-25,-58,24
1491087057393,3,-71,-26,-84,-108,14,59,121,-25
1491087057394,0,-37,0,8,18,17,64,-35,22
1491087057394,0,76,7,81,81,-105,-19,-18,-14
1491087057394,1,-107,2,-79,-98,-18,-63,-45,-43
1491087057394,1,87,-9,-24,-13,-47,-47,-45,21
1491087057430,2,-70,25,26,48,68,18,-21,-47
1491087057430,2,38,-4,-9,39,46,-6,29,44
1491087057430,3,-49,-7,59,64,-8,33,127,54
1491087057430,3,29,24,30,50,24,-70,-8,-5
1491087057431,0,12,-25,-41,-31,-35,10,-82,-67
1491087057431,0,-18,19,50,6,14,62,65,15
1491087057432,1,-46,-12,-23,25,-23,-128,42,3
1491087057432,1,76,-15,-12,-11,17,101,-13,12
1491087057467,2,-49,-22,-26,-77,-100,23,46,-2
1491087057467,2,45,29,-27,-75,38,-128,-115,-13
1491087057469,3,-26,-17,30,30,67,127,55,-25
1491087057469,3,-48,-18,-10,-63,-93,48,-10,-12
1491087057469,0,72,22,-11,-2,-14,-48,25,19
1491087057469,0,-26,11,10,14,-21,-72,18,49
1491087057470,1,114,-15,-46,-26,23,25,-10,39
1491087057470,1,-113,-7,77,75,8,-18,-70,-93
1491087057505,2,-14,26,7,127,127,-25,41,44
1491087057505,2,55,-18,-84,-128,-128,-4,101,13
1491087057506,3,-52,-12,-2,-26,17,-114,-69,-62
1491087057506,3,18,-37,-22,37,93,57,-19,-6
1491087057506,0,16,-23,-24,-94,-112,-28,-8,-32
1491087057506,0,-37,36,63,108,111,68,43,28
1491087057507,1,29,2,-52,-96,13,-25,9,21
1491087057507,1,-14,1,19,-97,-128,35,65,-15
1491087057542,2,-35,-38,10,20,2,76,26,-42
1491087057542,2,20,1,-1,90,72,-53,-69,37
1491087057544,3,-42,18,17,-53,-108,83,86,-33
1491087057544,3,-49,12,30,14,-30,37,1,53
1491087057545,0,-47,-42,-83,-81,-42,-93,65,5
1491087057545,0,-3,49,1,-13,14,22,-84,-51
1491087057545,1,-33,-20,23,42,-37,83,-12,15
1491087057545,1,14,19,75,97,83,127,117,45
1491087057580,2,-24,28,11,127,113,-35,-128,-23
1491087057580,2,-16,-29,-49,-128,-128,6,78,-16
1491087057581,3,11,-3,-54,-50,-49,-90,-24,0
1491087057581,3,-57,-2,-6,19,-4,-21,-97,-66
1491087057581,0,95,-9,25,-18,14,87,23,31
1491087057581,0,-80,-14,0,31,-52,5,110,22
1491087057582,1,-8,17,25,60,88,52,-80,-24
1491087057582,1,40,6,21,-33,-50,-24,34,35
1491087057618,2,-20,-31,-35,24,106,65,45,8
1491087057618,2,-95,-53,-31,-90,-54,-10,-92,-107
1491087057620,3,47,3,-41,-52,-61,120,127,76
1491087057620,3,-26,11,-20,-115,-64,-128,47,-22
1491087057620,0,-46,-13,-33,-107,-127,-8,-65,-47
1491087057620,0,52,1,5,-5,96,127,24,23
1491087057655,1,-3,5,59,120,113,35,-33,-22
1491087057655,1,61,24,-15,-36,127,-3,41,33
1491087057655,2,42,42,10,-13,-73,-81,-51,16
1491087057655,2,-57,-44,44,-16,-21,74,-64,-36
1491087057656,3,59,50,26,105,118,-128,13,55
1491087057656,3,26,-23,-71,-76,-91,-14,-95,-23
1491087057692,0,-38,-11,-2,-40,-127,-39,-18,-7
1491087057692,0,82,15,-13,37,83,35,-16,43
1491087057693,1,9,-10,0,-20,19,-37,-54,-20
1491087057693,1,-6,-4,11,51,-112,96,-53,13
1491087057694,2,42,15,28,85,125,59,26,-28
1491087057694,2,-9,7,10,-12,43,-48,-34,-20
1491087057695,3,-34,-34,-105,-124,-94,-24,-25,9
1491087057695,3,51,30,87,66,33,27,85,15
1491087057767,0,-105,-22,-27,-56,-69,-28,-128,-77
1491087057767,0,43,2,10,91,31,103,20,-18
1491087057805,1,77,22,24,52,92,-124,22,52
1491087057805,1,-40,-32,-48,-77,-100,19,-128,-37
1491087057806,2,56,20,27,-56,-70,127,127,60
1491087057806,2,-39,-7,-40,-39,-72,-68,-81,-48
1491087057807,3,-38,-17,68,81,72,-31,57,9
1491087057807,3,4,-14,-35,-50,-102,127,74,29
1491087057808,0,-60,-22,-67,52,115,-89,-93,3
1491087057808,0,42,74,47,83,30,-45,111,21
1491087057842,1,-87,-6,39,-86,-103,127,-67,-38
1491087057842,1,-23,-19,-24,80,127,-54,42,-1
1491087057843,2,36,21,39,-73,-100,-75,43,7
1491087057843,2,17,14,35,16,-29,48,62,124
1491087057844,0,-27,-38,-24,-47,-34,-106,-128,-33
1491087057844,0,-35,-17,24,46,110,60,-86,-85
1491087057845,0,58,25,66,76,-50,-17,1,106
1491087057845,0,-35,-27,-18,-67,-110,62,3,-35
1491087057880,1,-12,30,-6,-109,2,-76,-2,-42
1491087057880,1,76,5,-26,53,18,-47,91,74
1491087057881,2,-72,-22,17,107,69,127,-43,-57
1491087057881,2,84,14,-44,-89,-128,-119,-21,81
1491087057882,0,6,-24,-21,-44,-23,-5,72,12
1491087057882,0,18,-41,-13,11,-74,-47,0,15
1491087057883,1,-39,30,-8,-33,-20,54,-38,-32
1491087057883,1,-39,-33,-38,-43,31,-1,53,73
1491087057917,2,28,11,15,-58,-30,-52,-76,-22
1491087057917,2,-24,-6,16,20,16,101,122,-21
1491087057918,3,18,-31,-13,9,-44,-117,-58,-14
1491087057918,3,8,-19,-29,26,51,54,-14,-16
1491087057919,0,-35,10,-16,-22,-51,4,-27,-15
1491087057919,0,-27,0,24,2,9,-113,-72,22
1491087057920,1,-43,14,49,-12,-125,102,55,-7
1491087057920,1,84,-22,-108,-128,-29,-39,-57,-46
1491087057955,2,12,28,61,32,34,-4,86,71
1491087057955,2,-45,5,-18,73,12,7,-31,-96
1491087057957,3,55,-1,-2,-68,-48,-43,3,52
1491087057957,3,-21,-22,48,116,23,63,53,14
1491087057958,0,-49,-33,19,116,2,1,98,-24
1491087057958,0,69,59,-27,-128,32,-18,-51,-66
1491087057959,1,24,-36,2,-58,-86,108,53,47
1491087057959,1,-30,-8,-17,-10,13,-124,-6,-13
1491087057992,2,47,4,-8,-73,30,-34,-52,19
1491087057992,2,-98,-9,48,81,58,91,14,-38
1491087057994,3,68,10,47,127,127,55,32,36
1491087057994,3,-24,-4,-46,-107,-128,-128,23,-6
1491087058067,0,-21,-14,-48,0,23,4,-99,-63
1491087058067,0,-58,2,38,-128,-107,55,68,-28
1491087058068,1,69,5,-82,-65,8,-99,-55,3
1491087058068,1,24,5,73,15,-29,106,7,70
1491087058069,2,-76,-1,3,-26,11,76,101,8
1491087058069,2,57,14,-3,122,91,-78,-128,-18
1491087058069,3,-5,-14,11,29,48,-38,-5,-2
1491087058069,3,17,13,3,32,-52,-32,-63,-3
1491087058105,0,27,-2,-12,-66,-23,11,-30,-13
1491087058105,0,-24,-2,57,59,-16,45,-3,45
1491087058106,1,-47,-4,-55,-48,-21,-38,20,-16
1491087058106,1,-12,-24,-48,-106,-50,-128,-108,-72
1491087058142,3,95,15,2,-43,-91,50,-17,-7
1491087058142,3,-102,10,74,66,-22,-58,-45,16
1491087058143,2,-38,2,15,76,41,-24,-7,-21
1491087058143,2,70,-15,-45,-72,-32,28,11,21
1491087058144,3,-21,4,42,-28,-121,90,51,4
1491087058144,3,58,11,26,58,120,-38,-53,38
1491087058145,0,-29,-8,-16,14,26,-13,23,-29
1491087058145,0,-15,-18,26,30,-65,33,17,-2
1491087058180,2,-35,4,35,-31,-105,4,9,-32
1491087058180,2,67,-16,-20,17,-58,60,-31,-2
1491087058181,3,-20,18,-24,1,19,-71,-84,-12
1491087058181,3,35,-5,14,-12,-34,127,64,-10
1491087058182,0,42,25,8,43,58,0,33,48
1491087058182,0,-39,-15,56,65,93,83,3,-40
1491087058182,2,-41,-16,-17,-30,-94,-97,-109,-66
1491087058182,2,48,-8,-15,-5,77,-25,20,44
1491087058292,3,15,21,27,51,50,15,-7,-9
1491087058292,3,5,4,49,42,-46,22,36,14
1491087058294,0,45,65,122,113,111,74,102,46
1491087058294,0,-54,-45,-124,-91,75,-73,-63,-35
1491087058295,2,13,-6,-13,31,-1,-55,14,-19
1491087058295,2,14,7,-1,4,-21,-104,-85,12
1491087058296,3,-17,1,9,-18,-64,37,44,5
1491087058296,3,-37,-8,4,-68,-42,-3,17,-28
1491087058330,0,33,-15,-28,14,71,17,-19,-7
1491087058330,0,27,16,-31,-34,-27,22,26,21
1491087058331,1,-20,-14,15,-34,-6,-36,-16,1
1491087058331,1,-31,1,-18,18,-26,31,11,-2
1491087058331,2,-4,0,32,-6,95,121,24,-5
1491087058331,2,-6,-9,-62,-120,-128,-95,-9,-8
1491087058332,1,3,12,24,82,127,-111,-55,4
1491087058332,1,28,10,-52,-40,-2,-15,-32,-32
1491087058405,2,-18,-7,38,11,-73,-124,-47,-8
1491087058405,2,2,-1,4,55,70,38,54,29
1491087058406,3,-10,-3,42,48,30,70,52,13
1491087058406,3,-17,4,-11,-12,57,38,1,-16
1491087058406,1,11,-8,20,72,44,77,19,7
1491087058406,1,42,4,36,86,72,56,21,20
1491087058407,2,-27,-15,5,42,47,61,41,24
1491087058407,2,3,2,-5,10,-46,-74,-79,-18
1491087058442,3,-8,-6,2,66,45,81,-23,-3
1491087058442,3,-4,-10,22,-49,-64,-56,17,-20
1491087058443,0,-16,-25,-39,-41,-68,73,-6,-12
1491087058443,0,1,-1,-4,-28,-12,-112,7,22
1491087058444,0,-26,13,42,107,125,121,41,-9
1491087058444,0,68,-5,-3,-26,-13,27,21,35
1491087058444,1,-55,10,-67,-32,6,-109,-73,-51
1491087058444,1,-37,-5,12,-29,-44,-44,-51,-7
1491087058480,2,27,-10,-34,21,-13,-38,29,-7
1491087058480,2,-22,-5,54,-6,14,127,33,7
1491087058481,3,33,-5,-17,60,33,13,12,18
1491087058481,3,-35,-11,-27,-46,-22,-24,-33,-22
1491087058481,0,30,-1,-17,-30,-79,-25,-60,-7
1491087058481,0,-2,24,32,-49,-32,-36,24,0
1491087058482,1,-1,-6,-14,-24,-4,36,21,0
1491087058482,1,7,-12,-7,41,71,29,40,14
1491087058517,2,-29,2,84,47,101,7,-45,-28
1491087058517,2,1,5,-13,34,-39,-47,-8,0
1491087058518,3,-3,-16,-71,-118,-82,-56,-41,21
1491087058518,3,-31,-10,21,-3,-71,0,-16,-51
1491087058519,0,-1,-28,-71,-18,18,-15,-41,-13
1491087058519,0,12,51,93,114,127,91,56,49
1491087058519,1,-81,-38,-80,-10,-15,8,29,-21
1491087058519,1,75,39,-20,-33,-12,-18,42,26
1491087058592,2,14,-5,-6,-1,-18,-4,50,53
1491087058592,2,-44,-14,8,18,18,-18,-47,-42
1491087058630,3,35,8,32,-44,-4,20,-12,2
1491087058630,3,11,12,-2,34,33,30,40,34
1491087058631,0,-57,61,6,4,-26,-15,-31,-37
1491087058631,0,102,79,1,-6,10,15,-12,17
1491087058631,1,2,90,1,-24,-40,5,1,-15
1491087058631,1,21,30,-60,-42,-20,-14,-29,-1
1491087058632,2,-34,8,7,-19,-67,-22,34,2
1491087058632,2,-26,-61,74,76,73,72,12,4
1491087058667,3,19,-40,-7,-23,-24,-17,-48,-9
1491087058667,3,-19,-41,-9,-51,-32,8,-5,5
1491087058668,3,33,-14,31,-47,-61,-21,-70,-10
1491087058668,3,-24,9,43,24,62,17,26,19
1491087058669,0,-10,-25,-37,-47,-103,-80,-59,0
1491087058669,0,21,-28,-33,-25,-16,8,0,-3
1491087058670,2,45,32,43,38,13,-88,24,32
1491087058670,2,-43,-9,-19,9,3,63,14,3
1491087058705,3,13,-12,-18,-11,-33,-21,-51,-25
1491087058705,3,-2,-3,-4,15,-12,38,-3,-13
1491087058742,0,-49,-21,-12,27,62,121,42,-15
1491087058742,0,50,28,-20,-39,-61,-100,-44,55
1491087058743,2,-4,1,-24,-56,-24,7,17,-24
1491087058743,2,-19,-14,-48,-33,8,14,-19,-18
1491087058744,3,38,19,30,45,63,53,47,42
1491087058744,3,3,0,7,10,11,1,3,-11
1491087058744,0,-27,-1,14,-24,-17,35,-31,-33
1491087058744,0,11,-6,-3,68,20,-18,14,14
1491087058780,1,-23,10,29,21,28,51,91,16
1491087058780,1,-32,-8,13,8,-33,-58,-38,-12
1491087058781,2,104,4,5,-10,20,-17,-34,4
1491087058781,2,-29,12,6,-10,-9,26,33,-9
1491087058781,3,-29,0,7,44,51,82,-4,-7
1491087058781,3,25,-12,-12,18,33,-65,23,12
1491087058782,2,-52,-6,-25,-20,19,44,17,-19
1491087058782,2,39,36,-15,23,58,11,15,16
1491087058817,3,-31,16,50,1,88,-23,-14,-8
1491087058817,3,17,12,-20,-20,-78,-32,-69,-26
1491087058818,0,-25,6,-3,12,15,-29,1,-4
1491087058818,0,-18,21,58,91,26,65,54,-3
1491087058819,1,50,0,-17,-38,-56,29,52,59
1491087058819,1,-47,-5,-27,-19,-72,-81,-57,-45
1491087058855,2,7,-17,-3,-33,5,65,-15,7
1491087058855,2,-5,14,-13,-55,-1,69,90,39
1491087058856,3,-26,-6,-42,-30,-60,-97,-86,-38
1491087058856,3,71,15,11,-5,76,107,41,33
1491087058856,0,-21,2,10,12,-19,16,35,-31
1491087058856,0,-5,-18,24,78,105,95,53,21
1491087058857,1,-32,-23,11,30,-34,1,42,23
1491087058857,1,-5,-16,-37,-39,-123,-121,-83,-30
1491087058892,2,14,16,28,0,40,22,-48,-22
1491087058892,2,-40,-20,-22,85,10,99,2,1
1491087058893,3,19,-3,35,-15,-26,-4,18,-7
1491087058893,3,0,9,-75,-101,-65,-49,18,30
