1491088410977,0,-7,-87,-61,-49,-65,-25,-11,13
1491088410977,0,-26,16,6,21,55,-9,-110,-15
1491088410979,1,33,20,10,4,6,-7,96,-26
1491088410979,1,-20,20,20,3,-16,-24,-24,-15
1491088410981,2,14,15,15,12,29,67,0,3
1491088410981,2,13,12,-11,-8,-50,-54,-88,-40
1491088411014,3,-10,-8,-7,-19,-15,32,6,25
1491088411014,3,-4,-8,-25,-26,-13,-15,-17,-18
1491088411015,0,-4,23,9,17,4,-21,-6,2
1491088411015,0,-12,-12,-14,-26,-38,-11,-71,2
1491088411016,1,3,-4,27,42,54,46,42,7
1491088411016,1,17,12,-16,-11,1,-5,8,2
1491088411017,2,-18,12,19,18,-5,-11,-46,-2
1491088411017,2,20,23,-7,1,-35,-55,-93,-42
1491088411052,3,-15,-18,2,-20,-9,29,61,59
1491088411052,3,-9,-25,-10,23,78,124,-9,18
1491088411053,0,30,13,51,-2,-2,-77,-39,5
1491088411053,0,-22,5,-14,9,-13,57,5,-37
1491088411054,1,0,-3,-1,-20,-28,-2,-91,-5
1491088411054,1,-27,-5,0,13,13,-25,13,25
1491088411090,2,-1,6,-40,-21,28,77,55,-46
1491088411090,2,54,4,54,13,-17,-99,56,26
1491088411091,3,-48,-11,-18,-17,-2,78,36,-12
1491088411091,3,21,-15,-9,15,-19,-75,-128,12
1491088411091,0,0,-12,-36,10,14,-34,-86,-40
1491088411091,0,-2,-30,28,-14,25,65,127,39
1491088411092,1,-27,1,-24,-58,-99,-128,-127,-80
1491088411092,1,2,-14,5,25,87,70,-52,32
1491088411127,2,-22,5,6,10,-44,-24,-16,-11
1491088411127,2,5,5,1,21,66,100,120,-4
1491088411128,3,15,12,-6,7,-9,-47,-97,13
1491088411128,3,-17,1,-2,-48,-42,-1,-26,-8
1491088411129,0,48,-25,-10,-9,14,4,90,5
1491088411129,0,-31,10,-8,28,14,-17,-68,-21
1491088411129,1,-5,-7,14,35,7,9,-54,-14
1491088411129,1,18,18,-5,-64,-47,1,36,-8
1491088411164,2,-39,-1,-17,32,-11,15,-31,41
1491088411164,2,-30,-33,-23,-49,21,0,37,15
1491088411165,3,41,1,-5,12,31,-29,-20,-22
1491088411165,3,-19,11,4,10,-36,-16,-9,-18
1491088411166,0,-9,29,34,7,12,-71,-81,-47
1491088411166,0,-6,-13,-15,5,-16,53,81,85
1491088411167,1,17,9,23,-3,53,34,-77,7
1491088411167,1,31,10,5,9,-25,-19,127,8
1491088411202,2,4,17,3,-25,42,26,-94,-46
1491088411202,2,-22,10,-2,19,-12,7,64,67
1491088411203,3,39,-6,-4,5,34,40,-29,1
1491088411203,3,-13,-18,-29,-82,-83,-75,-49,-34
1491088411204,0,-28,-14,11,39,-3,-23,-78,27
1491088411204,0,17,1,-7,-5,24,29,54,-8
1491088411240,1,-40,9,2,36,-50,-100,-55,-34
1491088411240,1,10,-12,-5,-47,51,76,80,32
1491088411241,2,37,6,-1,-8,-9,-70,-35,18
1491088411241,2,-13,-18,-10,30,15,43,3,0
1491088411241,3,-4,-4,7,1,5,4,14,20
1491088411241,3,-38,8,-8,28,-14,-36,-42,-57
1491088411242,0,-8,1,19,4,-9,25,22,-18
1491088411242,0,9,-7,-19,-35,-35,-50,-96,-13
1491088411277,1,-3,13,8,-9,-1,-5,-33,8
1491088411277,1,-18,-16,-13,4,-5,7,55,17
1491088411278,2,-4,-13,-17,-4,29,93,76,23
1491088411278,2,11,17,42,22,35,-48,-128,-51
1491088411278,3,-12,-11,-39,-34,-79,1,127,56
1491088411278,3,24,11,32,54,6,0,-41,3
1491088411279,0,11,-30,-20,-43,33,67,41,44
1491088411279,0,-22,-15,-7,-12,-19,-21,0,-19
1491088411315,1,-3,8,7,31,63,5,-60,-25
1491088411315,1,-19,32,21,-21,-58,-84,-26,-29
1491088411316,2,21,-1,-11,15,-10,15,-9,23
1491088411316,2,2,-7,-42,-19,3,6,-24,-18
1491088411317,3,18,-16,32,-1,9,-1,62,6
1491088411317,3,-1,0,-8,1,4,-3,-36,-17
1491088411318,0,-27,24,14,-69,-38,-13,-66,-25
1491088411318,0,5,3,5,66,-2,-43,-12,10
1491088411352,1,14,-25,-29,-15,9,40,35,9
1491088411352,1,-15,-10,-3,25,15,-30,-33,-7
1491088411353,2,2,10,-17,-26,-15,-13,-35,-19
1491088411353,2,-2,19,6,-9,-3,-3,-38,10
1491088411354,3,-2,3,1,-13,-38,-36,58,36
1491088411354,3,1,-13,2,13,55,78,102,2
1491088411389,0,-12,-20,-5,20,36,42,-6,10
1491088411389,0,-10,-1,3,16,-38,-45,-117,-38
1491088411390,1,0,5,-12,0,-9,-10,16,16
1491088411390,1,1,-8,15,15,51,5,5,-44
1491088411391,2,19,-1,-3,-36,-60,-44,22,24
1491088411391,2,-7,-3,-9,26,48,20,27,9
1491088411392,3,-11,4,21,20,-44,-19,-90,-12
1491088411392,3,-11,-16,11,17,10,-12,-29,5
1491088411427,0,-24,16,20,63,54,24,50,-31
1491088411427,0,22,1,-3,-85,-46,-16,-65,-28
1491088411428,1,-6,-8,-22,1,1,11,41,29
1491088411428,1,23,-12,-7,-4,-5,19,-29,10
1491088411429,2,-6,4,6,47,25,13,41,19
1491088411429,2,-1,-7,16,-25,-21,31,16,-1
1491088411430,3,-22,13,-13,-14,-17,-64,-128,-68
1491088411430,3,22,-3,11,33,41,57,99,48
1491088411464,0,7,5,3,-4,-59,-107,-56,-20
1491088411464,0,5,-5,-7,28,19,53,42,21
1491088411466,1,15,-12,-13,-43,-66,-19,-19,-49
1491088411466,1,-6,3,-6,1,21,-16,-67,31
1491088411466,2,-26,-16,-9,-12,11,-22,-80,-42
1491088411466,2,-12,-7,-12,-21,-12,8,3,12
1491088411467,3,-8,11,14,-19,5,-29,-77,-35
1491088411467,3,14,10,15,40,6,53,36,9
1491088411502,0,-8,-11,-3,2,-15,-19,-10,31
1491088411502,0,-16,-8,0,-12,2,-31,-49,-24
1491088411503,1,-23,13,9,21,15,1,4,-8
1491088411503,1,16,-2,-20,-49,-24,-31,-32,-16
1491088411504,2,23,8,13,4,20,13,-29,12
1491088411504,2,16,3,-1,-12,-12,44,127,22
1491088411539,3,6,-12,-14,8,6,-61,-9,-1
1491088411539,3,-39,-10,-6,-4,2,24,-44,-12
1491088411540,0,-1,-7,-3,5,-7,13,118,-5
1491088411540,0,6,4,0,-19,-23,-17,-51,-20
1491088411541,1,9,12,1,-3,35,-12,-73,-41
1491088411541,1,-30,-7,-10,27,-15,-6,-67,22
1491088411542,2,18,-15,-5,-22,9,61,95,20
1491088411542,2,-24,9,13,8,5,-45,-128,-50
1491088411577,3,1,-2,1,7,35,111,127,75
1491088411577,3,6,-5,-27,-67,-69,-55,-128,-41
1491088411578,0,-9,11,-4,31,8,-6,59,50
1491088411578,0,-1,-9,1,3,-4,-34,-27,-6
1491088411579,1,-21,-1,11,27,87,74,60,-6
1491088411579,1,-4,11,-1,-21,-61,-59,-7,0
1491088411579,2,-4,-7,2,-6,0,32,-44,-1
1491088411579,2,-2,0,-4,-7,-35,-41,42,-21
1491088411614,3,27,-7,-4,9,51,21,-128,-9
1491088411614,3,15,11,-2,-4,-13,-9,121,41
1491088411615,0,1,-1,-14,-13,-55,-38,-112,-29
1491088411615,0,-13,-30,-2,2,42,85,90,37
1491088411616,1,-26,-11,-18,-20,-37,-35,-66,-14
1491088411616,1,14,18,13,28,43,44,56,2
1491088411617,2,-2,7,-7,-1,-8,-38,-43,-5
1491088411617,2,10,10,10,-8,-3,-8,13,28
1491088411652,3,25,-5,-4,1,0,39,95,1
1491088411652,3,-14,-1,3,-2,-4,-48,-128,-27
1491088411652,0,3,-1,0,-5,7,24,127,4
1491088411652,0,4,-10,-9,6,14,20,-2,-3
1491088411654,1,9,1,-1,-7,-21,-29,4,19
1491088411654,1,-16,11,12,19,-6,-23,-98,-40
1491088411689,2,-8,-21,-7,-15,10,31,38,18
1491088411689,2,38,0,-18,-21,18,17,-45,19
1491088411690,3,-27,-2,2,5,-12,-15,-37,3
1491088411690,3,-2,0,-1,14,11,-18,-44,-17
1491088411691,0,-31,11,8,-13,-32,-19,-77,-23
1491088411691,0,19,-5,-1,-9,-16,37,103,9
1491088411692,1,-13,-9,-6,-5,-14,-34,-87,-1
1491088411692,1,4,3,2,5,10,3,69,8
1491088411727,2,0,5,5,1,21,47,50,-22
1491088411727,2,0,-3,4,13,7,5,-17,15
1491088411728,3,6,19,-2,10,-19,-28,-28,-36
1491088411728,3,-3,-19,3,21,27,13,52,50
1491088411729,0,1,1,0,-7,-14,-36,-75,-24
1491088411729,0,-6,11,1,-36,-10,-35,-105,-56
1491088411729,1,-13,-18,-18,-8,0,47,62,22
1491088411729,1,3,-11,-3,1,-24,-42,-70,6
1491088411764,2,0,1,-2,6,-4,1,-38,-15
1491088411764,2,-35,-7,7,15,3,6,17,23
1491088411768,3,8,11,8,-15,6,0,-80,-45
1491088411768,3,-12,-2,-14,-13,-8,14,40,-10
1491088411769,0,21,-14,4,-9,-3,-5,-31,-29
1491088411769,0,-26,5,-11,-4,-26,-36,-23,-10
1491088411769,1,27,-4,11,7,-3,5,49,30
1491088411769,1,11,0,-4,-11,26,9,-90,21
1491088411802,2,-7,11,0,4,2,-11,77,26
1491088411802,2,12,9,5,19,21,25,-87,-3
1491088411803,3,-2,-8,1,0,-3,31,60,-10
1491088411803,3,8,-11,-2,-19,-17,16,38,1
1491088411804,0,-13,7,9,-12,-13,-56,2,-6
1491088411804,0,21,-1,1,7,14,14,-35,5
1491088411839,1,-24,4,3,9,7,-14,-79,-7
1491088411839,1,-6,-20,-1,36,27,32,4,-9
1491088411840,2,-12,11,-9,-18,-23,-36,-60,-2
1491088411840,2,8,-17,-11,-21,-25,9,-23,-10
1491088411841,3,-5,-2,0,-9,21,6,-116,26
1491088411841,3,14,-1,0,0,-6,18,60,-24
1491088411842,0,-10,4,9,13,11,-4,-39,6
1491088411842,0,-22,-6,-22,-7,9,-24,-20,-29
1491088411877,1,24,-5,-2,-10,-11,11,71,40
1491088411877,1,-10,6,11,-4,-28,-14,38,-17
1491088411878,2,2,-6,-11,-12,-14,21,-70,23
1491088411878,2,21,10,7,19,-15,-36,27,-13
1491088411879,3,-29,-19,-4,-1,13,23,127,18
1491088411879,3,4,10,-19,-3,10,-2,-56,-19
1491088411879,0,1,-6,11,6,-14,-36,-41,3
1491088411879,0,-16,15,7,11,13,-7,-35,18
1491088411914,1,11,-10,-10,2,24,47,35,13
1491088411914,1,5,8,4,-20,-23,3,-42,5
1491088411916,2,20,-23,-18,-5,-4,19,54,17
1491088411916,2,-14,-4,-13,-28,-12,-26,-92,-10
1491088411916,3,12,1,19,15,-18,-52,-78,-24
1491088411916,3,-10,10,3,10,27,36,60,8
1491088411917,0,-21,2,4,13,23,-2,-78,-7
1491088411917,0,-2,-10,-13,-14,-13,10,112,19
1491088411952,1,10,5,0,-23,-34,-11,26,-14
1491088411952,1,-2,-4,-14,-5,-26,-27,-45,-31
1491088411954,2,-27,6,-1,10,-20,-40,-53,3
1491088411954,2,22,-3,12,32,53,16,33,3
1491088411956,3,-8,10,-4,-34,-11,-9,35,2
1491088411956,3,6,-20,-4,20,-1,21,-46,-4
1491088411989,0,-15,2,0,-4,10,-25,14,-26
1491088411989,0,36,-5,1,3,6,51,45,37
1491088411990,1,4,-3,-8,-11,-19,16,47,-12
1491088411990,1,-16,3,-5,-24,-3,-22,-14,-2
1491088411991,2,26,-3,16,4,34,28,-8,-10
1491088411991,2,-35,7,12,40,-30,-33,-92,-43
1491088411992,3,-21,2,-4,6,19,-31,-117,-28
1491088411992,3,26,-11,-4,-19,-9,43,119,66
1491088412027,0,-2,2,-15,21,10,-9,-79,-16
1491088412027,0,-23,0,10,-46,-34,-9,50,-21
1491088412028,1,25,-1,-32,17,-10,-20,-47,17
1491088412028,1,-40,-3,30,-9,23,47,33,24
1491088412030,2,24,-6,-4,-3,8,17,-16,-30
1491088412030,2,24,8,-2,5,18,3,24,50
1491088412030,3,-22,-2,6,7,-17,-49,-128,-46
1491088412030,3,-17,9,11,3,-6,22,65,23
1491088412064,0,3,-16,-14,-15,10,50,64,23
1491088412064,0,-10,-4,-5,-16,-22,-38,-125,-54
1491088412065,1,-24,-1,-1,4,8,-15,28,22
1491088412065,1,15,7,5,13,3,-31,19,-10
1491088412066,2,1,0,4,6,-7,20,74,10
1491088412066,2,-11,-2,-10,2,-2,-6,-104,-26
1491088412102,3,8,2,-2,-15,9,18,111,24
1491088412102,3,-8,2,9,22,-13,-45,-128,-62
1491088412102,0,2,-13,-3,-10,-7,32,108,31
1491088412102,0,1,5,3,10,1,11,74,56
1491088412103,1,-4,-14,0,-6,-6,-1,-67,-38
1491088412103,1,-7,10,-12,-12,0,-18,28,8
1491088412104,2,10,3,5,-16,-21,-14,-76,-30
1491088412104,2,-14,-6,-8,13,17,-7,-85,-8
1491088412140,3,3,2,-7,14,6,18,127,45
1491088412140,3,-1,-2,21,9,-16,-29,-128,-40
1491088412141,0,15,-2,-6,-6,19,29,99,86
1491088412141,0,-10,-5,6,-18,-25,-25,-50,-55
1491088412145,1,-34,-4,-7,-4,7,26,-1,-16
1491088412145,1,30,-14,-17,-1,2,5,57,29
1491088412146,2,12,23,10,10,-12,-42,-113,-58
1491088412146,2,-6,0,-3,-2,5,23,127,56
1491088412177,3,-8,-12,-3,-6,3,17,-81,-23
1491088412177,3,3,-8,-4,-6,-2,-12,-68,27
1491088412178,0,-12,-5,-9,1,-5,-10,-68,-45
1491088412178,0,6,-31,-4,-14,15,48,50,27
1491088412180,1,1,5,18,8,-15,-19,-114,-17
1491088412180,1,10,-8,-3,-11,-2,7,17,15
1491088412181,2,-15,-5,-15,-7,-3,-28,-104,-26
1491088412181,2,0,-8,-7,2,-3,-25,-3,-22
1491088412215,3,5,0,5,6,11,13,-11,-9
1491088412215,3,-6,-8,3,0,13,-3,26,-26
1491088412216,0,-4,2,-7,5,-15,22,110,49
1491088412216,0,-10,6,-13,-21,-4,3,-3,-4
1491088412216,1,18,-4,6,-18,-18,-1,-33,19
1491088412216,1,1,6,-7,16,14,-65,-94,-71
1491088412252,2,2,-3,0,6,19,47,37,16
1491088412252,2,-5,4,4,11,-11,4,51,18
1491088412254,3,-22,3,12,-5,-6,-23,-30,-15
1491088412254,3,-11,6,-14,-22,-44,-30,-114,-14
1491088412255,0,31,-6,-4,-22,16,43,116,53
1491088412255,0,-16,2,4,2,8,-2,-112,-15
1491088412256,1,10,1,-11,-3,-12,-45,-51,-51
1491088412256,1,20,-6,-6,-6,18,51,94,25
1491088412289,2,-27,1,-2,15,-3,-32,-127,-33
1491088412289,2,15,12,2,-3,-10,-17,-116,-5
1491088412291,3,-5,-10,-1,0,23,53,121,81
1491088412291,3,-11,20,-10,-8,8,-7,-51,-7
1491088412291,0,8,0,13,12,-15,-5,-55,17
1491088412291,0,0,-10,3,-6,-30,-22,15,1
1491088412292,1,9,-4,-14,2,-4,-25,-68,11
1491088412292,1,11,-27,3,-12,10,33,93,2
1491088412327,2,-19,5,9,-8,6,-10,-43,-11
1491088412327,2,8,-1,-10,-3,3,2,27,-8
1491088412330,3,4,2,1,18,1,-16,-8,-11
1491088412330,3,-5,2,-14,-23,-21,-12,76,35
1491088412331,0,5,16,12,22,37,57,17,1
1491088412331,0,-11,-9,-10,0,9,10,-41,-15
1491088412332,1,6,20,14,4,-4,10,103,26
1491088412332,1,-16,4,-4,5,-7,-17,-128,-26
1491088412364,2,-4,-1,6,-11,-25,-31,31,11
1491088412364,2,8,-9,3,2,0,35,108,-15
1491088412365,3,-13,1,-14,-8,-2,-45,-119,-23
1491088412365,3,-5,-5,17,13,17,37,120,53
1491088412366,0,-14,-7,-11,-20,-24,-53,-125,-45
1491088412366,0,13,-1,6,8,20,24,33,14
1491088412402,1,-15,0,16,10,-27,-42,-67,-25
1491088412402,1,10,-12,-22,-4,0,27,37,-3
1491088412403,2,-8,-14,0,-12,0,-1,38,11
1491088412403,2,-1,8,0,-15,10,-6,-52,-4
1491088412404,3,-14,3,-3,10,7,-19,-90,-31
1491088412404,3,18,0,-1,15,10,15,51,55
1491088412405,0,5,-1,-9,-16,-22,-2,-54,4
1491088412405,0,-1,-2,7,-16,1,6,43,-23
1491088412440,1,-6,-5,-7,8,5,29,88,9
1491088412440,1,-20,11,-4,1,-4,-39,-128,-17
1491088412441,2,-10,-11,-6,2,8,-20,-5,-29
1491088412441,2,4,-5,-4,11,8,12,41,40
1491088412443,3,0,1,-5,-11,-24,-21,-82,-42
1491088412443,3,0,1,9,1,23,59,120,43
1491088412443,0,-8,6,-4,6,10,-24,-14,-16
1491088412443,0,-9,0,-8,-16,-21,-29,-128,-34
1491088412477,1,14,-1,-3,1,22,39,65,13
1491088412477,1,-2,-4,-4,-1,-21,-39,-128,-53
1491088412479,2,-8,2,11,6,-2,17,-19,12
1491088412479,2,4,5,4,-5,-7,-26,-48,-27
1491088412480,3,-5,0,-3,5,24,34,79,28
1491088412480,3,-4,-9,-12,-18,-35,-42,-128,-56
1491088412481,0,5,7,6,8,19,45,127,50
1491088412481,0,-18,1,10,18,-12,-53,-81,-16
1491088412514,1,2,9,-4,-14,-17,31,-2,4
1491088412514,1,-2,1,-4,3,45,33,-26,0
1491088412516,2,0,6,8,-3,-17,-12,-64,-21
1491088412516,2,-7,9,-2,3,-2,-12,-32,26
1491088412516,3,26,-15,-14,-20,-13,10,111,2
1491088412516,3,-3,3,20,24,6,-15,-26,-25
1491088412552,0,16,8,-3,-20,-4,14,49,12
1491088412552,0,-9,-10,-6,7,9,13,32,-2
1491088412553,1,-19,-8,-4,-3,-16,-36,-108,-17
1491088412553,1,4,5,-1,3,-5,23,127,50
1491088412554,2,-2,-18,-13,-6,-9,-12,-68,-37
1491088412554,2,0,9,-7,-3,3,-4,-75,15
1491088412555,3,-17,-6,8,14,12,15,44,24
1491088412555,3,16,-3,6,4,1,-7,-49,-13
1491088412589,0,-13,0,2,1,-10,-21,-1,-16
1491088412589,0,11,2,-11,2,5,-10,-35,-12
1491088412591,1,-3,-21,-12,-23,-5,31,-16,7
1491088412591,1,-20,12,2,2,3,-6,65,0
1491088412592,2,8,-10,1,2,-2,9,8,9
1491088412592,2,3,3,5,6,-10,-39,-109,-29
1491088412593,3,16,8,10,-3,3,-11,48,48
1491088412593,3,-16,-21,-19,-16,-1,30,53,-2
1491088412628,0,-11,-6,-3,-7,-2,-13,-63,-12
1491088412628,0,-5,8,4,13,-5,-25,26,-3
1491088412629,1,20,-7,-2,-9,2,28,26,23
1491088412629,1,-8,0,-1,4,-8,-11,-44,-13
1491088412630,2,1,8,9,-3,-29,-8,-67,5
1491088412630,2,-2,-6,-11,-9,13,11,12,2
1491088412631,3,4,5,-3,-6,2,-5,-2,1
1491088412631,3,0,-2,11,7,-1,-31,-87,-15
1491088412665,0,-16,-6,-4,11,17,21,88,8
1491088412665,0,37,-1,4,2,-2,28,32,-2
1491088412665,1,-10,-5,6,-3,1,-13,5,-11
1491088412665,1,-3,7,4,-10,-14,-17,-68,0
1491088412666,2,-1,17,-1,7,-4,-42,-90,-6
1491088412666,2,-4,-22,-12,-5,9,35,88,-8
1491088412702,3,-7,-9,0,-6,0,9,-4,-24
1491088412702,3,1,-10,-5,-7,-4,3,3,19
1491088412705,0,-8,7,2,16,-4,-46,-103,-19
1491088412705,0,-22,-6,-2,-1,5,28,94,27
1491088412706,1,24,-1,5,2,-5,-22,-128,-50
1491088412706,1,13,7,3,-7,1,22,52,11
1491088412711,2,1,-8,-17,-1,8,0,10,-6
1491088412711,2,3,0,2,-15,-11,-7,19,18
1491088412739,3,-17,7,9,3,-5,-14,-57,-3
1491088412739,3,0,-2,3,8,25,15,60,-2
1491088412742,0,5,-4,-4,2,-13,-12,-62,-21
1491088412742,0,2,0,-7,-12,-13,22,85,21
1491088412743,1,-9,-4,-10,0,10,-3,-44,-5
1491088412743,1,-10,0,0,-1,-8,-6,-24,-23
1491088412743,2,-1,-5,-7,-13,20,30,60,9
1491088412743,2,18,9,15,28,8,-24,-76,-1
1491088412777,3,-1,-8,-16,-7,-21,4,48,-6
1491088412777,3,18,-1,5,-5,-7,-5,-5,-6
1491088412780,0,-8,-5,-3,6,4,17,37,0
1491088412780,0,-15,-1,-1,-11,-13,-1,6,2
1491088412781,1,5,13,-10,4,6,-17,-70,-16
1491088412781,1,17,-2,-8,-9,-3,-14,51,10
1491088412782,2,-1,9,-6,-14,-12,-3,-16,4
1491088412782,2,9,-4,-1,-2,5,22,55,14
1491088412814,3,-2,-7,-2,1,-8,-25,-110,-24
1491088412814,3,-14,1,-2,-17,-6,7,52,-2
1491088412817,0,9,0,3,3,-1,-14,-69,-17
1491088412817,0,0,2,5,20,26,-5,4,20
1491088412819,1,0,12,16,17,-5,14,33,-5
1491088412819,1,-11,-11,-13,-21,-14,6,-1,5
1491088412852,2,-3,-10,3,1,-2,5,26,-9
1491088412852,2,-6,0,-4,-1,10,-12,-84,-15
1491088412853,3,-4,-1,7,10,6,2,37,4
1491088412853,3,-13,4,-15,-14,-9,-33,-110,-20
1491088412854,0,-19,-9,-12,-6,-8,20,86,19
1491088412854,0,28,5,-4,-10,-10,-18,-73,-14
1491088412889,1,-18,-15,1,-2,10,17,127,30
1491088412889,1,-2,-6,-8,2,-6,-5,-66,-29
1491088412890,2,7,-2,-4,4,9,8,47,6
1491088412890,2,-21,7,8,11,-8,-42,-128,-62
1491088412891,3,17,4,-3,-17,-4,45,114,53
1491088412891,3,-11,-6,-6,-13,-10,-1,78,37
1491088412892,0,-11,-4,6,-18,-16,-20,-103,-39
1491088412892,0,2,-8,-15,1,4,5,90,23
1491088412927,1,-10,5,1,20,13,-12,-103,-29
1491088412927,1,-15,-3,0,-8,-14,-8,-97,-7
1491088412928,2,28,3,0,-10,-8,18,92,61
1491088412928,2,-12,-8,-11,-22,-13,-7,3,-18
1491088412929,3,1,-1,6,17,11,-24,-83,-22
1491088412929,3,7,3,18,14,4,13,80,2
1491088412930,0,-7,4,-4,2,-3,-10,25,17
1491088412930,0,-14,-8,9,-2,7,19,24,19
1491088412964,1,6,2,-3,-3,-13,-28,-77,-39
1491088412964,1,3,-3,-16,10,2,17,45,19
1491088412966,2,11,-16,-2,-23,-7,-1,-31,16
1491088412966,2,-11,5,-7,2,-3,13,41,19
1491088412967,3,5,-3,-14,-12,14,16,-11,4
1491088412967,3,-6,9,26,23,15,-26,-100,-35
1491088412968,0,-21,1,-13,-10,-8,-5,-15,-39
1491088412968,0,14,-14,6,-1,-15,5,30,26
1491088413002,1,7,-1,-21,0,18,16,-9,-15
1491088413002,1,-18,2,-14,-16,-16,-5,-38,-19
1491088413003,2,24,-4,6,13,5,-20,2,14
1491088413003,2,-15,1,1,-5,-8,4,-19,-4
1491088413004,3,-13,-1,-4,-15,-19,-15,-63,-28
1491088413004,3,33,-7,-3,6,13,25,127,35
1491088413005,0,-20,2,18,5,11,5,-30,5
1491088413005,0,3,11,-14,1,4,-12,-97,-24
1491088413039,1,-18,-12,5,-2,-10,4,52,15
1491088413039,1,3,2,10,1,10,-12,-89,-45
1491088413040,2,10,5,-8,5,-29,-23,-91,-25
1491088413040,2,1,-3,8,-13,-11,-3,78,3
1491088413041,3,-11,1,-16,1,9,-34,-7,42
1491088413041,3,3,-7,18,3,3,10,10,2
1491088413042,0,4,6,12,-15,-16,18,-51,-24
1491088413042,0,0,5,-11,8,29,9,88,38
1491088413077,1,6,-9,6,-3,-12,3,20,-24
1491088413077,1,-14,5,-8,8,-19,-14,77,17
1491088413078,2,-14,-8,-7,0,14,3,-56,-30
1491088413078,2,-27,0,13,11,-19,-11,-33,2
1491088413079,3,-6,9,-3,-5,21,11,34,0
1491088413079,3,-3,0,-2,1,8,25,39,-4
1491088413114,0,10,0,-16,-23,-17,-28,-67,-8
1491088413114,0,22,-4,15,-13,20,28,43,16
1491088413115,1,-10,4,-18,10,-36,-18,-77,-19
1491088413115,1,4,-5,9,0,10,-1,-2,5
1491088413116,2,-8,-5,1,26,35,-2,100,29
1491088413116,2,0,-9,-5,2,-8,-25,-128,-27
1491088413117,3,-6,-6,5,-29,-5,46,83,22
1491088413117,3,-6,15,12,26,19,-11,-50,3
1491088413152,0,4,2,-15,-18,-44,-36,-37,-35
1491088413152,0,16,-13,3,-5,-7,-13,-12,9
1491088413154,1,-6,-11,6,-23,-9,-6,-7,-7
1491088413154,1,3,15,-12,11,1,-6,-5,-5
1491088413155,2,12,-18,20,20,23,26,127,65
1491088413155,2,-12,4,-34,-13,-14,-17,-102,-25
1491088413155,3,-3,-14,30,16,0,8,40,10
1491088413155,3,6,4,-2,-8,15,15,-54,-18
1491088413189,0,-26,15,-8,8,20,-8,-52,-18
1491088413189,0,12,1,3,-2,-24,14,20,-22
1491088413190,1,6,13,-3,-4,1,-43,-13,27
1491088413190,1,-6,-11,-10,-12,-20,-8,-105,-18
1491088413191,2,8,-11,-9,2,5,66,76,22
1491088413191,2,-7,-4,-3,1,14,-8,-53,-18
1491088413192,3,12,4,-9,-3,-1,0,85,30
1491088413192,3,-6,-8,-4,-10,-14,-28,-87,-11
1491088413227,0,-9,10,6,15,8,-6,13,-4
1491088413227,0,-20,-8,-4,7,15,1,127,30
1491088413229,1,29,-3,5,13,5,27,-59,-20
1491088413229,1,20,-14,-15,-60,-20,7,-44,10
1491088413230,2,-26,1,-7,41,44,20,57,-18
1491088413230,2,21,-2,40,11,-43,-10,10,4
1491088413264,3,-18,-2,-20,-14,-13,-22,-97,-23
1491088413264,3,-15,-8,-3,-2,-6,-22,26,52
1491088413266,0,7,6,-1,-24,-9,3,-35,-14
1491088413266,0,-11,3,-14,-4,19,12,5,-13
1491088413266,1,-3,12,12,34,-15,-50,9,0
1491088413266,1,2,-7,-1,-22,4,7,2,0
1491088413267,2,-5,-9,-8,0,21,25,-2,-15
1491088413267,2,-12,10,1,6,-7,-13,35,-17
1491088413302,3,22,-1,4,-3,4,21,16,35
1491088413302,3,-16,14,-6,10,0,-25,30,5
1491088413303,0,-3,7,0,-3,-38,-21,-113,-26
1491088413303,0,-3,-11,-13,-13,11,28,81,23
1491088413304,1,-4,-10,-7,-54,-5,19,52,-14
1491088413304,1,22,4,2,33,-8,-3,-79,-14
1491088413305,2,-3,-5,-4,-5,-33,-44,-69,-5
1491088413305,2,-13,0,14,9,-3,-8,-116,-21
1491088413339,3,-26,-26,-18,5,27,80,89,42
1491088413339,3,-7,-1,3,-4,-19,-25,-85,-29
1491088413340,0,12,-4,6,-12,14,0,53,1
1491088413340,0,1,6,-10,-21,-20,8,-99,-18
1491088413341,1,-12,5,9,45,4,-38,32,3
1491088413341,1,11,-15,-27,-5,9,20,88,2
1491088413342,2,0,-3,17,-4,-5,-23,-60,-1
1491088413342,2,-2,9,-7,-4,-2,-7,30,17
1491088413377,3,-22,22,18,23,28,-17,-116,-58
1491088413377,3,20,-27,-8,-25,-2,54,97,59
1491088413378,0,-3,-5,-13,-41,-23,27,-46,-2
1491088413378,0,10,6,-3,29,11,-31,-67,-9
1491088413379,1,-10,5,6,-8,-23,-46,-16,34
1491088413379,1,25,6,3,25,22,-2,-50,-62
1491088413414,2,4,-6,-5,-18,6,-16,105,38
1491088413414,2,3,5,6,2,8,15,-84,-13
1491088413416,3,-2,21,6,9,5,11,29,11
1491088413416,3,-34,-4,2,0,-4,32,99,-8
1491088413416,0,10,2,-17,-31,-10,3,-36,-7
1491088413416,0,22,10,0,9,-7,-37,-8,30
1491088413417,1,1,-10,-10,7,7,-7,-40,-11
1491088413417,1,-13,7,13,8,-4,-14,-76,-23
1491088413452,2,-8,0,-12,-9,-13,11,-9,-23
1491088413452,2,-17,-11,0,-20,-18,-41,-50,3
1491088413453,3,22,-11,-3,-15,10,59,94,53
1491088413453,3,-1,-7,-8,0,5,9,-12,-27
1491088413454,0,10,11,16,14,9,-2,-31,32
1491088413454,0,-34,-4,-10,2,-6,-31,-31,-11
1491088413455,1,3,-7,-11,-17,-6,16,-61,-38
1491088413455,1,-3,2,12,6,-1,-2,41,29
1491088413489,2,5,3,-3,19,2,-3,7,20
1491088413489,2,1,-4,1,-12,3,13,6,-9
1491088413490,3,30,-16,-12,-12,-2,-1,46,-22
1491088413490,3,-7,8,1,1,-13,-38,-62,10
1491088413491,0,-11,-6,9,6,-5,-5,-45,-22
1491088413491,0,-1,-11,-12,2,22,49,104,34
1491088413492,1,-1,-7,-2,5,17,-2,-47,-46
1491088413492,1,-13,2,-9,-18,-18,-17,-42,-9
1491088413527,2,7,-8,5,20,34,5,10,7
1491088413527,2,-4,3,-1,-15,-31,1,-82,-23
1491088413528,3,-9,-3,-10,-29,-25,-11,4,2
1491088413528,3,-6,-1,-5,7,10,-2,-16,-3
1491088413529,0,4,3,0,10,-10,-31,-35,-28
1491088413529,0,9,-20,-6,7,35,71,123,46
1491088413564,1,5,8,0,-2,-13,-19,-73,0
1491088413564,1,-22,-11,-4,6,-15,-31,-102,-34
1491088413565,2,-6,-2,3,9,-1,38,95,14
1491088413565,2,11,6,6,5,-1,-4,-76,-16
1491088413566,3,1,-1,18,14,-6,-17,-40,11
1491088413566,3,-19,1,-19,-20,-10,1,-4,2
1491088413567,0,-5,2,2,5,-7,-40,-70,-47
1491088413567,0,-3,-13,-4,-16,7,27,61,8
1491088413602,1,-1,4,-3,-5,0,-14,30,-1
1491088413602,1,-16,13,17,5,-9,-20,-26,-4
1491088413603,2,23,9,-11,13,2,6,26,19
1491088413603,2,-7,-15,-8,-17,2,16,-6,-8
1491088413604,3,-3,-4,-9,16,11,-51,-112,-7
1491088413604,3,6,-14,1,-26,-5,46,127,15
1491088413605,0,-11,0,-21,-38,-27,-11,-25,3
1491088413605,0,-10,0,0,-9,-5,-13,11,-6
1491088413641,1,-2,-2,2,23,15,4,-23,-21
1491088413641,1,36,-5,8,8,21,12,34,14
1491088413642,2,-17,4,6,15,-5,-1,-82,-19
1491088413642,2,-1,-8,-12,-30,-13,9,91,38
1491088413642,3,-13,-2,-4,11,-19,-15,-69,-13
1491088413642,3,11,5,4,-2,14,16,55,33
1491088413644,0,-22,-24,-1,15,35,11,-79,-23
1491088413644,0,20,9,2,-6,-16,-19,-64,-34
1491088413677,1,19,-4,-8,-19,-7,31,117,28
1491088413677,1,-14,7,7,-3,-27,-40,-37,-19
1491088413679,2,18,-2,0,2,39,61,78,42
1491088413679,2,-23,-10,-7,8,-8,-26,-40,-9
1491088413680,3,-1,5,2,-14,-4,-2,-40,-8
1491088413680,3,12,1,-3,10,9,-23,-25,-1
1491088413714,0,-14,6,8,-14,-8,4,39,10
1491088413714,0,12,5,2,-9,-6,-4,-40,-12
1491088413716,1,-11,-3,-8,20,6,2,-1,-3
1491088413716,1,-6,-4,2,11,-22,-18,-84,9
1491088413717,2,11,-17,-10,3,9,15,66,8
1491088413717,2,12,6,10,-4,-7,-30,-21,-17
1491088413718,3,-8,10,-2,-36,-29,14,29,16
1491088413718,3,-21,-12,-11,38,33,-3,-86,-41
1491088413752,0,41,-10,-8,5,10,14,105,-1
1491088413752,0,7,-7,10,17,11,-12,-22,-25
1491088413754,1,2,14,5,-14,-8,1,-35,34
1491088413754,1,-18,-5,-13,-15,-7,22,-25,-18
1491088413755,2,-9,9,14,-15,-18,-39,-56,2
1491088413755,2,10,-11,-26,-2,19,29,43,16
1491088413756,3,-13,5,20,1,-12,-40,-60,-25
1491088413756,3,22,5,0,-12,-15,11,34,17
1491088413827,0,-18,9,-11,0,-9,-35,-90,-29
1491088413827,0,14,-26,14,11,11,50,80,47
1491088413828,1,-5,-12,-10,17,36,20,-36,-7
1491088413828,1,18,5,16,-41,-27,22,-11,-3
1491088413829,2,-16,8,-1,26,-15,-82,-128,-41
1491088413829,2,-27,12,3,12,3,12,33,16
1491088413830,3,4,-26,-9,-4,5,32,127,-13
1491088413830,3,13,10,6,-3,13,-6,-5,10
1491088413864,0,-12,-2,-1,-19,-18,-9,-42,7
1491088413864,0,-7,17,-7,10,-32,-38,-53,-21
1491088413866,1,-7,-6,4,-11,8,4,73,-17
1491088413866,1,9,0,-9,-14,10,7,17,36
1491088413869,2,13,-1,7,8,-2,3,-47,-4
1491088413869,2,-13,2,35,32,36,16,48,-6
1491088413870,3,12,12,-28,-17,-16,-19,-40,2
1491088413870,3,-34,-6,-12,-48,-32,-30,-32,-14
1491088413902,0,20,-1,-23,28,10,41,102,25
1491088413902,0,-11,-5,18,-2,-10,-3,-57,-11
1491088413903,1,-10,2,6,16,2,-7,-56,-13
1491088413903,1,-6,1,-1,16,-14,-17,-18,-18
1491088413904,3,5,12,6,-53,-30,-40,-89,-12
1491088413904,3,1,-22,-24,32,17,44,98,6
1491088413905,0,-8,-15,20,1,-10,-8,-73,8
1491088413905,0,-16,3,-29,-7,5,8,46,-16
1491088413939,1,18,-1,16,-3,-16,-18,-99,-15
1491088413939,1,-17,12,10,5,9,-20,-1,-25
1491088413940,2,16,-12,-25,-26,-20,21,15,16
1491088413940,2,3,-1,3,17,26,1,-87,3
1491088413941,3,-38,-17,-3,-8,-21,-32,-72,4
1491088413941,3,18,9,15,24,24,28,58,-1
1491088413942,0,0,-12,-7,-34,-23,67,60,17
1491088413942,0,-6,4,-8,-12,3,-57,-34,-10
1491088413977,1,1,-15,-4,50,20,37,33,9
1491088413977,1,-42,-10,-4,-7,-13,-37,-81,11
1491088413978,2,27,10,5,0,-2,14,76,11
1491088413978,2,18,4,14,-7,23,3,-58,-12
1491088413979,3,-1,-4,-8,13,4,-20,-4,13
1491088413979,3,-1,-7,-12,19,36,12,66,12
1491088413980,0,12,7,12,12,-25,31,65,-2
1491088413980,0,-4,8,-1,-17,-7,0,-14,-36
1491088414014,1,-3,11,8,-31,-18,-43,-61,1
1491088414014,1,-18,9,18,-2,6,-1,-37,47
1491088414015,2,-22,-25,-29,14,3,30,-3,-77
1491088414015,2,-23,-9,-1,-2,-46,-42,-81,0
1491088414016,3,-6,0,-12,34,58,61,122,18
1491088414016,3,34,0,1,-26,6,23,-14,-20
1491088414017,0,-52,9,13,-3,-20,-57,-75,-4
1491088414017,0,22,-10,-27,-53,-24,26,8,-21
1491088414052,1,-26,-10,-8,25,2,-24,-33,-1
1491088414052,1,11,4,-6,-15,-57,-51,-58,0
1491088414053,2,-13,2,11,5,18,5,16,15
1491088414053,2,9,-3,6,15,-1,-32,-40,-19
1491088414054,3,6,20,8,-4,6,17,-66,-28
1491088414054,3,28,-3,-8,-15,-1,29,108,85
1491088414055,0,-14,-19,-9,3,4,-15,-22,9
1491088414055,0,-15,4,-7,-8,-12,-12,-81,3
1491088414089,1,41,3,8,5,18,44,106,38
1491088414089,1,-18,23,12,9,20,-15,-128,-42
1491088414090,2,-20,-2,-9,7,-23,-49,-21,-31
1491088414090,2,6,-18,-23,-32,-15,16,127,46
1491088414091,3,-28,-3,-2,-1,-22,-10,-91,-16
1491088414091,3,11,-10,-18,-1,6,-15,75,-28
1491088414092,0,0,3,23,5,36,28,-6,10
1491088414092,0,-10,21,12,15,-18,-46,-16,-3
1491088414127,1,21,-39,-30,-38,-11,63,83,6
1491088414127,1,2,-13,-5,-12,-9,-31,-119,-4
1491088414130,2,13,22,13,13,32,6,-87,8
1491088414130,2,-14,27,14,32,22,-25,-109,-19
1491088414130,3,-35,-9,-7,-33,-52,-35,100,14
1491088414130,3,23,-20,-3,8,21,80,21,23
1491088414131,0,9,-3,-15,19,3,-31,52,8
1491088414131,0,-1,3,-3,2,-34,-27,-112,10
1491088414168,1,13,-4,-2,-37,-27,-23,27,17
1491088414168,1,-19,-13,0,19,10,31,63,-25
1491088414170,2,-1,-4,-3,-35,5,-26,-106,-21
1491088414170,2,3,-9,-7,10,12,39,99,9
1491088414171,3,-10,7,22,36,8,-10,-47,9
1491088414171,3,6,-2,-7,-2,-1,-13,-8,-14
1491088414172,0,-2,-9,1,-17,-26,-3,42,1
1491088414172,0,-3,0,-6,3,-3,-12,-40,-5
1491088414202,1,-12,20,13,6,43,19,-45,-35
1491088414202,1,14,6,-3,-14,-33,20,70,16
1491088414203,2,-1,-26,-12,10,45,14,-20,30
1491088414203,2,-14,-12,3,-20,-39,-18,-37,-14
1491088414204,3,20,3,-13,23,-2,-30,5,1
1491088414204,3,-22,17,11,11,-22,-48,-128,-33
1491088414205,0,15,-5,-6,-35,-15,53,127,45
1491088414205,0,-7,-6,5,23,49,27,-39,-2
1491088414240,1,10,6,6,10,14,12,-73,3
1491088414240,1,-24,-11,-3,-3,-11,-60,-79,-22
1491088414241,2,12,5,-5,-21,-4,20,43,2
1491088414241,2,12,-10,14,30,14,1,-19,-2
1491088414242,3,-16,3,1,-32,-39,16,28,-12
1491088414242,3,17,-1,5,30,40,-27,-62,-36
1491088414277,0,0,1,-10,-28,-39,9,51,21
1491088414277,0,-15,-18,-5,-8,34,86,-7,25
1491088414278,1,14,-4,-8,-4,-20,-28,-88,-43
1491088414278,1,-21,-3,-12,-32,-26,-7,-64,17
1491088414280,2,-12,10,12,45,11,-43,-75,0
1491088414280,2,12,9,3,29,-13,-27,53,-10
1491088414281,3,-12,6,-6,-20,15,6,-1,-12
1491088414281,3,6,3,8,18,23,34,93,10
1491088414314,0,-11,-2,-4,-12,4,-16,-128,-63
1491088414314,0,16,-4,-14,-20,-18,21,127,59
1491088414315,1,-26,-4,-17,-6,-11,-26,-108,-34
1491088414315,1,-3,-1,-3,-11,-4,16,108,46
1491088414316,2,7,8,13,16,5,-8,-107,-22
1491088414316,2,-3,-4,-9,-11,-6,-14,32,27
1491088414317,3,6,1,2,6,4,3,-24,-6
1491088414317,3,-26,1,1,-8,7,-2,-50,-16
1491088414352,0,1,19,15,40,15,-28,-16,3
1491088414352,0,6,-8,-13,-21,-28,33,18,3
1491088414353,1,3,-7,-9,-7,-13,-61,-6,2
1491088414353,1,2,-15,-7,-9,21,60,47,-13
1491088414353,2,10,-13,-9,-15,4,18,-10,27
1491088414353,2,-32,13,20,-6,2,-37,-42,-47
1491088414354,3,15,-7,-9,2,-13,30,112,37
1491088414354,3,15,6,-6,-3,-40,-60,79,0
1491088414389,0,-21,14,6,-1,23,31,-96,-20
1491088414389,0,8,-1,7,3,17,36,-71,-13
1491088414390,1,0,-4,4,19,8,18,106,73
1491088414390,1,-7,-9,-3,-3,-17,-29,-128,-30
1491088414391,2,22,1,0,1,-9,-15,95,14
1491088414391,2,-24,-2,-10,-5,-7,-6,-89,-22
1491088414427,3,9,6,8,5,15,12,-102,-41
1491088414427,3,12,-14,-12,-13,-30,12,88,47
1491088414428,0,6,-11,-17,-51,-10,3,24,-38
1491088414428,0,7,11,4,30,6,-47,-94,-20
1491088414428,1,1,-23,2,5,13,36,90,33
1491088414428,1,-18,-6,7,11,31,34,-71,-67
1491088414429,2,12,-6,-8,-9,-43,-55,-19,-10
1491088414429,2,-11,-3,0,-16,-11,48,26,4
1491088414464,3,-14,-1,15,16,18,-66,-121,-28
1491088414464,3,-7,16,-14,8,-17,-13,95,39
1491088414466,0,-15,-17,-11,-38,-20,-19,-60,-17
1491088414466,0,18,-4,-9,-14,2,33,120,4
1491088414467,1,3,21,14,22,4,-2,-62,22
1491088414467,1,5,1,10,-7,29,54,19,44
1491088414467,2,-27,-15,-5,14,2,-2,38,-16
1491088414467,2,41,18,8,26,0,-49,-76,16
1491088414502,3,13,-11,-10,-36,-10,24,-49,18
1491088414502,3,18,-7,-18,-32,-25,-75,-98,-91
1491088414503,0,-12,6,1,18,5,-4,-14,35
1491088414503,0,-19,-16,-6,-12,-10,-9,117,27
1491088414503,1,3,-4,16,1,-8,-4,68,-31
1491088414503,1,19,13,6,24,21,34,-14,23
1491088414504,2,-16,-4,-1,13,14,13,25,-3
1491088414504,2,-7,-10,18,-2,-19,-66,-116,-39
1491088414539,3,9,-11,-6,-7,32,13,-41,20
1491088414539,3,28,-16,-4,1,8,17,68,-3
1491088414541,0,-3,-2,14,4,-19,18,7,28
1491088414541,0,11,11,-7,-8,-11,-51,-94,-15
1491088414542,1,-9,6,-11,-11,-27,-11,-62,-45
1491088414542,1,-28,-1,1,-2,16,20,22,9
1491088414577,2,10,11,14,14,-4,-26,-12,47
1491088414577,2,-24,0,-3,22,31,43,-56,-32
1491088414578,3,6,4,4,1,-26,-22,63,24
1491088414578,3,-26,-19,-10,-18,-3,37,-12,-14
1491088414579,0,12,5,6,11,30,44,-11,1
1491088414579,0,0,-7,-18,-30,-29,-17,93,15
1491088414579,1,-34,5,16,-1,38,12,-99,-16
1491088414579,1,8,14,-3,22,44,9,51,34
1491088414614,2,48,-2,-7,-5,-77,-79,-41,9
1491088414614,2,-2,1,1,-19,8,2,-65,-7
1491088414615,3,-17,-19,-21,14,2,15,5,-17
1491088414615,3,-3,17,17,-15,-43,-60,-76,-30
1491088414616,0,28,-1,-2,15,47,47,2,1
1491088414616,0,-2,-8,-13,-9,-39,-35,38,15
1491088414617,1,9,-30,-18,-34,16,46,125,5
1491088414617,1,-24,5,-9,4,-18,-17,-109,5
1491088414652,2,2,11,8,23,46,4,-118,-11
1491088414652,2,-5,1,14,8,-1,25,21,-15
1491088414657,3,-5,21,9,-37,-41,-1,52,10
1491088414657,3,-10,-12,1,37,14,-34,-72,-39
1491088414658,0,-23,-3,-13,-24,-46,-28,-52,-40
1491088414658,0,27,28,-7,11,22,13,59,43
1491088414659,1,-7,-18,35,-21,15,50,70,6
1491088414659,1,46,2,0,26,9,-15,-103,-21
1491088414689,2,-27,1,-19,-36,-68,-47,49,-29
1491088414689,2,-1,-5,-18,-17,20,49,6,-2
1491088414690,3,23,-10,-7,32,23,6,-111,-12
1491088414690,3,-46,7,3,-6,-26,14,-20,-20
1491088414691,0,-1,-14,-10,-31,8,-8,97,21
1491088414691,0,10,1,2,-5,-36,-65,-105,-31
1491088414727,1,1,-7,-12,13,2,36,94,50
1491088414727,1,-16,-8,19,-11,2,-1,-48,2
1491088414728,2,-5,5,4,18,2,-3,-40,-15
1491088414728,2,-9,-4,15,17,29,17,-55,-15
1491088414729,3,-8,27,3,4,-29,-85,-128,-35
1491088414729,3,3,-22,-14,-34,8,70,110,64
1491088414730,0,-42,14,15,-3,-33,-1,-33,-73
1491088414730,0,23,-1,4,4,25,-30,-55,36
1491088414802,1,8,-30,-27,-16,14,13,-50,-35
1491088414802,1,-7,-3,8,1,6,40,67,2
1491088414804,2,11,9,17,29,23,-10,-22,25
1491088414804,2,-14,1,-17,-14,-42,-13,-60,-33
1491088414805,3,-12,30,22,47,34,10,-48,59
1491088414805,3,24,-12,-17,-28,17,-2,59,-16
1491088414806,0,-38,-9,-19,-26,-37,-28,-19,-11
1491088414806,0,17,-15,0,-7,-6,15,-62,-38
1491088414840,1,9,-2,-13,-3,-25,3,113,67
1491088414840,1,-7,12,17,21,-6,-39,-83,-25
1491088414841,2,21,5,9,23,63,27,-17,56
1491088414841,2,0,0,1,-4,-5,19,54,22
1491088414842,3,1,-3,-3,0,-4,-20,-56,-40
1491088414842,3,-23,14,12,7,15,-1,-7,-4
1491088414843,1,8,3,10,-5,-13,-17,-1,1
1491088414843,1,-22,1,-34,-7,-29,-38,-40,-13
1491088414877,2,-3,-11,38,30,26,6,-7,9
1491088414877,2,-1,-12,-15,-30,-24,27,12,-13
1491088414878,3,3,9,5,22,23,3,-54,-4
1491088414878,3,7,-12,-2,-3,-27,-29,61,15
1491088414880,0,22,7,-13,-22,9,22,0,-8
1491088414880,0,5,-15,-2,19,19,19,80,24
1491088414881,1,-38,1,-4,1,-20,-54,-97,-63
1491088414881,1,13,-4,-5,-15,2,35,64,78
1491088414915,2,7,1,-4,5,3,12,-62,0
1491088414915,2,-18,3,12,13,2,4,-11,16
1491088414917,3,-2,19,-20,-45,-21,-20,-128,-44
1491088414917,3,11,-5,-5,50,13,-24,37,-9
1491088414919,0,-24,-7,0,-16,-16,-18,-12,-11
1491088414919,0,3,-4,-19,-9,3,-24,-18,-1
1491088414920,1,-11,-7,2,-21,-10,23,115,17
1491088414920,1,6,-9,-2,-26,19,23,-59,-15
1491088414952,2,-25,1,-4,13,-3,-3,70,9
1491088414952,2,8,-5,-5,8,14,-9,-128,-36
1491088414953,3,16,0,-1,10,-20,-32,121,93
1491088414953,3,-6,5,1,-8,-2,56,71,24
1491088414954,0,7,-10,-2,-19,0,-1,-87,-69
1491088414954,0,-24,-2,5,-2,30,20,-20,-33
1491088414956,1,15,-10,-7,-3,-22,-30,32,-3
1491088414956,1,-8,-1,-1,1,-9,-35,-89,16
1491088414990,2,12,8,11,6,1,-3,-43,-5
1491088414990,2,7,15,-12,13,21,-10,-15,5
1491088414992,3,-21,-27,20,-12,-6,14,-16,-48
1491088414992,3,0,6,5,-8,-37,-39,-128,-19
1491088414993,0,0,-13,-11,-11,9,34,127,53
1491088414993,0,2,10,2,9,-2,-11,-86,0
1491088414994,1,13,-8,-1,23,13,6,75,15
1491088414994,1,-21,16,3,-16,-10,-15,-128,-91
1491088415027,2,21,-16,-3,3,30,67,102,46
1491088415027,2,-26,3,4,-26,-17,-35,-60,31
1491088415028,3,12,-7,-22,2,-35,-7,-78,-22
1491088415028,3,12,-10,-4,-2,-2,-11,-50,-14
1491088415029,0,9,-10,-8,13,-1,-20,44,-16
1491088415029,0,5,9,-8,-4,-4,11,58,18
1491088415030,1,-18,8,18,-5,25,-5,-93,-20
1491088415030,1,11,9,-3,-9,-12,-14,-15,28
1491088415065,2,-13,-7,-6,-20,-8,21,-32,-42
1491088415065,2,8,-12,2,24,-15,-5,71,33
1491088415067,3,-20,-10,-20,-13,1,-12,-56,-37
1491088415067,3,13,9,15,19,20,19,-59,-1
1491088415068,0,25,11,1,-3,-3,-30,-55,4
1491088415068,0,-13,-9,18,-2,0,43,14,25
1491088415069,1,-11,-1,-14,7,27,79,92,-32
1491088415069,1,37,-10,4,-24,-9,-33,42,29
1491088415103,2,-15,17,-6,1,-2,-23,-112,2
1491088415103,2,-17,-9,7,10,-5,1,86,5
1491088415105,3,6,7,2,0,8,3,-25,-17
1491088415105,3,-11,-14,-15,23,28,10,68,4
1491088415106,0,-21,2,-8,-13,-49,-47,-128,-18
1491088415106,0,10,-6,4,-23,-10,-2,49,7
1491088415107,1,1,-8,-15,-6,5,11,31,22
1491088415107,1,-26,2,12,21,6,-20,-74,-50
1491088415140,2,6,13,8,20,0,7,98,58
1491088415140,2,2,-7,-6,-17,28,62,82,-6
1491088415142,3,10,15,-5,-4,-20,-39,-39,8
1491088415142,3,-5,-8,4,-11,1,29,25,-3
1491088415143,0,0,0,-3,21,22,-1,-66,-24
1491088415143,0,-13,17,20,10,18,-36,-87,-39
1491088415144,1,16,10,-2,-24,-49,-69,58,29
1491088415144,1,-28,-18,-17,18,-24,-18,-103,17
1491088415177,2,5,-26,-20,-32,7,36,127,28
1491088415177,2,-1,-3,-19,-48,-59,-30,-84,-19
1491088415180,3,0,-14,1,39,45,24,61,22
1491088415180,3,-24,21,17,31,12,-23,-29,6
1491088415181,0,2,25,12,-70,-55,-45,-119,-30
1491088415181,0,-12,0,19,116,64,-27,-121,-82
1491088415182,1,23,4,-4,-84,-30,75,71,66
1491088415182,1,34,-50,-56,-72,-9,-26,-1,7
1491088415215,2,0,-31,12,31,42,5,-41,-29
1491088415215,2,-16,52,1,-121,-113,-87,-110,-8
1491088415217,3,-14,-10,1,117,19,14,14,32
1491088415217,3,-14,9,17,2,20,38,104,-23
1491088415219,0,-3,-16,-13,3,58,34,-37,44
1491088415219,0,18,24,54,72,35,44,32,-81
1491088415222,1,-11,72,36,-92,-75,-68,-81,-37
1491088415222,1,33,-26,-33,75,1,30,127,70
1491088415253,2,7,-42,-1,-70,32,51,114,-72
1491088415253,2,41,-42,-61,67,31,-22,121,127
1491088415254,3,-6,-54,-34,-95,-63,-91,-51,-39
1491088415254,3,-4,-33,24,102,84,20,30,49
1491088415255,0,-33,-3,26,-6,9,-12,-103,-49
1491088415255,0,24,-5,-27,-73,13,100,125,-53
1491088415290,1,37,-17,0,-29,-58,-70,-128,15
1491088415290,1,-23,-18,13,-21,1,-39,-112,26
1491088415291,2,-55,13,-34,115,-84,-47,-112,-72
1491088415291,2,28,-50,3,-67,65,110,95,69
1491088415292,3,-11,23,38,82,5,-33,-107,-46
1491088415292,3,-8,29,-15,-37,-59,91,-116,27
1491088415293,0,62,3,23,-41,-12,87,120,48
1491088415293,0,-71,-2,-17,81,-60,-108,-128,-7
1491088415327,1,-16,11,23,121,127,26,127,-81
1491088415327,1,23,-32,-58,-128,-128,-115,-93,32
1491088415330,2,-9,-9,31,-56,98,91,51,18
1491088415330,2,32,-1,-19,-10,72,-11,-28,-53
1491088415331,3,-26,-35,-24,62,-85,-62,3,62
1491088415331,3,11,-18,-6,8,-51,-61,127,-128
1491088415332,0,7,-14,39,37,-11,6,-103,84
1491088415332,0,-14,17,-3,-51,3,26,72,35
1491088415365,1,3,-68,-44,-102,-1,127,55,-20
1491088415365,1,20,62,34,7,16,-106,5,-99
1491088415367,2,-9,11,-48,56,-27,-38,-65,3
1491088415367,2,-48,95,38,-6,31,-88,-6,7
1491088415368,3,-35,127,21,51,-59,-55,-121,19
1491088415368,3,31,-15,-1,-52,57,83,92,26
1491088415369,0,22,22,-28,44,2,7,25,5
1491088415369,0,18,-33,0,-50,36,24,16,54
1491088415403,1,-10,-8,-18,-114,0,-26,-49,29
1491088415403,1,-46,16,-21,126,-48,-99,66,-9
1491088415404,2,-55,30,21,74,29,-62,-37,-1
1491088415404,2,101,-7,14,-74,-99,-6,-68,49
1491088415405,3,-5,-35,-6,84,72,11,37,-11
1491088415405,3,-39,49,66,-11,3,-9,-47,10
1491088415440,0,-10,-9,-28,53,62,43,77,-65
1491088415440,0,-28,-96,-41,14,-128,-108,-54,-1
1491088415442,1,41,16,-4,-56,-18,127,30,-95
1491088415442,1,29,-43,9,-24,90,-81,76,32
1491088415443,2,-23,21,-49,-128,-2,-36,-7,-32
1491088415443,2,-47,15,41,127,127,3,30,-22
1491088415444,3,58,34,101,99,55,93,26,-66
1491088415444,3,-5,16,-100,-52,-70,-80,-95,69
1491088415478,0,-59,-33,11,24,-66,-126,127,24
1491088415478,0,63,-9,22,50,82,114,-98,-4
1491088415480,1,-98,-21,-41,-87,-82,-116,-19,-65
1491088415480,1,60,38,63,107,101,50,63,-4
1491088415481,2,-22,22,8,-82,11,-12,35,18
1491088415481,2,6,23,0,-18,-28,44,-106,-65
1491088415482,3,-11,-44,-37,-47,127,-79,93,32
1491088415482,3,-93,-8,-31,2,-101,-15,-83,-1
1491088415515,0,67,61,85,-42,91,25,6,-4
1491088415515,0,-7,-14,-51,5,-68,35,127,33
1491088415517,1,-11,13,29,72,-32,42,-101,-35
1491088415517,1,51,33,-12,-86,-83,-25,-72,-65
1491088415518,2,-38,-37,7,52,-128,55,37,-13
1491088415518,2,10,23,21,28,-58,-109,-16,50
1491088415519,3,-18,-18,-58,74,66,42,-88,29
1491088415519,3,-21,-30,-9,-23,-62,-17,-116,-49
1491088415552,0,19,11,-26,27,30,10,-56,27
1491088415552,0,-61,25,4,-128,-110,-57,67,7
1491088415553,1,75,-8,-10,20,19,-119,35,39
1491088415553,1,36,-33,65,127,82,114,5,86
1491088415555,2,-16,48,-23,-128,-128,-68,22,-91
1491088415555,2,-35,-45,-21,77,72,-42,1,70
1491088415590,3,-34,-32,20,70,-62,3,31,2
1491088415590,3,41,57,-22,-128,-31,-30,81,66
1491088415593,0,24,-82,-97,-80,-128,-128,-122,70
1491088415593,0,-3,4,53,127,64,46,43,-53
1491088415594,1,-7,32,55,-74,-128,107,41,-47
1491088415594,1,14,11,-32,-75,-33,-63,18,19
1491088415595,2,-33,-44,1,78,116,127,-81,-91
1491088415595,2,13,33,31,56,-12,-79,-128,-61
1491088415627,3,32,19,-24,-93,-55,74,63,63
1491088415627,3,6,-31,-14,84,92,20,-25,-114
1491088415630,0,-4,11,30,86,-65,-128,17,28
1491088415630,0,3,-61,-45,-110,-21,82,45,-13
1491088415631,1,9,25,0,-4,-21,-87,-68,21
1491088415631,1,-128,-6,-6,-24,-31,80,78,-8
1491088415632,2,117,50,89,81,127,95,34,9
1491088415632,2,13,-24,-90,24,-3,-46,-71,51
1491088415665,3,-69,21,45,-21,-83,-29,-90,66
1491088415665,3,21,-16,1,66,97,113,102,-81
1491088415666,0,23,-28,-36,-28,-69,3,64,25
1491088415666,0,-19,30,25,35,4,127,-11,-76
1491088415667,1,-58,-36,-50,-4,46,-108,-85,42
1491088415667,1,70,20,36,59,34,-43,-60,74
1491088415668,2,69,-25,20,18,46,109,127,-21
1491088415668,2,-41,54,25,-112,-72,-97,32,-33
1491088415702,3,-25,-82,-91,77,14,-59,-60,-3
1491088415702,3,7,-6,84,15,-55,32,73,-30
1491088415704,0,-42,42,-22,-114,0,-128,-128,10
1491088415704,0,2,-6,32,33,43,101,-55,28
1491088415704,1,-17,42,-11,-18,-2,-90,-24,-18
1491088415704,1,-9,-71,-65,-40,28,117,50,80
1491088415739,2,-35,-14,65,70,14,116,-58,-89
1491088415739,2,18,-25,-39,-87,-25,-97,-18,4
1491088415740,3,57,13,44,-62,77,58,33,-59
1491088415740,3,-23,46,23,84,-67,-128,-27,1
1491088415741,0,-71,-59,-65,-78,2,60,-10,51
1491088415741,0,9,1,6,100,48,-35,-89,-12
1491088415742,1,47,5,54,48,-4,127,81,-26
1491088415742,1,23,48,-9,-2,-10,-30,-57,-6
1491088415777,2,-18,-26,-37,-9,-36,-127,24,92
1491088415777,2,-73,8,-15,61,33,-66,-45,-68
1491088415777,3,35,-18,-19,-83,-1,-3,73,81
1491088415777,3,-7,0,79,76,108,127,27,-59
1491088415778,0,57,46,-34,-21,-85,-98,-12,15
1491088415778,0,-5,-59,-85,-85,-44,34,-23,63
1491088415779,1,-70,43,24,89,79,27,92,-19
1491088415779,1,0,-48,-41,-6,52,-18,40,-35
1491088415814,2,91,32,31,-8,27,118,68,49
1491088415814,2,2,70,64,-57,-95,45,8,-49
1491088415815,3,-36,-58,-52,115,29,-44,-115,16
1491088415815,3,-15,-10,-25,-128,-128,-70,115,4
1491088415816,0,-14,-25,-19,127,81,-24,-126,-20
1491088415816,0,-31,-15,51,-58,-77,120,-7,-21
1491088415852,1,22,64,28,-77,-74,-40,-32,-111
1491088415852,1,-40,-20,-38,-87,-22,-51,-77,58
1491088415853,2,6,-48,-30,63,14,7,111,-50
1491088415853,2,42,4,-9,36,42,-39,-26,48
1491088415853,3,-66,4,-7,1,-11,-48,-89,-64
1491088415853,3,-55,-21,-14,-70,-36,76,-74,60
1491088415854,0,45,12,15,-31,-50,51,72,18
1491088415854,0,-29,7,-95,-110,-55,-8,-3,9
1491088415889,1,66,-46,-50,49,62,-80,-102,86
1491088415889,1,-26,14,42,82,65,96,-128,-51
1491088415904,2,-29,-11,-5,10,3,-92,68,36
1491088415904,2,-56,-22,17,1,22,-5,77,-47
1491088415905,3,89,15,17,-54,-46,6,-32,93
1491088415905,3,-15,13,-13,-108,21,16,122,-18
1491088415906,0,-30,36,6,-73,-6,81,-128,-63
1491088415906,0,9,-47,23,127,104,11,-25,66
1491088415927,1,-50,-71,-37,-111,-68,35,29,-48
1491088415927,1,40,27,21,40,-5,104,47,-78
1491088415928,2,8,57,18,-66,-75,-46,-21,-24
1491088415928,2,16,6,-12,-38,-4,-17,50,12
1491088415929,3,96,22,44,-6,69,85,25,-19
1491088415929,3,-44,-30,-42,107,-42,-88,-78,-9
1491088415930,0,-46,-42,-48,-13,66,-37,-27,3
1491088415930,0,-4,31,33,69,40,-128,-106,19
1491088415964,1,-10,-18,-2,-4,127,127,107,33
1491088415964,1,24,44,28,-84,83,33,32,-97
1491088415965,2,-12,1,71,91,127,4,-20,-27
1491088415965,2,35,-27,-41,-62,9,-91,13,26
1491088415966,3,-31,-21,-30,30,-99,4,-24,-16
1491088415966,3,42,39,78,46,-63,-46,-6,70
1491088416002,0,-12,-29,-93,21,-128,40,83,39
1491088416002,0,14,-7,7,35,-120,-58,-68,14
1491088416003,1,-23,51,39,-12,-125,47,95,-67
1491088416003,1,-68,-73,-24,12,-47,-128,1,26
1491088416004,2,85,16,41,46,20,78,54,-17
1491088416004,2,71,5,18,-14,42,104,46,-42
1491088416005,3,-15,14,36,87,102,-64,-128,-42
1491088416005,3,-24,-12,-42,17,77,-98,-56,45
1491088416039,0,-56,20,48,-23,30,33,-5,-5
1491088416039,0,-40,-23,-16,10,71,-46,-76,-38
1491088416041,1,15,30,-33,-79,71,95,94,-62
1491088416041,1,3,-29,-1,5,13,-3,-53,26
1491088416042,2,-9,-16,12,75,91,-18,11,20
1491088416042,2,-6,3,-11,-11,94,29,9,-38
1491088416042,3,16,34,11,9,127,88,29,-7
1491088416042,3,48,-12,13,52,80,-21,25,46
1491088416077,0,-2,6,-69,-128,-77,-36,47,-34
1491088416077,0,-35,-32,14,-27,-35,-39,-44,12
1491088416079,1,-14,-21,-39,34,45,-80,-69,33
1491088416079,1,-14,5,-24,-57,46,113,81,-54
1491088416081,2,14,6,35,-53,0,-37,-84,-17
1491088416081,2,13,-37,-43,-3,-75,-45,28,47
1491088416082,3,-17,-9,-12,-76,-43,13,-9,27
1491088416082,3,69,49,60,43,36,120,-98,-95
1491088416115,0,-41,-19,-17,-66,-47,64,67,95
1491088416115,0,-8,-49,-47,75,-2,-59,-21,31
1491088416116,1,-3,-12,-16,75,-60,3,6,62
1491088416116,1,-26,16,47,-92,32,7,-72,-34
1491088416118,2,-3,42,77,-18,113,127,83,-39
1491088416118,2,-6,-9,-20,42,-99,-81,-51,71
1491088416152,3,-16,-5,101,3,93,103,22,-78
1491088416152,3,-17,-9,-28,30,-17,29,72,34
1491088416154,0,9,-37,8,-20,30,-34,-128,-35
1491088416154,0,12,45,82,17,97,127,127,-70
1491088416155,1,-35,-11,-61,-42,-58,-119,-111,0
1491088416155,1,26,-46,-41,38,-127,73,37,78
1491088416156,2,-25,0,25,79,-71,-73,-80,2
1491088416156,2,3,25,7,-112,-40,90,47,-73
1491088416190,3,1,-32,62,18,-17,-79,111,63
1491088416190,3,-4,22,51,-2,63,26,12,-3
1491088416192,0,-17,-52,-83,25,28,-19,-24,5
1491088416192,0,16,52,111,-8,85,-29,-51,11
1491088416193,1,-16,-16,4,46,41,29,127,-3
1491088416193,1,-21,-3,-48,-44,-28,-95,-60,16
1491088416194,2,58,11,2,115,-32,-9,30,-62
1491088416194,2,-28,28,96,112,-57,72,53,-75
1491088416227,3,14,-12,-77,-89,-124,13,-49,107
1491088416227,3,-25,-67,-11,-6,82,-77,36,32
1491088416229,0,-46,24,0,-11,107,91,-128,-118
1491088416229,0,18,-33,-44,-14,42,3,127,68
1491088416230,1,-10,34,11,34,-21,-30,-101,-28
1491088416230,1,-16,8,-39,91,-59,108,59,-44
1491088416231,2,36,10,-39,-113,-75,-11,-37,42
1491088416231,2,-5,16,35,8,-25,8,-27,-16
1491088416265,3,1,-29,19,-11,-24,-19,-22,-17
1491088416265,3,11,37,16,-68,-59,-70,-97,-8
1491088416267,0,-33,-37,-70,54,-21,-13,18,-67
1491088416267,0,14,21,22,-97,-49,37,-32,-9
1491088416268,1,22,-22,53,-59,-79,-1,28,-16
1491088416268,1,5,47,53,23,-127,-32,-40,-33
1491088416302,2,29,2,25,-96,-124,-56,4,74
1491088416302,2,-84,27,-87,61,73,92,-106,-37
1491088416303,3,52,-6,-6,-43,-92,-27,28,-43
1491088416303,3,38,-35,4,3,56,120,-48,-8
1491088416304,0,-18,13,3,42,70,-22,-100,14
1491088416304,0,-2,-22,-28,-6,52,49,80,-27
1491088416305,1,35,52,32,102,127,28,20,38
1491088416305,1,17,18,-46,-14,-21,-96,76,33
1491088416340,2,4,-32,-15,7,-11,-24,10,-31
1491088416340,2,44,36,91,-11,85,-87,-35,8
1491088416342,3,3,-17,21,-29,-70,-30,-27,8
1491088416342,3,1,26,-44,-42,-62,-43,18,18
1491088416343,0,-6,-9,65,-21,68,-75,6,65
1491088416343,0,11,30,11,12,-91,95,64,-29
1491088416344,1,-6,48,2,41,127,-6,28,15
1491088416344,1,-5,-19,9,-4,-56,57,2,-22
1491088416377,2,-23,28,8,22,91,75,90,-55
1491088416377,2,12,-42,-64,-60,-128,-84,-63,52
1491088416378,3,-15,-17,-39,-67,123,104,-38,-90
1491088416378,3,-14,-7,-30,-24,-64,-14,-33,-51
1491088416379,0,13,-8,-17,-18,-96,92,110,60
1491088416379,0,-14,-30,-19,-40,31,22,-10,-39
1491088416381,1,-20,6,-18,25,-125,-51,-82,8
1491088416381,1,-17,15,-22,40,3,-37,-48,17
1491088416415,2,4,2,27,27,31,15,-28,-11
1491088416415,2,13,50,-32,32,98,25,10,17
1491088416417,3,41,-23,-33,18,-68,-116,-8,108
1491088416417,3,-5,-8,-10,24,123,118,50,-30
1491088416417,0,-20,-2,-29,8,-107,-103,-67,-11
1491088416417,0,-28,-63,-49,-41,61,68,74,-18
1491088416452,1,-19,19,-22,69,100,-41,-35,-12
1491088416452,1,1,8,-34,-74,73,110,87,20
1491088416454,2,1,9,-11,2,-124,-95,-84,111
1491088416454,2,-14,-8,-18,-20,-6,-107,127,-2
1491088416455,3,-35,-27,-26,-14,69,127,-27,-86
1491088416455,3,9,-1,44,70,116,-92,-53,10
1491088416456,0,-5,33,69,100,84,-50,56,20
1491088416456,0,-8,40,-33,-81,13,60,49,13
1491088416490,1,5,25,-14,-46,-114,90,104,35
1491088416490,1,3,-16,-14,13,-99,-105,-128,-12
1491088416492,2,40,40,19,-80,16,-1,125,66
1491088416492,2,15,2,67,127,59,85,-124,-54
1491088416494,3,-10,-11,4,27,-48,-6,64,-19
1491088416494,3,-22,13,18,-66,29,-17,-38,-4
1491088416495,0,-17,-41,-39,82,-1,119,59,-54
1491088416495,0,22,-16,0,-54,-53,-107,-91,3
1491088416528,1,2,-18,-8,13,38,8,56,16
1491088416528,1,-6,10,80,-51,65,119,81,-63
1491088416530,2,-3,-38,-87,-40,-94,-47,-38,54
1491088416530,2,20,4,2,69,-104,-93,-59,76
1491088416532,3,-40,-3,10,-41,94,119,98,-72
1491088416532,3,-8,18,67,103,35,90,50,-33
1491088416533,0,-26,-14,-4,-90,-15,-28,-60,-49
1491088416533,0,-10,-23,-72,-27,-82,127,72,9
1491088416565,1,-28,16,40,26,60,-128,47,41
1491088416565,1,25,-31,-6,10,-109,45,-101,-71
1491088416566,2,-35,59,22,-95,5,61,-18,-62
1491088416566,2,-15,-16,65,97,6,22,97,80
1491088416566,3,16,-25,-81,-43,21,99,-108,-104
1491088416566,3,-14,-51,-70,-34,-107,-97,82,87
1491088416602,0,-17,0,39,34,123,127,-27,-38
1491088416602,0,-41,40,49,-7,-6,56,50,5
1491088416603,1,-1,-11,-42,-70,-38,9,11,0
1491088416603,1,47,-10,-21,68,90,-97,7,37
1491088416604,2,-13,-3,33,-84,-64,80,-4,-13
1491088416604,2,-3,-38,-33,-8,-17,-97,-1,20
1491088416604,3,29,62,111,118,91,127,83,38
1491088416604,3,-25,13,-121,-55,-63,-49,-77,50
1491088416639,0,2,-40,0,-5,-30,-116,-70,75
1491088416639,0,-7,45,-5,-12,-7,40,63,-66
1491088416640,1,-1,45,1,-105,-128,-58,-128,-79
1491088416640,1,-12,-26,5,26,13,122,8,28
1491088416641,2,1,41,60,127,115,66,-61,12
1491088416641,2,-20,-74,-105,14,35,-54,-124,-31
1491088416642,3,41,-61,-68,-110,-128,42,-11,-13
1491088416642,3,13,71,89,92,69,60,76,-4
1491088416677,0,14,40,-16,-30,60,111,11,8
1491088416677,0,-45,5,-63,-33,-69,88,39,5
1491088416678,1,25,-67,5,-17,-50,-68,-78,56
1491088416678,1,-5,-19,-45,51,12,109,7,6
1491088416679,2,-58,-6,52,73,109,24,119,-53
1491088416679,2,46,33,43,47,-12,-64,-34,2
1491088416680,3,-52,-18,-50,-31,84,10,-32,-1
1491088416680,3,40,24,-17,-128,-128,-128,-65,47
1491088416714,0,-1,-30,-17,-20,42,90,80,-43
1491088416714,0,-27,-3,63,24,127,126,-106,-37
1491088416715,1,22,6,18,22,79,-86,-50,89
1491088416715,1,-31,35,12,70,127,33,24,-122
1491088416716,2,10,-59,-110,-57,-128,-128,9,104
1491088416716,2,33,-27,-6,-106,84,54,18,20
1491088416752,3,-9,-10,4,101,65,61,40,6
1491088416752,3,-69,-20,65,-21,100,127,71,7
1491088416753,0,87,100,3,-3,-54,-30,57,-113
1491088416753,0,66,-65,-99,-112,-111,-107,-50,-21
1491088416754,1,-22,-7,13,-86,-105,104,1,35
1491088416754,1,24,-43,-19,-39,-18,72,7,-86
1491088416755,2,-11,-42,4,52,-27,-55,87,82
1491088416755,2,-5,-5,-20,-54,-103,88,-42,-42
1491088416789,3,0,13,28,-57,-96,-36,-45,33
1491088416789,3,-75,0,54,54,-128,68,7,-33
1491088416790,0,10,-15,-14,-91,-126,-27,-34,-54
1491088416790,0,53,39,-24,62,-17,-19,-38,37
1491088416791,1,-11,-5,23,127,61,73,117,-65
1491088416791,1,-19,10,-7,30,51,-47,-86,106
1491088416792,2,23,25,56,-104,112,127,70,-6
1491088416792,2,47,-18,0,127,109,5,105,-5
1491088416827,3,-12,33,83,127,83,127,-18,-53
1491088416827,3,13,-16,-86,13,71,-112,-84,28
1491088416828,0,-32,-62,-33,-64,59,-4,-67,29
1491088416828,0,-12,24,45,59,57,127,-7,-102
1491088416829,1,21,6,-62,-37,52,-128,-64,-45
1491088416829,1,26,-8,62,19,30,67,19,21
1491088416864,2,-19,-13,-38,12,29,-48,-2,-41
1491088416864,2,-20,4,18,-110,22,41,48,41
1491088416865,3,-47,7,2,31,28,110,13,-104
1491088416865,3,34,20,-20,-118,4,-115,41,-15
1491088416866,0,-16,-68,-35,59,-9,95,-59,-21
1491088416866,0,-25,17,9,71,121,-128,-93,82
1491088416867,1,37,-10,-23,-95,-64,59,106,7
1491088416867,1,29,27,46,65,71,70,-70,-15
1491088416902,2,-5,-4,-1,-1,34,45,72,-38
1491088416902,2,-23,12,-15,-80,57,-95,98,22
1491088416903,3,-16,-31,5,-70,22,63,-8,20
1491088416903,3,-40,-45,-11,127,88,16,12,-1
1491088416903,0,108,68,53,-66,-86,83,19,74
1491088416903,0,-67,-13,-4,122,74,2,17,27
1491088416904,1,16,1,-50,-49,-85,-89,45,53
1491088416904,1,-22,14,57,27,29,-31,127,-7
1491088416940,2,-38,-14,-81,-13,-32,-48,-69,50
1491088416940,2,38,-25,30,-7,30,32,-22,-38
1491088416941,3,-32,-4,-36,42,-13,-32,86,5
1491088416941,3,-23,-36,23,-13,1,47,-76,21
1491088416942,0,-57,62,6,125,127,-38,92,-19
1491088416942,0,41,22,-3,-90,-126,-41,-112,72
1491088416943,1,76,2,-1,17,34,46,-52,63
1491088416943,1,-45,27,6,9,-58,30,71,-109
1491088416977,2,-26,-11,-3,-47,33,-32,-13,-6
1491088416977,2,-28,-19,-5,-105,-75,81,99,-112
1491088416979,3,-16,-12,-12,48,-15,-113,-41,81
1491088416979,3,6,-27,-58,-22,-11,48,89,74
1491088416980,0,46,4,-18,-29,-112,-36,-128,-55
1491088416980,0,-6,30,57,92,81,127,127,-26
1491088417015,1,-19,-50,-20,-92,5,-128,-112,1
1491088417015,1,-43,40,-1,-58,-25,49,52,68
1491088417016,2,65,0,65,127,29,-56,-108,-67
1491088417016,2,-10,25,21,29,28,-49,64,-5
1491088417018,3,-76,-6,-8,21,27,48,-64,-50
1491088417018,3,40,-40,-59,-128,-87,48,41,0
1491088417019,0,-39,-23,-27,127,65,-18,-39,121
1491088417019,0,36,19,-12,-128,-121,16,-86,34
1491088417052,1,8,18,55,127,84,127,96,-55
1491088417052,1,-34,-3,-19,-66,42,-58,-70,-47
1491088417053,2,-41,12,48,-46,-93,7,23,-98
1491088417053,2,4,-21,-60,80,-8,56,-78,-7
1491088417054,3,-5,-26,7,19,-17,-27,-4,61
1491088417054,3,-23,39,0,-101,-85,11,-47,-91
1491088417055,0,14,-92,-32,80,14,127,94,-11
1491088417055,0,-88,25,48,67,52,-103,-102,86
1491088417089,1,-3,22,1,47,-57,-73,-69,-4
1491088417089,1,-29,-79,-53,-31,34,95,22,-41
1491088417090,2,-35,13,24,-50,15,-3,-118,-61
1491088417090,2,54,8,30,35,-27,-16,39,-89
1491088417091,3,38,42,-3,35,60,29,6,73
1491088417091,3,24,-13,-51,-42,-107,-61,-5,51
1491088417092,0,-49,-3,-5,-72,-51,-63,93,69
1491088417092,0,45,-20,-8,90,64,-77,-24,80
1491088417127,1,-55,-30,4,-112,-86,35,-48,-68
1491088417127,1,122,69,54,-29,45,69,76,13
1491088417128,2,-22,-4,-6,-51,76,-78,46,56
1491088417128,2,32,8,9,-35,1,126,64,-85
1491088417129,3,-29,-3,-36,-117,-4,-117,-107,102
1491088417129,3,29,-8,9,127,39,-29,53,34
1491088417164,0,-9,-1,-43,-2,-82,8,-74,-31
1491088417164,0,-88,-21,20,-36,-115,-97,-78,5
1491088417165,1,68,49,11,127,127,35,127,-38
1491088417165,1,-18,-25,8,-111,-90,56,-128,-83
1491088417166,2,47,24,35,95,115,69,66,85
1491088417166,2,-38,-24,-46,-102,-30,-105,88,-55
1491088417167,3,17,-48,-43,-71,-72,8,-52,1
1491088417167,3,-86,15,35,14,-5,-58,-59,24
1491088417202,0,105,14,1,17,10,40,99,17
1491088417202,0,-123,-25,-10,-2,51,127,-28,18
1491088417203,1,47,41,-5,-113,-66,-75,127,-36
1491088417203,1,-48,-81,-32,99,83,-96,-14,44
1491088417203,2,21,5,2,-29,-21,79,-96,20
1491088417203,2,63,31,-25,-3,-28,106,105,-10
1491088417204,3,-37,7,11,-18,-55,-59,-117,10
1491088417204,3,-25,1,4,-2,37,85,73,-47
1491088417239,0,-37,-12,-65,-39,-72,-124,-76,19
1491088417239,0,6,-16,8,54,-37,-73,57,-76
1491088417240,1,-3,32,55,73,127,127,-80,29
1491088417240,1,11,38,37,-24,-26,-113,127,-76
1491088417240,2,-28,-54,-61,-43,-40,-2,39,27
1491088417240,2,80,31,13,-128,-65,-108,-115,44
1491088417277,3,-15,-31,1,114,-43,-51,51,-40
1491088417277,3,-13,4,73,41,106,89,-91,50
1491088417278,0,-47,75,-35,3,-103,7,-58,-118
1491088417278,0,97,-93,-41,-101,-3,111,-102,120
1491088417279,1,-67,-34,-44,83,-21,69,127,68
1491088417279,1,83,8,73,71,58,-14,-56,-38
1491088417280,2,24,54,7,46,10,46,63,16
1491088417280,2,-40,7,-58,114,-43,71,88,-123
1491088417314,3,15,-3,10,-97,102,-13,3,80
1491088417314,3,56,-10,-115,-76,-128,-56,-109,2
1491088417315,0,25,-83,41,111,127,94,53,106
1491088417315,0,-62,60,17,-34,-23,-37,10,-37
1491088417315,1,-4,-27,-12,-86,-91,-96,-30,-88
1491088417315,1,62,76,43,-111,-115,64,15,-45
1491088417317,2,-38,-27,14,30,73,41,72,-90
1491088417317,2,43,-27,-73,-36,-63,-44,-21,127
1491088417352,3,8,-25,42,52,70,13,-65,-128
1491088417352,3,-15,24,-62,-92,-32,-90,55,-3
1491088417353,0,-29,0,5,-93,-93,-23,-128,-24
1491088417353,0,-91,26,93,127,64,7,-83,-15
1491088417353,1,1,16,-58,-3,75,56,-24,116
1491088417353,1,57,-63,-74,-22,-81,49,105,-53
1491088417354,2,-9,59,90,-92,-85,76,127,3
1491088417354,2,-124,-23,16,92,112,-64,22,-67
1491088417389,3,99,36,-23,-128,-128,-81,-15,28
1491088417389,3,-59,-54,-48,121,127,-37,-62,-36
1491088417390,0,10,18,37,-52,-124,103,32,-23
1491088417390,0,67,63,4,66,100,-74,4,-9
1491088417391,1,-53,-27,22,1,-50,127,22,6
1491088417391,1,-60,81,21,-50,-72,-45,39,76
1491088417392,2,92,-14,-30,-56,-20,-4,-120,-104
1491088417392,2,16,-20,-16,48,59,127,59,29
1491088417427,3,-15,-37,-23,-66,-37,27,-22,50
1491088417427,3,57,-41,-24,127,79,10,-54,92
1491088417428,0,38,84,95,-73,-88,-84,38,-78
1491088417428,0,-37,-41,-1,-1,12,127,-107,-82
1491088417429,1,44,0,-62,127,125,-89,127,62
1491088417429,1,-53,8,84,35,-31,96,-55,127
1491088417464,2,2,32,22,101,127,-104,-128,-100
1491088417464,2,36,-61,-43,-105,-77,86,127,24
1491088417465,3,20,26,32,-23,-47,-51,97,-42
1491088417465,3,-37,-31,-20,-28,-33,-110,-106,-7
1491088417466,0,19,11,65,127,127,47,-58,45
1491088417466,0,-27,16,-42,-81,-8,37,-93,-67
1491088417467,1,-38,-4,-24,-20,22,98,-65,22
1491088417467,1,41,-40,0,-38,55,75,-51,-123
1491088417502,2,-69,-68,-67,23,-28,-96,-65,106
1491088417502,2,-1,26,80,21,-19,54,47,88
1491088417503,3,-12,70,56,-82,-24,-18,86,-128
1491088417503,3,82,8,-33,-56,-76,-38,-44,114
1491088417503,0,-59,-97,-67,64,88,-31,100,1
1491088417503,0,22,-11,-86,-128,-29,-125,-24,74
1491088417509,1,-5,-2,41,127,64,95,78,17
1491088417509,1,43,13,-20,-103,-8,-121,13,-56
1491088417539,2,-16,13,-31,-114,-80,-53,23,-32
1491088417539,2,-34,0,28,-8,-128,-71,-17,87
1491088417540,3,41,-38,-7,127,70,21,-127,-99
1491088417540,3,-80,39,45,127,123,-10,93,67
1491088417541,0,9,-15,-65,-121,-73,-12,-58,24
1491088417541,0,40,-33,-16,15,1,-47,-6,14
1491088417542,1,-78,65,102,-73,-64,127,12,-87
1491088417542,1,6,13,-68,119,67,-54,-48,22
1491088417614,2,-16,-47,-43,51,15,74,67,74
1491088417614,2,-1,-13,18,-61,-5,82,20,-27
1491088417615,3,11,12,37,66,57,-116,35,69
1491088417615,3,24,41,13,-128,-115,127,38,-81
1491088417616,0,-42,-25,14,87,50,16,-65,17
1491088417616,0,-38,-16,-37,-20,-60,-110,63,-93
1491088417617,1,43,-46,-61,43,25,127,-128,91
1491088417617,1,-15,11,51,-6,-5,122,127,-98
1491088417652,2,-4,17,-20,-9,-28,62,-42,7
1491088417652,2,-17,16,12,35,33,-58,-112,28
1491088417689,3,3,-5,27,-31,47,58,93,-72
1491088417689,3,-73,5,-16,-83,-115,49,-24,-52
1491088417690,1,-31,-40,-79,-9,-32,-128,-14,49
1491088417690,1,25,-29,28,5,51,127,-14,-26
1491088417691,2,-56,28,53,-38,-85,-98,37,-67
1491088417691,2,94,-9,-28,-12,-22,127,71,12
1491088417692,3,-25,6,-14,-64,-20,-108,-121,24
1491088417692,3,-4,13,16,61,-28,39,-47,0
1491088417727,0,101,-14,-23,-35,73,-19,109,-6
1491088417727,0,-8,22,78,89,98,47,11,-99
1491088417728,1,-56,12,18,-79,-21,78,-64,5
1491088417728,1,-12,-28,-65,-13,-12,35,93,69
1491088417729,2,-68,67,28,-128,-120,-125,-45,-63
1491088417729,2,64,-70,-52,100,73,15,91,117
1491088417730,0,-51,-49,-92,-64,-82,35,-59,23
1491088417730,0,-21,-7,-25,-128,-67,-58,40,-37
1491088417764,1,-6,-4,-5,111,42,-116,-128,127
1491088417764,1,17,-4,29,59,16,4,106,-34
1491088417765,2,-31,65,72,14,14,-24,58,7
1491088417765,2,-11,3,23,-79,55,65,-26,-69
1491088417766,0,5,-3,61,80,105,123,127,11
1491088417766,0,40,35,-53,5,-16,-42,-51,27
1491088417767,1,-24,7,50,-34,-36,77,-7,-33
1491088417767,1,-48,19,-46,-109,-89,-128,10,-24
1491088417802,2,12,-64,-30,112,-2,50,-128,99
1491088417802,2,-17,-7,14,11,25,28,39,1
1491088417803,3,31,27,-38,-120,-110,115,111,-7
1491088417803,3,-4,15,86,127,88,69,-2,-73
1491088417805,0,50,26,-50,-120,22,57,60,47
1491088417805,0,-45,-20,13,113,-88,-103,-128,-28
1491088417806,1,5,-14,-51,-128,-81,54,127,-15
1491088417806,1,-59,-59,-10,109,-13,75,-128,3
1491088417839,2,39,86,100,13,23,88,38,-120
1491088417839,2,-42,-14,-52,65,41,-37,-92,6
1491088417841,3,33,34,72,58,-2,-31,127,51
1491088417841,3,-15,-25,-58,-41,-36,-13,-46,58
1491088417841,0,-8,-50,-28,-22,-88,-83,-40,28
1491088417841,0,14,74,105,-8,20,84,25,-80
1491088417842,1,5,2,-47,-22,55,-128,-53,6
1491088417842,1,-3,-12,13,39,-39,-68,91,61
1491088417877,2,17,-1,-49,-50,-40,83,-88,11
1491088417877,2,-11,-23,-31,63,35,-111,113,64
1491088417878,3,12,9,30,-10,26,127,-37,-10
1491088417878,3,3,13,19,56,82,-108,64,-17
1491088417879,0,-13,10,55,61,34,-20,-72,-42
1491088417879,0,13,27,-19,-128,89,81,30,10
1491088417880,1,33,-57,-59,36,77,-5,-61,-47
1491088417880,1,21,14,32,-66,-46,71,30,32
1491088417914,2,-12,-14,-18,111,95,-104,18,-50
1491088417914,2,-15,36,102,-15,-8,127,18,-55
1491088417916,3,-17,-24,-62,76,18,-128,-76,-65
1491088417916,3,-2,-34,29,21,83,111,-55,0
1491088417916,0,0,25,-5,-51,-17,112,41,-4
1491088417916,0,-1,2,43,-35,-107,-34,6,-42
1491088417917,1,3,21,25,41,-123,-14,63,-22
1491088417917,1,-5,34,35,81,34,-17,-73,-9
1491088417952,2,12,-29,-77,-65,114,-93,127,22
1491088417952,2,20,-13,-13,-5,105,-41,-110,19
1491088417954,3,-10,20,56,-54,61,2,55,-30
1491088417954,3,-9,-51,-81,-80,8,-60,-116,58
1491088417955,0,-5,3,10,-55,-16,19,-44,-38
1491088417955,0,16,-6,20,84,26,3,76,53
1491088417957,1,20,53,21,-78,-51,127,46,-99
1491088417957,1,-10,-18,-88,41,-57,-52,49,92
1491088417989,2,-6,-13,-1,-37,-86,21,2,19
1491088417989,2,-1,-43,-2,3,9,52,-67,-51
1491088417991,3,-12,13,75,-21,69,7,25,-14
1491088417991,3,14,5,36,-20,21,45,0,-49
1491088417991,0,-13,-23,12,74,43,-23,98,-16
1491088417991,0,0,-14,-35,88,-113,-81,-100,15
1491088417992,1,25,19,-42,-24,29,-46,26,101
1491088417992,1,-16,-7,-16,-63,-56,-79,-60,-31
1491088418027,2,-6,-6,42,49,50,45,48,7
1491088418027,2,-4,17,11,-10,-6,7,6,-50
1491088418028,3,-13,-21,-2,49,51,24,-23,-12
1491088418028,3,7,-13,-101,-75,-66,-26,-25,38
1491088418029,0,-8,-7,14,1,-27,40,-19,-2
1491088418029,0,-3,35,-24,-51,14,-7,35,-42
1491088418030,1,-7,-33,-50,29,-113,-74,-25,55
1491088418030,1,-14,-16,8,57,40,65,-28,-61
1491088418064,2,-9,46,24,-9,-88,-92,-100,23
1491088418064,2,23,9,45,-6,53,42,95,11
1491088418065,3,24,-7,-45,-23,-98,-30,-7,21
1491088418065,3,9,-13,48,116,86,35,-46,-15
1491088418066,0,-5,-4,-52,-62,-65,-15,-55,-10
1491088418066,0,-41,-23,-6,-17,-42,-64,-90,30
1491088418067,1,-24,19,28,24,79,60,15,-54
1491088418067,1,-9,-15,56,-67,-44,-13,9,-8
1491088418102,2,10,-6,-34,12,-5,27,6,-6
1491088418102,2,-1,27,8,-9,-4,17,34,27
1491088418103,3,-35,-7,-36,-22,3,-1,-4,-37
1491088418103,3,24,83,-78,-28,-11,-34,-39,13
1491088418104,0,17,36,19,38,-20,-58,-68,24
1491088418104,0,-1,-31,-16,-21,-34,43,96,49
1491088418104,1,14,-39,9,12,26,10,-47,-7
1491088418104,1,0,5,2,26,-5,4,-34,3
1491088418139,2,-80,-11,83,-16,-13,-6,-15,-29
1491088418139,2,68,-22,-94,-7,-16,-7,8,-24
1491088418140,3,70,-14,32,-6,-9,4,9,-8
1491088418140,3,-11,11,127,-12,10,19,45,10
1491088418141,0,-6,-6,-63,23,5,2,-28,14
1491088418141,0,-67,22,93,-18,-12,-14,23,25
1491088418177,1,-18,12,88,8,-2,16,6,1
1491088418177,1,69,1,13,-25,-11,19,4,-26
1491088418178,2,-5,-2,-32,23,36,18,35,4
1491088418178,2,-43,-19,-70,8,-19,25,-3,11
1491088418180,3,-24,-31,-92,16,4,-47,-83,21
1491088418180,3,16,14,-55,-53,-39,-16,0,6
1491088418181,0,32,9,-9,8,7,31,57,-10
1491088418181,0,26,-9,1,-14,3,-10,6,14
1491088418214,1,-24,2,0,13,17,-12,-44,-19
1491088418214,1,-34,-19,15,22,33,26,-38,-32
1491088418215,2,15,-39,18,-23,-74,-14,52,0
1491088418215,2,22,-10,-59,-18,-22,-36,-59,-7
1491088418216,3,-4,15,-36,-10,28,39,14,-4
1491088418216,3,3,-31,-39,43,46,-54,-13,-7
1491088418217,0,19,23,-29,11,22,49,34,39
1491088418217,0,-4,-18,-39,-21,-1,-29,-47,-14
1491088418252,1,-19,52,6,-5,44,59,28,-3
1491088418252,1,9,1,-58,57,-73,-93,-21,30
1491088418253,2,-13,-24,-20,-7,-33,98,-39,5
1491088418253,2,-5,-18,1,-32,-24,-121,15,16
1491088418253,3,-7,7,62,31,28,-27,11,19
1491088418253,3,-17,36,89,-85,81,70,42,-80
1491088418254,0,-4,-33,-17,101,-107,-114,16,75
1491088418254,0,5,22,73,59,66,-45,-75,15
1491088418289,1,-2,9,0,68,-92,-56,1,-32
1491088418289,1,-28,-3,-71,-102,-103,48,32,43
1491088418290,2,-15,6,29,78,28,-128,4,26
1491088418290,2,-18,9,1,5,-5,127,-3,25
1491088418291,3,-25,-14,5,-59,87,90,60,20
1491088418291,3,-21,63,111,55,125,-72,7,-24
1491088418327,0,-14,-31,-100,69,-98,7,-54,4
1491088418327,0,-3,-22,-62,-46,-56,-34,-41,34
1491088418330,1,-1,59,102,61,58,116,-24,-68
1491088418330,1,-18,-53,-128,-32,-126,-81,65,94
1491088418331,2,26,22,106,1,126,127,46,-115
1491088418331,2,8,24,86,23,23,89,-90,-36
1491088418331,3,5,-36,-60,-113,-114,-122,50,96
1491088418331,3,8,35,70,-21,28,23,-89,-127
1491088418364,0,-33,-98,-77,-14,-83,-5,-2,29
1491088418364,0,-5,-23,8,-1,71,112,57,49
1491088418365,1,2,-2,27,35,-15,-28,-49,5
1491088418365,1,2,58,50,28,28,127,46,-40
1491088418365,2,1,14,17,-128,-79,-76,45,-2
1491088418365,2,-7,19,0,76,65,51,17,-72
1491088418367,3,1,45,0,-113,10,40,-83,-36
1491088418367,3,-23,-51,-61,-44,-91,-82,83,3
1491088418402,0,-3,58,103,-108,113,127,-1,-107
1491088418402,0,3,-23,-60,-71,-128,-128,-83,-3
1491088418403,1,3,-22,-16,-2,-50,61,108,-2
1491088418403,1,-5,-27,-12,10,22,-26,98,7
1491088418403,2,9,-9,33,12,79,93,-38,-62
1491088418403,2,-1,71,30,-9,101,55,127,-53
1491088418404,3,28,-6,-43,-45,-64,-96,-128,30
1491088418404,3,-15,-71,-23,4,-45,66,-118,3
1491088418439,0,-15,0,-25,11,56,50,63,6
1491088418439,0,31,6,6,4,-85,-75,0,14
1491088418440,1,-1,-5,19,-35,26,127,-44,-53
1491088418440,1,6,14,-65,44,-97,-97,9,11
1491088418441,2,4,-25,24,66,65,-110,38,127
1491088418441,2,-29,-10,3,-52,-53,39,-5,-63
1491088418477,3,-19,-26,-18,-14,-41,16,102,55
1491088418477,3,12,37,39,-18,64,93,-102,8
1491088418478,0,-8,24,-29,-92,-90,110,25,-68
1491088418478,0,-16,14,17,101,101,38,108,-11
1491088418478,1,-26,2,0,-11,-97,-42,-106,-33
1491088418478,1,-33,-28,-6,111,-2,127,29,35
1491088418479,2,16,2,-60,-88,-69,-128,-128,25
1491088418479,2,-6,-6,57,60,-1,111,80,20
1491088418514,3,-21,-39,-106,127,100,-128,77,-73
1491088418514,3,55,27,73,-39,-23,-60,-75,19
1491088418515,0,9,-20,-7,-8,99,96,71,-18
1491088418515,0,27,11,49,-63,-128,28,-114,-35
1491088418516,1,-7,-14,-43,44,83,92,5,10
1491088418516,1,-25,-25,-3,90,-7,73,127,-2
1491088418517,2,78,49,32,-7,3,-57,-122,-46
1491088418517,2,7,-42,-46,88,-5,83,68,49
1491088418552,3,-19,8,33,-32,-36,11,59,-12
1491088418552,3,59,23,-21,-85,-39,127,73,-59
1491088418553,0,52,2,18,127,127,-99,-15,51
1491088418553,0,-2,-51,-75,-128,-49,30,-76,41
1491088418553,1,15,28,105,33,28,99,-86,32
1491088418553,1,-77,-23,-88,19,60,-114,-117,-12
1491088418554,2,44,-31,-16,-49,-66,109,101,-27
1491088418554,2,32,16,32,92,125,-9,-98,21
1491088418589,3,-20,-16,-28,-69,-87,-83,-59,85
1491088418589,3,36,32,100,-9,127,127,96,-54
1491088418590,0,-59,16,-14,-51,-71,-105,-8,5
1491088418590,0,13,-53,-35,121,97,87,-61,15
1491088418591,1,11,30,17,-128,0,90,121,-42
1491088418591,1,14,-2,9,-57,-90,-38,-103,15
1491088418627,2,-44,6,29,79,106,19,95,-45
1491088418627,2,-30,-27,-78,-128,-84,-128,-76,87
1491088418628,3,-18,-18,49,53,23,8,-25,-76
1491088418628,3,32,20,-8,-108,24,47,99,25
1491088418628,0,-31,-24,8,29,-128,98,52,18
1491088418628,0,59,36,11,-42,-102,-113,49,0
1491088418629,1,122,-28,-31,76,-78,-62,-84,97
1491088418629,1,117,1,68,-21,-109,102,-57,-95
1491088418664,2,103,-21,-85,66,56,-67,36,121
1491088418664,2,-48,-8,23,11,-71,79,-75,-6
1491088418665,3,-80,27,-25,-61,-39,106,25,-30
1491088418665,3,-120,-65,-34,20,64,-128,-29,52
1491088418666,0,-123,8,112,72,-33,120,-6,-128
1491088418666,0,-100,61,-78,-73,-44,-98,36,53
1491088418667,1,-69,-17,36,11,18,53,-10,-43
1491088418667,1,-87,57,84,124,85,3,86,-39
1491088418702,2,-83,-43,-80,-118,-35,66,-128,41
1491088418702,2,-55,-51,-40,77,127,97,-20,-83
1491088418703,3,-30,0,-8,-13,-11,-115,35,72
1491088418703,3,-53,64,53,-54,-63,64,85,-1
1491088418705,0,-37,2,-50,59,91,-110,-128,113
1491088418705,0,-18,-44,21,-71,35,85,26,-121
1491088418739,1,-13,12,-41,-8,28,91,86,37
1491088418739,1,-23,-17,14,29,-63,-65,28,-68
1491088418740,2,-11,37,29,-128,-44,-3,-36,42
1491088418740,2,-4,19,-16,70,-21,69,-45,-96
1491088418777,3,-5,-61,-48,-77,-22,-118,-83,110
1491088418777,3,-12,-42,-44,42,38,95,53,88
1491088418778,0,-4,-2,-7,17,-5,127,-66,-99
1491088418778,0,-5,6,49,60,118,53,52,32
1491088418779,1,0,48,78,87,1,-19,14,-128
1491088418779,1,-5,-51,-97,-50,26,-23,-107,127
1491088418780,2,-5,8,31,0,13,43,-13,-51
1491088418780,2,-2,40,9,-41,-84,49,-54,-73
1491088418814,3,3,-50,-51,-67,-51,77,-6,25
1491088418814,3,-3,-12,0,110,3,91,-64,20
1491088418815,0,-5,50,32,-69,-38,56,109,-70
1491088418815,0,-1,-20,-26,107,40,-74,-55,92
1491088418816,1,2,24,37,-44,41,102,101,-59
1491088418816,1,-5,-8,-1,6,88,48,-32,-72
1491088418817,2,-2,-6,23,13,-128,-28,-26,-3
1491088418817,2,0,16,0,24,25,-87,36,-35
1491088418852,3,0,-3,15,118,75,26,-12,-22
1491088418852,3,-3,-54,-103,-120,-112,-1,-71,68
1491088418853,0,-1,38,42,-26,-46,-61,93,67
1491088418853,0,0,46,39,-128,-128,23,60,-61
1491088418854,1,-1,-39,-15,127,127,16,-124,127
1491088418854,1,-2,25,34,-70,-41,77,-63,-27
1491088418855,2,-1,28,13,-16,52,-59,117,25
1491088418855,2,-1,-80,-14,53,33,111,-89,-13
1491088418889,3,0,24,-48,-128,-121,11,-65,-97
1491088418889,3,-2,-3,15,-52,-97,72,-63,21
1491088418890,0,-75,-31,-41,83,106,-58,24,-15
1491088418890,0,-113,53,90,-42,15,115,-48,45
1491088418891,1,-128,48,79,127,40,9,10,-75
1491088418891,1,-128,-44,-59,54,-27,-128,-90,43
1491088418895,2,16,-10,58,0,47,111,-11,-9
1491088418895,2,102,-36,-100,-86,-92,-128,105,18
1491088418927,3,127,33,12,-39,-102,-30,55,96
1491088418927,3,127,28,64,34,70,67,-55,51
1491088418928,0,121,-28,24,-5,89,-73,-96,-40
1491088418928,0,120,-14,-12,96,55,68,127,-39
1491088418929,1,126,-14,3,-105,-7,-58,-73,66
1491088418929,1,106,7,-25,127,99,-32,127,38
1491088418930,2,81,-2,-67,-107,-115,114,116,-62
1491088418930,2,67,-35,-5,30,-64,61,-93,43
1491088418964,3,55,-34,11,-8,19,-4,-97,-6
1491088418964,3,47,9,0,-65,-44,51,80,-72
1491088418965,0,36,29,-10,8,-57,39,-128,66
1491088418965,0,28,55,61,-25,-6,57,127,-35
1491088418966,1,18,-48,-113,-11,74,48,-51,94
1491088418966,1,20,18,55,-21,-15,65,84,-77
1491088418967,2,17,-20,-23,14,54,-76,75,7
1491088418967,2,5,-8,-17,-78,-74,-80,101,45
1491088419002,3,5,66,101,42,-15,46,23,-34
1491088419002,3,10,-26,-72,-85,-15,-128,-61,-3
1491088419003,0,4,-31,-9,86,21,127,-118,24
1491088419003,0,-1,-34,-7,95,127,18,-93,3
1491088419004,1,2,13,13,-8,-54,82,82,-97
1491088419004,1,7,-78,-78,80,52,-47,-60,47
1491088419004,2,0,49,20,-85,-128,60,60,-35
1491088419004,2,-1,-7,11,-57,-45,37,-71,18
1491088419039,3,3,7,-6,-9,-27,-57,-62,8
1491088419039,3,1,-21,37,-128,-28,114,119,-115
1491088419040,0,-1,-9,-48,127,6,-49,32,8
1491088419040,0,0,2,46,87,124,-66,-17,63
1491088419041,1,0,-2,-53,-107,-128,84,105,15
1491088419041,1,1,60,53,-44,-103,-128,35,-61
1491088419042,2,0,-35,-19,-113,127,127,-6,81
1491088419042,2,0,61,-13,-128,-128,-104,-39,-49
1491088419077,3,-1,-25,16,109,52,74,-65,14
1491088419077,3,0,14,67,127,56,82,35,5
1491088419078,0,1,33,-48,-79,0,-67,4,43
1491088419078,0,-1,-34,-67,-91,-98,-108,95,106
1491088419079,1,-1,-11,49,40,127,29,75,-79
1491088419079,1,1,31,4,-72,14,118,-95,-40
1491088419080,2,0,-14,40,127,-26,-47,-41,-17
1491088419080,2,-2,73,102,80,107,127,39,-87
1491088419114,3,-1,9,-123,-82,-67,-128,-26,24
1491088419114,3,1,-83,-62,108,-2,90,69,113
1491088419152,0,-1,22,80,-7,6,85,73,-100
1491088419152,0,-1,-17,-54,90,114,28,5,60
1491088419153,1,0,12,114,47,-97,-61,126,-28
1491088419153,1,0,54,-84,-124,-13,77,-37,33
1491088419154,2,-1,-44,-35,127,24,-128,-124,42
1491088419154,2,-1,-9,49,4,94,127,93,28
1491088419155,3,0,87,85,112,63,42,119,-128
1491088419155,3,0,-45,-75,-1,-3,-40,-128,92
1491088419189,0,-1,3,39,15,-24,112,74,-10
1491088419189,0,-1,-63,-88,-70,-22,-47,-24,82
1491088419190,1,-1,-13,20,-48,-7,76,28,-31
1491088419190,1,-1,100,68,-22,8,-128,22,-44
1491088419191,2,29,-38,-10,77,51,127,67,117
1491088419191,2,6,21,-20,-120,-128,89,52,-107
1491088419192,3,0,-93,-110,-63,-59,-92,-16,85
1491088419192,3,56,21,55,32,33,-72,-43,-46
1491088419227,0,31,31,-16,-128,-128,50,-45,-83
1491088419227,0,22,44,116,127,121,-128,38,73
1491088419228,1,20,-84,-85,15,65,102,-14,49
1491088419228,1,-9,-5,-19,-64,-83,-29,84,-95
1491088419229,2,45,-15,-10,61,-22,-46,-52,38
1491088419229,2,-29,37,18,-40,11,-29,72,31
1491088419230,3,61,5,-27,-44,-79,-46,-128,-25
1491088419230,3,-37,-29,25,-13,-2,-128,34,-19
1491088419264,0,-46,10,-6,66,7,29,-101,66
1491088419264,0,30,-24,2,-20,-101,94,-93,-128
1491088419266,1,-45,26,17,4,86,20,104,33
1491088419266,1,82,10,-45,23,66,-64,-101,127
1491088419268,2,-35,-22,-20,-56,-83,-127,-9,-104
1491088419268,2,-14,-10,42,75,38,44,16,64
1491088419269,3,-30,44,28,-76,-102,-43,-76,-69
1491088419269,3,100,-6,14,118,89,41,95,10
1491088419302,0,-88,-59,-88,-124,-51,-75,-46,87
1491088419302,0,-33,-101,-102,66,-60,-115,-109,-2
1491088419303,1,58,48,61,58,119,13,44,61
1491088419303,1,-29,19,49,44,-26,-69,-37,-21
1491088419304,2,59,12,84,-74,-3,44,67,-80
1491088419304,2,-36,-29,-106,24,16,-97,51,-6
1491088419305,3,-48,-23,-73,-97,-97,0,-91,-26
1491088419305,3,-3,-11,76,78,-1,125,74,-27
1491088419339,0,24,36,-3,-66,-26,47,114,-10
1491088419339,0,-31,-6,-3,73,-29,-12,-102,-26
1491088419341,1,-5,49,90,13,40,86,94,-41
1491088419341,1,-62,-19,-19,67,62,-33,81,-10
1491088419341,2,-12,-20,-60,-59,30,-84,-27,40
1491088419341,2,-57,41,5,-99,-55,-61,-90,-54
1491088419342,3,-3,-72,-60,102,100,-37,82,64
1491088419342,3,-38,0,30,-43,-40,127,-46,-69
1491088419377,0,-8,48,-5,113,69,-58,72,19
1491088419377,0,-48,-17,-4,-67,-37,44,-126,36
1491088419378,1,11,-3,23,78,77,15,-15,59
1491088419378,1,-63,-26,-23,-92,-118,13,32,-15
1491088419379,2,-22,32,14,-67,-60,-6,-102,-56
1491088419379,2,49,39,12,19,-9,-84,-53,29
1491088419380,3,-23,-11,63,-21,27,75,48,-109
1491088419380,3,6,-15,-74,99,-77,-96,14,101
1491088419414,0,-20,-51,-31,-25,82,64,-101,39
1491088419414,0,31,-42,7,-46,-88,127,98,-87
1491088419415,1,-105,2,-34,-77,-58,-32,-25,5
1491088419415,1,81,8,9,50,76,65,-46,-20
1491088419416,2,49,-11,-1,45,69,-70,53,60
1491088419416,2,32,63,56,-89,-22,117,55,-29
1491088419417,3,-41,-43,-23,88,-43,-100,-57,24
1491088419417,3,-85,12,5,-38,21,127,26,-58
1491088419452,0,62,-17,-41,72,45,-118,-84,4
1491088419452,0,4,-16,20,-77,-13,51,42,-5
1491088419452,1,-50,12,-13,55,30,-20,-13,32
1491088419452,1,14,11,88,21,74,74,13,-73
1491088419453,2,18,21,48,44,-18,-14,79,-84
1491088419453,2,-5,9,67,118,44,-68,-68,-6
1491088419454,3,41,29,-83,-13,4,-23,-9,-33
1491088419454,3,-15,-73,-69,74,42,-112,-128,127
1491088419489,0,-61,4,3,-110,-93,41,127,-26
1491088419489,0,61,-30,-54,30,107,-128,48,83
1491088419490,1,43,43,84,53,1,100,-35,29
1491088419490,1,-5,7,-15,-122,-31,-24,-104,-48
1491088419491,2,4,-6,13,58,-92,70,42,55
1491088419491,2,-59,44,-71,-111,-74,41,43,-91
1491088419492,3,67,-111,-100,69,32,-83,-79,99
1491088419492,3,9,24,49,-7,56,5,32,120
1491088419528,0,-27,8,2,-59,-17,45,-26,17
1491088419528,0,-18,20,66,25,-20,71,-23,-84
1491088419529,1,-19,12,15,-41,5,64,-1,-31
1491088419529,1,-27,-5,39,60,3,74,97,-99
1491088419529,2,36,20,-48,-105,-1,-98,71,-14
1491088419529,2,15,-79,-39,37,-36,22,-49,89
1491088419530,3,18,21,17,-128,-128,60,121,-112
1491088419530,3,-17,-9,-39,28,29,-127,15,54
1491088419564,0,-35,4,36,16,5,81,-36,-25
1491088419564,0,7,32,-22,-74,-48,67,19,58
1491088419565,1,-9,-25,8,82,-8,-105,-42,29
1491088419565,1,28,5,22,-104,-128,-24,42,-22
1491088419566,2,-37,-18,-4,31,-40,93,-104,-72
1491088419566,2,-2,14,2,31,43,-47,49,72
1491088419602,3,-12,25,29,-84,-50,65,31,-53
1491088419602,3,-15,6,29,90,-27,-10,-68,9
1491088419603,0,54,-19,-82,77,84,-64,-34,-29
1491088419603,0,-16,-41,-14,18,39,-90,54,49
1491088419603,1,26,11,55,35,87,86,-52,-3
1491088419603,1,-8,28,-31,-50,82,-21,99,59
1491088419604,2,-14,-61,-38,-61,-119,61,-119,12
1491088419604,2,73,30,85,31,126,127,96,-92
1491088419639,3,-22,0,-63,23,83,-10,38,43
1491088419639,3,-12,5,22,-93,-39,58,-52,-30
1491088419640,0,-4,78,127,73,104,93,-8,-105
1491088419640,0,-14,-22,-98,94,15,-128,-38,23
1491088419641,1,25,-18,49,-98,-128,14,-12,-1
1491088419641,1,1,-6,-58,108,-88,-54,-46,41
1491088419642,2,-21,15,11,-41,118,-49,14,19
1491088419642,2,-24,8,21,3,123,55,-37,-57
1491088419677,3,32,-16,-54,9,127,-114,21,56
1491088419677,3,11,24,84,79,125,111,-11,-86
1491088419677,0,-41,-43,-97,-71,22,23,-4,-5
1491088419677,0,23,-9,-7,7,-14,15,42,93
1491088419678,1,-7,-11,40,43,70,-128,-3,-18
1491088419678,1,8,-6,7,-126,-85,-32,-11,-37
1491088419679,2,-14,-19,2,127,-21,31,-1,36
1491088419679,2,1,-9,4,-52,-30,70,6,-21
1491088419714,3,-22,1,-42,32,-35,88,-28,-32
1491088419714,3,15,7,-74,-11,-46,-25,23,39
1491088419715,0,57,5,62,-44,-6,-34,15,13
1491088419715,0,-9,0,19,83,-35,76,4,-41
1491088419716,1,117,-31,-57,-127,34,-87,-3,84
1491088419716,1,112,2,43,-7,69,75,46,-57
1491088419752,2,10,-24,-59,-32,-109,-85,-22,45
1491088419752,2,-95,18,77,-70,62,81,-43,-66
1491088419752,3,-128,44,-11,56,12,113,77,-113
1491088419752,3,-128,-88,-49,-57,-84,-85,-128,36
1491088419753,0,-110,1,6,42,76,103,127,70
1491088419753,0,-105,0,-42,-78,-42,6,34,-30
1491088419754,1,8,29,77,73,5,36,-84,-33
1491088419754,1,107,-10,-38,-92,-101,-60,-75,36
1491088419789,2,-73,10,26,-2,-23,71,107,-59
1491088419789,2,-73,-10,-47,14,-54,-128,-7,36
1491088419790,3,-128,24,38,82,35,33,-25,-20
1491088419790,3,-85,5,59,115,27,-22,-68,-36
1491088419791,0,-20,-46,-60,-92,-88,-88,-33,0
1491088419791,0,72,50,61,52,104,58,12,26
1491088419792,1,1,12,51,19,25,73,73,-14
1491088419792,1,-22,0,-65,-49,43,-72,-57,-3
1491088419827,2,32,-7,34,27,4,45,5,10
1491088419827,2,127,0,4,62,54,52,44,-53
1491088419828,3,104,5,46,25,-69,-30,39,44
1491088419828,3,-128,-24,-101,-39,-46,0,41,57
1491088419828,0,-120,25,61,78,97,7,-105,-55
1491088419828,0,-128,-7,-59,23,-128,-101,-25,124
1491088419829,1,-28,0,-75,-88,-80,-52,63,80
1491088419829,1,-76,-3,19,20,89,71,73,-11
1491088419864,2,-87,25,-49,38,56,-19,-27,-51
1491088419864,2,99,15,98,25,127,-78,-91,31
1491088419865,3,-49,-10,-128,-60,76,49,5,-98
1491088419865,3,45,-2,-80,0,-115,-23,-11,39
1491088419866,0,17,-31,-9,89,-5,-86,-22,29
1491088419866,0,-38,-5,45,-6,53,-16,-40,-38
1491088419902,1,-16,8,76,-3,76,60,60,71
1491088419902,1,-22,19,10,-78,113,48,-51,-51
1491088419903,2,106,-54,-80,75,3,0,-66,-23
1491088419903,2,-16,7,-20,-44,8,60,81,42
1491088419903,3,36,1,-24,-99,-123,-126,-128,-20
1491088419903,3,22,9,62,30,84,107,68,-28
1491088419904,0,19,40,-42,-120,-65,70,-4,42
1491088419904,0,12,-5,4,1,-128,-103,-54,71
1491088419939,1,-10,-12,-98,-101,-52,6,16,37
1491088419939,1,33,4,57,120,5,80,37,-21
1491088419940,2,46,26,-35,47,-76,-91,10,25
1491088419940,2,96,-31,-41,-128,-45,84,39,-15
1491088419941,3,-17,29,37,-63,-41,-70,-29,17
1491088419941,3,46,-6,-65,-29,-83,-6,10,41
1491088419942,0,-36,15,32,-3,-42,-99,-41,-97
1491088419942,0,-19,-11,-13,69,92,114,14,-63
1491088419977,1,6,-41,-48,104,-111,-29,-105,-14
1491088419977,1,13,23,39,-13,59,-8,41,-27
1491088419977,2,44,29,-17,40,-91,100,122,90
1491088419977,2,-19,23,64,73,5,-61,-118,-91
1491088419978,3,4,-47,-51,-57,-50,-73,74,11
1491088419978,3,-8,-14,13,45,76,88,19,11
1491088419983,0,-36,38,87,19,-20,-50,11,6
1491088419983,0,-4,-13,-1,49,-50,-45,-41,-21
1491088420014,1,69,-47,52,64,-50,28,-31,10
1491088420014,1,-71,57,107,75,58,94,11,-54
1491088420015,2,119,14,-43,-128,-47,-43,55,65
1491088420015,2,-72,-34,-28,-56,64,127,66,-33
1491088420016,3,-77,9,89,-1,104,102,-4,-53
1491088420016,3,-1,-5,-1,-71,-78,-12,45,-9
1491088420052,0,-33,29,54,-30,127,127,18,-2
1491088420052,0,2,15,-2,-57,21,3,44,42
1491088420053,1,-6,11,46,73,-6,38,-43,65
1491088420053,1,0,-48,-61,34,-104,-120,-73,44
1491088420054,2,-23,-65,11,-44,110,98,87,38
1491088420054,2,-47,49,40,20,40,35,-32,-79
1491088420054,3,-25,33,18,51,85,44,89,59
1491088420054,3,98,48,49,87,114,89,-85,-89
1491088420089,0,-53,-64,-66,-22,-61,-118,-44,-26
1491088420089,0,-45,5,-2,-54,-108,-15,-95,26
1491088420090,1,42,17,-86,-43,46,79,58,-56
1491088420090,1,-39,-6,-42,-125,-74,-69,5,-72
1491088420091,2,18,-25,-3,-3,-69,-45,70,14
1491088420091,2,9,10,59,-1,108,73,-74,-74
1491088420092,3,-54,-17,12,77,-128,-59,-70,4
1491088420092,3,-5,-16,9,-37,112,42,62,53
1491088420127,0,-10,16,-22,-59,-59,116,-64,-105
1491088420127,0,-23,-26,-31,-46,-97,-39,68,19
1491088420131,1,-18,18,-77,-46,-77,-61,24,-26
1491088420131,1,-6,-19,-86,-30,-126,-128,-85,104
1491088420131,2,18,-7,79,69,127,127,-128,-2
1491088420131,2,47,5,-33,60,14,85,89,-17
1491088420132,3,22,-13,28,-49,50,-6,-3,-83
1491088420132,3,-79,38,80,19,120,32,31,-25
1491088420164,0,68,0,-113,-75,-128,58,66,-72
1491088420164,0,54,-5,-39,-99,5,-128,-102,120
1491088420165,1,-14,-21,9,103,116,121,-31,-17
1491088420165,1,-15,-27,-75,-128,-128,42,63,65
1491088420166,2,-3,8,127,127,94,80,-103,47
1491088420166,2,28,26,-54,-82,82,9,34,-77
1491088420202,3,34,-3,27,59,84,104,55,27
1491088420202,3,-48,10,-33,4,-95,89,44,-6
1491088420203,0,-53,-14,-1,0,79,-128,-70,24
1491088420203,0,37,-43,-43,-2,-83,113,100,-79
1491088420204,1,-61,-5,-17,-111,39,28,79,-50
1491088420204,1,9,42,10,34,-79,-51,-58,79
1491088420204,2,84,-36,-31,-5,-33,14,-31,-18
1491088420204,2,-21,-11,14,96,31,-3,8,96
1491088420239,3,85,33,15,-39,63,75,-24,74
1491088420239,3,-1,-12,4,19,-11,124,87,-128
1491088420240,0,-1,21,22,58,69,-108,-68,51
1491088420240,0,-25,-59,-105,-120,-114,3,-41,41
1491088420241,1,34,27,18,-76,-39,-73,-84,-8
1491088420241,1,-31,-43,14,57,72,117,68,21
1491088420243,2,24,37,24,-32,22,105,127,-96
1491088420243,2,-51,-6,41,30,6,-40,-80,-23
1491088420277,3,20,0,5,34,120,-101,68,78
1491088420277,3,44,-1,-40,-27,-50,-128,-59,-61
1491088420278,0,-84,-19,97,87,95,127,45,-65
1491088420278,0,13,39,-37,-69,-96,-80,18,100
1491088420279,1,-47,-65,10,76,16,-92,-128,-36
1491088420279,1,-49,-45,-111,-115,-81,-121,-30,125
1491088420280,2,-4,12,27,-27,-90,-22,33,66
1491088420280,2,53,33,62,-65,-73,-37,67,-116
1491088420315,3,-32,20,61,91,-18,103,-121,71
1491088420315,3,30,0,40,127,127,-60,48,30
1491088420316,0,-82,-22,3,-73,-49,94,31,-10
1491088420316,0,36,20,-51,-49,-54,-96,-58,14
1491088420317,1,-24,-39,-37,-103,-117,99,-34,-101
1491088420317,1,-29,-1,105,26,127,-59,66,7
1491088420352,2,43,21,-128,20,54,-75,106,71
1491088420352,2,0,-40,16,74,-70,-49,-28,15
1491088420354,3,-35,16,-7,-14,0,-22,127,-22
1491088420354,3,32,-11,-6,-92,-77,67,-128,-31
1491088420355,0,64,19,41,43,51,13,-55,-26
1491088420355,0,-29,28,20,43,1,-92,85,36
1491088420356,1,-6,-20,-48,-50,-128,87,-7,-28
1491088420356,1,-23,52,39,-87,-48,49,-8,-75
1491088420389,2,37,-52,-76,42,36,-128,-128,110
1491088420389,2,-73,-28,51,117,127,127,-102,-14
1491088420390,3,32,22,-32,-32,-75,54,74,-12
1491088420390,3,46,-1,8,-128,-94,-38,-42,-54
1491088420391,0,-24,2,-9,39,70,-72,51,15
1491088420391,0,-15,-28,-48,21,46,46,-108,65
1491088420392,1,46,20,80,5,100,78,-109,17
1491088420392,1,10,-48,-42,97,38,47,55,9
1491088420427,2,-45,62,96,27,-110,50,56,-60
1491088420427,2,63,14,-29,14,50,-60,51,-12
1491088420427,3,-33,-52,-63,-80,-35,-128,57,102
1491088420427,3,8,48,38,85,59,2,-41,-84
1491088420428,0,-32,26,55,-128,-128,-7,26,-9
1491088420428,0,18,-2,-29,127,101,-68,-45,4
1491088420429,1,19,7,33,99,127,61,-56,13
1491088420429,1,23,-20,-86,-63,-59,-40,123,90
1491088420464,2,-42,-15,54,14,-65,70,-73,-70
1491088420464,2,20,42,24,7,39,127,127,-56
1491088420465,3,-26,-23,-52,-23,-108,52,-106,-71
1491088420465,3,-12,12,29,127,127,-29,109,87
1491088420466,0,66,14,-17,22,15,85,-47,97
1491088420466,0,-44,-9,15,-34,-81,62,127,-127
1491088420502,1,25,10,66,127,127,76,-88,71
1491088420502,1,-23,19,-77,-65,30,28,-124,25
1491088420503,2,36,-48,-74,-116,-4,-128,34,87
1491088420503,2,-63,-30,28,7,76,114,6,-35
1491088420504,3,20,27,70,5,-19,64,35,-128
1491088420504,3,-42,16,44,57,98,127,32,-108
1491088420505,0,-11,16,-29,-69,4,-49,-89,94
1491088420505,0,28,-24,-58,13,-117,-47,40,-68
1491088420539,1,-62,-14,6,99,-12,-87,20,92
1491088420539,1,30,-22,-59,-93,-38,80,105,-24
1491088420540,2,-75,-33,-4,-55,-108,-18,-52,10
1491088420540,2,-17,10,23,31,47,88,-128,-31
1491088420541,3,23,30,-7,8,-15,-128,127,35
1491088420541,3,-17,30,83,-86,-58,91,11,-81
1491088420542,0,3,-54,-105,-4,-27,-57,-62,-37
1491088420542,0,-38,-35,-30,-120,-116,-5,5,88
1491088420614,1,49,76,23,-33,27,-61,46,-57
1491088420614,1,-56,9,34,120,12,5,-128,60
1491088420615,2,101,17,19,-76,-30,127,122,-7
1491088420615,2,-93,6,14,70,-4,24,27,-16
1491088420616,3,11,-62,-80,-128,-19,-77,-90,15
1491088420616,3,0,0,58,50,-126,-9,47,-57
1491088420617,0,-61,28,-13,-62,110,-84,-12,-41
1491088420617,0,18,-53,-15,-3,0,-59,47,101
1491088420652,1,-56,-7,-47,-26,-45,0,-2,-79
1491088420652,1,97,29,43,54,-8,29,-87,35
1491088420652,2,-15,2,6,25,-89,-23,-89,-40
1491088420652,2,-84,-22,21,77,37,76,116,113
1491088420653,3,68,46,-20,-96,-121,58,1,21
1491088420653,3,-66,-109,-96,5,-35,-99,18,38
1491088420654,0,-51,13,43,91,116,96,-6,-57
1491088420654,0,-28,46,55,35,65,44,0,20
1491088420689,1,43,22,2,8,-18,15,-27,-8
1491088420689,1,78,-2,-11,-101,-19,-59,-77,73
1491088420690,2,-6,-21,-8,75,36,127,127,-26
1491088420690,2,20,-5,-74,-128,-116,-128,-128,-30
1491088420691,0,-110,-27,21,12,-37,2,98,-51
1491088420691,0,88,58,38,60,103,-39,-125,50
1491088420692,1,30,-19,12,5,-20,24,125,13
1491088420692,1,-44,-3,-105,-99,-81,-64,-92,-75
1491088420727,2,-6,-14,54,127,14,45,7,8
1491088420727,2,3,46,11,-93,39,-67,19,54
1491088420727,3,-85,-45,-15,-80,-52,27,-128,-78
1491088420727,3,-63,1,7,-41,4,15,12,102
1491088420728,0,127,82,5,44,30,127,72,30
1491088420728,0,-48,-42,-98,-70,-31,-71,-20,-2
1491088420729,1,-29,-66,-44,2,-10,-128,33,127
1491088420729,1,-93,5,94,-88,-40,127,-21,-99
1491088420764,2,-2,15,-51,2,-23,-128,-106,23
1491088420764,2,92,-17,27,99,-10,-38,-14,-18
1491088420765,3,-128,12,26,-57,-63,92,-35,-41
1491088420765,3,103,-1,67,127,89,-71,127,97
1491088420766,0,11,-6,-49,-66,21,49,36,-37
1491088420766,0,-49,-43,-13,-30,-126,-40,-105,21
1491088420767,1,7,-6,57,2,22,-16,87,-90
1491088420767,1,-13,19,23,127,127,62,-29,60
1491088420802,2,47,-20,-61,-54,-13,39,19,-53
1491088420802,2,19,-13,3,-40,16,57,-4,71
1491088420803,3,-5,5,-27,-66,-85,96,6,-93
1491088420803,3,5,-30,-23,63,82,-127,-23,39
1491088420803,0,-41,35,108,-46,-94,51,118,-43
1491088420803,0,22,-1,20,56,75,127,-77,-80
1491088420804,1,-77,-6,-55,117,-60,-102,85,87
1491088420804,1,71,18,28,-42,87,127,-13,-37
1491088420839,2,3,-5,-86,-69,-120,-128,-6,30
1491088420839,2,55,55,93,-82,-12,-47,29,-45
1491088420840,3,-34,-29,-66,-19,-24,50,-76,95
1491088420840,3,13,-21,-31,-65,22,-75,47,-68
1491088420841,0,-8,-44,8,-48,-8,39,-128,37
1491088420841,0,-43,63,87,28,23,127,-17,-115
1491088420842,1,95,103,-21,17,24,-33,84,48
1491088420842,1,44,-49,0,108,18,56,-98,96
1491088420877,2,-75,-19,-24,-60,15,108,94,-18
1491088420877,2,72,-54,-50,58,3,-44,-39,56
1491088420878,3,-9,14,93,1,32,127,31,36
1491088420878,3,-20,85,-55,-90,-62,-123,115,-18
1491088420878,0,-34,-56,-50,127,21,-111,85,88
1491088420878,0,46,7,35,80,-51,127,-22,-28
1491088420879,1,-11,7,-22,35,64,-114,45,10
1491088420879,1,45,-9,-1,-79,-118,-17,127,60
1491088420915,2,24,-1,22,-107,-100,-47,-100,-91
1491088420915,2,-45,46,-12,-91,-22,-3,29,79
1491088420917,3,3,-69,-13,86,83,-20,-128,-37
1491088420917,3,-7,8,-65,-89,-86,-17,90,-44
1491088420918,0,-47,-44,50,44,41,-11,-84,14
1491088420918,0,-36,0,-59,-109,-93,31,127,-17
1491088420919,1,60,43,11,-37,-43,6,19,-28
1491088420919,1,-67,25,76,-29,-60,127,-50,20
1491088420952,2,10,-41,-56,127,127,-14,12,60
1491088420952,2,-14,-20,-24,-28,40,-126,9,36
1491088420961,3,32,8,44,-102,13,79,-63,87
1491088420961,3,-54,-32,11,25,-79,62,101,-116
1491088420962,0,17,12,-3,8,53,-70,-2,32
1491088420962,0,-113,16,14,-88,-108,-35,13,-54
1491088420963,1,14,-107,-128,127,127,44,4,7
1491088420963,1,2,1,64,75,10,121,-128,-38
1491088420989,2,-21,78,105,-67,-5,40,63,-59
1491088420989,2,-63,-14,30,127,117,-100,12,16
1491088420992,3,58,22,-67,-128,-113,-128,-21,20
1491088420992,3,-57,-59,-128,-128,-114,-128,91,60
1491088420993,0,-35,34,81,110,56,126,-114,4
1491088420993,0,24,-6,-54,-23,24,-90,72,65
1491088420993,1,-47,-1,92,77,105,124,15,-122
1491088420993,1,60,-16,-104,-1,36,-47,-2,86
1491088421027,2,16,-21,-57,-91,-112,-128,25,101
1491088421027,2,43,25,80,-31,-24,127,80,-79
1491088421032,3,26,-7,-34,124,33,-128,-110,47
1491088421032,3,39,-2,44,56,95,73,1,-50
1491088421033,0,-25,66,33,-53,-89,76,28,-128
1491088421033,0,-12,-38,-109,88,85,-10,-94,99
1491088421065,1,-28,6,85,-83,-128,93,117,-29
1491088421065,1,-28,-4,-75,-75,-89,-100,-59,24
1491088421067,2,58,-52,15,75,127,91,27,40
1491088421067,2,5,14,9,-39,-32,95,69,-29
1491088421068,3,-85,73,73,-106,-7,42,76,-113
1491088421068,3,14,-50,-54,127,53,-69,-99,89
1491088421102,0,4,-18,-16,-26,-63,51,92,37
1491088421102,0,52,14,-37,-46,-12,64,111,36
1491088421103,1,-14,-67,-14,12,1,-65,-77,67
1491088421103,1,-77,71,59,-14,-38,-51,29,-12
1491088421104,2,13,23,43,98,88,42,-39,-85
1491088421104,2,27,13,-48,-28,-72,127,94,-120
1491088421107,3,-46,-50,-90,-56,-85,-76,-81,83
1491088421107,3,-90,-53,-53,-25,-56,41,-114,13
1491088421140,0,100,19,39,7,2,-53,-99,48
1491088421140,0,-59,41,37,-65,-63,-43,98,-98
1491088421140,1,26,-11,29,107,105,106,-77,63
1491088421140,1,76,19,24,-84,-89,7,80,-98
1491088421141,2,-26,18,-42,27,38,-86,-76,69
1491088421141,2,-10,-35,99,81,-31,127,53,-21
1491088421142,3,-9,-40,-90,-54,-96,-79,-40,-6
1491088421142,3,29,33,45,41,76,-50,87,92
1491088421177,0,31,30,55,-9,-6,127,-12,-23
1491088421177,0,-5,1,-80,57,52,20,-59,-9
1491088421178,1,-43,-15,30,116,127,-78,-6,37
1491088421178,1,-14,29,70,-4,-14,123,9,-47
1491088421178,2,-66,-34,-105,10,67,20,-4,-39
1491088421178,2,9,-32,-31,67,-8,-128,-123,83
1491088421179,3,-2,53,27,-123,-116,85,-26,-128
1491088421179,3,-49,-31,17,9,74,115,61,24
1491088421214,0,56,48,-10,-122,-128,33,1,-24
1491088421214,0,-20,-72,-27,35,56,-67,-107,106
1491088421215,1,-51,-2,-22,-82,-84,127,93,-91
1491088421215,1,2,-49,-22,73,25,32,8,-59
1491088421215,2,9,-5,59,-12,-46,127,-71,-31
1491088421215,2,24,64,6,27,93,-27,-39,25
1491088421217,3,12,21,71,50,25,-42,17,-4
1491088421217,3,-66,-1,-60,82,127,21,-68,3
1491088421252,0,61,-43,-68,-114,-97,-128,54,65
1491088421252,0,-6,0,88,-58,-39,106,-16,-91
1491088421253,1,-44,-10,-17,63,1,-47,5,-1
1491088421253,1,-30,-20,12,-31,-10,34,-71,67
1491088421253,2,22,65,51,-55,-101,49,70,-128
1491088421253,2,38,-36,-68,9,67,-97,-28,70
1491088421254,3,-25,-1,42,-77,-54,127,0,66
1491088421254,3,66,75,71,127,90,-90,89,-44
1491088421289,0,-112,-65,-49,-30,-40,30,-83,41
1491088421289,0,24,1,7,-77,39,76,65,-88
1491088421290,1,-27,-22,-30,-21,-11,44,-17,41
1491088421290,1,68,53,90,19,-126,81,7,-52
1491088421291,2,-55,-19,-62,123,127,-122,0,21
1491088421291,2,-39,-28,-37,14,-100,-33,-60,46
1491088421292,3,62,61,24,-79,16,-26,74,-50
1491088421292,3,-34,-63,-41,78,-24,-84,-96,70
1491088421327,0,16,95,113,42,80,68,88,-95
1491088421327,0,27,-40,-56,20,32,-28,-79,-8
1491088421328,1,2,-19,-43,-15,-68,-103,-50,33
1491088421328,1,-13,11,-28,-128,-58,103,107,-59
1491088421329,2,-26,-1,21,11,41,-47,-103,95
1491088421329,2,27,44,79,-19,-1,127,127,-92
1491088421364,3,24,-18,-19,11,39,-87,-52,51
1491088421364,3,-8,-14,3,43,-71,60,-115,-78
1491088421367,0,-5,19,-60,56,46,-128,111,55
1491088421367,0,-20,-29,-54,-6,-44,-3,-49,100
1491088421369,1,-2,17,68,115,127,127,29,-48
1491088421369,1,-3,-9,-98,-114,-89,-30,-3,23
1491088421370,2,-16,-95,-86,-47,-91,-76,-128,85
1491088421370,2,13,24,49,-60,12,62,-32,-56
1491088421402,3,17,30,27,82,63,78,75,-38
1491088421402,3,22,12,60,-37,-32,-35,-35,-3
1491088421403,0,9,30,29,6,74,22,81,-42
1491088421403,0,-22,-40,-79,6,-128,-38,-91,42
1491088421404,1,88,-24,20,58,18,-95,7,38
1491088421404,1,-8,45,-11,-77,85,101,-52,22
1491088421405,2,-12,-51,-40,-102,-62,-53,83,-1
1491088421405,2,-40,37,93,-10,116,89,59,-22
1491088421439,3,-50,-19,-115,-44,87,40,-102,-66
1491088421439,3,34,-17,11,-35,106,-126,52,81
1491088421441,0,21,-14,-29,-11,49,32,23,7
1491088421441,0,-18,-23,14,-8,15,-52,30,16
1491088421441,1,-17,33,40,-88,-109,35,54,-17
1491088421441,1,37,-30,-34,59,36,-92,-90,53
1491088421477,2,-31,21,57,81,91,61,-84,-50
1491088421477,2,66,14,17,20,-39,-19,17,-29
1491088421477,3,38,-20,-30,5,-71,-113,-9,62
1491088421477,3,-39,19,32,127,127,127,96,-120
1491088421478,0,-2,-39,-61,-91,-128,-84,-57,21
1491088421478,0,-12,-30,7,4,-64,-27,-45,36
1491088421479,1,-34,21,72,92,86,87,63,-74
1491088421479,1,23,-29,-101,-94,-36,-29,-6,42
1491088421514,2,31,23,106,102,54,103,18,-20
1491088421514,2,-21,22,58,-81,75,71,16,-107
1491088421515,3,-9,-93,-128,100,-117,-128,-128,114
1491088421515,3,19,8,44,32,23,-16,50,-8
1491088421516,0,-16,22,-71,-41,57,47,19,-51
1491088421516,0,-35,10,30,17,42,-71,-36,63
1491088421517,1,5,48,97,39,127,108,62,-76
1491088421517,1,39,25,-63,-93,-98,-53,-12,52
1491088421552,2,-58,-19,-87,-67,-117,-106,14,72
1491088421552,2,127,30,17,69,2,25,52,-6
1491088421553,3,-71,-2,-105,-117,-66,-8,-21,-43
1491088421553,3,-25,-8,-42,-40,-106,-99,-97,51
1491088421553,0,-35,-35,-6,-27,4,38,14,59
1491088421553,0,-4,-14,41,-26,-15,52,23,-49
1491088421554,1,-14,45,10,-55,61,83,-19,23
1491088421554,1,-7,-35,12,90,28,32,77,-116
1491088421589,2,-1,53,98,45,-50,26,7,-34
1491088421589,2,-43,-68,-124,-10,-41,-118,-75,-16
1491088421591,3,62,-25,85,35,-109,50,17,41
1491088421591,3,-86,44,83,64,21,29,-13,-14
1491088421591,0,70,31,65,46,31,53,-12,-23
1491088421591,0,-20,-6,-45,-26,-27,-84,-18,-6
1491088421627,1,-5,21,-20,-75,-28,2,45,-11
1491088421627,1,-24,-103,-66,-61,-69,-70,-58,40
1491088421664,2,-25,27,110,13,51,-37,-57,7
1491088421664,2,-18,-7,52,26,85,93,95,27
1491088421665,3,34,33,122,59,116,52,-16,6
1491088421665,3,2,6,-5,85,-90,0,28,-52
1491088421666,0,31,-48,-51,39,-1,53,-1,-24
1491088421666,0,-36,-9,5,-17,-50,-31,-37,-13
1491088421667,1,27,-12,6,52,84,-75,-3,4
1491088421667,1,11,6,-13,-90,26,106,40,-5
1491088421702,2,12,-9,34,-20,48,3,-67,-52
1491088421702,2,28,28,-27,69,-112,-17,94,39
1491088421704,3,-49,-10,34,5,-2,-5,5,47
1491088421704,3,-13,8,-49,76,-45,1,28,-3
1491088421707,0,29,5,54,79,50,-13,16,35
1491088421707,0,40,-18,-69,-105,-113,-90,-66,-10
1491088421707,1,16,-15,-95,41,48,-19,28,-29
1491088421707,1,-12,22,47,-77,10,-8,-29,-59
1491088421739,2,-16,7,-31,15,83,118,36,-100
1491088421739,2,-9,43,42,36,65,-66,-93,11
1491088421740,3,10,-33,-112,-101,-111,10,-73,69
1491088421740,3,5,38,89,36,127,79,-12,-33
1491088421741,1,-2,-7,-45,-36,41,-48,54,2
1491088421741,1,-9,19,124,-51,-32,60,-39,-6
1491088421742,2,-23,4,29,-33,26,41,81,17
1491088421742,2,63,88,66,39,127,120,103,-28
1491088421777,3,15,7,-43,-98,-120,10,-31,-1
1491088421777,3,2,-3,7,62,-70,-89,-34,51
1491088421778,0,-26,19,63,-115,51,60,36,-34
1491088421778,0,-49,-68,-83,106,-126,34,-96,65
1491088421778,1,9,18,127,127,83,-23,19,8
1491088421778,1,18,26,-7,-26,88,-96,103,-17
1491088421779,2,-27,-48,-108,-66,-128,-128,-4,-15
1491088421779,2,-11,20,25,-36,-22,-12,-72,-110
1491088421814,3,-36,50,66,-108,56,90,0,-114
1491088421814,3,1,-85,-107,8,-103,-103,-125,127
1491088421815,0,0,31,124,127,122,115,4,-67
1491088421815,0,17,-8,-128,-128,-8,25,124,-29
1491088421816,1,8,-51,36,28,-81,18,-57,53
1491088421816,1,107,37,127,127,127,127,28,-32
1491088421817,2,122,-19,-128,-63,-128,4,-47,30
1491088421817,2,127,-6,11,-128,87,69,127,-57
1491088421852,3,105,-15,-9,63,-82,-115,-80,6
1491088421852,3,-97,-20,-94,-51,1,0,24,63
1491088421853,0,-112,4,46,-4,47,34,61,3
1491088421853,0,-128,-2,-12,47,127,85,-56,-28
1491088421853,1,-128,15,57,31,-47,-105,40,0
1491088421853,1,-81,-17,-99,-74,-70,66,64,-83
1491088421854,2,78,-42,-27,-63,-88,-128,-79,56
1491088421854,2,92,24,63,-4,52,55,-76,63
1491088421889,3,109,0,-14,21,58,60,107,-46
1491088421889,3,44,25,43,75,127,49,-37,55
1491088421892,0,-99,10,4,-54,-47,28,-27,-106
1491088421892,0,-119,-34,-53,-7,17,-99,-58,63
1491088421893,1,-128,-22,-47,115,37,84,-63,24
1491088421893,1,-115,27,17,-122,-70,-25,79,-21
1491088421898,2,-118,-21,-46,83,-70,34,79,88
1491088421898,2,-128,-48,50,46,55,-93,-108,-25
1491088421927,3,-127,3,-59,-58,-62,-61,43,10
1491088421927,3,-27,-8,33,-55,105,96,-19,-58
1491088421927,0,-103,-17,-15,51,18,-19,-28,-23
1491088421927,0,38,37,-9,-2,-74,60,113,78
1491088421928,1,-35,-39,38,59,53,-42,-59,22
1491088421928,1,45,24,-44,19,46,-22,9,-70
1491088421930,2,27,-45,-38,29,10,72,-49,-32
1491088421930,2,50,52,9,-66,-92,-125,-3,88
1491088421964,3,76,41,29,-93,3,87,-18,-50
1491088421964,3,31,-72,-74,-19,-91,48,24,102
1491088421965,0,33,9,48,64,55,76,24,9
1491088421965,0,10,4,-14,-60,-70,-8,72,-42
1491088421966,1,36,-35,-71,-15,-14,97,-45,-31
1491088421966,1,29,18,48,66,17,-93,14,65
1491088421967,2,50,41,80,-40,55,43,124,-67
1491088421967,2,-65,-41,-60,49,70,127,-67,5
1491088422002,3,12,39,38,48,26,-67,105,75
1491088422002,3,87,-25,-12,25,-45,-82,-106,-69
1491088422003,0,27,20,93,62,-18,45,-75,-11
1491088422003,0,-6,22,46,62,-70,11,-71,-58
1491088422004,1,18,-48,-114,50,77,-78,1,58
1491088422004,1,-52,2,66,62,54,32,-55,23
1491088422005,2,11,40,-31,-100,95,40,111,-8
1491088422005,2,54,-33,-18,-66,-66,84,23,-92
1491088422077,3,-2,7,24,35,58,-58,-111,-5
1491088422077,3,36,5,3,-2,-68,77,98,-22
1491088422077,0,-17,22,40,-15,17,63,-51,17
1491088422077,0,36,9,-5,13,101,66,-9,58
1491088422078,1,-9,-16,-52,16,-8,78,38,-22
1491088422078,1,-70,-11,10,-33,-23,-80,15,-60
1491088422079,2,72,5,59,127,28,-22,-111,67
1491088422079,2,-20,15,-41,119,-106,-115,-3,-4
1491088422114,3,2,-33,-46,-128,-100,-3,-27,-40
1491088422114,3,37,30,76,32,103,71,77,-19
1491088422115,0,7,-12,-112,112,70,-36,-53,78
1491088422115,0,-7,13,68,89,-9,-56,-17,-32
1491088422116,1,-84,12,56,18,70,18,-78,89
1491088422116,1,28,-34,-106,-68,-128,-45,-28,-74
1491088422117,2,54,11,-14,-128,-111,30,127,15
1491088422117,2,-12,31,-24,-71,-90,35,92,-12
1491088422152,3,-50,-89,-78,-118,-128,-51,13,2
1491088422152,3,-41,-5,64,2,7,127,-21,48
1491088422152,0,63,44,39,-30,4,27,-36,36
1491088422152,0,15,-32,-63,-11,33,0,22,-7
1491088422153,2,-32,-11,19,98,37,17,17,-52
1491088422153,2,30,42,69,-11,22,-18,-14,17
1491088422154,3,3,-7,-78,-128,-90,-32,118,-55
1491088422154,3,7,-17,-27,-48,-72,52,-48,48
1491088422189,0,-2,-49,-108,18,-8,72,88,88
1491088422189,0,-13,39,116,6,47,14,-15,-40
1491088422190,1,44,-20,-76,51,-70,107,20,-84
1491088422190,1,1,8,35,33,-40,-66,-91,66
1491088422191,2,-47,-4,13,-85,37,70,76,-84
1491088422191,2,-3,0,50,64,47,91,46,-2
1491088422192,3,18,-25,-5,-63,79,-101,-113,-33
1491088422192,3,-64,13,-13,-47,-73,127,103,-14
1491088422227,0,-8,-6,-50,-12,43,-128,-128,24
1491088422227,0,53,45,58,-11,99,99,12,49
1491088422227,1,-22,-10,-57,19,6,-32,-86,-28
1491088422227,1,51,15,-18,114,29,76,127,-99
1491088422228,2,-44,-15,-5,-1,-120,-104,22,15
1491088422228,2,-41,-52,-36,-128,-128,-59,-49,31
1491088422229,3,-41,54,62,64,81,40,48,-34
1491088422229,3,74,-22,-102,-128,-54,57,-13,79
1491088422264,0,-5,-5,-8,-63,-43,-85,-88,-42
1491088422264,0,1,-21,45,127,127,38,23,32
1491088422265,1,-33,67,21,-112,21,127,116,-70
1491088422265,1,73,-18,-21,28,-24,53,-111,-62
1491088422266,2,10,-55,-24,82,2,-100,77,127
1491088422266,2,-12,-6,-14,-29,-114,47,-77,-94
1491088422267,3,26,-4,35,-59,-45,88,-98,28
1491088422267,3,-77,-9,-41,28,60,-112,127,18
1491088422303,0,10,-2,11,11,60,14,-84,9
1491088422303,0,-22,-8,6,-21,78,75,-2,-44
1491088422305,1,45,10,38,-32,57,-71,-51,-26
1491088422305,1,-39,54,89,88,100,124,-45,-54
1491088422306,2,11,15,-101,-50,-114,49,25,-103
1491088422306,2,-73,-84,-46,59,4,-128,-55,79
1491088422307,3,69,35,88,103,43,127,111,-22
1491088422307,3,36,24,-30,-104,124,-25,-86,123
1491088422340,0,-33,-54,-5,-19,24,34,83,3
1491088422340,0,-15,63,42,-101,-28,91,21,17
1491088422342,1,-6,26,-11,47,52,-56,92,-3
1491088422342,1,10,-48,-4,-86,-32,-32,-128,53
1491088422343,2,5,51,121,65,-14,123,-17,-79
1491088422343,2,4,-75,-128,58,92,-128,-21,13
1491088422345,3,1,1,27,65,-46,-28,-67,21
1491088422345,3,10,50,64,56,-8,92,126,-53
1491088422377,0,-66,-51,-38,-109,-106,29,-62,33
1491088422377,0,76,15,33,117,69,11,127,-61
1491088422378,1,-6,15,3,-37,-9,10,-116,6
1491088422378,1,-87,-7,78,105,-7,14,47,-96
1491088422378,2,25,-8,-93,-95,-92,-75,0,-15
1491088422378,2,-61,-28,19,36,-37,37,114,25
1491088422379,3,62,-26,-47,94,61,-34,-76,59
1491088422379,3,7,4,14,-29,-38,-34,59,-37
1491088422414,0,6,39,62,64,61,0,-7,-4
1491088422414,0,-18,44,-3,-45,5,43,27,21
1491088422415,1,-29,-23,-11,-110,-64,-56,81,-47
1491088422415,1,-31,-33,-18,60,-54,-28,-8,64
1491088422416,2,68,21,18,43,94,92,-82,-97
1491088422416,2,-35,5,26,-78,-7,-4,-87,-24
1491088422417,3,-60,-5,-6,-35,-112,64,19,-69
1491088422417,3,2,-38,-58,-104,-39,80,32,1
1491088422452,0,45,2,21,90,99,20,56,-9
1491088422452,0,-15,-23,-37,22,-31,55,-60,74
1491088422454,1,-19,70,122,47,-35,116,82,-32
1491088422454,1,-48,19,-41,22,45,-19,-128,-43
1491088422456,2,34,-6,-29,81,-73,-41,80,18
1491088422456,2,-7,-17,-14,-64,-91,-77,-34,-76
1491088422489,3,-42,-29,-39,14,17,27,110,127
1491088422489,3,64,45,67,-79,18,31,-1,-97
1491088422490,0,19,-59,-29,114,-62,11,63,18
1491088422490,0,59,52,2,-49,24,79,-55,59
1491088422491,1,1,-9,20,24,40,25,-80,-1
1491088422491,1,-58,-32,-35,-18,-12,-13,28,108
1491088422492,2,2,43,47,25,-69,20,-122,-68
1491088422492,2,-14,0,-45,-44,45,-19,49,-111
1491088422527,3,112,-34,40,90,24,-37,-4,52
1491088422527,3,-27,-6,-59,-44,-6,2,116,-3
1491088422528,0,18,38,13,79,71,-103,-125,89
1491088422528,0,45,-30,16,-28,65,17,124,-73
1491088422528,1,-4,13,8,15,-36,-13,46,36
1491088422528,1,1,1,-15,12,-41,-109,-94,73
1491088422530,2,41,-31,-49,-101,7,107,-61,38
1491088422530,2,-77,-33,9,-31,-118,51,51,-44
1491088422564,3,-58,-1,-62,46,124,39,-39,-7
1491088422564,3,45,22,92,62,-59,94,125,-80
1491088422566,0,-65,2,-101,-17,103,-52,1,108
1491088422566,0,66,-48,-5,12,-9,2,-93,-35
1491088422567,1,-28,-19,3,-121,-128,36,-45,-65
1491088422567,1,-14,18,49,102,78,-101,12,-101
1491088422567,2,22,-6,-27,-86,-82,-30,35,49
1491088422567,2,1,14,53,109,65,68,118,19
1491088422602,3,-8,27,-61,-52,13,53,-78,-73
1491088422602,3,-6,-90,-32,74,49,-27,-82,28
1491088422602,0,-79,79,81,-109,3,127,67,-18
1491088422602,0,88,11,-76,112,-30,-128,-105,0
1491088422603,1,-35,-6,65,-27,-30,68,74,113
1491088422603,1,99,104,55,-27,127,127,61,19
1491088422639,2,-108,-76,-60,-69,-36,-85,-46,8
1491088422639,2,46,30,-21,-128,-128,126,12,-62
1491088422640,3,-37,-107,-46,125,112,-128,25,42
1491088422640,3,19,36,40,-21,55,3,-47,118
1491088422641,0,-50,-22,-20,-65,-104,-82,79,31
1491088422641,0,57,44,60,124,100,38,-29,5
1491088422642,1,7,10,-39,-57,-23,-124,17,-77
1491088422642,1,68,-46,-84,-79,-126,91,81,93
1491088422677,2,-16,33,68,81,97,-43,-50,-128
1491088422677,2,-1,-7,16,-72,-43,-9,56,-6
1491088422677,3,80,-19,-23,-2,95,-79,59,108
1491088422677,3,-11,-29,36,45,-30,85,-53,-128
1491088422678,0,-69,85,49,6,-96,127,-62,-104
1491088422678,0,12,-51,-92,25,16,-109,-20,127
1491088422679,1,80,29,30,-100,-124,70,-25,-67
1491088422679,1,-7,14,-12,57,38,-109,38,-42
1491088422714,2,-48,-98,-13,87,94,20,-78,117
1491088422714,2,-84,49,27,-18,65,108,72,-48
1491088422715,3,104,60,52,-27,-20,100,74,-19
1491088422715,3,-66,-10,18,27,-81,-86,-2,67
1491088422716,0,-52,-15,-41,-91,-80,30,-26,-5
1491088422716,0,3,2,-5,31,99,24,31,7
1491088422717,1,-45,-8,35,3,57,97,76,-34
1491088422717,1,-40,12,-62,2,-69,-107,-87,-2
1491088422752,2,52,-8,40,124,11,-97,106,68
1491088422752,2,-114,-13,66,3,-6,88,-78,53
1491088422752,3,-73,1,-88,0,46,48,-37,-31
1491088422752,3,56,-4,13,52,36,76,-118,-128
1491088422753,0,40,53,25,-51,-104,-56,127,-61
1491088422753,0,-58,-31,-63,127,110,-75,-39,127
1491088422789,1,89,50,81,30,76,65,24,-27
1491088422789,1,-16,-32,-49,-89,-28,-123,40,9
1491088422790,2,37,-51,-18,-18,-45,127,-6,35
1491088422790,2,-34,22,3,7,-50,35,-94,-111
1491088422791,3,-47,-35,-98,101,35,-128,-128,106
1491088422791,3,44,24,103,-128,-80,127,105,-22
1491088422791,0,-44,31,-25,127,127,-50,-75,-22
1491088422791,0,37,4,-29,-124,-31,-79,55,-29
1491088422827,1,-98,-25,76,-54,-125,93,35,-34
1491088422827,1,-7,-27,-56,127,89,-48,-25,-40
1491088422828,2,-44,-32,46,-42,53,59,-87,-23
1491088422828,2,-25,47,-13,-66,-61,70,40,94
1491088422828,3,-7,-48,-102,112,72,-107,-128,-69
1491088422828,3,-40,-42,38,-61,-69,19,120,11
1491088422829,0,34,16,-18,-84,-77,12,-11,111
1491088422829,0,-10,-1,27,122,99,30,-17,-99
1491088422864,1,49,34,25,-128,-128,56,-54,-4
1491088422864,1,-87,41,65,-7,118,118,72,94
1491088422865,2,93,-2,-73,-7,26,-14,74,-106
1491088422865,2,65,-56,9,-91,-114,-13,-94,50
1491088422866,3,5,14,6,127,127,-113,-54,98
1491088422866,3,-33,-15,-13,91,-58,60,21,-21
1491088422867,0,41,41,21,-72,86,6,43,38
1491088422867,0,15,12,103,111,71,89,-28,-97
1491088422902,1,-85,-7,-92,-25,-83,13,-64,-61
1491088422902,1,83,-17,9,-37,-39,52,19,84
1491088422903,2,-116,1,16,86,118,-19,-78,-28
1491088422903,2,56,-8,3,46,-38,-128,116,32
1491088422904,3,16,37,86,59,53,127,-63,-38
1491088422904,3,-4,7,-119,-87,-111,-41,-81,-10
1491088422939,0,35,-51,49,32,-63,75,-24,58
1491088422939,0,-14,-13,-49,-67,100,53,94,75
1491088422940,1,-75,-60,-10,-108,-112,-81,-37,-36
1491088422940,1,68,41,-13,-62,-10,19,-63,-27
1491088422941,2,29,50,97,113,-36,-27,127,-98
1491088422941,2,-99,-42,-112,-32,18,-115,-128,105
1491088422942,3,103,-49,53,-3,9,81,73,17
1491088422942,3,-28,31,12,-59,-21,15,-16,-9
1491088422977,0,-8,-23,-48,14,8,-33,83,-53
1491088422977,0,31,73,30,-72,-90,-34,74,33
1491088422977,1,-35,-5,-2,-108,-19,-25,39,-54
1491088422977,1,25,-60,-53,127,43,-50,-44,121
1491088422978,2,-13,6,-2,-22,-78,-32,-1,-73
1491088422978,2,29,14,7,3,37,-93,75,37
1491088422983,3,-11,90,115,55,40,80,2,-41
1491088422983,3,-14,-43,-99,-128,-50,-115,-56,-49
1491088423014,0,3,-89,-17,47,-92,127,-11,64
1491088423014,0,1,3,26,18,-74,-85,-108,2
1491088423015,1,-15,-25,-49,-78,-31,-7,-8,127
1491088423015,1,13,49,93,127,117,78,-23,-41
1491088423016,2,28,83,65,-1,54,49,18,-106
1491088423016,2,-21,-91,-102,-54,-59,-73,-99,49
1491088423017,3,-42,0,18,127,33,107,127,5
1491088423017,3,-34,-60,-35,-52,4,-37,-65,-54
1491088423052,0,41,3,10,-105,43,29,76,39
1491088423052,0,-38,78,89,122,10,124,-34,-17
1491088423053,1,-22,-4,-66,23,45,-41,35,-4
1491088423053,1,8,4,16,-30,24,-127,-113,-77
1491088423053,2,-40,0,-22,-76,-68,-126,-60,36
1491088423053,2,-8,2,-1,-113,-33,127,93,-128
1491088423089,3,4,-29,-96,70,48,-128,-111,118
1491088423089,3,36,-24,45,45,34,127,107,-31
1491088423090,0,-15,12,11,18,94,-59,44,-45
1491088423090,0,13,32,8,-60,-93,1,53,81
1491088423091,1,-23,55,110,-2,-16,101,44,-128
1491088423091,1,-10,28,-31,22,27,23,31,23
1491088423092,2,54,-81,-113,21,-35,-76,-113,127
1491088423092,2,-32,-54,-5,99,82,-98,-19,76
1491088423127,3,108,-15,53,-9,-22,36,111,13
1491088423127,3,-81,70,86,-21,-69,124,67,-72
1491088423127,0,-15,-19,-13,86,127,-25,-19,-21
1491088423127,0,3,76,28,-5,-48,79,-42,-118
1491088423128,1,-44,-63,-108,-49,-92,-125,-122,39
1491088423128,1,1,-12,21,-59,-19,63,-36,53
1491088423129,2,37,1,-81,10,-43,-93,31,89
1491088423129,2,-55,-55,21,109,68,97,-57,31
1491088423164,3,55,75,94,-57,-5,95,99,-96
1491088423164,3,-54,-24,-81,82,101,-72,-63,15
1491088423165,0,15,-9,116,9,61,34,-92,58
1491088423165,0,-22,-24,-35,-45,-1,46,-59,-78
1491088423166,1,13,-24,46,53,63,95,60,2
1491088423166,1,0,61,-35,-62,-128,38,-8,-70
1491088423166,2,-56,-47,-63,-78,18,19,46,67
1491088423166,2,72,-39,64,66,71,71,107,4
1491088423202,3,35,20,-128,-37,-32,14,22,-54
1491088423202,3,-3,-27,17,66,28,-100,-31,74
1491088423203,0,-40,58,68,70,-17,83,-44,-37
1491088423203,0,-6,-34,-59,19,-18,-128,-54,30
1491088423203,1,-16,2,42,-17,-21,-35,6,-10
1491088423203,1,50,24,17,25,11,53,-9,-41
1491088423239,2,-13,12,18,-25,-4,-34,31,-15
1491088423239,2,-32,48,1,-73,-21,96,-4,-128
1491088423240,3,9,-36,2,112,119,-128,-52,101
1491088423240,3,-14,-99,-94,-42,-49,43,-30,34
1491088423241,0,-13,-40,0,-49,-88,-49,-89,-56
1491088423241,0,6,32,23,-29,-3,116,127,-46
1491088423241,1,-78,39,48,7,24,-82,-57,82
1491088423241,1,29,20,23,-6,114,-9,26,-39
1491088423277,2,48,72,26,-111,-7,53,47,-94
1491088423277,2,-32,-70,-104,25,63,-128,-104,100
1491088423278,3,27,-50,-20,5,1,-40,-50,49
1491088423278,3,-83,-15,56,4,62,4,-4,61
1491088423279,0,2,51,77,43,48,59,27,-30
1491088423279,0,111,88,127,-33,71,28,84,-73
1491088423280,1,-43,-54,-121,67,-15,-89,0,-12
1491088423280,1,0,-74,62,-54,-45,-19,-16,34
1491088423314,2,-39,-23,12,31,-14,88,-8,-35
1491088423314,2,10,67,97,-39,-21,11,46,36
1491088423315,3,21,20,60,-103,62,127,85,-28
1491088423315,3,-6,58,57,110,-36,-128,-48,-22
1491088423316,0,-1,-57,-41,-10,-100,-92,-3,111
1491088423316,0,-1,-35,-43,-2,-14,-9,-81,-71
1491088423352,1,31,71,127,48,92,127,66,-125
1491088423352,1,-27,-1,-53,-85,-81,-115,37,69
1491088423352,2,-33,-31,-38,-103,-32,52,-50,-65
1491088423352,2,57,-47,80,96,-15,-64,18,70
1491088423353,3,-21,19,112,-34,-40,26,-12,16
1491088423353,3,70,18,127,-24,93,-27,33,-42
1491088423354,0,113,39,38,111,127,74,-13,-77
1491088423354,0,103,-64,-89,-110,-124,-73,-51,69
1491088423389,1,127,-19,-121,-11,-4,17,-20,-2
1491088423389,1,9,17,-111,89,127,88,81,-59
1491088423391,2,-60,-12,-81,-126,-100,-3,-18,19
1491088423391,2,-128,-67,-83,40,19,-72,-31,26
1491088423392,3,-128,6,-97,35,4,37,-16,8
1491088423392,3,-125,22,-66,-27,0,92,-13,34
1491088423392,0,-110,18,-40,127,127,-25,119,-32
1491088423392,0,-128,44,-54,-54,-102,26,-107,-8
1491088423427,1,-128,-59,-31,-62,-121,-14,26,55
1491088423427,1,-86,44,-30,20,12,103,52,-107
1491088423428,2,-46,-43,-30,-34,-116,26,43,69
1491088423428,2,-72,-20,-67,29,-41,-50,-28,75
1491088423428,3,-27,16,-127,-37,-121,-71,-87,32
1491088423428,3,5,10,-128,36,-19,-14,38,14
1491088423429,0,-22,-30,-121,127,108,55,13,-24
1491088423429,0,-55,15,-8,10,1,20,48,-98
1491088423464,1,86,53,4,-71,127,38,24,-6
1491088423464,1,36,8,-52,86,-115,-40,-24,25
1491088423465,2,-21,-28,51,-19,-46,-53,-127,-26
1491088423465,2,63,60,74,-44,57,42,110,-55
1491088423466,3,-22,-59,-84,-6,-85,-73,14,47
1491088423466,3,7,18,44,-113,114,5,-43,78
1491088423502,0,75,1,-42,-52,-37,29,30,-1
1491088423502,0,29,3,-120,-68,-34,-20,-97,17
1491088423503,1,25,-3,56,11,-31,60,77,-23
1491088423503,1,18,-54,40,81,7,-12,23,-28
1491088423504,2,0,9,112,-31,127,72,41,-48
1491088423504,2,53,33,87,9,99,4,-59,-14
1491088423539,3,39,-24,14,-83,-79,-109,-42,11
1491088423539,3,-39,-63,5,-94,-70,-111,-72,84
1491088423540,0,74,3,8,120,102,23,36,30
1491088423540,0,81,-35,30,-21,85,91,69,23
1491088423541,1,6,84,56,108,120,41,85,-26
1491088423541,1,33,-4,96,-15,-56,39,-40,41
1491088423542,2,-18,-11,16,-119,-26,-96,-28,-73
1491088423542,2,44,41,66,10,90,91,17,-75
1491088423578,3,-5,-58,-34,4,-48,-1,19,17
1491088423578,3,18,13,33,-2,-6,-77,-80,15
1491088423579,0,-37,32,1,-4,-65,62,-23,37
1491088423579,0,-57,-37,9,55,102,94,30,-43
1491088423580,1,32,31,40,-58,-17,-39,-46,-49
1491088423580,1,-7,-49,33,-23,-43,87,23,-20
1491088423581,2,47,32,-33,-114,56,-25,30,-51
1491088423581,2,-6,15,-27,-54,-98,-2,-20,58
1491088423614,3,-5,-29,-7,83,62,118,-1,-41
1491088423614,3,-12,-34,-118,-110,-93,-128,-22,78
1491088423616,0,-32,33,127,121,127,-7,-33,-26
1491088423616,0,-49,-37,-128,-34,-8,-71,62,24
1491088423617,1,52,38,23,-2,-92,-128,-111,14
1491088423617,1,16,1,-15,-16,127,90,-2,25
1491088423618,2,121,15,63,-5,44,127,31,35
1491088423618,2,113,18,-8,28,88,47,42,6
1491088423652,3,113,-15,122,47,119,80,-49,-35
1491088423652,3,127,36,-87,-15,127,127,124,-44
1491088423654,0,-8,4,2,86,-128,-128,-128,27
1491088423654,0,-89,-30,-34,-14,-128,18,24,19
1491088423655,1,-127,19,0,58,15,76,-6,-3
1491088423655,1,-107,6,26,-41,-101,51,43,-83
1491088423656,2,-110,-51,-128,-112,-92,-52,-22,56
1491088423656,2,-85,24,61,-68,44,64,52,-24
1491088423690,3,-107,-43,-55,34,-78,-90,0,26
1491088423690,3,-60,46,111,121,91,-6,-82,-117
1491088423691,0,-51,2,-23,-3,4,-37,-20,36
1491088423691,0,-58,2,117,120,-2,-33,13,-56
1491088423692,1,-47,-40,-128,-128,-23,113,-15,1
1491088423692,1,-27,-32,-33,-76,-81,-98,-12,86
1491088423693,2,-21,15,4,-1,63,97,51,20
1491088423693,2,-21,-7,-13,111,-128,-73,-70,-31
1491088423727,3,-65,-2,34,-6,126,-38,1,46
1491088423727,3,-105,27,52,81,56,79,-4,-59
1491088423728,0,-93,-42,-51,-41,-103,-91,-32,77
1491088423728,0,-128,30,48,58,85,50,31,4
1491088423729,1,-120,12,49,-93,74,83,103,-53
1491088423729,1,-53,-3,-116,62,-19,-2,-86,86
1491088423730,2,-22,32,110,-33,8,2,89,-35
1491088423730,2,-64,-59,-128,-128,-128,-128,-103,62
1491088423765,3,-91,3,27,19,35,36,-126,-16
1491088423765,3,69,31,6,-37,20,-57,-18,-18
1491088423766,0,24,-19,-6,3,-82,117,127,-41
1491088423766,0,58,46,74,73,67,59,-2,-16
1491088423767,1,27,-27,-90,-62,-110,-36,-51,42
1491088423767,1,-26,0,28,65,127,79,91,40
1491088423802,2,64,20,3,-48,-4,-95,-128,28
1491088423802,2,19,-26,-12,48,20,41,-15,-44
1491088423805,3,48,-1,-13,22,52,15,96,53
1491088423805,3,47,31,16,-69,90,127,96,-74
1491088423805,0,14,-62,-128,-39,-108,-118,-82,82
1491088423805,0,37,10,66,-91,127,127,91,30
1491088423806,1,59,10,5,106,55,-91,8,-44
1491088423806,1,-13,-20,-36,15,18,1,58,-6
1491088423839,2,42,80,111,-24,98,19,66,-39
1491088423839,2,41,-57,-128,-24,-125,-122,-128,66
1491088423840,3,43,-18,-1,5,-76,-53,-23,29
1491088423840,3,39,1,30,39,78,74,75,-37
1491088423841,0,-21,14,-31,-75,24,-30,-61,-54
1491088423841,0,72,31,114,94,127,34,81,32
1491088423842,1,-51,10,-78,-126,-121,27,0,-84
1491088423842,1,83,-63,-47,60,-18,-128,-43,27
1491088423877,2,-64,19,24,-38,58,127,78,-33
1491088423877,2,9,-75,-63,-15,-89,28,-95,25
1491088423878,3,-5,55,111,-18,3,-75,40,71
1491088423878,3,-13,-3,15,49,-128,56,-46,20
1491088423879,0,73,-19,-4,84,5,127,-11,-36
1491088423879,0,-43,-19,-54,-62,-1,100,75,-14
1491088423880,1,74,48,48,116,103,-69,-69,32
1491088423880,1,19,-3,-75,-128,-128,-113,-76,106
1491088423914,2,-39,-10,0,-50,23,53,55,4
1491088423914,2,67,5,-9,69,1,38,18,-66
1491088423915,3,1,26,96,117,126,127,52,-18
1491088423915,3,3,23,-16,41,84,-55,2,-36
1491088423916,0,-47,-44,-33,-38,-87,90,67,33
1491088423916,0,27,44,17,-23,39,-128,-45,15
1491088423952,1,30,-1,-44,-1,65,123,-8,-47
1491088423952,1,-10,-8,127,126,-71,9,10,-19
1491088423952,2,-36,54,-18,48,49,-98,42,36
1491088423952,2,-16,-9,-2,-41,-11,87,-107,5
1491088423953,3,76,19,-17,-40,-105,81,101,-18
1491088423953,3,-53,-65,-60,-50,34,-26,-128,-59
1491088423954,0,13,-20,79,124,109,127,69,-59
1491088423954,0,2,51,-30,-36,-16,-102,31,-26
1491088423989,1,-22,-29,-23,-32,-120,-72,-128,15
1491088423989,1,-56,10,31,32,81,114,119,-27
1491088423990,2,23,-9,-20,66,34,-128,55,7
1491088423990,2,2,5,-8,14,-39,39,15,-11
1491088423991,3,-30,-43,-66,-17,0,-71,38,53
1491088423991,3,-28,12,49,-72,-75,48,-19,-38
1491088423992,0,9,-42,-69,23,36,-85,-2,-17
1491088423992,0,-15,27,66,20,73,9,-9,-39
1491088424027,1,-28,-12,-37,-12,65,-99,73,34
1491088424027,1,89,-11,32,63,36,56,16,6
1491088424027,2,-39,21,-10,-101,-37,115,36,-30
1491088424027,2,-86,-65,-106,93,-82,-58,-39,57
1491088424028,3,72,4,51,39,54,-47,19,10
1491088424028,3,-9,-2,13,-20,127,53,32,-3
1491088424030,0,-2,69,112,25,112,81,-116,-20
1491088424030,0,-76,-29,-98,-111,-84,-112,93,-18
1491088424064,1,65,-33,-7,-89,-103,44,-7,-34
1491088424064,1,-97,20,-17,29,-99,91,76,-107
1491088424065,2,127,-7,-20,-52,-40,-128,-87,91
1491088424065,2,-12,50,73,-10,-22,127,43,-19
1491088424066,3,-88,-66,-31,105,43,-30,18,3
1491088424066,3,50,51,-14,-115,-87,28,-86,60
1491088424102,0,-22,-33,-35,127,21,-33,85,-17
1491088424102,0,-32,-13,57,33,113,21,64,-5
1491088424103,1,-30,18,-42,-77,-78,100,-50,26
1491088424103,1,76,-2,-23,-95,-111,-101,-48,-29
1491088424104,2,10,-9,83,16,20,100,50,-42
1491088424104,2,11,6,-80,62,103,-101,-39,25
1491088424105,3,67,-9,15,8,101,127,-9,9
1491088424105,3,-84,34,35,91,-45,-101,-42,31
1491088424139,0,40,5,17,-120,-115,104,-128,-3
1491088424139,0,-3,-40,-58,92,58,-85,-84,59
1491088424140,1,-75,-18,-41,-50,-105,-18,123,-46
1491088424140,1,59,-9,25,72,-5,59,-31,-12
1491088424141,2,-43,36,-35,-48,-100,117,-65,11
1491088424141,2,83,-6,15,-107,-98,-11,7,54
1491088424142,3,-3,28,-9,-70,25,53,29,-5
1491088424142,3,15,-49,-30,-109,-72,60,-3,-63
1491088424177,0,-56,5,-14,34,54,-86,127,17
1491088424177,0,-32,17,15,-32,-113,127,76,-53
1491088424177,1,48,7,102,108,-79,-19,-45,1
1491088424177,1,-46,-20,-81,66,127,-84,41,21
1491088424178,2,26,-34,-24,70,0,15,79,28
1491088424178,2,-34,-11,29,27,84,116,118,-29
1491088424179,3,-35,28,51,104,53,-116,-105,29
1491088424179,3,25,-43,-65,-94,-106,33,38,9
1491088424214,0,0,-69,-74,50,59,-128,-114,-7
1491088424214,0,38,86,60,-128,-113,68,-75,-14
1491088424215,1,-40,-45,12,127,64,67,114,-59
1491088424215,1,-44,-3,-42,13,75,-95,-128,42
1491088424216,2,-42,-42,-40,-16,46,-75,127,66
1491088424216,2,42,20,79,17,67,71,-117,-77
1491088424252,3,-14,28,-79,-128,39,-115,42,-96
1491088424252,3,-62,-4,-50,59,-64,52,32,43
1491088424252,0,65,42,33,-6,-93,-74,-32,21
1491088424252,0,-62,-16,17,-47,-69,-61,-74,115
1491088424253,1,-4,-8,-42,73,96,68,47,-33
1491088424253,1,20,23,57,-70,-4,-3,44,0
1491088424254,2,-107,0,-35,127,-25,-42,60,-7
1491088424254,2,109,7,13,-60,3,46,28,-2
1491088424290,3,-43,-91,-38,-81,-93,-57,-4,-64
1491088424290,3,-33,29,7,-100,3,44,56,87
1491088424290,0,24,9,-13,10,-100,-11,-87,20
1491088424290,0,-94,-36,-3,41,88,-128,79,-5
1491088424291,1,81,46,6,-53,-45,127,-107,47
1491088424291,1,-11,27,116,57,57,-104,53,-128
1491088424292,2,0,-3,-4,-26,-32,53,-128,10
1491088424292,2,10,-51,-124,74,-2,-60,32,40
1491088424327,3,108,35,29,26,64,9,56,98
1491088424327,3,-44,-12,-6,-108,-76,96,-81,-6
1491088424327,0,-34,39,22,-56,-59,86,-40,-91
1491088424327,0,27,19,-1,50,85,48,65,67
1491088424329,1,-80,-19,55,58,55,99,-52,-101
1491088424329,1,41,-24,-44,-29,-60,32,94,68
1491088424364,2,-53,51,97,2,124,39,-67,43
1491088424364,2,16,3,-4,92,-68,-30,-7,-44
1491088424365,3,-77,-44,-59,-116,-43,-72,9,47
1491088424365,3,68,4,13,-32,-30,64,100,-12
1491088424366,0,25,-65,-92,71,106,-72,-72,91
1491088424366,0,-39,-12,12,-89,-59,96,127,-102
1491088424367,1,-36,-11,41,106,43,26,-128,99
1491088424367,1,-12,80,13,67,80,-19,-77,-92
1491088424402,2,57,-28,-5,-128,-121,35,127,8
1491088424402,2,19,26,45,-63,1,26,-128,-38
1491088424403,3,24,-13,2,97,31,45,-11,9
1491088424403,3,90,15,-15,-73,-21,34,29,46
1491088424404,0,-98,-56,-10,97,65,-93,-8,-36
1491088424404,0,17,10,76,25,66,87,38,-54
1491088424404,1,-24,18,-43,-121,-128,-51,-113,5
1491088424404,1,-43,-32,5,127,54,-128,-45,66
1491088424439,2,78,3,-115,-111,-9,72,118,-62
1491088424439,2,-79,-40,16,-15,7,-89,-127,99
1491088424441,3,-7,50,63,78,83,99,127,-124
1491088424441,3,86,25,34,3,83,-119,-63,24
1491088424442,0,-52,-30,-38,-26,-85,127,48,-88
1491088424442,0,56,54,-8,-22,-59,-115,-122,28
1491088424442,1,-22,11,-7,5,26,74,122,4
1491088424442,1,-33,5,63,-64,-21,19,67,-25
1491088424477,2,57,1,4,98,-4,-36,-33,57
1491088424477,2,-36,-105,-128,-38,-128,-113,-44,59
1491088424478,3,-53,60,66,43,65,13,-38,-8
1491088424478,3,82,0,-18,45,8,127,94,-53
1491088424479,0,-58,5,37,58,73,-57,-45,26
1491088424479,0,-55,47,32,-97,-116,82,5,24
1491088424514,1,-88,-47,-88,100,-55,-60,-78,69
1491088424514,1,28,-30,23,-93,127,3,78,-34
1491088424515,2,13,-10,-17,-9,-85,61,38,64
1491088424515,2,-1,8,-37,-39,-21,-5,-94,-10
1491088424516,3,17,42,24,-52,-45,32,77,118
1491088424516,3,-18,-75,-59,85,-13,-5,-107,-92
1491088424517,0,120,36,90,-46,-71,80,80,-128
1491088424517,0,-36,15,-32,118,127,-41,115,-1
1491088424552,1,12,20,87,-69,-128,-83,-70,28
1491088424552,1,2,5,-61,61,-26,70,64,77
1491088424554,2,-83,-24,-45,-122,-80,-71,-128,-71
1491088424554,2,-8,-45,27,127,77,9,43,-49
1491088424555,3,-39,-19,-22,-1,-12,-1,83,24
1491088424555,3,47,24,81,71,122,-26,-128,62
1491088424556,0,-44,101,118,-19,104,127,38,-47
1491088424556,0,-23,-20,-48,84,-22,36,115,-67
1491088424589,1,60,-53,-93,-11,5,34,-21,67
1491088424589,1,-74,-39,-17,-114,-128,-112,-88,-4
1491088424591,2,-25,-9,0,127,122,38,-88,-42
1491088424591,2,30,24,73,33,46,-114,43,-7
1491088424592,3,-34,73,36,-78,-93,38,127,-116
1491088424592,3,2,-53,-93,120,53,-68,-75,38
1491088424593,0,-22,-59,-88,-77,-87,73,45,51
1491088424593,0,99,87,59,-128,-71,-114,-113,-68
1491088424627,1,15,-34,-19,101,55,97,81,52
1491088424627,1,-1,22,42,-98,-48,80,-22,0
1491088424630,2,-71,23,4,-24,-52,42,83,-20
1491088424630,2,-5,-63,-76,73,31,39,-67,127
1491088424631,3,22,-20,16,-128,-45,127,40,-42
1491088424631,3,-55,50,9,14,-78,71,91,27
1491088424664,0,101,-5,16,30,110,-100,82,127
1491088424664,0,22,-25,-17,-60,12,127,-41,-88
1491088424703,1,-38,69,34,54,92,-89,-75,12
1491088424703,1,-4,-29,-82,-15,-5,-88,127,89
1491088424705,2,19,32,22,46,-7,-90,-128,-36
1491088424705,2,-83,-55,-51,45,20,-85,-38,18
1491088424705,3,-22,0,-21,-59,73,-65,-128,-103
1491088424705,3,-11,-62,-37,-15,67,-16,98,75
1491088424706,0,67,51,16,-81,-108,95,-66,-82
1491088424706,0,-52,6,24,-61,-49,-5,111,48
1491088424739,1,36,-30,12,77,-18,60,-108,-55
1491088424739,1,7,73,98,91,79,-108,24,-73
1491088424742,2,-24,-40,-61,66,84,-38,-74,82
1491088424742,2,-18,-48,-53,-76,-73,124,-50,-24
1491088424743,0,34,-22,-61,54,11,-90,94,112
1491088424743,0,-24,-47,15,52,0,73,-62,35
1491088424743,1,25,19,27,71,61,-128,123,7
1491088424743,1,42,-13,7,-60,-14,-59,-36,22
1491088424777,2,23,65,-13,-89,-83,32,61,-103
1491088424777,2,-80,6,-8,80,91,-81,-1,66
1491088424777,3,42,-79,-18,51,71,89,-52,9
1491088424777,3,-12,15,-45,-36,-60,47,99,18
1491088424778,0,-40,-48,-28,89,2,-50,-106,54
1491088424778,0,-12,82,50,0,-114,117,62,-84
1491088424779,1,-84,24,21,84,95,-128,-107,-59
1491088424779,1,93,-59,16,127,-43,79,39,119
1491088424815,2,-88,32,6,-128,-70,14,42,34
1491088424815,2,19,12,-52,-29,-27,-83,100,-31
1491088424816,3,-38,7,102,-56,5,108,-100,11
1491088424816,3,12,43,-19,88,99,14,-13,-59
1491088424816,0,-35,-95,-31,-18,10,5,-114,60
1491088424816,0,66,32,52,-68,-71,-12,91,68
1491088424817,1,-30,20,-91,-128,-128,60,109,-54
1491088424817,1,11,27,27,-101,-50,-76,-44,97
1491088424852,2,78,-6,41,-80,-17,127,29,-128
1491088424852,2,-38,-48,-40,127,127,-51,-85,-21
1491088424853,3,109,-8,-32,-50,-36,44,116,64
1491088424853,3,-128,-16,15,-7,-31,78,-128,-58
1491088424853,0,-21,25,16,-65,-39,-23,-18,-40
1491088424853,0,-34,12,13,-11,-2,72,14,-28
1491088424854,1,45,20,45,41,68,-55,-57,46
1491088424854,1,-8,-64,-102,-14,4,-128,-54,-5
1491088424889,2,-18,-3,58,-11,26,68,31,23
1491088424889,2,44,48,22,-29,13,46,21,5
1491088424891,3,-42,-107,-128,-32,-37,4,54,50
1491088424891,3,87,45,89,74,54,45,-67,4
1491088424892,0,-102,-13,-9,-30,-39,27,5,63
1491088424892,0,109,45,61,-65,-15,-40,87,-90
1491088424892,1,-15,31,14,91,29,-80,-113,59
1491088424892,1,-88,16,5,-124,-80,40,83,-86
1491088424927,2,-53,-81,-68,127,99,-31,-61,53
1491088424927,2,5,-87,-24,-113,47,63,75,76
1491088424927,3,9,69,61,-116,-47,42,-8,-35
1491088424927,3,34,16,24,20,45,-15,-87,-128
1491088424928,0,-52,50,58,90,89,16,-11,-75
1491088424928,0,-18,-11,-38,-7,-82,-51,59,-37
1491088424929,1,34,-10,29,-85,27,-84,-78,-3
1491088424929,1,-80,-67,-104,-86,-125,-87,-97,88
1491088424968,2,82,44,16,-10,-53,-95,113,36
1491088424968,2,-1,-7,27,-40,72,94,34,-18
1491088424970,3,-63,-61,-51,104,37,31,-79,-61
1491088424970,3,-53,68,115,83,127,109,99,-47
1491088424971,0,68,27,-18,-111,-53,-128,-82,64
1491088424971,0,-62,-76,-46,127,-76,-29,21,6
1491088424972,1,40,91,12,-128,-128,79,-33,-84
1491088424972,1,-100,-94,-82,64,119,-113,-77,100
1491088425002,2,55,-19,53,92,127,127,83,-84
1491088425002,2,-3,52,21,-96,-76,3,-128,1
