1491087296152,0,-45,-56,-75,-52,-107,-58,-30,-46
1491087296152,0,-5,-1,6,67,-30,3,12,8
1491087296155,1,-8,0,7,32,-7,-5,-8,-5
1491087296155,1,14,11,13,21,11,3,-3,11
1491087296155,2,18,12,20,-1,47,15,-14,3
1491087296155,2,-14,-5,-13,-31,12,-1,9,-7
1491087296189,3,-2,-4,-5,-21,1,-2,2,-1
1491087296189,3,-8,-8,-8,-17,8,-3,-5,-10
1491087296190,0,-4,4,7,9,18,6,-2,6
1491087296190,0,3,-3,-6,-8,-1,-7,-15,-9
1491087296191,1,0,3,2,7,11,4,11,2
1491087296191,1,-14,-4,-9,-4,-7,-10,-29,-24
1491087296192,2,7,11,14,14,8,8,25,23
1491087296192,2,10,2,12,8,8,5,4,8
1491087296227,3,-3,-5,-7,-12,-1,-4,3,5
1491087296227,3,5,-1,-8,-2,-9,-3,-3,2
1491087296228,0,-11,-2,5,12,1,6,10,-5
1491087296228,0,1,1,1,-10,3,-9,-23,-11
1491087296230,1,1,-6,-6,-7,-4,6,-5,-4
1491087296230,1,-8,-4,-1,3,-4,-5,10,-3
1491087296264,2,3,9,7,7,13,8,3,-1
1491087296264,2,-7,-3,-6,-6,-3,-1,19,3
1491087296265,3,5,0,-6,0,-3,-5,-5,8
1491087296265,3,0,2,3,6,-3,-1,-24,-9
1491087296266,0,1,2,4,1,7,5,30,13
1491087296266,0,-1,-3,-3,-7,2,-2,13,3
1491087296302,1,-6,-5,-6,-2,-4,-5,-26,-17
1491087296302,1,1,-1,-8,-6,1,1,33,27
1491087296302,2,-4,1,11,9,-2,-3,-13,-8
1491087296302,2,8,-4,-3,0,0,-4,-25,-15
1491087296303,3,6,1,-1,-2,1,0,1,11
1491087296303,3,-14,-9,-1,3,-2,-7,-18,-23
1491087296304,0,14,-2,-3,-1,1,3,28,17
1491087296304,0,6,4,-4,2,8,1,-4,-6
1491087296339,1,-11,-2,3,4,2,1,13,9
1491087296339,1,-6,-4,-4,-6,-5,-2,1,-6
1491087296340,2,-4,1,3,7,3,1,-16,-2
1491087296340,2,-9,-6,-1,-4,-3,-10,-51,-29
1491087296341,3,1,0,-3,1,1,-2,46,10
1491087296341,3,-15,-6,-3,1,-2,0,8,9
1491087296342,0,14,-3,0,-3,-2,0,5,13
1491087296342,0,-1,0,-4,0,-1,1,-9,-3
1491087296377,1,4,0,-1,6,-10,-18,-69,-33
1491087296377,1,-7,1,11,8,-1,11,54,18
1491087296378,2,1,-1,-10,-7,1,6,10,0
1491087296378,2,-4,1,1,-2,-2,-3,5,7
1491087296414,3,-5,-1,-6,-6,0,-4,-13,-10
1491087296414,3,16,3,0,-3,-3,-9,-24,-5
1491087296415,0,3,6,0,-1,-1,-8,-37,-26
1491087296415,0,4,4,2,-12,-1,3,39,26
1491087296416,1,-4,-3,-1,0,-3,4,-1,5
1491087296416,1,16,5,-1,-4,2,4,-19,-4
1491087296417,2,-14,-3,1,5,2,-2,4,-4
1491087296417,2,-4,-3,-9,-10,-4,2,-1,3
1491087296452,3,-6,-5,1,-1,-1,-1,5,0
1491087296452,3,1,-3,-7,-9,-2,-2,5,2
1491087296452,0,8,1,4,3,0,-2,-32,-12
1491087296452,0,-4,-3,-3,3,3,-1,6,8
1491087296453,1,-19,-1,1,-3,-2,0,32,-2
1491087296453,1,10,-5,-1,-1,0,1,1,-9
1491087296454,2,9,-1,-5,-1,-2,-4,-13,9
1491087296454,2,-5,-5,0,-2,-2,0,-7,-1
1491087296489,3,-2,-6,3,5,0,1,-9,2
1491087296489,3,2,-5,-3,5,-3,-3,-18,4
1491087296490,0,-6,3,-3,-4,-2,-2,15,12
1491087296490,0,-5,0,-4,0,-6,-7,-21,-15
1491087296491,1,5,4,-4,-9,0,1,5,11
1491087296491,1,-12,-1,-2,-4,-1,4,25,3
1491087296492,2,6,2,2,-2,4,6,13,5
1491087296492,2,7,1,0,0,-2,-5,-20,-5
1491087296527,3,0,-1,-1,1,-2,-6,7,26
1491087296527,3,-15,-3,-4,-6,-7,-2,11,14
1491087296527,0,0,-4,-1,0,-1,5,9,44
1491087296527,0,2,-1,3,15,-2,3,3,109
1491087296528,1,2,0,-4,3,-1,-6,-27,111
1491087296528,1,0,0,4,-4,1,-2,-27,7
1491087296529,2,-3,-2,-4,-9,-4,-4,24,-87
1491087296529,2,-13,-2,-2,-10,-2,0,6,-128
1491087296564,3,5,-6,-1,0,-2,-7,-17,-128
1491087296564,3,2,0,-7,-10,4,7,6,-107
1491087296565,0,-12,-3,-1,-4,-4,-3,-16,-109
1491087296565,0,23,-1,1,-7,-4,2,17,-83
1491087296566,1,-17,-3,-5,-3,-3,-4,-11,-76
1491087296566,1,-3,0,-1,2,1,-6,-18,-53
1491087296567,2,-4,-3,-1,1,-3,-6,-24,-19
1491087296567,2,-13,-2,-6,-6,-2,1,43,0
1491087296602,3,8,3,8,2,2,4,15,-11
1491087296602,3,-4,-1,-4,2,-1,-4,-15,-13
1491087296602,0,-11,-1,1,-2,-2,-1,-18,9
1491087296602,0,10,-1,-4,-8,0,0,-4,16
1491087296603,1,7,2,0,-6,-3,-2,-2,-6
1491087296603,1,0,-2,-3,6,-2,2,18,8
1491087296604,2,-17,-2,-1,2,-7,-10,-21,9
1491087296604,2,-6,-3,6,4,6,5,25,6
1491087296677,3,10,-1,-3,-4,14,12,9,-1
1491087296677,3,2,1,3,-1,-10,-12,-40,6
1491087296678,0,-13,-1,-4,-7,10,7,45,18
1491087296678,0,-9,-1,1,0,-11,-5,-9,5
1491087296679,1,4,4,12,22,3,-4,-27,-7
1491087296679,1,-3,-7,-8,-16,-6,4,36,26
1491087296679,2,13,2,-11,-23,-12,-13,-1,6
1491087296679,2,-10,0,-6,-3,-1,-13,-34,1
1491087296714,3,-2,-5,-11,-7,9,38,9,-2
1491087296714,3,1,3,16,6,10,-26,3,8
1491087296715,0,0,-4,5,11,-5,11,-14,4
1491087296715,0,-13,-10,-10,-24,-61,-19,-2,-9
1491087296716,1,20,4,3,16,-23,-7,3,15
1491087296716,1,10,-3,-8,9,33,9,-4,-1
1491087296717,3,-20,-8,-8,-13,-42,-13,-15,-6
1491087296717,3,-4,0,-6,-23,-29,18,58,7
1491087296752,0,4,4,-3,1,31,9,-17,3
1491087296752,0,5,-2,4,-17,-8,12,-3,-5
1491087296753,1,-4,2,3,8,-14,-21,-23,-11
1491087296753,1,-11,3,4,5,-24,-5,-5,2
1491087296754,3,7,9,3,-29,3,-58,-4,8
1491087296754,3,-4,-5,-7,13,23,1,-2,6
1491087296754,0,-8,-7,-4,20,-12,6,-4,8
1491087296754,0,-4,3,0,13,40,29,12,-11
1491087296789,1,3,4,19,9,46,31,16,5
1491087296789,1,-15,-2,3,-16,-37,-31,-63,-7
1491087296827,2,5,-4,-9,-16,-18,-11,1,9
1491087296827,2,-4,0,-15,-19,-35,-9,32,16
1491087296828,3,-1,-6,1,5,12,5,27,3
1491087296828,3,-12,-1,1,6,-2,-42,-57,-12
1491087296829,0,16,-1,-8,13,-8,84,47,5
1491087296829,0,1,3,11,1,-76,-73,-10,4
1491087296830,1,-13,-15,-21,-3,13,-59,-79,-12
1491087296830,1,7,4,7,-18,58,44,59,39
1491087296864,2,-8,-5,4,12,5,-23,-31,-20
1491087296864,2,-3,2,8,32,51,14,-59,0
1491087296865,3,-23,-8,-4,-17,-9,-3,64,-18
1491087296865,3,19,-7,-12,-9,36,6,-17,-12
1491087296866,0,3,2,13,-29,-67,-22,-29,-18
1491087296866,0,-2,-5,-10,-1,-36,-73,97,40
1491087296867,2,-6,0,-2,-5,5,-16,102,10
1491087296867,2,5,5,16,48,64,53,-119,-41
1491087296902,3,7,-2,-7,-73,-47,-12,58,-8
1491087296902,3,0,-6,-24,7,-31,2,31,8
1491087296903,0,4,-9,-18,-38,-2,-12,-4,17
1491087296903,0,-8,3,28,77,121,26,-10,1
1491087296904,2,-8,6,0,0,-12,-64,-43,-12
1491087296904,2,3,-3,2,-29,30,8,-85,-13
1491087296904,3,8,7,25,65,122,83,-84,-19
1491087296904,3,-18,0,-3,-8,-17,-44,29,7
1491087296939,0,9,1,5,11,41,73,80,2
1491087296939,0,-11,-8,-23,-53,-93,-93,-23,0
1491087296940,1,-27,-7,-11,17,42,8,-7,13
1491087296940,1,46,24,25,-65,12,80,44,-18
1491087296941,2,-18,-10,-21,35,-81,-47,-20,-14
1491087296941,2,-10,-8,-7,10,17,30,90,13
1491087296942,3,-10,-5,-14,-2,-44,-88,-59,-26
1491087296942,3,-13,-6,-20,72,23,-16,-57,20
1491087296977,0,19,14,31,-4,77,32,7,-9
1491087296977,0,4,1,-18,-96,-105,-45,17,1
1491087296978,1,15,-3,-8,-9,26,-5,76,3
1491087296978,1,0,2,17,29,2,33,-13,-7
1491087296979,2,5,18,79,3,127,97,46,-35
1491087296979,2,0,-10,-36,14,-96,-2,-44,19
1491087296979,3,-21,-15,-28,42,41,-14,114,47
1491087296979,3,0,-8,-17,-35,-59,-40,-73,-2
1491087297014,0,19,-7,-42,-9,-49,-74,-83,28
1491087297014,0,-2,23,72,69,127,127,10,-39
1491087297015,1,31,20,26,-89,-101,-72,-8,1
1491087297015,1,-21,-7,-16,31,-72,28,65,3
1491087297016,2,-11,-12,-13,-27,24,-93,-38,13
1491087297016,2,2,-9,-47,-88,-105,24,46,21
1491087297017,3,-5,-6,-15,121,-36,-49,-62,15
1491087297017,3,-7,8,30,33,52,78,-31,3
1491087297052,0,7,7,24,75,43,36,-7,7
1491087297052,0,16,26,70,55,127,113,97,-30
1491087297053,1,-21,-4,-16,-111,-79,21,17,-44
1491087297053,1,-9,-21,-64,-113,-123,-128,-29,4
1491087297089,2,-16,-20,-51,-22,24,3,-107,-30
1491087297089,2,-3,-3,-2,39,54,-30,-1,12
1491087297090,3,18,13,42,30,44,66,-23,-9
1491087297090,3,2,0,34,21,74,23,34,6
1491087297164,0,1,-1,-3,-5,-86,-26,60,17
1491087297164,0,-3,-15,-19,24,3,-17,-94,-9
1491087297168,1,10,2,17,-61,-23,20,13,-11
1491087297168,1,-12,-12,-14,-10,62,-4,-5,-5
1491087297169,2,-8,-10,-20,11,-47,-18,-16,13
1491087297169,2,-8,-9,-16,-16,-46,-39,21,9
1491087297169,3,-5,-8,-6,22,4,59,56,-2
1491087297169,3,2,4,31,14,43,-6,-43,-23
1491087297202,1,5,-2,17,53,127,18,-17,2
1491087297202,1,8,11,12,14,-10,26,66,11
1491087297203,2,-7,-12,-52,-48,-127,-95,-45,9
1491087297203,2,-7,-3,-11,2,-35,-3,-21,8
1491087297204,0,-3,8,15,-3,1,32,8,-8
1491087297204,0,2,1,-10,-19,-23,-27,-23,8
1491087297205,0,-11,-5,4,-2,0,26,12,-1
1491087297205,0,-9,-1,-2,-21,-17,-37,3,-13
1491087297239,1,-11,1,-25,21,-47,7,39,8
1491087297239,1,-8,-1,-19,-14,-39,-47,-71,-10
1491087297241,2,14,11,17,21,15,39,55,24
1491087297241,2,-2,2,9,16,28,-4,-84,-16
1491087297241,0,4,-1,3,8,17,-61,-74,-1
1491087297241,0,-4,-2,-14,-39,-38,12,104,22
1491087297242,1,3,3,1,-3,-1,-22,-106,-19
1491087297242,1,5,-2,2,2,1,26,41,-1
1491087297277,2,-23,2,14,5,43,52,70,-17
1491087297277,2,15,2,-1,9,4,6,-32,-3
1491087297278,3,-16,-8,-10,-1,1,23,39,-3
1491087297278,3,-3,-2,-3,-12,-28,-80,-54,-7
1491087297279,0,-13,-6,10,-40,4,67,20,-17
1491087297279,0,11,-10,-8,-19,-10,-56,-19,-1
1491087297280,1,-6,-7,-37,-13,-54,-59,-33,32
1491087297280,1,-10,-4,-12,-5,-25,-26,-1,-9
1491087297314,2,13,8,12,9,16,37,8,-7
1491087297314,2,-4,-5,3,-3,33,50,2,-14
1491087297315,3,12,18,47,54,111,87,82,26
1491087297315,3,-7,-4,6,-6,36,-37,-23,-12
1491087297318,0,-21,-17,-33,-57,-84,-45,-73,2
1491087297318,0,11,-2,0,-11,-21,85,-2,-20
1491087297319,1,18,5,5,8,36,-89,-2,-5
1491087297319,1,-7,-1,-4,-27,-43,-66,42,1
1491087297352,2,18,17,5,51,16,11,14,11
1491087297352,2,-19,-3,7,-7,105,34,-101,-40
1491087297353,3,-18,-11,-10,52,-75,127,107,19
1491087297353,3,-14,15,10,-72,-71,-42,-104,-26
1491087297355,0,-7,-12,-35,32,40,-36,1,13
1491087297355,0,-21,-8,-13,-2,-126,12,88,16
1491087297355,1,-9,4,30,76,65,14,-70,-80
1491087297355,1,32,12,-5,-60,85,-64,41,45
1491087297389,2,-9,-17,-28,11,29,73,35,29
1491087297389,2,7,35,47,95,-47,20,98,55
1491087297390,3,-23,2,14,-56,-36,58,-57,-44
1491087297390,3,-15,-16,3,50,80,11,18,-41
1491087297391,0,6,-7,5,-121,-41,16,-85,-41
1491087297391,0,14,-17,-41,82,73,-66,-59,10
1491087297392,1,11,-11,-13,-12,-75,-107,-17,41
1491087297392,1,-11,-10,3,79,-50,17,22,0
1491087297427,2,16,11,2,-89,-37,9,67,5
1491087297427,2,-21,-20,-5,42,20,-128,-31,13
1491087297429,3,31,-6,-8,-31,-16,78,10,0
1491087297429,3,6,-11,-27,-59,-14,20,-23,-24
1491087297430,0,11,0,11,43,24,-38,39,-5
1491087297430,0,-18,-8,-8,-62,28,36,-48,-34
1491087297431,1,32,-4,-3,4,1,-19,-14,3
1491087297431,1,11,3,18,32,-16,106,-12,16
1491087297464,2,18,5,11,29,-77,-37,54,9
1491087297464,2,-15,-11,-5,-64,49,60,29,-25
1491087297465,3,-25,-17,-37,-37,-12,-83,-20,4
1491087297465,3,5,5,14,6,94,127,64,-1
1491087297466,0,-5,-10,-26,43,17,-111,-55,21
1491087297466,0,-14,10,21,3,-79,96,-43,3
1491087297502,1,1,-8,-14,-115,-8,-95,77,6
1491087297502,1,-10,-12,-12,100,-52,76,52,28
1491087297503,2,-6,-5,19,21,65,-68,-79,-67
1491087297503,2,18,-18,-29,-43,-119,-128,18,3
1491087297504,3,-13,0,-1,-7,35,90,94,22
1491087297504,3,-1,-1,9,-30,-3,67,-15,-60
1491087297505,0,10,20,30,52,36,35,75,32
1491087297505,0,-13,4,8,6,48,-14,20,-5
1491087297539,1,-2,6,-11,-41,3,-37,-73,-35
1491087297539,1,-5,5,-14,3,15,-38,-61,30
1491087297540,2,-22,-2,16,56,-14,100,30,-6
1491087297540,2,24,8,20,-27,2,20,45,-16
1491087297541,3,-29,3,-37,-17,-80,-81,-65,25
1491087297541,3,-3,4,-4,-57,9,36,51,-12
1491087297547,0,-12,-1,-10,9,-30,-11,-46,5
1491087297547,0,-15,-13,-14,4,-25,31,5,-15
1491087297577,1,-21,-27,-10,34,41,17,-43,-36
1491087297577,1,6,23,44,25,-13,-17,47,35
1491087297578,2,3,4,14,4,47,25,78,-3
1491087297578,2,4,6,15,-2,24,22,20,24
1491087297580,3,2,-8,2,9,-16,56,14,-28
1491087297580,3,0,2,-9,-7,-29,0,-48,-4
1491087297580,0,29,-12,-14,-20,4,89,61,25
1491087297580,0,0,8,4,-11,-52,-112,-32,29
1491087297614,1,6,-4,-15,-14,-1,85,-49,-14
1491087297614,1,9,12,7,23,-2,-10,18,12
1491087297616,2,11,10,5,-26,-23,9,2,-20
1491087297616,2,-2,0,-3,13,32,13,29,2
1491087297617,3,11,16,24,23,13,-14,59,8
1491087297617,3,-16,-11,-2,17,8,-50,-40,-14
1491087297619,0,-22,-20,-24,-37,-20,4,-26,-13
1491087297619,0,12,7,1,34,4,-61,-15,41
1491087297689,1,6,15,4,-4,-8,-26,11,9
1491087297689,1,-10,-4,-12,-8,-25,9,-53,-23
1491087297690,2,2,9,9,-4,-8,-27,-10,-2
1491087297690,2,-4,-10,-13,0,27,33,14,-18
1491087297691,3,-5,1,6,25,20,-2,30,12
1491087297691,3,8,4,1,7,2,-34,1,9
1491087297692,0,-20,-3,0,5,-6,27,-30,8
1491087297692,0,5,0,-5,-12,22,-19,-24,-3
1491087297727,1,5,8,3,4,-11,-24,-1,-17
1491087297727,1,-6,-7,-3,-24,-23,-23,4,-2
1491087297728,2,-8,-4,-6,12,8,-1,-5,1
1491087297728,2,-1,0,-3,13,6,49,-9,-10
1491087297730,3,-3,-15,-8,-2,-6,-30,38,18
1491087297730,3,13,9,6,-7,2,-13,-15,-16
1491087297730,0,-1,-4,-7,-8,-12,-11,-5,-10
1491087297730,0,3,3,6,1,-6,10,8,-8
1491087297764,1,3,-1,15,14,55,40,-13,6
1491087297764,1,-6,0,15,-2,-22,-29,39,7
1491087297766,2,6,-11,-16,-13,-41,-51,-62,10
1491087297766,2,0,-4,-10,-16,17,10,-15,-12
1491087297767,0,-5,4,8,14,44,45,14,14
1491087297767,0,-24,-19,-25,-26,-33,-58,39,-25
1491087297802,1,8,-1,-1,-2,-13,1,-58,3
1491087297802,1,0,-7,-19,-7,-5,4,25,6
1491087297803,2,2,-2,7,-1,-8,-16,-21,-15
1491087297803,2,3,7,14,10,10,14,-38,16
1491087297804,3,-9,5,6,6,8,15,35,12
1491087297804,3,-1,-3,1,5,16,-8,6,-9
1491087297805,0,-3,-9,-13,-13,9,30,13,-6
1491087297805,0,-3,-6,-8,-11,-20,-40,-31,-6
1491087297839,1,1,-1,7,7,-4,-6,-27,0
1491087297839,1,1,4,3,15,-4,64,30,22
1491087297841,2,-6,-1,-3,-12,-22,-109,-30,3
1491087297841,2,-3,4,-10,2,-20,44,4,-22
1491087297842,3,18,8,0,-8,-1,-4,-48,-16
1491087297842,3,-10,-13,-11,5,11,15,59,22
1491087297843,0,-7,10,10,7,-1,31,15,-17
1491087297843,0,3,1,6,5,29,18,33,-5
1491087297877,1,-12,-1,1,11,0,-42,-31,31
1491087297877,1,3,-7,-9,-12,-8,-33,-86,-26
1491087297878,2,19,-2,-4,-20,2,54,84,6
1491087297878,2,13,3,9,13,46,-12,43,5
1491087297879,3,6,16,18,35,38,45,-4,11
1491087297879,3,-13,-13,-14,-16,-68,-62,-38,4
1491087297880,0,3,-17,-34,-14,-76,-38,-2,10
1491087297880,0,5,9,-7,-10,-17,26,-42,-10
1491087297914,1,-7,-7,-2,-9,19,23,12,-27
1491087297914,1,-3,5,16,12,52,28,22,9
1491087297915,2,0,9,14,14,37,35,79,-15
1491087297915,2,-3,-9,-7,-10,-13,-1,-91,-1
1491087297916,3,-2,15,-8,-18,-18,-63,24,-2
1491087297916,3,-3,-5,5,-6,-9,10,-4,2
1491087297917,0,-12,-5,1,6,2,0,-44,0
1491087297917,0,17,12,33,41,96,111,109,13
1491087297952,1,-1,-10,-2,-22,-13,-78,-93,-19
1491087297952,1,-29,-15,-30,-40,-77,-28,-51,-18
1491087297953,2,-5,-9,-14,2,-37,25,106,8
1491087297953,2,-5,12,2,0,-19,-65,-75,12
1491087297954,3,-5,2,24,47,60,99,84,-14
1491087297954,3,24,10,4,5,73,36,65,6
1491087297955,0,-18,-14,-26,-46,-57,-113,-102,4
1491087297955,0,-18,-11,-16,-18,-47,9,-55,-12
1491087297989,1,-3,-8,-12,-8,-30,-1,35,17
1491087297989,1,-1,3,12,21,14,-19,-37,-16
1491087297991,2,1,7,19,37,62,75,-2,-7
1491087297991,2,-2,-7,-2,-19,-7,-27,49,1
1491087297992,3,4,0,-1,-1,-29,-9,20,25
1491087297992,3,10,-5,-3,-4,-17,-15,-49,-10
1491087297994,0,12,-8,-9,-3,12,-25,-14,14
1491087297994,0,11,8,23,16,35,96,122,0
1491087298027,1,-3,-4,-4,25,42,6,-94,-5
1491087298027,1,-15,-7,-16,-39,-35,-67,29,-6
1491087298028,2,0,-2,-6,-23,-35,58,7,-28
1491087298028,2,-15,-6,-20,3,-55,-105,-60,9
1491087298029,3,-2,-5,1,-6,-24,14,39,-1
1491087298029,3,4,-2,10,30,42,26,-17,2
1491087298030,0,-1,7,14,35,50,-21,-28,2
1491087298030,0,-4,-8,-16,-25,-36,-19,24,-4
1491087298064,1,2,-1,-18,-21,-52,-31,-53,17
1491087298064,1,-12,-2,-9,-6,-7,4,-40,-9
1491087298177,2,0,1,13,9,18,-7,51,-9
1491087298177,2,4,-2,4,3,47,17,-69,-32
1491087298178,3,-2,6,2,19,-12,-23,-7,1
1491087298178,3,-4,-4,6,9,1,13,43,13
1491087298179,0,11,2,-6,-35,-22,-35,-19,-3
1491087298179,0,-7,-3,-3,5,-36,66,3,4
1491087298179,1,-1,-10,-12,-46,20,-86,9,-17
1491087298179,1,3,3,2,-11,-10,55,-26,11
1491087298214,2,3,6,-1,42,12,-62,-35,2
1491087298214,2,-11,-7,3,11,15,37,61,16
1491087298216,3,14,-6,-18,-38,-35,-10,-56,-9
1491087298216,3,-7,0,-3,12,15,99,73,-20
1491087298217,0,-15,5,10,-44,-35,-77,0,12
1491087298217,0,5,6,-3,4,17,-7,-33,-4
1491087298217,1,-12,-15,-22,10,-58,-19,6,4
1491087298217,1,2,0,-5,-33,-23,-10,-25,-14
1491087298252,2,-5,1,0,2,4,8,29,2
1491087298252,2,3,-1,-2,9,27,81,-22,-8
1491087298253,3,8,13,22,17,39,-33,44,12
1491087298253,3,-22,-7,-3,-2,3,-23,-27,6
1491087298289,1,4,2,7,4,-3,31,-13,-8
1491087298289,1,21,5,8,16,26,68,49,5
1491087298291,2,-7,1,8,7,15,-63,-23,10
1491087298291,2,-14,-12,-15,-19,-40,-48,-30,-8
1491087298292,3,-5,-21,-22,-28,-37,32,-44,-15
1491087298292,3,12,12,5,-4,-18,-20,-12,-2
1491087298292,0,-6,1,0,-3,-14,-9,7,7
1491087298292,0,-8,0,9,24,48,46,30,-6
1491087298327,1,-2,-6,9,8,43,80,3,-8
1491087298327,1,2,13,-3,-35,-41,-102,-2,22
1491087298328,2,-7,-10,-13,12,-43,10,-20,8
1491087298328,2,-11,-1,-5,-7,4,16,-20,-34
1491087298329,3,16,17,22,43,91,93,90,18
1491087298329,3,5,-2,12,21,-5,16,-88,-5
1491087298329,0,-22,-8,-13,-65,-44,-69,-7,-19
1491087298329,0,-12,-3,-21,-20,-68,-65,-2,22
1491087298364,1,-13,-14,-18,-11,-43,40,24,-23
1491087298364,1,17,7,8,2,80,-1,43,0
1491087298365,2,2,7,22,40,-29,37,-64,7
1491087298365,2,20,1,-8,33,16,-34,31,9
1491087298366,0,7,3,-7,-59,14,72,83,-42
1491087298366,0,-7,4,23,57,114,112,-11,-36
1491087298366,1,-8,10,38,40,-11,-35,-15,25
1491087298366,1,-10,-10,-3,39,104,24,120,-9
1491087298401,2,-25,-11,-28,-72,-99,-59,-32,13
1491087298401,2,13,-18,-48,-83,-124,19,-78,1
1491087298404,3,22,8,-20,-18,-45,-76,-68,11
1491087298404,3,-14,-14,-1,44,-3,5,-49,-16
1491087298407,0,21,9,18,32,70,67,55,-2
1491087298407,0,-5,9,29,12,34,-31,-4,7
1491087298407,1,-6,-8,7,-21,-7,43,3,1
1491087298407,1,24,8,10,14,44,22,-18,-18
1491087298439,2,-2,-4,5,54,116,58,84,18
1491087298439,2,-7,-4,7,-37,-59,28,-42,-22
1491087298440,3,-4,0,-19,-12,-69,-88,47,16
1491087298440,3,-22,-17,-32,-27,-94,39,-42,-9
1491087298441,0,-6,-10,-24,-10,-17,6,66,-18
1491087298441,0,2,2,3,2,44,-40,-56,5
1491087298478,1,3,4,13,28,33,25,42,-10
1491087298478,1,-11,-3,-3,0,-6,36,-35,-16
1491087298479,2,7,2,11,4,5,-114,-37,33
1491087298479,2,-3,-2,-2,3,1,19,22,-7
1491087298479,3,-3,-9,-13,-3,-4,14,28,-12
1491087298479,3,3,3,3,-5,13,-10,18,1
1491087298480,0,3,-1,-1,8,-9,3,-25,1
1491087298480,0,0,1,-6,0,-13,-35,37,16
1491087298514,1,0,1,-1,4,14,18,-16,-10
1491087298514,1,-5,-2,0,-4,3,0,0,-7
1491087298515,2,0,3,7,4,-24,-21,-33,1
1491087298515,2,-7,0,4,19,7,65,54,3
1491087298515,3,4,-3,-6,-16,10,-51,3,10
1491087298515,3,-3,-2,-9,-20,-19,-17,-41,-14
1491087298516,0,-8,-3,-3,0,-24,-13,-22,-6
1491087298516,0,0,0,-1,3,7,-25,-33,5
1491087298552,1,-9,-2,-3,-5,15,59,67,-8
1491087298552,1,-23,-5,-2,-2,-9,-24,19,-6
1491087298553,2,12,10,9,2,0,3,11,-2
1491087298553,2,-3,-6,-8,-7,0,-13,-27,-2
1491087298553,3,7,-1,1,-1,3,11,-29,-5
1491087298553,3,-6,0,12,24,24,12,49,9
1491087298554,0,-2,1,8,-3,4,9,-31,2
1491087298554,0,-3,2,1,-3,9,9,2,31
1491087298589,1,-18,-15,-17,-1,-30,8,-18,-30
1491087298589,1,21,-5,-16,-36,-66,-67,36,8
1491087298590,2,-21,11,10,10,3,93,-22,-5
1491087298590,2,2,-4,6,14,45,-9,85,-23
1491087298591,3,-7,-4,-3,-22,11,-50,-55,14
1491087298591,3,15,2,-13,45,56,86,76,-1
1491087298592,0,-2,-7,7,36,28,-52,-56,4
1491087298592,0,0,5,6,-8,-111,-13,-17,1
1491087298627,1,-2,7,14,1,35,10,9,9
1491087298627,1,-13,-3,-8,-53,-21,-32,-52,-20
1491087298628,2,-4,-20,-33,-19,-12,-32,117,-3
1491087298628,2,12,-6,-24,-5,-27,43,19,2
1491087298628,3,11,9,15,-6,-24,-87,-79,-23
1491087298628,3,-18,-2,9,-3,9,12,0,1
1491087298629,0,-17,-15,1,15,64,10,26,6
1491087298629,0,8,17,30,-4,34,11,41,10
1491087298664,1,1,-3,-9,-13,8,53,-61,-19
1491087298664,1,-9,-3,1,-1,-20,-22,-19,7
1491087298665,2,1,-3,9,-20,-55,-11,7,-17
1491087298665,2,-13,-13,-10,15,12,-81,-6,17
1491087298666,3,-1,-7,-18,-7,-15,38,-19,15
1491087298666,3,7,-1,-5,10,14,11,-27,-21
1491087298666,0,5,-1,-5,0,-19,10,6,-7
1491087298666,0,1,9,-1,-8,8,-5,-1,1
1491087298701,1,-2,2,10,16,1,4,34,3
1491087298701,1,-7,-8,-2,9,0,-12,-80,-2
1491087298702,2,4,5,-4,-2,-12,-1,23,9
1491087298702,2,-7,-13,-12,-21,7,-6,2,-21
1491087298703,3,-2,3,-1,-3,5,5,13,-4
1491087298703,3,6,4,-5,1,-11,32,52,14
1491087298704,0,6,10,2,-3,-15,-71,-76,0
1491087298704,0,-15,-9,-5,-12,0,-3,-19,-9
1491087298739,1,-13,-12,-7,9,6,33,24,-4
1491087298739,1,18,11,14,9,18,6,-5,-4
1491087298740,2,9,-2,3,-5,-7,67,26,9
1491087298740,2,-2,-6,-18,-37,-30,-113,-104,-6
1491087298741,3,0,4,0,6,-23,38,61,1
1491087298741,3,-12,-5,1,-3,-12,6,-26,-4
1491087298742,0,7,4,-1,7,13,-12,-60,-1
1491087298742,0,-4,-3,6,16,17,59,66,16
1491087298776,1,3,5,11,12,28,-17,-15,1
1491087298776,1,-25,-8,-10,5,15,-9,15,-19
1491087298777,2,14,5,-5,1,-33,-30,-7,5
1491087298777,2,2,-5,-10,-6,-25,21,-36,-13
1491087298778,3,-3,-2,2,8,34,16,27,7
1491087298778,3,14,7,7,-20,-50,-12,77,12
1491087298779,0,-17,-12,-19,-16,11,-41,-45,-28
1491087298779,0,7,-2,-9,-14,-23,14,-59,-8
1491087298814,1,2,-7,-8,15,22,11,-38,3
1491087298814,1,0,-5,5,14,31,-12,14,14
1491087298815,2,-8,-3,7,-2,7,-2,-20,0
1491087298815,2,0,3,7,26,-14,-7,-19,3
1491087298816,3,15,-4,-10,-27,-42,-28,106,-2
1491087298816,3,-22,-7,-7,-20,23,63,7,-28
1491087298816,0,2,3,10,13,19,17,54,12
1491087298816,0,-28,-5,1,-1,34,0,-46,-24
1491087298852,1,27,1,-2,3,-28,-21,-33,13
1491087298852,1,1,1,1,-9,-8,-28,-48,-7
1491087298852,2,12,-7,-12,-22,-14,0,34,9
1491087298852,2,6,10,2,-6,-11,-18,-14,3
1491087298853,3,-22,-4,2,3,-6,-3,-55,-13
1491087298853,3,23,3,-2,1,-4,-26,5,6
1491087298889,0,-1,-3,2,8,26,42,32,-12
1491087298889,0,-9,-1,11,20,23,18,85,17
1491087298890,1,2,1,0,-5,-4,-5,-33,1
1491087298890,1,0,-6,-7,-7,25,17,6,-13
1491087298891,2,0,6,3,-23,-34,2,-54,-6
1491087298891,2,-7,-6,-5,16,-26,-30,5,12
1491087298892,3,-8,-3,-9,-2,-10,30,58,1
1491087298892,3,-9,-8,-3,1,-25,-15,-8,3
1491087298927,0,26,9,4,-2,31,10,-23,-11
1491087298927,0,5,3,14,3,36,40,11,-15
1491087298928,1,-10,0,-1,15,3,-68,-38,6
1491087298928,1,16,5,-5,-4,-28,-10,33,36
1491087298928,2,-14,-4,-7,-5,-14,-12,-15,-15
1491087298928,2,7,-2,0,9,17,7,7,5
1491087298929,3,-11,-5,-5,-19,-7,9,27,-18
1491087298929,3,-15,-8,-6,3,-6,17,12,-2
1491087298964,0,-16,-2,3,14,31,-7,-61,-5
1491087298964,0,20,4,5,8,-21,-72,9,13
1491087298965,1,-13,-4,-8,-32,-21,15,18,-33
1491087298965,1,10,5,-9,-15,-1,-14,-2,-7
1491087298966,2,-14,-4,-4,5,-12,12,22,14
1491087298966,2,6,-3,-4,13,11,18,-13,-3
1491087298967,3,-12,0,8,15,25,1,15,-3
1491087298967,3,-9,-9,-9,-16,-39,-21,-21,-3
1491087299002,0,19,1,-14,-11,-8,9,9,15
1491087299002,0,-13,-6,1,-13,1,24,26,-2
1491087299002,1,-4,-9,-4,-5,-12,-42,-4,-3
1491087299002,1,-10,12,19,10,14,24,-76,-16
1491087299003,2,-4,2,14,10,17,10,64,6
1491087299003,2,3,-4,-14,-7,-21,7,-20,-15
1491087299039,3,-1,1,-1,-5,-15,-17,-40,15
1491087299039,3,0,-6,-8,1,-12,-34,-23,-6
1491087299041,0,1,-6,-8,-3,-5,7,-9,6
1491087299041,0,1,1,0,5,14,8,10,4
1491087299042,1,3,7,22,13,17,30,26,-8
1491087299042,1,12,-4,-19,3,-13,-15,-37,6
1491087299043,2,-2,2,12,2,-17,-21,91,20
1491087299043,2,-9,-3,-3,-25,6,8,-54,-41
1491087299077,3,1,-3,-11,13,5,3,-30,-1
1491087299077,3,-8,-5,6,9,17,-6,30,16
1491087299115,0,8,-2,-6,5,-6,15,-16,-13
1491087299115,0,0,1,3,10,11,-23,3,24
1491087299117,1,-1,-11,-16,-21,-22,-11,-27,-3
1491087299117,1,8,8,5,6,-10,7,9,-3
1491087299117,2,-19,-13,-13,3,-24,-18,68,-1
1491087299117,2,-3,4,5,-5,15,5,-57,-11
1491087299119,3,6,4,4,10,14,3,-30,-1
1491087299119,3,-27,-15,1,11,17,17,8,-3
1491087299152,0,28,1,-11,-27,-11,-14,-40,-9
1491087299152,0,-9,-3,-4,-15,-27,-21,29,6
1491087299153,1,-7,1,7,1,17,24,-25,-17
1491087299153,1,-7,3,7,11,21,16,37,6
1491087299153,2,-4,-2,-1,-16,-15,10,3,-1
1491087299153,2,-5,1,-2,37,-18,-66,-75,12
1491087299154,3,16,-2,-4,4,-16,39,88,16
1491087299154,3,4,0,-10,-41,-15,-48,9,-34
1491087299189,0,-13,-3,0,11,13,-9,-49,-2
1491087299189,0,-5,-1,-2,-13,28,23,70,0
1491087299190,1,-8,-2,-5,8,-14,-5,-54,6
1491087299190,1,7,-3,-1,-4,-24,26,8,0
1491087299191,2,4,5,7,8,6,-15,-26,2
1491087299191,2,9,0,-1,-19,-6,14,13,-8
1491087299192,3,-2,-1,0,0,14,24,25,-3
1491087299192,3,21,13,3,-6,6,-33,-14,1
1491087299227,0,-14,-6,-9,-9,-7,-10,-46,-26
1491087299227,0,7,5,12,19,15,20,35,41
1491087299228,1,-11,-14,-12,-25,-16,-39,-3,-35
1491087299228,1,-4,1,1,7,2,11,-45,8
1491087299228,2,-5,0,0,-2,-17,-11,38,11
1491087299228,2,-5,-10,-8,1,0,35,17,-5
1491087299229,3,9,11,1,-5,10,9,8,15
1491087299229,3,-8,-3,8,15,6,-49,-26,7
1491087299264,0,-6,-5,-8,-8,-7,13,-20,-20
1491087299264,0,-19,-6,-6,-16,-17,-20,27,-6
1491087299265,1,9,0,-4,-3,17,-3,-13,-3
1491087299265,1,10,8,3,11,5,36,12,13
1491087299266,2,-1,-4,4,-1,-4,17,-41,-5
1491087299266,2,-16,-13,-14,-11,1,-12,7,-20
1491087299267,3,12,2,0,-9,-22,21,22,13
1491087299267,3,-2,1,13,9,20,18,62,13
1491087299302,0,1,-4,-3,-3,-5,-28,-30,-7
1491087299302,0,6,2,-1,-6,-9,66,18,-7
1491087299303,1,-5,0,4,6,7,-91,-62,2
1491087299303,1,-4,1,-1,-4,0,34,-7,-6
1491087299303,2,-13,-5,-4,2,9,12,-32,1
1491087299303,2,24,-2,-8,-6,-2,-74,-20,6
1491087299304,3,-19,-3,3,11,7,51,-12,-7
1491087299304,3,0,-3,-5,-18,-9,-11,21,-10
1491087299339,0,-13,-3,-11,-18,-28,-24,13,-8
1491087299339,0,4,7,1,-7,-2,18,-4,0
1491087299342,1,-3,3,-4,-2,0,-4,-15,-2
1491087299342,1,-17,-7,0,10,15,16,-8,-17
1491087299343,2,26,7,6,-2,-8,-9,69,7
1491087299343,2,-17,-9,-11,4,-21,-34,-4,4
1491087299344,3,4,0,2,1,-9,5,0,2
1491087299344,3,-5,1,2,17,18,0,-22,7
1491087299377,0,-10,-3,0,1,24,30,-38,-7
1491087299377,0,0,2,3,-2,7,34,21,5
1491087299378,1,29,2,-7,3,4,-3,91,5
1491087299378,1,-12,-8,-7,-12,-17,-2,-95,-23
1491087299379,2,21,18,25,20,45,-12,24,7
1491087299379,2,-5,3,2,-7,-24,-24,-53,-5
1491087299380,3,-11,-10,-11,-10,-15,13,-4,7
1491087299380,3,4,-3,-21,-4,-9,-7,3,-5
1491087299414,0,-12,-8,6,9,-16,-21,42,11
1491087299414,0,0,-1,2,-4,17,29,5,2
1491087299415,1,-4,1,7,7,10,9,12,-6
1491087299415,1,-14,-13,-4,0,-17,-39,-20,4
1491087299416,2,-8,-4,-12,-4,-2,46,-6,3
1491087299416,2,24,5,-1,-4,-4,43,-2,-16
1491087299417,3,-10,0,1,-6,-7,-97,8,15
1491087299417,3,7,-4,-8,-16,1,57,72,1
1491087299452,0,-15,-7,-4,10,6,-40,-48,-16
1491087299452,0,-7,-2,4,-12,-10,-55,-7,-13
1491087299454,1,15,5,-5,0,1,9,-57,0
1491087299454,1,-2,-3,-1,7,15,37,33,-1
1491087299455,2,13,3,10,-4,5,28,37,7
1491087299455,2,-3,-3,-13,-1,-26,-31,-17,2
1491087299456,3,-27,-6,13,-1,-5,-31,-67,-14
1491087299456,3,4,-4,-9,-2,-11,8,34,18
1491087299489,0,-27,-10,-15,-3,7,18,44,-7
1491087299489,0,-5,-2,12,6,16,40,-13,-27
1491087299492,1,7,2,2,0,3,19,4,15
1491087299492,1,8,6,6,-11,-26,-68,-83,-4
1491087299497,2,-9,-5,-16,4,-7,52,20,-5
1491087299497,2,13,-2,-1,-6,10,-18,10,38
1491087299497,3,-17,-7,-25,-2,-6,24,59,-3
1491087299497,3,16,6,25,10,3,19,-9,-1
1491087299527,0,7,-8,-23,6,14,-30,-19,-4
1491087299527,0,-1,12,36,5,-16,1,5,2
1491087299528,1,-4,-8,-21,-11,6,56,-4,-17
1491087299528,1,-2,4,-15,-6,-9,-78,-21,10
1491087299529,2,-14,1,18,-1,-13,47,-41,-4
1491087299529,2,-8,-10,-19,13,22,-3,32,-1
1491087299530,3,17,3,9,-4,1,-4,-7,-5
1491087299530,3,-15,-9,-11,0,5,-11,-10,-10
1491087299564,0,3,-4,0,-12,-15,50,-28,-15
1491087299564,0,-13,3,-13,-17,-13,-90,-41,5
1491087299565,1,2,3,15,-4,8,20,13,6
1491087299565,1,-7,0,-20,-2,-6,27,32,-12
1491087299602,2,-11,0,4,4,13,-10,1,-4
1491087299602,2,12,-8,-44,6,2,18,-10,-9
1491087299603,3,-10,1,69,0,-6,11,40,2
1491087299603,3,-5,3,6,4,12,-41,-20,4
1491087299605,0,22,8,16,-1,-12,-7,23,20
1491087299605,0,-8,-1,-6,-4,-3,24,0,5
1491087299605,1,2,0,-32,-8,-10,-25,-39,-17
1491087299605,1,-17,-5,8,-6,-2,19,-7,-12
1491087299639,2,3,0,1,-2,12,-37,-21,10
1491087299639,2,-2,-3,-5,-3,6,46,13,-2
1491087299640,3,-20,-10,-16,0,-10,-8,19,-7
1491087299640,3,4,-1,6,-3,-5,-16,-3,9
1491087299641,0,0,1,-9,5,8,-27,-53,-14
1491087299641,0,12,2,15,-9,9,15,56,5
1491087299642,1,-10,-6,-12,-5,-23,7,-25,-9
1491087299642,1,10,4,8,-2,0,-2,17,-2
1491087299714,2,-7,-5,-5,7,8,-10,9,3
1491087299714,2,8,1,12,12,14,10,-15,9
1491087299716,3,8,1,-8,0,-5,-32,-50,-2
1491087299716,3,5,-2,-7,-2,7,52,43,10
1491087299717,0,-6,-1,-1,-16,-28,-85,-21,-9
1491087299717,0,-10,-6,6,8,5,10,7,-4
1491087299718,1,8,1,0,9,14,11,-3,10
1491087299718,1,-3,-4,-4,-6,-4,41,-25,-20
1491087299826,2,15,9,9,1,14,-18,14,6
1491087299826,2,-12,-4,-1,-7,-15,8,24,-8
1491087299828,3,9,-2,-9,-12,-23,-42,-14,10
1491087299828,3,11,-4,2,2,14,-7,-40,5
1491087299902,0,-2,-2,-5,1,-11,8,5,-3
1491087299902,0,-6,2,-5,3,-10,-21,17,-6
1491087299939,2,-5,0,2,8,10,25,5,-10
1491087299939,2,10,-1,7,14,4,-25,0,10
1491087299940,3,-10,-7,-16,-21,-15,-18,-9,-4
1491087299940,3,-5,-1,1,3,-8,-1,-22,-16
1491087299941,0,0,-7,-5,15,1,-7,-16,30
1491087299941,0,-7,-1,4,-4,4,10,13,-29
1491087299941,2,-9,-5,-1,-3,-4,23,-30,3
1491087299941,2,5,1,1,-6,-14,-7,-9,5
1491087299977,2,0,0,-2,1,-12,6,-37,-7
1491087299977,2,-13,-5,-5,-4,4,22,29,0
1491087300014,3,-1,-1,0,9,-10,-59,-42,8
1491087300014,3,6,-3,-7,-6,4,21,5,-9
1491087300015,1,-8,-7,-8,-1,-7,-26,6,-4
1491087300015,1,-11,0,4,11,6,-5,-13,-1
1491087300016,2,0,3,2,-16,3,35,5,14
1491087300016,2,9,-1,-8,-5,-22,-20,-1,-4
1491087300017,3,-2,-1,0,-9,17,16,13,-2
1491087300017,3,-6,0,1,5,12,46,-1,-10
1491087300051,0,-8,-2,-1,-3,-22,-88,-29,3
1491087300051,0,0,-6,-11,-7,-17,-8,-12,4
1491087300052,1,-3,3,5,1,5,18,10,0
1491087300052,1,5,0,-2,0,-7,6,4,-4
1491087300089,2,6,-5,-6,-1,4,2,-23,-2
1491087300089,2,-10,-1,5,8,16,-3,-41,2
1491087300090,0,16,0,-6,-14,-8,1,24,-25
1491087300090,0,-10,-3,-6,-8,6,42,-5,-19
1491087300090,1,5,4,-1,1,8,-3,-1,7
1491087300090,1,-2,-1,2,4,-4,-14,-30,2
1491087300091,2,-4,-1,3,7,5,0,10,14
1491087300091,2,1,-3,1,18,1,8,-18,-1
1491087300164,0,1,6,1,-7,-2,-5,7,3
1491087300164,0,9,0,6,8,12,-2,-17,-13
1491087300201,1,6,0,0,1,-2,19,9,7
1491087300201,1,0,-7,-5,3,-18,-41,-92,7
1491087300239,2,-22,-7,-7,4,7,58,106,12
1491087300239,2,7,-5,-10,-20,6,2,-5,-34
1491087300240,0,-12,-7,-2,12,2,21,-57,3
1491087300240,0,11,3,4,3,-19,-49,-24,25
1491087300240,1,-4,-8,-9,-10,14,5,28,-23
1491087300240,1,-1,2,1,-10,10,20,12,-3
1491087300241,2,13,5,2,-1,-2,-17,-3,1
1491087300241,2,-10,-4,-5,-4,-11,-12,-43,-3
1491087300276,3,-2,1,2,3,0,8,26,16
1491087300276,3,6,-5,-4,11,7,-6,40,9
1491087300314,3,-3,5,-5,-5,-23,-56,-43,0
1491087300314,3,-2,-4,-6,-15,-15,9,22,-15
1491087300315,3,12,-3,-6,9,-4,-15,-55,4
1491087300315,3,-11,1,1,2,-8,-7,0,1
1491087300315,3,5,-6,-1,-2,-17,-25,10,13
1491087300315,3,-10,-4,-5,2,9,9,-56,-12
1491087300316,0,9,4,8,-1,0,-41,29,16
1491087300316,0,-7,-3,-2,-10,-3,27,26,-9
1491087300352,1,6,3,4,7,8,11,3,-5
1491087300352,1,-17,-9,-6,-8,-19,-21,-39,11
1491087300352,2,0,-2,-5,1,-9,1,-31,-5
1491087300352,2,-7,-2,0,-1,4,-17,38,12
1491087300353,3,-3,1,-3,-4,9,20,15,-9
1491087300353,3,16,4,2,5,5,0,28,5
1491087300354,2,-6,-5,-4,-8,-1,18,17,5
1491087300354,2,6,1,4,4,4,21,25,-8
1491087300389,3,-5,-5,1,8,18,11,39,4
1491087300389,3,-10,-3,-7,-10,-19,-29,-31,0
1491087300390,0,8,0,-1,0,-11,-11,-21,-2
1491087300390,0,-4,-3,-8,5,3,9,-23,-1
1491087300390,2,-3,2,2,13,12,13,-3,6
1491087300390,2,-1,-6,-4,2,4,13,-19,-10
1491087300391,3,-3,0,0,-1,-23,-16,7,-10
1491087300391,3,-2,2,-4,-3,8,-20,-36,-6
1491087300427,0,8,-1,-1,-14,-25,11,57,13
1491087300427,0,23,0,0,0,1,-18,-38,0
1491087300428,1,-5,-4,-2,2,16,14,5,2
1491087300428,1,2,-4,3,11,8,14,36,4
1491087300428,2,-3,3,0,2,6,-21,-20,3
1491087300428,2,-12,-1,-4,-17,-17,-14,-32,-3
1491087300429,3,3,-3,-3,-7,-6,14,7,-6
1491087300429,3,0,-2,-2,-5,-7,-10,20,12
1491087300464,0,-15,-6,-1,-1,7,-3,-12,-13
1491087300464,0,-2,-1,1,-2,2,13,30,3
1491087300465,1,7,2,-1,3,-5,-19,-34,-1
1491087300465,1,1,2,2,0,3,13,13,0
1491087300466,2,-2,0,2,3,2,20,-44,-3
1491087300466,2,-16,-9,-4,1,-4,-46,16,-15
1491087300467,3,-12,-5,-4,-14,-6,1,2,-3
1491087300467,3,0,0,-4,-7,11,-5,41,3
1491087300501,0,20,-1,-10,-8,-15,0,-2,-5
1491087300501,0,-10,-6,-1,5,5,25,25,13
1491087300502,1,12,-1,0,3,-25,-34,-31,6
1491087300502,1,-3,1,3,-4,-10,0,-34,-3
1491087300503,2,-6,-5,-2,-7,9,6,-16,-14
1491087300503,2,12,2,2,6,15,-2,0,1
1491087300504,3,-11,-7,-5,4,6,5,5,5
1491087300504,3,29,5,-3,-4,-8,15,27,7
1491087300539,0,-29,-6,0,6,7,-24,-66,-17
1491087300539,0,-1,1,8,17,-13,2,15,13
1491087300576,1,1,-2,-10,-37,-17,-14,46,-22
1491087300576,1,-19,-5,-6,2,-6,27,-29,1
1491087300577,2,10,5,0,-7,5,4,74,2
1491087300577,2,-7,-4,-2,-9,-7,-36,-31,-9
1491087300578,3,6,0,6,23,23,16,-40,11
1491087300578,3,-10,-5,-3,7,-5,1,-8,-2
1491087300579,0,1,2,2,-6,-3,4,-25,-1
1491087300579,0,5,1,-1,-2,13,24,7,7
1491087300614,1,10,7,8,-2,-25,-17,-7,8
1491087300614,1,7,-13,-19,2,21,39,117,10
1491087300615,2,-22,-11,11,10,39,-78,-43,-34
1491087300615,2,1,5,-4,-26,-21,44,22,8
1491087300616,3,2,-2,-6,-20,-15,38,-11,-12
1491087300616,3,10,13,7,5,-26,-79,-84,2
1491087300617,0,33,9,-1,-15,-80,-91,22,2
1491087300617,0,-38,-14,-26,20,58,18,0,-51
1491087300651,1,3,-4,11,-33,0,51,-38,-6
1491087300651,1,-12,-5,0,4,-18,95,-39,-15
1491087300652,2,2,5,12,50,9,-61,61,100
1491087300652,2,13,8,-25,-32,-58,55,6,22
1491087300653,0,-33,-7,-2,10,37,-35,-64,9
1491087300653,0,16,-7,-8,-68,-62,68,6,-25
1491087300654,1,-13,-16,-40,-2,-22,-128,-48,4
1491087300654,1,-7,13,12,-18,-14,72,69,18
1491087300689,2,-11,-6,-30,-93,-105,-59,-106,-15
1491087300689,2,-11,5,6,36,-29,98,-13,8
1491087300690,3,0,0,21,42,69,-69,46,18
1491087300690,3,23,13,56,31,74,-18,-94,-3
1491087300691,0,-13,-20,-59,-83,-67,67,42,-36
1491087300691,0,-18,1,46,58,115,-30,3,-24
1491087300691,1,-31,-3,-21,-94,-113,-47,2,48
1491087300691,1,-8,-29,-68,57,-58,-106,-40,-34
1491087300727,2,26,29,71,93,122,127,108,-6
1491087300727,2,8,-5,-2,-42,-30,-107,-110,22
1491087300728,3,8,1,-1,44,7,93,58,78
1491087300728,3,0,5,45,-25,56,61,38,-39
1491087300728,0,-12,-16,-57,-72,-128,7,-11,-18
1491087300728,0,-23,-23,-45,72,-12,-25,41,24
1491087300729,1,28,9,14,15,28,-75,66,20
1491087300729,1,9,4,-7,-38,-23,-43,-128,32
1491087300765,2,3,-4,16,-9,70,127,94,-20
1491087300765,2,10,-2,-27,-69,-65,-46,-91,-17
1491087300768,3,-9,7,30,13,34,84,32,-24
1491087300768,3,25,-3,-25,-60,-124,26,45,-29
1491087300771,0,-22,-14,-3,70,-10,51,-23,-18
1491087300771,0,-14,-3,9,1,-18,-71,77,15
1491087300772,1,-4,-16,-31,-20,-2,58,-109,-15
1491087300772,1,-16,8,39,39,91,16,-34,3
1491087300801,2,37,18,41,36,84,42,36,24
1491087300801,2,5,-1,4,19,69,73,53,-12
1491087300802,3,-5,-3,-21,-83,-124,-64,54,-8
1491087300802,3,14,-5,-61,-7,-69,-14,-37,46
1491087300803,0,-6,8,39,86,45,54,-13,10
1491087300803,0,9,1,-10,-80,-27,40,35,2
1491087300839,1,-2,-4,-42,10,-95,-84,-63,-33
1491087300839,1,-26,-8,-6,-24,0,28,86,-3
1491087300840,2,-4,-2,-5,46,53,32,-33,-9
1491087300840,2,28,22,60,48,68,15,36,14
1491087300840,3,-10,6,62,59,127,61,-78,-5
1491087300840,3,-15,-21,-45,-113,-115,30,67,-20
1491087300877,0,4,-10,-24,-12,-93,-11,2,-8
1491087300877,0,18,7,0,-25,-25,-71,0,43
1491087300878,1,-3,-8,-26,5,-48,96,26,-10
1491087300878,1,-24,1,21,22,101,49,-18,-25
1491087300878,2,1,-1,6,-30,-62,-39,16,29
1491087300878,2,-25,-7,-23,-1,-46,-4,-79,-42
1491087300880,3,2,9,26,29,34,-1,-65,-16
1491087300880,3,6,4,5,2,-5,5,105,14
1491087300915,0,-16,-4,-8,1,46,61,-3,-31
1491087300915,0,10,4,10,8,-9,-92,-32,17
1491087300915,1,-8,-4,-4,1,95,127,-4,-23
1491087300915,1,3,2,9,-17,-69,-8,62,23
1491087300916,2,7,-9,-25,-98,-128,-88,-83,5
1491087300916,2,-5,-22,-60,-22,-95,-43,-18,20
1491087300951,3,-19,-4,18,82,40,43,70,-11
1491087300951,3,14,22,15,-1,74,-43,-117,-12
1491087300952,0,-5,22,56,52,102,65,66,-27
1491087300952,0,2,1,10,59,-63,87,65,7
1491087300953,1,-15,-25,-84,-84,-128,-128,-38,34
1491087300953,1,-15,-13,-17,7,58,0,-75,-15
1491087300954,2,-7,-10,0,26,14,-122,-16,6
1491087300954,2,6,11,49,21,127,127,43,-55
1491087300989,3,7,4,14,-7,-103,-87,45,28
1491087300989,3,-14,-17,-61,-73,-50,54,-97,22
1491087300990,0,4,8,7,36,59,95,18,-12
1491087300990,0,-12,-2,-11,-83,-106,-35,52,-4
1491087300991,2,-2,-7,-16,14,12,-39,21,31
1491087300991,2,6,13,34,51,100,80,10,-20
1491087300991,3,0,-8,0,8,-39,-22,-1,-28
1491087300991,3,-7,-6,2,32,-23,-29,50,13
1491087301026,0,0,-9,-26,-41,17,94,13,-4
1491087301026,0,-17,-1,-2,17,-112,39,-92,-20
1491087301028,1,13,2,-10,-86,6,-60,-13,0
1491087301028,1,-13,-3,7,30,18,118,28,-14
1491087301028,2,2,-10,-17,29,38,67,85,28
1491087301028,2,-17,-2,21,7,97,91,-4,-23
1491087301064,3,19,15,11,-56,32,23,5,10
1491087301064,3,-15,-20,-57,9,-121,-128,-90,-13
1491087301065,0,-21,-9,-29,-82,-56,-58,-46,-12
1491087301065,0,10,-1,2,27,78,-20,9,18
1491087301102,1,8,7,25,40,64,126,72,1
1491087301102,1,13,2,22,75,39,-111,8,23
1491087301179,2,10,7,7,-17,-22,-25,-11,9
1491087301179,2,-12,1,8,-24,-49,60,-66,-61
1491087301180,3,-3,-20,-66,-51,-69,-96,-35,29
1491087301180,3,5,6,35,-9,42,127,17,-34
1491087301181,0,16,4,8,22,-65,-83,-17,22
1491087301181,0,-3,1,-19,4,81,-41,45,11
1491087301182,1,0,16,45,33,32,89,85,-9
1491087301182,1,4,1,-11,-44,-91,-75,-85,-6
1491087301183,2,-7,-3,-17,-11,-43,-20,-38,-20
1491087301183,2,18,9,13,35,64,-4,38,39
1491087301183,1,8,-7,18,-13,-37,33,17,-2
1491087301183,1,0,-5,-12,71,16,-42,48,34
1491087301184,2,-10,-4,8,-2,32,-6,-5,-16
1491087301184,2,18,-5,-7,-43,-81,-8,-10,-2
1491087301185,3,3,-5,18,30,41,87,6,3
1491087301185,3,15,10,22,16,12,-47,-14,5
1491087301185,0,-11,-10,-8,-4,22,13,-7,-7
1491087301185,0,2,-6,-2,28,-36,-27,21,18
1491087301186,1,-14,-5,-25,-7,-7,-31,-27,-12
1491087301186,1,1,-4,25,-14,51,59,56,-6
1491087301189,2,3,2,-7,15,-9,-3,-63,-1
1491087301189,2,-20,3,-10,-32,-55,-79,41,18
1491087301214,3,3,0,-15,-13,-8,-22,-8,-11
1491087301214,3,-9,2,18,7,72,51,-9,-20
1491087301215,0,-7,3,-23,-32,-39,-22,-15,-10
1491087301215,0,7,1,-3,-10,-29,-15,-6,9
1491087301216,1,-7,-2,-17,4,-21,-10,-43,19
1491087301216,1,-8,6,15,5,11,-26,31,-10
1491087301251,2,-21,1,-6,7,-6,43,2,-22
1491087301251,2,-1,0,15,-1,56,12,11,-17
1491087301252,3,4,2,-28,-17,-4,-20,-4,1
1491087301252,3,-4,-21,13,-18,2,30,-23,-3
1491087301253,0,32,-17,1,17,-17,-22,1,20
1491087301253,0,-19,-18,-18,-24,28,1,11,-24
1491087301254,1,-5,-14,-5,11,-18,11,4,7
1491087301254,1,19,-7,-34,-37,6,-43,-66,-7
1491087301289,2,8,10,2,22,24,26,21,6
1491087301289,2,-7,-10,7,-31,-6,5,7,-13
1491087301290,3,-1,12,4,-6,-2,6,10,-13
1491087301290,3,-10,5,-4,8,-3,18,25,2
1491087301290,0,-8,4,-8,-9,-8,2,-18,-6
1491087301290,0,4,10,28,17,20,5,26,23
1491087301291,1,-5,0,9,2,7,-18,-33,-29
1491087301291,1,0,-10,-31,-30,-19,13,17,6
1491087301326,2,-13,0,10,5,0,-4,8,-1
1491087301326,2,17,-2,31,17,19,7,-14,4
1491087301328,3,-17,-22,-34,-20,15,-1,-6,-18
1491087301328,3,-9,11,-9,13,-38,-24,-39,7
1491087301328,0,27,-5,17,17,-7,24,60,1
1491087301328,0,-7,-6,-23,-1,2,8,10,-4
1491087301329,1,-10,7,32,38,11,-24,15,-1
1491087301329,1,-1,1,-18,-9,-20,41,-11,-10
1491087301364,2,-19,-11,2,-2,-44,21,9,-1
1491087301364,2,-1,-5,-30,-1,-63,-36,-48,-16
1491087301365,3,8,3,17,8,-48,-27,-28,9
1491087301365,3,-4,-1,10,7,-55,0,35,-13
1491087301366,0,6,11,6,-46,-51,-23,-52,-14
1491087301366,0,6,11,10,-4,27,35,27,-4
1491087301367,1,-4,-13,-19,-12,-59,-36,-37,9
1491087301367,1,0,3,6,8,6,-18,38,15
1491087301401,2,6,9,25,-3,28,6,26,-13
1491087301401,2,-1,-3,-16,0,43,-5,-2,1
1491087301403,3,4,9,15,1,43,-11,-6,6
1491087301403,3,-2,-6,-7,-29,14,1,0,-8
1491087301403,0,2,12,34,17,2,-29,-14,-1
1491087301403,0,-5,8,-21,6,2,-1,-1,-7
1491087301404,1,-11,-6,4,0,-4,-8,45,18
1491087301404,1,-3,15,26,11,15,-1,6,-18
1491087301439,2,-11,2,-14,1,15,11,10,3
1491087301439,2,-17,-9,-13,5,-7,5,-15,-6
1491087301440,3,0,14,11,12,26,-25,-9,5
1491087301440,3,0,-6,-15,-10,2,13,-9,-4
1491087301441,0,-21,-16,-11,5,4,-6,48,2
1491087301441,0,-3,9,18,13,10,-37,-22,6
1491087301441,1,4,-10,-26,7,27,26,6,-7
1491087301441,1,-9,-1,-8,-1,-4,54,-3,2
1491087301476,2,0,-16,-11,0,-5,-57,-29,-11
1491087301476,2,-6,-6,-7,6,-4,7,-23,-1
1491087301477,3,5,11,19,0,13,19,41,14
1491087301477,3,9,11,3,-1,-1,-7,-50,-11
1491087301478,0,-8,-18,-16,-5,-1,9,44,11
1491087301478,0,-5,0,41,-41,10,1,9,-23
1491087301479,1,-1,-31,-49,-54,-9,-7,-62,-5
1491087301479,1,4,19,31,-11,6,-16,-8,14
1491087301514,2,-1,-10,-32,-15,-2,9,-21,5
1491087301514,2,-1,1,10,19,-9,-40,1,3
1491087301515,3,-7,7,4,75,2,19,16,6
1491087301515,3,-5,-19,-24,55,11,21,41,-16
1491087301664,0,6,40,38,55,-6,-60,-81,37
1491087301664,0,-4,-10,-25,24,-2,29,41,-16
1491087301665,1,-5,-1,-5,-10,8,40,-27,-13
1491087301665,1,-7,-7,8,-10,-14,-54,-19,-4
1491087301666,2,-2,-13,-47,-30,-7,35,2,1
1491087301666,2,-3,-5,-3,-2,3,27,13,7
1491087301667,3,-2,10,48,-6,-4,-61,-10,-8
1491087301667,3,-5,-14,-10,4,34,86,24,-2
1491087301740,0,-2,-9,18,-31,-23,-59,70,5
1491087301740,0,2,-6,-13,-16,-5,-11,-52,-10
1491087301742,1,2,-5,-17,-14,-11,26,34,4
1491087301742,1,5,-8,-1,-8,-15,-46,2,12
1491087301743,2,-13,-12,-18,-21,-6,14,-89,-41
1491087301743,2,9,-2,11,-11,9,28,-12,5
1491087301744,1,-27,-7,-5,-36,-14,-33,-11,-20
1491087301744,1,27,0,-11,-13,-21,48,13,-4
1491087301815,2,5,14,24,36,-17,-8,8,28
1491087301815,2,-1,-9,-2,6,0,31,-8,0
1491087301817,3,-12,-4,-20,-49,-10,50,-52,-23
1491087301817,3,-14,4,7,13,48,2,107,-4
1491087301818,1,44,15,6,26,5,-93,0,23
1491087301818,1,-13,-4,-12,-42,-16,33,-53,-22
1491087301819,0,-10,-10,-12,7,-67,-37,-4,4
1491087301819,0,7,-5,-32,-24,-59,19,-34,-6
1491087301852,1,-9,-2,-15,32,26,102,86,3
1491087301852,1,-14,-27,-19,-8,-28,-106,-90,-15
1491087301853,2,-4,17,63,-11,127,77,1,-7
1491087301853,2,-21,-8,-32,-65,-106,-86,-12,-22
1491087301854,0,-21,-4,2,37,57,7,-30,-7
1491087301854,0,1,1,20,-2,-19,86,109,-3
1491087301855,1,22,7,-7,-34,-8,-95,-51,-4
1491087301855,1,6,10,-26,-65,-83,-11,-31,-12
1491087301890,2,-24,-11,-15,23,56,25,-68,-4
1491087301890,2,5,6,-5,37,-29,17,93,41
1491087301892,3,-21,-7,23,-25,-9,-65,7,-34
1491087301892,3,-13,9,4,-18,31,-3,-18,-2
1491087301893,0,6,-3,1,-21,-35,30,-11,-10
1491087301893,0,30,13,3,36,23,-24,-59,-5
1491087301894,1,10,-3,7,27,13,8,21,11
1491087301894,1,-25,8,33,-6,21,64,67,13
1491087301927,2,8,-15,-16,16,-38,-48,8,4
1491087301927,2,-25,0,-2,11,46,-10,-6,12
1491087301929,3,18,11,7,-19,3,-22,21,3
1491087301929,3,-13,-11,29,65,108,85,50,-15
1491087301930,0,32,14,5,-35,-114,-69,14,49
1491087301930,0,-29,-12,-39,-52,-83,7,-41,-23
1491087301931,1,9,-4,-21,-1,50,94,32,-7
1491087301931,1,2,5,-8,1,-59,-39,-36,17
1491087302002,2,9,-6,39,19,30,115,43,-18
1491087302002,2,-5,7,-4,-17,107,-18,79,24
1491087302003,3,-5,-2,-28,-33,-80,-57,-101,-17
1491087302003,3,-2,8,-15,103,22,-85,-39,0
1491087302004,0,-32,-12,-7,11,26,20,48,-13
1491087302004,0,1,8,23,-33,-23,27,-36,-28
1491087302005,1,7,-14,11,23,56,41,27,15
1491087302005,1,3,5,-8,-68,-54,-90,20,4
1491087302040,2,-17,-22,-50,-34,-19,5,86,27
1491087302040,2,-24,-3,16,16,-31,-41,58,-43
1491087302042,3,-7,7,6,46,1,7,-4,12
1491087302042,3,-8,-23,1,52,33,88,-103,-12
1491087302043,2,15,1,0,-23,18,97,-65,29
1491087302043,2,1,-2,15,74,85,50,-69,-4
1491087302044,3,1,8,23,19,-55,-87,-50,-5
1491087302044,3,8,-11,-28,-52,11,2,-11,10
1491087302077,0,-3,-17,-51,25,-6,20,-23,-7
1491087302077,0,-10,11,15,-11,-68,-43,-50,6
1491087302079,1,6,-4,21,32,96,102,-20,18
1491087302079,1,-12,-16,-1,19,-58,-37,-72,-27
1491087302080,2,-51,-2,-10,-96,-47,-4,-93,-37
1491087302080,2,22,-8,-27,-13,4,6,-125,28
1491087302081,3,-14,-3,-10,-20,18,1,-111,-21
1491087302081,3,11,5,18,32,75,48,-3,38
1491087302115,0,16,8,35,9,-2,-33,-60,-13
1491087302115,0,-1,-10,-11,9,-14,-3,-88,4
1491087302116,1,2,-3,-10,8,65,-10,29,23
1491087302116,1,11,4,-16,-33,-94,3,-1,-7
1491087302152,2,-10,-17,-19,40,-5,8,-10,1
1491087302152,2,9,4,-1,-23,49,-4,25,14
1491087302153,3,2,8,-1,4,-12,-25,30,5
1491087302153,3,-2,11,34,-23,6,34,72,-3
1491087302189,0,-17,-13,-11,27,60,-13,-22,-23
1491087302189,0,37,0,-2,-16,-80,13,18,-4
1491087302227,1,-15,6,17,18,-18,1,-20,-19
1491087302227,1,20,-17,-45,-38,37,-51,-8,1
1491087302229,2,-16,5,33,24,-45,-4,31,5
1491087302229,2,-18,-2,-9,-50,-12,-51,14,8
1491087302231,3,-9,-19,-38,-62,-23,33,90,-41
1491087302231,3,3,-2,2,46,36,27,-43,4
1491087302232,0,22,-7,-20,15,-8,-10,67,28
1491087302232,0,-11,3,-9,-26,15,-24,-36,-31
1491087302264,1,-2,3,14,-13,-35,26,11,6
1491087302264,1,-18,0,7,-6,-25,-8,44,3
1491087302265,2,-1,13,12,15,14,-17,-83,-4
1491087302265,2,65,1,-1,-9,-14,52,127,20
1491087302267,1,-2,15,7,-22,-4,-44,-17,5
1491087302267,1,7,-9,-7,13,-26,70,41,1
1491087302268,1,5,-11,-3,-23,-29,-66,-34,-16
1491087302268,1,5,-4,-4,-16,36,31,-24,-2
1491087302302,2,-2,19,49,10,20,63,-1,-10
1491087302302,2,-12,-16,-29,8,-48,-34,56,14
1491087302303,3,14,7,-16,-15,-7,-25,-50,12
1491087302303,3,-13,-7,14,12,-49,-83,-15,11
1491087302304,1,6,-6,6,-16,0,-15,-24,-22
1491087302304,1,-16,-11,-6,5,-19,-8,-100,2
1491087302305,2,-18,-12,-13,37,-4,9,96,46
1491087302305,2,19,-5,-34,-34,-31,20,36,-27
1491087302339,3,-7,9,4,3,-39,-52,-66,6
1491087302339,3,21,12,10,5,18,93,49,12
1491087302340,0,-6,-16,-9,1,-30,-114,44,9
1491087302340,0,13,16,19,-7,11,-17,-87,-36
1491087302342,1,23,-17,-6,5,0,18,76,34
1491087302342,1,-30,18,12,12,-1,50,-25,-13
1491087302343,2,6,4,17,-5,43,32,-37,-7
1491087302343,2,-18,-8,4,-47,-83,54,63,-27
1491087302377,3,31,12,8,90,84,-7,65,64
1491087302377,3,11,4,-14,-103,-92,-53,-20,-66
1491087302379,0,-24,-14,-36,57,-12,-5,-31,-8
1491087302379,0,12,17,7,-2,-26,-29,-18,33
1491087302380,1,-26,-16,-4,-22,-15,90,-23,-23
1491087302380,1,24,-20,-31,22,24,17,28,27
1491087302381,2,1,13,28,-30,-9,-95,-11,-19
1491087302381,2,34,2,6,29,27,74,26,30
1491087302414,3,-13,-4,20,20,44,-12,10,-35
1491087302414,3,1,6,6,-40,-2,-35,26,-12
1491087302415,0,-35,-24,-26,-59,-76,65,20,-50
1491087302415,0,38,24,46,81,79,-123,-15,70
1491087302416,1,-35,-13,-30,-46,-66,52,9,-28
1491087302416,1,-2,-2,-32,39,-46,-82,-49,15
1491087302418,2,4,-2,-12,-22,-4,22,-55,2
1491087302418,2,-15,-4,1,11,37,80,48,16
1491087302452,3,41,11,27,-25,53,6,34,-15
1491087302452,3,10,-8,2,8,2,86,68,-21
1491087302453,0,4,1,-32,-25,-42,-82,-46,3
1491087302453,0,-33,-6,27,-13,-1,46,-12,-4
1491087302454,1,11,-6,-39,30,-11,-17,-18,4
1491087302454,1,3,-2,28,-12,26,-5,14,1
1491087302455,2,25,17,42,27,69,93,40,-1
1491087302455,2,-16,-2,20,-3,-18,-15,-11,2
1491087302489,3,-14,-13,-34,18,-7,-9,-46,-11
1491087302489,3,-22,-3,-2,-27,-66,-19,-28,14
1491087302490,0,6,-5,-37,10,89,-17,14,8
1491087302490,0,0,-6,-3,-35,-110,2,62,-7
1491087302492,1,-7,-1,-4,-89,-55,123,-5,-51
1491087302492,1,4,13,18,111,23,-128,-79,46
1491087302493,2,-11,-4,11,8,-44,117,-25,2
1491087302493,2,2,2,-5,8,78,37,17,-2
1491087302527,3,-19,1,8,-16,-12,-51,43,-14
1491087302527,3,17,-8,-7,-39,11,-43,-47,-28
1491087302530,0,10,17,32,-4,84,70,31,8
1491087302530,0,5,1,1,2,6,-41,-24,-14
1491087302531,1,-1,-14,-33,19,-68,17,-50,34
1491087302531,1,-18,2,-8,-7,-35,-53,1,48
1491087302532,2,26,5,32,53,54,33,35,-41
1491087302532,2,19,10,-19,-49,-19,41,1,9
1491087302564,3,-30,-7,-20,-25,-76,-33,27,8
1491087302564,3,22,6,4,-14,51,97,57,-27
1491087302565,0,-2,-12,-31,-76,-128,-58,-8,17
1491087302565,0,-2,-2,-18,79,26,-78,-78,-6
1491087302565,1,-4,12,39,36,33,51,7,-6
1491087302565,1,-12,2,4,-47,-63,-28,-34,-3
1491087302566,2,-5,-3,5,41,54,49,7,-2
1491087302566,2,-14,-13,-22,-10,0,-77,-18,-31
1491087302601,3,1,-1,10,20,9,-60,-7,41
1491087302601,3,-11,-7,9,30,35,127,30,-42
1491087302603,0,23,6,39,-55,-73,-97,20,28
1491087302603,0,4,-6,-25,29,-14,-11,-68,-21
1491087302604,1,1,-5,-6,-4,55,22,9,-21
1491087302604,1,-1,6,26,14,-18,7,16,1
1491087302639,2,-5,-15,-40,22,4,-27,-2,16
1491087302639,2,9,2,-5,-103,-63,-12,14,-11
1491087302676,3,-6,-9,-18,3,-102,55,34,3
1491087302676,3,1,5,-8,11,49,-63,-76,34
1491087302714,0,-20,-17,-30,23,5,34,-17,-11
1491087302714,0,13,20,70,53,98,97,33,16
1491087302715,1,-6,-5,-14,-20,12,39,-5,-30
1491087302715,1,-25,-19,-28,-38,-8,-11,18,-12
1491087302716,2,4,3,13,-4,13,-30,-6,-6
1491087302716,2,-6,-7,2,-11,11,31,-2,1
1491087302716,3,14,14,16,25,51,-8,-3,37
1491087302716,3,-13,-2,30,27,3,41,22,-8
1491087302751,0,10,3,-40,-25,3,-1,46,-7
1491087302751,0,-8,-6,4,1,-50,11,-22,0
1491087302753,1,-15,-4,22,29,17,-49,-16,17
1491087302753,1,14,-6,-35,-16,22,5,7,-14
1491087302754,2,-17,6,29,15,40,38,10,-40
1491087302754,2,-1,0,-9,27,61,42,5,2
1491087302756,2,-10,-7,6,6,-3,-43,-37,-15
1491087302756,2,-8,-1,-18,-36,-51,-65,19,15
1491087302789,3,7,-10,-4,25,79,50,-18,-9
1491087302789,3,-10,10,43,-5,84,35,27,-23
1491087302790,0,3,-20,-54,-40,-120,-72,-26,31
1491087302790,0,5,-15,-62,-8,-23,-47,-43,24
1491087302790,1,3,-3,-11,-25,2,14,31,-16
1491087302790,1,-1,-4,7,4,35,40,20,-15
1491087302791,2,-2,13,46,18,61,68,30,-14
1491087302791,2,-6,-3,4,13,-36,-77,3,0
1491087302826,3,-6,7,34,-15,-26,76,4,-18
1491087302826,3,8,-4,-39,20,-31,-98,-56,34
1491087302827,0,19,-3,-12,21,-1,30,-24,-3
1491087302827,0,-19,-6,1,-15,-12,30,-33,-13
1491087302828,1,9,9,11,-12,-4,-13,51,-3
1491087302828,1,5,15,1,32,-21,-3,-3,5
1491087302829,2,-10,0,-10,-19,-23,-39,-4,-2
1491087302829,2,4,-6,-4,-7,3,51,24,-15
1491087302864,3,4,16,38,10,20,-40,-26,6
1491087302864,3,-5,-8,24,3,-9,45,18,29
1491087302865,0,-7,-17,-44,-28,-28,-100,-51,-7
1491087302865,0,-1,2,4,17,89,78,16,-20
1491087302865,1,-5,-5,6,-22,-53,12,25,-13
1491087302865,1,4,-3,-50,-37,-13,-2,-27,-14
1491087302903,2,-8,15,84,53,87,47,27,5
1491087302903,2,1,-1,-15,-15,-86,-38,-13,6
1491087302904,3,-13,-20,-48,-9,-64,-31,-49,-10
1491087302904,3,18,5,0,-3,4,13,11,27
1491087302905,0,-20,1,29,-37,31,-22,43,-13
1491087302905,0,16,11,-4,28,22,16,-33,-8
1491087302906,1,-9,-1,8,19,34,-51,17,14
1491087302906,1,0,-11,-16,-52,-102,3,-6,-19
1491087302939,2,5,-3,47,86,89,104,54,-9
1491087302939,2,-1,10,33,-34,-111,-74,113,40
1491087302941,3,-6,-12,-84,-49,-95,-70,-118,-36
1491087302941,3,-18,-15,-68,-38,-68,-40,-14,-14
1491087302942,0,2,-4,-35,-23,-9,19,-32,8
1491087302942,0,-11,-5,50,35,92,84,51,-15
1491087302942,1,22,21,57,45,60,40,9,30
1491087302942,1,-8,3,24,26,42,-8,15,1
1491087302977,2,7,16,19,-17,-40,-15,30,14
1491087302977,2,7,-1,-14,-29,-7,-50,-65,-59
1491087302978,3,0,-6,0,43,12,11,11,25
1491087302978,3,-2,-6,29,-5,76,30,77,0
1491087302979,0,5,-9,-60,35,-51,-5,-27,22
1491087302979,0,-2,5,9,4,-30,-21,1,23
1491087302980,1,-1,2,2,-39,-68,-17,-7,-19
1491087302980,1,-4,-12,-29,-7,-27,-35,-25,-10
1491087303014,2,-11,-8,-26,-25,-10,10,-22,-8
1491087303014,2,-8,-6,5,-9,64,42,50,-3
1491087303015,3,3,-4,10,20,55,30,23,1
1491087303015,3,-3,-9,18,28,-3,2,1,-6
1491087303016,0,3,-10,-17,-50,-37,-41,-10,1
1491087303016,0,-5,-12,-18,16,-3,9,-42,1
1491087303017,1,5,-4,30,3,34,22,20,8
1491087303017,1,4,-4,-27,-1,-4,-18,-8,2
1491087303052,2,-4,5,4,-4,-25,-28,-34,0
1491087303052,2,5,2,-26,6,-9,-4,-2,11
1491087303053,3,-13,-1,-2,-2,52,39,27,-18
1491087303053,3,1,6,46,32,39,30,32,18
1491087303054,0,8,2,-19,-52,-45,-50,-53,-47
1491087303054,0,-14,-9,-45,-11,-64,-16,27,28
1491087303055,1,-10,2,10,-19,8,-77,-38,-20
1491087303055,1,9,14,20,16,43,42,-34,-6
1491087303089,2,-7,-7,-19,22,-22,0,42,15
1491087303089,2,-7,-1,40,-2,22,3,-40,-27
1491087303090,3,5,-9,-43,2,5,12,18,5
1491087303090,3,-6,6,7,-1,-11,5,21,1
1491087303098,0,4,0,5,-12,9,14,15,18
1491087303098,0,-2,-6,-12,10,-10,-32,-41,-7
1491087303099,1,-5,-8,0,7,5,26,1,17
1491087303099,1,1,9,11,22,2,-13,-17,-35
1491087303127,2,-6,-9,-15,-35,-22,13,16,-5
1491087303127,2,-3,3,-3,-7,-16,-11,-15,-1
1491087303128,3,-6,-8,0,5,2,15,39,35
1491087303128,3,0,16,9,-22,-17,-20,-61,-42
1491087303129,0,0,-3,3,6,7,-7,-7,-2
1491087303129,0,7,12,0,9,25,16,5,7
1491087303130,1,1,-3,-13,-9,-16,10,15,-5
1491087303130,1,-4,-5,11,1,2,-8,28,16
1491087303164,2,-4,3,1,21,21,18,28,17
1491087303164,2,-2,-3,11,-33,17,8,3,-52
1491087303165,3,9,16,-15,-4,-18,-31,-23,5
1491087303165,3,-6,1,-1,-3,-40,-12,-26,14
1491087303166,0,-5,-2,12,-9,4,15,14,-2
1491087303166,0,4,-22,-25,10,18,38,44,22
1491087303166,1,12,3,33,1,9,-14,-41,-5
1491087303166,1,5,-17,-27,-11,4,9,-11,-27
1491087303202,2,-1,-16,11,9,-7,-32,-37,7
1491087303202,2,-4,3,8,-2,-13,0,8,-1
1491087303203,3,-5,-8,-4,17,2,28,-15,3
1491087303203,3,-6,-2,-4,-9,11,37,40,0
1491087303204,0,-2,14,13,0,-19,-71,-8,-13
1491087303204,0,-7,-3,-12,-9,-5,1,-4,-7
1491087303205,1,-7,-3,2,12,-1,7,6,3
1491087303205,1,-2,-3,-3,-2,-14,13,12,23
1491087303239,2,-12,-19,-18,6,8,32,-2,-22
1491087303239,2,1,28,35,4,5,-30,5,23
1491087303240,3,-4,-4,10,-13,-11,2,0,-24
1491087303240,3,2,0,-4,12,8,0,3,21
1491087303240,0,-1,-7,-9,4,6,24,3,-16
1491087303240,0,2,-14,-20,7,9,30,9,13
1491087303241,1,8,11,2,-7,6,-36,-26,-5
1491087303241,1,-3,-1,-12,-14,-10,-18,-1,3
1491087303276,2,10,1,-6,8,3,6,-29,23
1491087303276,2,-21,9,10,-6,5,11,-36,-35
1491087303277,3,1,-1,4,15,23,14,50,15
1491087303277,3,3,-5,-14,-9,-3,-21,-24,0
1491087303278,0,-16,4,3,-10,-11,-10,15,-2
1491087303278,0,16,3,-5,0,-9,-14,-14,8
1491087303314,1,8,8,6,10,31,25,-3,-11
1491087303314,1,1,1,-2,2,-7,-2,3,2
1491087303315,2,-9,1,-7,-24,1,57,3,-10
1491087303315,2,1,3,0,-18,-42,-91,0,-15
1491087303316,3,0,9,-5,-16,-18,1,6,-6
1491087303316,3,3,7,8,-1,22,-8,-2,-6
1491087303316,0,-1,6,-9,10,7,27,12,0
1491087303316,0,19,-2,-9,12,-9,23,-20,13
1491087303352,1,-14,3,-6,-10,-8,-42,5,0
1491087303352,1,-14,-9,-3,-15,-11,-12,1,-17
1491087303352,2,22,-1,5,11,22,-2,-20,7
1491087303352,2,-19,-14,-6,-4,-4,-4,4,1
1491087303353,3,-8,-9,15,2,54,76,-9,-4
1491087303353,3,-10,-13,-19,-2,-51,-41,-24,2
1491087303354,0,-8,-30,-11,-17,-46,-88,-12,-9
1491087303354,0,-12,-25,17,11,23,25,-1,4
1491087303389,1,10,-33,-21,6,-28,-7,-15,10
1491087303389,1,4,-22,-13,3,5,33,-1,7
1491087303390,2,-9,3,20,-15,6,1,10,-25
1491087303390,2,30,6,-4,27,-2,3,7,16
1491087303390,3,-21,-17,-2,-27,-9,-33,-11,-18
1491087303390,3,13,-11,-8,3,21,-18,19,10
1491087303391,0,20,-2,6,1,-14,1,-18,17
1491087303391,0,-20,-18,9,-18,-6,4,21,-8
1491087303427,1,-10,-5,-9,-3,18,33,20,-22
1491087303427,1,-2,-5,-12,0,-1,-17,-7,3
1491087303427,2,-14,4,17,21,23,46,-46,-14
1491087303427,2,-10,15,-3,-26,-20,-87,-11,6
1491087303428,3,1,11,-19,-30,-27,-12,-8,6
1491087303428,3,7,20,4,6,4,26,-2,0
1491087303464,0,-28,12,-5,-4,16,17,28,-6
1491087303464,0,29,22,11,20,25,0,-28,1
1491087303465,1,-3,26,-9,7,-23,-21,10,20
1491087303465,1,-31,10,-7,-31,-16,-23,4,-43
1491087303465,2,17,14,-4,13,5,-4,23,20
1491087303465,2,15,11,39,2,22,53,8,-16
1491087303466,3,-1,-7,3,-1,-6,52,-9,4
1491087303466,3,-6,0,4,8,14,-71,8,16
1491087303501,0,8,0,-19,1,2,31,-1,-14
1491087303501,0,-13,-9,-22,-15,-49,-19,1,-5
1491087303502,1,-15,-8,0,8,21,39,16,-8
1491087303502,1,6,-3,6,42,25,70,34,0
1491087303503,2,-5,4,17,-46,-31,-102,-45,-7
1491087303503,2,3,-15,-20,3,10,47,42,34
1491087303504,3,4,2,18,-13,-19,6,-25,-22
1491087303504,3,14,2,-21,-16,15,-1,5,-18
1491087303539,0,6,-4,-3,19,-2,-34,-37,-2
1491087303539,0,-24,1,-2,0,-9,22,3,8
1491087303540,1,-5,-16,-35,-24,-2,-31,29,-16
1491087303540,1,1,13,35,17,-13,-22,-58,0
1491087303540,2,-10,-11,-15,11,-7,-5,65,17
1491087303540,2,25,-1,3,22,39,9,-36,-4
1491087303541,3,-4,4,14,20,12,5,9,3
1491087303541,3,9,9,18,-8,-15,-7,-7,-3
1491087303579,0,-2,7,15,13,9,13,-60,2
1491087303579,0,-15,-16,-20,18,8,30,72,-6
1491087303580,1,-15,-9,-12,-27,-28,-1,13,14
1491087303580,1,-7,-10,-13,13,-12,-12,-23,8
1491087303581,2,9,-5,-8,-44,-26,55,90,-6
1491087303581,2,-9,-5,-4,3,-32,-25,-68,-18
1491087303581,3,25,3,30,33,51,-30,-23,14
1491087303581,3,-41,-13,-23,0,-66,-52,-18,17
1491087303614,0,14,-7,-18,12,22,32,4,-4
1491087303614,0,-10,5,20,-1,-11,-5,4,-21
1491087303615,1,19,3,-11,-13,37,27,39,21
1491087303615,1,-23,-5,10,0,-41,-14,-67,-27
1491087303616,2,16,8,15,16,2,3,-44,3
1491087303616,2,-2,-5,-30,-48,31,-21,68,5
1491087303652,3,-7,4,8,18,14,46,-25,-8
1491087303652,3,23,8,17,50,63,108,36,13
1491087303653,0,29,7,-5,-37,2,-79,-1,24
1491087303653,0,18,0,-12,18,6,34,-62,-4
1491087303654,1,-26,-5,-11,-22,-61,8,-14,-14
1491087303654,1,-5,-4,-3,-27,7,6,-4,1
1491087303656,2,-18,-9,-14,26,-16,-25,5,-1
1491087303656,2,-1,-2,4,-3,59,3,40,7
1491087303689,3,2,-1,-2,15,-40,-15,19,3
1491087303689,3,2,11,27,-12,-17,2,-47,-33
1491087303692,0,10,4,4,-12,4,47,17,-3
1491087303692,0,-1,-4,-40,-33,-67,-118,-18,9
1491087303693,1,-11,-6,-3,25,38,17,-18,-9
1491087303693,1,-12,-11,-7,-16,45,26,55,-13
1491087303694,2,-10,-6,-7,33,-11,72,-21,0
1491087303694,2,32,24,35,-10,-9,-76,-24,23
1491087303727,3,10,9,9,-11,-13,55,44,-15
1491087303727,3,18,3,0,-16,-38,-21,-14,26
1491087303729,0,-22,-8,-20,-63,-2,60,63,-1
1491087303729,0,-17,-13,-7,20,4,66,-8,-13
1491087303730,1,15,-6,-12,26,-22,-110,-76,12
1491087303730,1,10,5,25,19,82,99,39,15
1491087303765,2,-35,-6,10,13,-13,-6,58,-9
1491087303765,2,15,-4,-23,-60,-78,-48,-87,-33
1491087303767,3,0,12,12,-24,-10,-2,-5,-18
1491087303767,3,8,-6,-10,25,18,1,13,10
1491087303768,0,5,-4,14,26,61,-3,-29,18
1491087303768,0,-34,-6,-5,-23,-10,75,45,-40
1491087303769,1,-11,-6,-10,-34,-54,-42,7,-3
1491087303769,1,37,18,-1,23,-10,-79,-1,25
1491087303802,2,-36,-9,10,44,44,7,-29,-12
1491087303802,2,11,8,16,-11,-15,1,16,8
1491087303803,3,10,-2,-8,-13,5,66,-1,-13
1491087303803,3,-9,6,-6,-32,11,-13,60,-2
1491087303807,0,-9,-11,-21,-20,-32,-51,-23,-3
1491087303807,0,1,-8,15,54,68,70,8,2
1491087303809,1,30,22,28,-40,-6,-35,23,16
1491087303809,1,-16,-24,-47,25,-39,-20,-25,3
1491087303839,2,32,11,12,11,-8,-5,-12,-1
1491087303839,2,-28,-2,-5,-3,15,29,-11,-5
1491087303841,3,26,-9,-7,47,19,-17,-35,7
1491087303841,3,-28,-11,-2,-41,-22,21,52,-26
1491087303877,0,0,6,0,-18,13,-12,-39,-2
1491087303877,0,-23,-6,-5,-21,-24,64,-9,-1
1491087303878,1,20,7,5,-11,-13,-104,3,6
1491087303878,1,-27,-6,-3,25,13,-4,29,8
1491087303879,2,-23,-17,-10,1,24,63,15,-15
1491087303879,2,10,7,9,24,13,-69,13,27
1491087303880,3,-9,-6,-3,-9,-42,41,24,19
1491087303880,3,6,-8,0,6,-9,22,-51,-44
1491087303914,0,10,7,9,-42,0,-5,13,-11
1491087303914,0,-23,3,-17,11,-20,-64,-43,-17
1491087303916,1,-29,-10,-9,-8,-12,-10,-15,-4
1491087303916,1,19,-7,-11,-17,12,30,38,-2
1491087303918,2,-50,6,28,-4,-28,-39,-15,-19
1491087303918,2,-1,-14,-11,15,20,32,14,-6
1491087303923,3,-12,17,-3,11,14,17,-5,-11
1491087303923,3,-13,1,9,-12,9,23,-8,9
1491087303952,0,14,-19,-19,54,9,49,58,25
1491087303952,0,-17,0,16,-19,-34,-102,-98,-15
1491087303953,1,-5,-1,11,-38,-47,38,59,3
1491087303953,1,7,3,-26,-9,25,16,-18,2
1491087303954,2,8,-5,-6,43,59,16,-13,-12
1491087303954,2,-44,-7,3,1,-7,-1,46,3
1491087303955,3,31,0,-12,18,-42,42,-21,-10
1491087303955,3,-12,15,20,-68,-65,-113,-54,0
1491087303990,0,23,-4,-21,-35,-48,78,66,15
1491087303990,0,-9,4,1,22,48,-34,-8,11
1491087303992,1,-25,-10,10,4,23,9,-18,-13
1491087303992,1,18,3,-7,31,21,4,-25,12
1491087303993,2,-11,9,5,-19,-30,-59,0,-4
1491087303993,2,17,-1,-2,-20,-31,38,14,-2
1491087303994,3,-34,-6,-3,19,41,89,16,-8
1491087303994,3,54,-9,-3,1,12,-90,-112,-9
1491087304027,0,16,11,5,15,1,73,81,33
1491087304027,0,14,-3,2,-51,-4,-55,10,-1
1491087304028,1,-17,-13,-12,52,19,18,-57,-19
1491087304028,1,-17,4,25,21,35,7,27,10
1491087304028,2,29,-6,-6,-13,-3,30,20,-6
1491087304028,2,2,-4,-11,-19,-66,-29,-53,14
1491087304029,3,-14,7,-5,-17,-70,17,27,-5
1491087304029,3,22,-5,-13,-31,0,-42,58,16
1491087304064,0,-21,-3,-11,58,1,26,-44,-9
1491087304064,0,-4,-8,11,53,64,56,-3,6
1491087304065,1,-3,5,12,-15,34,-98,16,2
1491087304065,1,-20,-4,-10,-38,-50,17,-36,10
1491087304065,2,0,-6,0,3,-20,-62,11,-15
1491087304065,2,-4,-2,-14,1,30,-9,-39,-27
1491087304066,3,27,10,1,21,10,-59,2,16
1491087304066,3,-12,-5,5,17,49,127,74,-18
1491087304101,0,64,-18,-3,2,-11,-128,-54,22
1491087304101,0,-65,-1,-16,-66,-99,54,-14,-17
1491087304103,1,6,7,2,3,34,76,58,1
1491087304103,1,3,1,7,-20,-42,-32,-28,-1
1491087304104,2,-18,-5,3,13,35,34,-38,-7
1491087304104,2,36,2,16,42,70,27,-7,22
1491087304104,3,11,-17,-28,-26,-40,-30,31,15
1491087304104,3,-41,-16,-20,11,28,82,25,-46
1491087304139,0,30,31,15,-26,17,-64,-23,9
1491087304139,0,7,-5,23,-1,28,80,65,12
1491087304140,1,11,1,13,50,96,112,-6,28
1491087304140,1,-26,-11,-48,-30,-105,-120,-118,-4
1491087304140,2,-32,-7,-16,-50,-85,34,11,-59
1491087304140,2,-18,-2,-19,2,-35,40,87,-5
1491087304141,3,-8,2,17,9,51,6,-73,-13
1491087304141,3,-17,-6,18,14,39,43,49,-10
1491087304176,0,12,15,11,-7,10,-17,-44,11
1491087304176,0,43,-3,-11,32,14,-2,23,22
1491087304177,1,-15,3,10,2,-8,-76,-1,-1
1491087304177,1,41,13,6,-2,8,-11,21,3
1491087304178,2,-37,-15,-30,-34,-28,27,-39,-22
1491087304178,2,13,19,35,22,45,-9,15,6
1491087304214,3,14,-7,-32,-75,-90,4,46,-8
1491087304214,3,-9,-2,3,27,-2,5,14,26
1491087304215,0,16,7,14,-6,-4,-61,-79,6
1491087304215,0,-11,-10,-25,13,17,100,62,5
1491087304215,1,-5,-6,12,-6,1,-128,-37,15
1491087304215,1,2,14,2,-28,47,99,23,-44
1491087304216,2,-29,-13,-7,5,-35,2,82,-13
1491087304216,2,-2,-4,-6,-30,-63,-19,-63,-13
1491087304251,3,-6,0,7,20,73,83,25,-11
1491087304251,3,13,1,13,-11,-41,-41,-71,21
1491087304252,0,-18,-5,-13,-2,46,20,-30,-17
1491087304252,0,0,2,-8,14,-32,-63,-6,-5
1491087304253,1,6,-7,-10,-9,-16,-9,-16,-21
1491087304253,1,-7,-4,6,29,5,-9,-7,17
1491087304254,2,2,9,24,5,24,5,53,34
1491087304254,2,13,0,-22,-64,0,-9,-6,2
1491087304289,3,-8,2,-6,57,-32,59,-60,-13
1491087304289,3,-21,3,22,15,80,-11,44,1
1491087304290,0,1,-14,-32,-58,-84,78,36,-23
1491087304290,0,-8,-5,21,43,63,-73,-84,-8
1491087304290,1,18,-1,3,3,39,34,28,30
1491087304290,1,-28,-8,-29,-25,-128,-77,-49,-25
1491087304291,2,10,16,49,23,69,69,124,27
1491087304291,2,-7,-7,-11,14,-34,-14,-37,-22
1491087304326,3,-21,-6,-9,10,-18,-64,-10,20
1491087304326,3,24,-3,-15,-27,31,17,0,3
1491087304327,0,3,-4,-16,31,39,-1,-63,-11
1491087304327,0,3,3,16,-2,-13,79,19,-7
1491087304328,1,-3,15,74,65,60,12,-28,-26
1491087304328,1,-19,-10,-60,-85,-95,-41,52,14
1491087304401,2,-3,-2,-13,-31,-68,17,-18,3
1491087304401,2,14,-8,-16,13,59,-52,48,-13
1491087304402,3,-19,-20,-57,-17,-37,-15,-63,18
1491087304402,3,15,18,70,49,105,93,-9,-43
1491087304403,0,2,-1,-13,-21,-6,14,-24,-2
1491087304403,0,25,11,14,-31,-2,49,67,-22
1491087304404,1,-14,-15,-33,-13,-61,-53,27,27
1491087304404,1,25,5,3,52,-21,-3,-53,2
1491087304439,2,-16,-1,1,-6,63,1,-10,-12
1491087304439,2,2,4,22,11,-13,115,9,3
1491087304476,3,-4,-5,-3,-14,18,-53,6,-8
1491087304476,3,2,7,35,15,51,107,46,17
1491087304477,0,-3,-12,-51,-25,-116,-127,-100,9
1491087304477,0,-28,-14,-38,21,-46,-26,6,8
1491087304478,2,14,15,61,63,121,9,36,-10
1491087304478,2,-10,-11,-17,-20,-40,-65,28,55
1491087304479,3,-16,-4,-17,-18,-67,-113,-23,-36
1491087304479,3,-7,-2,4,-9,26,68,40,-2
1491087304514,0,-6,3,16,41,65,-13,-11,-1
1491087304514,0,2,-1,-14,-8,45,57,-22,-6
1491087304515,2,10,-5,-37,-42,-105,-112,-47,11
1491087304515,2,-10,6,30,37,15,-20,7,-7
1491087304516,3,12,9,14,-22,74,110,36,-6
1491087304516,3,-18,-5,-26,-63,-88,-78,-21,-22
1491087304517,1,5,1,11,20,30,-34,13,3
1491087304517,1,-11,-14,-28,-3,-32,6,-34,15
1491087304551,2,17,-1,24,2,54,127,59,-16
1491087304551,2,7,8,-2,-39,-23,-40,-41,-3
1491087304552,3,-17,-6,-25,0,-90,59,-28,-15
1491087304552,3,-4,-11,11,18,19,-125,20,9
1491087304553,1,10,8,-13,-42,-75,-47,-50,31
1491087304553,1,0,-5,-5,1,-7,34,16,1
1491087304554,2,-9,-6,7,-5,-3,13,-6,-8
1491087304554,2,-3,-5,21,24,33,43,3,-18
1491087304589,3,4,-4,1,-1,98,-24,30,9
1491087304589,3,0,-8,-25,-13,-78,-43,-12,19
1491087304590,0,-14,-3,-3,-53,-78,9,-5,-14
1491087304590,0,4,-3,0,55,18,-26,20,5
1491087304590,1,11,-5,-7,24,-18,-37,-16,23
1491087304590,1,-5,4,2,-2,68,120,40,1
1491087304591,2,18,-3,18,32,45,-18,32,15
1491087304591,2,16,14,9,-69,-70,-88,-11,-6
1491087304626,3,-10,3,9,1,35,71,37,-18
1491087304626,3,19,-4,-6,17,18,14,-9,11
1491087304627,0,-29,-6,0,9,-14,22,-26,5
1491087304627,0,-35,-13,-15,-6,22,-1,-13,-15
1491087304628,1,15,11,20,19,18,66,42,8
1491087304628,1,8,19,8,8,55,23,-34,5
1491087304629,2,-6,-7,-45,-79,-110,-67,7,-15
1491087304629,2,-23,-5,8,5,25,73,-38,6
1491087304664,3,14,-2,24,19,15,63,-6,-16
1491087304664,3,5,-14,-44,-8,-80,-56,-7,18
1491087304665,0,7,-2,30,60,90,100,27,-3
1491087304665,0,7,15,-41,-11,-108,-74,30,50
1491087304665,1,-2,-12,9,9,47,127,13,-24
1491087304665,1,-28,-1,13,-42,-34,-38,2,-9
1491087304666,2,24,-4,2,21,74,62,17,0
1491087304666,2,38,8,35,20,61,-34,38,10
1491087304702,3,69,13,-15,-7,-46,-78,-20,28
1491087304702,3,-9,-7,15,-1,15,-31,17,6
1491087304702,0,6,-9,-21,-56,-19,90,42,-38
1491087304702,0,-3,-10,-2,52,-17,-28,-38,4
1491087304703,1,9,-10,-13,-40,-12,-110,-34,-12
1491087304703,1,5,-13,9,22,41,85,-6,-7
1491087304704,2,-11,21,21,24,-40,-104,-63,-2
1491087304704,2,-1,-3,16,-10,59,127,49,-21
1491087304776,3,-27,-26,-93,-36,-118,-107,-21,12
1491087304776,3,-8,17,22,-4,13,4,-13,2
1491087304777,0,-1,-2,6,20,42,44,37,6
1491087304777,0,13,8,-2,5,43,-27,-30,11
1491087304778,1,-30,-6,33,19,5,14,22,-8
1491087304778,1,6,0,-4,-6,27,88,24,-14
1491087304779,2,-4,6,-14,-26,-72,-128,-83,9
1491087304779,2,-24,-14,10,-8,7,79,49,-21
1491087304814,3,-12,-6,-16,14,10,13,-24,-6
1491087304814,3,-27,-2,-6,-4,-22,-65,4,-14
1491087304815,0,40,9,10,7,24,36,-42,0
1491087304815,0,-4,1,-31,-14,-44,48,-2,11
1491087304815,3,6,12,-6,-1,0,53,29,29
1491087304815,3,4,-1,7,32,23,43,19,-4
1491087304816,0,-10,-13,-21,-51,-26,17,-6,-7
1491087304816,0,-4,1,-3,2,-15,-42,-8,3
1491087304851,1,-5,-3,31,29,53,47,-13,5
1491087304851,1,-20,-11,-17,-26,-13,-33,-33,-15
1491087304852,2,-31,-19,-15,5,-56,-44,2,-3
1491087304852,2,-14,-10,-4,-9,7,16,11,-10
1491087304853,3,-6,5,9,-11,1,15,1,-8
1491087304853,3,28,11,0,1,20,16,-3,0
1491087304854,0,13,-2,-7,7,-4,-3,0,5
1491087304854,0,-2,10,0,2,1,13,-31,-10
1491087304889,1,-23,0,26,4,1,-11,14,-11
1491087304889,1,4,-4,-4,-13,8,7,10,4
1491087304890,2,2,15,25,-10,-19,-9,9,14
1491087304890,2,3,-4,-28,-5,-35,-13,-18,6
1491087304890,3,5,-7,5,4,19,33,-4,-6
1491087304890,3,14,1,4,10,-19,8,9,16
1491087304891,0,-13,-7,7,2,3,-9,13,-11
1491087304891,0,6,-15,-20,-7,4,-43,9,0
1491087304926,1,-8,-14,-1,-11,-5,12,-10,-13
1491087304926,1,-8,-28,0,11,15,22,20,6
1491087304927,2,-23,-7,-15,-18,-22,-37,-22,-4
1491087304927,2,23,-3,-6,-16,-30,26,-11,9
1491087304928,3,-2,-1,-18,12,-8,40,-5,1
1491087304928,3,8,15,2,-2,9,-2,23,-9
1491087304929,0,-13,12,2,21,-3,-78,-31,11
1491087304929,0,-5,11,8,1,8,25,12,-15
1491087304964,1,-6,12,-21,2,-6,9,-11,0
1491087304964,1,1,24,15,5,-20,-11,-32,13
1491087304965,2,1,11,-2,20,57,76,28,-9
1491087304965,2,-5,18,10,-30,-41,-6,16,-6
1491087304965,3,-9,-4,-15,-19,-30,-64,-18,-9
1491087304965,3,-1,17,7,3,16,-3,6,9
1491087304966,0,2,-2,21,22,27,127,-26,2
1491087304966,0,-18,-14,-15,-8,-24,-82,4,-2
1491087305001,1,-13,-3,11,0,12,51,32,-5
1491087305001,1,-3,-13,4,-8,57,108,20,-13
1491087305002,2,27,-10,-7,-7,-45,-70,-6,10
1491087305002,2,15,-10,-4,19,6,-58,-25,27
1491087305003,3,4,-18,-7,-18,-39,-49,-2,13
1491087305003,3,-15,-22,-1,13,34,73,-1,-5
1491087305004,0,4,-15,-15,-3,-24,-74,-1,3
1491087305004,0,-14,-11,5,9,41,123,41,-4
1491087305076,1,-1,3,5,16,8,-102,-25,14
1491087305076,1,-15,-14,7,-12,-13,62,23,-2
1491087305078,2,0,-12,-33,-26,3,87,-13,-2
1491087305078,2,-4,1,7,0,-9,20,-3,-6
1491087305078,3,-17,-12,6,10,24,29,3,-20
1491087305078,3,-6,-7,-12,3,-25,-52,-11,10
1491087305079,0,21,-5,-17,-6,-9,14,-39,-12
1491087305079,0,-4,-10,-9,-32,-23,-36,38,-3
1491087305114,1,16,6,7,15,33,72,1,-1
1491087305114,1,5,-7,11,3,9,-111,16,7
1491087305115,2,-24,-26,-2,15,8,127,10,-27
1491087305115,2,0,-5,-16,-22,-45,-75,-67,6
1491087305115,3,-6,-14,-5,-24,-1,60,-11,-7
1491087305115,3,5,1,-19,-2,-43,40,4,0
1491087305117,1,17,6,22,9,24,-7,-25,10
1491087305117,1,26,8,-8,-20,-26,-32,-8,-1
1491087305151,2,-7,14,9,23,8,-53,4,8
1491087305151,2,-16,3,-9,-17,1,-19,16,-18
1491087305152,3,22,23,1,-6,-14,-23,-22,6
1491087305152,3,-5,11,7,16,47,81,4,-4
1491087305153,1,-13,4,-11,-22,-40,-72,-1,-1
1491087305153,1,15,5,1,-9,-11,33,-6,6
1491087305154,2,-14,2,-21,-40,-50,-9,11,1
1491087305154,2,3,-11,32,11,27,94,22,-15
1491087305189,3,29,17,-5,17,5,8,8,22
1491087305189,3,-17,-2,0,-3,1,-74,-36,-12
1491087305226,0,10,8,16,25,14,18,5,15
1491087305226,0,11,-1,9,35,50,51,8,5
1491087305227,1,-15,-9,2,-18,-23,29,-3,-9
1491087305227,1,-1,-3,-12,-19,-23,-66,7,-3
1491087305264,2,-14,-1,-1,-12,8,6,11,-17
1491087305264,2,-17,0,7,5,19,68,35,-8
1491087305265,3,14,-3,2,63,42,23,28,39
1491087305265,3,-13,-14,-20,-51,-54,-9,-11,-9
1491087305265,0,12,-1,7,37,21,36,-36,-19
1491087305265,0,-13,-10,-17,-47,-80,-67,15,-2
1491087305266,1,-7,-10,-2,2,21,13,-11,-21
1491087305266,1,18,6,15,8,6,5,29,17
1491087305301,0,30,11,22,1,-10,-68,9,19
1491087305301,0,9,-3,-1,38,55,23,3,3
1491087305302,1,-8,-2,13,-38,-51,72,35,-31
1491087305302,1,-30,-12,-56,-38,-10,-74,-70,-18
1491087305303,2,-18,-14,-34,-28,-7,18,12,8
1491087305303,2,10,10,4,-11,-23,-30,-41,11
1491087305304,0,-33,-13,-9,-7,-32,-41,2,-19
1491087305304,0,14,8,-4,-10,32,49,21,6
1491087305339,1,-4,-3,-8,10,31,-77,-30,14
1491087305339,1,32,17,21,4,-12,79,35,15
1491087305340,2,-31,-2,-2,-28,-2,76,35,-12
1491087305340,2,2,5,8,49,53,109,32,5
1491087305340,0,-16,-17,4,10,59,90,66,-21
1491087305340,0,25,-3,-36,-78,-128,-127,-45,5
1491087305341,1,-45,-3,-13,5,-12,20,-49,-26
1491087305341,1,-14,-6,-17,-19,23,50,-9,-36
1491087305376,2,14,5,28,30,-9,38,-15,14
1491087305376,2,-1,-7,-2,1,27,51,-17,-31
1491087305377,3,-2,5,12,-7,31,-101,16,33
1491087305377,3,-6,-3,12,12,-35,-32,5,-9
1491087305414,0,12,-11,-11,12,61,93,1,1
1491087305414,0,-23,14,10,-2,-54,-97,-33,16
1491087305415,1,45,4,5,26,19,53,-40,-8
1491087305415,1,-21,4,2,-42,-9,4,83,-10
1491087305415,2,1,7,-19,-35,-68,5,4,-18
1491087305415,2,8,-15,-32,21,-10,10,-14,19
1491087305416,3,-25,0,6,-40,16,127,33,-16
1491087305416,3,28,9,33,57,54,34,17,24
1491087305451,0,-1,-5,-14,5,34,-22,-24,-7
1491087305451,0,-8,-2,-3,0,-59,-74,4,-2
1491087305489,1,-32,-13,-26,-12,-29,-13,12,-14
1491087305489,1,-25,-22,-30,11,11,39,-13,-8
1491087305490,2,14,20,30,-11,13,-60,-23,5
1491087305490,2,-8,-1,22,44,66,30,9,-17
1491087305490,3,-3,-6,-7,-13,36,47,-36,-20
1491087305490,3,41,11,-19,-73,-124,-88,-16,45
1491087305526,0,-21,-2,9,27,-8,100,-3,-25
1491087305526,0,8,-7,-2,10,6,65,29,9
1491087305527,1,6,11,6,-44,47,-11,36,-23
1491087305527,1,-19,-3,-8,3,-38,36,-79,-11
1491087305528,3,6,-4,2,33,-10,-43,44,16
1491087305528,3,-12,-13,19,-16,88,102,50,-6
1491087305529,0,14,10,-11,45,-30,-66,-34,9
1491087305529,0,-41,-12,-16,-24,-14,-31,-8,-11
1491087305564,2,-44,-22,-27,-34,-23,50,-8,-37
1491087305564,2,72,26,9,-17,28,-110,-36,6
1491087305565,3,6,5,0,31,75,31,65,8
1491087305565,3,-10,-3,12,53,-7,23,38,15
1491087305565,0,22,-1,-6,2,-15,15,0,26
1491087305565,0,-13,-3,5,-9,-44,40,24,36
1491087305566,2,-15,9,16,-25,-67,-64,-20,17
1491087305566,2,-13,-3,-3,13,29,-26,-12,-14
1491087305601,3,-11,-2,4,-6,-10,44,56,28
1491087305601,3,-6,0,-11,7,12,15,-14,-10
1491087305602,0,-12,-8,-7,-2,26,-75,-37,-2
1491087305602,0,-7,-11,-12,-41,-8,78,-3,-15
1491087305603,2,-1,6,4,-12,11,109,105,15
1491087305603,2,-20,3,6,-11,-7,-128,-13,-16
1491087305604,3,18,-3,-17,6,-29,-7,-19,3
1491087305604,3,3,0,5,30,38,96,-2,5
1491087305639,0,14,3,8,-8,29,-50,-30,16
1491087305639,0,-9,0,9,-6,-23,64,17,-8
1491087305640,1,15,1,-9,-31,-58,-46,-10,-11
1491087305640,1,-5,-4,-4,22,3,11,-13,-11
1491087305640,2,-15,-8,0,-13,23,-43,11,4
1491087305640,2,26,7,11,24,66,127,44,-5
1491087305641,3,-8,-2,-8,-51,-67,-63,-57,-8
1491087305641,3,-8,-4,-20,9,-4,-14,13,10
1491087305676,0,2,3,21,32,43,42,9,23
1491087305676,0,17,3,7,40,-21,-14,40,21
1491087305677,1,-19,0,-7,-45,-78,-60,8,9
1491087305677,1,-9,-19,-29,-65,2,96,36,-18
1491087305678,2,30,13,6,-33,-40,-37,0,-19
1491087305678,2,-27,3,11,53,22,33,18,16
1491087305679,3,-13,-15,12,39,73,36,-27,-26
1491087305679,3,-17,12,31,23,34,73,-1,-11
1491087305714,0,15,-7,-40,46,23,-24,11,-1
1491087305714,0,-5,-2,-3,-27,-21,-65,-48,32
1491087305715,1,11,0,23,25,67,106,27,-7
1491087305715,1,-4,3,4,-23,-40,-98,-22,21
1491087305716,2,-7,-14,6,54,71,19,34,11
1491087305716,2,11,14,-25,-107,-119,-18,25,-36
1491087305717,3,2,-14,-15,43,-35,70,-42,2
1491087305717,3,-7,10,17,-41,14,-98,26,4
1491087305752,0,-8,-5,-2,-22,-8,99,-79,-57
1491087305752,0,23,-16,-25,22,-24,33,-30,19
1491087305753,1,-26,3,27,16,33,48,5,-12
1491087305753,1,-9,-11,-18,-40,16,-3,84,-24
1491087305754,2,5,-10,-29,-5,-14,-39,-35,17
1491087305754,2,11,17,14,2,37,45,-24,-14
1491087305755,3,18,-3,16,33,86,73,-38,6
1491087305755,3,-21,-6,-25,-46,-82,-69,-70,12
1491087305826,0,28,2,10,20,6,90,38,31
1491087305826,0,-3,-5,12,5,31,-39,-25,20
1491087305827,1,-7,8,-19,-33,-74,20,9,4
1491087305827,1,0,-4,12,76,87,89,-14,-35
1491087305828,2,-7,11,9,-87,-110,-117,-30,-6
1491087305828,2,-20,-19,-7,56,109,127,-17,-23
1491087305829,3,29,6,-6,-28,-87,-75,52,15
1491087305829,3,-18,1,-9,-11,-84,-14,-21,11
1491087305864,0,-23,-10,-4,15,72,-16,42,-23
1491087305864,0,-4,2,21,48,46,74,22,-2
1491087305865,1,-24,-2,11,-16,39,-104,11,15
1491087305865,1,5,-1,-17,78,-26,59,-30,15
1491087305865,0,-17,-8,-17,-17,-37,-128,-33,-10
1491087305865,0,-18,-13,-6,-28,10,8,17,-39
1491087305866,1,-5,7,11,-9,28,15,-4,-3
1491087305866,1,16,7,33,53,109,127,-18,-6
1491087305901,2,-7,0,-2,-44,-52,-23,-64,14
1491087305901,2,-9,-3,-13,-70,-53,53,73,16
1491087305903,3,-13,-6,-13,66,6,2,-9,-31
1491087305903,3,34,3,3,-56,22,17,42,8
1491087305903,0,22,5,-15,9,11,9,-6,-25
1491087305903,0,-16,-10,1,16,67,-12,-37,3
1491087305904,1,-17,10,-9,-75,-119,-69,8,9
1491087305904,1,-9,-16,-33,5,-77,-73,0,-14
1491087305940,2,7,20,61,80,90,127,-8,15
1491087305940,2,-4,5,6,-26,9,-29,-4,5
1491087305940,3,3,-13,-28,-2,41,3,18,-7
1491087305940,3,0,0,35,16,37,64,-10,-30
1491087305941,0,2,-2,7,62,9,88,13,15
1491087305941,0,-10,-11,-50,-101,-94,-109,-15,-13
1491087305942,1,-45,-2,-2,40,-4,83,-40,-66
1491087305942,1,17,4,-6,-30,-50,6,-17,25
1491087305977,2,-15,-6,-1,-26,34,18,27,22
1491087305977,2,11,2,36,41,36,12,2,-7
1491087305978,3,-3,-11,-28,-53,-48,3,-1,-10
1491087305978,3,-28,-11,-15,-62,56,-71,8,-18
1491087305979,0,2,5,2,53,-29,6,-12,6
1491087305979,0,0,-5,-10,-9,20,5,13,17
1491087305980,1,11,7,16,20,-7,-56,-39,-5
1491087305980,1,7,2,28,62,69,30,3,23
1491087306014,2,-32,-6,-22,-119,-40,5,13,-22
1491087306014,2,-4,-5,-32,4,-33,24,23,28
1491087306015,3,-12,-8,-14,-36,-18,-15,25,2
1491087306015,3,-10,-9,-26,3,-21,82,24,-12
1491087306051,0,10,24,71,35,3,41,-16,-1
1491087306051,0,4,5,19,-16,6,-4,-12,-34
1491087306052,1,15,1,6,33,51,-36,-13,1
1491087306052,1,-23,-13,-3,-1,21,29,27,0
1491087306053,2,1,-11,-37,-38,-101,-98,-42,-7
1491087306053,2,-28,-8,-19,7,-67,-22,-8,6
1491087306054,3,34,14,28,-11,43,37,18,3
1491087306054,3,-7,-4,-17,18,18,37,-49,8
1491087306089,0,7,9,20,-18,36,-37,32,38
1491087306089,0,18,-4,4,41,52,101,30,-27
1491087306126,1,-30,-13,-3,12,-50,-15,0,1
1491087306126,1,-3,-8,-33,-71,-41,-23,-1,-18
1491087306127,2,38,-1,-15,-28,-6,89,17,11
1491087306127,2,-13,-2,10,71,27,-13,-65,16
1491087306128,3,-21,-7,15,19,6,74,14,-23
1491087306128,3,27,8,-31,-31,-81,-67,-7,34
1491087306129,0,-16,-5,-4,-8,38,-84,-39,-29
1491087306129,0,8,-4,-9,2,-23,-52,44,25
1491087306164,1,14,4,-14,23,52,97,-13,8
1491087306164,1,17,13,58,42,-24,-73,-5,25
1491087306166,2,-13,-8,-35,-23,-64,55,33,-23
1491087306166,2,10,7,17,8,50,55,-26,-16
1491087306166,3,13,6,8,-39,4,6,-52,27
1491087306166,3,-11,-9,-31,-7,-3,43,39,-5
1491087306167,2,-4,12,25,-31,31,49,25,-19
1491087306167,2,-16,-14,-22,67,-39,20,-45,-15
1491087306239,3,3,5,-19,-21,-31,-104,-26,7
1491087306239,3,-10,-2,11,18,30,-17,7,-17
1491087306240,0,0,-6,6,54,26,-19,14,9
1491087306240,0,-16,-4,-8,-42,18,55,14,-16
1491087306240,2,7,2,67,52,100,4,12,-8
1491087306240,2,-9,-1,-63,-96,-118,-128,-65,5
1491087306241,3,-22,-33,-59,7,-69,29,-51,-26
1491087306241,3,18,23,21,5,34,70,5,13
1491087306276,0,7,-2,-22,52,43,-18,-42,10
1491087306276,0,0,13,56,38,47,114,36,-14
1491087306277,1,-3,3,20,-21,-8,-83,53,-6
1491087306277,1,-1,4,10,22,3,-22,-48,3
1491087306278,1,4,-11,26,10,0,87,81,22
1491087306278,1,2,2,5,67,40,-10,-37,1
1491087306314,2,-7,-13,-43,-9,-76,13,-32,7
1491087306314,2,0,-5,8,-9,-6,0,24,-2
1491087306315,3,1,8,7,7,2,26,-11,-8
1491087306315,3,1,0,24,0,7,-9,9,-12
1491087306315,0,-11,3,3,-11,-3,57,4,-17
1491087306315,0,8,-5,4,14,19,-64,19,7
1491087306316,1,1,2,-3,-29,76,-33,13,11
1491087306316,1,-5,-6,26,9,-89,-2,11,-6
1491087306351,2,-8,-10,-34,-62,58,-86,3,-2
1491087306351,2,-4,-15,-57,24,-25,-27,-72,35
1491087306353,3,3,15,7,-21,-22,-15,7,18
1491087306353,3,3,3,-3,6,103,45,13,-50
1491087306353,1,-4,-13,-20,66,55,43,-4,23
1491087306353,1,-2,-3,10,-22,-48,-68,-49,6
1491087306389,2,-8,-23,-32,4,-63,-6,5,-5
1491087306389,2,-10,-15,-47,-51,-34,36,15,-12
1491087306389,3,-7,16,48,32,21,-19,13,-25
1491087306389,3,24,-3,-11,15,6,36,1,4
1491087306390,0,3,19,7,-2,127,63,-21,11
1491087306390,0,-2,-15,-28,-92,-106,-123,7,-8
1491087306391,1,-18,-19,-29,-15,-64,15,-45,-32
1491087306391,1,-12,-16,-1,-5,25,-5,-16,5
1491087306426,2,8,10,14,37,34,-19,-32,-2
1491087306426,2,8,8,16,10,21,50,41,9
1491087306427,3,0,-3,20,-10,13,47,15,-21
1491087306427,3,3,-7,2,8,63,-7,15,12
1491087306427,0,-6,-19,-78,8,-112,-51,-15,10
1491087306427,0,-9,-2,54,24,-3,-21,-37,-10
1491087306429,1,-4,-23,-32,-28,-53,-8,-9,2
1491087306429,1,-6,11,19,40,10,-25,-12,25
1491087306464,2,7,4,46,15,48,43,45,0
1491087306464,2,-9,-12,-15,-27,0,-33,-15,-23
1491087306465,3,5,-4,-9,4,-13,-2,8,6
1491087306465,3,-5,9,16,6,-6,34,0,5
1491087306466,0,-4,0,-8,-17,-8,-1,-30,-1
1491087306466,0,-14,-3,-34,-8,-9,-55,-3,6
1491087306467,1,12,7,19,-16,-15,43,10,-16
1491087306467,1,3,3,-14,-24,-13,3,27,0
1491087306501,2,-1,6,2,-3,-5,-13,-9,3
1491087306501,2,2,0,21,45,54,17,-16,15
1491087306502,3,-12,2,0,4,-18,-27,-30,3
1491087306502,3,11,13,-17,-7,-3,0,-23,-5
1491087306539,0,-24,-2,24,8,-8,-14,25,-4
1491087306539,0,4,11,-15,10,28,33,30,-7
1491087306540,1,6,11,-10,-18,-38,-36,-16,-4
1491087306540,1,-4,-9,-12,-14,5,20,0,2
1491087306541,2,2,-8,9,10,6,0,3,-3
1491087306541,2,7,9,25,3,61,27,14,-14
1491087306542,3,-19,-5,-20,6,-39,-23,-27,13
1491087306542,3,-18,-9,-14,-11,-33,7,5,-15
1491087306576,0,22,-4,-11,-18,-13,-3,10,1
1491087306576,0,10,3,29,15,-2,10,-17,7
1491087306578,1,-7,-10,-6,2,15,-15,3,-7
1491087306578,1,-10,4,16,-9,4,-21,-9,-4
1491087306579,2,-6,-1,-7,31,-14,-12,-12,-3
1491087306579,2,-7,4,-11,-12,-2,9,1,0
1491087306652,3,6,4,1,-21,7,33,-2,0
1491087306652,3,5,0,0,3,-10,-4,-9,11
1491087306654,0,2,6,-4,-13,-6,-9,17,-2
1491087306654,0,2,-9,-14,6,5,23,3,-3
1491087306655,1,-13,-11,-20,-19,-8,-12,16,-21
1491087306655,1,-1,-2,11,-15,-6,20,18,-1
1491087306656,3,-1,7,-3,6,1,27,14,-6
1491087306656,3,-4,0,26,0,12,3,10,-10
1491087306689,0,-5,0,-2,2,-15,-19,-14,3
1491087306689,0,5,-1,-2,-16,-4,31,3,1
1491087306691,1,-2,8,0,22,0,-33,15,15
1491087306691,1,4,-5,-11,-5,-11,-7,-20,-7
1491087306692,2,5,19,16,-10,12,-25,1,2
1491087306692,2,1,4,-19,2,-12,2,4,-1
1491087306693,2,-4,-9,18,4,-1,13,25,-12
1491087306693,2,0,-14,2,5,12,19,-22,15
1491087306727,3,5,-25,4,-16,-7,-35,6,-2
1491087306727,3,16,-25,-6,11,-11,-19,1,16
1491087306729,0,-16,-22,-14,8,7,-12,4,-6
1491087306729,0,-15,-14,12,-7,-24,-7,-10,-11
1491087306730,2,12,-4,19,-10,-5,-2,31,13
1491087306730,2,-8,-12,-24,-25,31,-59,-15,-15
1491087306732,3,-3,-1,7,8,7,18,5,4
1491087306732,3,11,-2,36,4,74,81,34,-2
1491087306764,0,-16,-17,-24,-21,-43,-2,-71,-14
1491087306764,0,1,-9,-39,-12,-85,-83,-3,0
1491087306767,1,15,18,23,6,68,90,15,5
1491087306767,1,-17,13,-29,-6,-24,73,-24,-5
1491087306768,2,-12,17,-5,-6,-41,-91,0,13
1491087306768,2,14,24,30,3,36,92,12,1
1491087306769,3,-7,10,1,9,-11,32,-4,0
1491087306769,3,4,14,-16,1,32,-57,-23,-5
1491087306802,0,-6,3,16,40,57,70,15,4
1491087306802,0,-16,-4,-22,-23,-37,-24,-15,-3
1491087306804,1,15,11,25,77,49,71,48,19
1491087306804,1,13,6,8,-33,19,-10,19,-17
1491087306805,2,-19,0,-27,-71,-94,-27,-31,-5
1491087306805,2,-5,-8,35,49,118,-20,18,9
1491087306806,3,-11,-8,-32,-109,-117,84,17,-16
1491087306806,3,-3,-10,-7,15,-23,-83,-29,1
1491087306840,0,17,2,55,46,115,95,58,-1
1491087306840,0,-11,-11,-22,-43,-68,127,47,-10
1491087306841,1,6,8,5,8,-23,-128,-84,14
1491087306841,1,-2,-2,9,44,62,98,-23,-9
1491087306842,2,7,-13,-17,-41,-118,-17,47,2
1491087306842,2,-10,-6,-4,23,-2,92,16,-5
1491087306843,3,10,9,32,-5,-1,-45,17,9
1491087306843,3,-10,3,-4,-3,-25,-45,-5,1
1491087306877,0,32,3,17,22,80,9,-58,-10
1491087306877,0,1,2,25,26,74,54,67,11
1491087306878,1,-17,-4,-22,-11,0,33,-23,-23
1491087306878,1,3,0,-28,-11,-60,-27,-50,20
1491087306879,2,-15,10,59,-83,-73,-75,110,-3
1491087306879,2,15,-9,-87,29,0,-81,-72,-2
1491087306880,3,31,-7,-21,39,25,-53,-7,16
1491087306880,3,-28,-1,-1,-43,-12,28,27,-5
1491087306914,0,-2,6,5,49,-5,82,-39,-10
1491087306914,0,28,3,23,-82,-87,37,11,3
1491087306916,1,-20,-3,2,34,-19,-38,-8,-1
1491087306916,1,-11,-7,-9,1,43,-4,-14,-10
1491087306917,2,10,-5,-29,-26,-60,-10,6,-1
1491087306917,2,-25,5,41,39,54,26,-20,-15
1491087306918,3,1,-13,-16,-1,42,44,-28,-1
1491087306918,3,-5,13,12,-19,-108,17,33,-6
1491087306952,0,10,-8,-36,-31,24,-73,-11,-18
1491087306952,0,-16,-4,1,-2,-9,-13,4,10
1491087306953,1,2,3,-15,-19,-14,74,34,-7
1491087306953,1,1,2,7,62,60,-101,-17,46
1491087306954,2,8,-1,15,-11,105,127,44,-34
1491087306954,2,-3,7,-17,80,-87,-40,-42,11
1491087306955,3,18,5,-2,-74,1,-79,-43,2
1491087306955,3,11,2,10,9,-35,33,65,13
1491087306989,0,-3,-7,-16,18,16,-11,-10,14
1491087306989,0,-11,3,15,-17,55,13,4,-29
1491087306991,1,-32,-4,7,26,43,43,33,1
1491087306991,1,11,0,-1,-53,-90,-60,-3,15
1491087306993,2,-10,-5,-1,34,-1,68,-17,-13
1491087306993,2,38,1,-25,-50,11,-6,-24,2
1491087306994,3,-2,20,13,24,-21,-44,-39,-27
1491087306994,3,-14,-18,-16,-6,49,94,19,-11
1491087307064,0,-8,1,2,68,-39,-101,-78,17
1491087307064,0,-26,-5,4,-64,-8,51,85,-23
1491087307065,1,3,-9,4,7,23,-17,-36,4
1491087307065,1,30,5,20,-14,24,6,11,-10
1491087307067,2,-24,-6,-9,41,42,41,-14,12
1491087307067,2,8,2,-6,-18,-6,59,4,3
1491087307068,3,-25,-1,-7,14,-46,-88,-20,-12
1491087307068,3,12,-8,-6,0,-53,83,13,13
1491087307102,0,-8,-3,-18,11,34,-3,-28,0
1491087307102,0,0,10,4,-29,-35,-77,3,19
1491087307103,1,-8,-15,-9,-26,5,86,61,-13
1491087307103,1,-11,2,0,15,-60,-61,-67,-6
1491087307104,2,7,10,8,25,-23,-19,29,19
1491087307104,2,-19,-1,0,14,-12,-7,-44,-15
1491087307105,3,9,2,13,-8,65,70,40,6
1491087307105,3,-11,-12,-9,-14,14,-53,35,-29
1491087307140,0,2,-7,-34,-48,-113,2,-33,7
1491087307140,0,9,-1,16,-9,-15,-18,-32,-8
1491087307142,1,-14,1,-12,9,3,37,0,-8
1491087307142,1,9,8,19,37,52,-65,-32,30
1491087307144,3,6,3,3,16,-25,15,-45,-1
1491087307144,3,-6,-1,12,-5,-6,11,22,5
1491087307145,0,-12,2,-5,-36,-29,19,-2,-13
1491087307145,0,0,-8,-5,35,42,-29,5,-19
1491087307177,1,12,-2,5,-9,-67,-8,5,5
1491087307177,1,-21,-18,-31,15,79,70,-8,-17
1491087307178,2,5,4,15,26,63,11,48,21
1491087307178,2,-5,-4,-2,-10,-27,-24,-81,17
1491087307179,3,-21,-10,-4,-45,-57,-8,53,-41
1491087307179,3,3,7,0,-3,25,18,7,-23
1491087307180,0,-5,-4,-1,5,6,-31,30,17
1491087307180,0,31,3,1,17,41,20,-4,-5
1491087307214,1,-9,-9,-38,-35,-29,-51,3,17
1491087307214,1,1,-3,2,1,-16,43,-43,7
1491087307216,2,-12,7,17,-2,31,-19,-6,3
1491087307216,2,-5,2,-6,15,11,13,13,-9
1491087307218,3,5,-2,27,12,-3,-12,-3,9
1491087307218,3,1,-6,-11,-7,-9,51,26,-27
1491087307219,0,-11,-2,-15,-39,-86,-53,-54,29
1491087307219,0,-20,-6,-10,2,12,-11,-10,-4
1491087307252,1,6,15,14,-3,40,69,-41,6
1491087307252,1,-2,12,24,-20,1,24,58,8
1491087307254,2,-3,-10,-17,8,48,-6,-13,-22
1491087307254,2,-29,-7,-3,0,-17,1,-11,3
1491087307254,3,4,-5,2,37,28,-19,-53,14
1491087307254,3,13,13,8,-35,-50,-21,80,-17
1491087307255,0,-14,-21,-44,-58,-21,-26,-8,-18
1491087307255,0,20,17,25,-4,2,10,19,11
1491087307289,1,-5,-14,-14,33,52,71,5,-7
1491087307289,1,-15,11,8,-21,19,-112,-82,6
1491087307291,2,21,11,17,-4,-62,40,32,23
1491087307291,2,-15,-5,-4,4,-34,-66,-28,-8
1491087307292,3,-11,-9,-2,-13,-9,-17,8,-14
1491087307292,3,5,-1,3,9,-5,23,-72,0
1491087307293,0,-9,-5,5,3,28,34,-26,-5
1491087307293,0,14,13,11,9,12,-69,28,0
1491087307326,1,2,-4,-7,-36,-32,10,26,0
1491087307326,1,-22,-26,-25,18,9,42,49,-31
1491087307328,2,6,12,11,-56,13,47,-1,-24
1491087307328,2,0,-1,-5,59,23,-37,-18,22
1491087307329,3,-8,3,9,40,71,12,-48,10
1491087307329,3,-2,3,-9,-11,-61,-74,-28,-3
1491087307330,0,23,-8,-5,32,-17,27,6,18
1491087307330,0,-35,-18,-13,-68,-38,65,29,-37
1491087307364,1,0,7,-10,29,16,-57,-6,8
1491087307364,1,5,-3,-13,9,-3,26,-28,17
1491087307365,2,-21,-1,1,-20,-16,-68,14,-24
1491087307365,2,39,-2,14,27,66,44,20,15
1491087307365,3,-2,4,21,22,-2,58,-18,-4
1491087307365,3,-7,-24,-38,-68,-52,-36,-14,-14
1491087307366,0,-7,5,14,27,1,3,31,-4
1491087307366,0,-10,3,-6,-31,-24,39,9,-45
1491087307401,1,-9,-7,13,-2,9,-37,34,37
1491087307401,1,26,12,4,24,121,22,29,9
1491087307402,2,-7,-11,-13,18,-62,36,-24,12
1491087307402,2,-15,-7,-19,-37,-53,-23,-32,-6
1491087307403,3,33,14,-6,-6,-23,-40,4,-8
1491087307403,3,35,-7,-8,16,-20,26,-8,4
1491087307404,0,-23,-2,12,10,62,-93,-36,9
1491087307404,0,-7,-16,-13,31,72,96,20,-14
1491087307439,1,-26,1,6,-51,-103,-37,35,-11
1491087307439,1,-15,15,18,34,22,-4,-90,8
1491087307440,2,25,-7,-10,28,11,28,17,8
1491087307440,2,12,9,-6,-3,-50,-128,-12,35
1491087307441,3,-19,-5,-6,-33,-14,56,-21,-1
1491087307441,3,-23,-6,-4,9,12,-5,25,-26
1491087307442,0,-19,-7,-11,-31,2,75,85,-23
1491087307442,0,3,2,5,-4,-18,-40,-14,25
1491087307476,1,-8,-10,0,0,56,23,-67,-13
1491087307476,1,-8,-3,8,47,-65,30,-70,0
1491087307477,2,0,0,-1,4,36,-73,13,-6
1491087307477,2,-20,-11,-16,-61,-42,66,62,-31
1491087307478,3,26,1,-9,25,-17,-57,-20,5
1491087307478,3,-5,-1,-4,-57,-23,82,28,21
1491087307514,0,-10,-10,-22,-8,-9,-14,-19,-27
1491087307514,0,19,14,48,95,100,119,5,29
1491087307515,1,4,4,3,-53,-30,-81,-23,-9
1491087307515,1,-16,-17,-29,-26,-16,80,-31,-46
1491087307516,2,-11,-4,10,23,20,69,14,7
1491087307516,2,7,17,23,5,31,-30,48,20
1491087307516,3,10,-3,3,74,42,74,-22,21
1491087307516,3,2,-7,-17,-26,-86,16,75,-2
1491087307551,0,12,5,0,-60,-68,-93,-61,-2
1491087307551,0,-6,-5,-5,-23,-23,-3,-74,-24
1491087307553,1,-5,-9,-34,-15,32,-24,0,-12
1491087307553,1,20,17,39,43,103,-41,27,21
1491087307554,2,-9,-5,7,54,120,127,34,-22
1491087307554,2,-1,-12,-21,-3,-84,-88,-69,5
1491087307555,3,7,17,-2,-97,-52,-26,68,10
1491087307555,3,-7,-8,-21,-10,-49,-40,-42,5
1491087307589,0,3,-8,-3,19,88,88,1,-5
1491087307589,0,17,8,19,2,-84,-56,-13,2
1491087307590,1,-5,-14,-22,-14,-36,16,-17,-33
1491087307590,1,2,-2,25,30,48,68,46,-2
1491087307591,2,-31,3,-1,-18,60,-128,-36,-6
1491087307591,2,-18,-18,-28,-7,-2,127,47,39
1491087307592,3,16,6,1,62,0,54,2,7
1491087307592,3,-3,11,66,78,122,68,63,-2
1491087307626,0,35,-3,-27,-83,-124,-61,-82,-1
1491087307626,0,-12,-5,-32,-30,-85,-86,-54,-5
1491087307701,1,-19,-16,-10,-22,63,82,58,-17
1491087307701,1,1,6,-4,-1,-107,-100,-77,34
1491087307702,2,8,9,24,86,-10,64,-36,-3
1491087307702,2,22,16,40,-3,71,-66,112,38
1491087307703,3,-17,-19,-46,-33,-19,42,-11,-20
1491087307703,3,5,10,12,-19,69,-13,-46,-16
1491087307704,0,-9,-9,-6,29,-37,36,42,33
1491087307704,0,8,1,18,13,50,50,41,-22
1491087307739,1,0,8,24,28,27,-7,8,-3
1491087307739,1,-4,-9,-53,-114,-81,-3,52,7
1491087307740,2,-19,-7,-26,-26,-75,-7,-1,-18
1491087307740,2,13,-7,-28,8,-62,35,-44,9
1491087307740,3,3,10,43,38,-21,-63,4,9
1491087307740,3,2,0,0,-44,51,-36,-39,-26
1491087307741,3,-6,0,13,-55,-25,15,29,-26
1491087307741,3,-1,-8,-40,32,-13,-77,-45,29
1491087307776,0,10,3,11,54,-19,63,-8,7
1491087307776,0,-8,-3,17,19,84,-8,-9,-28
1491087307777,1,19,13,41,48,67,81,50,17
1491087307777,1,-9,1,-3,-84,-86,-69,12,-28
1491087307777,3,11,9,-12,-44,10,-126,69,60
1491087307777,3,0,7,44,3,55,73,-2,-28
1491087307779,0,-7,4,29,8,26,78,52,-7
1491087307779,0,10,9,-2,62,-80,-115,-92,-7
1491087307814,1,-9,0,3,-21,69,-35,61,5
1491087307814,1,1,-13,-24,2,-77,26,-17,-8
1491087307814,2,19,5,1,49,-10,-63,-6,43
1491087307814,2,-20,-15,2,-86,-89,82,30,-44
1491087307851,3,-6,-1,-42,52,-17,-40,-81,6
1491087307851,3,2,8,18,27,69,-44,0,25
1491087307852,0,-2,2,5,-62,-26,97,28,-19
1491087307852,0,4,5,10,-1,0,-74,-30,30
1491087307853,1,2,-3,8,-35,-31,43,36,-28
1491087307853,1,-16,-10,-7,69,90,99,26,-1
1491087307854,2,12,11,36,79,55,14,-2,2
1491087307854,2,-6,-4,-27,-40,-48,-11,44,19
1491087307889,3,-3,-5,-18,-58,-128,9,-24,-31
1491087307889,3,-7,-6,21,56,114,127,9,-22
1491087307926,0,3,5,6,-63,-22,-80,15,3
1491087307926,0,-10,-15,-65,7,-95,-50,2,34
1491087307928,1,12,6,45,61,52,78,-86,-5
1491087307928,1,-2,-5,-12,-114,-60,24,82,-14
1491087307929,2,-8,-7,-35,53,1,-101,6,12
1491087307929,2,13,11,26,-22,55,82,3,-8
1491087307930,3,-20,-20,-39,15,-79,27,-25,9
1491087307930,3,6,8,44,57,-3,-40,-44,-25
1491087307964,0,-7,-11,1,-39,67,-4,3,-3
1491087307964,0,12,12,26,-17,2,-89,-1,4
1491087307965,2,-2,-5,-33,-70,-21,-98,-72,-25
1491087307965,2,5,13,80,86,127,127,34,-25
1491087307965,3,3,-6,15,-107,20,62,77,17
1491087307965,3,-13,-8,-61,-1,-128,-128,-99,-6
1491087307966,1,6,3,53,-35,-22,78,51,-22
1491087307966,1,2,-1,-23,-13,116,-75,35,15
1491087308001,2,-8,-4,-12,21,-47,-43,-34,3
1491087308001,2,2,0,-13,-6,3,14,3,4
1491087308002,3,-5,6,-13,51,-23,-54,-8,10
1491087308002,3,3,17,44,-39,14,35,18,-2
1491087308003,1,8,0,9,43,56,-72,2,21
1491087308003,1,3,-2,15,11,-67,73,72,-12
1491087308004,2,3,1,-11,-48,-27,-72,-31,13
1491087308004,2,-14,-14,0,-9,53,87,68,-29
1491087308039,3,-9,-14,-39,-12,-128,-80,-70,-8
1491087308039,3,-9,-17,-38,12,-34,-3,-44,6
1491087308040,0,6,1,38,37,79,108,61,-9
1491087308040,0,-4,-8,-5,-4,30,3,23,1
1491087308041,1,-10,-11,22,28,45,17,-3,-25
1491087308041,1,12,13,12,-9,-5,-22,13,16
1491087308041,2,-3,-8,-12,6,-11,-9,-23,9
1491087308041,2,-3,-2,1,-21,-31,-58,-16,-9
1491087308076,3,-4,-2,3,20,51,44,8,-15
1491087308076,3,0,-5,-11,-28,-36,27,49,14
1491087308077,0,-5,-4,-14,-19,4,-66,-32,-12
1491087308077,0,-3,7,8,-32,-40,4,2,-9
1491087308078,1,-6,-7,-26,-30,9,10,-20,0
1491087308078,1,1,-1,-10,18,15,-8,7,16
1491087308079,2,5,8,31,45,96,87,76,6
1491087308079,2,-5,-2,-29,-43,-127,-126,-64,-1
1491087308114,3,3,6,3,-13,-12,85,-31,4
1491087308114,3,5,6,11,-31,5,-11,30,-12
1491087308115,0,-6,-3,2,22,14,46,10,-18
1491087308115,0,-4,-11,17,12,74,37,20,-4
1491087308115,1,6,-8,-19,16,-41,-41,-9,20
1491087308115,1,0,-12,-11,-17,-32,-48,-44,12
1491087308116,2,0,-15,-6,-5,-17,7,-40,-15
1491087308116,2,-1,-8,2,-3,9,47,51,-5
1491087308151,3,-4,11,9,42,32,-29,-2,-5
1491087308151,3,-2,6,14,-9,69,50,26,-16
1491087308152,0,-5,3,-33,-27,-50,-43,-25,8
1491087308152,0,-1,4,-16,0,-55,-59,-21,22
1491087308152,1,-3,6,25,-12,19,-2,27,-20
1491087308152,1,-1,-13,-27,26,-4,22,-50,11
1491087308154,2,5,2,12,26,-10,-18,30,10
1491087308154,2,12,0,5,-9,37,37,-15,-14
1491087308189,3,-11,0,0,26,-1,-35,-8,15
1491087308189,3,0,-1,16,-27,21,28,24,-18
1491087308190,0,4,3,-17,-20,-6,5,-51,-4
1491087308190,0,-5,-3,-17,-25,-20,-21,2,-16
1491087308191,1,5,-22,-14,-36,-28,2,6,-11
1491087308191,1,4,-11,12,8,2,-27,-48,3
1491087308226,2,14,-15,14,20,64,54,28,-2
1491087308226,2,-4,-24,-43,-5,-39,2,24,12
1491087308301,3,-11,4,-2,-37,-33,-22,-67,-17
1491087308301,3,-3,13,-1,-16,-35,-28,-3,-7
1491087308302,0,1,-5,14,26,6,-20,5,1
1491087308302,0,-1,11,6,6,37,65,-3,-1
1491087308376,1,-14,-14,-7,9,-14,-91,-1,-6
1491087308376,1,3,12,-16,-8,-12,9,6,8
1491087308377,2,-4,11,32,-14,0,-28,5,-20
1491087308377,2,-6,-17,16,2,32,27,9,-13
1491087308377,3,-4,-33,-44,-3,-30,28,1,11
1491087308377,3,2,-19,14,-1,-1,-29,9,5
1491087308379,0,2,-13,-13,-29,-15,5,13,-18
1491087308379,0,-6,4,-5,14,-7,-19,-22,-3
1491087308414,1,9,-1,-8,11,-6,0,1,-1
1491087308414,1,-3,7,2,-14,-10,-4,15,-14
1491087308415,3,-11,3,-14,-8,-38,4,-9,-5
1491087308415,3,-9,0,-7,7,1,19,4,-1
1491087308415,0,-15,3,8,1,11,7,3,-1
1491087308415,0,-17,-6,-14,-11,-20,-49,-9,0
1491087308416,2,18,-33,1,12,-27,39,-15,1
1491087308416,2,3,-28,12,8,5,-72,3,-3
1491087308451,3,-4,-23,-10,-7,-11,-22,-21,2
1491087308451,3,10,-25,2,6,20,20,10,1
1491087308452,0,-14,-33,-7,6,38,51,17,-1
1491087308452,0,-12,-39,-24,-17,-52,-37,-43,-12
1491087308453,2,0,-18,-6,-15,-45,-5,-9,4
1491087308453,2,-7,-20,-8,27,56,35,45,6
1491087308454,3,-9,-11,-20,-32,-62,-2,-25,2
1491087308454,3,-7,-12,7,0,82,-2,5,-11
1491087308526,0,5,14,18,-15,-4,53,7,5
1491087308526,0,3,0,0,-14,-7,-17,2,2
1491087308527,1,2,7,-16,30,57,70,31,-5
1491087308527,1,-4,14,19,9,6,-39,-50,9
1491087308528,2,15,5,-20,35,-97,-75,-31,13
1491087308528,2,14,-11,87,30,45,62,23,-8
1491087308529,3,-22,-42,-101,-81,-128,-82,-24,-5
1491087308529,3,-8,-33,17,0,23,104,-1,3
1491087308564,0,-2,-55,-40,26,50,-12,-2,7
1491087308564,0,10,-28,-3,-22,-66,-49,-50,-2
1491087308565,1,24,-22,47,23,58,108,50,6
1491087308565,1,-8,-24,5,18,24,32,27,3
1491087308566,2,9,-14,6,4,40,20,-10,-8
1491087308566,2,0,-12,-6,17,24,45,26,8
1491087308568,1,8,-15,-14,19,-33,-35,-37,6
1491087308568,1,2,-11,16,37,25,88,42,-2
1491087308601,2,-27,-27,-40,-31,15,38,4,-21
1491087308601,2,12,23,-8,-24,-41,-103,-54,18
1491087308602,3,-3,6,22,-25,-9,41,14,-11
1491087308602,3,0,14,-17,28,-22,-3,-42,-9
1491087308603,1,-11,15,-8,-22,-47,-57,-14,-1
1491087308603,1,18,14,-15,13,-18,-82,33,19
1491087308604,2,7,16,-12,-12,-6,41,-1,-3
1491087308604,2,-13,24,1,28,-8,11,-3,-3
1491087308639,3,23,24,35,12,34,-17,-2,29
1491087308639,3,-4,5,-28,-30,0,-4,-2,-17
1491087308640,0,-15,15,7,-13,-77,-37,37,9
1491087308640,0,14,13,-43,26,-18,-20,9,7
1491087308641,1,-14,18,17,31,-7,-3,-6,-21
1491087308641,1,-10,7,5,-28,61,50,-21,-21
1491087308641,2,18,15,10,16,16,-80,-8,11
1491087308641,2,-6,16,-29,-43,-43,21,15,-3
1491087308676,3,-21,14,25,32,47,-31,-5,4
1491087308676,3,-12,-8,-10,19,40,91,20,-16
1491087308677,0,28,25,25,20,-29,-104,-33,37
1491087308677,0,3,-6,-6,-4,-5,124,31,7
1491087308678,1,2,6,7,7,-19,27,-13,-16
1491087308678,1,-8,-5,3,-18,-25,7,-2,0
1491087308679,2,-10,-8,7,27,65,-2,-18,4
1491087308679,2,-2,-3,-8,-30,-51,-36,-6,-8
1491087308714,3,8,-6,-33,8,-31,-60,-13,9
1491087308714,3,3,4,40,11,32,-11,-6,10
1491087308715,0,-12,-6,-31,-33,-21,-1,13,-22
1491087308715,0,4,1,-6,-24,18,-16,2,1
1491087308716,1,4,-4,21,8,33,127,60,-6
1491087308716,1,3,-2,-38,-4,-46,-128,-34,24
1491087308717,2,7,-3,13,17,26,-30,-34,8
1491087308717,2,-7,-6,5,-69,-9,41,14,-25
1491087308751,3,16,-2,-16,20,-6,27,-29,7
1491087308751,3,4,-1,-1,-22,-42,-87,5,-25
1491087308752,0,-36,-13,4,-21,56,43,-8,-13
1491087308752,0,-3,-7,-7,5,-42,-27,1,13
1491087308753,1,2,2,-11,67,3,8,-10,0
1491087308753,1,-12,5,23,-19,-46,35,14,-8
1491087308754,2,-19,-19,-29,1,-48,-50,41,-9
1491087308754,2,11,1,-4,1,13,-46,-24,-8
1491087308789,3,-15,0,-1,-36,-39,-11,-34,-9
1491087308789,3,20,-4,-2,11,41,74,5,27
1491087308790,0,9,3,27,9,18,-8,11,-1
1491087308790,0,-11,-15,-14,34,34,-5,-21,6
1491087308791,1,16,-1,-2,-48,-93,24,11,-4
1491087308791,1,-26,-3,13,58,51,-25,1,-19
1491087308792,2,4,-1,-25,-68,-31,61,-9,-8
1491087308792,2,-13,-5,-8,17,3,-18,-38,-20
1491087308826,3,10,-2,9,-44,43,-4,70,17
1491087308826,3,-21,-17,-29,10,-79,-56,-87,-20
1491087308828,0,-12,0,41,48,42,46,13,-4
1491087308828,0,1,7,8,1,-7,6,19,0
1491087308830,1,38,3,-25,-8,-80,-91,-27,29
1491087308830,1,1,-7,-7,-20,65,88,30,0
1491087308831,2,-6,-1,-8,-1,-60,-25,4,13
1491087308831,2,-4,-5,3,-5,16,7,-19,-20
1491087308864,3,1,-2,13,12,42,40,27,-14
1491087308864,3,3,-1,6,-56,-50,42,9,17
1491087308865,0,21,2,-2,58,103,-18,-24,35
1491087308865,0,-21,-13,-6,-11,-15,73,38,-11
1491087308866,1,-23,-3,-8,4,2,35,-37,-26
1491087308866,1,-10,5,1,12,-6,-40,0,-3
1491087308867,2,1,3,1,-31,-13,72,30,-15
1491087308867,2,6,-6,-19,-1,-16,-87,-32,16
1491087308901,3,-21,15,11,-14,40,-6,30,-7
1491087308901,3,24,-5,-11,17,-14,-20,-27,13
1491087308902,0,1,6,12,9,-23,8,59,1
1491087308902,0,12,-1,-8,-1,37,19,-1,2
1491087308903,1,-24,-22,-9,39,27,56,-17,-29
1491087308903,1,-20,4,-14,-99,-79,-72,-62,-15
1491087308904,2,21,-2,-13,-4,8,81,4,2
1491087308904,2,-14,-10,-11,-46,-65,33,8,-20
1491087308939,3,-10,-2,30,48,118,123,-29,-21
1491087308939,3,31,7,15,102,-10,-86,16,42
1491087308941,0,1,-3,-4,-10,-19,62,12,-6
1491087308941,0,-19,0,-8,-8,17,32,-20,5
1491087308942,1,-7,-19,-22,-39,-53,89,15,3
1491087308942,1,-15,-3,-3,-26,11,-72,-40,-10
1491087308976,2,14,6,11,-7,32,1,-32,-22
1491087308976,2,9,9,26,2,38,54,75,7
1491087308977,3,15,-7,-10,-3,-56,-74,-7,15
1491087308977,3,2,-6,-24,-1,-23,-1,-13,-10
1491087308978,0,8,16,34,54,17,-26,1,8
1491087308978,0,10,-2,-3,-25,18,-3,-26,12
1491087308979,1,26,3,4,1,8,22,-3,-6
1491087308979,1,-20,6,15,3,35,49,34,1
1491087309014,2,-11,-17,-39,-10,-54,-83,-45,-6
1491087309014,2,21,25,33,63,72,109,22,-4
1491087309015,3,-15,-13,-23,-54,-110,-78,5,4
1491087309015,3,27,5,8,9,117,13,3,-6
1491087309016,0,-25,-5,4,-40,-114,-29,-32,3
1491087309016,0,14,-4,-21,-4,-18,-32,13,10
1491087309017,1,-17,-6,-11,2,3,-28,-16,-8
1491087309017,1,15,5,-1,2,46,70,-5,-1
1491087309052,2,-5,-7,-5,11,5,-21,35,-10
1491087309052,2,-10,7,36,32,35,28,19,5
1491087309053,3,18,-2,-12,-39,6,-50,-23,3
1491087309053,3,-9,-12,-41,-15,-66,30,58,8
1491087309054,0,-18,-4,8,9,25,0,-29,-9
1491087309054,0,-6,-2,14,24,-29,-45,-33,2
1491087309089,1,-14,10,5,-22,33,47,49,-17
1491087309089,1,-5,-2,7,-10,-45,-57,-10,-7
1491087309091,2,-17,-11,-8,-8,27,24,7,-8
1491087309091,2,0,-7,-11,-4,-4,29,-16,-2
1491087309092,3,6,-1,-10,1,-29,-69,-28,9
1491087309092,3,-6,5,-7,-28,-31,4,53,-13
1491087309097,0,4,1,14,13,8,33,-60,-10
1491087309097,0,16,1,6,1,6,-13,31,-2
1491087309126,1,-31,0,-12,-25,17,-6,28,2
1491087309126,1,-17,6,11,18,87,75,22,-18
1491087309127,2,26,-1,-10,5,-81,-72,-50,9
1491087309127,2,-18,7,-13,-19,-40,-47,-31,-1
1491087309128,3,4,1,5,-3,21,25,45,-15
1491087309128,3,-19,-16,4,18,-1,54,38,21
1491087309129,0,-13,8,12,1,45,-9,-65,-35
1491087309129,0,37,-10,-11,-4,-3,-36,11,6
1491087309164,1,2,2,3,17,-19,-11,0,15
1491087309164,1,19,-4,6,15,10,7,-4,12
1491087309165,2,-13,-1,3,-23,-15,28,45,-4
1491087309165,2,-4,-4,-25,-32,-66,-27,-30,3
1491087309165,3,-4,-17,-15,-13,-20,-6,-35,8
1491087309165,3,9,20,24,15,17,-4,-13,16
1491087309166,0,-7,-9,-37,-16,26,-27,45,-13
1491087309166,0,-26,-6,21,-4,15,-19,-4,-17
1491087309201,1,-5,8,33,47,29,36,-13,-8
1491087309201,1,8,-7,-13,-13,7,-32,2,-12
1491087309239,2,-3,-12,-14,-2,24,78,1,22
1491087309239,2,3,-4,-2,-21,12,17,50,9
1491087309240,3,34,8,-32,-18,-93,-54,-63,-9
1491087309240,3,-12,-1,3,26,-28,30,-77,-18
1491087309240,0,-6,-2,-6,-17,19,-62,73,33
1491087309240,0,10,-3,-8,5,-9,37,-58,-13
1491087309241,1,5,1,17,18,32,-40,17,19
1491087309241,1,-18,-17,-3,-10,46,85,-3,-47
1491087309277,2,16,23,22,5,-25,-102,-88,27
1491087309277,2,-44,-17,-25,8,-5,31,67,-26
1491087309278,3,-2,0,1,-17,5,6,-30,-7
1491087309278,3,-4,-7,-3,-34,-7,-11,33,-12
1491087309279,0,-14,1,17,58,17,60,34,4
1491087309279,0,-1,-3,-8,-29,-25,-1,-46,17
1491087309280,1,-18,-4,-4,-9,-17,-49,59,-9
1491087309280,1,-11,4,-2,-14,-21,-44,-67,17
1491087309351,2,4,-11,0,21,8,37,-4,-20
1491087309351,2,16,10,25,17,56,5,21,-9
1491087309353,3,-22,-3,-3,9,0,76,-13,-3
1491087309353,3,-1,-15,-33,-4,-60,-95,-11,40
1491087309353,0,24,10,6,-13,8,69,20,-12
1491087309353,0,-47,-11,-8,27,62,54,18,-24
1491087309354,1,-3,-1,29,-13,5,-33,-3,-13
1491087309354,1,-4,-7,-3,48,-40,21,1,10
1491087309389,2,0,-10,-36,-35,-21,-85,-63,14
1491087309389,2,27,10,6,-15,-58,-10,-6,5
1491087309390,3,-30,-6,11,0,71,80,88,-12
1491087309390,3,16,13,3,-12,27,1,6,-12
1491087309393,0,-31,-27,-36,-77,-94,-16,-37,-18
1491087309393,0,26,19,12,17,-22,-70,-51,34
1491087309393,1,-10,-17,-23,-40,17,4,-48,-29
1491087309393,1,-2,8,-9,22,11,50,53,13
1491087309426,2,-8,6,24,12,25,-37,47,6
1491087309426,2,-2,-6,2,-46,12,25,27,2
1491087309427,3,16,12,9,82,-5,-71,-24,25
1491087309427,3,5,0,24,-27,6,82,18,-27
1491087309428,0,-7,6,-14,-9,-99,-124,-20,34
1491087309428,0,-24,-26,-50,-3,32,109,-50,-29
1491087309439,1,12,-4,5,-22,33,-88,42,26
1491087309439,1,-13,8,13,5,30,84,59,-14
1491087309464,2,26,7,41,33,89,68,-19,-51
1491087309464,2,-26,-22,-63,-75,-43,-56,-96,-2
1491087309465,3,-14,1,9,-1,-1,-28,-3,9
1491087309465,3,45,3,-29,-49,-67,-106,-21,4
1491087309465,0,-4,3,-8,-20,-108,35,71,15
1491087309465,0,-12,5,35,36,112,6,-11,-13
1491087309466,1,29,-7,-5,15,0,53,17,2
1491087309466,1,-3,12,19,17,11,-39,-6,15
1491087309501,2,20,5,49,26,-32,112,-31,-5
1491087309501,2,7,1,-15,1,-18,-46,30,21
1491087309502,3,-12,-2,-13,6,-27,-1,52,11
1491087309502,3,-30,-20,-39,-120,-87,13,5,-54
1491087309503,0,26,15,-25,46,101,-78,13,37
1491087309503,0,-46,-10,-10,77,-85,-22,-38,21
1491087309504,1,-13,-3,0,6,78,94,8,19
1491087309504,1,5,-4,41,15,37,0,-35,-5
1491087309539,2,-4,-19,-39,-74,19,19,13,-21
1491087309539,2,24,12,29,-5,23,8,44,-20
1491087309540,3,-20,8,76,77,98,26,-29,-14
1491087309540,3,-13,0,-55,-71,-89,-87,51,8
1491087309540,0,-39,-38,-96,-58,-90,99,-45,-6
1491087309540,0,24,16,34,50,46,-107,-38,10
1491087309541,1,8,-10,-11,2,22,121,35,-7
1491087309541,1,17,28,63,45,127,64,2,-18
1491087309576,2,-7,0,26,-13,-76,50,22,-3
1491087309576,2,-22,-6,-46,31,-23,-100,-59,-2
1491087309577,3,26,9,20,-29,-27,82,23,4
1491087309577,3,-17,-8,8,47,-41,-30,44,14
1491087309578,0,-10,-12,-44,-50,-62,-74,-46,-11
1491087309578,0,9,9,68,73,48,127,41,-7
1491087309579,1,-19,-16,-48,-111,-128,-128,-77,-40
1491087309579,1,-27,-22,-87,-13,-21,22,-71,22
1491087309651,2,10,10,36,75,90,-9,98,67
1491087309651,2,19,11,21,-31,31,70,2,-38
1491087309652,3,4,7,49,52,41,66,66,-16
1491087309652,3,16,-7,-3,-42,85,37,56,28
1491087309653,0,-7,-11,-27,80,86,-55,-92,-52
1491087309653,0,-22,-4,-23,-15,-110,-88,34,4
1491087309654,1,19,-5,-31,-23,-30,41,-16,14
1491087309654,1,-3,1,55,51,67,96,72,-6
1491087309689,2,-7,-1,-15,-66,29,-92,-55,-20
1491087309689,2,16,-8,-12,-1,85,103,69,-8
1491087309726,3,-11,5,-23,-23,-128,21,-63,8
1491087309726,3,-14,-4,-7,8,-64,-52,-45,-16
1491087309727,0,15,16,68,-78,-22,62,81,-12
1491087309727,0,-11,-15,-90,63,-115,-90,-88,17
1491087309728,1,-15,-16,-7,23,127,13,5,0
1491087309728,1,15,17,4,4,-111,-128,-54,2
1491087309729,2,-6,15,20,26,79,-10,-14,2
1491087309729,2,24,11,116,-91,-60,84,88,-14
1491087309764,3,-14,-26,-104,13,-15,-119,-45,2
1491087309764,3,-11,-14,-22,20,-70,-9,-39,8
1491087309765,1,5,12,23,-28,-61,-63,-2,-21
1491087309765,1,-8,-14,4,-39,-5,-51,-72,-30
1491087309802,2,-3,3,29,100,63,125,59,-9
1491087309802,2,9,-4,7,-80,-33,-75,85,-1
1491087309803,1,-6,-8,-31,-84,-54,-89,31,0
1491087309803,1,-13,-12,-10,-13,-23,27,-97,-28
1491087309804,2,22,25,49,-31,-59,-72,80,37
1491087309804,2,-19,-22,-30,-2,10,-33,14,-5
1491087309804,3,8,1,12,114,35,63,-6,34
1491087309804,3,14,13,100,11,13,-73,41,-19
1491087309839,1,11,8,5,-83,126,49,43,-6
1491087309839,1,2,2,33,-76,2,-21,55,19
1491087309840,2,-14,-7,34,73,-21,104,82,-31
1491087309840,2,-32,-31,-128,16,-115,-128,-111,-3
1491087309840,3,17,12,1,-48,-9,16,22,19
1491087309840,3,18,15,63,104,22,127,13,2
1491087309842,0,-12,-23,19,-37,127,-76,36,-26
1491087309842,0,7,15,12,-6,-28,95,13,20
1491087309876,1,-8,4,27,-16,-128,-81,12,-8
1491087309876,1,16,15,-49,-61,-89,-78,-88,18
1491087309878,2,0,-4,5,81,-12,117,26,9
1491087309878,2,5,25,34,32,64,69,29,-5
1491087309878,0,11,26,41,120,83,39,6,3
1491087309878,0,-20,-26,-128,-128,-112,-112,-116,3
1491087309879,1,20,11,21,-32,-57,127,49,-10
1491087309879,1,-10,0,9,39,82,54,36,-23
1491087309914,2,-9,-30,-18,-39,54,50,22,-19
1491087309914,2,19,41,73,20,55,0,15,16
1491087309915,3,2,6,42,76,62,24,-27,4
1491087309915,3,-4,-10,-53,19,-47,-118,-31,-8
1491087309915,0,-6,-14,-10,-32,21,41,18,7
1491087309915,0,23,29,35,48,31,-43,-46,23
1491087309916,1,-11,-16,9,-28,28,-15,26,-19
1491087309916,1,4,9,19,-58,-27,127,58,-3
1491087309951,2,-24,-18,-111,-9,-110,-120,-117,8
1491087309951,2,-10,-31,-10,-14,19,90,36,-14
1491087309952,3,3,-1,4,9,2,43,-33,-3
1491087309952,3,1,-3,-24,11,73,-1,-11,7
1491087309953,0,21,29,69,18,40,17,-15,11
1491087309953,0,-10,-7,-2,-24,50,59,56,-25
1491087309954,1,6,-7,-33,0,-42,-37,-13,41
1491087309954,1,30,1,-29,-12,-78,49,-9,-17
1491087309989,2,24,13,101,69,53,95,72,4
1491087309989,2,5,0,-84,-64,-112,-108,-51,2
1491087309990,3,-20,-23,-4,5,-39,41,13,-1
1491087309990,3,23,-4,-10,-18,-6,-59,-21,-5
1491087309990,0,11,0,2,-22,14,-28,-17,3
1491087309990,0,13,-21,49,32,86,64,66,7
1491087309991,1,-16,-32,0,-7,0,-67,-26,-22
1491087309991,1,-19,-24,-17,19,15,-42,-45,7
1491087310026,2,-3,-19,-14,-36,18,58,7,-14
1491087310026,2,-13,-6,5,14,-77,-87,-18,0
1491087310027,3,2,-5,-10,-10,-10,52,8,-20
1491087310027,3,3,-2,-9,-6,-25,-17,2,0
1491087310028,0,-9,-12,-14,-25,-3,2,-19,1
1491087310028,0,-35,-7,10,-32,49,46,31,-26
1491087310029,1,3,-9,5,16,-37,-58,-26,9
1491087310029,1,-20,-10,3,8,56,18,19,7
1491087310101,2,-28,-32,-38,-32,-85,-17,0,-12
1491087310101,2,5,17,29,9,-32,-94,-64,-3
1491087310102,3,-11,10,3,10,14,-32,6,-15
1491087310102,3,-21,8,12,4,22,-2,13,0
1491087310103,0,-11,14,-19,-6,7,34,-16,-4
1491087310103,0,10,19,-11,-27,-39,-48,22,3
1491087310104,1,-8,13,24,26,50,61,15,-9
1491087310104,1,-15,19,-24,3,-53,-51,-54,11
1491087310176,2,7,5,-5,9,-18,1,-9,-10
1491087310176,2,-22,-13,9,-13,12,43,29,-8
1491087310178,3,20,17,-14,8,17,0,-11,10
1491087310178,3,-14,27,-16,-22,-51,6,-6,10
1491087310179,2,0,36,21,-16,2,11,-15,6
1491087310179,2,-8,-22,-11,27,21,41,33,-19
1491087310180,3,-11,44,50,28,4,-64,3,1
1491087310180,3,9,31,3,-4,-9,11,6,-3
1491087310214,0,-1,31,11,-14,4,36,0,-2
1491087310214,0,-14,30,-4,-19,-41,-29,-59,-13
1491087310215,1,-8,7,29,39,81,55,50,-1
1491087310215,1,14,-1,-52,-1,-84,53,20,7
1491087310216,2,-3,-23,-19,-14,-85,-128,-77,-12
1491087310216,2,19,14,-17,0,80,127,-2,8
1491087310216,2,27,16,-7,0,-82,-78,-49,25
1491087310216,2,16,7,18,-15,-8,127,34,24
1491087310251,3,-10,-18,-20,27,-29,59,-16,9
1491087310251,3,-1,-5,-10,-25,-10,31,-10,-16
1491087310253,0,-14,-22,21,14,75,113,34,-8
1491087310253,0,-7,5,11,-17,-56,-90,-1,-9
1491087310254,2,-9,2,27,-19,25,22,6,-2
1491087310254,2,-6,-44,-23,19,46,-5,18,-11
1491087310255,3,8,-14,25,26,66,127,45,4
1491087310255,3,-12,-38,-31,4,-51,-128,-78,10
1491087310289,0,3,-14,28,-3,-2,60,31,4
1491087310289,0,-12,-35,-1,15,6,-34,-9,-9
1491087310290,1,-6,-29,3,-24,-23,-53,11,-18
1491087310290,1,4,-29,-9,10,15,38,-4,4
1491087310291,2,0,5,-24,14,-16,-18,-5,3
1491087310291,2,6,12,9,33,44,127,9,17
1491087310292,3,-8,5,-7,-27,5,-87,-44,-2
1491087310292,3,-6,10,17,14,-76,9,16,0
1491087310326,0,-17,-8,-23,-23,21,-32,12,-16
1491087310326,0,7,-16,15,13,33,42,10,10
1491087310328,1,1,-6,3,9,39,20,18,1
1491087310328,1,5,-13,22,-19,51,103,18,-7
1491087310329,2,-7,-6,-23,2,-67,-42,-28,-4
1491087310329,2,-15,-19,-6,-41,92,75,17,-12
1491087310330,3,-6,2,-27,10,-111,-39,-58,4
1491087310330,3,40,4,-23,-7,-10,-67,-24,14
1491087310364,0,2,18,26,-13,44,65,35,-9
1491087310364,0,-1,18,23,9,1,-124,-27,5
1491087310366,1,17,23,53,13,61,77,21,1
1491087310366,1,-25,10,-12,-20,-4,86,25,12
1491087310367,2,1,4,-7,14,-53,-20,12,-6
1491087310367,2,3,7,-38,-31,-43,12,-22,1
1491087310369,3,-7,10,-7,7,-4,-39,-19,-5
1491087310369,3,4,21,22,-10,14,23,32,-10
1491087310401,0,16,17,16,7,114,112,37,4
1491087310401,0,13,13,-18,-15,-78,-43,-7,1
1491087310403,1,-16,1,-34,-8,-57,58,14,-22
1491087310403,1,-17,9,28,49,84,53,-31,9
1491087310404,2,-4,-10,-29,-52,-98,-89,-46,-17
1491087310404,2,2,8,16,30,-24,106,-23,-3
1491087310405,3,0,8,1,8,31,-62,-13,30
1491087310405,3,1,4,-8,-28,-4,-60,64,-8
1491087310439,0,24,12,35,38,94,40,-20,3
1491087310439,0,-16,-10,-21,-38,2,-39,28,-14
1491087310441,1,6,-4,-2,-49,-49,15,23,-12
1491087310441,1,-15,-8,-29,59,-23,23,-23,7
1491087310442,2,6,2,29,41,11,-57,-36,2
1491087310442,2,-2,-1,-22,-9,21,19,14,-1
1491087310443,3,0,-3,-4,-7,13,-61,-25,-1
1491087310443,3,-5,-4,29,-5,1,11,-9,-7
1491087310514,0,-23,-11,-44,-21,0,-1,-20,-1
1491087310514,0,-8,4,24,37,12,50,19,-3
1491087310516,1,1,-12,-4,-37,61,68,80,-31
1491087310516,1,17,6,-29,19,-96,-128,-84,5
1491087310517,2,-11,-17,-25,-35,-38,33,53,9
1491087310517,2,-6,0,5,-5,-33,-4,-10,-14
1491087310519,3,-3,4,27,62,115,127,-13,11
1491087310519,3,6,1,4,-51,-10,-118,27,-9
1491087310589,0,-1,0,-41,11,-33,39,-29,5
1491087310589,0,13,2,32,32,-22,-35,-34,5
1491087310591,1,-5,-7,-32,-13,1,-8,-32,-23
1491087310591,1,-8,-8,4,-2,37,62,58,6
1491087310592,2,-15,-4,10,-19,-5,-59,-13,-20
1491087310592,2,-5,-14,-29,19,-45,-31,-12,7
1491087310594,3,20,-17,-15,11,-16,84,45,5
1491087310594,3,-9,8,15,-7,7,-70,-10,-8
1491087310664,0,25,0,-9,-13,28,-21,40,4
1491087310664,0,-8,0,8,5,-7,94,11,-7
1491087310666,1,-17,8,2,26,-12,-110,-84,3
1491087310666,1,-5,-5,9,-73,-18,45,15,-20
1491087310667,3,-4,-17,-19,-3,24,48,34,-4
1491087310667,3,-13,-1,-16,0,27,32,35,-18
1491087310669,0,-8,0,30,32,-26,-30,-43,-14
1491087310669,0,5,-13,-32,-28,16,3,36,12
1491087310702,1,-5,3,15,7,-45,-20,29,12
1491087310702,1,4,5,6,6,87,8,-5,-10
1491087310704,2,-3,-8,-6,12,23,25,-29,4
1491087310704,2,-2,6,-10,-45,-83,-85,-17,-11
1491087310705,3,8,-4,-9,7,-20,-5,-22,-7
1491087310705,3,1,-11,4,34,-16,13,-21,-5
1491087310814,2,-7,-13,-12,-27,13,-29,-12,1
1491087310814,2,4,18,28,19,39,19,19,18
1491087310816,3,12,5,43,0,74,-26,37,-13
1491087310816,3,-21,-16,-2,14,24,15,11,-10
1491087310817,0,2,-10,1,12,-22,10,-64,2
1491087310817,0,15,-1,-24,-52,-60,-63,19,3
1491087310852,2,-1,5,3,54,96,77,0,-10
1491087310852,2,-16,0,-32,25,19,24,4,14
1491087310926,3,22,-3,-15,-43,-100,-96,-101,-17
1491087310926,3,4,14,-3,34,76,119,48,-10
1491087311002,0,31,17,27,-34,-61,-26,24,38
1491087311002,0,0,-21,12,6,31,-5,-4,-20
1491087311004,1,-9,7,19,28,17,43,42,-5
1491087311004,1,-12,-22,-59,-64,25,-4,-4,-10
1491087311005,1,-4,-12,-45,-54,-30,-16,-77,-27
1491087311005,1,34,9,62,73,2,-47,1,34
1491087311006,2,-22,-28,-63,22,56,53,35,-1
1491087311006,2,-10,15,6,-19,-90,117,25,-5
1491087311077,3,9,-4,-62,-36,-16,-106,48,22
1491087311077,3,-12,19,40,-34,36,-38,-46,-36
1491087311079,1,0,-16,-16,14,68,82,45,-4
1491087311079,1,-23,-3,13,-1,-13,3,34,-8
1491087311080,1,8,18,68,8,96,56,-21,-2
1491087311080,1,-20,-23,-41,26,13,-64,-46,-14
1491087311081,0,-44,-22,-73,-41,-59,-67,-33,-29
1491087311081,0,22,5,36,10,16,39,5,18
1491087311114,1,-46,-25,-4,-13,-3,39,20,-36
1491087311114,1,-5,7,-7,-62,-26,-41,77,-3
1491087311116,2,27,2,4,115,8,-103,-48,26
1491087311116,2,-28,3,29,5,74,23,-67,1
1491087311117,0,-18,7,-6,-65,-19,33,80,-6
1491087311117,0,16,-2,21,49,69,38,30,-13
1491087311119,3,-22,9,46,64,93,90,16,-24
1491087311119,3,14,-2,1,5,-32,-15,17,-1
1491087311151,0,-53,-4,4,-20,29,-76,-35,-3
1491087311151,0,21,-8,-23,-41,-40,104,38,23
1491087311189,1,-12,-1,6,15,-14,25,-6,6
1491087311189,1,47,11,21,16,-4,43,33,17
1491087311191,3,-55,-30,-52,-19,-83,-93,-48,-11
1491087311191,3,2,6,13,48,42,70,-7,7
1491087311193,0,-6,-6,18,-47,16,-23,9,-41
1491087311193,0,-8,-21,-62,22,18,83,25,3
1491087311194,1,37,27,51,44,20,-75,-37,27
1491087311194,1,-45,-23,-28,-60,-57,82,17,-15
1491087311264,2,10,-3,-6,69,17,-29,-46,36
1491087311264,2,4,2,3,-124,-44,6,-6,-18
1491087311265,3,5,1,-43,-25,21,74,38,-16
1491087311265,3,2,-2,1,54,102,64,-23,12
1491087311301,3,-5,-5,-3,-3,63,67,75,-38
1491087311301,3,5,17,19,-4,-7,-112,30,25
1491087311302,0,40,11,13,5,18,127,-46,-1
1491087311302,0,-20,-17,-4,29,-5,-83,-16,-10
1491087311303,1,-3,-2,-30,-28,-44,-52,-59,-16
1491087311303,1,-5,2,20,-49,65,-55,-20,7
1491087311304,2,-11,-13,-39,29,-63,77,57,-11
1491087311304,2,-4,10,9,45,43,-19,2,36
1491087311339,2,20,0,-7,-59,-100,-43,26,14
1491087311339,2,-4,-3,35,20,17,9,-23,-21
1491087311339,3,3,-11,-8,41,32,-44,-48,2
1491087311339,3,-10,0,-20,-34,-64,-40,-41,-18
1491087311340,0,4,-3,-13,37,-24,89,6,25
1491087311340,0,11,17,5,22,24,-126,20,53
1491087311341,2,-14,-21,-51,-122,-43,35,54,-58
1491087311341,2,-26,5,0,-40,-108,-90,-83,2
1491087311376,3,26,8,36,67,89,111,44,13
1491087311376,3,-19,-9,-1,-21,-106,-128,-32,-28
1491087311377,0,-2,-12,-12,82,55,121,-45,3
1491087311377,0,4,-1,-33,-31,-60,-118,-46,55
1491087311377,2,4,25,68,33,124,73,85,-3
1491087311377,2,-11,8,42,-54,-85,-50,15,1
1491087311379,3,-23,-33,-68,-111,-95,-52,-48,-29
1491087311379,3,-13,-12,-52,15,-94,-65,-10,-13
1491087311414,0,-31,-19,-43,12,-19,-80,-34,-18
1491087311414,0,15,6,37,72,84,66,0,-2
1491087311414,1,16,9,42,32,39,-27,-32,44
1491087311414,1,-6,-5,-9,12,52,39,3,-2
1491087311415,2,20,18,56,-5,56,-8,-9,24
1491087311415,2,-32,-4,11,-21,96,49,29,-45
1491087311416,3,-6,-13,-48,-32,-67,-26,-34,-35
1491087311416,3,-7,-37,-52,33,70,112,34,21
1491087311452,0,50,40,35,-66,-39,-113,-25,41
1491087311452,0,-27,-14,-49,53,-32,97,-29,11
1491087311452,1,-33,-8,-1,-10,90,87,24,-25
1491087311452,1,-14,-4,-2,-5,-49,-32,-45,6
1491087311453,2,-1,-3,9,-2,33,20,18,-1
1491087311453,2,21,13,7,-17,-7,21,45,-5
1491087311454,3,-6,5,32,62,35,-43,-35,-7
1491087311454,3,-9,5,7,-39,-13,40,59,13
1491087311489,0,-16,-20,-46,-30,-48,-104,-44,-16
1491087311489,0,9,-4,-39,8,-64,-46,-45,-9
1491087311490,1,-4,-7,-20,-16,-9,24,18,2
1491087311490,1,2,7,22,63,65,4,-50,24
1491087311491,2,-3,-3,22,5,69,110,89,-2
1491087311491,2,0,1,10,8,-28,-48,-8,-40
1491087311492,3,-14,-13,-30,-20,-64,-18,-39,23
1491087311492,3,-2,9,-8,-49,-25,-128,-2,-11
1491087311526,0,4,-8,-37,-49,-38,75,-12,-9
1491087311526,0,-5,3,54,54,57,61,63,4
1491087311528,1,19,6,-10,-4,-17,-15,13,0
1491087311528,1,-16,2,10,-6,-70,-38,-28,-13
1491087311564,2,-1,1,-17,7,-37,-24,-35,12
1491087311564,2,16,8,3,-38,45,82,8,-8
1491087311565,3,-15,-3,24,45,8,2,-15,14
1491087311565,3,0,-11,-64,-12,36,14,2,2
1491087311566,0,8,1,75,29,2,5,44,-11
1491087311566,0,-15,-22,-114,-75,-128,-109,-75,5
1491087311568,1,-5,-10,-4,-8,35,15,-34,-4
1491087311568,1,9,19,48,15,44,11,35,5
1491087311601,2,-1,3,15,-69,-60,74,29,-19
1491087311601,2,5,-3,5,49,38,-44,-2,28
1491087311603,3,5,-1,-15,-58,-127,-61,5,-20
1491087311603,3,-16,-7,10,127,98,87,-26,-27
1491087311604,0,0,-5,-28,-95,-123,-127,9,12
1491087311604,0,-5,-5,1,28,23,127,-16,2
1491087311605,1,9,4,-27,-102,-1,-74,-6,23
1491087311605,1,-2,-11,-18,50,1,-42,-2,6
1491087311639,2,-7,5,7,90,127,-18,-67,-8
1491087311639,2,21,11,29,22,29,36,30,-10
1491087311641,3,-8,3,46,47,72,55,12,-8
1491087311641,3,7,4,41,-65,-1,68,56,10
1491087311642,0,3,-6,-5,23,7,42,10,0
1491087311642,0,7,4,-1,-11,4,-117,-2,12
1491087311643,1,-4,-7,-1,-2,-24,21,3,-8
1491087311643,1,13,-1,20,-87,-94,-7,40,-17
1491087311676,2,-28,-16,-74,64,-95,-39,-61,-3
1491087311676,2,21,4,7,-11,50,41,20,10
1491087311678,3,-23,-10,-80,-45,-111,-76,-18,-5
1491087311678,3,-1,-14,-9,-12,-25,28,-39,-7
1491087311679,0,-1,3,32,17,59,58,37,-13
1491087311679,0,-1,7,31,-48,-41,-33,22,-13
1491087311679,1,12,6,13,79,29,70,-48,14
1491087311679,1,-9,-6,-29,-25,-66,-43,-1,10
1491087311714,2,3,-2,8,3,46,80,12,-1
1491087311714,2,-3,0,13,76,47,-18,9,-5
1491087311715,3,6,3,40,-46,55,106,40,3
1491087311715,3,-8,-4,-57,-25,-23,-72,-8,-11
1491087311716,0,-5,-7,-16,-44,-66,-115,-56,13
1491087311716,0,-11,0,-21,-49,-75,52,13,-19
1491087311717,1,-4,-2,37,42,76,22,6,-24
1491087311717,1,13,2,-1,102,26,-31,32,44
1491087311751,2,-6,17,14,-46,-10,42,-30,-14
1491087311751,2,2,-15,-15,4,-26,-1,16,-1
1491087311753,3,5,4,35,9,2,37,22,-11
1491087311753,3,-6,-12,-17,-24,17,-45,-17,-11
1491087311754,0,19,6,32,64,105,27,40,21
1491087311754,0,5,-7,9,-82,-36,66,-9,-9
1491087311755,1,-29,-19,-52,48,-99,46,-55,-2
1491087311755,1,-2,14,11,-28,-70,-16,-28,-12
1491087311789,2,-9,2,29,-81,-7,-63,87,-41
1491087311789,2,-18,-13,-78,-7,-71,-63,-104,8
1491087311791,3,11,3,15,30,28,10,20,19
1491087311791,3,-11,-12,-1,8,43,11,-31,6
1491087311792,0,6,16,26,31,42,35,-41,-8
1491087311792,0,8,2,28,28,77,49,54,-2
1491087311793,1,3,-5,-43,-40,-8,-51,9,12
1491087311793,1,12,5,17,29,-22,29,4,-7
1491087311826,2,-14,-17,8,-13,-4,13,17,-9
1491087311826,2,-11,-6,-3,16,25,18,-7,5
1491087311828,3,12,-6,-26,-8,-44,-103,-6,-2
1491087311828,3,-1,-10,25,-17,51,66,10,-9
1491087311829,0,3,-17,-52,-11,-20,-35,-12,9
1491087311829,0,-7,-2,12,32,30,12,-10,-3
1491087311830,1,5,-4,6,11,3,-28,24,9
1491087311830,1,-7,22,17,-26,2,14,24,-10
1491087311864,2,6,6,-2,33,36,26,-27,9
1491087311864,2,8,-3,33,15,74,12,24,7
1491087311866,3,-12,1,-42,5,-87,-58,-70,8
1491087311866,3,-13,-14,-45,-16,-34,-61,-53,-4
1491087311868,0,-5,-1,-7,3,-34,4,23,-1
1491087311868,0,-7,8,45,17,66,32,23,-15
1491087311902,1,6,23,8,-33,38,22,34,-5
1491087311902,1,21,16,-14,3,-4,-5,-15,16
1491087311907,2,22,36,27,17,8,2,-36,13
1491087311907,2,5,7,2,7,-12,-7,33,5
1491087311909,3,-15,-3,5,-13,11,0,17,0
1491087311909,3,-2,2,22,28,8,18,-2,-2
1491087311910,0,-17,-16,-28,-10,-10,-11,-6,-8
1491087311910,0,6,-1,-39,-31,-61,-34,-16,1
1491087311939,1,14,0,12,5,12,-5,2,-1
1491087311939,1,-17,-18,-17,-10,14,35,14,-9
1491087311941,2,-13,-28,10,-1,-32,-19,-12,-6
1491087311941,2,-17,-25,-2,5,1,-24,-26,-5
1491087311943,3,-11,-34,7,8,11,15,11,-14
1491087311943,3,22,-5,15,5,-16,19,-8,22
1491087311944,0,-16,-34,-22,-4,20,34,20,-6
1491087311944,0,13,-26,-24,-29,-45,-39,-34,-5
1491087311976,1,-5,-20,45,19,20,17,5,4
1491087311976,1,-19,-30,-6,-16,12,7,0,-12
1491087311977,2,3,-17,-4,-17,-23,-3,-13,-1
1491087311977,2,16,0,12,5,3,21,5,2
1491087311978,3,15,3,-31,-10,35,-6,4,-9
1491087311978,3,35,14,-2,-2,-32,6,-15,15
1491087311979,0,-15,-2,-4,11,-13,-56,-19,-19
1491087311979,0,-12,12,5,-19,12,34,30,-6
1491087312014,1,8,41,14,-17,-9,-11,1,1
1491087312014,1,-24,13,-2,6,5,-5,2,-4
1491087312014,2,5,23,-4,15,4,-1,5,0
1491087312014,2,-3,24,13,4,-8,-11,-18,1
1491087312015,3,-6,4,8,15,16,31,-5,-12
1491087312015,3,-14,8,3,-34,-26,-54,11,-6
1491087312016,0,10,7,-17,5,-10,-4,1,11
1491087312016,0,-1,6,13,-7,4,21,17,-1
1491087312051,1,-14,-6,-13,-2,-14,16,-27,-4
1491087312051,1,7,3,-5,3,-1,-22,12,-1
1491087312052,2,-5,1,16,18,20,18,1,0
1491087312052,2,-1,19,-5,-22,-22,-3,-11,3
1491087312054,3,4,15,8,10,16,12,16,13
1491087312054,3,-14,19,22,5,6,32,-12,-6
1491087312054,0,-6,20,-20,-14,-11,-5,27,-5
1491087312054,0,10,24,-10,-2,20,17,4,8
1491087312089,1,-14,8,-6,23,-12,15,-11,0
1491087312089,1,-11,31,-12,-6,-2,-25,11,12
1491087312126,2,4,30,14,-21,17,83,-22,-14
1491087312126,2,-2,18,-7,12,-43,-99,15,-12
1491087312127,3,-5,13,1,9,-1,-6,-15,0
1491087312127,3,11,-9,-21,-11,12,21,-3,14
1491087312128,0,-1,-2,9,0,-5,3,11,-7
1491087312128,0,-27,-19,-2,-7,1,15,-15,-8
1491087312129,1,18,-9,-20,-9,-20,-42,1,13
1491087312129,1,3,4,35,6,-20,3,-2,-1
1491087312164,2,4,-16,-13,-1,23,-28,-3,-5
1491087312164,2,-8,-24,-8,5,13,17,0,-6
1491087312164,3,-4,-17,6,4,23,50,3,2
1491087312164,3,13,-26,-12,-10,9,-54,14,-14
1491087312165,0,-8,-18,21,13,45,-8,-31,7
1491087312165,0,1,-22,-40,-18,-69,-69,-14,3
1491087312166,1,-16,-39,9,5,-33,14,-1,7
1491087312166,1,19,-43,-13,-17,5,21,-3,-9
1491087312201,2,-14,-45,6,-3,17,21,25,-10
1491087312201,2,0,-13,9,33,41,21,-16,6
1491087312202,3,4,-10,7,10,2,-19,-10,0
1491087312202,3,-11,-14,-15,-27,-46,-56,-27,-15
1491087312203,0,4,-8,1,20,11,55,59,21
1491087312203,0,0,0,11,2,26,-14,-47,-3
1491087312204,1,-16,-3,-16,-30,-35,-55,18,-11
1491087312204,1,-7,3,0,20,-6,21,-7,-8
1491087312239,2,10,-3,10,5,-13,-14,-1,-1
1491087312239,2,-11,-18,-15,-1,-8,62,-2,-1
1491087312240,3,-2,0,26,17,34,-42,-13,0
1491087312240,3,-23,-23,1,5,61,54,-1,-14
1491087312240,0,8,-4,-45,-29,-122,-89,-37,5
1491087312240,0,13,1,31,23,9,36,26,-4
1491087312241,1,6,-11,-37,-48,3,14,4,-1
1491087312241,1,-19,0,24,33,68,127,15,-8
1491087312276,2,-8,7,-5,-4,-18,-7,-14,-2
1491087312276,2,6,-10,-28,-29,-35,-68,-34,3
1491087312277,3,-5,5,11,4,-9,34,24,3
1491087312277,3,-9,8,-6,-12,15,56,-4,-15
1491087312277,0,5,2,-4,20,36,4,9,11
1491087312277,0,10,24,27,-20,28,35,24,-3
1491087312279,1,0,9,-34,-3,2,-7,-62,-9
1491087312279,1,-1,11,-14,-19,-47,-77,41,8
1491087312314,2,-30,6,-2,-12,-12,43,30,-11
1491087312314,2,-8,-6,-15,11,20,31,9,-11
1491087312314,3,13,30,37,16,21,-38,-6,31
1491087312314,3,-1,8,3,19,-36,45,-14,-22
1491087312315,0,-2,7,-19,-33,28,-10,-43,-2
1491087312315,0,-4,5,-7,-24,-55,-10,12,-15
1491087312316,1,-11,-2,2,33,32,72,4,3
1491087312316,1,-6,-8,-1,9,30,11,23,19
1491087312351,2,31,17,20,11,-49,-38,-24,28
1491087312351,2,-22,-3,-7,1,54,76,6,15
1491087312352,3,39,1,-11,-18,-13,89,67,0
1491087312352,3,0,10,27,-9,-43,-98,-40,0
1491087312353,0,-10,-10,-7,-2,25,6,-13,-16
1491087312353,0,-2,3,9,27,-13,-12,-19,10
1491087312389,1,0,-5,5,-8,18,70,28,-11
1491087312389,1,-4,-9,30,4,25,81,27,-3
1491087312389,2,4,8,-40,-30,-104,-97,-44,-10
1491087312389,2,-9,-5,-5,10,87,47,-16,-32
1491087312390,3,-10,-1,19,-5,-10,47,46,8
1491087312390,3,-10,-15,-32,-6,-19,3,-9,-9
1491087312391,0,-11,-9,5,-17,-13,-25,2,-12
1491087312391,0,12,-6,17,-1,2,48,26,4
1491087312426,1,-6,-8,-4,3,41,-17,-32,-17
1491087312426,1,-1,0,-24,-26,-19,-40,-13,17
1491087312427,2,10,-11,2,20,6,34,37,19
1491087312427,2,10,17,24,17,18,21,-8,-8
1491087312427,3,2,-10,-1,3,33,90,22,-27
1491087312427,3,-15,8,7,-3,-54,-79,-26,32
1491087312429,0,-25,-8,-18,-16,19,127,-5,-8
1491087312429,0,24,-5,-25,-15,-37,21,14,12
1491087312464,1,-17,-3,12,-15,-23,-47,-57,-13
1491087312464,1,14,8,44,57,119,103,54,-13
1491087312465,2,-3,-9,-40,31,-64,21,-3,2
1491087312465,2,-17,-4,-10,-40,-114,-94,11,49
1491087312466,3,10,5,-12,-37,-31,1,-88,-43
1491087312466,3,33,0,-20,-12,-36,8,19,13
1491087312466,0,-8,-11,21,32,110,111,-5,-18
1491087312466,0,14,6,-7,25,12,-3,74,6
1491087312501,1,-29,-4,-20,-39,-107,-103,-12,10
1491087312501,1,25,-3,31,-11,75,126,-29,-32
1491087312502,2,-9,4,5,5,21,1,-25,-12
1491087312502,2,-5,-1,-13,14,-55,-49,-29,-3
1491087312503,3,-7,-1,1,15,8,-38,5,27
1491087312503,3,-24,-6,-15,-4,-12,-27,-1,-11
1491087312504,0,7,12,36,-16,26,13,55,3
1491087312504,0,-3,-9,-24,-20,3,-76,-49,-6
1491087312539,1,13,0,4,11,-7,-2,-9,-4
1491087312539,1,-12,3,5,31,43,1,30,-2
1491087312540,2,5,0,-9,-62,-69,-50,13,-9
1491087312540,2,-5,-5,2,84,104,-18,-38,11
1491087312541,3,12,10,-2,-23,-41,8,28,-9
1491087312541,3,-22,-13,-32,1,-71,-40,-51,-7
1491087312542,0,13,5,34,-14,49,44,49,5
1491087312542,0,7,14,9,-24,18,-17,58,-6
1491087312576,1,-19,-8,-12,7,-48,14,-39,13
1491087312576,1,31,1,-11,-3,-18,-58,-25,14
1491087312577,2,-7,0,-3,-4,7,19,27,-9
1491087312577,2,-2,-16,23,17,115,127,29,-18
1491087312578,3,-7,6,24,-8,23,-13,5,-5
1491087312578,3,2,-10,-47,-22,-118,-98,-31,37
1491087312579,0,-6,-1,8,17,12,18,-51,-16
1491087312579,0,-2,3,3,-11,3,34,-10,4
1491087312614,1,9,-10,-7,10,8,79,36,-20
1491087312614,1,-6,-3,-15,19,-19,-63,-78,23
1491087312615,2,-19,-4,-26,-44,-45,55,73,-1
1491087312615,2,-9,4,18,14,11,77,-57,-22
1491087312616,3,11,7,5,-9,11,57,54,15
1491087312616,3,-2,2,13,-23,23,28,37,1
1491087312616,0,17,3,7,23,53,-55,-62,6
1491087312616,0,-42,-1,4,17,-51,-7,-1,-12
1491087312651,1,32,-5,-13,-12,-9,-11,1,6
1491087312651,1,5,12,-2,14,46,56,-5,5
1491087312652,2,2,6,0,13,44,-56,-27,-12
1491087312652,2,2,-8,5,-23,-86,81,73,5
1491087312653,3,-3,7,-15,-50,-71,-117,-42,-3
1491087312653,3,-1,-9,18,-1,8,59,11,19
1491087312654,0,2,-3,-7,11,-47,76,27,1
1491087312654,0,12,-4,-19,-38,-11,-95,-107,-16
1491087312689,1,3,-10,-10,37,21,-6,3,3
1491087312689,1,-21,4,6,-13,-8,1,45,-17
1491087312726,2,2,-4,-6,26,54,57,0,-10
1491087312726,2,3,-9,-1,-8,-22,-60,14,7
1491087312727,3,-14,-8,-15,14,29,-6,-23,3
1491087312727,3,24,23,33,-12,44,21,21,-9
1491087312728,0,-14,-7,-6,10,-24,-61,-47,2
1491087312728,0,15,12,15,-3,10,30,41,-14
1491087312729,1,-18,-12,-8,-41,47,14,3,-6
1491087312729,1,-7,-17,-36,64,25,-19,-11,10
1491087312764,2,4,5,-19,-35,-127,-35,-11,11
1491087312764,2,-16,-7,-11,-5,-47,65,-36,-12
1491087312764,3,7,11,37,-1,23,-70,-21,10
1491087312764,3,11,-8,2,-11,32,67,30,-21
1491087312765,0,2,0,23,17,59,-31,-10,16
