1491088310291,0,-21,-54,-72,-49,-36,-20,-28,-20
1491088310291,0,19,1,4,20,10,-2,-7,-5
1491088310292,1,-5,16,25,12,2,1,-3,-2
1491088310292,1,2,4,6,11,3,5,10,8
1491088310293,2,3,14,22,8,0,6,6,10
1491088310293,2,-9,-8,-3,-11,-10,1,0,3
1491088310328,3,-10,-15,-18,-13,-15,-5,-8,-6
1491088310328,3,-8,-4,6,-8,-6,1,-6,-1
1491088310329,0,2,18,27,9,6,3,6,6
1491088310329,0,-8,-6,-15,-10,-6,-5,-3,-2
1491088310330,1,5,5,11,0,1,-1,10,3
1491088310330,1,-4,-9,-11,-4,-3,1,-6,-2
1491088310330,2,3,2,2,7,4,-3,1,0
1491088310330,2,0,6,7,5,3,5,5,3
1491088310366,3,-2,-13,-13,-5,-1,4,-2,-1
1491088310366,3,0,-2,-7,-3,-3,-1,1,-4
1491088310366,0,14,18,10,2,3,-1,-1,2
1491088310366,0,-7,-1,1,-3,-9,-20,-4,-3
1491088310367,1,0,1,-3,-2,4,22,-8,-4
1491088310367,1,-10,-6,-1,-2,-1,-3,22,1
1491088310403,2,-1,3,4,8,5,4,-17,3
1491088310403,2,-6,-5,-3,-5,-3,2,-3,-13
1491088310404,3,-2,-1,-5,-2,-4,-10,-3,0
1491088310404,3,-1,0,-4,3,0,-4,-13,-5
1491088310405,0,-5,8,1,1,4,3,9,-5
1491088310405,0,-6,-12,-5,-3,3,-2,1,-10
1491088310406,1,-5,-8,3,-3,1,0,-5,-1
1491088310406,1,1,3,3,-3,-2,-1,-1,-5
1491088310440,2,-3,-11,-3,0,-1,-1,12,1
1491088310440,2,-7,-7,-5,-1,-1,1,-5,3
1491088310443,3,5,-5,-5,0,-4,-11,1,2
1491088310443,3,0,-5,-5,-5,-3,-14,-8,3
1491088310444,0,0,-2,4,0,4,30,9,-2
1491088310444,0,2,5,2,-3,2,9,5,5
1491088310444,1,0,-3,-5,-2,-3,-1,10,-3
1491088310444,1,-2,0,-3,-4,-7,-19,-34,-4
1491088310478,2,-2,-1,0,-1,-4,-16,-11,-4
1491088310478,2,0,1,8,2,-3,-2,20,0
1491088310479,3,1,2,2,0,3,-8,-27,-3
1491088310479,3,-4,2,-2,-5,-1,-1,13,-9
1491088310480,0,-3,-6,0,2,-3,9,-3,7
1491088310480,0,-4,-5,-2,-3,-6,-13,-6,-25
1491088310481,1,-4,6,1,1,-3,4,16,3
1491088310481,1,2,-5,5,2,0,-2,-20,-4
1491088310516,2,-1,0,-3,-2,-1,-6,-17,-9
1491088310516,2,3,4,-9,-1,5,7,13,19
1491088310516,3,-3,-2,1,-2,-4,-12,3,-11
1491088310516,3,4,-1,-1,1,-2,0,9,0
1491088310517,0,3,-3,-2,-6,4,9,-4,10
1491088310517,0,3,1,4,-3,-2,14,2,3
1491088310554,1,-3,-4,-5,-5,-5,-4,0,-1
1491088310554,1,-2,-2,-3,2,-2,0,10,0
1491088310556,2,0,0,2,2,-9,-42,4,3
1491088310556,2,-3,1,2,1,1,4,-19,-6
1491088310557,3,-1,-4,-5,-2,4,34,57,0
1491088310557,3,-2,0,3,-4,5,-5,-42,8
1491088310557,0,-6,-4,-4,5,-10,-24,-26,-21
1491088310557,0,3,1,1,-2,3,13,10,11
1491088310590,1,1,0,0,2,3,5,-18,-1
1491088310590,1,3,-2,-8,-5,-8,-4,112,10
1491088310592,2,-3,-7,-8,-14,-6,-32,-87,-13
1491088310592,2,-2,-2,1,3,12,19,-19,-7
1491088310592,3,0,-3,1,-2,-3,-4,-31,-5
1491088310592,3,-3,1,4,6,14,67,5,-5
1491088310593,0,0,-2,0,-8,-14,-39,21,11
1491088310593,0,0,2,0,-2,0,2,4,-11
1491088310628,1,-3,-4,-3,-5,-1,6,-12,3
1491088310628,1,-3,-3,-6,-4,-6,-6,-22,-12
1491088310630,2,0,3,5,8,16,36,30,-4
1491088310630,2,0,2,1,1,-8,-33,-18,-5
1491088310631,3,1,2,6,9,-9,-49,0,1
1491088310631,3,0,0,-1,3,-2,26,20,5
1491088310632,0,2,-6,-7,-1,14,18,26,22
1491088310632,0,-7,-5,-8,-9,12,33,-32,-5
1491088310665,1,-3,0,-7,-5,-6,-12,-26,-1
1491088310665,1,-1,1,2,2,-5,-32,-17,-6
1491088310667,2,-3,1,1,4,-6,1,20,-5
1491088310667,2,-4,1,5,5,-14,-39,-2,-1
1491088310668,3,-2,-3,3,3,3,-3,78,-3
1491088310668,3,2,-5,-4,-9,1,7,-124,-3
1491088310703,0,-7,-5,-6,-5,-1,6,-5,-30
1491088310703,0,1,1,-2,-4,-4,-12,18,32
1491088310704,1,-2,3,5,8,9,21,0,-5
1491088310704,1,0,0,-8,-14,-12,-32,30,1
1491088310705,2,0,-1,-4,0,10,29,19,-4
1491088310705,2,-3,-3,-9,-2,-6,-12,1,-10
1491088310706,3,-1,-1,-2,-5,-1,-2,-34,8
1491088310706,3,-1,-7,-5,-1,-3,-9,0,13
1491088310740,0,-2,0,4,-1,-3,-4,-16,-22
1491088310740,0,-2,-5,-2,-4,-9,1,13,-2
1491088310742,1,-2,-2,-6,-5,3,3,6,16
1491088310742,1,-2,3,0,-2,1,-9,-4,-10
1491088310744,2,0,0,-1,-5,-3,2,23,14
1491088310744,2,1,0,3,2,3,4,-5,2
1491088310744,3,-1,-4,-8,-3,-7,-1,-6,-13
1491088310744,3,1,7,11,5,3,-4,-10,3
1491088310778,0,2,-4,-2,4,1,-6,0,7
1491088310778,0,-4,3,4,-4,-9,-3,-2,-11
1491088310780,1,2,-9,-10,-5,2,11,5,2
1491088310780,1,-1,-10,-12,-5,5,31,-5,-1
1491088310781,2,-1,4,4,-1,-5,3,-2,5
1491088310781,2,-1,-5,3,-1,-5,-12,-13,-5
1491088310782,3,-3,2,8,-2,-8,-15,0,-6
1491088310782,3,1,-7,1,6,5,3,26,-1
1491088310816,0,-1,-2,2,-1,0,-7,-12,-1
1491088310816,0,0,3,-7,1,4,-5,-2,-3
1491088310817,1,-3,-9,-8,-6,0,4,-3,2
1491088310817,1,-3,0,4,-1,-4,-12,-2,-5
1491088310818,2,0,-1,-17,-8,-11,-8,-4,0
1491088310818,2,0,17,11,-7,-9,-7,4,5
1491088310853,3,-1,8,4,1,-1,-3,0,-3
1491088310853,3,-1,2,6,1,5,-5,-8,-1
1491088310854,0,-4,-7,-6,4,7,5,12,1
1491088310854,0,-3,8,-8,2,6,13,2,3
1491088310855,1,5,-26,-14,4,2,1,10,2
1491088310855,1,-2,7,4,-6,-10,-20,-6,-1
1491088310891,2,-5,3,11,-2,1,4,-12,-4
1491088310891,2,-1,-10,-3,6,6,7,8,4
1491088310892,3,-5,-1,-1,2,-2,6,-12,-6
1491088310892,3,-3,1,-12,-1,-6,-9,10,-4
1491088310893,0,0,20,14,-7,-5,-1,-2,-1
1491088310893,0,-3,-15,9,2,-1,2,-24,-2
1491088310894,1,-1,-6,-4,-3,1,1,-2,-2
1491088310894,1,-2,-13,-4,4,2,9,27,-2
1491088310928,2,-5,-12,-25,-1,1,-8,-34,-4
1491088310928,2,0,18,25,-1,-2,7,18,0
1491088310929,3,-2,2,0,-1,-2,-7,-24,-1
1491088310929,3,-3,2,9,-3,-3,1,48,-2
1491088310930,0,2,-11,-2,4,2,2,-43,1
1491088310930,0,-2,-14,-23,-10,-7,-10,-3,-5
1491088310932,1,-2,-7,2,0,-1,1,7,-2
1491088310932,1,0,10,-3,-4,-1,-13,-25,-6
1491088310965,2,-1,-4,-3,-4,-1,7,25,4
1491088310965,2,-3,-9,-7,-1,-3,0,35,-4
1491088310966,3,1,6,-1,-10,-2,-9,-78,-6
1491088310966,3,-4,-5,-7,1,4,9,13,5
1491088310967,0,-3,-7,7,1,-3,-1,9,-4
1491088310967,0,-3,-13,-25,-2,-1,-10,19,-1
1491088310968,1,-2,12,6,3,-8,-5,16,-5
1491088310968,1,-4,-9,-8,-9,-1,8,11,-4
1491088311003,2,9,4,8,5,3,10,-6,23
1491088311003,2,-4,5,5,-2,-18,-16,49,-4
1491088311004,3,2,9,14,21,34,3,-40,1
1491088311004,3,2,-4,-7,-6,-9,-23,-7,4
1491088311005,0,0,-1,-11,-20,-7,16,-20,-2
1491088311005,0,-2,-1,-6,-3,8,13,18,-2
1491088311007,1,-5,0,-4,-4,-17,-29,-20,11
1491088311007,1,1,3,8,7,8,7,-18,-5
1491088311078,2,-5,1,6,11,0,-7,3,-14
1491088311078,2,2,4,10,11,1,-11,-28,-3
1491088311080,3,-2,1,-2,0,1,19,120,-5
1491088311080,3,5,-7,-8,-9,-4,-27,-33,19
1491088311081,0,-7,-3,1,4,-9,-2,2,1
1491088311081,0,-1,-8,3,-3,4,18,-50,-23
1491088311082,1,4,-4,-5,-1,5,28,24,7
1491088311082,1,-6,-5,-15,-12,-19,17,9,-3
1491088311115,2,-9,-9,-14,-16,-4,-51,-14,-23
1491088311115,2,-4,-4,-10,-5,-10,9,-26,14
1491088311116,3,7,0,3,6,6,-5,23,-2
1491088311116,3,15,5,11,17,8,22,43,21
1491088311117,0,9,5,8,11,3,12,31,7
1491088311117,0,-3,3,9,19,19,-8,-33,-3
1491088311118,2,2,3,7,-3,1,3,4,-13
1491088311118,2,2,-7,-8,3,29,0,-35,22
1491088311153,3,-3,-7,-15,-10,-33,2,-1,-4
1491088311153,3,-17,-7,-15,-22,-11,-30,-25,-2
1491088311155,0,6,4,-6,-32,-25,14,68,-3
1491088311155,0,8,1,-7,-3,11,4,8,-4
1491088311156,1,1,9,18,37,33,14,3,-1
1491088311156,1,-2,1,-2,-23,-12,-21,-6,-17
1491088311157,2,1,-5,2,44,31,-8,-33,0
1491088311157,2,4,-7,-16,-47,-38,-13,38,9
1491088311190,3,-9,-12,-9,-21,-20,-6,-23,-6
1491088311190,3,0,-5,15,22,12,5,-13,-9
1491088311191,0,-11,-6,1,-44,-2,-28,19,-6
1491088311191,0,-4,3,30,100,46,40,-6,-15
1491088311192,1,-6,1,-9,-35,-8,-8,-72,-1
1491088311192,1,-3,5,4,13,18,23,47,4
1491088311193,2,1,2,-7,-26,-49,-39,17,14
1491088311193,2,2,0,-15,-29,-5,-20,-56,-12
1491088311228,3,-1,3,25,53,43,23,27,16
1491088311228,3,5,7,4,-46,-48,-1,-10,2
1491088311236,0,-19,-10,-23,37,18,1,-16,-18
1491088311236,0,7,-7,1,17,-2,-15,-18,1
1491088311237,1,0,-3,-8,-29,-15,-19,-15,-7
1491088311237,1,-8,-9,-16,1,8,-7,-2,-8
1491088311237,2,9,3,17,2,-9,76,108,51
1491088311237,2,2,-5,4,-15,5,-3,-41,-8
1491088311265,3,-7,-17,-13,13,-10,-56,43,4
1491088311265,3,-12,-6,-15,-25,19,5,-34,-15
1491088311266,0,0,2,0,30,10,-16,-71,-5
1491088311266,0,6,4,2,-5,-23,2,33,10
1491088311267,1,34,18,23,39,24,51,26,5
1491088311267,1,-14,-23,-30,-55,-39,-70,-24,-16
1491088311268,2,-13,-15,-6,-19,-27,-6,6,-5
1491088311268,2,0,-48,-12,-17,3,-8,21,6
1491088311303,3,-8,-39,1,-10,-16,-5,-32,-20
1491088311303,3,-1,-22,17,27,2,26,28,-2
1491088311304,0,-7,24,9,-37,-3,-6,-47,-23
1491088311304,0,6,64,0,16,20,18,62,31
1491088311306,1,0,30,-25,-8,-23,-37,-19,7
1491088311306,1,1,37,6,15,2,-18,-2,-2
1491088311306,2,-2,2,-6,24,29,35,-9,-3
1491088311306,2,-22,8,5,-31,-23,-10,-6,-8
1491088311340,3,-6,15,1,-8,4,-6,-12,-13
1491088311340,3,27,2,-8,37,28,42,27,23
1491088311341,0,7,-6,-10,-19,-6,-15,-33,-3
1491088311341,0,0,-5,-1,-5,-8,8,12,-1
1491088311342,1,-8,2,5,-11,-1,0,15,-3
1491088311342,1,-1,2,20,12,5,0,-36,-12
1491088311343,2,4,-5,4,36,9,2,64,10
1491088311343,2,-6,-110,-10,-15,-27,-5,-48,-17
1491088311378,3,-4,-44,-1,-11,0,-17,-5,-6
1491088311378,3,8,-49,5,20,16,16,-30,-2
1491088311380,0,7,87,-6,-24,9,8,28,9
1491088311380,0,-10,52,6,-6,-10,-10,-6,-6
1491088311381,1,-1,51,-5,-7,-21,-35,2,-1
1491088311381,1,-4,50,-6,-24,1,26,17,-4
1491088311382,2,-9,9,4,11,1,-32,-20,-9
1491088311382,2,3,11,4,10,19,65,-7,-6
1491088311415,3,1,0,-10,-12,1,-33,-17,3
1491088311415,3,-9,-4,4,-5,-5,-11,14,-7
1491088311416,0,-6,-33,-11,-15,-31,-108,-35,-10
1491088311416,0,1,5,-4,-11,10,68,22,9
1491088311417,1,-6,-18,-5,35,-13,6,1,-9
1491088311417,1,-1,-63,-7,-49,-17,-3,24,2
1491088311420,2,-3,-20,20,3,32,47,-14,-10
1491088311420,2,2,18,0,86,24,-66,11,-3
1491088311453,3,11,4,-14,-69,-51,9,-23,24
1491088311453,3,6,29,-14,-6,-4,-21,-28,3
1491088311454,0,8,-16,-17,-23,-22,55,78,7
1491088311454,0,4,19,32,-69,-78,-32,-68,-16
1491088311455,1,-7,32,33,58,113,10,109,22
1491088311455,1,-10,-18,-63,-54,-36,-13,-102,-15
1491088311456,2,16,-25,-26,1,-55,-20,48,42
1491088311456,2,-23,-4,-15,-21,-28,-18,111,-27
1491088311491,3,23,-8,31,50,-10,74,-82,23
1491088311491,3,-19,26,20,121,115,-103,-23,-23
1491088311493,0,-5,-18,15,33,70,101,31,-24
1491088311493,0,26,7,-51,-21,36,-20,114,46
1491088311494,1,-15,-76,-91,-69,-128,-100,-30,27
1491088311494,1,70,8,42,98,89,58,38,7
1491088311494,2,25,12,68,71,116,102,-125,-20
1491088311494,2,-28,15,-31,-73,-30,1,-14,-28
1491088311528,3,-60,14,48,-66,-45,92,-39,-33
1491088311528,3,-32,21,9,63,59,53,37,16
1491088311530,0,-54,-25,-9,75,40,-96,15,11
1491088311530,0,7,-30,-27,-58,-48,-34,-42,29
1491088311531,1,69,3,-35,-124,-93,8,13,-40
1491088311531,1,-1,-14,-11,-1,-105,4,30,20
1491088311565,2,2,20,29,-25,-20,-25,-56,-4
1491088311565,2,-31,-1,18,41,-27,61,97,36
1491088311603,3,-38,-13,-29,44,33,2,-102,-16
1491088311603,3,1,19,51,9,-77,-32,-12,2
1491088311605,0,-9,14,-19,-37,-69,-72,38,-27
1491088311605,0,-18,-21,-8,14,7,25,-91,-13
1491088311605,1,10,11,27,35,-25,-31,91,-9
1491088311605,1,-8,-5,-9,-64,-31,-27,-73,-12
1491088311606,2,-12,-19,-31,-25,-65,-32,-4,-10
1491088311606,2,20,17,36,18,-43,-46,-38,-36
1491088311640,3,10,5,25,54,76,21,66,3
1491088311640,3,-6,-3,-16,-41,-41,-23,24,-22
1491088311641,0,3,-12,-28,-58,-89,-37,-17,24
1491088311641,0,11,-9,7,28,-10,-48,1,-9
1491088311642,1,-5,-2,-10,-2,22,-39,-7,-5
1491088311642,1,-4,-5,-7,-12,29,-26,51,14
1491088311643,2,7,3,9,-2,1,-50,-34,-7
1491088311643,2,8,3,8,0,20,-39,-5,-4
1491088311678,3,-4,1,-2,11,3,-38,13,3
1491088311678,3,3,2,8,-12,-10,13,-18,-5
1491088311679,0,9,3,6,10,2,29,22,-13
1491088311679,0,3,0,8,24,55,12,-33,-8
1491088311680,2,5,-1,-2,51,67,66,13,9
1491088311680,2,1,8,4,-44,18,65,31,-3
1491088311680,3,-7,6,41,97,81,80,-51,-14
1491088311680,3,-14,4,-9,-13,29,-24,122,-15
1491088311715,0,7,-34,-31,8,46,34,-96,6
1491088311715,0,-5,-18,-24,-60,-46,5,62,18
1491088311716,1,-1,1,2,-2,26,55,-4,7
1491088311716,1,-7,18,41,51,21,49,-18,-23
1491088311717,2,-4,22,21,-68,-64,-26,113,-9
1491088311717,2,-2,-14,-28,15,38,-23,-114,7
1491088311718,3,-10,4,12,36,54,95,-29,-25
1491088311718,3,-2,-8,-55,-89,-97,-85,-14,16
1491088311753,0,3,-16,2,63,-49,16,38,25
1491088311753,0,-4,-2,42,58,59,7,-92,12
1491088311754,1,-11,-44,-116,-75,-70,-10,-81,6
1491088311754,1,5,20,34,-65,-44,94,57,25
1491088311755,2,-5,-8,8,87,104,-54,-3,-5
1491088311755,2,2,12,14,-60,-36,27,-35,-39
1491088311756,3,6,11,-30,-58,-1,-12,-86,15
1491088311756,3,-8,-9,40,46,78,112,61,-24
1491088311790,0,14,35,-13,-128,6,59,64,-2
1491088311790,0,-6,-40,-30,127,73,-68,-71,20
1491088311791,1,-1,17,43,-14,77,71,77,-51
1491088311791,1,8,-7,-31,80,14,-110,-1,63
1491088311792,2,-3,-4,1,-74,-68,37,-128,13
1491088311792,2,3,18,-16,7,-8,-30,35,-61
1491088311793,3,-6,-45,-52,77,-118,-116,44,28
1491088311793,3,-14,-17,-4,-43,-71,122,30,-17
1491088311828,0,0,17,27,27,-21,62,103,-13
1491088311828,0,-2,-6,4,-68,-78,6,-34,-1
1491088311829,1,17,63,72,-17,-52,14,110,-12
1491088311829,1,5,-19,-9,86,34,-128,-113,22
1491088311830,2,-4,-11,-2,26,8,106,-42,-10
1491088311830,2,-4,-10,-28,-57,-51,-85,27,20
1491088311830,3,-12,-37,-12,-37,-36,104,27,13
1491088311830,3,1,16,21,-3,-50,-93,-64,-9
1491088311865,0,-1,-2,-14,-22,-40,-14,80,-14
1491088311865,0,-8,-11,6,38,-15,-25,-90,-5
1491088311866,1,1,7,22,7,-20,-56,8,-6
1491088311866,1,-4,-16,-18,-30,0,-11,-24,-16
1491088311869,2,-6,-46,-30,2,29,-25,-16,-16
1491088311869,2,23,65,50,13,0,-3,-27,7
1491088311870,3,0,-8,13,-17,-45,-65,22,10
1491088311870,3,18,-18,-13,-13,-25,96,-52,-10
1491088311903,0,-6,-18,25,22,0,-128,-46,-3
1491088311903,0,-7,-13,-9,-24,3,-100,78,-8
1491088311904,1,0,1,-19,-13,39,-128,-15,2
1491088311904,1,-7,29,26,18,57,-76,12,-26
1491088311905,2,-14,-30,-28,-5,38,-4,-16,9
1491088311905,2,-2,-19,-19,-6,53,127,48,3
1491088311905,3,2,34,26,11,52,114,-88,-5
1491088311905,3,-12,0,-3,6,34,92,127,-6
1491088311940,0,1,9,-5,-16,4,93,-115,-3
1491088311940,0,-5,18,16,28,19,107,65,-26
1491088311942,1,1,-16,-31,-84,6,53,49,29
1491088311942,1,-10,-31,-59,20,26,-74,76,-2
1491088311943,2,13,55,5,-35,-9,64,-120,12
1491088311943,2,0,-12,36,90,36,-36,74,33
1491088311944,3,-9,-7,-31,-29,-43,2,24,-49
1491088311944,3,33,14,33,-116,-38,-57,-105,50
1491088312015,0,-4,-17,-11,-93,-29,-66,113,15
1491088312015,0,-2,-24,-49,69,45,-37,-73,9
1491088312017,1,-5,31,63,67,31,-84,-26,1
1491088312017,1,-6,20,24,-68,-9,-24,-11,-36
1491088312018,2,19,44,95,-10,21,47,37,7
1491088312018,2,-9,-51,-96,24,-123,-48,22,2
1491088312019,3,-15,-75,-43,43,53,12,-69,-31
1491088312019,3,-15,1,-18,-21,-13,80,28,-4
1491088312053,0,3,41,78,-5,-10,33,72,-55
1491088312053,0,37,61,127,40,119,117,81,56
1491088312054,1,15,31,-97,69,71,-68,-9,13
1491088312054,1,-17,-72,-66,103,101,1,-102,-3
1491088312055,2,-13,10,-13,48,90,-122,66,14
1491088312055,2,3,4,4,-75,79,-128,-15,-16
1491088312056,3,-9,19,43,-97,-38,8,60,1
1491088312056,3,16,17,76,94,122,-64,52,56
1491088312090,0,-3,-14,-118,101,16,-110,62,76
1491088312090,0,-20,-27,-28,-17,3,103,-128,-79
1491088312092,1,2,14,31,-86,-106,8,-19,6
1491088312092,1,-13,11,7,-18,-61,45,90,-3
1491088312093,3,-14,-48,-86,-63,-79,127,82,-8
1491088312093,3,0,3,47,111,62,14,13,10
1491088312095,0,-6,-15,-54,-112,-85,23,-79,-49
1491088312095,0,-19,-7,6,-18,-32,77,5,-51
1491088312128,1,20,-9,47,86,57,-123,35,74
1491088312128,1,6,3,-16,-26,-56,82,-33,-12
1491088312129,2,-3,30,42,43,18,63,24,-26
1491088312129,2,0,20,-28,-60,-75,29,3,-37
1491088312130,3,-2,10,66,23,-20,65,7,1
1491088312130,3,0,-67,-46,-31,-48,87,-92,-27
1491088312131,0,5,12,24,0,-34,-88,-10,6
1491088312131,0,-1,-14,-6,-32,-49,-28,79,23
1491088312165,1,-1,-25,-1,8,-31,-4,-76,-28
1491088312165,1,-17,17,18,-18,-75,-6,-17,3
1491088312167,2,-29,-59,-17,-11,-75,38,9,-35
1491088312167,2,23,22,2,-11,-32,-10,-21,8
1491088312168,3,-11,27,32,20,64,-40,7,-3
1491088312168,3,5,26,-21,-26,-2,-28,30,-2
1491088312169,0,-9,-22,-11,-2,44,-52,-38,-10
1491088312169,0,-16,-16,-19,-25,-30,-32,-72,-12
1491088312203,1,5,-11,2,17,40,3,72,12
1491088312203,1,6,19,4,-8,35,80,-112,0
1491088312204,2,-2,16,6,11,78,99,23,-3
1491088312204,2,-15,-30,-41,-22,38,73,92,-17
1491088312205,3,9,60,8,1,29,65,-87,-18
1491088312205,3,-18,-22,-26,-26,29,-47,-28,-18
1491088312206,0,-9,-19,-30,0,28,-7,-3,-8
1491088312206,0,-8,1,27,-4,26,-18,26,-32
1491088312240,1,-1,-33,-23,-1,6,-47,13,-3
1491088312240,1,-5,23,11,0,-13,-39,82,-36
1491088312242,2,26,-12,-5,2,7,49,-121,34
1491088312242,2,-24,-2,1,-22,-28,-10,49,-4
1491088312243,3,-8,-1,-14,2,7,-81,85,-3
1491088312243,3,15,9,-3,-1,5,99,-57,6
1491088312244,0,2,2,-128,-18,-20,-18,52,-34
1491088312244,0,-17,-1,-110,-31,0,-43,-1,-9
1491088312278,1,18,16,-66,49,-7,-45,49,18
1491088312278,1,0,-22,90,5,-42,88,-65,11
1491088312279,2,-11,-6,127,-19,21,-17,82,34
1491088312279,2,-29,-16,35,-1,4,25,-87,-45
1491088312279,3,6,22,108,36,28,7,-28,40
1491088312279,3,6,-9,83,-39,-72,-125,101,-32
1491088312280,0,1,1,127,24,33,5,-92,55
1491088312280,0,8,-13,8,58,0,-66,58,-1
1491088312315,1,-12,1,9,21,-17,127,55,1
1491088312315,1,-2,-15,-5,55,-13,-111,-59,7
1491088312316,2,-14,5,-43,17,44,-101,80,-28
1491088312316,2,-1,3,-5,-23,4,127,12,-26
1491088312317,3,18,4,24,9,13,-77,-17,27
1491088312317,3,-2,9,-61,-72,-11,113,50,-30
1491088312318,0,-18,1,-4,83,20,-23,-11,-44
1491088312318,0,35,3,-74,-44,20,-93,-128,63
1491088312353,1,-4,-14,-25,28,-24,-27,19,-3
1491088312353,1,3,22,-17,21,8,67,4,-56
1491088312354,2,-16,-3,-38,-45,46,95,124,10
1491088312354,2,26,22,31,-80,-34,-70,-101,3
1491088312355,3,-8,-2,-3,-8,-14,106,92,-10
1491088312355,3,1,13,-19,6,24,-83,-81,4
1491088312355,0,-2,-9,-42,-34,-80,99,52,-39
1491088312355,0,0,6,38,36,-4,9,127,37
1491088312390,1,3,21,5,-25,-21,76,-123,-76
1491088312390,1,-15,-25,-11,127,109,-69,107,12
1491088312391,2,14,-5,-4,-54,4,75,-96,9
1491088312391,2,3,-1,18,40,12,-37,127,60
1491088312392,3,-15,-20,-12,-19,9,-34,-121,-37
1491088312392,3,-6,11,2,-87,-61,-1,-38,-38
1491088312428,0,18,4,-23,47,5,-103,76,40
1491088312428,0,-7,-12,2,-18,7,15,-65,2
1491088312430,1,-7,-6,-9,-16,-9,64,48,3
1491088312430,1,10,16,18,23,8,-63,-98,32
1491088312431,2,-2,7,-1,-7,10,-53,9,-40
1491088312431,2,1,6,9,-10,-37,76,-5,-8
1491088312432,3,0,-14,-1,-7,-25,-26,54,-8
1491088312432,3,-11,-11,-10,-60,-93,2,2,0
1491088312503,0,10,11,-21,-18,74,83,94,42
1491088312503,0,-20,-23,16,127,70,-30,-5,-39
1491088312504,1,16,6,33,15,26,63,-37,70
1491088312504,1,10,-21,-71,-62,-57,-49,84,1
1491088312504,2,-17,-8,-10,-47,-48,11,-8,-2
1491088312504,2,-8,8,13,-101,-44,53,32,-4
1491088312505,3,-13,-8,-21,77,28,-93,-78,-38
1491088312505,3,-7,-11,-15,-17,-53,77,-28,22
1491088312540,0,7,14,26,-8,-35,-128,-101,-19
1491088312540,0,-6,19,28,29,15,127,92,-12
1491088312541,1,-10,-40,-38,-64,23,-47,-84,-9
1491088312541,1,3,2,2,114,109,-47,127,62
1491088312542,0,24,6,15,43,13,-61,-17,7
1491088312542,0,-2,-17,-13,-55,8,19,-66,2
1491088312543,1,7,29,2,-119,-89,12,36,-29
1491088312543,1,-16,-42,-49,55,64,-16,8,19
1491088312578,2,-9,9,24,25,-11,19,5,-9
1491088312578,2,7,1,-12,25,2,-101,6,-4
1491088312579,3,-14,-11,1,-35,-24,55,25,1
1491088312579,3,-7,22,30,-5,3,123,54,-32
1491088312580,0,7,-30,-34,-17,24,58,-67,44
1491088312580,0,-4,19,37,26,-15,83,81,-35
1491088312581,1,13,-5,-13,-9,28,-43,-54,-10
1491088312581,1,-8,-15,-17,-15,0,15,59,14
1491088312615,2,0,12,-4,-5,-34,-23,47,-5
1491088312615,2,-3,-2,-5,-16,-10,-23,26,-3
1491088312616,3,4,9,23,79,23,-17,-56,-18
1491088312616,3,3,12,17,10,3,12,12,14
1491088312617,0,0,-9,-10,-42,14,-87,-16,7
1491088312617,0,5,-1,-7,-19,-34,-89,-51,9
1491088312618,1,-23,-35,-39,40,-4,53,73,-11
1491088312618,1,6,-8,-3,-58,-28,-36,-128,18
1491088312653,2,-1,-5,1,1,-34,-19,21,-15
1491088312653,2,-2,8,15,11,3,-3,30,-16
1491088312653,3,-4,-14,7,20,38,-43,78,12
1491088312653,3,6,31,20,-16,2,-8,40,-6
1491088312654,0,-1,3,-8,-2,-30,41,-37,0
1491088312654,0,-1,-26,-9,-7,-3,-16,-44,-11
1491088312655,1,3,36,10,17,25,0,59,17
1491088312655,1,-2,13,23,-4,-2,28,51,20
1491088312690,2,-6,-6,-4,-9,-37,81,77,-56
1491088312690,2,12,26,15,36,41,-30,-110,52
1491088312691,3,-14,-35,-32,-7,-19,-3,29,-51
1491088312691,3,3,-11,2,-20,5,-72,-120,-19
1491088312691,0,-10,-51,-35,-18,-13,59,34,24
1491088312691,0,-3,-34,-24,-19,-26,2,-13,-15
1491088312693,1,15,81,92,34,11,-6,39,23
1491088312693,1,-2,-16,-11,1,3,-4,-26,-23
1491088312728,2,-14,-39,-12,10,-8,-24,11,6
1491088312728,2,-7,-36,-22,-14,-4,-8,-117,-30
1491088312729,3,-7,-4,-21,2,8,-14,48,32
1491088312729,3,-11,15,45,-21,0,17,-59,-27
1491088312730,0,-18,22,0,41,18,-16,-11,-22
1491088312730,0,-9,47,0,-73,-52,-4,102,19
1491088312731,1,10,6,-25,46,26,-13,-66,21
1491088312731,1,26,31,27,-25,-23,-78,-21,31
1491088312765,2,4,5,3,-6,-10,-3,38,1
1491088312765,2,6,9,21,12,-7,66,73,-23
1491088312766,3,2,-13,14,-12,-14,9,-30,-26
1491088312766,3,8,18,-34,-70,-3,-69,-68,3
1491088312767,0,14,17,31,103,81,3,42,22
1491088312767,0,3,-4,-20,-73,-54,-45,-11,13
1491088312768,1,-10,-25,-19,38,12,-23,33,-14
1491088312768,1,-13,-33,-23,57,-22,-46,44,-40
1491088312803,2,8,26,-3,-114,-40,-10,-128,22
1491088312803,2,-2,4,24,119,30,41,69,1
1491088312804,3,6,20,-8,-72,-7,-44,-80,-19
1491088312804,3,0,-7,-8,-9,17,-47,95,59
1491088312804,0,18,6,34,62,66,49,80,-22
1491088312804,0,0,-19,-36,66,21,6,38,50
1491088312805,1,-20,0,0,-92,-112,49,41,-46
1491088312805,1,-7,-11,-5,107,80,18,-38,-39
1491088312840,2,-16,-21,-51,-68,19,-72,-67,33
1491088312840,2,-6,16,48,-25,13,29,42,5
1491088312841,3,1,-6,17,58,7,-61,-32,8
1491088312841,3,-7,5,-3,-128,-106,127,126,-9
1491088312842,0,11,2,-4,127,85,-69,-51,24
1491088312842,0,-10,-39,-29,-128,19,21,-128,-36
1491088312878,1,-19,-23,-72,-20,-33,-80,18,-4
1491088312878,1,11,-2,28,46,-3,-41,124,100
1491088312879,2,18,32,-19,-128,-89,1,-93,-57
1491088312879,2,-6,-15,-8,106,65,70,103,55
1491088312880,3,-1,4,49,4,69,127,-76,-82
1491088312880,3,-5,-14,-50,-8,13,-29,61,22
1491088312881,0,-2,0,26,-3,-8,79,-4,15
1491088312881,0,3,-12,-17,-11,29,-72,-108,-45
1491088312915,1,4,16,36,12,34,118,10,30
1491088312915,1,0,2,9,20,10,-91,-60,-18
1491088312924,2,-4,-14,0,-9,-33,77,78,-7
1491088312924,2,-3,11,16,9,-50,29,-18,-33
1491088312925,3,10,-5,-1,9,-1,-66,-2,49
1491088312925,3,-4,-13,-8,-25,16,55,6,1
1491088312953,0,-11,-49,-19,-6,-36,66,-47,12
1491088312953,0,0,25,-7,-16,-33,24,-64,-32
1491088312954,1,-1,-17,26,18,-21,-114,-8,17
1491088312954,1,-5,4,-1,-5,-39,67,7,-15
1491088312954,2,-15,-51,-18,-2,-64,-29,71,-28
1491088312954,2,-3,-12,-12,0,-47,35,-8,7
1491088312955,3,2,24,2,-12,-16,-44,-56,-3
1491088312955,3,-11,-5,6,27,5,-20,49,-17
1491088312990,0,-7,-33,-15,27,30,-128,21,27
1491088312990,0,0,-36,16,-38,22,-19,-33,-52
1491088312991,1,-9,33,-5,-11,18,53,27,31
1491088312991,1,14,-4,27,5,37,-53,-14,-28
1491088312991,2,-3,41,24,15,14,26,36,-2
1491088312991,2,4,60,65,33,14,52,33,-3
1491088312993,3,14,6,-43,-22,13,-32,-27,16
1491088312993,3,-11,-52,-70,-86,-105,-79,3,-9
1491088313028,0,-17,-52,-29,24,20,73,45,-10
1491088313028,0,-3,-35,-26,-73,-60,-101,-72,-19
1491088313030,1,-4,2,-22,61,46,119,127,6
1491088313030,1,8,-17,38,22,32,89,-128,-33
1491088313030,2,6,50,39,15,19,-81,57,-10
1491088313030,2,-2,10,14,81,69,-39,94,38
1491088313065,3,-13,-33,-3,-26,-34,-20,5,-46
1491088313065,3,-4,31,7,16,39,-73,97,54
1491088313066,0,5,-12,-57,22,-30,38,-48,23
1491088313066,0,-1,-4,-20,19,-64,-31,9,17
1491088313067,1,4,-12,-6,-89,-17,13,-48,31
1491088313067,1,-24,-30,-14,70,25,-32,12,-29
1491088313068,2,8,65,49,-46,16,83,-61,-37
1491088313068,2,12,3,-18,3,-5,-43,14,37
1491088313103,3,2,-4,15,35,20,44,-73,23
1491088313103,3,-7,8,-4,-22,-5,85,-38,-26
1491088313104,0,-13,16,7,-3,-2,-70,114,-15
1491088313104,0,24,9,-8,-34,-21,-60,-29,13
1491088313105,1,-2,-34,-14,-5,10,53,84,23
1491088313105,1,6,11,-25,-66,-30,-12,-93,-26
1491088313105,2,19,11,15,45,1,22,19,22
1491088313105,2,-22,-8,-7,-1,17,127,54,11
1491088313140,3,-3,-5,18,29,12,22,13,10
1491088313140,3,-1,4,-15,-13,-25,5,-12,-26
1491088313141,0,7,4,9,15,6,33,38,28
1491088313141,0,3,-15,-10,-21,31,88,-127,-6
1491088313142,1,-1,-2,1,0,-31,80,15,-8
1491088313142,1,-7,4,-4,13,16,127,16,11
1491088313143,2,-17,-11,-10,-35,-32,5,-67,-47
1491088313143,2,-20,8,6,22,1,-74,-29,-34
1491088313178,3,21,-2,7,2,19,3,87,96
1491088313178,3,-1,-8,-16,-17,25,-108,-125,-30
1491088313179,0,0,1,-8,21,10,-20,-19,36
1491088313179,0,-15,-7,-16,-20,-48,63,-73,-31
1491088313180,1,-7,6,4,23,-10,57,26,-23
1491088313180,1,9,14,23,13,27,-39,37,21
1491088313253,2,-4,7,8,-19,-14,-48,-25,-32
1491088313253,2,-5,5,-16,5,16,-82,-44,-19
1491088313255,3,-8,-7,2,-14,-12,-121,-7,-23
1491088313255,3,8,-5,-5,10,18,127,-13,42
1491088313256,0,-16,-11,-9,-7,-2,13,-128,-64
1491088313256,0,5,8,19,42,25,45,67,56
1491088313256,1,0,-7,-11,-30,-31,-128,-79,-34
1491088313256,1,3,8,13,13,-3,-106,97,12
1491088313291,2,-12,-15,-30,-37,-34,-128,-107,-48
1491088313291,2,9,3,-5,-21,-22,-116,40,8
1491088313292,3,-2,-14,-6,-54,-5,-8,-99,-30
1491088313292,3,-1,-2,-18,42,-24,-109,43,6
1491088313293,0,5,1,7,-5,-12,-60,24,24
1491088313293,0,2,6,11,22,37,-121,87,10
1491088313403,2,4,-9,8,42,75,-12,-47,33
1491088313403,2,7,-5,-12,-32,29,-26,96,29
1491088313404,3,-12,-7,-3,72,17,-10,-18,-9
1491088313404,3,7,4,3,-34,-19,119,11,24
1491088313404,0,-13,2,-8,-14,-76,16,17,-36
1491088313404,0,1,-9,11,2,94,127,-35,1
1491088313405,2,-5,1,-4,-14,-14,101,77,13
1491088313405,2,1,-12,-19,-27,-24,89,70,9
1491088313441,3,7,-4,-1,3,42,20,-42,-16
1491088313441,3,4,-3,-7,-7,-12,127,-17,8
1491088313442,0,4,4,14,12,13,-48,-33,23
1491088313442,0,-5,3,2,0,-3,25,-65,-14
1491088313443,1,-16,-9,-6,-8,-16,29,48,-15
1491088313443,1,-8,0,9,16,13,-58,-74,-30
1491088313478,1,-1,-21,-25,-8,58,73,127,32
1491088313478,1,-7,-5,1,19,8,11,-21,-13
1491088313479,2,13,25,16,-20,-10,-36,20,-18
1491088313479,2,-3,-4,-5,-10,-36,-23,-37,-8
1491088313479,3,-2,2,-7,18,21,35,24,8
1491088313479,3,-3,6,13,-16,-47,-55,-58,-11
1491088313480,1,-7,0,-3,-22,-30,20,10,-1
1491088313480,1,2,-1,-8,-35,-32,-56,36,11
1491088313515,2,-11,-5,-2,21,25,28,-7,-26
1491088313515,2,10,10,9,19,-11,-33,41,13
1491088313516,3,-2,1,6,-9,7,-50,-27,-2
1491088313516,3,4,-9,-12,6,28,102,-15,6
1491088313517,1,-4,-3,-5,13,-2,-38,-33,4
1491088313517,1,0,9,8,13,-10,50,-1,6
1491088313518,2,-7,-17,-17,-30,-32,125,42,13
1491088313518,2,4,5,-5,2,15,35,44,16
1491088313553,3,8,26,27,24,0,-120,-51,18
1491088313553,3,-12,-3,-17,-9,-2,-128,-4,-13
1491088313554,0,-2,-3,-2,-30,-16,-128,-77,-9
1491088313554,0,-5,-14,2,45,6,-113,65,-9
1491088313555,1,1,11,19,10,-34,-115,-50,-21
1491088313555,1,0,-24,-31,-78,2,-73,-31,13
1491088313555,2,-4,-4,17,84,17,-49,1,-21
1491088313555,2,6,43,17,-21,-9,-3,-23,9
1491088313590,3,-8,-24,-21,-31,-25,36,30,-4
1491088313590,3,1,-48,-21,26,53,-73,24,21
1491088313591,0,5,61,30,-26,3,-48,-28,2
1491088313591,0,-8,-8,-21,-14,-32,86,-9,-4
1491088313592,1,0,-41,9,36,36,-37,93,12
1491088313592,1,14,64,13,-8,-8,60,8,27
1491088313593,2,-8,-10,-10,1,5,52,42,-50
1491088313593,2,3,-23,20,24,37,-10,0,22
1491088313628,3,4,41,2,-23,-26,100,57,-4
1491088313628,3,2,-2,-8,-10,-30,-65,-29,-2
1491088313628,0,-1,-1,19,-5,11,29,14,19
1491088313628,0,-15,-25,-37,-28,-55,127,-13,-59
1491088313629,1,8,-10,-20,-35,32,-68,-21,24
1491088313629,1,-9,-17,9,35,25,112,-11,-8
1491088313630,2,-1,16,-6,5,1,-42,-33,12
1491088313630,2,0,-29,4,9,19,80,-15,-2
1491088313665,3,1,6,-24,5,-84,-85,7,-10
1491088313665,3,-4,-38,-31,-37,18,65,-26,26
1491088313666,0,-5,-25,-21,4,22,95,19,0
1491088313666,0,2,45,23,-18,-17,73,-18,0
1491088313667,1,-13,-3,2,2,3,127,98,-22
1491088313667,1,7,-2,26,35,-17,120,-47,-13
1491088313668,2,-3,-60,-22,13,9,127,-63,3
1491088313668,2,-7,20,-4,-26,-9,-111,10,-27
1491088313703,3,3,-1,7,-6,16,-60,11,9
1491088313703,3,-3,11,-1,-31,-34,-79,4,-4
1491088313704,0,-8,-24,-38,-6,-2,-128,-39,-24
1491088313704,0,1,-14,10,24,29,-128,3,19
1491088313704,1,-1,10,10,9,4,-98,26,-9
1491088313704,1,1,-2,7,-17,-7,-115,-33,-13
1491088313705,2,6,1,4,18,-1,-89,51,3
1491088313705,2,8,-2,-14,-8,16,-34,-67,14
1491088313740,3,-2,-9,9,7,9,2,-10,-11
1491088313740,3,-2,22,13,-2,-6,3,120,2
1491088313741,0,13,20,18,48,13,90,-106,13
1491088313741,0,-15,-23,-28,-45,-19,-105,45,-6
1491088313742,1,10,2,-23,-12,8,52,51,30
1491088313742,1,-6,2,-2,-49,-16,39,15,-21
1491088313743,2,0,4,18,40,-1,-2,3,-12
1491088313743,2,5,18,24,22,-15,29,3,20
1491088313778,3,-7,-21,-25,-38,11,14,-128,-20
1491088313778,3,-14,12,1,4,-25,78,-36,-25
1491088313779,0,7,-9,-20,-54,-21,81,127,51
1491088313779,0,2,-10,11,44,45,69,-39,24
1491088313779,1,18,40,39,47,30,-81,1,-18
1491088313779,1,-3,-2,-17,-76,-64,-57,-109,-33
1491088313780,2,0,-8,-8,48,21,-128,-55,-22
1491088313780,2,9,0,-9,8,-7,-35,127,37
1491088313815,3,-17,-25,-9,-15,12,4,-95,-30
1491088313815,3,12,22,23,26,12,-18,104,32
1491088313816,0,-20,-21,-18,-72,-13,-6,-27,-15
1491088313816,0,8,5,3,7,-28,51,-62,-24
1491088313817,1,-12,-13,10,55,50,-17,-102,-29
1491088313817,1,-13,-3,-9,-43,-43,-31,-17,11
1491088313818,2,0,18,13,15,-6,37,102,9
1491088313818,2,-4,-7,-12,-28,10,100,-76,27
1491088313853,3,10,1,-14,-4,8,127,94,37
1491088313853,3,-13,-4,8,29,6,127,-20,-20
1491088313854,0,12,15,17,11,22,-115,60,21
1491088313854,0,-18,-4,-2,-29,-5,0,34,-29
1491088313855,1,7,13,10,17,8,37,-21,14
1491088313855,1,-8,-23,-4,19,46,-128,-8,-28
1491088313890,2,-14,3,-11,-14,-45,-120,-114,-41
1491088313890,2,17,-14,-15,1,-12,-128,18,2
1491088313891,3,-6,4,-9,-49,-16,-106,8,4
1491088313891,3,13,14,9,-24,-12,-128,-19,-27
1491088313893,0,-1,-13,-5,68,45,16,-81,2
1491088313893,0,-31,-5,-4,-20,-18,53,-33,-29
1491088313895,1,-13,-6,-12,-16,-43,127,-21,9
1491088313895,1,22,17,4,33,-1,-36,87,22
1491088313929,2,-1,-27,-13,-33,12,29,-95,19
1491088313929,2,14,12,1,-16,9,-43,97,2
1491088313931,3,-11,-19,-9,-17,-61,-128,-18,-10
1491088313931,3,-8,-4,-16,23,9,127,-28,-10
1491088313933,0,-5,4,12,-8,45,7,95,9
1491088313933,0,9,6,0,14,47,54,71,11
1491088313934,1,-28,-16,19,33,-6,14,-62,-24
1491088313934,1,-3,2,-7,-4,-30,-15,-68,7
1491088313965,2,11,-7,-11,-5,-16,124,41,-15
1491088313965,2,3,-9,-16,-23,-43,127,-67,11
1491088313967,3,36,11,5,-1,36,88,102,0
1491088313967,3,-7,8,24,47,10,-102,-32,-10
1491088313967,0,-6,12,-15,-53,-9,-55,-54,-24
1491088313967,0,-11,-22,-13,-14,-23,-128,-58,3
1491088313968,1,-18,-7,-5,-5,-8,-61,38,20
1491088313968,1,0,-8,-2,14,10,-32,15,34
1491088314040,2,-15,15,18,-5,-10,4,-18,-42
1491088314040,2,11,14,5,14,-10,-51,4,-11
1491088314041,3,0,-8,-10,-18,-11,72,76,12
1491088314041,3,-10,-11,-2,-8,16,-10,-52,-1
1491088314042,0,3,0,-3,0,-6,-51,-30,2
1491088314042,0,9,5,7,-23,-4,-77,0,12
1491088314043,1,-11,-12,-17,31,8,-47,51,-6
1491088314043,1,22,7,6,30,35,31,29,14
1491088314078,2,-10,5,0,-16,-56,4,-98,-17
1491088314078,2,1,5,10,1,-1,-44,64,-3
1491088314079,3,28,-6,-13,-36,11,11,-12,7
1491088314079,3,-2,13,25,27,14,-6,-3,6
1491088314079,0,8,-16,-34,-12,-5,50,20,26
1491088314079,0,-14,-12,-1,7,-30,-12,-93,-26
1491088314080,1,-46,-1,-16,-33,-9,54,-10,-19
1491088314080,1,33,-8,-5,18,2,24,-13,-2
1491088314115,2,26,12,21,10,13,37,72,42
1491088314115,2,-12,6,9,-2,16,46,-33,-34
1491088314153,3,5,7,-2,-2,-28,-37,-57,-3
1491088314153,3,-18,-10,-16,-29,-43,-17,-5,5
1491088314155,1,0,12,31,65,57,0,-78,-1
1491088314155,1,-4,-7,-14,-24,-15,65,-10,-22
1491088314156,2,0,-4,-4,-26,-15,-63,5,14
1491088314156,2,-18,-13,-10,60,5,-75,-7,-6
1491088314157,3,4,-1,6,-16,-1,63,2,0
1491088314157,3,-6,0,0,14,-10,-51,-54,-27
1491088314190,0,-6,5,13,9,6,5,-68,-18
1491088314190,0,23,1,-6,-41,-15,66,67,50
1491088314265,1,1,6,1,-3,-6,-48,5,7
1491088314265,1,5,-15,-21,-17,15,-12,-27,2
1491088314267,2,-4,-8,-5,-23,-15,-2,-83,-22
1491088314267,2,-7,8,17,7,15,20,22,4
1491088314340,0,1,-5,-3,38,15,-28,-10,-12
1491088314340,0,-7,1,0,15,1,2,-32,-1
1491088314341,1,7,-4,-10,-52,-24,-51,-25,-9
1491088314341,1,-6,1,8,38,33,24,6,-4
1491088314342,2,-19,-4,-5,13,-18,37,53,1
1491088314342,2,14,-4,3,-1,12,1,56,31
1491088314343,0,12,-2,3,-12,4,-17,-38,-5
1491088314343,0,-7,2,1,13,7,14,62,-13
1491088314378,1,-7,-11,-14,-17,-10,-45,-85,20
1491088314378,1,-14,4,13,-3,-24,6,1,-17
1491088314380,3,-25,1,3,10,-11,4,-79,-5
1491088314380,3,30,4,3,-26,-6,30,-9,-3
1491088314381,0,-4,4,10,39,6,-41,-6,-7
1491088314381,0,0,-1,-3,-27,-28,12,12,11
1491088314382,3,-7,7,12,-5,16,-48,16,-24
1491088314382,3,9,-1,-5,-7,-4,-107,-6,1
1491088314415,0,-5,-12,-21,-11,-17,-128,-46,1
1491088314415,0,5,-9,-9,-13,-27,-74,50,18
1491088314416,1,-4,0,-8,-31,-26,-13,-85,-10
1491088314416,1,-1,-1,10,34,50,-11,56,5
1491088314417,3,-1,0,-7,-6,-23,-4,-7,5
1491088314417,3,-14,1,-19,-36,-8,74,34,-2
1491088314418,0,2,-11,-5,-1,11,14,40,0
1491088314418,0,0,0,-1,2,8,30,-2,0
1491088314490,1,1,11,5,7,-21,-35,-44,-6
1491088314490,1,8,1,3,8,33,1,-51,-5
1491088314492,2,-6,-12,-6,-10,9,43,48,11
1491088314492,2,-1,-6,-9,-5,-30,-5,9,9
1491088314493,3,0,-9,-15,-20,1,29,-33,-11
1491088314493,3,-1,8,10,3,-28,-68,23,15
1491088314497,0,-4,-2,-2,2,16,33,5,-1
1491088314497,0,-7,-4,-1,3,10,4,-17,-13
1491088314528,1,8,7,8,23,6,-27,-8,3
1491088314528,1,-9,-11,-16,-40,-17,59,10,-9
1491088314529,2,15,17,9,29,-2,-33,-15,-1
1491088314529,2,-2,2,-7,-5,10,16,57,18
1491088314529,3,-4,-1,-79,-8,10,21,-20,-14
1491088314529,3,12,-2,-113,-20,-23,-46,15,-6
1491088314530,2,-4,-18,127,-14,-4,-41,17,15
1491088314530,2,4,7,105,-6,-2,-1,-1,-7
1491088314565,3,-5,-7,74,-4,10,28,-11,6
1491088314565,3,-5,-3,65,17,24,-2,27,1
1491088314567,0,-5,12,24,-13,-28,2,25,0
1491088314567,0,-1,7,-5,18,2,-27,-13,-19
1491088314569,2,23,-11,-23,-16,-10,-46,-53,4
1491088314569,2,5,0,-36,-23,-24,-4,10,12
1491088314569,3,-2,-1,-27,1,-1,5,91,10
1491088314569,3,7,2,-14,-1,-13,-12,-47,-19
1491088314603,0,-13,-9,-15,7,36,77,-23,-2
1491088314603,0,-4,1,-16,26,3,-11,2,-7
1491088314604,1,17,5,-26,-24,-13,-6,-48,2
1491088314604,1,-2,0,-21,9,-14,-24,44,15
1491088314604,2,-2,3,4,-1,23,19,55,-4
1491088314604,2,24,3,-19,0,12,0,17,32
1491088314641,3,-10,-5,-23,-10,-29,42,-34,-32
1491088314641,3,-4,0,-12,-1,-3,-69,7,28
1491088314642,0,5,-6,-14,-5,16,-2,-52,5
1491088314642,0,-5,0,-12,-6,-8,-26,-6,-8
1491088314644,1,-2,7,8,25,10,-25,43,1
1491088314644,1,20,-5,-12,-20,-10,57,0,21
1491088314678,2,-15,-5,-15,-10,-34,-28,-55,-25
1491088314678,2,-6,-6,-14,-8,14,14,50,4
1491088314679,3,-1,3,6,21,12,10,-13,0
1491088314679,3,6,9,2,21,4,-55,-42,-30
1491088314679,0,-2,-6,-12,-28,-24,3,43,21
1491088314679,0,7,3,1,-3,-19,18,-41,-15
1491088314680,1,-9,-4,-7,-14,12,13,54,9
1491088314680,1,-4,-22,-24,21,16,41,13,9
1491088314715,2,-22,-1,8,12,-16,-49,-64,-9
1491088314715,2,12,2,-9,7,0,1,77,-5
1491088314716,3,1,-6,-5,1,0,30,10,14
1491088314716,3,1,6,2,-20,-3,-43,-32,-22
1491088314716,0,-9,1,-3,-2,-16,27,-13,0
1491088314716,0,-20,-3,-5,-8,13,3,-34,-17
1491088314718,1,-13,-5,-9,-2,12,9,-3,-28
1491088314718,1,9,-5,-11,-13,-4,13,-7,16
1491088314753,2,-3,12,6,16,3,9,-5,9
1491088314753,2,-16,-3,-5,-10,-17,30,42,-20
1491088314754,3,1,-8,-8,-1,26,-53,-54,-17
1491088314754,3,-9,-7,-3,-18,-13,1,20,3
1491088314754,0,17,-6,-5,-6,-7,-5,-26,2
1491088314754,0,-6,-3,-1,1,-13,-6,-10,8
1491088314755,1,2,-1,-8,2,-11,-16,12,2
1491088314755,1,2,12,17,-2,15,-13,-73,-10
1491088314790,2,1,-10,-6,-4,-1,-47,25,5
1491088314790,2,9,0,1,8,5,45,27,11
1491088314793,3,2,-4,-1,0,-31,9,-19,-19
1491088314793,3,1,-3,1,3,28,-58,15,13
1491088314794,0,-7,-7,2,3,13,26,13,-2
1491088314794,0,-6,-5,-7,-1,17,-2,-38,-5
1491088314794,1,1,14,10,-1,-28,1,37,-5
1491088314794,1,-7,-6,-3,-2,8,44,-21,-3
1491088314828,2,-9,3,2,20,2,35,-31,-35
1491088314828,2,8,0,-2,0,9,-20,4,37
1491088314829,3,6,-4,-10,-22,-9,-17,31,33
1491088314829,3,-8,0,0,5,-12,-11,-32,-10
1491088314829,0,6,11,1,-4,-8,-45,40,-24
1491088314829,0,-8,-3,-8,-14,-13,-17,-6,-4
1491088314830,1,-6,3,7,16,26,7,26,8
1491088314830,1,3,-5,-3,-15,-24,1,-2,-3
1491088314865,2,-6,9,11,20,39,-7,-18,18
1491088314865,2,-11,-7,-3,17,-18,25,-7,-22
1491088314866,3,-1,6,-6,-21,-13,-17,-26,4
1491088314866,3,-4,-8,-4,-14,-6,53,36,-2
1491088314867,0,11,-9,-7,-13,-10,-8,50,-7
1491088314867,0,-5,5,8,28,9,-8,-66,-33
1491088314868,1,-7,8,-6,-22,-57,-95,-25,4
1491088314868,1,-9,-16,-17,-1,70,102,16,15
1491088314903,2,-10,-8,-8,-6,-15,5,-39,-24
1491088314903,2,8,-1,-6,-23,-11,-12,96,13
1491088314904,3,8,-3,-1,21,16,20,-52,-8
1491088314904,3,6,10,5,26,-34,-57,23,-1
1491088314904,0,-2,-8,-4,-10,-3,-19,7,6
1491088314904,0,-10,-13,-2,-12,4,10,-39,-10
1491088314905,1,-6,-3,11,-5,-8,-9,-14,-13
1491088314905,1,0,7,-1,-1,-1,15,46,18
1491088314940,2,-4,-7,-4,1,2,5,-29,22
1491088314940,2,-7,13,9,-2,-25,-45,14,-12
1491088314941,3,6,5,16,27,41,58,28,7
1491088314941,3,0,-2,2,1,33,25,-47,-6
1491088314941,0,-4,-1,-4,-15,-42,-93,-34,-31
1491088314941,0,-4,-10,-15,-20,32,40,7,1
1491088314943,1,4,-3,-4,-7,-16,27,-19,14
1491088314943,1,-6,2,16,42,29,29,3,8
1491088314978,2,-8,25,20,-85,-83,-19,21,-20
1491088314978,2,15,-14,-10,64,62,22,-64,14
1491088314979,3,-18,-12,-2,27,42,37,9,9
1491088314979,3,-13,-13,-28,-23,-67,33,-5,-37
1491088314979,0,19,2,11,2,40,-96,5,6
1491088314979,0,-20,-6,-9,-125,-84,65,-27,6
1491088314980,1,-4,-10,-14,95,34,5,-13,-18
1491088314980,1,1,-2,8,2,13,-69,-75,9
1491088315015,2,1,-8,8,39,23,44,51,0
1491088315015,2,7,-1,14,5,11,36,-11,-9
1491088315016,3,-11,6,1,-53,-7,-13,10,-9
1491088315016,3,4,34,10,-3,-60,-119,-17,-62
1491088315017,0,48,-12,-22,20,72,127,49,49
1491088315017,0,-3,0,-9,-31,-28,-124,51,21
1491088315018,1,-3,4,31,42,39,-29,-68,-2
1491088315018,1,-38,-5,-13,-21,-75,-64,-52,-19
1491088315053,2,12,2,5,-9,23,66,76,-1
1491088315053,2,9,8,3,-9,29,-124,-105,-19
1491088315054,3,-8,-10,-13,2,-24,127,112,14
1491088315054,3,-6,-5,-16,-48,-86,-74,-1,-36
1491088315055,0,-14,-17,-15,37,100,89,-85,78
1491088315055,0,-8,3,-10,-28,-69,107,-5,-60
1491088315055,1,-2,-8,23,-70,29,-89,9,47
1491088315055,1,16,20,-20,6,-21,-34,10,7
1491088315090,2,-10,7,-8,-111,-93,70,25,-42
1491088315090,2,-27,-31,-30,112,94,-37,-75,28
1491088315091,3,30,0,-7,-84,-104,7,33,-2
1491088315091,3,-9,-18,15,59,104,39,-40,-22
1491088315092,0,4,22,-18,-21,62,70,64,82
1491088315092,0,25,8,-2,-37,-49,-10,59,42
1491088315093,1,23,-1,-18,24,-4,3,-46,-12
1491088315093,1,21,5,56,-4,60,-13,57,10
1491088315128,2,-13,49,89,-15,-59,2,-17,-87
1491088315128,2,-3,-8,-60,127,94,-63,-86,-31
1491088315129,3,-25,-24,-14,4,-90,32,-114,-3
1491088315129,3,4,0,-34,-114,37,-39,118,35
1491088315130,0,-10,-55,-62,81,30,26,-90,22
1491088315130,0,-10,32,49,-110,-72,41,127,-29
1491088315166,1,36,12,29,36,97,-10,-102,43
1491088315166,1,-2,-28,-22,-39,60,127,-5,0
1491088315167,2,-15,41,7,28,-71,-128,44,-64
1491088315167,2,18,-5,41,25,99,126,-102,26
1491088315168,3,-19,-14,-26,-39,45,-79,102,-13
1491088315168,3,-4,28,74,-27,-40,114,-38,-46
1491088315169,0,1,-45,-121,84,-16,-58,88,36
1491088315169,0,-12,-19,-2,38,29,10,26,71
1491088315203,1,-3,22,12,-20,-86,-23,15,-8
1491088315203,1,-12,-7,12,58,17,3,-114,-16
1491088315204,2,0,18,65,-50,5,127,-51,-71
1491088315204,2,-2,5,-2,41,-101,-128,-25,-37
1491088315204,3,2,3,-18,1,-12,124,127,13
1491088315204,3,-18,-8,-11,43,-64,-74,-47,23
1491088315205,0,-38,2,7,-39,-54,-116,-20,12
1491088315205,0,-16,-3,33,20,-8,97,92,6
1491088315240,1,-5,-1,-50,-117,-70,-108,-120,-57
1491088315240,1,-27,-48,-57,108,-128,-48,71,45
1491088315241,2,19,3,42,-28,-1,-8,6,12
1491088315241,2,29,10,12,10,49,14,73,-8
1491088315242,3,16,11,41,79,27,98,-23,-48
1491088315242,3,34,36,17,-91,-46,25,87,7
1491088315243,0,-7,-66,-84,-66,-2,-27,-128,41
1491088315243,0,2,-4,34,12,-24,105,-23,-7
1491088315278,1,-12,-8,-41,9,-5,-74,5,-15
1491088315278,1,17,29,60,0,66,123,4,-14
1491088315279,2,13,-3,10,126,53,-87,14,35
1491088315279,2,-8,-8,-43,-104,-111,5,-14,-7
1491088315279,3,-2,17,64,112,56,34,-16,-27
1491088315279,3,-14,13,-14,-93,-97,75,6,-19
1491088315315,0,-25,-32,-78,71,-28,-33,22,-67
1491088315315,0,-48,-19,-34,-88,-17,-20,-102,25
1491088315316,1,-30,9,19,44,16,23,-50,4
1491088315316,1,-6,-6,-3,-31,73,31,54,1
1491088315317,2,8,33,63,-29,94,4,21,-16
1491088315317,2,-4,-5,-43,64,118,-128,-22,-7
1491088315318,3,-17,-36,-26,-19,-1,92,39,41
1491088315318,3,26,19,27,39,26,73,62,-18
1491088315353,0,55,-10,1,-36,-96,-77,-92,4
1491088315353,0,57,-3,9,-57,-84,-60,-40,-25
1491088315353,1,70,11,20,-16,56,-12,36,43
1491088315353,1,37,-45,-102,68,-50,-99,-73,11
1491088315354,2,28,-23,0,-38,33,72,72,20
1491088315354,2,46,52,23,-87,-71,70,96,-31
1491088315355,3,-5,-75,-106,69,41,-97,-51,46
1491088315355,3,-12,-5,-2,-14,74,118,-54,0
1491088315390,0,-26,19,29,20,34,56,74,5
1491088315390,0,-46,24,61,49,63,49,51,-22
1491088315391,1,-26,35,40,-55,-1,-35,23,-42
1491088315391,1,6,-15,-38,15,17,-9,-63,10
1491088315391,2,-44,1,14,-17,-6,41,15,-12
1491088315391,2,-5,25,86,127,76,40,-30,-10
1491088315393,3,-31,-27,-105,-100,-93,-19,69,28
1491088315393,3,-32,-10,11,-66,-2,46,-48,-24
1491088315428,0,-39,-19,-38,-77,-83,-78,-116,-2
1491088315428,0,-15,-1,13,61,41,84,84,17
1491088315429,1,8,6,-6,-61,18,61,66,-50
1491088315429,1,-1,-14,27,40,33,-105,-23,41
1491088315430,2,19,25,52,80,45,57,31,-9
1491088315430,2,9,-4,-56,-46,-55,-5,-25,-24
1491088315466,3,-21,-33,19,25,-41,-76,-50,17
1491088315466,3,-24,2,17,-34,8,-68,37,-33
1491088315466,0,3,8,-10,-30,19,22,3,18
1491088315466,0,-23,-13,-52,3,-19,8,0,-10
1491088315467,1,13,38,83,42,49,-67,2,41
1491088315467,1,-7,-16,-35,6,-14,55,38,-3
1491088315468,2,-25,1,39,-26,-31,84,-80,-51
1491088315468,2,14,-26,-39,-91,5,82,49,59
1491088315540,3,-4,-11,-16,25,-1,-51,-56,-27
1491088315540,3,-12,-21,3,13,5,0,18,18
1491088315541,0,4,18,44,43,63,67,100,9
1491088315541,0,18,10,-28,-9,20,6,15,-5
1491088315542,1,9,36,90,102,107,-28,-103,-15
1491088315542,1,17,17,-55,8,-38,-74,69,8
1491088315543,2,-10,-1,-3,68,22,45,41,21
1491088315543,2,-14,-13,-13,-32,-51,-76,-15,-16
1491088315578,3,5,14,19,19,9,84,57,4
1491088315578,3,7,18,33,17,47,59,-22,-12
1491088315579,0,4,20,-2,1,0,92,-22,-3
1491088315579,0,-9,-11,-8,28,25,85,-31,-8
1491088315579,3,0,-6,24,83,61,-108,36,-10
1491088315579,3,14,16,-6,-30,57,-110,7,-5
1491088315580,0,6,-8,-55,55,1,-128,-14,18
1491088315580,0,-14,2,19,-23,45,-128,-20,-22
1491088315615,1,0,-14,-72,-32,-99,-110,-22,28
1491088315615,1,-1,-5,1,-5,21,-125,-5,13
1491088315616,2,-5,17,0,-62,-3,-92,-29,-18
1491088315616,2,22,3,37,14,72,-20,-4,33
1491088315616,3,0,-7,-11,-19,15,38,21,-22
1491088315616,3,7,-14,-1,-13,44,36,-13,-4
1491088315618,0,-3,-33,-27,-9,-75,8,-5,14
1491088315618,0,0,-13,11,19,-21,13,-10,-11
1491088315653,1,-13,-20,-37,-53,-23,60,-12,10
1491088315653,1,-10,21,16,16,28,111,14,-9
1491088315654,2,14,12,-16,-43,-20,82,5,-12
1491088315654,2,1,-1,4,2,-52,25,-10,7
1491088315654,3,14,8,16,-57,-72,48,9,0
1491088315654,3,-21,-30,-44,-26,-94,71,5,-3
1491088315655,0,-6,-7,32,11,-92,-1,13,20
1491088315655,0,-7,-6,-14,3,-104,27,-36,5
1491088315690,1,-20,-14,-26,-41,-128,116,-2,-13
1491088315690,1,8,21,35,34,11,93,24,8
1491088315691,2,9,-1,-18,-25,-58,-48,6,-8
1491088315691,2,-9,2,30,-18,9,-44,5,-24
1491088315692,3,21,15,1,-15,-26,-79,-17,14
1491088315692,3,6,-9,23,35,-29,-86,39,23
1491088315728,0,-9,-2,10,-18,-40,115,-42,-18
1491088315728,0,1,5,-13,3,-46,114,18,10
1491088315730,1,9,-5,0,-22,-63,-97,1,-2
1491088315730,1,2,32,-3,-2,-56,-34,-25,3
1491088315731,2,7,-3,-9,-21,-25,-128,0,5
1491088315731,2,-23,11,-9,-6,-17,-64,-9,-39
1491088315732,3,-4,-8,-11,7,-17,-32,-26,6
1491088315732,3,12,35,40,18,-8,-27,21,3
1491088315766,0,4,22,-11,-13,15,-14,-42,-7
1491088315766,0,-8,9,-21,7,11,57,-53,0
1491088315803,1,2,12,18,3,16,22,39,8
1491088315803,1,10,7,-18,-23,0,27,-8,-33
1491088315804,2,26,9,10,12,39,39,27,-10
1491088315804,2,8,23,-24,-7,16,21,8,15
1491088315805,3,-10,21,5,-7,29,-15,-24,-15
1491088315805,3,-24,-11,-8,12,0,-51,18,15
1491088315807,0,1,9,26,2,4,47,25,6
1491088315807,0,3,2,0,-8,20,-87,-44,15
1491088315841,1,-25,-16,-1,4,0,-9,12,6
1491088315841,1,-3,-8,8,25,53,-19,-22,-30
1491088315842,2,-1,18,10,-3,35,-20,4,-4
1491088315842,2,10,-8,1,-12,-19,-113,-3,10
1491088315843,3,-2,-2,7,12,24,-2,-31,-6
1491088315843,3,24,-12,0,18,12,-15,-6,2
1491088315878,1,3,-20,-17,-9,9,-40,-12,-7
1491088315878,1,-18,-11,17,28,21,-18,27,4
1491088315879,2,-22,-2,-2,8,52,9,-6,-16
1491088315879,2,3,5,15,23,46,-42,-5,29
1491088315880,3,-12,2,-12,-26,58,-14,-5,-19
1491088315880,3,-10,0,-14,-4,-33,-19,-25,9
1491088315881,1,-12,17,2,-3,45,83,3,-8
1491088315881,1,-9,1,6,11,-27,-11,-33,8
1491088315915,2,-6,-28,-21,-2,-5,64,-19,14
1491088315915,2,-16,-20,-13,-14,-3,-25,-12,-11
1491088315917,3,6,-10,9,8,30,53,16,-12
1491088315917,3,-11,-9,-7,-27,18,-5,30,1
1491088315918,0,-1,5,7,-18,19,4,14,-4
1491088315918,0,1,-18,12,20,-72,-49,-21,30
1491088315919,1,-5,-13,-38,-8,3,-24,19,0
1491088315919,1,6,-25,-18,-29,-47,6,9,28
1491088315990,2,-9,-16,-8,-2,32,43,-36,-13
1491088315990,2,5,20,-3,5,25,-6,43,2
1491088315992,3,1,23,12,14,-41,-9,5,15
1491088315992,3,-13,7,-3,-10,64,0,-19,-39
1491088315993,0,-3,26,-6,16,-24,44,6,14
1491088315993,0,6,-2,-5,-17,23,-39,8,-5
1491088315994,1,9,-22,4,25,-9,38,15,12
1491088315994,1,14,14,-16,-33,12,-77,47,2
1491088316028,2,-7,-16,18,26,-7,-58,-8,-21
1491088316028,2,3,-26,-36,-90,-72,67,24,23
1491088316029,3,7,-27,-24,31,29,41,-3,2
1491088316029,3,-8,-13,13,62,62,67,-31,0
1491088316030,0,5,-12,-9,-11,-26,-73,22,17
1491088316030,0,11,-17,14,88,-9,1,-30,18
1491088316032,0,29,-5,-2,25,-15,44,-21,3
1491088316032,0,12,-8,-16,56,73,-51,22,-23
1491088316066,1,1,9,7,21,-12,28,-43,-16
1491088316066,1,-36,-33,-50,27,-29,51,-42,13
1491088316067,2,5,-15,-12,-54,-28,45,-11,-22
1491088316067,2,2,27,58,27,41,5,28,-5
1491088316068,3,-8,11,-6,-27,-57,-69,32,-14
1491088316068,3,-3,-2,13,56,77,64,-7,-10
1491088316069,0,-10,-13,-31,-21,-3,36,-36,17
1491088316069,0,-73,-4,-14,-57,-43,3,-38,-29
1491088316103,1,17,33,57,69,37,29,68,-14
1491088316103,1,31,0,-26,-15,-43,-49,-43,-13
1491088316104,2,-59,-9,-8,79,19,47,-26,30
1491088316104,2,114,3,10,-117,5,38,52,11
1491088316106,3,81,-8,-14,98,3,-1,-46,23
1491088316106,3,14,-11,-19,-49,-69,-92,10,-3
1491088316107,0,-77,-2,21,-83,7,78,23,-21
1491088316107,0,54,27,-11,111,51,9,-45,11
1491088316140,1,-41,-22,0,1,20,21,-2,6
1491088316140,1,-61,21,18,-82,-17,70,62,-14
1491088316142,2,-49,-14,0,50,-24,-26,-93,-6
1491088316142,2,-46,-4,-8,-25,0,28,-11,-6
1491088316178,3,104,4,-3,-9,-6,-11,25,9
1491088316178,3,65,-10,-8,17,11,6,4,-9
1491088316179,0,39,-1,-12,-46,-50,-90,25,-20
1491088316179,0,6,-11,11,51,5,42,40,-4
1491088316216,1,-21,-21,-13,-58,7,42,-58,-25
1491088316216,1,-13,26,32,50,-1,-85,54,-6
1491088316217,2,32,-11,-23,-71,7,79,-74,11
1491088316217,2,-11,-29,-39,-57,-61,4,4,1
1491088316218,3,-49,13,1,54,36,-115,35,10
1491088316218,3,-9,-14,10,-57,-27,102,-76,-7
1491088316219,0,55,17,19,127,109,-21,77,-4
1491088316219,0,1,-1,-3,1,0,-25,-55,4
1491088316253,1,-38,-2,3,-87,-74,18,-27,-10
1491088316253,1,24,-7,-13,-46,-8,-23,-12,6
1491088316254,2,8,4,19,51,29,-19,53,18
1491088316254,2,-12,24,7,-18,-8,94,2,-24
1491088316255,3,-22,-16,-12,-17,34,50,-27,5
1491088316255,3,-12,4,38,76,34,35,-2,-7
1491088316257,2,4,8,27,66,39,35,-7,9
1491088316257,2,0,-2,7,-32,-9,-13,22,-14
1491088316290,3,-17,3,1,-1,-20,-54,-54,-18
1491088316290,3,-6,-3,-5,-13,-5,13,5,2
1491088316292,0,-27,0,1,-12,-4,-31,18,-17
1491088316292,0,-45,0,-4,-26,-33,-13,33,-12
1491088316293,2,9,-3,-17,-56,-56,-105,-6,-21
1491088316293,2,-4,-13,-20,46,-4,21,-17,11
1491088316294,3,-18,-18,-14,-16,-18,-23,4,-3
1491088316294,3,30,5,7,13,-17,19,-33,-14
1491088316328,0,24,-1,15,47,37,10,73,20
1491088316328,0,-3,25,29,-74,-8,127,32,1
1491088316330,1,6,-8,-9,53,-20,-68,63,19
1491088316330,1,2,1,3,8,-25,37,-79,-10
1491088316331,2,14,-10,-37,-128,-34,-58,22,6
1491088316331,2,15,-4,5,66,43,89,-20,25
1491088316333,3,6,5,2,-35,-31,29,64,16
1491088316333,3,3,-12,1,-6,27,-27,-45,4
1491088316366,0,33,15,20,29,-36,-53,22,14
1491088316366,0,20,-23,-39,-61,-6,-18,-48,-30
1491088316367,1,49,-7,-22,-16,2,-33,-53,-7
1491088316367,1,-67,-8,0,14,11,35,58,-15
1491088316369,2,-24,20,15,6,8,79,-18,-22
1491088316369,2,-15,2,14,52,52,-33,-23,21
1491088316370,3,2,11,10,-95,-60,52,7,-10
1491088316370,3,20,-2,-15,74,24,-89,25,10
1491088316403,0,4,-16,-6,6,24,30,-51,-12
1491088316403,0,0,-10,-6,-73,-65,-28,-16,-9
1491088316404,1,2,13,3,40,4,-73,-42,-24
1491088316404,1,14,-10,-8,-31,6,31,41,23
1491088316404,2,0,13,26,81,30,7,-1,-3
1491088316404,2,9,5,8,23,13,15,38,-17
1491088316405,3,0,-4,-18,-41,-45,-54,-42,-12
1491088316405,3,4,-11,-27,-62,-27,-20,-23,0
1491088316478,0,4,-20,-6,25,29,7,17,30
1491088316478,0,0,9,6,4,12,-23,0,27
1491088316478,1,-7,4,0,22,-1,96,20,-6
1491088316478,1,1,6,18,-4,-29,-3,-5,-10
1491088316479,2,2,-7,-17,-35,-12,-1,-100,-28
1491088316479,2,0,3,1,25,36,-58,29,26
1491088316480,3,-5,-7,4,-18,7,12,17,-14
1491088316480,3,6,-6,-6,42,-6,-41,-56,-20
1491088316515,0,2,-4,-1,-14,-6,49,43,18
1491088316515,0,-3,-2,0,-9,-51,13,-19,-25
1491088316516,1,-1,12,17,73,93,4,-37,-7
1491088316516,1,2,5,-26,-46,-41,-35,-2,-15
1491088316517,2,-1,-20,-12,-37,-13,-78,34,-10
1491088316517,2,-2,-10,-16,-12,-27,43,-62,-13
1491088316518,0,-1,23,12,56,5,-115,-1,4
1491088316518,0,1,-11,4,-4,71,66,-8,23
1491088316553,1,-2,-4,-21,-52,-60,23,68,-5
1491088316553,1,0,-7,-23,-64,-57,-64,-49,-6
1491088316554,2,0,1,16,43,10,-9,-56,-20
1491088316554,2,-1,-3,10,43,-3,33,102,-25
1491088316590,0,-1,1,-11,-35,12,78,40,3
1491088316590,0,-1,9,8,2,-109,-99,-60,-24
1491088316591,1,-2,-29,-28,1,93,19,28,12
1491088316591,1,1,6,19,23,-32,-11,-12,-1
1491088316592,2,0,-1,-7,-26,33,-9,4,9
1491088316592,2,60,-19,-14,23,31,46,-38,1
1491088316593,3,112,-3,-3,-25,-47,-52,33,8
1491088316593,3,127,4,13,-82,-49,46,-38,0
1491088316628,0,127,-9,-8,88,46,-24,16,10
1491088316628,0,100,2,-2,4,-33,22,3,7
1491088316629,1,61,-11,-13,-2,5,19,7,24
1491088316629,1,20,10,17,10,20,70,96,-18
1491088316630,2,-15,22,22,-40,-32,-29,-91,-26
1491088316630,2,-33,13,-5,-1,-24,-128,-8,12
1491088316631,3,-25,-17,-23,-19,0,99,-33,3
1491088316631,3,-45,-7,-5,11,-4,90,17,14
1491088316665,0,-38,5,-7,-20,-14,106,19,-29
1491088316665,0,-101,1,0,43,17,-125,-32,-10
1491088316666,1,-123,-17,4,12,-4,114,39,4
1491088316666,1,-124,21,13,-32,-9,6,39,-29
1491088316667,3,-68,4,-11,22,-26,-36,-33,-11
1491088316667,3,-50,-6,-14,-39,-15,-91,10,42
1491088316668,0,-40,-7,-8,-12,-55,43,40,-39
1491088316668,0,-28,-8,11,17,57,-26,43,6
1491088316703,1,-21,17,16,35,-8,-128,-128,-19
1491088316703,1,-13,-12,-17,-12,42,97,-6,-31
1491088316703,2,3,-12,-10,-3,-27,-88,9,31
1491088316703,2,-26,-12,7,50,71,105,-14,-5
1491088316707,3,-21,15,14,-33,-84,42,18,-50
1491088316707,3,3,2,-14,37,55,19,-71,-12
1491088316707,0,-5,-14,-29,-86,-43,-6,3,41
1491088316707,0,2,1,2,31,44,-25,43,9
1491088316741,1,3,-2,0,16,-8,-1,-47,-17
1491088316741,1,-15,5,21,14,-35,-12,33,11
1491088316742,2,19,6,-1,4,76,25,32,24
1491088316742,2,-7,1,-20,-71,-99,-42,-42,-34
1491088316742,3,1,-3,17,78,82,5,43,27
1491088316742,3,10,-3,2,29,29,46,51,5
1491088316743,0,-29,-9,-4,-9,-32,-59,-70,-25
1491088316743,0,28,21,31,-17,4,-25,-25,23
1491088316778,1,-13,21,23,-37,43,23,103,-40
1491088316778,1,9,-30,-55,4,-38,-128,-108,51
1491088316779,2,-10,-27,-18,15,-29,49,83,-1
1491088316779,2,-8,15,21,-11,-48,24,-5,-12
1491088316779,3,-9,-21,-27,-39,9,8,-24,-10
1491088316779,3,-4,24,49,77,94,71,39,-30
1491088316780,0,7,18,19,-18,-13,1,7,9
1491088316780,0,-4,-17,-23,-23,5,27,-23,-20
1491088316815,1,18,4,13,53,65,21,18,24
1491088316815,1,-2,2,-30,-107,-66,-12,24,8
1491088316816,2,-3,-15,-18,119,11,-108,-50,16
1491088316816,2,3,-11,2,-16,-13,20,93,8
1491088316817,3,-7,-4,-14,-21,-6,29,-71,-15
1491088316817,3,-1,5,9,10,-60,-128,46,13
1491088316818,0,2,-5,0,-34,60,127,-94,-42
1491088316818,0,20,4,-5,-19,-23,4,16,14
1491088316853,1,-3,11,24,-57,-65,39,6,-9
1491088316853,1,-1,-9,-17,86,53,-11,21,14
1491088316854,2,-8,15,76,50,39,-17,36,-30
1491088316854,2,-9,-7,-79,7,16,-7,-34,-4
1491088316856,3,5,-27,-33,-44,-112,-122,-59,12
1491088316856,3,-6,17,44,-4,70,103,2,-30
1491088316856,0,-3,-6,-14,35,-69,-76,-27,-23
1491088316856,0,1,-6,9,-1,22,-49,25,24
1491088316891,1,-1,17,7,-27,-8,-10,102,-19
1491088316891,1,10,-11,-18,-12,-54,34,-110,35
1491088316893,2,-1,-31,-40,-77,47,44,19,69
1491088316893,2,2,19,28,49,3,30,-16,-70
1491088316894,3,-3,4,-15,-19,42,-35,36,24
1491088316894,3,0,-22,-10,-26,-13,-9,4,16
1491088316895,0,8,38,26,-21,-11,117,31,-3
1491088316895,0,-13,-10,-20,-5,-70,-14,-38,-1
1491088316928,1,4,2,50,127,90,127,-5,15
1491088316928,1,3,20,7,-7,-18,20,-9,-10
1491088316929,2,6,-23,-48,-106,-95,-22,68,-8
1491088316929,2,0,-17,20,-50,47,115,-41,7
1491088316931,3,-2,33,9,83,75,108,8,-30
1491088316931,3,-7,-53,-86,-63,-69,-56,-42,20
1491088316932,0,-4,-8,-8,-23,36,-62,18,13
1491088316932,0,-5,-1,12,37,-40,44,43,-44
1491088316965,1,-1,-3,20,10,-4,-80,-82,29
1491088316965,1,-4,23,33,-59,3,46,-20,-63
1491088316966,2,7,18,-2,-50,-34,-31,19,7
1491088316966,2,-6,-11,2,54,-45,-59,-21,-12
1491088316967,3,3,-30,-43,-93,17,-34,-35,36
1491088316967,3,-7,13,57,127,37,9,87,18
1491088317003,0,-6,11,-20,-67,-30,-90,31,-39
1491088317003,0,12,10,10,-27,29,-62,-23,16
1491088317004,1,2,-26,-36,-35,-62,54,-48,7
1491088317004,1,-4,5,54,32,67,-84,23,-40
1491088317006,2,3,6,-7,89,69,76,21,-14
1491088317006,2,2,-10,-18,19,-19,-75,-23,22
1491088317007,3,-10,-9,-17,-48,-80,-128,50,-6
1491088317007,3,13,21,38,19,29,31,-12,16
1491088317040,0,-7,10,20,13,34,55,-72,-45
1491088317040,0,-4,-6,-52,-79,-2,-121,-70,8
1491088317041,1,6,-6,0,27,-3,-12,34,10
1491088317041,1,-7,-5,3,29,13,78,70,0
1491088317042,2,6,24,50,57,29,-36,-7,-18
1491088317042,2,13,-21,-65,-59,-36,-12,-19,23
1491088317043,3,0,-13,-7,-24,-34,102,35,-11
1491088317043,3,-3,-4,-16,-7,-28,37,-8,-10
1491088317078,0,5,12,23,22,48,85,-18,19
1491088317078,0,-4,-2,47,55,83,127,6,18
1491088317079,1,3,29,-12,-52,-94,-38,-6,-19
1491088317079,1,-17,-34,0,93,71,104,-27,0
1491088317080,2,2,-12,-57,-5,-20,118,7,29
1491088317080,2,-6,-16,-11,-35,-57,127,39,15
1491088317081,3,0,24,40,1,-17,-46,-27,-27
1491088317081,3,9,9,-17,-54,11,57,37,4
1491088317115,0,1,-23,12,51,11,-128,-47,68
1491088317115,0,-9,24,42,-22,58,28,45,-61
1491088317116,1,1,3,-11,127,7,-52,28,-7
1491088317116,1,0,-15,-41,-111,-117,-128,-46,10
1491088317117,2,-7,-8,15,-60,-17,-128,52,-15
1491088317117,2,10,3,-41,-28,-77,-80,71,20
1491088317190,3,-5,0,27,-96,26,-103,-90,7
1491088317190,3,12,17,14,127,43,-34,17,-16
1491088317191,0,8,-13,-41,-68,19,-68,57,29
1491088317191,0,-8,28,110,13,51,112,31,-7
1491088317191,1,-16,-22,-94,10,-48,-65,35,-35
1491088317191,1,1,-33,-16,-58,-17,67,-51,44
1491088317193,2,0,26,39,-18,-114,127,3,-51
1491088317193,2,5,-14,-50,-61,-4,-120,-8,45
1491088317303,3,-17,-34,-17,-48,61,127,-2,-4
1491088317303,3,2,0,9,41,44,-77,-37,-8
1491088317304,0,1,12,23,-50,5,112,-12,-3
1491088317304,0,1,30,18,127,42,63,6,-39
1491088317305,1,-1,-31,-36,-30,-64,-42,-36,36
1491088317305,1,-1,-1,-26,-42,-39,10,6,-16
1491088317306,3,18,25,-42,-55,4,29,61,-19
1491088317306,3,-18,-42,-64,-128,-87,0,-98,26
1491088317340,0,-8,-3,11,50,7,66,16,1
1491088317340,0,-11,-5,8,47,12,86,-2,-3
1491088317341,1,-2,25,25,-3,19,127,10,-27
1491088317341,1,1,5,22,-89,-32,-80,39,21
1491088317342,3,-111,24,70,60,79,78,35,-17
1491088317342,3,-101,16,-4,-5,3,-19,11,-20
1491088317378,2,16,9,68,109,78,62,-22,-22
1491088317378,2,14,-17,-80,-68,-46,-26,-20,15
1491088317453,3,20,-15,-5,-53,-71,-52,54,1
1491088317453,3,1,6,-5,1,-9,127,-29,-6
1491088317453,0,6,-10,13,4,22,-41,-44,-32
1491088317453,0,14,6,-34,-25,13,-85,-43,29
1491088317454,2,3,-8,-10,-82,-67,56,49,10
1491088317454,2,10,2,-1,-17,-38,42,-70,-20
1491088317455,3,3,1,41,44,59,-4,16,3
1491088317455,3,-2,4,5,2,74,17,14,-4
1491088317490,0,3,2,-15,97,25,20,14,1
1491088317490,0,3,-6,44,-84,-6,9,27,-38
1491088317491,2,-2,-4,33,16,79,-39,1,16
1491088317491,2,-1,-7,-58,-70,-95,-6,-27,-14
1491088317491,3,0,6,39,40,37,-1,-14,-6
1491088317491,3,-1,26,33,42,31,54,4,-10
1491088317493,1,-36,-38,10,0,17,-128,-7,-30
1491088317493,1,-28,3,6,46,19,-72,-23,8
1491088317528,2,-22,23,26,1,69,-126,7,-17
1491088317528,2,-46,1,-35,34,-68,-128,-7,-9
1491088317528,3,-39,19,27,22,7,-86,15,31
1491088317528,3,-50,17,17,42,15,-128,-17,-11
1491088317529,1,-53,8,2,-14,-31,-35,-2,-5
1491088317529,1,-35,21,-16,-5,-40,10,-5,15
1491088317530,2,-34,15,18,35,7,75,55,0
1491088317530,2,-40,-1,-35,-62,-21,14,-79,-13
1491088317565,3,-33,-20,-16,-12,-38,68,-24,-4
1491088317565,3,-20,9,8,20,27,58,24,-1
1491088317603,0,-17,9,-24,-30,-16,48,23,2
1491088317603,0,-34,-4,26,41,13,28,32,3
1491088317605,1,1,-15,-20,13,27,29,-28,0
1491088317605,1,-21,-4,6,18,0,85,56,-14
1491088317606,2,0,11,3,-14,11,-30,-99,6
1491088317606,2,-3,-3,34,67,-30,6,85,10
1491088317607,3,0,16,-48,-49,-56,2,-11,2
1491088317607,3,-15,-2,21,28,-7,-45,12,8
1491088317641,0,-6,-4,-38,-38,-26,28,-26,-8
1491088317641,0,-15,2,4,46,73,21,-6,8
1491088317642,1,-4,-3,-2,27,57,20,2,4
1491088317642,1,-19,-14,-17,-7,2,17,-15,-10
1491088317642,2,-2,14,22,56,21,-14,-1,12
1491088317642,2,-8,-2,4,3,56,63,-92,-21
1491088317643,0,-13,-1,21,-28,13,17,-19,-23
1491088317643,0,9,-3,-27,-18,-33,-4,8,23
1491088317678,1,9,1,-19,-53,37,14,44,15
1491088317678,1,-7,-6,-16,21,-43,45,-98,-7
1491088317679,2,-2,-19,-8,-61,-61,16,26,-8
1491088317679,2,22,19,35,44,96,-64,12,-26
1491088317679,0,-11,-7,-3,-56,7,68,24,-7
1491088317679,0,-3,-12,11,95,53,99,-24,-24
1491088317680,1,-16,-21,-10,-79,-66,-127,-52,31
1491088317680,1,3,9,11,-20,10,53,-3,-39
1491088317715,2,9,-18,-14,44,3,-38,39,25
1491088317715,2,-6,-9,-21,-75,-44,-9,-11,3
1491088317716,3,3,11,15,11,42,36,8,1
1491088317716,3,-8,6,13,50,52,34,48,0
1491088317717,0,1,-4,-10,-33,-28,-13,-15,7
1491088317717,0,-11,-12,-18,-89,-74,4,-25,4
1491088317718,1,-92,8,9,60,38,87,-7,-21
1491088317718,1,-9,2,5,-85,-32,-8,-10,-3
1491088317753,2,-104,32,3,104,36,-23,11,-6
1491088317753,2,-74,20,23,15,32,121,28,-41
1491088317754,3,72,-4,-19,34,-30,-119,-23,10
1491088317754,3,0,19,40,-7,54,-45,-25,22
1491088317756,0,105,-16,-58,-80,-112,14,-48,-6
1491088317756,0,-34,-24,-33,-17,-19,3,0,35
1491088317756,1,-121,4,30,6,21,-46,-32,-15
1491088317756,1,-66,-14,-24,-25,-6,-13,-29,-18
1491088317791,2,11,6,36,33,33,11,30,11
1491088317791,2,68,0,-4,-46,-29,74,37,-3
1491088317792,3,-2,-9,1,39,39,-48,-59,-1
1491088317792,3,2,-9,-11,-2,-20,92,21,9
1491088317793,0,-32,-4,12,16,4,-49,-12,-14
1491088317793,0,78,-16,-10,0,28,-4,43,-2
1491088317794,1,127,14,20,-65,-26,125,-8,25
1491088317794,1,59,-28,-48,7,-34,-28,-51,5
1491088317828,2,123,-13,21,19,33,76,42,-2
1491088317828,2,-81,10,-17,-90,-58,-39,63,-12
1491088317866,3,-85,-13,3,102,-6,-111,-15,0
1491088317866,3,21,3,19,67,40,58,38,5
1491088317867,0,117,-16,-31,-21,13,16,-13,-7
1491088317867,0,1,18,50,5,-9,33,32,17
1491088317869,1,84,-9,-49,-120,-35,113,-49,-16
1491088317869,1,127,-9,-25,-110,-40,-39,11,24
1491088317870,2,70,-23,14,108,61,-2,-35,1
1491088317870,2,90,-1,1,25,-5,-49,-39,-6
1491088317903,3,-11,13,13,-3,14,26,37,-23
1491088317903,3,-18,-6,-11,29,24,30,3,-17
1491088317905,0,-82,11,-19,-124,-56,-8,15,1
1491088317905,0,-92,-5,-6,28,-2,-27,32,-7
1491088317906,1,-52,-31,-4,53,31,62,-64,-28
1491088317906,1,-99,41,21,21,-42,-37,12,-23
1491088317907,3,74,5,1,-49,-25,27,30,4
1491088317907,3,20,-4,19,122,70,-44,-7,-9
1491088317941,0,-50,3,-4,-8,4,29,8,7
1491088317941,0,-2,10,13,13,-12,-20,-5,27
1491088317955,1,6,3,19,-10,-26,15,8,-57
1491088317955,1,-23,-15,-58,-80,-9,73,6,8
1491088317956,2,-24,-10,-8,-6,-10,-38,-33,20
1491088317956,2,-8,-8,-7,-25,2,50,9,6
1491088317957,3,-21,3,-8,-19,-11,-35,-29,-15
1491088317957,3,-44,21,19,-52,12,123,91,-35
1491088317978,0,-51,-9,-17,105,4,-128,-65,-15
1491088317978,0,-45,-13,-10,-2,19,65,-28,-4
1491088317981,1,-23,-2,9,3,9,5,-12,-2
1491088317981,1,0,0,8,-7,-38,-38,-16,22
1491088317982,2,-32,10,17,1,17,43,63,-22
1491088317982,2,1,13,11,9,20,-96,8,18
1491088317983,3,-7,-10,-21,-13,3,-78,-18,22
1491088317983,3,13,-22,-20,-73,-78,-8,-14,-4
1491088318016,0,-22,22,16,21,35,73,6,-34
1491088318016,0,13,16,22,101,34,-82,-7,-9
1491088318018,1,25,-17,-34,-25,21,-7,46,55
1491088318018,1,-7,-11,-9,18,-16,37,-29,-6
1491088318020,2,-10,0,6,-86,-32,37,15,-10
1491088318020,2,7,22,-9,-36,-22,-71,1,17
1491088318021,3,-4,-1,15,60,56,12,-16,-4
1491088318021,3,-9,-6,2,34,-1,28,36,2
1491088318053,0,12,6,11,12,7,2,-77,-9
1491088318053,0,-21,-4,-12,-32,-47,42,53,-27
1491088318056,1,0,-8,-11,-11,-26,6,45,-7
1491088318056,1,-2,0,15,48,60,-109,-74,2
1491088318057,2,-7,9,-14,-38,-55,80,45,-32
1491088318057,2,12,-21,-31,-8,-4,3,-6,63
1491088318058,3,-6,3,7,26,9,8,34,-19
1491088318058,3,-16,-19,-13,-11,-2,-6,-65,-5
1491088318091,0,-4,10,23,3,-2,-17,15,-5
1491088318091,0,-13,-13,-11,4,4,-24,-23,-29
1491088318093,1,-3,13,15,12,-15,-15,-14,-2
1491088318093,1,12,5,11,43,21,46,57,-2
1491088318094,2,-15,-2,11,-36,23,21,-47,-10
1491088318094,2,13,-13,-44,-123,-55,2,20,14
1491088318095,3,-3,-8,14,95,53,-11,3,0
1491088318095,3,-5,5,-8,-81,-15,-84,4,-29
1491088318129,0,0,4,-4,77,17,-55,41,57
1491088318129,0,-12,-13,8,-5,-2,4,26,-12
1491088318130,1,8,4,0,-12,-20,40,-67,12
1491088318130,1,0,9,0,12,4,46,16,-10
1491088318131,2,4,4,19,-25,-32,1,25,-2
1491088318131,2,-5,-6,2,38,28,-32,-26,-7
1491088318132,3,5,-2,0,6,-5,-18,20,-12
1491088318132,3,-9,2,-9,-9,-16,18,2,7
1491088318165,0,-4,-20,-23,-22,-30,-58,-38,5
1491088318165,0,8,24,30,35,16,46,-8,4
1491088318166,1,-7,-12,-9,-39,-35,-32,1,-19
1491088318166,1,-1,11,4,0,65,49,1,-2
1491088318167,2,-1,-9,-11,11,-1,11,1,5
1491088318167,2,10,-3,-14,-64,-34,-30,-16,-4
1491088318168,3,-10,-4,-12,15,-15,-26,5,14
1491088318168,3,15,3,20,22,16,9,6,23
1491088318203,0,-4,-20,-8,-31,-11,-49,38,-10
1491088318203,0,14,16,8,52,32,33,-10,15
1491088318203,1,3,-4,0,-22,-4,22,23,-16
1491088318203,1,1,-1,8,-27,-69,-53,-14,-1
1491088318204,2,0,21,17,51,44,105,-19,-29
1491088318204,2,9,-24,-8,34,38,-85,-5,7
1491088318205,3,-5,-13,-31,-89,-32,14,38,19
1491088318205,3,11,-3,-17,-24,-53,-34,22,-5
1491088318240,0,-5,4,7,-33,-7,65,-96,-12
1491088318240,0,8,-5,-7,9,-1,-8,20,-5
1491088318241,1,8,12,21,10,34,22,0,30
1491088318241,1,7,-2,-12,19,21,53,27,50
1491088318242,2,-6,-12,-11,-22,-46,4,-10,-11
1491088318242,2,-21,8,14,-28,-66,36,48,-15
1491088318243,3,-9,10,15,42,58,-49,-41,-28
1491088318243,3,-8,-19,1,60,77,-4,-26,-22
1491088318278,0,14,12,6,13,11,-20,69,35
1491088318278,0,-13,-14,-15,-16,-16,-3,-27,-20
1491088318279,1,6,-2,7,-17,-15,29,-18,-4
1491088318279,1,-11,13,3,-23,-16,23,-20,12
1491088318279,2,1,-7,-9,37,-12,-71,10,17
1491088318279,2,-24,-10,7,-7,5,63,-49,-30
1491088318353,3,19,7,-8,-45,-35,-19,-9,3
1491088318353,3,-9,9,36,13,38,-30,9,-14
1491088318354,0,-11,-15,-31,-15,6,-25,-15,1
1491088318354,0,-7,3,21,89,-14,-23,38,21
1491088318354,1,10,0,-25,-102,-38,68,-39,-32
1491088318354,1,6,-37,-39,100,3,-68,24,-1
1491088318355,2,-9,-9,-2,-14,12,62,0,1
1491088318355,2,-2,10,19,32,1,6,-4,-25
1491088318390,3,0,22,17,36,16,9,-30,12
1491088318390,3,-8,6,6,-62,-32,1,19,-9
1491088318391,0,-26,-7,-6,-16,-2,-50,-89,-58
1491088318391,0,29,13,5,34,27,-32,66,33
1491088318392,1,4,-9,-3,-5,8,10,32,19
1491088318392,1,-10,0,8,4,12,36,31,22
1491088318393,3,-14,-7,-14,-89,-27,20,28,-4
1491088318393,3,3,18,17,83,18,-47,53,-1
1491088318428,0,2,-15,-9,10,24,-10,-83,27
1491088318428,0,3,2,-7,-58,-47,-6,20,-5
1491088318429,1,9,7,14,51,-23,-37,33,24
1491088318429,1,-1,12,3,-48,20,12,-38,-36
1491088318429,3,-12,-21,7,37,23,-72,0,-1
1491088318429,3,-14,-9,-7,-57,-17,6,18,-7
1491088318430,0,39,17,34,99,68,42,55,11
1491088318430,0,-30,-5,-31,-114,-23,37,-74,-30
1491088318465,1,6,-20,-23,68,-56,70,2,14
1491088318465,1,-7,3,-1,-13,-67,-122,-113,-7
1491088318466,2,-3,-12,-18,5,45,36,127,23
1491088318466,2,-2,-2,5,-90,-72,33,-107,-24
1491088318467,3,-6,16,18,100,60,-101,28,10
1491088318467,3,1,-17,-15,7,26,22,-15,2
1491088318468,0,16,-1,11,-13,7,55,-30,-26
1491088318468,0,6,31,48,22,21,81,24,-16
1491088318503,1,-14,1,-31,-49,-34,-78,15,-18
1491088318503,1,16,-16,-7,56,-14,70,-24,32
1491088318504,2,-21,-1,5,-22,-71,-8,-10,-32
1491088318504,2,0,2,-38,-19,46,55,9,10
1491088318504,3,-5,-24,-4,-17,68,15,-96,32
1491088318504,3,4,9,6,-67,-18,18,29,-46
1491088318505,0,-7,19,33,22,32,39,-10,-6
1491088318505,0,-10,-18,-17,49,-46,-80,47,-9
1491088318578,1,-2,8,20,23,39,-15,-39,-7
1491088318578,1,-8,21,4,-94,-96,10,-59,-30
1491088318579,2,15,-15,-20,55,60,-73,12,47
1491088318579,2,6,-23,-9,80,13,4,28,17
1491088318579,3,-1,1,-1,4,21,121,15,-4
1491088318579,3,-10,22,22,2,-13,69,33,-43
1491088318580,0,12,-10,-4,-77,46,-91,-23,33
1491088318580,0,4,-43,-76,-95,-69,-16,-4,24
1491088318653,1,-7,-12,5,68,11,50,-53,-2
1491088318653,1,19,27,16,18,-15,35,21,18
1491088318653,2,-20,18,22,37,-12,-33,35,-63
1491088318653,2,-7,14,38,73,84,-94,-59,-17
1491088318654,2,19,-17,-27,48,16,127,-101,-1
1491088318654,2,-2,-14,-3,-11,-8,-4,112,29
1491088318655,3,-7,25,27,-18,-14,-47,-37,-45
1491088318655,3,3,3,9,-17,83,-19,90,47
1491088318690,0,-4,2,-5,-85,-29,111,-92,1
1491088318690,0,-18,12,-1,-60,-40,-47,11,-38
1491088318691,1,20,-6,18,51,107,18,11,49
1491088318691,1,-14,-16,-59,-45,-83,2,-51,-33
1491088318691,1,1,14,43,17,-23,-54,27,13
1491088318691,1,-4,4,22,-17,107,107,-7,-52
1491088318693,2,-16,24,-3,-12,-66,-5,29,-25
1491088318693,2,13,-23,-10,-84,4,-121,-23,42
1491088318728,3,-17,-6,12,61,30,109,-17,-9
1491088318728,3,-8,24,79,33,18,35,-14,-20
1491088318729,0,7,4,-37,123,4,-128,67,-24
1491088318729,0,4,-29,-52,-7,-40,124,-5,34
1491088318729,1,0,-3,9,-29,-32,41,16,29
1491088318729,1,3,14,40,62,42,127,-25,2
1491088318730,2,-10,32,65,70,-27,127,9,-21
1491088318730,2,2,-20,-70,72,66,-126,14,-20
1491088318765,3,6,-24,-26,-40,-66,-84,-30,38
1491088318765,3,0,-10,-24,-56,-19,-97,-24,-2
1491088318766,0,-8,-12,-3,-128,-109,-52,-25,0
1491088318766,0,-6,10,42,127,114,-6,100,-13
1491088318767,1,11,12,0,32,-48,-98,-46,1
1491088318767,1,8,18,12,16,-12,-128,50,-23
1491088318768,2,3,3,34,-24,101,90,-50,-7
1491088318768,2,-37,-43,-79,-88,-116,-43,-3,-61
1491088318840,3,7,-14,12,-32,-16,-117,-22,42
1491088318840,3,2,20,25,-20,5,57,16,1
1491088318841,0,-5,-14,-30,34,-7,-43,20,8
1491088318841,0,3,9,35,76,8,37,-37,-5
1491088318842,1,-9,23,22,-79,7,126,-1,-45
1491088318842,1,-3,-27,-51,41,-45,-34,-46,20
1491088318843,2,-6,-8,20,19,74,66,54,22
1491088318843,2,16,44,87,44,67,102,-25,24
1491088318878,3,-14,-22,-76,-72,-60,-128,38,-56
1491088318878,3,-1,-17,27,92,60,127,-51,29
1491088318880,0,-1,16,-93,-85,1,-120,-81,-40
1491088318880,0,-6,-41,10,38,-14,20,0,42
1491088318881,0,7,-11,46,26,87,110,-62,14
1491088318881,0,9,51,24,-116,-38,104,-6,-32
1491088318882,1,3,-25,13,17,-6,-98,32,43
1491088318882,1,-16,-7,-55,27,-57,105,73,-43
1491088318915,2,8,-32,-42,-30,71,-75,-74,28
1491088318915,2,-1,-1,51,103,53,-4,11,16
1491088318916,3,-12,5,-41,-84,-83,20,10,-39
1491088318916,3,3,4,7,-24,8,96,-66,9
1491088318917,0,-11,0,23,-84,-32,-52,94,-10
1491088318917,0,-1,7,9,115,18,-81,-45,-23
1491088318918,1,-2,32,94,117,114,127,50,-20
1491088318918,1,-3,26,-21,-108,-109,-71,11,-33
1491088318953,2,3,-99,-104,78,-40,-86,-55,97
1491088318953,2,-10,-10,-5,-39,17,65,24,1
1491088318954,3,6,4,17,23,-5,41,25,-2
1491088318954,3,4,17,31,-17,76,8,71,1
1491088318954,0,-9,28,40,8,-31,127,-18,-64
1491088318954,0,11,-11,-37,-46,-36,-128,-47,41
1491088318955,1,1,8,67,87,48,124,44,0
1491088318955,1,8,-9,-52,-66,69,-34,45,23
1491088318990,2,-11,4,14,6,-70,-42,-57,-39
1491088318990,2,-2,9,-8,-68,-45,72,34,-4
1491088318991,3,-4,-33,-88,106,-14,-128,-36,29
1491088318991,3,1,-45,-29,-52,-12,-128,11,43
1491088318991,0,-7,13,33,-7,29,127,45,-14
1491088318991,0,0,0,-6,-52,3,35,11,-17
1491088318993,1,5,36,53,-32,11,127,-12,-13
1491088318993,1,-3,12,32,83,96,118,1,-8
1491088319028,2,-8,-1,-60,63,-22,68,27,-4
1491088319028,2,-10,-9,2,7,-65,-83,-43,12
1491088319029,3,-68,-6,-48,-75,-24,-11,61,1
1491088319029,3,0,-17,-13,80,-26,-118,-127,12
1491088319029,0,9,26,66,-67,36,21,1,-2
1491088319029,0,15,-18,-24,55,-24,-87,-70,7
1491088319030,1,11,-16,-32,-14,31,28,31,-11
1491088319030,1,8,23,55,34,48,-24,39,22
1491088319065,2,-4,10,-11,-73,-26,69,91,6
1491088319065,2,5,-15,-46,-73,-66,-93,-96,-20
1491088319066,3,2,15,16,-23,14,-4,5,-5
1491088319066,3,-4,-12,-14,21,-89,75,11,3
1491088319067,0,4,2,35,112,100,-44,17,-7
1491088319067,0,3,2,-18,-14,-9,78,45,12
1491088319068,1,0,-25,-44,-93,-123,-12,-27,-13
1491088319068,1,1,-5,21,33,43,10,3,-8
1491088319103,2,-7,0,25,-87,30,-12,21,0
1491088319103,2,-5,-13,-25,112,41,-50,-43,-2
1491088319104,3,1,-12,31,42,28,58,-26,15
1491088319104,3,3,-14,-37,-50,-28,-4,36,3
1491088319104,0,-5,-26,2,-16,-32,95,-11,20
1491088319104,0,-8,18,29,7,101,127,40,-5
1491088319105,1,1,-2,1,-21,-46,95,18,-8
1491088319105,1,-14,4,-5,17,32,-53,-12,-12
1491088319178,2,2,-15,-9,-15,-46,-25,10,-3
1491088319178,2,-1,-8,41,-26,38,18,46,-4
1491088319179,3,-74,-11,-13,30,-4,-128,-32,8
1491088319179,3,12,5,3,-43,-9,-60,-12,-17
1491088319179,0,81,11,-6,42,51,-128,20,8
1491088319179,0,86,25,14,-46,-44,82,-10,-7
1491088319180,1,111,-2,-18,28,-74,44,3,31
1491088319180,1,8,-32,-58,-33,-55,78,-47,4
1491088319215,2,-9,-26,-26,-12,-20,36,-44,5
1491088319215,2,11,9,12,44,52,56,38,-12
1491088319216,3,18,54,57,-15,79,-19,0,-12
1491088319216,3,-1,13,11,39,27,-95,-52,-15
1491088319217,0,0,45,-4,0,-59,-128,105,11
1491088319217,0,-21,-18,7,-18,-3,-122,-62,-34
1491088319218,1,-6,-5,-14,-7,2,-128,-14,-9
1491088319218,1,3,15,-1,-4,5,-71,40,-15
1491088319253,2,6,42,15,6,-21,-115,-45,6
1491088319253,2,-2,45,41,-82,28,-105,33,3
1491088319254,3,-102,-13,-24,71,-23,-13,-81,-30
1491088319254,3,118,40,3,-51,-13,127,9,2
1491088319255,1,60,6,38,19,55,62,42,23
1491088319255,1,19,17,-21,-8,31,127,-16,-24
1491088319255,2,-128,16,-2,23,4,59,11,-19
1491088319255,2,-99,95,24,12,-45,-71,-2,5
1491088319290,3,-12,4,4,-21,-75,-56,32,-13
1491088319290,3,81,-45,5,25,30,57,3,-3
1491088319365,0,127,34,32,18,83,127,84,38
1491088319365,0,123,-94,-34,28,87,109,95,-13
1491088319367,1,127,-71,-39,-64,-47,2,-100,-2
1491088319367,1,68,-26,-36,-43,-109,50,25,10
1491088319368,2,48,-20,-15,-13,-32,-16,42,1
1491088319368,2,2,29,29,23,55,110,-16,-7
1491088319369,3,20,30,70,-85,84,10,13,-21
1491088319369,3,-35,-38,-48,46,85,22,16,-30
1491088319403,0,-58,-43,-29,-32,-100,44,4,8
1491088319403,0,-66,1,18,34,41,-13,25,-22
1491088319404,1,-17,-24,-48,-38,-23,-112,57,22
1491088319404,1,-86,-49,16,-9,-27,57,-52,-5
1491088319404,2,-66,34,51,103,127,127,58,-22
1491088319404,2,-34,-19,-32,-70,-128,-115,4,-3
1491088319405,0,31,12,-15,-85,30,1,111,3
1491088319405,0,-14,-17,-11,23,40,-16,-39,-31
1491088319440,1,53,2,-17,-42,-97,100,13,-1
1491088319440,1,59,6,23,8,45,-87,-19,-7
1491088319441,2,18,2,13,73,52,61,61,-11
1491088319441,2,50,-39,-63,-21,-72,35,5,16
1491088319442,0,7,-22,-16,-46,-48,-47,-49,20
1491088319442,0,-17,3,7,-9,-11,63,99,15
1491088319443,1,6,-21,-9,33,-2,-5,-96,-29
1491088319443,1,-15,-43,-45,-73,-84,15,72,37
1491088319478,2,-36,43,25,48,62,-13,-7,16
1491088319478,2,11,13,24,115,75,68,1,-22
1491088319478,3,-12,-10,-18,-75,-48,-59,-4,-8
1491088319478,3,-2,23,1,-52,27,-9,-36,1
1491088319481,0,-6,-9,0,69,-22,6,74,-1
1491088319481,0,-114,-8,-20,10,2,13,-68,-2
1491088319515,1,-105,51,32,37,21,-41,24,-9
1491088319515,1,-38,21,15,9,-8,-91,43,-10
1491088319516,2,-117,-3,-1,-67,-53,-128,-108,-18
1491088319516,2,55,-18,-17,-31,-31,68,44,3
1491088319518,3,20,-22,-4,43,16,101,-85,-25
1491088319518,3,19,32,14,-3,32,-14,101,63
1491088319519,0,50,-25,-17,-32,-28,96,-32,-49
1491088319519,0,45,8,34,30,45,-81,-34,14
1491088319553,1,123,-13,-46,-85,-1,47,4,19
1491088319553,1,78,-16,-25,82,8,-37,6,16
1491088319553,2,107,-8,12,80,31,124,82,0
1491088319553,2,34,5,12,-44,37,-79,-96,21
1491088319554,3,-31,0,-17,-15,-38,-60,-6,-34
1491088319554,3,-42,0,12,-3,-5,5,-72,-41
1491088319555,0,25,17,15,12,-5,-71,-32,-4
1491088319555,0,27,5,9,37,-1,57,125,23
1491088319590,1,15,-2,4,-45,17,43,-9,-8
1491088319590,1,13,-8,-9,-12,9,52,22,-51
1491088319591,2,-10,-39,-37,-79,-39,56,-48,36
1491088319591,2,10,2,-15,-75,-63,26,42,-25
1491088319592,3,8,-19,-3,59,13,-18,9,23
1491088319592,3,-2,23,10,-12,23,127,2,2
1491088319593,0,7,26,12,0,-1,-30,28,4
1491088319593,0,-10,-22,-1,64,46,-42,-56,2
1491088319628,1,26,-17,-7,6,-3,127,83,30
1491088319628,1,8,5,5,-32,-8,-46,-79,-12
1491088319628,2,-11,0,9,5,1,19,-31,10
1491088319628,2,0,1,-24,-62,-53,-30,25,-2
1491088319629,3,0,5,13,41,-23,-1,-74,-10
1491088319629,3,0,-9,-8,-20,-24,82,-6,10
1491088319630,0,-9,-11,-16,-34,5,-10,21,-23
1491088319630,0,-5,0,-23,-86,-79,116,22,-18
1491088319665,1,8,-16,10,73,87,61,-38,8
1491088319665,1,-7,-7,-12,-12,6,107,49,63
1491088319666,2,3,10,5,18,13,127,-17,11
1491088319666,2,1,14,26,56,43,49,-47,-55
1491088319666,3,-1,12,17,-69,-73,-49,92,10
1491088319666,3,-1,2,-19,-4,32,-128,-49,13
1491088319668,0,-6,-31,-9,66,8,-128,-85,21
1491088319668,0,-1,19,7,-3,-2,-128,88,-2
1491088319703,1,-1,16,31,-39,-21,-114,14,8
1491088319703,1,-3,-39,-36,-4,13,-128,-70,-40
1491088319704,2,-1,9,-1,2,-6,-105,62,1
1491088319704,2,-4,-2,-4,-15,-25,-39,-57,9
1491088319704,3,4,24,48,45,37,-103,3,-34
1491088319704,3,0,-18,-26,-61,-64,-31,-31,0
1491088319705,0,-4,-18,-27,-36,-20,-44,-6,-19
1491088319705,0,-1,-5,-3,23,36,37,52,39
1491088319740,1,-1,16,6,-7,1,16,-12,-17
1491088319740,1,-1,9,11,20,19,-87,19,-13
1491088319741,2,-3,6,0,4,-5,106,-13,17
1491088319741,2,-2,-3,-6,17,18,27,14,-29
1491088319742,3,1,0,4,13,4,103,21,-14
1491088319742,3,-2,-17,-7,14,-2,-6,-46,20
1491088319743,0,0,6,7,-35,-42,104,-23,-16
1491088319743,0,0,-15,-5,15,43,58,76,18
1491088319778,1,3,21,3,-22,-13,127,78,-22
1491088319778,1,2,17,32,67,2,59,-60,-21
1491088319778,2,-8,-17,-21,-3,2,-4,2,9
1491088319778,2,8,-6,-3,-14,8,-54,-33,14
1491088319779,3,-7,-16,-25,-25,-23,-82,-27,-9
1491088319779,3,-8,11,12,-40,-35,-62,41,-34
1491088319780,0,8,13,6,2,63,-35,16,-1
1491088319780,0,-1,-4,-4,-18,-34,20,48,39
1491088319815,1,-1,-7,-3,55,27,-49,-37,12
1491088319815,1,32,2,9,-25,-17,-33,29,14
1491088319816,2,-1,-1,10,28,-25,126,-46,-42
1491088319816,2,-10,-12,-8,4,62,-128,-8,5
1491088319817,3,-5,1,-5,22,42,117,-1,56
1491088319817,3,-20,-9,-35,-19,-38,65,0,-8
1491088319818,0,9,-4,-8,-35,-14,-110,39,21
1491088319818,0,-32,-3,3,3,-12,27,-5,-32
1491088319853,1,18,3,-9,28,6,63,10,-9
1491088319853,1,4,12,21,-3,36,15,-19,29
1491088319928,2,4,-3,-12,32,3,-13,-72,9
1491088319928,2,-2,-12,7,67,-26,-1,7,-14
1491088319928,3,-22,-14,-32,-61,-36,-102,-3,-43
1491088319928,3,11,7,28,-11,23,121,-9,27
1491088319929,0,2,14,-6,24,-7,42,37,-16
1491088319929,0,3,-10,-4,31,40,20,-79,-18
1491088319930,1,-11,-17,-3,21,4,-52,-78,-8
1491088319930,1,0,2,-13,-12,-1,-40,93,19
1491088319965,2,-3,-5,16,-30,-16,-18,-12,-23
1491088319965,2,-10,7,-9,-45,-57,64,74,-44
1491088319966,3,13,-5,4,13,30,-115,-52,23
1491088319966,3,-6,4,-9,-11,-19,80,-81,-41
1491088319966,0,-4,-7,-13,-53,-3,-40,34,25
1491088319966,0,13,-5,-3,1,-11,8,-15,20
1491088319968,0,-16,-13,-19,-55,41,-67,15,5
1491088319968,0,18,-16,-18,-15,-32,-67,-24,37
1491088320003,1,-13,-6,4,16,1,38,19,1
1491088320003,1,-8,17,7,-25,-69,45,33,-17
1491088320004,2,-22,19,9,-88,-91,-110,-112,-74
1491088320004,2,21,-16,4,83,92,125,46,29
1491088320005,0,-4,2,17,24,-5,9,66,27
1491088320005,0,12,26,15,-68,-12,-15,-36,-14
1491088320005,1,7,4,5,70,53,8,53,-9
1491088320005,1,13,-21,-17,17,20,-33,11,-1
1491088320040,2,-8,10,7,-9,-14,0,-21,-9
1491088320040,2,-14,-3,5,-51,-45,-7,-7,-33
1491088320041,3,-3,-3,5,82,48,7,69,13
1491088320041,3,-4,-8,-10,8,19,48,-83,10
1491088320041,0,9,-11,-9,0,35,-23,23,17
1491088320041,0,8,-4,-1,3,5,-26,48,10
1491088320043,1,-10,6,-7,-61,-66,2,-35,-19
1491088320043,1,-3,0,-8,-7,-37,-91,41,12
1491088320078,2,-3,-19,-16,12,21,40,-4,-10
1491088320078,2,-10,0,-10,-13,-27,-61,-30,4
1491088320078,3,-10,9,11,-7,-4,-42,-13,5
1491088320078,3,13,-2,14,23,52,71,36,16
1491088320079,0,-15,2,2,7,35,82,17,-18
1491088320079,0,-4,2,-1,-7,-33,-57,-38,-19
1491088320080,1,-6,0,-4,4,-44,-62,-77,-28
1491088320080,1,0,-12,-6,-61,-16,-9,-1,16
1491088320115,2,-28,-7,6,13,45,72,74,16
1491088320115,2,23,5,5,38,25,-38,-74,7
1491088320116,3,5,4,-6,-13,-86,-7,50,-1
1491088320116,3,-1,-25,-26,-41,5,6,-31,-9
1491088320117,0,-3,0,16,43,42,8,10,17
1491088320117,0,-13,8,-9,-27,-6,68,-10,-26
1491088320118,1,4,-8,-4,3,13,-18,-54,24
1491088320118,1,-19,1,7,14,-16,-49,39,-40
1491088320153,2,11,3,7,-40,-35,25,9,9
1491088320153,2,-6,-7,-19,-14,24,10,-29,-8
1491088320153,3,9,-9,-1,-12,-14,37,-2,24
1491088320153,3,-21,12,13,13,-16,55,0,-44
1491088320154,0,35,-4,-7,13,42,-122,23,47
1491088320154,0,-8,-7,-11,-26,-35,92,66,7
1491088320155,1,0,-10,-19,-99,-13,-20,-44,-40
1491088320155,1,-17,24,30,84,-36,-83,10,5
1491088320190,2,8,-8,-4,-5,32,127,69,-1
1491088320190,2,-12,-11,2,-35,26,-74,-89,-25
1491088320191,3,-5,-4,-9,62,88,-41,3,8
1491088320191,3,-8,-15,-18,-17,-50,5,35,-5
1491088320191,0,4,19,14,7,-48,-67,-72,-11
1491088320191,0,6,-2,-6,20,8,-22,54,11
1491088320192,1,-10,5,16,3,39,72,-80,-16
1491088320192,1,-9,-2,-19,-43,-13,-34,19,-28
1491088320228,2,0,3,-14,-14,-41,-39,19,2
1491088320228,2,-5,-11,8,23,37,91,59,28
1491088320229,3,29,23,15,-25,-23,40,-10,32
1491088320229,3,1,10,-15,-91,-48,16,17,-34
1491088320229,0,14,-19,-9,96,60,-115,-110,40
1491088320229,0,-17,14,0,-35,-11,28,82,7
1491088320230,1,2,-1,14,46,30,37,46,7
1491088320230,1,-3,-12,6,-13,23,-16,-45,-2
1491088320265,2,-19,10,5,-27,-41,125,52,-54
1491088320265,2,-3,4,-5,-33,-44,-94,-45,10
1491088320266,3,-9,-4,3,44,6,-7,-20,-17
1491088320266,3,6,-17,-28,-45,-33,72,48,13
1491088320267,0,-6,17,13,22,55,-65,29,-4
1491088320267,0,-16,-13,2,12,48,55,-63,5
1491088320267,1,10,-7,-10,-58,-35,77,83,-18
1491088320267,1,-10,8,1,53,6,-55,-48,-27
1491088320303,2,0,-26,-8,-35,-37,18,-54,41
1491088320303,2,0,14,-3,-41,2,11,47,-33
1491088320306,3,-9,-7,-5,48,14,-76,1,25
1491088320306,3,-6,-19,-7,12,-5,62,-17,-12
1491088320309,0,6,-2,-6,-70,-18,-8,-60,-19
1491088320309,0,2,29,30,87,3,-54,78,1
1491088320309,1,-6,0,11,16,-48,109,-55,-52
1491088320309,1,-2,-4,-18,-20,105,-103,69,62
1491088320340,2,-11,-8,-10,-33,-42,86,-105,-20
1491088320340,2,27,-8,3,21,36,-78,32,7
1491088320341,3,-13,-8,-45,-47,-50,61,20,5
1491088320341,3,23,-15,7,125,61,-49,-57,45
1491088320342,0,-15,10,26,13,24,66,27,-18
1491088320342,0,-23,10,-1,-32,-66,32,63,-24
1491088320378,1,7,-10,-20,-47,-73,-124,-125,-20
1491088320378,1,18,-11,10,-31,86,93,88,54
1491088320387,2,8,35,-2,-24,-25,9,96,-28
1491088320387,2,1,-10,4,37,14,-39,-127,-11
1491088320387,3,1,3,11,16,20,-5,66,35
1491088320387,3,-3,15,15,-45,-10,2,-10,-32
1491088320415,0,-7,8,-21,15,-73,-111,14,-5
1491088320415,0,12,-30,-19,42,98,127,-27,26
1491088320416,1,11,-13,21,-44,-8,62,6,19
1491088320416,1,1,13,-5,127,30,-19,-19,-17
1491088320417,2,5,-6,3,-23,-63,46,-22,-28
1491088320417,2,-16,35,39,36,-77,-117,55,-49
1491088320417,3,8,-7,-21,-19,80,37,-86,17
1491088320417,3,0,-15,-27,-86,-65,-27,30,49
1491088320453,0,0,-20,15,67,70,42,52,-28
1491088320453,0,0,5,-18,8,-44,-79,-36,-15
1491088320490,1,2,1,-4,-25,44,25,57,20
1491088320490,1,-11,-9,-11,-18,-48,-52,-4,-22
1491088320491,2,-8,-20,-10,8,3,18,-35,8
1491088320491,2,9,25,16,-60,1,26,-45,13
1491088320492,3,9,-5,12,70,39,-56,7,20
1491088320492,3,-21,-2,-21,-33,-78,-13,55,-27
1491088320493,0,9,-12,-6,-32,69,7,-61,33
1491088320493,0,3,-4,18,-28,-21,94,35,-53
1491088320528,1,-10,-9,-34,-21,-46,-128,62,30
1491088320528,1,-1,-13,29,43,9,70,-57,-42
1491088320529,2,-8,22,-19,-54,-97,-102,38,-9
1491088320529,2,-4,-27,-42,-65,34,-51,-10,67
1491088320530,3,-11,-9,1,-30,27,78,-55,-34
1491088320530,3,3,21,52,72,48,63,79,-11
1491088320531,0,5,39,44,-1,15,-78,44,15
1491088320531,0,-9,-31,-58,-45,7,77,-117,-5
1491088320565,1,-9,-15,1,86,-3,34,97,-6
1491088320565,1,6,13,2,-19,70,-40,-64,16
1491088320566,2,-13,-29,-42,8,-69,-64,-66,-13
1491088320566,2,-3,-22,-2,-18,-25,89,77,26
1491088320568,0,5,-9,10,38,78,82,-84,-16
1491088320568,0,2,-9,-13,2,18,-16,46,8
1491088320569,1,-7,8,15,-78,-6,51,-23,-6
1491088320569,1,2,24,24,84,-14,-56,5,-30
1491088320603,2,-6,-7,-7,-83,-3,19,-41,11
1491088320603,2,13,-39,-54,26,-73,3,22,26
1491088320604,3,-14,36,72,17,38,92,14,-58
1491088320604,3,-9,-34,-89,-80,-23,-41,-32,31
1491088320605,0,11,-30,-45,-7,-22,34,12,40
1491088320605,0,-8,25,54,37,-13,48,34,15
1491088320606,1,-7,9,25,18,58,24,-22,-39
1491088320606,1,10,22,13,20,-11,6,65,8
1491088320640,2,-1,1,40,96,47,-17,-24,-7
1491088320640,2,-13,-3,-14,-21,33,-30,-60,4
1491088320641,3,4,-10,-38,-59,-124,-56,22,33
1491088320641,3,-6,-12,-12,-31,-70,-37,25,20
1491088320642,0,-11,-16,26,81,81,53,-18,-19
1491088320642,0,8,27,-35,-52,-61,22,43,-13
1491088320643,1,2,-28,-5,13,26,-93,-74,15
1491088320643,1,-17,3,-1,-59,-23,127,-16,-20
1491088320715,2,-3,13,16,7,-19,26,95,-9
1491088320715,2,6,18,70,59,15,-90,-58,-35
1491088320716,3,-9,-25,-32,-25,-25,-48,42,16
1491088320716,3,2,-12,-26,-19,-21,41,-67,-11
1491088320717,0,1,-4,-11,-34,-45,74,67,0
1491088320717,0,2,-14,-4,19,26,-71,-44,34
1491088320718,1,-6,21,68,95,40,-33,9,-11
1491088320718,1,5,-4,-68,-16,16,50,-69,-20
1491088320753,2,-1,-23,-20,-12,-48,-70,109,58
1491088320753,2,1,-11,-1,-8,-1,15,-56,0
1491088320790,3,-9,11,36,47,7,42,-7,-33
1491088320790,3,-4,4,4,3,21,74,-21,1
1491088320791,0,0,14,-1,-14,-9,-105,-16,-15
1491088320791,0,-7,-14,-27,-9,-17,80,-8,-14
1491088320791,3,-2,9,21,40,47,93,-56,8
1491088320791,3,-5,0,-11,-105,-39,3,36,-34
1491088320793,0,2,-5,5,21,-62,-70,-65,14
1491088320793,0,-5,11,9,-88,-60,73,-22,-58
1491088320865,1,4,-10,-19,38,50,-33,-5,33
1491088320865,1,9,5,30,-35,17,-41,0,46
1491088320866,2,-7,7,-4,24,14,-50,43,-30
1491088320866,2,4,18,12,-74,-65,-24,23,-5
1491088320866,3,2,-23,-67,6,23,-49,63,3
1491088320866,3,-8,-17,35,82,8,41,-33,2
1491088320867,2,10,-9,6,-100,-6,18,63,23
1491088320867,2,22,38,18,82,1,52,7,-47
1491088320903,3,18,-48,-88,-64,-31,-125,-15,10
1491088320903,3,72,-2,22,1,-4,-13,-102,28
1491088320904,0,100,5,18,35,34,10,12,-13
1491088320904,0,116,23,48,-32,33,68,57,-13
1491088320904,2,-44,12,26,14,23,62,-19,-6
1491088320904,2,-102,31,25,-62,-17,61,-15,-30
1491088320905,3,-114,-5,-13,64,-73,14,26,0
1491088320905,3,-128,-1,43,-20,41,-61,-22,-36
1491088320940,0,9,-29,-83,-39,-108,-14,26,6
1491088320940,0,-49,-9,9,17,19,-128,-9,17
1491088320941,1,127,4,21,-52,44,-128,17,9
1491088320941,1,82,-2,-14,-10,49,-92,-26,-17
1491088320942,2,-109,16,71,50,28,-127,48,-38
1491088320942,2,-96,15,-48,32,-56,-128,-27,-19
1491088320942,3,-108,-19,-14,3,25,-112,-34,29
1491088320942,3,-13,17,37,50,11,-126,69,9
1491088320978,0,119,-25,-31,-65,27,-90,-3,16
1491088320978,0,-68,-11,-24,7,-27,-23,-5,-1
1491088320978,1,119,16,47,-7,57,59,-50,-32
1491088320978,1,108,-13,-52,-21,-43,-5,-15,21
1491088320979,2,109,-8,-33,-61,-18,4,24,23
1491088320979,2,78,-3,21,65,49,60,26,-4
1491088320980,3,7,14,2,-27,8,51,-36,8
1491088320980,3,-27,-3,1,27,13,44,26,-14
1491088321015,0,-34,-5,13,84,100,127,-10,-23
1491088321015,0,65,-14,-28,-44,-76,-33,-31,-18
1491088321016,1,-6,13,0,8,-5,5,-3,-5
1491088321016,1,22,-25,-14,1,14,91,40,11
1491088321017,2,-24,-1,3,14,-19,82,-33,0
1491088321017,2,9,-6,33,91,101,127,5,-17
1491088321017,3,-8,10,-7,-93,-47,95,19,8
1491088321017,3,-42,-18,-13,-25,-19,-53,-16,4
1491088321053,0,-51,-5,1,7,-20,-17,15,-3
1491088321053,0,-15,-12,15,36,44,-88,5,-5
1491088321054,1,-55,-1,4,37,8,-46,-10,-13
1491088321054,1,-32,16,-10,3,8,-5,-9,26
1491088321054,2,-49,-1,13,-60,-27,-4,20,-2
1491088321054,2,24,-6,-4,32,14,46,1,-5
1491088321055,3,1,3,-10,-29,8,9,-28,4
1491088321055,3,-27,5,-3,-1,-23,65,33,-1
1491088321127,0,-22,-19,-4,9,-18,-1,-23,-28
1491088321127,0,5,-3,3,5,36,8,-7,7
1491088321128,1,-28,-24,-25,-24,-65,-62,9,10
1491088321128,1,-30,5,3,-8,-5,-30,-2,-30
1491088321129,2,-13,7,-18,4,-39,-8,-26,8
1491088321129,2,21,18,10,10,34,26,-10,-12
1491088321130,3,23,19,6,14,21,-22,19,15
1491088321130,3,4,3,-3,-2,15,-7,-12,-1
1491088321165,0,-13,-1,13,9,-51,16,-26,-14
1491088321165,0,29,8,-14,-26,-44,-58,26,24
1491088321166,1,-5,1,18,-11,-32,22,-51,-26
1491088321166,1,13,9,9,45,-22,17,8,0
1491088321166,2,7,19,-9,-34,-22,10,35,4
1491088321166,2,27,-12,-15,-64,-49,-39,-22,44
1491088321167,0,7,8,5,77,-11,-88,-16,-12
1491088321167,0,4,-15,11,23,17,19,35,4
1491088321203,1,8,10,-5,5,6,2,-14,-1
1491088321203,1,5,-15,-6,-5,-31,3,2,11
1491088321204,2,9,11,-5,-31,12,18,-7,3
1491088321204,2,6,3,23,-67,17,21,5,-23
1491088321204,0,16,-4,-2,-5,39,-43,-18,1
1491088321204,0,14,3,-6,-22,51,79,21,-9
1491088321205,1,15,-7,23,6,34,-90,-22,-2
1491088321205,1,-12,7,8,-3,110,56,-2,-18
1491088321240,2,8,-11,-25,-40,-43,5,-34,23
1491088321240,2,20,16,13,48,88,48,-6,-11
1491088321241,3,-14,3,-1,-16,12,-67,44,6
1491088321241,3,24,4,44,79,75,27,-56,2
1491088321241,0,-16,-7,-54,-68,14,3,-16,1
1491088321241,0,-10,-8,-21,-6,-27,10,16,-2
1491088321242,1,-13,-2,-8,-35,-32,58,-5,-12
1491088321242,1,1,1,25,61,16,16,8,-3
1491088321278,2,9,8,26,15,53,70,48,4
1491088321278,2,4,-3,1,59,-34,-60,-68,8
1491088321279,3,-33,-9,-29,-91,-87,-67,-2,1
1491088321279,3,-15,-4,8,-16,-66,-23,-15,-17
1491088321279,0,-23,-9,11,28,63,102,90,-14
1491088321279,0,-108,-6,-22,-15,-85,-22,-88,-13
1491088321315,1,108,23,20,21,46,21,24,0
1491088321315,1,-109,8,6,-15,-5,3,-18,-34
1491088321317,2,101,2,12,22,45,14,21,2
1491088321317,2,-107,6,10,20,-8,-33,1,2
1491088321318,3,24,-9,-22,-70,12,5,22,19
1491088321318,3,9,-20,-41,-1,-105,-46,-69,4
1491088321319,0,-85,-2,0,-25,-47,74,-17,4
1491088321319,0,-1,-1,18,41,14,-69,50,-2
1491088321353,1,68,0,21,4,24,75,-25,2
1491088321353,1,127,-7,-26,-25,29,-5,64,13
1491088321354,2,91,-6,6,-13,-41,-5,8,24
1491088321354,2,44,9,3,26,7,17,-25,24
1491088321355,3,-9,-21,-19,5,-36,52,5,-5
1491088321355,3,-82,-4,-3,-21,6,-8,9,-1
1491088321355,0,67,-18,-6,3,-36,-22,-19,5
1491088321355,0,127,-2,0,8,41,107,44,-9
1491088321390,1,-95,20,15,42,50,-84,14,-10
1491088321390,1,-88,-7,-24,-51,-53,-25,-48,11
1491088321391,2,-7,0,-10,3,-16,-12,-52,-26
1491088321391,2,-50,-6,7,-10,-23,-13,27,24
1491088321392,3,-92,-8,-4,18,1,-23,-13,-6
1491088321392,3,94,0,20,71,66,59,24,-8
1491088321393,0,-39,8,-25,-92,-88,44,-9,-4
1491088321393,0,79,-20,-22,82,33,-116,-17,2
1491088321428,1,-27,-19,1,-17,-38,-2,-21,-23
1491088321428,1,10,2,-14,-37,-11,37,34,15
1491088321429,2,11,-4,19,62,30,25,0,16
1491088321429,2,-78,-12,-9,-77,-46,61,9,-31
1491088321431,3,43,-2,-3,41,3,47,-19,-6
1491088321431,3,-44,14,20,-3,21,6,15,10
1491088321433,0,33,8,30,54,71,-94,-33,0
1491088321433,0,-49,-12,-48,-77,-65,48,3,-11
1491088321503,1,-104,-9,-5,-17,-38,-53,-21,-36
1491088321503,1,127,-16,3,-20,-6,43,-3,20
1491088321504,2,-22,-7,-4,19,19,28,2,-15
1491088321504,2,-90,4,-3,-88,-36,8,-18,-8
1491088321505,3,-27,13,14,83,80,127,51,24
1491088321505,3,-89,18,11,78,-2,-10,-29,-19
1491088321506,0,-75,1,-22,-62,-58,-2,8,-1
1491088321506,0,32,-24,-6,28,23,-80,-35,2
1491088321540,1,20,-12,-7,-35,-36,49,0,-4
1491088321540,1,-11,3,17,-50,-34,11,17,-8
1491088321541,2,30,13,-1,70,64,-107,-33,-10
1491088321541,2,51,-16,-9,-21,-33,100,39,14
1491088321542,3,39,6,17,15,-29,-15,-70,-22
1491088321542,3,17,-13,-36,-38,15,-30,90,22
1491088321543,1,45,6,27,55,120,-99,0,30
1491088321543,1,22,0,-12,62,-50,38,5,-7
1491088321578,2,-20,-19,-21,6,-39,61,34,29
1491088321578,2,40,8,0,3,-6,-39,-67,-4
1491088321579,3,13,-7,-9,-32,-27,47,44,-1
1491088321579,3,16,19,-1,-107,-24,38,-20,-34
1491088321580,1,5,-6,-28,-74,-10,32,-18,-2
1491088321580,1,-9,-15,-8,2,-46,23,-48,-38
1491088321581,2,-7,10,26,-50,-19,-5,80,0
1491088321581,2,14,-7,-15,90,53,-36,-52,9
1491088321616,3,4,-16,-15,-33,20,-16,5,-16
1491088321616,3,-10,-27,-16,-16,-50,62,48,-35
1491088321618,0,-3,3,7,-12,56,-24,-72,18
1491088321618,0,32,14,15,-3,-22,73,28,-8
1491088321620,1,8,4,-8,-11,-34,11,2,6
1491088321620,1,-21,3,1,10,7,34,44,-5
1491088321621,2,-10,-16,-30,10,-27,47,-90,-27
1491088321621,2,-6,11,10,-3,18,-98,16,19
1491088321654,3,7,1,12,40,19,-31,26,-5
1491088321654,3,5,13,33,39,27,17,58,-26
1491088321655,0,-12,-7,-16,2,-29,-79,-30,-5
1491088321655,0,13,-7,-30,-49,-7,-7,-75,37
1491088321691,1,-3,-20,-13,-28,-44,-78,-33,4
1491088321691,1,4,18,19,-10,-13,-6,49,11
1491088321693,2,6,3,18,12,56,-2,-11,-2
1491088321693,2,-20,-16,-2,41,12,103,50,-31
1491088321694,3,-1,7,-10,-17,-8,-17,-109,-12
1491088321694,3,-8,-16,-7,12,8,-57,18,54
1491088321695,0,-8,7,-21,-83,-80,0,3,-64
1491088321695,0,0,-8,-2,61,39,-8,85,11
1491088321728,1,-5,5,13,6,-19,5,-48,23
1491088321728,1,-10,-9,-16,-12,34,-6,-55,-13
1491088321729,2,-13,-6,9,-27,-59,127,48,2
1491088321729,2,-6,33,23,1,4,-128,42,-28
1491088321730,3,13,-6,-15,11,20,-25,-59,0
1491088321730,3,-13,-12,0,2,40,5,16,18
1491088321731,0,16,-2,6,29,-8,21,68,-7
1491088321731,0,7,8,20,-12,29,8,-11,-16
1491088321765,1,5,-7,-23,-8,-27,15,2,-11
1491088321765,1,11,1,2,8,-29,-126,-57,23
1491088321766,2,-29,-5,-27,-63,-10,-43,-19,-4
1491088321766,2,-10,-13,-10,12,19,90,46,-19
1491088321767,0,6,10,9,0,-22,7,45,9
1491088321767,0,18,-6,3,27,35,-1,-48,11
1491088321768,1,-1,-16,-17,-22,-40,62,62,-5
1491088321768,1,-8,10,5,12,-6,12,27,-19
1491088321840,2,1,-6,-9,-8,48,67,-26,33
1491088321840,2,-11,7,6,42,-37,-15,-84,-33
1491088321878,3,-18,-10,-4,3,58,-57,127,37
1491088321878,3,26,-14,-21,9,17,16,-117,19
1491088321878,0,-3,11,20,15,-3,-7,21,2
1491088321878,0,-20,7,-4,-79,-37,-23,25,-11
1491088321879,1,-1,6,4,24,-16,45,-6,-16
1491088321879,1,11,9,1,-11,3,-19,25,21
1491088321880,2,-6,-4,-1,2,-40,-5,-20,-27
1491088321880,2,2,-4,8,27,77,-70,24,17
1491088321915,3,-13,-7,-8,0,-29,33,100,-22
1491088321915,3,-13,5,-4,-47,-52,-65,-24,-11
1491088321916,3,2,3,15,18,25,-20,-59,-26
1491088321916,3,-7,13,16,24,5,83,-5,24
1491088321916,3,8,5,-5,-34,-29,81,37,-13
1491088321916,3,-22,-19,-12,43,-4,-128,19,-37
1491088321917,0,15,46,44,-2,38,127,-21,19
1491088321917,0,-7,8,9,23,3,29,18,-23
1491088321953,1,-6,-15,0,-7,-6,-6,-39,10
1491088321953,1,10,-1,-2,-23,-26,1,-40,-13
1491088321990,2,-14,5,11,49,6,-12,94,6
1491088321990,2,6,-2,-24,-23,0,-61,-67,0
1491088321993,3,-17,-11,-5,-57,-50,-60,-6,-17
1491088321993,3,-1,-4,21,86,103,79,-15,-21
1491088321994,0,1,6,-20,-48,-94,-83,46,5
1491088321994,0,11,-5,-7,-56,-38,67,-53,13
1491088321994,1,-7,5,-7,33,35,39,-8,-9
1491088321994,1,3,-5,-27,-30,-26,-27,59,32
1491088322028,2,10,-28,-13,9,14,40,-13,-20
1491088322028,2,7,34,35,-32,19,10,-67,-1
1491088322065,3,-8,16,1,17,-34,-44,78,14
1491088322065,3,1,10,7,18,-53,-69,-53,-13
1491088322066,0,-11,-19,-13,-15,59,79,33,30
1491088322066,0,-2,-19,-7,3,-2,9,21,-1
1491088322066,2,-1,14,3,-20,3,-28,29,-8
1491088322066,2,7,6,9,42,-25,5,33,20
1491088322102,3,-7,-14,-6,-74,-41,75,-8,-20
1491088322102,3,9,-18,-19,53,7,-62,38,-19
1491088322103,0,21,-7,-5,-53,-9,-74,-98,34
1491088322103,0,-14,-13,6,113,72,77,56,-13
1491088322104,2,-10,20,15,-8,-17,41,-42,-20
1491088322104,2,-24,12,7,-2,-16,31,100,-2
1491088322105,3,20,-6,13,23,15,-40,-93,-12
1491088322105,3,-6,14,13,-17,-9,-31,6,2
1491088322140,1,-20,-33,-35,-28,-19,46,-28,1
1491088322140,1,-30,-1,40,95,124,54,14,-18
1491088322141,2,8,-6,-49,-98,-83,-44,-33,-32
1491088322141,2,-5,-24,-22,98,36,-45,75,34
1491088322141,3,6,-4,13,20,11,-50,-75,2
1491088322141,3,16,29,8,18,-7,-38,-10,3
1491088322142,1,8,12,-12,-11,-32,-28,-29,-21
1491088322142,1,8,-28,-18,-2,14,35,4,28
1491088322178,2,-13,8,10,-39,-28,72,51,-33
1491088322178,2,-9,-18,-46,-31,-22,-29,8,-1
1491088322179,3,28,4,23,50,-15,32,-11,7
1491088322179,3,-8,2,-9,-112,-33,-6,51,18
1491088322184,1,-8,23,38,60,48,29,66,-21
1491088322184,1,10,-7,-22,-4,-7,13,-11,18
1491088322184,2,-18,2,-15,-22,-91,0,43,-38
1491088322184,2,2,-3,-4,-18,-14,-78,-79,29
1491088322215,3,10,-6,1,-63,3,66,46,0
1491088322215,3,-16,-8,-12,0,-11,5,6,-20
1491088322216,0,10,-4,3,17,31,36,-16,-16
1491088322216,0,1,24,35,38,-47,-60,-16,-2
1491088322216,1,-16,-29,-36,-47,2,-51,-14,-12
1491088322216,1,-5,13,6,-37,8,103,53,22
1491088322217,2,10,-2,4,52,-62,-104,80,-1
1491088322217,2,6,-4,15,38,95,55,-104,-5
1491088322290,3,12,1,-21,-63,-25,1,-31,20
1491088322290,3,-23,-29,-33,65,-42,55,9,-19
1491088322291,0,11,-4,9,41,-25,-70,76,62
1491088322291,0,19,5,1,-40,29,57,-55,18
1491088322292,1,-9,-3,-5,-4,-3,-67,12,-1
1491088322292,1,-4,7,10,-6,-1,24,28,-18
1491088322293,2,6,9,5,-54,-19,-9,-81,-18
1491088322293,2,-16,-10,-22,33,30,12,97,-12
1491088322328,3,21,2,10,70,59,55,1,22
1491088322328,3,10,1,5,-43,-63,-67,-90,-7
1491088322329,0,-3,-18,-14,10,77,-68,17,8
1491088322329,0,0,-4,-34,-109,-50,82,42,-2
1491088322330,0,-16,-8,18,40,-38,110,71,9
1491088322330,0,5,16,-39,-110,10,6,-43,-24
1491088322331,1,-6,-8,5,22,-28,-109,-54,8
1491088322331,1,3,7,10,118,117,-38,43,-4
1491088322365,2,1,-42,-55,-56,6,29,-38,-7
1491088322365,2,-6,4,28,0,-81,-48,6,4
1491088322402,3,-5,30,43,-11,49,57,11,-23
1491088322402,3,6,13,21,-121,9,38,-7,12
1491088322403,0,-5,0,-39,97,-64,-44,-20,-43
1491088322403,0,-7,-36,-20,-30,-24,7,-37,28
1491088322404,1,-11,-13,-25,21,22,84,15,-30
1491088322404,1,15,29,42,-26,77,74,-33,-11
1491088322405,2,-8,0,-13,15,23,110,96,-6
1491088322405,2,-14,-17,2,66,-35,-51,-112,17
1491088322515,3,15,-4,-24,-10,-7,119,97,22
1491088322515,3,-4,-7,-18,-92,-82,81,-37,2
1491088322590,0,13,35,59,-98,61,27,8,-5
1491088322590,0,-4,0,-20,0,-4,41,14,7
1491088322591,1,8,-12,3,56,47,-51,-30,35
1491088322591,1,3,1,1,-1,-52,-128,45,41
1491088322592,3,-8,-17,-22,-76,-30,-10,1,20
1491088322592,3,9,1,12,52,-17,-6,26,-4
1491088322593,0,14,5,-6,-22,46,-47,-93,34
1491088322593,0,-2,14,84,93,98,38,-54,-27
1491088322627,1,-25,13,-12,-127,-100,19,89,-42
1491088322627,1,-7,-35,-35,127,81,37,-21,5
1491088322628,3,13,0,-42,14,-10,-36,9,-39
1491088322628,3,-7,-40,-15,-5,-94,-106,-49,36
1491088322629,2,-3,0,17,52,-1,12,-3,-2
1491088322629,2,-6,43,87,12,30,127,57,-38
1491088322630,2,-2,-15,-58,-27,29,11,-60,-19
1491088322630,2,-11,-11,20,-22,-41,55,7,7
1491088322665,3,-16,28,38,103,54,-92,52,-37
1491088322665,3,16,5,-14,-18,-25,-57,-75,15
1491088322702,0,-17,-10,44,88,43,79,30,1
1491088322702,0,-1,-15,-96,-127,-84,-98,18,15
1491088322740,1,-3,-13,-31,-13,-44,117,-49,4
1491088322740,1,-15,-7,1,-12,-5,70,18,9
1491088322741,2,-8,-10,-14,21,28,43,-6,5
1491088322741,2,10,13,95,113,63,67,79,45
1491088322742,3,8,19,-6,70,36,25,-21,1
1491088322742,3,9,-11,-58,-66,-82,-76,-64,17
1491088322778,0,-16,-11,-6,-17,-14,-16,24,-13
1491088322778,0,-8,9,31,36,42,-33,20,-4
1491088322815,1,-15,-7,-6,-53,3,-20,5,-26
1491088322815,1,6,11,41,24,47,86,-8,-25
1491088322816,2,14,7,-39,-85,-9,-124,8,-4
1491088322816,2,-3,-36,-33,42,-25,0,-48,7
1491088322817,1,1,-1,1,6,13,-16,-4,20
1491088322817,1,36,3,25,25,74,39,-14,-17
1491088322818,1,104,6,33,49,49,-47,52,5
1491088322818,1,110,-15,-45,-24,-109,-100,-92,7
1491088322852,2,30,-16,10,18,59,45,33,-30
1491088322852,2,23,20,30,-1,72,85,9,-35
1491088322853,3,5,3,-26,-25,11,19,33,-6
1491088322853,3,0,-7,24,2,33,-28,46,-5
1491088322854,0,-7,-3,30,58,27,3,-69,-10
1491088322854,0,-52,-22,-12,-11,7,-3,21,-5
1491088322855,0,7,-3,7,-45,-4,-15,18,-14
1491088322855,0,60,-12,6,-7,50,86,-31,-22
1491088322890,1,57,-1,-1,-14,-85,-90,4,13
1491088322890,1,51,-10,-21,-2,17,73,9,10
1491088322891,2,36,2,24,25,9,-36,15,13
1491088322891,2,33,6,8,-20,-10,-45,-27,-29
1491088322892,0,77,-6,-18,32,14,-13,20,11
1491088322892,0,104,3,-13,-64,-41,-16,-19,8
1491088322893,1,127,-8,-4,35,-36,15,-7,0
1491088322893,1,118,10,4,-11,-24,29,-4,1
1491088322928,2,62,0,-16,14,-15,-22,-30,-19
1491088322928,2,57,2,-21,30,27,2,-1,23
1491088322928,3,53,1,-17,-39,-54,-22,12,-22
1491088322928,3,26,13,17,39,-13,-61,-50,-5
1491088322929,0,-8,7,-13,-23,54,34,5,-8
1491088322929,0,13,3,13,-30,-19,-28,0,11
1491088322930,1,-14,-5,-3,3,22,87,26,-3
1491088322930,1,-17,6,4,-15,8,-72,25,3
1491088322965,2,-28,-4,0,-5,-14,-24,-18,-26
1491088322965,2,20,17,20,59,47,-6,8,24
1491088323078,3,-5,1,-10,-20,-50,-43,-29,-8
1491088323078,3,-23,-6,-22,-16,-51,-36,-32,-17
1491088323079,0,-21,-10,-41,-54,-32,-22,-7,-11
1491088323079,0,-14,8,16,1,-38,43,39,15
1491088323080,1,-4,9,26,20,68,71,-23,-9
1491088323080,1,4,1,-17,-3,9,-96,23,12
1491088323081,2,-21,0,28,65,-21,127,38,3
1491088323081,2,-23,-9,-12,-3,2,-93,-43,2
1491088323115,3,-9,-3,-9,-13,32,72,62,18
1491088323115,3,-30,-7,6,-19,17,4,-27,-13
1491088323116,0,-24,24,23,5,19,71,45,15
1491088323116,0,-19,-17,-18,18,-114,-79,-48,11
1491088323117,1,-6,0,15,-14,21,27,-30,-17
1491088323117,1,-17,-6,-2,36,52,68,22,5
1491088323118,2,-33,11,20,-17,-14,21,-43,-28
1491088323118,2,-88,1,19,82,107,-79,119,34
1491088323153,3,-30,14,0,-65,-36,55,-17,-24
1491088323153,3,43,-4,3,38,-63,-77,-3,18
1491088323155,0,51,-18,-21,-23,-40,63,-72,12
1491088323155,0,-83,-24,-51,-128,6,102,76,-38
1491088323190,2,58,-10,10,-3,-37,60,11,15
1491088323190,2,-46,-4,4,-23,9,119,-56,-17
1491088323191,3,-46,-1,14,2,32,90,27,-7
1491088323191,3,-75,2,-17,-15,-18,28,-2,-22
1491088323192,0,-17,12,-9,-49,12,8,-13,10
1491088323192,0,33,-13,-14,47,-58,-106,-14,7
1491088323193,1,-20,-4,28,52,70,-73,58,5
1491088323193,1,-63,-11,-36,-69,-69,-128,-54,18
1491088323228,2,-15,-22,-12,-7,8,-32,-22,-9
1491088323228,2,0,8,16,-29,49,8,6,-8
1491088323231,3,48,6,4,-44,17,-48,-20,8
1491088323231,3,57,-2,0,3,-18,-104,23,-24
1491088323232,0,50,-17,-21,11,-51,-128,67,11
1491088323232,0,74,10,21,26,19,-128,-38,-40
1491088323233,2,50,3,14,90,55,-128,-101,26
1491088323233,2,66,-4,-3,-42,-33,36,23,21
1491088323303,3,47,-3,6,-44,17,61,-19,-21
1491088323303,3,42,20,8,-17,-58,80,3,-4
1491088323304,0,14,-7,6,16,29,23,57,-24
1491088323304,0,35,2,-2,-2,-16,-31,-26,8
1491088323305,1,25,1,26,0,20,120,8,-6
1491088323305,1,1,2,-40,-19,-13,-57,-30,-4
1491088323306,2,-11,-34,-31,-19,-66,-55,-32,32
1491088323306,2,-22,-9,-6,-15,-3,98,13,-21
1491088323341,3,-10,-3,20,15,-37,41,-2,-14
1491088323341,3,-6,25,24,32,79,122,15,-29
1491088323343,0,-24,-1,18,74,35,-24,26,17
1491088323343,0,-13,-14,-35,-64,-35,76,3,-24
1491088323344,1,-2,-10,-9,32,3,-75,-78,7
1491088323344,1,-13,19,43,-40,24,72,70,-21
1491088323345,1,8,-11,-22,30,-37,-55,16,-11
1491088323345,1,61,-10,16,9,-32,-77,-57,21
1491088323378,2,71,-13,-4,-35,30,127,43,-20
1491088323378,2,89,17,25,57,57,33,-25,22
1491088323380,3,87,5,-6,-89,-26,64,31,26
1491088323380,3,60,-6,-5,17,-16,-74,17,13
1491088323381,1,34,27,18,46,49,-52,20,44
1491088323381,1,-27,-8,-11,-51,-28,-33,-2,-1
1491088323382,2,-40,9,3,-51,19,-81,-25,-48
1491088323382,2,20,6,8,-45,-40,35,49,26
1491088323415,3,9,-8,2,108,26,1,-69,-47
1491088323415,3,-18,-5,-14,-11,-76,-52,23,5
1491088323417,0,-49,-1,-11,-58,-28,24,0,20
1491088323417,0,-53,6,12,28,-23,-62,-38,-10
1491088323418,1,-55,22,41,4,5,31,35,-25
1491088323418,1,-50,-7,12,-49,-38,-19,-30,-8
1491088323419,2,-65,-7,-20,78,80,-1,-14,-9
1491088323419,2,-59,-24,-15,26,-1,-87,-1,-11
1491088323453,3,-38,4,9,25,9,107,-36,14
1491088323453,3,-4,-5,2,-19,54,83,15,-12
1491088323454,0,-11,7,10,-67,-55,13,24,-6
1491088323454,0,-6,5,7,-12,-12,-30,38,-17
1491088323454,1,20,-1,-8,-11,9,-63,-44,4
1491088323454,1,17,6,25,66,1,43,24,11
1491088323455,2,19,-1,1,-23,-2,-78,20,5
1491088323455,2,12,-7,-20,9,43,19,-51,20
1491088323490,3,19,-29,-48,-93,-70,62,105,4
1491088323490,3,16,-1,-1,55,36,-86,-109,-2
1491088323527,0,20,-1,4,-22,-17,93,16,-9
1491088323527,0,9,19,17,-8,-36,-52,49,16
1491088323529,1,28,-25,6,60,96,-70,8,40
1491088323529,1,22,3,-22,-13,16,122,25,25
1491088323530,2,-7,-3,2,8,-10,-40,-49,-22
1491088323530,2,6,-6,-2,-1,-12,62,-29,-12
1491088323531,3,-3,16,21,59,-7,-5,54,-8
1491088323531,3,22,-17,-34,-3,33,-59,-17,-8
1491088323565,0,16,11,11,7,25,24,-34,-10
1491088323565,0,4,12,5,-16,-17,8,-17,-7
1491088323566,1,-5,-11,-27,-56,-73,-48,12,2
1491088323566,1,0,-15,7,29,-25,-13,13,-13
1491088323566,2,-7,6,-19,-69,-55,9,16,0
1491088323566,2,23,-16,-13,-7,13,-16,-17,-14
1491088323567,3,-2,-8,-6,2,68,-42,-7,-5
1491088323567,3,0,8,9,4,29,66,-14,17
1491088323603,0,9,6,8,22,-53,87,41,-7
1491088323603,0,-2,10,16,28,31,-64,6,24
1491088323603,1,-8,-19,-26,-40,-30,117,-20,-16
1491088323603,1,10,4,-3,-61,-27,-20,-14,10
1491088323604,3,4,10,13,5,3,-63,-9,-3
1491088323604,3,-10,7,17,27,-25,-24,35,-23
1491088323605,0,6,-3,10,-28,-1,11,45,-11
1491088323605,0,-12,-5,-17,4,-15,-89,-31,-28
1491088323640,1,18,-11,-14,-16,13,-20,-72,-3
1491088323640,1,-12,-1,2,-2,-18,43,15,-1
1491088323641,2,-7,5,15,-56,5,-29,-18,12
1491088323641,2,8,-1,0,32,20,55,14,-33
1491088323641,3,6,-1,-13,-87,-77,5,-56,17
1491088323641,3,9,-5,-2,94,111,-33,18,-7
1491088323642,0,12,1,12,40,0,9,-40,6
1491088323642,0,-14,-10,-35,-78,-53,-11,27,-9
1491088323715,1,10,-14,-18,-34,-8,21,14,30
1491088323715,1,1,13,12,-7,-41,-55,8,-10
1491088323716,2,6,4,18,-5,23,-5,-8,19
1491088323716,2,-6,4,17,78,69,127,-53,-38
1491088323716,3,-3,4,3,46,-18,-101,12,17
1491088323716,3,5,-12,-9,6,7,27,32,1
1491088323717,0,-7,13,1,34,-25,-44,-6,16
1491088323717,0,13,1,-2,-67,-12,53,-21,13
1491088323752,1,-12,0,-9,-18,1,-1,-13,-33
1491088323752,1,13,-4,8,19,55,-44,28,35
1491088323753,2,-17,9,1,-33,-61,22,-21,-7
1491088323753,2,-3,-5,-15,10,-23,-22,48,-27
1491088323754,3,23,2,20,29,32,-17,-40,29
1491088323754,3,-20,-10,-17,-26,-16,19,-21,-8
1491088323755,2,-6,-17,-9,-27,13,29,-41,-15
1491088323755,2,-6,9,17,6,-29,46,79,3
1491088323790,3,-9,-14,-8,54,62,-58,2,-2
1491088323790,3,8,4,3,-8,-17,-38,-26,-7
1491088323791,0,-16,-25,-26,11,16,8,-79,-9
1491088323791,0,-15,1,12,-1,8,74,7,-7
1491088323791,2,13,2,-11,-32,-75,-124,56,3
1491088323791,2,-3,-28,-33,-38,44,7,-101,30
1491088323827,3,-16,18,10,-23,-11,60,24,-44
1491088323827,3,0,5,23,92,55,57,33,3
1491088323828,0,9,19,23,17,-24,17,-11,-20
1491088323828,0,6,-6,-19,-27,-14,-74,28,15
1491088323829,1,-6,-3,6,1,10,-43,8,0
1491088323829,1,-9,8,7,-47,-22,93,-68,-48
1491088323830,2,29,-4,-2,52,20,-3,58,35
1491088323830,2,-14,-2,10,45,11,-71,-64,-18
1491088323865,3,-10,-14,-37,-54,-46,53,26,22
1491088323865,3,2,-6,0,-8,-17,-128,20,-5
1491088323867,0,-17,-15,-7,-21,22,72,-23,2
1491088323867,0,1,12,31,-51,-47,16,4,-4
1491088323868,1,29,7,-5,32,17,-24,19,-14
1491088323868,1,-25,-11,4,48,2,27,-57,12
1491088323869,2,1,-2,-22,-40,-10,-68,56,-1
1491088323869,2,-9,-13,-6,0,14,46,-19,35
1491088323903,3,12,8,17,-11,-33,56,-68,-14
1491088323903,3,2,22,20,-22,13,59,51,-9
1491088323904,0,5,-5,-7,8,31,-10,14,26
1491088323904,0,-14,6,-7,-10,-90,-92,14,-18
1491088323905,1,2,-30,-27,35,63,29,-12,25
1491088323905,1,-3,-12,-12,-36,-16,81,-48,-15
1491088323906,2,-14,-5,-8,-36,-21,37,-28,-8
1491088323906,2,14,16,22,15,-23,12,91,-26
1491088323940,3,-5,22,17,-26,-30,66,30,-8
1491088323940,3,12,-19,-16,42,64,-128,89,37
1491088323941,0,-9,0,31,12,82,95,-95,-18
1491088323941,0,-9,-8,-33,-16,-26,9,40,-7
1491088323978,1,-20,-30,-7,16,28,62,7,7
1491088323978,1,10,36,25,-21,-28,72,-14,-19
1491088323979,2,4,-13,-24,40,-3,-121,-14,7
1491088323979,2,16,13,40,54,57,-29,-63,9
1491088323980,3,24,12,11,-13,17,32,74,2
1491088323980,3,-46,-7,-16,-48,-122,17,-50,-7
1491088323981,0,56,-15,-11,-23,4,26,24,31
1491088323981,0,-15,5,4,11,26,-2,76,8
1491088324015,1,-10,-9,-10,-43,-43,-128,-52,10
1491088324015,1,-23,-18,-11,-67,-8,7,28,-56
1491088324016,2,4,32,27,79,13,-6,-43,15
1491088324016,2,-22,-2,12,-70,-55,42,37,3
1491088324017,3,8,-17,-2,127,124,37,51,12
1491088324017,3,8,-8,-19,-50,-53,-32,-88,26
1491088324018,0,-14,-6,-17,-72,-48,-53,-12,-24
1491088324018,0,-6,5,10,8,7,44,28,5
1491088324053,1,-29,27,33,-101,-66,-41,-31,-42
1491088324053,1,17,-21,-46,69,21,54,9,-8
1491088324054,2,15,-3,-10,36,-8,-8,-55,25
1491088324054,2,6,7,3,-28,-17,-41,42,-6
1491088324055,0,9,-8,-11,-111,31,91,42,33
1491088324055,0,-3,-6,9,115,113,80,-49,18
1491088324056,1,20,-8,-26,-105,-64,-40,55,-22
1491088324056,1,-21,11,11,-5,-15,-36,-32,-4
1491088324128,2,5,9,-1,-2,-48,15,12,5
1491088324128,2,-19,-4,-5,-8,14,24,-42,-14
1491088324128,3,-6,22,27,67,10,50,65,-20
1491088324128,3,5,-14,-26,-32,8,-30,-51,30
1491088324129,0,-6,-2,5,13,-9,-53,6,-26
1491088324129,0,-25,0,25,-13,13,45,-27,-26
1491088324130,1,44,11,-16,59,-24,-47,-28,39
1491088324130,1,-32,-9,-5,122,113,37,49,-12
1491088324165,2,38,-13,-2,0,21,-44,-23,75
1491088324165,2,25,-10,-7,-7,17,44,51,-12
1491088324166,3,-34,11,12,-47,-56,-51,-102,-53
1491088324166,3,27,19,16,-57,-52,9,49,12
1491088324167,0,-43,2,4,8,36,37,-43,-38
1491088324167,0,20,-3,-25,-17,-35,-64,56,21
1491088324168,3,-28,15,46,39,66,127,18,-23
1491088324168,3,28,8,-3,-17,-38,-94,36,13
1491088324202,0,-17,-11,-29,-41,0,47,-21,-62
1491088324202,0,10,11,-15,-11,-30,-126,-62,-14
1491088324203,1,-2,-9,30,77,117,106,39,20
1491088324203,1,-26,0,-4,-51,-46,-6,-60,-27
1491088324204,3,-24,-31,-30,48,41,-80,7,3
1491088324204,3,16,9,33,30,44,88,-38,-3
1491088324205,0,-25,3,-3,-69,-109,-34,31,-14
1491088324205,0,0,21,43,-59,11,108,72,-8
1491088324240,1,3,-23,-49,-9,-2,-90,-50,52
1491088324240,1,22,-2,2,-16,-4,46,40,10
1491088324242,2,16,13,7,0,5,-62,15,27
1491088324242,2,11,-13,-7,32,-5,-7,-58,-35
1491088324243,3,-12,21,53,41,67,92,35,-16
1491088324243,3,1,-2,-49,-53,-56,19,12,2
1491088324243,0,-25,-1,39,45,-4,35,-27,-16
1491088324243,0,9,4,31,66,9,-76,-22,-13
1491088324278,1,13,-16,-71,-17,-15,-17,-21,11
1491088324278,1,22,-22,-5,22,-5,79,-35,-11
1491088324280,2,63,26,13,-54,2,-32,115,-6
1491088324280,2,56,-6,15,49,55,13,-84,12
1491088324281,3,56,14,-15,-62,-20,59,38,-1
1491088324281,3,26,2,30,31,12,-84,38,4
1491088324281,0,10,27,38,58,69,71,14,-26
1491088324281,0,-5,-20,-49,36,6,-32,-40,-6
1491088324315,1,10,-28,-20,-32,59,31,40,8
1491088324315,1,-3,-10,-32,74,-20,-128,-50,43
1491088324316,2,-33,-20,17,51,-2,-23,-52,-11
1491088324316,2,13,26,22,-36,-34,127,53,-14
1491088324317,3,-20,-5,-14,-120,-50,-13,57,-6
1491088324317,3,-27,15,28,117,89,75,-17,-36
1491088324353,0,-7,15,4,2,17,-37,53,27
1491088324353,0,-36,-24,-23,-31,-27,41,-41,-3
1491088324390,1,13,9,8,-112,-97,-60,-32,-17
1491088324390,1,-43,-16,-28,-69,7,0,26,-8
1491088324391,2,-46,-20,-8,93,19,-82,-60,32
1491088324391,2,-22,-13,-12,-62,-37,25,10,1
1491088324392,3,-15,8,22,0,-3,39,2,-6
1491088324392,3,20,28,23,-47,-52,64,6,-4
1491088324393,0,0,-25,-61,-62,-15,-86,-18,-2
1491088324393,0,-45,-8,0,28,34,70,-38,-4
1491088324428,1,-108,17,21,-11,-16,28,-43,-4
1491088324428,1,-112,2,28,11,6,-23,-1,-4
1491088324430,2,-109,23,47,66,98,127,25,-43
1491088324430,2,-58,11,-58,-21,-128,-119,-14,-1
1491088324431,3,-6,-37,-27,-3,-30,-25,0,25
1491088324431,3,-3,24,68,25,60,118,-16,-1
1491088324431,1,22,29,49,24,-22,3,5,-23
1491088324431,1,14,-15,-48,9,12,-119,-45,2
1491088324502,2,31,-12,6,28,47,127,24,3
1491088324502,2,12,8,15,5,-40,-127,6,18
1491088324503,3,9,1,22,81,-1,0,-22,3
1491088324503,3,21,5,-21,-50,-2,51,50,-18
1491088324504,1,-15,-1,3,8,-13,55,47,-13
1491088324504,1,10,27,101,-12,83,24,13,-4
1491088324505,2,16,-17,-69,68,-36,-49,42,6
1491088324505,2,-8,-15,4,3,-12,-3,-51,9
1491088324540,3,31,-10,-45,-55,-30,-8,-64,-2
1491088324540,3,-20,11,54,-11,36,-18,23,-28
1491088324541,0,28,-6,9,-12,20,70,-21,3
1491088324541,0,60,2,-17,-28,-9,8,56,5
1491088324542,0,41,13,23,-15,71,-68,-30,-17
1491088324542,0,13,-3,-4,54,-40,70,63,6
1491088324542,1,6,-25,-71,-84,-90,-76,-50,21
1491088324542,1,10,-30,-19,-25,-51,-58,-2,23
1491088324577,2,-2,19,17,24,17,71,-23,-3
1491088324577,2,-18,22,43,23,96,22,28,-19
1491088324578,3,-12,5,38,64,58,-69,10,-17
1491088324578,3,-21,-1,-42,-50,-47,37,4,20
1491088324652,0,-31,-7,16,30,-29,86,10,5
1491088324652,0,-49,4,-6,-22,-7,26,-3,9
1491088324653,1,-49,14,7,18,32,21,8,-22
1491088324653,1,-20,9,-7,78,33,4,18,9
1491088324690,2,-63,-10,-13,-60,-126,-82,-45,18
1491088324690,2,-48,-2,-2,6,64,45,46,-5
1491088324765,3,-37,-21,-36,-3,-15,-64,-40,20
1491088324765,3,-45,3,52,42,103,73,83,-28
1491088324766,0,-7,8,-17,-3,46,-84,-61,-2
1491088324766,0,-48,-17,-24,-11,-77,-94,-53,-14
1491088324767,1,-36,-5,22,-21,16,-17,13,10
1491088324767,1,-60,-9,-35,5,8,-56,24,-23
1491088324768,2,-71,14,47,74,50,63,-16,-14
1491088324768,2,-46,9,-10,-82,8,-1,33,2
1491088324803,3,81,18,6,19,22,57,23,-29
1491088324803,3,71,-4,-19,-33,-16,-74,-66,5
1491088324953,3,-13,6,-19,21,-63,-123,-7,8
1491088324953,3,5,0,-2,-1,29,-119,-13,9
1491088324954,3,9,7,8,-21,94,115,0,-29
1491088324954,3,21,-11,4,7,10,-59,-57,15
1491088324955,0,2,15,23,50,-33,45,-13,-7
1491088324955,0,10,0,33,79,100,101,45,21
1491088324956,1,-41,-15,-59,-28,-82,-8,14,-31
1491088324956,1,10,-3,5,-9,36,-20,-5,-17
1491088324990,2,18,10,-1,22,-13,78,13,35
1491088324990,2,-8,10,11,-11,40,9,-5,-26
1491088324991,3,-64,6,3,-50,-8,77,28,10
1491088324991,3,40,7,-19,-63,-50,20,15,13
1491088324992,0,-61,-3,7,56,35,-59,-29,-14
1491088324992,0,20,1,21,71,2,-5,-35,-10
1491088324993,1,-22,-13,-4,-17,55,-31,2,-4
1491088324993,1,-50,6,11,-68,-18,43,-16,-21
1491088325028,2,-1,-11,-29,-39,-75,-53,-7,14
1491088325028,2,34,2,19,31,11,5,8,-8
1491088325029,3,-39,11,2,-27,-1,22,32,5
1491088325029,3,-57,-7,-1,44,48,-3,35,-8
1491088325030,1,46,15,28,35,-12,-41,34,-18
1491088325030,1,47,12,34,41,62,66,-46,9
1491088325031,2,43,-16,-41,-15,-66,11,30,-6
1491088325031,2,51,-27,-48,-75,-68,-93,-48,-2
1491088325065,3,-2,-6,11,6,3,72,44,1
1491088325065,3,64,7,-14,-33,-4,31,23,1
1491088325066,0,30,29,33,55,17,22,45,11
1491088325066,0,17,-1,-14,-107,2,-75,-63,-8
1491088325067,1,-19,-28,-22,60,11,70,0,-10
1491088325067,1,-4,0,-5,-32,-53,-5,-10,-10
1491088325068,2,-37,5,6,-14,21,12,-2,-15
1491088325068,2,-41,5,4,-53,-41,-34,76,-18
1491088325103,3,30,-3,13,96,65,-48,-28,27
1491088325103,3,-28,-16,-22,-12,2,112,-50,-15
1491088325107,0,-4,6,-1,-95,1,-96,-8,30
1491088325107,0,-57,11,35,127,25,127,11,-2
1491088325108,1,-63,13,-10,-60,-42,55,-5,-13
1491088325108,1,-7,-2,-14,-45,-14,96,80,38
1491088325109,2,4,-21,-2,46,39,27,-24,13
1491088325109,2,20,11,5,-7,2,-19,4,-12
1491088325141,3,38,-13,-16,-33,-13,-128,3,0
1491088325141,3,23,19,-2,14,15,-123,-38,-6
1491088325142,0,13,-4,-14,-63,-54,-101,-6,2
1491088325142,0,22,5,24,74,86,19,38,1
1491088325143,1,22,16,31,23,-3,2,8,-5
1491088325143,1,-16,-9,-6,10,-9,-29,-28,-20
1491088325144,2,-9,-4,-1,-7,8,10,-28,-38
1491088325144,2,-19,-7,9,43,4,48,-33,3
1491088325178,3,5,-15,-17,3,-43,-42,21,-2
1491088325178,3,-37,-4,17,-6,-7,90,-1,-18
1491088325179,0,3,4,-18,-77,-42,-93,-76,6
1491088325179,0,-17,-15,-26,51,48,46,22,-1
1491088325180,1,-10,13,5,-3,-19,34,6,-3
1491088325180,1,-11,-2,8,22,12,-27,19,3
1491088325181,2,-49,3,41,74,12,90,47,-2
1491088325181,2,42,1,-20,-90,-13,-14,-37,-34
1491088325215,3,-5,7,11,-83,-15,112,1,1
1491088325215,3,5,-20,-32,14,-24,-128,-63,14
1491088325216,0,-11,-2,0,38,-14,-95,5,-11
1491088325216,0,-10,1,-5,-20,-21,98,-29,15
1491088325217,1,-7,2,12,-41,-29,4,-34,-34
1491088325217,1,14,-4,-1,67,81,24,18,23
1491088325218,2,-11,-15,4,36,6,-20,12,-8
1491088325218,2,7,-2,-28,-31,-22,11,20,23
1491088325253,3,-10,-4,18,60,4,-19,-7,-8
1491088325253,3,-12,12,-7,-76,-35,60,20,-13
1491088325255,0,11,-9,-9,28,44,-54,-41,4
1491088325255,0,-19,0,15,-9,-22,-6,3,-8
1491088325256,1,24,10,11,23,5,63,42,-10
1491088325256,1,-10,6,5,-19,-13,-106,-69,1
1491088325257,2,22,-8,-16,17,36,95,52,-12
1491088325257,2,-11,-8,4,-26,-4,-48,1,-3
1491088325290,3,-2,-13,-23,22,9,74,-6,-7
1491088325290,3,-2,-8,-1,-3,-19,-63,27,-7
1491088325291,0,5,11,6,-28,-36,-52,-40,-35
1491088325291,0,-18,-18,-4,-16,-20,56,-13,-22
1491088325292,1,-1,-10,-9,40,33,-14,-11,2
1491088325292,1,-7,3,-9,-55,-32,35,39,17
1491088325292,2,-29,-10,14,9,0,-2,-72,1
1491088325292,2,52,9,-9,-7,-14,-128,77,42
1491088325327,3,-1,-13,-14,7,34,29,-11,11
1491088325327,3,-11,-9,-2,-18,-32,-23,-53,-32
1491088325329,0,24,10,6,24,25,44,69,24
1491088325329,0,-18,1,6,22,0,93,20,1
1491088325329,1,8,2,4,-33,-14,-66,-44,-1
1491088325329,1,7,4,9,9,27,32,81,17
1491088325332,2,-20,-8,6,5,-21,-86,32,5
1491088325332,2,1,-18,-47,23,10,53,-15,-22
1491088325365,3,30,-8,-20,-17,21,-15,-55,29
1491088325365,3,-14,-5,-2,-51,-45,3,-22,28
1491088325366,0,18,19,8,63,16,9,-12,-13
1491088325366,0,2,-12,4,-26,31,-24,24,10
1491088325367,1,-8,-1,-13,-8,-37,-12,58,1
1491088325367,1,-4,14,5,-3,-26,-35,-57,-16
1491088325403,2,-13,-24,-16,-15,44,89,56,-12
1491088325403,2,11,41,54,75,-8,-61,-58,-17
1491088325404,3,-13,-21,-48,-74,32,18,11,3
1491088325404,3,3,-13,-8,-2,-26,18,-13,-3
1491088325405,0,-2,3,-6,-110,-4,-17,-3,6
1491088325405,0,-7,-2,-7,72,-9,35,-14,-22
1491088325406,1,-2,-5,21,47,-6,50,-2,1
1491088325406,1,-3,-2,3,-23,6,-65,15,-4
1491088325440,2,-9,7,-26,0,-25,-41,-36,-15
1491088325440,2,-8,6,13,-34,-9,-9,34,-14
1491088325441,3,-1,10,26,19,40,22,-7,11
1491088325441,3,17,-1,-17,-7,-48,6,-21,-56
1491088325441,0,-21,-8,15,31,57,79,63,19
1491088325441,0,-4,-5,-13,-37,-34,-53,-77,17
1491088325442,1,-6,-13,-17,-28,0,-118,74,-4
1491088325442,1,13,11,10,7,-20,75,-12,-30
1491088325478,2,-8,18,2,15,-48,-97,-25,-25
1491088325478,2,-11,-31,-11,-7,56,82,-14,-1
1491088325479,3,-18,5,0,0,3,57,-4,40
1491088325479,3,-7,-9,6,46,54,7,19,-10
1491088325480,0,12,-12,-24,-35,-30,4,-33,25
1491088325480,0,15,26,24,15,17,20,41,-32
1491088325481,1,7,5,4,6,-7,-78,-78,1
1491088325481,1,-21,-4,-23,-51,-64,-28,8,-12
1491088325515,2,12,-5,12,85,7,118,-1,15
1491088325515,2,3,-11,3,-4,-8,30,-71,24
1491088325552,3,-6,5,-18,-43,-21,49,77,-14
1491088325552,3,-3,-11,-9,-9,14,115,-3,8
1491088325553,0,13,11,9,-15,1,-36,-2,-29
1491088325553,0,-6,18,13,-3,2,-119,31,5
1491088325554,1,11,9,20,18,42,-106,-57,23
1491088325554,1,9,-1,1,20,8,-54,56,6
1491088325555,2,0,-14,-5,19,12,109,6,7
1491088325555,2,-7,15,-1,-65,-78,90,5,-15
1491088325591,3,-14,-15,-13,25,11,-58,-41,-10
1491088325591,3,-8,-11,-17,-21,25,-33,-28,-4
1491088325591,0,-10,12,17,22,4,-128,-45,-22
1491088325591,0,1,-4,-15,-38,-8,-103,92,20
1491088325592,1,5,8,14,24,-19,-72,13,-23
1491088325592,1,-8,1,0,25,12,-57,-57,6
1491088325593,2,-10,5,6,-18,-41,-102,-7,-9
1491088325593,2,7,0,-1,-28,28,-4,-30,-8
1491088325627,3,19,-3,5,31,-16,63,64,-9
1491088325627,3,-17,1,0,5,70,64,61,16
1491088325628,0,0,-6,-12,6,3,35,-47,44
1491088325628,0,-5,-33,-29,-24,-61,-55,-63,-3
1491088325629,1,0,0,14,20,27,126,-50,-15
1491088325629,1,7,6,3,10,-3,34,42,23
1491088325630,2,-12,-10,-14,-64,-10,127,2,-22
1491088325630,2,-4,8,1,73,42,47,-39,2
1491088325665,3,-15,-2,11,-4,-10,44,92,11
1491088325665,3,2,-9,-16,-30,-7,-67,-51,-51
1491088325666,0,20,9,9,26,17,-73,26,83
1491088325666,0,18,-15,-14,22,22,-126,76,44
1491088325667,1,-11,1,5,-96,3,72,-28,-6
1491088325667,1,4,3,-6,80,4,44,50,-6
1491088325667,2,-14,-22,-17,-9,-39,-56,-22,1
1491088325667,2,24,12,19,-6,0,76,-17,-15
1491088325702,3,4,14,15,35,43,-41,-43,5
1491088325702,3,1,-3,14,19,-50,-13,27,20
1491088325703,0,2,4,-24,-128,-67,17,-2,-41
1491088325703,0,-22,-16,-36,5,-19,-62,-25,3
1491088325704,1,-4,-8,-22,-1,0,-24,17,24
1491088325704,1,8,5,16,31,37,24,-7,22
1491088325705,2,18,7,20,21,13,63,-30,-57
1491088325705,2,-16,2,2,-3,32,77,94,4
1491088325740,3,6,-4,-14,8,-17,-84,-112,-6
1491088325740,3,-29,-18,-6,5,34,16,-43,13
1491088325777,0,21,0,-4,-62,-33,16,59,-2
1491088325777,0,0,5,51,66,65,69,-14,-32
1491088325778,1,6,22,-17,10,-1,-25,86,-8
1491088325778,1,-8,-9,-17,-37,-103,-60,-41,27
1491088325779,2,-7,-19,-15,-18,10,32,-64,6
1491088325779,2,-36,-2,-7,-42,-68,46,-36,-15
1491088325780,3,43,6,38,-31,13,-30,84,0
1491088325780,3,-6,12,-31,13,59,-10,-10,-16
1491088325815,0,9,-7,0,49,46,-33,-26,18
1491088325815,0,7,0,-24,-121,-80,-67,-9,4
1491088325816,1,-31,-34,-15,57,24,61,-82,-10
1491088325816,1,44,14,30,-27,31,106,-32,-48
1491088325816,2,-30,2,-5,-36,-34,-69,72,-7
1491088325816,2,3,12,18,110,12,-65,-69,13
1491088325817,0,-11,-5,-13,12,8,-31,-6,-13
1491088325817,0,-11,18,28,9,31,20,34,9
1491088325890,1,-28,-19,-22,-78,12,15,-3,-18
1491088325890,1,20,-15,-34,38,-9,22,-67,18
1491088325892,2,-4,-16,-6,4,-19,-27,38,11
1491088325892,2,2,6,-10,7,-3,25,-76,-24
1491088325893,3,-4,21,24,25,-21,-40,15,13
1491088325893,3,-30,11,45,-50,30,13,69,-7
1491088325894,0,22,9,23,105,54,70,-74,-13
1491088325894,0,1,-14,-34,-45,-48,50,100,22
1491088325927,1,-14,-30,-28,19,32,-19,-68,-17
1491088325927,1,-17,-3,-2,-2,-21,-8,3,-9
1491088325928,2,6,7,-4,-33,4,-60,72,16
1491088325928,2,-2,-8,5,-3,3,58,-37,-40
1491088325929,3,-11,3,-17,-64,76,-38,-34,1
1491088325929,3,-2,0,26,73,1,41,8,5
1491088325930,0,7,-9,-12,-36,-94,0,25,14
1491088325930,0,-27,-3,29,100,67,35,-17,-55
1491088325965,1,9,-3,15,-66,-46,24,-23,17
1491088325965,1,4,8,-35,-70,-88,-26,-3,24
1491088325966,2,4,-29,-15,92,127,-36,-19,-9
1491088325966,2,-14,-3,-17,-65,-60,-53,-48,-9
1491088325967,3,8,32,8,-59,-74,49,71,-32
1491088325967,3,-1,-27,-28,69,71,-128,-30,26
1491088325967,0,-19,4,8,-24,48,47,-26,-10
1491088325967,0,-1,-9,-32,-11,-63,-92,70,21
1491088326002,1,-13,-1,45,50,8,68,-13,-38
1491088326002,1,31,27,29,-13,47,89,59,-29
1491088326003,2,-1,-23,-72,-55,-23,-83,-44,19
1491088326003,2,-9,-7,21,-3,20,56,-3,-5
1491088326004,3,-7,-6,-50,-48,-8,-128,-85,39
1491088326004,3,-14,2,22,33,20,124,44,-20
1491088326005,0,-3,21,59,67,46,56,6,-54
1491088326005,0,2,-14,-48,-97,-55,-54,39,24
1491088326040,1,1,6,-9,-24,-77,37,15,-12
1491088326040,1,-5,-17,-13,59,1,-49,-70,-20
1491088326041,2,-1,-5,15,-87,-48,13,15,11
1491088326041,2,-5,6,17,100,46,-3,-11,0
1491088326041,3,4,10,31,34,34,73,65,-11
1491088326041,3,4,32,22,-78,-72,8,-103,-27
1491088326042,0,-12,-27,-85,74,-67,29,59,10
1491088326042,0,13,-26,-12,7,0,-60,-19,18
1491088326077,1,4,24,74,92,80,88,55,12
1491088326077,1,-10,4,-74,16,39,-19,11,-29
1491088326078,2,-2,-26,-29,-96,-63,-81,-74,25
1491088326078,2,-2,12,3,-7,60,19,-35,-2
1491088326079,3,-6,7,9,-33,-70,-69,24,-2
1491088326079,3,8,1,37,93,61,16,6,-10
1491088326080,0,-2,37,64,-56,26,-22,-23,-10
1491088326080,0,7,-20,-49,127,57,-120,15,3
1491088326115,1,-9,-34,-34,-100,-61,20,-9,53
1491088326115,1,-13,2,24,-25,-21,50,-24,-20
1491088326116,2,20,23,34,13,27,119,53,-10
1491088326116,2,1,18,44,-54,-6,5,-18,-16
1491088326116,3,-7,-18,-56,-41,-56,22,-66,-36
1491088326116,3,13,-20,-10,-55,51,-66,37,50
1491088326117,0,-1,-10,1,82,-10,31,31,24
1491088326117,0,-5,43,100,3,-10,127,2,-24
1491088326152,1,-2,2,-55,97,12,-105,10,-5
1491088326152,1,-11,-49,-50,-24,-28,-128,-18,47
1491088326153,2,37,19,21,18,22,69,35,-3
1491088326153,2,4,0,-3,-18,-8,17,7,-3
1491088326154,3,-8,4,8,-26,27,71,-49,-41
1491088326154,3,-11,12,23,-48,-59,-66,-15,15
1491088326155,0,-10,-3,19,-30,39,33,-10,-18
1491088326155,0,0,16,-49,-128,-75,-1,42,-31
1491088326190,1,-10,-63,-19,123,-44,-12,-40,23
1491088326190,1,16,-5,-31,-32,3,-96,35,41
1491088326191,2,-8,17,54,67,33,53,19,-11
1491088326191,2,8,4,-83,-15,33,2,-32,-5
1491088326191,3,5,-15,-15,-26,38,-98,-10,5
1491088326191,3,-10,3,8,31,-4,127,24,-31
1491088326192,0,-2,8,23,41,39,40,11,7
1491088326192,0,9,13,42,-33,-34,-33,5,26
1491088326227,1,5,5,8,18,57,55,-2,-14
1491088326227,1,-5,-20,-43,-69,-70,-111,21,-19
1491088326228,2,7,-17,-28,-30,-25,66,-12,33
1491088326228,2,0,-14,9,4,-3,-18,-42,-13
1491088326229,3,-3,20,22,57,62,3,48,9
1491088326229,3,-6,5,34,-61,-40,33,2,-37
1491088326230,0,-9,1,-10,109,43,-23,-22,-8
1491088326230,0,-4,0,27,28,-27,29,46,5
1491088326265,1,-16,-7,-37,-117,-85,-75,-74,-24
1491088326265,1,1,-6,-10,127,47,84,3,-8
1491088326266,2,-6,-14,-38,-35,-67,-128,13,8
1491088326266,2,-3,-18,4,30,29,95,-32,-4
1491088326267,3,13,48,127,-23,67,21,32,-11
1491088326267,3,-16,25,-48,60,33,127,8,-34
1491088326340,0,11,-70,-92,-128,-81,-128,-42,51
1491088326340,0,-8,-28,-22,-15,-23,109,-67,4
1491088326341,1,-14,17,28,25,86,126,3,-23
1491088326341,1,1,28,29,-58,-58,-94,105,37
1491088326341,2,-17,4,26,6,14,11,-97,-17
1491088326341,2,-5,4,-16,-12,10,-14,23,-11
1491088326342,3,4,-12,-30,-44,-48,-48,10,15
1491088326342,3,9,26,93,80,56,72,-30,16
1491088326377,0,-3,21,-5,49,85,15,59,-31
1491088326377,0,3,-13,-35,-46,-75,-85,12,33
1491088326378,1,0,-30,-90,-12,-86,12,12,7
1491088326378,1,-7,-41,-51,-53,-112,-128,-88,5
1491088326379,0,2,-17,-16,-105,-110,-112,5,17
1491088326379,0,-2,4,16,14,19,-24,-111,-18
1491088326380,1,21,19,60,84,88,60,123,56
1491088326380,1,-21,32,-30,-126,-32,127,14,-46
1491088326453,2,4,-32,-74,-46,-91,-73,-44,33
1491088326453,2,-3,-37,-35,111,-12,-30,106,21
1491088326455,3,-8,-7,-28,-44,-35,-11,-108,-18
1491088326455,3,12,16,73,0,111,121,56,-5
1491088326456,0,-5,20,27,50,23,-71,-25,-1
1491088326456,0,10,3,-9,-54,-29,-67,9,-6
1491088326457,1,-19,-15,-8,59,32,-68,-45,-20
1491088326457,1,-1,6,8,-29,56,-12,127,7
1491088326490,2,-11,7,2,-50,7,113,-15,0
1491088326490,2,-10,4,2,-43,26,-10,-58,-2
1491088326491,3,-4,1,-26,45,-28,-8,5,-13
1491088326491,3,4,2,71,16,60,-23,-82,24
1491088326491,3,1,-6,-11,-3,21,30,38,10
1491088326491,3,-14,-2,38,2,-72,1,-5,-18
1491088326492,0,-7,7,19,-5,38,47,51,-22
1491088326492,0,8,18,-36,-72,73,-3,-14,-25
1491088326527,1,17,-38,-41,4,-128,-24,29,51
1491088326527,1,-1,-38,-33,-27,34,-46,-78,-11
1491088326529,2,-7,-3,16,-10,-40,88,43,-4
1491088326529,2,6,-8,39,44,65,119,-37,-32
1491088326529,3,4,2,-9,-46,-3,95,-35,-8
1491088326529,3,17,-8,-28,-14,-37,127,36,-14
1491088326530,0,-1,4,0,-1,7,127,-13,5
1491088326530,0,-13,2,5,16,-15,13,0,7
1491088326565,1,24,7,-1,-6,-21,12,-23,-9
1491088326565,1,0,4,-9,39,-28,-16,-21,-3
1491088326567,2,3,8,24,-42,10,-18,30,-3
1491088326567,2,18,-3,-10,32,22,-19,-2,28
1491088326568,3,-8,-1,-11,-32,-61,-108,8,-20
1491088326568,3,0,-7,-18,-7,-25,-128,-22,-1
1491088326569,0,10,23,18,18,17,-82,-56,-5
1491088326569,0,29,7,-7,-7,22,-72,82,-6
1491088326603,1,15,-1,-1,77,48,-116,-25,14
1491088326603,1,7,14,7,-18,7,7,49,2
1491088326604,2,-5,-11,-22,3,-52,-47,35,-23
1491088326604,2,-15,-3,-3,-80,-40,-78,-17,4
1491088326605,3,7,4,10,38,46,-33,57,2
1491088326605,3,30,13,5,50,49,-38,-47,-1
1491088326606,0,10,-9,-51,-59,-54,-14,-23,8
1491088326606,0,-22,-4,12,24,-39,3,2,-16
1491088326640,1,-60,7,-3,-18,25,68,-14,4
1491088326640,1,-10,2,46,34,34,92,73,-2
1491088326643,2,19,0,12,7,47,-87,-76,-14
1491088326643,2,31,-4,-33,-18,-74,98,22,30
1491088326644,3,-7,-20,-29,-50,-77,-11,-74,-26
1491088326644,3,-18,19,47,-1,111,109,20,-38
1491088326645,0,-8,-23,-57,-47,-116,-22,-18,-6
1491088326645,0,-113,8,19,32,70,-12,56,47
1491088326677,1,18,3,48,59,-14,-1,-96,-16
1491088326677,1,8,-18,-55,-69,-54,-25,27,13
1491088326679,2,34,26,62,127,127,125,38,-17
1491088326679,2,-36,0,-19,-39,-110,-105,-28,-12
1491088326680,3,-23,-8,-18,-60,-48,90,25,5
1491088326680,3,-125,-9,-5,6,-24,16,-30,-27
1491088326681,0,13,15,32,-46,72,91,55,3
1491088326681,0,59,1,-2,-16,-2,34,32,6
1491088326752,1,13,-21,-27,4,21,-83,4,9
1491088326752,1,76,-9,-29,-1,-31,-128,-40,29
1491088326754,2,11,-12,-10,5,-71,-67,-15,18
1491088326754,2,46,8,37,43,90,117,92,-16
1491088326754,3,44,8,6,15,60,67,-32,-15
1491088326754,3,8,-2,4,-39,-27,14,54,36
1491088326755,0,-17,-14,-7,19,11,-62,-53,-12
1491088326755,0,40,-2,-8,-12,-34,-38,-52,8
1491088326790,1,-18,1,3,-13,-13,4,42,-24
1491088326790,1,-94,3,14,33,34,56,-31,-14
1491088326791,2,-62,8,-2,9,-6,121,45,1
