1490139425281,-11,-10,-22,3,3,3,2,-10,-10,15,7,14,12,5,-12,1
1490139425284,0,7,17,3,-11,-5,-7,-11,3,28,30,-11,3,0,-3,5
1490139425286,-41,-8,16,4,-18,1,1,19,0,-22,-21,1,10,5,12,8
1490139425330,9,30,41,9,17,1,-7,-7,10,23,10,16,-24,-6,-2,-13
1490139425383,2,-27,-85,-26,-30,-11,-10,1,16,21,71,29,12,-1,-2,7
1490139425428,0,-22,27,42,11,1,4,0,23,-11,3,-5,-17,-12,-15,-6
1490139425477,-26,-45,-65,14,31,9,-2,-27,60,47,16,-77,-43,-12,-12,26
1490139425525,37,37,17,80,47,8,11,-27,6,38,56,33,-3,5,-5,0
1490139425573,-14,-39,-100,-108,-67,-29,-10,-20,-28,31,74,78,57,-1,-7,-14
1490139425575,-46,-69,-83,-17,-28,-46,-5,-10,28,0,-30,-9,1,-15,-9,-1
1490139425623,-31,-38,-3,78,108,11,-1,-31,96,48,75,30,7,23,4,47
1490139425672,60,15,38,64,58,17,5,16,-10,4,93,80,94,42,0,16
1490139425720,60,55,91,75,15,39,26,14,-25,-22,-26,21,76,23,14,-2
1490139425722,-9,42,95,118,127,20,8,26,27,48,-93,-128,-118,-26,-4,-1
1490139425769,-1,-7,-40,-103,-2,1,-6,-8,-22,-24,67,-40,10,-17,-17,-15
1490139425818,44,24,59,42,-34,4,4,3,7,9,-43,-105,-70,-18,5,16
1490139425867,-15,-82,14,40,8,40,-12,-22,15,34,-5,46,33,-14,-18,8
1490139425916,4,9,-13,25,-89,-76,15,1,24,49,127,127,127,61,13,6
1490139425964,-6,33,13,83,116,37,-12,-34,-2,-15,-82,-128,-128,-93,3,-1
1490139425965,-34,5,-19,-128,-95,-105,-9,-36,-1,-6,-18,-4,-111,-51,0,23
1490139426013,26,65,60,29,36,43,14,60,-31,-58,-105,-101,-123,-128,-39,-42
1490139426062,3,40,49,108,51,31,-15,-16,-2,-21,-38,-76,62,-3,-13,-2
1490139426111,-4,-21,-33,-64,-91,-57,-9,-31,2,11,16,72,73,48,43,-3
1490139426159,-13,-12,14,0,22,-43,-21,-10,1,-8,27,3,-9,32,6,-4
1490139426207,15,-20,-42,17,-23,-11,47,45,-17,-6,-19,-86,-78,-24,36,-15
1490139426208,-14,1,39,23,91,56,-17,-8,-2,14,8,6,-2,-28,-26,-2
1490139426257,5,27,5,-12,-47,-35,9,7,-9,-16,9,23,21,11,17,-14
1490139426305,-7,-31,25,79,55,24,0,-2,-13,4,-27,-41,-36,-2,5,-48
1490139426402,10,7,-22,-15,30,-7,-16,-16,9,-10,-8,-15,-14,-46,6,14
1490139426403,-3,17,21,20,-1,8,-1,4,4,-6,13,34,-21,-20,-15,13
1490139426405,2,-8,-1,23,3,-8,10,20,3,32,-23,-10,58,73,2,13
1490139426452,-11,-15,21,14,6,-27,-5,-4,8,9,-38,26,23,1,15,16
1490139426500,-8,-41,-99,-127,-56,-37,-7,4,-4,89,95,90,46,4,-1,8
1490139426549,-2,33,-19,-26,-57,-3,2,15,3,-12,2,45,53,24,14,11
1490139426598,-10,3,-66,31,-42,4,8,-16,2,11,-29,-52,1,-14,-5,-14
1490139426646,11,45,81,-128,63,37,19,-9,5,-5,15,127,54,53,4,-19
1490139426647,-6,-1,-24,-108,-7,-12,-4,-9,2,8,108,56,55,20,-1,13
1490139426696,-8,-62,-97,-51,-73,-13,-6,-22,-11,-35,-29,-36,-84,-88,-19,1
1490139426744,8,-20,-4,42,69,41,24,24,-13,-25,-102,-128,-117,-81,-28,-24
1490139426793,31,59,87,92,117,38,26,33,-7,-38,-20,15,41,35,21,13
1490139426841,-19,9,21,-94,-41,6,4,0,9,17,8,-14,-91,-92,-27,-25
1490139426843,-11,-22,-71,-49,-50,-24,-30,-28,-8,21,-37,32,47,16,4,5
1490139426890,7,2,9,-12,-18,11,-10,7,-19,3,69,-29,71,37,-18,-20
1490139426939,-4,19,2,101,3,-33,1,-24,28,-14,-22,-28,66,8,-7,-3
1490139426988,-5,4,100,84,41,1,-13,-26,-8,-18,4,116,122,44,23,3
1490139427037,-1,6,89,76,66,2,-2,18,6,-23,-128,-128,-113,-53,-21,-31
1490139427085,13,-29,-58,-63,6,-7,-12,-4,-4,34,17,60,-32,-6,16,17
1490139427086,-3,-9,-50,-4,-53,11,11,13,15,5,122,-20,8,5,-4,2
1490139427134,29,4,-4,52,31,5,-11,-4,-18,-33,-51,10,0,4,5,17
1490139427183,-3,20,84,68,57,13,14,-2,-9,7,0,72,123,30,14,0
1490139427232,-8,-64,77,19,-17,-5,0,-1,32,90,109,41,29,16,18,37
1490139427280,0,33,81,-23,-43,-14,6,-18,-10,17,-16,-114,-29,-10,-14,14
1490139427328,-10,21,72,54,46,14,-2,-4,-13,-7,-13,1,-46,7,14,-16
1490139427330,-19,-36,32,31,-18,-4,-12,-20,-17,-21,23,77,66,8,11,-11
1490139427378,-13,98,-55,14,48,-7,9,-12,-10,-41,-70,-15,28,2,-24,-12
1490139427427,1,-32,-98,17,28,11,20,12,41,29,-16,38,17,1,18,8
1490139427475,3,-14,31,68,17,8,-12,-41,-13,36,22,-60,5,18,25,26
1490139427523,-41,31,14,-18,-25,-16,-10,9,6,-30,-88,-47,-26,-11,5,0
1490139427525,-7,6,-86,-123,-63,-47,-10,11,2,-6,123,45,16,-9,-3,-4
1490139427573,-14,42,4,43,-77,-41,2,15,-11,-29,-86,-116,-12,-22,11,0
1490139427622,-18,-62,-83,29,-21,4,9,-7,17,34,108,0,-42,-25,-10,-24
1490139427670,3,-32,77,-6,-34,-62,-31,-55,-32,-72,-128,5,-5,-22,-10,-30
1490139427719,37,26,-118,-11,3,14,-3,58,-15,-30,62,25,80,19,19,1
1490139427767,4,35,51,114,127,57,22,9,-3,-23,-49,-48,-48,-16,-2,-3
1490139427769,-8,-22,-67,-128,-105,-41,5,-28,16,42,113,127,127,60,19,28
1490139427817,-1,1,25,49,-20,0,-5,-5,4,10,20,9,49,7,0,17
1490139427865,7,44,86,104,127,92,27,-7,-2,-31,-87,-128,-125,19,6,-7
1490139427914,-8,-6,-11,-34,-56,-29,-4,-8,-15,-13,-10,-39,118,24,14,-14
1490139427963,-12,-50,-128,-128,-116,-65,6,3,1,23,46,111,79,-7,-15,-4
1490139428011,-2,4,-76,-7,-9,18,-3,-3,-16,-12,-41,-51,-14,-77,-37,-35
1490139428013,4,-2,27,19,41,-18,-3,-2,-3,15,30,-87,-89,-32,-4,-2
1490139428060,-7,-3,-32,70,87,5,-6,-10,8,16,25,58,91,67,9,11
1490139428109,1,3,-28,-54,-125,-76,7,-7,-10,-14,45,14,-28,-17,-7,-16
1490139428158,-2,7,29,127,127,102,3,-24,14,1,-4,-86,-73,8,0,16
1490139428206,-17,-13,-6,-23,-52,-5,-20,-30,8,-1,2,38,24,-4,11,23
1490139428208,-9,-15,-81,-90,-49,-13,19,-19,5,-27,-31,-67,-66,-78,5,2
1490139428256,14,28,40,-43,104,64,-6,-5,-21,-44,-65,18,-58,-86,-20,-11
1490139428305,2,-5,-33,-11,-21,10,21,20,1,11,36,40,73,49,-19,28
1490139428402,5,-6,-17,88,80,56,44,26,-14,2,52,59,29,-10,-6,-35
1490139428405,-3,-10,-22,1,-18,-62,-25,5,1,11,5,123,122,65,4,15
1490139428451,5,2,33,0,-9,-11,23,11,6,0,-14,-19,-9,-5,-11,-4
1490139428455,3,-17,-64,-95,-53,1,-2,-11,1,7,25,19,-48,-13,17,-24
1490139428547,11,19,38,0,50,15,1,-9,-30,2,-27,-114,55,35,-13,0
1490139428548,10,3,-6,-16,-58,-43,-3,-2,0,-8,-35,6,62,11,-22,-1
1490139428697,-5,7,50,90,35,7,-9,-9,7,46,-67,-7,-52,-25,0,-7
1490139428697,5,-4,15,23,12,0,3,12,-12,-43,-66,44,108,23,19,6
1490139428698,-6,-3,-111,-121,-128,-74,-22,-14,-2,-1,121,90,18,14,16,10
1490139428698,2,-23,-52,-96,-126,-20,-1,1,-14,5,13,-38,6,-2,3,-21
1490139428744,-21,-25,-43,-128,-17,-1,4,-3,24,21,57,72,34,15,-9,24
1490139428792,-18,27,124,127,12,-22,-4,-21,21,-1,-92,-5,44,-5,1,-2
1490139428841,16,-21,76,96,18,9,13,20,-8,-12,-4,-101,-36,-5,-3,5
1490139428891,3,23,-57,17,-9,7,-3,69,-4,31,67,49,26,2,10,17
1490139428893,-43,-78,-111,-37,26,-17,-16,-10,10,-25,-30,30,30,-17,-1,-2
1490139428939,12,33,-25,-28,6,12,-17,11,21,12,-57,-75,-64,-18,-1,61
1490139428986,31,52,85,127,104,76,50,2,32,9,-75,-128,-92,-21,0,-52
1490139429035,-24,-30,-2,-54,-23,-2,-9,-52,-24,-20,-22,7,73,16,-13,-36
1490139429084,15,-38,25,1,31,7,-4,-27,-7,30,85,66,91,28,1,-29
1490139429132,2,-6,-117,-101,-74,-15,-11,9,-11,-8,9,-15,-76,-20,-18,9
1490139429133,67,9,-37,14,13,4,12,37,-45,6,44,60,35,18,19,-6
1490139429182,-3,22,84,15,-3,1,1,15,-7,16,5,-20,20,-11,-7,-10
1490139429231,-31,-36,-7,-4,-33,-8,-1,-26,-4,31,17,52,108,13,-2,9
1490139429280,32,2,47,19,-29,-10,-19,-13,-26,-23,-25,27,43,18,6,30
1490139429328,3,-6,-1,-22,-16,-9,-1,13,13,58,74,28,3,-9,-18,-12
1490139429331,-31,-46,-77,-15,18,-1,-14,-51,-27,33,-1,0,31,7,-13,-15
1490139429377,65,-40,11,-4,13,15,19,46,-2,-8,0,-8,-52,2,-8,-3
1490139429426,-27,-32,-99,11,33,3,-9,6,10,11,45,14,65,10,21,9
1490139429475,11,30,16,-106,-97,-17,2,40,-35,-63,-64,-50,-54,-48,-22,-29
1490139429523,21,37,101,125,99,7,-16,-13,7,-2,-128,-98,-38,10,15,4
1490139429571,-43,-105,-127,-101,-35,-32,-13,-48,-35,-63,-68,18,40,-3,-15,-10
1490139429574,-17,-41,-36,-126,-128,-51,-13,-25,3,53,23,39,39,-10,-14,4
1490139429621,32,-17,-11,52,94,10,8,33,62,127,38,-66,-13,8,-18,-36
1490139429669,11,-19,-84,-119,-128,-37,0,32,-55,-58,-45,45,-64,-86,-31,-57
1490139429718,-20,8,22,86,-67,39,18,-29,1,17,89,30,61,32,-13,-19
1490139429766,-12,-33,-72,33,-61,-22,-26,-17,-29,-39,-47,0,-44,12,32,14
1490139429815,-16,-72,-52,-114,-89,-78,-39,-22,26,23,103,127,104,-13,-7,12
1490139429816,16,68,20,-21,-40,44,12,21,-13,-37,37,27,-56,-62,-7,-19
1490139429864,-20,-47,-61,8,-60,-112,-10,10,5,43,117,52,-44,50,-6,-9
1490139429913,-7,-20,-79,-97,-3,-12,-4,1,-3,-20,20,15,-38,49,-4,10
1490139429967,1,7,9,63,54,32,-5,1,15,18,46,40,97,-8,23,-2
1490139430010,-3,-2,-25,-76,-108,-84,-1,17,-3,12,-22,74,40,38,-22,-17
1490139430011,-9,11,0,30,89,43,9,-11,2,19,25,39,62,58,-4,18
1490139430059,-17,-28,-11,-39,-58,-48,28,9,6,-11,-57,-45,-65,-94,-28,-24
1490139430108,-2,-34,-15,-20,-4,20,-3,15,-5,14,18,14,-2,-39,-11,2
1490139430156,21,55,47,56,29,41,25,10,-16,-81,-10,-60,-41,-22,-17,26
1490139430205,6,25,-10,-1,10,26,-7,34,-18,-20,44,71,89,77,24,-60
1490139430254,20,-18,-29,-38,-75,-64,7,12,-14,-8,-21,-11,18,36,13,2
1490139430257,9,27,64,76,81,52,6,3,7,8,-7,-38,-7,25,11,8
1490139430303,-3,-66,0,-36,-56,-61,-6,6,-17,17,24,17,37,54,-14,-5
1490139430351,0,9,-10,-5,0,13,-10,-25,-8,-10,-14,-22,-36,-47,-13,2
1490139430400,1,-8,-22,-8,8,60,5,-22,-3,-6,20,55,18,-62,5,19
1490139430449,5,28,20,19,-5,-27,15,4,3,-5,24,33,34,25,-15,-12
1490139430497,16,45,64,17,35,41,33,23,-1,4,-13,-101,-104,-44,-17,-1
1490139430498,9,36,37,-101,-7,28,18,15,-10,-4,-19,65,-41,-40,-17,-15
1490139430547,-10,-51,-106,53,60,-36,-23,-4,15,31,77,99,127,64,21,13
1490139430595,3,14,50,64,85,30,-7,-17,-6,-20,-3,78,112,32,11,-5
1490139430644,-2,-28,-82,-128,-118,-48,-19,-16,-18,-15,49,70,61,-45,-18,-4
1490139430693,-8,-34,-52,-1,-48,-25,-21,-3,-12,0,24,6,-82,-70,-19,-19
1490139430695,11,-12,51,105,127,90,30,18,-12,-38,-80,-80,-128,-40,-4,11
1490139430745,-13,-22,-69,-38,-58,-28,-18,-5,-12,-9,-64,55,103,3,-3,-26
1490139430790,18,-63,-20,34,9,-6,10,23,-6,17,-9,-106,-44,-31,-8,-1
1490139430839,-22,-10,35,45,-29,-47,-29,-27,12,34,64,99,30,10,-2,-19
1490139430888,-24,-64,-128,-63,-40,-4,-6,0,0,-15,-20,34,40,30,-7,-7
1490139430937,5,44,60,83,69,17,10,22,5,-13,-12,10,-26,3,3,17
1490139430940,1,-21,-15,-84,-90,-59,-20,30,-6,-5,65,38,45,-28,15,24
1490139430985,-6,20,11,12,53,9,8,-12,6,15,75,35,43,29,12,0
1490139431034,6,27,77,127,-29,13,11,38,-8,-4,-13,-128,-61,-18,-11,-70
1490139431083,11,-36,-108,-128,-22,-25,-12,-18,-37,-73,-96,-128,-128,-37,0,7
1490139431131,-10,10,69,-33,-66,-18,-10,-18,28,30,50,61,34,16,5,27
1490139431180,-21,9,-17,-53,30,12,6,-12,20,-6,-81,-20,55,-2,-6,-25
1490139431181,5,13,-28,-14,-8,-11,2,-16,-1,6,-53,33,22,1,-16,0
1490139431230,-4,-6,-54,30,-13,-39,-6,-61,-1,2,25,15,19,11,9,69
1490139431278,-17,-44,-73,83,126,16,-16,-2,-9,46,80,-102,-112,-14,9,4
1490139431327,-14,-28,-55,-77,-72,-13,5,-9,9,-44,-27,-20,-14,-5,-6,-1
1490139431377,-9,21,98,-89,-71,-21,-7,-45,-2,16,41,70,64,8,13,41
1490139431378,10,-16,-26,-38,-17,-5,1,28,-10,14,-67,33,-17,-12,-8,-17
1490139431424,-4,37,104,49,86,24,18,-8,22,-78,-13,-10,-13,5,2,25
1490139431473,33,-34,-32,-128,-59,-11,-8,-4,-3,21,31,7,10,-2,-3,3
1490139431521,0,58,-40,-68,-10,17,13,10,-17,-128,-97,-87,-123,-74,-29,5
1490139431570,-32,-4,19,-58,-49,-54,-10,24,47,23,-112,-38,115,53,23,15
1490139431619,-47,-65,-63,-41,-116,-100,-35,-40,31,55,70,111,127,10,-2,-7
1490139431620,-8,-38,38,79,95,9,-14,8,-54,27,58,-29,-44,19,18,-15
1490139431668,-13,-30,24,-128,-126,-24,-8,-51,-25,-25,-11,-5,104,-22,1,2
1490139431717,0,-8,-16,-81,-60,-44,-17,-3,-17,-24,-75,-118,68,0,-10,-14
1490139431765,-15,-18,-5,80,54,-14,-11,-10,-1,-13,-44,-109,-126,-19,-2,-3
1490139431814,20,43,86,125,-42,36,11,21,-5,-29,-94,-38,18,-7,-4,-13
1490139431862,-24,-21,-80,-89,-109,-102,-34,4,-4,-3,15,56,3,-39,-9,-22
1490139431864,2,34,58,-28,-39,1,15,62,6,-31,-59,-128,-102,-1,17,19
1490139431911,6,13,28,48,127,41,20,4,-1,-12,-8,-94,-93,-20,-10,22
1490139431960,5,-5,36,-92,-105,-92,-13,30,-4,11,-19,-3,13,-2,-3,-9
1490139432009,9,5,12,-38,28,0,7,-5,-16,-10,-56,14,-49,-12,-1,0
1490139432057,14,24,17,39,51,75,-26,17,-18,-50,7,12,9,10,16,-18
1490139432059,0,20,7,12,-14,32,27,5,6,11,-12,6,33,12,1,7
1490139432107,-7,-26,-22,15,12,-15,36,-46,15,32,15,13,40,53,-11,41
1490139432157,-9,12,-57,-13,13,59,5,-4,-17,-33,-2,-17,-81,-128,-4,-27
1490139432205,1,18,18,12,27,14,-12,19,-19,-7,9,0,-14,-47,6,-35
1490139432254,-5,7,33,33,-11,37,-3,-22,1,-26,-66,-43,-53,-30,29,13
1490139432302,22,-15,-23,-50,-42,-44,17,19,-20,-41,-4,-37,-62,-37,-31,-7
1490139432305,0,-13,11,30,22,22,13,24,7,12,36,-6,41,-6,-22,-24
1490139432350,-1,2,-23,-13,38,18,-9,-6,-2,13,2,103,70,4,14,-6
1490139432399,-12,25,-48,-34,-40,-6,8,-19,7,-17,9,-9,5,3,25,31
1490139432448,-8,20,-43,-79,-20,29,-12,-32,12,-6,31,65,79,5,17,24
1490139432496,4,-8,-9,47,77,-11,-1,0,2,0,75,72,-34,15,-22,-2
1490139432498,-2,-19,-61,-29,-1,-4,-11,8,3,26,92,45,51,17,17,-5
1490139432546,9,-9,-79,-121,-111,7,44,38,-16,-29,-7,14,-114,-64,-30,-28
1490139432595,8,-11,25,18,28,37,12,30,-8,-14,-26,17,29,-2,2,-11
1490139432645,-6,10,59,10,-44,-33,-18,-20,14,2,-3,26,17,19,9,46
1490139432692,13,24,29,-75,24,21,5,2,8,8,67,-63,76,38,-3,24
1490139432740,-13,-15,3,26,26,-19,-14,-2,12,2,-6,-128,0,40,18,0
1490139432741,-5,16,58,-100,-3,-5,-9,-9,-13,-11,-64,-75,-27,-16,-11,-4
1490139432789,-4,17,43,52,3,-12,-9,4,1,13,7,-3,43,2,15,-7
1490139432839,0,-12,-10,42,31,6,6,28,3,-28,-59,-50,-78,-44,-28,-23
1490139432887,12,3,56,27,20,37,20,8,-13,17,49,127,101,50,16,-3
1490139432936,3,-27,5,23,55,8,21,6,-8,-14,27,-65,-22,-21,-9,-22
1490139432984,5,-19,-9,112,10,7,5,20,19,44,127,125,127,101,62,11
1490139432986,-1,8,-28,-34,-46,-5,10,-19,-30,-55,-63,-63,-67,-22,-30,-47
1490139433033,4,-8,-92,117,121,28,19,21,3,36,80,77,25,23,-27,7
1490139433082,-34,-19,79,71,20,-10,-5,-40,6,35,72,81,127,55,7,-6
1490139433130,-2,20,30,-36,-60,-21,-8,-6,-1,12,30,14,14,14,17,-2
1490139433178,-13,31,22,18,93,18,39,-2,38,-28,-95,-39,-43,13,5,13
1490139433180,-31,-17,-49,-85,-91,-32,-18,5,11,41,56,72,91,48,32,-4
1490139433229,5,-18,-89,-118,-16,-10,-11,11,-20,-7,59,24,3,-11,-34,-2
1490139433277,36,24,66,127,65,17,13,-1,34,3,82,-25,29,27,23,67
1490139433326,-2,-10,-30,-35,-41,-29,-25,-22,-9,43,-14,-68,-68,-33,-18,-27
1490139433375,-14,-5,8,81,39,-1,-37,-44,1,6,85,78,75,9,21,2
1490139433422,-33,-30,-51,-72,-4,-10,13,-16,-10,34,32,80,78,29,4,-17
1490139433425,9,-49,-41,-28,6,21,23,39,-15,-20,-69,-127,-17,-1,-3,0
1490139433472,-6,2,-37,-43,-71,-12,-39,-55,-16,5,108,119,45,22,26,21
1490139433520,-16,-26,-87,-50,-10,-11,-30,-5,-20,-39,23,50,14,13,24,16
1490139433569,23,-16,-65,60,24,8,-11,0,-5,-27,-18,8,51,9,1,-16
1490139433618,-27,-29,65,23,-45,-7,17,-22,-4,13,-17,-44,19,-13,-11,-9
1490139433666,-14,10,97,-4,-20,-11,-14,-19,19,21,32,68,70,27,5,28
1490139433668,35,53,127,46,68,25,34,48,1,-94,-96,-128,-89,-64,-34,-34
1490139433715,-14,-13,10,-69,22,-2,6,-4,4,8,-21,-3,-77,-32,-8,4
1490139433764,0,-4,51,16,29,14,-11,2,-10,-32,-90,-69,-61,-32,5,-31
1490139433814,21,24,101,127,127,78,27,50,6,20,-93,-35,-50,-38,8,4
1490139433862,2,-25,-37,59,46,22,-15,-12,-37,-32,42,-76,-95,-62,0,-25
1490139433865,42,67,84,46,78,24,2,37,-20,-79,-128,-96,-43,-43,-40,-53
1490139433912,5,-3,-23,38,91,67,23,-12,9,41,45,12,-106,-2,-15,19
1490139433960,-27,-6,28,-32,42,-7,-13,1,48,7,-26,4,127,62,29,23
1490139434009,-1,10,17,-70,-83,17,-5,-3,-11,14,-18,37,-55,-73,-33,1
1490139434057,6,-29,-82,-120,-128,-48,4,-1,3,-6,-51,62,92,-24,-14,11
1490139434104,-16,-12,-78,-31,-16,-15,-2,-5,-1,-38,34,-33,-89,-36,20,-1
1490139434106,7,3,8,66,-22,15,-4,-3,-8,-4,-14,-50,-14,31,8,22
1490139434154,-2,18,30,35,44,33,-11,-13,6,24,-3,-18,-70,-26,-3,28
1490139434203,-13,-1,-5,-26,-18,4,-3,-7,3,4,69,113,116,39,-15,-25
1490139434251,-11,-19,-27,-31,-66,-47,-21,9,13,12,-5,15,57,26,9,2
1490139434300,-21,-2,8,3,-13,-52,-16,-19,-12,-6,0,5,4,33,8,-19
1490139434349,-11,6,11,-25,-40,-3,-3,-18,-16,-63,-4,11,22,37,10,-17
1490139434349,1,-11,-8,-24,4,-25,-10,9,-12,32,21,16,-28,4,-18,-9
1490139434398,4,-19,22,-8,-23,-22,-7,2,5,6,5,74,60,-66,14,1
1490139434446,2,3,-25,-34,-47,-42,-22,-23,0,-23,-1,11,15,46,49,-5
1490139434496,-12,-44,-62,-14,14,32,40,37,2,-2,11,3,70,83,-51,-5
1490139434545,14,26,18,35,21,-43,21,38,-5,11,5,-43,-56,-58,-30,-18
1490139434548,11,-22,18,21,34,56,24,44,-2,53,12,-19,-19,-18,9,10
1490139434594,11,-22,-13,-39,-19,-20,-9,-19,15,5,-12,-23,9,-16,5,36
1490139434644,-9,-5,-1,43,31,14,-10,-26,11,9,11,-5,39,60,-13,-5
1490139434690,8,5,49,104,37,-23,-1,11,-1,0,-76,-56,-36,6,42,13
1490139434739,-5,-10,38,64,34,12,-23,10,9,9,-35,-18,-21,20,5,-3
1490139434787,-2,-24,-54,-51,-74,-27,30,12,-6,-2,53,42,75,30,-3,-8
1490139434789,-3,24,23,-68,-55,24,-1,-2,-14,-87,-116,-103,-102,-42,-5,5
1490139434885,6,19,-6,5,20,8,26,17,7,-6,73,25,-38,-14,-7,1
1490139434887,-9,-3,-24,-111,-100,-49,-28,-21,3,21,10,63,72,7,3,11
1490139434936,-7,-25,-93,-60,-69,-28,-19,-19,11,7,100,67,104,61,8,17
1490139434982,-18,-9,-43,-40,50,5,-4,-23,-2,16,-32,83,50,26,-5,12
1490139434984,8,9,18,-13,19,1,-14,1,8,7,-23,-37,-17,-7,4,-16
1490139435031,4,5,-3,43,5,8,-8,-3,3,-9,116,-17,73,35,18,1
1490139435080,4,-8,1,-78,-60,-6,25,20,-5,-21,-64,-23,-101,-44,-14,5
1490139435129,-43,-25,54,11,34,6,8,-14,-6,8,-6,48,3,4,3,-23
1490139435178,32,-10,-19,-27,-44,-30,-18,10,0,34,13,33,52,10,-21,0
1490139435226,16,22,-77,-65,-18,7,1,4,2,-33,-125,-65,-42,-17,4,40
1490139435227,-21,-12,40,-24,-10,-10,2,-33,6,27,13,32,54,28,2,12
1490139435275,-17,-6,-64,-70,-64,-23,-6,8,-2,-15,-18,-36,-65,-35,-12,-28
1490139435324,-5,1,29,52,67,8,-10,-2,17,55,34,-14,41,19,22,11
1490139435373,14,-20,-24,-48,-87,-9,35,40,-22,-10,-2,-37,-5,-7,-9,-43
1490139435422,3,-33,11,29,10,11,32,16,-6,-19,-99,-29,-23,-18,-17,-4
1490139435472,-23,-5,-39,-7,13,-5,7,-11,39,76,119,111,82,20,4,32
1490139435473,7,49,-33,-25,-57,-18,-6,-10,-17,-56,-62,-44,19,5,13,-11
1490139435520,11,-6,84,-25,0,2,-32,-30,-36,-15,-97,-66,-6,-12,-12,6
1490139435568,-5,42,-128,-96,-14,-8,-32,-12,-12,-17,38,28,16,17,19,-33
1490139435617,-1,1,26,-4,-27,3,19,-12,11,38,29,5,15,-5,-7,-13
1490139435665,15,-8,-118,-18,4,1,-10,18,-10,-33,80,-36,10,17,9,-30
1490139435667,3,-29,22,-3,-33,-24,-35,-23,-23,-70,-78,-24,-8,-5,12,-9
1490139435714,5,-34,-81,-50,-1,-21,-12,11,-16,18,-27,-75,-42,9,-8,-5
1490139435763,9,-32,16,-7,-21,0,10,19,9,-19,-50,-20,16,1,-4,45
1490139435812,-12,31,95,68,10,12,10,-18,6,-4,-6,82,-8,11,11,-19
1490139435865,18,-68,-112,-68,36,6,-1,-13,10,5,110,-103,-121,-47,-16,-36
1490139435908,-20,28,34,13,11,17,3,23,17,-13,-11,87,85,30,4,-8
1490139435909,-29,-4,-32,-22,-79,-16,2,-13,6,9,40,80,34,13,-3,-15
1490139435958,-16,17,14,-123,-128,-58,-10,-35,-19,0,-57,74,73,-22,-12,-13
1490139436006,17,-53,62,-51,37,13,7,14,-2,34,-83,-64,-128,-8,1,29
1490139436055,21,30,57,127,127,27,-1,37,8,76,21,-23,-15,16,22,26
1490139436104,-36,-70,-125,-128,-96,11,-14,-75,-17,-14,-104,-68,-128,-110,-23,-46
1490139436152,10,11,-86,-61,-76,-4,-22,25,-9,-17,105,22,-68,-35,15,-11
1490139436155,-8,-15,-104,-104,-128,-81,-32,19,8,-9,87,127,127,50,20,-9
1490139436203,-40,-60,-53,-36,-85,-96,-43,-24,10,7,29,73,69,6,-10,30
1490139436252,-11,1,90,-32,100,4,9,-7,-1,56,12,0,-85,-10,-12,-1
1490139436300,5,35,61,127,37,73,8,54,9,-6,18,-11,11,-22,12,-12
1490139436347,35,36,127,127,127,70,24,7,11,38,53,2,85,76,24,28
1490139436350,-32,-19,-50,-91,-104,-37,-28,-6,15,-26,-38,36,45,18,21,13
1490139436397,-3,14,-45,14,6,17,-1,-10,-8,1,-5,1,89,66,6,18
1490139436446,-7,-35,-63,-38,-60,-54,-6,-13,-2,-3,-11,20,-1,-74,-16,1
1490139436494,-6,38,30,62,44,-59,-3,-5,16,-13,60,64,64,10,-3,14
1490139436543,2,9,25,12,-38,9,19,-1,-14,-16,-28,-1,17,30,10,-13
1490139436591,-10,-16,-22,-73,-77,-83,-20,10,6,-29,-29,108,65,21,13,12
1490139436595,-5,28,8,27,54,-36,-15,-6,5,-26,36,17,-21,20,12,-3
1490139436640,22,16,13,-2,-20,24,-4,13,-4,-12,-86,-96,-72,-57,-6,-2
1490139436689,-12,-17,-12,24,16,49,-10,2,9,46,1,60,78,66,-14,-3
1490139436738,-14,-31,-25,-27,-31,-38,-13,-29,3,13,33,57,56,41,26,25
1490139436787,-2,-16,17,25,-4,41,-15,18,5,25,-18,-41,-3,31,-22,-8
1490139436835,7,4,-1,-2,-9,-4,9,-9,-3,-3,6,44,24,-16,-30,7
1490139436836,-2,0,3,14,46,-1,36,-11,15,7,11,25,-8,46,3,20
1490139436884,-12,-2,-86,28,-6,-32,-32,-36,1,21,-8,17,-1,-47,19,-18
1490139436933,10,8,44,56,50,6,2,3,-1,-23,9,-71,-56,-5,-8,-16
1490139436982,3,20,56,43,-9,31,-10,9,9,15,10,-21,57,12,8,-4
1490139437031,11,27,119,111,124,73,20,9,-7,-12,-65,-104,-119,-26,-15,-10
1490139437033,4,-8,29,9,121,45,11,-7,-20,-32,-68,-128,-128,-85,-26,-9
1490139437081,-19,-33,-72,-33,-90,-44,-20,-10,-6,-40,-24,7,-28,-14,-2,-7
1490139437128,-14,18,1,16,12,-8,-16,-1,7,8,68,69,81,32,23,4
1490139437177,21,16,82,10,99,67,5,-11,13,8,50,89,60,14,8,20
1490139437226,4,-13,-5,36,9,-23,13,15,-9,-11,21,4,66,22,-9,-12
1490139437274,-11,1,-27,1,0,-3,-22,-28,-10,-10,10,73,31,-18,-6,11
1490139437276,10,21,27,7,120,45,-2,10,14,19,98,72,41,33,35,26
1490139437323,-41,-33,-113,-77,-49,-14,-13,-31,16,14,69,10,-10,-4,-3,-10
1490139437371,-8,8,44,51,43,8,-12,-2,9,21,9,35,15,24,0,2
1490139437420,1,-4,-30,-17,-29,-23,5,-8,-1,11,-27,77,85,19,15,5
1490139437469,-11,-7,-7,-34,-47,-13,2,-3,-32,-30,-53,-58,-22,-11,4,-1
1490139437517,-7,-9,27,-81,-106,-42,-12,-4,8,-8,-32,-5,108,1,11,18
1490139437518,-3,-13,43,10,9,6,0,21,6,21,38,42,-19,-5,-12,12
1490139437567,-11,12,-33,-29,17,11,-19,-15,24,-7,-75,-5,23,-6,3,22
1490139437616,-2,-18,35,54,-3,5,11,-13,10,51,31,39,59,18,11,15
1490139437665,-2,-12,-38,-70,46,3,4,-10,-20,-10,-36,-41,-37,-9,11,-4
1490139437713,-12,-27,36,76,56,12,5,-31,2,3,-60,-81,-6,-3,-25,23
1490139437715,50,18,-29,-43,-26,5,14,53,-23,-4,19,96,26,6,-1,-3
1490139437763,-23,-39,-66,-77,-2,-2,-24,11,-18,-11,-39,-31,-68,-19,-3,-38
1490139437812,19,25,16,38,28,9,13,23,-22,-7,45,21,-34,-7,-20,-29
1490139437860,14,27,44,63,-19,6,-12,-4,19,4,7,7,18,-3,17,16
1490139437956,20,-43,-50,-83,-26,6,-6,-7,-52,-12,-21,-95,-78,-34,-6,-18
1490139437959,0,15,49,4,-8,-5,4,-5,-23,1,33,-63,45,15,1,-2
1490139437960,-16,68,-113,-97,-52,-13,-15,-15,39,-27,-34,-57,31,-2,18,39
1490139438006,-27,-47,49,10,-13,-7,5,-11,14,39,-55,53,52,28,2,0
1490139438054,-20,-54,-72,-64,-105,-29,-11,-69,7,28,-21,-10,3,-22,-11,39
1490139438103,-39,53,-78,25,-24,-24,-6,-3,39,-11,-10,-14,-15,6,-1,25
1490139438151,4,3,-128,-50,-32,1,-12,1,4,-14,-1,14,-35,-22,-18,-6
1490139438152,12,11,114,-17,46,-2,6,58,-2,-1,-1,-91,-108,-54,-29,-44
1490139438200,-1,-66,-112,-95,19,19,-6,-11,-27,-11,-7,75,41,-4,-5,8
1490139438249,20,56,127,-74,-114,-8,14,16,18,-29,-128,-68,43,-19,-16,-22
1490139438298,23,-10,58,127,110,63,17,-22,11,34,73,96,-20,67,24,32
1490139438347,-15,37,-32,79,56,-8,-20,-9,21,-13,-35,-47,-51,3,23,26
1490139438395,-25,-20,-103,24,-85,-10,-9,-4,-15,-27,2,26,-26,-54,-25,-26
1490139438397,19,-2,-28,-72,47,60,23,-6,-31,16,88,-18,-84,-68,-17,-11
1490139438445,4,43,98,89,66,6,15,7,8,-51,-102,-76,-29,101,32,7
1490139438494,5,-23,-73,-65,-43,-43,-9,27,-8,33,91,73,90,38,5,-24
1490139438543,-5,-22,31,34,18,-31,-11,-9,1,-22,-15,-65,-112,-12,13,13
1490139438591,-2,15,2,63,-42,27,-1,-11,6,5,-67,-70,-38,-41,-9,-8
1490139438639,0,-17,-39,-53,-14,-28,4,9,-6,-11,-27,-44,-41,7,-6,-15
1490139438641,12,-23,-56,-74,-43,7,-3,-2,-1,8,24,15,29,25,5,3
1490139438688,-8,-5,17,37,26,15,16,16,4,0,-4,2,-10,-91,-16,3
1490139438737,1,15,8,1,-23,-18,2,-7,0,-43,-21,-6,16,4,-6,14
1490139438787,-16,-47,-51,-36,-65,40,30,-18,6,-10,2,19,-48,-27,8,-14
1490139438835,-3,-29,-23,-25,-8,-32,-10,-22,-1,-37,-45,-31,-5,-10,20,15
1490139438837,10,-37,-26,-20,-29,-15,17,29,-7,52,34,37,37,19,-27,-46
1490139438883,7,8,-14,-20,-21,30,-16,19,-4,-18,3,-33,-54,6,-11,13
1490139438931,1,28,-14,36,3,-20,5,-1,4,-10,47,-13,58,34,-4,6
1490139438980,-2,0,-8,-5,9,-3,8,1,-3,21,-16,-9,9,36,9,13
1490139439029,-10,22,7,-7,-34,18,-8,-40,-2,-51,22,-40,-49,10,3,-16
1490139439077,-3,-13,21,-1,-47,-56,1,-11,-4,9,-13,-4,-21,15,-3,-4
1490139439078,-2,-35,-27,-30,18,27,1,-20,6,69,28,124,55,4,-6,27
1490139439127,-16,-33,-3,42,1,-28,-8,-5,2,22,80,100,88,25,20,3
1490139439176,-9,14,-22,-90,-21,-2,-6,-8,11,-13,-22,-62,-109,-45,-13,30
1490139439225,1,4,-8,-93,-98,19,-5,5,13,35,-15,47,-4,-22,-6,29
1490139439273,-21,-49,-37,-25,4,-28,-6,-19,4,6,48,59,107,59,11,7
1490139439321,1,-6,9,-21,1,-3,-16,9,24,17,14,88,34,4,13,27
1490139439324,3,9,3,59,91,12,3,26,-9,-33,-34,-47,-8,15,7,-7
1490139439371,16,51,30,20,-61,5,19,18,5,-8,-46,-59,-29,-7,-2,10
1490139439419,-33,-47,-128,-21,-66,-17,-18,-5,17,29,127,68,74,13,4,-3
1490139439468,0,-15,-15,-84,-22,-18,2,4,-12,-37,-30,-2,-57,-17,-22,-18
1490139439516,-3,-25,46,54,32,4,-8,-33,-14,53,41,34,38,15,20,2
1490139439517,-14,5,7,39,80,39,25,-12,-1,2,53,20,-89,-4,-17,15
1490139439565,-16,-40,23,62,13,-2,-17,21,21,13,-87,-94,1,-16,-17,-13
1490139439614,5,0,53,25,59,19,5,3,23,19,-58,10,-48,2,-8,22
1490139439663,3,-19,-99,-60,5,-8,-7,19,-38,18,-2,32,-51,-15,-23,-57
1490139439712,-23,30,3,30,8,-3,-13,14,-4,27,98,71,-11,2,15,4
1490139439762,1,-51,-74,-95,-96,-39,-21,-3,-32,3,97,17,-49,-23,-16,-8
1490139439764,-2,-18,-4,49,50,13,7,1,1,-10,10,-57,4,6,5,4
1490139439810,-25,27,21,-11,-20,-2,21,-29,11,-15,-27,88,28,10,10,20
1490139439858,-4,-12,41,-14,8,-2,-21,-14,-4,12,-32,-15,-12,-10,-17,-7
1490139439906,-7,7,32,60,34,11,-6,3,14,23,72,-53,17,9,24,24
1490139439955,-24,-22,-77,-35,14,11,-1,-13,14,6,-126,-10,7,11,1,3
1490139440003,-8,43,114,54,39,15,4,-1,19,18,6,1,20,14,29,12
1490139440004,-33,-48,-73,-92,-25,-7,9,2,-5,18,56,21,3,-1,-8,-17
1490139440053,-2,3,57,80,52,10,-18,-8,15,18,8,-25,-18,-12,-3,1
1490139440101,25,-12,127,124,56,11,4,32,34,-5,-128,63,-2,28,28,47
1490139440150,16,38,20,-104,-55,-25,-6,5,-48,-60,-40,7,-53,-31,-16,-36
1490139440199,11,-35,-121,-87,-15,26,-10,-10,-7,-11,-39,-31,15,-2,1,15
1490139440205,-32,19,-30,-65,-5,-16,-26,-20,34,18,48,80,-75,4,10,-6
1490139440248,-5,-7,59,-31,-82,-50,-5,21,-30,-14,3,103,127,23,-14,-39
1490139440296,23,-24,-6,4,-67,5,1,12,-32,1,48,-103,-61,-46,-31,-49
1490139440345,9,-3,-79,-1,63,39,-11,23,9,50,127,104,127,52,17,-6
1490139440394,1,-8,-54,-110,44,50,33,2,8,-10,-49,-92,-108,-51,-35,19
1490139440442,23,22,53,76,55,38,10,16,5,9,-5,-85,-56,8,7,4
1490139440443,-4,-54,-57,-101,-62,-24,-31,-34,17,2,127,122,41,32,39,16
1490139440491,7,43,43,-1,-13,8,-14,5,-14,-40,-2,-13,-52,-41,-1,34
1490139440541,12,-2,-10,-4,0,-13,-4,18,-16,-3,-92,-81,-16,-3,-14,-12
1490139440590,-12,1,-91,-5,26,45,10,-12,8,-16,-6,-9,62,7,3,-5
1490139440637,12,-11,-6,34,54,30,8,32,-2,12,-22,-15,-2,-72,-7,-5
1490139440638,-15,-58,-42,-57,-33,-25,-9,-16,-1,21,58,24,25,22,-15,-12
1490139440687,-4,-4,11,29,32,-17,0,-2,-10,-14,-31,-21,-2,23,4,-33
1490139440736,12,13,-24,-17,-23,36,-2,22,7,-17,10,12,31,19,5,-18
1490139440785,-8,-32,-53,-4,20,41,-9,-37,-3,13,52,4,-44,-39,6,5
1490139440833,-2,-7,-26,-19,-28,-26,0,-1,4,-53,-39,-11,1,26,-8,15
1490139440881,-13,38,-3,31,25,-38,12,2,4,2,-1,-1,-2,-13,-3,-14
1490139440885,-5,-29,-8,32,59,46,-23,16,1,-3,-29,-25,-83,-80,4,-3
1490139440931,0,-13,1,49,0,-9,1,35,-3,7,-30,-62,-55,-35,-24,-15
1490139440979,7,-1,-2,-14,-5,-13,-21,28,-4,9,-2,27,38,44,14,-2
1490139441029,12,-18,-2,-8,34,-36,-9,18,-4,18,-3,33,-23,-11,-14,4
1490139441077,3,13,16,2,-7,25,-6,5,2,4,7,7,10,6,10,9
1490139441125,-16,5,2,5,-20,-28,-20,-35,11,3,18,-6,6,20,-21,20
1490139441126,0,11,23,3,46,12,15,-11,3,-5,-64,-41,-26,1,7,8
1490139441175,-3,45,11,-60,-39,-7,-27,6,0,18,40,8,-7,-7,6,0
1490139441223,8,-6,25,87,90,37,10,7,-2,6,14,-16,-52,-5,-6,0
1490139441272,-9,-36,-28,-34,47,3,-13,-28,-5,-30,-53,-49,-59,-21,-2,23
1490139441320,12,-11,26,15,-81,0,-7,4,-15,35,-18,-37,-52,-40,-1,-10
1490139441321,0,-5,-14,82,58,9,-19,-1,7,8,88,127,84,29,29,-17
1490139441370,-4,-2,-58,95,32,-15,11,-7,-15,-15,-11,35,59,36,-6,-28
1490139441418,-33,20,33,47,91,82,22,22,40,55,-53,-65,-46,-38,-6,-4
1490139441467,9,11,85,127,98,49,10,15,-3,35,117,46,64,53,12,8
1490139441516,-2,-101,-128,-128,-128,-121,-51,-53,-11,48,71,127,127,16,2,13
1490139441566,14,22,44,90,16,3,-3,22,14,24,54,16,46,48,39,27
1490139441568,-23,84,-7,-83,-32,22,15,8,68,-14,-47,-47,-39,-29,-19,-35
1490139441614,-3,-15,10,28,-74,-5,-1,-1,-16,5,8,-11,52,10,-1,10
1490139441662,33,56,65,127,108,83,48,37,23,-13,-23,-42,-51,34,18,21
1490139441711,-10,4,-56,-23,-49,-18,-1,-35,29,-22,-27,43,54,0,-16,51
1490139441759,-24,1,-11,-16,-52,3,19,26,14,-21,-121,-56,52,-13,-22,8
1490139441856,15,10,50,88,0,-6,-33,-10,3,59,45,-1,-1,4,19,4
1490139441856,4,-45,-26,15,19,5,-15,-2,8,17,28,39,-49,-15,18,20
1490139441857,-3,-2,0,-15,-34,-21,-13,-22,-63,-33,-41,-60,-25,-26,-23,-10
1490139441905,22,20,-20,-11,-16,11,23,10,-34,3,-3,9,22,0,-4,-15
1490139441954,-1,-10,88,-65,-36,-25,-21,-23,13,5,-71,-86,-109,-31,-26,13
1490139442002,-2,-25,-12,20,-21,10,4,2,16,20,65,70,25,20,11,13
1490139442004,8,-63,27,-109,-34,-18,11,0,-17,-28,-120,-64,-35,-18,-21,36
1490139442052,-48,-22,77,32,-16,-5,7,-50,17,-2,-63,42,-14,3,8,-10
1490139442102,62,7,-97,65,79,29,3,30,11,34,78,-11,-30,-8,-3,2
1490139442149,14,-3,59,29,-42,-20,-16,-49,-1,-29,-67,-44,27,0,21,15
1490139442198,-29,-27,53,83,39,24,25,5,17,41,89,72,124,19,-17,-27
1490139442246,-26,1,-76,-44,-105,-1,7,-27,-42,20,41,-23,-97,-26,-4,-31
1490139442248,7,16,29,23,22,5,12,31,47,-51,-128,9,-45,-20,9,89
1490139442296,10,77,36,4,76,21,0,-27,22,60,109,127,85,31,-21,30
1490139442344,7,3,-82,-91,-86,-8,30,9,-23,-24,73,79,57,-4,-24,-7
1490139442393,25,-29,-78,-95,12,33,9,0,-22,36,56,16,-6,12,-4,-50
1490139442442,-12,-52,-82,50,127,-17,7,-12,-34,15,20,54,75,10,6,-3
1490139442489,-23,-22,92,62,87,48,-13,6,25,15,-122,-110,-100,-85,-5,-37
1490139442490,-8,29,22,105,2,-47,-17,6,4,-26,32,37,57,1,9,1
1490139442539,9,28,32,-59,-128,-49,-20,-2,23,45,57,127,101,17,41,26
1490139442588,5,48,127,39,-18,24,-2,-5,4,-9,16,-38,73,20,-12,-1
1490139442636,-24,-29,-120,-128,-91,-46,-12,8,-11,1,85,70,-51,-25,-18,-36
1490139442685,1,6,15,-91,29,14,-12,21,-49,-34,-123,-72,-114,-97,-28,-33
1490139442686,-1,10,-13,66,11,-71,8,0,11,29,72,71,31,12,-3,16
1490139442734,-2,-29,20,84,77,24,14,-22,12,-1,-13,-12,32,30,14,24
1490139442783,-19,-54,51,69,7,37,-2,30,21,51,79,66,42,-37,21,8
1490139442832,-9,3,12,85,72,37,3,-23,2,-27,-64,-93,-101,-61,-15,-10
1490139442885,20,12,26,16,16,-27,-69,-6,-6,-2,-15,8,-1,5,64,-10
1490139442929,20,-40,-50,-62,-66,-49,51,29,-18,50,46,36,47,30,-16,-45
1490139442931,17,-17,-21,-2,62,71,5,14,-30,11,3,6,8,34,-3,-20
1490139442978,-7,-27,33,35,47,46,-8,-18,-5,-4,-21,-33,-78,-88,4,-15
1490139443027,-25,4,-12,-14,-17,37,14,-26,11,-1,5,18,45,64,14,18
1490139443076,0,-14,-20,-7,-2,-11,-4,-16,-3,5,3,-6,3,-5,8,3
1490139443124,3,-80,-19,-25,-31,-26,4,7,-10,24,2,13,41,-3,8,-9
1490139443126,-7,12,-13,1,-4,14,23,-9,13,-38,-2,2,12,-31,-20,-3
1490139443173,11,-38,-15,-7,-20,10,26,13,-4,14,-3,-7,-3,-25,3,-11
1490139443221,3,23,13,-8,34,58,-10,-4,-6,-61,-29,-5,-41,-12,57,8
1490139443270,-4,22,30,37,-19,-36,9,-26,4,-13,-27,-47,13,43,-36,-5
1490139443319,2,-6,26,116,63,13,7,22,11,-11,58,106,127,85,41,7
1490139443367,-1,12,-21,-104,-68,-35,-16,6,-2,-13,2,-5,-18,0,-14,-9
1490139443368,6,17,9,8,83,1,14,-5,-4,-13,0,29,94,57,0,4
1490139443416,-17,-26,-89,-128,-128,-80,-18,-8,-4,0,-29,110,84,33,12,-11
1490139443467,-6,41,4,-38,-26,-4,18,-18,2,-7,-24,-4,-25,-13,-11,-8
1490139443517,2,-4,-58,-56,-59,-51,-28,-2,3,0,-47,-73,-64,-20,5,9
1490139443563,-7,-20,-91,-79,-87,3,13,6,-8,15,37,47,37,-4,-6,-4
1490139443612,23,51,106,41,108,1,0,-11,5,-3,17,74,68,15,1,18
1490139443614,4,2,44,89,97,53,15,19,-21,-44,-109,-64,-67,-77,-34,-20
1490139443662,14,37,121,124,43,32,8,14,-18,-33,-120,-128,-8,-17,-11,-27
1490139443712,-14,4,-33,-84,-74,-31,-23,-23,16,23,69,67,31,20,17,28
1490139443758,11,13,-51,-57,-75,2,-2,11,-18,-74,-46,-48,-85,-28,-27,-46
1490139443806,-19,-14,47,-38,-53,14,6,-16,18,28,43,86,19,19,-2,16
1490139443808,-11,48,45,83,59,35,4,-11,-1,-25,34,19,65,10,-5,-18
1490139443856,4,4,-6,12,5,-8,-17,14,2,8,-36,39,13,16,11,-5
1490139443905,16,68,-55,-97,-37,5,5,4,-52,-56,-38,-50,-90,-47,-16,-8
1490139443953,11,-18,39,73,27,1,-2,14,20,4,-43,-3,52,23,1,1
1490139444001,2,-12,-49,-63,-6,-11,1,-11,-15,21,72,1,15,-16,-16,20
1490139444050,-14,18,-31,79,66,11,3,-21,8,7,78,16,-10,3,-4,-9
1490139444050,-8,-27,-40,-105,-67,-24,-9,-15,-10,-9,90,51,-17,-1,-14,-4
1490139444099,20,-11,38,-20,23,-4,9,14,-31,-67,-5,-34,3,-6,-10,-2
1490139444148,10,3,53,25,62,23,6,2,-2,10,-19,12,-28,0,6,2
1490139444197,0,-14,-65,-64,-40,-7,5,-9,27,-9,25,-40,-64,-24,-5,-7
1490139444246,-4,5,-59,25,0,-8,-2,11,-4,-75,42,33,14,4,-8,3
1490139444294,-8,-3,-11,84,-29,8,9,30,-7,6,52,-101,15,-1,-3,-7
1490139444299,10,39,36,62,61,23,21,14,-5,5,24,42,100,15,-1,-19
1490139444344,-16,36,91,108,6,-6,0,5,25,5,-24,32,-13,10,8,20
1490139444392,8,-16,-38,-74,7,-7,-5,-3,-26,-8,-59,82,3,-13,-9,-44
1490139444443,-1,-48,-85,-128,-119,-12,-8,5,12,22,53,114,110,13,12,25
1490139444489,-7,36,88,5,-50,18,2,-32,11,41,108,-13,-35,4,-6,4
1490139444492,-43,37,-11,-67,-57,-63,-38,-43,-15,-25,-128,28,1,-7,-6,-15
1490139444538,9,-15,-9,-23,-21,-24,-8,-8,11,44,106,127,127,88,16,11
1490139444586,-39,-29,-108,-51,-68,-85,-24,19,5,-55,80,106,113,10,7,17
1490139444635,36,21,-55,11,-76,-90,-18,-28,-16,-48,30,127,127,79,32,34
1490139444684,31,66,62,87,127,80,31,25,11,-63,-57,-70,-48,-15,1,-23
1490139444732,-20,-39,-43,-83,54,-8,-23,-14,-2,19,46,118,21,9,4,-20
1490139444733,21,2,58,34,-18,-45,-8,-2,-14,-30,-30,-31,-31,-37,-14,-30
1490139444781,-24,-53,-128,-114,-128,-105,-28,-23,2,23,91,110,127,53,-9,-7
1490139444831,-8,-37,-2,-54,-76,4,0,49,-1,9,15,-88,-75,-61,-10,-42
1490139444879,2,1,22,48,-89,-95,20,-15,8,21,31,88,63,19,3,23
1490139444928,5,17,15,49,15,7,15,5,-9,-13,5,46,37,47,-1,3
1490139444976,-7,0,7,-32,-16,7,-4,-6,6,-4,-18,-49,-65,-18,9,7
1490139444978,-11,-20,10,0,-16,-21,1,-18,3,-3,-49,-71,-53,27,10,6
1490139445026,-7,-6,-5,11,5,50,13,28,-15,-7,-6,-46,-57,-67,4,-25
1490139445074,6,4,-2,-9,19,4,-13,19,-7,10,9,-1,2,-9,-21,-1
1490139445123,12,-13,-46,-41,-113,-88,-10,18,9,-24,11,13,49,81,-8,14
1490139445176,1,26,3,-35,-62,-47,23,-4,-25,-44,-28,-29,-37,-49,-22,-6
1490139445177,-19,-29,-3,24,9,-8,-4,-16,19,33,9,14,49,112,0,10
1490139445221,-31,-41,6,-12,-3,-33,6,-11,42,-4,-11,-5,-15,-26,-4,26
1490139445269,-5,1,0,3,6,-7,18,17,1,-39,-15,-13,2,-33,-14,-35
1490139445318,2,20,12,14,18,33,-17,12,-11,-7,3,0,-14,-51,11,-6
1490139445366,1,-4,-20,2,34,25,-8,-6,-10,11,21,-11,-2,-42,11,-4
1490139445414,-4,-31,-21,-12,3,-10,-25,-14,-5,12,4,20,48,-7,6,-16
1490139445415,1,7,10,40,38,10,-6,-18,-4,7,12,38,64,32,-12,18
1490139445465,-25,20,45,69,1,5,-3,-9,6,31,16,-37,-8,3,-8,-15
1490139445513,37,28,42,-38,41,48,11,17,-45,-69,-117,-128,-128,-95,-7,-46
1490139445562,1,16,38,57,48,10,12,10,11,-22,-11,-47,-17,5,-1,-8
1490139445610,2,14,90,97,126,49,-7,-3,-1,-19,-21,-99,-92,2,-5,-4
1490139445658,-7,10,17,31,-28,-34,-8,-8,8,41,35,97,126,57,13,-3
1490139445659,-23,-9,-43,-66,-108,-21,11,-8,15,-1,-9,-39,-11,-3,-14,11
1490139445708,5,-18,-102,-128,39,4,11,-15,22,34,55,17,-91,-66,-31,56
1490139445756,-22,-37,-54,-105,-112,-62,-21,-5,10,-10,0,98,95,0,-8,-21
1490139445805,5,47,-14,-41,20,12,2,0,-40,-14,-64,-64,-66,-52,-25,10
1490139445853,19,-27,-100,-57,-63,-36,-25,-13,-1,-23,49,-53,-82,4,1,33
1490139445858,-20,-18,-56,-111,-34,0,-4,-17,24,27,13,97,47,12,12,-1
1490139445903,-28,-81,-91,-73,-84,-38,-23,-22,1,6,1,17,-21,-4,5,-13
1490139445951,11,17,51,9,22,8,2,-1,-3,27,91,64,127,74,20,-5
1490139446000,-2,-10,-75,-120,-100,-42,-20,-26,-20,3,-3,47,-37,-23,5,-10
1490139446049,-6,-17,15,-64,-11,1,2,-7,13,-25,-11,42,80,13,-20,-7
1490139446097,14,43,120,127,59,31,19,10,-2,61,41,-23,28,23,4,7
1490139446098,61,-38,34,26,-47,3,0,25,-54,-30,-46,-31,0,-22,-29,-42
1490139446146,4,24,67,89,61,6,19,-3,1,7,-14,20,-29,-1,-25,17
1490139446195,-41,-68,-38,-27,11,-16,-16,-29,16,-6,46,-42,-26,-8,-2,16
1490139446244,-10,-31,58,23,27,19,9,16,22,39,-18,-55,-100,-20,-2,-16
1490139446292,-11,-2,-3,-60,7,15,-9,24,1,-16,38,47,66,-11,4,-18
1490139446295,13,72,39,99,18,16,7,15,-13,-29,96,37,86,29,35,16
1490139446341,-8,46,-21,-81,17,-2,5,-35,-15,-23,-72,-99,-87,-16,-18,-11
1490139446390,-27,-31,-23,-22,17,11,17,10,29,67,-8,38,69,27,5,38
1490139446439,0,-73,-61,-121,-7,6,-14,28,52,-15,103,78,-56,-30,-17,24
1490139446488,-12,-15,-51,-29,-35,9,35,-34,-18,-8,72,65,-6,9,-7,-23
1490139446536,17,-28,-51,-46,-27,-3,13,-5,-76,-86,-100,67,28,-11,-23,2
1490139446537,-5,-11,27,-22,-34,-12,22,5,31,-10,-19,32,66,26,0,74
1490139446586,26,33,76,53,-12,17,3,51,24,-51,-42,50,35,-10,13,6
1490139446635,38,43,-52,-5,26,22,14,-26,8,-23,20,-79,14,12,-16,33
1490139446682,-46,-32,14,74,13,13,-8,-34,53,25,79,95,73,47,13,16
1490139446731,6,-12,-106,-121,-96,-20,-18,13,-22,-44,-27,-30,-28,-15,13,18
1490139446779,-23,23,-60,-66,-67,-83,-22,-2,-29,-27,5,111,-35,-67,-51,-56
1490139446784,1,11,-60,-89,-123,-50,-28,-5,9,22,2,127,127,76,42,18
1490139446829,-12,-33,-30,-89,-90,-59,-20,-15,4,-10,-9,-91,-1,-3,-8,-8
1490139446878,-11,28,-65,85,90,20,12,-6,2,-30,-74,-128,-128,-8,-1,22
1490139446927,2,31,82,86,92,24,4,0,23,48,93,127,115,69,29,27
1490139446975,10,35,30,-30,-4,19,1,2,2,-47,-93,100,94,9,-12,-7
1490139446977,-6,-30,-100,-113,-104,-42,-17,0,-36,-50,-71,-61,-20,-43,-48,-53
1490139447027,16,13,24,9,55,28,-23,33,-26,-20,-75,-127,-128,-92,0,-36
1490139447073,-39,-65,-128,-128,-128,-128,-48,0,6,12,49,120,97,32,18,5
1490139447122,-11,-12,-29,-17,15,-22,10,-19,7,30,-13,-30,-48,-18,-9,29
1490139447175,37,-38,-30,-19,-50,-42,-15,23,-14,20,7,13,23,-14,48,7
1490139447218,7,13,5,-5,5,-10,23,-6,20,8,19,28,4,40,-7,44
1490139447219,1,-12,-17,-29,-26,-17,-23,-45,0,-2,2,19,37,7,0,41
1490139447268,-6,14,-3,4,5,16,-8,-31,26,31,47,77,70,105,8,31
1490139447316,4,-18,-20,-6,-1,33,13,2,-7,4,14,24,46,3,11,5
1490139447365,27,19,25,38,59,29,21,12,0,5,-10,-15,-20,1,-14,-5
1490139447414,-6,-13,-2,-8,-37,-23,-21,-10,3,-1,-22,-8,-11,25,28,12
1490139447462,1,6,-4,16,19,4,14,-1,-2,-15,7,-9,-12,2,-25,-31
1490139447464,-15,-22,-5,-13,-2,75,23,-7,-10,19,13,11,1,-55,-43,-25
1490139447513,5,14,2,-16,19,-65,-20,-4,-9,-30,-7,8,4,16,7,-8
1490139447562,-28,-55,-64,-83,-62,-51,-65,-32,-55,-52,-44,45,7,-103,-47,-67
1490139447658,16,15,63,46,36,24,46,17,1,-23,-121,-58,-9,2,9,3
1490139447660,-17,-4,-15,-11,-30,-22,-13,-32,38,73,115,66,82,73,28,43
1490139447707,11,-1,-29,-25,-45,13,36,1,-3,-17,45,56,49,3,16,9
1490139447709,-20,-5,-2,81,63,-55,-23,-77,-3,-14,-22,-128,-39,-22,-31,-8
1490139447756,4,21,-21,-9,-24,12,-8,23,-21,-95,-73,-81,-41,-65,-25,-29
1490139447804,-19,33,116,31,49,48,20,11,34,-51,-110,75,87,50,12,46
1490139447853,10,-14,64,127,108,45,23,21,8,22,41,52,-13,43,-1,-31
1490139447901,23,1,-18,-59,-84,2,11,5,-19,-11,95,125,101,42,15,7
1490139447902,-16,-32,-2,-128,-65,-24,-19,-31,40,44,19,127,117,70,26,39
1490139447950,-54,-18,86,-8,-128,-58,16,-18,30,-37,-128,-69,41,-29,1,28
1490139447999,-31,-25,-101,-78,-87,-60,-32,-7,-45,-32,34,-47,-110,-105,-19,-43
1490139448048,12,18,104,-17,-7,44,14,-5,-8,-25,-95,-89,-113,-35,-14,3
1490139448097,-11,-41,5,49,61,-25,1,35,-30,8,79,99,76,33,5,-25
1490139448144,2,-24,-87,-52,-20,15,-3,-11,28,21,96,127,127,86,36,40
1490139448145,-29,0,0,-58,-30,1,-11,-20,29,-6,-10,-72,-95,-29,-13,9
1490139448195,22,50,-17,-88,-109,39,17,30,-38,-30,-61,-97,-81,-52,4,2
1490139448243,-17,-6,83,-57,-2,15,-13,32,23,29,-30,-76,-23,-9,15,17
1490139448291,40,38,9,37,28,-8,9,10,-21,-31,-128,-128,-49,-49,-38,-21
1490139448339,2,-47,-6,-58,-19,-37,-8,31,15,-11,-16,42,-33,-3,-14,-53
1490139448341,-27,-34,31,-15,-34,-18,-34,-20,9,31,22,-2,6,-2,9,9
1490139448389,12,-9,-13,-30,6,7,0,-30,-14,46,82,98,127,36,13,13
1490139448438,-14,-19,75,65,-23,13,37,4,-10,-53,-39,-1,71,-3,-2,54
1490139448487,-20,-53,-113,19,-7,-12,18,13,6,3,-39,-96,-21,-19,-13,-30
1490139448536,-9,33,55,-95,-31,-25,-28,-27,45,-28,-128,-117,-109,-36,2,10
1490139448584,-24,92,9,-61,-13,-1,-8,-20,32,-1,-35,-95,-100,-11,4,11
1490139448589,39,34,85,106,127,33,8,8,-2,-5,-17,64,54,26,-27,10
1490139448633,-9,3,-38,2,-36,-65,-18,0,-17,-18,-128,43,19,-18,-3,3
1490139448682,5,20,-14,-110,-64,9,4,-14,0,37,127,127,127,69,15,-31
1490139448731,65,63,72,127,121,61,2,23,-12,-31,-90,-128,-128,-81,-16,13
1490139448779,20,-61,-107,-116,30,-39,-23,-17,-36,-20,-99,-128,-128,-110,-40,-70
1490139448785,25,-9,117,75,-35,-32,-15,5,16,33,-38,8,101,88,14,20
1490139448827,-13,34,62,64,101,38,0,8,19,13,111,127,127,105,39,17
1490139448876,-25,-42,-128,-124,-98,-124,-57,-46,-23,-25,49,107,41,-36,4,15
1490139448925,-4,2,-46,-7,13,28,-9,-3,-2,54,127,100,85,37,7,6
1490139448974,-34,-42,-47,-112,-112,-53,-37,-17,15,8,-39,-11,37,11,0,19
1490139449022,16,13,110,88,45,-27,11,6,-5,32,52,95,92,126,4,5
1490139449023,-2,18,36,29,52,30,-10,11,6,6,-13,-16,14,86,-5,4
1490139449072,-2,-26,-14,-48,-50,-98,8,36,-12,-11,15,17,-1,-15,-18,-31
1490139449120,2,7,19,-5,-6,6,2,-9,6,4,-21,0,-17,9,-8,26
1490139449169,-9,-31,-17,2,-13,-32,-24,-42,7,3,-9,-5,15,26,-4,24
1490139449218,-25,-2,18,-1,11,18,-2,-6,10,6,-9,-5,-21,-30,-6,-11
1490139449266,-7,27,5,-17,-38,-27,-3,-11,1,-28,17,38,-6,-59,-18,17
1490139449268,12,46,7,6,45,38,18,43,-4,-53,-17,-34,-57,-66,-9,-37
1490139449316,-2,12,12,51,24,51,-1,-5,-24,27,33,-2,10,-69,-55,28
1490139449364,0,-20,-2,-26,-42,-7,-4,23,-25,25,-10,-9,-53,-38,-11,-36
1490139449414,10,25,36,-14,-30,-78,10,-13,8,26,1,5,25,44,-15,-27
1490139449461,-2,-8,9,39,52,10,-42,9,8,-36,-22,-59,-74,-87,7,5
1490139449482,-1,33,13,-39,9,-23,12,-6,9,-12,-15,3,-60,-30,-9,19
1490139449510,8,-4,-8,-5,-19,-32,22,9,2,24,29,113,123,77,40,19
1490139449559,35,40,41,82,71,-23,-28,12,-8,-23,-48,-51,-79,-35,7,36
1490139449607,-7,-15,6,-74,-40,-13,20,7,-16,-54,-16,10,-6,-6,-23,-56
1490139449656,-7,-15,-70,-51,-54,-76,-31,-10,-7,-19,-35,-84,-39,-6,-1,-16
1490139449704,-7,-1,46,-89,62,60,-10,7,-13,6,-84,-69,-31,-18,-20,-63
1490139449706,13,19,50,53,78,46,3,-38,-6,-36,-80,-120,-102,-121,-37,-33
1490139449754,-10,12,-26,-4,-51,-17,-9,4,-31,-24,-66,-52,-55,-65,-8,-3
1490139449804,-13,-19,-78,-50,-61,-81,-20,-25,4,16,-18,94,50,-1,-2,34
1490139449854,-18,-26,-64,49,91,-22,1,5,17,4,86,-36,-5,71,-7,-10
1490139449901,11,34,32,127,63,25,-27,5,-6,-8,-9,-80,3,17,-3,17
1490139449948,-7,5,-26,-128,-117,-66,-23,-25,3,-6,-42,-18,-32,-24,18,19
1490139449949,3,23,-31,-25,0,44,43,21,-6,-9,63,68,-92,-15,-18,-15
1490139449997,-48,11,5,-62,-22,-10,-11,-62,41,21,67,72,81,46,33,46
1490139450046,4,-1,-67,-128,-118,-52,-31,18,-16,-11,-8,-27,-71,-49,-30,-20
1490139450095,7,21,71,86,124,25,15,10,-3,24,50,23,-28,30,0,3
1490139450143,10,-7,-73,-31,-9,0,24,27,2,-9,81,62,6,7,1,3
1490139450145,4,-37,-60,-128,-89,-15,-15,15,-2,23,44,76,39,12,9,-5
1490139450193,29,13,36,18,48,48,46,22,-13,-32,-95,-104,-56,-25,-8,-4
1490139450241,-23,-31,-89,-25,-21,-13,-6,-1,-3,-2,33,52,34,7,5,7
1490139450291,9,1,127,127,127,65,22,37,-6,21,-4,-45,-97,4,26,3
1490139450339,8,1,90,113,83,33,36,6,15,31,-51,25,25,30,16,-2
1490139450387,3,29,55,12,-10,-5,4,15,1,17,-17,46,47,12,1,-31
1490139450392,8,-12,-33,-85,-59,-18,-7,9,-3,8,41,-86,-61,-20,-12,-21
1490139450437,-9,-5,8,6,7,-6,-10,20,-4,0,-3,-1,6,4,7,-12
1490139450485,-8,-20,28,-3,-21,-8,-4,-20,12,16,91,68,42,10,-1,13
1490139450534,22,-19,-44,-9,10,0,11,42,3,-35,29,69,14,-3,-1,0
1490139450583,-8,53,13,28,-2,4,2,-16,4,21,10,-15,0,-1,-5,11
1490139450631,-22,-106,-16,-4,2,-1,-16,-7,6,102,11,-9,-3,0,7,8
1490139450633,16,3,24,17,23,11,5,19,-4,-83,-62,-34,-28,-10,-6,-26
1490139450681,14,11,-39,-13,10,4,0,6,-4,0,-22,-4,-4,-1,-5,5
1490139450729,-7,-7,-14,-32,-14,-12,-9,-2,-8,-23,32,17,12,2,9,-3
1490139450777,14,48,-1,15,13,10,15,8,-22,-75,-16,-24,-2,-6,-1,0
1490139450826,2,102,35,1,-8,-10,-12,-8,4,49,17,4,-5,3,-1,-22
1490139450827,29,15,35,18,0,-6,-8,41,8,27,-3,21,7,2,1,-4
1490139450875,-4,-57,6,-7,1,-2,-5,-11,3,60,-32,-7,5,3,6,36
1490139450924,-25,-7,-9,-3,27,6,7,2,58,4,-4,-3,-10,-3,-2,20
