1490139655771,-28,21,-55,-33,-28,-22,-23,-29,-15,-23,44,-21,-30,-16,-16,-44
1490139655819,-1,28,45,66,23,12,14,16,19,1,0,23,10,4,7,0
1490139655820,11,-24,-27,-49,-23,-8,-9,-1,-38,7,63,23,-10,-13,-13,-14
1490139655869,21,25,62,-18,-50,-2,-5,5,13,1,-101,-66,0,-9,-1,5
1490139655917,-18,35,47,0,33,3,-5,-32,38,-6,-23,-18,-31,-13,-8,25
1490139655966,27,-57,-112,7,-7,4,3,5,-16,-39,49,69,60,10,11,5
1490139656015,14,8,-25,-23,-31,-23,-21,8,-69,-66,-9,12,33,4,-7,-19
1490139656063,-32,70,50,112,127,29,14,34,-1,-34,6,-40,-92,-5,2,-4
1490139656064,-6,-7,19,14,18,-8,-23,-18,16,26,-63,95,75,10,12,20
1490139656113,21,23,64,104,16,20,-2,-29,-20,14,-9,68,56,28,1,-8
1490139656161,-37,-46,-3,72,38,1,15,40,-20,20,50,-9,-128,2,1,-28
1490139656210,-49,-32,-34,-119,-80,-53,-23,-10,12,-11,-112,-29,82,-70,-40,-20
1490139656258,9,46,32,68,30,58,28,18,-3,-7,25,-19,-23,9,7,28
1490139656259,-14,-12,-28,29,-77,-53,-22,5,-12,17,61,111,-10,28,3,0
1490139656307,-2,-10,-28,26,-66,13,3,-1,25,-18,39,124,127,42,16,27
1490139656356,-11,-33,-42,26,77,24,-16,-18,10,1,-25,-48,-85,-64,1,8
1490139656405,-8,29,47,127,127,28,0,-4,23,7,40,89,53,66,31,17
1490139656454,6,3,44,-59,68,52,6,16,-14,-18,-64,-126,59,4,-5,-26
1490139656502,-6,34,36,71,-57,-42,-27,-20,-10,-49,0,-128,-126,2,-5,5
1490139656503,-13,-18,-62,-28,17,30,3,-32,14,27,-18,-34,-9,-7,7,18
1490139656551,-5,8,52,56,63,55,-20,6,11,3,23,-58,4,-21,18,11
1490139656600,-13,-15,-29,-7,-18,-2,-18,-22,-1,-11,-10,-19,17,23,2,0
1490139656649,2,-7,-25,-58,-23,-22,14,2,-8,6,2,-7,-48,-75,1,-6
1490139656698,6,-7,12,-3,-32,-2,8,11,-7,3,-13,-10,-11,46,1,-3
1490139656699,-11,-24,-1,-21,-28,-13,-5,-13,-3,2,-7,-19,-31,15,-4,-16
1490139656794,9,-2,1,-35,-63,-76,7,-24,-19,1,8,13,25,39,-13,3
1490139656795,-2,2,15,33,18,-32,-4,11,14,-2,-10,8,28,26,-4,10
1490139656844,-1,6,14,41,78,46,-3,22,8,-4,-8,-10,-40,-36,1,52
1490139656892,-3,-4,-10,-2,-32,20,0,3,0,-1,-2,29,-22,-36,-13,-6
1490139656940,-1,-9,-33,-30,-30,-9,-1,-5,7,10,34,75,90,19,12,40
1490139656941,14,30,101,94,127,54,15,19,16,17,56,12,0,1,7,21
1490139656990,0,10,-28,-12,-40,-37,-5,-30,-20,-14,-29,74,112,18,18,-34
1490139657039,12,1,-37,30,43,-14,-8,7,-18,-13,-6,-4,-1,-2,-4,-12
1490139657088,15,-24,-27,83,83,56,36,16,29,21,66,20,11,20,12,16
1490139657136,17,70,127,68,74,80,16,19,-15,-51,-84,-92,-92,-48,-9,-19
1490139657184,14,22,90,-7,56,19,27,21,-23,-4,-66,-127,-128,-59,-44,-31
1490139657185,-22,10,73,103,-20,-36,-6,-10,-26,-41,-84,-123,14,20,25,-5
1490139657234,-5,-13,36,-11,25,3,-17,9,-46,-5,-43,-54,-85,-55,11,-35
1490139657282,23,31,57,66,63,26,-22,-6,-13,9,-10,-72,-43,0,8,1
1490139657331,-20,-37,-50,-96,-128,-48,-28,-17,17,22,-43,-48,-49,-33,6,72
1490139657379,-7,15,35,124,93,28,39,29,26,27,60,-44,-13,18,-5,-1
1490139657380,-15,15,9,-13,-56,-44,-46,4,-8,-16,-75,-85,-27,19,53,15
1490139657428,3,-7,-14,-83,-45,2,-11,-18,13,-31,25,23,20,2,4,-8
1490139657477,-35,-40,-60,68,57,6,-16,-9,-6,-34,-96,-78,-81,-41,-18,-21
1490139657526,18,-5,32,20,16,14,14,-6,37,-14,-11,82,-9,15,23,18
1490139657575,-24,-9,11,13,-43,-25,0,-12,-11,-56,-88,-23,28,-13,-13,13
1490139657623,-20,-10,-86,-65,-38,-13,-33,-9,-5,-8,103,-11,-18,-16,-38,-57
1490139657624,3,47,47,84,127,52,32,34,3,38,11,12,-88,-6,-5,21
1490139657673,27,32,-17,81,18,5,18,-33,-45,-38,-21,-90,-1,11,26,2
1490139657721,11,14,-53,-112,-77,3,-1,0,-38,3,-27,-59,-69,-41,-21,0
1490139657770,-20,-53,-54,67,88,4,-31,3,12,17,10,-72,-28,8,3,-4
1490139657819,23,2,-28,-43,-42,-23,6,-1,-25,-6,9,51,-12,1,-3,-34
1490139657868,37,34,-21,-59,91,25,52,13,1,-65,21,-103,-103,5,54,60
1490139657870,-7,-23,5,-15,-39,-17,-1,8,17,60,-9,66,24,-7,-11,-14
1490139657916,-10,19,14,45,87,11,5,10,-1,-3,-19,-98,-81,-3,-21,-19
1490139657965,15,-30,-56,-100,-114,-26,20,-12,9,-8,40,25,49,-31,-16,4
1490139658014,-34,-15,13,7,-62,-14,-26,1,-9,39,42,98,72,23,21,4
1490139658062,6,-74,-106,1,23,-6,-11,8,-12,21,3,65,-44,-13,-24,-3
1490139658063,-33,21,-32,101,73,37,4,-38,35,-2,19,49,120,43,29,43
1490139658111,-59,-10,-75,-72,-78,-101,-19,-55,58,37,65,81,102,5,0,-4
1490139658160,-73,28,-19,24,-9,14,17,-17,-25,-23,-62,-128,-128,-48,10,-3
1490139658209,26,5,5,89,70,6,9,55,7,-11,-70,-91,-108,-27,-8,-3
1490139658259,44,76,127,81,116,59,39,11,-9,-45,-50,39,15,13,-7,-26
1490139658305,19,28,17,106,127,113,43,6,12,14,50,1,50,17,-2,-6
1490139658306,54,21,71,104,110,93,27,14,30,24,17,-106,-55,14,13,16
1490139658355,-11,-17,58,40,40,17,8,-18,14,41,66,79,77,61,9,23
1490139658404,-9,-17,-61,-41,-59,5,26,20,-11,-29,-57,-70,-45,-73,-29,-26
1490139658452,6,14,-11,96,43,21,-18,9,5,33,29,-72,-75,-23,-10,-11
1490139658501,-8,-31,-40,-98,-128,-74,-14,-5,-8,10,10,54,65,92,1,-3
1490139658549,-20,-48,-128,-128,-128,-128,-20,-33,-22,-47,-9,56,104,-27,-22,-24
1490139658550,-11,-20,-6,-3,18,-18,-23,-18,-5,-12,13,-5,-62,-30,18,42
1490139658599,7,12,13,1,21,-10,-19,8,-14,-27,10,84,87,109,-9,-23
1490139658648,-3,14,-14,-11,-9,-1,-20,-15,3,-26,1,-10,-28,-74,3,9
1490139658696,10,54,24,-9,-50,-58,14,30,-15,-30,-7,-20,-22,-53,0,-7
1490139658744,-9,-15,13,11,22,24,-16,-13,-10,16,-2,-19,-38,17,16,-17
1490139658746,-3,-30,8,2,30,41,6,-25,7,16,-4,-2,13,23,-2,-9
1490139658892,-3,-14,-6,-8,-10,-22,-6,15,10,15,3,9,63,66,-35,5
1490139658895,-1,-8,-9,-15,5,-30,-38,-21,3,-20,1,58,48,19,25,14
1490139658897,2,-5,1,4,8,12,-5,16,-9,-22,-18,-19,-32,-7,-15,2
1490139658941,-5,-9,-1,-6,39,26,0,-6,13,-25,-19,1,54,18,26,23
1490139658989,-3,31,23,-80,-50,-45,-18,-20,-1,5,-6,112,16,14,10,21
1490139658991,-5,29,20,-70,36,43,-2,-8,-6,-29,-34,26,-70,-38,-11,-5
1490139659038,-7,-17,-4,47,82,6,-24,5,-24,-29,-88,-111,-21,-30,19,-27
1490139659087,25,43,80,121,74,-5,19,-2,-11,-16,-11,22,81,71,-4,-9
1490139659135,-17,-18,-112,-109,-89,-104,-17,-20,-1,35,-31,108,71,25,4,6
1490139659183,-26,-2,-23,-4,-16,-12,19,-6,-1,5,82,-28,1,38,-7,33
1490139659231,-1,-38,-23,-1,-29,-3,16,-8,13,42,102,62,71,82,6,32
1490139659233,4,28,85,64,84,30,-7,-36,4,-30,-128,-101,-41,-40,-38,-27
1490139659281,24,14,112,23,89,67,15,23,-65,-20,-77,-7,-128,-108,-20,-26
1490139659330,-34,-11,-52,-9,30,3,-2,-31,1,-8,-16,-54,-47,-36,-13,-13
1490139659380,77,-18,53,114,89,74,48,64,-74,51,-47,-127,-124,-15,-5,-9
1490139659426,-1,22,-102,-128,-128,-19,-23,-2,-6,-41,4,61,-3,8,10,-21
1490139659428,-18,-20,100,127,60,45,-4,-5,-24,-25,-62,-108,-82,-49,-6,-34
1490139659476,-15,-17,-41,41,3,-3,-7,-11,3,3,21,-56,-79,2,-9,8
1490139659525,93,-12,-90,-49,66,12,-7,41,-3,4,-59,-55,66,10,5,-1
1490139659574,30,36,56,121,35,46,40,17,6,0,-7,-57,-18,9,-4,-6
1490139659622,65,25,-25,-29,-28,7,-5,11,6,-1,54,62,64,18,3,-6
1490139659671,-4,36,54,-5,-61,-20,-10,9,12,54,51,67,71,16,45,30
1490139659672,-43,-8,32,30,33,9,-5,-15,0,-11,-93,-38,-13,3,9,-10
1490139659720,-7,17,71,68,25,13,-3,-5,-4,5,-23,113,47,1,-3,-1
1490139659769,26,9,-67,-87,-69,-9,2,-15,-33,-16,0,-74,-39,-32,-8,-11
1490139659825,5,12,37,61,36,12,-2,6,42,64,57,71,63,20,3,1
1490139659866,-24,-13,-42,7,-60,0,-12,-1,-33,-75,-37,-90,14,-28,-6,23
1490139659868,-19,-10,-64,-18,-28,4,3,7,36,-29,-14,43,65,12,-6,14
1490139659916,-25,14,-12,-5,-5,-6,-4,10,-3,2,-5,11,10,6,8,-11
1490139659964,11,28,-7,-89,-47,-30,4,-22,-36,-15,-86,-71,-77,-37,-5,-12
1490139660012,1,-17,7,-17,-56,0,4,24,33,-3,-24,-87,-74,-25,-12,13
1490139660062,-32,-86,-97,-96,-103,-64,-31,-30,40,25,10,-25,-86,-48,-10,-4
1490139660109,-22,1,-115,-40,13,-13,-3,25,20,-60,-46,-67,-58,-52,-30,-38
1490139660111,4,-54,21,80,-58,11,-9,2,-2,-100,-56,-97,3,-10,6,-18
1490139660159,-8,45,23,-11,21,-2,18,26,-40,-4,-68,75,127,27,-15,-4
1490139660211,-39,32,66,120,87,-18,-19,-43,-13,19,-72,16,30,-27,-20,-4
1490139660257,-12,5,-27,-18,-22,-40,-25,18,-6,13,82,78,69,40,30,-30
1490139660305,-15,10,15,-127,-64,-4,-25,-9,15,-51,-74,-46,-128,-65,-12,-33
1490139660355,-15,15,10,97,-28,-41,-26,-37,14,59,127,113,48,53,16,29
1490139660361,2,12,19,9,110,24,23,17,-1,-29,-128,-127,-74,-5,1,5
1490139660402,7,37,34,52,73,56,17,7,5,-2,37,105,48,38,6,-3
1490139660451,-7,21,-13,-18,24,-19,-13,-16,5,-31,-5,-6,40,61,2,16
1490139660500,-16,-57,-55,35,-43,-98,-14,-21,-15,8,0,26,16,-15,-39,-45
1490139660549,8,-15,-52,-16,-56,17,-13,3,1,31,88,101,-9,30,21,2
1490139660553,-3,5,-15,57,95,16,0,-20,-3,-10,-19,-124,-110,-9,-28,11
1490139660599,-2,-15,-13,25,22,-10,-9,4,-9,-14,4,20,49,27,6,-8
1490139660647,1,-10,-12,-1,-44,-48,2,-2,-1,-11,25,-1,38,77,25,16
1490139660697,-12,-1,-19,-45,-77,-93,-8,-3,-1,-13,-3,-3,-13,4,-20,-4
1490139660745,5,27,27,-1,-14,34,17,13,9,-9,-5,3,-9,-15,-1,-9
1490139660792,-2,17,4,11,41,50,5,6,-2,2,2,-7,-35,-46,-10,13
1490139660794,0,-35,-37,-36,-52,-35,14,22,-9,19,27,2,37,30,-30,13
1490139660841,-2,-3,-8,-16,3,-23,8,-19,0,-9,-14,-8,-8,11,17,2
1490139660890,-10,22,-2,-24,-37,-69,-13,-16,2,-18,-14,6,12,11,-22,-20
1490139660939,-3,15,-13,-64,-65,-77,33,9,-4,-22,-20,3,-12,10,-9,-12
1490139660988,-6,-30,-17,85,30,-26,5,-4,9,49,58,30,78,76,11,4
1490139661036,8,-19,-24,-63,-7,21,11,-4,3,10,10,-39,-20,-22,6,20
1490139661040,-17,-22,-59,-34,-17,-52,-38,14,-11,-34,-37,61,41,-18,1,-11
1490139661085,11,46,22,-6,18,1,2,6,-1,-5,-50,-125,-57,2,-1,-2
1490139661134,-14,-37,25,127,110,33,-1,-23,21,42,74,55,127,59,27,18
1490139661182,-38,-55,-128,41,-76,-106,-45,-36,-6,-46,18,62,23,29,10,8
1490139661230,-6,-21,-9,31,-128,-86,-23,-31,-6,5,33,-42,71,12,-12,24
1490139661232,-26,-46,-93,-84,-37,-26,2,-79,5,13,-58,-75,-113,-41,-27,17
1490139661280,6,25,35,-41,3,14,-13,2,24,5,-5,41,31,11,63,23
1490139661328,15,57,127,127,127,44,4,0,6,-5,-48,-38,-86,21,7,36
1490139661377,16,-13,-51,-46,33,-16,-18,-43,-12,40,57,-14,-70,-36,-21,37
1490139661426,35,-24,0,-19,-41,16,-2,58,-24,-15,-13,-27,-27,-21,-19,-32
1490139661474,4,1,-42,-6,17,30,34,21,-7,18,14,43,32,11,32,-29
1490139661476,-8,-15,-52,61,-34,-44,-10,-10,43,52,100,127,127,14,6,20
1490139661525,-4,52,29,121,71,29,15,12,10,45,63,90,127,62,-4,-12
1490139661572,-1,24,6,58,75,23,-4,16,-17,-20,-82,-72,-102,-14,4,-18
1490139661621,-24,-13,-1,-48,48,2,-19,-33,-1,2,-45,-22,12,0,8,16
1490139661670,6,5,-3,-29,-1,-2,-7,-18,17,42,68,127,109,58,55,14
1490139661718,4,-44,-89,-128,-111,-15,0,16,-32,-21,-19,-46,-70,-54,-34,-24
1490139661719,7,25,79,73,-12,-5,3,-3,-3,17,-49,-41,32,18,40,-1
1490139661768,-7,-22,-12,-4,9,-8,-14,-20,-3,5,56,-48,-64,-19,-8,2
1490139661818,2,-18,28,-18,12,10,30,-2,-18,-18,-5,-14,6,-7,-16,-11
1490139661865,9,10,4,-41,-36,-11,8,4,-18,-18,15,11,-14,16,11,-28
1490139661914,-18,45,-93,-112,-27,-12,0,-47,19,-27,7,-68,-35,-26,-15,25
1490139661918,2,22,82,50,2,-3,-7,19,-5,2,-36,56,58,13,-3,-6
1490139661963,-20,-94,-84,-95,-45,-27,-24,10,12,41,27,-11,-25,-26,-13,-5
1490139662012,-16,-31,-48,43,31,-10,13,-28,-3,3,-73,-64,-62,-23,-30,0
1490139662060,8,-25,-58,-10,23,18,9,-2,-47,36,-35,2,9,2,-14,5
1490139662108,-45,-31,-65,-23,-42,-46,-20,-16,23,-5,80,54,64,31,45,14
1490139662156,-48,-16,42,-85,-117,-9,15,-43,7,28,9,27,-41,-37,-18,6
1490139662157,16,-22,-99,52,99,4,-9,-58,-46,30,93,-11,-48,-9,-16,-13
1490139662206,10,9,19,54,59,-19,-9,-13,15,63,50,111,-6,19,-35,-3
1490139662255,17,-37,59,127,127,-1,15,20,1,9,26,15,-70,3,19,8
1490139662303,11,38,89,119,92,74,34,16,37,65,57,79,94,50,40,65
1490139662352,-21,-55,-41,-1,23,-8,-11,-9,19,-31,76,62,19,49,13,-20
1490139662353,-23,18,-22,1,92,18,-3,-23,4,17,-12,-6,-128,-19,11,39
1490139662401,-17,-46,-61,-18,3,41,29,2,18,21,39,91,126,61,8,21
1490139662450,7,-51,-39,-28,-29,44,22,8,-6,-12,38,3,23,29,-13,-21
1490139662499,3,38,98,105,41,35,28,6,28,57,127,95,107,106,42,29
1490139662548,4,1,35,-13,-90,-39,26,-12,-15,11,-82,-97,1,-22,-15,-15
1490139662596,2,-18,-33,0,-58,37,14,16,1,3,40,101,48,9,9,-7
1490139662598,6,19,36,79,-3,16,13,18,-1,0,-4,77,73,26,7,-18
1490139662645,0,-2,20,-55,-77,-92,6,9,-6,5,-51,-48,-32,8,-12,-14
1490139662694,-1,10,-2,4,13,-4,-8,11,-1,-7,-9,-12,-18,-10,-15,-38
1490139662742,-2,-2,-7,6,3,-23,9,-7,-7,1,2,18,32,56,-2,-3
1490139662791,9,17,35,14,49,26,-13,5,-9,-1,15,23,29,1,-13,-4
1490139662939,-9,7,16,3,-27,-69,0,-35,-1,4,-21,-3,22,36,5,4
1490139662941,8,-11,-1,8,8,5,4,16,-12,17,18,3,39,85,3,-28
1490139662948,1,0,3,6,19,6,-12,-16,14,19,2,19,53,45,-1,-1
1490139662951,5,-12,-12,5,-12,6,-4,-3,5,1,-5,-32,-54,-104,22,34
1490139662990,-7,2,3,-1,8,-19,3,-16,-2,-2,9,19,46,-1,-9,16
1490139663036,-5,-4,-25,24,25,0,8,-8,6,6,-4,19,19,-23,-17,4
1490139663040,-4,1,3,1,19,52,9,2,-5,5,38,23,0,7,-11,-10
1490139663083,-15,-1,26,54,36,39,15,0,0,7,14,-14,-65,1,2,-1
1490139663132,2,1,24,-65,-110,-18,-18,-2,-8,-17,-74,-95,-25,-3,-2,-9
1490139663181,-46,-4,-1,127,50,41,54,-4,31,12,55,-34,-8,11,23,-3
1490139663230,1,-4,-28,-94,-128,-89,-58,-29,11,6,-33,108,108,39,56,4
1490139663278,-9,-37,-90,-99,-77,-26,26,-4,-33,-28,1,94,117,7,2,-8
1490139663279,66,-33,-128,-128,-128,-49,-10,-12,-71,-9,36,78,11,-62,-18,-17
1490139663328,2,-21,-40,-64,-31,-57,-61,-25,14,-10,72,70,127,27,45,18
1490139663377,-1,38,91,98,127,116,6,10,-13,16,29,-44,-128,-27,12,2
1490139663427,3,-16,4,43,-21,-24,-32,-3,27,53,81,127,101,42,-26,5
1490139663475,-30,28,20,-21,46,75,34,8,39,44,3,-78,-87,-75,-31,18
1490139663522,17,16,-64,-23,-82,13,15,8,-24,-10,-65,63,126,3,-27,4
1490139663525,22,-6,6,64,76,-7,-10,-26,-29,18,32,14,-47,-10,-27,0
1490139663571,-64,-81,-128,-49,-47,-51,-30,-22,5,13,22,-70,16,-14,-3,-14
1490139663620,-28,0,103,92,57,47,6,17,18,-3,-6,45,65,11,-13,-16
1490139663669,-4,-14,-42,-43,21,-4,5,-13,16,-1,-62,53,-12,-17,-11,-8
1490139663717,-33,-107,-31,16,5,-1,-4,6,45,0,-1,-54,-78,-30,-32,-46
1490139663722,28,88,100,127,127,52,31,14,-37,1,-53,-107,-118,-50,-31,-8
1490139663766,-18,0,-38,-111,-95,-19,-1,4,-12,-32,15,48,22,-3,-6,-22
1490139663815,-27,-23,-80,-85,-70,-38,-12,-37,-21,-15,-30,-24,5,-15,-44,-23
1490139663863,-16,-34,-44,-37,-69,-45,-26,-21,-33,-36,-13,-50,-58,-21,-6,3
1490139663912,1,4,-58,-65,-26,-21,20,10,64,39,35,-54,-25,-19,-5,19
1490139663960,5,58,-4,-5,18,16,10,2,8,-30,45,82,35,25,4,7
1490139663961,36,7,32,74,53,21,-27,8,-5,12,-5,56,-10,-9,48,36
1490139664010,-14,-15,-101,-47,-67,-17,-18,-23,-47,-6,-45,21,81,24,19,-10
1490139664060,17,-36,-69,-40,-42,7,25,30,-62,-95,-88,-106,-28,-24,-25,-11
1490139664110,-28,127,127,127,127,54,-21,-59,82,36,-91,-128,47,20,21,49
1490139664156,-24,-41,-61,-108,-99,-46,-22,-49,4,11,7,-28,12,14,6,-3
1490139664204,33,-62,-103,-106,-5,30,15,20,-98,-14,11,4,-57,-23,-21,-42
1490139664205,30,12,41,-90,31,3,-13,-38,-19,10,-18,-27,-53,-51,-35,30
1490139664253,-37,48,8,47,60,-39,-28,-31,20,37,97,127,46,37,23,-29
1490139664302,49,-106,-72,120,65,-25,-7,27,-26,-25,-89,-58,-6,-37,-4,3
1490139664351,-31,24,7,-100,-107,-65,-24,-11,21,-6,0,-50,66,6,-7,-9
1490139664400,33,-48,-21,22,-115,-51,4,12,-96,-45,-56,-25,-111,-67,-17,-35
1490139664401,7,38,-10,104,82,32,-19,-34,17,-1,-38,-12,-19,-4,30,14
1490139664449,13,11,-13,106,106,18,15,35,-3,-24,-65,35,22,-39,-23,-4
1490139664498,11,43,31,61,72,49,21,6,7,-38,-24,-79,-109,-20,-17,4
1490139664546,-11,19,64,48,18,-19,-32,-11,-12,-22,-69,-110,-102,-87,-2,3
1490139664595,-13,-9,71,96,78,10,-16,-5,6,5,-22,-100,-64,-14,8,-4
1490139664643,1,8,51,25,-15,-48,14,1,10,-1,-51,-48,-37,19,3,15
1490139664644,0,-7,-15,-59,-52,-2,-6,-1,-6,-8,-18,-35,-35,2,-8,-11
1490139664692,-31,0,12,-80,-103,6,-18,-39,5,-4,-14,-19,-41,-54,1,4
1490139664741,15,-21,-56,-92,-28,13,16,25,-12,27,41,93,118,112,-10,-6
1490139664790,-4,-31,25,27,-35,-58,16,13,-4,24,17,3,10,-38,-29,-39
1490139664839,-5,-6,-12,-20,-50,3,52,15,-1,6,7,19,4,-32,22,6
1490139664887,0,36,39,78,106,45,-30,-11,-3,-23,-29,-29,-45,-28,-2,2
1490139664890,-2,5,25,18,44,29,19,20,3,-3,-4,-7,-9,-38,13,2
1490139664936,14,66,22,18,17,-73,21,59,-28,-1,9,7,-14,56,-32,-51
1490139664985,16,-2,-27,-31,-31,2,44,12,-9,-26,0,5,0,7,49,2
1490139665033,-9,-12,-5,-13,14,14,-4,-10,-9,6,18,62,68,15,-23,-29
1490139665081,-3,-14,-22,-15,-19,4,-29,9,7,3,-3,3,-2,-51,23,24
1490139665082,-9,24,2,-5,23,9,-17,10,16,-29,-20,-8,-5,-52,-3,12
1490139665131,4,-6,29,77,57,39,22,5,-11,-4,-8,-86,-84,-32,-4,2
1490139665180,6,12,-23,-82,-52,2,6,-13,-17,-19,3,10,-20,-18,10,5
1490139665229,-12,-12,-77,-128,-81,-63,-19,-23,1,-15,18,21,-43,42,24,-3
1490139665277,2,3,53,50,-47,-15,2,39,0,42,-26,-16,46,8,-10,11
1490139665325,6,-22,-28,79,60,30,-11,5,10,15,23,-57,85,26,-20,16
1490139665326,27,9,64,-70,22,24,5,28,2,-21,-53,-128,-93,-26,-30,-21
1490139665375,19,27,92,41,122,71,38,9,9,-17,-1,39,-17,-7,-9,22
1490139665423,-23,-36,-30,-60,6,-47,-38,-40,-10,10,-24,-37,-105,-71,-10,-19
1490139665472,-19,14,-85,-38,-40,-32,9,-30,19,-66,57,107,0,26,18,57
1490139665521,19,3,-68,12,-37,-11,21,16,-10,12,23,5,70,51,0,-9
1490139665523,4,9,82,76,31,35,-16,22,-32,6,67,48,32,48,41,-6
1490139665572,-10,-7,24,-19,-1,17,10,-38,28,39,77,45,-38,5,-4,-12
1490139665619,17,18,86,39,29,30,58,18,19,-2,-107,-83,1,-21,-21,-19
1490139665668,-7,8,-49,-93,-72,-4,-18,-22,-22,-11,-49,-46,16,-34,-15,-3
1490139665716,-14,-4,-15,51,11,2,-20,-6,-5,-29,-58,-115,-128,-37,-10,-34
1490139665764,10,-24,-44,-103,-78,17,8,16,-9,-22,-38,-80,-23,-27,8,17
1490139665765,-7,15,-23,-57,-42,-18,9,-8,15,8,92,126,64,14,-23,33
1490139665813,-10,-2,-43,69,69,4,-10,3,42,-10,37,120,100,65,81,49
1490139665862,-12,-15,-32,-73,-24,8,43,12,-16,14,-10,-22,-24,-21,-37,-24
1490139665911,10,26,103,81,86,38,19,23,-17,-4,-11,-103,-88,6,38,5
1490139665960,-9,-13,-48,-21,62,10,-32,-5,24,52,37,109,45,8,10,37
1490139666008,-3,-17,-71,-25,-22,-11,14,-25,0,-20,-66,-112,-51,-9,-21,-14
1490139666009,3,-8,-15,57,-10,7,-12,17,-4,-16,-54,-16,-32,-8,-3,-17
1490139666058,19,36,102,3,44,25,34,54,-9,-29,44,54,42,21,6,7
1490139666107,-36,-48,-1,-71,-51,29,56,-8,67,62,-5,77,90,3,-13,40
1490139666156,34,10,-97,22,81,3,-26,18,-27,-31,-14,0,-5,16,-17,-43
1490139666203,-1,-35,-5,27,-30,-3,21,48,18,38,-100,-62,-60,-3,34,9
1490139666206,-10,36,-63,-79,-112,-34,-21,-48,-31,-15,51,3,-13,-34,-19,-46
1490139666252,31,-108,-44,-39,-35,7,8,2,-9,69,117,124,127,76,26,8
1490139666301,9,28,42,-66,10,-41,-57,0,-40,-27,-123,-54,-99,-11,43,-33
1490139666350,-13,-56,-112,-128,-99,-5,-9,-4,10,-1,98,19,25,11,8,-25
1490139666398,6,-18,-84,-127,-106,-4,7,-13,-18,-5,34,76,61,36,14,5
1490139666447,-8,-31,-28,-31,-14,-6,5,-6,2,2,-24,78,28,-5,-6,18
1490139666448,-7,45,127,127,127,55,12,7,18,31,-12,-30,42,10,-3,19
1490139666496,-26,-10,-24,37,-21,2,-20,-35,49,16,47,41,99,71,65,42
1490139666545,-4,10,-23,-39,-50,-10,-38,23,-11,-24,-47,-91,-49,-42,2,-31
1490139666593,14,-6,-51,-117,-61,-36,26,15,-20,0,65,67,-77,-29,-24,0
1490139666642,6,33,48,63,56,29,-2,9,3,-2,9,92,111,-27,-3,-1
1490139666690,-3,8,25,102,81,19,19,-1,28,32,88,127,127,9,21,16
1490139666691,0,-2,31,-11,46,37,-1,-5,-10,6,-13,-74,-69,-29,-8,6
1490139666739,1,-19,-72,-79,-49,51,65,13,-10,15,60,56,127,43,12,-15
1490139666788,4,-16,11,23,9,-37,-40,-19,-9,5,-16,-12,-14,-62,16,0
1490139666837,4,18,12,1,42,7,-2,28,0,-16,-28,2,21,74,-4,6
1490139666885,7,-8,-6,3,-5,-1,-14,-11,-7,21,19,-6,-28,-40,8,8
1490139666887,3,-2,-5,9,38,53,15,-7,-6,5,8,1,-4,13,13,20
1490139666935,0,29,27,-7,-21,68,5,-5,-10,-9,-7,-1,-13,12,18,-13
1490139666984,-17,-6,-18,-30,-68,-24,-5,-43,7,-3,-25,-21,-33,63,41,31
1490139667033,-1,33,13,19,55,84,28,-22,-8,-52,3,-2,20,63,-55,-49
1490139667081,-10,-18,-11,-1,19,-43,-10,-17,10,14,17,19,22,0,-3,28
1490139667129,-1,11,10,10,-1,28,-3,-25,6,-10,5,-13,-7,-18,8,6
1490139667132,-12,-26,-5,13,-30,-72,-8,-39,7,12,-12,-5,-2,34,6,15
1490139667180,-5,-29,-45,-22,-24,14,-14,-6,2,20,35,49,72,-12,17,7
1490139667228,-3,-2,-10,-88,-110,-42,-15,9,-6,-25,-27,-27,-19,-9,7,2
1490139667276,20,60,0,-95,-68,19,23,28,-19,-28,-43,-66,-117,-40,-3,-4
1490139667373,-5,-9,28,-64,-86,-27,-12,-14,-20,6,-45,-2,-13,-15,-17,-32
1490139667374,3,16,-47,-115,-93,-54,-4,42,-33,-104,-36,-1,-5,-27,-27,-34
1490139667375,-3,-15,-19,-45,-55,-7,2,-9,23,17,-19,31,-1,-5,-6,18
1490139667422,9,-60,-78,-63,57,-4,-3,-33,6,2,-9,4,-128,-33,-10,22
1490139667471,-1,-26,-71,-22,6,-3,4,13,-18,-30,-71,9,-34,-37,-23,10
1490139667520,2,2,12,3,-40,-5,-6,23,17,-1,-104,-128,29,4,-19,15
1490139667569,3,-15,25,127,127,79,27,20,18,37,127,-56,-50,43,10,2
1490139667571,19,43,121,127,46,29,10,22,-2,-19,-26,15,8,2,1,-6
1490139667617,-30,-19,4,-27,-76,-39,-13,-37,35,12,-34,-108,-64,-20,-9,10
1490139667666,-19,-17,-82,49,75,26,9,18,22,-20,-23,-14,26,33,-1,-4
1490139667715,21,1,29,-32,-53,-7,-14,11,-24,-5,-36,-51,-3,-45,-6,-22
1490139667763,7,19,29,-42,-98,-39,-7,-18,-54,-88,-80,-107,-54,-46,-38,-14
1490139667811,4,-13,-35,-1,14,4,19,12,3,42,114,127,125,80,18,21
1490139667812,-13,-17,-95,57,-67,44,18,15,19,1,71,-66,-23,-13,-4,-6
1490139667862,-27,10,17,32,29,-9,-21,-17,7,9,23,77,33,-21,-1,-33
1490139667910,-7,-26,74,39,54,25,9,13,-4,7,16,-22,18,15,-35,-18
1490139667959,15,-5,-15,17,-6,5,5,4,-15,-26,4,-36,-18,-14,-6,-2
1490139668006,40,25,64,111,123,35,34,15,13,34,17,-72,-29,26,33,19
1490139668007,-18,-12,6,-20,-14,-21,-29,-9,21,17,-12,85,112,46,46,2
1490139668056,23,-52,18,8,24,23,7,29,-1,50,55,-16,-18,-16,-1,1
1490139668105,14,-24,-35,14,54,23,26,14,-11,25,109,28,80,27,-18,-27
1490139668153,28,-25,-20,-10,-19,-15,10,29,-34,-107,-128,-38,-5,-23,-9,-42
1490139668202,6,53,49,-10,8,-9,-18,-4,-19,-8,-31,-59,0,-9,-12,-30
1490139668251,-18,40,86,-35,-19,-12,-48,-26,2,-65,-123,-128,-72,-18,34,10
1490139668253,10,-67,12,-11,13,16,19,20,-25,13,-7,71,-25,4,-19,-25
1490139668300,-3,55,42,111,121,39,11,-9,4,12,8,95,107,28,-5,69
1490139668349,11,38,-65,-33,-89,-14,0,29,-53,32,-2,42,100,39,11,-26
1490139668397,22,-34,-14,-85,94,47,0,-9,-2,-33,59,-56,-90,-47,-1,22
1490139668446,-17,8,127,127,-37,41,38,9,69,33,-93,-101,105,23,0,3
1490139668494,5,14,-17,-46,-3,-57,-16,5,1,-16,19,28,-66,60,12,3
1490139668495,24,19,22,-99,-41,40,-2,52,-41,61,29,-72,-84,-61,-40,-49
1490139668543,-69,-82,-112,-29,-110,-118,-54,-51,-40,-38,-33,-19,-11,-55,-11,-66
1490139668592,-3,-12,-19,-43,-87,-34,3,25,-26,-6,47,22,54,4,14,16
1490139668641,21,-3,15,-24,-83,-17,6,10,-5,0,-10,114,70,9,-5,-9
1490139668689,30,63,127,127,127,127,37,32,-13,-45,-94,-128,-99,-53,0,-11
1490139668691,1,-34,-29,-32,-16,-8,-15,-12,3,43,25,-4,-14,-36,21,-3
1490139668742,-5,28,61,81,9,2,-9,-10,7,-24,28,23,93,100,0,4
1490139668787,34,12,-56,-40,62,6,-19,24,-3,7,11,-65,-127,0,16,-17
1490139668836,-7,2,25,-2,-15,34,25,4,-4,-6,-9,-19,16,-14,-45,-45
1490139668885,-9,10,7,18,40,14,-3,4,-9,-8,9,-18,-31,-37,-14,-2
1490139668933,1,-34,-66,-109,-119,-29,16,-18,2,34,18,69,127,127,4,30
1490139668935,-4,-7,16,7,-38,41,-14,4,-17,0,6,11,4,9,-2,-30
1490139668983,-14,-1,7,2,26,68,-30,-15,-8,22,10,19,42,-18,-18,-37
1490139669079,21,26,-2,-18,-74,-67,15,15,-13,-27,-22,-13,-49,-19,-21,-9
1490139669082,-1,1,16,10,20,18,6,5,-6,1,11,0,-12,-29,23,-32
1490139669129,-12,-24,-11,-4,-4,-47,0,6,12,-8,-26,3,-1,13,13,-11
1490139669177,-15,-4,0,-4,-23,22,20,-11,1,-4,37,12,0,-15,-15,-20
1490139669178,10,0,15,-7,22,9,-3,34,-1,-1,-2,0,-10,3,-8,1
1490139669226,10,30,14,-4,-5,4,-23,14,-7,-14,8,48,41,3,10,-3
1490139669274,-5,-4,0,37,7,-23,8,-28,6,22,-20,-27,-2,1,2,29
1490139669323,-20,25,47,22,-8,-12,-1,-25,5,-10,-13,3,-22,-31,-28,15
1490139669371,-3,-15,-104,-46,-98,-25,-23,-15,-1,-26,96,9,-10,-33,-19,-31
1490139669372,-8,-32,-58,-111,-104,-26,-6,32,-14,-6,-53,-10,-107,-60,-20,-8
1490139669421,6,21,19,60,99,31,-3,28,9,-5,15,-30,-80,-3,-15,-2
1490139669470,4,-15,52,15,-58,0,8,-3,-23,-8,-35,-35,17,-2,-23,-11
1490139669519,19,-7,-46,-128,-88,1,-46,-1,-10,6,-62,-35,33,10,16,10
1490139669567,-26,28,-34,-82,2,13,-5,-30,12,-61,-1,-32,-45,-33,-34,-24
1490139669615,10,42,-27,-23,7,0,-10,-1,-14,-12,4,12,1,9,28,0
1490139669616,10,-22,28,-6,-10,-5,-23,11,7,21,-9,32,56,-11,1,0
1490139669664,-11,-30,-118,-35,32,26,9,9,7,35,127,5,-9,5,22,4
1490139669713,24,22,17,42,-15,-5,-12,8,-28,-18,35,76,66,4,-24,-12
1490139669762,20,2,26,-19,15,17,19,0,21,9,-16,-42,-32,-18,-11,30
1490139669811,10,-12,-58,-43,-79,-10,-5,-2,-14,13,16,-49,-25,-17,-16,-26
1490139669860,-33,-54,-27,15,14,-6,16,27,56,90,2,21,-2,-14,-28,3
1490139669864,-7,-5,11,-4,-25,1,-6,40,-12,3,-8,21,1,3,16,-15
1490139669909,22,9,98,87,40,9,-7,6,-27,-9,-51,-41,5,-12,-12,26
1490139669957,-23,-30,1,32,1,13,-17,-6,5,44,88,56,41,4,-33,-15
1490139670006,10,34,-22,17,11,11,-5,24,-35,7,-65,7,-33,1,37,-41
1490139670054,21,-63,-59,-39,0,0,2,12,6,58,-38,-6,29,22,33,-12
1490139670056,16,34,46,57,41,11,39,1,0,-12,-40,53,13,29,57,25
1490139670104,8,19,39,15,38,3,-18,16,-1,-36,14,13,56,16,-6,38
1490139670153,19,-1,22,9,25,12,-13,20,0,-75,-74,-31,5,9,34,-24
1490139670250,-40,-87,-36,117,60,-25,-37,-14,32,50,127,20,-30,38,19,-17
1490139670254,29,-83,27,65,-1,1,15,62,10,24,12,2,97,7,-2,-4
1490139670298,-4,-4,-110,-128,-93,-21,16,34,25,47,-3,117,67,40,23,54
1490139670300,-3,-87,-24,-106,-47,41,1,-17,12,74,-57,-99,-17,-34,-8,-6
1490139670347,40,-17,-6,33,71,18,7,15,-24,-10,-77,67,-33,17,-32,-18
1490139670396,-9,-43,70,106,127,116,29,-28,25,9,-88,-80,-97,-73,-17,19
1490139670445,35,-6,119,127,33,-36,-16,-7,0,24,-48,35,87,97,37,39
1490139670494,-54,-36,-42,55,3,-54,-1,-39,38,-2,14,74,14,26,41,-23
1490139670542,9,15,4,22,-46,-43,-14,-2,-15,-3,17,3,84,42,18,-8
1490139670544,-13,16,72,-82,-24,43,6,15,-30,-58,-57,-77,-62,-51,-39,-31
1490139670591,7,2,-46,-69,-43,-11,0,26,3,0,4,75,44,-14,-18,1
1490139670642,-13,10,66,126,89,-1,-13,-9,20,39,80,127,127,32,16,13
1490139670689,-13,12,-3,9,-16,-48,-24,-21,0,-27,-56,-28,36,-15,9,7
1490139670737,-11,-13,-32,-79,-56,-11,-30,-17,-12,-19,-56,-30,-31,-37,-8,8
1490139670738,-5,-6,-20,15,43,12,-24,-8,5,13,74,81,70,6,21,-21
1490139670786,3,6,-6,-5,-35,24,38,6,-20,-15,-23,-7,-50,-93,-13,-30
1490139670835,9,6,-16,19,-51,-104,-11,-5,-3,-6,-6,-17,23,52,13,7
1490139670884,0,-2,5,4,-3,78,2,1,-7,-5,-11,25,35,27,-21,-9
1490139670932,-14,17,7,-33,-49,-24,7,-19,-11,4,13,47,71,91,-6,-3
1490139670995,4,7,-25,-41,-57,-53,4,7,-7,-13,17,42,66,40,5,6
1490139670996,15,-17,-12,2,20,-18,-17,-1,3,13,1,17,34,17,25,3
1490139671127,-6,-12,-10,-18,-7,-39,4,-9,11,15,-26,-7,-11,-10,-22,-11
1490139671128,3,9,11,10,25,24,-14,-12,1,2,-1,9,-5,8,2,26
1490139671130,-3,0,5,-2,-29,-33,6,-6,9,-6,-21,1,5,24,33,18
1490139671175,4,17,-22,-17,-30,24,12,-8,3,-13,2,-10,25,-22,-13,5
1490139671177,-8,8,27,10,21,14,28,12,-2,-37,11,-3,-31,-59,-23,-6
1490139671225,6,-13,-27,-91,-28,7,11,30,-12,-1,-29,13,-31,-5,1,-8
1490139671274,24,25,68,-23,-19,96,37,23,-18,-11,-11,-40,-66,-39,-11,-15
1490139671323,24,58,112,127,124,100,25,5,-13,-36,-54,-108,-101,-45,-32,0
1490139671372,-7,-51,-127,-53,61,-76,-33,19,-23,-13,-62,-66,-41,-2,13,-13
1490139671419,-26,-12,-112,-91,-128,-67,-39,-31,17,-3,53,26,8,24,32,4
1490139671421,-3,-7,40,41,44,30,5,-4,9,45,69,-56,-64,46,28,16
1490139671517,-4,-9,79,-28,39,4,-13,11,-16,16,-33,72,127,52,0,20
1490139671520,9,-40,-87,-24,27,-10,-7,6,-9,3,53,60,104,24,-8,-10
1490139671566,12,21,81,127,107,76,25,10,31,29,86,112,106,56,29,5
1490139671615,9,-24,-40,-88,-128,-50,-20,24,-20,17,10,-6,21,2,-14,-10
1490139671663,9,54,1,-89,-15,-4,12,17,-21,-78,-98,33,-6,-61,-25,-8
1490139671666,0,-20,-128,-116,-93,-44,-16,2,0,-4,-43,5,-12,17,29,3
1490139671713,-40,-18,-18,32,12,-24,-8,32,-1,30,62,57,19,20,8,-42
1490139671762,15,32,84,17,7,-20,-19,-3,-5,-16,-52,21,7,-10,22,19
1490139671811,2,9,39,63,127,37,3,18,7,-29,-84,-22,-68,-9,25,18
1490139671858,-1,29,-12,-28,-49,-17,14,-15,-10,23,58,76,57,-6,-52,-11
1490139671860,5,27,43,105,106,-9,-37,-40,-6,53,-86,-59,-66,2,-17,28
1490139671907,-9,8,-31,-2,-77,-19,4,21,-26,-81,58,50,33,0,-25,-62
1490139671956,-38,-1,81,-52,18,13,30,-9,46,-77,-108,-3,19,8,25,23
1490139672005,31,6,55,-14,-62,-3,6,-1,-22,-26,15,103,84,19,18,35
1490139672054,6,87,37,127,118,42,27,3,46,-33,1,-36,-102,-21,-29,35
1490139672102,8,28,-128,-125,-116,-51,-33,-30,-25,23,37,-42,2,-8,29,-12
1490139672104,28,21,103,71,39,13,-23,59,51,91,-50,27,79,73,5,34
1490139672151,89,-19,93,127,58,127,34,36,8,35,-22,-67,-58,40,23,36
1490139672200,-41,-22,-97,-43,-23,-51,-59,-89,-39,16,99,119,93,0,25,-54
1490139672248,-15,-6,-61,79,58,86,34,23,-1,-10,20,48,80,-10,-7,16
1490139672297,-13,-41,-40,-37,23,36,48,39,70,-11,73,115,107,81,32,56
1490139672345,-3,53,80,67,-33,23,18,-2,35,34,107,69,106,52,9,11
1490139672346,-21,10,5,-27,-19,-37,-7,26,10,-37,-68,-83,-67,-27,-33,-43
1490139672395,7,6,58,72,92,62,31,18,-8,7,-17,-61,-69,-48,-34,-11
1490139672444,11,16,1,-82,-36,-15,21,10,27,12,74,42,44,97,31,37
1490139672492,-20,0,-5,51,25,-43,-14,-13,0,30,-9,-72,-101,0,-26,-20
1490139672540,29,34,110,117,127,73,25,5,-10,-62,-115,-128,-128,-72,-16,16
1490139672545,-4,-26,-69,-128,-67,5,-18,1,2,8,-10,2,12,11,-8,6
1490139672590,-15,-25,-65,-37,-84,-28,-26,-7,-13,22,2,24,0,-56,4,-11
1490139672638,4,-16,-57,-14,-50,-3,-4,6,-2,5,-1,12,57,53,0,-10
1490139672687,28,1,3,-4,10,52,18,24,-7,-3,-8,6,8,68,9,13
1490139672736,-6,8,47,2,30,41,-26,6,7,-1,2,31,58,29,1,10
1490139672784,-11,-3,22,8,29,41,-13,-3,4,-9,-32,-45,-50,-27,-2,0
1490139672785,11,17,-18,9,41,60,-34,-3,-31,-17,19,-31,-64,-1,7,-13
1490139672834,4,-17,-6,-10,-24,14,11,-7,0,43,26,24,33,-51,-16,-4
1490139672883,-8,-9,0,-2,-6,-58,-17,-22,0,5,-7,-14,0,27,42,15
1490139672931,-7,-14,-16,-9,-7,-14,-22,-7,-3,-20,-22,-20,-69,-62,16,15
1490139672981,11,-1,-5,-11,12,14,9,9,2,-1,-21,-1,27,19,-23,-9
1490139673028,-4,40,25,34,17,37,-10,-19,-1,-3,25,27,11,10,1,-8
1490139673030,4,-3,7,42,14,-31,1,-19,3,29,0,-6,-11,-8,-28,13
1490139673079,-6,-10,-41,-45,-28,1,12,-4,-3,17,4,42,51,16,-2,-8
1490139673226,-10,-52,-74,-128,-107,3,-2,-17,-12,-34,-49,7,7,-21,-24,-14
1490139673230,-12,35,86,67,94,27,20,18,-1,-13,13,44,78,-5,-3,-3
1490139673232,3,27,110,92,127,29,-11,-53,-3,7,-22,-49,-91,31,8,18
1490139673238,-32,8,26,2,-72,-74,-65,-57,16,10,54,68,97,50,45,28
1490139673274,-7,0,-120,-49,-108,-44,-2,58,29,107,127,126,75,71,35,17
1490139673321,-11,-17,67,82,116,39,69,-4,-28,-80,-85,-111,-128,-87,-13,-20
1490139673370,22,43,76,127,127,89,16,11,15,-5,-9,-55,112,127,11,12
1490139673418,24,23,-114,-128,-128,-84,-20,-9,5,-41,-26,28,-10,-57,-35,6
1490139673466,15,14,28,21,76,69,10,30,-16,35,29,-73,-82,-49,-24,-15
1490139673467,-38,-17,-19,28,-21,-9,11,-33,39,-12,-44,-11,-40,-16,-14,18
1490139673564,24,42,54,127,127,58,36,35,-17,9,4,6,12,19,-21,-4
1490139673565,20,-50,-64,13,64,-16,-1,3,7,35,25,38,34,12,-9,-2
1490139673614,-16,-10,-13,60,77,24,1,-24,-29,29,79,127,56,14,-3,-6
1490139673661,13,7,-68,-80,-49,-33,2,6,-30,-22,36,-22,-32,-34,-22,-19
1490139673662,-23,-13,30,12,10,-10,-15,-27,14,48,48,-9,24,35,33,13
1490139673711,-54,-100,-32,-97,-88,-54,-34,-39,26,47,16,52,-2,-16,-7,11
1490139673759,60,7,-72,-74,-55,-40,-10,50,-11,-60,-128,-112,-45,-51,-30,-15
1490139673808,-16,-58,-7,4,0,18,14,7,29,47,-10,27,29,13,15,23
1490139673857,-7,22,6,72,56,9,14,-4,-12,-7,18,-39,-61,-3,-2,-20
1490139673905,-5,32,15,96,101,28,8,3,18,13,1,-29,-67,-2,-9,-20
1490139673907,9,-45,-52,-7,17,2,-13,-1,24,41,32,-33,-1,-1,-2,15
1490139673955,49,36,96,46,-89,-24,-29,20,-4,1,-49,85,38,-20,1,4
1490139674004,-18,-90,-127,-128,-14,-5,-11,-42,-69,114,-17,-59,-6,8,5,-23
1490139674053,10,26,-4,71,40,-10,7,10,1,42,58,-116,1,-1,2,-4
1490139674101,-30,6,-68,-49,-128,-22,-19,9,-17,-13,121,109,127,35,23,-37
1490139674149,-1,4,-51,-32,56,10,21,-3,-7,-70,-49,-20,-119,-16,-36,15
1490139674150,22,57,7,94,75,-1,7,65,-11,-38,-61,-29,-37,-35,-13,-35
1490139674198,43,9,-80,88,109,39,17,0,23,5,120,-47,-41,4,19,38
1490139674247,-2,34,-18,-66,-60,35,1,-4,-13,-27,88,113,109,33,7,15
1490139674350,34,2,0,-51,-31,47,-1,8,-45,-44,-69,-79,-62,-69,-42,-71
1490139674360,23,-3,101,117,127,75,34,-14,18,91,77,104,88,59,16,18
1490139674385,-18,-13,79,31,-5,-14,15,30,21,-1,-108,-17,64,38,27,-9
1490139674397,26,24,39,-14,-53,41,35,21,-22,-38,-71,-71,-73,-67,-43,-3
1490139674442,-31,9,23,86,103,51,0,-42,59,33,94,127,16,25,17,27
1490139674491,-5,-48,-93,-90,-12,-29,1,-13,6,-1,24,48,126,-17,13,20
1490139674539,-6,29,80,127,84,52,9,6,18,37,121,127,127,76,28,8
1490139674587,3,-4,4,-46,-31,5,-1,14,6,-1,-14,-26,8,17,-30,2
1490139674589,3,-1,2,-15,-22,-33,15,-6,-4,4,6,-6,-2,22,-10,6
1490139674637,-7,20,-17,-4,14,60,-15,-1,17,25,9,6,39,-32,-4,34
1490139674686,-8,-34,2,-8,27,-19,8,-18,2,27,23,8,12,-6,-17,-8
1490139674735,18,15,-19,-4,-37,-10,30,10,-3,1,-1,-2,51,23,-79,1
1490139674785,6,7,-19,12,33,30,-5,10,-3,-12,-6,-10,-23,9,3,-5
1490139674831,7,14,3,23,42,77,-5,-3,-19,-22,-29,-58,-97,-114,23,-15
1490139674832,2,9,-7,-18,2,-10,-24,-1,-3,-3,-2,13,10,18,-6,6
1490139674881,2,4,-1,-23,-25,-24,-15,-16,-9,10,7,16,35,18,-11,1
1490139674929,2,-9,-20,-24,-40,-48,-13,14,-2,13,24,7,7,18,-16,3
1490139674978,-7,-3,1,27,31,49,13,6,-8,-12,-15,8,45,-33,-21,-10
1490139675026,6,7,-6,-2,-1,37,4,10,-7,-20,-19,9,1,-56,5,5
1490139675028,6,18,25,69,71,69,2,5,4,-33,3,-46,-51,-58,-9,3
1490139675077,5,15,54,-37,59,-5,25,16,-4,-6,-44,-73,-63,-33,-11,-1
1490139675125,6,30,5,-65,-81,13,-23,-1,-2,-27,-55,-113,-71,-44,-10,-17
1490139675221,1,55,57,-64,-7,39,11,28,1,-27,-26,-96,-82,-19,-10,-11
1490139675222,-7,12,-7,22,54,28,5,-10,21,16,46,-19,-18,20,3,39
1490139675270,-22,-82,-128,-128,-128,-69,5,13,3,4,15,62,127,28,6,-4
1490139675271,-7,-6,26,-87,-62,-44,-4,25,-23,-17,-41,-44,-72,-24,2,-26
1490139675319,8,15,-81,-31,-4,-23,7,35,19,33,124,127,122,44,6,-16
1490139675369,1,-66,-21,43,116,10,-11,21,0,17,49,20,-104,-22,-4,-12
1490139675418,14,-20,-79,91,55,-20,-6,17,7,20,30,56,127,51,9,31
1490139675466,24,-9,-4,-55,34,30,54,15,3,5,1,-3,-76,-29,-23,-1
1490139675514,-42,13,38,116,69,9,20,-30,-20,-68,-6,-47,41,-3,6,-12
1490139675515,-4,-30,-46,-12,6,-13,-23,-10,5,16,100,71,46,15,5,21
1490139675563,14,19,37,-51,33,16,19,-3,-14,-87,-76,-26,-72,-23,-15,20
1490139675612,-12,26,68,127,124,59,20,12,38,10,-1,-18,-13,0,-21,19
1490139675661,-42,-58,-105,-83,-97,-53,-29,23,-16,-36,61,53,-5,-21,-26,-59
1490139675710,19,-37,-40,21,-24,11,-10,-10,25,69,14,17,55,16,41,28
1490139675711,-25,-24,-68,21,94,17,1,-20,33,25,69,45,-67,-11,-2,-22
1490139675759,15,17,105,73,76,32,21,-21,-15,-8,-104,-27,-64,1,-4,-8
1490139675808,-33,-56,4,-72,-61,-20,-22,-19,-48,12,-53,-11,-29,-30,-31,-5
1490139675856,-6,34,73,49,-12,4,48,3,-2,-16,-13,7,42,1,-18,12
1490139675904,-17,49,61,-18,-55,-31,-42,-30,-14,70,94,112,82,2,5,20
1490139675953,25,42,9,-33,4,22,73,27,2,-35,48,47,-32,16,-24,-26
1490139675954,-14,-89,19,96,41,24,-33,50,70,95,-67,-127,16,20,45,20
1490139676002,13,38,-13,48,22,20,35,-32,-23,-30,-3,5,-60,-17,-9,17
1490139676051,-91,-76,-83,-38,12,-3,-3,-39,48,65,115,127,47,31,-5,-64
1490139676147,96,127,127,122,42,94,15,77,6,-44,-60,-79,-81,-29,-16,23
1490139676149,-11,108,35,9,-6,-13,17,-44,-40,-17,-88,-67,-73,-11,-16,40
1490139676197,11,-36,-108,-88,-47,19,23,46,-52,-16,-43,79,57,-1,-18,-27
1490139676198,-24,-34,-110,-85,98,-9,3,-37,2,12,79,100,127,79,10,29
1490139676247,27,-29,15,32,-42,-11,2,28,-30,45,122,112,127,30,31,-26
1490139676295,-16,-8,8,27,-106,-23,-14,25,-26,-61,-98,-128,-45,-59,1,-29
1490139676343,-3,-4,-27,-106,-78,-32,-7,17,-22,-37,-128,-128,-116,-57,-6,-26
1490139676391,3,10,-12,34,-38,-21,-8,-11,11,32,20,37,-112,-57,22,36
1490139676392,15,8,94,61,127,127,28,6,3,-8,-31,-102,-123,-97,-53,-20
1490139676441,8,0,58,-52,-54,-51,-3,8,-25,8,-61,-112,-68,-32,-14,-23
1490139676537,7,14,38,127,118,78,25,8,-3,-2,-43,-124,-103,-38,19,11
1490139676539,-9,24,16,45,77,66,1,-1,12,-11,-3,-18,-33,-15,31,-12
1490139676587,-6,-28,-7,21,26,34,-13,-24,17,14,64,76,77,12,26,52
1490139676636,-2,-23,-42,-31,-94,-82,-2,-9,-6,0,-10,-7,-9,-17,-41,-21
1490139676637,8,14,0,-17,-34,-28,-33,-5,0,-15,-6,3,59,117,9,-5
1490139676733,-6,20,2,-19,-26,-71,-1,-2,18,-3,-10,-2,15,10,-13,0
1490139676735,2,6,31,28,21,87,66,6,-10,-3,1,-29,-78,-84,23,9
1490139676830,14,29,2,15,49,22,-19,-10,17,-1,-18,-1,-6,34,-2,25
1490139676831,-12,9,-3,-10,-11,-13,-9,-3,6,-15,-16,-22,-38,-112,-4,-2
1490139676832,7,-15,-4,2,-12,-62,4,9,0,17,21,27,38,14,18,13
1490139676879,0,26,-26,13,23,10,9,-9,12,-20,20,-23,-50,-64,-30,23
1490139676928,-1,-5,6,-10,8,76,-2,-38,6,-14,6,16,-15,-53,-15,9
1490139676977,-2,-2,-6,3,10,5,-18,-11,-4,-3,-11,4,8,19,-13,-6
1490139677026,-1,0,2,18,-6,-49,6,13,1,-12,5,-28,-27,-19,-21,-19
1490139677075,-18,27,-63,-64,-56,-13,-31,-20,-2,-48,-27,-15,-32,-13,25,-2
1490139677077,1,-19,15,0,-47,-61,28,11,4,11,41,127,127,104,12,14
1490139677123,-1,-3,26,49,31,15,-13,3,7,20,25,88,127,59,23,-6
1490139677172,35,-27,91,55,119,48,25,47,-1,8,-52,-128,-128,-20,-14,-21
1490139677221,-1,-72,-105,-96,-107,-84,-54,-10,-9,13,32,-7,3,-19,15,-22
1490139677270,17,53,82,65,-39,18,18,1,-15,14,13,127,127,50,33,-2
1490139677317,4,-5,-53,-115,-67,-26,5,-20,-80,-96,-88,-82,-128,-66,-22,-6
1490139677319,-5,12,1,81,38,27,72,-5,5,0,-23,67,127,75,17,21
1490139677368,-27,-14,-115,-128,-28,-23,-17,-24,-14,3,4,127,59,-21,-14,-24
1490139677416,-13,12,-18,17,-76,-7,-24,-1,6,13,-27,-47,-23,3,-5,6
1490139677465,-16,34,-34,-55,-5,1,-5,7,-9,-29,77,55,18,23,14,-25
1490139677513,18,67,-14,101,15,4,-22,33,2,-46,20,-27,-62,-38,-36,-5
1490139677515,27,-67,-41,-59,-41,-7,13,31,-22,-72,-125,-110,-48,-43,10,12
1490139677563,-9,-8,16,-40,-24,14,5,-23,29,7,42,-18,-44,-4,-15,12
1490139677611,-3,45,37,63,-3,-10,-29,-53,-2,-57,-32,105,90,27,-15,11
1490139677662,-5,16,-35,70,91,42,40,28,-39,-45,-25,-16,27,5,-26,-54
1490139677711,10,-50,-58,59,33,-1,-8,1,-13,93,-9,-128,-85,-2,-2,32
1490139677757,4,31,2,-37,41,-2,-13,-14,-18,4,-30,44,28,15,22,13
1490139677759,-32,-23,-28,-108,-59,-23,13,-9,33,70,-17,-18,-6,-10,-14,13
1490139677806,-16,14,92,32,60,4,-4,-17,-19,-104,30,111,10,15,28,8
1490139677854,9,4,-54,12,2,1,6,58,-38,32,-79,-64,-20,-13,-20,-48
1490139677903,-24,79,127,-19,-48,-22,-15,-11,23,-92,-123,-94,18,-18,-2,-20
1490139677952,-6,-66,-128,-128,-103,-35,-42,14,-44,-60,29,0,-79,-34,14,18
1490139678000,-23,-94,-127,-46,66,32,7,-7,23,68,-89,-55,52,-14,-48,-13
1490139678001,-15,47,3,-62,-78,-26,1,13,-22,-54,-49,-16,65,-7,-21,-67
1490139678050,45,-74,-88,-59,83,24,15,8,-22,31,28,-75,-58,-12,-10,-38
1490139678099,0,-43,-16,127,84,96,38,42,41,75,99,-25,-14,27,-2,-2
1490139678147,-23,4,-80,25,10,32,26,6,13,3,10,106,108,77,34,20
1490139678196,35,-41,60,68,33,-43,-5,28,-23,26,34,-20,-90,7,2,-6
1490139678199,-13,62,-62,-79,-92,21,-9,5,0,-74,-65,-59,-80,-64,-18,1
1490139678245,3,3,57,-46,68,65,3,1,8,-20,-86,9,91,66,42,28
1490139678293,-34,4,80,58,4,2,-8,7,-1,18,-22,3,27,-18,-22,-14
1490139678342,23,20,-2,24,-16,61,25,41,6,11,67,26,28,-22,20,-2
1490139678391,5,31,-45,-14,-93,-41,-20,-2,-10,-22,121,54,26,-2,-2,-7
1490139678439,-4,-2,-19,16,-42,-34,7,-9,8,27,81,111,47,66,5,9
1490139678441,-2,-6,-8,67,54,46,-15,-41,-6,-24,-52,-33,-29,-78,-4,8
1490139678488,-1,-13,75,46,-47,-58,-6,10,-1,7,-67,-87,-101,-53,-2,-16
1490139678537,5,-23,0,-6,71,64,5,7,-13,-28,-16,-45,-57,-35,28,12
1490139678586,0,-5,-13,-22,-20,20,55,21,10,49,18,44,86,-44,-3,19
1490139678635,-2,50,3,7,61,-27,-39,-27,5,-62,-6,-8,-36,32,-12,8
1490139678683,17,2,-34,-26,-35,-62,-8,19,-1,6,24,22,-5,49,23,-5
1490139678686,-12,-28,-29,-18,-38,-77,33,-29,3,40,15,9,19,9,-44,1
1490139678733,-5,6,-6,-15,-16,4,-23,-23,1,5,-12,11,17,-35,24,18
1490139678781,-3,-5,-7,-1,-8,-69,-7,-18,-11,-32,-16,-14,-5,-1,-38,-16
1490139678830,-2,17,9,20,-14,17,26,-11,-7,42,-5,-38,-37,-16,-14,4
1490139678878,5,16,1,8,29,28,46,-1,-3,-35,-20,-14,-37,-46,-6,3
1490139678883,-6,9,-9,-10,-16,29,10,-18,2,-2,8,15,17,11,21,15
1490139678928,15,51,20,-25,28,18,9,33,0,13,39,42,-28,-6,7,-6
1490139678976,-22,-31,-35,-65,-113,-68,-45,-7,11,39,5,55,19,25,10,-7
1490139679024,-22,-8,-78,-83,-67,-29,-13,7,19,-48,-16,-128,-82,-70,-10,23
1490139679073,-8,11,23,82,-106,3,-13,-23,11,13,-1,19,14,32,-7,-30
1490139679121,15,-22,57,107,127,90,13,48,4,69,17,-83,-18,62,-7,39
1490139679122,2,11,33,18,65,1,25,-43,12,75,56,101,15,-19,2,32
1490139679171,-2,-50,-102,-7,-45,-19,6,79,5,-6,-10,32,124,58,-8,-20
1490139679220,3,38,44,53,6,-4,-19,-18,-29,16,-97,-116,-94,-39,11,2
1490139679269,-18,-25,15,49,10,-17,-4,-11,64,10,-26,124,-28,-38,-49,39
1490139679317,25,-61,-82,-71,-38,-69,-21,38,-24,-19,27,-80,-128,-81,5,-64
1490139679320,-33,64,-18,-24,-7,-38,-28,11,-41,-58,-74,-22,36,-13,-31,-29
1490139679366,-11,-4,117,111,127,55,40,-61,-35,16,-63,-63,-63,-24,-22,27
1490139679414,22,-43,33,-41,-7,9,-7,3,-11,23,-33,16,15,6,-27,-24
1490139679463,15,49,40,-35,-53,32,13,7,2,-27,-60,16,-11,0,28,23
1490139679512,21,26,66,33,-19,-11,-23,43,-27,-31,-49,-117,-51,-18,-45,-23
1490139679560,-8,14,-19,59,23,18,0,-15,12,84,89,19,68,18,0,3
1490139679561,-7,-7,37,38,60,22,9,-10,6,-5,-28,22,59,25,-21,-18
1490139679610,-2,17,-62,-39,-5,-1,0,-34,-35,-23,-79,-76,-10,-14,-8,-5
1490139679659,-28,-11,-14,-30,88,21,-20,-1,30,27,117,36,34,3,12,4
1490139679710,30,-52,127,70,28,14,26,-9,-8,-9,-73,-87,-29,-21,-33,3
1490139679757,-23,-69,56,-7,-47,-6,17,-7,-28,-75,-27,-33,0,19,20,-28
1490139679804,-2,28,-3,28,36,-3,-3,-59,-35,41,84,79,11,16,39,-91
1490139679806,5,-87,-93,-13,14,-11,-12,34,35,-90,69,-52,-128,-66,-72,3
1490139679854,11,51,86,-93,-106,-47,-68,-72,-51,-102,-41,54,21,-24,-8,7
1490139679902,78,-11,-57,-128,-78,-1,68,75,-26,16,-23,79,-14,-56,-33,-79
1490139679951,-31,17,103,4,26,12,-14,-11,32,71,-62,-112,45,22,50,41
1490139679999,-1,-14,59,-79,-111,-51,-33,-73,-28,-18,-5,59,41,2,5,-61
1490139680000,41,14,5,-14,-116,-21,17,45,-6,93,127,67,127,64,27,-6
1490139680048,-20,-10,-8,-128,-128,-51,4,-41,-3,-92,-26,9,-54,-29,-28,-5
1490139680097,38,40,10,71,127,61,2,53,-21,13,-128,-55,-93,-36,-14,-42
1490139680146,-4,-17,-14,-5,91,59,8,-16,2,24,62,28,86,20,19,11
1490139680246,-3,-35,-13,86,118,-15,-1,7,26,58,88,121,80,56,10,-16
1490139680248,-17,-10,-99,0,-60,-4,-46,-18,6,-55,42,5,47,15,37,11
1490139680250,8,-10,-82,-77,9,29,11,28,-28,-53,-118,-128,-128,-123,-63,-80
1490139680296,5,18,40,-23,-91,0,3,-1,-5,-20,-98,-39,-67,-69,3,7
1490139680341,-29,-31,-32,-30,-101,-98,-27,-30,-1,15,63,74,50,25,0,22
1490139680389,21,-14,-25,32,47,6,1,-22,-2,-5,-17,-42,-51,-31,28,14
1490139680438,24,26,67,112,30,-27,31,52,11,9,-34,-43,6,-14,-29,1
1490139680486,2,49,82,125,110,28,-23,-33,9,-23,-50,-111,-120,9,54,63
1490139680487,-13,-20,27,-2,-48,-56,-12,-16,5,6,20,-30,-78,-41,9,-7
1490139680536,13,-6,50,4,-17,20,64,15,-11,-22,-57,18,18,-9,13,-6
1490139680585,-11,1,-29,-12,3,5,35,27,16,9,25,57,60,18,9,-8
1490139680636,-2,16,-5,-15,15,33,-9,-18,-7,8,-7,-6,-19,-7,8,-1
1490139680681,9,-12,0,-16,30,95,-11,3,5,24,10,-3,-37,-91,35,21
1490139680683,-5,-20,-35,-20,-18,-12,5,-24,2,18,14,-5,36,9,4,43
1490139680731,-30,-14,-29,-27,-30,21,-32,-32,3,23,0,-6,15,1,2,13
1490139680779,4,21,-19,2,16,-9,2,4,-10,-16,23,-4,23,30,-8,-6
1490139680828,-1,-16,2,11,24,-16,22,7,5,6,5,24,-5,-5,-45,-3
1490139680877,-3,50,112,90,67,-17,1,-37,10,-26,-56,-22,71,43,22,14
1490139680925,-3,-42,18,13,22,0,-21,12,-20,37,50,99,76,-21,15,-7
1490139680926,21,34,100,103,60,16,-6,12,-21,-31,-124,-128,-128,-112,7,-30
1490139680975,-4,-11,57,75,121,37,14,19,10,-1,-24,-35,-83,-23,-15,-2
1490139681024,7,22,-5,28,14,-14,17,1,-16,-24,-35,127,104,-53,-49,-19
1490139681072,31,12,40,-63,107,70,-14,2,-19,6,-38,35,65,36,44,8
1490139681122,7,-24,-7,-108,-128,-75,-17,9,2,17,35,84,50,1,-18,-24
1490139681170,-40,-40,-84,44,-53,3,-4,51,-2,-6,61,-112,-85,-31,-18,-32
1490139681172,-26,-24,58,98,56,1,-2,1,13,34,44,108,127,34,19,-9
1490139681220,-8,11,-96,-81,-72,-65,-9,-45,-20,-42,-2,-47,-93,-83,-25,-36
1490139681268,1,77,67,-31,-51,-24,-11,17,6,-22,21,127,127,58,-2,22
1490139681316,-7,-54,-102,-97,-106,-81,-32,-24,-26,42,-10,53,-44,-31,-12,-30
1490139681364,-1,11,-6,-107,-108,-39,-15,9,-20,-88,-61,-67,-35,-62,-25,-24
1490139681366,14,-43,14,105,1,34,26,9,16,62,46,39,108,53,21,6
1490139681413,-26,-26,-25,-22,-60,-54,-40,-27,-27,-42,9,87,31,-28,16,-4
1490139681462,17,7,-17,-43,-30,11,24,-1,-19,5,-112,-128,-99,-43,-12,-21
1490139681511,11,31,-24,-74,-77,1,19,-2,-19,-9,-1,-22,-61,-20,-16,18
1490139681559,5,-9,-22,29,20,3,-16,-45,-9,26,121,127,63,35,-5,-5
1490139681607,27,7,21,74,75,35,5,72,-13,-14,37,11,33,25,26,-2
1490139681608,-5,32,77,76,49,15,-6,-22,3,-37,5,84,52,25,20,30
1490139681657,3,18,-34,115,35,15,10,13,-41,-83,-2,-95,7,8,-4,-4
1490139681706,-7,50,-3,2,41,4,-18,-13,-8,-15,26,8,9,5,-3,2
1490139681755,-29,-58,10,2,7,-4,4,-26,18,-14,-1,-7,-7,0,-4,34
1490139681804,29,-3,-63,-11,4,0,-8,-21,-15,22,6,-56,-47,-1,8,12
1490139681852,10,12,-33,-49,-2,-8,-3,-6,-22,-8,14,-5,-24,-6,7,-9
1490139681854,52,17,40,-26,-31,-1,18,36,-42,-62,-53,-2,7,-4,-21,-48
1490139681901,-3,12,22,27,-32,1,25,-3,3,-25,1,-6,-9,-12,-11,-13
1490139681951,-10,-40,38,25,15,0,0,4,10,-2,37,12,5,5,-1,7
1490139681998,-18,-80,5,34,20,3,-1,-3,23,79,34,7,61,8,-2,2
