1490742729838,-12,-104,-39,3,-69,-108,-12,-85,-79,107,-68,82,87,-57,-111,-88
1490742729886,-87,-50,-6,-6,37,62,-16,13,16,-46,9,-19,5,10,22,-5
1490742729887,119,99,5,-18,-26,-45,12,66,-97,-86,-32,-4,-24,87,8,-28
1490742729936,0,83,7,5,76,52,-7,13,8,34,32,-7,-71,-15,-39,-22
1490742729984,127,-64,-20,11,12,98,31,57,-67,127,10,127,127,-17,-80,-58
1490742730033,-48,-70,14,127,76,-37,85,0,-71,-85,-6,-89,-78,6,-65,-18
1490742730082,-10,127,2,-59,121,64,-92,-57,51,44,22,-34,-116,-29,63,48
1490742730130,-116,-82,26,-69,-47,-53,60,8,-44,-24,2,45,69,127,5,-4
1490742730132,-102,-90,-19,-74,40,6,38,-11,-115,35,1,17,-63,-30,63,35
1490742730179,-76,45,41,48,62,82,91,62,73,114,2,-32,-104,-28,83,38
1490742730228,-6,64,-14,-67,-128,82,115,24,-18,24,-51,4,86,-67,-121,-23
1490742730277,-17,-10,-8,23,-58,-7,25,-33,-11,-5,-3,-56,86,85,127,50
1490742730325,-59,19,-24,24,90,48,68,11,-95,-14,8,-27,-128,-35,-128,-76
1490742730326,117,3,-5,6,11,-82,-69,-9,-86,-3,-8,-47,-82,-84,82,-60
1490742730374,-23,0,-4,-65,26,36,-78,-42,-125,-4,-27,-37,-47,37,70,38
1490742730423,30,5,49,23,20,126,65,54,-45,7,-38,-86,-53,-82,-118,5
1490742730472,38,-7,-35,36,-70,75,99,-1,-51,5,1,19,38,-11,-88,-41
1490742730521,33,-3,12,-7,32,53,-106,-93,-31,1,-32,-125,-60,73,65,69
1490742730617,5,-4,-11,-3,-38,24,127,13,59,-10,52,118,18,-37,-128,54
1490742730618,-30,4,43,52,-70,39,-89,-48,22,2,-12,-7,-41,11,43,30
1490742730666,41,2,-1,-29,1,-121,-18,2,-65,-3,-53,-43,-49,-38,-5,-127
1490742730715,0,-3,-21,-3,95,73,-128,-48,-14,-1,18,92,127,127,106,33
1490742730716,-74,6,-51,-128,-128,-123,46,19,-46,3,-16,56,-96,-116,-128,-88
1490742730764,-50,6,17,-13,-106,-71,108,11,5,-2,-40,-71,-60,-108,3,20
1490742730765,8,-1,-6,37,74,86,-51,13,65,-6,110,71,-62,65,-48,-12
1490742730813,24,4,-13,64,52,-34,91,0,12,-2,-36,-66,18,33,127,-3
1490742730862,33,1,81,-13,54,77,-93,17,-107,-2,-15,-66,-50,-11,-128,-6
1490742730911,79,0,-66,-128,-128,-59,51,-22,71,0,-60,21,76,-11,124,7
1490742730959,-44,-2,-95,-113,-128,-56,-28,-17,-110,-3,-47,-83,-16,-28,96,3
1490742731007,-115,0,-16,-30,87,-121,40,112,-14,-6,-11,52,39,-128,76,5
1490742731009,127,-8,86,-77,14,-77,-88,79,-6,-5,44,-10,47,-75,-67,43
1490742731057,-113,-3,-118,6,11,12,-79,96,-82,2,-128,-65,-111,102,91,126
1490742731106,51,1,99,1,105,58,90,-96,9,0,92,54,72,42,86,-20
1490742731155,-105,0,16,-82,-128,111,92,-108,-128,2,29,-26,-98,127,91,-128
1490742731203,-86,9,-7,88,-41,76,5,95,86,-5,1,-16,-30,-116,-14,52
1490742731251,-65,1,-2,-30,-90,114,127,124,-65,-2,0,-24,-121,96,73,-104
1490742731252,127,-5,7,-34,-50,-22,-14,-24,-24,1,-4,44,42,8,-55,-13
1490742731301,-43,-2,10,-31,10,-13,36,12,126,1,23,51,50,-11,2,36
1490742731349,63,-2,-2,81,-22,-3,0,-24,-122,0,-95,15,12,12,23,-13
1490742731398,2,-1,-30,20,0,-23,-18,-19,0,-3,24,2,-1,-12,6,-20
1490742731446,-46,2,-52,-25,-25,15,-28,-12,-9,3,47,-16,-62,25,15,5
1490742731447,38,-2,-5,-18,3,5,-10,27,-85,3,115,10,7,17,-8,12
1490742731496,-128,-1,-43,-12,-2,37,49,8,79,-1,-81,31,-14,23,-19,-6
1490742731544,28,-5,79,25,5,5,27,1,-118,-4,21,-5,3,71,79,20
1490742731597,-115,-1,-16,-23,-1,-50,-87,-47,-85,5,-3,5,-1,-37,8,19
1490742731645,6,-106,-1,-59,-89,-42,-71,-53,63,-128,-46,38,9,55,27,15
1490742731739,42,98,15,98,36,-87,-29,-22,-81,80,-11,55,-64,23,-17,-24
1490742731741,-83,34,-44,-128,-7,-11,-34,-12,62,23,21,-67,99,13,-8,0
1490742731741,-17,-10,-40,-9,77,91,-15,27,-64,-107,-14,-17,24,54,40,53
1490742731788,-5,-90,-81,26,39,-119,-72,-18,-63,-61,-65,68,57,-71,31,5
1490742731885,-60,-22,-50,59,-74,127,87,45,76,-35,68,-115,17,105,-89,34
1490742731886,-62,-1,-42,1,18,-44,-55,-48,100,2,16,-69,-95,-15,34,30
1490742731934,-41,-4,-31,114,-53,50,17,-40,25,-3,8,127,87,-14,20,-49
1490742731935,-41,-4,57,23,110,56,63,70,-27,-4,-25,63,102,99,-70,-57
1490742731983,-100,104,-102,78,47,-62,-86,-104,-25,66,-114,-60,-5,127,127,13
1490742732032,116,54,-18,115,-128,-104,-23,-40,17,-37,-85,122,121,106,-41,-36
1490742732081,-53,86,-128,-128,-75,50,7,26,121,117,-111,-67,90,74,70,54
1490742732129,-57,55,-61,-78,23,-51,94,27,12,127,-62,-128,-128,-111,-8,-22
1490742732130,112,24,-46,18,-47,67,-89,26,-105,35,-45,38,-24,69,109,20
1490742732178,38,-75,93,36,-54,-44,101,6,-12,79,82,67,-41,1,-5,51
1490742732228,-6,5,-31,39,127,124,57,38,27,-72,-61,49,-42,-5,34,-7
1490742732277,-63,-1,90,-54,-111,-29,87,-47,22,100,-114,-105,-16,85,-30,-18
1490742732325,76,-62,-36,68,18,-2,59,26,108,-18,4,-69,-14,8,5,-17
1490742732372,-121,127,3,-128,-29,102,-53,-47,54,112,13,-47,63,99,93,75
1490742732374,28,-22,127,2,46,-111,-119,-11,1,11,127,-65,18,56,-18,-26
1490742732422,-52,51,-77,-16,-10,42,39,17,77,-21,-82,-21,-28,-34,5,20
1490742732471,22,-14,18,1,75,3,-52,4,-14,37,-2,67,3,-66,-36,-36
1490742732519,75,32,10,-50,-2,121,-115,-1,4,5,22,8,23,110,-91,-33
1490742732616,-98,-32,14,75,38,-42,98,-8,-47,-27,7,42,2,-34,81,-11
1490742732617,-12,45,9,-20,18,-24,-28,-38,-123,13,24,-23,-8,19,44,-33
1490742732618,44,-11,-20,28,-2,-111,-77,-16,28,3,-10,68,9,55,54,40
1490742732666,-64,69,12,-2,4,73,53,-5,127,12,5,-10,-24,49,79,35
1490742732714,-52,-128,1,59,52,41,92,67,9,-128,-3,41,3,-5,11,15
1490742732763,-56,-4,7,-10,16,3,-29,-6,-30,92,7,117,93,-23,14,29
1490742732860,23,-54,-17,-101,-83,52,-36,-18,-122,34,-5,91,111,102,-84,-9
1490742732861,-56,54,-48,-65,-36,29,3,43,2,-51,-10,-72,-87,74,109,30
1490742732863,-63,-31,11,76,-45,37,-83,-25,50,-61,-50,-119,-28,-70,57,6
1490742732910,-48,127,22,86,2,71,87,44,127,117,40,127,127,75,90,47
1490742732962,18,-92,-1,-124,-114,9,-111,-47,-124,57,43,-2,120,81,70,-49
1490742733008,-86,46,1,95,127,80,20,1,-79,-36,-47,-80,-128,-61,-60,-95
1490742733057,5,31,39,55,108,68,66,-51,-77,81,-40,83,-128,-128,48,7
1490742733058,44,50,-14,-97,24,109,-69,51,2,-14,-2,-2,93,-75,6,111
1490742733104,-2,-61,-43,-63,127,-7,-75,-49,54,-110,75,79,-82,6,-128,-22
1490742733153,-113,-15,-9,2,-5,85,19,-51,127,93,-1,-44,71,17,90,122
1490742733202,70,125,-38,-14,-80,96,39,61,-88,66,48,99,67,-34,78,-68
1490742733251,-83,-128,7,34,91,5,42,-57,-30,-128,-16,22,-27,33,-39,-17
1490742733299,-34,95,30,39,58,-21,13,71,50,127,39,4,-42,-31,-91,-8
1490742733301,-26,0,-19,-13,8,-32,-91,-19,-16,-17,43,-45,-46,84,126,54
1490742733348,-103,-25,-53,-17,-18,30,116,7,-14,3,3,78,-26,-43,-97,-42
1490742733397,123,-2,31,-119,-128,11,36,43,-121,-14,-9,-39,80,-51,-46,-128
1490742733446,-68,-4,-15,-25,-88,-74,-56,-36,51,-2,-31,-95,-96,80,55,58
1490742733494,-117,-8,1,17,50,66,54,-72,68,6,-41,-66,122,95,0,38
1490742733495,8,-5,-13,-56,48,-105,16,-60,-28,-2,-40,-128,-65,53,-3,-8
1490742733543,39,-1,-29,-59,-82,-91,-92,-32,1,2,16,-44,78,-44,60,53
1490742733592,-26,-2,23,-77,-111,15,69,62,-4,-2,0,-128,-113,-19,-63,-45
1490742733641,-18,1,-46,-55,21,-35,-66,-86,121,3,20,40,-33,119,82,94
1490742733690,39,-2,-20,-22,101,3,20,16,-23,-4,-72,38,-16,41,-8,-9
1490742733738,-6,2,10,56,16,61,53,1,-34,2,-33,30,97,24,-17,-4
1490742733740,18,0,78,-14,2,1,-16,19,-70,0,-19,11,20,27,-9,-15
1490742733787,30,1,-114,10,91,23,-11,9,25,-3,61,1,15,75,36,29
1490742733836,-9,-116,119,67,99,94,61,11,-7,-71,127,94,77,50,85,52
1490742733933,-97,45,-60,23,-33,108,-11,3,42,22,-57,-46,44,-5,-25,8
1490742733936,-126,-72,0,85,104,66,-14,9,-32,31,-20,-12,4,-39,-55,-15
1490742733937,-43,-49,-79,-79,-65,34,27,14,-20,-57,52,-89,-80,-53,42,-14
1490742733982,56,-23,74,30,123,-83,15,6,-27,-13,61,102,-5,-45,116,26
1490742734030,53,0,84,-46,-36,-36,-112,-15,121,1,71,-66,-96,42,-128,-12
1490742734080,-48,6,-44,-62,-107,-128,16,34,-84,-7,-11,65,-32,-97,66,10
1490742734128,-125,0,-43,13,-41,33,-123,-13,-77,6,-67,-2,42,-5,-128,-8
1490742734176,99,3,-84,25,62,-2,2,-9,104,-1,4,-37,5,3,9,4
1490742734178,-100,-5,6,-10,16,-20,22,-20,-73,-3,-59,-34,23,16,14,-4
1490742734227,63,-2,-41,-8,24,37,-64,-35,-29,-3,-40,-12,-52,43,-53,56
1490742734274,34,4,-38,-7,3,6,57,-13,61,-10,-3,-15,26,47,29,-1
1490742734323,-128,-1,47,55,71,100,35,40,42,7,-14,53,40,1,42,7
1490742734372,-32,1,79,4,-60,-16,-72,-13,5,-7,-33,-49,-14,-7,59,14
1490742734421,-63,78,-2,3,16,13,-9,-9,-123,22,127,33,78,83,61,2
1490742734422,-36,46,46,100,127,127,127,39,-53,29,-28,-71,-106,-83,-83,-50
1490742734471,-102,101,-40,-65,40,-34,-1,-37,22,113,-4,27,39,76,44,16
1490742734518,71,-56,-26,79,-50,-39,25,72,-61,-57,6,112,126,-13,-59,-85
1490742734567,-109,-12,-23,-116,84,-112,-75,-18,66,-19,-52,-96,-88,28,-92,-66
1490742734615,-11,-6,35,45,1,108,85,59,29,-1,11,-116,13,-104,-15,-25
1490742734617,-62,-3,38,67,60,127,69,-23,75,-3,39,127,127,54,55,13
1490742734664,17,-6,-16,3,-128,66,108,52,-29,-6,-16,6,-17,-128,-93,-27
1490742734713,-31,-10,10,-74,-26,-128,-92,-74,11,0,-7,37,114,29,-33,6
1490742734762,77,1,114,59,-25,92,84,41,-112,-40,25,96,120,-49,-27,-90
1490742734811,-58,14,-28,104,112,97,31,-1,127,91,-2,86,37,-54,-3,18
1490742734859,98,-10,-38,36,85,15,44,7,-121,-2,-61,5,61,48,2,-34
1490742734860,13,43,31,23,-76,-30,-35,-53,-60,60,42,57,-65,-60,37,52
1490742734908,-91,50,44,-50,-71,-105,-68,32,-104,-49,37,-99,-87,-83,70,-7
1490742734957,-9,-128,-4,-22,-96,26,117,74,72,-60,-59,7,89,38,-31,-33
1490742735005,-2,90,24,40,104,-14,-65,-30,-55,106,-10,28,10,-17,-91,1
1490742735054,91,-121,103,42,6,41,-59,0,-128,-59,23,115,25,36,58,2
1490742735102,-26,-55,-74,-19,22,-88,33,-9,-35,-80,7,124,8,-1,90,23
1490742735103,-128,-36,39,-75,-128,50,49,-55,-31,6,44,-46,21,0,-100,-54
1490742735160,115,5,-45,109,-53,-40,-23,46,-77,107,-115,58,110,45,3,-56
1490742735200,10,-37,-44,-112,20,-8,-72,-46,-86,-2,-17,-92,-8,9,-17,-23
1490742735249,115,-22,77,20,-30,5,66,27,76,-24,78,-60,-51,-13,-88,-25
1490742735297,-119,45,-5,26,-40,124,94,6,101,-45,-2,23,-103,2,106,11
1490742735299,90,57,-4,-15,-35,50,32,2,-93,66,21,-26,-2,34,59,10
1490742735350,75,57,12,56,118,-71,-25,-40,-128,65,4,85,24,-123,-54,-56
1490742735396,24,93,8,22,-5,25,-125,-30,117,-52,-12,16,-3,119,-97,53
1490742735444,-48,-20,7,62,25,2,90,-35,-128,24,-12,-27,-37,16,30,-20
1490742735493,56,-54,11,19,126,107,100,79,-128,-16,-9,23,-19,5,57,8
1490742735541,40,48,2,-15,-70,-96,-93,-64,68,75,6,4,15,54,12,60
1490742735542,-120,-11,-62,-114,-57,-31,-14,-38,-23,33,17,-128,-55,-14,-28,-10
1490742735591,-70,-29,-69,-49,-73,77,127,81,101,-100,-54,-29,18,38,104,48
1490742735640,35,-40,-19,-37,64,-97,-118,-88,-35,30,-53,-29,-128,37,6,44
1490742735688,101,34,97,122,106,7,-64,1,90,-45,-34,-71,-80,-105,-98,-128
1490742735739,82,63,0,60,127,-96,-54,-43,20,39,74,44,-55,-13,-1,82
1490742735834,-1,-3,-56,-5,-96,-115,-98,100,-7,-101,36,-91,-89,115,28,-50
1490742735883,-86,81,30,-51,55,122,127,34,12,77,-30,82,54,-52,70,3
1490742735980,-82,22,-29,-128,0,127,119,-1,-72,-95,-2,-4,120,-16,36,-17
1490742735981,-68,-110,65,114,80,-71,-106,11,127,97,2,-31,-128,37,-13,-23
1490742735981,-1,-72,-24,-128,-11,-100,66,49,-109,-18,17,58,-33,86,-72,-80
1490742735982,-97,121,-18,-100,79,-17,7,-33,0,102,12,-86,-125,27,112,52
1490742736078,34,-87,-46,-16,-50,-99,-92,-75,34,93,-8,86,100,-46,75,-11
1490742736080,-86,67,-3,2,89,127,-25,20,107,-128,-34,13,-128,-128,-128,15
1490742736081,-74,-58,16,99,78,42,6,-56,16,122,40,64,127,127,-128,21
1490742736127,45,82,-42,-59,-72,-71,87,4,-112,7,16,0,10,58,106,93
1490742736176,105,-34,2,-23,-128,69,118,74,-49,-40,8,-128,2,-17,-51,22
1490742736224,16,-24,0,4,89,-67,-45,54,97,-17,23,78,-2,-24,-31,-119
1490742736225,-73,0,59,14,-50,127,59,-9,59,6,-23,19,62,-128,-53,-8
1490742736273,42,-3,-42,24,-46,5,80,83,-128,-8,-56,-54,-128,-49,-35,-63
1490742736324,105,-11,78,55,-71,57,127,127,-115,6,15,-36,-39,-26,109,-44
1490742736370,22,0,33,53,-75,-95,-48,23,12,0,-12,-82,-110,-28,61,20
1490742736419,-77,3,-49,-115,4,127,115,-83,55,-4,16,9,80,-128,-33,34
1490742736420,-73,1,-43,-15,-98,-93,-128,-104,-27,-2,-67,-102,8,-11,26,37
1490742736468,-29,2,48,51,78,44,90,49,-90,-3,-64,-36,127,34,22,-3
1490742736517,80,-10,-29,-65,-62,-44,16,23,-63,0,10,-107,-80,14,62,7
1490742736614,22,-1,-73,24,48,-1,19,18,48,0,25,70,-52,1,-9,-20
1490742736615,14,-116,75,22,17,83,78,34,84,-128,42,73,127,54,3,-7
1490742736663,10,62,74,6,43,86,68,52,32,64,36,64,-23,-20,-23,-13
1490742736711,-1,9,4,38,14,-14,-17,-15,13,13,-80,-34,-19,12,18,11
1490742736712,4,17,-128,44,80,98,8,4,0,117,91,26,14,45,-53,-1
1490742736760,1,-117,50,89,37,127,15,28,-3,-98,66,-62,-77,21,22,24
1490742736809,10,-15,-13,31,5,-10,-97,18,55,-24,-100,-79,-61,-12,-102,-47
1490742736858,-7,-10,72,-120,-71,-43,127,-25,14,-8,102,23,-62,12,127,6
1490742736906,112,6,-99,-25,-84,-5,-110,-128,-10,-6,-128,48,-25,5,-128,-128
1490742736908,-70,3,-41,86,5,-32,8,80,-19,-4,6,115,71,-28,6,69
1490742736956,31,-8,42,43,8,18,8,67,-24,5,-51,-62,3,0,-6,17
1490742737052,-63,0,87,-65,-13,-11,43,70,7,0,-63,10,56,-23,56,40
1490742737054,-92,1,-4,15,40,-15,-30,2,-92,-1,-53,-7,60,67,-13,-4
1490742737102,78,0,-24,-77,12,-30,12,-12,127,-1,19,63,-36,14,-8,-12
1490742737104,127,2,23,-41,-36,38,-15,-30,88,-1,-49,-18,-20,15,18,-19
1490742737150,53,1,40,4,-23,-13,-35,-28,127,-6,-29,-13,-11,-4,13,7
1490742737199,82,3,-6,-44,-6,-6,12,-4,60,3,-14,26,32,-9,2,12
1490742737296,18,-3,37,40,-52,50,-18,-13,127,-3,-19,-61,10,-22,24,7
1490742737297,-10,-1,-41,-50,-83,-23,6,23,-34,-2,45,-23,-17,-26,5,-5
1490742737345,-27,-2,20,-15,-34,-70,-67,-42,-15,-4,-34,25,62,42,5,2
1490742737349,-7,0,17,-41,-68,-65,-12,-5,5,0,-36,-59,-60,37,21,-59
1490742737395,-39,1,10,-40,-22,83,1,-15,-111,-5,2,23,-35,18,38,28
1490742737445,-79,0,-32,88,35,120,70,7,-28,2,-32,-80,-88,-128,-120,-49
1490742737492,2,1,-31,60,-11,-64,-106,-48,114,0,68,2,15,16,83,15
1490742737540,81,1,24,-52,-92,-56,-13,-1,-61,-1,-48,42,-45,53,6,4
1490742737637,-25,0,-13,106,38,77,0,-25,125,3,-20,-44,-19,20,96,29
1490742737638,-102,2,6,-62,109,-55,-52,-15,43,-4,17,-4,-67,-12,-81,-63
1490742737639,66,-2,-20,-70,73,-96,80,50,-34,-1,-15,65,127,67,25,4
1490742737687,-71,2,41,-65,-104,42,-23,4,67,-1,-34,34,-106,-111,-37,-31
1490742737735,127,1,-64,3,41,-73,74,35,107,-5,17,61,-64,-20,24,15
1490742737784,55,-7,-5,-26,-128,34,-79,-35,5,5,-7,-5,127,79,-11,-40
1490742737787,-42,127,33,115,82,33,-29,-25,59,93,4,43,59,-16,97,81
1490742737835,-90,3,-29,-59,-50,3,-62,-59,46,-3,-63,-70,88,80,59,15
1490742737882,-52,114,6,28,61,69,-46,-14,84,41,53,108,-38,73,106,25
1490742737931,89,56,87,108,-60,77,83,83,-78,21,-44,94,99,-44,-103,-60
1490742737979,-84,87,-5,-104,8,-78,9,-49,34,-128,70,-33,-128,-50,-3,69
1490742738027,62,18,-8,72,58,-41,-38,20,-127,127,17,53,72,79,-43,-38
1490742738029,-70,115,2,-15,75,71,41,19,55,64,18,61,16,-5,-47,-8
1490742738077,85,-108,22,-40,-110,-82,-22,38,-128,71,-40,-88,0,-18,-42,-18
1490742738126,75,17,42,-45,75,33,-22,-23,-5,24,68,-25,127,14,-41,6
1490742738174,118,22,-103,16,-41,97,-94,-25,99,104,-88,-71,-34,93,-34,-2
1490742738223,26,-64,-42,105,26,-83,3,7,-112,52,-17,103,22,-79,15,-35
1490742738271,-14,-53,-10,15,-50,-5,-28,2,101,-28,-10,-19,-79,-1,-24,23
1490742738273,-24,-46,-15,-52,-15,-13,10,-34,62,-14,-13,24,-14,46,58,48
1490742738320,-61,61,14,81,4,-29,79,-19,125,-37,7,119,71,21,127,48
1490742738369,-16,11,19,3,13,38,-91,-74,88,-10,-9,33,7,36,19,55
1490742738418,-128,-22,-7,-38,36,35,11,-26,-19,-61,-2,24,46,43,-24,-5
1490742738466,4,-50,-2,7,-12,-81,-28,4,-38,75,-39,-128,-128,-116,46,-26
1490742738467,-66,36,14,2,-72,41,84,-21,46,-15,-42,-95,11,-75,-82,-7
1490742738516,-26,26,-44,-62,-108,61,6,39,-60,23,26,17,23,39,-108,-24
1490742738565,-67,-128,15,103,87,13,-51,-29,120,33,-10,100,89,36,124,-34
1490742738614,-62,-81,-52,-103,66,-16,-110,-63,-8,6,23,20,-18,23,59,25
1490742738662,127,62,-16,-13,29,18,51,22,30,-128,-36,-8,-128,-128,-128,-128
1490742738710,-30,29,-41,-24,-52,-16,-22,13,35,-104,29,22,80,-50,39,-19
1490742738712,-105,-62,4,84,-83,-14,-17,-56,-48,3,11,-98,-91,51,57,75
1490742738760,-37,-71,-32,-41,115,97,127,42,6,-78,76,22,-9,-100,-68,-28
1490742738808,-74,127,53,84,-85,40,120,127,47,19,-37,-68,-32,-54,-128,-128
1490742738857,-56,-46,-25,-20,-92,88,88,-39,-31,91,59,74,69,108,59,62
1490742738906,67,21,-31,-115,-96,-101,43,36,84,55,-5,1,45,105,127,71
1490742738954,108,-2,-39,77,-97,-42,69,81,-112,-123,-41,-65,-112,-128,-128,-109
1490742738955,113,-128,-5,-108,-26,51,-14,119,-128,-37,-6,-44,-48,120,127,19
1490742739003,-3,-85,26,14,72,-100,-91,-71,-65,-76,-8,-65,-62,127,127,108
1490742739052,-80,32,47,45,127,-109,-128,-81,102,127,-44,-11,-89,-10,-45,-71
1490742739100,36,-29,17,94,122,-65,-81,5,-128,17,-53,-81,-46,-22,-49,-62
1490742739148,-123,-72,81,86,87,-106,-91,20,76,-72,13,-52,88,127,75,50
1490742739150,39,-17,-9,-92,-128,-40,15,-22,-91,-32,5,1,127,2,48,-26
1490742739198,48,-10,-62,-125,4,-128,-128,-84,-21,-16,-30,127,-39,81,18,51
1490742739247,13,9,-70,-107,-46,127,127,14,-28,-2,61,76,-102,-5,-70,27
1490742739296,-109,0,-7,69,66,86,80,70,127,5,36,116,-46,51,-43,45
1490742739346,-65,-3,36,-21,-81,127,47,-15,66,-4,-20,-25,127,-62,-29,-63
1490742739393,53,5,24,27,-124,1,-35,7,-72,-2,-79,-72,-102,-128,-21,-60
1490742739395,32,-4,34,48,-36,-50,-58,28,63,3,-23,-51,-63,-68,-9,21
1490742739442,15,1,68,123,29,74,57,44,-21,-1,-14,-126,119,110,22,90
1490742739490,-104,1,-12,-5,-91,-41,-2,11,-53,-6,19,73,-34,40,11,-10
1490742739539,50,-3,37,-15,56,-95,-58,6,-76,0,-55,-128,-13,-112,-101,-51
1490742739588,-3,0,-65,29,-15,-5,5,6,6,-4,-64,96,56,-32,-54,-34
1490742739589,14,-1,-92,-9,-110,-117,-64,-38,24,1,91,11,104,83,7,0
1490742739685,-4,127,37,31,126,92,26,10,9,-83,76,-14,-110,-35,-9,0
1490742739686,-2,29,-71,46,-2,0,-128,-25,7,53,-33,-7,-30,82,-27,19
1490742739734,0,1,-54,0,78,38,31,11,-2,12,-93,76,81,81,-24,-17
1490742739783,-3,118,-60,54,35,41,-10,-17,1,127,14,-12,-111,-48,-29,-30
1490742739832,-1,-98,-56,19,18,-17,37,-12,0,-85,8,44,-24,-1,34,37
1490742739834,-1,-33,11,-53,-27,-15,2,-4,0,-11,24,44,60,-9,13,20
1490742739880,86,-8,43,-18,-28,-8,-33,-33,-51,7,-41,-13,-1,-19,16,14
1490742739929,-16,0,82,-55,-18,-24,-6,-14,43,-5,105,40,2,-17,-22,21
1490742739978,32,-2,-82,7,2,-5,-11,-19,25,0,36,11,4,6,-10,-10
1490742740027,3,-6,14,-18,-33,5,-32,-15,-39,-4,-92,36,-13,-5,-20,-33
1490742740075,-8,1,-76,-9,-19,-2,-4,8,13,-6,-127,23,17,22,-1,23
1490742740076,-9,-2,-2,-7,9,-28,-16,-21,95,0,51,57,8,-21,13,21
1490742740124,127,-3,13,-13,2,30,4,7,74,-1,-5,28,16,-56,0,6
1490742740173,56,0,34,31,-4,38,-28,16,-127,3,-20,-4,26,61,-6,-17
1490742740272,15,-2,18,-4,15,-2,1,-2,-65,-5,-28,0,-5,8,23,-7
1490742740275,-43,2,-67,-54,9,11,24,64,9,3,-12,20,-7,7,9,1
1490742740276,7,-1,24,-10,-11,-53,-36,-61,8,2,8,28,-2,33,23,44
1490742740322,-4,2,-6,-6,-2,-19,-8,37,2,-2,2,10,25,-39,-70,-62
1490742740368,0,1,30,-34,-88,-17,3,22,5,-3,-72,-50,-61,-41,-59,-3
1490742740417,1,-1,-21,13,127,8,-37,17,-2,-1,-51,-32,51,54,68,41
1490742740465,-73,-43,-18,-64,-88,-21,-76,-19,71,30,5,63,53,25,50,7
1490742740513,60,-28,-10,17,-84,-82,93,30,13,-38,57,-41,-80,59,42,21
1490742740514,-25,-12,-3,-127,108,105,71,58,-23,-10,-32,-23,50,3,-10,12
1490742740563,79,-6,45,8,-74,66,20,37,11,-2,-1,-90,-128,-94,18,10
1490742740612,-56,-3,35,8,119,111,22,19,67,-7,13,91,-47,29,17,18
1490742740661,104,3,-4,-50,-41,-3,86,85,-25,-2,-78,-120,-78,28,-44,-10
1490742740710,27,2,76,11,50,-95,-99,-42,-27,0,-41,-37,127,79,10,-22
1490742740759,-76,-1,-16,-128,44,107,-36,-58,65,-1,7,-88,120,32,-22,-5
1490742740760,43,8,14,127,70,-20,127,51,-112,-3,15,99,62,-76,-118,-59
1490742740808,-110,-8,13,72,106,-57,-72,-51,-60,6,23,-18,-90,18,26,55
1490742740856,-71,-3,34,-24,72,38,-126,-128,22,-16,-13,55,-85,55,90,-40
1490742740904,83,13,38,-17,-72,-58,54,0,49,1,25,-25,-26,5,27,33
1490742740952,-10,5,-41,58,-1,-64,-90,-91,16,-6,-24,-33,-92,-61,8,-9
1490742740954,-93,6,113,-26,-112,-40,-49,-25,-52,-11,114,51,104,8,-23,-46
1490742741002,65,-91,-25,-79,-86,14,68,53,-18,-60,-73,-95,-41,-67,-103,-89
1490742741050,99,-54,-6,-46,-36,-83,20,-29,-103,39,32,-36,6,5,7,-27
1490742741099,85,-124,18,11,6,22,-8,28,54,50,-3,51,80,30,-24,-10
1490742741148,-19,63,26,-128,-30,13,12,27,52,-19,7,-65,-33,-29,-8,59
1490742741196,122,-103,84,127,62,21,-37,37,-31,-93,90,96,-54,20,64,16
1490742741197,26,47,2,-121,-113,-24,-103,-31,42,3,17,-48,-46,-29,45,30
1490742741245,-49,75,8,2,-50,-75,-85,-78,-57,-78,69,76,68,70,68,107
1490742741294,15,20,1,-4,16,21,51,-9,-88,70,-22,53,6,-27,-46,-18
1490742741343,115,-28,-27,11,-17,-10,-68,-6,-107,23,-31,8,5,-31,-83,-60
1490742741392,-17,-35,-20,-23,-43,-56,2,-1,127,40,-12,-1,-6,64,56,52
1490742741440,86,-19,-20,-11,-27,-78,-7,-24,-113,-30,2,-11,4,1,53,-21
1490742741442,103,-29,18,-90,-41,13,12,82,-120,4,-5,-66,5,-53,-9,-56
1490742741490,-67,-25,13,67,-5,51,0,-11,127,40,23,17,34,-17,-29,21
1490742741541,-77,-30,-14,-65,-26,-21,11,-78,-75,-62,15,5,-106,38,-3,47
1490742741587,15,55,18,-29,-96,125,-48,-19,42,-55,35,-20,-23,-45,-24,20
1490742741635,-62,-35,7,30,-87,-31,-70,23,-110,-20,-28,-84,-110,-44,13,-84
1490742741637,47,-3,10,-81,-92,44,-93,13,-36,127,12,4,127,-59,-116,-39
1490742741684,67,-94,-25,121,127,31,-12,2,-66,28,0,97,87,64,34,-68
1490742741733,-18,-66,28,-128,-128,-128,54,-17,-90,83,44,87,127,125,118,54
1490742741782,-23,-45,-61,-47,79,27,-86,-6,52,8,36,43,95,68,-13,-44
1490742741833,-74,-16,21,-34,-44,-116,-93,-42,127,114,-23,-4,50,105,74,80
1490742741879,-75,3,31,127,61,-3,-51,-44,-73,15,-50,-6,-128,-98,-128,-38
1490742741881,102,1,74,127,-11,11,7,64,-82,25,-43,21,53,-58,51,-21
1490742741928,30,58,22,32,-128,8,35,71,-36,-57,-17,-120,89,44,127,-11
1490742741977,69,-102,27,-21,29,-41,-92,-73,3,48,37,41,33,127,-32,-31
1490742742026,-119,-46,-28,31,-74,-128,-128,-46,-101,40,13,-7,-28,89,127,-30
1490742742074,2,30,-47,-5,-81,-63,-106,-125,23,-111,-28,-44,-96,-20,78,78
1490742742075,43,32,3,-97,73,127,127,106,-17,-100,-90,0,9,70,60,82
1490742742123,10,-128,-29,5,-95,-99,-71,-104,-71,-60,16,-78,-12,6,127,110
1490742742172,-123,80,31,95,127,54,104,17,-58,55,-55,-35,-125,-33,-88,-34
1490742742221,72,-2,-2,49,65,-6,31,82,102,-60,38,127,-18,122,99,-23
1490742742269,-128,-28,19,40,-41,-128,-120,-100,-8,-15,-38,-65,115,120,50,64
1490742742317,-55,-4,-49,-98,-11,97,-48,-11,-108,-3,35,11,54,-77,-20,-26
1490742742319,35,-1,36,69,45,104,84,38,-60,3,-60,-42,-9,-128,44,35
1490742742367,-17,5,-78,-127,25,26,-31,-18,-95,-10,-47,-48,-21,-66,39,22
1490742742416,-88,1,-76,-117,-115,66,99,87,88,4,8,-24,-1,-22,12,-53
1490742742464,-46,7,-82,-102,-128,71,1,-10,49,-2,24,36,0,107,115,70
1490742742514,-41,-2,2,69,-116,-128,-128,-128,33,1,10,-54,-128,54,76,-16
1490742742561,109,-9,-53,-17,115,-15,-28,-1,-37,1,99,62,89,78,77,6
1490742742563,101,6,61,71,22,71,90,9,-59,-5,-36,35,69,90,51,37
1490742742611,-20,-2,22,-22,-84,-128,-6,8,-37,2,-96,-128,4,-92,-82,-91
1490742742660,-27,-2,-11,-122,15,-87,-38,-12,-45,-3,108,50,120,32,23,-26
1490742742708,99,4,51,-70,46,-6,-25,3,33,0,-105,-109,-52,-76,-79,-21
1490742742756,-13,4,-49,44,25,80,43,-37,43,-11,-56,60,105,127,101,25
1490742742758,5,100,53,-12,-128,-71,-20,9,-17,87,59,24,19,-42,-9,-5
1490742742806,17,26,23,120,127,120,66,31,127,20,70,48,5,70,17,35
1490742742855,-58,4,-93,-105,77,-24,-18,-10,-42,3,76,-27,-48,-41,-22,-1
1490742742905,-114,60,-25,-66,6,23,12,3,-39,126,74,-52,25,15,26,-3
1490742742952,-44,-60,-10,-4,-5,-10,-19,-38,1,-67,-45,39,0,4,17,-5
1490742743000,12,-5,-21,-22,8,10,22,-5,-18,-6,-12,60,8,4,-8,2
1490742743002,6,2,-11,66,-3,-12,-6,9,-26,-11,-3,-67,-2,-3,26,15
1490742743050,51,0,103,78,-30,5,-25,6,-58,-9,51,21,4,16,-16,7
1490742743098,35,3,-52,0,-36,-7,3,8,17,-2,86,41,-55,-17,-9,-7
1490742743147,7,2,12,15,57,-3,31,11,-6,1,54,47,-34,-38,-11,-22
1490742743196,-74,-3,67,15,51,1,11,-2,8,-1,15,-11,-12,-3,8,10
1490742743245,-36,0,89,-77,-56,-22,-4,-13,67,-8,-63,-10,33,-20,19,9
1490742743247,1,-1,7,-26,-21,-18,-6,15,61,-1,17,37,-20,-43,-8,-6
1490742743293,-6,0,0,48,52,32,-11,-5,-93,1,16,-32,-54,-11,-31,-3
1490742743342,47,-2,4,-16,-21,45,-11,-7,-7,2,10,9,7,27,8,23
1490742743390,-89,-5,-17,-39,-24,-18,19,32,-77,2,-18,2,-2,5,13,11
1490742743438,-45,-2,-40,-4,-6,-33,-37,-43,-27,-1,7,-51,-26,-13,7,-29
1490742743440,2,-3,37,21,37,16,5,12,-11,-1,-5,33,12,22,-16,-10
1490742743488,-2,-1,8,9,-40,27,73,38,-4,-3,29,28,72,29,24,12
1490742743537,0,-1,-14,5,46,-75,2,20,-12,4,-36,34,70,79,20,6
1490742743585,-86,0,63,52,87,-43,-35,-8,-37,-3,24,38,63,43,32,0
1490742743636,14,0,3,14,-65,127,84,15,-48,6,-40,-102,69,-92,-3,-4
1490742743683,68,-8,-50,-26,77,-66,-67,-43,-45,-9,0,50,49,39,24,24
1490742743685,100,1,-23,2,36,50,43,28,-20,1,97,122,112,94,3,-18
1490742743732,68,0,-43,-61,-106,82,113,101,7,-4,-15,-63,-112,-73,-90,-100
1490742743780,59,2,-19,78,3,57,12,36,-22,-2,-17,109,-74,85,86,0
1490742743930,-128,-117,-13,-117,54,62,37,-36,127,-104,-10,0,27,-56,-16,85
1490742743934,-116,74,34,71,11,38,-60,-31,76,69,22,-59,11,-6,-8,78
1490742743935,75,77,-37,-48,-33,34,71,63,9,-34,3,80,91,11,-33,-91
1490742743936,-128,22,35,127,127,127,-54,-53,8,71,-16,97,39,-128,-19,55
1490742743976,-128,-69,-37,-31,76,25,48,-28,95,50,9,34,70,68,79,76
1490742744024,-17,13,11,6,-103,-23,104,59,49,76,-42,-103,92,-128,-128,-35
1490742744073,-23,16,7,46,21,-51,-42,-38,-64,8,-7,18,55,74,73,-25
1490742744121,-29,-65,49,7,-82,57,57,27,-67,8,7,19,20,12,60,-35
1490742744122,127,88,14,-9,13,97,36,68,-70,-36,7,5,1,-116,-56,-67
1490742744170,70,-41,15,-77,-58,-44,-59,31,67,-62,19,-56,-36,-128,-30,15
1490742744219,5,127,37,38,127,-72,-103,-82,-14,88,27,11,-55,94,43,79
1490742744268,32,-14,1,-5,-100,-49,-48,70,60,-82,-21,-51,99,-90,-44,-80
1490742744319,56,3,5,-17,-126,49,35,67,39,-64,-23,-61,-28,-95,-22,-68
1490742744365,73,-19,6,3,-26,-22,-6,-2,-123,-74,-4,-6,-62,-10,-23,-48
1490742744367,19,32,-14,-10,-4,-6,-5,-12,13,76,13,13,26,-102,-11,53
1490742744414,49,30,24,67,53,104,77,45,59,9,2,60,-111,-12,1,-34
1490742744463,-109,6,-18,34,82,21,-39,-98,86,30,18,36,101,127,90,95
1490742744512,-128,40,10,-2,-25,-6,-128,-97,101,-68,-7,11,47,90,103,76
1490742744561,54,30,9,-44,30,119,-4,15,76,-58,22,13,-10,-84,-19,-18
1490742744609,98,-41,-2,-12,75,-127,-28,14,-52,-34,-12,-24,-99,-31,-13,-59
1490742744610,-10,-4,19,8,75,-109,53,26,21,-27,-24,-42,-88,-95,-56,-1
1490742744659,-88,-111,-55,-126,-128,-128,-24,-39,-40,81,-55,-70,14,65,41,-37
1490742744707,88,52,1,28,-38,58,-21,45,96,75,7,-16,36,49,12,-22
1490742744756,-35,74,20,20,-85,119,31,-11,0,-50,4,41,71,110,80,58
1490742744803,62,-7,35,47,73,82,100,102,-28,-89,-4,-31,-51,-128,-48,25
1490742744804,66,36,-12,0,84,-36,55,27,-80,8,-18,-50,-42,121,99,-43
1490742744853,-60,-100,-3,-53,-55,-90,17,-22,88,46,-6,42,-24,13,13,49
1490742744902,-87,-63,-60,-70,-91,-57,-35,31,-27,-110,-8,-128,-104,-58,-60,-40
1490742744950,-17,-89,56,127,127,33,-73,-94,-15,91,14,127,127,60,9,60
1490742744999,67,95,59,84,25,73,76,59,-31,-128,31,-43,-100,-116,-86,-73
1490742745047,-34,-15,-39,61,94,127,74,85,-20,-67,18,-36,-77,-104,17,-87
1490742745051,-6,-28,-39,15,-93,-85,-80,-64,94,12,-31,-105,-46,46,56,56
1490742745145,10,127,4,-53,-107,112,127,81,-128,104,12,31,127,33,13,-24
1490742745148,-59,16,-41,-128,-115,125,100,79,91,-128,23,56,17,28,76,16
1490742745242,16,-128,26,-45,21,86,65,-62,11,71,-6,-43,-81,-93,-84,35
1490742745243,-28,-94,-25,-92,-128,-128,-86,3,72,-101,28,-108,127,44,103,58
1490742745244,-35,-123,35,-13,14,-19,30,-58,13,-100,-43,-4,64,-76,-88,-80
1490742745292,92,69,46,75,42,73,4,58,-120,58,-23,-6,38,-87,-81,-69
1490742745340,107,-13,-19,90,84,37,113,49,55,21,-17,16,-112,44,-11,-6
1490742745389,-38,21,-52,0,15,81,19,55,60,-71,11,102,-68,-68,88,99
1490742745438,-42,-18,-51,7,-128,-128,-31,-31,39,-26,20,-69,-95,64,-15,-62
1490742745486,81,8,0,25,127,51,-74,21,-71,-3,-2,-9,-3,-5,3,-64
1490742745490,42,-4,25,-14,-117,-128,-92,26,-82,-7,64,86,112,-23,-103,-70
1490742745536,-15,-3,-13,-20,73,-48,23,-13,24,0,-23,-47,65,39,34,83
1490742745632,-28,2,-35,-67,-91,-64,-2,-10,-24,-3,-37,59,99,87,-57,-95
1490742745634,36,2,73,-6,49,127,105,36,66,-3,-40,-30,-128,-128,-125,-46
1490742745682,36,6,25,101,76,97,55,61,-14,1,21,52,127,119,-48,22
1490742745730,3,-3,-29,5,-50,10,127,42,-55,2,-18,19,68,-28,-66,-35
1490742745731,36,-4,-42,5,-77,-128,-71,-7,3,-1,10,-63,26,-35,-13,-39
1490742745779,-123,1,2,-35,-68,-84,-61,-21,-19,4,30,105,4,127,102,71
1490742745829,-50,0,-29,-65,-59,-102,-26,-63,-39,4,-21,-125,15,103,44,16
1490742745878,-18,2,85,31,3,35,1,23,-16,-1,-91,50,-98,-17,13,1
1490742745925,-33,-121,-56,30,97,-12,-49,-29,-16,-68,-7,-81,-125,-28,25,7
1490742745927,17,77,-35,45,-31,-8,-3,7,29,51,2,78,-31,4,12,11
1490742745974,4,-19,63,38,78,24,-11,-9,-66,-35,8,27,21,-2,1,14
1490742746023,-83,107,-26,49,49,20,13,-14,25,127,68,-56,-30,-8,-12,4
1490742746072,25,-7,-28,-60,36,8,-10,-17,-27,-40,-23,72,-65,-21,-10,18
1490742746121,-4,-37,62,-9,-91,-22,-28,-23,-1,-29,-13,20,22,1,2,6
1490742746168,20,0,72,69,-20,-3,36,33,30,-5,-97,-94,-11,-7,5,7
1490742746170,32,5,29,-13,16,18,2,-14,10,-3,22,-14,-27,-19,-8,2
1490742746218,5,0,-22,-20,-6,11,-18,-18,7,4,4,4,51,32,25,3
1490742746267,5,1,-120,-44,-21,5,-29,-24,1,-4,-7,78,26,6,37,15
1490742746315,-93,1,62,-27,-19,-17,-5,33,-14,-3,-13,-29,-40,-20,-14,12
1490742746364,80,-1,-4,-21,-3,-5,-10,-19,45,2,-12,-25,-24,-4,-10,7
1490742746412,3,0,-16,17,12,8,6,-13,-41,3,-76,-37,16,0,-15,-16
1490742746413,-48,-1,-4,-16,-11,-8,-1,-21,20,-1,29,17,-1,-19,-3,13
1490742746463,-33,0,60,10,3,-3,-27,-7,45,-1,5,6,4,19,30,19
1490742746511,127,-6,49,13,-3,20,38,15,-109,-3,3,-6,22,17,-13,-27
1490742746560,-47,0,-67,-6,-14,12,-23,-25,-108,3,12,-4,15,35,33,51
1490742746607,-58,2,-15,8,-27,19,15,-4,-43,6,-63,-7,-18,-10,-19,-18
1490742746656,5,1,-14,11,26,-16,11,6,3,-4,17,-12,17,27,17,36
1490742746753,2,-4,-29,-7,1,-53,-58,-17,-7,0,17,-5,-48,1,11,-19
1490742746754,-4,-3,-40,-13,-30,62,85,95,5,1,47,15,8,-31,-72,-96
1490742746755,-72,2,14,-2,-4,43,32,28,83,0,2,5,12,20,33,28
1490742746803,-11,-2,3,-23,-10,-8,51,22,-40,1,-29,5,41,-81,-17,-21
1490742746851,86,-8,-20,23,17,-1,-26,40,-94,-1,-14,-56,-19,-84,-60,-54
1490742746853,-128,-7,17,63,120,127,43,-39,92,-14,31,127,83,100,-5,51
1490742746900,-76,-6,-76,-95,-77,-104,-128,-128,-103,41,-37,-119,-101,14,105,4
1490742746949,86,10,-44,29,61,-64,-93,-47,-120,4,-9,22,-125,0,-64,-59
1490742746998,69,96,-98,-96,0,-93,-55,41,-90,70,2,-93,-60,-83,86,-60
1490742747046,-89,-15,-16,-5,-78,-79,-89,-85,-58,-128,-45,-109,-85,-76,14,18
1490742747095,66,-105,-35,31,16,49,-6,-1,-65,-114,63,-67,86,-29,-94,-58
1490742747096,6,-71,-50,26,2,-8,-16,18,127,-82,14,-43,-78,-1,10,1
1490742747145,52,-69,14,-32,85,29,-88,-30,-97,1,-53,46,60,45,-49,-75
1490742747193,-128,-95,-41,-20,-43,-71,-28,-77,127,-44,-14,-11,13,100,123,102
1490742747242,-60,-26,-4,-65,-107,64,-61,-67,-28,-31,19,-53,44,-128,11,26
1490742747291,87,82,6,-7,-9,76,60,24,-128,95,113,46,75,35,45,0
1490742747291,-112,26,-61,-45,-45,-64,-25,-15,5,-128,-40,-67,-82,-82,-3,-34
1490742747341,-128,-108,-71,-65,-107,-114,-47,-79,115,72,8,-44,-31,65,42,31
1490742747389,-96,54,53,-30,-55,-35,-35,-3,-34,-69,-20,-33,-36,49,31,-22
1490742747437,116,40,10,126,36,-21,-92,-32,78,-7,-29,127,-22,28,99,23
1490742747585,21,-57,33,44,-25,-33,26,21,60,14,-14,-59,-33,29,-11,11
1490742747586,96,-35,-34,-100,-90,58,28,-17,-115,-60,-53,-128,-95,-128,-83,-64
1490742747587,-77,77,-16,-41,-1,-33,-16,-32,71,28,37,26,75,45,7,52
1490742747588,-29,21,15,-63,-64,4,-27,-41,21,-26,2,-8,-73,54,78,45
1490742747632,-47,11,-22,-21,-87,-70,-46,-40,26,0,-6,-40,-7,37,1,-29
1490742747680,43,-43,9,46,-14,-31,19,14,-128,22,-9,32,41,-14,-42,-34
1490742747728,-48,38,-12,-74,22,-42,-24,-52,42,57,5,-6,3,-16,-45,-7
1490742747730,-44,9,-8,-27,-99,-41,40,-4,-25,-29,11,16,-48,-2,-30,0
1490742747778,127,-22,13,23,-50,-62,-102,-9,-85,-4,37,94,-15,76,107,72
1490742747826,20,-8,8,10,96,14,96,36,103,42,7,33,59,67,-42,5
1490742747876,100,126,11,-37,-87,63,31,-1,13,57,12,78,97,69,86,92
1490742747924,-110,47,36,-86,-64,-19,117,18,-128,-66,3,-65,-46,-128,-117,-92
1490742747972,-122,-106,-2,30,10,125,85,-37,-14,80,28,-85,-22,-107,-128,-5
1490742747974,30,34,37,27,-26,52,-5,23,93,127,52,112,125,77,98,11
1490742748022,-55,-83,-37,10,87,-109,-115,-66,101,-93,-13,22,-127,17,108,106
1490742748071,10,-115,11,68,-80,-33,-128,-21,-3,-92,-15,-99,-78,22,86,-128
1490742748119,-89,21,2,-1,-29,-128,28,-40,-33,38,18,-85,-28,-94,-44,-39
1490742748168,-62,-104,12,-128,-97,-42,-28,-22,-128,7,-45,-4,25,84,86,-39
1490742748216,109,96,25,103,117,83,38,121,-22,-81,-11,113,-24,-127,-128,-128
1490742748217,-4,-65,30,25,78,127,83,54,-16,-47,-21,-65,-39,-72,-15,-68
1490742748266,55,81,-22,-107,-79,69,51,84,87,42,29,79,127,-56,-106,-73
1490742748315,-37,-50,-64,-128,-32,-126,-113,-98,84,22,14,-19,-84,127,117,14
1490742748363,-128,25,13,96,81,31,-36,-35,127,78,-10,-2,-51,-33,105,127
1490742748411,-30,-117,1,-35,-9,-22,-123,-69,-128,23,-20,-59,-29,71,28,-128
1490742748413,-66,-87,-76,-78,-128,-83,-32,-47,125,-108,9,23,-5,-27,81,36
1490742748462,77,89,6,27,-94,-53,-35,42,73,0,35,-12,-8,80,84,70
1490742748510,7,-116,-47,-70,-48,-82,22,126,81,75,8,47,33,53,20,-53
1490742748558,66,127,88,107,-64,127,-65,14,-118,52,-18,12,-44,-121,-128,-108
1490742748607,59,64,-19,-46,6,123,-72,11,-17,67,-22,-30,-42,-41,9,60
1490742748655,-5,13,-27,-45,-36,-36,-34,-78,4,101,-10,-8,107,73,24,1
1490742748657,-61,-72,34,23,127,118,-47,-106,-33,-63,-2,87,59,-122,-117,-101
1490742748704,24,6,20,65,-68,127,60,59,15,-14,35,-63,89,118,40,-52
1490742748753,-61,-2,10,35,-51,-95,-101,-44,-21,-3,-5,-21,-123,109,127,65
1490742748802,-83,-4,-15,12,8,-116,-76,-88,-97,-2,-13,-101,10,-128,-49,4
1490742748850,42,-4,19,-4,-7,127,117,86,35,-7,-17,49,-63,-104,-35,-42
1490742748898,-22,1,-11,-84,114,121,117,127,24,2,11,77,91,-23,-48,27
1490742748900,-18,0,-55,-115,34,83,112,-11,-51,-1,-4,94,111,-100,-64,-2
1490742748949,51,-2,5,-107,-128,-1,37,58,62,0,27,62,55,44,-34,-23
1490742748998,19,-6,33,29,90,-71,-68,-1,-16,5,-77,-112,-74,80,58,27
1490742749046,39,3,-12,127,-128,93,86,45,-11,0,-2,-82,-128,-128,-72,17
1490742749094,-5,1,82,85,-72,127,96,55,30,-3,10,-28,83,-47,23,-30
1490742749097,47,-8,34,-18,127,-7,33,29,-4,-3,-82,-84,-31,-79,-61,-38
1490742749143,-6,0,48,-5,22,109,54,49,-1,3,-8,50,-128,-55,-25,-48
1490742749192,-40,-6,35,88,119,68,36,-12,-13,1,-105,-58,-100,28,6,11
1490742749241,80,7,21,-30,-44,-74,-14,-3,4,-17,-31,-4,29,-23,-12,-2
1490742749388,-40,-8,-96,-82,-59,-89,-77,-21,-115,57,-28,-1,75,-79,-59,-39
1490742749396,50,24,53,81,127,61,52,-8,50,22,-56,-31,-68,-50,-82,-38
1490742749398,10,-12,-37,-53,-24,-111,-48,-22,10,44,7,-10,79,-27,8,10
1490742749405,1,-114,22,-35,-55,-30,1,8,8,7,-58,48,-54,27,-2,-14
1490742749435,1,-46,16,104,76,45,79,41,0,71,71,-63,-16,0,28,3
1490742749484,-1,-68,-48,24,-4,-11,4,-13,1,-34,-43,-83,1,-10,2,3
1490742749533,0,17,-13,-79,-77,-57,-40,-27,0,-55,-17,-15,-30,36,9,20
1490742749581,47,9,-20,36,58,47,22,0,-11,-30,36,1,6,73,0,13
1490742749582,15,-1,4,-13,-8,0,-12,-8,33,-4,63,102,69,25,31,28
1490742749630,-104,16,5,-37,-3,3,19,-17,-24,-12,13,3,-47,-71,-19,0
1490742749679,127,1,-46,30,7,1,3,-12,21,-8,44,-36,-44,-29,-31,-22
1490742749728,-62,3,85,-56,-76,-21,-34,-36,84,1,6,18,12,9,1,9
1490742749776,66,-2,-46,9,-14,-2,-2,13,-38,-6,-5,9,-21,4,4,-7
1490742749778,-18,2,10,17,17,-26,1,-7,-13,2,-33,-12,19,-9,7,13
1490742749826,-114,-2,24,31,4,38,-13,-12,-9,-3,-104,2,23,22,18,-3
1490742749874,83,-1,-23,-2,16,16,-27,-27,127,-3,31,1,-38,19,-69,-24
1490742749923,-128,0,38,-5,-33,-19,12,-4,-50,-1,-74,-4,-28,13,37,39
1490742749972,-22,-1,-21,-22,31,20,27,1,-4,-3,60,2,-20,-42,-6,9
1490742750020,-1,2,-19,-21,14,1,-20,-1,-6,4,46,12,-14,3,-1,-31
1490742750021,-2,0,-12,23,56,-11,43,79,-1,-2,18,-33,-43,-5,-27,-107
1490742750069,-2,0,72,-71,-109,-1,81,8,0,1,-46,-22,31,-2,-51,-2
1490742750118,31,66,-53,-107,-128,-38,15,-22,14,21,-23,-32,4,64,31,27
1490742750167,53,21,-14,-28,-74,-66,37,-3,-114,23,-26,-97,-99,-56,-14,-47
1490742750216,75,53,20,-60,-103,-94,-101,-69,-77,43,-12,-78,-43,-42,33,0
1490742750265,104,22,104,127,127,127,61,56,123,12,-9,127,38,127,127,73
1490742750266,-40,-7,-3,-28,127,83,8,9,127,-25,-4,-26,127,50,38,21
1490742750313,7,22,-43,2,-89,30,-100,-47,-6,-89,11,64,127,65,72,57
1490742750412,37,68,-23,13,98,-76,-19,3,16,13,49,96,127,127,24,36
1490742750415,46,-14,32,107,-10,-20,-16,-39,62,109,-47,-54,-49,39,32,47
1490742750459,-48,2,-30,-24,-47,28,-102,-91,-44,15,4,-63,119,-25,79,32
1490742750464,10,116,41,-37,-128,-128,-84,-5,126,127,-68,-128,-107,-31,-23,-69
1490742750508,-14,-128,2,44,89,-20,15,-10,-67,-117,-25,20,57,127,63,61
1490742750556,21,-30,30,76,26,95,127,98,96,-28,-26,4,-6,98,-51,-68
1490742750605,-120,-20,4,4,31,-83,-52,-35,114,-11,-2,15,75,-105,38,56
1490742750654,-17,-104,-12,0,35,127,86,93,66,-88,2,39,-26,-50,20,25
1490742750702,-2,-48,-20,-85,-120,-128,-128,-114,25,-70,9,-62,48,-42,-10,50
1490742750704,-13,60,20,78,108,127,109,44,-41,108,17,17,-81,-76,57,3
1490742750752,-40,60,11,29,72,65,-7,30,31,-38,2,-35,-59,-92,-38,-68
1490742750800,-105,3,-44,-116,-104,-42,-59,16,121,-59,-36,-61,-53,-36,-55,-15
1490742750849,-89,-5,28,-8,-49,0,-88,-8,-24,-11,46,78,127,107,123,36
1490742750898,-78,28,6,30,-41,94,48,52,-3,-62,-11,-20,62,-95,-28,-76
1490742750900,-17,89,10,67,110,11,17,7,83,78,-11,24,23,127,49,35
1490742750947,-10,-98,-25,-29,-62,-44,-79,-50,-92,-20,8,19,32,99,101,26
1490742750995,18,10,-11,-2,27,16,50,25,0,-11,-9,22,32,1,25,8
1490742751044,65,-96,-11,-58,-116,24,-12,52,-10,-2,8,10,36,-50,3,17
1490742751093,39,-21,3,36,28,56,108,42,-101,16,17,69,67,-69,-128,-40
1490742751141,-92,71,-3,-30,-4,-66,-90,-56,38,-89,-6,10,6,86,115,91
1490742751142,-92,66,17,14,43,3,-10,-32,127,51,22,26,29,89,17,62
1490742751190,-44,43,13,35,-17,69,-55,-2,5,-80,-9,-33,-23,-35,-99,-35
1490742751240,15,17,-12,-56,-86,-16,13,-6,-67,-39,-7,-8,-100,-98,-55,-88
1490742751289,-23,21,-20,-52,-99,-16,-35,-55,-57,-24,-60,-80,83,15,-52,-18
1490742751337,-54,23,2,-53,-70,-86,-128,-99,47,127,21,54,68,127,127,127
1490742751385,-96,-128,-78,-126,-128,-128,-79,-115,22,-15,-6,-42,15,77,-8,-14
1490742751386,56,-78,-26,100,-41,-14,-113,-17,-39,-24,25,23,64,112,64,-40
1490742751434,-75,-22,33,-20,-98,-128,56,10,83,112,-30,-73,-15,-58,-128,-31
1490742751483,127,24,24,-75,113,79,88,113,-27,-94,-66,30,-104,-126,-76,-125
1490742751532,29,127,62,127,127,127,84,90,-68,4,-7,-10,-40,-69,-95,-41
1490742751580,-59,12,-24,-50,-7,-86,-110,3,-3,88,25,4,55,127,110,31
1490742751581,-98,-49,-45,-35,30,-128,-101,-110,50,100,-23,-24,-66,38,-48,29
1490742751629,-24,-128,-15,23,-128,-128,-62,-66,-90,89,-21,-94,-102,68,82,-112
1490742751680,-60,17,-36,-28,-92,-49,-94,-19,-88,-49,60,-74,-128,-128,-119,21
1490742751727,-40,-72,-4,-83,-110,-20,110,33,91,24,20,66,96,127,-2,9
1490742751775,-16,123,-2,5,-55,108,22,-24,-76,-128,1,-24,67,-67,-14,-21
1490742751823,69,41,13,-105,-65,83,127,-10,-53,-101,-37,99,58,-128,-119,-48
1490742751824,127,-97,9,-60,-14,50,-128,-73,127,125,49,81,63,99,108,112
1490742751873,-93,-52,-80,-33,12,54,44,-70,-28,96,43,38,-4,73,28,41
1490742751922,19,-14,85,36,-51,25,-56,93,-5,-9,-61,34,65,-128,-128,-73
1490742751970,114,-78,-40,-79,106,-126,-28,60,68,-81,3,28,35,-124,13,24
1490742752021,75,-70,44,78,68,2,-56,-43,-28,-96,-47,-128,-128,-79,-91,5
1490742752068,-38,-120,-1,68,32,18,-128,-125,120,-98,23,23,20,58,76,51
1490742752070,-112,-45,-57,-101,-92,-41,-84,-71,117,-100,55,24,-72,46,24,109
1490742752120,-99,-3,-8,-81,-128,-70,92,-128,94,-65,-86,-123,-67,-49,112,59
1490742752165,-34,-21,-22,81,94,-100,15,38,-77,2,14,101,46,36,-47,-101
1490742752214,-110,10,-2,-78,-128,-102,-37,-108,66,-6,-7,-6,23,74,44,81
1490742752262,-3,2,-35,-24,-42,-27,-124,-47,-63,-1,-22,-42,127,71,60,-13
1490742752263,-115,-3,41,5,111,-55,-97,-113,103,4,-56,-75,-84,-120,42,125
1490742752312,-33,1,41,8,-61,7,52,83,52,-4,-88,-61,-120,-128,-128,-128
1490742752361,-66,0,-40,-8,62,-73,45,52,127,5,65,114,-93,80,40,32
1490742752410,-23,-2,13,-18,-128,-45,28,-37,20,-1,23,-18,127,-61,-29,26
1490742752458,41,1,-7,-69,-128,60,-59,11,-31,4,4,-73,-68,-98,-48,-4
1490742752506,-11,4,71,112,127,104,46,9,28,3,72,17,-51,105,0,44
1490742752507,-47,2,53,16,-83,49,77,49,80,0,-36,-85,-56,-29,19,-38
1490742752555,-86,1,-124,-128,-94,-52,-77,-89,-12,3,4,97,111,67,52,-12
1490742752604,22,5,-54,-74,47,41,-43,35,3,-2,106,96,-64,-13,3,-68
1490742752653,61,-3,-27,39,43,76,38,32,46,0,49,-22,122,16,38,15
1490742752702,25,-3,66,33,-11,33,21,4,6,-1,11,83,50,-25,43,45
1490742752750,28,3,75,127,124,127,71,23,-58,-3,-5,-78,-74,49,64,22
1490742752751,-9,0,95,55,42,-17,-27,-26,17,-3,-16,127,114,106,72,24
1490742752799,58,15,-92,30,6,122,71,-8,30,-43,-46,-62,-99,-128,-125,-62
1490742752848,-18,70,-31,-23,14,-80,-50,-9,-12,-41,-51,-76,-55,-59,-22,-6
1490742752896,-12,32,-37,-82,-23,-23,-11,9,-6,11,42,2,-1,-10,-6,-6
1490742752945,-7,101,-15,-88,-85,-42,-6,-1,-22,-17,34,43,71,33,42,20
1490742752946,41,-128,-17,127,107,51,18,15,15,-10,-25,-89,-97,-24,-79,-8
1490742752994,-51,35,-46,22,-29,102,77,28,-104,113,8,-79,-59,14,-38,-18
1490742753043,-56,-93,-12,-63,-81,-8,-13,-24,-2,-19,-116,-108,-23,41,9,-5
1490742753092,11,-30,-21,60,4,-37,-16,10,24,-44,54,-63,-3,-57,-30,1
1490742753141,1,-28,43,56,43,-41,3,17,0,42,-101,-92,-115,-54,-29,-9
1490742753189,-6,22,42,-57,-31,0,22,13,1,19,-26,9,40,-52,1,8
1490742753191,-1,1,46,56,26,-37,-13,-4,0,5,12,42,6,-48,29,14
1490742753238,-1,3,-18,34,-5,38,-13,-16,-1,1,3,-21,-30,28,1,-13
1490742753286,-1,1,0,-18,12,-15,1,-15,0,-2,-31,14,26,11,2,19
1490742753335,-67,3,-25,-14,-18,17,-6,-15,31,0,-54,11,5,10,0,22
1490742753383,2,-1,70,5,-24,-14,-16,-18,-13,3,-48,-99,-46,-47,0,-22
1490742753384,45,1,-24,16,15,13,15,20,37,-5,11,-45,-20,-72,-24,-37
1490742753433,-118,-1,14,39,-8,101,15,63,-85,3,-99,-56,-24,55,21,12
1490742753482,67,1,-66,-11,18,11,7,7,-99,-1,60,4,-34,10,-12,-21
1490742753533,-107,0,-8,-33,0,-33,11,7,-85,1,-113,-83,-56,-35,-5,-13
1490742753579,-50,-1,20,-70,-49,-34,-10,-2,-21,-2,-39,21,35,37,-3,6
1490742753627,-3,-26,6,33,33,52,31,39,-3,106,40,78,54,44,46,36
1490742753629,-6,-56,23,-27,59,31,35,18,0,-91,29,50,89,56,47,35
1490742753679,-5,-18,1,-1,-115,42,18,16,4,1,2,-74,-39,-38,-55,-15
1490742753725,-1,0,-8,63,-9,61,23,-9,0,52,19,25,-8,-72,-35,-13
1490742753774,-8,41,10,-31,-11,-37,27,25,-55,-11,4,-12,100,-18,0,-4
1490742753823,-61,28,19,120,124,-22,39,26,85,-52,-42,-61,-114,74,-5,-35
1490742753871,64,42,-5,-40,-66,-1,14,-4,4,56,48,96,127,92,115,71
1490742753872,-38,-96,23,-15,83,-111,-128,-41,-98,-128,-36,-4,15,57,51,-28
1490742753920,111,8,-9,38,84,49,-37,-1,-5,8,11,-33,-28,-13,55,36
1490742753969,-67,-105,-18,-94,71,98,66,43,127,20,31,-124,98,-41,11,-12
1490742754018,97,43,18,17,16,-19,-13,70,-79,-61,24,51,-58,-47,-33,-6
1490742754066,16,41,38,99,123,74,112,57,127,-29,40,101,123,73,-38,37
1490742754068,-48,-65,50,127,90,125,127,3,-33,-65,31,38,57,-45,-100,-36
1490742754116,-19,-16,2,27,-104,18,18,-18,85,-36,2,-75,85,63,80,17
1490742754164,35,38,-15,-16,-57,97,66,44,-43,107,31,69,127,125,-26,39
1490742754213,28,-128,-24,45,127,-12,55,-3,-21,-24,-48,-125,-128,-105,-37,9
1490742754261,-19,111,-37,-119,-128,-28,-90,-20,-37,21,6,24,87,66,60,5
1490742754310,-50,-8,26,39,111,127,94,33,44,-20,13,46,44,79,114,75
1490742754311,-14,-98,-16,37,-33,-102,-89,-68,-4,-7,-13,-54,4,-7,0,24
1490742754359,-19,-53,31,5,14,-23,-29,23,-44,-47,-13,-22,-43,-56,-45,-45
1490742754408,9,1,-15,8,-10,-22,-18,2,-95,-19,-2,9,30,34,4,1
1490742754457,-8,88,4,51,1,19,46,7,3,-10,-12,-56,-31,-21,1,-11
1490742754506,86,-6,-35,13,-18,-17,-21,-7,-93,-28,-12,36,29,-6,-19,-51
1490742754556,-6,-73,1,-4,30,46,33,21,12,-1,30,105,9,9,17,4
1490742754557,-21,-55,17,15,1,-18,-7,-18,-24,-81,-6,60,57,103,55,17
1490742754603,29,59,19,24,14,-76,17,-2,1,33,-25,-48,-95,-80,-54,8
