1490984275080,0,-41,38,36,36,28,-39,-10,-96
1490984275080,0,90,23,-13,-113,-41,43,-106,1
1490984275081,1,110,4,-55,-108,-17,52,-60,39
1490984275081,1,-65,2,-21,-45,-13,10,-23,13
1490984275082,2,14,-35,-41,-17,-16,12,9,24
1490984275082,2,4,-14,-1,25,5,-14,32,5
1490984275130,3,-68,-11,5,22,-6,-24,3,-8
1490984275130,3,18,-14,-4,5,-1,14,14,-1
1490984275131,0,-14,1,5,1,-2,0,10,23
1490984275131,0,-11,12,16,26,9,-7,8,-16
1490984275133,1,-3,0,11,16,1,-7,12,2
1490984275133,1,2,9,9,12,3,-7,1,-10
1490984275136,2,-12,-10,0,-2,-5,7,-6,1
1490984275136,2,-11,0,7,20,6,-13,11,3
1490984275176,3,5,2,2,4,0,8,16,-1
1490984275176,3,19,5,2,-1,5,-3,-12,-15
1490984275178,0,5,-2,-6,-13,-6,10,-7,25
1490984275178,0,-17,-7,-7,-4,-1,11,5,5
1490984275178,1,4,7,6,8,-4,-18,-5,-27
1490984275178,1,5,-7,-2,-9,-5,1,-7,4
1490984275180,2,-16,9,10,-6,-3,4,-3,1
1490984275180,2,3,-2,-9,8,-1,-3,10,6
1490984275225,3,-41,-4,3,2,3,-4,-2,-21
1490984275225,3,36,17,11,9,7,4,1,0
1490984275226,0,-1,0,-11,-5,-1,4,0,24
1490984275226,0,-18,-14,1,3,1,-5,2,-5
1490984275227,2,34,0,-2,-16,-5,-6,-5,-7
1490984275227,2,20,-3,-3,0,0,1,-6,-11
1490984275228,3,-24,7,4,5,0,1,0,28
1490984275228,3,15,-11,-5,4,2,2,0,-11
1490984275274,0,-5,6,1,-4,0,0,-2,-1
1490984275274,0,3,4,-4,-3,-5,-5,2,11
1490984275276,1,-23,-19,5,4,4,5,0,-1
1490984275276,1,26,8,0,-5,-5,-10,-4,-2
1490984275277,3,4,7,6,6,-2,-9,-5,-16
1490984275277,3,-4,-9,-7,5,-11,-2,-1,19
1490984275277,0,-43,-6,0,-6,2,-6,-6,-15
1490984275277,0,82,4,-4,-16,3,9,-2,12
1490984275323,1,-65,9,7,8,4,-5,3,-3
1490984275323,1,-36,-8,12,15,2,-9,-7,-18
1490984275324,2,54,14,0,-4,-5,4,-8,8
1490984275324,2,9,-4,-16,-8,0,3,7,17
1490984275325,0,-22,-4,8,11,2,-2,1,-1
1490984275325,0,-52,-9,-1,11,-1,-18,-3,-22
1490984275325,1,63,1,-8,-12,-1,9,-5,5
1490984275325,1,-10,13,-3,-16,-2,-2,0,0
1490984275371,2,47,-10,-3,-7,0,9,-9,19
1490984275371,2,-94,-8,19,19,0,-4,2,-25
1490984275373,3,47,-12,-18,-6,0,0,-4,-7
1490984275373,3,-8,5,12,-5,-6,-14,-4,1
1490984275374,0,-47,-24,-8,-6,-4,-3,3,10
1490984275374,0,31,39,-4,-6,-3,-1,-16,1
1490984275374,1,-30,-17,0,4,1,-1,4,-14
1490984275374,1,29,16,2,-2,-3,-4,-10,4
1490984275420,2,33,-35,-16,-8,5,6,2,-1
1490984275420,2,-43,19,25,23,0,-10,6,-20
1490984275422,3,25,30,9,1,-1,0,-8,10
1490984275422,3,18,-4,1,-18,-3,10,1,21
1490984275423,1,-29,24,-26,10,1,2,-1,-12
1490984275423,1,32,-26,64,-1,4,10,3,0
1490984275424,2,38,12,-46,-5,-6,0,-5,16
1490984275424,2,-68,-43,-42,-23,-22,-17,10,-29
1490984275469,3,65,-2,-7,-18,0,5,-5,-7
1490984275469,3,-83,13,7,-4,-1,-8,1,-1
1490984275470,0,65,-16,21,16,1,-1,-2,17
1490984275470,0,-10,11,-1,23,3,-3,-4,4
1490984275471,2,-76,23,36,33,6,-8,-1,-8
1490984275471,2,50,14,26,27,-6,-8,0,7
1490984275472,3,-36,-21,8,31,1,-10,9,4
1490984275472,3,22,8,35,6,-3,-8,6,1
1490984275519,0,28,48,-9,-5,-3,-9,5,4
1490984275519,0,48,-39,16,40,-2,-7,2,2
1490984275520,1,-81,17,12,-20,-11,-17,2,-9
1490984275520,1,1,19,-5,25,4,-7,-2,-32
1490984275522,3,-42,-39,-5,-9,-3,17,-6,-4
1490984275522,3,63,0,-55,-55,-10,12,-5,-16
1490984275523,0,-128,-8,1,0,8,11,-6,-11
1490984275523,0,66,-17,-60,-33,7,15,-4,17
1490984275566,1,8,20,15,-34,14,28,-4,-19
1490984275566,1,-40,8,-38,-28,-1,10,-2,-2
1490984275568,2,8,-65,-19,-39,-7,0,1,-13
1490984275568,2,-14,53,23,-24,11,21,5,15
1490984275569,0,106,54,-22,-26,-15,4,0,2
1490984275569,0,-118,20,82,-11,19,0,-4,9
1490984275570,1,92,19,-29,-5,-7,-5,0,10
1490984275570,1,-26,-13,5,2,5,10,-6,4
1490984275615,2,48,19,0,7,-3,-6,-4,-9
1490984275615,2,-59,-66,14,35,-3,-13,0,-21
1490984275617,3,-16,17,6,39,15,-3,11,-8
1490984275617,3,66,37,30,7,-7,3,-3,29
1490984275618,1,36,-13,-17,-13,6,-10,4,39
1490984275618,1,-23,-16,-28,16,-2,4,-8,0
1490984275619,2,-8,56,37,35,6,6,-3,16
1490984275619,2,10,54,-7,-58,-5,0,-2,-25
1490984275664,3,-22,-96,67,33,5,-5,-4,-3
1490984275664,3,17,-38,-16,17,11,-1,-12,-3
1490984275666,0,17,48,11,6,-6,10,0,14
1490984275666,0,7,60,-48,16,8,-7,-3,19
1490984275667,2,80,21,48,29,9,-1,4,20
1490984275667,2,-12,67,-11,-42,-3,20,-4,-2
1490984275667,3,-48,-56,-34,88,-1,-19,-3,-6
1490984275667,3,19,46,-37,3,6,-3,3,11
1490984275713,0,71,-67,74,17,-10,-9,-3,-28
1490984275713,0,-70,68,-14,0,1,-3,-4,1
1490984275714,1,53,-68,10,-34,-23,-28,-6,-20
1490984275714,1,81,42,-12,-17,5,-2,3,36
1490984275715,2,-128,-16,-53,23,-9,2,-6,8
1490984275715,2,127,43,72,8,-6,-5,0,-27
1490984275716,3,-67,-5,11,6,34,17,-5,3
1490984275716,3,-20,-73,-47,1,-24,-17,1,-21
1490984275761,0,17,-2,26,-54,8,2,1,18
1490984275761,0,-9,-7,13,98,21,-8,0,8
1490984275763,1,-60,-22,0,-11,-18,1,-3,-13
1490984275763,1,49,19,59,-65,-26,-11,0,-1
1490984275764,3,96,95,127,49,21,4,7,32
1490984275764,3,-90,5,-12,-10,-4,12,1,-57
1490984275765,0,34,4,-40,-40,-7,15,-1,17
1490984275765,0,56,-82,-60,15,-11,-17,-11,-32
1490984275810,1,-58,-7,-74,-43,-16,0,-7,30
1490984275810,1,90,46,24,-19,6,2,-4,61
1490984275811,2,-77,53,41,0,-14,3,0,-45
1490984275811,2,32,29,101,2,28,15,-4,6
1490984275813,0,-67,12,30,-25,2,2,-10,-40
1490984275813,0,74,38,-32,74,7,5,6,52
1490984275813,1,6,38,-63,-33,-19,9,7,-3
1490984275813,1,-46,41,112,-21,-18,-12,14,31
1490984275859,2,-12,-8,-82,38,-7,-15,-16,-26
1490984275859,2,-116,-19,-23,33,24,-16,-9,-49
1490984275860,3,98,45,-8,-10,2,6,2,8
1490984275860,3,-63,-51,-119,-31,-13,-12,-6,-29
1490984275861,1,-67,-49,83,99,48,16,1,-38
1490984275861,1,56,34,3,52,-13,-2,-4,30
1490984275862,2,-17,61,68,-16,16,43,-1,32
1490984275862,2,-9,6,-79,-128,-43,-37,10,48
1490984275908,3,13,27,80,3,-27,16,-3,36
1490984275908,3,2,55,-94,-40,61,15,-10,-60
1490984275909,0,-99,-83,0,40,-26,-58,15,-34
1490984275909,0,114,-16,32,25,-10,17,-11,56
1490984275911,2,97,13,-56,-85,-2,12,-5,17
1490984275911,2,-128,-28,72,7,19,44,-5,-74
1490984275911,3,48,-2,-83,-5,-22,-30,-8,22
1490984275911,3,-12,-46,56,49,36,-5,-5,-3
1490984275956,0,4,22,-66,49,1,8,3,5
1490984275956,0,-39,-91,-35,-68,-14,-22,-1,5
1490984275958,1,-56,107,98,10,27,9,-1,-44
1490984275958,1,54,10,-52,52,-15,23,1,36
1490984275958,3,2,15,14,12,12,24,-10,2
1490984275958,3,24,-21,35,20,16,0,4,24
1490984275959,0,-17,-6,56,57,23,12,5,-38
1490984275959,0,-6,0,-87,-7,-20,-14,-12,-27
1490984276005,1,75,3,-54,-59,-20,9,12,12
1490984276005,1,-54,-55,-21,-7,6,0,3,-29
1490984276006,2,69,-23,2,-2,-12,-8,-4,26
1490984276006,2,-49,-50,83,48,29,21,1,6
1490984276007,0,-35,67,66,-8,20,5,-2,-35
1490984276007,0,75,79,3,112,24,4,2,43
1490984276008,1,5,-59,-29,-93,-20,-10,0,-9
1490984276008,1,-32,11,-4,-56,-27,0,-15,-20
1490984276054,2,-10,9,-89,-1,-7,-26,-4,-14
1490984276054,2,-45,-26,-47,-84,-46,-34,-1,-22
1490984276055,3,85,76,104,127,46,45,-11,11
1490984276055,3,-27,-38,-74,-1,6,1,-9,21
1490984276056,0,2,46,77,-9,13,20,-9,-1
1490984276056,0,-20,-48,-62,59,-11,7,0,-22
1490984276057,1,32,2,44,-63,19,-6,9,32
1490984276057,1,-18,-36,-25,-24,-13,-30,-7,-24
1490984276103,2,19,-46,27,61,2,13,-9,8
1490984276103,2,-22,-63,-68,-58,-29,-4,-5,22
1490984276104,3,-21,-50,-30,-53,-10,-26,-13,-15
1490984276104,3,-14,-29,60,74,-8,13,-23,-49
1490984276105,1,-70,32,-14,88,-3,-18,4,-44
1490984276105,1,5,0,19,-41,17,-20,-5,-48
1490984276106,2,19,-60,76,122,-38,-11,-14,19
1490984276106,2,37,1,-52,-70,16,-4,-2,-6
1490984276152,3,3,-2,-73,-18,-16,8,1,39
1490984276152,3,49,2,43,-33,5,11,-5,-8
1490984276154,0,-68,-39,34,33,20,-4,-3,-31
1490984276154,0,10,-15,-38,14,-25,-1,3,-2
1490984276155,2,-7,-128,71,52,18,18,18,29
1490984276155,2,5,98,65,31,52,28,5,2
1490984276155,3,-37,40,-47,-11,-21,-1,3,-8
1490984276155,3,47,92,-94,-69,-16,3,-6,54
1490984276200,0,-90,-43,-83,-60,-28,-18,-16,-41
1490984276200,0,30,-59,97,23,7,-7,0,-1
1490984276202,1,32,40,119,51,39,27,-3,1
1490984276202,1,-3,81,71,34,18,-13,-2,24
1490984276203,3,9,-20,2,-14,37,9,-41,-5
1490984276203,3,30,-83,23,41,-10,15,31,43
1490984276204,0,-15,-50,-46,-65,-16,-6,32,-18
1490984276204,0,36,29,-53,-2,10,-20,8,6
1490984276298,1,-52,-14,14,49,4,-7,3,-11
1490984276298,1,-20,63,100,117,19,17,-9,-5
1490984276300,2,63,30,-80,-88,-24,10,-9,18
1490984276300,2,-3,-58,-86,-73,-13,4,-9,8
1490984276301,0,7,-51,-47,31,6,-1,4,51
1490984276301,0,-69,7,25,-66,-35,-34,10,-58
1490984276301,1,59,88,-98,-69,-15,-11,7,-7
1490984276301,1,-65,114,127,62,27,0,-10,-20
1490984276346,2,4,119,-70,37,29,19,-22,-3
1490984276346,2,58,24,83,55,-4,8,-29,33
1490984276348,3,-11,-50,-65,-79,-17,14,40,12
1490984276348,3,9,-50,-58,-109,-55,-4,7,0
1490984276350,1,-20,-10,67,42,0,-13,-4,-16
1490984276350,1,16,-5,41,40,-18,-15,4,22
1490984276350,2,5,55,127,77,30,-19,0,-8
1490984276350,2,-9,10,-20,45,-13,-30,7,-10
1490984276395,3,-23,-70,-42,-4,6,-18,5,2
1490984276395,3,27,-26,89,87,28,65,-2,3
1490984276397,0,-10,3,24,-18,-21,18,0,-4
1490984276397,0,19,46,8,-56,-1,15,-3,9
1490984276397,2,-24,-34,40,-12,-24,-61,7,27
1490984276397,2,12,-3,7,55,38,0,-20,-4
1490984276398,3,2,-10,2,23,-16,-12,-9,-5
1490984276398,3,18,-14,-23,-37,-4,16,27,-10
1490984276444,0,-13,-12,-44,9,-28,46,17,-6
1490984276444,0,12,8,80,41,38,24,10,3
1490984276446,1,12,11,20,0,11,50,-17,12
1490984276446,1,-7,13,-52,-36,-4,-8,-26,-8
1490984276448,3,23,-10,-22,8,-3,-121,48,11
1490984276448,3,-21,-33,64,70,0,-52,85,-24
1490984276449,0,15,7,52,16,36,97,32,32
1490984276449,0,-4,-19,-101,-79,-8,127,31,-7
1490984276493,1,-17,-3,0,-21,5,44,-28,4
1490984276493,1,15,29,56,54,31,-17,-22,-1
1490984276495,2,-9,-6,-41,-63,-27,-53,8,-1
1490984276495,2,-4,13,5,44,4,-10,3,4
1490984276496,0,-67,-1,53,66,26,27,-10,-2
1490984276496,0,-9,10,-26,-78,-36,-78,-17,12
1490984276496,1,6,19,23,36,0,-126,-8,7
1490984276496,1,13,31,73,44,0,-109,-3,4
1490984276541,2,27,-2,-73,21,11,29,2,0
1490984276541,2,-10,-16,-36,-60,-11,94,28,-14
1490984276543,3,-23,-6,88,-11,37,127,12,-3
1490984276543,3,-3,10,-33,-103,-62,61,-25,16
1490984276544,1,18,15,53,46,18,-2,-12,3
1490984276544,1,-24,2,26,35,0,-17,-23,-14
1490984276545,2,-32,12,-58,-60,-36,-64,-11,1
1490984276545,2,19,16,-7,-20,-10,-13,12,-1
1490984276590,3,-19,0,12,78,9,-33,-4,-18
1490984276590,3,17,-19,3,16,41,92,-4,20
1490984276592,0,23,-18,-7,2,1,27,5,-14
1490984276592,0,31,2,89,-13,-5,27,3,-2
1490984276594,2,-3,-11,41,-8,-10,-41,-5,12
1490984276594,2,-32,-23,116,127,37,-82,-43,-11
1490984276595,3,5,-20,41,40,-45,-124,-15,-1
1490984276595,3,74,-14,-74,29,-5,-117,42,-1
1490984276639,0,58,-7,-49,-67,-16,92,14,-6
1490984276639,0,24,32,75,50,13,105,26,-11
1490984276640,1,-57,-25,-26,-44,-6,127,2,-14
1490984276640,1,-47,-2,-80,-20,11,5,-26,10
1490984276641,3,52,8,34,-68,-28,-104,-10,16
1490984276641,3,-21,-44,49,57,5,-87,-54,-24
1490984276642,0,-1,17,127,54,-5,-128,37,15
1490984276642,0,-128,-29,-106,-40,-39,82,30,24
1490984276688,1,14,-28,24,25,23,111,29,4
1490984276688,1,-51,0,-82,-3,-67,127,5,-1
1490984276689,2,-115,14,-29,105,34,79,-28,12
1490984276689,2,94,-75,-127,-43,-1,-66,-5,8
1490984276690,0,12,6,94,76,0,-74,-17,68
1490984276690,0,-92,40,26,127,-11,-128,-24,13
1490984276691,1,18,38,7,7,26,-123,43,-10
1490984276691,1,41,0,-23,-88,-19,105,14,10
1490984276737,2,23,32,-25,-102,-33,120,19,-49
1490984276737,2,63,35,-54,-3,-23,79,-6,22
1490984276738,3,92,12,-67,5,48,46,-28,-10
1490984276738,3,-67,51,-65,22,-47,-114,16,8
1490984276740,1,53,-10,88,106,20,-118,8,-14
1490984276740,1,51,65,127,119,-55,30,55,-33
1490984276741,2,30,61,119,127,-105,-111,-28,-63
1490984276741,2,34,62,67,-72,-93,-100,-42,-128
1490984276785,3,-8,127,37,117,-100,30,67,19
1490984276785,3,-89,73,-12,74,-89,54,-39,74
1490984276787,0,-83,-90,-61,-35,-28,102,-42,-63
1490984276787,0,-120,-79,-68,-41,6,111,7,127
1490984276788,1,53,-82,-66,-128,57,68,-34,71
1490984276788,1,97,-51,-49,-120,114,61,45,41
1490984276789,2,127,-72,-128,-116,81,74,40,44
1490984276789,2,118,-74,-101,-79,127,41,25,-127
1490984276834,3,-56,-126,-128,-128,101,107,-19,-67
1490984276834,3,-6,35,-126,-119,81,69,-2,-38
1490984276883,0,-64,27,11,32,12,46,-25,-9
1490984276883,0,59,60,13,127,12,2,27,47
1490984276931,2,110,59,-128,-128,127,88,-5,-46
1490984276931,2,-28,107,-38,-119,44,125,30,39
1490984276932,3,-55,115,78,-37,-101,50,-2,-36
1490984276932,3,-49,30,127,-14,31,9,-30,7
1490984276933,0,123,-19,127,-82,116,11,-19,-7
1490984276933,0,-26,21,127,-23,127,92,26,2
1490984276934,1,24,-107,108,-125,127,115,-6,-68
1490984276934,1,87,-128,123,29,125,127,-4,-47
1490984276980,3,-128,-50,55,127,-128,118,-8,33
1490984276980,3,-128,16,53,127,-128,35,12,-118
1490984276981,0,-16,-14,-24,-32,28,-74,11,-16
1490984276981,0,-4,-10,-29,-31,-9,-43,10,-21
1490984276982,1,0,-14,-27,-6,19,-4,-7,4
1490984276982,1,3,-9,-4,5,17,3,-1,23
1490984276982,2,0,-12,-13,-17,4,20,-4,16
1490984276982,2,-6,6,-20,1,6,-1,-3,-29
1490984277029,3,14,5,-7,-10,-28,-5,6,-25
1490984277029,3,-5,-14,1,15,17,5,0,-4
1490984277030,0,-2,5,-11,-11,-5,6,6,28
1490984277030,0,-3,2,-14,-15,-5,21,6,-5
1490984277030,2,-4,9,13,10,-8,-12,3,-5
1490984277030,2,13,-4,-4,-13,14,12,5,-1
1490984277034,3,-15,-7,-21,-9,9,0,-2,-6
1490984277034,3,-4,6,-5,-3,7,-19,-10,3
1490984277079,0,-2,2,-5,-7,-30,3,-5,-8
1490984277079,0,2,-14,-2,16,35,11,-4,-3
1490984277079,1,3,7,5,20,14,6,-1,-9
1490984277079,1,-9,-16,-24,30,6,0,5,-4
1490984277080,3,4,26,36,-60,-19,-7,0,4
1490984277080,3,-8,-15,-32,-59,-16,2,4,-2
1490984277081,0,14,-2,-10,-82,-2,3,-3,3
1490984277081,0,-8,10,-4,-36,9,0,3,0
1490984277126,1,-1,-21,-5,-1,6,-2,-5,10
1490984277126,1,2,23,10,-14,-15,0,3,-6
1490984277128,2,-2,3,0,33,-6,3,1,-3
1490984277128,2,3,-27,-35,29,3,-10,-1,0
1490984277128,3,0,5,4,48,5,14,-5,-4
1490984277128,3,12,12,13,39,7,-1,-5,14
1490984277129,0,-16,-6,18,30,-2,-7,5,-8
1490984277129,0,28,40,11,-10,-3,3,-3,10
1490984277175,1,-11,-25,-26,-29,-35,-4,-3,-15
1490984277175,1,-4,-23,-29,-8,26,0,-2,5
1490984277176,2,1,1,9,-14,28,1,-1,-8
1490984277176,2,-4,7,10,-5,-19,6,1,-10
1490984277177,0,-16,-36,-59,-8,3,1,-7,-17
1490984277177,0,8,10,17,14,10,3,-8,-10
1490984277178,1,-22,1,-15,-7,13,-5,2,-10
1490984277178,1,13,22,66,-3,-1,7,-10,11
1490984277224,2,6,14,-27,-21,-18,-5,4,13
1490984277224,2,-33,-28,-12,-20,3,0,12,-1
1490984277225,3,26,-44,-46,-9,-12,-9,0,5
1490984277225,3,-8,-4,4,15,12,7,10,-22
1490984277226,1,10,-4,70,99,18,6,2,-5
1490984277226,1,-29,-14,10,121,-12,-14,-5,-10
1490984277227,2,32,-70,-50,9,-6,0,-9,5
1490984277227,2,-27,-1,2,-103,10,-11,-12,-15
1490984277273,3,13,67,32,-128,-12,14,-1,6
1490984277273,3,13,57,-33,-120,5,-1,-5,-9
1490984277274,0,-1,32,9,-72,7,14,6,18
1490984277274,0,-5,36,-53,-68,-19,-10,1,16
1490984277274,2,15,3,21,67,-8,-14,-5,-20
1490984277274,2,3,-71,76,76,3,20,2,7
1490984277275,3,8,-106,-9,103,8,3,-3,14
1490984277275,3,-39,-31,-2,6,-2,-1,2,-13
1490984277321,0,-1,105,8,-8,-15,-2,-6,3
1490984277321,0,-4,104,-23,-2,3,6,2,-3
1490984277322,1,39,69,31,-5,0,17,0,-16
1490984277322,1,15,-11,-9,13,-4,4,0,13
1490984277323,3,-20,61,31,72,11,11,2,18
1490984277323,3,25,8,-16,-76,1,5,2,-35
1490984277324,0,-54,-29,-24,-104,-6,-8,-1,-22
1490984277324,0,16,-65,-35,-128,10,-10,-6,17
1490984277370,1,10,-40,20,-79,-18,-3,1,19
1490984277370,1,41,-53,55,83,34,12,3,-25
1490984277371,2,-27,-86,-17,51,-12,-32,-2,9
1490984277371,2,-24,-119,30,102,-2,-43,-2,-20
1490984277372,0,52,102,21,21,18,46,0,10
1490984277372,0,-12,82,-19,12,-3,-20,0,-45
1490984277373,1,-37,46,2,-30,-3,-16,3,37
1490984277373,1,-8,-21,-34,3,-13,25,0,-20
1490984277419,2,15,-36,37,-3,20,82,-1,17
1490984277419,2,8,-104,108,39,7,25,2,9
1490984277420,3,-7,-119,-100,-53,-6,-54,0,-21
1490984277420,3,-32,-81,-26,-25,-20,-47,-4,-21
1490984277421,1,-7,36,-10,5,51,0,3,-4
1490984277421,1,-31,94,-49,-18,-7,-82,1,-5
1490984277421,2,-6,103,-35,-27,-47,-74,-3,1
1490984277421,2,-19,127,4,-31,-37,-7,-5,-8
1490984277467,3,19,-44,23,6,-4,63,0,-1
1490984277467,3,27,-89,4,-15,62,29,3,-8
1490984277469,0,-44,-107,34,8,-1,-19,-1,31
1490984277469,0,30,-118,-93,21,-14,-20,-2,9
1490984277469,1,-18,-46,43,-20,-9,29,-4,-5
1490984277469,1,0,-9,67,24,22,-30,2,-17
1490984277471,2,-9,-17,-40,-39,-3,-61,3,15
1490984277471,2,14,81,-13,-43,-2,2,0,-16
1490984277516,3,-4,123,-32,24,-24,21,2,-18
1490984277516,3,-31,127,44,37,10,9,-3,22
1490984277517,0,17,92,-7,8,50,-13,5,-26
1490984277517,0,14,-14,-32,-12,0,-62,0,17
1490984277518,2,67,-107,34,-17,4,98,4,-7
1490984277518,2,-44,-108,6,71,65,78,-3,1
1490984277519,3,80,-77,48,3,42,74,4,0
1490984277519,3,-51,37,-10,72,-4,10,-4,15
1490984277565,0,3,115,14,8,2,-59,0,-5
1490984277565,0,31,127,45,-51,-87,-113,-4,-4
1490984277569,1,-72,66,-75,-33,-55,-128,2,18
1490984277569,1,29,-92,-30,-96,-73,-48,-8,-42
1490984277570,3,1,35,-2,42,75,43,-1,-5
1490984277570,3,14,13,-30,19,61,23,0,12
1490984277571,0,-25,17,43,-7,15,76,-1,13
1490984277571,0,-37,-33,12,-34,24,107,8,-60
1490984277614,1,7,-100,-38,32,-16,99,-4,10
1490984277614,1,-17,-119,-6,23,101,-17,1,-3
1490984277616,2,38,-35,-10,-18,12,-117,2,3
1490984277616,2,-25,73,-42,-44,-66,-128,1,14
1490984277617,0,9,100,-27,7,-93,-43,-4,-23
1490984277617,0,-29,60,-22,-29,-53,20,3,-2
1490984277618,1,-54,-63,7,11,-35,30,0,-6
1490984277618,1,94,-116,-27,-25,-20,47,-2,-1
1490984277663,2,16,-52,85,20,118,46,4,5
1490984277663,2,97,-51,-34,22,112,106,-1,14
1490984277665,3,-76,-36,10,47,82,106,0,-15
1490984277665,3,2,-9,19,-17,48,85,-1,17
1490984277666,1,23,48,-8,-50,-33,-87,-6,0
1490984277666,1,1,94,-15,-79,-112,-105,4,-1
1490984277667,2,-29,-10,-105,-50,-128,-121,-4,-4
1490984277667,2,38,-35,-53,-43,-55,-55,2,-4
1490984277711,3,-41,-36,63,-12,116,-45,2,3
1490984277711,3,-5,-47,112,48,85,-42,-7,-12
1490984277713,0,-3,-75,5,42,-82,-13,2,10
1490984277713,0,-39,-8,-57,72,-115,31,-2,-2
1490984277714,2,81,103,24,10,127,86,-6,0
1490984277714,2,123,83,21,7,126,53,-6,-9
1490984277715,3,-57,64,-63,-60,-95,48,7,-8
1490984277715,3,-104,-23,-60,-54,-120,-6,1,10
1490984277760,0,-94,-98,-42,-58,-128,-23,-4,3
1490984277760,0,-41,-48,5,-20,-119,-85,4,3
1490984277761,1,43,-111,92,-42,32,-35,-5,-7
1490984277761,1,-30,-59,66,-46,-25,-9,3,2
1490984277762,3,58,109,-48,-74,-91,49,3,1
1490984277762,3,0,73,-19,28,-128,23,-1,0
1490984277763,0,-2,11,-46,85,-54,31,-2,-5
1490984277763,0,-59,-80,-82,127,3,22,3,-9
1490984277809,1,34,-126,-33,118,109,-22,-1,-1
1490984277809,1,22,-96,-47,111,127,15,-2,-8
1490984277810,2,-123,6,2,127,127,20,-2,5
1490984277810,2,-119,62,120,123,118,-38,-6,-3
1490984277811,3,109,-72,-20,-67,116,36,-3,-2
1490984277811,3,90,127,-43,-70,104,-29,-1,0
1490984277812,0,91,79,-66,-127,-13,-26,-5,14
1490984277812,0,-63,43,-94,-128,-117,-9,1,0
1490984277858,1,-128,-52,-44,-117,-128,-53,-2,1
1490984277858,1,-128,-56,60,-116,-128,-34,-2,-1
1490984277859,2,-29,-45,107,-109,21,-34,-1,11
1490984277859,2,-34,22,63,-89,47,-17,-6,-1
1490984277859,0,-84,-5,81,-120,-112,11,1,-16
1490984277859,0,-100,-108,120,16,-27,-22,2,10
1490984277860,1,85,-86,-6,-97,-22,22,-3,-1
1490984277860,1,101,120,-91,-107,15,20,3,-5
1490984277906,2,-93,104,-10,-64,-118,15,4,1
1490984277906,2,-78,56,24,67,-127,-19,-4,7
1490984277907,3,-111,38,-2,127,-49,-120,0,19
1490984277907,3,-128,-94,-51,105,31,-117,-3,-12
1490984277908,1,75,-26,-102,-44,118,119,1,10
1490984277908,1,23,-98,0,-81,20,127,-3,2
1490984277909,2,-43,-23,82,-60,-79,118,1,-12
1490984277909,2,16,62,110,-1,-128,89,1,-10
1490984277955,3,-60,127,127,127,-128,62,-1,-22
1490984277955,3,-84,106,127,127,87,18,5,-1
1490984277956,0,-36,-75,38,127,118,-22,-1,-1
1490984277956,0,86,-128,-75,86,127,-46,-2,4
1490984277957,2,-26,35,-128,-90,-108,-96,-2,-14
1490984277957,2,115,88,-104,-128,-124,-110,2,-15
1490984277958,3,66,111,-10,-128,-128,-105,-2,-3
1490984277958,3,-17,67,21,-90,-98,-24,-1,1
1490984278004,0,53,-21,-19,-92,-60,27,1,24
1490984278004,0,-30,-35,-30,-128,-38,42,3,5
1490984278005,1,47,5,-24,-54,27,22,-3,-16
1490984278005,1,16,16,-25,19,77,80,-4,2
1490984278005,3,-117,22,48,23,-107,-35,1,-6
1490984278005,3,-57,48,11,32,-128,-33,-1,-15
1490984278006,0,-31,30,16,28,-57,20,-4,-18
1490984278006,0,-22,-34,10,11,47,2,3,8
1490984278053,1,-68,-4,-32,15,55,36,-6,8
1490984278053,1,58,2,-44,-37,105,8,-1,11
1490984278054,2,9,-10,-54,8,123,16,6,-8
1490984278054,2,-99,1,-26,-35,127,66,-2,-30
1490984278055,0,127,-20,50,25,-128,4,-3,21
1490984278055,0,8,-17,27,29,-128,-70,5,-1
1490984278056,1,56,-25,39,13,-71,-56,1,13
1490984278056,1,-8,-47,4,-14,-35,-33,-2,7
1490984278103,2,62,-2,65,25,-32,-20,0,16
1490984278103,2,3,-2,-22,-21,-8,-29,-2,-4
1490984278104,3,73,-18,13,-25,7,7,1,18
1490984278104,3,-118,10,22,54,32,-31,1,-14
1490984278105,1,-48,16,-11,10,10,-13,0,-9
1490984278105,1,48,23,35,-13,6,17,-4,9
1490984278106,2,-22,-24,-23,5,9,13,-2,-11
1490984278106,2,38,-3,-5,16,3,-14,0,6
1490984278150,3,-60,16,5,-20,-1,2,3,-1
1490984278150,3,-33,7,-37,18,4,-8,3,-10
1490984278151,0,3,-21,-14,-30,4,9,-2,-11
1490984278151,0,-35,-7,17,45,-3,-10,2,6
1490984278151,2,39,10,-55,-14,6,-6,4,24
1490984278151,2,1,-5,24,-29,1,12,1,-19
1490984278152,3,14,-21,65,17,1,-7,2,-11
1490984278152,3,-99,-13,-15,11,15,11,-5,20
1490984278200,0,4,-15,70,99,3,-4,-1,12
1490984278200,0,116,-23,-43,4,-10,3,-2,-2
1490984278201,1,-63,-16,-9,-42,-2,-5,-2,-34
1490984278201,1,44,-1,28,-20,1,3,0,14
1490984278202,2,-6,23,-68,-39,11,10,-3,9
1490984278202,2,8,-6,105,66,15,6,-3,-30
1490984278202,3,-33,0,8,7,-23,-8,-2,3
1490984278202,3,-30,-12,-40,-13,-6,-17,-3,-65
1490984278248,0,34,14,-24,-75,4,-2,4,14
1490984278248,0,-79,-52,20,76,7,6,-3,-31
1490984278248,1,68,14,-45,14,-4,10,0,83
1490984278248,1,-19,7,12,5,-20,-26,-3,-33
1490984278250,3,-25,-49,-51,50,7,-13,2,-89
1490984278250,3,68,-67,-101,-23,-4,6,6,72
1490984278251,0,-22,-50,82,-15,-5,-28,5,-25
1490984278251,0,-8,14,-89,-6,-4,8,-5,-4
1490984278296,1,-68,-50,108,24,18,0,-2,15
1490984278296,1,65,32,65,17,-17,5,0,-6
1490984278297,2,-54,33,-88,-35,-19,-15,0,-13
1490984278297,2,36,-38,-32,-42,-13,3,-1,13
1490984278311,0,-77,-17,69,3,-15,11,0,2
1490984278311,0,-71,-30,-84,-94,-36,-49,2,-39
1490984278312,1,92,57,-46,-64,25,28,-1,62
1490984278312,1,-74,55,84,43,6,-2,2,-42
1490984278345,2,43,-21,20,73,1,29,-5,37
1490984278345,2,20,50,-46,65,-5,-4,2,-13
1490984278346,3,-42,-101,-57,-32,-11,-46,-6,-63
1490984278346,3,87,77,16,-103,-6,16,2,29
1490984278349,1,-71,10,19,22,-2,4,-3,2
1490984278349,1,17,29,-9,-24,-4,-5,-4,-35
1490984278350,2,-69,-87,-103,18,-6,-14,2,-42
1490984278350,2,51,29,112,-58,-2,15,1,-24
1490984278394,3,-35,21,56,50,19,6,3,-11
1490984278394,3,30,21,-25,-24,-1,15,-6,11
1490984278395,0,-49,-67,57,51,-17,-18,0,42
1490984278395,0,14,68,-71,-51,-4,2,2,-27
1490984278396,2,77,-64,43,-31,47,-20,-7,11
1490984278396,2,-60,41,88,118,7,26,-3,18
1490984278397,3,-36,-4,15,85,12,25,-1,0
1490984278397,3,10,-121,87,-18,-7,-15,-4,47
1490984278445,0,-3,76,-128,-39,19,15,-3,-29
1490984278445,0,-76,-75,-63,-90,-9,-40,-2,12
1490984278447,1,127,127,127,-29,1,24,-1,31
1490984278447,1,-36,30,44,127,3,9,-2,28
1490984278493,3,34,30,15,-21,17,-5,0,43
1490984278493,3,3,0,85,7,44,-4,-5,-44
1490984278494,0,24,46,56,49,-14,8,4,-4
1490984278494,0,-19,-1,15,89,30,21,-5,11
1490984278494,1,37,-66,-100,10,-57,-15,1,-56
1490984278494,1,-59,-65,-128,6,5,-27,2,-53
1490984278498,2,53,25,107,-28,17,16,-6,64
1490984278498,2,-28,54,-71,-5,-14,-16,-4,29
1490984278540,0,31,44,12,-13,-2,-15,0,-7
1490984278540,0,-36,-40,112,43,11,13,3,50
1490984278541,1,40,20,-21,19,34,9,-3,6
1490984278541,1,39,26,-42,-58,-20,7,4,-29
1490984278542,0,12,31,-82,-3,1,4,-4,-46
1490984278542,0,-2,-60,-11,-41,-8,-1,0,-10
1490984278542,1,-35,13,-7,-51,-11,6,3,21
1490984278542,1,46,-7,20,81,8,-11,5,56
1490984278589,2,-18,41,-72,-23,-5,4,-1,4
1490984278589,2,2,-9,-35,-51,-6,-4,-3,-5
1490984278590,3,89,-112,22,7,-17,9,-2,6
1490984278590,3,-68,-66,-20,-35,-4,-13,-9,-22
1490984278591,1,-53,8,-84,-88,-59,-25,0,3
1490984278591,1,15,24,-8,-47,31,10,-1,-2
1490984278592,2,22,-2,116,80,14,19,2,0
1490984278592,2,-9,16,-8,-39,10,29,-6,6
1490984278686,3,13,2,115,35,27,7,0,10
1490984278686,3,17,3,-49,-81,-8,5,2,-12
1490984278688,0,-35,6,-128,21,-41,-29,2,-6
1490984278688,0,-21,-36,18,-67,9,-18,2,-9
1490984278688,2,15,62,53,-52,10,6,-2,15
1490984278688,2,-34,61,1,55,34,-2,6,3
1490984278689,3,28,77,127,8,5,15,-3,1
1490984278689,3,-27,62,19,26,-2,-6,8,-26
1490984278737,0,24,-66,-19,26,40,12,-2,49
1490984278737,0,-68,-25,-76,-68,-25,-30,0,-13
1490984278738,1,23,-41,-128,-104,-22,-19,-3,12
1490984278738,1,27,17,124,102,57,34,-8,32
1490984278739,3,-53,103,32,98,33,4,2,-24
1490984278739,3,9,109,45,3,-30,-5,5,-23
1490984278740,0,9,-26,67,16,5,9,9,-13
1490984278740,0,3,10,69,121,50,3,-14,13
1490984278784,1,12,19,18,-52,-22,6,-6,4
1490984278784,1,9,12,87,63,18,6,-13,3
1490984278785,2,-17,-37,-128,-128,-24,4,9,-5
1490984278785,2,-36,22,-56,10,-29,-53,8,-11
1490984278786,1,-17,126,-82,-65,1,5,3,-3
1490984278786,1,15,86,31,8,-14,1,1,-17
1490984278787,2,-9,-80,-107,-69,-31,-26,-1,19
1490984278787,2,9,-64,-49,-45,-21,-10,0,24
1490984278833,3,-5,-46,-1,-22,-37,-11,-11,-2
1490984278833,3,11,-54,52,13,28,24,-3,5
1490984278834,0,16,-38,25,89,30,-4,6,-5
1490984278834,0,-1,-103,38,21,14,14,-7,-8
1490984278835,2,2,51,21,6,-20,-22,-1,13
1490984278835,2,12,-19,-85,-28,-9,33,-15,-10
1490984278835,3,-1,-57,62,-6,-3,-17,-1,-6
1490984278835,3,4,-15,-84,-40,20,4,13,4
1490984278881,0,-10,-36,68,56,3,-15,3,-20
1490984278881,0,17,-19,51,67,27,12,-4,15
1490984278882,1,17,42,59,49,-14,13,2,-5
1490984278882,1,-17,30,-121,-105,-30,11,0,-10
1490984278882,2,-25,-24,-9,-3,-20,4,-4,-10
1490984278882,2,6,-6,13,6,40,3,3,7
1490984278884,3,-11,-3,66,47,15,-15,-1,-3
1490984278884,3,12,-18,22,46,8,0,6,15
1490984278930,0,5,-7,-18,-55,-26,-23,-6,-12
1490984278930,0,3,22,-43,-6,12,43,-4,8
1490984278931,1,-10,-7,-19,-11,1,27,-1,-4
1490984278931,1,1,-16,-18,6,-43,-4,-4,7
1490984278931,3,1,-7,-29,-18,24,22,1,1
1490984278931,3,-10,-15,-38,-18,-7,-10,-11,0
1490984278932,0,4,2,-3,-29,13,10,0,-4
1490984278932,0,-5,7,-14,-15,-38,16,1,-7
1490984278979,1,15,12,33,30,-3,-38,-1,3
1490984278979,1,-6,-5,16,-13,22,30,-7,6
1490984278980,2,-4,-12,-17,-6,-36,1,3,-10
1490984278980,2,-4,7,-2,9,7,9,4,-3
1490984278980,0,11,-5,17,10,21,0,0,2
1490984278980,0,0,9,14,-12,27,-1,-9,-3
1490984278982,1,3,4,-2,3,-4,20,3,3
1490984278982,1,-3,6,17,30,13,-11,-6,-4
1490984279028,2,-3,11,23,7,23,16,-1,-6
1490984279028,2,-6,3,-13,5,-22,-38,12,-4
1490984279028,3,5,1,26,-14,-14,-40,-12,-4
1490984279028,3,19,2,28,15,0,17,-4,8
1490984279029,1,-22,-13,38,3,2,-7,2,15
1490984279029,1,-14,-17,28,0,49,-12,10,-27
1490984279030,2,8,-18,68,24,22,7,27,20
1490984279030,2,7,-15,38,25,-1,-6,-10,-13
1490984279076,3,-1,-59,18,-42,30,-26,-10,0
1490984279076,3,5,-11,71,11,-27,-59,1,4
1490984279077,0,-5,11,36,9,-14,-19,-14,-4
1490984279077,0,-2,-4,-64,-57,29,51,0,4
1490984279077,2,17,17,-4,40,16,4,6,-6
1490984279077,2,7,-10,51,16,-12,39,3,19
1490984279079,3,-14,-5,-13,4,15,25,-3,4
1490984279079,3,-105,38,63,2,-42,-48,-8,9
1490984279125,0,-128,79,-5,22,-54,-47,-4,-6
1490984279125,0,-118,127,117,122,-4,81,8,17
1490984279126,1,94,-79,9,6,-108,-83,-3,17
1490984279126,1,127,-62,13,-61,31,-124,-23,-26
1490984279126,3,-6,39,28,118,70,127,28,5
1490984279126,3,27,61,-22,17,-112,65,13,10
1490984279127,0,67,-35,-25,-87,0,-80,-8,-3
1490984279127,0,26,-8,-105,-104,-59,-78,-8,-14
1490984279174,1,-92,87,-112,-126,-64,-17,6,-93
1490984279174,1,-111,95,24,111,124,91,-28,46
1490984279174,2,-113,46,26,127,-63,-72,-90,96
1490984279174,2,47,-95,8,-23,98,-128,5,-19
1490984279175,0,127,-47,-93,-128,-11,127,31,-44
1490984279175,0,127,-114,-106,-110,19,40,1,-83
1490984279176,1,-62,-98,-110,-105,105,105,10,-104
1490984279176,1,-106,-11,-128,-121,82,-7,2,-128
1490984279223,2,-128,47,-120,-9,4,48,10,-57
1490984279223,2,66,87,-128,19,-5,-120,-12,62
1490984279223,3,123,127,-46,35,118,-42,-4,-12
1490984279223,3,-31,16,86,71,-110,73,-3,112
1490984279224,0,36,-97,112,64,79,114,-28,24
1490984279224,0,12,-50,127,113,26,5,23,-61
1490984279225,1,0,-117,127,127,120,55,-5,-43
1490984279225,1,-31,-122,57,112,127,32,-7,-4
1490984279271,2,31,-128,61,63,-38,-5,23,5
1490984279271,2,14,-100,31,43,34,107,-13,8
1490984279272,3,-53,-95,-10,-64,59,67,-5,43
1490984279272,3,7,-54,49,-89,-44,20,19,9
1490984279273,1,-18,66,127,25,-115,-34,8,35
1490984279273,1,-4,25,52,56,-89,-32,-13,-32
1490984279274,2,-61,29,-14,-3,97,-52,-14,-9
1490984279274,2,-67,-13,-28,1,127,6,-14,1
1490984279320,3,-47,-23,-23,-27,40,69,2,-14
1490984279320,3,42,-8,-73,-54,-36,19,-4,43
1490984279321,0,46,4,-58,-18,-92,88,13,-12
1490984279321,0,-119,48,56,37,-128,72,11,76
1490984279321,2,9,76,118,82,7,-112,11,-49
1490984279321,2,35,57,101,64,-13,-103,-14,-13
1490984279323,3,30,33,41,47,21,-128,-23,58
1490984279323,3,22,1,0,0,13,-74,-11,50
1490984279369,0,26,9,7,-15,-12,-79,10,17
1490984279369,0,10,13,-9,-33,-17,-68,5,27
1490984279370,1,7,-9,-10,9,75,-39,-11,15
1490984279370,1,13,-23,-44,-52,-43,38,-6,9
1490984279370,3,11,3,1,-3,7,-16,-3,0
1490984279370,3,12,-8,-32,-2,23,-14,-3,3
1490984279371,0,-11,-4,-9,1,75,-14,0,2
1490984279371,0,7,-13,-19,-22,-2,-1,5,0
1490984279418,1,2,-13,-8,11,23,5,0,3
1490984279418,1,-1,11,2,0,-2,8,-7,21
1490984279419,2,3,8,-4,-17,2,-8,-1,3
1490984279419,2,8,-9,-28,-27,-7,11,-3,-27
1490984279420,0,-3,9,-5,16,55,-8,4,12
1490984279420,0,-9,-3,-3,-11,-26,6,-2,-5
1490984279421,1,-2,9,-1,-11,-56,5,-3,27
1490984279421,1,-6,-1,-18,-16,27,8,2,19
1490984279467,2,0,3,3,-15,-21,-11,-1,-3
1490984279467,2,-1,-3,4,8,4,-2,-6,-30
1490984279468,3,-4,-12,-21,-21,-25,-4,0,-14
1490984279468,3,-4,-9,-8,5,5,2,-2,-18
1490984279469,1,0,-5,-3,17,40,-11,-3,-1
1490984279469,1,14,10,7,9,16,-6,-4,11
1490984279470,2,2,6,-9,4,0,7,4,0
1490984279470,2,12,10,2,-6,13,2,1,7
1490984279515,3,15,4,2,10,-5,9,-1,-2
1490984279515,3,6,-5,-4,-3,3,6,1,-2
1490984279517,0,4,-3,10,13,17,-7,-4,-3
1490984279517,0,-2,-21,-13,-3,-19,14,0,-5
1490984279518,2,7,-10,5,-12,-18,-10,3,2
1490984279518,2,3,-2,8,9,11,-12,-6,-3
1490984279520,3,-5,2,-11,-14,-21,-6,-3,-2
1490984279520,3,2,2,-3,-13,-22,-11,-6,2
1490984279564,0,3,4,-5,-1,11,3,6,-4
1490984279564,0,-5,9,4,8,-28,-8,0,26
1490984279568,1,-1,3,-5,-13,-2,11,-3,2
1490984279568,1,-4,8,9,6,7,-11,0,-9
1490984279575,3,-10,-6,-23,-10,4,-3,-2,-1
1490984279575,3,2,-10,-16,-9,2,2,2,3
1490984279576,0,-5,2,-12,-21,-2,0,-2,-4
1490984279576,0,-2,4,6,-3,-24,-1,1,-4
1490984279613,1,18,24,17,-6,3,-1,-1,-4
1490984279613,1,-26,-27,3,21,13,-4,-2,-5
1490984279614,2,5,7,6,15,9,4,1,-7
1490984279614,2,-21,-23,4,12,-10,-6,-4,-8
1490984279615,3,7,-4,3,12,12,3,-2,4
1490984279615,3,8,17,3,-18,-17,-1,1,3
1490984279616,0,12,-8,-5,-4,1,3,2,7
1490984279616,0,-22,-6,-24,3,32,-4,-3,-17
1490984279662,1,-10,-17,-15,-10,-11,-7,0,-6
1490984279662,1,0,22,3,-10,-9,0,3,14
1490984279663,2,-23,-17,0,9,23,5,0,-2
1490984279663,2,27,25,1,-21,-9,-2,2,2
1490984279664,0,6,0,-4,-14,-20,-6,-3,2
1490984279664,0,-18,17,11,18,10,3,1,-4
1490984279665,1,-7,-14,-11,-11,-14,4,3,6
1490984279665,1,12,10,-12,-7,-12,0,-3,11
1490984279710,2,4,-5,7,6,10,-3,-1,-16
1490984279710,2,-21,-41,-5,-1,4,-5,-6,17
1490984279712,3,11,-5,36,12,-4,1,-4,21
1490984279712,3,-8,-14,-29,2,-9,-1,5,-7
1490984279712,1,-18,-15,-9,-5,1,4,2,-21
1490984279712,1,5,-3,18,14,-2,-6,2,-2
1490984279713,2,-4,19,24,7,-2,13,2,12
1490984279713,2,20,27,-14,-16,-10,9,1,-21
1490984279759,3,2,55,-8,-5,6,-1,0,4
1490984279759,3,-11,19,-6,11,13,1,-9,-18
1490984279760,0,-19,12,-3,-2,1,-11,4,-3
1490984279760,0,4,-12,53,36,16,-2,5,-8
1490984279761,2,21,-125,16,-8,-22,5,-4,24
1490984279761,2,-4,-33,-16,1,10,2,4,0
1490984279762,3,-7,48,12,19,-4,9,11,-26
1490984279762,3,-25,92,23,8,19,-3,11,-3
1490984279808,0,-2,102,14,9,-6,-8,0,2
1490984279808,0,30,61,-15,-5,-10,-13,-2,38
1490984279809,1,-26,30,-19,-16,-1,-8,1,-21
1490984279809,1,-5,31,16,-11,0,0,-5,6
1490984279810,3,37,-94,40,16,-2,16,-4,8
1490984279810,3,-21,-2,-56,14,-3,9,-4,-19
1490984279812,0,38,107,-17,-12,-11,-5,5,-2
1490984279812,0,-24,127,-14,-14,-7,-9,-7,-16
1490984279858,1,24,76,8,-25,5,7,0,7
1490984279858,1,-4,44,47,-15,1,20,-4,-2
1490984279861,2,7,19,52,32,-1,48,-7,5
1490984279861,2,1,46,-39,-8,5,15,-13,0
1490984279862,0,-13,-112,-73,-10,-2,-56,-4,-7
1490984279862,0,-26,-128,11,-22,0,-17,5,-9
1490984279863,1,36,-128,-16,-12,-4,-3,-1,27
1490984279863,1,15,-67,17,-30,-1,42,9,4
1490984279907,2,-20,96,105,43,9,72,7,-12
1490984279907,2,-5,125,-27,-9,24,66,4,-44
1490984279909,3,-20,127,-56,-1,-19,-4,0,-7
1490984279909,3,18,127,-24,-26,-13,-55,2,-1
1490984279910,1,0,-69,62,12,13,-8,-4,15
1490984279910,1,10,-128,-3,70,3,-14,-3,-2
1490984279911,2,-8,-118,-29,13,4,-62,5,-18
1490984279911,2,17,-24,15,21,7,-49,4,11
1490984279955,3,14,78,-32,0,16,-16,0,0
1490984279955,3,-45,69,99,50,-7,107,-2,8
1490984279957,0,20,11,-46,-35,-3,111,-7,11
1490984279957,0,29,-41,28,10,-5,116,3,13
1490984279958,1,-11,-114,-15,1,-3,29,-3,-15
1490984279958,1,19,-72,-10,-6,33,-14,4,3
1490984279959,2,-16,-57,-8,6,46,-81,1,0
1490984279959,2,34,-69,0,5,8,-72,-2,20
1490984280003,3,-24,48,61,2,-21,-115,1,-35
1490984280003,3,0,100,-60,-64,-67,-96,1,-18
1490984280005,0,-18,119,-41,-37,-49,-15,2,-6
1490984280005,0,-42,56,-11,7,-12,-24,3,15
1490984280008,2,61,-42,-1,48,58,32,2,8
1490984280008,2,9,-99,50,51,86,92,-13,30
1490984280017,3,-65,-127,14,48,57,110,7,12
1490984280017,3,109,-12,-14,-81,-12,37,0,-26
1490984280052,0,94,91,-51,-65,-104,-77,-2,16
1490984280052,0,42,127,64,-74,-128,-128,-1,-22
1490984280054,1,-38,68,-41,7,-117,-83,-2,8
1490984280054,1,-2,-83,-54,-10,-69,-120,2,17
1490984280055,3,29,57,37,23,-102,12,-4,25
1490984280055,3,-117,9,20,93,-79,-49,6,17
1490984280056,0,123,-124,8,39,30,-32,-5,23
1490984280056,0,81,-54,94,67,122,48,-3,-8
1490984280102,1,83,87,-26,-26,127,88,-5,-9
1490984280102,1,-27,103,-83,-92,118,101,-3,-16
1490984280104,2,-128,65,-32,-26,-94,22,-1,-3
1490984280104,2,30,-24,-43,-81,-60,-4,2,-29
1490984280107,0,-94,8,-7,-10,-95,-82,-1,11
1490984280107,0,-33,8,35,-70,-128,-98,0,37
1490984280110,1,-116,-42,73,-105,33,-36,-4,14
1490984280110,1,18,-59,125,-109,119,91,2,27
1490984280149,2,24,-68,73,34,-29,85,-3,5
1490984280149,2,8,30,-117,79,-90,35,-4,-5
1490984280154,3,-106,25,-127,127,71,-34,-2,-72
1490984280154,3,-92,-30,-125,119,72,67,2,-44
1490984280155,1,19,-48,-29,-123,-128,19,-2,36
1490984280155,1,77,33,91,-128,-128,-41,-3,22
1490984280157,2,34,-62,115,-73,-127,3,4,37
1490984280157,2,10,60,58,45,-79,-21,2,18
1490984280197,3,-79,44,4,105,106,39,1,-20
1490984280197,3,-111,-41,42,127,105,30,-3,13
1490984280198,0,114,-73,-104,53,127,27,-1,-35
1490984280198,0,74,110,-43,-40,127,-52,-3,-8
1490984280199,2,-128,5,6,-122,-127,-25,-1,28
1490984280199,2,-128,-104,-1,35,-119,15,-3,-15
1490984280200,3,-44,-74,-13,105,97,45,2,17
1490984280200,3,-29,-101,-6,127,119,61,-1,-2
1490984280246,0,-29,38,62,110,127,15,0,-4
1490984280246,0,-13,0,-17,90,75,12,1,-2
1490984280247,1,-6,8,1,-79,-100,-38,0,12
1490984280247,1,47,-21,-37,-93,-128,2,-2,24
1490984280248,3,35,-108,88,127,121,33,-6,8
1490984280248,3,34,55,-8,2,87,12,-3,-1
1490984280249,0,-31,127,-27,-108,62,0,-3,0
1490984280249,0,-128,-55,117,-20,62,-27,1,64
1490984280295,1,74,-10,-57,-128,-108,6,-2,-9
1490984280295,1,126,60,-104,-98,-92,-35,2,-44
1490984280296,2,119,127,-101,-128,-128,-18,-3,-31
1490984280296,2,-96,122,-58,-97,-126,-45,-3,-17
1490984280297,3,-128,-71,-26,-50,-111,-57,6,4
1490984280297,3,-116,-110,14,8,-23,-26,2,17
1490984280299,0,-110,-126,29,43,29,16,1,11
1490984280299,0,-42,-123,-53,13,44,54,2,22
1490984280344,1,70,108,-89,-61,-92,10,1,8
1490984280344,1,-76,126,-122,-20,-113,-48,0,0
1490984280345,2,100,116,-15,56,-128,-89,-2,34
1490984280345,2,99,52,11,-39,-26,-86,0,38
1490984280346,0,73,-128,1,-43,127,66,-3,96
1490984280346,0,-66,-81,46,52,-102,127,3,-16
1490984280347,1,-94,124,127,127,-94,76,1,-79
1490984280347,1,-128,85,127,127,47,45,-4,-128
1490984280392,2,-128,60,127,127,85,107,1,-128
1490984280392,2,-30,-19,15,53,127,-16,2,-72
1490984280394,3,-90,-128,-96,-36,127,-43,-6,7
1490984280394,3,-19,-128,-105,-73,49,-69,-2,53
1490984280394,1,92,28,-104,-118,-128,-31,0,48
1490984280394,1,127,-18,-108,-96,-116,-23,-7,53
1490984280395,2,47,-3,-128,-102,-78,-21,-1,6
1490984280395,2,95,22,-128,-100,-72,24,-1,-1
1490984280441,3,-35,-11,-80,-69,-11,4,-4,2
1490984280441,3,31,-123,-31,21,-12,-8,-2,13
1490984280442,0,-26,-26,18,24,2,5,2,1
1490984280442,0,10,-11,16,17,-6,-9,3,-16
1490984280443,2,-90,-7,36,-1,0,-76,-6,-22
1490984280443,2,-78,92,2,24,35,-75,-6,7
1490984280444,3,14,20,59,44,21,9,-1,15
1490984280444,3,-17,-42,47,22,-14,88,-5,-17
1490984280490,0,14,-57,1,-12,4,127,2,-6
1490984280490,0,1,-70,-4,8,10,96,6,-18
1490984280491,1,80,-128,64,56,-94,-3,-3,28
1490984280491,1,-77,90,75,59,-128,-31,-4,13
1490984280492,3,-52,11,9,-30,112,-109,4,-7
1490984280492,3,-48,-79,-56,-27,127,-42,6,1
1490984280493,0,0,-27,-24,-55,127,98,-5,-18
1490984280493,0,-91,-30,-23,-50,-28,127,-2,-45
1490984280539,1,59,-26,18,12,-98,127,-2,30
1490984280539,1,111,-42,25,27,-124,12,0,-1
1490984280540,2,34,-1,79,60,-118,-55,2,-4
1490984280540,2,60,-34,-38,50,-54,-55,3,25
1490984280541,0,-73,25,-33,4,11,-23,3,-12
1490984280541,0,-4,-27,13,-34,9,-18,-6,0
1490984280542,1,5,-2,5,5,17,-7,-1,8
1490984280542,1,-25,39,30,-7,20,14,1,-10
1490984280588,2,58,-20,8,9,21,-11,0,16
1490984280588,2,-8,25,27,24,18,-3,-2,-16
1490984280589,3,-20,24,-41,28,4,10,-1,0
1490984280589,3,-37,12,71,-49,7,13,0,-4
1490984280590,1,25,-20,4,-16,12,1,-4,-6
1490984280590,1,-29,0,17,46,16,6,-1,-13
1490984280591,2,3,50,-46,21,-3,-3,-3,33
1490984280591,2,-18,-95,0,29,-15,-10,0,-11
1490984280637,3,32,9,-5,-50,10,-1,0,-2
1490984280637,3,-67,-32,-20,5,-3,2,-1,-5
1490984280638,0,71,0,-6,-57,4,6,-3,9
1490984280638,0,30,22,-64,12,7,-2,2,9
1490984280639,1,-90,-13,108,94,4,-1,2,-5
1490984280639,1,103,21,-77,-4,0,9,1,26
1490984280640,2,-33,8,34,-52,0,-2,3,-19
1490984280640,2,-15,0,-52,10,5,-3,-4,-17
1490984280685,3,-44,-17,-32,10,-4,-8,3,-25
1490984280685,3,25,3,-4,-39,4,2,-3,-6
1490984280686,0,82,73,94,31,-5,-3,-1,8
1490984280686,0,-49,-13,10,7,10,-1,-3,-5
1490984280687,2,5,-59,-83,-55,1,-6,0,31
1490984280687,2,-16,64,73,-39,-16,3,-2,1
1490984280688,3,-47,-107,-22,35,15,-6,-3,14
1490984280688,3,-14,57,14,-40,7,7,-5,46
1490984280734,0,8,-81,56,77,14,-4,-1,-58
1490984280734,0,46,36,-57,-12,-24,-1,2,-14
1490984280736,1,-9,-21,-30,-34,4,-2,-3,10
1490984280736,1,7,-1,69,-18,17,1,-1,2
1490984280737,3,22,21,-89,-82,-12,-1,-2,-4
1490984280737,3,-29,35,-7,-36,16,-10,5,-46
1490984280738,0,-40,-48,60,-11,-1,-1,-3,30
1490984280738,0,72,107,105,24,-1,10,0,7
1490984280783,1,-69,-67,-86,-1,-26,-9,-2,40
1490984280783,1,98,34,-73,-26,5,3,-5,-31
1490984280786,2,-98,-20,-4,54,-7,-7,7,14
1490984280786,2,0,111,0,-85,3,-3,-1,-1
1490984280787,0,18,-35,-57,-82,-34,-2,-4,-40
1490984280787,0,70,-13,67,-75,11,2,-4,30
1490984280788,1,18,127,88,47,13,14,0,9
1490984280788,1,-17,-124,-67,111,-15,-20,-1,1
1490984280832,2,9,125,-15,-69,-10,0,3,-43
1490984280832,2,41,-25,-12,14,8,8,-3,21
1490984280833,3,53,100,50,-17,5,5,0,-15
1490984280833,3,-57,-76,7,122,-2,-6,1,-29
1490984280836,1,53,85,41,-112,-1,10,-2,-34
1490984280836,1,20,-7,107,23,-6,7,0,45
1490984280837,2,32,16,18,24,2,-2,-1,-31
1490984280837,2,-38,12,-28,0,14,6,-2,21
1490984280880,3,-34,9,75,48,16,2,-1,-10
1490984280880,3,46,-3,-90,-59,-6,-1,4,17
1490984280929,0,15,37,73,-60,-10,3,-5,-3
1490984280929,0,-8,-88,-76,105,14,-13,0,-15
1490984280978,2,8,-52,-66,125,3,-5,4,-2
1490984280978,2,-41,27,-75,-110,-25,1,-1,16
1490984280979,3,31,-63,-24,-42,11,11,-6,-49
1490984280979,3,-36,61,95,-70,26,12,0,73
1490984280980,0,107,85,84,23,23,-1,-3,16
1490984280980,0,-92,22,91,79,-17,-2,-3,7
1490984281075,1,41,-46,-127,-15,-1,-7,-2,19
1490984281075,1,-38,-43,-97,-108,-37,-5,1,2
1490984281077,3,-47,-70,-94,38,0,-8,-2,3
1490984281077,3,52,38,97,-51,-8,3,-2,-31
1490984281078,0,-39,58,120,3,6,8,0,3
1490984281078,0,41,-11,-107,28,18,1,1,22
1490984281079,0,38,-6,-85,4,17,7,-1,26
1490984281079,0,-99,-29,-58,-30,-29,-1,-2,-11
1490984281124,1,41,3,-16,-77,-6,-4,-1,-26
1490984281124,1,35,-25,61,15,-1,5,1,13
1490984281126,2,-37,8,5,101,17,5,2,2
1490984281126,2,3,51,6,-50,-24,-6,2,-23
1490984281127,3,-29,36,-2,-42,12,3,4,-3
1490984281127,3,-12,-32,32,42,38,5,-4,2
1490984281128,2,-45,63,-48,-14,-2,-11,-5,-36
1490984281128,2,4,24,-88,-37,-25,-15,-1,-13
1490984281173,3,-7,-27,52,15,15,6,4,19
1490984281173,3,-2,-105,-79,-27,-64,-10,3,15
1490984281176,0,-11,-27,-14,-7,3,5,0,-27
1490984281176,0,45,38,62,-5,2,-12,3,12
1490984281177,3,4,9,-59,-31,-10,-3,3,-2
1490984281177,3,-28,-28,25,17,-4,1,1,-31
1490984281179,0,23,-12,15,-11,7,-3,-7,-16
1490984281179,0,5,15,67,-7,16,12,1,13
1490984281222,1,-21,-6,-102,-20,-8,-2,-6,19
1490984281222,1,-23,11,-20,-8,9,16,-5,-12
1490984281225,2,9,-12,62,24,9,-7,-2,-10
1490984281225,2,-10,20,47,21,16,-2,3,-12
1490984281227,0,-5,-23,-117,-62,-8,1,6,5
1490984281227,0,-28,-4,39,10,-17,3,-8,4
1490984281228,1,3,11,90,65,3,-7,-3,-5
1490984281228,1,-8,1,55,5,57,20,-16,-2
1490984281270,2,26,-1,9,-31,-48,-9,-22,5
1490984281270,2,0,-20,-68,17,8,-1,5,8
1490984281272,3,-22,3,-38,-12,-7,-10,6,1
1490984281272,3,3,3,-12,13,3,17,23,-4
1490984281273,1,3,-24,31,-1,5,0,-3,2
1490984281273,1,12,8,5,-16,-27,-15,-11,4
1490984281275,2,-4,22,-3,-3,-3,-4,-45,-1
1490984281275,2,-1,26,76,53,14,1,11,-5
1490984281319,3,10,2,-22,-59,-4,-7,17,15
1490984281319,3,-2,-15,-79,-29,-36,2,3,3
1490984281320,0,-11,-10,13,33,29,5,4,-7
1490984281320,0,26,15,15,-26,-35,-13,-15,10
1490984281321,2,-8,-23,-5,-10,-6,-5,9,-5
1490984281321,2,-12,-22,-72,-22,8,-11,-3,-10
1490984281322,3,2,2,-15,-16,2,4,8,-3
1490984281322,3,14,20,31,26,17,-1,-9,-4
1490984281367,0,-3,19,32,6,-2,9,0,3
1490984281367,0,-7,-6,-44,-11,4,0,-5,-4
1490984281369,1,-8,-10,20,10,-13,10,-9,-6
1490984281369,1,11,-90,6,-15,-16,-1,-6,-3
1490984281369,2,13,45,8,-10,-17,-8,5,9
1490984281369,2,-4,51,-35,-34,20,18,2,9
1490984281370,3,-22,92,-2,17,28,13,-9,-12
1490984281370,3,-10,39,23,36,2,7,-2,5
1490984281416,0,13,-38,16,2,6,-2,17,-8
1490984281416,0,12,-44,-14,-34,-16,-3,-4,4
1490984281418,1,-5,-48,-43,15,1,-1,-4,-7
1490984281418,1,2,-4,63,20,18,17,-1,-10
1490984281418,3,4,6,-8,3,17,-3,-3,-2
1490984281418,3,-31,55,-3,8,-31,-8,-12,-14
1490984281419,0,8,40,7,2,45,-29,-1,6
1490984281419,0,-2,1,32,22,-12,-14,0,-10
1490984281466,1,16,-40,0,-15,-23,-4,-6,14
1490984281466,1,2,-39,-41,-35,0,9,-3,6
1490984281468,2,-17,-12,-9,13,-3,1,-9,-5
1490984281468,2,2,-5,30,11,11,-16,-3,-3
1490984281469,0,-21,-1,32,36,37,-1,24,-32
1490984281469,0,5,16,30,19,-16,-9,-4,3
1490984281474,1,-2,4,7,3,35,-12,-6,-15
1490984281474,1,2,-34,21,12,1,-7,6,14
1490984281515,2,24,-102,37,28,-3,-13,-5,6
1490984281515,2,-13,-26,12,-12,8,10,-7,-6
1490984281517,3,5,72,33,-14,-53,4,10,9
1490984281517,3,0,46,20,-12,1,-30,4,3
1490984281518,1,-3,-23,-1,-45,6,23,11,-3
1490984281518,1,-10,27,65,42,-26,19,18,-2
1490984281520,2,6,4,58,21,15,20,0,15
1490984281520,2,5,-16,-74,33,27,-7,-9,11
1490984281564,3,-24,-18,-49,5,-17,-13,-16,-1
1490984281564,3,13,-8,-75,-72,-32,-12,-15,-4
1490984281566,0,-11,-4,-106,-66,-52,6,-7,6
1490984281566,0,-20,15,43,38,-55,10,1,4
1490984281567,2,18,1,-68,-21,18,-26,-8,-22
1490984281567,2,-105,120,-12,-49,78,-29,5,8
1490984281568,3,-62,101,57,61,95,-39,-14,53
1490984281568,3,88,-100,23,-9,9,-43,5,-7
1490984281612,0,110,4,36,98,-42,-58,25,-10
1490984281612,0,74,39,-50,-18,3,-105,0,-10
1490984281616,1,20,93,-71,-88,-27,-110,-18,-17
1490984281616,1,65,127,19,19,110,-37,-11,44
1490984281617,3,-75,8,-50,-32,-59,123,12,-23
1490984281617,3,-95,-1,-123,-40,23,127,-7,-42
1490984281618,0,-53,-5,-128,-119,87,45,-2,-18
1490984281618,0,11,-37,-79,-81,65,-14,-7,-31
1490984281709,1,-25,-105,34,-39,77,0,5,-5
1490984281709,1,-114,-78,-33,-12,40,12,-2,-8
1490984281710,2,-67,-71,-82,-89,76,39,-1,-17
1490984281710,2,71,-69,-111,-93,56,14,-5,-28
1490984281711,0,-128,127,127,127,118,-94,-104,82
1490984281711,0,-93,-101,1,65,56,-98,-11,94
1490984281712,1,115,-113,90,42,-100,-29,48,127
1490984281712,1,127,86,102,-41,-128,49,57,110
1490984281758,2,95,99,-104,-121,-88,127,50,-12
1490984281758,2,98,-45,-57,-103,-7,100,13,-94
1490984281759,3,-84,-94,-128,-128,127,21,3,-124
1490984281759,3,-24,-128,-128,-18,67,48,-17,-125
1490984281760,0,-35,-117,62,102,105,38,-6,-44
1490984281760,0,-40,-30,127,127,116,12,2,-21
1490984281761,1,72,6,-65,-100,-97,91,1,-2
1490984281761,1,84,-10,-43,-41,-123,74,6,57
1490984281808,2,-45,59,84,76,-128,74,33,81
1490984281808,2,-112,127,127,118,-128,30,4,2
1490984281809,3,-79,127,122,127,-114,-87,-19,-84
1490984281809,3,-16,115,117,116,-124,-128,-12,-51
1490984281810,2,3,-20,-7,-31,4,-38,-10,20
1490984281810,2,10,2,-22,-15,-34,-27,-5,32
1490984281811,3,20,-9,-44,-14,35,6,-7,0
1490984281811,3,-7,-7,-20,-31,5,-16,-5,7
1490984281855,0,0,-14,-28,-33,-17,-12,0,7
1490984281855,0,8,-17,-33,-29,46,-1,4,7
1490984281856,1,17,13,-15,-25,1,16,-2,8
1490984281856,1,-25,-5,-16,-6,0,9,-3,18
1490984281857,3,-9,1,-12,7,51,7,4,42
1490984281857,3,-12,-12,-20,-18,30,-2,-1,16
1490984281858,0,13,-2,4,-10,-77,-9,-2,3
1490984281858,0,5,2,-5,-7,12,6,4,0
1490984281904,1,-10,2,-15,0,-20,8,-3,9
1490984281904,1,-4,-17,-11,3,1,14,-4,3
1490984281905,2,7,-16,-20,-1,66,-12,3,-27
1490984281905,2,15,12,8,-15,-40,1,1,19
1490984281906,0,-6,-5,-5,-18,-45,-6,2,12
1490984281906,0,-4,-9,-8,0,13,2,0,20
1490984281907,1,11,4,-4,7,28,12,3,0
1490984281907,1,-3,2,-5,-2,-8,-9,-3,4
1490984281953,2,-4,13,4,10,19,0,-3,-10
1490984281953,2,-8,-10,-16,-3,24,-1,1,-4
1490984281953,3,-4,0,6,4,-4,-6,-1,-10
1490984281953,3,-20,-10,-11,10,43,10,-6,-11
1490984281954,1,16,12,9,-1,-33,0,-4,3
1490984281954,1,1,-12,-7,-7,-14,2,2,1
1490984281955,2,9,-11,-1,2,13,12,3,11
1490984281955,2,3,-6,7,4,-3,5,-4,-4
1490984282001,3,8,-3,-1,-10,22,4,-2,7
1490984282001,3,-7,-13,-2,-1,15,-8,3,9
1490984282003,0,0,-5,9,-5,-34,-1,-1,-8
1490984282003,0,0,-8,-7,-1,4,2,-2,-9
1490984282004,2,-12,3,-6,1,-2,0,-5,-3
1490984282004,2,2,3,9,2,2,-19,-2,4
1490984282005,3,11,8,-5,-7,-56,-6,10,4
1490984282005,3,1,0,-3,1,13,0,4,12
1490984282050,0,7,13,1,-8,-22,2,-5,5
1490984282050,0,8,-7,-5,-1,2,-12,2,2
1490984282051,1,-2,13,12,-1,9,1,-4,1
1490984282051,1,5,2,1,-3,6,-1,0,-6
1490984282052,2,-6,13,6,-10,-22,1,1,4
1490984282052,2,2,-1,-12,0,5,0,-4,2
1490984282053,3,-14,0,6,9,25,0,-5,-6
1490984282053,3,-1,-10,0,0,1,7,4,0
1490984282099,0,3,6,8,4,-1,-2,1,0
1490984282099,0,5,4,9,-2,-17,2,-1,6
1490984282101,1,-13,-4,-13,-6,9,4,-2,6
1490984282101,1,2,11,-6,-5,20,3,-3,-12
1490984282102,3,-2,-16,-27,-21,-1,-1,2,12
1490984282102,3,-14,9,1,9,5,-2,-5,-20
1490984282103,0,5,12,10,-3,-23,7,6,8
1490984282103,0,-2,3,1,-7,-10,0,-1,-1
1490984282148,1,11,-8,6,5,23,-2,-10,-14
1490984282148,1,4,1,-17,-2,-26,-5,-12,11
1490984282149,2,0,16,19,5,10,0,-6,1
1490984282149,2,9,17,-11,-4,-11,-4,2,13
1490984282151,0,7,-18,-27,-7,9,-2,-8,-13
1490984282151,0,-28,-49,1,22,18,1,2,-2
1490984282153,1,-4,-22,-2,-8,3,-1,1,3
1490984282153,1,-2,-15,24,14,-12,1,-1,15
1490984282196,2,-15,-23,-25,-16,12,0,-6,-27
1490984282196,2,0,5,9,0,-6,-3,-6,1
1490984282198,3,25,-27,-39,7,-2,5,-18,2
1490984282198,3,-5,-23,36,17,5,-5,-5,1
1490984282199,1,20,70,-2,-3,-7,-5,3,-11
1490984282199,1,-15,78,16,0,-2,-8,8,-4
1490984282200,2,3,48,-22,-6,4,-15,1,6
1490984282200,2,10,2,-13,-3,10,-6,-9,15
1490984282245,3,-47,-1,2,-2,11,3,5,-11
1490984282245,3,58,11,40,-7,-3,1,2,13
1490984282246,0,-31,16,-19,0,0,1,-2,-13
1490984282246,0,-15,61,19,13,8,-5,-8,-14
1490984282247,2,-4,-77,-25,13,25,7,-3,-6
1490984282247,2,3,-60,1,-10,-4,6,-3,20
1490984282248,3,13,-99,5,-1,-10,8,3,11
1490984282248,3,4,-112,17,10,-8,20,9,7
1490984282295,0,18,-95,77,12,6,16,-14,-3
1490984282295,0,27,33,-36,-24,-2,-7,10,-12
1490984282296,1,-53,84,4,3,7,-20,-1,-8
1490984282296,1,3,127,-54,-21,-14,-21,-1,-26
1490984282297,3,15,-54,-3,24,6,3,2,24
1490984282297,3,-11,-22,18,8,13,-1,-4,-16
1490984282298,0,-8,-40,-19,-8,-11,13,6,-1
1490984282298,0,-20,-70,-13,-8,9,4,-1,-14
1490984282343,1,41,-122,34,7,7,1,-6,4
1490984282343,1,-20,-128,-78,-18,-6,25,-8,24
1490984282344,2,4,63,19,4,9,4,4,5
1490984282344,2,21,123,-35,-16,-31,-3,5,9
1490984282345,0,9,57,-18,-29,-7,-1,7,-1
1490984282345,0,11,34,86,24,-4,-2,-3,7
1490984282346,1,-41,3,-35,45,3,-23,-6,-22
1490984282346,1,46,-34,-63,-66,2,-2,1,29
1490984282392,2,-3,-31,41,7,1,4,-3,5
1490984282392,2,-30,-94,11,61,11,20,-2,0
1490984282393,3,33,-128,15,93,17,21,-1,42
1490984282393,3,34,-123,1,60,23,29,-9,12
1490984282394,1,-63,127,-22,-102,-22,-49,2,-5
1490984282394,1,-32,127,-45,-43,-29,-43,-2,-36
1490984282395,2,5,-4,-11,37,19,-3,0,8
1490984282395,2,4,-7,17,27,-16,4,0,7
1490984282440,3,31,-70,-52,-13,19,24,0,16
1490984282440,3,-18,-53,68,53,2,53,-3,-10
1490984282442,0,13,-110,-26,96,22,65,-2,15
1490984282442,0,19,-123,-3,48,14,51,-3,21
1490984282443,1,-4,-88,65,-10,10,37,-2,3
1490984282443,1,11,60,-4,-95,-39,-83,8,-1
1490984282444,2,-47,94,3,-52,-28,-67,17,-32
1490984282444,2,31,119,-55,-41,-18,-45,-10,-9
1490984282489,3,-49,121,-57,-30,-10,-27,-1,10
1490984282489,3,41,44,82,56,38,44,-4,-13
1490984282491,0,3,-36,-9,78,19,-13,1,23
1490984282491,0,-21,-120,-54,20,35,-63,3,-11
1490984282492,2,-7,-37,-5,35,-5,86,-7,-1
1490984282492,2,14,-32,42,25,35,126,-4,3
1490984282493,3,17,1,21,11,32,52,-11,8
1490984282493,3,-48,-59,-31,7,16,-33,-2,-12
1490984282537,0,22,25,28,-51,-57,-95,-4,9
1490984282537,0,6,113,-39,-10,-31,-99,-1,-20
1490984282539,1,-16,41,0,-3,-2,-49,5,-21
1490984282539,1,14,-14,39,-10,11,-16,4,22
1490984282540,3,-36,-50,-13,7,-32,6,1,-14
1490984282540,3,19,40,-32,-6,-28,12,-1,0
1490984282541,0,-10,48,-7,-40,-10,79,-2,-21
1490984282541,0,-31,20,70,-11,-13,68,-2,16
1490984282635,1,62,-109,-45,46,20,111,-4,3
1490984282635,1,21,-57,-22,8,-10,10,-4,7
1490984282636,2,-4,-6,104,0,-15,-68,0,2
1490984282636,2,30,-89,-41,13,-77,-74,-1,27
1490984282637,0,-112,127,-45,-30,23,-64,2,-28
1490984282637,0,75,-15,2,-28,-59,-76,1,-14
1490984282638,1,127,2,-13,-19,-128,-48,0,-22
1490984282638,1,-2,-26,-61,9,-21,31,-6,2
1490984282684,2,-59,-69,20,22,101,72,-3,35
1490984282684,2,-23,-44,33,23,104,46,4,15
1490984282685,3,-70,-29,48,54,-71,-11,-2,45
1490984282685,3,25,-3,-2,7,-128,-58,-1,-18
1490984282686,2,65,-52,34,78,89,78,0,12
1490984282686,2,-27,37,16,22,120,97,-2,-5
1490984282687,3,-36,28,-88,54,-34,22,-2,-70
1490984282687,3,-77,-45,-112,74,-95,20,3,-91
1490984282733,0,-126,-31,-78,-20,3,-2,-2,-76
1490984282733,0,-94,-103,-3,127,76,-20,-1,29
1490984282734,1,81,-18,-45,117,125,-22,2,-20
1490984282734,1,123,71,-79,102,127,-44,-5,-70
1490984282735,3,-128,-47,93,-108,-87,-47,4,79
1490984282735,3,-112,-128,83,-128,-105,-44,0,76
1490984282736,0,-22,-60,44,-103,69,-29,5,39
1490984282736,0,-5,-9,24,33,103,32,-1,-2
1490984282782,1,-36,-26,40,93,127,76,2,-22
1490984282782,1,4,-52,41,-13,73,50,0,-2
1490984282783,2,69,-37,-20,-1,-119,19,2,17
1490984282783,2,27,-7,-52,23,-128,12,0,-7
1490984282784,3,19,8,-17,-25,-128,-20,0,-11
1490984282784,3,6,62,13,-110,-21,21,2,36
1490984282785,0,-103,-80,117,81,86,22,-5,109
1490984282785,0,43,-97,-88,-32,92,-10,0,-37
1490984282831,1,70,103,-86,-73,47,-20,3,-92
1490984282831,1,115,89,-112,-105,-73,-12,2,-75
1490984282832,2,-42,80,-96,-95,-128,12,-1,-81
1490984282832,2,-108,-26,-2,53,-103,0,5,15
1490984282833,0,54,-8,-117,11,57,-41,-1,39
1490984282833,0,97,-72,-128,-109,-11,-51,-3,111
1490984282834,1,102,-46,-24,-128,92,1,-5,117
1490984282834,1,105,28,103,-114,19,85,-5,127
1490984282880,2,-46,106,108,-8,-88,15,-1,-84
1490984282880,2,-11,127,110,45,-117,-77,0,-101
1490984282881,3,-128,86,113,124,-128,-128,-5,-128
1490984282881,3,-128,-6,61,127,115,-18,0,-115
1490984282882,1,90,83,-89,-92,-15,74,-4,-104
1490984282882,1,-92,90,-109,-124,-101,-14,3,-21
1490984282883,2,-46,-1,-128,-128,-128,-44,-2,58
1490984282883,2,-128,-55,-60,-68,-128,-44,0,110
1490984282928,3,-76,-117,-32,-27,-110,-32,2,127
1490984282928,3,-34,-117,26,-45,-127,-74,-7,70
1490984282931,0,101,-11,-19,-66,-98,-128,1,28
1490984282931,0,-11,14,-15,-14,87,5,-3,42
1490984282932,2,55,-6,-20,127,-50,74,-4,-20
1490984282932,2,46,52,-13,3,-111,-14,-6,1
1490984282934,3,109,43,-71,-109,-128,-44,-1,36
1490984282934,3,-50,-5,-69,-115,-95,-44,2,25
1490984282977,0,82,1,-125,-128,-6,-19,-1,27
1490984282977,0,64,27,-64,-33,-11,-9,2,2
1490984282978,1,21,27,24,-28,-18,3,0,28
1490984282978,1,-3,1,35,-10,8,-7,5,-14
1490984282979,3,15,-28,72,21,26,-1,-2,13
1490984282979,3,34,-57,6,50,5,-13,-5,-3
1490984282980,0,-24,17,13,-14,19,4,-1,-30
1490984282980,0,51,13,20,-8,-1,1,0,-25
1490984283029,1,-104,-4,16,30,3,-7,-3,-10
1490984283029,1,25,-7,35,22,6,0,2,6
1490984283030,2,-14,-36,-11,8,15,6,1,-22
1490984283030,2,-60,25,15,1,9,0,2,14
1490984283032,0,55,29,2,-11,2,0,1,2
1490984283032,0,-44,-34,-18,36,17,-1,-2,-7
1490984283033,1,-2,-12,-13,0,-3,1,-1,5
1490984283033,1,34,14,13,-3,-5,-4,1,-15
1490984283074,2,-46,-12,-4,-6,14,6,-4,-11
1490984283074,2,18,21,15,-25,-5,4,1,-5
1490984283076,3,-17,-47,4,44,2,-4,2,3
1490984283076,3,104,27,0,-38,-4,-7,0,2
1490984283077,1,-26,29,48,-23,-8,-2,-1,-11
1490984283077,1,21,-20,22,2,2,4,-1,-14
1490984283078,2,30,57,19,10,4,-7,0,-18
1490984283078,2,41,-50,-27,14,3,0,0,-6
1490984283123,3,-32,-32,-45,0,5,4,2,11
1490984283123,3,-31,15,68,-20,-8,-4,-1,-14
1490984283125,0,31,-11,-2,5,-1,1,1,-7
1490984283125,0,-16,36,-7,16,-1,-2,0,-3
1490984283126,1,25,-37,-34,4,2,-5,0,-25
1490984283126,1,-7,64,52,-30,-4,0,-3,22
1490984283127,2,-55,-82,-37,8,21,9,1,-31
1490984283127,2,49,81,90,52,-7,-5,-4,19
1490984283173,3,-27,-37,-112,-21,-6,0,0,-9
1490984283173,3,18,-5,-10,-86,-17,-3,1,8
1490984283175,0,31,10,-10,-16,13,4,2,5
1490984283175,0,15,5,83,-25,-2,0,-5,14
1490984283176,2,77,21,1,-68,-10,-3,-1,-7
1490984283176,2,-91,-33,-13,-21,-7,1,1,-16
1490984283177,3,105,23,19,-23,-1,2,-1,17
1490984283177,3,-41,1,-29,36,17,-1,0,33
1490984283220,0,10,-55,-23,-21,-3,3,-5,44
1490984283220,0,-50,-18,13,30,8,2,3,-13
1490984283223,1,-35,103,72,-21,-17,-8,7,-55
1490984283223,1,7,-99,-79,25,7,8,-4,27
1490984283224,3,-49,-65,12,27,11,-1,-4,6
1490984283224,3,-57,-72,-50,21,18,5,-1,-16
1490984283227,0,67,68,80,55,-6,-8,-4,-15
1490984283227,0,-46,-57,-110,25,-4,1,-3,-16
1490984283269,1,4,75,83,-61,-5,1,-3,26
1490984283269,1,24,6,-68,-20,-7,3,-2,-4
1490984283271,2,26,61,17,5,3,-2,-2,20
1490984283271,2,-69,-38,101,3,12,-1,-3,-4
1490984283272,0,-64,-26,36,1,3,9,1,-38
1490984283272,0,26,-21,-112,17,25,-5,4,14
1490984283280,1,32,18,-17,-67,13,5,0,43
1490984283280,1,-2,13,63,-23,-32,-6,-2,-1
1490984283318,2,33,54,27,-26,-18,-5,5,-3
1490984283318,2,-57,-29,127,78,5,-5,-3,-36
1490984283320,3,-30,-36,-127,-33,3,-4,-2,-12
1490984283320,3,61,-1,52,-57,-27,2,-3,15
1490984283322,1,51,33,1,-44,1,-4,1,-22
1490984283322,1,-45,63,97,-5,6,-7,1,-1
1490984283329,2,-12,-97,-53,4,-5,-1,2,25
1490984283329,2,54,127,-37,-49,-20,3,3,-44
1490984283367,3,-83,-128,-65,49,18,2,1,38
1490984283367,3,31,68,-71,-29,0,2,1,21
1490984283369,0,63,-30,91,12,39,10,-3,-42
1490984283369,0,-73,51,25,62,7,-5,-2,-2
1490984283370,2,42,-71,-112,25,32,4,-1,-1
1490984283370,2,37,17,104,-7,-7,4,-2,-38
1490984283371,3,-48,28,65,26,26,8,2,7
1490984283371,3,79,45,51,-13,-14,-8,2,-7
1490984283415,0,-36,-28,-128,-2,-25,-13,-2,49
1490984283415,0,1,-32,-42,-70,7,0,-3,-53
1490984283417,1,28,26,98,51,8,0,0,7
1490984283417,1,-8,16,21,92,20,-4,-1,-15
1490984283419,3,13,-43,10,7,-12,11,-5,4
1490984283419,3,-32,11,58,-5,1,1,1,-12
1490984283420,0,-2,4,-3,-33,0,-5,-2,9
1490984283420,0,-8,11,76,62,22,-2,-2,15
1490984283464,1,-15,1,-82,-18,8,1,3,-28
1490984283464,1,76,50,-17,-51,-37,-1,-5,-8
1490984283466,2,-81,-75,69,29,34,10,2,8
1490984283466,2,29,1,-25,-13,-29,-3,1,27
1490984283467,3,-12,-8,13,40,23,9,0,5
1490984283467,3,-22,-26,-65,-1,9,2,2,-7
1490984283468,0,34,88,44,-28,-26,-11,0,11
1490984283468,0,-31,-42,-28,-23,2,4,-5,18
1490984283513,1,33,-66,-43,18,13,5,1,39
1490984283513,1,-57,-74,-99,4,0,-3,-3,-27
1490984283515,2,15,6,111,-9,3,3,1,2
1490984283515,2,47,55,0,30,39,1,-1,27
1490984283516,0,-27,-19,82,27,20,4,-4,23
1490984283516,0,17,-28,-109,15,-13,-8,0,12
1490984283517,1,-12,-14,127,-18,5,-9,2,-27
1490984283517,1,-34,71,97,16,34,5,-4,0
1490984283610,2,11,-7,-76,-5,-23,2,-3,-10
1490984283610,2,46,-12,-84,-56,-20,-9,0,53
1490984283612,3,-15,49,-15,18,-13,-2,-1,-55
1490984283612,3,-30,-39,23,64,17,-4,-2,-2
1490984283613,1,4,38,31,23,-16,-11,-1,-33
1490984283613,1,45,-69,-99,-26,5,7,1,-9
1490984283614,2,-41,-13,-20,-25,27,0,-5,-19
1490984283614,2,4,-25,-47,-24,-11,14,0,-5
1490984283659,3,11,29,99,1,8,2,-3,14
1490984283659,3,36,8,87,34,-1,-10,-1,-1
1490984283708,0,-73,2,-128,-47,-39,-9,-3,-11
1490984283708,0,38,19,72,-7,-10,2,-1,7
1490984283709,2,35,123,7,-2,-3,1,1,19
1490984283709,2,-48,102,36,4,-11,0,1,-18
1490984283711,3,-23,-25,-128,-74,-58,-5,0,4
1490984283711,3,-10,-41,29,-26,-4,16,1,16
1490984283712,0,18,-7,100,37,8,-1,-1,-1
1490984283712,0,6,-27,-48,-33,15,5,3,-3
1490984283757,1,18,52,127,62,15,-19,-5,-5
1490984283757,1,-11,-65,-120,-14,-20,2,6,-17
1490984283758,0,12,-17,-9,-9,19,-7,1,-2
1490984283758,0,20,-67,-40,0,-29,6,2,0
1490984283759,1,22,27,-82,-42,-32,-9,3,37
1490984283759,1,-14,87,80,18,16,-4,-3,-17
1490984283760,1,6,-27,-66,-9,8,8,-1,-2
1490984283760,1,0,14,94,-28,8,-20,4,1
1490984283805,2,15,18,-89,-5,-16,-3,-1,17
1490984283805,2,5,-3,98,23,1,-7,-2,-11
1490984283808,3,-16,-19,-103,7,9,12,-2,10
1490984283808,3,12,-2,-52,4,-8,3,-5,-7
1490984283810,2,-1,79,-87,-13,35,16,-3,-7
1490984283810,2,-6,-17,1,2,27,9,-2,-3
1490984283811,3,-4,-60,7,-3,2,3,0,2
1490984283811,3,-33,-63,-14,17,43,-10,-2,-16
1490984283854,0,24,-13,58,-11,-74,-22,-3,4
1490984283854,0,-11,-10,-20,19,2,26,-1,-2
1490984283856,1,-6,14,98,47,22,-1,-3,-18
1490984283856,1,24,-5,-90,-111,-43,-5,-2,20
1490984283857,2,-12,7,47,25,20,14,-6,-4
1490984283857,2,-23,0,-4,-9,31,13,-12,-1
1490984283858,3,11,7,36,29,26,-3,1,2
1490984283858,3,-2,-9,60,58,39,-23,5,4
1490984283903,0,5,-61,-33,-39,-71,-10,5,-7
1490984283903,0,1,29,-57,-59,-57,4,-1,-9
1490984283904,1,0,43,2,14,48,19,-1,9
1490984283904,1,9,61,123,78,13,-6,-9,7
1490984283906,3,5,-44,-20,-29,-17,15,1,9
1490984283906,3,0,-70,75,64,54,39,3,-6
1490984283908,0,22,-40,48,36,2,24,-5,22
1490984283908,0,2,-37,74,5,32,12,-1,3
1490984283952,1,-12,12,34,-21,-34,-53,5,-4
1490984283952,1,-8,33,94,-6,-66,-26,1,-4
1490984283953,2,6,20,-9,6,0,-1,-4,0
1490984283953,2,-5,-10,-92,10,-13,-1,0,0
1490984283954,0,-10,43,24,21,-1,-2,7,-2
1490984283954,0,21,-11,62,36,-14,-13,1,15
1490984283955,1,5,-44,41,42,20,35,-4,-5
1490984283955,1,9,-8,54,21,-6,-16,-6,28
1490984284001,2,-3,-21,5,47,88,-4,2,-15
1490984284001,2,29,-37,-75,-60,-16,10,-10,27
1490984284003,3,44,-48,110,88,-26,41,-3,9
1490984284003,3,22,-39,-73,57,23,54,-13,16
1490984284004,1,-128,126,-61,-10,9,2,-7,43
1490984284004,1,70,-70,83,4,73,55,1,54
1490984284005,2,124,-115,-54,-52,-20,44,1,-43
1490984284005,2,127,37,36,-39,-74,29,5,-64
1490984284049,3,28,76,-72,-58,-105,-39,-3,-26
1490984284049,3,-21,127,-39,-32,-128,-98,-6,-32
1490984284050,0,48,75,-6,28,-67,-26,-3,58
1490984284050,0,98,52,64,94,-114,14,5,65
1490984284050,2,-59,-47,-52,-120,68,-128,-10,-58
1490984284050,2,-77,-66,-32,-9,127,-128,-4,-49
1490984284051,3,-85,-65,13,41,127,-112,0,-29
1490984284051,3,-90,-102,14,-22,-61,48,5,20
1490984284097,0,-88,-79,68,60,-127,101,1,64
1490984284097,0,-70,-39,91,63,-85,127,3,24
1490984284098,1,120,-17,9,-89,43,127,3,-85
1490984284098,1,122,40,-128,-128,63,89,1,-68
1490984284099,3,-128,-7,-33,-61,20,55,-3,17
1490984284099,3,62,-63,-56,-58,37,-32,-1,-128
1490984284100,0,68,121,127,107,106,74,-2,-53
1490984284100,0,-78,40,-76,7,127,-128,-12,95
1490984284146,1,111,-107,-119,-103,115,-123,8,97
1490984284146,1,65,-38,-95,-100,-112,-58,-1,127
1490984284147,2,127,-87,-128,-128,-119,76,-4,0
1490984284147,2,33,20,-128,-128,86,111,5,-82
1490984284148,0,-83,-120,102,54,104,35,-1,-67
1490984284148,0,-36,-87,127,81,22,92,0,-70
1490984284149,1,-14,-91,99,80,-9,18,-4,-69
1490984284149,1,-28,-29,106,127,26,-33,5,-24
1490984284195,2,17,-32,47,69,55,-49,-4,-6
1490984284195,2,46,-100,-18,-27,87,54,-2,-18
1490984284196,3,42,-104,-33,-61,120,125,0,3
1490984284196,3,27,-42,-55,-68,3,127,-2,-4
1490984284196,0,-128,15,-15,-40,-100,123,-1,127
1490984284196,0,-56,72,84,42,-126,97,-2,-14
1490984284198,1,-38,122,127,127,-115,-78,-5,-92
1490984284198,1,-18,127,127,127,-119,-97,-2,-52
1490984284244,2,27,99,84,65,-71,-128,-1,-23
1490984284244,2,66,45,76,51,-91,-128,-2,23
1490984284244,3,19,55,37,23,-79,-93,-6,84
1490984284244,3,-24,15,-1,-8,-2,-103,4,15
1490984284245,1,5,-12,-28,-12,16,-14,5,-13
1490984284245,1,-10,10,-15,-14,0,-19,6,27
1490984284246,2,-5,0,-26,-28,25,-5,-2,6
1490984284246,2,11,-16,-28,-33,16,-13,6,4
1490984284292,3,-8,-14,-10,11,20,8,-11,-14
1490984284292,3,-17,4,-3,-4,-21,34,-10,25
1490984284293,0,-8,14,-5,-13,35,-19,-3,-17
1490984284293,0,10,-19,-29,-22,23,-30,-2,-2
1490984284294,2,2,5,-6,-12,14,-4,2,20
1490984284294,2,16,-11,-4,-4,22,-7,-2,1
1490984284295,3,10,10,10,11,-11,12,7,25
1490984284295,3,-16,2,9,16,32,-8,-3,-6
1490984284341,0,-8,-20,-24,-25,-12,-2,-6,-25
1490984284341,0,20,-2,-6,-15,-65,-27,3,10
1490984284342,1,2,-3,-9,-10,-1,8,-9,-6
1490984284342,1,4,10,0,0,-18,12,-3,-13
1490984284343,3,-1,-3,-1,-14,-27,7,-2,17
1490984284343,3,-2,-11,-7,6,40,3,2,10
1490984284344,0,11,3,6,-7,-52,1,-2,13
1490984284344,0,-5,-5,4,-7,3,3,-4,-11
1490984284391,1,5,-4,-10,1,8,-4,4,-20
1490984284391,1,-14,8,13,5,-1,-2,1,-6
1490984284393,2,-8,-9,-8,-9,9,-1,0,2
1490984284393,2,10,1,-14,-13,-13,7,-6,7
1490984284393,0,2,-8,-20,-13,8,2,0,-6
1490984284393,0,1,3,3,-3,-18,-6,4,3
1490984284394,1,-5,-6,-7,3,-14,7,-1,0
1490984284394,1,-8,2,-2,-10,-1,5,-4,6
1490984284439,2,1,10,13,3,6,-4,1,-3
1490984284439,2,-4,-10,-5,0,25,-7,-3,-8
1490984284440,3,11,17,12,0,-33,4,2,6
1490984284440,3,-12,-3,-16,8,5,3,-1,-15
1490984284442,1,-12,-8,-2,-6,4,3,-5,-14
1490984284442,1,-11,5,20,8,28,-10,-1,0
1490984284442,2,10,18,8,7,-1,-4,-6,-7
1490984284442,2,-2,-12,0,5,23,6,-4,-11
1490984284488,3,-5,5,-6,-18,-4,-7,2,16
1490984284488,3,5,-10,-29,-7,-36,6,-1,14
1490984284489,0,2,-6,-10,-14,11,4,3,3
1490984284489,0,2,19,25,-2,-5,5,-5,-19
1490984284490,2,-20,14,19,22,22,5,1,-9
1490984284490,2,-11,18,-41,-29,-18,-2,2,-17
1490984284491,3,-4,3,-19,-21,-2,7,3,33
1490984284491,3,13,-6,5,8,20,7,-2,-19
1490984284536,0,-9,-8,39,18,-15,-1,3,2
1490984284536,0,4,-1,-18,8,29,-1,7,-17
1490984284538,1,9,2,-22,-26,-40,-10,-3,3
1490984284538,1,-19,-25,-3,-13,9,15,5,13
1490984284538,2,23,4,7,1,-24,-7,-4,-24
1490984284538,2,-42,-47,3,3,6,0,-1,17
1490984284539,3,-3,-10,52,16,4,3,3,-7
1490984284539,3,17,13,-22,-6,12,-14,2,-8
1490984284585,0,-3,-5,-21,-16,-8,8,0,17
1490984284585,0,18,-4,-21,0,2,-9,-1,1
1490984284587,1,-15,-5,36,16,16,-1,-5,-10
1490984284587,1,-21,-7,24,10,5,0,-3,-28
1490984284588,3,2,15,-54,-13,-5,6,4,7
1490984284588,3,-22,50,19,-11,-20,-9,-3,14
1490984284589,0,-5,48,-37,-3,4,3,3,-21
1490984284589,0,-18,-16,-6,-15,8,5,6,4
1490984284634,1,16,-1,30,9,13,-7,1,7
1490984284634,1,22,-11,3,-11,-46,-5,3,8
1490984284635,2,-21,-35,-38,-22,13,-3,3,14
1490984284635,2,22,-28,-15,-1,1,9,2,7
1490984284637,0,18,-109,17,13,8,-7,-7,14
1490984284637,0,1,-40,17,7,-1,5,-3,9
1490984284637,1,-13,95,-38,-32,0,-22,-4,-34
1490984284637,1,-32,127,33,-31,-38,-11,-3,-29
1490984284683,2,-29,127,-38,1,1,-1,-6,-5
1490984284683,2,-9,44,18,-20,-6,-6,-3,14
1490984284684,3,-4,-45,-29,10,-8,8,-13,-1
1490984284684,3,-2,-42,5,-2,0,6,-7,12
1490984284685,1,27,-77,62,23,28,12,5,9
1490984284685,1,7,27,-43,-21,-7,18,-11,12
1490984284686,2,-4,112,10,-32,-17,-4,7,0
1490984284686,2,4,127,-23,-17,5,-27,2,-5
1490984284780,3,-1,121,25,-22,-39,-37,-18,-2
1490984284780,3,-2,15,3,0,4,-26,-5,-14
1490984284782,0,12,-79,6,6,-5,-11,-4,3
1490984284782,0,-78,-113,18,27,19,-12,-5,-20
1490984284784,2,24,-7,15,-6,-2,6,-3,-1
1490984284784,2,31,0,35,-8,-3,21,-49,21
1490984284785,3,-28,16,21,27,-3,16,5,6
1490984284785,3,13,58,-45,-29,-14,25,-8,-3
1490984284829,0,-12,7,-30,-5,12,32,3,-7
1490984284829,0,2,22,-1,0,28,-13,3,0
1490984284831,1,10,-39,17,11,1,-16,-2,-5
1490984284831,1,25,-28,2,-15,9,-15,0,6
1490984284833,3,-24,111,-42,-29,-28,-13,-10,-20
1490984284833,3,-3,24,20,4,-5,-2,3,-5
1490984284834,0,34,35,-90,27,38,-30,-6,26
1490984284834,0,-25,17,35,-38,-10,-76,7,-3
1490984284878,1,-24,99,-23,-24,-9,-61,2,-30
1490984284878,1,-1,110,-37,-9,-25,-56,0,-23
1490984284880,2,-4,34,16,-54,-23,-46,-2,-22
1490984284880,2,-39,-108,-27,23,-6,-23,-3,19
1490984284881,0,7,34,4,0,-21,89,-3,34
1490984284881,0,29,41,67,19,28,64,7,-23
1490984284882,1,27,-84,87,57,37,-6,5,38
1490984284882,1,-44,-128,6,99,81,-49,4,-6
1490984284927,2,10,-96,33,-21,-17,-64,-4,15
1490984284927,2,33,-100,-49,-40,-28,-27,-4,8
1490984284929,3,8,76,35,-46,0,-28,-6,-25
1490984284929,3,29,116,-99,-119,-46,-17,-4,-9
1490984284930,1,-34,-78,-100,-40,-83,-33,-1,3
1490984284930,1,-8,-58,-19,3,23,42,1,28
1490984284931,2,31,-37,76,50,84,70,-5,15
1490984284931,2,14,18,79,6,58,-35,2,4
1490984284975,3,12,64,29,11,-36,-40,8,-9
1490984284975,3,-47,26,-2,-13,-53,-44,0,21
1490984284977,0,31,-69,-31,-3,-68,34,-6,1
1490984284977,0,70,-87,82,46,25,62,-3,-5
1490984284978,2,-49,127,46,18,-93,-29,3,-18
1490984284978,2,-42,2,-125,-90,-128,-99,0,-15
1490984284979,3,-63,-128,-72,-29,-128,-95,0,1
1490984284979,3,-2,-98,-66,-1,-1,-28,7,-7
1490984285024,0,7,-52,34,0,120,53,4,-4
1490984285024,0,18,27,-6,2,118,90,2,4
1490984285026,1,1,20,21,-24,127,74,-2,12
1490984285026,1,8,-27,22,-13,47,40,-8,-9
1490984285028,3,-37,-17,-48,35,29,22,-1,-19
1490984285028,3,2,-57,-4,18,84,-40,0,-1
1490984285029,0,-73,-121,37,45,122,-38,2,49
1490984285029,0,80,78,49,6,48,-29,2,-1
1490984285073,1,127,103,-40,-44,-102,-24,-3,12
1490984285073,1,-29,126,69,-1,-128,-2,-2,-6
1490984285074,2,-79,51,16,-64,-110,-6,-2,22
1490984285074,2,-103,-52,29,-83,58,13,3,32
1490984285080,0,23,-41,-77,-10,-113,-29,0,-2
1490984285080,0,24,-56,12,127,-128,14,-1,17
1490984285082,1,10,55,42,26,89,-14,-3,10
1490984285082,1,1,73,116,-62,113,22,-2,-12
1490984285123,2,6,69,-41,-107,127,-13,-3,-30
1490984285123,2,6,-10,-114,-128,-92,43,0,-20
1490984285125,3,-24,-91,-23,-55,-128,35,0,44
1490984285125,3,89,-64,-31,27,-128,-3,1,76
1490984285126,1,-59,-128,-27,127,-17,-40,0,-71
1490984285126,1,-72,-104,-33,127,110,-32,0,-63
1490984285127,2,-54,90,-35,29,127,15,0,-37
1490984285127,2,-108,58,45,-56,127,97,2,36
1490984285171,3,58,46,-98,-108,103,77,-4,-100
1490984285171,3,127,84,-59,-120,-85,2,-2,-26
1490984285175,0,-25,68,55,-128,-112,-48,5,40
1490984285175,0,-125,57,122,-103,-128,-40,-1,81
1490984285176,2,32,-51,-45,-23,-89,-31,-4,5
1490984285176,2,-11,-94,-37,36,-43,-24,0,12
1490984285219,3,61,112,33,73,-125,-72,0,47
1490984285219,3,85,94,85,96,-127,-117,1,76
1490984285221,0,120,67,127,-35,-48,-55,-3,127
1490984285221,0,109,-6,2,-104,73,81,-4,63
1490984285222,1,114,-42,-128,-125,116,127,-2,-12
1490984285222,1,-128,-74,-117,-38,124,127,3,-75
1490984285223,3,46,108,-26,-70,109,59,-1,86
1490984285223,3,67,-76,69,-122,106,-55,0,88
1490984285268,0,-29,-27,77,-68,-82,-78,2,-53
1490984285268,0,-124,81,111,86,-127,-65,-4,-128
1490984285269,1,-128,127,127,127,-117,-65,-1,-128
1490984285269,1,-114,17,127,127,106,-29,-3,-111
1490984285271,3,-75,-91,-103,-102,-97,-41,1,95
1490984285271,3,81,-7,-128,-128,-128,16,-4,114
1490984285275,0,122,14,-128,-115,-128,3,-2,127
1490984285275,0,127,59,-106,-128,-128,-34,0,127
1490984285317,1,126,1,-121,-82,-83,-6,3,91
1490984285317,1,52,16,-128,-66,-85,49,0,27
1490984285319,2,51,56,-88,-38,-55,113,-1,35
1490984285319,2,100,7,-80,-21,-28,76,1,0
1490984285320,0,-32,-4,19,24,14,-55,-4,-12
1490984285320,0,34,18,45,20,5,-32,-1,-5
1490984285321,1,-13,-9,52,58,29,-7,2,-26
1490984285321,1,-8,4,22,19,13,12,-2,-9
1490984285365,2,-18,16,35,22,42,8,-2,9
1490984285365,2,-17,-14,43,34,16,-3,-2,-8
1490984285367,3,35,4,10,8,5,-2,-1,-29
1490984285367,3,-29,30,44,12,4,15,-2,-16
1490984285368,1,-9,-16,12,20,18,5,0,-13
1490984285368,1,10,-6,29,-6,5,15,-3,18
1490984285369,2,52,21,-14,-10,-10,-4,0,-18
1490984285369,2,-37,-7,18,13,2,-4,-1,-2
1490984285414,3,-45,-34,-6,8,15,6,-2,-4
1490984285414,3,-31,22,34,-7,-1,4,-1,-6
1490984285415,0,-8,-47,-7,15,-1,0,-1,-3
1490984285415,0,96,29,16,2,5,-6,0,6
1490984285417,2,37,-1,-17,-12,-6,1,3,23
1490984285417,2,-2,-9,-26,-20,-2,-1,1,8
1490984285417,3,13,64,48,-15,4,-7,1,-32
1490984285417,3,-36,-100,-27,35,6,3,-1,12
1490984285463,0,-3,29,4,10,11,0,-3,16
1490984285463,0,-55,-22,15,-13,-3,-2,0,-17
1490984285464,1,43,2,-9,-4,0,-6,-1,9
1490984285464,1,-19,8,26,-12,-4,-1,0,-8
1490984285465,3,48,30,61,-16,-4,-1,0,17
1490984285465,3,9,-13,-44,3,10,4,-1,-10
1490984285466,0,47,-6,6,1,-17,-1,4,11
1490984285466,0,-17,3,-6,-7,-1,-4,-1,3
1490984285512,1,-44,-16,-15,-4,10,-1,-1,-28
1490984285512,1,82,-17,-5,-13,-9,-2,-1,22
1490984285513,2,-107,27,46,-2,3,-7,-2,-10
1490984285513,2,63,49,44,-6,-1,-2,0,-13
1490984285514,0,29,-32,-27,-20,1,2,0,55
1490984285514,0,-15,21,40,25,-7,-2,-1,-9
1490984285515,1,4,-29,-47,-45,-10,-3,-6,-21
1490984285515,1,30,4,-9,-15,-1,1,-1,-1
1490984285561,2,42,14,55,-11,1,-6,0,-19
1490984285561,2,-44,11,-30,-5,3,1,-1,1
1490984285562,3,86,11,17,48,-7,-10,0,-15
1490984285562,3,-116,-29,-35,-14,12,7,-2,-6
1490984285563,1,8,-66,41,30,14,3,1,-2
1490984285563,1,-22,47,18,-21,0,2,-3,-15
1490984285564,2,41,-4,36,34,-2,-8,-1,-41
1490984285564,2,-78,-39,-43,18,3,0,-2,23
1490984285609,3,33,92,-42,-58,-19,-7,-1,34
1490984285609,3,-47,-103,-12,61,6,4,-2,6
1490984285611,0,-49,20,-53,-12,0,0,-1,-27
1490984285611,0,85,-9,43,-15,0,2,-6,-15
1490984285612,1,-81,-14,40,5,16,3,-3,-10
1490984285612,1,73,69,-14,-53,-16,-7,-5,19
1490984285613,2,-72,-10,14,57,17,-1,3,-24
1490984285613,2,18,-9,-13,11,10,2,-2,9
1490984285658,3,-28,19,51,3,-9,0,-1,-3
1490984285658,3,1,-76,-34,19,19,5,1,12
1490984285659,0,2,40,5,-43,-2,-4,1,-30
1490984285659,0,14,4,6,-7,13,3,4,22
1490984285661,2,-42,-19,15,-35,-18,1,-3,-6
1490984285661,2,0,24,-11,1,3,-1,-3,-22
1490984285662,3,69,-20,-17,29,19,8,-2,10
1490984285662,3,-23,-10,30,59,7,2,-1,0
1490984285707,0,-7,9,44,6,9,5,-2,22
1490984285707,0,17,29,79,39,5,-19,0,-30
1490984285708,1,23,-54,-88,6,-9,0,2,-6
1490984285708,1,-68,37,-70,-87,-14,-2,0,-3
1490984285709,3,52,-14,13,14,1,4,-1,-6
1490984285709,3,-7,-36,89,78,3,-9,2,-45
1490984285711,0,7,24,20,42,4,-6,1,26
1490984285711,0,-14,0,-78,37,2,8,-5,17
1490984285756,1,-23,67,33,-62,-4,-6,1,-47
1490984285756,1,32,-10,21,-44,-23,0,-2,2
1490984285757,2,-75,-73,-106,-5,29,13,5,22
1490984285757,2,87,73,105,-37,-43,-1,1,62
1490984285758,0,75,49,54,-51,-1,-3,-4,13
1490984285758,0,-39,-34,-107,-50,12,-2,3,20
1490984285759,1,-32,-11,79,-34,-2,11,0,6
1490984285759,1,-6,1,-22,30,12,-6,-2,30
1490984285804,2,11,-9,32,36,-16,-4,0,-51
1490984285804,2,-15,-116,-37,-3,-12,5,2,14
1490984285806,3,3,96,-9,-32,30,3,-2,-36
1490984285806,3,13,-26,-34,14,-11,3,0,-19
1490984285853,1,48,-27,-102,-27,-24,-6,4,46
1490984285853,1,-62,-39,28,-52,40,14,2,25
1490984285854,2,14,67,26,108,15,-13,-1,-78
1490984285854,2,2,-36,-4,-69,-32,5,-2,-2
1490984285856,3,24,69,14,-48,-8,-7,-1,-28
1490984285856,3,9,-20,38,-10,-7,-4,-2,11
1490984285857,0,8,-36,30,69,3,-1,4,50
1490984285857,0,4,81,-33,-48,-2,-5,2,-35
1490984285950,2,-57,70,-41,3,8,-11,-1,4
1490984285950,2,82,-66,-30,-45,14,0,0,17
1490984285951,3,-87,-28,-3,-1,25,10,0,22
1490984285951,3,-2,51,-33,-30,-20,-12,3,-2
1490984285952,0,6,-22,39,-42,-10,3,-3,0
1490984285952,0,-12,-17,-66,9,73,5,-4,-16
1490984285953,3,12,-19,59,-21,47,6,-5,-58
1490984285953,3,72,-15,99,23,22,3,-4,71
1490984286000,0,-47,-37,-74,-22,-23,-16,-3,-13
1490984286000,0,-31,22,113,78,28,4,5,-44
1490984286001,1,34,-39,-98,39,-49,-18,3,34
1490984286001,1,-82,-32,-109,8,-27,-3,5,-57
1490984286048,3,-4,-27,-73,2,10,-11,-4,36
1490984286048,3,45,127,84,-76,-13,-2,0,0
1490984286050,0,-7,18,-100,-19,6,-1,-4,-27
1490984286050,0,3,15,-10,-41,-36,0,-1,35
1490984286051,1,16,-91,11,13,42,16,3,-6
1490984286051,1,-14,26,68,3,-15,1,-1,-38
1490984286052,2,0,28,77,3,-3,-16,-2,-7
1490984286052,2,40,54,-38,6,11,0,3,26
1490984286097,1,-11,-62,-4,4,38,-4,0,15
1490984286097,1,44,34,-97,-35,-45,7,5,32
1490984286098,2,10,38,90,22,16,-1,-2,-27
1490984286098,2,-45,54,7,15,26,-5,-3,12
1490984286099,3,7,-21,-43,-23,-66,-6,-1,14
1490984286099,3,6,-59,-53,-1,6,-11,-6,2
1490984286101,2,38,-2,-4,-12,-27,2,1,6
1490984286101,2,9,20,127,13,14,11,0,2
1490984286145,3,11,-98,-110,9,5,-11,-1,19
1490984286145,3,13,98,0,-11,-30,0,1,-17
1490984286147,0,-51,27,-27,1,28,2,-4,-51
1490984286147,0,21,7,-37,12,3,-10,-2,21
1490984286148,3,36,62,120,21,11,12,1,28
1490984286148,3,2,-45,-3,22,12,-1,-2,-16
1490984286149,0,45,-18,-106,-55,-38,-24,-2,37
1490984286149,0,-22,-68,68,52,28,6,-3,-25
1490984286194,1,-46,29,47,15,55,-22,-12,2
1490984286194,1,12,82,3,-39,-93,-7,-8,-10
1490984286195,2,17,27,42,2,1,15,6,-7
1490984286195,2,12,-33,0,31,-30,-12,7,-10
1490984286195,0,1,-52,-88,-60,-47,0,2,18
1490984286195,0,43,46,73,35,35,7,-5,9
1490984286196,1,-41,17,65,55,22,-18,2,-57
1490984286196,1,2,6,-75,-28,-49,-1,4,17
1490984286242,2,12,7,121,52,-17,4,-2,9
1490984286242,2,-13,25,-41,-8,-16,-11,5,-25
1490984286243,3,4,-58,-108,-86,-44,26,3,47
1490984286243,3,12,-21,55,40,42,26,4,13
1490984286244,1,9,-54,60,28,6,-3,3,-31
1490984286244,1,-7,42,-95,-21,19,6,5,1
1490984286245,2,-25,28,-63,-61,-33,35,-3,10
1490984286245,2,0,42,52,-1,49,4,0,-1
1490984286291,3,31,24,63,35,-21,-2,1,-7
1490984286291,3,-39,-47,127,42,4,-27,-1,-41
1490984286292,0,20,-43,-65,-3,-19,-17,-4,8
1490984286292,0,-29,-63,-9,-10,15,3,1,-9
1490984286293,2,-3,-16,-66,-28,-23,-32,0,4
1490984286293,2,-7,-9,20,-5,48,13,-1,-6
1490984286294,3,3,10,96,23,-85,11,-2,1
1490984286294,3,-2,-52,-95,-37,-57,6,-3,2
1490984286340,0,11,-2,-55,-25,24,-6,-3,19
1490984286340,0,-5,24,115,30,53,26,-4,-23
1490984286341,1,9,34,52,20,10,-9,-1,-12
1490984286341,1,-5,-34,-128,-61,22,22,-5,7
1490984286341,2,-6,-15,69,-15,-33,31,-1,4
1490984286341,2,8,19,-12,10,49,3,-1,3
1490984286342,3,20,-19,78,47,-8,-18,-2,27
1490984286342,3,45,-90,42,33,14,-18,2,2
1490984286389,0,-32,37,62,3,-38,-15,-2,-23
1490984286389,0,9,79,-92,-23,-36,1,-3,20
1490984286391,1,-24,84,-88,-63,20,-4,-1,4
1490984286391,1,10,10,-19,-57,19,12,0,17
1490984286393,3,13,6,-21,11,-1,-7,0,-10
1490984286393,3,-23,33,-24,-19,-17,7,-2,-1
1490984286394,0,-8,7,10,12,11,7,2,-15
1490984286394,0,-21,3,43,26,12,-1,-1,-6
1490984286438,1,-13,-36,-99,-50,-12,-5,5,-11
1490984286438,1,-27,27,-40,-57,18,6,-3,-30
1490984286439,2,2,45,5,15,-37,13,0,4
1490984286439,2,-1,-19,-91,-60,-128,-14,0,12
1490984286440,0,9,-25,83,43,55,-8,2,16
1490984286440,0,27,-8,107,72,69,42,-2,15
1490984286441,1,29,7,127,68,38,-11,-2,11
1490984286441,1,-2,-6,-75,-37,4,-16,1,-12
1490984286486,2,6,-28,-106,-95,15,-12,-3,12
1490984286486,2,-41,27,7,-59,6,-12,-1,-39
1490984286488,3,-26,14,-27,-67,8,7,-4,-16
1490984286488,3,34,25,-27,32,-66,4,-3,17
1490984286489,1,-10,48,-100,-11,13,-20,3,-39
1490984286489,1,-29,2,42,-21,-60,-22,-2,-6
1490984286491,2,-108,8,48,29,71,-29,-1,2
1490984286491,2,-128,8,92,90,53,79,-1,93
1490984286537,3,-89,-90,91,111,110,84,2,123
1490984286537,3,91,-107,-81,-71,-71,-9,1,-73
1490984286538,0,127,93,-118,-119,-31,-23,3,-108
1490984286538,0,120,102,-128,-128,-74,-74,7,-89
1490984286539,2,-128,-120,98,87,37,-23,-3,43
1490984286539,2,-57,-121,65,108,-90,-109,0,49
1490984286540,3,2,-102,58,28,-128,-22,0,63
1490984286540,3,64,47,127,125,-107,53,6,96
1490984286584,0,119,70,83,121,-128,-26,1,109
1490984286584,0,53,-11,-9,-23,2,-76,-2,30
1490984286586,1,60,-24,-91,-116,96,-128,-2,-19
1490984286586,1,-64,-38,29,-66,127,-109,-4,-103
1490984286587,3,-117,-99,-128,-72,-53,123,4,-119
1490984286587,3,-112,-84,-91,-49,96,127,-2,-126
1490984286595,0,-115,-19,43,12,96,127,1,-19
1490984286595,0,-87,48,12,18,127,119,-5,46
1490984286633,1,109,-87,-83,-101,-114,86,-2,-114
1490984286633,1,89,-4,44,1,-97,-66,1,-25
1490984286634,2,-64,52,64,30,-128,-123,-4,35
1490984286634,2,-125,119,113,92,-91,-128,0,82
1490984286636,0,16,-61,-47,-5,41,-55,1,48
1490984286636,0,43,-45,-70,-25,-39,-47,2,5
1490984286637,1,34,-2,35,38,73,7,-4,8
1490984286637,1,7,8,71,2,69,-28,1,3
1490984286681,2,43,4,37,-22,13,1,-2,-5
1490984286681,2,47,-9,19,-45,15,28,-3,3
1490984286683,3,45,4,15,-1,-8,-4,0,-10
1490984286683,3,-23,29,13,19,57,6,-2,-3
1490984286684,0,17,4,-4,-21,-49,8,-1,2
1490984286684,0,38,-37,-48,-46,17,2,-1,-42
1490984286686,1,7,24,17,2,-20,-16,-1,12
1490984286686,1,-6,27,4,3,-11,0,-2,21
1490984286730,2,17,3,-15,-13,-23,-1,0,-19
1490984286730,2,21,-23,-39,-17,2,-6,-3,-14
1490984286732,3,-7,2,8,-7,10,6,-6,12
1490984286732,3,-12,9,-14,15,7,7,1,8
1490984286733,1,-13,1,7,21,49,-5,0,-4
1490984286733,1,4,2,-19,-19,11,1,-3,20
1490984286734,2,3,1,-20,-11,36,-6,-6,-10
1490984286734,2,7,7,18,5,-45,3,-2,4
1490984286779,3,3,13,7,-4,7,1,5,-6
1490984286779,3,-6,4,-10,2,-43,-7,2,11
1490984286782,0,-3,0,7,5,17,11,2,-4
1490984286782,0,9,6,-2,-14,-37,-1,-2,4
1490984286783,2,-8,-2,2,14,9,2,-1,-22
1490984286783,2,-6,-18,3,2,13,5,-7,-13
1490984286784,3,10,16,15,12,-27,-19,-12,16
1490984286784,3,-2,-1,10,9,1,2,-1,1
1490984286829,0,1,-2,-10,-1,-26,1,1,12
1490984286829,0,1,-12,8,2,30,21,5,-28
1490984286832,1,-4,5,1,-4,-15,0,3,13
1490984286832,1,-13,-5,-18,10,30,1,3,-4
1490984286833,3,1,2,5,0,-16,-4,1,2
1490984286833,3,1,-4,4,0,-27,24,6,-14
1490984286835,0,4,1,2,9,-10,-14,2,6
1490984286835,0,0,-10,-14,-10,-12,-10,0,3
1490984286876,1,0,-4,-12,-3,19,-2,0,16
1490984286876,1,-1,1,-3,-1,18,-10,-1,19
1490984286878,2,11,23,35,-4,-66,8,-4,16
1490984286878,2,2,-7,3,5,16,-2,-5,-4
1490984286879,0,-1,-32,-29,-10,24,13,4,15
1490984286879,0,12,8,-6,-17,3,1,5,-10
1490984286881,1,-21,-1,21,13,10,5,-1,-11
1490984286881,1,-9,-18,-10,5,6,-6,-6,-4
1490984286925,2,-1,19,5,-2,13,-4,-1,-29
1490984286925,2,-4,8,-8,-14,-35,-1,-2,8
1490984286927,3,1,4,-6,-12,-5,-3,0,5
1490984286927,3,-5,18,-10,-17,-15,-9,0,17
1490984286928,1,8,20,-8,-24,-60,2,4,-3
1490984286928,1,-3,-16,8,-3,-3,0,-4,-22
1490984286929,2,25,12,-9,-12,-11,-11,2,-3
1490984286929,2,-36,-10,18,9,13,4,1,1
1490984286974,3,0,13,-4,2,1,-5,-3,12
1490984286974,3,11,-6,10,1,3,-2,0,5
1490984286976,0,-21,0,-35,-10,-10,-4,2,-9
1490984286976,0,31,25,-18,-9,7,2,-6,3
1490984286977,2,2,13,28,22,0,-8,-4,-26
1490984286977,2,-4,-55,-41,-33,6,-3,-1,-8
1490984286978,3,-26,-19,-22,-16,1,1,1,-12
1490984286978,3,15,22,-17,-28,-27,-4,0,9
1490984287023,0,7,-21,11,14,1,5,-1,7
1490984287023,0,0,16,12,23,-1,0,3,-10
1490984287024,1,-14,-44,47,17,19,3,0,-17
1490984287024,1,1,-4,-25,-9,-4,-17,5,-22
1490984287025,2,7,23,18,-10,23,-4,-8,6
1490984287025,2,-9,4,-58,-16,-28,1,-2,35
1490984287026,3,5,28,-7,-1,31,5,4,5
1490984287026,3,-9,29,14,-11,-7,-4,-5,-14
1490984287072,0,25,-14,-1,-2,-25,-6,-6,13
1490984287072,0,-5,17,6,2,-3,0,-2,-13
1490984287074,1,-29,-8,-21,-13,13,10,-12,-6
1490984287074,1,19,-39,26,15,3,17,-1,-2
1490984287075,3,9,-19,6,23,11,6,0,-5
1490984287075,3,0,-1,-69,-11,0,-6,-2,6
1490984287076,0,0,-12,14,-5,1,1,1,2
1490984287076,0,-9,-12,11,25,-3,-4,1,-9
1490984287122,1,30,17,-1,-33,-4,-12,-4,10
1490984287122,1,-27,-13,-41,-20,0,3,-3,-1
1490984287123,2,14,13,7,10,-28,1,1,8
1490984287123,2,17,-26,26,-17,-11,0,4,9
1490984287125,0,-13,6,14,-14,-7,8,-6,-10
1490984287125,0,-5,46,79,2,-10,-6,-2,-42
1490984287126,1,4,-23,-24,17,-11,-9,-2,-1
1490984287126,1,-14,29,-24,-5,15,-16,-1,-13
1490984287218,2,11,14,-13,-8,-13,-1,-3,11
1490984287218,2,9,40,4,-2,7,0,0,-15
1490984287219,3,-2,4,-47,-25,-7,4,-2,4
1490984287219,3,-6,0,87,3,-16,7,-7,24
1490984287220,1,28,-47,-41,-7,5,3,-2,1
1490984287220,1,-22,9,42,22,16,-7,0,-6
1490984287222,2,-1,-3,27,-4,14,-1,0,5
1490984287222,2,28,-44,30,26,-7,-4,-1,17
1490984287271,3,-16,-55,36,16,27,-4,2,24
1490984287271,3,-13,20,-38,-25,-40,4,-1,-37
1490984287272,0,-7,20,-48,-30,8,-5,-3,-9
1490984287272,0,10,116,-25,-34,-19,-22,-2,4
1490984287274,2,-5,-12,-54,-16,7,4,-3,-21
1490984287274,2,-24,-32,-74,1,24,8,-1,41
1490984287275,3,6,28,12,35,-2,13,-4,5
1490984287275,3,-29,38,10,6,39,23,0,-19
1490984287315,0,-5,-30,49,4,15,23,1,-2
1490984287315,0,0,-35,-29,28,23,-10,-3,-12
1490984287317,1,-11,52,26,-23,-36,-11,3,1
1490984287317,1,14,110,-52,-43,-24,-20,-1,12
1490984287318,0,-22,-67,-14,-5,-1,-16,2,15
1490984287318,0,4,-54,48,25,-22,-9,2,-21
1490984287321,1,7,-2,-16,-52,-6,35,-5,10
1490984287321,1,-5,29,25,24,36,34,2,22
1490984287364,2,19,121,38,23,15,-15,-4,2
1490984287364,2,-27,37,-68,-12,-4,26,3,-6
1490984287367,3,-11,3,33,1,0,-12,1,9
1490984287367,3,22,-39,-30,-25,-18,4,1,-29
1490984287368,0,-37,-78,-6,7,19,12,-1,44
1490984287368,0,-4,-21,-14,-2,26,18,1,11
1490984287369,1,-12,-7,11,-9,-14,14,0,-12
1490984287369,1,-8,-54,1,4,7,26,-4,12
1490984287413,2,50,-40,94,17,-4,-12,1,-25
1490984287413,2,-6,-61,-62,-2,15,3,1,29
1490984287415,3,12,-33,-13,-2,-1,-18,-1,22
1490984287415,3,17,117,46,-34,0,-19,0,-8
1490984287416,1,-20,5,2,1,-17,-67,-4,-19
1490984287416,1,8,-78,21,27,-26,-40,-5,-25
1490984287417,2,-39,-100,-48,19,41,23,-1,-2
1490984287417,2,20,-22,27,-7,15,78,0,8
1490984287462,3,12,-51,2,36,69,47,-14,9
1490984287462,3,6,45,58,21,30,-5,-5,33
1490984287464,0,16,65,-7,1,-17,8,4,-6
1490984287464,0,-56,-15,-22,-21,-47,-16,0,-19
1490984287465,2,0,-59,7,12,37,3,-1,-14
1490984287465,2,24,-56,41,21,31,-16,0,11
1490984287466,3,31,-110,43,-6,8,22,4,17
1490984287466,3,-50,63,2,-7,-18,-35,1,-43
1490984287511,0,-47,108,-71,-17,-46,-31,3,-21
1490984287511,0,-5,127,-74,-47,-54,-31,-2,-5
1490984287513,1,-39,66,-19,3,38,51,-3,-15
1490984287513,1,97,-39,59,22,31,57,-2,7
1490984287514,3,-25,0,-27,-12,-81,-65,-2,-15
1490984287514,3,22,-125,-54,-12,-34,-23,1,1
1490984287515,0,11,-33,38,-1,-18,33,1,7
1490984287515,0,54,-22,49,8,63,48,-7,10
1490984287559,1,-17,127,-34,-15,-11,-4,5,7
1490984287559,1,-56,124,-31,-17,-2,-25,-1,-14
1490984287563,2,8,-14,1,4,-18,-1,-2,1
1490984287563,2,-13,-68,0,9,26,-19,5,0
1490984287565,0,-5,-75,-24,-2,15,35,-4,-3
1490984287565,0,11,76,-8,-3,41,15,-2,-13
1490984287568,1,-4,66,8,17,53,-15,3,1
1490984287568,1,-37,-24,-3,-16,-23,-37,-4,5
1490984287611,2,35,10,1,-19,-96,-37,-2,1
1490984287611,2,-22,-66,-26,11,-128,-18,-3,6
1490984287613,3,5,-53,-48,-35,-25,20,-2,-15
1490984287613,3,18,-101,12,1,95,35,0,6
1490984287616,1,103,116,-6,-7,-54,4,0,-18
1490984287616,1,6,127,-58,-27,-66,-44,4,-27
1490984287618,2,-32,13,-39,-25,-128,-36,4,-6
1490984287618,2,-26,-52,8,22,-121,-65,2,10
1490984287657,3,-62,-101,24,27,-6,-33,2,15
1490984287657,3,2,-87,23,-8,22,15,-2,4
1490984287659,0,-12,13,-42,-21,121,23,2,-31
1490984287659,0,5,20,-9,-17,127,61,2,-1
1490984287662,2,24,127,-3,-17,-90,-40,-2,5
1490984287662,2,-1,96,-23,-14,-95,19,0,-5
1490984287664,3,5,60,18,-4,-3,-10,-3,-6
1490984287664,3,-5,-24,29,0,31,10,2,3
1490984287708,0,35,-88,54,29,-18,-13,-1,9
1490984287708,0,16,-128,-51,15,-105,2,3,12
1490984287711,1,-56,-105,-26,21,-72,-15,0,8
1490984287711,1,-124,101,-5,5,-2,19,-5,4
1490984287713,3,92,118,-106,-91,50,-36,0,-81
1490984287713,3,-38,13,-79,-37,-18,12,0,-51
1490984287715,0,-119,-32,-22,15,-20,18,0,-23
1490984287715,0,-116,-107,97,49,78,23,1,54
1490984287756,1,-54,-89,84,12,55,22,2,27
1490984287756,1,-31,-28,38,-9,50,4,1,8
1490984287758,2,6,-7,-25,-33,-37,-21,-1,-6
1490984287758,2,-8,-31,6,-103,-109,-13,-4,42
1490984287759,3,98,70,62,-119,-64,2,-1,56
1490984287759,3,54,28,82,-61,-89,1,1,83
1490984287760,0,-56,-20,-17,32,-60,0,1,-8
1490984287760,0,-17,-29,-66,125,-99,-29,0,-67
1490984287803,1,-66,4,-83,127,-127,-21,2,-58
1490984287803,1,2,-11,-32,127,-128,-14,2,-52
1490984287807,2,68,24,96,111,-122,-21,0,26
1490984287807,2,56,31,127,39,-3,-92,-2,51
1490984287808,0,-74,50,-128,-128,127,84,-2,-91
1490984287808,0,-112,39,-125,-128,127,127,1,-79
1490984287809,1,52,47,-128,54,127,127,-1,72
1490984287809,1,108,-99,-34,-122,112,111,-2,112
1490984287852,2,127,-55,25,-116,-93,74,-7,109
1490984287852,2,-66,105,121,20,-112,-79,6,-71
1490984287855,3,-128,98,127,88,-128,-112,0,-128
1490984287855,3,-128,46,121,127,-97,-128,-3,-128
1490984287858,1,-47,-108,-119,-128,127,15,-2,-54
1490984287858,1,15,-48,-128,-121,118,74,-3,52
1490984287860,2,55,-28,-128,-128,2,74,-3,70
1490984287860,2,123,9,-123,-41,-96,31,-3,127
1490984287900,3,110,44,-128,-120,-121,-2,3,114
1490984287900,3,127,29,-123,-122,-128,-7,-4,106
1490984287901,0,82,52,-128,-124,-108,-48,-1,63
1490984287901,0,60,26,-111,-17,-51,-9,2,60
1490984287901,2,3,37,-5,43,0,-25,-4,-22
1490984287901,2,-23,-14,29,46,10,18,-2,9
1490984287902,3,-13,-21,42,21,10,22,-7,-11
1490984287902,3,-22,17,54,45,2,-14,-1,-8
1490984287949,0,2,8,41,49,19,-17,-1,-37
1490984287949,0,12,12,36,24,1,15,-2,-10
1490984287950,1,-58,-24,40,18,22,17,-3,-13
1490984287950,1,-25,0,38,18,5,-4,0,-27
1490984287950,3,-28,-84,12,30,11,0,4,0
1490984287950,3,10,16,-4,11,4,0,-4,-18
1490984287951,0,-52,20,30,-4,4,-3,0,-12
1490984287951,0,-27,-18,3,15,8,6,5,9
1490984287997,1,56,46,13,-15,-4,-6,-2,9
1490984287997,1,-32,-19,21,3,-1,7,-1,-13
1490984287998,2,-6,-27,-3,23,18,-6,0,-15
1490984287998,2,49,15,-3,-17,1,1,-3,-1
1490984287999,0,12,33,7,-7,-3,-3,4,-18
1490984287999,0,12,-5,6,-3,5,2,-1,3
1490984288000,1,-24,-27,-21,12,5,3,2,-12
1490984288000,1,-12,-8,-7,-30,2,1,1,0
1490984288046,2,-29,19,18,18,2,-3,-2,-3
1490984288046,2,44,-20,-6,10,2,-1,0,21
1490984288048,3,-22,-2,-7,-13,-2,2,-2,14
1490984288048,3,27,24,33,3,-14,-6,-4,-7
1490984288049,1,50,-52,-14,2,12,6,-3,35
1490984288049,1,-52,-10,13,2,4,3,0,-22
1490984288049,2,27,22,-26,-20,-10,-8,1,-3
1490984288049,2,-38,-17,0,23,3,4,-3,0
1490984288095,3,11,22,-15,-27,-1,-4,-2,-20
1490984288095,3,83,51,18,-18,-18,-1,3,39
1490984288096,0,10,-29,-4,16,5,-4,-1,0
1490984288096,0,-77,-33,4,-4,19,13,1,15
1490984288097,1,-11,-3,25,62,8,0,0,-50
1490984288097,1,53,49,-19,-58,-23,-8,0,1
1490984288098,2,-36,-53,26,34,-2,2,0,31
1490984288098,2,32,79,-40,-17,-8,-8,-1,-11
1490984288144,3,-44,-81,-33,-47,19,5,-2,-12
1490984288144,3,43,63,26,7,-10,-7,-2,13
1490984288145,0,7,-57,-28,16,-3,-4,-1,-15
1490984288145,0,-24,22,-8,-44,-13,-7,2,-35
1490984288146,2,-44,-1,16,27,14,-2,-1,-15
1490984288146,2,23,-44,-22,55,8,-2,-6,29
1490984288147,3,-72,45,-18,-42,-2,0,-1,4
1490984288147,3,4,-34,59,-11,-7,-6,4,7
1490984288193,0,-11,39,-27,-12,2,4,-3,-19
1490984288193,0,93,17,23,5,-1,0,1,-24
1490984288194,1,-56,-32,-37,7,1,3,-2,16
1490984288194,1,20,-4,4,20,12,3,-2,-3
1490984288196,3,64,63,30,14,-20,1,-1,8
1490984288196,3,-59,-62,-13,46,20,3,1,-18
1490984288197,0,24,27,15,-10,-4,0,0,10
1490984288197,0,-40,20,-41,-79,-4,-6,-1,42
1490984288242,1,-43,-40,-53,10,7,8,-1,-22
1490984288242,1,18,75,73,-20,-3,-11,-3,-17
1490984288243,2,16,-34,24,-23,-18,5,0,-27
1490984288243,2,1,4,-6,54,1,-3,-1,-10
1490984288244,0,-8,18,70,46,-19,-6,0,-29
1490984288244,0,-19,-38,-62,-38,-4,7,0,-15
1490984288245,1,25,2,61,11,12,-3,3,-13
1490984288245,1,-23,79,9,-2,-31,-2,-2,-36
1490984288290,2,67,-30,-40,-71,12,-3,-3,73
1490984288290,2,-48,-59,-11,83,26,11,1,-9
1490984288292,3,86,56,1,29,-3,-10,-1,36
1490984288292,3,-90,21,20,-34,25,17,-3,-30
1490984288293,1,74,16,-30,-99,-23,3,-1,30
1490984288293,1,-34,-24,19,58,1,-1,0,63
1490984288294,2,-58,32,87,2,-3,-6,-4,-46
1490984288294,2,-43,-41,-53,67,23,6,-2,-39
1490984288339,3,41,73,-18,-28,12,-8,2,-23
1490984288339,3,-22,-103,5,9,15,11,-5,54
1490984288341,0,36,69,-109,-43,-43,-9,-2,-33
1490984288341,0,-22,-38,80,-47,2,10,5,53
1490984288342,2,-82,-46,-99,-33,0,8,2,-12
1490984288342,2,76,12,49,-18,3,-1,-2,69
1490984288343,3,-10,61,86,96,0,-15,-7,-54
1490984288343,3,-50,-74,-82,-9,-40,-10,1,64
1490984288388,0,-15,-83,-86,-57,37,18,-3,-42
1490984288388,0,77,98,80,-97,-46,-9,-3,26
1490984288389,1,-51,-51,-45,27,35,5,0,15
1490984288389,1,-11,56,4,36,6,-12,1,-41
1490984288390,3,-38,63,-35,-32,-8,-11,4,25
1490984288390,3,26,105,89,-46,-39,-2,0,-14
1490984288391,0,35,-5,-45,-6,28,2,0,5
1490984288391,0,-50,-4,68,-14,26,5,0,44
1490984288436,1,-1,-33,-18,65,-7,5,-2,-19
1490984288436,1,0,-5,-37,21,-12,0,-1,10
1490984288438,2,15,-41,-15,-16,13,2,3,24
1490984288438,2,22,86,-1,9,16,-7,-2,-17
1490984288439,3,-12,-93,2,-31,4,16,0,-9
1490984288439,3,14,48,14,39,-23,-19,1,-43
1490984288442,0,47,0,-41,-7,-26,-2,3,19
1490984288442,0,21,21,46,-46,-1,3,-2,8
1490984288485,1,-103,-56,51,8,37,5,5,34
1490984288485,1,79,98,73,-47,-19,-3,0,-11
1490984288488,2,1,8,24,47,-12,1,-6,-38
1490984288488,2,-46,-65,-84,-20,-1,10,-1,18
1490984288489,0,-56,36,-71,25,-22,-9,-3,-21
1490984288489,0,9,42,-12,-47,-28,-20,-3,-15
1490984288491,1,41,-45,-44,-9,-12,15,0,27
1490984288491,1,-26,-37,-56,-18,11,-13,-4,-10
1490984288534,2,-37,22,-15,-29,-8,16,5,44
1490984288534,2,22,-33,22,52,33,-6,-1,-2
1490984288536,3,-44,43,104,36,-16,-8,1,-41
1490984288536,3,33,-63,-85,-19,-12,-8,1,-45
1490984288537,1,-8,2,-2,49,-14,-10,-4,-2
1490984288537,1,11,-98,-128,-40,22,6,2,11
1490984288538,2,63,105,124,6,8,-13,1,-17
1490984288538,2,-77,-8,39,22,-17,0,4,-56
1490984288583,3,3,-21,-39,-21,30,-2,0,36
1490984288583,3,7,18,112,3,-11,8,2,-12
1490984288586,0,-37,83,-70,4,-41,-19,-2,-13
1490984288586,0,-10,-28,-71,-7,22,11,-5,43
1490984288587,2,17,-51,81,16,31,11,1,19
1490984288587,2,-9,35,92,47,7,-21,0,-26
1490984288591,3,36,-6,-128,-35,-86,1,-1,-4
1490984288591,3,-70,21,-76,-15,60,3,-3,-10
1490984288632,0,39,-21,125,41,1,-3,4,10
1490984288632,0,13,-51,-128,-41,-3,10,-8,-19
1490984288633,1,-13,29,127,31,-10,-26,-3,-23
1490984288633,1,21,-72,-128,-32,1,11,1,48
1490984288635,3,-12,-17,103,37,12,-3,-1,-35
1490984288635,3,-1,17,30,-14,-32,-7,0,6
1490984288636,0,-13,-107,-69,-12,-5,-19,-3,77
1490984288636,0,-14,66,-17,-13,9,11,-2,-51
1490984288680,1,8,94,43,-1,-9,-6,-1,-8
1490984288680,1,50,68,127,30,51,-7,1,-21
1490984288682,2,-61,0,-49,6,-54,-5,-1,-8
1490984288682,2,6,-43,-123,-30,-20,-4,-1,10
1490984288683,0,8,23,119,9,-8,1,-3,-20
1490984288683,0,41,46,-37,12,2,-9,3,1
1490984288684,1,-68,15,-92,-15,13,1,-5,-11
1490984288684,1,-30,-24,20,-5,-5,32,0,19
1490984288729,2,35,-44,-54,7,3,-19,-1,-15
1490984288729,2,-12,-36,-28,-3,-21,7,1,18
1490984288731,3,16,5,-1,-8,26,6,-2,15
1490984288731,3,-6,11,-30,52,5,-12,-5,-28
1490984288732,1,40,-57,-128,2,-67,6,-1,28
1490984288732,1,-69,-35,8,-21,4,18,-2,-5
1490984288733,2,42,75,127,30,32,-2,-1,-27
1490984288733,2,-33,-10,9,5,-10,-15,0,-10
1490984288778,3,57,53,66,-7,18,-10,2,24
1490984288778,3,-26,-39,19,49,31,16,-3,-15
1490984288779,0,-21,26,-73,-45,-24,4,15,-37
1490984288779,0,6,20,-69,-79,-43,23,3,42
1490984288781,1,4,-84,81,58,44,-5,-4,-6
1490984288781,1,-21,-25,7,-9,-12,-16,0,-19
1490984288782,2,9,-8,-54,7,13,8,0,-10
1490984288782,2,5,-22,81,45,23,-13,0,2
1490984288827,3,-2,-21,31,-41,-35,0,3,-16
1490984288827,3,3,73,-85,-4,-49,7,-3,9
1490984288828,0,34,37,16,1,18,-1,-8,21
1490984288828,0,-14,65,58,56,10,-1,-4,-26
1490984288830,2,46,5,99,21,22,-13,-4,1
1490984288830,2,-27,-16,87,67,39,-3,-6,-17
1490984288831,3,-23,28,66,11,13,-14,-6,-40
1490984288831,3,-5,-28,-128,-102,-112,8,-6,15
1490984288875,0,2,15,-3,23,26,13,-3,23
1490984288875,0,12,-14,87,3,-28,-14,4,-9
1490984288877,1,-22,29,72,81,34,-17,1,-15
1490984288877,1,12,-7,-104,-61,-29,-23,1,-5
1490984288878,3,-9,-18,-128,-101,23,13,-2,7
1490984288878,3,25,8,111,37,39,13,-3,15
1490984288879,0,7,-104,127,76,11,-17,-2,15
1490984288879,0,-20,91,-128,-22,-19,-20,-2,-39
1490984288924,1,-6,99,-50,-44,-74,16,9,11
1490984288924,1,10,75,-39,-2,43,-8,-3,-4
1490984288926,2,-12,1,31,-57,-47,4,1,-12
1490984288926,2,3,-78,-62,-5,33,10,-4,26
1490984288927,0,-12,-13,-85,-5,1,22,-1,-24
1490984288927,0,8,-14,0,-25,-17,-7,-4,8
1490984288928,1,3,19,14,40,19,8,0,1
1490984288928,1,-28,30,90,27,13,-8,-2,-17
1490984288973,2,-6,21,-84,-50,-74,-11,-3,-1
1490984288973,2,5,-17,14,-8,34,25,-1,17
1490984288975,3,14,-50,42,20,96,8,-4,-2
1490984288975,3,49,-49,41,28,-32,-14,0,28
1490984288976,1,6,73,-50,4,-16,4,6,11
1490984288976,1,-31,76,65,58,38,3,-7,-41
1490984288977,2,-3,22,-128,-71,-16,-14,4,10
1490984288977,2,14,-39,2,-31,5,-15,-5,25
1490984289022,3,6,-85,44,41,2,1,-1,2
1490984289022,3,22,-101,12,-2,-43,-6,-1,43
1490984289023,0,-3,27,53,26,-10,10,-3,-23
1490984289023,0,-17,34,53,79,31,-8,3,-28
1490984289025,2,-16,-4,59,15,-37,9,-1,-1
1490984289025,2,8,-37,20,-52,-30,-21,1,8
1490984289026,3,-5,-34,5,-24,8,5,-3,-18
1490984289026,3,-24,-19,-26,-41,-35,14,0,-16
1490984289070,0,-8,0,-74,-38,-5,23,-2,9
1490984289070,0,15,-20,102,64,53,19,0,12
1490984289072,1,28,-39,109,45,-8,-2,-2,36
1490984289072,1,21,3,97,10,17,-24,0,32
1490984289073,3,-22,2,21,49,-5,-25,-2,-9
1490984289073,3,21,5,-128,-46,-2,50,5,2
1490984289074,0,22,-17,119,87,32,59,-1,14
1490984289074,0,23,-33,-9,-2,-52,-22,-3,23
1490984289122,1,-19,11,-77,-84,-51,-50,-4,-22
1490984289122,1,-40,27,-111,-95,-17,-37,1,-26
1490984289123,2,-15,23,-128,-67,59,-2,-2,-19
1490984289123,2,3,5,-110,-28,-20,70,4,-15
1490984289125,3,-25,-50,-83,1,7,10,3,18
1490984289125,3,4,-37,-74,7,64,-10,-1,-18
1490984289126,0,62,78,95,53,-101,-30,-1,50
1490984289126,0,101,110,96,97,-92,-53,4,84
1490984289218,1,24,92,23,8,-67,-53,-2,13
1490984289218,1,-60,15,54,30,88,-83,0,-70
1490984289220,2,-112,-126,-128,-100,127,36,-3,-83
1490984289220,2,-74,-109,80,-4,127,30,2,-68
1490984289221,0,5,-17,-50,45,-28,-125,1,1
1490984289221,0,23,-126,-25,-30,-17,-128,-2,28
1490984289222,1,22,-75,-92,-21,-42,-116,1,57
1490984289222,1,-73,102,127,25,-123,-43,-4,101
1490984289265,2,-102,121,127,73,-72,72,-3,114
1490984289265,2,-67,113,-32,10,69,115,-5,108
1490984289267,3,75,-94,-55,-90,-41,127,2,-115
1490984289267,3,123,-67,-122,-113,87,127,3,-111
1490984289268,1,-128,-77,-79,-5,127,127,3,-93
1490984289268,1,-111,-118,4,-51,87,124,-7,-43
1490984289270,2,2,-40,14,-6,15,-53,1,-29
1490984289270,2,37,-10,-26,-69,-128,-16,3,-4
1490984289314,3,-19,25,10,-15,36,14,0,-10
1490984289314,3,-14,-1,-8,0,47,-21,5,-2
1490984289316,0,34,-29,-7,-18,6,3,1,10
1490984289316,0,-6,-30,-48,-30,22,3,-3,-49
1490984289317,3,-13,8,-14,-6,52,4,-1,-12
1490984289317,3,-8,-11,-13,4,-36,34,-2,-30
1490984289318,0,4,-17,8,21,74,-51,-3,-4
1490984289318,0,0,-11,-26,-14,-7,31,-2,-9
1490984289363,1,-4,12,-6,-10,1,2,1,14
1490984289363,1,-7,-26,-26,-6,1,18,3,-19
1490984289365,2,2,-12,-3,-14,20,5,-6,18
1490984289365,2,2,7,4,0,-7,20,-3,-23
1490984289366,0,-15,-21,-5,2,42,16,-3,-10
1490984289366,0,13,-4,-8,-1,21,-25,3,0
1490984289367,1,-5,15,8,7,-51,-1,0,3
1490984289367,1,-5,-4,-20,-14,18,10,0,9
1490984289411,2,8,-4,9,15,42,-26,3,1
1490984289411,2,15,13,-2,-12,-20,9,-7,12
1490984289460,3,-13,-3,17,14,14,-13,4,-15
1490984289460,3,-7,-10,-3,5,-4,-5,-8,5
1490984289462,1,18,14,2,-12,-22,7,4,5
1490984289462,1,-15,1,-10,0,14,-12,2,5
1490984289463,2,-4,-5,-1,7,-4,10,-3,0
1490984289463,2,15,7,8,-7,-7,8,7,3
1490984289464,3,-8,-2,-1,2,-7,-1,0,-14
1490984289464,3,6,5,1,-6,-38,-16,-4,7
1490984289509,0,-2,0,-7,1,10,18,1,-8
1490984289509,0,3,2,-2,1,-14,2,-2,5
1490984289510,2,8,8,31,9,-17,-11,-7,1
1490984289510,2,7,5,-18,-15,2,-5,-1,-2
1490984289512,3,-11,-12,-4,5,11,7,-2,-5
1490984289512,3,-8,-4,-8,4,19,10,-1,-19
1490984289512,2,-2,-6,-6,0,-3,-1,3,2
1490984289512,2,-4,12,-7,5,17,1,1,-15
1490984289559,3,10,-9,-7,-12,-10,-9,-8,2
1490984289559,3,19,11,0,-15,-1,-11,-5,43
1490984289561,0,-21,-14,12,25,20,1,0,-4
1490984289561,0,-6,-5,-3,-5,54,-8,-4,7
1490984289562,3,13,4,6,10,-20,-7,3,2
1490984289562,3,-7,0,7,-5,-8,-4,0,11
1490984289563,0,-11,-3,-14,-11,-1,7,3,0
1490984289563,0,1,1,23,3,-12,-8,-1,9
1490984289606,1,-1,16,-17,6,8,-8,-1,-16
1490984289606,1,-11,-10,-4,0,-6,-9,-4,2
1490984289608,2,-4,11,16,-6,-25,-6,-1,-22
1490984289608,2,-13,-5,-34,-22,-33,11,1,14
1490984289609,0,10,-2,3,7,-2,7,-1,10
1490984289609,0,-2,7,3,-4,-23,-15,-3,1
1490984289611,1,-8,-25,-13,-4,33,-4,-3,-8
1490984289611,1,-33,-22,-1,16,-17,-6,-1,-14
1490984289659,2,23,21,0,-14,-9,-2,4,-17
1490984289659,2,12,-20,5,-9,3,-5,-2,4
1490984289660,3,8,14,-28,-18,-9,3,0,-1
1490984289660,3,-9,-10,-15,-4,32,7,4,-16
1490984289662,1,-16,-15,-7,2,0,-4,1,-4
1490984289662,1,9,18,24,-15,-4,-8,-4,-21
1490984289663,2,-22,-12,1,17,12,3,-1,-2
1490984289663,2,25,-22,-13,5,3,2,1,16
1490984289704,3,-37,-11,6,-7,11,9,-3,-17
1490984289704,3,21,6,28,12,-15,-12,1,-3
1490984289706,0,-18,-16,-46,-14,23,1,1,-11
1490984289706,0,14,19,8,-11,-21,6,1,-19
1490984289707,2,11,38,-15,-14,-18,-1,-9,-4
1490984289707,2,25,-20,-67,-23,13,3,-5,24
1490984289710,3,-7,-3,-4,-10,-22,-13,4,-3
1490984289710,3,3,24,2,0,21,7,-4,-8
1490984289753,0,7,-4,13,-2,-15,0,0,16
1490984289753,0,-41,-1,59,32,10,-4,-4,-21
1490984289754,1,15,-22,-1,3,11,7,-3,-9
1490984289754,1,-16,-15,-48,-32,-21,-10,6,9
1490984289756,3,36,-1,-41,9,4,3,-1,7
1490984289756,3,-37,16,72,25,2,-8,2,6
1490984289763,0,12,-12,-112,-36,8,11,-10,6
1490984289763,0,-3,11,22,8,14,0,-3,-17
1490984289850,1,-20,-38,8,-3,-32,-3,-17,29
1490984289850,1,28,-4,6,-1,2,1,-2,11
1490984289852,2,-6,-30,-19,-15,0,7,-4,23
1490984289852,2,-28,20,-14,-23,16,2,3,-13
1490984289908,0,4,1,-8,9,8,-9,3,-41
1490984289908,0,1,32,-25,-22,-11,-8,0,8
1490984289909,1,25,9,23,-13,-22,-22,6,2
1490984289909,1,-7,-30,-41,-2,6,11,-1,-20
1490984289910,2,-6,-8,22,11,15,-1,2,18
1490984289910,2,-6,-10,5,1,-26,1,-1,23
1490984289911,3,-4,-21,6,4,13,20,3,-5
1490984289911,3,21,9,19,-16,-6,-6,-2,-12
1490984289948,0,-21,-23,-34,5,0,-5,-1,0
1490984289948,0,25,-1,3,-13,6,-4,-2,8
1490984289957,1,-21,-18,7,28,26,15,-2,6
1490984289957,1,-6,-11,11,22,10,-20,-1,5
1490984289959,2,5,127,-21,-35,-27,24,-4,-44
1490984289959,2,-10,94,-52,-77,-35,35,2,5
1490984289960,3,-15,34,-40,9,16,31,0,-20
1490984289960,3,32,-67,-41,15,32,-9,2,21
1490984289997,0,9,-57,74,14,12,-70,6,-17
1490984289997,0,0,-37,-1,-9,-4,-62,-2,16
1490984289999,1,-74,30,-17,-4,-22,-30,-4,-41
1490984289999,1,14,85,29,-12,-32,12,4,-7
1490984290000,3,27,-40,77,2,-5,4,0,6
1490984290000,3,-12,-55,2,15,9,34,0,1
1490984290001,0,-47,-87,40,9,5,38,-4,-2
1490984290001,0,22,-8,-62,-24,-1,-17,1,17
1490984290045,1,56,28,23,-15,-13,8,0,-10
1490984290045,1,-37,-20,-8,13,17,2,0,-4
1490984290047,2,24,6,45,16,-10,-38,1,1
1490984290047,2,-27,56,18,-16,-23,-40,-1,-16
1490984290048,0,11,5,8,-1,17,16,-2,15
1490984290048,0,-7,-53,56,16,26,9,-5,-13
1490984290049,1,6,-83,-36,-22,-27,-19,-3,43
1490984290049,1,5,-32,40,-19,-58,-59,0,-28
1490984290094,2,46,25,-62,-49,-49,-68,0,-3
1490984290094,2,-18,-15,-33,-15,8,49,-1,-6
1490984290096,3,-35,-29,13,36,59,102,-1,16
1490984290096,3,53,0,79,56,45,55,-6,11
1490984290098,1,-15,12,10,-18,-48,-6,0,-34
1490984290098,1,25,37,-42,-19,-15,-45,-4,5
1490984290099,2,-32,115,-33,9,-21,-39,9,1
1490984290099,2,-39,28,-60,-27,-24,-48,-1,-58
1490984290143,3,14,-43,-36,-14,-13,-11,-2,10
1490984290143,3,7,-62,7,15,3,-20,0,-3
1490984290144,0,23,-48,2,-5,15,53,-4,17
1490984290144,0,-34,13,58,36,16,16,-2,13
1490984290145,2,-2,7,44,11,-5,-7,0,-8
1490984290145,2,29,4,-25,11,-24,-1,0,-4
1490984290146,3,2,33,-48,-27,-50,4,0,-12
1490984290146,3,-61,30,-68,-33,-30,-9,-3,-3
1490984290191,0,-8,-26,-37,4,33,62,-4,2
1490984290191,0,26,-26,84,46,101,65,3,-1
1490984290195,1,-4,39,91,30,84,19,2,7
1490984290195,1,52,31,7,3,30,9,-2,14
1490984290196,2,-61,18,7,17,-12,-4,-7,-6
1490984290196,2,24,2,-52,-58,-100,-34,1,-7
1490984290197,3,6,-35,-3,-5,-40,-51,1,-6
1490984290197,3,-18,-93,-2,-5,-29,-20,-2,-5
1490984290240,0,28,-125,38,34,31,-8,-6,0
1490984290240,0,7,95,-44,-6,-9,6,1,15
1490984290242,1,1,104,-38,-45,-20,-4,-3,1
1490984290242,1,-51,127,11,-15,-25,-17,4,-23
1490984290243,3,-37,-71,12,15,28,-18,1,-19
1490984290243,3,-6,-73,-60,-19,-87,-16,4,1
1490984290244,0,-23,-109,-86,-6,-126,-5,5,-10
1490984290244,0,-2,-26,-51,-2,-27,3,0,-12
1490984290289,1,45,-59,14,3,105,26,-1,5
1490984290289,1,-50,-34,40,18,127,68,-7,-3
1490984290290,2,7,99,39,26,64,16,1,22
1490984290290,2,27,74,28,-3,-54,-13,-7,-6
1490984290292,0,1,-31,44,-19,-64,-7,2,5
1490984290292,0,-19,-38,-46,7,-106,-28,3,13
1490984290293,1,-91,-95,-10,22,-125,13,-2,28
1490984290293,1,31,-32,-35,-8,-118,15,-4,-6
1490984290337,2,92,89,-11,-65,13,7,-7,-15
1490984290337,2,19,114,-6,-55,101,12,-2,-29
1490984290339,3,19,3,-18,18,87,12,0,-7
1490984290339,3,-78,-62,20,51,127,5,-1,-9
1490984290339,1,29,3,-34,-8,-74,-38,-3,7
1490984290339,1,-24,-76,-57,-10,-100,-37,1,2
1490984290340,2,53,2,-74,-20,-102,-19,-1,-29
1490984290340,2,-44,65,-19,-4,7,-2,0,-12
1490984290386,3,38,100,-33,1,80,17,-1,-15
1490984290386,3,-4,9,-20,-16,97,23,3,6
1490984290387,0,13,-61,32,3,-10,18,3,12
1490984290387,0,-20,-88,66,26,-111,29,0,5
1490984290388,2,-27,-17,51,-14,0,-27,1,-5
1490984290388,2,4,-15,-38,-29,22,-8,0,11
1490984290392,3,-12,31,-43,-38,51,4,5,-4
1490984290392,3,62,63,-13,-117,62,-1,3,19
1490984290435,0,8,34,60,-117,39,15,-1,13
1490984290435,0,4,-5,43,-127,-13,19,1,3
1490984290437,1,38,9,20,-123,-43,7,-2,51
1490984290437,1,47,-3,-39,7,-11,1,-4,16
1490984290438,3,-17,-30,-54,127,-121,-28,-2,-76
1490984290438,3,-44,-39,58,127,-128,3,0,34
1490984290439,0,59,62,72,60,-28,-55,0,35
1490984290439,0,17,85,24,-104,89,-111,0,-9
1490984290484,1,-39,6,-50,-117,127,-63,2,-46
1490984290484,1,-89,-39,-119,-128,127,81,-4,-93
1490984290485,2,-45,-81,-122,-128,127,127,-1,-54
1490984290485,2,47,-53,-87,-91,65,127,-4,-1
1490984290487,0,64,21,103,20,-128,-60,-2,46
1490984290487,0,-1,20,71,23,-117,-70,-3,55
1490984290488,1,10,-10,47,29,-56,-30,0,22
1490984290488,1,31,23,16,21,-45,-33,-4,18
1490984290533,2,10,2,-31,-1,-10,-22,1,-19
1490984290533,2,64,-1,-6,0,-16,-10,0,7
1490984290535,3,-96,-40,-12,47,41,16,-4,-24
1490984290535,3,-1,21,-21,-12,12,-4,-4,-1
1490984290537,1,17,-1,27,12,5,10,-3,-9
1490984290537,1,-8,-6,-53,-24,14,-18,-2,-5
1490984290538,2,-20,21,10,-12,1,0,-2,-21
1490984290538,2,-5,-33,-24,21,-4,8,1,13
1490984290582,3,40,19,17,10,17,1,-2,15
1490984290582,3,-14,-13,-21,12,19,-6,2,1
1490984290585,0,-67,7,-8,-8,-7,5,1,-15
1490984290585,0,-15,-16,0,-5,-1,10,0,-13
1490984290587,1,19,13,3,-12,9,-2,3,2
1490984290587,1,25,11,15,14,5,-6,-3,-22
1490984290588,2,21,-13,0,12,-6,5,0,25
1490984290588,2,-80,0,29,12,17,4,-1,-21
1490984290631,3,32,16,-26,5,-5,4,-1,3
1490984290631,3,9,10,11,-11,-1,-3,3,-12
1490984290633,0,22,-32,-39,-4,7,-1,-2,40
1490984290633,0,-26,8,19,-3,7,6,0,-36
1490984290635,2,-46,11,29,26,7,-6,-3,-32
1490984290635,2,23,-32,7,30,7,3,-2,-5
1490984290636,3,11,33,-15,-16,-9,-6,0,-9
1490984290636,3,-43,-33,-28,-3,15,5,1,-5
1490984290679,0,-5,-10,16,-19,2,5,-1,23
1490984290679,0,58,37,26,6,-17,-4,1,15
1490984290681,1,33,-15,-30,-10,0,-1,6,-9
1490984290681,1,-17,-6,2,-2,-2,-5,0,-23
1490984290682,3,1,-52,-27,29,21,7,1,10
1490984290682,3,-53,29,-14,-22,10,1,-2,-16
1490984290683,0,9,11,43,0,-8,-6,2,-34
1490984290683,0,37,-31,-6,-13,-11,-10,-1,58
1490984290728,1,35,49,27,-1,-2,0,-1,5
1490984290728,1,-76,-46,1,35,12,10,-2,-19
1490984290730,2,-37,18,-1,-29,-2,-4,-1,12
1490984290730,2,-25,-3,-19,-17,5,1,0,-11
1490984290731,0,-46,-40,2,-5,18,15,0,-6
1490984290731,0,16,55,26,2,-15,-10,2,-49
1490984290732,1,-46,-52,2,-6,9,3,-3,29
1490984290732,1,96,73,-4,-65,-24,-11,-5,-47
1490984290777,2,18,-40,-72,13,8,6,1,2
1490984290777,2,-28,13,26,-12,9,6,-6,32
1490984290778,3,-16,-53,36,31,9,2,-3,9
1490984290778,3,-58,27,50,43,-1,-11,1,47
1490984290780,1,23,127,7,-95,-27,-5,0,1
1490984290780,1,36,-128,3,83,15,2,-1,-11
1490984290781,2,-91,55,-89,19,-1,-1,1,0
1490984290781,2,45,25,-13,-56,-11,-5,0,5
1490984290827,3,35,30,30,-14,0,-6,1,-1
1490984290827,3,6,27,60,-40,-2,0,0,32
1490984290828,0,10,25,72,13,-32,-14,-4,-11
1490984290828,0,-16,7,-70,17,14,2,-2,26
1490984290829,2,63,-13,-52,-35,14,5,-3,40
1490984290829,2,-11,32,34,-37,-27,4,-3,4
1490984290830,3,-54,47,57,30,7,-9,2,-35
1490984290830,3,14,-68,-6,44,13,6,0,6
1490984290874,0,9,-7,19,-14,3,-9,1,24
1490984290874,0,-57,16,-4,87,29,4,-2,-23
1490984290875,1,-50,27,42,15,-11,5,-6,-34
1490984290875,1,44,63,-50,-77,-22,-4,1,18
1490984290923,3,44,-10,43,3,5,7,1,-54
1490984290923,3,-32,42,64,12,4,-6,0,-26
1490984290924,0,36,62,-44,13,-7,-7,-5,-43
1490984290924,0,-67,-87,-84,25,29,20,-3,-8
1490984290925,1,17,61,15,-16,1,2,-1,36
1490984290925,1,10,9,107,1,-4,4,-2,-66
1490984290972,2,-3,27,-5,29,-4,-5,0,-61
1490984290972,2,10,-96,-64,-46,-4,-1,0,18
1490984290973,3,-5,17,-94,-33,-13,0,2,0
1490984290973,3,-29,-11,25,19,20,18,0,36
1490984290975,0,67,-38,108,36,-7,-9,2,9
1490984290975,0,-26,25,12,92,-22,-14,0,-42
1490984290976,1,-31,-17,-128,-119,-1,4,-1,47
1490984290976,1,6,24,73,45,12,1,0,7
1490984291020,0,-24,33,41,2,-3,0,-3,29
1490984291020,0,31,-13,-41,-42,14,-5,-3,-50
1490984291022,1,3,-41,-91,-58,-48,4,2,26
1490984291022,1,39,84,34,3,-16,-15,0,-24
1490984291023,1,-69,-88,-75,-5,-47,-4,-2,8
1490984291023,1,6,-31,-45,-65,-7,-6,0,-28
1490984291024,2,-19,26,-1,58,29,1,-3,38
1490984291024,2,37,-2,-58,-80,-22,7,0,9
1490984291069,3,6,60,91,44,49,7,-3,-35
1490984291069,3,23,-4,-71,15,1,4,2,-5
1490984291070,0,16,8,36,-46,-20,-24,-1,21
1490984291070,0,-38,2,63,10,-17,3,0,-36
1490984291071,2,-24,95,127,-21,-18,-8,-1,-11
1490984291071,2,-17,-69,-126,-44,-11,-3,-1,49
1490984291071,3,46,-19,-25,-29,51,15,1,-5
1490984291071,3,-48,36,63,86,-45,-21,-5,6
1490984291117,0,-43,-7,-91,-30,22,2,-1,-65
1490984291117,0,54,19,-33,-61,-21,-8,5,7
1490984291119,1,-22,-30,56,86,39,8,1,-44
1490984291119,1,27,7,-104,-16,-50,-10,1,-14
1490984291120,3,17,107,103,-6,-20,0,2,-15
1490984291120,3,7,-43,-43,-20,4,-4,-2,10
1490984291121,0,-31,22,-97,-24,-13,1,-3,-21
1490984291121,0,-10,-46,-80,-44,-6,19,-2,59
1490984291166,1,36,25,26,13,9,-5,-3,16
1490984291166,1,-40,41,127,45,10,-3,-2,-42
1490984291168,2,43,-39,-128,6,-30,-12,3,10
1490984291168,2,-11,5,-13,-64,-16,8,-3,-11
1490984291169,0,55,55,126,14,2,4,1,26
1490984291169,0,-10,-57,-59,79,4,-16,0,1
1490984291170,1,13,-54,-34,-62,-19,10,-3,17
1490984291170,1,-10,4,-7,-22,27,8,3,25
1490984291215,2,9,5,63,12,-25,-6,-3,-15
1490984291215,2,22,-73,113,5,11,2,0,-14
1490984291218,3,-47,40,-124,6,-2,-7,-8,35
1490984291218,3,-2,-3,-98,-21,45,6,-1,30
1490984291219,1,-1,-61,-127,13,-9,-13,4,-9
1490984291219,1,33,-2,14,-86,-31,1,2,27
1490984291220,2,-60,-115,-42,31,37,9,0,21
1490984291220,2,35,-50,-23,-22,-21,0,-2,54
1490984291312,3,-13,82,53,1,19,19,-1,-51
1490984291312,3,-15,63,37,78,32,-20,-1,-32
1490984291314,0,25,3,88,-61,-2,10,0,26
1490984291314,0,4,127,127,49,-58,-19,-2,-42
1490984291315,1,-79,-128,-98,-80,-34,8,0,8
1490984291315,1,13,-24,86,12,54,29,2,20
1490984291316,2,35,43,84,39,66,12,2,8
1490984291316,2,43,15,-15,28,-2,0,-1,-33
1490984291361,3,-40,-37,-29,-24,-21,-20,0,0
1490984291361,3,-8,10,66,42,-41,-3,-2,-31
1490984291362,0,-35,-26,-128,-82,4,9,0,3
1490984291362,0,40,66,41,8,1,9,-1,33
1490984291363,2,-35,-37,-63,-20,-2,-8,-3,-28
1490984291363,2,-30,14,15,2,5,-2,0,14
1490984291363,3,22,-12,-96,-23,-29,19,1,9
1490984291363,3,-21,-2,63,57,75,8,-3,-24
1490984291410,0,-3,25,19,29,-26,5,-2,8
1490984291410,0,-3,-7,-54,-52,15,-2,0,5
1490984291411,1,9,-8,-112,-35,-34,9,-4,37
1490984291411,1,3,-4,-25,-69,3,1,-1,-9
1490984291411,0,-43,8,118,96,78,-4,-1,-28
1490984291411,0,42,-13,-128,-119,-99,10,1,30
1490984291412,1,-4,-31,32,-35,2,-10,2,22
1490984291412,1,8,-109,127,127,64,8,-3,-17
1490984291459,2,-36,31,-8,-33,27,-25,6,-51
1490984291459,2,2,92,-67,-62,-67,11,3,31
1490984291459,3,29,120,-60,4,25,4,1,27
1490984291459,3,-2,71,44,-41,-35,7,-1,-2
1490984291460,1,-11,-43,-80,-49,-12,12,-2,-11
1490984291460,1,16,-16,-8,-27,-34,-9,5,14
1490984291461,2,11,-48,2,31,-6,15,-2,-8
1490984291461,2,8,13,127,58,-49,-32,-5,28
1490984291507,3,3,27,-31,-38,-9,22,-3,-14
1490984291507,3,-17,16,-86,-20,7,-12,2,-2
1490984291508,0,6,17,-2,-28,-16,27,-4,12
1490984291508,0,11,9,48,15,56,8,1,4
1490984291509,2,-12,-9,-128,-102,9,22,-2,11
1490984291509,2,19,-1,28,41,108,16,-4,1
1490984291510,3,6,14,127,65,-47,-18,0,4
1490984291510,3,12,15,19,-15,40,1,2,19
1490984291556,0,8,-15,36,-4,19,-33,-1,9
1490984291556,0,17,28,96,11,-82,-51,3,13
1490984291557,1,-24,-3,-73,-22,-31,3,0,-47
1490984291557,1,7,45,1,-22,24,13,-3,2
1490984291557,3,0,-31,40,-22,-26,-46,-2,2
1490984291557,3,18,-20,-23,15,-93,-13,2,-1
1490984291558,0,17,25,-119,-54,-47,-26,-1,16
1490984291558,0,-39,7,32,10,19,27,5,-26
1490984291605,1,6,3,-60,-34,-43,1,-1,21
1490984291605,1,-4,-44,-15,-43,-7,-34,-3,-7
1490984291606,2,32,0,-10,-33,-32,47,1,29
1490984291606,2,17,-6,51,127,-5,35,-1,11
1490984291608,3,-23,25,127,8,75,-28,0,-46
1490984291608,3,-6,19,-93,-73,-98,-27,-5,16
1490984291608,0,-7,40,-85,-28,-32,-36,0,-23
1490984291608,0,-10,36,5,-21,75,16,-6,0
1490984291654,1,-11,12,-59,-80,11,13,0,12
1490984291654,1,20,14,-34,-22,37,17,1,13
1490984291655,2,-30,-7,125,63,-59,-50,5,-41
1490984291655,2,-5,-50,-128,-128,-27,31,0,1
1490984291656,0,-30,7,-101,-61,9,-47,1,-24
1490984291656,0,-23,-25,-49,-61,-76,-56,2,-25
1490984291657,1,-37,-77,-63,-9,-44,-12,3,-30
1490984291657,1,8,-74,-60,25,-22,18,4,-3
1490984291703,2,-3,-104,-103,38,20,11,-1,9
1490984291703,2,-15,-28,-76,48,-11,-36,0,-14
1490984291707,3,-6,-12,-36,1,5,-3,0,-7
1490984291707,3,23,48,-63,68,-14,32,-2,22
1490984291712,1,35,19,13,30,31,37,-2,10
1490984291712,1,26,57,127,97,-13,3,1,30
1490984291714,2,8,7,88,-20,6,26,0,3
1490984291714,2,-3,8,76,10,33,4,-3,5
1490984291753,3,-13,-5,109,82,97,-23,-2,-24
1490984291753,3,5,-6,26,-47,-6,10,-3,-5
1490984291757,0,-17,-4,3,-38,54,-15,0,-2
1490984291757,0,23,8,21,-29,-50,10,4,18
1490984291759,2,2,-8,8,-30,46,4,-5,-3
1490984291759,2,-35,-10,39,12,17,15,-3,-47
1490984291762,3,-8,-9,-63,-22,62,-28,3,-7
1490984291762,3,26,8,19,-20,-55,-1,-2,35
1490984291800,0,-2,-3,7,-7,4,25,-4,12
1490984291800,0,5,13,13,-5,9,-12,4,-18
1490984291801,1,6,7,6,3,-25,2,-5,-16
1490984291801,1,-27,-12,0,22,27,-11,2,-11
1490984291801,3,7,-4,-2,-5,-54,2,0,17
1490984291801,3,-2,4,12,16,32,13,3,-6
1490984291802,0,10,3,0,-16,-44,7,-10,2
1490984291802,0,0,-5,-22,13,41,-2,-1,1
1490984291849,1,-3,8,12,8,-5,-8,-1,-1
1490984291849,1,-15,-7,5,-19,39,-12,1,-25
1490984291849,2,-17,-6,-26,-2,-40,11,3,-5
1490984291849,2,10,0,-18,6,75,1,-4,11
1490984291850,0,2,6,11,4,19,0,6,-22
1490984291850,0,-6,-2,11,-8,-23,-29,-4,13
1490984291851,1,13,3,-4,-11,-44,-1,1,10
1490984291851,1,-11,1,18,3,37,-4,2,-14
1490984291897,2,14,16,2,6,-62,6,5,-5
1490984291897,2,-15,-18,-20,12,-8,21,6,17
1490984291898,3,-12,-10,-1,2,33,1,-4,-3
1490984291898,3,14,-4,3,-7,13,-15,-3,-7
1490984291898,1,8,1,9,2,20,2,-1,-2
1490984291898,1,-6,3,-7,-3,12,-5,1,-9
1490984291900,2,-3,-1,9,1,4,-8,0,7
1490984291900,2,-15,-11,-11,10,25,23,3,-19
1490984291946,3,11,17,6,-15,-17,-18,-2,17
1490984291946,3,-13,-9,6,4,27,-8,-10,-15
1490984291947,0,25,17,9,-3,-58,-17,0,14
1490984291947,0,3,-4,0,14,16,-11,-2,0
1490984291947,2,8,9,17,6,14,-20,-3,3
1490984291947,2,3,-1,5,14,-2,-8,-5,16
1490984291948,3,-16,-6,12,-1,22,13,2,-16
1490984291948,3,12,-7,-36,1,-15,-11,-1,9
1490984291995,0,-10,2,12,-10,-2,11,-3,-11
1490984291995,0,-6,6,6,-10,-6,-7,-2,0
1490984291996,1,-14,-21,-15,1,11,3,4,11
1490984291996,1,-2,12,14,7,-7,1,6,0
1490984291997,2,2,-14,13,-2,9,-7,-1,0
1490984291997,2,23,-5,-24,-18,-24,7,3,10
1490984291998,3,-21,-12,4,-10,2,12,1,2
1490984291998,3,-27,-14,-25,-4,7,6,1,-7
1490984292044,0,19,8,-18,-7,-19,-14,-2,-6
1490984292044,0,-10,5,17,7,-4,11,-3,-14
1490984292045,1,16,19,32,24,-5,-7,1,-2
1490984292045,1,-7,-3,0,6,8,8,-2,24
1490984292045,3,12,-3,-71,3,9,12,0,16
1490984292045,3,15,-15,27,0,10,3,-2,-24
1490984292046,0,-24,7,10,34,18,16,1,12
1490984292046,0,5,30,67,6,6,-9,1,11
1490984292141,1,-7,1,27,11,0,-3,-5,-41
1490984292141,1,-41,-16,-103,-4,-1,5,-2,2
1490984292142,2,0,-2,-51,-39,-22,-3,-1,-10
1490984292142,2,51,20,15,-2,-5,10,-1,18
1490984292143,0,0,-27,-38,-6,0,-3,-4,21
1490984292143,0,-35,-11,-17,-4,13,12,1,-3
1490984292144,1,86,17,-35,-22,23,-3,5,18
1490984292144,1,3,-5,105,36,-47,-5,-3,7
1490984292190,2,-14,-21,-51,23,14,17,-1,-18
1490984292190,2,-27,18,-15,-45,3,-16,-2,-4
1490984292191,3,6,-7,-7,-20,6,-1,4,25
1490984292191,3,22,15,-21,8,39,8,-3,-9
1490984292192,1,-21,2,12,10,-8,-15,-3,-31
1490984292192,1,-41,-15,-96,7,19,5,-3,-6
1490984292193,2,-17,38,14,-4,-34,-1,4,8
1490984292193,2,8,4,4,-21,31,-7,3,-27
1490984292239,3,-7,-75,-121,15,-43,13,-4,41
1490984292239,3,-15,-9,-29,-29,12,-1,-9,-14
1490984292239,0,16,7,-21,-33,3,6,1,23
1490984292239,0,-11,42,93,48,-6,0,2,1
1490984292240,3,-12,52,81,-2,0,-34,-2,-1
1490984292240,3,-9,-9,-1,5,6,16,-3,19
1490984292241,0,1,-21,28,25,20,-12,-11,-40
1490984292241,0,-10,-30,-64,-8,13,7,6,6
1490984292288,1,22,55,-2,-13,-12,-8,-2,-2
1490984292288,1,-44,-51,28,12,0,12,2,-9
1490984292289,2,45,76,51,15,-30,2,1,4
1490984292289,2,4,-41,-56,-36,8,12,-3,6
1490984292290,0,-17,-14,-36,-2,7,6,-3,-9
1490984292290,0,38,-20,13,28,-7,-28,-1,-12
1490984292291,1,-34,16,-64,-45,-7,-11,-1,17
1490984292291,1,15,-36,-42,12,14,16,1,-19
1490984292336,2,-28,28,11,-7,6,-10,3,-5
1490984292336,2,1,4,2,11,12,-8,-4,5
1490984292337,3,22,46,103,10,-4,-18,2,-29
1490984292337,3,-17,-28,-64,-29,-20,-8,-4,-6
1490984292338,0,-35,-22,-55,-14,14,3,-6,2
1490984292338,0,1,33,38,-9,-8,11,-1,-1
1490984292339,1,9,-35,-30,20,8,37,-1,-4
1490984292339,1,0,40,91,29,24,7,-5,34
1490984292385,2,32,-3,40,19,-9,-3,-3,-9
1490984292385,2,-4,26,-21,8,4,-41,-6,-8
1490984292387,3,9,-25,-16,-40,-35,-35,-4,-19
1490984292387,3,-28,-15,-49,-48,-3,0,3,-35
1490984292388,1,18,21,8,-12,14,25,2,21
1490984292388,1,19,18,102,27,6,27,-8,17
1490984292389,2,6,6,31,47,17,46,2,-11
1490984292389,2,33,-2,26,-44,-40,22,-3,0
1490984292434,3,15,25,35,4,-4,-36,-1,-25
1490984292434,3,-17,-10,-54,-15,13,-32,1,-24
1490984292436,0,-28,-6,-2,-18,-39,-32,2,20
1490984292436,0,-16,46,20,-4,0,5,-2,-19
1490984292437,2,15,-79,-74,-2,5,-8,1,19
1490984292437,2,-46,70,64,-11,13,14,0,-27
1490984292438,3,49,-5,-59,-33,1,33,-3,44
1490984292438,3,-5,-44,-15,58,51,8,1,-16
1490984292483,0,-3,-17,34,-5,14,44,-2,-3
1490984292483,0,-22,-37,77,-18,-36,-2,0,-7
1490984292484,1,7,-20,20,11,-9,-16,-5,-11
1490984292484,1,18,83,-48,4,-10,-54,-2,-11
1490984292486,3,29,26,6,8,-6,9,-3,-12
1490984292486,3,-56,-39,16,24,41,24,2,-17
1490984292487,0,-2,17,-5,-8,-54,62,-1,-23
1490984292487,0,24,-53,-50,6,20,0,1,43
1490984292531,1,-50,-39,-10,-20,-2,-19,3,-5
1490984292531,1,50,-23,15,-24,-16,1,-3,39
1490984292533,2,4,4,15,-4,11,-38,1,-10
1490984292533,2,49,-62,-37,8,-2,-2,0,9
1490984292534,0,-9,0,87,32,62,56,-1,8
1490984292534,0,71,107,70,35,28,18,1,13
1490984292537,1,0,100,62,24,44,45,8,-2
1490984292537,1,5,39,25,-38,-61,-28,6,5
1490984292629,2,-61,-47,-72,-40,-36,-27,-3,-25
1490984292629,2,-10,-55,-128,-46,-11,-62,-8,-16
1490984292630,3,0,-48,-36,16,4,-31,0,3
1490984292630,3,9,-93,95,12,25,6,0,10
1490984292632,1,10,113,-33,-29,-29,-43,-6,-23
1490984292632,1,32,53,-62,-21,-14,-27,-5,37
1490984292633,2,-10,-29,25,4,-16,-52,2,-14
1490984292633,2,-8,-128,-79,8,-13,7,0,-12
1490984292678,3,5,-37,19,-6,-17,6,-4,-1
1490984292678,3,80,-15,-32,-15,3,38,-3,3
1490984292679,0,-104,-4,78,79,78,27,4,6
1490984292679,0,3,31,89,24,-3,21,0,7
1490984292680,2,84,25,-126,-35,33,39,2,7
1490984292680,2,-3,3,50,5,31,24,-1,18
1490984292681,2,-87,-50,-87,6,-11,-1,-1,-7
1490984292681,2,6,-100,-78,-27,3,5,2,26
1490984292726,3,11,-72,-39,-9,-3,19,-2,-13
1490984292726,3,-41,-45,12,16,30,23,0,-4
1490984292727,0,40,-62,29,-7,0,9,0,25
1490984292727,0,56,62,-12,-9,-22,8,-5,3
1490984292728,3,31,-53,-29,-32,-9,-30,-4,16
1490984292728,3,6,-52,-63,-3,-43,-21,-2,4
1490984292729,0,-16,-69,-36,0,-15,4,-2,-12
1490984292729,0,5,-8,-29,-1,-1,9,-1,-19
1490984292775,1,3,79,58,-1,17,4,-1,4
1490984292775,1,-46,66,120,15,47,-2,-2,-1
1490984292776,2,25,94,32,-6,7,-5,-9,23
1490984292776,2,7,-48,-64,7,-39,-1,0,-11
1490984292778,0,26,49,15,-26,16,6,1,-11
1490984292778,0,-41,6,79,17,46,10,2,1
1490984292779,1,20,-19,33,18,29,6,1,-5
1490984292779,1,-11,-54,-8,-3,-15,-1,0,12
1490984292824,2,-25,-38,-3,-19,-13,3,-1,2
1490984292824,2,15,17,68,-5,40,19,-2,2
1490984292825,3,15,81,120,16,40,17,1,13
1490984292825,3,3,118,-16,-19,2,-25,-2,-17
1490984292826,1,-18,-76,-76,4,-45,-12,-1,-20
1490984292826,1,24,-81,-36,-3,20,20,-2,8
1490984292827,2,22,8,17,-5,35,8,0,4
1490984292827,2,37,61,46,6,15,11,3,11
1490984292873,3,16,-49,8,-9,-8,6,1,11
1490984292873,3,-34,-27,4,-5,-35,-4,-2,-10
1490984292875,0,-25,-17,5,-12,-14,7,1,-14
1490984292875,0,-51,-24,28,-19,-22,4,-3,1
1490984292876,2,-24,15,-12,8,91,4,-2,-14
1490984292876,2,-32,22,-65,-9,53,16,-2,-15
1490984292879,3,6,10,-58,-6,-4,1,-2,21
1490984292879,3,10,15,14,9,-46,-4,-1,5
1490984292921,0,43,39,34,-9,-42,-19,1,23
1490984292921,0,16,0,14,11,-9,-11,1,5
1490984292923,1,-24,-106,-15,12,6,-5,3,-11
1490984292923,1,3,-81,-28,5,-4,1,1,11
1490984292924,3,20,94,5,-13,3,-6,-1,-15
1490984292924,3,28,-58,-28,-6,-5,5,5,20
1490984292925,0,-58,-91,-13,7,-23,10,-1,-3
1490984292925,0,-21,-86,5,4,8,9,2,-25
1490984292970,1,20,-12,45,2,36,-8,-1,2
1490984292970,1,23,-24,17,-6,-5,-2,-3,4
1490984292972,2,-3,-93,4,-12,-34,7,1,20
1490984292972,2,65,89,-88,-11,-14,-13,-1,10
1490984292974,0,32,-18,36,15,-9,-1,-5,8
1490984292974,0,-32,-120,63,13,21,9,2,-13
1490984292976,1,-16,-68,6,10,7,3,-5,8
1490984292976,1,-30,-2,-1,14,-2,-4,-2,-8
1490984293019,2,32,15,-8,-25,5,-4,1,0
1490984293019,2,-11,-9,14,-8,1,3,1,25
1490984293021,3,5,16,-10,-4,0,12,-1,4
1490984293021,3,-20,-15,-17,4,-12,-6,2,-11
1490984293022,0,78,46,4,-6,-11,-9,2,-17
1490984293022,0,-58,-35,-38,-8,-2,1,-1,3
1490984293023,1,28,0,14,-11,-5,0,-1,14
1490984293023,1,-70,-1,11,8,8,5,0,0
1490984293068,2,4,23,-10,-1,-8,-2,-2,4
1490984293068,2,31,14,6,-3,0,2,-3,-18
1490984293069,3,13,-19,10,1,3,-2,-3,-3
1490984293069,3,31,14,-4,-14,2,-1,4,-8
1490984293070,1,48,-36,-5,7,6,3,2,7
1490984293070,1,-36,40,-10,-18,-3,-2,-1,-3
1490984293071,2,44,-16,-23,-38,-14,1,0,-2
1490984293071,2,-53,-13,48,10,-5,-4,-2,3
1490984293116,3,-19,13,-34,11,11,2,1,-11
1490984293116,3,62,6,-16,-11,-7,-7,0,3
1490984293118,0,7,8,13,6,11,5,1,-5
1490984293118,0,66,26,0,-22,-10,-2,1,14
1490984293119,2,-39,-28,-86,-15,7,4,-2,-20
1490984293119,2,-3,7,62,10,5,5,-1,-22
1490984293119,3,-22,-21,-54,-8,-4,-3,-1,6
1490984293119,3,47,26,17,3,-14,-10,2,3
1490984293165,0,-100,-35,19,7,4,11,-2,7
1490984293165,0,52,44,24,-5,-11,-9,2,-14
1490984293167,1,-76,-8,2,12,-1,1,-1,17
1490984293167,1,39,-80,-44,-10,15,6,-4,17
1490984293168,3,-59,-39,8,4,11,15,-2,-63
1490984293168,3,59,59,-3,-16,-23,-13,-1,28
1490984293169,0,-10,17,45,3,10,-1,1,-25
1490984293169,0,47,-34,-21,-2,1,-2,-1,27
1490984293214,1,-46,58,10,24,-1,-12,-4,-13
1490984293214,1,-47,-107,-42,30,23,25,-1,30
1490984293216,2,78,72,44,-36,-33,-23,-2,-10
1490984293216,2,-22,-50,-67,4,13,18,-2,28
1490984293217,0,47,10,-4,11,-2,-4,-3,27
1490984293217,0,-13,0,-28,-23,-3,-9,-2,-31
1490984293218,1,11,18,32,-6,3,-7,3,12
1490984293218,1,-16,-3,19,-26,-6,2,-2,-30
1490984293263,2,-3,79,33,23,-8,-7,-1,-35
1490984293263,2,-46,-93,-105,-3,16,13,-6,33
1490984293267,3,65,66,73,19,-5,-9,-2,-6
1490984293267,3,-18,50,10,-13,-3,-11,-6,-37
1490984293268,1,77,35,-19,-22,-18,-6,1,30
1490984293268,1,29,18,34,-7,13,-3,0,6
1490984293270,2,-50,-39,-20,60,12,16,0,-34
1490984293270,2,22,57,35,-28,-38,-26,2,-16
1490984293312,3,-24,-61,-33,-20,32,20,2,51
1490984293312,3,62,72,23,24,-17,-5,-1,-6
1490984293314,0,8,-89,-47,-17,16,7,-1,-14
1490984293314,0,2,67,5,-59,-10,4,0,-8
1490984293315,2,-36,14,66,78,7,-6,-2,38
1490984293315,2,-110,31,5,67,13,-15,2,-79
1490984293316,3,54,-45,-59,-83,-27,5,-8,14
1490984293316,3,18,57,25,-35,13,-2,0,2
1490984293360,0,-30,-49,34,38,-19,1,-4,-2
1490984293360,0,50,22,-54,-57,0,3,0,28
1490984293361,1,22,54,26,-1,-9,-14,0,13
1490984293361,1,-74,-11,-42,76,21,-1,-1,-54
1490984293362,3,-68,16,42,49,36,5,0,-15
1490984293362,3,32,-30,-32,-11,-21,-1,-3,14
1490984293363,0,19,82,21,-40,0,-6,2,-23
1490984293363,0,-62,-39,65,58,23,9,-4,-22
1490984293458,1,21,97,82,-38,-27,-29,-6,-58
1490984293458,1,-37,-128,-81,1,27,18,5,67
1490984293459,2,58,97,-14,-4,-66,-12,0,-32
1490984293459,2,-51,-73,-89,-2,33,25,1,-23
1490984293460,3,19,15,6,33,16,8,1,-30
1490984293460,3,-84,10,56,-13,1,3,-2,-3
1490984293506,0,122,-67,-70,-24,1,1,0,11
1490984293506,0,-1,107,127,-12,3,-11,-2,21
1490984293508,1,-68,-92,-17,75,-4,10,-4,18
1490984293508,1,122,41,-6,-80,-15,-18,-6,-44
1490984293509,2,-123,-73,-4,79,16,-5,-4,53
1490984293509,2,44,34,-110,-59,-60,-2,-1,-23
1490984293509,0,4,109,127,68,-23,-31,-3,3
1490984293509,0,-16,-69,-51,-35,-6,-5,2,-47
1490984293555,1,15,-72,47,56,21,1,-3,-40
1490984293555,1,-9,26,23,-51,-10,-14,-2,14
1490984293556,2,-22,-59,-114,-6,1,16,-1,37
1490984293556,2,127,79,73,7,-12,-35,2,38
1490984293557,3,-79,-30,-49,3,-1,2,6,-56
1490984293557,3,21,37,55,-9,-13,1,-3,46
1490984293558,2,4,39,-90,-128,-38,1,3,-15
1490984293558,2,47,30,-1,5,7,16,-4,16
1490984293604,3,-63,16,60,47,13,-10,5,9
1490984293604,3,-48,-128,31,2,24,21,-4,-39
1490984293605,0,-25,16,29,18,-17,-18,-3,-15
1490984293605,0,64,-1,-32,1,-19,7,1,-32
1490984293606,3,58,44,-31,-58,-52,4,-5,41
1490984293606,3,29,45,-37,-18,39,5,0,52
1490984293607,0,29,-103,100,90,51,1,-3,-28
1490984293607,0,-40,16,-87,-42,-34,11,3,-10
1490984293653,1,47,19,-64,-11,-20,-30,-2,-24
1490984293653,1,-78,-87,-128,-11,9,34,-1,56
1490984293654,2,36,70,91,-32,18,-16,-1,13
1490984293654,2,35,58,99,31,26,0,-2,-35
1490984293655,0,-1,57,29,-25,64,33,1,30
1490984293655,0,-53,-23,115,47,-45,-21,0,-10
1490984293656,1,25,-63,-91,-6,39,4,-1,-3
1490984293656,1,35,-24,104,28,-73,-16,0,31
1490984293702,2,-22,66,68,4,20,10,-1,-10
1490984293702,2,10,23,-110,-31,24,4,-3,-8
1490984293703,3,-9,-9,103,2,18,12,6,-25
1490984293703,3,11,67,-63,4,-68,-21,-2,-8
1490984293704,1,22,50,-84,-64,-82,0,-4,8
1490984293704,1,7,-7,11,7,21,10,-2,6
1490984293705,2,117,100,-97,-15,-15,-30,2,79
1490984293705,2,-93,-8,127,28,79,6,2,-18
1490984293750,3,29,28,69,65,-35,-18,1,0
1490984293750,3,14,-31,-79,-68,19,-9,1,-8
1490984293751,0,-58,-118,-26,-35,30,46,-2,-22
1490984293751,0,56,-70,123,29,-80,-19,-1,57
1490984293752,1,-21,-21,-67,41,127,23,-1,-12
1490984293752,1,0,127,127,34,-54,-17,1,-15
1490984293753,2,-36,-92,-101,-24,-29,-2,1,-19
1490984293753,2,-55,18,-78,-42,-16,-1,-3,-20
1490984293799,3,6,-22,2,-45,2,11,-1,26
1490984293799,3,91,43,64,12,-85,-2,2,26
1490984293800,0,-79,16,14,25,114,20,-1,-46
1490984293800,0,17,25,127,53,-2,-12,-3,-12
1490984293801,2,-17,95,87,-19,-108,11,-1,18
1490984293801,2,28,-77,-107,-7,13,9,-1,38
1490984293802,3,9,-58,3,3,35,18,-15,45
1490984293802,3,-8,-1,127,88,81,-22,6,-50
1490984293848,0,88,7,-119,-35,-5,-43,1,27
1490984293848,0,-5,76,126,-40,-84,20,1,31
1490984293851,1,11,-24,-82,3,86,8,-1,-2
1490984293851,1,-60,-20,-25,-38,-57,-18,-2,-37
1490984293853,3,75,37,-25,-14,-128,30,3,59
