1490985619322,0,-105,-30,-25,5,-4,12,22,-65
1490985619322,0,-41,-15,53,-2,28,-11,0,-8
1490985619324,1,18,2,15,-3,-1,-8,-6,25
1490985619324,1,35,14,22,8,11,-3,-11,-1
1490985619324,2,45,-10,-8,2,-13,4,-10,33
1490985619324,2,-28,-15,-21,-4,-18,-12,-31,-13
1490985619370,3,37,5,-9,-11,-15,0,20,-12
1490985619370,3,5,-24,-27,-4,11,15,-5,-14
1490985619371,0,13,8,12,-8,2,-12,14,26
1490985619371,0,-3,-15,-8,0,-4,-7,-21,2
1490985619372,1,-3,33,5,2,10,11,34,-2
1490985619372,1,10,5,-10,3,-5,-5,20,10
1490985619373,2,30,-3,-3,-10,3,-20,-49,-12
1490985619373,2,-19,12,29,5,4,-5,9,2
1490985619419,3,-77,-9,-4,4,-5,2,-21,0
1490985619419,3,77,14,1,-5,-3,-14,7,-7
1490985619420,0,-16,-18,1,6,-4,7,25,15
1490985619420,0,39,9,-12,-13,-1,25,-5,-4
1490985619422,1,10,-11,-3,1,12,15,2,16
1490985619422,1,-97,-23,-7,-7,-5,-11,-6,-14
1490985619468,2,106,26,38,3,-2,-7,-3,32
1490985619468,2,29,8,-23,3,-1,-8,17,-17
1490985619469,3,-35,-4,-6,-11,-5,-15,-78,-31
1490985619469,3,-10,6,3,0,9,4,50,26
1490985619469,0,-19,-26,-9,-6,-3,7,15,-8
1490985619469,0,10,0,-2,4,1,-1,22,10
1490985619470,2,-80,-13,12,11,1,5,10,-25
1490985619470,2,71,36,-3,8,6,4,7,23
1490985619517,3,-67,-33,10,1,3,3,-13,-5
1490985619517,3,1,-6,-3,3,-2,17,12,-9
1490985619518,0,9,46,-33,0,25,29,-14,-5
1490985619518,0,1,-23,-21,-12,-10,-12,-11,-8
1490985619519,3,-50,-26,-20,2,-2,-2,-11,-29
1490985619519,3,83,66,-25,-38,-5,5,49,54
1490985619519,0,-14,-19,51,-2,-8,-3,-7,0
1490985619519,0,-41,-12,6,29,24,-14,-17,2
1490985619614,1,45,18,11,3,6,24,8,6
1490985619614,1,-6,-7,7,20,4,22,-52,4
1490985619616,2,-6,-26,-61,-26,1,11,-16,-6
1490985619616,2,11,-29,3,-12,-15,4,-5,6
1490985619616,0,5,19,-21,-23,-3,2,-9,0
1490985619616,0,-33,30,7,-6,-5,0,-9,0
1490985619617,1,-16,-61,-27,11,3,-6,11,-2
1490985619617,1,-5,47,19,-4,-4,-9,-10,-16
1490985619662,2,-15,-35,56,45,12,-5,-12,28
1490985619662,2,-26,4,-29,11,0,10,23,-12
1490985619711,3,84,24,-23,-38,-19,-15,12,1
1490985619711,3,-50,-68,-28,-46,-13,-3,-11,-1
1490985619712,0,30,41,21,-20,8,-15,19,-22
1490985619712,0,-75,10,2,10,-21,-9,-15,-20
1490985619713,1,-15,-69,-46,3,13,-2,2,26
1490985619713,1,40,47,-3,-9,-2,1,19,1
1490985619714,2,-41,-62,31,-5,-6,2,-2,2
1490985619714,2,-10,-12,-41,-37,-14,-29,-29,7
1490985619761,3,31,23,2,-7,1,21,-12,-1
1490985619761,3,-7,-5,10,18,7,-10,-4,-33
1490985619763,2,32,61,-12,-27,-13,-26,-3,-24
1490985619763,2,32,18,23,-2,-3,11,-21,29
1490985619763,3,-76,-3,-13,16,3,-1,37,-13
1490985619763,3,81,17,17,6,8,-1,-39,6
1490985619764,3,52,-27,-30,-3,-8,-20,-17,3
1490985619764,3,-7,109,32,17,9,25,-14,-25
1490985619809,0,0,-95,-18,14,1,24,8,32
1490985619809,0,-33,53,-20,23,17,12,8,-22
1490985619810,1,51,-68,-11,-31,-16,-18,-46,1
1490985619810,1,-57,-53,-73,-9,-11,-20,10,4
1490985619812,0,-20,27,10,13,2,43,55,-27
1490985619812,0,-27,-98,-37,12,-6,34,7,46
1490985619813,1,-45,78,30,-17,-4,29,35,1
1490985619813,1,49,17,4,29,13,15,-2,-3
1490985619858,2,-29,33,34,36,12,12,-1,-14
1490985619858,2,79,6,-1,-91,10,17,-23,-40
1490985619859,3,57,-3,-33,19,-22,-8,-17,-5
1490985619859,3,-124,-41,-30,71,14,-8,36,2
1490985619859,1,38,-78,-27,-18,43,-13,10,23
1490985619859,1,-24,-30,-43,-38,10,-11,-15,-34
1490985619860,2,-57,-67,-105,28,-10,-16,-45,10
1490985619860,2,112,15,54,-65,-34,-3,51,-35
1490985619906,3,-5,1,80,38,-23,1,-2,-5
1490985619906,3,39,43,30,19,-22,7,0,74
1490985619908,0,-26,15,-24,-20,-22,12,-3,-43
1490985619908,0,-22,-31,-30,10,4,5,9,27
1490985619909,2,-68,-43,63,53,4,-17,17,-8
1490985619909,2,17,45,81,97,11,-18,-26,-19
1490985619909,3,-31,-15,-79,-87,0,16,38,5
1490985619909,3,-12,21,74,-28,-5,3,0,-23
1490985619955,0,61,48,0,10,-8,-8,-19,-32
1490985619955,0,62,40,-20,1,12,-9,-11,-4
1490985619956,1,-128,19,45,23,-13,-16,10,-33
1490985619956,1,-44,-46,22,-15,-3,2,19,48
1490985619957,2,3,27,-79,-19,10,4,-9,31
1490985619957,2,-87,-11,22,20,-15,-12,-14,-10
1490985619958,3,82,-34,-66,-63,-2,8,12,8
1490985619958,3,-114,0,20,14,14,8,12,-13
1490985620004,0,74,-57,-52,6,5,4,-20,-9
1490985620004,0,85,-43,-16,-7,-10,-11,-18,6
1490985620005,1,20,41,3,-31,-3,-1,2,-42
1490985620005,1,-112,17,6,23,0,-9,-12,-21
1490985620006,3,-63,-28,-43,21,8,-4,-23,9
1490985620006,3,-40,-67,-66,8,-1,11,-8,-2
1490985620006,0,42,127,64,-34,29,18,19,8
1490985620006,0,-110,-128,-128,28,-12,-13,-10,33
1490985620052,1,76,120,127,122,15,-4,-2,-17
1490985620052,1,35,89,-108,-6,-8,10,35,44
1490985620054,2,-30,-112,-125,-117,-37,-12,14,-34
1490985620054,2,26,66,7,-56,-25,-16,-28,-33
1490985620055,0,-59,65,63,12,55,6,29,-5
1490985620055,0,82,-38,-74,22,0,7,-27,-71
1490985620056,1,-84,28,-102,-76,-7,-3,-10,43
1490985620056,1,-33,-74,25,-11,-17,-16,12,15
1490985620101,2,-18,78,73,75,-17,1,17,-57
1490985620101,2,42,-104,-44,25,60,29,-1,20
1490985620102,3,93,84,-97,-92,-18,-19,-22,-26
1490985620102,3,-71,-47,61,-65,-44,-16,-30,-39
1490985620103,1,-35,69,64,43,12,6,-6,32
1490985620103,1,44,74,63,100,73,26,11,-17
1490985620104,2,-4,-52,-121,-84,-2,15,-20,11
1490985620104,2,-111,74,-20,-103,-57,-22,-8,35
1490985620150,3,10,-65,-65,46,-24,2,17,2
1490985620150,3,-62,-81,62,100,30,-7,9,-44
1490985620152,0,95,88,1,55,24,4,-28,7
1490985620152,0,-40,107,-80,-108,-6,10,13,20
1490985620153,2,-18,-128,24,-5,-2,13,31,16
1490985620153,2,3,-95,33,-41,-12,-17,-28,-9
1490985620154,3,-60,-19,33,58,29,23,16,27
1490985620154,3,23,-100,72,69,-19,-25,-15,-56
1490985620199,0,-62,-59,-104,-65,5,109,-23,20
1490985620199,0,-49,12,114,-43,5,118,65,-26
1490985620200,1,-27,-43,19,7,-26,22,-72,-20
1490985620200,1,51,63,33,-43,-10,-48,21,20
1490985620201,3,39,43,19,-65,-3,-59,-2,10
1490985620201,3,25,51,-63,-1,-35,-70,9,23
1490985620202,0,-26,31,-56,-75,-38,-101,-66,-46
1490985620202,0,-29,37,25,85,-4,-47,57,-1
1490985620247,1,16,22,111,83,21,-29,8,31
1490985620247,1,-58,4,43,18,36,12,-8,4
1490985620249,2,-15,5,-29,48,3,-10,-20,50
1490985620249,2,-15,29,-120,-63,-19,-43,-27,-31
1490985620250,0,35,21,127,127,70,60,91,1
1490985620250,0,114,20,-85,-76,-63,-15,-77,8
1490985620251,1,-105,-16,-125,-128,-47,-24,11,-62
1490985620251,1,8,-5,15,76,10,2,-1,21
1490985620296,2,39,16,127,40,49,-7,11,7
1490985620296,2,-27,5,67,1,-1,-18,10,7
1490985620298,3,4,-14,124,80,18,13,-44,-4
1490985620298,3,90,2,-28,-108,4,23,23,1
1490985620299,1,8,-1,25,-40,-7,-22,-21,27
1490985620299,1,-27,2,-23,100,-1,-3,-74,-9
1490985620300,2,5,-1,-89,-97,-9,6,79,-20
1490985620300,2,-104,2,30,14,6,31,-26,-3
1490985620345,3,93,-1,81,71,39,4,73,86
1490985620345,3,-40,-2,66,-122,11,13,-17,-66
1490985620346,0,20,-1,-68,87,-27,-3,-31,50
1490985620346,0,-11,4,-83,-94,-55,-56,-34,-50
1490985620348,1,11,-1,29,83,79,51,54,22
1490985620348,1,-114,-6,4,-128,2,-12,31,-5
1490985620349,2,38,4,-46,-89,-41,-37,-20,-26
1490985620349,2,38,3,74,127,30,-16,-6,50
1490985620394,3,-77,-5,1,21,-45,21,9,-24
1490985620394,3,36,-2,-79,126,105,30,26,13
1490985620396,0,21,3,127,-92,-15,-15,-70,-2
1490985620396,0,-15,0,-111,109,-16,-8,71,11
1490985620397,2,-13,2,17,-43,-17,-25,-5,-17
1490985620397,2,-66,-1,127,101,45,49,-3,41
1490985620398,3,77,0,65,-6,11,14,-8,-8
1490985620398,3,-66,0,-128,53,-3,5,43,14
1490985620442,0,72,-1,-45,-50,-5,-7,-15,30
1490985620442,0,32,0,-11,81,18,36,-7,-31
1490985620444,1,-9,0,-128,-94,7,16,-7,16
1490985620444,1,9,-1,-17,-93,-104,-6,-29,-1
1490985620445,3,-10,0,5,110,13,-12,12,-30
1490985620445,3,-21,-2,76,-52,2,-20,-34,15
1490985620445,0,-53,1,-125,-26,-53,0,15,-15
1490985620445,0,77,1,127,-12,36,0,7,-9
1490985620540,1,63,-1,61,48,9,-6,-36,-5
1490985620540,1,-79,-1,-56,-105,-39,-42,30,53
1490985620542,2,99,0,-24,52,-17,-3,8,-52
1490985620542,2,-68,0,-35,38,19,-14,5,-61
1490985620543,0,17,0,-57,-44,-1,1,-15,22
1490985620543,0,56,0,-54,-96,-44,16,20,25
1490985620544,1,-86,0,-128,-62,50,-14,-50,-57
1490985620544,1,39,0,42,-55,-12,-15,13,-7
1490985620589,2,-9,0,25,127,49,33,39,32
1490985620589,2,-44,0,57,-124,21,18,3,-51
1490985620590,3,-24,72,67,-53,-71,-3,24,40
1490985620590,3,10,-34,-128,29,11,49,-32,-20
1490985620592,1,-4,93,-21,72,-14,-35,-9,-12
1490985620592,1,16,127,92,16,-8,-78,-41,-37
1490985620592,2,-19,-33,-18,23,24,-31,-11,17
1490985620592,2,19,-33,-52,36,8,42,46,22
1490985620637,3,41,-10,83,-63,-9,43,52,-15
1490985620637,3,23,-15,29,28,-19,26,45,62
1490985620639,0,-29,-18,-61,-65,-6,84,-32,-38
1490985620639,0,3,-31,15,-9,-34,76,-24,6
1490985620640,3,5,-71,-46,-54,6,69,-61,-21
1490985620640,3,-4,-44,-32,-20,-13,-1,12,1
1490985620641,0,11,-27,53,42,-53,-53,-7,12
1490985620641,0,35,55,29,4,68,-31,-72,19
1490985620686,1,-56,34,57,32,-20,-15,49,-2
1490985620686,1,29,-23,-87,-27,-48,3,-7,-2
1490985620688,2,27,61,32,25,70,-16,37,-23
1490985620688,2,10,-26,-41,-108,-39,-15,10,28
1490985620689,3,-10,-40,-28,41,23,-64,5,-18
1490985620689,3,-12,-8,-48,27,-15,-7,3,29
1490985620690,0,-22,78,52,32,-8,14,-52,-23
1490985620690,0,7,-30,33,-16,-4,38,-62,-38
1490985620735,1,42,43,-22,-19,-34,42,62,80
1490985620735,1,-10,-12,-63,-8,56,-2,-15,-36
1490985620736,2,-23,2,72,-16,-17,-10,2,10
1490985620736,2,-7,37,17,74,13,18,21,-10
1490985620738,0,-92,51,4,17,-73,-118,24,-12
1490985620738,0,86,15,41,62,84,-55,4,-9
1490985620740,1,55,-67,-14,14,-36,-41,-13,-16
1490985620740,1,42,-18,-35,-59,-21,-47,-43,8
1490985620784,2,-25,-43,27,10,4,15,-24,-6
1490985620784,2,-33,17,0,16,-10,13,-3,11
1490985620785,3,20,1,-43,-10,19,14,20,10
1490985620785,3,-12,125,57,71,-19,48,11,-10
1490985620790,1,-18,-48,-11,-13,0,35,-23,-12
1490985620790,1,13,-84,6,-11,-16,22,25,-9
1490985620791,2,17,-94,-49,101,75,21,-35,10
1490985620791,2,5,-96,33,-47,-75,33,-7,17
1490985620832,3,6,-5,0,-16,-4,-14,-33,-35
1490985620832,3,-19,4,-5,-21,6,-54,-26,29
1490985620834,0,64,-85,-29,-21,38,90,-28,-2
1490985620834,0,12,-24,12,27,18,88,-12,7
1490985620834,2,-4,30,-10,-14,24,-102,19,7
1490985620834,2,-21,-30,-37,-1,-57,17,11,-15
1490985620835,3,19,31,-19,-23,-15,59,-48,0
1490985620835,3,8,55,92,30,-57,-29,18,-11
1490985620881,0,-48,0,-78,-82,40,-105,-9,-7
1490985620881,0,-68,57,10,33,28,-128,44,36
1490985620882,1,-42,43,-12,48,27,-97,-13,-5
1490985620882,1,3,2,-7,-22,-7,-14,-110,-14
1490985620883,3,-4,-10,3,-15,55,115,31,10
1490985620883,3,-66,-47,-6,-28,7,43,26,-20
1490985620884,0,-17,-3,-20,11,0,17,60,-9
1490985620884,0,19,14,13,14,-69,-62,43,14
1490985620979,1,11,-19,2,2,26,50,33,-9
1490985620979,1,55,96,24,25,13,23,55,4
1490985620980,2,12,81,-25,-52,-46,25,81,9
1490985620980,2,-6,-30,20,16,-18,-36,26,19
1490985620981,0,-32,-57,-3,3,-28,-51,35,7
1490985620981,0,11,31,19,36,96,-15,4,-8
1490985620982,1,-21,48,-8,-18,20,-3,17,-5
1490985620982,1,-115,9,-4,-17,-34,127,35,19
1490985621027,2,100,-7,-5,1,-10,127,61,9
1490985621027,2,107,61,-12,1,26,38,-20,-35
1490985621076,3,87,-47,-2,-5,-50,-29,-8,11
1490985621076,3,8,-27,-5,11,-1,11,8,7
1490985621077,1,-6,85,3,41,70,33,12,-18
1490985621077,1,9,78,-1,6,14,-13,7,17
1490985621078,2,10,-36,3,10,-39,32,8,-7
1490985621078,2,-29,-47,-3,4,-10,-31,20,3
1490985621079,3,-1,-78,8,-11,-73,-38,-23,-9
1490985621079,3,23,0,-13,3,-1,-10,-10,-29
1490985621125,0,4,33,4,8,-10,3,-26,32
1490985621125,0,-19,-3,15,4,18,23,-14,16
1490985621126,2,5,50,-9,4,-14,-32,-4,-30
1490985621126,2,-16,-20,4,2,-7,-2,11,-3
1490985621127,3,-1,-21,-3,-28,-28,5,19,14
1490985621127,3,5,-43,-3,-3,7,25,-1,-11
1490985621128,3,-40,23,0,6,-5,-13,-12,-5
1490985621128,3,16,97,9,-4,-11,4,15,-2
1490985621174,0,8,43,9,-3,-12,0,21,5
1490985621174,0,-14,47,-10,-7,-5,-5,-21,-19
1490985621175,1,14,-54,-3,-4,4,-4,5,-9
1490985621175,1,15,-87,9,-19,-19,-8,4,12
1490985621176,0,-3,61,5,-14,-23,-2,3,10
1490985621176,0,12,56,-2,2,15,12,-7,-17
1490985621177,1,-7,28,-21,3,-15,-23,-13,2
1490985621177,1,5,-9,18,-15,3,37,-6,6
1490985621222,2,-8,-10,9,38,7,-31,-15,-15
1490985621222,2,5,-31,-15,-25,36,22,17,14
1490985621224,3,-8,1,1,-1,4,-5,11,1
1490985621224,3,-15,-28,-14,-9,-10,-20,-29,-24
1490985621224,1,-16,-23,-1,5,41,8,21,-14
1490985621224,1,22,-5,-19,-26,-9,-18,-10,31
1490985621225,2,-31,26,18,-10,-18,1,-15,-22
1490985621225,2,19,-22,-12,9,-14,-8,27,5
1490985621271,3,2,-2,4,5,24,13,-10,-4
1490985621271,3,14,17,24,28,0,-2,-2,15
1490985621272,0,4,-57,-7,-9,-1,8,10,-7
1490985621272,0,-36,-14,7,13,-9,-15,-7,8
1490985621273,2,73,26,1,7,7,-36,-4,24
1490985621273,2,-6,-1,-4,-5,43,4,1,1
1490985621274,3,-26,22,18,8,-25,-17,-5,-5
1490985621274,3,1,10,-1,22,2,-11,-8,-11
1490985621320,0,-49,-66,1,-28,0,13,16,17
1490985621320,0,21,62,13,18,-11,2,17,7
1490985621321,1,36,31,-14,-8,-20,-3,-13,9
1490985621321,1,-9,-9,51,-12,15,0,6,-19
1490985621322,3,13,-1,16,-20,-11,-9,-10,0
1490985621322,3,15,10,-62,6,-10,4,29,2
1490985621323,0,-33,-15,7,-3,-1,5,-31,3
1490985621323,0,7,0,-30,-15,-17,-4,-3,-8
1490985621369,1,4,-15,-15,-15,1,1,-8,-7
1490985621369,1,14,-22,-11,4,10,-1,-19,14
1490985621370,2,11,36,-5,17,20,11,53,4
1490985621370,2,4,14,40,4,-9,5,14,8
1490985621371,3,-46,-34,-20,8,-30,-13,-2,-6
1490985621371,3,-15,15,-15,-16,22,-6,-28,-28
1490985621372,0,3,-38,81,-13,-6,-12,-1,-7
1490985621372,0,5,-26,-61,-32,-4,-5,-26,12
1490985621417,1,-16,-1,49,56,-1,1,16,-1
1490985621417,1,2,42,-7,-24,-9,7,10,-6
1490985621419,2,-27,9,-32,-13,-8,-1,2,-2
1490985621419,2,4,-62,11,7,-3,-9,9,-12
1490985621419,0,7,12,-30,-3,14,13,-10,-11
1490985621419,0,-23,-4,53,-4,-16,-12,-3,-3
1490985621420,1,21,25,112,65,14,11,-9,7
1490985621420,1,30,62,-78,-28,1,-5,2,-7
1490985621468,2,-17,-74,-70,-77,-42,-26,4,-12
1490985621468,2,26,60,62,60,25,-20,-26,11
1490985621469,3,-49,-56,24,-48,4,-12,14,6
1490985621469,3,-33,6,26,23,-3,-13,23,-6
1490985621470,1,-11,35,29,15,-5,3,-16,-27
1490985621470,1,-7,-62,-50,-67,-11,4,23,18
1490985621472,2,-43,-5,24,18,7,1,7,-8
1490985621472,2,33,-16,6,-5,4,9,20,13
1490985621515,3,6,-89,9,-29,-2,1,-18,-34
1490985621515,3,-63,-86,27,52,1,8,0,-17
1490985621516,0,93,-15,-59,-27,11,7,25,35
1490985621516,0,-64,-19,21,-12,-21,13,-27,-21
1490985621517,2,63,39,94,56,17,26,-23,20
1490985621517,2,-87,124,-36,-61,-4,18,4,-17
1490985621518,3,59,-94,-6,6,-4,26,37,18
1490985621518,3,26,23,26,0,-9,-4,-43,19
1490985621564,0,-19,62,-19,-10,-6,19,19,-14
1490985621564,0,18,0,-28,-23,33,-30,-15,-7
1490985621565,1,-64,-62,-73,-26,-10,-34,33,74
1490985621565,1,64,51,68,64,28,-9,6,-58
1490985621566,3,56,6,-128,-38,-13,-6,4,13
1490985621566,3,-48,-128,106,6,11,21,-36,-10
1490985621567,0,7,117,50,39,-10,8,5,8
1490985621567,0,30,25,-6,-6,6,-2,-8,-23
1490985621612,1,-7,15,36,-22,2,-50,-17,-5
1490985621612,1,10,23,-89,-66,-21,-116,3,9
1490985621614,2,-53,-38,-11,7,0,-85,-22,-50
1490985621614,2,-2,-49,45,40,-5,-43,13,11
1490985621615,0,-51,-109,-19,-3,7,21,-5,-28
1490985621615,0,72,72,14,-38,-10,33,-4,24
1490985621616,1,-84,-11,-19,-12,-33,27,-24,-31
1490985621616,1,38,0,34,55,24,45,12,-14
1490985621661,2,19,27,-38,-51,5,-9,15,19
1490985621661,2,6,-79,-4,-19,-34,3,2,44
1490985621663,3,-57,7,48,11,13,15,12,5
1490985621663,3,6,-8,-32,18,-1,12,21,12
1490985621664,1,31,86,22,9,-14,8,17,-2
1490985621664,1,72,-21,-79,-43,3,11,-4,21
1490985621665,2,-45,-17,15,6,3,55,14,26
1490985621665,2,-15,12,-108,11,0,20,-8,-22
1490985621710,3,-42,-12,-25,6,10,23,11,-2
1490985621710,3,-31,-23,44,24,-6,31,-6,-10
1490985621712,0,59,17,45,-32,-7,15,-25,8
1490985621712,0,45,5,-47,-14,-4,-6,31,-10
1490985621713,2,5,2,50,12,1,106,45,15
1490985621713,2,23,-18,-20,31,9,122,-9,14
1490985621713,3,-37,-53,-27,-37,-18,-79,-5,-3
1490985621713,3,-86,-66,-4,-11,-3,-17,14,-15
1490985621759,0,60,39,-18,-10,3,-128,-2,1
1490985621759,0,-17,-24,-37,51,18,-101,29,20
1490985621760,1,85,60,57,0,-19,-73,7,26
1490985621760,1,-59,15,-92,-31,20,-72,-3,16
1490985621761,2,-72,93,47,44,-9,23,-8,-33
1490985621761,2,14,111,15,-46,-16,3,-33,21
1490985621762,3,-28,15,-7,-19,28,53,8,-28
1490985621762,3,29,-40,37,62,-15,31,-12,5
1490985621807,0,103,46,-38,-18,7,46,10,16
1490985621807,0,-63,-104,-6,-25,-1,19,18,-4
1490985621808,1,21,-41,-17,-7,-17,41,-24,-17
1490985621808,1,4,-6,17,-11,1,-5,12,-7
1490985621809,3,4,19,12,29,27,30,0,2
1490985621809,3,69,35,4,-9,-16,26,30,5
1490985621810,0,-71,-25,-10,23,9,-57,-2,22
1490985621810,0,-32,-36,-6,-46,-3,-54,6,-20
1490985621856,1,46,11,-22,-6,-6,5,8,-11
1490985621856,1,16,7,13,7,2,-3,8,26
1490985621857,2,7,22,-20,-18,-20,23,4,-2
1490985621857,2,8,5,42,25,42,70,-4,1
1490985621858,0,-5,-27,3,16,-4,50,-4,-5
1490985621858,0,14,-7,-29,19,0,13,-1,7
1490985621859,1,8,16,5,-20,-15,-2,10,-23
1490985621859,1,-6,2,48,-19,-4,13,14,-1
1490985621905,2,-28,-20,-25,20,13,-12,9,-10
1490985621905,2,12,5,13,39,-3,-11,2,10
1490985621906,3,-38,-16,-9,-19,2,6,41,-1
1490985621906,3,-31,17,-20,-13,-9,-14,-46,15
1490985621907,1,52,-7,-9,1,1,8,5,18
1490985621907,1,-25,-1,14,6,-9,14,-19,-15
1490985621908,2,-21,1,1,9,16,19,-26,3
1490985621908,2,41,7,2,-13,-31,1,11,-25
1490985621954,3,-1,-26,14,-4,26,15,-24,-12
1490985621954,3,-17,-21,-32,-29,-8,-2,10,8
1490985621955,0,28,-1,12,2,0,-20,-15,10
1490985621955,0,-6,-10,-21,11,-11,7,-27,-5
1490985621956,2,-20,-81,-27,-17,0,-24,-2,-12
1490985621956,2,-19,-17,-25,-27,-1,-9,8,6
1490985621957,3,27,96,25,27,4,-4,-29,3
1490985621957,3,-48,114,-2,21,2,9,21,-2
1490985622002,0,-20,9,19,10,-1,2,-4,-11
1490985622002,0,-30,-106,-2,-24,7,-2,13,-11
1490985622004,1,61,-128,-27,-11,-13,-13,-3,8
1490985622004,1,-66,-128,8,-3,1,-26,43,13
1490985622004,3,-70,2,10,3,11,26,12,-9
1490985622004,3,42,59,-14,-6,-12,-15,-23,-13
1490985622005,0,69,31,-1,-5,6,30,42,30
1490985622005,0,-111,91,-12,-4,6,21,-21,-8
1490985622051,1,37,46,1,-2,-9,-22,2,10
1490985622051,1,-47,-2,12,13,-1,-2,-18,-12
1490985622100,2,43,45,-3,9,13,32,4,9
1490985622100,2,71,53,1,-3,-6,5,-3,-6
1490985622149,0,-36,12,-17,-10,17,13,16,17
1490985622149,0,6,21,2,0,-3,-16,18,19
1490985622197,1,3,27,-1,-2,-2,-14,10,-13
1490985622197,1,-3,-3,2,7,1,-2,-32,-1
1490985622199,2,-5,31,11,14,-8,2,-4,-7
1490985622199,2,1,0,-19,-17,-1,2,6,-20
1490985622200,3,-9,-16,-18,-5,-4,5,-6,25
1490985622200,3,-23,10,2,-16,-9,-20,-23,-11
1490985622201,0,19,41,4,8,-3,-5,31,-20
1490985622201,0,-9,18,7,5,3,-4,-13,11
1490985622295,1,20,-31,16,12,9,7,29,17
1490985622295,1,33,-43,1,16,-1,-11,34,0
1490985622296,2,9,74,13,-9,3,-3,-23,-21
1490985622296,2,-3,-18,-6,-5,-13,-21,7,26
1490985622297,3,35,-19,-9,-14,-2,-3,38,13
1490985622297,3,-99,-102,21,16,-4,-19,15,-7
1490985622298,3,-45,0,18,27,9,16,25,9
1490985622298,3,-9,14,6,-12,5,6,0,-13
1490985622344,0,31,-2,-27,7,-6,7,-33,8
1490985622344,0,110,48,-46,-13,-5,23,-20,-13
1490985622345,1,-119,-35,34,-27,1,2,-5,0
1490985622345,1,-48,-6,12,24,3,35,61,8
1490985622346,0,-21,-4,20,-22,-23,-21,30,-40
1490985622346,0,47,104,43,11,30,13,-17,26
1490985622347,1,-3,42,-16,17,9,-9,-33,-7
1490985622347,1,67,-14,-14,-13,-18,-8,5,1
1490985622393,2,-34,12,-28,35,5,7,12,-3
1490985622393,2,-4,-78,-97,-71,-11,14,26,-29
1490985622395,3,39,85,107,7,-11,-8,-19,10
1490985622395,3,5,-15,-49,51,28,30,20,20
1490985622396,2,81,98,32,-27,1,-12,60,64
1490985622396,2,-11,14,-40,0,7,-5,-34,14
1490985622397,3,15,-25,61,23,6,31,27,14
1490985622397,3,16,9,24,-5,-6,-7,-45,-29
1490985622441,0,-40,-44,-72,17,5,39,10,45
1490985622441,0,-58,-2,121,-24,-12,-32,-1,-36
1490985622443,1,33,-28,-85,-2,-5,3,-25,-3
1490985622443,1,-61,33,-6,47,17,-22,6,-26
1490985622444,2,77,30,82,-26,-19,3,11,12
1490985622444,2,-52,60,-120,-55,-12,-15,-23,10
1490985622445,3,-40,-42,-4,-7,3,-14,34,-32
1490985622445,3,46,-13,31,11,12,19,9,20
1490985622490,0,30,-53,-54,58,1,-1,6,25
1490985622490,0,-43,22,118,38,22,9,10,-30
1490985622492,1,118,19,-72,-22,4,3,-34,-18
1490985622492,1,-69,1,-13,-22,-14,-7,32,58
1490985622493,3,-56,-44,8,40,29,0,12,28
1490985622493,3,30,-52,6,-6,-23,23,12,-11
1490985622494,0,-59,1,102,-82,5,-9,-50,-32
1490985622494,0,-28,-98,-128,4,-41,9,49,-13
1490985622540,1,50,86,107,-55,-11,-11,-3,-13
1490985622540,1,5,-6,5,97,59,1,2,13
1490985622541,2,-31,107,9,55,8,30,-12,19
1490985622541,2,1,-64,-40,-85,-11,-31,-23,-25
1490985622541,0,-82,-45,58,121,12,-6,5,-33
1490985622541,0,16,-3,-81,-18,19,2,-4,34
1490985622542,1,-66,2,90,3,-16,-3,-35,32
1490985622542,1,26,26,-52,-123,-24,-10,60,14
1490985622588,2,7,45,-43,49,6,5,113,-82
1490985622588,2,64,-22,90,15,-12,23,68,36
1490985622589,3,-6,-26,-43,-33,26,34,19,53
1490985622589,3,-26,1,12,7,-13,-53,-72,-90
1490985622591,1,-51,17,-47,-63,-29,-30,-54,-44
1490985622591,1,22,-14,89,55,-5,-2,-17,2
1490985622592,2,63,-7,50,58,71,24,-59,43
1490985622592,2,46,49,-70,-10,1,-17,-15,69
1490985622636,3,-41,-71,41,-51,-14,-1,-35,23
1490985622636,3,-1,69,-26,44,-6,-15,-3,-51
1490985622638,0,-128,-110,17,79,24,25,-37,-61
1490985622638,0,127,101,4,-9,0,27,-44,127
1490985622640,2,-54,18,106,57,0,-8,-45,20
1490985622640,2,-30,-5,120,36,14,-30,-3,-61
1490985622641,3,41,76,-46,52,23,14,65,30
1490985622641,3,106,-47,4,-100,-37,41,-49,29
1490985622685,0,50,83,-113,-77,37,9,-9,-19
1490985622685,0,-40,-92,15,-64,-8,8,15,-15
1490985622687,1,30,-41,110,127,23,-3,-48,67
1490985622687,1,-11,102,-119,-38,-16,10,14,-82
1490985622688,3,54,127,65,110,60,53,-19,17
1490985622688,3,-91,-110,-63,-91,-15,29,10,-40
1490985622690,0,106,-66,-78,-20,-45,-32,7,50
1490985622690,0,97,-76,98,83,59,7,17,-55
1490985622734,1,-99,-82,-22,127,21,-37,-35,-44
1490985622734,1,107,-128,-62,-50,-4,24,-36,47
1490985622736,2,-128,-128,92,-89,-122,-61,49,-108
1490985622736,2,127,-28,-122,82,65,-3,7,104
1490985622737,0,-44,-53,-11,24,18,-26,27,-18
1490985622737,0,65,-21,-39,-93,-58,19,-12,11
1490985622738,1,92,12,-39,127,7,21,11,28
1490985622738,1,-114,-71,19,-49,6,77,6,52
1490985622783,2,-103,76,-27,24,-12,68,29,18
1490985622783,2,-90,-75,72,3,39,24,-41,-93
1490985622785,3,127,63,-74,-128,-22,-1,52,83
1490985622785,3,-57,-29,-30,77,-42,-55,-18,40
1490985622786,0,70,-29,-15,-78,12,-32,-41,-48
1490985622786,0,-8,54,28,-25,-21,-6,19,-12
1490985622787,1,-55,43,46,-7,-4,0,-6,-30
1490985622787,1,77,108,41,-35,-17,-49,-41,36
1490985622832,2,-29,98,52,85,15,-2,37,-56
1490985622832,2,62,51,-128,-85,-29,20,-56,23
1490985622834,3,-58,5,-34,-37,-8,65,78,-19
1490985622834,3,-3,25,-33,110,0,37,-10,4
1490985622835,1,39,-11,86,45,7,-26,-19,28
1490985622835,1,33,127,78,-4,50,-31,-12,-3
1490985622836,2,41,-64,-50,-95,-3,-46,36,24
1490985622836,2,25,14,-13,106,7,-5,-53,-57
1490985622880,3,-64,-102,-9,-86,-85,-34,4,3
1490985622880,3,82,64,83,49,36,43,12,-11
1490985622882,0,65,95,114,-17,47,42,-52,47
1490985622882,0,61,127,-71,-74,-64,26,24,13
1490985622883,2,68,27,-11,108,15,14,100,51
1490985622883,2,-106,-119,-52,-54,2,-19,-2,8
1490985622884,3,67,56,92,-3,-8,-35,4,-32
1490985622884,3,-128,-128,6,-91,-1,-20,6,36
1490985622930,0,87,-84,-84,-17,22,7,-49,-69
1490985622930,0,-82,21,43,-45,-28,-18,30,68
1490985622931,1,41,-115,-47,-27,-1,-20,0,-4
1490985622931,1,86,18,79,24,6,-15,-40,49
1490985622932,3,-13,-4,-9,67,2,-14,8,36
1490985622932,3,117,71,93,115,64,18,16,21
1490985622978,0,-96,-34,-46,-128,-70,0,-46,0
1490985622978,0,-28,-73,-33,89,-64,-19,37,51
1490985622979,1,79,120,60,118,45,34,-18,-89
1490985622979,1,-76,-91,-121,-64,-17,-5,29,-16
1490985622981,2,24,46,49,-80,-34,-25,-24,-5
1490985622981,2,24,81,96,127,71,41,-19,6
1490985622982,0,0,-128,-128,-97,-36,123,45,-7
1490985622982,0,-126,102,127,107,-35,8,20,-81
1490985623026,1,41,101,38,40,42,21,-22,82
1490985623026,1,-118,-99,-18,-44,-24,94,40,-28
1490985623028,2,9,77,-64,-62,-8,103,22,4
1490985623028,2,27,-34,69,-25,7,127,-47,-8
1490985623029,3,34,107,-76,62,19,-21,-37,-14
1490985623029,3,-12,-62,90,-90,-38,-103,61,19
1490985623030,1,34,46,0,4,10,-99,18,30
1490985623030,1,-78,-29,-111,44,16,-124,-27,-17
1490985623124,2,96,5,39,-16,-18,-102,16,-9
1490985623124,2,-47,-102,-35,39,24,-97,18,-22
1490985623172,3,18,-81,49,-30,-29,-36,-18,58
1490985623172,3,-64,-78,-110,-70,-15,-69,42,-48
1490985623173,2,-7,-112,20,102,-23,-18,-31,-3
1490985623173,2,-8,-59,-48,36,98,26,11,21
1490985623174,3,-128,-77,-87,-81,-38,-62,0,-39
1490985623174,3,31,37,-26,-22,-2,20,41,31
1490985623175,0,69,45,100,47,2,5,-35,18
1490985623175,0,109,-30,-122,-65,-40,9,-14,64
1490985623221,1,-18,12,10,118,88,34,16,-43
1490985623221,1,31,-79,-78,-47,-46,-45,-64,-73
1490985623222,3,52,22,-126,-88,-102,-7,-27,28
1490985623222,3,-32,59,127,116,42,-15,-22,-41
1490985623222,3,12,4,-27,1,11,-31,20,-14
1490985623222,3,-21,3,5,-13,-20,43,-5,23
1490985623224,0,-18,9,-60,8,-25,-55,-23,-21
1490985623224,0,-70,-66,18,29,32,-112,52,1
1490985623270,1,30,69,46,28,-85,-7,-35,2
1490985623270,1,47,47,105,96,68,-128,-17,0
1490985623271,2,-8,-54,-41,-93,-34,-69,11,2
1490985623271,2,66,84,95,53,51,-6,-4,3
1490985623271,1,14,80,0,9,31,36,-88,-7
1490985623271,1,-2,64,24,35,20,113,-63,-7
1490985623272,2,-4,9,-20,65,38,41,-18,23
1490985623272,2,-4,-78,-22,11,10,-86,-14,-36
1490985623368,3,4,-68,-79,-91,6,-100,31,38
1490985623368,3,-42,-46,-32,-6,-24,-93,19,-19
1490985623369,0,36,15,56,-11,-32,44,-3,-13
1490985623369,0,-16,-20,-68,26,23,74,63,22
1490985623370,2,-18,-32,-37,5,39,26,45,10
1490985623370,2,46,-58,84,34,-36,13,29,31
1490985623371,3,-11,-98,-76,-34,-7,-4,-5,-13
1490985623371,3,-91,-4,-7,84,79,-2,53,31
1490985623417,0,-128,-17,47,-21,-25,-22,-3,-24
1490985623417,0,-97,11,-74,-91,-88,12,-26,1
1490985623418,1,85,41,-5,-6,61,97,48,-8
1490985623418,1,127,113,42,31,-42,40,-46,-10
1490985623419,3,-54,-27,0,-17,27,-80,31,-7
1490985623419,3,-76,13,52,-17,-41,-16,5,10
1490985623420,0,-33,-128,121,-35,35,68,10,-7
1490985623420,0,-19,-74,125,47,11,-6,-36,-10
1490985623465,1,-49,-56,44,12,58,-62,16,-4
1490985623465,1,-60,-40,-102,-29,-40,-117,-52,-15
1490985623515,2,-117,-23,-128,1,-21,-31,25,-13
1490985623515,2,-117,-11,-83,49,57,30,-38,19
1490985623516,1,-33,21,32,10,-33,-19,-35,-13
1490985623516,1,-53,-14,-51,-44,-10,88,6,-12
1490985623518,2,-31,18,-76,-4,-29,-6,25,9
1490985623518,2,-37,-2,-48,1,52,55,4,17
1490985623519,3,-1,-10,-60,-9,-33,-1,-16,2
1490985623519,3,23,-2,27,35,17,29,-38,-8
1490985623563,0,-12,-27,13,-13,-20,54,-83,-4
1490985623563,0,37,-23,-22,14,-33,4,-49,-5
1490985623566,1,32,-7,37,21,-14,-10,1,1
1490985623566,1,18,-9,12,-64,11,-13,62,-25
1490985623567,2,-100,-4,59,47,64,-48,71,68
1490985623567,2,-25,-10,29,-12,1,-54,44,1
1490985623568,2,-6,23,13,25,-3,-18,9,21
1490985623568,2,21,86,38,-16,-58,17,32,-7
1490985623613,3,-7,116,-1,-8,26,-1,25,44
1490985623613,3,30,125,6,-24,12,13,7,25
1490985623614,0,5,48,-10,-17,-34,7,14,-8
1490985623614,0,30,3,-9,-18,-68,-12,4,-4
1490985623615,3,-17,-78,-18,-20,36,13,-10,-21
1490985623615,3,7,-44,28,26,-6,-2,-17,15
1490985623618,0,14,-47,7,-3,-8,-1,0,-20
1490985623618,0,24,-36,-10,-10,5,9,15,4
1490985623660,1,-31,-47,-16,-9,33,32,-31,-14
1490985623660,1,-34,-33,-18,-24,-31,-23,18,8
1490985623661,2,23,-21,-2,-7,-14,-21,-34,6
1490985623661,2,15,-16,-9,-2,26,-17,14,-2
1490985623662,0,-21,-46,-25,9,12,33,-20,-7
1490985623662,0,-18,-3,28,-6,21,-24,18,4
1490985623663,1,16,-3,-16,-6,-15,2,20,-21
1490985623663,1,-2,-22,-16,-14,-16,-4,6,31
1490985623758,2,12,18,16,2,-2,-14,-34,-14
1490985623758,2,12,-4,-2,6,4,26,21,-3
1490985623759,3,-25,-3,24,8,-13,-14,7,-20
1490985623759,3,-26,15,-7,21,6,1,22,26
1490985623760,1,-11,36,13,-16,-11,-9,9,-7
1490985623760,1,23,-47,2,17,8,10,-22,-10
1490985623806,2,-18,30,12,17,10,0,21,5
1490985623806,2,22,-30,-25,-17,0,-15,-21,-9
1490985623808,3,27,18,14,-13,-25,6,18,22
1490985623808,3,-7,0,27,28,8,27,2,-7
1490985623809,0,38,13,1,-4,10,7,-4,3
1490985623809,0,-5,32,-13,-18,-20,-21,3,3
1490985623810,2,-25,14,4,-34,28,25,81,22
1490985623810,2,32,-5,-2,4,10,25,-18,7
1490985623855,3,14,-23,-21,7,-15,-5,-49,-12
1490985623855,3,84,83,76,43,11,2,-9,28
1490985623856,0,-28,-43,-28,-13,-14,1,-10,-1
1490985623856,0,-11,5,24,11,31,9,-51,-33
1490985623857,1,61,51,0,7,-48,-12,-15,75
1490985623857,1,-63,-28,-20,-49,-12,4,-11,-24
1490985623859,3,0,26,82,10,17,6,-13,-23
1490985623859,3,3,15,0,20,-2,-16,21,57
1490985623904,0,-13,-36,-62,-34,-22,-8,-18,-20
1490985623904,0,30,25,33,53,-5,-3,19,21
1490985623905,1,-29,84,-5,-50,7,-19,0,-16
1490985623905,1,-27,-127,-48,3,3,-11,50,24
1490985623906,0,0,-29,-81,-42,-41,-11,-31,-14
1490985623906,0,-8,35,34,53,45,2,20,54
1490985623907,1,8,-25,-22,2,1,0,-15,-30
1490985623907,1,6,16,-29,-26,22,1,-3,-46
1490985623953,2,-83,-90,22,32,16,2,6,3
1490985623953,2,24,49,47,32,-4,-3,-19,23
1490985624001,3,-11,-57,-14,-49,-8,-9,30,-32
1490985624001,3,-5,56,-65,-9,-4,-2,-24,-6
1490985624003,1,-50,-63,-101,-25,5,14,-17,16
1490985624003,1,47,-12,83,20,-23,-4,-23,-12
1490985624004,2,-25,50,34,-6,43,10,-15,-11
1490985624004,2,-38,-21,-28,-23,-25,-5,37,2
1490985624005,3,30,3,38,32,16,5,-2,34
1490985624005,3,-15,-45,-44,-20,-32,6,-54,-24
1490985624053,0,76,85,0,20,34,5,-36,12
1490985624053,0,-67,-33,-10,-6,-2,9,12,-39
1490985624054,2,-8,-10,6,8,-16,2,-7,23
1490985624054,2,19,42,-8,41,21,4,-33,-37
1490985624056,3,64,29,-51,-51,-14,-8,8,6
1490985624056,3,-99,-84,40,9,11,-1,28,0
1490985624057,3,-90,-62,-12,19,25,5,33,-25
1490985624057,3,37,9,19,-9,14,-15,-17,-6
1490985624148,0,-49,-21,-6,0,-17,-17,-18,-19
1490985624148,0,81,40,-25,42,3,-9,35,6
1490985624149,1,49,45,-10,6,-7,-2,-5,32
1490985624149,1,-52,-16,65,9,1,8,11,15
1490985624150,0,26,-12,41,-21,41,25,-28,-19
1490985624150,0,-3,6,-29,-23,-14,-13,-15,42
1490985624151,1,-23,-23,-22,68,13,27,34,35
1490985624151,1,19,52,13,8,13,5,-17,-29
1490985624196,2,-36,-50,40,-26,-15,-15,30,15
1490985624196,2,0,-23,-31,18,16,11,0,-42
1490985624198,3,21,32,55,-14,-3,-17,27,-7
1490985624198,3,52,6,-8,28,-14,3,19,19
1490985624199,1,-69,28,-72,-9,-43,-8,-31,-28
1490985624199,1,-7,-33,40,-41,13,2,-4,-19
1490985624200,1,9,54,39,42,20,13,33,13
1490985624200,1,-46,41,72,73,34,2,-37,-20
1490985624245,2,70,21,8,0,-2,-6,-47,52
1490985624245,2,-1,8,-92,-54,-12,0,7,-13
1490985624246,3,21,-32,70,-43,-31,-10,-42,51
1490985624246,3,-22,-15,21,91,33,-1,100,5
1490985624248,2,-30,33,28,46,-24,-23,8,6
1490985624248,2,-53,-43,48,44,7,13,-13,-1
1490985624249,3,36,95,-1,33,14,-1,-12,-40
1490985624249,3,50,73,63,16,41,18,-6,22
1490985624294,0,-46,-59,-10,-23,3,7,-8,-2
1490985624294,0,117,29,48,-10,-11,8,-1,5
1490985624295,1,-123,-60,-71,-31,2,9,-19,-33
1490985624295,1,86,47,36,-6,-41,-2,-11,-3
1490985624296,3,16,45,-54,22,-17,18,-20,-55
1490985624296,3,2,-64,-63,-36,20,38,5,6
1490985624297,0,-67,-11,-28,17,-24,22,-17,-27
1490985624297,0,-7,4,59,-40,-6,1,-10,33
1490985624343,1,17,16,9,-9,0,-25,10,-21
1490985624343,1,-20,-60,-59,51,21,-34,-15,26
1490985624344,2,43,100,21,1,-1,-51,28,-32
1490985624344,2,-35,-24,5,36,21,-109,13,34
1490985624345,0,-39,-40,50,41,-20,-5,0,-10
1490985624345,0,-6,-23,-110,-34,24,7,17,-3
1490985624346,1,40,-34,1,-70,-9,98,4,-22
1490985624346,1,-107,-35,-38,14,-11,91,34,-18
1490985624391,2,14,35,-53,-28,11,13,10,12
1490985624391,2,35,18,83,47,-18,-25,-5,-13
1490985624393,3,-29,85,39,25,5,-89,45,14
1490985624393,3,17,94,-13,-71,-25,-116,-7,-1
1490985624394,1,-18,-84,5,-9,9,48,-20,24
1490985624394,1,29,-4,25,-17,-24,68,-16,-21
1490985624395,2,25,12,9,31,-11,75,9,45
1490985624395,2,-16,-13,-49,-51,-17,84,-46,-32
1490985624440,3,26,-15,16,-6,20,72,-13,1
1490985624440,3,-3,28,-2,3,-19,40,11,0
1490985624441,0,19,-72,3,-5,11,52,0,5
1490985624441,0,27,36,-27,66,-6,48,-14,13
1490985624489,2,12,23,-12,12,2,11,-23,-16
1490985624489,2,-49,-38,-6,-26,-17,24,1,-13
1490985624537,3,-1,25,-19,20,18,24,-19,-5
1490985624537,3,33,-17,31,9,-21,23,-31,5
1490985624538,0,-11,-17,-6,-9,21,3,5,-1
1490985624538,0,12,-19,-16,-22,-10,12,21,-6
1490985624539,1,-32,23,24,8,-9,-122,-11,-3
1490985624539,1,-4,-41,-39,8,19,-92,21,5
1490985624540,3,52,-9,12,32,-11,42,6,11
1490985624540,3,-54,52,1,-5,20,64,11,13
1490985624586,0,19,-29,-18,-41,-22,35,23,-3
1490985624586,0,-5,-5,-5,-6,-5,40,-7,1
1490985624587,1,-3,-10,22,18,1,50,-11,0
1490985624587,1,9,32,-8,34,-9,23,-16,5
1490985624588,0,6,-18,-13,4,23,12,0,-18
1490985624588,0,13,-5,1,11,3,-2,-4,5
1490985624589,0,4,-121,14,-12,-5,-1,-2,-3
1490985624589,0,-24,-109,44,8,5,-22,-21,-19
1490985624635,1,20,-109,-25,-9,2,-3,48,23
1490985624635,1,-2,-8,22,17,8,12,-30,-1
1490985624636,2,-16,73,-35,-3,-14,1,-5,4
1490985624636,2,0,115,-8,-9,-3,4,23,-5
1490985624637,1,6,127,-17,-10,24,6,-13,14
1490985624637,1,38,36,15,5,-11,-9,-4,0
1490985624638,2,-1,21,-2,14,13,18,23,8
1490985624638,2,4,-33,-16,-12,-6,-11,-27,-23
1490985624684,3,-2,-65,3,-18,-12,-4,8,0
1490985624684,3,13,-2,7,6,-3,5,2,1
1490985624685,0,6,-44,8,3,-9,1,-84,-5
1490985624685,0,18,34,-23,4,4,3,-6,23
1490985624686,2,12,-59,1,13,-6,-8,52,-8
1490985624686,2,9,-43,14,7,0,19,41,16
1490985624687,3,-39,-38,-19,-26,-3,0,-1,-20
1490985624687,3,12,5,-12,-13,-4,-10,-41,2
1490985624733,0,-38,34,30,12,-8,-6,7,-6
1490985624733,0,28,58,7,4,7,-16,-4,-6
1490985624734,1,50,58,-2,-8,-13,2,24,13
1490985624734,1,-43,35,-11,24,11,2,10,-26
1490985624735,3,25,114,-1,1,-9,2,5,-15
1490985624735,3,-9,61,-11,3,-6,-11,-5,4
1490985624736,0,-44,-12,7,6,2,1,10,-14
1490985624736,0,84,-41,10,-4,5,-3,-3,-15
1490985624781,1,-60,-59,-7,-3,-7,-4,-1,9
1490985624781,1,-8,-27,-2,2,83,9,1,3
1490985624782,2,14,46,-25,1,119,3,11,6
1490985624782,2,21,76,22,-20,46,-9,4,17
1490985624783,0,-1,-76,-21,13,-95,-12,-1,-4
1490985624783,0,-42,-63,-16,-30,-80,2,0,-6
1490985624785,1,25,-41,-21,-1,-75,0,-12,16
1490985624785,1,58,7,25,-5,-59,11,18,6
1490985624830,2,-55,-26,-12,-3,-40,-6,-35,-15
1490985624830,2,21,6,18,12,-26,-5,17,21
1490985624832,3,-2,-34,26,1,-11,2,-52,-15
1490985624832,3,5,9,-30,7,12,-3,44,4
1490985624833,1,-66,-11,-22,-1,4,-3,-15,2
1490985624833,1,7,20,10,-15,-10,3,-27,15
1490985624834,2,74,30,3,6,8,-1,54,1
1490985624834,2,-10,9,-9,41,8,-8,-17,-3
1490985624879,3,-38,-42,-6,-32,4,-9,-5,-14
1490985624879,3,-23,28,-46,-22,-2,5,1,-13
1490985624880,0,39,-4,25,-3,-17,-15,4,17
1490985624880,0,-104,-32,12,-19,5,7,-11,-11
1490985624881,2,-48,-6,6,-7,4,7,32,13
1490985624881,2,23,3,-22,26,14,5,-18,0
1490985624882,3,-5,41,40,3,9,-4,29,8
1490985624882,3,-26,-71,-8,9,9,-4,-34,8
1490985624928,0,-49,43,15,23,2,-2,21,-2
1490985624928,0,42,22,0,-71,-14,-5,-22,7
1490985624929,1,18,-14,-10,17,-1,1,-66,-9
1490985624929,1,-90,-41,6,-2,-7,-17,48,5
1490985624930,2,75,0,-38,-36,-8,-3,-4,-21
1490985624930,2,-31,10,41,35,13,1,0,-5
1490985624931,3,95,28,-24,29,9,12,26,35
1490985624931,3,-62,-4,-47,-3,-7,-11,20,-22
1490985624976,0,42,-11,58,-7,-13,1,-51,16
1490985624976,0,1,17,-14,-19,-2,3,61,24
1490985624978,1,82,67,82,24,10,14,-6,-36
1490985624978,1,-91,-5,-50,35,0,-7,10,-25
1490985624979,3,18,29,6,7,5,3,-14,24
1490985624979,3,41,58,83,28,-9,15,-16,-34
1490985624980,0,-65,-26,5,-8,7,4,5,0
1490985624980,0,-42,45,60,23,8,-3,-76,31
1490985625025,1,48,7,-79,-9,2,-4,26,23
1490985625025,1,19,-64,28,-38,-10,-6,-46,-16
1490985625027,2,-82,26,20,32,3,-5,-2,-50
1490985625027,2,34,-49,-41,2,8,9,-4,32
1490985625028,0,6,-62,68,41,9,-4,4,-26
1490985625028,0,-81,7,-102,-26,-15,-4,57,-50
1490985625029,1,22,-31,-17,-26,-7,-16,-35,-13
1490985625029,1,-48,-53,-67,-74,-15,-5,1,-8
1490985625074,2,5,51,51,3,-5,-2,5,13
1490985625074,2,-25,4,12,69,20,18,-23,-40
1490985625075,3,6,17,54,36,4,6,3,-7
1490985625075,3,-23,11,-8,-1,8,2,42,31
1490985625076,1,-70,-78,-102,-11,3,2,31,11
1490985625076,1,-5,-59,-5,-101,-15,2,-43,-9
1490985625077,2,-36,50,-38,35,11,-6,31,18
1490985625077,2,94,81,40,29,-9,4,-5,-40
1490985625123,3,-20,97,3,68,35,23,-18,15
1490985625123,3,8,55,37,-15,-6,4,-15,-16
1490985625124,0,44,41,-30,-54,-10,-19,-18,-14
1490985625124,0,-57,-62,-26,46,19,-8,-18,17
1490985625125,2,-127,16,34,-62,13,-9,-36,-36
1490985625125,2,62,-26,-98,-116,-26,-33,63,30
1490985625126,3,-6,-94,71,88,18,7,-5,7
1490985625126,3,-33,-12,8,-18,4,1,33,-43
1490985625171,0,127,-31,42,-2,-3,6,-35,-28
1490985625171,0,-107,-65,74,57,29,12,10,1
1490985625173,1,79,2,-44,23,-20,-20,-15,-22
1490985625173,1,-15,-4,-50,-56,8,6,25,39
1490985625174,3,-48,-29,38,-27,13,24,25,-12
1490985625174,3,-64,80,-55,-2,0,-11,-10,-21
1490985625175,0,2,-107,35,1,6,-7,29,42
1490985625175,0,-20,-49,-97,-27,-31,-14,19,43
1490985625220,1,-33,80,105,46,28,0,-8,-43
1490985625220,1,95,-124,12,127,29,21,-28,-1
1490985625222,2,9,100,71,-68,-8,12,39,72
1490985625222,2,2,-26,-57,-80,-14,-6,-3,28
1490985625223,0,79,-84,77,29,9,16,6,-89
1490985625223,0,-6,29,-55,20,21,16,-15,21
1490985625225,1,-40,-88,-121,-105,-42,-22,-12,-84
1490985625225,1,59,-21,97,-15,-9,-28,15,-24
1490985625269,2,-99,27,58,127,24,8,-9,51
1490985625269,2,22,74,-4,-97,-11,9,12,-19
1490985625270,3,-62,-9,-91,-36,16,-3,-37,18
1490985625270,3,74,76,-79,39,-24,34,7,113
1490985625272,0,-108,12,-18,-88,-33,-25,45,-61
1490985625272,0,-26,-110,13,98,8,-1,-38,-92
1490985625275,1,4,23,-68,45,-10,-18,-11,12
1490985625275,1,104,51,-36,-19,28,-16,-27,4
1490985625318,2,-35,-16,-20,-28,-38,6,-6,-26
1490985625318,2,-8,58,-2,-61,-10,-15,-2,29
1490985625319,3,-5,26,89,77,10,-9,39,38
1490985625319,3,72,57,-67,-34,14,3,-6,-38
1490985625320,1,61,125,125,-11,-24,-10,-13,6
1490985625320,1,33,-40,-102,-128,-8,-20,51,13
1490985625322,2,-6,51,-105,117,21,8,-43,-31
1490985625322,2,12,2,7,-65,-52,-17,-9,-53
1490985625366,3,49,-98,4,-55,5,-14,-4,16
1490985625366,3,-128,-20,103,53,21,-22,31,2
1490985625369,0,7,-26,-63,-82,6,-17,-4,0
1490985625369,0,28,42,115,127,39,36,-53,8
1490985625370,2,113,93,-96,53,6,1,13,8
1490985625370,2,-67,-111,53,26,-17,-28,10,-4
1490985625371,3,49,14,-54,-35,-25,69,-13,-18
1490985625371,3,-13,105,127,83,22,52,-23,8
1490985625415,0,22,17,-97,-63,-66,9,13,22
1490985625415,0,-33,127,35,30,85,68,-15,36
1490985625416,1,-104,-128,-29,11,-34,-32,11,-75
1490985625416,1,119,-39,-47,-54,-27,0,-49,-51
1490985625417,3,-128,-1,81,-27,-20,62,49,69
1490985625417,3,-15,50,-91,25,34,46,41,-29
1490985625420,0,127,71,-7,19,35,23,-21,7
1490985625420,0,-50,-92,-36,-98,-45,-20,-3,-64
1490985625464,1,78,-3,-76,56,-9,-76,22,54
1490985625464,1,-39,-128,106,18,-2,-33,-18,-53
1490985625465,2,40,85,-103,-70,5,25,-26,75
1490985625465,2,-9,4,126,127,74,34,92,11
1490985625466,0,13,12,-35,-50,-9,-39,-5,-67
1490985625466,0,35,-4,85,-38,-52,116,-37,52
1490985625467,1,-21,-1,64,90,47,116,23,3
1490985625467,1,59,82,66,39,-1,7,-61,-14
1490985625563,2,-57,-77,50,113,25,-66,-11,39
1490985625563,2,-3,31,-128,-128,-100,-128,-22,-35
1490985625564,3,29,-10,84,36,3,-121,-71,-32
1490985625564,3,-54,92,-92,69,-6,-104,31,-2
1490985625565,1,-128,-24,-74,-67,12,-74,-49,-8
1490985625565,1,12,53,64,29,15,-22,75,-40
1490985625571,2,61,23,-51,-58,8,-20,-36,-31
1490985625571,2,85,90,-18,36,29,22,24,66
1490985625610,3,-90,-77,42,-49,-14,-33,64,-38
1490985625610,3,-2,3,-58,-64,-60,-53,-31,-23
1490985625611,0,28,59,-65,105,41,-17,-57,-11
1490985625611,0,110,29,98,-56,21,60,15,42
1490985625612,3,-63,-46,-53,-93,-33,0,-46,7
1490985625612,3,10,3,31,71,82,16,-10,-50
1490985625613,0,-36,46,127,82,8,63,82,38
1490985625613,0,-14,-128,-61,-41,1,21,-8,-7
1490985625659,1,127,127,21,82,22,0,-93,-21
1490985625659,1,-128,-128,-90,-128,-70,-34,54,-1
1490985625660,2,30,88,38,30,-70,-45,-5,-64
1490985625660,2,34,-45,-82,-77,-14,-12,18,52
1490985625707,3,-37,-2,-47,102,14,21,45,-46
1490985625707,3,28,113,88,21,24,60,-55,67
1490985625709,0,-18,-101,-40,-92,-17,55,50,15
1490985625709,0,-31,32,84,62,-12,36,-31,-49
1490985625710,1,60,-57,-27,4,-11,11,85,44
1490985625710,1,-80,-100,33,-26,-10,-35,-13,-10
1490985625710,2,-42,-58,-65,-34,-21,-57,4,16
1490985625710,2,75,85,122,105,38,92,-36,-17
1490985625756,0,53,-32,14,-62,-12,29,-20,24
1490985625756,0,-83,-91,-18,-55,-20,-115,99,-28
1490985625758,1,-45,39,22,-16,-23,-116,34,-32
1490985625758,1,-2,-77,-73,-118,-15,-112,22,-12
1490985625759,2,8,-8,-32,77,-14,-90,-49,-5
1490985625759,2,43,36,21,84,26,-104,-25,7
1490985625760,1,19,-13,-89,-65,-4,63,0,14
1490985625760,1,-38,-84,-128,-11,-54,37,-73,-34
1490985625805,2,-2,92,127,119,44,63,83,37
1490985625805,2,11,32,22,85,-3,85,-11,24
1490985625854,3,32,67,112,127,43,3,-37,-17
1490985625854,3,-31,-31,34,-128,-47,-55,32,-16
1490985625856,2,-59,13,127,-5,-28,-81,-53,-1
1490985625856,2,40,-37,-104,-128,14,-80,44,33
1490985625857,3,-54,-35,57,-128,16,-89,27,-47
1490985625857,3,-4,-70,-45,26,-26,-66,26,40
1490985625857,0,61,41,2,44,34,-89,9,2
1490985625857,0,-34,-43,52,66,-18,-87,-53,-6
1490985625903,1,-8,-79,-105,-87,-4,-63,6,-1
1490985625903,1,28,111,121,27,23,-1,21,13
1490985625915,3,54,44,124,127,-39,31,-12,2
1490985625915,3,-19,-116,-113,-123,33,114,40,42
1490985625916,0,-55,127,77,2,-12,-58,28,-5
1490985625916,0,-19,37,8,2,54,-1,32,-19
1490985625917,1,8,-59,-90,-95,-53,-79,25,-3
1490985625917,1,-2,-78,37,113,40,-24,-34,3
1490985625951,2,37,-104,-85,-38,-11,-10,17,15
1490985625951,2,-19,-128,-20,-44,-28,-39,1,0
1490985625953,3,6,-60,25,83,39,-55,-11,6
1490985625953,3,-16,-103,-51,-97,-45,-64,55,-22
1490985625954,1,-23,-65,-84,-43,3,15,-4,-17
1490985625954,1,-7,-19,39,48,-18,42,25,-31
1490985625955,2,23,-35,32,19,2,-2,5,28
1490985625955,2,26,66,52,115,39,18,-4,17
1490985626000,3,8,6,-13,-30,-43,17,18,17
1490985626000,3,-11,51,50,-35,19,26,-47,-34
1490985626002,0,-22,-65,0,-86,-31,38,65,22
1490985626002,0,-14,8,-6,83,14,28,-63,-6
1490985626003,1,-7,19,-101,-121,-8,12,-25,-31
1490985626003,1,10,-10,8,98,-75,-12,19,21
1490985626004,2,8,22,30,41,57,51,-13,-13
1490985626004,2,-110,6,55,-7,-10,17,4,17
1490985626049,3,-58,72,88,122,51,17,-32,-12
1490985626049,3,-106,-96,-124,-128,-55,-86,32,-11
1490985626050,0,22,-30,82,90,14,-47,-43,-11
1490985626050,0,18,-48,13,40,-44,-94,24,1
1490985626051,2,16,-53,23,-35,-50,-2,6,-23
1490985626051,2,25,-59,-25,-14,20,17,42,15
1490985626052,3,18,-85,59,32,16,1,14,1
1490985626052,3,56,-31,121,57,-26,53,-24,-7
1490985626098,0,-16,48,86,-39,-11,13,40,30
1490985626098,0,42,127,79,-39,9,82,-28,-10
1490985626146,1,3,115,5,-62,-7,90,-6,-13
1490985626146,1,3,127,127,25,40,107,46,5
1490985626195,3,-42,60,-125,11,62,-58,4,14
1490985626195,3,13,55,-128,-63,20,-96,-9,-13
1490985626197,0,3,79,-122,26,12,-128,-34,-26
1490985626197,0,-57,-5,-126,-37,-11,-92,-36,27
1490985626198,1,79,-38,-116,-18,-14,-82,41,-18
1490985626198,1,91,48,-31,57,45,-99,-43,9
1490985626199,2,127,29,-115,1,9,-107,35,13
1490985626199,2,-48,0,-128,-21,-28,-82,9,-31
1490985626244,0,-104,2,106,-19,-6,22,33,11
1490985626244,0,-52,-84,81,18,43,81,-14,4
1490985626247,1,-116,-71,127,0,39,105,-11,83
1490985626247,1,-70,-98,105,-15,-10,127,0,-13
1490985626248,2,9,-43,-43,-22,0,18,86,7
1490985626248,2,36,-29,-29,2,-6,51,54,-9
1490985626249,3,-21,-15,5,7,21,22,1,-23
1490985626249,3,23,3,-4,-11,-30,-12,-36,10
1490985626292,0,7,-18,-18,16,0,-6,10,-11
1490985626292,0,-12,9,5,-8,-55,-37,1,3
1490985626295,1,7,10,-2,31,118,38,-10,-22
1490985626295,1,20,6,3,29,-21,39,-21,36
1490985626296,3,-18,1,5,3,-28,-18,-19,-17
1490985626296,3,10,3,6,13,32,-13,27,26
1490985626296,0,-9,4,0,-18,-42,-26,-91,-16
1490985626296,0,-6,-7,-28,-29,78,50,89,8
1490985626341,1,-13,1,5,9,-1,14,-31,-9
1490985626341,1,10,-14,3,-16,-17,-22,-28,11
1490985626343,2,-8,-5,4,25,-1,-21,-55,-16
1490985626343,2,10,5,12,-9,2,38,9,-15
1490985626344,3,-2,-12,-8,-6,-8,-25,50,-1
1490985626344,3,-4,-6,1,-4,-10,12,-17,6
1490985626345,0,5,-4,1,10,59,15,19,2
1490985626345,0,-3,2,0,-3,-8,-18,-40,-18
1490985626390,1,24,4,8,5,-4,37,9,4
1490985626390,1,-16,-17,2,-6,-46,-11,11,1
1490985626391,2,48,-4,-12,-22,17,3,-3,14
1490985626391,2,-65,-12,-12,-10,10,-18,15,-19
1490985626392,0,-8,11,-19,-6,-59,7,15,-3
1490985626392,0,22,7,-7,-12,18,22,12,9
1490985626393,1,-4,21,-22,-20,-6,-21,-105,4
1490985626393,1,-23,-15,7,4,13,-3,-64,1
1490985626439,2,12,28,20,13,4,6,-21,-11
1490985626439,2,-2,-3,-7,3,-31,-32,-17,-11
1490985626440,3,12,7,12,0,-9,-10,78,25
1490985626440,3,43,-5,-7,12,23,38,41,-3
1490985626440,1,23,-14,-27,-21,-28,-4,25,2
1490985626440,1,-32,-8,-17,-12,0,3,32,-19
1490985626441,2,9,-20,-3,0,20,10,16,-2
1490985626441,2,4,47,34,29,-19,4,18,9
1490985626488,3,-14,-16,-14,-5,-13,-22,-58,-6
1490985626488,3,-11,-49,-12,-27,36,14,26,8
1490985626489,0,5,26,-18,-1,-18,2,-21,-13
1490985626489,0,-32,-17,21,4,11,-4,-21,-6
1490985626491,2,-7,5,1,0,25,15,32,15
1490985626491,2,14,-9,-1,3,-6,-11,18,-1
1490985626491,3,-1,26,-1,-7,-16,8,-4,0
1490985626491,3,-5,-65,28,-1,-8,-5,34,-4
1490985626536,0,-14,0,-37,-5,-12,-8,-17,7
1490985626536,0,-12,-5,-2,-15,53,33,-32,7
1490985626539,1,20,76,37,15,-7,22,84,-10
1490985626539,1,19,17,-4,-5,-7,16,-5,-11
1490985626540,3,-12,-57,33,52,38,-6,-17,-8
1490985626540,3,0,44,-40,-43,-1,-9,-13,0
1490985626541,0,-12,-72,36,-8,5,-17,4,25
1490985626541,0,-6,77,90,13,-19,-19,-31,-19
1490985626585,1,0,3,-37,2,-12,-14,-5,-12
1490985626585,1,38,-13,-54,-3,-6,-28,-43,16
1490985626587,2,-70,-18,3,-25,-7,-14,25,-25
1490985626587,2,22,16,-26,-4,-1,-43,-12,8
1490985626588,0,45,12,-12,3,6,-2,-43,6
1490985626588,0,10,3,-19,37,14,22,47,9
1490985626634,1,-53,12,-41,0,-7,24,-5,1
1490985626634,1,26,4,30,-31,13,11,20,7
1490985626683,2,11,-2,-32,-5,-17,-6,4,-12
1490985626683,2,8,-18,22,-4,-9,-17,6,11
1490985626684,3,-20,-36,-23,26,2,-1,-20,2
1490985626684,3,-20,38,-27,-5,6,5,-20,-2
1490985626731,1,75,36,41,25,10,28,-3,0
1490985626731,1,-81,18,13,30,13,-5,-53,15
1490985626733,2,16,-63,-36,-35,-2,-27,-14,-5
1490985626733,2,-40,1,-28,2,-10,-22,-48,-14
1490985626734,3,-6,-10,31,-26,5,-15,30,-4
1490985626734,3,52,56,35,13,-25,-18,9,-6
1490985626735,0,-47,-50,-69,41,10,-30,28,-15
1490985626735,0,24,-16,45,-24,-7,-25,-8,17
1490985626780,1,1,-30,-42,-36,7,-9,9,-15
1490985626780,1,-32,-83,-56,-14,-21,-15,15,-17
1490985626782,2,-39,-31,86,17,1,17,3,-22
1490985626782,2,55,26,-50,-5,-14,9,-6,-21
1490985626783,3,-41,-23,14,-28,3,23,13,18
1490985626783,3,73,7,69,36,-2,7,5,-6
1490985626784,3,53,29,-107,-21,10,-12,-31,-7
1490985626784,3,-21,15,22,16,-3,-1,0,-8
1490985626830,0,-29,64,-21,-11,-2,-2,18,9
1490985626830,0,10,41,93,12,5,-5,-54,19
1490985626831,1,-54,27,26,32,-6,9,31,-29
1490985626831,1,82,108,8,-37,-4,-1,-23,8
1490985626833,0,53,53,-12,-4,7,9,8,-13
1490985626833,0,-16,-2,-27,-63,-33,-7,18,0
1490985626834,1,-7,-45,5,-29,-19,-6,6,29
1490985626834,1,-29,-78,-57,36,25,0,24,4
1490985626881,2,22,30,103,59,-7,-17,-12,2
1490985626881,2,-46,-30,-42,-7,7,-3,-5,-38
1490985626882,3,7,-22,18,-52,-12,8,-59,10
1490985626882,3,-11,-2,28,33,-10,-22,-4,-16
1490985626883,1,-9,-77,-91,-13,-14,-18,16,-11
1490985626883,1,48,-22,75,-38,-9,12,29,14
1490985626885,2,-42,48,27,22,-4,-16,-22,-16
1490985626885,2,19,-17,-47,18,12,-14,-18,-3
1490985626926,3,-8,-8,85,-31,9,11,14,5
1490985626926,3,-5,-10,77,35,-12,0,-11,-26
1490985626928,0,46,36,-24,-29,-17,-12,8,0
1490985626928,0,-19,2,-42,-18,0,-40,5,22
1490985626929,2,4,-109,29,40,14,-17,-10,3
1490985626929,2,58,54,-13,4,10,20,13,15
1490985626930,3,11,6,1,10,4,68,-6,-13
1490985626930,3,-43,4,7,-6,2,90,26,-9
1490985626975,0,50,-26,-114,-4,-13,3,-33,-4
1490985626975,0,-52,6,66,-17,19,-24,-22,-24
1490985626976,1,-76,22,72,-15,-21,-77,-8,24
1490985626976,1,14,59,-54,-12,7,0,42,-2
1490985626977,3,4,11,-19,-2,41,-27,-31,-7
1490985626977,3,-40,-44,-46,-20,-6,-128,-56,-6
1490985626978,0,-59,3,-20,-23,-14,-69,30,4
1490985626978,0,31,-33,65,36,-1,26,28,31
1490985627024,1,18,8,-20,35,1,65,-9,-24
1490985627024,1,14,-30,-39,-32,1,119,0,27
1490985627025,2,3,69,16,-23,-21,127,8,5
1490985627025,2,-58,1,13,16,46,76,9,16
1490985627026,0,13,2,34,1,20,0,-7,-19
1490985627026,0,-12,-44,-18,43,-1,42,-22,4
1490985627027,1,-8,11,24,26,-8,55,45,21
1490985627027,1,26,-15,-29,-55,-20,31,-20,-22
1490985627072,2,-1,-7,-35,-39,11,39,19,-1
1490985627072,2,-29,3,7,-16,-22,-66,12,-8
1490985627073,3,8,-35,-18,20,17,-116,60,3
1490985627073,3,-7,-18,36,6,17,-89,28,2
1490985627074,0,-5,-16,21,47,18,-6,-19,-1
1490985627074,0,22,-20,-15,-18,-8,54,-9,-13
1490985627075,1,17,21,-22,-37,-47,34,-39,-2
1490985627075,1,-68,102,8,38,56,35,-11,11
1490985627121,2,38,125,-10,19,8,46,-28,15
1490985627121,2,-18,127,-4,-32,-31,32,22,-5
1490985627123,3,10,30,-21,-13,3,23,-16,-2
1490985627123,3,10,-114,21,-5,-11,24,21,18
1490985627124,1,-2,-128,16,5,-13,12,-10,5
1490985627124,1,10,-117,-58,10,20,15,-25,-20
1490985627124,2,-28,-62,-25,-40,-16,-2,14,5
1490985627124,2,50,-14,14,-1,0,38,4,-12
1490985627170,3,-16,3,19,-3,11,60,3,8
1490985627170,3,19,77,15,30,-11,34,12,0
1490985627171,0,-23,63,0,12,-11,38,-30,-2
1490985627171,0,7,77,-8,-31,-6,22,12,-10
1490985627172,2,-27,25,9,2,0,-7,-19,-10
1490985627172,2,27,-60,2,7,9,13,16,21
1490985627173,3,7,-60,-28,-17,8,-2,-23,-27
1490985627173,3,77,6,2,12,-33,-6,6,6
1490985627219,0,28,54,8,10,16,14,-13,6
1490985627219,0,-17,12,-3,-5,13,15,-6,-4
1490985627220,1,-42,28,-13,-11,-20,-28,-5,-12
1490985627220,1,-51,8,19,-8,-9,-10,0,-5
1490985627221,3,33,60,-2,-29,4,19,15,38
1490985627221,3,-17,72,-14,-13,-11,24,14,-12
1490985627235,0,-77,-15,4,14,13,-11,1,-2
1490985627235,0,35,-16,12,7,-20,-5,-34,-10
1490985627268,1,0,-66,25,2,15,-11,25,-9
1490985627268,1,31,-5,21,0,-2,-10,-28,9
1490985627276,2,12,20,24,-11,-3,8,6,-7
1490985627276,2,3,4,-4,-16,-17,-35,-23,-14
1490985627277,0,-49,-21,21,-1,2,-3,3,-25
1490985627277,0,-84,-2,-9,-4,4,-12,-47,23
1490985627278,1,28,-24,27,-5,-8,-8,-17,-2
1490985627278,1,78,-3,-13,1,3,-5,18,-12
1490985627317,2,108,-23,-26,-13,-16,-19,18,3
1490985627317,2,37,-11,-19,6,14,-4,27,1
1490985627318,3,-93,19,16,-5,-8,3,5,0
1490985627318,3,-107,11,-13,10,12,-8,-109,-14
1490985627319,1,-65,13,-15,11,6,2,36,-2
1490985627319,1,11,3,-24,-20,-9,-8,86,13
1490985627320,2,-44,10,6,6,-3,10,23,-10
1490985627320,2,0,3,24,5,9,-2,22,7
1490985627365,3,76,6,-15,-5,-3,11,-18,6
1490985627365,3,-35,0,-11,-9,-8,-2,-18,-11
1490985627366,0,-33,5,19,9,2,-15,33,8
1490985627366,0,-1,15,-19,7,-1,11,17,1
1490985627367,2,-33,25,-10,-4,-1,2,-3,-3
1490985627367,2,4,-5,1,6,4,3,-14,-5
1490985627369,3,28,-34,6,5,2,-9,-25,2
1490985627369,3,-27,-40,-16,5,-7,-1,-16,2
1490985627414,0,-20,-2,28,5,11,5,26,-2
1490985627414,0,-32,-22,-27,-16,-20,-16,-16,-9
1490985627414,1,-4,-28,-2,9,30,2,-25,-7
1490985627414,1,50,-7,10,0,-10,0,23,17
1490985627462,2,-17,-20,-19,-11,-7,-1,44,12
1490985627462,2,-42,-20,0,-2,2,7,-31,-26
1490985627464,3,10,17,0,-7,17,2,25,55
1490985627464,3,17,-32,5,7,-1,-7,23,-7
1490985627464,0,23,15,17,34,11,-1,-23,6
1490985627464,0,23,7,9,-9,-7,-12,10,-7
1490985627465,1,-29,13,-7,-9,-12,4,-10,-16
1490985627465,1,-37,-32,-5,-26,-6,0,-25,-16
1490985627511,3,31,-5,25,20,1,-13,-18,-42
1490985627511,3,-41,3,-7,2,0,-11,-10,-15
1490985627512,0,55,21,25,-2,0,20,12,11
1490985627512,0,42,15,-41,11,1,-5,4,4
1490985627521,0,-21,20,-17,7,-5,10,3,15
1490985627521,0,-12,-46,-35,-30,-1,-13,18,-25
1490985627522,1,15,-3,33,-1,-11,-13,-42,-9
1490985627522,1,57,11,-52,23,6,16,25,28
1490985627560,2,-15,-46,9,2,-2,-6,-29,-4
1490985627560,2,-45,19,73,44,16,14,49,17
1490985627562,3,-42,-19,-35,-34,-14,0,-48,-15
1490985627562,3,57,100,26,-34,-5,-13,8,0
1490985627563,1,-17,-16,4,9,3,8,22,-3
1490985627563,1,50,-4,-9,34,7,-5,-18,24
1490985627564,2,-57,30,47,2,1,-9,50,24
1490985627564,2,71,-54,-23,-46,-9,-16,-44,-26
1490985627609,3,-53,-2,-38,-33,-2,6,18,-6
1490985627609,3,-47,-11,-5,46,13,16,17,-19
1490985627611,0,69,-6,9,11,0,-3,-30,-1
1490985627611,0,-24,13,24,25,3,8,-11,-27
1490985627612,2,-44,35,45,20,1,11,2,18
1490985627612,2,50,-50,2,-24,3,-3,-26,1
1490985627613,3,35,2,30,17,-3,8,50,7
1490985627613,3,5,17,-34,-28,-12,-21,-13,-27
1490985627658,0,14,-3,-41,-12,7,-1,33,0
1490985627658,0,-54,27,77,41,19,6,-33,-17
1490985627659,1,20,20,-44,90,-4,6,-9,67
1490985627659,1,-2,-78,-22,-83,-21,-6,31,11
1490985627706,3,118,32,63,46,15,-8,90,64
1490985627706,3,-128,-45,-23,19,0,8,-50,0
1490985627708,0,79,6,-2,-5,-7,-7,3,16
1490985627708,0,6,-3,-24,-42,-13,12,26,-13
1490985627755,1,-3,21,10,-28,12,5,-54,-18
1490985627755,1,26,-10,-79,-60,-1,0,23,8
1490985627757,2,-49,11,104,51,-11,8,-8,19
1490985627757,2,-39,-8,-128,-8,7,7,-18,42
1490985627758,0,20,-20,-5,20,18,-8,18,59
1490985627758,0,44,88,43,127,-5,-15,35,-19
1490985627759,1,-86,-73,-128,-126,-10,18,-24,47
1490985627759,1,70,35,15,9,-3,0,18,-32
1490985627804,2,-71,5,13,74,5,-6,-34,-30
1490985627804,2,98,24,85,3,5,4,29,49
1490985627806,0,16,-1,4,-27,-12,-18,24,-39
1490985627806,0,-22,3,19,-50,-7,16,-60,-26
1490985627807,1,73,-53,-37,85,21,-5,18,-13
1490985627807,1,-15,37,-52,-74,-7,22,18,26
1490985627808,1,23,21,110,47,-8,16,26,-17
1490985627808,1,-56,-21,78,104,33,-8,-2,79
1490985627853,2,6,55,-92,66,11,13,-7,45
1490985627853,2,14,6,-31,-124,-42,-24,65,1
1490985627855,3,-52,-59,-115,52,44,-15,-40,-16
1490985627855,3,2,14,-41,-63,-35,-16,-10,27
1490985627856,2,-42,4,-14,-56,-15,-3,-1,86
1490985627856,2,68,2,-18,17,-29,-12,50,10
1490985627856,3,4,-17,-67,52,46,10,-31,-5
1490985627856,3,2,38,45,60,0,17,7,12
1490985627902,0,28,24,12,-59,-14,-18,-11,83
1490985627902,0,1,10,52,-39,-7,-21,-14,-36
1490985627903,1,1,51,127,50,22,13,41,37
1490985627903,1,108,30,-128,-67,-11,-1,-24,-49
1490985627904,3,21,-21,-77,-97,-23,-7,13,16
1490985627904,3,-58,-50,127,127,34,14,7,-44
1490985627905,0,113,46,13,-34,5,11,-11,40
1490985627905,0,-79,-15,-60,-65,39,15,-4,-73
1490985627950,1,18,-47,11,-121,6,20,-68,49
1490985627950,1,-40,-75,-128,-43,-38,-20,105,28
1490985627952,2,62,63,100,100,22,7,9,-10
1490985627952,2,31,42,-80,17,-17,-23,-54,-21
1490985627953,0,97,86,3,45,18,3,51,69
1490985627953,0,62,19,29,24,28,-4,3,-2
1490985627954,1,17,-37,-78,18,-17,-1,9,7
1490985627954,1,-72,-41,-73,-48,-59,-46,-21,-25
1490985627999,2,-8,-78,-67,74,1,6,12,-70
1490985627999,2,3,41,76,-3,-46,-14,-20,1
1490985628000,3,10,10,127,105,53,16,0,-28
1490985628000,3,2,106,28,23,5,-6,-36,91
1490985628002,1,80,-50,121,99,-14,7,31,2
1490985628002,1,64,40,-37,-65,-14,11,-3,-58
1490985628003,2,16,9,-70,-128,-50,12,8,-27
1490985628003,2,89,-32,33,69,-26,79,27,25
1490985628048,3,-128,83,-44,42,5,47,-2,-56
1490985628048,3,127,-6,127,127,83,48,-5,55
1490985628050,0,-62,-34,-86,-77,-19,1,-7,9
1490985628050,0,-112,-101,-128,-72,-54,3,2,-12
1490985628051,2,53,71,83,127,55,45,-71,72
1490985628051,2,21,109,69,-41,4,-20,51,-21
1490985628052,3,-7,-69,-70,-22,-40,-116,-40,-61
1490985628052,3,-128,-73,1,-89,-50,-128,4,-12
1490985628096,0,28,-30,55,65,-5,-76,-11,-9
1490985628096,0,58,-45,-14,14,49,-54,13,31
1490985628098,1,33,120,18,77,11,4,-44,8
1490985628098,1,43,28,-11,-55,42,126,5,-46
1490985628100,2,-103,48,-91,-95,-40,69,71,74
1490985628100,2,-69,-54,127,66,-17,10,-39,-6
1490985628101,3,77,59,-105,-127,-28,-76,7,-15
1490985628101,3,-64,27,21,124,19,-103,27,62
1490985628146,0,-17,-20,23,-1,18,-65,-42,-52
1490985628146,0,-41,61,0,85,20,-61,6,46
1490985628148,1,62,64,-38,-128,4,-65,-19,-17
1490985628148,1,-27,-78,-77,-58,-72,-67,-11,-1
1490985628149,3,-128,-77,30,-55,-45,-31,-17,1
1490985628149,3,70,127,10,20,34,-21,48,85
1490985628151,0,48,18,48,75,-35,-13,-10,-10
1490985628151,0,-109,-84,-89,-63,9,-6,35,-47
1490985628194,1,-16,-69,-61,-42,-21,-10,0,-20
1490985628194,1,69,79,112,45,30,-17,19,-30
1490985628196,2,-19,60,12,-32,-20,-2,35,24
1490985628196,2,69,127,7,127,53,1,-3,24
1490985628197,0,97,58,-128,66,90,-59,-27,79
1490985628197,0,-22,-55,-11,-117,-28,-64,7,-31
1490985628198,1,-70,25,28,112,18,-75,34,-23
1490985628198,1,50,-94,-128,-62,-3,-61,-62,38
1490985628242,2,-52,-120,37,-64,-59,-38,8,-30
1490985628242,2,0,59,61,86,40,-29,4,-27
1490985628244,3,60,-40,-61,73,15,12,9,43
1490985628244,3,39,11,93,53,45,16,1,11
1490985628245,1,-38,-102,-27,-72,-101,-6,-5,-71
1490985628245,1,-54,23,38,124,36,-5,73,2
1490985628246,2,52,15,-14,51,19,-11,-33,19
1490985628246,2,70,127,77,79,38,50,26,-11
1490985628291,3,-8,-17,-13,-57,17,31,-15,41
1490985628291,3,-78,-21,-128,43,4,-1,-21,-18
1490985628293,0,-37,-99,40,-90,2,7,3,-31
1490985628293,0,12,-97,-69,-81,-81,-41,-5,-63
1490985628294,2,-8,43,28,109,29,8,33,-43
1490985628294,2,39,88,63,-13,36,52,-19,47
1490985628295,3,-10,-70,-118,-128,-16,71,41,-3
1490985628295,3,-30,47,127,127,-4,33,-25,-12
1490985628340,0,3,23,-20,-18,-7,10,12,-14
1490985628340,0,-45,-8,-22,-38,1,22,-23,34
1490985628342,1,46,105,127,66,35,-39,-23,19
1490985628342,1,42,127,127,50,18,-10,-7,-14
1490985628343,3,-48,121,100,104,5,-55,-28,14
1490985628343,3,-4,46,2,-17,-29,-26,-25,-64
1490985628344,0,4,104,61,123,69,6,-27,9
1490985628344,0,40,-2,107,-65,-27,4,14,12
1490985628389,1,-27,-114,-88,-110,-32,5,33,20
1490985628389,1,-3,7,96,72,70,4,-9,-28
1490985628391,2,35,-66,-128,-85,-5,7,-71,31
1490985628391,2,-39,-78,-81,-61,-72,-46,50,-24
1490985628392,0,41,-63,121,-101,4,18,27,-9
1490985628392,0,-43,-61,-58,102,18,-22,18,22
1490985628393,1,1,-103,-117,7,-7,-35,-9,-30
1490985628393,1,-2,10,10,33,11,12,8,10
1490985628438,2,56,78,17,90,29,21,-4,45
1490985628438,2,-65,-42,-83,-90,-8,18,26,-25
1490985628439,3,1,45,45,58,7,-21,0,-17
1490985628439,3,64,44,82,-16,7,15,-4,31
1490985628486,0,-37,-46,-128,-108,-47,-1,25,-3
1490985628486,0,-3,-57,-59,-64,0,-22,-3,-10
1490985628487,1,-28,-12,32,86,-3,9,3,-7
1490985628487,1,-8,-19,15,15,-5,-2,-11,-6
1490985628488,2,-39,-12,9,17,-43,-8,30,-16
1490985628488,2,53,92,127,63,47,38,-30,24
1490985628489,3,26,-14,-118,-53,10,0,7,-9
1490985628489,3,8,-80,-59,-99,-25,21,24,12
1490985628535,1,-19,16,19,-12,19,19,12,-8
1490985628535,1,15,30,-19,6,-13,22,0,29
1490985628538,2,-2,-33,-95,35,-40,-1,40,31
1490985628538,2,-18,-21,-87,-78,-13,-25,-74,-51
1490985628539,3,-84,0,44,79,15,9,48,-6
1490985628539,3,-35,-16,-39,40,-21,42,-4,-11
1490985628540,2,-4,-31,15,17,49,126,-27,-19
1490985628540,2,25,64,46,-61,-21,36,-18,1
1490985628584,3,11,-51,-54,-56,-16,-35,18,4
1490985628584,3,7,-55,4,31,-20,-125,27,-9
1490985628682,0,9,-29,-28,-38,-5,-128,0,7
1490985628682,0,1,9,26,105,42,-126,7,0
1490985628683,3,-54,5,-20,-118,-14,-76,-8,-36
1490985628683,3,-17,-56,-79,-27,-39,-89,0,-23
1490985628684,0,-19,48,73,70,16,-63,-4,3
1490985628684,0,28,60,25,92,-31,-64,-6,9
1490985628685,1,49,-3,75,69,84,-45,7,15
1490985628685,1,-23,67,57,36,-39,-73,-16,19
1490985628730,2,12,-19,29,-128,-78,-32,-39,2
1490985628730,2,-56,-83,-117,-76,0,11,107,-5
1490985628732,0,33,31,79,-14,-18,55,8,56
1490985628732,0,-34,5,-20,-79,-18,46,-21,-36
1490985628733,1,23,99,7,29,-63,51,-2,-5
1490985628733,1,8,90,69,6,40,58,-6,-3
1490985628734,2,-1,65,70,88,43,17,-46,-15
1490985628734,2,33,95,4,-5,-4,1,-31,-9
1490985628828,3,-23,64,-33,-92,-15,46,5,5
1490985628828,3,-1,84,-44,-18,0,-3,-6,-3
1490985628831,0,-29,89,10,5,-8,27,15,10
1490985628831,0,-13,52,61,52,-10,8,-17,-10
1490985628832,3,12,-7,-8,30,15,25,-17,0
1490985628832,3,44,21,32,-15,-51,27,0,21
1490985628833,0,-19,23,-9,-17,62,57,12,4
1490985628833,0,2,-5,-39,7,5,89,23,-5
1490985628880,1,-21,14,14,21,4,-12,-67,13
1490985628880,1,31,7,0,-25,7,23,5,-7
1490985628881,2,-56,-9,-15,-19,-11,25,30,-12
1490985628881,2,49,3,12,34,14,23,-29,10
1490985628882,3,-4,3,14,-7,-19,-79,24,9
1490985628882,3,-23,-28,-32,-32,-54,39,-2,-8
1490985628884,0,35,24,-5,-18,-22,15,-10,3
1490985628884,0,-19,4,0,6,-42,-15,7,-22
1490985628925,1,10,19,-4,7,50,46,-99,19
1490985628925,1,1,-1,1,0,-22,-9,-49,-11
1490985628927,2,-5,6,12,34,51,-28,-31,0
1490985628927,2,0,-7,-8,-30,84,13,47,3
1490985628928,1,3,-9,-25,1,6,11,24,11
1490985628928,1,-9,-11,12,-7,3,-1,36,4
1490985628930,2,20,0,-9,-22,-42,-20,-8,-10
1490985628930,2,15,-8,-3,2,-19,3,0,7
1490985628974,3,-33,-8,16,13,-35,12,41,-14
1490985628974,3,6,-2,-12,11,14,26,-36,0
1490985628976,0,-17,4,-3,-20,20,52,-19,-1
1490985628976,0,33,26,12,12,-22,9,15,9
1490985628977,2,-8,13,23,14,78,15,0,-2
1490985628977,2,11,34,34,42,-6,0,-10,6
1490985628978,3,1,55,-60,-57,-32,-21,-2,-4
1490985628978,3,38,65,-25,-12,25,-23,24,3
1490985629023,0,-11,36,9,14,-32,-10,-40,-3
1490985629023,0,-23,-23,-14,-23,-33,-9,37,-9
1490985629025,1,10,0,35,50,46,-6,-3,-14
1490985629025,1,-5,-32,18,10,30,41,-2,18
1490985629026,3,-11,-14,12,-25,-2,-9,-38,-12
1490985629026,3,4,-58,-52,-8,-2,-32,-43,-17
1490985629027,0,-25,-22,13,2,-4,-13,60,10
1490985629027,0,44,17,6,11,24,-2,-34,10
1490985629072,1,-2,0,-27,-39,-23,-5,-2,-8
1490985629072,1,-54,-45,1,36,6,0,15,3
1490985629074,2,-1,-17,6,-15,42,9,0,16
1490985629074,2,-21,1,-1,-2,-15,19,-21,-36
1490985629075,0,18,-7,-21,9,-26,2,-6,23
1490985629075,0,-8,-8,10,-1,-7,-18,22,7
1490985629076,1,-2,9,-22,-36,4,-7,-12,-12
1490985629076,1,-15,13,-2,3,-3,-12,-12,2
1490985629120,2,-24,-26,-38,-2,-3,-15,-18,-25
1490985629120,2,0,31,-88,-7,-24,11,-31,5
1490985629122,3,-26,-8,85,-5,41,17,59,35
1490985629122,3,-4,19,-17,11,8,5,3,-8
1490985629123,1,38,30,1,14,-20,83,16,20
1490985629123,1,-35,-47,-44,-45,13,37,-10,1
1490985629124,2,31,34,-31,16,-28,-2,-3,-50
1490985629124,2,-2,-44,8,9,45,-42,21,-9
1490985629169,3,3,89,55,80,-17,-64,-47,-13
1490985629169,3,34,-17,68,-40,33,-58,28,22
1490985629171,0,19,-16,52,-62,-10,-33,-17,22
1490985629171,0,-10,8,-32,1,7,-17,44,4
1490985629172,1,-17,-14,15,58,-8,-4,-37,-27
1490985629172,1,-6,11,2,-11,-14,1,-24,-26
1490985629173,2,36,9,-19,11,-1,-5,35,6
1490985629173,2,-11,-50,2,-41,-21,0,-10,49
1490985629218,3,-11,-40,-107,-15,18,-16,20,-1
1490985629218,3,-11,16,25,54,-12,-49,-29,-24
1490985629220,0,-23,52,12,-47,-12,-26,12,-18
1490985629220,0,20,34,47,60,9,-1,-33,-6
1490985629221,2,20,66,78,-3,9,8,-6,26
1490985629221,2,8,-54,-31,15,4,14,-35,-10
1490985629222,3,-46,-32,-37,-7,-18,8,44,-30
1490985629222,3,5,3,30,-2,8,25,-5,1
1490985629266,0,7,40,0,-12,-3,0,3,6
1490985629266,0,-9,-41,-9,-32,-23,15,-13,2
1490985629268,1,19,-33,-3,-1,25,8,-7,4
1490985629268,1,85,43,-11,49,-10,6,27,5
1490985629269,3,-47,-15,118,-66,-19,-19,-15,-23
1490985629269,3,17,-8,-85,-39,-3,-5,10,19
1490985629270,0,7,-40,0,32,3,0,-15,0
1490985629270,0,2,-24,-27,-4,-18,-13,27,2
1490985629315,1,75,29,-16,22,-2,-2,26,8
1490985629315,1,-47,28,51,31,-5,1,-63,0
1490985629317,2,-27,-50,31,0,13,14,2,-26
1490985629317,2,42,89,49,-3,28,16,18,18
1490985629318,0,-31,-42,-22,-31,-18,-34,-9,-69
1490985629318,0,57,2,-2,38,-10,4,6,2
1490985629319,1,-82,-9,-45,-2,3,-9,-22,-9
1490985629319,1,22,-62,125,-18,10,16,18,-28
1490985629364,2,1,29,-104,-9,4,5,1,13
1490985629364,2,-5,5,16,-16,-10,-7,-28,8
1490985629413,3,22,-67,6,-14,-11,-6,-8,24
1490985629413,3,-7,62,-29,43,-1,-5,10,-25
1490985629415,1,70,62,8,56,14,6,-28,-20
1490985629415,1,-21,8,21,0,-4,-1,14,18
1490985629416,2,41,-6,-4,7,12,4,-4,-3
1490985629416,2,-35,-5,-52,-7,-5,1,-31,9
1490985629417,3,27,23,71,-16,-2,14,24,4
1490985629417,3,-63,-11,34,1,0,-2,38,8
1490985629461,0,55,93,14,48,-8,-3,-20,-4
1490985629461,0,9,-105,12,10,12,16,4,5
1490985629462,2,26,91,117,72,9,11,-27,24
1490985629462,2,31,36,-69,2,-21,-4,-5,-8
1490985629510,3,5,-63,-3,-8,10,-5,30,18
1490985629510,3,53,79,-29,17,1,1,-29,-29
1490985629511,3,-25,-26,-4,-12,-2,6,35,6
1490985629511,3,36,-57,-58,31,0,-5,-3,-20
1490985629512,0,-14,-14,50,-8,-12,6,-28,-10
1490985629512,0,-16,34,-76,-100,-34,-9,-2,-5
1490985629559,1,8,2,-15,45,14,3,-64,0
1490985629559,1,33,6,79,-12,-13,-5,-47,-17
1490985629560,3,38,18,-12,9,-11,-20,-13,10
1490985629560,3,-45,-44,-8,-20,-2,-11,20,27
1490985629560,0,-17,-33,-35,4,1,-23,32,-37
1490985629560,0,8,-3,61,-19,0,-22,20,24
1490985629561,1,23,49,-45,-20,-8,-18,-25,-2
1490985629561,1,-49,-8,-11,-19,-2,4,45,19
1490985629607,0,11,-8,1,-29,21,12,-33,5
1490985629607,0,-14,-51,-30,89,0,19,-27,-21
1490985629608,1,-55,16,3,-36,5,15,7,-15
1490985629608,1,-4,4,-48,-68,-12,11,5,-16
1490985629609,1,75,27,-48,-21,-11,-21,-26,12
1490985629609,1,-4,-19,-7,-27,11,12,70,17
1490985629610,2,-102,-25,33,34,36,-11,3,-19
1490985629610,2,-12,-46,16,10,-27,-51,-15,8
1490985629656,3,81,67,7,24,-1,-27,-42,13
1490985629656,3,-83,-52,-15,-18,-9,-70,5,10
1490985629657,0,68,5,37,-28,-2,-110,9,-13
1490985629657,0,-79,-75,-59,-11,-12,-100,-31,-5
1490985629658,2,19,7,64,-10,-5,108,-10,41
1490985629658,2,-49,46,-29,2,-4,105,-6,2
1490985629658,3,-20,9,27,22,-10,53,0,36
1490985629658,3,29,31,-14,0,22,19,-26,0
1490985629705,0,-12,-49,-27,-28,-13,-17,12,-23
1490985629705,0,52,38,12,-2,10,4,11,-17
1490985629707,1,-88,-73,0,1,-21,21,9,-30
1490985629707,1,37,21,-36,8,15,-41,-37,41
1490985629708,3,-3,-27,-11,59,16,-42,15,-1
1490985629708,3,-23,-5,32,-69,-23,-9,-27,-28
1490985629709,0,-25,-23,-6,-6,-16,-12,-17,48
1490985629709,0,-12,-2,-29,-13,-10,-5,-1,-11
1490985629754,1,39,6,57,24,23,-26,28,22
1490985629754,1,13,-6,23,40,8,-119,10,3
1490985629756,2,23,55,-72,-39,3,-69,-10,-16
1490985629756,2,-71,-20,6,-9,-16,8,26,3
1490985629757,0,-18,-2,-5,15,16,87,4,24
1490985629757,0,71,48,16,31,-1,60,21,-4
1490985629760,1,-62,-113,-37,-27,10,42,-27,-8
1490985629760,1,25,52,62,34,11,52,-3,13
1490985629803,2,33,-11,0,-39,-40,38,-38,-5
1490985629803,2,-50,28,2,16,37,41,22,4
1490985629805,3,18,22,7,-3,-30,12,-8,12
1490985629805,3,71,-4,-35,2,26,17,-18,0
1490985629806,1,22,60,-11,-29,-13,5,-23,-14
1490985629806,1,-47,-31,10,22,-9,37,9,-12
1490985629807,2,100,28,-20,45,23,22,-1,-2
1490985629807,2,-26,-92,-40,-34,-12,13,-25,1
1490985629852,3,31,-8,-15,-26,-8,9,-6,-14
1490985629852,3,-28,-27,48,-20,-18,20,1,2
1490985629854,0,-32,-34,13,32,8,20,13,13
1490985629854,0,-13,-37,5,12,10,31,-32,4
1490985629855,2,19,-25,-2,-43,7,14,-19,-29
1490985629855,2,-3,-16,-9,7,-10,0,-18,-2
1490985629856,3,-6,-12,-2,-7,2,8,5,6
1490985629856,3,27,-24,-1,26,2,0,-32,-4
1490985629900,0,-52,-80,37,9,-4,5,-2,-14
1490985629900,0,54,-36,-18,-8,-11,1,31,27
1490985629902,1,-42,-1,11,-13,5,-4,-3,0
1490985629902,1,2,119,-2,3,7,-35,19,14
1490985629904,2,-32,72,-24,5,-6,-30,-17,-7
1490985629904,2,12,19,22,11,9,-4,11,-7
1490985629905,3,46,35,3,-19,-11,-15,14,21
1490985629905,3,-56,-31,-27,-9,2,-13,-1,-17
1490985629949,0,59,-6,-3,10,-1,-5,-19,18
1490985629949,0,-18,-30,21,6,3,-1,1,-25
1490985629951,1,-17,-13,17,7,17,-1,15,-7
1490985629951,1,-4,15,-28,-31,-9,-5,5,21
1490985629952,3,42,50,0,3,13,27,17,-5
1490985629952,3,2,82,6,-4,-4,-9,-22,-9
1490985629953,0,7,7,-9,0,-7,-3,0,-3
1490985629953,0,2,22,-16,-3,2,-11,-14,5
1490985629998,1,-28,43,12,14,1,-16,14,2
1490985629998,1,41,6,5,-12,-17,-13,22,-8
1490985630000,2,8,-11,3,12,33,-10,-4,-7
1490985630000,2,-21,-24,-8,3,-3,-1,-21,-3
1490985630001,0,-40,-14,-15,-6,-11,33,23,-4
1490985630001,0,65,23,12,-23,3,3,1,-3
1490985630002,1,-54,-8,-1,7,-2,-24,-18,-16
1490985630002,1,13,31,2,4,6,26,16,1
1490985630046,2,-12,-8,-10,-20,-12,-3,-14,-9
1490985630046,2,9,20,3,3,4,14,2,19
1490985630049,3,-30,-10,8,9,-15,-4,25,-1
1490985630049,3,-3,-6,-35,-13,4,14,-22,-2
1490985630049,1,-2,29,7,-24,-3,-1,-14,-1
1490985630049,1,28,6,7,10,4,1,16,3
1490985630050,2,1,-18,9,-5,-7,1,-1,-9
1490985630050,2,-44,-70,-18,-4,-11,-21,-6,-4
1490985630095,3,-2,-93,-17,0,11,10,8,-10
1490985630095,3,-22,10,13,-9,-2,-12,-2,31
1490985630097,0,43,68,10,5,-1,-23,-23,-10
1490985630097,0,-26,17,-3,0,18,-5,11,-4
1490985630098,2,12,16,-3,-7,-9,2,-2,13
1490985630098,2,43,21,11,19,11,14,13,22
1490985630099,3,-57,-11,0,22,19,5,35,-1
1490985630099,3,60,14,9,-18,-13,2,-26,-17
1490985630144,0,-19,-39,-23,-10,-3,-19,-9,-3
1490985630144,0,13,-48,-16,-8,-9,-10,-3,-1
1490985630146,1,12,-10,36,7,-5,-2,-34,-11
1490985630146,1,30,-13,-18,6,6,9,19,-4
1490985630147,3,-7,22,-5,-4,5,-4,-20,-11
1490985630147,3,31,-8,1,10,-2,-6,16,-3
1490985630148,0,29,-23,2,-12,-2,-7,-52,-5
1490985630148,0,25,1,-16,48,8,13,25,-17
1490985630193,1,-58,-48,-34,-27,-6,-14,-28,1
1490985630193,1,37,-3,38,-58,-13,-20,25,-24
1490985630195,2,-45,-23,17,32,9,12,2,-4
1490985630195,2,-43,-12,-7,24,0,-7,1,-6
1490985630196,0,-8,25,28,21,13,-4,-1,-22
1490985630196,0,-27,24,-1,-12,-7,-9,-24,4
1490985630197,1,14,22,41,5,2,-1,18,-14
1490985630197,1,-88,-69,-118,36,-3,-2,-54,19
1490985630241,2,27,38,87,-34,-14,6,49,5
1490985630241,2,-3,-50,-32,-67,-10,-17,-11,-11
1490985630244,3,4,2,-1,37,5,-3,27,5
1490985630244,3,-12,6,2,19,12,1,-9,6
1490985630245,0,-76,-23,-13,-1,-13,-9,-11,2
1490985630245,0,24,2,4,-22,-2,16,27,4
1490985630246,1,50,22,-34,-12,-6,-15,2,-9
1490985630246,1,-15,12,9,73,8,9,-8,-13
1490985630290,2,-32,-14,20,-6,2,-2,22,30
1490985630290,2,-24,33,37,-57,-3,5,-24,-11
1490985630292,3,43,-23,-51,-17,-5,-6,42,7
1490985630292,3,-28,-28,-10,20,8,6,-26,14
1490985630293,1,-21,8,8,1,-4,-5,-32,4
1490985630293,1,21,22,-36,31,4,9,24,-34
1490985630294,2,34,-57,-29,-80,-9,-1,10,-13
1490985630294,2,-38,16,60,45,2,2,17,39
1490985630339,3,-61,27,85,27,10,1,10,-8
1490985630339,3,73,57,34,-25,-6,15,17,35
1490985630342,0,46,-89,-104,-36,-8,-4,-37,-17
1490985630342,0,-27,61,-13,5,21,7,26,-39
1490985630343,2,16,42,-39,35,4,7,-18,-38
1490985630343,2,-13,-79,-104,-96,-27,-34,1,-17
1490985630344,3,-87,-18,-44,15,1,8,-14,15
1490985630344,3,-15,-1,109,-2,2,11,-5,-1
1490985630388,0,38,48,4,86,2,-22,15,42
1490985630388,0,-17,-13,-61,-22,-8,0,-31,-50
1490985630390,1,-7,39,78,-9,-7,-13,42,6
1490985630390,1,46,-43,-111,-33,-3,2,1,24
1490985630391,3,-16,-27,-128,9,12,8,19,-31
1490985630391,3,51,-62,69,-33,-22,-18,-47,-17
1490985630392,0,-37,-3,58,10,-2,-20,-1,7
1490985630392,0,37,82,-95,-9,9,12,20,18
1490985630436,1,22,-22,127,15,-3,-7,-50,-20
1490985630436,1,-108,33,36,77,23,-5,42,-8
1490985630437,2,73,-69,-35,-21,-2,18,-30,5
1490985630437,2,57,12,-52,-22,-21,-11,19,31
1490985630438,0,-22,20,4,-15,-11,3,4,-4
1490985630438,0,82,18,-41,-2,14,3,-1,-21
1490985630438,1,127,27,15,-58,-13,-5,-47,1
1490985630438,1,-61,28,117,73,2,-11,15,-12
1490985630485,2,66,127,-29,-7,6,-34,-16,-35
1490985630485,2,-81,-128,-14,24,-3,41,-51,109
1490985630486,3,12,100,-60,14,-14,-19,49,-79
1490985630486,3,4,-11,-90,-103,12,-9,-49,-62
1490985630486,1,8,-27,-1,20,11,33,-10,83
1490985630486,1,-108,2,-71,-69,7,14,2,7
1490985630582,2,58,73,-7,0,-11,8,-7,52
1490985630582,2,-75,-3,97,-25,-6,-5,59,-2
1490985630583,3,37,-73,-94,6,-3,-34,-18,3
1490985630583,3,-10,-25,-87,-77,-35,12,-8,63
1490985630584,0,-100,13,96,64,43,-17,-37,-92
1490985630584,0,98,93,-56,117,15,16,19,20
1490985630586,2,34,-111,86,-14,-14,3,18,38
1490985630586,2,50,70,-18,-19,10,-2,-66,-37
1490985630631,3,-114,-66,-123,-47,-27,-34,29,-53
1490985630631,3,122,95,121,92,17,-16,-5,-12
1490985630633,0,-128,-34,-101,22,51,51,11,116
1490985630633,0,-128,-72,52,-91,-6,10,66,-50
1490985630634,1,127,118,-46,56,-58,-8,-32,-55
1490985630634,1,-95,-42,91,-9,-7,17,-12,83
1490985630635,3,-52,-45,127,127,80,12,23,13
1490985630635,3,62,108,79,61,19,35,35,49
1490985630680,0,-61,-128,-70,-104,-30,9,-33,-9
1490985630680,0,-14,41,-59,99,39,43,1,14
1490985630681,1,-114,-46,-97,-84,-16,67,15,41
1490985630681,1,29,-112,-73,-6,-28,-9,-1,42
1490985630681,0,-22,23,64,35,43,-11,21,60
1490985630681,0,-10,-10,116,65,27,-4,-36,27
1490985630682,1,69,70,-72,-64,-33,12,-39,-7
1490985630682,1,-37,-68,72,39,50,14,21,-33
1490985630729,2,-78,-43,-115,87,-47,-23,17,4
1490985630729,2,-84,-26,-10,-58,-67,-26,10,-44
1490985630730,3,127,54,60,-44,0,-25,4,15
1490985630730,3,-5,-5,-87,9,51,-20,-19,-53
1490985630731,1,-47,79,115,101,34,101,-95,-103
1490985630731,1,39,-56,-128,-128,-57,127,48,35
1490985630732,2,30,-18,-54,105,16,127,-4,-19
1490985630732,2,109,127,24,41,-20,29,-47,51
1490985630778,3,-56,-44,115,-36,0,-66,22,29
1490985630778,3,-84,104,10,14,-13,-78,-46,-32
1490985630779,0,108,-85,38,-17,7,-102,85,41
1490985630779,0,-22,56,-12,-98,-28,-99,0,-64
1490985630780,2,-55,-16,-59,-81,-56,-84,13,-21
1490985630780,2,94,-34,-42,127,46,-55,-32,-9
1490985630781,3,5,97,-16,-71,44,-40,-83,53
1490985630781,3,-92,-75,-120,-103,-78,-27,75,-61
1490985630826,0,32,116,48,76,24,-34,0,-90
1490985630826,0,-92,11,-45,-93,-30,-20,32,73
1490985630828,1,-28,3,-26,81,62,-13,-37,-93
1490985630828,1,-8,88,74,27,-17,-37,-44,-17
1490985630829,3,127,81,63,-57,-19,-32,-22,30
1490985630829,3,39,83,-108,115,103,61,-43,41
1490985630830,0,64,41,127,-74,-50,-27,-14,-30
1490985630830,0,7,-128,-98,-128,59,1,15,5
1490985630875,1,-57,-93,-4,92,-18,-34,79,26
1490985630875,1,72,-47,105,-9,9,-8,-2,-34
1490985630876,2,-110,67,74,-128,23,25,-6,29
1490985630876,2,24,-29,80,119,-4,-14,-50,-63
1490985630878,0,77,35,19,70,88,21,-44,-10
1490985630878,0,60,78,-27,-66,-54,-16,-15,15
1490985630879,1,124,127,110,107,82,36,-4,22
1490985630879,1,-77,-2,56,-128,-38,-40,-70,23
1490985630923,2,15,-128,-128,46,-64,-29,29,5
1490985630923,2,-93,-69,68,-45,-66,-57,89,-65
1490985630973,3,118,113,47,89,14,29,-25,56
1490985630973,3,125,39,95,75,53,18,-59,27
1490985630974,0,-126,59,-53,-56,-2,36,20,15
1490985630974,0,106,-36,56,25,11,15,-28,10
1490985630975,1,-32,-128,-88,-128,-76,30,20,-44
1490985630975,1,-128,18,127,125,-39,-7,25,-21
1490985630976,2,57,7,-23,-62,61,28,2,36
1490985630976,2,-74,-2,55,-72,-19,2,-27,-8
1490985631021,3,-77,3,-50,-71,-22,10,18,14
1490985631021,3,127,-81,-121,-25,-81,-10,69,-28
1490985631022,1,-44,82,55,93,58,-46,-1,-19
1490985631022,1,75,7,8,22,4,21,-14,46
1490985631022,2,5,56,-72,100,10,81,-69,-8
1490985631022,2,32,49,24,-27,-48,66,-11,-27
1490985631023,2,-66,-87,-49,-115,-46,84,-1,-29
1490985631023,2,81,120,70,120,34,28,33,22
1490985631070,3,26,-77,-5,-128,3,-121,6,29
1490985631070,3,3,-63,14,102,58,-128,-26,-13
1490985631071,0,37,27,72,37,37,-128,-22,23
1490985631071,0,-3,-128,-128,-60,-27,-128,56,50
1490985631072,3,-65,-19,12,-28,-20,85,54,10
1490985631072,3,25,17,15,29,14,27,9,10
1490985631072,0,-53,-2,3,-28,-42,14,9,-5
1490985631072,0,15,76,86,79,109,48,-9,8
1490985631118,1,37,91,-69,2,1,23,-78,-4
1490985631118,1,-42,-80,-128,-128,-73,-55,18,-18
1490985631119,2,18,82,127,117,26,-68,24,-3
1490985631119,2,90,62,-95,-102,-46,-28,-32,2
1490985631120,0,-5,-97,-128,-128,13,-15,3,0
1490985631120,0,-45,5,32,123,26,-21,25,-42
1490985631167,1,53,49,91,113,20,27,-34,4
1490985631167,1,28,82,26,-69,24,9,-49,36
1490985631168,2,-46,105,-118,-66,-104,-65,-3,-37
1490985631168,2,-73,-19,127,101,-30,-90,14,3
1490985631169,3,13,-15,-53,16,-14,-108,-8,-28
1490985631169,3,-19,-128,-85,-65,96,-40,24,-1
1490985631170,1,16,127,127,-11,-29,26,-51,9
1490985631170,1,-66,-115,-128,-72,-105,40,51,-14
1490985631216,2,-25,-20,-24,-41,-8,25,25,0
1490985631216,2,-79,-63,-38,-63,14,39,-55,-35
1490985631217,3,9,44,-27,65,78,41,19,48
1490985631217,3,2,10,-67,-48,-94,1,-29,13
1490985631217,0,15,110,-92,-90,-27,6,62,18
1490985631217,0,15,127,120,127,80,17,-23,-5
1490985631218,2,61,-63,127,127,56,9,-35,4
1490985631218,2,-16,-128,-128,-128,-95,5,94,22
1490985631265,3,13,-90,-48,122,-28,-19,-2,-18
1490985631265,3,-23,-73,43,93,23,-3,13,-8
1490985631265,0,42,-62,84,111,66,74,-26,2
1490985631265,0,64,68,114,-28,-40,40,-59,16
1490985631266,3,-20,-84,-62,-87,-16,-7,66,-5
1490985631266,3,-17,-102,66,21,9,-3,-33,-13
1490985631267,0,37,-56,57,46,-11,-29,3,-15
1490985631267,0,-54,-39,-100,-40,-58,-39,28,29
1490985631314,1,28,1,64,80,6,2,-23,18
1490985631314,1,7,50,-25,8,52,-15,-19,-1
1490985631316,2,-3,-25,103,16,-51,-21,-63,-11
1490985631316,2,-11,-111,-128,-87,12,18,48,-22
1490985631317,3,-12,25,91,66,-7,-28,-36,-19
1490985631317,3,14,-22,-32,-62,-4,14,55,15
1490985631318,0,-6,32,28,39,40,22,-37,-1
1490985631318,0,8,12,-29,11,22,-27,-16,1
1490985631363,1,7,38,21,-6,23,38,-18,-10
1490985631363,1,32,127,127,78,-10,39,4,3
1490985631367,2,-32,-13,-128,-128,-100,-23,20,1
1490985631367,2,-36,-39,-34,-45,-24,-1,14,4
1490985631368,0,21,31,-40,-10,25,-11,13,-2
1490985631368,0,8,42,38,73,96,-21,6,-1
1490985631369,1,15,-30,-114,-81,-31,-3,6,7
1490985631369,1,-11,10,16,-25,-55,2,-29,2
1490985631411,2,-57,-60,-128,-128,-19,19,41,-7
1490985631411,2,14,2,51,101,-26,27,4,5
1490985631413,3,-16,31,50,42,-14,-7,-12,-2
1490985631413,3,1,34,8,-15,6,53,9,-2
1490985631416,1,11,-19,-16,4,-93,-40,4,38
1490985631416,1,1,-15,-31,12,41,-33,1,-10
1490985631418,2,-4,-21,-1,-46,-30,-6,18,13
1490985631418,2,20,-5,-92,-10,-42,54,19,4
1490985631460,3,18,7,97,35,-2,17,3,8
1490985631460,3,2,-10,22,-37,-36,19,7,7
1490985631460,0,-19,-9,-29,26,8,57,-7,-34
1490985631460,0,11,-21,1,35,-34,14,8,49
1490985631461,2,-7,-9,45,27,-16,-17,18,-7
1490985631461,2,15,7,11,-31,-30,43,-2,-4
1490985631462,3,-2,-76,-84,-38,5,-4,-47,-8
1490985631462,3,-16,13,79,37,49,23,33,14
1490985631509,0,6,11,-19,-1,-24,-11,-18,5
1490985631509,0,5,23,18,35,49,16,17,-7
1490985631510,1,39,21,-100,-6,-1,41,2,4
1490985631510,1,-46,-31,61,-64,-46,-33,7,-7
1490985631510,3,-34,-9,-68,-16,17,7,28,-16
1490985631510,3,17,-18,-88,-22,-64,-57,-31,-14
1490985631511,0,-46,12,15,25,63,23,29,10
1490985631511,0,29,-17,41,36,24,-27,30,16
1490985631559,1,3,44,43,-7,4,8,-35,7
1490985631559,1,14,-8,-18,-18,11,8,13,4
1490985631561,2,35,30,11,-9,-25,-16,-3,2
1490985631561,2,-16,-32,26,26,9,13,1,-14
1490985631563,0,10,-4,-43,-40,-46,-20,-13,5
1490985631563,0,-21,13,18,14,61,25,19,-16
1490985631568,1,16,14,24,17,-37,16,9,4
1490985631568,1,8,1,-7,4,43,9,-24,-14
1490985631606,2,-11,19,44,68,17,5,-5,21
1490985631606,2,-28,-20,-15,-68,-46,-11,-15,-16
1490985631608,3,-15,-10,-75,-51,7,-13,8,-15
1490985631608,3,7,-24,-21,53,46,-9,-8,-7
1490985631609,1,-20,-4,20,9,15,-4,-19,1
1490985631609,1,6,-10,-26,7,-13,-17,-4,10
1490985631611,2,-6,-17,25,9,1,3,21,-19
1490985631611,2,4,39,-111,3,-29,-18,-11,2
1490985631655,3,54,-52,-107,-84,15,-6,11,2
1490985631655,3,-52,44,-48,-38,-8,-4,32,12
1490985631657,0,-8,-14,61,53,-6,-9,6,-8
1490985631657,0,15,36,49,51,35,-9,-23,-11
1490985631658,1,3,0,33,56,-8,7,0,20
1490985631658,1,18,-19,77,-41,10,-1,-6,11
1490985631659,2,-30,3,-83,-53,-11,19,3,-15
1490985631659,2,21,-31,48,16,-7,-3,-26,19
1490985631753,3,-48,31,27,14,2,-29,-21,-15
1490985631753,3,4,34,16,45,2,13,-11,3
1490985631756,0,-8,-2,17,-31,12,6,23,7
1490985631756,0,8,12,-24,14,7,12,-20,-46
1490985631758,2,22,-12,-5,31,4,-3,-25,14
1490985631758,2,3,12,-36,-69,3,-5,15,28
1490985631760,3,-23,-5,-46,18,29,-13,-7,-29
1490985631760,3,7,-10,99,54,-15,-10,-7,5
1490985631801,0,10,31,-45,-1,40,0,-33,-1
1490985631801,0,-6,21,26,-29,4,13,18,7
1490985631804,1,12,42,25,9,-21,-2,4,-14
1490985631804,1,-36,-13,-78,-8,-8,-1,-34,-10
1490985631805,0,10,-34,37,62,59,-4,-33,9
1490985631805,0,-23,-67,-29,-78,-34,-17,38,-26
1490985631806,1,-16,62,16,24,11,-18,-7,-16
1490985631806,1,-5,-99,-92,-9,8,8,-15,-15
1490985631850,2,-30,24,41,-43,-14,3,15,-23
1490985631850,2,47,72,127,66,-2,10,-4,9
1490985631853,3,0,-55,46,43,22,18,13,-8
1490985631853,3,5,15,-106,-53,-27,-13,-10,-38
1490985631854,1,60,-7,38,-32,-32,20,-2,18
1490985631854,1,-62,77,37,47,12,11,-37,-16
1490985631856,2,53,-37,-27,36,-18,16,15,-8
1490985631856,2,9,-16,3,-50,-10,-3,1,-15
1490985631899,3,42,12,-89,0,-15,-14,-1,11
1490985631899,3,-111,-81,24,-50,36,-6,23,-9
1490985631901,0,79,74,19,15,-42,-7,-9,-21
1490985631901,0,-111,-55,-85,15,19,-3,-9,-2
1490985631903,2,-11,-7,1,-75,-20,-1,17,48
1490985631903,2,11,-70,19,13,-8,0,-11,6
1490985631904,3,4,35,4,17,-13,0,30,1
1490985631904,3,-24,49,23,14,28,13,-19,-12
1490985631948,0,67,-26,-111,-26,-14,19,-6,20
1490985631948,0,-23,67,31,-18,-20,13,2,6
1490985631949,1,-27,-25,-46,-29,-28,-19,21,-14
1490985631949,1,-65,-29,-42,-20,2,-15,2,21
1490985631951,3,55,-36,2,-29,12,10,5,-1
1490985631951,3,-71,20,-47,-58,-27,-20,31,-23
1490985631951,0,74,-58,-80,-11,-16,-6,-4,40
1490985631951,0,-47,55,84,47,-11,-15,-15,-20
1490985631996,1,52,21,-2,11,28,-1,-4,17
1490985631996,1,27,77,60,53,10,4,-5,14
1490985631998,2,-70,72,-11,-93,-18,-11,-7,25
1490985631998,2,3,-86,-101,-60,-34,-13,18,-10
1490985631999,3,-56,5,61,85,13,-8,13,6
1490985631999,3,95,55,15,-14,-15,-19,10,-3
1490985632000,0,-90,-45,4,1,7,8,-17,-62
1490985632000,0,91,42,-17,22,2,-15,-17,-3
1490985632045,1,5,-23,-29,-36,6,10,-19,30
1490985632045,1,-6,-88,30,19,-10,5,28,-15
1490985632047,2,-45,-12,39,26,9,3,55,-3
1490985632047,2,62,61,-17,14,-1,4,-28,2
1490985632048,0,51,29,-43,19,23,-8,-21,-9
1490985632048,0,-65,-88,3,-56,-24,-17,-10,11
1490985632049,1,25,116,21,-14,8,18,14,-30
1490985632049,1,-36,-31,2,6,-22,11,-11,-11
1490985632094,2,12,-54,1,40,40,7,-20,16
1490985632094,2,77,113,50,-9,2,0,27,-18
1490985632096,3,-52,18,-59,-19,-21,-5,-42,11
1490985632096,3,62,-72,-32,-27,28,16,33,0
1490985632097,1,-14,56,-56,30,7,-26,-22,27
1490985632097,1,39,0,-20,-70,-30,-23,5,-33
1490985632098,2,-72,24,14,1,-7,-9,7,-30
1490985632098,2,52,-18,-40,-12,22,2,7,24
1490985632143,3,-29,-47,-41,-29,-11,-18,-2,-6
1490985632143,3,-37,10,68,64,-20,-26,-30,12
1490985632144,0,59,56,1,-77,21,21,16,-10
1490985632144,0,30,6,36,53,-14,9,-2,21
1490985632146,2,35,21,60,-15,-7,13,-2,-7
1490985632146,2,-16,11,-57,2,-25,13,4,-12
1490985632147,3,-13,-5,90,52,38,26,-8,8
1490985632147,3,55,-2,-65,-43,-23,20,26,24
1490985632191,0,-46,-8,55,24,20,6,-16,-22
1490985632191,0,38,-64,-112,-113,-24,4,15,21
1490985632193,1,-28,-47,-31,-15,-9,44,21,-18
1490985632193,1,8,56,39,72,1,33,-28,41
1490985632194,3,41,51,-28,7,10,-122,13,-15
1490985632194,3,-60,-31,36,28,22,-120,-24,-37
1490985632195,0,-20,24,-37,-44,-30,-66,46,28
1490985632195,0,19,-50,-62,-65,3,5,-9,0
1490985632240,1,0,-36,-18,-38,-32,10,-20,-21
1490985632240,1,21,25,3,17,13,34,30,18
1490985632241,2,13,-19,-6,52,21,42,-40,-12
1490985632241,2,-48,32,65,26,-35,60,-22,-28
1490985632242,0,62,-20,-12,9,-10,-53,12,11
1490985632242,0,-48,26,28,17,23,7,-2,6
1490985632243,1,9,4,24,14,-7,-23,9,-8
1490985632243,1,-86,-25,10,19,-2,43,11,-14
1490985632289,2,61,-15,-49,-25,4,19,6,22
1490985632289,2,31,-25,26,24,1,51,-31,3
1490985632296,3,3,51,-11,-39,-21,17,-6,-40
1490985632296,3,-12,-18,11,-17,7,-103,42,19
1490985632297,1,23,-14,-10,-9,7,31,3,31
1490985632297,1,35,-40,23,-19,5,70,5,1
1490985632299,2,-68,-127,-74,-13,-34,69,-21,-12
1490985632299,2,22,-87,12,-21,26,43,7,-17
1490985632338,3,-108,-65,44,72,4,52,13,-3
1490985632338,3,101,-18,12,9,17,48,-9,26
1490985632339,0,12,-14,3,-47,-5,40,0,-16
1490985632339,0,-77,16,-40,-18,-11,33,-8,30
1490985632340,1,7,66,49,34,0,20,-11,-32
1490985632340,1,26,-13,-43,22,24,18,-18,-24
1490985632341,2,-28,27,19,-4,-10,26,-7,5
1490985632341,2,-13,38,17,-38,-5,9,23,-17
1490985632386,3,102,2,-10,7,21,-1,11,43
1490985632386,3,-78,5,58,36,-8,5,1,-23
1490985632388,0,56,40,-49,-19,2,14,-19,14
1490985632388,0,-34,59,-51,3,-4,-1,7,2
1490985632390,2,-40,3,39,19,7,57,-7,19
1490985632390,2,28,-11,35,16,8,35,6,-13
1490985632394,3,-43,-128,-58,10,-18,20,-24,3
1490985632394,3,2,-110,37,10,-3,25,17,-15
1490985632483,0,-42,-128,-16,-16,-4,-12,24,-5
1490985632483,0,71,-42,-41,-38,-10,9,14,-13
1490985632484,1,8,44,-9,-3,-2,-9,10,24
1490985632484,1,28,77,36,8,6,-3,-6,7
1490985632485,3,-54,59,-1,-1,2,-8,32,8
1490985632485,3,20,73,-24,-54,-5,6,-14,23
1490985632486,0,-24,9,0,0,-9,-9,30,-30
1490985632486,0,9,71,-1,32,26,5,8,20
1490985632532,1,33,25,21,5,-1,-17,-20,-13
1490985632532,1,-52,-35,-8,2,-30,-11,-36,2
1490985632533,2,-32,-37,-23,-38,-3,28,30,-12
1490985632533,2,20,-8,-3,-13,-22,0,-24,2
1490985632534,1,-43,4,-6,-12,3,-20,28,-8
1490985632534,1,-46,29,-15,-9,9,10,9,1
1490985632535,2,-5,39,1,-37,-20,-19,-13,-22
1490985632535,2,17,11,-8,4,2,10,1,1
1490985632581,3,-92,3,5,8,-2,7,23,21
1490985632581,3,-53,23,32,24,42,8,-87,3
1490985632582,0,-13,17,-8,18,-12,6,-52,3
1490985632582,0,-39,-15,-16,-40,-2,-3,-7,-3
1490985632582,2,7,5,19,14,-2,-3,37,-5
1490985632582,2,22,-4,12,7,-9,-10,8,-2
1490985632583,3,21,5,-6,1,-13,-15,23,7
1490985632583,3,61,6,-29,-23,16,-20,5,-19
1490985632630,0,-19,0,-7,7,-10,-1,1,11
1490985632630,0,-8,-1,-24,-10,0,4,50,2
1490985632632,1,20,1,-9,3,-9,-11,-5,-14
1490985632632,1,-34,-2,2,-2,10,-14,-36,-16
1490985632633,3,25,-2,-2,-15,4,16,-10,-1
1490985632633,3,4,1,11,8,-24,16,-12,-2
1490985632634,0,-12,4,1,6,28,14,32,-2
1490985632634,0,-42,-2,8,-18,-7,-15,18,10
1490985632776,1,23,-2,-13,9,6,-12,-35,8
1490985632776,1,0,2,6,11,-4,-17,19,-17
1490985632778,2,-16,2,-11,-17,-11,-2,-42,-14
1490985632778,2,24,-5,-4,-8,-8,8,11,21
1490985632779,0,-9,1,6,21,3,4,24,13
1490985632779,0,5,-2,1,-1,4,-2,-25,-20
1490985632780,1,-17,0,11,14,4,19,-3,17
1490985632780,1,48,1,-30,-10,-17,-1,17,-9
1490985632825,2,16,-1,-6,-27,-7,-3,-26,7
1490985632825,2,-19,-1,6,16,-1,-6,29,-17
1490985632826,3,-11,0,-6,1,9,2,-12,-3
1490985632826,3,12,-1,13,9,-4,-22,8,24
1490985632874,0,-8,1,-18,1,-7,7,-9,21
1490985632874,0,23,8,5,-6,-4,-12,-3,-5
1490985632875,2,-5,16,-11,-16,-35,3,-22,31
1490985632875,2,-83,32,47,55,19,11,50,17
1490985632876,3,39,4,-77,-2,12,-8,-10,-20
1490985632876,3,24,17,45,-5,-7,29,-2,7
1490985632877,0,7,-11,7,-18,6,2,22,-3
1490985632877,0,-49,18,-14,22,0,-9,-58,-31
1490985632923,3,-8,-25,32,15,4,30,7,-17
1490985632923,3,-46,52,-83,6,2,-9,21,6
1490985632925,0,46,-28,109,13,8,-3,-22,9
1490985632925,0,58,-9,-85,35,-7,-16,-30,1
1490985632927,0,86,1,-5,-5,10,20,1,-10
1490985632927,0,-71,42,84,2,-32,-22,-23,-15
1490985632928,1,24,-17,-75,-46,2,0,-31,8
1490985632928,1,46,8,99,42,4,-9,37,-11
1490985632971,2,86,-24,-70,-15,-8,-4,-21,-44
1490985632971,2,-94,-41,-9,42,22,0,-7,44
1490985632973,3,27,26,9,-34,-10,-7,-27,-2
1490985632973,3,-76,36,-56,-28,-21,13,12,37
1490985632975,1,-18,-25,61,54,25,-9,71,-15
1490985632975,1,8,52,58,52,13,3,-44,-12
1490985632976,2,19,-20,-43,119,3,16,20,30
1490985632976,2,-30,-6,-66,-128,-34,9,-20,42
1490985633020,3,118,86,19,-7,0,-6,25,21
1490985633020,3,-101,-120,20,-38,-2,-2,-44,-20
1490985633021,0,40,127,39,45,-10,-33,58,-74
1490985633021,0,53,-10,44,32,19,-12,10,68
1490985633022,2,-51,68,32,-35,-23,11,-33,17
1490985633022,2,-95,-125,-112,-90,2,-5,11,-32
1490985633024,3,100,76,114,88,5,-14,16,55
1490985633024,3,54,19,-67,-32,13,-4,-1,18
1490985633075,0,-89,-123,-128,-109,-26,9,-12,-66
1490985633075,0,37,33,93,30,11,-20,16,-15
1490985633076,1,2,9,53,45,13,5,4,-26
1490985633076,1,-20,41,-87,31,-38,-37,-18,-1
1490985633077,2,-55,-85,35,-81,14,16,15,124
1490985633077,2,43,89,-24,92,14,-22,-71,-119
1490985633079,3,-56,-63,-128,-123,-33,29,65,7
1490985633079,3,-50,20,127,125,41,-25,50,-14
1490985633118,0,71,59,-85,37,-14,-4,-25,102
1490985633118,0,-47,-128,-20,-96,-4,28,36,-32
1490985633120,1,57,52,79,116,2,-20,-22,-19
1490985633120,1,-4,35,-128,-86,-5,7,-16,-15
1490985633121,3,-88,58,-128,-125,-56,-2,-25,27
1490985633121,3,21,-116,60,-29,-80,-10,-3,-51
1490985633122,0,15,79,-96,-85,6,2,-9,18
1490985633122,0,46,99,56,68,16,2,-24,-38
1490985633166,1,-10,-123,-39,48,45,-1,-11,-23
1490985633166,1,-10,127,109,75,46,-38,32,-20
1490985633168,2,-110,-103,-121,95,-38,-32,-37,-99
1490985633168,2,-16,-87,48,-102,-19,13,-10,51
1490985633264,0,13,104,-55,-11,21,-17,26,-52
1490985633264,0,-90,79,24,-105,-29,-24,-34,-60
1490985633265,1,25,-40,19,-78,-21,-5,59,-4
1490985633265,1,55,7,-20,-17,-6,-18,-53,44
1490985633313,2,106,53,127,127,40,21,49,59
1490985633313,2,-58,-15,-128,-52,43,8,21,73
1490985633361,3,-4,-80,76,-128,-64,-8,-10,-65
1490985633361,3,45,24,-119,7,-21,-13,11,-64
1490985633362,1,54,127,63,69,16,-24,-37,34
1490985633362,1,-15,-39,-67,34,-2,33,1,-64
1490985633364,2,-60,-70,9,-93,0,24,-48,32
1490985633364,2,-34,31,-83,72,26,19,112,-3
1490985633365,3,-35,4,-29,-69,-15,-11,-43,98
1490985633365,3,-28,24,-87,-41,-4,-1,7,-20
1490985633507,3,10,-19,87,102,69,127,-21,40
1490985633507,3,62,86,20,117,-30,127,-18,41
1490985633509,0,97,68,25,46,0,-38,55,100
1490985633509,0,-67,-87,64,-67,-14,7,-29,-27
1490985633510,0,-68,-28,-6,106,37,11,67,-26
1490985633510,0,-51,-30,-24,-1,-28,-21,8,-35
1490985633511,1,33,23,-93,-46,-23,23,34,54
1490985633511,1,42,10,127,24,19,16,-40,12
1490985633556,2,29,67,60,87,77,109,-70,60
1490985633556,2,100,-34,-128,-118,-87,127,-15,-13
1490985633557,3,-90,-93,-36,82,-27,69,26,-45
1490985633557,3,95,-128,44,72,-9,0,80,-14
1490985633605,1,109,35,-117,-128,-60,-80,-54,19
1490985633605,1,-27,-55,-46,-2,-30,-61,81,-23
1490985633606,3,48,104,83,107,105,56,55,14
1490985633606,3,-112,-49,-48,69,-61,11,-53,-1
1490985633607,0,37,-41,-72,7,38,23,97,44
1490985633607,0,52,-40,-25,25,-2,9,-81,-38
1490985633608,1,-83,81,-107,-65,-62,-12,22,-27
1490985633608,1,7,32,127,108,-24,-67,19,-10
1490985633654,0,-68,31,-53,100,-57,-52,-11,-45
1490985633654,0,25,127,5,70,29,-20,-25,59
1490985633655,1,-13,-110,-19,-117,-63,-10,-26,-21
1490985633655,1,-3,-39,-128,-52,-9,-24,43,-47
1490985633656,2,9,-38,127,33,-39,-38,-39,2
1490985633656,2,36,124,112,126,60,61,95,71
1490985633657,1,-45,25,90,61,8,-37,42,-20
1490985633657,1,64,127,127,127,106,65,-74,111
1490985633703,2,75,-47,-115,-39,42,109,-39,-2
1490985633703,2,-88,-128,-128,-128,-76,119,2,-46
1490985633704,3,-39,-59,94,106,18,56,39,-2
1490985633704,3,69,40,-118,-65,-24,91,-36,6
1490985633705,2,-4,-19,104,-92,-3,26,26,4
1490985633705,2,-10,22,57,62,-49,-67,-17,-2
1490985633706,3,36,36,23,70,37,-70,3,-20
1490985633706,3,27,-25,-25,-4,-57,-10,-3,2
1490985633751,0,-6,-5,-88,-78,-38,-40,18,17
1490985633751,0,-125,-119,-121,-92,-46,-65,42,-42
1490985633754,1,64,48,69,29,40,-105,17,6
1490985633754,1,9,-11,48,-109,-68,-128,-21,4
1490985633755,2,-20,-71,-36,84,85,-64,34,-27
1490985633755,2,9,101,72,78,83,36,-20,23
1490985633757,3,8,-22,21,51,-41,123,5,2
1490985633757,3,15,-68,-63,-52,-44,-1,-49,-32
1490985633800,0,24,-1,-44,-5,22,29,53,10
1490985633800,0,16,83,64,105,4,-27,-30,-7
1490985633801,1,26,60,-116,-100,-30,-15,1,14
1490985633801,1,-74,-35,1,-60,-29,20,15,-50
1490985633802,3,16,-10,-76,-66,-2,29,-35,9
1490985633802,3,42,47,127,59,-45,-40,-22,0
1490985633805,0,-32,-128,-128,-93,20,0,39,-48
1490985633805,0,2,31,112,50,-12,16,-51,14
1490985633849,1,-52,-91,-103,-128,-88,-21,11,-1
1490985633849,1,-61,-14,95,127,5,27,55,-31
1490985633851,2,18,112,127,127,104,91,-41,-20
1490985633851,2,-15,88,-15,-62,-59,23,-7,26
1490985633852,0,-34,-11,-42,-23,-9,10,-4,14
1490985633852,0,33,-19,20,27,29,96,1,6
1490985633854,1,23,-45,-76,-64,-14,41,-16,-19
1490985633854,1,-38,-21,-11,61,4,41,12,-4
1490985633898,2,28,2,35,52,14,-22,-16,17
1490985633898,2,-1,-55,-128,-128,-24,-2,-35,-25
1490985633900,3,-17,-20,6,98,35,-30,48,11
1490985633900,3,32,127,120,124,36,-3,-26,-11
1490985633901,1,-3,51,94,88,77,45,22,14
1490985633901,1,18,63,-45,-46,-18,16,-30,15
1490985633950,2,2,-20,4,21,-14,-43,-36,-24
1490985633950,2,-4,-55,41,69,13,69,56,3
1490985633951,3,-24,-42,45,-64,-21,5,-8,-17
1490985633951,3,42,11,40,106,45,-13,-9,-13
1490985633995,0,2,15,19,-92,-11,0,-2,14
1490985633995,0,10,-68,-85,47,-17,-36,-15,-7
1490985634043,2,85,5,31,59,-1,-4,-55,13
1490985634043,2,-53,-5,68,59,61,18,16,-46
1490985634044,3,6,6,23,89,36,26,-12,14
1490985634044,3,56,64,34,-11,-58,-2,-100,-1
1490985634045,0,5,-50,-45,-106,34,-28,44,17
1490985634045,0,-41,-83,-66,-66,-58,12,29,-24
1490985634046,1,-10,-52,13,-7,12,8,32,-13
1490985634046,1,15,-10,7,43,-8,-23,-17,4
1490985634092,3,14,7,-59,-14,41,-19,-21,3
1490985634092,3,-40,-13,-22,22,-22,3,51,13
1490985634093,0,-34,-53,-29,8,-16,-12,23,-20
1490985634093,0,22,13,85,19,-21,9,-40,-16
1490985634096,1,-40,10,2,-73,-63,-1,-7,-16
1490985634096,1,12,27,4,5,-6,-6,-18,0
1490985634097,2,-30,-10,50,50,10,-29,6,11
1490985634097,2,37,39,26,48,10,23,-5,7
1490985634141,3,-8,-6,-22,-92,-39,14,-2,12
1490985634141,3,-14,-12,-128,-21,11,45,35,1
1490985634143,0,29,16,-64,-19,-2,-28,-27,-14
1490985634143,0,-49,-18,95,21,9,-3,17,7
1490985634190,1,34,25,25,57,-1,9,19,20
1490985634190,1,-11,-24,-18,12,39,29,-16,-23
1490985634192,2,20,-4,-30,-66,-24,-18,-2,28
1490985634192,2,-32,17,6,1,62,3,-9,-13
1490985634193,3,-11,2,18,13,-42,-13,0,-12
1490985634193,3,16,-6,-34,2,-10,-33,7,19
1490985634194,0,-13,7,31,7,29,22,-14,-24
1490985634194,0,25,43,26,34,-29,-9,6,24
1490985634239,2,2,15,-61,-18,0,-11,-20,23
1490985634239,2,27,14,108,-8,-16,-7,26,15
1490985634240,3,-102,-40,-51,1,-10,-7,-1,-34
1490985634240,3,73,24,10,49,-28,-2,14,30
1490985634241,0,-74,-56,43,5,-2,21,-24,-48
1490985634241,0,53,4,-19,37,54,7,32,32
1490985634242,3,-12,11,91,30,20,-2,-20,-4
1490985634242,3,-21,-33,-1,-3,-34,6,-16,6
1490985634287,0,36,17,-28,-37,54,-4,32,6
1490985634287,0,-85,-49,-29,25,-12,-7,-35,-20
1490985634289,1,-22,52,-23,-56,-12,-8,40,0
1490985634289,1,59,-37,9,33,0,11,7,2
1490985634290,0,42,34,-24,61,5,24,20,34
1490985634290,0,-37,9,33,-23,0,0,-15,-15
1490985634291,1,42,-24,-13,-30,-40,5,-13,-17
1490985634291,1,-73,-45,-76,-78,-18,-17,-11,-34
1490985634336,2,2,-16,20,48,-1,6,19,20
1490985634336,2,64,50,12,3,-2,13,4,10
1490985634338,3,-10,52,22,13,44,3,-16,4
1490985634338,3,-20,-67,70,58,-6,-11,26,14
1490985634339,1,-39,-48,72,-17,-23,-9,-21,-22
1490985634339,1,-41,36,-1,-41,-20,-8,-80,-14
1490985634340,2,-14,-23,16,7,-38,-13,-27,-16
1490985634340,2,44,35,22,1,63,12,-5,23
1490985634385,3,-10,-10,-47,15,6,13,22,-20
1490985634385,3,-4,-19,-45,-1,-31,-7,19,-3
1490985634386,0,-9,13,77,-6,9,-6,56,5
1490985634386,0,-44,3,-30,26,-15,-4,4,-20
1490985634387,2,-13,-6,-32,-51,3,-6,-36,5
1490985634387,2,-53,-40,-42,-19,-10,-6,12,-17
1490985634388,3,45,104,4,1,-12,-5,-14,4
1490985634388,3,-17,-60,8,44,26,-5,3,25
1490985634434,0,-7,-14,-11,-57,-6,1,29,1
1490985634434,0,-24,-43,-7,6,4,4,-11,-4
1490985634435,1,-10,19,10,28,-19,-2,-9,-19
1490985634435,1,16,54,-8,21,61,6,3,19
1490985634436,3,-12,32,-58,-89,-25,20,-5,-3
1490985634436,3,-2,90,-40,-24,19,-3,-13,9
1490985634446,0,-43,2,-35,16,-14,-8,25,2
1490985634446,0,-27,70,62,39,31,17,-31,-24
1490985634580,1,59,-36,57,-22,-20,-2,1,8
1490985634580,1,-49,2,-99,15,-1,8,25,-1
1490985634582,2,84,68,42,20,15,9,-39,-33
1490985634582,2,-57,-128,-71,-79,-17,-8,28,12
1490985634586,3,9,11,38,30,28,-7,2,4
1490985634586,3,32,24,-25,9,-18,-26,-8,-8
1490985634587,0,22,5,-2,43,24,-4,-33,15
1490985634587,0,29,34,86,15,-8,17,11,7
1490985634629,1,-8,-5,-51,-30,-13,14,7,13
1490985634629,1,-17,32,13,-42,-14,13,1,-22
1490985634631,2,-33,-96,-30,1,19,5,44,-13
1490985634631,2,-22,44,-2,9,-35,-11,-7,8
1490985634632,0,-109,-33,1,-23,-8,-7,-11,-28
1490985634632,0,39,11,-15,-42,-9,-4,1,-2
1490985634633,2,54,58,-10,-15,5,3,-8,65
1490985634633,2,-16,6,-1,34,-17,4,-2,-7
1490985634677,3,13,-41,98,65,16,21,3,-1
1490985634677,3,77,83,56,24,17,16,1,34
1490985634679,0,0,-84,-115,-90,-59,-31,7,-42
1490985634679,0,-104,-30,-2,75,47,-11,-8,-54
1490985634680,3,0,-28,31,11,10,-8,-7,10
1490985634680,3,19,-39,8,10,-11,-4,-30,17
1490985634681,0,37,127,38,15,9,-22,4,-26
1490985634681,0,72,31,-16,32,15,5,-6,14
1490985634727,1,-52,63,-35,-43,-2,-2,-8,-13
1490985634727,1,38,13,51,-50,-15,-13,30,6
1490985634729,2,-96,-16,-36,21,3,0,1,8
1490985634729,2,17,27,77,8,-20,-13,13,15
1490985634730,0,-33,27,13,-16,-41,5,-19,-44
1490985634730,0,-41,66,85,12,75,-4,44,45
1490985634731,1,9,-49,-66,32,-15,12,7,10
1490985634731,1,-46,16,-40,-26,-2,-6,-2,-16
1490985634775,2,49,-71,23,15,32,-1,14,-8
1490985634775,2,-18,31,-47,-21,-31,-34,0,-2
1490985634776,3,56,40,81,-2,-19,-26,1,5
1490985634776,3,-65,-46,23,37,33,1,-5,12
1490985634777,1,10,35,3,-6,40,29,6,-17
1490985634777,1,0,-77,-38,-81,-33,9,-4,-15
1490985634778,2,5,65,-9,21,12,15,-18,0
1490985634778,2,5,-48,-34,-22,-23,40,-2,2
1490985634824,3,-94,-55,40,2,-13,42,10,-54
1490985634824,3,41,86,44,48,19,26,-42,3
1490985634825,0,-26,-84,48,8,13,36,45,-7
1490985634825,0,45,36,-48,45,4,12,-2,23
1490985634826,1,-24,-45,-42,-20,16,-103,-5,-19
1490985634826,1,-3,68,18,-46,-13,-119,-20,13
1490985634827,2,12,16,-34,26,-6,-128,32,0
1490985634827,2,15,-7,-4,-23,6,-50,-38,-3
1490985634872,3,-11,25,50,-14,-49,1,13,6
1490985634872,3,-38,-49,0,29,52,33,15,-10
1490985634874,0,25,5,4,-16,-37,33,-13,8
1490985634874,0,34,15,-47,-34,9,41,-20,-13
1490985634875,2,-15,-43,64,22,2,69,-11,23
1490985634875,2,-15,49,-53,-36,-8,-16,-7,-25
1490985634876,3,-12,-1,-41,-30,-2,16,4,23
1490985634876,3,13,-88,17,-12,-17,21,-11,-4
1490985634921,0,62,-46,74,12,8,47,-33,5
1490985634921,0,-21,-127,-55,-7,0,-107,-25,-19
1490985634923,1,-70,-122,-17,9,-4,-75,-6,20
1490985634923,1,92,6,-12,0,-3,-19,61,-27
1490985634924,3,14,57,4,30,31,51,1,-5
1490985634924,3,-4,33,33,-18,-20,43,3,28
1490985634925,0,13,33,-49,-7,-1,31,-6,24
1490985634925,0,-9,20,-4,-10,-19,38,-1,-14
1490985634970,1,-7,42,-11,-20,12,25,-15,-7
1490985634970,1,0,43,36,52,-34,37,12,-2
1490985634971,2,-49,47,-23,-34,47,5,-7,-28
1490985634971,2,13,-13,-2,10,14,11,0,32
1490985634973,0,-18,50,13,-32,-1,-9,23,-22
1490985634973,0,22,-53,2,24,3,24,-15,-2
1490985634975,1,-15,24,-9,16,-7,14,21,10
1490985634975,1,36,27,5,3,9,-1,12,4
1490985635019,2,-22,-38,-22,8,-3,23,-26,-4
1490985635019,2,-20,37,53,1,-3,39,1,-16
1490985635021,3,-21,-7,31,23,-21,44,-21,-8
1490985635021,3,-21,-22,-19,18,34,24,17,13
1490985635022,1,-8,48,-10,-27,6,-1,-29,-13
1490985635022,1,7,16,-7,-17,-19,-19,5,0
1490985635024,2,-5,42,15,25,7,3,17,3
1490985635024,2,-21,-8,20,16,11,-8,3,6
1490985635067,3,36,-55,-14,10,-4,-1,-8,-8
1490985635067,3,33,10,26,4,12,24,-12,3
1490985635069,0,-24,-22,-28,-15,-10,-22,-31,-6
1490985635069,0,-8,-66,-11,-9,-4,9,38,10
1490985635070,2,26,56,-14,14,-3,-28,-8,17
1490985635070,2,13,-81,10,-17,10,11,30,-18
1490985635071,3,-56,-127,0,-14,-20,-17,-57,-23
1490985635071,3,50,-64,-13,12,26,-18,42,9
1490985635116,0,-38,-16,6,5,-4,-7,20,-10
1490985635116,0,8,37,-14,9,-9,-6,-15,6
1490985635117,1,9,10,3,8,6,24,-30,0
1490985635117,1,-7,-28,-12,-14,-19,-3,-30,-12
1490985635118,3,3,26,0,4,-2,-7,42,-12
1490985635118,3,-103,-16,4,4,-7,-6,-14,-6
1490985635119,0,19,-31,-9,-7,-1,7,33,18
1490985635119,0,-54,-7,1,-1,1,0,-4,17
1490985635165,1,27,-12,15,14,14,9,6,1
1490985635165,1,8,-7,-15,-5,-6,-1,-9,-7
1490985635166,2,13,-25,-3,-8,7,-7,7,0
1490985635166,2,-13,-3,-21,-15,-17,-10,-22,-2
1490985635173,3,36,46,-5,-7,4,-20,16,-4
1490985635173,3,8,41,1,-3,-7,-16,-94,-21
1490985635175,0,-38,49,4,-10,-5,3,-60,1
1490985635175,0,43,44,8,16,-2,3,-11,12
1490985635214,1,26,-5,1,9,14,12,-1,-5
1490985635214,1,-28,25,11,5,-9,13,79,9
1490985635215,2,1,1,-9,-15,-12,-3,19,-9
1490985635215,2,-21,-21,-5,10,28,15,-15,3
1490985635216,0,23,-24,-6,4,-6,-1,18,10
1490985635216,0,17,43,17,-19,-4,-6,0,-5
1490985635217,1,-6,-17,-30,-11,-5,-3,-15,3
1490985635217,1,2,-2,0,6,2,17,32,-5
1490985635263,2,-52,21,26,18,10,10,-33,-14
1490985635263,2,-5,8,-1,0,-11,-18,29,-11
1490985635264,3,15,10,-18,-14,-1,-12,-21,7
1490985635264,3,-25,8,-5,-15,2,3,11,-3
1490985635265,1,-21,39,-4,0,3,12,-31,13
1490985635265,1,25,-14,-10,-1,-3,-9,15,-6
1490985635271,2,19,2,15,-9,-1,2,-1,-10
1490985635271,2,-23,22,2,-7,-11,-21,0,22
1490985635311,3,-47,-26,11,5,-12,-13,-6,-8
1490985635311,3,91,12,-6,32,39,13,-26,24
1490985635313,0,-1,8,-12,-18,-3,5,60,-4
1490985635313,0,-64,-25,5,-17,-14,-16,-43,-8
1490985635314,2,-13,-10,-7,15,15,-1,19,5
1490985635314,2,91,-1,-2,-4,6,9,-9,4
1490985635315,3,-30,-5,9,1,-7,-9,2,-6
1490985635315,3,-25,-9,1,-22,-14,-4,-35,-12
1490985635360,0,68,28,-4,11,6,1,-17,-7
1490985635360,0,-30,16,8,16,-2,-6,24,-13
1490985635361,1,-13,-21,-5,-2,17,-3,4,14
1490985635361,1,36,-23,-16,6,-3,1,-1,-7
1490985635362,3,-6,1,-12,-18,11,-8,74,10
1490985635362,3,9,-40,-15,-5,-11,-8,7,13
1490985635363,0,3,22,12,14,10,-13,9,-10
1490985635363,0,-23,-1,25,19,-9,11,23,-2
1490985635409,1,-37,14,-17,-44,-9,5,-35,-10
1490985635409,1,31,-25,-2,-32,-7,-14,9,-4
1490985635410,2,-15,-15,-33,33,6,2,-27,-9
1490985635410,2,11,23,34,-9,9,1,4,-7
1490985635411,0,-25,85,82,4,-4,5,8,-15
1490985635411,0,33,30,28,34,7,2,-19,-2
1490985635412,1,27,-25,-32,-2,-1,-9,9,-23
1490985635412,1,-44,-8,4,-25,-13,9,-4,20
1490985635458,2,-3,-25,-87,-52,-7,-6,8,0
1490985635458,2,-81,-82,-30,-13,-8,-2,32,-16
1490985635459,3,104,89,78,57,8,-1,-58,2
1490985635459,3,-42,9,52,50,20,6,-14,-16
1490985635460,1,64,-4,-31,-24,-11,-8,-25,34
1490985635460,1,-42,27,50,20,9,-1,57,-8
1490985635461,2,49,-9,14,-6,6,-8,-19,5
1490985635461,2,16,24,-40,-16,-12,-5,-26,-28
1490985635556,3,-73,-101,-17,-4,-3,-12,-18,-23
1490985635556,3,59,101,-10,14,-7,0,13,-10
1490985635558,0,37,-15,48,28,4,11,-13,-23
1490985635558,0,-74,1,-8,32,3,5,2,8
1490985635559,2,-54,-93,-121,1,-12,-10,-18,-10
1490985635559,2,127,115,42,-39,-29,-13,4,36
1490985635560,3,-50,35,102,34,36,17,13,12
1490985635560,3,30,-38,1,76,39,14,-8,31
1490985635604,0,-37,-70,-18,-12,5,20,-13,-14
1490985635604,0,29,61,-33,30,-2,-1,10,-14
1490985635605,1,21,20,82,-18,21,-9,33,-6
1490985635605,1,39,-62,-114,-115,-47,-1,-38,20
1490985635606,2,-107,2,56,11,12,-4,40,-18
1490985635606,2,113,51,62,55,40,-7,-22,-1
1490985635607,3,18,-5,63,9,-8,4,-72,-23
1490985635607,3,95,37,-75,-20,18,29,7,49
1490985635653,0,-28,54,127,70,7,6,51,55
1490985635653,0,-53,-69,-92,-72,-58,-46,-26,-91
1490985635654,1,72,27,26,28,48,10,-26,-10
1490985635654,1,-128,97,-24,-7,-9,5,31,-1
1490985635655,0,-65,-105,-128,-1,6,5,-30,35
1490985635655,0,-67,48,111,-59,-11,-23,4,-32
1490985635657,1,2,-108,-3,41,-9,1,-45,-43
1490985635657,1,-69,36,4,12,-2,27,45,35
1490985635701,2,87,-73,108,86,39,10,23,-30
1490985635701,2,65,-46,-4,-9,9,-5,-55,-8
1490985635702,3,-5,69,-31,66,24,-23,13,17
1490985635702,3,-50,-85,-80,-102,-10,-13,19,8
1490985635703,1,-56,-82,40,-52,4,42,-36,-20
1490985635703,1,90,46,90,-8,-31,-11,27,68
1490985635705,2,-8,79,-78,-9,34,-8,67,-23
1490985635705,2,17,-78,-48,-112,-15,-1,-46,-1
1490985635750,3,76,120,-128,-4,-22,-2,-13,-30
1490985635750,3,-126,-128,-21,57,-8,-18,12,-50
1490985635752,0,-128,1,127,-22,20,10,6,-9
1490985635752,0,127,103,71,18,-12,21,-19,54
1490985635753,2,-61,93,50,14,13,-14,77,14
1490985635753,2,13,54,-84,103,-4,16,-34,45
1490985635757,3,-72,-115,-74,-128,-29,-14,-14,-6
1490985635757,3,-91,-128,127,-18,-15,8,-23,-124
1490985635799,0,-5,8,28,77,-22,-32,8,28
1490985635799,0,-49,51,-61,87,68,18,46,3
1490985635800,1,-28,108,68,-81,-19,6,46,78
1490985635800,1,-17,-54,-93,-57,-9,-1,-77,8
1490985635801,3,127,-1,-109,22,10,-47,-14,5
1490985635801,3,-100,-69,71,127,45,-17,45,5
1490985635802,0,46,-80,-128,-128,-78,-14,-93,36
1490985635802,0,-69,42,127,-8,-18,-24,25,-51
1490985635847,1,68,38,-93,38,-3,-2,-1,39
1490985635847,1,-19,-39,41,5,12,-9,-41,-86
1490985635849,2,115,-33,-1,127,30,26,-19,41
1490985635849,2,-41,-46,43,55,46,101,-26,26
1490985635850,0,-5,103,73,102,94,34,45,51
1490985635850,0,-24,59,-24,-62,-23,23,7,-22
1490985635851,1,30,-58,127,29,62,30,11,71
1490985635851,1,-3,31,20,66,-12,-36,-90,31
1490985635896,2,-14,-55,-26,-121,-61,-65,25,-59
1490985635896,2,-87,-128,-15,46,-83,-116,-3,-25
1490985635897,3,29,105,116,113,55,-7,-9,48
1490985635897,3,-33,-55,101,110,46,8,84,5
1490985635898,0,-23,43,53,43,38,58,17,-27
1490985635898,0,-37,54,-102,-119,-57,114,-20,46
1490985635899,1,-119,-128,-97,-103,-49,118,25,-48
1490985635899,1,114,30,69,14,88,127,-13,22
1490985635945,2,62,95,-94,-9,-66,59,-25,-1
1490985635945,2,-75,-107,61,-100,4,-41,65,25
1490985635946,3,89,122,56,127,85,-61,-46,79
1490985635946,3,-12,-92,-128,-128,-102,-126,-2,-6
1490985635947,1,-128,-128,-118,-105,-12,-117,68,-35
1490985635947,1,57,98,-77,102,22,-58,19,116
1490985635948,2,-23,46,72,74,-1,-59,-43,-77
1490985635948,2,81,25,-128,-34,22,-23,-12,-18
1490985635994,3,-94,-55,115,-60,-66,-25,-22,-43
1490985635994,3,29,-46,-113,-128,-83,122,-17,-59
1490985635996,0,-127,50,78,90,74,84,10,76
1490985635996,0,92,-30,-58,-57,44,27,-83,-34
1490985635997,2,122,25,-15,-104,-70,-53,-62,-19
1490985635997,2,-3,11,-65,-74,-17,-15,12,-2
1490985636001,3,77,-37,-32,70,-55,-42,66,-4
1490985636001,3,-50,57,115,95,11,-37,-9,15
1490985636042,0,59,85,-89,46,105,-23,-66,-17
1490985636042,0,-71,31,94,-70,2,-29,52,80
1490985636044,1,-4,-79,-120,-46,-77,-26,-20,-55
1490985636044,1,21,-49,92,-28,48,0,-21,-15
1490985636045,3,-38,59,-50,-47,86,33,37,39
1490985636045,3,18,19,-68,16,-54,-63,-48,-29
1490985636046,0,-128,-128,-128,-128,-78,-32,57,-38
1490985636046,0,62,17,62,-52,-60,-73,1,-89
1490985636140,1,-9,127,127,127,75,-16,-3,41
1490985636140,1,31,113,-128,-127,79,-7,-32,64
1490985636141,2,60,-3,-81,-91,-39,-24,7,-7
1490985636141,2,-106,-120,42,98,-93,-32,44,-34
1490985636142,0,78,105,-24,100,74,10,-13,20
1490985636142,0,-86,-104,-23,-73,23,9,77,15
1490985636143,1,65,42,-34,58,-62,-16,-7,-46
1490985636143,1,-13,26,69,-10,55,13,-24,43
1490985636189,2,-46,-7,-55,10,-83,-3,57,-43
1490985636189,2,-19,-31,-43,34,78,-7,-38,42
1490985636190,3,-14,-82,77,-10,-72,-32,-43,-35
1490985636190,3,35,81,50,39,32,-8,38,-35
1490985636191,1,-81,-128,-118,-111,-45,-10,37,-30
1490985636191,1,116,47,65,91,-33,-17,-5,7
1490985636192,2,24,-25,-23,46,5,-1,-28,-23
1490985636192,2,-66,-76,-99,-93,-21,8,34,2
1490985636238,3,99,102,62,127,89,48,-17,-2
1490985636238,3,63,39,88,-30,6,71,-33,56
1490985636239,0,34,4,-54,-85,-63,13,-20,4
1490985636239,0,-46,46,-116,-79,38,69,8,3
1490985636240,2,-61,6,82,56,39,119,-24,-16
1490985636240,2,32,100,8,127,41,40,-14,18
1490985636241,3,19,-55,32,-88,-22,-52,-55,-16
1490985636241,3,41,116,29,126,72,8,50,3
1490985636286,0,-15,-74,-86,-128,-19,-95,7,-9
1490985636286,0,12,92,127,100,3,72,5,-24
1490985636288,1,-9,127,-38,-67,51,87,-42,38
1490985636288,1,-29,-86,-121,-75,-86,92,21,-9
1490985636289,3,63,12,21,-88,68,-117,11,31
1490985636289,3,-102,-28,20,127,-7,6,-77,-24
1490985636290,0,-44,-89,-95,-108,-48,77,55,-34
1490985636290,0,65,-65,38,19,9,127,36,-38
1490985636335,1,-10,83,126,39,15,80,-53,18
1490985636335,1,16,-32,-128,-119,-22,-29,27,29
1490985636336,2,10,69,96,127,30,-88,-12,6
1490985636336,2,-64,43,14,26,-100,-76,-45,-12
1490985636337,0,-75,-74,-14,-92,-53,-85,-28,-9
1490985636337,0,2,66,-78,28,15,-4,4,-3
1490985636338,1,5,-44,38,127,-5,23,-38,27
1490985636338,1,-73,5,-24,-52,-56,-69,-54,-16
1490985636384,2,42,-20,14,-5,-6,-72,16,36
1490985636384,2,61,76,84,42,36,-71,3,34
1490985636385,3,-128,-35,-128,-99,-54,-25,13,-59
1490985636385,3,30,-92,-98,-36,88,32,46,-43
1490985636387,1,-54,-108,-4,124,15,-75,22,-28
1490985636387,1,21,86,127,122,1,-92,28,-8
1490985636388,2,14,15,47,-51,13,-41,56,21
1490985636388,2,-44,-38,-47,-118,-2,-98,-36,-30
1490985636433,3,43,12,65,67,-12,-61,-24,18
1490985636433,3,-27,4,-127,-103,-22,-23,-83,-5
1490985636434,0,-70,-43,112,127,58,111,96,-21
1490985636434,0,-23,-90,-79,-71,-48,-35,-39,-10
1490985636435,2,10,-35,-128,-116,-1,28,-5,21
1490985636435,2,32,18,105,58,-31,71,1,-17
1490985636437,3,-9,-75,-90,-45,92,21,-15,-5
1490985636437,3,14,43,80,22,-16,46,4,29
1490985636481,0,64,73,-7,-11,-22,44,-81,12
1490985636481,0,-54,-127,-128,-128,15,36,58,2
1490985636483,1,50,-15,89,127,-37,16,9,3
1490985636483,1,-7,15,-91,-119,3,34,26,0
1490985636484,3,29,117,63,51,30,60,33,7
1490985636484,3,10,15,20,56,-54,69,43,14
1490985636485,0,-9,23,6,-70,-27,21,-4,-10
1490985636485,0,37,83,89,25,32,-42,-81,-27
1490985636530,1,-55,-19,-71,-51,48,59,72,-5
1490985636530,1,-8,-35,-42,-52,-73,-34,-1,-12
1490985636531,2,49,57,-9,75,49,-31,-36,12
1490985636531,2,2,12,-128,-71,-109,34,-22,-7
1490985636532,0,-57,-57,-56,-76,-40,-20,58,9
1490985636532,0,25,59,-14,75,108,12,-18,25
1490985636533,1,-41,38,103,22,-74,-10,-13,-10
1490985636533,1,1,-19,-33,49,76,-22,10,7
1490985636579,2,7,21,-55,-85,-108,-14,9,-1
1490985636579,2,-47,-12,-25,21,75,-24,-2,-10
1490985636580,3,33,-4,-45,-42,32,13,16,55
1490985636580,3,-15,-60,29,15,20,-19,18,-8
1490985636581,0,45,66,73,72,44,15,-24,11
1490985636581,0,-24,8,12,-63,-22,-17,-19,-4
1490985636582,1,-4,-65,-125,-75,-87,-54,-3,-30
1490985636582,1,10,-9,50,5,89,49,-4,-7
1490985636627,2,-14,21,16,-2,-11,20,14,-12
1490985636627,2,-8,-4,11,1,-67,-46,13,59
1490985636629,3,26,36,31,127,51,35,32,12
1490985636629,3,-6,-9,55,-42,-21,-22,-59,-6
1490985636630,1,17,24,74,75,-19,15,-7,3
1490985636630,1,22,-4,-44,-20,97,37,55,28
1490985636631,2,-35,-49,-41,-73,-58,-24,-48,-44
1490985636631,2,-7,-22,35,29,-2,3,42,12
1490985636676,3,28,-18,-11,28,-12,-50,-18,-1
1490985636676,3,-2,33,66,64,-52,-17,-15,-5
1490985636677,0,17,10,3,14,56,1,-47,-8
1490985636677,0,-15,-17,-27,-51,13,40,34,-6
1490985636678,2,20,22,24,16,19,-4,29,-6
1490985636678,2,2,-9,16,30,-14,0,43,26
1490985636678,3,6,14,15,9,40,60,2,6
1490985636678,3,-35,-75,8,-60,-105,15,-8,-10
1490985636725,0,6,-76,-46,2,85,-2,-1,2
1490985636725,0,1,-51,4,24,4,-17,-1,-21
1490985636726,1,-14,-10,15,-36,-51,-15,-37,-17
1490985636726,1,36,25,-21,-14,-50,-19,17,19
1490985636776,3,-25,15,4,-27,-1,30,-11,-9
1490985636776,3,-15,-10,-65,-3,21,-16,0,-2
1490985636777,0,14,19,24,-29,-50,-9,11,-5
1490985636777,0,30,37,12,14,27,2,7,29
1490985636778,1,-22,33,33,-14,-79,6,14,-20
1490985636778,1,3,12,14,12,39,7,-40,7
1490985636779,2,16,-1,-13,38,-2,-19,19,20
1490985636779,2,-36,-2,-49,-2,-10,2,2,-22
1490985636871,0,-34,-52,-86,-41,-13,5,-8,-34
1490985636871,0,-9,-28,4,3,-80,-28,-31,8
1490985636873,1,21,7,-58,9,71,-3,27,4
1490985636873,1,-3,46,34,41,12,-2,10,4
1490985636874,2,53,58,76,62,-12,-9,-19,20
1490985636874,2,-63,-28,-84,-89,4,6,-7,-35
1490985636875,1,13,-11,11,-21,4,-9,18,45
1490985636875,1,3,-19,-84,-61,-20,34,-4,-30
1490985636920,2,-53,-47,22,13,-14,-17,-14,1
1490985636920,2,-5,-27,30,56,27,-2,5,-8
1490985636923,3,8,-10,-12,-55,-16,-12,-20,-9
1490985636923,3,17,37,62,49,18,5,-43,-4
1490985636925,3,21,0,-64,26,1,14,5,-9
1490985636925,3,-7,57,44,31,8,-31,-5,27
1490985636926,0,40,59,6,36,9,-19,32,35
1490985636926,0,-15,-57,8,-84,-22,-13,-4,-37
1490985636974,1,-3,51,52,90,28,10,-29,31
1490985636974,1,-28,17,-97,-9,-13,8,15,7
1490985636976,2,-15,-77,56,-68,0,-2,2,-20
1490985636976,2,-29,-12,-42,-84,-50,-14,4,0
1490985636977,3,-10,-25,39,-8,-6,-13,-23,-31
1490985636977,3,26,91,53,76,0,4,12,22
1490985636978,0,-14,-13,26,16,10,2,-20,2
1490985636978,0,93,11,-2,-21,-14,-1,-12,-9
1490985637017,1,-89,-14,-68,1,-3,-1,5,22
1490985637017,1,-74,-9,-11,-68,-11,2,-6,-9
1490985637019,2,82,18,-74,32,7,-16,5,-6
1490985637019,2,-32,23,85,82,0,-5,14,-3
1490985637020,0,-16,20,65,-18,80,11,12,20
1490985637020,0,114,112,96,18,-11,-6,-3,27
1490985637021,1,-50,-106,-91,46,-1,-3,20,-7
1490985637021,1,-5,-83,-48,-19,-3,-3,-11,-4
1490985637066,2,20,28,48,-20,-24,4,-11,-19
1490985637066,2,16,59,-23,30,39,10,-11,-8
1490985637068,3,27,50,61,-10,-4,-10,1,-2
1490985637068,3,-1,8,25,17,8,17,4,20
1490985637068,1,26,76,93,96,6,-6,-14,-24
1490985637068,1,21,-29,-52,-111,-25,-6,-11,-11
1490985637069,2,-4,19,26,-2,-4,-8,21,32
1490985637069,2,-66,8,92,53,-10,-2,2,12
1490985637115,3,37,-86,-128,-94,-11,1,-16,-28
1490985637115,3,-29,7,27,-18,12,3,42,-24
1490985637116,0,30,101,30,50,-11,20,-11,19
1490985637116,0,30,-93,-85,-8,-8,-3,15,24
1490985637117,2,-18,-22,4,47,4,-9,-30,-19
1490985637117,2,14,1,-42,-11,-13,7,2,20
1490985637118,3,-2,80,-13,-29,-20,-15,-15,-28
1490985637118,3,-110,-113,-101,-45,23,-14,-30,-53
1490985637213,0,80,-51,47,6,3,-2,36,32
1490985637213,0,-63,3,-43,127,-7,8,-31,-11
1490985637216,1,15,5,58,-68,17,-1,-1,16
1490985637216,1,13,36,120,0,-20,-12,5,-25
1490985637218,3,12,3,18,-9,-15,12,-16,13
1490985637218,3,-26,38,-64,73,15,-2,34,25
1490985637220,0,-71,-80,104,2,-2,-11,0,-59
1490985637220,0,101,9,26,-12,-32,-11,18,18
1490985637261,1,14,-7,6,61,41,4,18,16
1490985637261,1,-18,53,-78,-80,-9,-1,-39,-25
1490985637263,2,55,-47,-107,-24,-21,2,24,41
1490985637263,2,-69,28,119,-59,-1,-4,48,-38
1490985637264,0,19,58,23,11,11,15,-24,25
1490985637264,0,-43,63,46,-14,8,3,-13,-20
1490985637264,1,10,8,17,-25,0,0,-7,9
1490985637264,1,43,-5,-22,41,10,22,-6,-14
1490985637310,2,-64,36,18,32,-18,7,2,-9
1490985637310,2,-22,-85,-25,9,25,6,16,0
1490985637320,3,23,52,-20,-17,-5,0,-23,13
1490985637320,3,-19,-116,24,-51,2,11,17,18
1490985637321,1,-3,-7,-17,-11,-18,-7,19,9
1490985637321,1,-21,15,-29,-11,9,-5,-45,0
1490985637322,2,22,24,-51,-48,-14,-5,17,-43
1490985637322,2,-18,-96,32,33,-1,7,10,83
1490985637358,3,41,78,127,87,16,22,-38,-21
1490985637358,3,13,13,-76,3,17,24,3,15
1490985637360,0,-63,-81,-73,-101,-35,-11,41,-10
1490985637360,0,76,36,-63,-8,5,-2,-28,4
1490985637361,2,19,-34,61,78,20,-15,-14,1
1490985637361,2,10,77,22,-35,0,14,13,1
1490985637362,3,-13,-91,-55,-26,-35,12,-5,-17
1490985637362,3,47,52,-31,27,41,24,-4,-24
1490985637407,0,-41,0,96,8,-5,41,8,29
1490985637407,0,-25,-2,-35,24,19,-6,-9,10
1490985637409,1,-46,43,-40,-27,4,-74,2,11
1490985637409,1,-50,-70,-6,-22,-37,-76,-18,-16
1490985637410,3,-97,-53,-51,-64,9,-72,21,3
1490985637410,3,117,75,31,24,-3,-34,30,39
1490985637411,0,-77,7,16,2,-4,-3,-34,-25
1490985637411,0,41,-6,29,0,31,42,5,-2
1490985637456,1,33,-11,-8,19,1,8,-8,19
1490985637456,1,13,-6,3,43,19,26,16,-24
1490985637457,2,19,-25,-36,-43,-18,36,-29,-9
1490985637457,2,-68,-30,47,-16,-21,59,-3,-24
1490985637458,0,34,1,-54,0,11,17,-34,2
1490985637458,0,-52,-40,-4,-22,-1,32,3,-29
1490985637505,1,38,-30,21,35,-4,88,-8,22
1490985637505,1,42,-56,4,-26,-29,50,-11,-15
1490985637507,2,-49,-74,-65,3,3,32,27,3
1490985637507,2,-2,11,-40,-20,-16,43,21,18
1490985637508,3,85,27,40,11,26,48,36,-11
1490985637508,3,-26,13,-6,-22,-19,9,10,-5
1490985637509,1,1,49,-35,11,-12,15,0,3
1490985637509,1,0,69,0,-10,3,8,-30,-12
1490985637554,2,-41,62,22,-3,4,12,18,-16
1490985637554,2,1,-61,-21,20,-12,-4,1,11
1490985637555,3,20,-68,1,14,14,5,-3,7
1490985637555,3,9,-86,-8,-35,-3,10,-30,-20
1490985637556,2,69,30,18,-4,-16,3,-39,-15
1490985637556,2,-22,-46,-61,4,-4,21,-33,-3
1490985637557,3,-16,15,51,-12,-9,33,26,-6
1490985637557,3,-20,7,14,21,7,16,-18,-17
1490985637603,0,69,62,14,-10,1,16,-5,32
1490985637603,0,26,73,-24,2,4,10,26,-9
1490985637604,1,-98,34,-3,0,16,-2,-3,-23
1490985637604,1,-26,-44,-6,3,1,-7,11,6
1490985637605,3,-27,9,7,0,-21,1,-27,-9
1490985637605,3,19,32,3,20,41,18,18,0
1490985637606,0,-49,-16,-15,1,3,13,-19,0
1490985637606,0,14,127,25,2,-8,-17,12,-7
1490985637651,1,20,106,-9,-3,3,-3,-8,3
1490985637651,1,-54,-72,-24,8,-2,-29,-29,-20
1490985637653,2,63,-104,2,-24,-4,-7,53,6
1490985637653,2,-15,-102,20,13,3,-33,-12,0
1490985637654,3,-4,-128,-2,-7,-12,8,-19,-4
1490985637654,3,15,41,0,-6,-21,3,13,8
1490985637655,0,-23,1,-8,8,31,8,-30,-9
1490985637655,0,17,-38,8,4,-5,-1,-3,-21
1490985637700,1,26,-36,-9,7,1,-4,-16,7
1490985637700,1,-21,8,11,-2,-7,22,26,13
1490985637701,2,-31,-58,1,12,13,-10,12,-3
1490985637701,2,-20,-37,-4,-21,-14,-10,-16,-7
1490985637702,0,41,35,-15,-8,-22,3,-56,-8
1490985637702,0,-124,46,3,-9,0,10,5,-16
1490985637704,1,107,71,-14,8,10,6,-25,8
1490985637704,1,6,20,8,-15,-6,-28,65,-1
1490985637749,2,-4,26,9,10,7,-2,39,6
1490985637749,2,-3,20,-3,22,1,-4,-29,-1
1490985637751,3,-11,3,32,-15,-13,3,57,0
1490985637751,3,-21,25,-35,-9,7,15,38,-3
1490985637752,1,-56,-16,11,6,-16,-7,-15,-17
1490985637752,1,96,66,16,13,1,27,-1,15
1490985637753,2,-85,11,-12,-4,-2,-13,20,-5
1490985637753,2,39,37,5,-5,7,-7,45,9
1490985637798,3,-21,-7,-13,-8,-2,-7,23,17
1490985637798,3,54,-34,-2,-14,-12,-30,-75,-16
1490985637799,0,-63,24,13,7,5,26,34,-4
1490985637799,0,42,6,1,-4,-6,-24,-45,-20
1490985637800,2,67,12,-17,4,-7,-11,-66,-1
1490985637800,2,-69,-42,-17,2,2,3,24,-5
1490985637801,3,-12,-11,3,-12,-3,-10,10,1
1490985637801,3,-58,-5,-19,-12,-4,14,26,30
1490985637846,0,28,9,21,11,5,2,-16,-15
1490985637846,0,-1,19,11,13,4,-7,21,-9
1490985637848,1,16,-5,2,5,6,-20,-8,-6
1490985637848,1,22,22,-14,5,9,32,13,12
1490985637849,3,88,48,-17,15,-1,2,3,7
1490985637849,3,-78,-78,-3,-26,-11,-27,-24,-23
1490985637850,0,89,15,23,2,7,-13,-17,-21
1490985637850,0,71,7,-21,34,6,17,28,28
1490985637895,1,-33,-16,36,-24,-4,-7,11,2
1490985637895,1,-43,32,-31,8,-5,-16,-12,11
1490985637897,2,-36,-26,-18,-44,-15,-6,1,-1
1490985637897,2,-1,-8,13,6,0,-13,-23,-7
1490985637898,0,-72,-59,-7,-70,-3,-4,-11,-15
1490985637898,0,84,72,11,23,7,29,21,41
1490985637899,1,-112,-37,-35,7,-8,-10,-18,-13
1490985637899,1,48,6,-11,-31,0,3,-17,-12
1490985637944,2,68,0,-12,-8,2,-9,14,-2
1490985637944,2,-54,-13,20,9,-1,-11,17,-21
1490985637946,3,45,29,20,22,8,12,-37,12
1490985637946,3,-8,-27,-8,0,4,5,34,17
1490985637947,1,-7,0,-70,-71,-24,-16,14,-14
1490985637947,1,59,26,29,39,25,6,24,-41
1490985637947,2,-27,-69,-27,-7,-18,-16,2,46
1490985637947,2,-63,-15,33,-37,-2,-3,7,49
1490985637992,3,45,34,24,73,13,-5,33,-31
1490985637992,3,-13,-8,-50,-17,-6,9,4,20
1490985637993,0,-4,-19,93,49,7,15,-44,-36
1490985637993,0,-19,41,-41,-59,-11,-2,27,-13
1490985637993,1,26,-2,30,-28,-6,-15,-20,11
1490985637993,1,56,51,-21,29,16,-12,36,8
1490985637995,2,13,47,-27,32,10,15,-25,14
1490985637995,2,-73,-86,-22,-17,-13,-3,-20,-6
1490985638041,3,-11,39,1,6,12,18,23,-13
1490985638041,3,-60,-11,-35,-7,-18,-10,-70,18
1490985638042,0,78,41,92,-9,3,21,97,32
1490985638042,0,-4,7,5,28,25,-9,-8,-6
1490985638042,2,-36,-11,-120,-91,-30,-12,18,-20
1490985638042,2,112,52,-23,35,32,19,5,16
1490985638044,3,-88,-102,61,-15,-3,-2,20,1
1490985638044,3,-15,71,52,101,44,11,-5,15
1490985638091,0,-13,-53,-45,7,-18,-17,-37,-29
1490985638091,0,43,68,72,-63,-11,-6,-11,17
1490985638092,1,-20,-90,-26,45,1,-1,-2,-32
1490985638092,1,-43,-27,-27,-18,-21,-9,27,-30
1490985638092,3,-1,16,119,3,13,9,14,41
1490985638092,3,-24,-13,-16,45,2,2,-13,7
1490985638093,0,59,21,-92,-51,16,12,50,-59
1490985638093,0,-60,-71,60,35,-26,-20,-67,-13
1490985638139,1,-49,99,-73,-23,4,1,57,38
1490985638139,1,27,-106,92,-18,-28,-7,-32,25
1490985638140,2,63,111,119,127,84,7,13,-16
1490985638140,2,-97,-122,-128,-41,-13,28,18,18
1490985638141,0,-12,-56,41,87,1,-3,-18,33
1490985638141,0,120,12,44,-83,15,7,9,13
1490985638142,1,14,-7,-128,30,-15,-7,28,-12
1490985638142,1,-44,-34,52,-87,-25,-7,-2,-7
1490985638236,2,3,37,10,19,-16,-22,-15,-36
1490985638236,2,-5,-13,4,117,14,13,-4,7
1490985638238,3,-62,-105,-9,-128,-1,39,-18,-19
1490985638238,3,127,126,29,-40,-3,-19,48,12
1490985638239,1,15,-29,16,19,-28,5,45,0
1490985638239,1,-16,-100,-37,-86,-14,-13,-4,2
1490985638240,2,-43,37,-9,-76,-10,-7,34,36
1490985638240,2,55,70,95,95,15,-15,-14,-97
1490985638285,3,80,43,-69,9,15,-2,40,9
1490985638285,3,39,27,62,127,20,31,-32,53
1490985638286,0,-128,-83,-56,-92,-5,19,-23,27
1490985638286,0,23,11,-78,-120,-4,-8,16,-86
1490985638287,2,-108,-49,-40,-20,31,-13,37,46
1490985638287,2,127,-49,-35,23,2,19,24,37
1490985638288,3,68,71,-121,-99,9,45,-30,58
1490985638288,3,-112,-95,45,-93,19,-17,-40,-33
1490985638334,0,73,-13,42,122,-26,-37,15,32
1490985638334,0,-43,48,-102,-117,-12,-51,52,76
1490985638335,1,80,41,-49,26,12,32,32,81
1490985638335,1,-89,-30,3,-75,4,-43,-2,-22
1490985638336,3,-109,-10,87,53,42,26,53,52
1490985638336,3,127,53,-11,69,38,9,-1,18
1490985638337,0,-48,-85,-103,-128,-89,2,-49,-66
1490985638337,0,-58,-86,-37,-4,-66,-37,50,-5
1490985638383,1,23,67,69,90,44,-3,-45,-89
1490985638383,1,41,-87,-2,-81,-20,3,-22,49
1490985638384,2,67,73,-39,-60,-50,-16,-32,-21
1490985638384,2,-10,18,99,88,122,20,45,-13
1490985638385,0,127,121,116,106,9,-2,1,42
1490985638385,0,-28,-128,-128,-119,-14,20,45,33
1490985638386,1,2,-35,65,-65,-69,-28,-17,-20
1490985638386,1,-77,-18,-87,-64,-10,-65,50,10
1490985638431,2,86,71,30,14,11,2,-12,-8
1490985638431,2,-91,-106,127,127,54,-7,9,-25
1490985638433,3,65,-12,-37,-39,20,89,-33,21
1490985638433,3,4,-29,48,-30,-37,71,7,-43
1490985638434,1,27,85,72,37,-24,-51,-19,0
1490985638434,1,81,74,64,55,55,-18,-12,42
1490985638435,2,-91,-82,-28,-78,-18,-57,14,-32
1490985638435,2,82,127,125,62,16,-10,-71,41
1490985638480,3,-50,-83,-116,-10,8,-21,33,-18
1490985638480,3,76,15,-75,45,-19,-41,5,19
1490985638481,0,-121,-98,97,-20,48,-50,38,16
1490985638481,0,127,83,-122,-65,-1,44,20,-76
1490985638482,2,110,127,-118,86,-5,127,-48,86
1490985638482,2,-21,-41,-38,-128,-27,96,16,67
1490985638483,3,-77,-6,-30,-6,20,-24,18,-13
1490985638483,3,-70,-25,37,79,-43,51,9,-55
1490985638529,0,49,-23,69,52,15,81,24,49
1490985638529,0,45,99,-4,50,56,33,-75,-3
1490985638530,1,-39,-69,-96,-42,3,-10,0,52
1490985638530,1,-46,-50,-114,4,-38,-108,-37,-16
1490985638531,3,57,59,-66,-105,9,-75,-4,-75
1490985638531,3,-10,-74,-128,-66,-13,-91,-78,-79
1490985638532,0,104,62,108,110,51,-68,16,-21
1490985638532,0,33,9,65,-49,-12,-53,-55,57
1490985638578,1,-5,127,122,105,-8,-37,38,-12
1490985638578,1,7,-122,-58,-128,17,-21,16,9
1490985638579,2,-128,-104,-91,-102,-24,-28,27,-19
1490985638579,2,-18,-8,92,96,-1,-25,12,3
1490985638580,0,25,103,15,-35,8,-24,-78,26
1490985638580,0,45,-61,-128,-27,25,-14,-26,-73
1490985638581,1,-51,-128,-3,10,50,12,85,14
1490985638581,1,-35,66,7,-24,-33,-5,-20,54
1490985638626,2,-63,-101,-128,-128,-38,-18,-37,-24
1490985638626,2,-2,20,107,109,40,1,-18,-34
1490985638628,3,112,96,44,-14,-23,10,-69,-12
1490985638628,3,-74,-81,-38,-29,-4,-5,43,-11
1490985638629,1,-66,-90,-31,-4,-20,1,46,27
1490985638629,1,20,79,-13,66,-36,-5,-2,-6
1490985638630,2,-97,-15,-18,-3,-33,-2,3,-97
1490985638630,2,-2,51,49,76,-2,-3,-1,30
1490985638675,3,55,101,-84,-104,-41,8,-4,-35
1490985638675,3,-67,-45,66,31,10,-31,26,77
1490985638677,0,54,-8,71,51,93,-22,-14,-6
1490985638677,0,-80,-123,-70,-106,-67,-59,45,-105
1490985638678,2,-28,-3,-78,-59,15,22,-22,8
1490985638678,2,-76,-41,-90,-78,-47,-12,46,39
1490985638679,3,23,19,85,122,47,-14,-31,24
1490985638679,3,37,-99,-72,-34,-58,-2,-12,-13
1490985638724,0,9,126,102,125,-9,-10,-11,-11
1490985638724,0,-11,-111,40,-46,36,24,-18,39
1490985638726,1,-61,-53,-34,-48,-61,-25,-5,-3
1490985638726,1,123,83,-4,-102,17,-41,-49,-29
1490985638727,2,-103,-21,-71,-81,-16,-5,30,-48
1490985638727,2,-109,-85,82,70,-2,36,25,7
1490985638728,3,78,96,127,127,87,26,-82,27
1490985638728,3,-50,-82,-105,-78,-126,-65,29,-3
1490985638772,0,-2,-41,-40,41,76,4,40,20
1490985638772,0,80,73,12,-38,-75,-34,-31,-17
1490985638774,1,-128,-128,-70,49,23,-4,-3,-44
1490985638774,1,64,123,120,29,54,70,-12,24
1490985638775,3,43,97,-128,-35,13,22,61,-45
1490985638775,3,-45,86,-94,-128,-16,-4,14,11
1490985638776,0,36,127,115,127,-5,-64,2,2
1490985638776,0,103,5,-119,-81,61,36,-49,11
1490985638821,1,-55,-94,-78,-101,-37,-8,-2,-1
1490985638821,1,-23,-98,55,127,21,-14,45,-68
1490985638823,2,56,-128,-83,-128,-68,-55,-58,-12
1490985638823,2,91,88,103,127,7,-14,49,50
1490985638824,0,-43,-78,-128,65,47,13,10,6
1490985638824,0,-58,71,38,107,-43,8,-11,-2
1490985638825,1,-15,-60,-30,127,13,54,52,6
1490985638825,1,19,-60,-62,-94,71,16,-18,-7
1490985638870,2,-128,-74,11,-128,-96,-10,-19,-26
1490985638870,2,-56,-21,49,71,25,9,54,3
1490985638871,3,63,127,127,24,-14,8,-37,11
1490985638871,3,54,76,-57,-81,40,89,27,44
1490985638873,1,-42,-81,22,-1,-24,-24,8,-30
1490985638873,1,19,-13,127,105,-8,-70,-61,33
1490985638873,2,-17,-100,-106,-127,-21,33,10,-13
1490985638873,2,58,30,-128,-56,-16,6,-15,-5
1490985638919,3,-101,112,-97,-98,9,-122,22,-45
1490985638919,3,2,126,27,77,6,-117,-9,1
1490985638921,0,43,109,127,119,-1,-59,33,23
1490985638921,0,40,23,60,-16,61,26,39,6
1490985638928,2,-28,-81,24,-82,-5,75,-41,-13
1490985638928,2,14,-115,-128,-128,-106,20,47,4
1490985638933,3,-29,-58,-51,94,41,33,10,-16
1490985638933,3,-2,-1,-16,-41,-42,47,-21,-16
1490985638968,0,-32,-77,-56,-65,-49,-2,34,11
1490985638968,0,-23,0,102,68,-56,32,-33,-42
1490985638969,1,39,44,67,77,9,47,-22,49
1490985638969,1,17,60,94,127,10,28,-11,10
1490985638971,3,-26,29,-40,119,-43,-14,-1,-22
1490985638971,3,19,-37,7,-55,11,19,12,-4
1490985638972,0,-16,-7,57,103,-24,-38,-39,-39
1490985638972,0,-9,-101,-49,-24,89,11,5,8
1490985639016,1,45,-96,-10,-63,-7,-18,48,-3
1490985639016,1,-3,-128,48,-4,-41,-33,-13,34
