1490985863413,0,-37,7,-2,-18,-3,-46,36,-35
1490985863413,0,55,-1,30,4,3,-62,72,11
1490985863414,1,17,6,18,11,9,-24,14,12
1490985863414,1,12,4,15,20,9,25,28,21
1490985863414,2,7,-5,-6,15,-3,45,-30,11
1490985863414,2,-15,-5,-16,1,10,49,-24,2
1490985863461,3,-36,-10,-17,-18,-22,-28,-22,-5
1490985863461,3,23,-7,-17,-6,-10,9,-33,0
1490985863463,0,12,-1,1,-2,7,9,-20,-19
1490985863463,0,-45,-8,0,1,-5,-10,1,14
1490985863463,1,46,3,0,-1,2,12,0,1
1490985863463,1,-12,0,0,-8,-8,-40,-9,-2
1490985863464,2,-8,-11,8,20,9,13,6,-15
1490985863464,2,10,-6,-1,-10,29,47,12,-7
1490985863510,3,5,14,1,5,-2,18,-8,-5
1490985863510,3,2,-4,-4,-10,-13,-23,0,7
1490985863511,0,-3,4,-1,-9,-14,-36,-1,-6
1490985863511,0,7,4,-4,-4,-8,-13,-23,68
1490985863511,1,-27,14,3,13,13,9,3,-72
1490985863511,1,-6,7,-1,-4,-7,-24,2,-18
1490985863513,2,-22,-14,3,7,4,25,25,38
1490985863513,2,-16,3,8,-9,-11,-8,-11,-37
1490985863559,3,-17,-15,-8,-5,-3,-12,12,40
1490985863559,3,24,10,0,5,-8,-6,8,71
1490985863560,0,-51,-15,-9,-7,14,21,-16,-80
1490985863560,0,57,1,-24,-24,4,18,5,77
1490985863561,2,28,-6,-8,-1,-17,-10,5,71
1490985863561,2,-40,11,21,20,6,38,3,-62
1490985863562,3,23,34,-1,0,5,5,0,7
1490985863562,3,-38,-43,-2,5,8,-3,7,0
1490985863607,0,24,19,16,0,-12,-32,-18,-1
1490985863607,0,-8,-8,-11,-5,-10,-24,0,-20
1490985863609,1,9,-25,-14,20,5,19,11,33
1490985863609,1,-30,2,19,-16,14,40,-7,-27
1490985863610,3,7,-33,-33,7,-13,-22,-6,48
1490985863610,3,7,-11,-5,-61,2,-6,-2,28
1490985863611,0,-36,-16,20,14,-6,-2,13,-28
1490985863611,0,20,6,-2,26,11,0,8,-9
1490985863658,1,-18,2,22,26,13,13,-48,-25
1490985863658,1,-27,-5,18,67,13,5,31,-8
1490985863660,2,9,-17,-26,-63,-13,-4,39,32
1490985863660,2,-38,-5,-10,-18,-7,-3,-3,-18
1490985863660,0,60,10,58,48,0,-5,31,19
1490985863660,0,47,16,-11,19,-10,-25,-43,16
1490985863661,1,-50,-65,14,-6,30,-6,35,16
1490985863661,1,-26,16,-85,11,-40,0,-67,-20
1490985863706,2,83,44,54,-79,-33,-4,17,25
1490985863706,2,-79,-30,14,23,9,-10,35,-41
1490985863707,3,50,55,15,13,-8,10,17,45
1490985863707,3,-48,-53,-48,-7,11,9,37,1
1490985863708,0,-12,-7,-41,8,10,-3,-12,35
1490985863708,0,55,31,-27,-7,-19,3,-30,-69
1490985863709,1,-91,-32,-30,-20,-16,-32,13,-5
1490985863709,1,-57,-19,97,39,2,10,-27,-19
1490985863754,2,98,72,4,-19,44,18,3,32
1490985863754,2,10,-63,-14,-56,-17,-5,-12,13
1490985863755,3,-35,-42,-70,20,7,-3,28,-1
1490985863755,3,111,-22,-21,-26,7,-14,28,9
1490985863757,1,-51,-84,-89,34,-13,15,11,-21
1490985863757,1,-19,29,-61,-73,-19,15,0,31
1490985863758,2,-32,-56,55,-23,-9,-10,-46,-67
1490985863758,2,-58,43,21,34,13,11,48,64
1490985863803,3,48,59,4,62,36,11,-35,-44
1490985863803,3,-11,43,84,74,32,-2,72,44
1490985863804,0,-1,28,-55,-2,-28,-20,-11,-1
1490985863804,0,-114,-128,-74,-47,-31,-11,26,13
1490985863805,2,5,74,-14,49,17,10,-15,-60
1490985863805,2,76,-28,27,3,-3,-4,-7,89
1490985863808,3,64,36,-66,35,18,26,22,6
1490985863808,3,-123,-84,113,17,-12,0,-28,-37
1490985863851,0,40,18,-128,-72,9,7,-5,39
1490985863851,0,-68,-23,6,18,-13,-9,52,-37
1490985863853,1,17,26,37,55,35,3,-31,-17
1490985863853,1,89,-54,42,-42,8,-11,-25,26
1490985863854,3,51,29,119,60,31,9,-14,5
1490985863854,3,60,20,-108,-40,-1,22,-12,63
1490985863855,0,8,-122,-12,-96,-57,-18,1,-51
1490985863855,0,54,23,-28,34,-15,-27,-39,-21
1490985863900,1,-102,-41,102,116,41,-22,0,-71
1490985863900,1,66,69,-74,-61,5,-12,45,50
1490985863901,2,60,-49,-43,-25,35,40,-24,21
1490985863901,2,-14,32,-33,-21,-19,7,-14,-40
1490985863902,0,-20,18,-65,-3,6,-24,3,-20
1490985863902,0,52,70,116,83,-23,1,-21,85
1490985863903,1,-94,-28,-128,-103,2,-15,-28,-65
1490985863903,1,-1,-40,58,-56,-20,-6,40,-76
1490985863949,2,-77,44,64,77,8,-1,-44,-19
1490985863949,2,58,-54,-86,-56,-50,4,4,-17
1490985863951,3,39,-15,127,-82,43,15,44,73
1490985863951,3,-19,-49,-101,112,7,-11,-83,-8
1490985863951,1,18,58,92,-72,-20,45,49,127
1490985863951,1,-108,-44,-54,-55,-12,-34,-38,-71
1490985863952,2,74,22,127,88,38,13,-4,-37
1490985863952,2,15,-83,-128,-18,17,23,48,-16
1490985863997,3,14,-39,73,67,6,26,-26,49
1490985863997,3,-48,45,-33,22,-13,10,17,8
1490985863998,0,-37,-21,-121,-93,-74,-48,-38,29
1490985863998,0,77,64,4,44,30,2,58,-70
1490985863999,2,-127,-86,-98,-99,6,-21,-33,29
1490985863999,2,24,88,101,5,7,-19,-18,26
1490985864000,3,-102,-76,-128,58,-12,-14,-30,-49
1490985864000,3,72,127,81,0,-19,30,39,7
1490985864046,0,-78,-128,-71,-41,-45,35,-18,-65
1490985864046,0,57,33,69,41,43,2,-58,35
1490985864047,1,57,82,50,75,26,46,27,-93
1490985864047,1,-42,12,-48,108,35,-5,20,125
1490985864048,2,68,9,-73,-36,-5,15,0,-31
1490985864048,2,-75,-40,76,-128,-45,-19,-6,-32
1490985864049,3,-81,30,23,23,18,-21,3,4
1490985864049,3,43,-20,-11,-87,-26,-30,-9,-71
1490985864096,0,-5,64,74,8,48,-1,11,0
1490985864096,0,-123,-76,-126,-123,-35,-27,-3,93
1490985864097,1,120,-46,8,-41,-32,-9,-28,25
1490985864097,1,-15,37,-39,88,-43,-24,-15,-15
1490985864144,3,-47,67,42,-109,1,-9,5,-50
1490985864144,3,4,-64,-36,87,31,28,34,34
1490985864145,0,61,88,127,127,47,29,31,126
1490985864145,0,-109,-55,-64,12,6,46,-36,27
1490985864147,1,-13,-43,-128,-114,-118,-51,-23,-76
1490985864147,1,103,127,127,54,-1,2,12,-27
1490985864147,2,77,113,48,25,13,49,20,63
1490985864147,2,-71,-76,-50,-49,-30,5,-19,88
1490985864193,0,-82,-108,-75,90,-10,-57,21,-33
1490985864193,0,127,127,125,118,36,-11,-26,-54
1490985864194,1,-128,-102,36,94,40,20,0,0
1490985864194,1,62,58,-75,-120,-60,-35,-34,-79
1490985864195,2,-128,-106,-35,33,12,-4,16,-91
1490985864195,2,87,76,28,-5,12,-30,-3,35
1490985864196,1,127,127,39,-116,0,3,2,115
1490985864196,1,-117,-60,109,95,39,83,36,6
1490985864241,2,99,84,45,95,31,90,-16,25
1490985864241,2,-95,-128,-56,-85,-44,-44,-20,-28
1490985864243,3,107,127,13,-49,-61,-45,30,35
1490985864243,3,-128,-32,18,23,13,-62,-16,-128
1490985864244,2,10,127,127,127,62,6,4,-41
1490985864244,2,-128,-64,-58,-124,-20,17,18,-77
1490985864245,3,39,86,-122,-56,0,-3,-31,-55
1490985864245,3,20,102,102,47,86,8,17,70
1490985864290,0,59,18,-114,-52,17,29,3,78
1490985864290,0,12,-57,-86,-88,-31,-4,-41,11
1490985864291,1,-124,9,32,119,-19,-14,29,-36
1490985864291,1,0,81,5,41,61,18,27,36
1490985864339,3,-30,-86,55,-72,-2,-12,-25,49
1490985864339,3,78,26,-58,62,-53,17,4,6
1490985864340,0,-116,-128,-60,-106,18,-11,19,31
1490985864340,0,-13,92,127,107,33,-1,20,-80
1490985864341,1,26,-79,-62,-12,-50,30,26,6
1490985864341,1,73,53,-93,68,71,7,-63,-50
1490985864342,2,-82,-91,83,-71,-67,-42,-31,-60
1490985864342,2,60,-117,12,-57,-37,-14,32,-74
1490985864436,0,20,62,51,111,63,40,75,2
1490985864436,0,76,95,51,-32,59,12,-11,-17
1490985864438,1,-90,66,40,9,-109,-53,-37,-49
1490985864438,1,-49,-4,-73,-116,36,21,15,-83
1490985864439,2,55,22,-69,-16,-34,-50,-26,57
1490985864439,2,-92,57,120,22,-12,-1,28,2
1490985864440,1,41,14,-36,-22,33,39,-12,-26
1490985864440,1,30,-17,51,-96,-40,-17,-33,47
1490985864485,2,3,18,-121,-49,-51,-22,44,-26
1490985864485,2,-65,16,127,116,64,19,12,53
1490985864486,3,5,-14,-56,-72,24,2,-10,-53
1490985864486,3,19,-21,-65,127,-59,-17,-49,-64
1490985864487,1,75,5,127,127,53,22,42,-23
1490985864487,1,-28,2,-70,-103,-2,-4,28,-32
1490985864582,2,104,4,-3,27,10,-7,-38,-3
1490985864582,2,-23,12,-69,9,-66,-56,-18,-24
1490985864584,3,-94,1,64,-66,20,-33,58,18
1490985864584,3,-6,-6,68,65,18,-107,-60,-4
1490985864585,0,-54,2,11,-59,-6,-72,52,8
1490985864585,0,126,2,121,-3,23,-83,-42,10
1490985864586,3,36,0,26,-44,7,-24,9,19
1490985864586,3,-29,0,23,39,-7,-37,36,-4
1490985864631,0,46,0,72,92,6,-41,8,26
1490985864631,0,13,2,13,29,12,26,-9,22
1490985864633,1,-9,0,-12,-36,-71,-9,-30,-22
1490985864633,1,-26,-3,112,91,82,30,8,9
1490985864635,2,10,-2,-128,-63,-13,37,37,-5
1490985864635,2,-37,0,127,127,-1,-3,-8,-2
1490985864636,1,51,0,94,-50,15,-51,-17,-4
1490985864636,1,-53,0,-57,-14,-26,-29,26,-25
1490985864680,2,-4,0,-63,15,2,-34,-14,-12
1490985864680,2,-11,0,53,24,-70,-40,-25,-2
1490985864681,3,56,0,102,90,9,33,1,-6
1490985864681,3,66,-1,115,125,127,68,13,97
1490985864683,2,-31,-1,127,-83,-73,6,-19,-19
1490985864683,2,30,0,2,59,6,21,33,69
1490985864684,3,-25,0,-41,83,27,3,-16,-16
1490985864684,3,-19,-1,-63,33,33,-16,6,-7
1490985864729,0,22,0,-18,-38,-29,-66,-19,5
1490985864729,0,13,0,17,-124,28,59,48,11
1490985864730,1,9,-1,-55,-80,-80,-49,24,-19
1490985864730,1,-23,-1,-49,-24,-24,-15,-6,-18
1490985864732,3,-69,0,-94,-23,15,-5,4,-10
1490985864732,3,-18,0,90,32,-43,30,76,-23
1490985864732,0,74,0,-68,-80,-16,23,-41,34
1490985864732,0,-58,0,-113,0,-3,-25,8,-48
1490985864777,1,79,0,127,-12,-11,27,0,62
1490985864777,1,-44,0,-48,-35,-35,6,4,-33
1490985864779,2,-7,-1,-49,81,39,5,12,5
1490985864779,2,30,-1,127,-25,-43,25,-5,11
1490985864780,3,-29,0,-93,52,43,-16,9,-4
1490985864780,3,-38,0,-77,-127,-37,38,-4,-12
1490985864781,0,15,0,53,47,18,23,11,-6
1490985864781,0,20,0,-54,2,35,-5,8,-6
1490985864826,1,-89,0,31,59,-7,52,-9,-1
1490985864826,1,-13,0,19,-75,-10,8,38,10
1490985864827,2,56,-1,0,11,4,16,-27,-21
1490985864827,2,28,0,-42,-43,26,7,1,9
1490985864828,0,-22,-1,15,8,-52,40,22,9
1490985864828,0,-35,-1,-111,-79,-43,-10,-3,-7
1490985864829,1,-13,0,92,45,80,45,21,-9
1490985864829,1,34,0,-21,-10,-27,3,-4,-14
1490985864875,2,-12,0,33,16,-11,-1,-23,18
1490985864875,2,-31,0,-31,-27,7,-16,-5,-14
1490985864876,3,-8,0,5,29,-57,-17,-13,-8
1490985864876,3,56,0,24,40,91,2,-37,11
1490985864877,1,-13,0,-25,26,13,-10,6,-5
1490985864877,1,-3,-1,58,17,-76,12,-30,-6
1490985864878,2,60,0,-7,-3,86,-15,9,12
1490985864878,2,-14,0,-1,-8,7,10,-1,5
1490985864925,3,-21,0,-14,-29,13,-18,1,-13
1490985864925,3,13,0,17,-3,-11,-7,-4,16
1490985864927,0,5,0,36,36,-56,16,12,10
1490985864927,0,-5,0,-44,18,84,-12,3,-17
1490985864927,2,-8,2,47,21,10,5,-18,8
1490985864927,2,-45,-9,-49,-39,-47,-6,-10,-24
1490985864928,3,3,-5,-50,16,43,5,2,-12
1490985864928,3,-23,36,85,-22,-6,6,-4,4
1490985864972,0,-33,37,-71,-9,2,-11,19,-23
1490985864972,0,30,39,77,31,-26,-10,33,8
1490985864975,1,28,-14,-66,-7,16,-10,6,17
1490985864975,1,-14,-20,43,10,-19,-11,17,1
1490985864976,3,6,-31,-32,-79,-23,5,21,29
1490985864976,3,46,74,-42,5,27,3,-12,-33
1490985864978,0,-31,-89,-128,-80,-37,-5,16,48
1490985864978,0,-62,-42,102,62,15,-15,25,-52
1490985865021,1,30,19,23,55,15,37,-25,-5
1490985865021,1,-11,-50,-30,-42,-7,0,9,16
1490985865022,2,101,20,1,-28,-15,-23,-20,-7
1490985865022,2,-72,-56,38,-57,3,30,15,14
1490985865022,0,-14,69,-34,-33,-5,-6,-1,-27
1490985865022,0,-51,-38,43,71,-4,-6,-16,-48
1490985865024,1,33,93,48,34,15,16,-7,58
1490985865024,1,33,-6,-5,53,-3,0,0,-2
1490985865070,2,5,-2,-10,40,52,-3,-16,27
1490985865070,2,66,102,82,-79,-60,-19,-54,33
1490985865071,3,-44,-124,-120,34,24,-7,47,-37
1490985865071,3,-45,87,92,25,-22,5,-57,-24
1490985865071,1,77,32,-6,-15,-17,-8,-54,7
1490985865071,1,-66,-36,28,-62,-11,1,24,-7
1490985865074,2,-30,65,-4,49,19,27,2,27
1490985865074,2,43,-67,-48,-12,25,7,53,-33
1490985865119,3,24,91,85,82,5,5,1,27
1490985865119,3,-3,-128,-97,-27,-26,-16,27,-17
1490985865120,0,35,74,77,13,18,22,-25,-13
1490985865120,0,37,-72,-128,-91,-33,-21,-36,-11
1490985865121,1,-42,-30,96,-2,1,-9,76,-58
1490985865121,1,42,38,19,62,3,3,-9,58
1490985865122,2,8,5,-57,-1,31,8,-11,-2
1490985865122,2,81,121,116,90,28,12,-7,23
1490985865167,3,-124,-128,-128,-127,-79,-23,-26,-59
1490985865167,3,-18,56,9,-12,32,-7,25,-9
1490985865169,0,-11,-40,10,0,-27,-9,-30,22
1490985865169,0,-57,94,-31,35,49,14,17,-6
1490985865170,2,50,-82,-49,-20,-18,-7,27,-12
1490985865170,2,-59,-128,-48,-2,-24,-10,17,-11
1490985865171,3,-17,84,42,76,18,-2,-46,17
1490985865171,3,71,-53,48,-22,28,-4,-49,-30
1490985865265,0,-70,-63,89,0,-19,-13,93,-24
1490985865265,0,74,-17,-128,-62,-2,-4,5,31
1490985865266,1,-16,45,79,60,23,24,18,39
1490985865266,1,14,-37,1,53,-5,-6,-21,19
1490985865266,3,37,53,-27,39,10,-13,23,4
1490985865266,3,-43,43,-25,-40,-16,19,24,52
1490985865267,0,12,-5,-12,-54,18,-11,5,-15
1490985865267,0,96,105,-52,70,17,2,4,61
1490985865314,1,68,-84,46,-114,8,4,-49,-53
1490985865314,1,-57,36,-75,83,-10,-15,24,-36
1490985865315,2,68,-66,-29,-5,-15,-3,-26,32
1490985865315,2,-91,-30,80,-46,-7,29,32,-6
1490985865317,0,10,57,83,104,9,-19,24,-41
1490985865317,0,75,93,98,112,18,6,-15,55
1490985865318,1,85,6,-20,-36,-14,-8,-16,-28
1490985865318,1,19,-17,-52,-128,9,-10,-1,25
1490985865362,2,22,91,116,127,7,12,-4,9
1490985865362,2,-55,-24,119,-88,37,32,-23,-60
1490985865364,3,-115,-101,-76,26,-13,8,12,-2
1490985865364,3,67,38,-20,-49,-4,-14,25,-7
1490985865365,2,-83,-107,-119,-39,-18,7,16,-8
1490985865365,2,71,16,-15,-89,8,10,-34,2
1490985865366,3,-60,-15,90,-58,-20,0,19,-60
1490985865366,3,-54,8,-33,79,-32,-16,13,22
1490985865411,0,31,76,-37,-78,-4,-16,-22,-27
1490985865411,0,57,-52,-4,75,-19,-19,8,83
1490985865413,1,-38,20,64,76,51,19,19,-23
1490985865413,1,-6,-9,-54,23,-6,-3,-11,-18
1490985865414,3,28,30,-49,50,8,5,-3,-13
1490985865414,3,-62,-128,-1,-52,-13,1,38,-7
1490985865415,0,-72,18,-32,28,-19,-14,-6,-24
1490985865415,0,-37,-19,-2,-19,-24,-17,1,-20
1490985865460,1,80,113,-28,-20,-5,-35,-8,-52
1490985865460,1,-23,-64,-31,44,-16,10,-13,45
1490985865462,2,22,5,72,-45,29,-15,-10,2
1490985865462,2,-40,-3,65,95,8,-26,-2,12
1490985865463,3,28,38,25,-27,-15,-42,-11,8
1490985865463,3,-60,-1,-59,-54,-11,-22,13,-5
1490985865463,0,93,-38,-96,-86,-39,-62,-21,12
1490985865463,0,-35,-36,-4,-16,-8,-33,-10,-11
1490985865509,1,8,21,88,120,10,14,58,68
1490985865509,1,53,76,-86,-29,7,11,-36,-25
1490985865510,2,-92,-31,127,0,-7,22,10,10
1490985865510,2,-19,65,-20,95,35,15,1,-22
1490985865511,0,-24,-28,2,36,16,51,23,21
1490985865511,0,41,81,21,-75,-34,-17,-10,14
1490985865512,1,10,-33,-6,69,33,38,5,2
1490985865512,1,-88,-35,40,-12,2,15,13,17
1490985865557,2,-23,-37,-63,-35,-23,-6,-17,-13
1490985865557,2,38,49,3,-8,-12,12,30,-28
1490985865606,3,86,9,-32,-3,26,2,-20,1
1490985865606,3,-49,-9,27,11,-1,7,-17,-11
1490985865608,1,-81,-76,-101,-50,-8,13,4,4
1490985865608,1,117,26,17,-37,-19,-11,-7,-13
1490985865609,2,-77,-30,-13,2,3,2,14,-1
1490985865609,2,-43,-16,-27,12,-6,13,12,11
1490985865610,3,5,-32,0,15,-10,-20,-25,-24
1490985865610,3,-15,101,119,42,-1,2,-17,-8
1490985865655,0,9,-38,-55,-81,-19,-4,7,0
1490985865655,0,-57,-12,-18,12,21,6,7,-13
1490985865657,2,-36,18,-10,28,19,-6,-37,-11
1490985865657,2,45,-15,32,-22,-2,13,-2,-22
1490985865658,3,8,-26,-84,-30,-33,3,-16,7
1490985865658,3,-35,-21,-9,-21,12,-8,0,3
1490985865659,3,-35,19,29,17,10,2,-18,-8
1490985865659,3,-54,7,-8,11,-5,6,-7,-11
1490985865705,0,29,8,-3,-16,6,19,-15,-14
1490985865705,0,-18,-23,-20,11,-4,-4,41,18
1490985865706,1,26,20,17,10,-15,-10,-22,-13
1490985865706,1,-61,-48,-31,-49,-13,12,-3,11
1490985865707,0,5,-4,-3,-1,-9,9,-18,2
1490985865707,0,-33,41,12,11,1,2,-14,-33
1490985865708,1,-28,1,9,6,16,9,-7,4
1490985865708,1,25,-16,22,3,-17,-18,-11,-3
1490985865801,2,46,-39,-21,12,23,7,-28,15
1490985865801,2,-47,-7,2,-19,-16,-25,44,-28
1490985865802,3,-39,-39,-31,-33,-5,7,-13,-4
1490985865802,3,15,-3,29,26,8,8,1,-15
1490985865803,1,63,8,18,-12,-6,-3,13,13
1490985865803,1,-50,-7,-25,-10,1,-15,19,-18
1490985865803,2,-9,30,8,-20,-2,9,-3,3
1490985865803,2,50,43,-17,22,1,28,-36,7
1490985865850,3,-55,-44,0,-16,8,-2,42,-12
1490985865850,3,26,-26,-1,10,8,16,29,11
1490985865899,0,-39,-17,-5,2,8,-2,-27,-8
1490985865899,0,-16,32,32,4,5,-9,-2,15
1490985865900,2,1,-21,-49,-65,-22,-23,-12,-11
1490985865900,2,68,-17,-21,-12,-16,4,-9,18
1490985865947,2,93,32,30,-8,-5,24,-28,-7
1490985865947,2,13,-59,-46,-61,-6,-31,45,-7
1490985865996,3,-36,-83,6,30,8,33,-50,0
1490985865996,3,52,39,8,16,4,-1,19,22
1490985866000,0,-20,18,11,3,-10,-27,17,-8
1490985866000,0,-2,25,-18,26,8,-11,-28,-18
1490985866045,3,19,-31,4,6,-12,12,-6,-18
1490985866045,3,20,39,-10,21,14,1,-2,22
1490985866046,0,43,47,21,64,8,-22,34,10
1490985866046,0,5,-59,-10,-36,-11,6,-51,-7
1490985866047,0,-37,76,-20,-27,16,-25,29,43
1490985866047,0,-51,-38,15,-15,-3,-22,16,-60
1490985866048,1,-128,-94,63,1,-17,-46,21,-1
1490985866048,1,119,81,-57,-49,13,31,-26,1
1490985866094,2,-100,-41,122,111,3,38,-61,28
1490985866094,2,73,125,-62,-61,41,7,-25,42
1490985866095,3,75,-106,-128,-64,-15,28,36,28
1490985866095,3,-49,6,117,24,10,-23,66,7
1490985866096,0,87,65,-69,59,-1,8,27,85
1490985866096,0,-14,-60,118,33,-28,4,-62,-81
1490985866097,3,-11,127,99,-45,-7,-50,34,-88
1490985866097,3,-111,-120,-36,87,23,-14,0,-20
1490985866142,0,66,127,33,-16,57,78,-23,32
1490985866142,0,-100,-128,84,-77,-13,-14,30,-3
1490985866144,1,-26,-18,-64,76,-41,-21,-7,-89
1490985866144,1,75,-97,-91,-83,65,30,-6,12
1490985866146,0,-49,31,-24,12,55,25,68,28
1490985866146,0,-52,-16,-75,-80,-12,23,12,7
1490985866147,1,29,40,-72,104,27,30,-45,-32
1490985866147,1,-14,82,61,20,-45,-30,29,-22
1490985866191,2,39,-50,41,59,27,-72,-33,107
1490985866191,2,-44,55,-10,-34,-10,-1,49,60
1490985866193,3,54,-19,-40,36,20,21,-12,-121
1490985866193,3,-89,-44,62,-128,-48,-68,-18,-34
1490985866194,0,127,55,95,121,16,50,6,105
1490985866194,0,18,-2,-23,-41,19,-56,-31,7
1490985866195,1,-88,-26,67,59,36,33,20,-7
1490985866195,1,-73,-33,-120,-78,0,20,13,-84
1490985866288,2,-46,-50,67,-17,-34,-14,0,2
1490985866288,2,-1,21,-35,36,11,-12,2,0
1490985866289,3,51,25,-101,-128,-70,-45,-29,56
1490985866289,3,6,105,14,127,68,-25,23,83
1490985866290,1,-74,-47,90,-78,-26,-39,-35,-35
1490985866290,1,-58,-112,-61,61,-45,13,-15,-47
1490985866291,2,19,-77,-21,12,-16,-66,34,58
1490985866291,2,52,-7,-27,38,-38,-19,29,-76
1490985866337,3,-15,-92,71,-84,37,5,-69,54
1490985866337,3,87,62,78,-37,54,26,28,47
1490985866338,0,-8,-18,-100,-7,-54,29,2,39
1490985866338,0,-108,-79,103,-23,-18,-12,6,42
1490985866339,2,-70,-18,-72,-127,-15,24,-2,-63
1490985866339,2,-67,8,7,-17,0,-24,49,48
1490985866340,3,-92,54,56,-18,10,2,89,50
1490985866340,3,55,85,-42,44,67,55,-4,86
1490985866386,0,-47,-62,-94,-107,-30,102,-4,26
1490985866386,0,94,63,55,127,54,-3,-26,73
1490985866387,1,18,45,63,109,53,13,0,1
1490985866387,1,44,-54,-104,-128,-42,10,1,-21
1490985866388,0,127,28,-89,-61,-58,-93,39,-54
1490985866388,0,-61,-42,89,74,52,54,13,-39
1490985866388,1,-75,15,-35,77,-16,-25,12,-58
1490985866388,1,48,92,99,102,101,92,-46,65
1490985866435,2,-9,-77,-74,-49,-86,-16,-65,-77
1490985866435,2,-98,-62,109,11,52,-18,38,54
1490985866436,3,-22,31,-1,31,5,8,-8,-58
1490985866436,3,-18,46,71,-34,-51,-32,-1,9
1490985866436,1,-95,-40,63,-91,-48,-5,3,-46
1490985866436,1,-32,-15,41,95,-13,-63,62,-27
1490985866437,2,-18,83,127,1,1,41,-44,92
1490985866437,2,-127,-72,-51,-103,-17,12,6,-11
1490985866484,3,117,88,9,16,-31,-2,-1,78
1490985866484,3,34,-122,42,-96,-24,-20,-25,-25
1490985866485,0,-101,-40,17,81,5,-20,39,61
1490985866485,0,127,47,-44,10,62,55,-66,-48
1490985866485,2,65,35,56,-61,-36,13,74,76
1490985866485,2,-77,-39,18,40,-50,-62,-37,-40
1490985866486,3,-15,39,-52,45,115,30,-14,27
1490985866486,3,-126,-103,-51,17,-69,16,81,17
1490985866532,0,20,110,-41,23,28,-13,34,-79
1490985866532,0,97,127,-30,50,-8,-8,5,97
1490985866534,1,-98,-128,-98,-62,-25,23,-30,-128
1490985866534,1,13,-87,-103,10,-46,-48,42,83
1490985866535,2,-64,33,26,127,127,50,-29,0
1490985866535,2,78,-15,-44,-75,23,24,21,-27
1490985866537,3,-38,-102,-87,-109,-95,-71,-66,7
1490985866537,3,70,118,4,40,47,-22,101,-68
1490985866582,0,-12,-96,113,127,71,6,-19,-33
1490985866582,0,49,32,-67,-42,-32,-31,2,34
1490985866584,1,22,-65,-39,-99,111,84,-1,17
1490985866584,1,-79,82,36,-37,-89,-59,-62,-61
1490985866585,3,-45,-109,-87,-99,-47,-53,17,-30
1490985866585,3,58,-58,-123,-128,-47,26,-22,26
1490985866586,0,16,95,69,45,-37,-21,0,-76
1490985866586,0,-22,-47,-31,54,44,11,8,60
1490985866630,1,89,127,127,127,23,32,49,37
1490985866630,1,-18,-70,-128,-124,-48,-17,-54,4
1490985866632,2,-21,-22,-24,-39,-4,-19,22,-7
1490985866632,2,-24,-93,21,74,3,33,-8,-53
1490985866633,0,-36,-78,-128,-97,-71,-26,41,-4
1490985866633,0,10,78,98,63,-43,-28,32,-30
1490985866635,1,-32,75,-74,44,69,5,-58,-20
1490985866635,1,-17,-79,-128,-128,-88,-21,32,5
1490985866679,2,-26,106,67,83,58,-4,-51,16
1490985866679,2,52,78,68,94,-5,-13,-37,-71
1490985866680,3,-4,11,8,-45,-24,9,9,13
1490985866680,3,-68,27,-64,-37,-33,-50,0,-16
1490985866680,1,32,85,127,42,7,38,-15,32
1490985866680,1,-36,-103,-123,-124,-33,-16,4,15
1490985866728,2,0,-55,-33,-69,-117,-34,21,-47
1490985866728,2,-50,55,110,54,99,44,18,10
1490985866729,3,78,-12,-113,-47,-13,28,-6,11
1490985866729,3,-44,0,13,-18,-25,-53,-58,12
1490985866730,0,-15,-18,14,-10,18,-66,-4,13
1490985866730,0,5,31,64,-7,-85,-3,51,1
1490985866731,2,-70,-102,-120,-62,-30,23,-12,-32
1490985866731,2,-110,-28,7,-20,13,-3,25,29
1490985866776,3,43,21,127,103,-26,25,17,40
1490985866776,3,17,127,35,115,-6,7,-87,-37
1490985866777,0,13,-10,36,-71,34,-9,-4,27
1490985866777,0,31,18,-36,17,-28,14,14,-20
1490985866778,1,-19,-125,74,0,31,5,80,-13
1490985866778,1,-26,-72,-67,-99,-81,-23,-50,7
1490985866779,3,-8,-77,-113,-78,60,-35,33,-34
1490985866779,3,-82,39,127,56,-17,55,36,41
1490985866825,0,-66,-45,-128,-111,-86,-29,-10,-7
1490985866825,0,57,-24,-91,-19,-23,-31,-11,-3
1490985866827,1,103,6,85,70,25,-25,-41,-44
1490985866827,1,127,24,-21,0,59,45,13,41
1490985866828,0,31,67,32,43,38,5,-19,10
1490985866828,0,-19,-17,-84,-53,5,11,9,-16
1490985866829,1,-50,-11,-44,-68,-59,2,22,1
1490985866829,1,-16,-9,90,50,80,27,-24,10
1490985866874,2,-66,-74,-59,11,14,40,38,-8
1490985866874,2,-25,-36,-34,39,42,-89,-107,-10
1490985866875,3,48,-29,34,-74,-70,-6,44,20
1490985866875,3,-32,3,0,18,-57,-65,-27,-23
1490985866875,0,-32,-22,-17,3,37,49,8,-22
1490985866875,0,3,-1,33,-5,102,-18,14,11
1490985866876,1,-13,19,-14,33,-45,-33,-7,7
1490985866876,1,66,30,18,-5,-24,-40,-76,-14
1490985866923,2,4,20,34,45,11,-42,5,6
1490985866923,2,-15,20,-2,-52,-69,-13,-47,-30
1490985866925,3,5,1,-44,-46,54,14,-71,13
1490985866925,3,6,-6,23,37,-17,36,27,-6
1490985866926,1,-21,-7,66,-20,-39,-3,65,0
1490985866926,1,65,17,-27,-30,59,15,111,-5
1490985866928,2,-21,-49,15,39,-46,-1,99,3
1490985866928,2,-46,5,8,20,61,33,104,-6
1490985866972,3,33,15,6,56,-19,18,-28,-3
1490985866972,3,-66,-47,-34,-43,-24,8,-9,-17
1490985866973,0,60,31,-15,-19,-8,-11,-41,13
1490985866973,0,20,3,41,39,51,8,-18,4
1490985866974,2,8,-6,3,25,30,15,25,7
1490985866974,2,-31,-54,-21,-10,-33,-39,33,-13
1490985866975,3,20,6,-15,-10,-19,33,55,-2
1490985866975,3,26,19,39,27,5,21,-22,17
1490985867020,0,-9,42,5,-3,-48,-49,-25,-12
1490985867020,0,74,-33,-27,-21,1,29,-43,-16
1490985867022,1,-90,-26,17,74,32,-4,-20,16
1490985867022,1,6,-22,-16,-22,-48,-20,-9,-21
1490985867023,3,46,59,-11,32,-16,-10,-8,-1
1490985867023,3,35,45,28,25,9,12,-5,48
1490985867069,0,-25,-51,34,17,12,16,-14,3
1490985867069,0,-29,-28,30,-23,-15,-29,-14,-14
1490985867118,1,8,-2,-16,-47,46,38,20,-5
1490985867118,1,-33,-5,-46,28,3,-37,50,0
1490985867119,2,38,26,40,4,-18,14,-34,3
1490985867119,2,7,-12,-33,-61,0,14,22,24
1490985867120,0,-2,-51,22,30,10,11,5,-23
1490985867120,0,61,76,-38,93,20,20,-11,55
1490985867121,1,-61,-16,5,-92,-41,-34,-2,-33
1490985867121,1,47,-3,-39,0,-8,17,9,-15
1490985867166,2,-48,6,37,82,21,-1,-22,-7
1490985867166,2,-59,17,18,-70,-19,-13,47,-33
1490985867215,3,70,20,-24,-4,10,-1,-27,31
1490985867215,3,-1,-24,37,1,-16,-15,-15,-3
1490985867217,1,-57,11,3,-10,-2,-15,-8,-22
1490985867217,1,54,-67,20,12,14,-6,-5,40
1490985867218,2,42,39,-42,-114,-33,-8,-15,-53
1490985867218,2,-62,-7,23,86,7,2,28,45
1490985867219,3,-23,11,-18,-11,-6,-12,-10,-12
1490985867219,3,-10,78,-94,17,14,4,1,13
1490985867264,0,-17,-128,-22,-40,-15,-20,51,-43
1490985867264,0,57,127,126,-27,-3,5,-56,22
1490985867313,3,-43,82,81,22,-12,-2,13,19
1490985867313,3,-23,90,47,43,5,-2,48,-29
1490985867315,0,60,100,-90,11,16,25,-58,25
1490985867315,0,-74,4,88,35,-13,-10,11,-14
1490985867316,3,29,30,66,-44,19,8,-32,-6
1490985867316,3,-58,-128,24,40,-27,-4,35,2
1490985867318,0,73,47,-128,-31,5,-16,-41,49
1490985867318,0,-15,-75,87,4,-13,17,-38,-47
1490985867362,1,-53,30,-43,39,23,-3,28,-92
1490985867362,1,-71,-22,-89,-79,-25,6,-8,31
1490985867363,0,-8,-84,-128,-7,-17,-9,63,57
1490985867363,0,-74,106,41,-24,-16,-20,-29,6
1490985867365,1,87,106,72,62,22,0,-42,-53
1490985867365,1,17,13,-110,-26,19,24,4,74
1490985867366,2,-126,-78,-20,-67,-54,-30,58,-87
1490985867366,2,21,100,61,80,9,6,-8,56
1490985867410,3,11,41,72,5,-2,-7,-10,2
1490985867410,3,88,58,-30,125,34,26,0,5
1490985867412,0,31,77,102,-43,11,5,-21,58
1490985867412,0,127,12,-128,-112,-49,-19,-49,-8
1490985867413,2,66,-24,-70,-74,-22,-8,19,-78
1490985867413,2,-52,-44,11,22,23,0,8,7
1490985867414,3,52,119,2,43,16,14,19,26
1490985867414,3,-25,96,51,-60,-15,-24,-35,-35
1490985867462,0,-30,-91,-87,127,25,24,-6,-25
1490985867462,0,44,11,-3,-127,-26,0,23,22
1490985867463,1,-2,-48,-45,-59,-30,-11,13,-56
1490985867463,1,-98,-50,127,75,16,-17,17,-13
1490985867464,3,14,98,-80,-79,-13,20,7,45
1490985867464,3,25,61,47,-22,-17,-8,-25,-32
1490985867465,0,-53,-87,-6,-5,-1,-13,84,110
1490985867465,0,-11,24,88,74,-24,12,7,-39
1490985867508,1,101,5,-8,39,90,19,-18,34
1490985867508,1,41,39,-54,-90,-14,-14,-44,-25
1490985867509,2,-93,-17,109,10,21,8,18,-18
1490985867509,2,77,-29,49,101,2,-14,-26,8
1490985867510,0,5,59,-64,-69,-19,-22,3,22
1490985867510,0,-49,11,-1,-67,-11,7,15,15
1490985867511,1,63,37,-4,-4,-31,-35,-30,-46
1490985867511,1,-56,-128,72,67,35,12,56,36
1490985867556,2,-44,44,47,-27,-7,14,-19,-16
1490985867556,2,-114,44,35,11,11,-26,-28,32
1490985867557,3,29,-69,-19,73,28,16,-18,-39
1490985867557,3,53,-9,-70,-41,-24,-1,39,87
1490985867558,1,22,32,-83,-109,-14,12,-63,22
1490985867558,1,13,-52,-14,-62,-27,-17,46,-46
1490985867558,2,-42,4,-72,47,-9,9,-24,-10
1490985867558,2,-6,-55,49,29,29,-10,0,-60
1490985867605,3,-83,15,17,9,8,-20,-16,20
1490985867605,3,127,37,32,-27,-39,-33,-17,27
1490985867606,0,-46,70,80,54,43,-4,12,-3
1490985867606,0,-86,-11,-36,15,-4,-8,25,-28
1490985867606,1,-58,-73,-113,-53,-16,20,28,31
1490985867606,1,-19,-25,39,-57,-11,-10,-12,-6
1490985867607,2,127,45,71,7,-34,-1,-15,-3
1490985867607,2,-98,-22,-13,45,41,37,6,-7
1490985867655,3,46,-67,-48,-12,-16,-5,16,-14
1490985867655,3,-2,5,-6,-2,5,24,-9,-14
1490985867656,0,57,-16,-52,-42,-15,1,-58,0
1490985867656,0,53,-10,59,50,-8,26,99,10
1490985867657,2,-17,-44,82,-34,-14,-6,1,-14
1490985867657,2,12,10,-10,30,12,30,-14,3
1490985867657,3,-10,6,105,26,3,6,14,17
1490985867657,3,-34,-39,-80,30,48,15,-10,-9
1490985867703,0,-47,-88,-128,-63,-30,-9,5,12
1490985867703,0,127,39,59,-11,-13,-6,-29,-10
1490985867705,1,-30,5,72,42,-5,-5,30,26
1490985867705,1,-15,-26,-61,-41,-16,-9,-28,-12
1490985867706,3,81,52,22,29,2,-6,17,11
1490985867706,3,-81,-28,37,23,-5,-24,-19,-25
1490985867707,0,-1,12,-12,6,4,3,-12,0
1490985867707,0,15,50,-4,-39,-16,-12,-30,-10
1490985867801,1,43,-2,9,19,26,0,15,16
1490985867801,1,-78,-45,-14,-5,-7,-14,-3,5
1490985867802,2,-31,34,-5,13,6,13,58,-8
1490985867802,2,10,-60,-5,-44,-10,3,-6,8
1490985867804,0,-76,-42,22,40,-10,6,-31,10
1490985867804,0,41,30,-9,14,3,-11,-16,-37
1490985867805,1,48,-5,-63,-59,-18,0,-6,-11
1490985867805,1,-78,-38,23,2,20,0,49,47
1490985867856,2,37,59,31,38,-3,-19,8,-16
1490985867856,2,-25,56,-19,-28,-8,6,-18,19
1490985867860,3,28,-37,-24,9,-10,-30,-17,-18
1490985867860,3,-32,29,40,14,4,5,-43,-30
1490985867862,1,-45,-17,-8,14,13,1,10,4
1490985867862,1,55,-22,22,32,1,26,-25,-14
1490985867863,2,47,13,12,18,-9,-22,-6,-9
1490985867863,2,-32,-24,9,-15,-6,18,10,13
1490985867898,3,14,39,-8,18,13,-12,-1,-23
1490985867898,3,-75,-16,17,-9,-6,-4,18,31
1490985867899,0,51,31,7,-14,7,21,-8,1
1490985867899,0,-38,-80,-52,20,1,7,-13,-19
1490985867946,3,-56,-44,-3,33,16,13,-16,6
1490985867946,3,100,45,2,-23,-9,-4,10,-1
1490985867947,0,-84,-10,29,26,10,-27,11,-10
1490985867947,0,65,48,69,60,20,43,-13,-18
1490985867949,1,-46,-56,-37,-20,-10,-12,-31,15
1490985867949,1,-70,-76,-58,-59,-19,15,14,-23
1490985867949,2,40,29,-39,-55,-12,-7,16,10
1490985867949,2,22,-52,-17,33,11,-14,25,-2
1490985868044,3,56,95,84,33,2,-10,27,8
1490985868044,3,69,-2,-65,-3,-6,4,-20,37
1490985868141,0,-30,-35,-8,-68,-17,5,-39,-50
1490985868141,0,-30,-18,5,-5,1,-23,47,-4
1490985868143,1,2,-34,34,62,19,18,-35,8
1490985868143,1,95,6,-7,-4,-16,16,3,-53
1490985868144,0,6,-20,76,71,-4,-10,-30,-24
1490985868144,0,-10,14,-30,-67,-9,17,-30,-36
1490985868145,1,-19,-45,-58,-2,-11,-12,33,36
1490985868145,1,-53,67,45,14,28,19,-68,0
1490985868190,2,-59,-35,-31,-9,-14,-14,23,-41
1490985868190,2,37,12,27,-34,-4,-23,-9,77
1490985868192,1,4,22,-21,-66,-7,-8,-29,11
1490985868192,1,-1,-16,60,14,-21,-17,-9,-17
1490985868193,2,91,1,-128,-32,15,-2,-11,100
1490985868193,2,61,-5,68,-37,-5,-10,12,-11
1490985868194,0,-65,-128,-15,9,13,4,34,85
1490985868194,0,34,0,-42,-54,-47,-20,-15,-105
1490985868239,1,12,80,62,-38,-8,-18,-49,31
1490985868239,1,20,-39,-29,55,-20,-41,9,-16
1490985868240,2,92,57,127,127,54,7,-61,110
1490985868240,2,-24,15,-128,-94,-2,48,23,31
1490985868240,1,94,-33,-64,-128,-55,14,-23,-20
1490985868240,1,-72,-20,67,57,30,-56,39,-33
1490985868241,2,99,-25,-128,-101,26,55,-25,-70
1490985868241,2,-119,126,115,52,-17,-24,8,12
1490985868287,3,57,4,77,10,11,1,35,5
1490985868287,3,-90,-13,-23,-128,-37,-4,-18,-76
1490985868288,0,113,70,-51,-6,-2,-63,-13,43
1490985868288,0,-80,-128,37,113,2,-28,7,-59
1490985868289,1,89,76,-25,26,64,59,-33,52
1490985868289,1,-45,-16,15,-43,-29,-21,74,-72
1490985868290,2,46,-53,18,48,-62,-41,-41,-62
1490985868290,2,47,-14,-128,-55,3,29,-65,-17
1490985868336,3,64,88,127,-22,-10,-115,19,1
1490985868336,3,-20,-35,110,127,80,71,6,52
1490985868338,0,-56,-19,-127,-116,-66,4,-20,-90
1490985868338,0,14,-75,127,-128,-69,-53,113,43
1490985868338,2,26,59,-18,127,6,-1,-85,-47
1490985868338,2,-64,-66,113,-101,-27,3,40,-37
1490985868339,3,-63,31,-8,70,-20,-8,-18,71
1490985868339,3,-23,-107,-117,-71,-21,13,-27,-102
1490985868385,0,-128,-63,-18,-61,-26,-35,22,56
1490985868385,0,127,111,30,94,8,-27,25,105
1490985868386,1,-93,-128,84,69,46,62,-17,41
1490985868386,1,24,64,-125,-82,-106,-31,-9,15
1490985868387,3,-32,94,76,72,31,32,102,-24
1490985868387,3,105,4,-93,-58,-36,4,-103,13
1490985868388,0,-46,-93,127,-67,24,3,6,-37
1490985868388,0,-128,-19,-91,-57,-49,-4,63,-36
1490985868434,1,113,81,-107,-18,-51,-72,-15,-48
1490985868434,1,-91,-37,-45,-43,46,80,24,82
1490985868435,2,127,16,-84,-86,-52,-31,0,43
1490985868435,2,-7,56,-2,92,106,73,-31,-47
1490985868436,0,-128,-39,-2,127,26,-38,24,-38
1490985868436,0,-3,-34,65,-49,-31,29,56,43
1490985868437,1,89,82,42,96,69,50,52,-15
1490985868437,1,57,110,82,-9,-72,17,-75,89
1490985868482,2,127,73,-109,-80,97,123,69,28
1490985868482,2,-96,-75,62,-72,-59,32,-58,-69
1490985868483,3,31,41,-7,-47,-66,-6,80,-78
1490985868483,3,75,43,-37,10,82,-1,-61,-15
1490985868485,1,-36,-56,-109,-125,-1,14,-26,60
1490985868485,1,-28,102,43,76,-52,-70,71,-93
1490985868486,2,127,76,-10,83,127,-2,-43,78
1490985868486,2,-102,-110,-70,-118,-66,-57,-44,80
1490985868531,3,50,106,109,63,0,-25,-21,-117
1490985868531,3,22,19,70,33,12,0,-33,76
1490985868580,0,-121,-66,-91,-87,-96,-13,13,-112
1490985868580,0,127,127,116,100,1,-6,-38,22
1490985868583,2,21,67,93,76,-97,-19,5,92
1490985868583,2,-101,-115,-114,-47,78,47,-65,-100
1490985868588,3,82,71,-69,-10,-24,-7,32,52
1490985868588,3,27,21,32,42,71,-12,15,77
1490985868590,0,52,35,74,15,-35,5,-34,1
1490985868590,0,6,2,40,97,-13,-41,-47,-64
1490985868629,1,14,-127,-9,4,-18,16,33,60
1490985868629,1,-128,-116,-128,-128,-100,-8,49,-111
1490985868631,3,-114,-85,-89,36,-95,-73,40,25
1490985868631,3,75,55,127,108,43,10,-30,8
1490985868632,0,-128,-128,-83,-128,27,-24,7,-111
1490985868632,0,127,84,-52,127,66,-41,67,78
1490985868633,0,127,72,118,-128,76,1,-99,-8
1490985868633,0,-128,-49,-116,-52,-96,-35,32,30
1490985868678,1,-91,97,127,11,-70,-26,-38,-77
1490985868678,1,108,42,-128,-101,-32,-20,13,-19
1490985868681,2,71,79,105,127,27,-54,-39,9
1490985868681,2,-20,89,-39,-23,-43,54,-5,115
1490985868683,0,-74,-59,-69,-34,-26,-43,50,13
1490985868683,0,35,61,66,59,55,-13,-7,62
1490985868726,1,-19,85,73,95,-23,-5,-68,-21
1490985868726,1,-86,-5,-47,-61,-12,-15,15,-10
1490985868727,2,-18,-89,-35,72,-73,-5,67,9
1490985868727,2,21,30,72,16,30,4,-64,-41
1490985868775,3,41,75,-43,53,13,34,102,84
1490985868775,3,45,-79,66,-35,51,16,-128,-7
1490985868777,1,-7,-97,-22,-96,-104,-80,-25,6
1490985868777,1,64,91,-50,55,67,10,-2,-29
1490985868778,2,31,-86,37,55,-95,-40,27,20
1490985868778,2,61,127,127,127,124,27,-86,-3
1490985868779,3,-15,-80,-92,-124,-49,61,-11,-21
1490985868779,3,-25,-95,-7,106,-83,8,72,36
1490985868824,2,44,24,-84,90,59,7,-30,-1
1490985868824,2,-74,-55,-31,12,-30,-20,3,-31
1490985868825,3,56,-36,-114,-43,-43,-14,14,-18
1490985868825,3,-56,25,107,127,25,-78,60,56
1490985868836,0,-37,-70,35,-99,32,64,-52,-24
1490985868836,0,26,-128,-95,-55,3,-5,52,5
1490985868837,3,38,18,-21,20,67,24,36,-7
1490985868837,3,12,50,38,16,-40,11,-64,15
1490985868873,0,0,20,-72,-115,121,54,39,-19
1490985868873,0,-8,24,67,95,-2,59,18,19
1490985868874,1,-13,33,-3,-2,-6,-37,11,-14
1490985868874,1,-3,65,61,30,4,2,-75,-1
1490985868875,0,21,6,6,20,-27,-5,-76,-15
1490985868875,0,-4,-2,-11,-46,-3,-36,-8,4
1490985868876,1,-5,2,8,48,-9,32,46,19
1490985868876,1,39,3,-54,69,-22,-21,-116,-19
1490985868921,2,-64,-19,73,-108,-80,-64,11,-10
1490985868921,2,22,-33,-83,14,-17,27,0,22
1490985868922,3,27,13,50,12,18,-20,-23,7
1490985868922,3,-38,-6,6,-11,-28,-13,5,-11
1490985868924,1,16,7,-1,-18,-12,-27,-9,6
1490985868924,1,54,5,26,-9,-30,52,13,36
1490985868924,2,-42,9,-34,-46,48,-32,-64,-21
1490985868924,2,-15,-25,-53,-54,-19,20,62,-26
1490985868971,3,28,32,5,20,-31,-11,-65,27
1490985868971,3,19,-12,14,4,88,24,57,-9
1490985868972,0,-37,-18,-23,20,-52,-11,4,-26
1490985868972,0,43,-3,1,13,-22,-41,-23,8
1490985868973,2,41,36,-5,-4,-45,-5,14,36
1490985868973,2,9,54,1,-12,26,10,-35,-7
1490985868974,3,-3,-70,-6,44,-49,-43,2,-7
1490985868974,3,13,22,31,-5,33,56,-39,26
1490985869019,0,26,18,-37,0,-17,-10,21,1
1490985869019,0,-48,-11,5,-5,-27,-20,31,-14
1490985869021,1,-18,-11,8,-8,-11,-23,3,-8
1490985869021,1,10,-3,-11,14,13,17,59,-37
1490985869022,2,-8,1,-11,-33,-21,-8,-3,39
1490985869022,2,22,-12,13,37,-20,56,72,11
1490985869023,3,-22,-2,-2,12,68,5,16,-10
1490985869023,3,3,-21,-15,-26,-29,-35,10,12
1490985869068,0,24,19,55,74,-8,29,-52,-12
1490985869068,0,-8,11,-27,-36,11,3,14,4
1490985869069,1,-37,-18,-37,-25,-22,-19,33,-10
1490985869069,1,14,28,5,10,-34,9,-9,10
1490985869070,3,-23,29,6,-13,-5,30,43,22
1490985869070,3,14,-39,-11,-6,3,-26,12,6
1490985869071,0,-58,-18,-37,-38,55,48,27,-18
1490985869071,0,18,-25,-22,-17,-19,-26,28,-10
1490985869116,1,19,13,11,30,2,18,-21,12
1490985869116,1,-6,-1,12,-4,-48,-25,-1,-22
1490985869117,2,28,-13,-38,0,2,1,45,-3
1490985869117,2,-31,20,43,-25,-14,28,-27,-40
1490985869118,0,16,-26,-25,-56,-22,-24,30,5
1490985869118,0,-27,-14,-54,-42,4,5,16,-26
1490985869119,1,-11,65,69,40,-11,-15,-19,8
1490985869119,1,12,-39,-45,-14,-13,14,-2,33
1490985869214,2,19,94,0,-5,10,22,-30,-3
1490985869214,2,14,-70,-18,39,-12,-17,50,-18
1490985869262,3,-29,13,32,-62,2,-8,-28,-37
1490985869262,3,7,-21,-7,26,-8,-1,-26,-6
1490985869264,1,15,22,2,56,46,24,14,4
1490985869264,1,33,-46,15,-9,11,0,33,-19
1490985869264,2,20,-38,-80,-77,-59,-25,4,0
1490985869264,2,-46,75,124,127,75,-4,-23,30
1490985869266,3,36,-51,-90,-58,-17,7,-24,-21
1490985869266,3,-58,10,-21,-56,-23,-10,13,-5
1490985869311,0,8,11,84,126,28,18,-40,17
1490985869311,0,7,1,-60,-17,20,-19,7,-6
1490985869312,2,-12,-27,-121,-18,-19,-3,23,-6
1490985869312,2,28,-4,122,65,-5,-2,-30,48
1490985869361,3,-32,-71,-31,-60,-41,-4,-2,16
1490985869361,3,16,103,16,115,22,-2,-10,16
1490985869363,0,50,29,-50,-38,-11,-12,48,24
1490985869363,0,4,-21,-59,44,13,11,-31,21
1490985869364,1,78,110,105,74,16,-11,-52,17
1490985869364,1,-111,-40,-122,-56,-29,-4,-24,-32
1490985869366,2,40,-55,51,10,39,7,4,22
1490985869366,2,13,5,-26,55,13,5,28,5
1490985869409,0,36,61,105,96,26,3,8,-36
1490985869409,0,110,81,-18,-45,-15,-9,-44,30
1490985869410,1,21,-26,-25,38,23,3,-10,-13
1490985869410,1,-22,70,114,83,21,-1,87,26
1490985869412,1,-10,-64,55,23,-6,-6,24,19
1490985869412,1,42,-46,-69,-27,-13,-9,-20,21
1490985869413,2,12,50,63,62,4,0,-1,-32
1490985869413,2,-50,35,72,66,43,3,-52,0
1490985869458,3,89,77,-128,-109,16,-1,-2,-13
1490985869458,3,-55,-68,-87,-19,-60,-24,-33,-8
1490985869459,0,-76,-1,111,116,12,25,42,-7
1490985869459,0,52,-18,39,55,5,-1,-20,-32
1490985869460,2,-25,77,31,46,25,-2,-68,53
1490985869460,2,-9,33,-128,-95,-11,14,10,2
1490985869461,3,-27,37,20,-19,15,11,8,-11
1490985869461,3,98,-32,-78,-83,-3,7,44,0
1490985869506,0,-128,-5,79,67,19,-5,-22,-43
1490985869506,0,-32,35,0,-77,-13,-21,-7,0
1490985869507,1,61,-19,-13,43,7,11,-38,-3
1490985869507,1,-56,-128,12,-73,-24,-17,44,23
1490985869508,3,-26,-74,-18,1,-14,9,-32,-6
1490985869508,3,4,15,-62,14,8,-7,-20,-10
1490985869509,0,-68,-126,-29,-39,-16,29,39,-19
1490985869509,0,74,68,47,39,-7,-14,15,16
1490985869555,1,-108,-54,-26,-57,-33,-20,4,-11
1490985869555,1,42,82,55,127,29,40,12,35
1490985869556,2,-8,30,-104,-59,-54,-40,-52,-24
1490985869556,2,-48,-64,1,-64,-20,2,46,-2
1490985869557,0,-22,-49,-128,-98,-18,-16,-25,-15
1490985869557,0,40,-31,46,3,-21,2,31,27
1490985869558,1,10,-6,35,-29,-16,13,-24,16
1490985869558,1,61,43,-59,-24,24,-14,6,8
1490985869604,2,-46,77,99,0,8,3,-21,-15
1490985869604,2,-20,-30,-58,-17,-4,-9,12,2
1490985869605,3,-77,23,97,37,-25,-21,16,-35
1490985869605,3,-1,9,-62,28,29,-10,-54,-14
1490985869606,1,-18,-7,63,-39,-17,-14,49,28
1490985869606,1,-106,17,38,64,-12,-16,-42,-21
1490985869607,2,30,-10,-107,18,23,-15,4,-5
1490985869607,2,0,-73,-6,-53,-23,-47,26,-5
1490985869653,3,115,127,62,68,35,-7,-21,95
1490985869653,3,-58,-9,-48,-22,15,-15,78,3
1490985869654,0,-67,-66,43,14,-10,-23,-60,-15
1490985869654,0,68,45,-18,37,-15,36,37,5
1490985869655,2,48,13,-14,8,5,-6,15,-17
1490985869655,2,6,-7,37,-61,-12,2,66,22
1490985869656,3,-2,-23,-26,23,3,3,-33,11
1490985869656,3,-120,5,61,-22,-16,4,31,2
1490985869701,0,54,58,40,40,22,21,21,-5
1490985869701,0,-16,3,-41,27,-11,-14,-40,-27
1490985869702,1,29,-25,-13,16,-14,-5,18,12
1490985869702,1,-18,-28,-23,-115,-28,40,-23,-20
1490985869703,2,107,37,42,11,2,-19,1,4
1490985869703,2,-24,-35,-16,41,6,21,3,8
1490985869704,3,108,60,-42,-4,-15,1,-17,-2
1490985869704,3,-95,-106,39,10,9,11,-21,-26
1490985869750,0,109,94,-24,-53,-29,21,18,24
1490985869750,0,-92,-21,-51,-11,25,42,4,-15
1490985869751,1,53,52,30,-24,-18,-13,8,-26
1490985869751,1,63,-4,70,88,7,-21,23,39
1490985869752,3,14,-17,-17,22,-1,35,4,23
1490985869752,3,7,58,101,16,14,12,-9,-5
1490985869753,0,61,-2,4,-37,3,-12,-48,-14
1490985869753,0,-42,6,-31,-22,-21,2,5,-20
1490985869799,1,11,-44,-38,-13,4,5,36,31
1490985869799,1,0,16,-8,27,8,-6,39,-9
1490985869800,2,35,-26,10,36,-5,3,5,6
1490985869800,2,-28,-12,30,-2,20,-10,-12,-13
1490985869801,0,-61,7,5,8,17,-18,7,-19
1490985869801,0,16,-13,-11,8,-14,-11,6,32
1490985869802,1,-115,-25,-6,-21,-9,-4,-41,-19
1490985869802,1,117,12,-47,-56,-32,-3,10,-5
1490985869896,2,-19,-4,22,-5,10,-10,21,-7
1490985869896,2,-24,-4,-40,-27,-17,-7,-23,-1
1490985869897,3,30,13,31,17,-4,-22,-3,-8
1490985869897,3,-57,-24,-9,47,48,35,22,29
1490985869898,1,67,25,-36,-56,-5,21,21,26
1490985869898,1,23,6,-26,21,-3,-18,-8,-11
1490985869899,2,2,15,13,4,7,18,7,5
1490985869899,2,-6,38,45,12,-3,1,-12,26
1490985869945,3,-31,13,-18,1,5,-10,4,-30
1490985869945,3,37,26,32,13,1,-17,-37,-3
1490985869946,0,-29,-11,-35,46,7,0,25,-7
1490985869946,0,-35,-27,-57,-62,-43,-4,-28,-9
1490985869947,2,-44,-48,37,3,-13,-35,-42,-25
1490985869947,2,103,25,27,32,9,-9,26,12
1490985869948,3,-31,-34,35,13,4,13,-8,12
1490985869948,3,87,69,23,-1,-4,-1,-28,0
1490985869994,0,-26,-32,-23,17,7,-6,9,-24
1490985869994,0,7,-31,-5,-49,5,21,-2,47
1490985869995,1,-99,11,-29,5,-14,-30,13,-17
1490985869995,1,24,6,70,-14,0,-11,24,-16
1490985869996,0,18,-7,-5,-56,-8,-1,41,21
1490985869996,0,-22,17,38,68,24,3,7,14
1490985869997,1,-21,-54,-34,-19,-12,46,-47,13
1490985869997,1,-45,17,-65,-42,0,-34,20,-36
1490985870042,2,62,24,91,33,12,-5,-48,-25
1490985870042,2,0,49,-5,19,-1,11,25,64
1490985870044,3,51,3,-36,-15,1,-2,55,9
1490985870044,3,1,-89,-20,47,4,29,-1,-1
1490985870045,1,69,-64,-6,-16,8,-11,-22,-16
1490985870045,1,-51,-18,69,-12,-20,-31,39,-23
1490985870091,2,50,28,-29,70,21,51,-4,68
1490985870091,2,5,59,25,-78,-4,-13,-64,-66
1490985870093,3,3,-10,-5,20,-6,-50,65,-33
1490985870093,3,27,28,-74,10,29,3,20,26
1490985870094,0,84,39,127,102,-9,29,-72,-24
1490985870094,0,-53,-109,-118,-88,-15,-6,46,13
1490985870095,1,-4,-9,-15,44,-18,-3,-11,8
1490985870095,1,21,97,114,25,22,12,-25,-1
1490985870140,2,23,-31,-89,4,13,-5,38,35
1490985870140,2,-60,-47,-58,10,-11,37,-36,1
1490985870142,3,-4,53,109,-43,0,-14,21,-67
1490985870142,3,58,-57,-56,26,-18,-32,-82,101
1490985870144,0,-118,38,2,-85,-15,-15,124,-17
1490985870144,0,112,-16,91,67,28,-16,-32,-66
1490985870145,2,92,-13,-46,-71,-18,-14,-5,20
1490985870145,2,10,-32,61,71,12,-5,29,37
1490985870189,3,99,106,-35,58,7,0,9,3
1490985870189,3,-55,22,126,-71,-5,20,-40,-21
1490985870190,0,-47,-60,-65,49,-2,-20,26,-47
1490985870190,0,-23,-79,-70,-57,-28,-61,41,-74
1490985870192,3,-23,-128,-128,10,1,21,15,-3
1490985870192,3,-20,29,42,12,6,-25,1,-25
1490985870192,0,48,66,127,115,24,21,-16,-41
1490985870192,0,40,26,7,13,27,20,-12,42
1490985870238,1,8,-128,-119,-128,-81,-28,28,19
1490985870238,1,13,-35,77,109,43,-4,45,37
1490985870239,2,44,101,102,116,46,-45,-12,5
1490985870239,2,-25,17,-70,-45,11,67,-21,-33
1490985870240,0,-103,-104,63,-121,-31,-16,-31,-59
1490985870240,0,-6,26,-14,80,5,-47,48,31
1490985870241,1,-128,15,-42,29,19,-29,-1,3
1490985870241,1,-36,-43,-109,-89,-21,-45,-13,-126
1490985870286,2,87,3,25,120,12,55,-13,10
1490985870286,2,-82,-20,-125,-108,-14,-1,51,44
1490985870288,3,54,127,127,112,52,19,-86,-4
1490985870288,3,-85,-111,-82,-87,-47,15,-16,-77
1490985870289,1,-66,-69,-115,-84,-9,-48,52,-27
1490985870289,1,127,72,59,30,-1,21,-47,117
1490985870290,2,-77,23,-39,-4,29,30,-39,-43
1490985870290,2,9,-88,-111,-67,-68,-13,5,-71
1490985870335,3,-35,-12,127,121,24,-58,30,120
1490985870335,3,-63,41,9,103,-7,23,34,-41
1490985870337,0,57,-44,43,-81,-22,5,-57,-81
1490985870337,0,-84,127,127,80,58,51,5,60
1490985870338,2,125,123,68,127,19,-25,38,53
1490985870338,2,116,-103,-66,-19,-22,18,-98,-92
1490985870339,3,-72,58,-103,-128,-76,-9,-8,25
1490985870339,3,85,-6,81,-8,19,-19,47,48
1490985870384,0,12,-67,-114,50,-14,-43,-13,22
1490985870384,0,117,25,49,-3,29,-4,-65,39
1490985870385,1,-121,17,121,127,5,-15,-3,-36
1490985870385,1,104,16,-118,-113,-21,66,35,14
1490985870387,3,24,-105,74,-82,-3,35,8,-34
1490985870387,3,-35,-100,-77,-79,-8,21,-2,61
1490985870387,0,-19,17,56,41,37,-12,53,42
1490985870387,0,64,-7,-128,-10,-56,1,-49,65
1490985870433,1,96,97,127,-55,18,11,16,3
1490985870433,1,-56,102,-34,97,25,48,-18,45
1490985870434,2,-55,-13,-128,-128,-5,38,24,28
1490985870434,2,-62,-115,-6,-74,-62,-63,8,-123
1490985870436,3,83,90,72,119,21,-39,22,-4
1490985870436,3,-52,10,-25,-4,26,43,-86,-22
1490985870436,0,-96,-68,82,-42,-62,-25,-8,-65
1490985870436,0,16,-72,56,120,-41,-15,64,47
1490985870482,1,30,-100,-128,-128,-84,17,-80,-28
1490985870482,1,-50,91,127,23,27,-60,86,-1
1490985870483,2,-41,107,-79,127,109,29,-12,-33
1490985870483,2,86,46,87,-103,8,27,-61,-87
1490985870484,0,70,18,57,48,-15,30,52,92
1490985870484,0,-121,-25,-10,89,78,27,32,-17
1490985870485,1,65,65,33,16,61,80,-49,39
1490985870485,1,-38,-73,29,-123,-3,32,46,-55
1490985870627,2,40,-21,6,6,-55,-20,-21,48
1490985870627,2,68,-25,72,-77,-70,127,-37,-60
1490985870629,3,-114,-44,28,24,91,6,71,2
1490985870629,3,-2,-22,3,39,56,38,23,-24
1490985870630,1,3,-25,-122,-58,-66,34,51,-9
1490985870630,1,7,100,74,100,70,60,-72,12
1490985870630,2,98,2,-105,-49,-43,-24,-15,41
1490985870630,2,-128,-55,-99,-111,20,-34,30,-57
1490985870676,3,7,71,-110,76,-53,-39,6,14
1490985870676,3,46,-116,-46,-61,-14,-52,51,75
1490985870677,0,26,81,127,109,100,57,34,-80
1490985870677,0,115,35,-1,-128,-13,-2,-84,62
1490985870678,0,29,60,-95,-110,-46,17,19,54
1490985870678,0,7,-40,-23,22,5,-40,-15,-21
1490985870679,1,-41,-32,47,74,-29,-10,88,9
1490985870679,1,24,16,37,32,-5,-10,-98,-36
1490985870725,2,-112,-123,-128,-83,-62,3,15,-18
1490985870725,2,106,55,127,74,-7,-54,2,21
1490985870726,3,24,-33,-97,-97,88,39,42,6
1490985870726,3,66,-97,33,41,-57,-15,61,9
1490985870727,1,8,127,127,90,-1,3,-65,43
1490985870727,1,6,-67,-128,-128,-78,-28,21,-31
1490985870728,2,-11,-65,-51,-88,-100,16,76,-19
1490985870728,2,-20,76,81,127,66,-23,-21,-22
1490985870823,3,104,70,127,110,73,19,-17,16
1490985870823,3,-86,48,-59,107,81,46,-95,-3
1490985870824,0,-73,-99,-98,-103,-84,-62,61,-13
1490985870824,0,48,59,72,61,3,9,72,-94
1490985870825,1,-34,-66,-80,-87,-73,-21,-80,39
1490985870825,1,9,-66,21,-128,-33,8,66,-35
1490985870826,2,-39,32,115,127,26,-8,-11,14
1490985870826,2,67,30,127,39,-5,1,-60,13
1490985870871,3,-3,45,-6,-37,75,-4,13,14
1490985870871,3,-49,-4,12,26,-84,-19,-59,3
1490985870873,0,4,-38,-128,-128,77,-29,15,-4
1490985870873,0,26,25,56,55,-31,20,6,9
1490985870874,2,47,76,41,30,56,38,28,6
1490985870874,2,1,-27,32,-29,-58,60,-34,44
1490985870874,3,-10,-48,127,127,-23,-10,26,-46
1490985870874,3,30,-4,7,20,65,57,4,83
1490985870920,0,-43,-83,-6,15,-64,5,26,-33
1490985870920,0,24,-14,-41,-44,-37,26,-22,19
1490985870921,1,-36,-51,-12,14,55,-14,-22,-19
1490985870921,1,44,32,39,103,10,16,1,24
1490985870922,0,21,26,70,82,-35,-8,40,18
1490985870922,0,-41,21,-17,-3,4,-33,-2,-32
1490985870923,1,0,7,92,62,85,5,-57,-16
1490985870923,1,28,53,33,-23,-30,10,-23,35
1490985870969,2,-27,-68,-128,-111,6,7,72,-3
1490985870969,2,21,-65,-60,-74,-128,-38,-16,-1
1490985870970,3,-27,-10,26,43,-22,56,28,-20
1490985870970,3,3,25,30,5,86,43,-46,-3
1490985870970,1,-6,-20,-27,-37,-38,-56,-57,-17
1490985870970,1,-8,6,-26,-12,-41,13,58,-9
1490985870971,2,4,-12,19,10,-4,-23,-46,-4
1490985870971,2,-26,18,31,50,11,-49,-84,0
1490985871017,3,-5,-18,-36,-23,46,56,13,-16
1490985871017,3,0,30,11,8,-44,-99,16,19
1490985871018,0,7,19,-6,-16,99,106,28,18
1490985871018,0,5,-17,2,21,-18,16,-9,0
1490985871019,2,-9,-12,26,12,-26,-53,9,-12
1490985871019,2,-11,-18,-38,-15,-24,-21,-8,-11
1490985871020,3,7,-3,-1,9,22,18,16,21
1490985871020,3,15,-12,-9,-23,23,43,16,7
1490985871066,0,-27,13,32,55,3,-63,-51,-36
1490985871066,0,20,21,67,14,42,30,-11,25
1490985871067,1,-4,-26,-63,-11,-38,-16,-18,6
1490985871067,1,-3,5,-29,-62,-26,-12,42,-11
1490985871068,3,1,-43,24,25,-27,-25,60,23
1490985871068,3,23,15,0,-3,-32,-34,-56,10
1490985871069,0,-7,-6,-16,-11,24,53,2,2
1490985871069,0,-7,-13,2,44,-10,-35,-15,0
1490985871115,1,9,23,0,4,19,-4,17,-3
1490985871115,1,-10,-10,-8,-14,33,3,-2,-8
1490985871116,2,-4,-12,-9,0,-41,-5,-31,-10
1490985871116,2,20,38,45,23,-7,0,45,33
1490985871117,0,48,33,0,10,-1,7,-23,5
1490985871117,0,-25,-33,12,-12,-31,14,46,-12
1490985871118,1,46,22,-7,4,97,32,-23,8
1490985871118,1,-76,-1,3,7,31,34,35,-15
1490985871164,2,3,-35,-38,-46,-50,-26,35,1
1490985871164,2,24,22,14,-4,17,31,-14,-12
1490985871165,3,5,-14,0,-2,6,33,37,2
1490985871165,3,31,19,33,66,-16,3,-30,-8
1490985871166,0,-48,17,16,-17,-11,-6,-19,-25
1490985871166,0,27,-11,-26,-43,16,12,1,46
1490985871167,1,-11,20,-14,-19,-104,-40,32,-15
1490985871167,1,-9,-37,8,2,33,27,32,-30
1490985871212,2,-27,-2,8,-24,-31,7,-19,-4
1490985871212,2,46,-8,-83,56,14,6,6,-1
1490985871214,3,-43,-13,115,3,17,16,40,2
1490985871214,3,24,16,-27,-46,-48,5,10,10
1490985871215,1,-8,-74,-124,-6,-3,-9,-34,-28
1490985871215,1,-2,25,32,24,-30,2,18,24
1490985871216,2,-11,8,-17,-14,49,-3,-23,-28
1490985871216,2,14,21,-86,-12,11,5,-3,21
1490985871261,3,87,10,118,-2,-13,8,36,31
1490985871261,3,-47,-14,57,32,30,13,-5,7
1490985871262,0,-10,4,-75,-72,-74,-9,23,0
1490985871262,0,-16,1,-7,45,29,-27,-15,-36
1490985871310,2,12,-60,-60,-24,-8,-12,33,50
1490985871310,2,17,35,78,96,20,-1,-21,1
1490985871311,3,7,45,-21,-61,-28,0,-30,23
1490985871311,3,15,58,-65,-74,-9,-20,10,9
1490985871312,0,-12,-39,121,127,32,19,12,-7
1490985871312,0,-20,-19,-19,-76,-13,-7,-14,-50
1490985871313,1,1,14,-37,4,-15,-1,15,67
1490985871313,1,-43,-13,-31,98,25,5,-3,-28
1490985871359,3,-11,-57,5,-65,-31,-12,-5,-33
1490985871359,3,48,14,-4,-66,-28,-7,47,-36
1490985871360,0,-15,19,35,110,1,0,4,13
1490985871360,0,20,-26,17,-13,26,-7,-26,-14
1490985871362,1,10,-9,-78,64,13,16,-15,-10
1490985871362,1,-14,31,48,1,19,-6,6,45
1490985871408,0,-84,-36,-89,105,-31,-23,-5,-60
1490985871408,0,53,17,40,-7,-1,6,44,-4
1490985871415,1,-19,68,120,127,29,-4,-36,-9
1490985871415,1,60,111,120,127,17,23,-50,22
1490985871416,2,43,107,-23,-128,28,-1,-47,17
1490985871416,2,-89,-82,-30,-94,-83,-25,74,-22
1490985871417,1,-25,-9,49,41,37,11,12,-1
1490985871417,1,-20,-120,-128,-108,-41,-22,-40,-42
1490985871456,2,-109,-82,13,127,-28,-14,47,31
1490985871456,2,21,-43,74,66,27,21,48,37
1490985871458,3,39,73,-60,89,-13,4,-12,35
1490985871458,3,-4,116,83,16,95,17,-2,-81
1490985871459,2,63,123,43,-4,10,-7,36,58
1490985871459,2,4,24,80,127,37,14,-46,5
1490985871460,3,31,-94,-108,-128,-52,4,49,31
1490985871460,3,-84,-40,-109,-3,-22,-28,-14,-14
1490985871505,0,-72,-12,82,99,20,6,23,2
1490985871505,0,32,-3,16,35,11,3,-19,5
1490985871507,1,77,69,70,-31,-19,-7,-54,43
1490985871507,1,-51,-124,-124,-104,-19,10,75,-24
1490985871508,2,5,2,50,15,13,-9,7,-54
1490985871508,2,-12,4,-45,-100,-38,-10,-35,-23
1490985871509,3,-20,-10,-13,26,-10,-15,-2,-45
1490985871509,3,-31,-1,-3,26,4,6,-12,7
1490985871554,0,88,66,97,55,23,14,4,-38
1490985871554,0,-94,-47,-128,54,5,-9,-30,47
1490985871561,1,18,7,-56,-58,-13,2,34,-48
1490985871561,1,100,56,25,6,-7,-6,13,10
1490985871562,3,56,27,-15,76,-9,-18,-38,51
1490985871562,3,-21,-61,-119,-80,-18,0,22,2
1490985871564,0,4,59,-1,22,3,4,7,-24
1490985871564,0,90,50,15,79,25,12,36,93
1490985871603,1,65,58,32,46,5,-14,-93,-41
1490985871603,1,-67,-83,117,1,-3,-2,57,-77
1490985871605,2,-39,-102,-119,-18,-5,15,-24,-2
1490985871605,2,51,-10,-39,-114,-27,-23,18,13
1490985871606,0,93,-47,-66,22,9,-1,15,29
1490985871606,0,-8,123,82,-5,15,3,0,1
1490985871607,1,-31,-81,-102,-43,-32,-11,4,52
1490985871607,1,44,11,98,45,-4,-9,-21,-55
1490985871651,2,-128,-43,-53,-64,3,-4,-3,25
1490985871651,2,61,111,33,77,7,18,-4,19
1490985871653,3,-21,-25,29,-46,28,-9,-8,1
1490985871653,3,-58,-17,-93,-39,-18,5,31,44
1490985871654,1,2,58,127,64,14,13,65,38
1490985871654,1,27,2,-128,14,-14,-7,0,-7
1490985871655,2,-7,10,75,-55,-6,-16,-7,-18
1490985871655,2,-7,1,-4,-17,-18,-25,-13,2
1490985871700,3,-13,-5,111,42,13,7,5,16
1490985871700,3,23,39,-126,21,44,-1,-36,-26
1490985871701,0,2,21,93,-32,-42,-24,23,6
1490985871701,0,56,-47,32,-9,-6,8,12,-37
1490985871702,2,-89,-80,-15,-4,36,-28,19,1
1490985871702,2,48,31,-19,12,3,-57,-14,-38
1490985871703,3,88,36,-19,-9,-5,-7,-9,7
1490985871703,3,-42,-3,37,-5,-31,-16,4,24
1490985871748,0,18,-35,-54,-6,16,10,-12,-32
1490985871748,0,-19,-4,33,24,-19,11,1,9
1490985871749,1,-36,-25,-26,-83,-12,10,8,15
1490985871749,1,-48,17,-32,54,36,38,1,11
1490985871750,3,18,28,74,75,0,10,-39,-5
1490985871750,3,81,9,-29,-83,-10,0,-5,7
1490985871751,0,-61,-5,-71,-18,-37,-1,2,-4
1490985871751,0,5,11,-15,-15,-24,19,-2,3
1490985871797,1,-4,-11,15,98,78,60,5,0
1490985871797,1,39,3,54,3,15,25,-6,-10
1490985871798,2,-58,12,-66,-72,-15,0,5,-23
1490985871798,2,-41,-9,-25,-9,-10,8,-5,-5
1490985871799,0,15,18,-46,-44,-10,34,25,17
1490985871799,0,-27,22,44,-20,30,-4,-10,-4
1490985871800,1,-51,-38,-37,8,-5,3,3,-2
1490985871800,1,56,11,23,-28,3,15,16,31
1490985871846,2,26,13,57,11,12,-1,2,-27
1490985871846,2,-61,2,17,93,4,0,-3,41
1490985871847,3,19,-8,-47,-66,-15,-2,-32,-20
1490985871847,3,24,-9,1,-44,-18,-16,35,5
1490985871848,0,-5,-41,-45,47,17,20,4,6
1490985871848,0,6,-20,33,-7,14,3,-18,-31
1490985871849,1,58,-10,-15,11,7,-5,0,29
1490985871849,1,-58,-13,60,16,-28,2,32,2
1490985871895,2,-16,-15,-34,-36,-16,-23,-21,-10
1490985871895,2,23,-7,-40,-5,-25,-18,-11,-13
1490985871897,3,-13,-2,29,-3,5,-4,-5,-9
1490985871897,3,-16,-8,2,50,21,13,-34,-5
1490985871898,1,-30,-17,-13,-12,48,-1,9,14
1490985871898,1,-17,25,17,31,-12,-15,5,41
1490985871898,2,4,16,-5,61,14,36,-9,-3
1490985871898,2,-7,2,-30,-57,-11,9,24,15
1490985871993,3,-6,20,-20,-74,-27,8,-9,-8
1490985871993,3,-26,12,7,27,24,13,1,-1
1490985871994,0,-3,5,64,33,-26,-16,12,-19
1490985871994,0,83,-7,-6,35,68,12,-39,28
1490985871995,2,-33,-34,-35,-61,-8,-23,33,-23
1490985871995,2,-49,-22,15,-4,-6,-9,-16,-17
1490985871996,3,8,-27,37,34,-12,-18,-30,2
1490985871996,3,51,-24,-2,15,1,-9,-10,-15
1490985872041,0,-18,23,-7,-9,16,4,-33,-3
1490985872041,0,-50,5,-4,-15,10,30,30,5
1490985872042,1,15,23,-14,-6,-38,-20,-23,-19
1490985872042,1,2,23,9,1,33,5,38,14
1490985872043,3,14,-25,14,44,1,-6,30,7
1490985872043,3,37,-45,-10,-24,-10,-13,-16,14
1490985872044,0,42,16,-4,-17,14,-15,-13,2
1490985872044,0,18,31,16,30,-3,7,24,-3
1490985872090,1,25,21,27,51,15,-15,9,-2
1490985872090,1,21,2,8,-8,-3,2,-40,-19
1490985872091,2,-78,-43,-60,-17,-9,19,-16,2
1490985872091,2,3,-1,3,6,-14,-22,-20,-6
1490985872091,1,49,-61,-35,14,0,21,-23,48
1490985872091,1,45,89,51,28,4,-2,-21,-13
1490985872092,2,-86,-99,-89,-62,-30,-9,-27,-26
1490985872092,2,74,45,7,-64,-20,-15,9,55
1490985872139,3,-10,5,25,30,7,-32,71,-21
1490985872139,3,48,-50,-16,37,-11,-17,-40,0
1490985872139,0,-77,12,64,83,30,36,8,24
1490985872139,0,-2,11,-70,-79,-18,-11,-3,3
1490985872140,2,123,15,16,5,6,-5,31,0
1490985872140,2,-58,-7,80,42,18,3,-19,26
1490985872141,3,65,26,72,2,-6,1,-29,60
1490985872141,3,-82,-3,-43,1,17,56,-19,21
1490985872188,0,-30,-54,-85,-85,-39,-21,12,-87
1490985872188,0,96,32,-16,-28,22,-19,9,-47
1490985872190,1,55,67,33,96,18,-6,27,-5
1490985872190,1,32,80,116,61,12,36,3,61
1490985872191,2,-44,30,-80,-86,-16,-1,-21,24
1490985872191,2,-67,-51,-44,44,-23,3,13,-28
1490985872192,3,-48,17,8,14,-6,-39,-60,-84
1490985872192,3,40,18,12,83,33,16,74,61
1490985872236,0,-48,27,-11,25,-7,11,-32,48
1490985872236,0,41,-77,60,-51,-8,-5,0,3
1490985872238,1,-128,-62,-112,-27,-5,-6,-10,-56
1490985872238,1,109,23,78,-21,-1,10,-14,-33
1490985872239,3,-98,-7,82,-86,-32,-10,0,-55
1490985872239,3,-49,-102,44,32,9,10,79,61
1490985872240,0,127,127,74,23,12,10,-40,49
1490985872240,0,-40,-20,19,77,5,-1,-67,-4
1490985872285,1,-25,-10,27,-29,10,-16,90,89
1490985872285,1,64,-24,-128,-33,-37,6,-49,41
1490985872287,2,-70,-78,127,46,18,26,-20,-128
1490985872287,2,-47,-46,-88,-14,-13,38,-16,-23
1490985872288,0,56,83,-115,-14,7,-12,8,39
1490985872288,0,62,-43,-25,-57,-30,15,-34,-70
1490985872289,1,-64,-47,45,-18,-17,-6,37,48
1490985872289,1,-76,83,116,15,41,-8,-46,-23
1490985872334,2,117,-41,-72,1,-39,-16,28,-14
1490985872334,2,-128,20,114,-16,79,19,2,48
1490985872335,3,-40,9,-128,-39,-30,0,-4,15
1490985872335,3,122,5,80,-128,-11,-17,-27,-37
1490985872336,1,-43,54,30,-52,-12,49,7,99
1490985872336,1,-111,-128,-75,66,-46,-66,-9,-68
1490985872337,2,127,127,23,-8,-33,-35,24,-10
1490985872337,2,-100,98,97,90,39,-20,14,-64
1490985872382,3,32,-71,-96,127,64,73,-48,23
1490985872382,3,33,23,-5,-128,-24,34,21,-83
1490985872383,0,-85,-90,-9,112,77,-19,29,113
1490985872383,0,80,-83,-37,127,-82,-13,-9,-65
1490985872384,2,102,88,50,85,19,17,22,-16
1490985872384,2,-122,-40,-57,-90,-18,10,-19,39
1490985872385,3,78,-110,54,-46,45,4,-70,-27
1490985872385,3,45,-36,-97,4,-57,-5,-6,4
1490985872431,0,-93,122,127,41,8,-34,-10,-76
1490985872431,0,-36,122,-128,-71,-5,-26,18,-34
1490985872432,1,-86,-108,104,-73,-65,25,18,-41
1490985872432,1,17,-5,-76,47,90,-17,-4,-18
1490985872433,3,94,-16,-128,42,-37,-28,-99,33
1490985872433,3,6,-88,-54,52,85,40,13,-93
1490985872434,0,26,59,-17,-25,-18,28,-32,-34
1490985872434,0,98,-29,-19,-76,2,-40,13,55
1490985872480,1,-87,-63,121,121,105,-31,64,-39
1490985872480,1,115,114,-128,-83,-93,47,-95,-4
1490985872481,2,60,17,-20,-128,-64,0,-3,9
1490985872481,2,-89,-68,-16,103,94,-4,2,13
1490985872481,0,-43,45,70,-120,-70,-37,-60,-47
1490985872481,0,97,-73,7,38,-3,26,-27,-23
1490985872482,1,-72,-51,-128,100,35,-24,-13,-69
1490985872482,1,63,107,-3,-75,-91,-39,-47,-11
1490985872529,2,20,-74,43,-39,68,23,62,4
1490985872529,2,-44,23,-112,30,42,-18,63,56
1490985872530,3,-37,-82,-68,-99,-68,-15,-23,54
1490985872530,3,-114,123,86,81,8,-12,-5,-39
1490985872531,1,64,44,-93,-12,-6,5,-31,-65
1490985872531,1,16,-5,127,-128,12,-39,-26,80
1490985872532,2,-50,-88,-72,-68,-75,-37,44,30
1490985872532,2,-16,127,72,127,72,68,-6,-45
1490985872578,3,-45,-42,111,-78,33,59,-15,-84
1490985872578,3,-9,-33,-123,-94,-38,17,6,28
1490985872579,0,20,-20,-19,1,9,-54,-18,-42
1490985872579,0,86,28,-76,27,18,48,16,12
1490985872579,1,104,127,-73,-34,-30,14,38,58
1490985872579,1,-96,-85,-68,-88,-59,-49,-24,-97
1490985872580,2,95,24,48,116,17,18,30,-46
1490985872580,2,20,16,-62,26,-46,-46,-23,34
1490985872626,3,127,127,122,58,15,23,7,60
1490985872626,3,-36,-78,61,-69,65,-21,-10,123
1490985872627,0,-79,-127,-128,-114,-92,20,25,-90
1490985872627,0,-37,61,103,28,10,-2,-21,6
1490985872724,2,-32,-33,-44,-4,-30,-14,-62,-49
1490985872724,2,-44,7,51,14,-26,-7,62,88
1490985872725,3,55,50,-41,-29,27,-46,-1,-40
1490985872725,3,26,127,-51,127,-35,58,1,-35
1490985872726,0,124,-87,-128,-87,-57,14,-64,13
1490985872726,0,-71,-128,58,-35,-25,-59,78,-24
1490985872728,1,2,71,38,61,-30,-60,36,-36
1490985872728,1,-128,-47,-3,-69,2,-19,-13,-29
1490985872776,3,30,62,74,63,-39,-99,33,-85
1490985872776,3,127,124,12,127,119,74,-3,81
1490985872777,0,17,61,-48,-58,-4,19,-41,-20
1490985872777,0,-2,-61,-26,-41,-49,-55,13,66
1490985872778,1,-11,25,-95,27,-25,-18,-24,-83
1490985872778,1,-96,-68,-11,-70,29,-71,25,-103
1490985872779,1,-81,-19,18,83,8,-72,89,-120
1490985872779,1,45,93,96,88,51,-8,-61,73
1490985872821,2,-47,-84,-75,-82,-42,-16,-23,-46
1490985872821,2,25,29,-21,85,39,19,2,15
1490985872823,3,41,51,3,1,29,-17,-56,59
1490985872823,3,-40,-85,-45,-37,90,72,33,-18
1490985872824,2,-88,-15,-35,-20,20,0,-4,59
1490985872824,2,52,3,-91,-127,-61,1,85,-98
1490985872828,3,-104,29,-13,127,-39,-39,-71,-30
1490985872828,3,127,69,9,3,-8,-54,-107,-10
1490985872870,0,47,115,-55,101,-68,30,-13,57
1490985872870,0,-95,-68,0,-27,127,-10,41,-55
1490985872872,1,26,25,-104,-39,21,52,-32,79
1490985872872,1,10,75,-62,15,-128,40,10,4
1490985872873,3,57,24,34,12,77,9,-96,6
1490985872873,3,16,-72,-74,-22,-23,0,35,-16
1490985872874,0,-51,-16,-53,-26,115,31,6,16
1490985872874,0,26,23,-112,14,-42,-11,-40,-6
1490985872919,1,49,61,93,31,46,-13,-33,-12
1490985872919,1,-39,-104,7,-85,-45,-25,38,-13
1490985872920,2,-93,-78,-73,-22,-76,-35,106,-64
1490985872920,2,19,72,32,37,12,-12,-66,-23
1490985872921,3,88,95,114,39,-18,-6,-14,61
1490985872921,3,61,101,16,60,65,28,-58,27
1490985872923,0,13,49,4,-84,-29,23,-2,13
1490985872923,0,-111,-122,-61,-95,-30,8,45,-44
1490985872968,1,20,-1,11,109,-66,-18,-14,-10
1490985872968,1,26,-1,-97,-74,48,31,-2,29
1490985872969,2,-76,-45,65,-56,-46,3,82,-25
1490985872969,2,74,41,-14,20,-3,-16,-35,13
1490985872970,0,36,-30,23,69,9,1,65,-1
1490985872970,0,47,43,107,21,32,42,-2,19
1490985872971,1,-15,-51,-20,-32,-25,-28,-44,-27
1490985872971,1,70,52,-41,65,33,-15,86,18
1490985873016,2,-47,-27,-1,113,57,6,-88,-23
1490985873016,2,-62,-29,39,-114,-29,-15,57,-5
1490985873018,3,-32,-12,-33,-85,-10,-26,-5,2
1490985873018,3,1,53,36,96,-18,-70,-56,-12
1490985873019,1,-14,-11,-6,17,-4,31,17,11
1490985873019,1,-58,-88,-78,-128,11,-13,3,-31
1490985873020,2,-19,-33,-72,-75,-115,-53,-17,9
1490985873020,2,5,7,52,101,13,-52,-80,-11
1490985873065,3,11,0,20,-50,65,37,-49,-37
1490985873065,3,-18,3,27,-1,-128,20,43,12
1490985873066,0,-1,64,4,-19,35,31,17,-3
1490985873066,0,24,-16,-5,39,54,13,1,46
1490985873068,2,8,-29,-42,-77,67,3,22,-5
1490985873068,2,-22,15,37,21,-47,12,-23,-14
1490985873071,3,5,-27,-16,-13,-33,8,41,3
1490985873071,3,-7,-25,-2,0,6,-28,-17,-17
1490985873114,0,54,6,36,36,-97,-57,-75,28
1490985873114,0,-34,17,9,-51,-17,27,-59,-9
1490985873115,1,-49,-58,-51,-9,1,30,-5,-30
1490985873115,1,8,6,2,-50,-11,-37,-54,5
1490985873116,3,-40,-32,-63,-61,83,51,33,-10
1490985873116,3,-8,-8,18,31,-115,-56,12,-9
1490985873117,0,-9,20,26,36,-20,5,4,-11
1490985873117,0,10,-5,-6,20,33,40,34,0
1490985873163,1,19,2,0,-52,-85,-49,-8,-2
1490985873163,1,14,14,23,9,58,33,42,20
1490985873166,2,-20,-15,-16,10,-27,28,5,5
1490985873166,2,-30,-3,-6,-13,36,-35,-5,-25
1490985873168,0,-13,1,3,6,-32,-28,3,-8
1490985873168,0,14,3,-18,-48,35,39,4,26
1490985873170,1,-9,-12,2,20,5,7,36,7
1490985873170,1,1,-7,-11,-27,-56,-16,37,-18
1490985873213,2,15,29,50,40,-82,-15,-16,-16
1490985873213,2,-1,0,1,42,46,0,7,3
1490985873260,3,-17,-6,-28,-52,-23,-40,-12,14
1490985873260,3,-13,-6,-30,-24,19,74,-12,-18
1490985873263,1,37,14,21,30,22,33,18,26
1490985873263,1,-31,-13,5,-17,49,-21,33,4
1490985873265,2,-15,-26,-31,-32,-21,-21,-1,-24
1490985873265,2,22,-2,-4,-30,-8,-25,1,2
1490985873266,3,-18,-23,-7,14,2,0,-19,3
1490985873266,3,41,33,56,32,-3,8,26,1
1490985873309,0,-51,2,-32,-1,-9,-21,-13,-19
1490985873309,0,-12,-51,-45,-70,24,-1,1,-7
1490985873310,1,9,8,-3,-7,-38,-7,9,-5
1490985873310,1,-14,-5,2,23,7,2,-13,0
1490985873311,2,15,28,5,13,8,-1,15,35
1490985873311,2,74,46,32,38,14,3,16,38
1490985873312,2,52,-1,-53,-82,-1,2,-17,5
1490985873312,2,-22,22,25,48,13,-21,17,2
1490985873358,3,18,68,23,1,-42,-11,-34,6
1490985873358,3,46,18,59,-1,35,0,-4,1
1490985873359,0,-4,-50,33,30,12,11,13,6
1490985873359,0,-69,-30,24,3,-19,-18,-12,-48
1490985873359,3,-21,-12,25,79,-23,-11,16,8
1490985873359,3,-39,-3,40,26,36,-5,-23,5
1490985873360,0,25,-38,-54,-49,0,-4,11,28
1490985873360,0,-41,50,85,127,23,40,3,40
1490985873406,1,-88,-38,-104,-128,-59,-33,-16,-54
1490985873406,1,117,127,88,74,13,-11,-8,28
1490985873407,2,-29,-72,-3,1,2,-8,7,-31
1490985873407,2,-32,-32,27,81,42,8,9,45
1490985873504,0,-42,83,5,86,-8,-29,13,-20
1490985873504,0,-73,-39,90,-106,12,10,14,-12
1490985873504,1,108,81,-18,-4,-9,-20,-29,11
1490985873504,1,-49,-59,-28,66,16,31,26,9
1490985873505,2,-92,33,49,30,10,36,18,38
1490985873505,2,-105,69,-28,45,7,-4,-44,-5
1490985873506,3,43,16,127,118,100,5,1,48
1490985873506,3,10,23,-121,-128,-53,-14,7,-61
1490985873553,1,-74,-36,-16,-50,-5,-13,9,-2
1490985873553,1,108,75,-9,23,5,-11,-55,15
1490985873554,2,-28,-83,-58,-20,26,1,-14,-2
1490985873554,2,69,46,-47,-23,-26,8,51,7
1490985873555,3,-35,22,93,7,4,-7,-15,-16
1490985873555,3,15,-38,33,54,18,-2,-2,-25
1490985873556,3,15,-1,63,-18,-9,-1,8,40
1490985873556,3,35,42,-19,116,59,26,7,-13
1490985873601,0,-24,-43,91,-104,-57,-10,-13,38
1490985873601,0,55,40,-73,-34,-30,-23,-2,41
1490985873603,1,50,-32,37,108,39,8,-12,-53
1490985873603,1,-14,-13,54,16,20,12,23,42
1490985873604,3,30,80,95,42,38,7,19,15
1490985873604,3,17,-10,30,63,8,16,31,38
1490985873605,0,-80,-81,-128,-72,-40,-15,-11,-42
1490985873605,0,11,-83,-34,31,-14,23,-13,67
1490985873796,1,-36,125,32,85,-2,-14,25,-30
1490985873796,1,79,13,39,15,17,1,-40,45
1490985873797,2,-34,4,-7,111,57,5,0,-20
1490985873797,2,75,75,-60,-81,-9,-20,-58,-12
1490985873798,0,122,46,-54,-90,17,0,-27,-19
1490985873798,0,-122,-31,126,73,-21,-8,8,-12
1490985873798,1,79,-64,-100,-7,59,7,-46,13
1490985873798,1,42,52,20,-42,-30,-35,9,60
1490985873845,2,-56,40,-31,41,18,21,-1,-72
1490985873845,2,59,-107,57,4,28,17,11,27
1490985873846,3,-43,127,-128,-14,-10,6,-14,3
1490985873846,3,-128,-128,-31,-34,-11,-18,43,-16
1490985873846,1,-32,-84,-83,-95,-38,-10,-21,-53
1490985873846,1,-64,-13,29,61,12,8,31,67
1490985873847,0,47,-12,-33,47,8,39,7,-24
1490985873847,0,49,48,-108,-3,-12,-8,-40,4
1490985873894,1,-27,-64,113,-40,-10,24,10,-13
1490985873894,1,100,100,-30,-91,-11,10,28,24
1490985873895,2,34,-9,35,74,-6,-10,-18,-25
1490985873895,2,2,-53,2,72,36,44,24,0
1490985873896,1,-29,9,14,53,20,0,36,25
1490985873896,1,76,-19,58,-37,-23,9,-24,0
1490985873897,2,-78,11,-85,50,6,6,-37,13
1490985873897,2,20,-5,3,-44,2,2,17,-33
1490985873942,3,-47,7,56,-53,-9,-3,21,11
1490985873942,3,37,24,0,89,6,-15,-1,-3
1490985873943,0,-11,14,48,36,3,6,38,10
1490985873943,0,-10,-28,-6,-17,-36,-6,-37,51
1490985873944,2,1,-13,29,-18,0,14,17,-10
1490985873944,2,-79,-8,-31,-57,3,2,-17,-61
1490985873945,3,78,22,-13,-11,-35,6,37,6
1490985873945,3,48,28,31,45,-5,-21,-35,11
1490985873991,0,-22,-19,-6,12,16,15,29,-27
1490985873991,0,-26,-4,-13,-10,-2,-24,17,12
1490985873992,1,58,16,28,22,17,17,-61,-10
1490985873992,1,-3,16,3,-17,12,42,55,0
1490985873993,2,1,-4,23,11,-27,-41,-32,-16
1490985873993,2,28,-9,-8,12,2,8,4,17
1490985873994,3,-118,-23,-48,-56,-3,-25,1,10
1490985873994,3,31,-18,-38,-12,-31,-3,-30,-28
1490985874040,0,-81,-43,19,-38,-4,-13,3,-13
1490985874040,0,48,4,38,75,27,9,18,13
1490985874040,1,17,-34,17,28,9,-15,-6,-1
1490985874040,1,-9,7,-93,-37,-2,-2,-28,-6
1490985874041,3,8,21,29,13,19,0,-29,-15
1490985874041,3,-35,-3,-42,4,0,48,13,16
1490985874044,0,16,17,-33,-24,-13,-15,-41,0
1490985874044,0,73,-47,13,0,13,-22,14,9
1490985874088,1,-40,13,-2,31,-26,-21,-12,2
1490985874088,1,-60,-13,26,6,36,29,11,-22
1490985874090,2,-45,8,-13,-26,-24,-13,-19,21
1490985874090,2,-3,-20,-9,-30,-10,2,22,-2
1490985874091,0,35,9,-15,18,21,37,21,12
1490985874091,0,30,36,10,16,10,42,-38,-13
1490985874092,1,-43,-18,51,62,13,-13,9,-15
1490985874092,1,-3,-3,-5,-42,-10,-23,-9,14
1490985874137,2,70,-21,-91,-63,-12,29,13,-4
1490985874137,2,9,37,33,2,-2,-44,7,28
1490985874139,3,22,-18,-31,-13,-14,-20,-23,-18
1490985874139,3,-79,15,43,31,22,34,3,12
1490985874140,1,76,21,-9,-53,-8,37,-22,30
1490985874140,1,-50,33,23,13,-34,-29,14,-24
1490985874141,2,-3,5,-19,-16,49,10,-22,-21
1490985874141,2,-51,-23,-16,-12,-6,-11,8,-19
1490985874186,3,-45,18,0,-1,-8,-25,-9,9
1490985874186,3,31,-31,-51,26,7,10,-30,7
1490985874235,0,29,7,81,-11,-17,-6,6,14
1490985874235,0,-68,49,5,11,6,3,8,-6
1490985874237,2,-40,-19,6,29,-3,-22,33,-32
1490985874237,2,16,-34,13,22,0,8,23,17
1490985874238,3,-20,20,36,-28,-4,2,0,-1
1490985874238,3,-6,0,7,33,-6,1,-29,2
1490985874239,0,15,-23,-55,-53,-12,11,-12,-27
1490985874239,0,9,9,-5,-26,-5,-19,12,-27
1490985874283,1,71,-7,13,65,25,17,-7,-2
1490985874283,1,-117,-15,27,-1,13,2,42,22
1490985874284,3,-56,-28,-16,-61,-22,-29,-28,-6
1490985874284,3,-34,11,16,-22,-17,-42,76,-26
1490985874285,0,37,18,9,28,-1,2,4,0
1490985874285,0,29,58,42,55,65,60,-85,23
1490985874286,0,-113,-5,48,-71,-24,-56,23,-61
1490985874286,0,83,78,-8,52,10,16,26,35
1490985874332,1,-4,-66,-18,6,14,22,-13,-1
1490985874332,1,77,36,57,40,5,22,5,10
1490985874333,2,-37,-8,-1,60,5,7,-9,10
1490985874333,2,-128,-46,-46,-46,-21,-34,-10,-6
1490985874333,0,113,86,74,8,-2,-5,-5,65
1490985874333,0,-84,-11,-28,-13,12,-16,46,-52
1490985874335,1,66,39,50,9,12,4,-26,22
1490985874335,1,61,14,1,77,-15,-20,13,-26
1490985874382,2,-106,-124,-108,-94,-21,62,-55,-4
1490985874382,2,-14,39,113,-21,-16,-87,73,-35
1490985874383,3,14,60,-111,96,18,16,-23,-93
1490985874383,3,2,82,46,-85,-8,-23,-10,16
1490985874383,1,-27,-60,65,-67,-37,1,-26,7
1490985874383,1,106,127,-107,20,68,40,-23,-23
1490985874384,2,-113,-128,-66,-52,-42,-26,21,65
1490985874384,2,44,100,54,-128,-39,-68,-55,-96
1490985874430,3,-37,-80,1,94,40,18,35,86
1490985874430,3,-92,60,63,110,8,-27,41,-42
1490985874430,0,63,-15,-128,-57,-16,24,-16,-73
1490985874430,0,8,-90,9,-63,-7,-8,7,37
1490985874431,2,-59,4,-57,-52,15,44,24,40
1490985874431,2,73,8,105,127,-11,64,-38,-22
1490985874432,3,17,-23,-32,-120,39,3,61,-25
1490985874432,3,-96,-41,34,44,9,-39,6,-45
1490985874478,0,103,121,46,-14,-27,-22,-77,36
1490985874478,0,-61,-128,-128,-85,-50,10,65,-38
1490985874480,1,-123,127,101,45,76,-22,-14,5
1490985874480,1,127,-49,-128,-120,-33,95,-68,75
1490985874481,3,120,45,17,36,36,18,-48,77
1490985874481,3,-54,-121,-53,-104,-78,7,37,-7
1490985874482,0,127,-42,-98,71,17,14,-35,63
1490985874482,0,-94,21,21,44,-17,34,12,-41
1490985874528,1,-96,22,55,98,4,-82,53,-64
1490985874528,1,28,-58,-72,36,17,3,-44,42
1490985874530,2,49,56,119,-62,-5,10,-48,17
1490985874530,2,67,-57,105,126,7,25,14,72
1490985874531,0,27,8,-29,127,-9,16,43,-85
1490985874531,0,-52,-49,-61,-105,8,20,-60,-38
1490985874532,1,95,18,50,80,-11,-13,-19,86
1490985874532,1,77,-103,19,-128,-72,1,-48,-65
1490985874577,2,-77,15,11,-38,15,-105,83,-128
1490985874577,2,78,-16,84,75,-11,-11,-59,13
1490985874579,3,-94,-105,6,4,33,105,70,-9
1490985874579,3,95,127,5,105,48,-11,19,62
1490985874580,1,-78,76,82,-34,-88,-128,77,-128
1490985874580,1,-115,40,-2,127,107,27,-58,-33
1490985874581,2,11,-70,-44,-103,-24,36,27,88
1490985874581,2,-21,-31,7,77,-2,-29,7,-85
1490985874625,3,-45,-23,-121,42,-18,9,-54,-59
1490985874625,3,59,-13,126,48,27,20,35,62
1490985874627,0,-35,26,-54,-30,35,-81,-34,-66
1490985874627,0,112,-76,-112,-128,-63,52,25,81
1490985874628,2,-91,-39,-36,9,42,60,-29,-18
1490985874628,2,-128,-34,-69,-59,47,-45,45,14
1490985874629,3,-8,46,32,-120,4,-21,21,69
1490985874629,3,88,99,-27,85,28,26,51,77
1490985874674,0,45,-98,49,-80,-65,-28,-20,-4
1490985874674,0,-55,118,122,127,64,18,-32,13
1490985874676,1,111,51,-76,22,43,54,-62,16
1490985874676,1,-70,-59,-81,-128,-72,-1,-59,-101
1490985874677,2,-62,-77,-60,-9,-20,-53,118,3
1490985874677,2,85,69,99,80,76,48,-61,28
1490985874678,3,-46,-128,-111,-128,-128,-31,24,-84
1490985874678,3,-75,96,-108,-73,63,-44,7,38
1490985874724,0,77,48,125,-95,-51,-5,-33,-92
1490985874724,0,-28,124,-33,63,-4,28,17,54
1490985874726,1,28,-113,-75,-90,35,17,-51,62
1490985874726,1,-3,-3,58,-4,-22,-26,89,-14
1490985874727,3,19,103,-113,-44,-53,-35,-16,-98
1490985874727,3,-43,-106,17,-6,-48,-22,11,-28
1490985874728,0,-128,-51,33,-9,-9,1,10,-53
1490985874728,0,117,92,127,127,99,41,10,-33
1490985874776,1,-88,10,-78,-108,-55,57,-35,127
1490985874776,1,3,-60,-113,50,15,-59,-27,-12
1490985874778,2,71,40,95,-62,-6,-5,51,-15
1490985874778,2,-128,-47,-118,-46,11,-7,27,-71
1490985874779,0,-78,46,53,36,-46,-23,73,127
1490985874779,0,60,45,22,-2,59,56,-60,11
1490985874780,1,9,-44,71,32,-7,34,-5,25
1490985874780,1,127,-38,-64,-31,1,43,-78,-92
1490985874820,2,-104,-43,33,91,13,4,-62,56
1490985874820,2,-63,-50,58,-128,-78,-23,86,-87
1490985874822,3,-21,-6,-6,10,-84,-105,17,8
1490985874822,3,-41,-6,-56,81,95,40,-12,-90
1490985874823,1,94,-12,-46,-96,-45,83,81,-96
1490985874823,1,-90,95,23,65,24,14,-29,41
1490985874824,2,127,127,55,53,-19,-29,-97,88
1490985874824,2,-85,-59,-21,-79,-60,-95,58,-63
1490985874869,3,6,83,90,92,107,45,-20,53
1490985874869,3,64,70,10,-128,-27,49,50,83
1490985874871,0,78,26,-81,23,-18,-1,-15,-64
1490985874871,0,-84,98,67,54,26,-38,17,-86
1490985874872,2,23,43,-97,-19,-56,-20,-19,-50
1490985874872,2,127,-100,-35,9,34,-11,33,87
1490985874873,3,-26,127,127,100,-16,-13,-1,-51
1490985874873,3,68,-62,-21,9,46,-6,-88,39
1490985874918,0,-93,-128,-85,-74,-28,-3,106,21
1490985874918,0,9,85,46,21,2,-24,-88,43
1490985874919,1,-48,-22,88,-62,37,-29,64,-4
1490985874919,1,-60,-77,-18,-98,-98,23,-33,-1
1490985874921,3,-94,27,110,114,62,17,13,85
1490985874921,3,91,127,-36,-45,1,-4,-77,-47
1490985874922,0,-78,-77,-47,-55,-2,-35,37,-66
1490985874922,0,108,86,68,-8,-83,23,0,-18
1490985874966,1,-83,-62,-128,-98,29,2,-14,-40
1490985874966,1,81,-5,127,127,-45,-20,55,35
1490985874968,2,-113,-55,-33,-31,18,6,-15,7
1490985874968,2,-15,-128,-128,-128,-5,-72,-4,-8
1490985874969,0,58,127,127,78,103,74,-25,39
1490985874969,0,-68,-105,-128,-128,-65,-27,14,-24
1490985874970,1,-79,84,88,-20,-63,-27,31,-40
1490985874970,1,85,-9,54,123,21,-2,-24,-6
1490985875015,2,-4,43,-24,-53,-14,2,6,51
1490985875015,2,85,29,104,116,49,38,-56,-36
1490985875017,3,-48,-106,-128,-105,-58,-23,31,1
1490985875017,3,25,50,-35,31,-83,-32,5,15
1490985875018,0,29,-25,108,127,112,69,-38,27
1490985875018,0,-2,122,64,86,-106,12,4,9
1490985875019,1,30,-128,-86,-80,39,-21,-27,-9
1490985875019,1,-97,-68,-14,50,-51,-50,79,-44
1490985875064,2,41,47,77,109,43,35,23,43
1490985875064,2,-22,10,34,95,91,40,-24,34
1490985875066,3,92,88,127,92,-36,13,-112,35
1490985875066,3,-18,-84,-128,-128,68,-11,16,-3
1490985875067,1,-25,60,87,98,13,94,-73,16
1490985875067,1,96,62,75,-88,44,-17,-11,40
1490985875068,2,-57,-80,-94,-79,-107,-89,-10,-72
1490985875068,2,-28,7,-14,98,69,-11,78,16
1490985875113,3,29,-35,-118,3,-35,-86,44,-43
1490985875113,3,43,127,127,127,123,61,-57,37
1490985875114,0,10,30,62,127,103,54,-10,2
1490985875114,0,1,-36,-105,-128,-107,4,-2,-10
1490985875116,2,22,39,67,-30,-40,-73,27,8
1490985875116,2,-34,-29,-101,-91,-59,26,-53,-11
1490985875117,3,9,26,71,37,71,-16,-2,11
1490985875117,3,-15,25,-40,-24,-71,6,4,-34
1490985875161,0,34,14,9,-11,-54,-2,-7,103
1490985875161,0,13,127,120,81,26,2,-81,-12
1490985875163,1,-84,-97,-109,-128,1,-56,-33,-70
1490985875163,1,-14,-65,-113,-121,-93,-4,76,-10
1490985875164,3,24,61,97,49,-27,39,-9,4
1490985875164,3,-24,18,27,40,20,-20,-53,17
1490985875165,0,-15,-43,-51,-120,-48,-25,-3,-30
1490985875165,0,3,-31,-72,70,30,24,-2,-14
1490985875210,1,11,8,96,-82,5,-32,68,41
1490985875210,1,-21,-35,-65,-30,-62,-42,43,-5
1490985875212,2,12,15,-8,107,94,62,0,4
1490985875212,2,-24,17,23,47,-64,-42,-22,12
1490985875213,0,-29,-45,-121,-100,-10,-38,34,-9
1490985875213,0,-13,-43,-37,-32,-23,-28,-45,-17
1490985875214,1,9,5,20,50,10,36,68,13
1490985875214,1,61,13,45,50,71,13,-53,29
1490985875259,2,-34,16,-9,-46,-31,-53,0,-31
1490985875259,2,3,-7,39,8,55,46,-22,-36
1490985875261,3,-17,-7,-42,-24,-32,-8,18,23
1490985875261,3,-14,22,-34,-2,-59,4,29,-4
1490985875262,1,41,-7,5,9,12,-20,-20,-10
1490985875262,1,17,11,19,23,72,26,-2,3
1490985875263,2,-11,3,-24,-23,-3,51,-34,-7
1490985875263,2,-18,14,48,7,12,-63,-68,-4
1490985875307,3,-2,-8,-73,-90,-24,54,39,-13
1490985875307,3,4,-4,13,33,-42,-29,2,6
1490985875309,0,3,-29,-2,-2,-59,-53,-17,-5
1490985875309,0,4,-4,15,-3,33,55,47,-7
1490985875312,2,-3,5,20,-13,-69,2,9,6
1490985875312,2,-3,-19,-5,19,83,43,-25,-4
1490985875312,3,29,-12,4,30,6,-29,-59,-6
1490985875312,3,-34,-26,-21,-6,-9,15,-1,-29
1490985875405,0,2,1,17,53,67,-7,15,19
1490985875405,0,28,-10,-21,-42,5,13,17,25
1490985875406,1,-7,5,-12,-35,0,-25,-17,-9
1490985875406,1,-5,4,8,28,80,27,-28,-22
1490985875407,3,11,-14,-5,10,103,94,61,30
1490985875407,3,-17,-8,-5,-30,-54,-54,3,3
1490985875408,0,-2,-2,3,0,-47,-37,-14,-6
1490985875408,0,21,-8,-20,-35,-49,14,-2,-7
1490985875454,1,8,2,-6,-17,-71,-44,14,21
1490985875454,1,-48,3,8,30,20,20,29,1
1490985875502,2,38,4,2,-1,31,6,-53,7
1490985875502,2,-26,-4,16,28,-79,28,36,5
1490985875503,3,5,-2,-1,2,-17,-3,0,-18
1490985875503,3,33,-1,-12,-7,60,22,13,-1
1490985875504,0,-7,-9,-7,10,65,10,17,6
1490985875504,0,8,-1,-1,-13,10,24,-5,-12
1490985875505,1,-12,-16,-6,9,-10,-55,-17,-2
1490985875505,1,-14,-6,8,9,-76,27,-6,-25
1490985875551,2,-2,-3,0,30,36,9,-15,2
1490985875551,2,-7,-10,1,-28,6,-22,-26,5
1490985875552,1,0,-10,9,33,58,8,3,15
1490985875552,1,22,1,2,-4,42,2,-6,6
1490985875553,2,16,20,-8,-8,3,56,6,10
1490985875553,2,-49,-16,18,27,-21,-16,35,-7
1490985875554,2,-49,-48,-56,-72,-25,-45,5,-11
1490985875554,2,83,39,20,-6,5,7,-48,1
1490985875600,3,-101,-28,6,13,-10,-3,61,-24
1490985875600,3,68,3,-2,1,-15,-1,-20,8
1490985875601,0,28,24,34,31,-10,-2,-12,40
1490985875601,0,19,85,-5,-5,12,5,15,29
1490985875602,3,105,49,-7,-7,-3,38,-37,7
1490985875602,3,-122,-55,-101,-71,-70,36,15,-35
1490985875603,0,60,-22,-10,11,38,43,1,-60
1490985875603,0,20,17,65,3,-4,-28,13,-5
1490985875648,1,-39,64,74,47,19,-29,-18,5
1490985875648,1,22,-48,7,11,1,-39,27,23
1490985875650,2,11,14,-44,-89,-6,-17,-11,14
1490985875650,2,-39,-36,-67,102,12,-4,19,-20
1490985875651,0,-3,85,115,121,1,10,26,-2
1490985875651,0,3,-59,-68,-106,27,-6,-35,-7
1490985875651,1,31,56,20,24,-17,-2,8,9
1490985875651,1,-45,-58,-95,24,7,-19,-15,-36
1490985875697,2,11,-55,45,-45,-18,-5,4,6
1490985875697,2,-22,88,64,91,29,53,29,10
1490985875698,3,14,-19,-106,-128,-20,-27,-10,30
1490985875698,3,-9,-74,-87,-98,-26,10,36,-4
1490985875701,1,24,36,127,86,23,9,-40,18
1490985875701,1,-26,63,-78,108,51,-5,12,-14
1490985875702,2,7,-41,-18,-128,-31,0,2,-1
1490985875702,2,14,-51,-95,-92,-39,-6,12,21
1490985875746,3,-17,-36,33,72,-3,-4,29,-51
1490985875746,3,10,83,93,27,43,-41,-36,-1
1490985875747,0,28,56,-18,11,18,12,2,27
1490985875747,0,9,-81,-95,-10,-24,-20,-26,-24
1490985875748,1,-74,-38,-11,-128,-48,3,36,-17
1490985875748,1,38,-22,117,98,-16,-32,-15,-48
1490985875749,2,-34,46,12,50,45,6,-14,19
1490985875749,2,11,36,-63,-68,-9,0,-24,-40
1490985875795,3,38,-24,30,-51,-27,-5,36,30
1490985875795,3,-80,-74,40,46,38,8,-6,-26
1490985875796,0,29,36,25,-15,-13,-13,17,28
1490985875796,0,-5,26,56,99,17,19,-38,12
1490985875797,2,-27,-27,-128,-108,-25,41,36,7
1490985875797,2,29,-33,78,69,30,-37,-9,-24
1490985875798,3,-35,39,85,24,4,-11,3,49
1490985875798,3,67,108,-54,-19,13,21,-18,45
1490985875844,0,-54,-110,-76,61,4,-25,28,-69
1490985875844,0,1,127,64,73,36,15,-45,-47
1490985875845,1,48,-31,-103,-61,-46,-29,-28,-9
1490985875845,1,3,-68,16,64,-13,14,36,-2
1490985875846,3,-2,-56,33,7,-21,-30,8,-26
1490985875846,3,-4,12,-79,14,-36,-3,14,-2
1490985875847,0,-15,-6,21,-45,-22,7,58,14
1490985875847,0,15,-33,39,44,22,-16,32,3
1490985875893,1,33,14,-116,-45,33,33,-76,3
1490985875893,1,-77,-41,53,-127,-20,25,18,-7
1490985875894,2,-21,30,96,117,32,9,-54,9
1490985875894,2,-51,-85,-16,-88,-25,-15,12,29
1490985875895,0,48,-77,58,15,-34,-24,7,19
1490985875895,0,-69,-4,1,-9,-10,14,68,-23
1490985875896,1,69,96,53,127,67,10,-83,-7
1490985875896,1,-60,-101,32,-108,-14,-17,-17,22
1490985875941,2,42,77,9,-11,-8,24,-13,-23
1490985875941,2,38,10,-72,-7,-21,-24,-10,17
1490985875943,3,-65,-117,60,-4,-30,1,62,-7
1490985875943,3,88,90,-74,9,28,-5,38,28
1490985875944,1,-6,-65,-116,28,45,12,6,9
1490985875944,1,36,19,127,-101,-33,-11,22,26
1490985875945,2,-26,23,-22,40,-9,-2,-2,-42
1490985875945,2,-3,-40,56,-55,-4,-2,-75,25
1490985875990,3,-42,98,58,95,-20,-23,21,-11
1490985875990,3,-19,-101,-128,-105,-25,-17,-65,-64
1490985875992,0,-21,0,-43,-11,-17,-12,42,19
1490985875992,0,51,68,53,105,35,15,42,-21
1490985875993,2,-26,2,-39,-74,-19,-29,-2,2
1490985875993,2,5,36,-66,26,2,10,-8,33
1490985875994,3,-92,-128,-95,-57,-16,8,53,-16
1490985875994,3,67,47,61,47,23,-9,24,4
1490985876039,0,-91,-51,-3,18,13,-9,-69,-4
1490985876039,0,-8,-118,-98,-128,-62,-26,81,-15
1490985876040,1,56,64,20,-3,-30,-13,-35,18
1490985876040,1,1,21,-7,127,23,-22,-2,-15
1490985876041,3,-24,5,-41,-29,4,-3,-22,-11
1490985876041,3,-13,8,-15,-70,12,-1,23,23
1490985876042,0,52,17,-90,-17,-12,-29,14,-60
1490985876042,0,13,-37,66,45,38,17,-44,-6
1490985876087,1,31,8,-38,-20,-12,-10,60,19
1490985876087,1,-46,-14,49,-39,1,4,-58,-44
1490985876089,2,-17,6,62,34,-3,-3,17,-9
1490985876089,2,-13,-13,-128,-13,-39,-12,5,-2
1490985876091,3,30,-16,127,-16,24,-7,10,18
1490985876091,3,54,9,71,52,-54,9,33,3
1490985876092,0,-4,4,-7,37,67,13,18,23
1490985876092,0,-27,0,-20,-39,-24,-16,-48,-34
1490985876136,1,21,-26,14,33,19,-2,-7,-27
1490985876136,1,-62,90,-67,-13,-40,19,15,-2
1490985876138,2,31,-50,-7,-85,-7,-17,17,-33
1490985876138,2,13,4,-35,19,-12,-8,5,3
1490985876139,0,-8,0,16,11,7,34,39,22
1490985876139,0,-12,20,52,67,-11,4,-12,2
1490985876140,1,-35,40,-23,-82,-6,7,-4,-21
1490985876140,1,22,-36,-66,-31,-8,-6,-7,31
1490985876185,2,2,-23,-68,-15,2,25,30,3
1490985876185,2,20,-17,20,-15,-9,-2,6,2
1490985876186,3,35,43,26,-54,-33,-12,-15,-3
1490985876186,3,-70,-41,10,65,32,13,23,-34
1490985876187,1,50,-10,-13,48,18,-2,-2,20
1490985876187,1,15,28,26,12,-4,4,-36,-25
1490985876188,2,-32,-19,-30,-34,6,-10,23,-17
1490985876188,2,38,3,23,-16,9,12,-55,-4
1490985876234,3,-12,-14,-12,6,-7,17,29,23
1490985876234,3,2,-11,-20,-35,-33,-3,36,14
1490985876235,0,21,51,31,80,35,0,-6,2
1490985876235,0,-27,-33,-44,-26,-4,0,18,11
1490985876236,2,-16,20,84,-40,-38,-5,33,-6
1490985876236,2,15,18,3,-3,17,-12,-48,-17
1490985876237,3,-54,18,80,42,-17,4,0,-14
1490985876237,3,40,23,-41,20,0,-2,35,13
1490985876282,0,-45,-75,-42,-31,-2,4,-5,3
1490985876282,0,45,39,4,-5,16,9,17,10
1490985876284,1,-72,7,12,19,-5,0,-35,-16
1490985876284,1,51,21,29,18,14,4,35,3
1490985876285,3,41,2,-44,-67,-11,-28,-33,-17
1490985876285,3,3,4,-39,-3,21,-3,-18,-8
1490985876286,0,8,-14,-31,-42,-54,-10,-2,11
1490985876286,0,-42,-5,35,48,27,-20,47,14
1490985876331,1,-1,35,5,37,-2,13,-15,-8
1490985876331,1,-54,-6,5,7,20,9,-45,-7
1490985876332,2,44,23,40,-20,-6,6,32,5
1490985876332,2,21,-12,-22,-12,-23,8,-19,-5
1490985876333,0,0,-24,-23,6,6,-5,-13,-4
1490985876333,0,12,21,1,-31,-17,2,-7,-17
1490985876334,1,52,21,25,27,18,-15,33,27
1490985876334,1,-51,-20,-4,2,-6,16,15,1
1490985876380,2,-11,20,11,17,14,-22,-22,-11
1490985876380,2,51,-44,3,7,-1,4,-31,11
1490985876383,3,-14,18,-15,-17,-11,6,25,-36
1490985876383,3,-53,-2,13,-8,-1,-18,-27,12
1490985876385,1,-23,5,34,31,7,15,0,-30
1490985876385,1,69,12,-65,10,-1,-4,-3,50
1490985876387,2,-39,-13,53,-44,-3,28,22,24
1490985876387,2,27,23,7,-5,-11,-9,-6,-12
1490985876430,3,-86,-9,-4,-18,-10,-18,22,6
1490985876430,3,-23,-19,-38,-67,-15,-21,-57,-58
1490985876436,0,1,-43,-28,53,15,25,29,18
1490985876436,0,7,81,42,10,1,6,-14,-8
1490985876438,1,22,-40,42,-13,2,8,14,30
1490985876438,1,21,1,14,22,0,1,22,-8
1490985876440,2,13,22,-7,24,-11,-10,-55,13
1490985876440,2,-61,-22,-15,-1,5,-2,64,-16
1490985876477,3,17,-30,-38,-6,-2,-11,-41,17
1490985876477,3,-14,-27,1,-23,-4,5,-4,-14
1490985876478,0,124,85,25,-23,-6,-9,71,25
1490985876478,0,-78,-4,2,42,13,2,-41,6
1490985876481,2,-28,-37,-18,18,4,-4,-19,-26
1490985876481,2,108,59,23,-43,-2,10,-13,15
1490985876482,3,-25,-15,12,44,30,2,-18,-24
1490985876482,3,28,-45,8,24,-15,5,-19,29
1490985876526,0,-85,30,-72,-44,-1,-14,55,21
1490985876526,0,-47,-77,1,58,7,-1,-36,12
1490985876527,1,116,127,57,-14,9,27,-3,5
1490985876527,1,-1,-82,17,13,-17,-25,15,-18
1490985876528,3,-29,-46,28,78,17,-12,35,21
1490985876528,3,-38,55,27,33,-2,-6,34,-11
1490985876528,0,12,-40,-19,-57,-33,-24,-63,-45
1490985876528,0,-27,71,18,-2,2,-7,34,16
1490985876576,1,58,22,9,-44,-2,-6,-33,40
1490985876576,1,28,36,74,103,32,22,7,29
1490985876576,2,16,-87,-54,-58,-8,3,-12,-10
1490985876576,2,-40,34,-52,-40,-16,-22,49,-39
1490985876577,0,37,76,6,28,7,2,-25,-102
1490985876577,0,57,-70,-23,-39,-3,0,11,-20
1490985876578,1,-104,47,27,41,-8,-24,-22,0
1490985876578,1,127,111,-66,-49,-16,6,-13,-25
1490985876624,2,-128,-100,18,15,7,14,-21,30
1490985876624,2,9,47,71,78,-3,-24,17,30
1490985876624,3,0,78,-123,-79,29,4,21,-9
1490985876624,3,-78,-41,56,-41,-7,0,-21,22
1490985876625,1,122,20,5,9,-29,-13,-28,-29
1490985876625,1,7,127,82,33,11,17,70,73
1490985876626,2,-82,-9,-122,-5,17,0,-60,2
1490985876626,2,36,-77,21,-64,-48,9,-13,127
1490985876672,3,-123,-86,107,127,-4,-12,27,-74
1490985876672,3,127,87,-108,-49,12,-22,-68,-59
1490985876673,0,-23,-68,4,-55,5,50,-17,35
1490985876673,0,64,89,-23,96,19,-29,54,12
1490985876673,2,127,77,107,127,26,10,42,51
1490985876673,2,-27,-77,-83,-112,-16,37,-94,9
1490985876675,3,-87,31,35,-90,-17,7,47,13
1490985876675,3,30,10,78,124,3,-12,-15,55
1490985876721,0,52,127,-64,-119,-23,-6,-25,-28
1490985876721,0,-128,-78,31,64,28,-7,56,-39
1490985876722,1,122,54,-123,-70,-53,-4,-27,32
1490985876722,1,-128,-119,-54,-81,-44,-41,-23,-78
1490985876723,3,-14,-33,-31,78,37,26,-34,-59
1490985876723,3,62,84,-115,45,20,24,23,58
1490985876724,0,-3,-67,125,-70,-43,-34,-97,-119
1490985876724,0,-49,29,-59,-4,14,35,57,63
1490985876770,1,48,-48,90,-56,-22,-32,10,14
1490985876770,1,-53,-84,-128,-72,18,24,14,21
1490985876771,2,121,-42,101,0,-33,-22,21,35
1490985876771,2,-123,36,21,25,34,11,-2,-39
1490985876772,0,-128,-65,45,28,-38,-66,-55,-85
1490985876772,0,-45,-82,30,73,0,-35,-25,-10
1490985876773,1,-43,127,-118,-80,-16,30,23,72
1490985876773,1,72,-107,71,127,21,24,2,-31
1490985876819,2,-63,-59,37,104,74,-12,-28,46
1490985876819,2,36,43,-83,-113,-118,-15,6,39
1490985876820,3,30,-33,75,120,17,-9,52,-71
1490985876820,3,-4,26,127,30,37,-2,-55,44
1490985876821,0,22,-92,-88,-110,-52,14,23,61
1490985876821,0,-10,15,-47,85,60,8,-25,-83
1490985876822,1,3,-128,4,-121,-58,-2,-41,104
1490985876822,1,50,50,127,-128,-71,-49,79,-1
1490985876867,2,-56,90,106,127,70,-8,-35,-38
1490985876867,2,74,103,35,52,45,42,54,82
1490985876869,3,-59,-112,-118,1,6,-34,-58,-113
1490985876869,3,-44,-44,-105,-101,-89,-12,9,-39
1490985876870,1,-128,-22,127,-6,105,-5,60,-16
1490985876870,1,25,22,-86,5,6,4,-65,-77
1490985876871,2,103,67,21,-114,-51,-19,2,66
1490985876871,2,-121,-65,94,62,-26,7,-13,-25
1490985876916,3,-18,24,73,42,72,21,10,-9
1490985876916,3,-33,-50,-61,-95,-61,-39,-24,-106
1490985876918,0,-74,-41,-128,16,-54,-7,29,-45
1490985876918,0,-42,34,81,18,-27,-37,73,-80
1490985876919,2,20,-6,-58,104,49,48,-13,-69
1490985876919,2,35,-76,-105,-128,-57,-30,-47,9
1490985876920,3,49,40,-1,26,-55,-33,65,-92
1490985876920,3,-85,-69,127,120,89,65,-18,24
1490985876965,0,27,28,-109,57,86,44,20,48
1490985876965,0,4,100,127,-76,-42,8,-36,56
1490985876966,1,-21,-128,-128,-128,-48,-12,7,-47
1490985876966,1,127,34,-104,-109,-61,-21,12,127
1490985876967,3,-91,-88,-105,-107,-94,10,-88,-18
1490985876967,3,-78,92,127,127,12,-47,53,-11
1490985876968,0,70,-61,-7,33,45,12,58,60
1490985876968,0,86,127,-125,-75,-65,-5,-16,-47
1490985877014,1,-38,-50,112,12,2,14,26,76
1490985877014,1,79,24,-39,24,60,10,-15,47
1490985877015,2,69,41,-10,-55,-128,-5,-3,-42
1490985877015,2,75,126,19,-50,76,-27,47,17
1490985877016,0,46,-8,-43,-126,-63,-5,-41,58
1490985877016,0,39,-107,-33,81,-30,19,-12,-21
1490985877017,1,-50,-84,-39,-42,-19,1,69,95
1490985877017,1,82,67,127,127,78,43,-46,-66
1490985877063,2,-73,-25,38,-33,18,-17,15,-56
1490985877063,2,-67,51,106,50,33,2,-58,-7
1490985877064,3,127,-55,64,116,66,41,22,21
1490985877064,3,-34,68,-112,-107,-103,-24,-66,17
1490985877065,1,44,64,39,-74,-37,-18,11,73
1490985877065,1,-61,-119,-100,73,63,21,0,-15
1490985877066,2,88,39,50,43,-7,3,-1,-83
1490985877066,2,-118,-97,-78,-98,-44,37,28,-98
1490985877111,3,32,111,24,46,-38,-8,-49,-24
1490985877111,3,90,81,-116,-94,16,26,16,64
1490985877112,0,-128,-82,56,91,91,-43,32,2
1490985877112,0,63,-5,-68,-21,-39,-12,-59,-74
1490985877113,2,-66,123,103,127,26,3,-22,28
1490985877113,2,-45,-16,-2,90,85,46,35,64
1490985877114,3,-61,73,-26,-56,-85,-76,-68,-123
1490985877114,3,45,-114,-45,-43,-51,-21,54,-8
1490985877160,0,-55,-39,24,-57,11,-17,18,13
1490985877160,0,36,-26,-109,-75,-66,-26,-24,39
1490985877161,1,100,2,47,15,78,-2,46,54
1490985877161,1,-16,94,127,-38,31,17,-49,-58
1490985877161,2,30,-110,-127,-70,-82,-25,37,53
1490985877161,2,-75,59,0,102,44,-37,-56,-30
1490985877162,3,87,-32,-128,-99,40,66,-10,10
1490985877162,3,-100,-27,19,1,-79,-37,86,-33
1490985877209,0,50,6,13,42,70,-18,-42,-3
1490985877209,0,37,54,41,-17,-35,-22,-70,69
1490985877210,1,-56,123,107,127,50,5,96,-23
1490985877210,1,40,-119,-126,-128,-48,-5,-56,-13
1490985877211,3,127,111,100,79,-2,33,14,82
1490985877211,3,-111,-70,-75,93,38,39,3,-34
1490985877213,0,98,127,103,14,52,2,-44,32
1490985877213,0,33,-128,-74,-124,-109,-11,95,45
1490985877306,1,27,57,15,-5,3,-35,-56,-11
1490985877306,1,18,127,84,83,75,1,43,8
1490985877307,2,-90,-85,2,14,-44,10,-42,-20
1490985877307,2,34,15,-36,-95,34,10,67,14
1490985877308,0,117,-33,-112,5,-6,20,26,69
1490985877308,0,8,63,98,-36,-55,-14,47,47
1490985877309,1,-124,-84,-128,-84,-46,3,-60,-98
1490985877309,1,53,42,40,81,-7,-31,62,97
1490985877355,2,-12,-11,3,-128,1,37,-39,-103
1490985877355,2,57,-37,-93,36,15,6,51,-17
1490985877356,3,123,17,32,73,-3,45,53,80
1490985877356,3,-29,60,126,95,66,4,-75,25
1490985877357,1,24,-54,-26,-107,-38,-41,-48,-45
1490985877357,1,-69,-63,-128,-90,-128,-44,70,-57
1490985877358,2,70,118,62,-86,6,40,-14,0
1490985877358,2,3,6,-31,127,-14,-17,5,38
1490985877452,3,-80,-110,-128,-128,-82,-30,26,-47
1490985877452,3,20,16,7,71,-35,-19,26,7
1490985877454,0,9,21,10,115,42,3,5,5
1490985877454,0,23,39,57,-53,9,29,-3,1
1490985877456,3,-24,-29,-74,-17,3,7,30,-14
1490985877456,3,-41,-37,51,-5,-22,-35,-60,-45
1490985877457,0,22,7,-85,-17,22,77,19,50
1490985877457,0,-10,-67,-1,31,-6,-17,19,-11
1490985877501,1,73,46,23,-14,-40,4,-29,18
1490985877501,1,-90,-32,-60,-83,9,11,-7,-20
1490985877504,2,25,9,44,13,-5,-26,-58,-2
1490985877504,2,13,10,-90,-90,-56,21,60,8
1490985877505,0,12,-8,-36,-54,-49,-15,-29,-18
1490985877505,0,-2,39,102,82,57,12,-32,-30
1490985877506,0,-54,-111,-26,-37,25,-8,24,-7
1490985877506,0,28,-35,37,23,-16,42,20,7
1490985877550,1,-26,-46,-25,-42,-5,8,-32,-35
1490985877550,1,10,-31,-38,-57,-96,15,6,-11
1490985877552,2,17,-3,-47,-17,98,-31,-16,5
1490985877552,2,32,20,11,-3,-39,15,22,25
1490985877554,1,28,5,-14,35,83,12,-22,-2
1490985877554,1,-19,25,34,22,-50,-6,31,3
1490985877555,2,28,-9,-20,31,-1,-27,22,-7
1490985877555,2,-5,-2,-5,-18,-94,-22,-12,14
1490985877599,3,-3,4,-6,-55,47,23,43,9
1490985877599,3,1,2,5,16,-22,-8,-17,-1
1490985877601,0,-3,-5,11,44,34,10,51,22
1490985877601,0,-14,-24,-12,-34,-1,-45,-31,-17
1490985877602,2,-13,-34,-21,-1,-78,-15,14,-21
1490985877602,2,-2,21,-2,3,44,49,-52,-10
1490985877603,3,4,16,4,21,-121,-35,-3,0
1490985877603,3,29,1,-19,-25,68,-36,37,-6
1490985877647,0,-14,6,4,30,15,47,-18,23
1490985877647,0,2,4,0,8,17,0,38,-14
1490985877649,1,-6,-4,2,-38,-42,30,61,9
1490985877649,1,3,-3,-2,41,-33,-45,-65,-8
1490985877651,3,3,-12,-13,34,51,15,-18,-11
1490985877651,3,1,8,5,12,-51,-63,-103,-3
1490985877651,0,-42,-1,-31,-12,64,-24,-128,-25
1490985877651,0,5,-10,-34,-8,-14,-5,-87,-28
1490985877696,1,39,24,4,36,-10,42,-15,57
1490985877696,1,-31,-12,-4,7,90,91,86,-17
1490985877698,2,14,13,8,36,-71,-26,92,-26
1490985877698,2,-29,-3,-25,-79,65,65,91,6
1490985877699,0,19,9,-29,-5,-58,25,56,-12
1490985877699,0,-12,10,-4,42,75,39,38,22
1490985877700,1,7,9,3,-4,-46,-41,28,-7
1490985877700,1,-8,-5,7,-2,-26,-29,54,26
1490985877745,2,-14,-10,1,-17,8,-7,20,-20
1490985877745,2,23,26,31,15,-55,-21,20,-7
1490985877747,3,-38,4,21,1,38,-54,11,-1
1490985877747,3,7,-1,-6,-54,-50,-67,20,0
1490985877749,1,-14,2,15,-4,5,18,-3,19
1490985877749,1,1,11,16,17,-31,32,3,-13
1490985877750,2,7,11,9,-1,6,12,2,16
1490985877750,2,-12,23,14,-8,-80,57,8,7
1490985877842,3,8,2,5,-4,-2,62,-4,-17
1490985877842,3,-33,-7,2,13,29,54,6,-5
1490985877843,0,6,-7,-20,-76,-27,51,3,-6
1490985877843,0,11,-9,15,35,5,6,2,16
1490985877844,2,15,-14,14,64,16,-71,0,16
1490985877844,2,-10,-21,-15,-71,-23,-22,-2,-5
1490985877845,3,-18,2,18,7,-109,5,-2,-38
1490985877845,3,62,2,1,-17,-48,-35,5,78
1490985877891,0,-64,-9,5,21,62,-10,-1,-31
1490985877891,0,16,-9,8,20,36,-10,0,11
1490985877892,1,27,14,18,11,-94,-33,-1,-2
1490985877892,1,4,-11,-8,1,50,17,2,15
1490985877892,2,19,0,8,17,-23,-13,-2,-1
1490985877892,2,-14,-5,11,8,-9,31,1,-15
1490985877894,3,32,1,15,28,-17,9,-2,16
1490985877894,3,-29,-8,7,32,-17,-20,0,-10
1490985877940,0,-17,-4,-11,-28,20,11,0,-12
1490985877940,0,26,2,0,0,23,-19,-1,3
1490985877942,1,-8,13,2,27,39,-2,-1,-12
1490985877942,1,-7,-5,-1,-20,4,-13,1,-21
1490985877944,0,23,-5,3,13,-17,-3,-1,13
1490985877944,0,-15,15,4,-5,26,-17,0,12
1490985877945,1,-32,-5,2,5,-14,-11,0,-39
1490985877945,1,-15,-50,-36,-22,-6,-3,0,10
1490985878184,2,-1,-6,29,-1,41,26,0,-3
1490985878184,2,25,12,-6,13,-43,-13,0,30
1490985878186,3,10,-24,-25,-21,-17,-11,-1,-21
1490985878186,3,-42,11,29,2,8,-3,0,-25
1490985878187,1,-38,-72,16,15,-14,2,-1,-17
1490985878187,1,69,-19,-32,23,18,-7,-1,27
1490985878188,2,-20,-11,13,-59,-11,8,0,4
1490985878188,2,0,52,-4,-17,-16,24,0,-18
1490985878232,3,-14,29,80,61,-8,-18,0,27
1490985878232,3,5,10,-46,29,36,-27,0,-18
1490985878233,0,19,23,-37,-54,-13,6,-1,20
1490985878233,0,22,-74,24,38,-26,0,0,-25
1490985878234,2,-11,-12,-72,-59,-11,-6,-1,48
1490985878234,2,-18,24,35,23,-9,-12,0,-27
1490985878235,1,71,88,124,127,54,57,-5,41
1490985878235,1,-103,66,-111,-91,-37,-16,-2,22
1490985878281,2,-84,-90,-128,-89,-39,-11,2,-59
1490985878281,2,47,65,61,118,2,-5,-1,56
1490985878282,3,-49,-95,15,-119,-13,-8,-3,-6
1490985878282,3,48,27,-52,17,-45,3,-1,-39
1490985878282,2,52,50,80,60,29,2,1,60
1490985878282,2,11,2,62,83,-8,6,-1,-67
1490985878283,3,33,73,-46,-65,44,0,-2,-20
1490985878283,3,45,-100,-48,-100,-49,-17,0,9
1490985878379,0,-111,2,-9,67,-5,-26,0,-107
1490985878379,0,56,35,-39,-30,-13,22,-1,69
1490985878380,1,30,32,-20,7,-7,13,-1,26
1490985878380,1,-56,-9,120,102,31,-20,-1,-26
1490985878381,3,-59,-31,-29,21,9,-40,-1,-4
1490985878381,3,8,79,64,-35,8,7,-1,4
1490985878383,0,-51,-34,16,105,17,-1,0,-2
1490985878383,0,86,80,13,78,49,12,-1,75
1490985878429,1,-109,-33,1,-35,-16,19,-1,-37
1490985878429,1,97,58,-29,25,10,1,-1,4
1490985878430,2,-106,-49,-81,-69,-4,5,0,34
1490985878430,2,64,6,55,-128,-23,-7,-1,-46
1490985878431,0,50,-13,-122,-102,-31,-30,0,-3
1490985878431,0,-99,-5,23,19,10,-16,-1,-68
1490985878432,1,-93,-14,78,75,-18,-47,3,9
1490985878432,1,96,14,-78,-31,-1,-7,1,-26
1490985878476,2,-74,45,127,-43,-22,-4,3,9
1490985878476,2,-94,-40,-78,-11,33,16,-15,-51
1490985878477,3,15,-19,-12,-77,-40,-11,-38,-47
1490985878477,3,-16,42,10,30,11,-26,-21,8
1490985878479,2,-36,-60,-125,-120,1,7,11,-104
1490985878479,2,86,-20,-12,3,-21,-30,-35,42
1490985878479,3,54,28,-37,46,16,35,-4,-9
1490985878479,3,-128,-40,21,50,-24,-14,12,-19
1490985878525,0,125,35,48,-4,-26,9,-91,34
1490985878525,0,13,-17,13,1,96,50,28,8
1490985878526,1,26,-57,-90,-3,-41,-13,15,18
1490985878526,1,50,-7,-9,-24,-18,3,-40,-13
1490985878527,3,-6,101,69,67,8,-11,-25,-25
1490985878527,3,2,-125,-85,-100,-18,-8,-23,26
1490985878527,0,-66,37,-44,-20,-6,-17,27,-50
1490985878527,0,55,25,69,48,0,1,-58,28
1490985878574,1,-79,-113,-110,-87,-5,16,35,-2
1490985878574,1,54,70,-9,8,-7,8,-10,-43
1490985878575,2,-3,-15,65,19,23,7,63,2
1490985878575,2,36,60,-62,22,-32,10,-29,81
1490985878576,3,85,60,-61,-40,-14,-14,5,-28
1490985878576,3,-88,-57,11,-23,18,9,-23,-37
1490985878576,0,-21,-71,9,23,-5,-18,18,18
1490985878576,0,51,29,26,41,0,12,-64,-24
1490985878622,1,85,62,62,75,25,7,32,49
1490985878622,1,-74,4,-66,-96,-27,-17,22,-7
1490985878625,2,19,-21,-42,-25,12,7,10,22
1490985878625,2,-27,-77,-28,34,-19,-18,10,-6
1490985878625,0,-86,-58,22,12,-15,18,-9,-32
1490985878625,0,-16,-72,-67,-25,-9,12,-1,-1
1490985878628,1,22,14,29,48,23,1,-29,-28
1490985878628,1,10,-26,43,-26,10,-1,48,23
1490985878671,2,-56,-14,-40,5,-19,-10,-36,-10
1490985878671,2,59,38,15,22,30,5,-11,6
1490985878673,3,37,-6,1,-14,-7,21,42,20
1490985878673,3,-28,-1,53,0,7,-1,-52,-42
1490985878674,1,25,108,-17,19,-38,-41,-71,21
1490985878674,1,14,-18,-9,7,6,-28,51,-22
1490985878675,2,98,43,16,17,29,22,-18,20
1490985878675,2,-104,2,72,-14,-21,13,-1,-16
1490985878720,3,-39,-74,-53,-43,-19,-12,39,14
1490985878720,3,-48,-14,23,60,17,-23,-11,-24
1490985878721,0,36,65,-11,56,42,26,2,-19
1490985878721,0,65,-7,22,19,0,9,25,20
1490985878723,2,47,-6,-50,-39,-26,-29,2,21
1490985878723,2,59,19,36,-23,2,-22,25,8
1490985878769,3,-5,-32,18,-12,-5,-10,-22,2
1490985878769,3,-93,-13,54,64,22,30,-20,30
1490985878770,0,-3,15,-28,49,4,-21,34,-14
1490985878770,0,16,18,-56,-99,-11,24,18,35
1490985878771,1,-32,43,-29,16,-1,-10,-28,-12
1490985878771,1,3,-41,92,-5,-13,-10,30,-4
1490985878772,3,26,-15,2,-25,6,8,-14,-4
1490985878772,3,39,108,32,55,-4,44,-21,49
1490985878818,0,-6,-65,10,-13,19,5,15,-53
1490985878818,0,-2,21,-76,-56,-27,-23,-40,-27
1490985878819,1,45,-47,-12,-46,4,-7,57,18
1490985878819,1,71,43,47,15,-22,-6,34,4
1490985878820,0,-47,10,24,-86,-13,-18,25,-20
1490985878820,0,8,-62,-3,36,-4,11,-11,-5
1490985878821,1,-103,75,33,38,28,9,23,25
1490985878821,1,42,29,-21,11,-9,-22,48,1
1490985878866,2,40,-6,23,8,7,0,-64,-9
1490985878866,2,72,59,60,32,1,9,29,-6
1490985878868,3,55,-51,-89,-33,-1,0,1,-18
1490985878868,3,-128,-38,-32,-31,-33,-33,-14,-11
1490985878869,1,66,-27,9,-40,0,22,-35,-16
1490985878869,1,20,-16,-23,-46,-26,10,-16,-4
1490985878869,2,-28,81,19,-42,-21,-28,5,-30
1490985878869,2,-17,3,-1,36,16,14,12,24
1490985878915,3,62,21,14,8,19,-1,-4,8
1490985878915,3,-24,40,-89,-69,-13,11,22,-9
1490985878916,0,-73,-109,-74,24,13,4,-17,-63
1490985878916,0,-1,5,35,22,-36,-16,2,34
1490985878917,1,35,69,127,94,46,25,1,-17
1490985878917,1,-36,-50,-109,-18,6,-20,-6,-8
1490985878918,2,101,-52,-93,-95,-50,0,32,45
1490985878918,2,-15,43,52,33,-11,-28,-16,-102
1490985878963,3,73,-51,-16,50,42,23,5,92
1490985878963,3,49,25,74,35,15,-9,-62,-69
1490985878965,0,-8,71,-123,39,-5,5,67,27
1490985878965,0,-70,-123,18,-102,-7,-2,-37,-22
1490985878966,2,-13,36,41,62,9,9,-33,-46
1490985878966,2,54,17,-107,-52,32,19,35,61
1490985878966,3,-128,-97,-76,11,-32,-11,45,22
1490985878966,3,90,100,-79,-71,-24,0,-16,62
1490985879012,0,-109,-128,35,-61,-28,-11,-3,-105
1490985879012,0,63,97,100,61,58,-3,12,13
1490985879013,1,10,34,15,75,15,13,-40,1
1490985879013,1,45,-39,-51,54,13,29,11,63
1490985879014,3,17,-74,-11,-57,22,2,-68,5
1490985879014,3,7,67,-36,38,-7,-14,63,19
1490985879015,0,-10,-26,21,-21,-2,0,-3,37
1490985879015,0,-115,59,-115,66,9,12,-19,43
1490985879061,1,-27,-89,-60,-29,-28,-6,75,-90
1490985879061,1,33,-11,96,53,29,30,-34,-13
1490985879062,2,40,56,62,91,6,-13,7,104
1490985879062,2,56,-46,-108,-65,10,-2,-33,-77
1490985879063,0,49,68,85,18,1,39,4,-17
1490985879063,0,-23,-99,-39,-93,0,-22,-39,60
1490985879064,1,127,34,35,59,18,2,-41,-124
1490985879064,1,-90,25,29,6,-20,-4,49,28
1490985879110,2,-94,-91,-37,-75,10,-16,9,9
1490985879110,2,56,108,102,112,45,-9,22,66
1490985879111,3,-100,0,-128,-128,-26,47,-67,-115
1490985879111,3,-39,-101,127,-37,54,-14,52,32
1490985879111,1,121,84,36,-46,-29,-63,81,66
1490985879111,1,-58,-8,-1,52,43,39,14,-94
1490985879112,2,93,-25,127,91,81,82,-92,40
1490985879112,2,115,47,-114,-122,-36,12,60,38
1490985879159,3,-100,-116,82,42,-22,-46,7,-68
1490985879159,3,24,-86,-128,-43,-46,-33,-62,32
1490985879160,0,-71,99,116,61,44,-1,122,78
1490985879160,0,18,0,66,106,59,11,-88,-128
1490985879161,2,-26,4,-34,-121,-41,-71,-26,-116
1490985879161,2,33,-15,127,44,27,-20,21,17
1490985879164,3,-78,92,-45,77,11,6,107,103
1490985879164,3,34,-57,-45,8,-13,32,-120,-80
1490985879208,0,25,32,-122,-72,-17,44,1,61
1490985879208,0,-79,9,-23,-98,-51,7,49,93
1490985879209,1,-57,-113,-50,51,93,-88,40,-81
1490985879209,1,40,127,127,-37,-47,42,-15,34
1490985879210,3,-75,-79,16,-60,-51,12,31,95
1490985879210,3,117,118,45,127,24,11,6,26
1490985879211,0,-91,-49,-111,-25,-26,-64,13,1
1490985879211,0,33,56,127,-52,40,0,75,-51
1490985879256,1,127,73,-66,127,3,44,-59,-1
1490985879256,1,-79,50,-30,-107,5,22,-99,13
1490985879257,2,-48,-104,18,-89,-74,-42,66,29
1490985879257,2,-40,1,-79,101,99,0,10,-69
1490985879258,3,120,127,93,-92,-37,15,-30,-32
1490985879258,3,-126,-128,-119,-102,-57,-15,-13,-25
1490985879259,0,127,93,10,-23,-46,-31,52,85
1490985879259,0,36,39,56,51,20,15,29,32
1490985879305,1,-97,-97,-1,-91,30,4,3,-56
1490985879305,1,127,80,49,127,41,21,17,10
1490985879402,2,-5,-14,-128,-128,16,24,-110,-70
1490985879402,2,-103,32,105,66,-60,9,70,36
1490985879404,0,-94,-117,-96,-88,-31,-59,75,50
1490985879404,0,122,68,79,76,-24,0,-53,-72
1490985879404,1,113,107,127,118,52,31,-24,52
1490985879404,1,73,93,-79,-29,5,-14,14,-2
1490985879405,2,-20,-39,65,-25,-78,42,-90,-57
1490985879405,2,-18,10,-85,-89,-31,-32,59,101
1490985879451,3,36,49,52,27,51,61,-6,69
1490985879451,3,-49,70,-29,-70,55,77,22,-62
1490985879500,1,93,5,77,93,-33,-34,58,38
1490985879500,1,113,51,-76,47,117,38,-3,-15
1490985879501,2,-76,-19,86,44,41,82,9,-18
1490985879501,2,71,27,17,-18,-48,-61,-58,51
1490985879502,3,-127,-116,33,-24,38,-33,-78,-8
1490985879502,3,82,127,-13,-16,-81,19,30,-45
1490985879503,0,-34,-37,-112,120,-58,-45,14,-52
1490985879503,0,-79,-74,-5,-56,8,-27,-68,-47
1490985879646,1,-35,-76,-98,-37,-10,2,76,31
1490985879646,1,30,-120,-34,-6,-57,-51,-18,-56
1490985879647,0,110,40,36,36,-22,-9,-19,-63
1490985879647,0,127,-11,97,-20,-45,-40,-10,49
1490985879649,1,-23,107,67,68,123,65,16,22
1490985879649,1,63,28,-92,-128,-128,22,-70,49
1490985879650,1,-89,-110,-51,-88,-73,-19,51,56
1490985879650,1,-6,127,127,127,127,62,-55,64
1490985879695,2,-72,-70,-94,-59,-128,-43,-80,-2
1490985879695,2,20,-128,-126,-84,31,-53,102,-54
1490985879696,3,-45,22,58,46,-46,-67,-9,-32
1490985879696,3,33,11,91,46,127,36,-23,-26
1490985879698,2,127,127,127,127,127,38,-82,30
1490985879698,2,-77,-43,-13,-128,-35,42,-75,2
1490985879698,3,-19,50,42,45,4,34,6,29
1490985879698,3,-23,-34,-87,-15,-128,-57,-46,-74
1490985879744,0,-61,18,91,59,121,82,124,35
1490985879744,0,113,127,63,120,-69,4,-105,8
1490985879745,1,-2,-31,-31,-115,64,52,35,42
1490985879745,1,-29,95,94,53,-8,-24,-15,-27
1490985879747,0,28,-110,-128,-13,68,-3,17,36
1490985879747,0,-14,0,-19,-78,-87,5,7,61
1490985879754,1,29,-22,-128,8,-128,-38,-31,-50
1490985879754,1,-101,-55,68,6,43,13,76,-17
1490985879793,2,76,79,45,127,15,11,37,38
1490985879793,2,-65,94,-24,41,17,11,25,-11
1490985879794,3,26,-128,-128,-56,-18,4,-26,-5
1490985879794,3,-49,-12,-99,-93,19,-20,1,4
1490985879796,1,46,66,51,33,-109,2,-36,30
1490985879796,1,12,-28,-106,-128,68,-25,16,16
1490985879797,2,-76,-87,-104,-89,-118,-18,-8,-92
1490985879797,2,32,50,127,127,36,15,-13,37
1490985879841,3,18,51,-30,-84,-33,-17,41,28
1490985879841,3,-4,-35,-78,8,29,-23,9,-31
1490985879842,0,11,41,5,56,63,6,-64,5
1490985879842,0,-41,5,-25,-57,-97,-11,34,-42
1490985879842,2,-7,-97,-35,6,32,-22,21,8
1490985879842,2,24,-22,45,-27,5,0,-20,4
1490985879844,3,-21,-23,95,125,40,-2,3,2
1490985879844,3,0,-97,-92,-98,-88,-67,-40,-53
1490985879890,0,-75,-86,0,48,3,16,56,-2
1490985879890,0,54,8,5,79,62,37,-12,-4
1490985879890,1,-7,-99,-59,-128,-74,-23,47,6
1490985879890,1,6,13,0,73,-17,15,-41,-18
1490985879891,3,47,90,95,103,-1,68,-3,38
1490985879891,3,-31,-3,-18,0,53,10,49,30
1490985879892,0,3,3,-42,-80,43,-29,-33,-28
1490985879892,0,1,3,21,-40,-103,-54,19,5
1490985879939,1,-12,6,-9,37,19,49,-4,-12
1490985879939,1,59,6,3,-75,-13,13,-39,-1
1490985879939,2,-55,27,-16,-40,37,31,24,-2
1490985879939,2,11,28,22,17,33,19,54,3
1490985879940,0,-6,5,15,1,36,-35,-3,-11
1490985879940,0,14,11,35,-13,-118,-20,-25,-8
1490985879941,1,-29,-52,-92,-56,1,22,32,-16
1490985879941,1,36,15,4,-24,-60,-44,55,25
1490985879987,2,-18,0,-5,-53,-85,18,-116,-21
1490985879987,2,-17,-20,7,-3,113,92,38,6
1490985879988,3,-2,5,21,46,-84,-26,-47,5
1490985879988,3,18,7,31,53,32,19,28,-2
1490985879988,0,34,22,7,-25,-75,27,51,13
1490985879988,0,-10,-13,5,60,-14,-69,-83,28
1490985879994,1,-34,-24,-54,-76,115,-1,0,-31
1490985879994,1,-21,-9,19,27,33,18,-71,-7
1490985880085,2,72,22,26,27,-127,-58,-1,40
1490985880085,2,-46,-20,-19,-3,56,11,11,-27
1490985880085,3,20,-3,-10,-4,-54,-28,16,4
1490985880085,3,-12,16,38,51,-98,19,-21,-8
1490985880086,1,6,-3,14,59,2,-20,-45,-25
1490985880086,1,3,18,-8,-11,62,62,112,78
1490985880087,2,-25,-1,5,12,-43,24,-38,-34
1490985880087,2,23,12,24,23,-128,-83,-24,-19
1490985880133,3,-24,-6,-15,-14,25,9,34,26
1490985880133,3,-14,7,13,30,24,-44,-61,-20
1490985880182,0,4,17,-1,-13,26,-32,5,9
1490985880182,0,18,3,-11,-3,55,-20,-19,9
1490985880183,2,32,-17,-12,-13,-4,-29,-25,28
1490985880183,2,-28,-12,-15,-4,-52,1,28,-29
1490985880184,3,35,-4,-2,2,22,15,0,25
1490985880184,3,-47,7,11,4,-46,-2,21,-21
1490985880185,0,13,-6,-15,-10,27,4,17,-30
1490985880185,0,-20,-10,-4,-17,-41,-12,-12,3
1490985880231,1,21,7,5,5,-83,-8,9,-8
1490985880231,1,21,-3,9,8,36,-3,46,20
1490985880232,0,-2,-5,5,8,18,-30,-16,3
1490985880232,0,21,1,-6,-30,-24,-9,-5,3
1490985880233,1,-12,-3,10,23,-21,10,61,13
1490985880233,1,25,6,5,-18,54,19,13,19
1490985880234,1,-36,-9,0,9,9,1,-34,-27
1490985880234,1,-11,-4,-12,-37,-34,-4,-25,-24
1490985880280,2,25,15,15,-3,-10,7,-20,18
1490985880280,2,-2,-10,-8,17,19,-10,23,8
1490985880281,3,11,15,14,7,6,8,37,16
1490985880281,3,3,8,15,33,-6,-36,-17,-7
1490985880281,2,-9,2,9,6,-7,-6,-10,1
1490985880281,2,38,-11,-13,3,45,-5,-32,2
1490985880282,3,4,12,-13,-16,-27,26,13,16
1490985880282,3,-56,-7,11,-5,31,25,24,-28
1490985880329,0,22,5,0,10,-17,-16,26,3
1490985880329,0,1,10,1,22,48,1,29,25
1490985880330,1,25,-9,-4,-10,-42,-11,-20,-3
1490985880330,1,0,14,18,2,7,10,-34,37
1490985880331,2,-12,-48,-44,-22,-22,-2,2,-7
1490985880331,2,-44,-41,-6,-1,13,9,-2,-44
1490985880332,3,41,21,10,2,11,31,-4,18
1490985880332,3,2,17,3,21,8,-10,35,-10
1490985880426,0,5,15,18,-7,-8,-6,-26,15
1490985880426,0,26,-38,-10,2,-17,-15,-1,15
1490985880427,1,-59,-35,-9,-27,7,23,-2,-30
1490985880427,1,25,5,-43,-23,-16,4,17,7
1490985880428,3,12,29,9,-25,-20,-20,-32,8
1490985880428,3,0,-79,-4,-22,-9,-2,-18,-9
1490985880475,0,16,58,-71,32,43,7,39,20
1490985880475,0,-15,3,111,30,-8,-23,6,-6
1490985880476,1,10,76,58,14,29,52,1,33
1490985880476,1,19,-82,-98,-88,-42,21,5,0
1490985880477,2,-73,-56,-39,-46,8,33,-46,-56
1490985880477,2,92,53,52,66,-4,-3,2,40
1490985880478,0,28,45,22,14,16,12,-9,-74
1490985880478,0,-52,-85,-78,-20,-13,14,-6,15
1490985880524,1,42,32,-72,26,-7,-14,26,-32
1490985880524,1,-52,51,-86,-51,-12,-12,10,-49
1490985880525,2,38,-60,18,73,-5,-18,-26,48
1490985880525,2,-84,34,-81,-35,44,22,-21,-63
1490985880526,3,61,-15,127,-28,-43,-14,-14,-21
1490985880526,3,26,80,0,9,47,4,-1,-12
1490985880527,2,61,45,83,70,-11,19,-6,14
1490985880527,2,-59,-51,-10,25,-13,-12,-21,-4
1490985880573,3,57,73,-40,-82,-24,7,-12,19
1490985880573,3,-83,-116,13,-47,9,-8,-17,-23
1490985880574,0,-67,86,-12,82,13,-39,21,-84
1490985880574,0,63,126,81,38,25,8,-20,0
1490985880575,3,-86,7,-58,-36,22,-3,6,0
1490985880575,3,59,-65,-11,13,-14,16,-17,7
1490985880576,0,-2,13,39,30,25,24,-3,-18
1490985880576,0,-28,31,-20,15,-11,-24,38,-22
1490985880621,1,5,40,127,63,4,-6,-45,57
1490985880621,1,39,15,6,95,26,5,5,-14
1490985880670,2,-17,1,-84,-128,-42,-20,26,0
1490985880670,2,-63,-66,-128,-113,-17,-18,-32,27
1490985880671,0,22,-78,-57,-103,-42,20,-18,-28
1490985880671,0,57,90,42,25,-16,10,42,39
1490985880671,1,-112,-59,-92,26,-13,16,25,6
1490985880671,1,14,42,88,-7,12,16,15,0
1490985880672,2,65,15,41,85,35,-1,-44,18
1490985880672,2,-21,4,47,-53,-45,-40,1,-18
1490985880718,3,85,80,-70,124,69,2,-2,50
1490985880718,3,-26,2,120,-76,3,-4,-42,28
1490985880719,0,-32,-44,-13,50,-41,6,54,38
1490985880719,0,-25,-59,-128,-128,10,-7,9,18
1490985880720,1,21,34,62,9,-47,-25,-2,-94
1490985880720,1,-36,-56,88,91,19,-7,15,29
1490985880721,1,-30,-44,38,-52,33,-4,-25,85
1490985880721,1,55,68,-58,-63,-57,-50,-18,-21
1490985880767,2,-113,-91,77,-74,6,-8,55,-45
1490985880767,2,-2,14,-28,70,15,0,62,4
1490985880768,3,2,-4,-9,16,-34,-23,-36,-8
1490985880768,3,-26,-32,-23,-74,41,5,-36,51
1490985880769,2,26,13,-100,-76,-18,17,-15,41
1490985880769,2,-62,-121,34,-90,-35,-3,3,-16
1490985880770,3,6,-66,-51,40,-6,2,34,65
1490985880770,3,127,95,8,-40,-24,4,23,-41
1490985880816,0,-128,-93,28,50,33,-12,-38,-95
1490985880816,0,94,118,124,-45,-38,-6,-33,36
1490985880817,1,25,-52,-128,75,14,-16,55,62
1490985880817,1,-67,-18,81,-88,-37,-10,-4,27
1490985880818,3,-75,7,127,68,20,-1,-38,-49
1490985880818,3,-7,18,-68,-95,-10,2,33,-27
1490985880820,0,70,53,-27,40,-18,4,-37,10
1490985880820,0,-49,-82,20,48,29,-6,-16,10
1490985880865,1,-26,75,-37,-10,-6,8,46,9
1490985880865,1,31,-8,-11,31,17,-1,-21,-28
1490985880866,2,-52,-35,-39,-41,-6,18,-16,16
1490985880866,2,21,7,30,-10,1,21,4,25
1490985880867,0,-70,-82,-120,-127,-8,18,-48,-71
1490985880867,0,56,84,88,3,-13,-12,81,-22
1490985880867,1,-37,-61,66,-45,-6,-17,-74,-3
1490985880867,1,50,25,-32,40,-17,0,53,23
1490985880914,2,-10,67,100,51,6,14,-32,34
1490985880914,2,-13,-4,-81,34,28,23,-1,-22
1490985880915,3,17,-120,-108,-128,-45,-18,-31,-34
1490985880915,3,-3,16,38,3,9,4,13,-14
1490985880916,1,20,111,32,-18,2,9,41,-2
1490985880916,1,-19,-52,-69,-111,-54,-25,-48,-24
1490985880918,2,35,-9,-79,5,7,-16,42,10
1490985880918,2,-33,-14,86,19,-1,-5,-8,38
1490985880962,3,36,-11,3,85,28,43,-34,-17
1490985880962,3,21,24,9,13,18,17,-2,15
1490985880964,0,-28,-25,5,-30,7,-9,-20,-16
1490985880964,0,-54,-27,-84,-11,-33,7,7,-62
1490985880965,2,40,19,-67,27,37,7,-22,25
1490985880965,2,-37,-24,-7,-53,-25,-17,17,-7
1490985880966,3,-6,78,57,38,15,-11,-31,-37
1490985880966,3,19,-49,-35,48,32,4,5,9
1490985881011,0,-22,66,73,16,-13,-14,-7,-31
1490985881011,0,-8,-40,-23,-5,17,28,-3,-15
1490985881012,1,56,17,-88,-78,-5,1,-9,-7
1490985881012,1,-48,-37,25,46,-15,-8,-11,11
1490985881013,3,-11,4,3,-28,-13,5,45,12
1490985881013,3,53,-36,-28,16,10,-12,6,-14
1490985881014,0,-10,49,23,-4,-16,-7,2,23
1490985881014,0,-50,-64,-19,-42,-13,26,-1,-37
1490985881060,1,50,-13,-1,57,7,1,7,46
1490985881060,1,-14,-12,-10,-54,-24,-8,-1,-7
1490985881061,2,6,-8,-22,-50,28,1,22,33
1490985881061,2,73,71,3,30,-36,-15,-28,10
1490985881062,3,-51,-76,5,-25,1,-15,-5,1
1490985881062,3,-20,31,-24,31,5,4,27,-1
1490985881063,0,-19,-46,14,-60,-23,4,-18,-15
1490985881063,0,63,40,-21,8,-1,-13,32,19
1490985881109,1,-56,-53,25,49,-21,-32,-6,10
1490985881109,1,64,47,43,30,14,-3,-35,8
1490985881110,2,58,3,-21,-30,19,-2,18,2
1490985881110,2,-107,-21,-67,14,-43,12,-21,4
1490985881111,0,62,55,55,37,14,9,-25,20
1490985881111,0,-3,5,-26,13,5,6,36,7
1490985881112,1,-4,-5,14,4,-14,6,-47,-17
1490985881112,1,-114,-52,-31,-10,-5,-8,15,9
1490985881206,2,36,18,42,-6,20,28,3,15
1490985881206,2,24,-14,-32,-10,-9,-23,-36,-13
1490985881207,3,9,-15,-66,-3,-23,27,19,6
1490985881207,3,-38,1,38,-24,3,-12,0,-20
1490985881208,1,75,40,-1,27,23,24,9,-5
1490985881208,1,-74,-24,6,28,-17,4,-13,-26
1490985881209,2,27,25,14,22,39,6,13,22
1490985881209,2,-71,-50,-51,-80,-17,-22,60,-42
1490985881255,3,71,21,19,-12,-5,-5,-63,8
1490985881255,3,39,28,-5,3,-7,-28,34,8
1490985881256,0,-63,-42,-21,-8,-21,-5,-26,-5
1490985881256,0,73,67,60,11,27,0,-15,17
1490985881257,2,29,9,55,-10,-10,-32,-23,-19
1490985881257,2,82,59,-27,17,-16,-23,-18,37
1490985881258,3,-63,-1,78,89,16,15,-15,6
1490985881258,3,82,79,93,89,24,29,-68,7
1490985881303,0,-64,-104,-119,-93,-28,3,42,15
1490985881303,0,-7,14,29,-89,-20,2,-19,-35
1490985881305,1,69,-70,-54,11,11,-7,-31,43
1490985881305,1,-62,57,35,81,11,-13,51,-8
1490985881305,0,50,68,-11,87,24,8,-46,-8
1490985881305,0,-28,6,-34,-22,-26,31,64,35
1490985881306,1,-34,-65,3,-8,13,12,-98,-36
1490985881306,1,117,127,23,29,19,30,41,64
1490985881352,2,-128,-128,-51,26,7,-4,-32,9
1490985881352,2,-39,42,-24,-78,-70,-33,63,87
1490985881353,3,89,103,127,62,13,-28,12,-74
1490985881353,3,-101,-114,-69,63,7,28,9,20
1490985881354,1,16,11,66,-13,-12,-9,34,8
1490985881354,1,80,57,74,-29,-18,-1,-57,17
1490985881355,2,-8,-30,-70,23,0,25,-53,-98
1490985881355,2,-42,38,92,-43,14,-7,40,24
1490985881401,3,46,23,36,70,2,10,13,-42
1490985881401,3,-78,-19,-51,-111,-22,-12,45,27
1490985881402,0,-128,-91,-55,-71,-31,5,99,32
1490985881402,0,127,49,20,108,18,-25,-26,-70
1490985881403,1,-72,-69,45,96,47,-3,3,34
1490985881403,1,42,-77,-9,118,58,40,-44,13
1490985881403,2,-69,88,80,121,-11,19,-114,-46
1490985881403,2,94,-128,-128,-76,-24,49,64,77
1490985881450,3,-33,7,127,11,-31,-35,26,-75
1490985881450,3,-25,33,18,53,36,-43,43,-16
1490985881457,0,39,12,57,48,-1,0,-31,-15
1490985881457,0,-75,19,4,6,8,-27,-2,-44
1490985881458,2,-39,-70,29,-54,-11,2,-9,29
1490985881458,2,85,81,102,105,37,16,-40,-54
1490985881459,3,-22,39,-62,-32,20,26,35,64
1490985881459,3,46,-24,-37,16,-6,-7,-42,-8
1490985881499,0,-39,127,-65,-54,-5,63,-20,22
1490985881499,0,37,-96,-128,-128,-78,-91,-13,-99
1490985881500,1,5,13,107,40,-4,-34,50,116
1490985881500,1,1,-10,-118,-13,-5,7,-50,-58
1490985881501,3,87,127,69,42,45,64,-88,28
1490985881501,3,17,-59,40,-114,-55,-23,17,52
1490985881502,0,-128,-82,-41,67,6,-61,8,-88
1490985881502,0,70,2,-70,42,-64,-3,12,127
1490985881547,1,23,-35,-38,-44,-18,-1,-24,-14
1490985881547,1,14,34,59,-45,-8,-35,-38,-20
1490985881549,2,116,44,-115,77,46,43,8,16
1490985881549,2,-103,97,127,25,36,-17,44,-101
1490985881549,0,-21,91,88,-38,-28,-80,93,-65
1490985881549,0,10,10,-37,6,17,6,-78,52
1490985881550,1,-64,46,3,9,-7,-17,118,-80
1490985881550,1,28,19,-41,67,20,-11,78,40
1490985881596,2,-39,92,-89,5,14,70,-98,12
1490985881596,2,-111,-105,72,-98,38,-5,-11,61
1490985881597,3,43,-124,-69,-97,-93,-84,-10,41
1490985881597,3,43,-44,-49,125,2,-18,40,-84
1490985881598,1,-61,-20,-29,-128,-15,-4,13,-111
1490985881598,1,54,46,12,31,-3,-16,35,85
1490985881599,2,27,-47,104,96,55,-35,5,102
1490985881599,2,-22,26,-106,-45,9,76,7,-30
1490985881645,3,-35,-113,80,-111,-75,-15,-8,-27
1490985881645,3,7,76,-128,57,70,-1,6,23
1490985881646,0,-67,19,113,-20,1,46,40,-41
1490985881646,0,32,78,127,41,24,-6,-14,-23
1490985881647,2,-110,-80,-113,-54,4,-22,60,63
1490985881647,2,119,-46,-36,-67,-126,-5,-99,-34
1490985881648,3,-106,-92,127,-29,-32,-46,84,-110
1490985881648,3,18,89,-18,112,121,53,-100,86
1490985881695,0,127,26,-69,-94,-63,30,-62,-41
1490985881695,0,-125,-128,-41,-1,-9,-61,78,46
1490985881701,1,114,45,64,59,38,-27,-44,-23
1490985881701,1,-128,12,74,56,63,43,22,-36
1490985881703,3,-75,-24,-108,-100,4,-15,12,33
1490985881703,3,91,58,-119,-90,-120,30,-17,-21
1490985881704,0,-14,4,119,86,11,2,22,-42
1490985881704,0,46,56,-122,60,74,52,-61,51
1490985881743,1,-25,-38,-86,-42,-27,-16,-48,17
1490985881743,1,75,-63,14,32,-57,-70,123,94
1490985881745,2,-128,-70,86,62,-4,-9,-10,-88
1490985881745,2,127,66,-61,-48,-67,-2,-20,85
1490985881746,3,-24,28,58,127,127,59,17,30
1490985881746,3,6,-20,-128,-128,-75,-9,-104,-77
1490985881747,0,40,-35,119,60,-27,-47,36,59
1490985881747,0,-116,59,61,127,86,-45,91,-101
1490985881793,1,127,-16,-103,55,6,57,-73,-44
1490985881793,1,-85,-42,-23,-58,-60,19,3,50
1490985881795,2,13,-9,26,-55,79,11,82,-36
1490985881795,2,52,55,77,47,-6,57,-17,59
1490985881796,0,31,73,-96,-113,47,46,54,73
1490985881796,0,42,111,21,49,-12,-21,-40,-96
1490985881796,1,-56,-58,-64,-48,-61,-46,46,44
1490985881796,1,64,-25,-11,118,-73,20,-48,10
1490985881888,2,-111,-104,41,-61,51,-33,1,-22
1490985881888,2,49,-35,-86,90,92,45,4,-78
1490985881890,3,127,60,-16,-53,-10,52,4,103
1490985881890,3,-113,39,47,56,35,-32,29,-87
1490985881891,1,5,-52,-51,-103,-77,45,-17,-33
1490985881891,1,-96,-44,61,-51,70,-12,44,76
1490985881892,2,89,127,33,127,56,-38,-84,33
1490985881892,2,-128,-58,-47,-128,12,-8,-35,-28
1490985881937,3,-99,-40,-45,-19,-66,-32,48,-54
1490985881937,3,103,64,84,72,34,17,11,54
1490985881939,0,81,72,-7,112,-12,-11,6,82
1490985881939,0,-38,19,-94,-123,-12,-67,-74,-128
1490985881940,2,-108,-84,-128,-90,-82,-11,88,-115
1490985881940,2,93,-45,-87,-33,-38,-12,5,74
1490985881941,3,-117,-68,7,-21,103,-26,88,-47
1490985881941,3,-19,72,63,-94,-2,-3,18,-13
1490985881986,0,9,33,-128,58,-29,-15,26,-38
1490985881986,0,-3,-17,127,127,23,20,-15,69
1490985881987,1,126,127,-30,-22,14,9,-62,-47
1490985881987,1,-118,-128,-128,-128,-99,-13,75,12
1490985881988,0,-128,-112,-81,60,-88,-46,64,6
1490985881988,0,-128,-128,68,-85,21,8,10,-45
1490985881989,1,116,120,127,127,9,-4,-14,105
1490985881989,1,-61,45,-97,-102,35,91,-18,-52
1490985882035,2,17,-105,-66,-84,-93,-58,-4,29
1490985882035,2,29,-51,60,93,9,-10,49,-29
1490985882036,3,-35,31,-48,-24,57,10,2,3
1490985882036,3,120,53,34,-14,-70,0,-3,75
1490985882037,1,22,-15,127,65,43,-60,38,-12
1490985882037,1,81,102,-13,56,1,5,63,22
1490985882038,2,73,81,24,73,100,65,-101,26
1490985882038,2,-32,7,-109,-128,-79,-50,1,43
1490985882132,3,-77,-113,-2,87,-69,-9,28,-5
1490985882132,3,-51,71,33,103,74,22,-50,-93
1490985882134,0,98,51,53,48,12,-33,-59,26
1490985882134,0,-49,-58,-61,-9,29,-12,23,35
1490985882134,1,-80,15,-128,-22,-128,-79,2,-76
1490985882134,1,-8,-61,61,85,78,43,79,5
1490985882135,2,71,127,127,127,9,62,-7,35
1490985882135,2,127,46,-32,25,70,11,-68,50
1490985882182,3,-90,-102,-128,-128,-98,-48,52,-53
1490985882182,3,-117,-61,-82,-5,-18,3,7,-4
1490985882184,0,-33,-84,118,-3,-19,20,45,-36
1490985882184,0,62,127,80,127,-1,-36,-38,-13
1490985882231,3,-39,-40,11,20,12,4,-2,14
1490985882231,3,41,74,101,127,49,-23,-24,21
1490985882232,0,-55,-24,-76,-80,-43,-40,-2,-28
1490985882232,0,-30,-89,-104,-84,-73,-28,40,6
1490985882282,1,53,-10,81,90,19,-26,-69,8
1490985882282,1,-62,-34,72,25,-4,18,25,-10
1490985882283,2,58,127,-10,27,-9,-34,-60,2
1490985882283,2,-22,-56,-118,-128,-30,-18,53,-7
1490985882284,0,-48,18,127,127,70,45,-21,38
1490985882284,0,33,46,12,5,-61,-4,-15,-8
1490985882286,1,45,65,22,-52,-73,-15,-48,12
1490985882286,1,14,-40,-51,-48,26,38,61,1
1490985882327,2,27,-39,-54,62,-86,-66,-33,29
1490985882327,2,16,21,89,36,-68,93,-27,-4
1490985882330,1,-37,-14,-36,-6,-79,-13,12,20
1490985882330,1,-5,-66,-7,-117,16,-28,31,-22
1490985882332,2,-27,-63,-98,57,-65,-35,-15,-25
1490985882332,2,51,17,47,20,16,-26,-18,24
1490985882334,2,-5,21,-67,-56,29,23,-6,3
1490985882334,2,-30,-94,-128,-128,-26,-64,23,-16
1490985882376,3,-43,13,58,60,-128,-79,-87,-29
1490985882376,3,-4,13,26,12,-76,63,102,33
1490985882377,0,47,40,73,6,127,78,-17,28
1490985882377,0,-49,-26,94,19,-67,-21,-19,-18
1490985882379,3,98,76,-73,14,6,-38,-125,-20
1490985882379,3,-76,-80,100,-120,-97,39,60,-12
1490985882380,0,50,82,19,93,-28,-6,26,1
1490985882380,0,12,24,-2,55,123,1,-44,-18
1490985882473,1,22,-60,-82,-68,-13,6,75,37
1490985882473,1,-1,30,-11,-10,-48,-37,-92,-57
1490985882474,2,-20,-7,32,25,49,6,-27,-2
1490985882474,2,118,76,-28,-116,-71,5,-20,20
1490985882475,0,32,48,63,127,6,-7,-3,-19
1490985882475,0,-56,-81,-92,-64,57,-19,-5,-49
1490985882571,1,85,-44,8,-32,-3,32,109,22
1490985882571,1,27,1,0,50,63,-4,-9,32
1490985882573,2,-17,11,14,127,95,-3,66,-7
1490985882573,2,44,50,127,83,0,-8,-61,-7
1490985882575,3,-24,27,-56,-118,-86,-5,20,-30
1490985882575,3,-73,-101,-128,-16,20,-1,24,58
1490985882575,0,38,-30,99,-92,-78,-11,21,15
1490985882575,0,-58,8,8,-8,70,9,12,-39
1490985882620,1,-94,8,127,124,47,23,-32,-41
1490985882620,1,13,21,32,36,-32,-6,48,4
1490985882632,2,-3,-44,-51,-73,53,21,13,-19
1490985882632,2,-23,59,36,127,9,2,-20,-53
1490985882633,3,37,25,35,-123,-40,-10,-53,29
1490985882633,3,32,-111,-94,-54,-16,-6,10,-5
1490985882634,3,-51,-60,71,91,34,16,47,1
1490985882634,3,113,0,-48,-46,-15,17,-79,17
1490985882669,0,-128,-27,-29,-100,12,-13,16,-40
1490985882669,0,17,19,48,41,-15,-34,15,14
1490985882670,1,59,-22,-128,-126,-42,-28,-26,43
1490985882670,1,6,-4,127,93,45,25,27,-25
1490985882671,0,-26,42,65,-82,-69,-19,-22,-4
1490985882671,0,-46,-62,51,72,81,24,58,40
1490985882672,1,6,99,70,68,25,-6,-31,32
1490985882672,1,15,-67,-5,-53,-26,-7,-4,-58
1490985882717,2,14,-36,-37,123,59,47,-3,24
1490985882717,2,81,18,-3,-68,-84,-28,-11,-6
1490985882718,3,15,-10,2,-46,18,5,10,70
1490985882718,3,-52,38,-60,79,19,-18,-39,-25
1490985882719,1,67,-105,-82,-114,-14,-18,-17,-43
1490985882719,1,-128,-14,-70,75,17,13,79,-30
1490985882720,2,51,15,98,-53,8,5,-34,11
1490985882720,2,66,48,28,-1,-13,-1,19,11
1490985882766,3,-59,-42,-48,9,-5,-10,-6,-39
1490985882766,3,4,68,49,48,13,18,31,61
1490985882767,0,-3,16,-112,46,48,-7,-30,-30
1490985882767,0,15,50,112,89,35,18,-33,-5
1490985882768,2,-57,25,87,108,-45,-17,4,32
1490985882768,2,-1,-108,-18,43,42,23,-24,27
1490985882769,3,-91,47,58,-11,38,-22,-4,-69
1490985882769,3,120,12,-20,-40,22,16,-25,-10
1490985882815,0,-33,-10,50,-93,-50,-19,20,23
1490985882815,0,-18,38,36,-13,4,-1,16,-73
1490985882816,1,66,-40,-41,8,23,34,4,58
1490985882816,1,-26,127,107,-33,6,-7,3,-2
1490985882817,2,-11,-92,-124,9,11,7,12,50
1490985882817,2,-99,-15,-93,-84,-46,-40,-28,-33
1490985882818,3,109,42,84,86,30,19,61,-11
1490985882818,3,-36,-14,-43,-90,-48,18,-39,32
1490985882863,0,53,48,-12,-52,15,-5,18,56
1490985882863,0,-116,-45,-1,88,56,3,34,-2
1490985882865,1,78,62,18,106,-21,7,-27,-28
1490985882865,1,-35,-4,15,-21,11,-11,-13,66
1490985882867,3,-65,-46,-102,-62,0,-13,26,10
1490985882867,3,84,15,76,127,7,-3,14,-55
1490985882868,0,80,127,70,-50,75,27,-22,68
1490985882868,0,16,-128,-109,-80,-67,-17,3,8
1490985882916,1,29,-5,12,26,-31,-7,27,-20
1490985882916,1,104,78,96,41,29,0,-29,54
1490985882917,2,-78,-123,-90,-63,-16,23,-8,-56
1490985882917,2,92,89,127,29,34,22,13,71
1490985882918,0,115,42,-18,34,-39,-37,-5,-60
1490985882918,0,-128,-39,17,29,13,-1,10,48
1490985882920,1,10,-70,-37,-30,13,-5,50,-60
1490985882920,1,-48,20,10,-14,18,2,-15,-51
1490985882961,2,55,93,-8,5,27,13,-23,78
1490985882961,2,84,-1,-65,-22,-19,-2,19,-24
1490985882963,3,-50,-72,-49,-38,-5,-8,-21,33
1490985882963,3,6,46,99,-26,-4,4,-35,-67
1490985882964,1,42,85,10,55,12,18,-17,68
1490985882964,1,-46,-128,-85,-82,-21,-31,48,25
1490985882965,2,-25,-6,-3,78,-7,-29,-35,-55
1490985882965,2,-125,-92,-24,33,14,-2,-24,-40
1490985883010,3,-12,26,-23,-92,-39,-31,-8,-28
1490985883010,3,8,63,90,-46,-60,-1,7,58
1490985883012,0,99,46,-23,30,71,-29,-5,12
1490985883012,0,-69,-122,-44,-28,-29,42,62,-27
1490985883013,2,25,96,127,22,15,12,-77,-13
1490985883013,2,62,-1,-128,-86,-9,-10,0,-34
1490985883014,3,-28,-96,7,-26,-21,-2,-12,-9
1490985883014,3,-52,37,24,8,16,1,32,-20
1490985883059,0,38,13,50,25,-8,15,-5,22
1490985883059,0,-17,10,-69,-66,-4,-25,-59,9
1490985883060,1,68,53,-13,-54,8,-34,69,-30
1490985883060,1,106,-15,9,24,0,-29,-3,-10
1490985883061,3,2,18,-92,-55,-3,-12,-38,-26
1490985883061,3,86,12,-43,-26,11,16,-1,29
1490985883062,0,-73,-46,35,-12,-8,4,14,9
1490985883062,0,4,74,35,59,33,-7,29,16
1490985883107,1,60,12,31,53,-24,52,15,33
1490985883107,1,-92,-54,-27,6,50,10,-12,-24
1490985883108,2,32,30,-62,-62,-46,-3,-40,78
1490985883108,2,-114,-35,22,-25,-17,-18,68,-36
1490985883109,0,-28,8,43,-50,-13,29,-11,-20
1490985883109,0,8,-34,-28,-117,-28,8,37,25
1490985883110,1,54,22,44,15,-6,-17,-20,-42
1490985883110,1,5,47,-6,115,1,25,21,11
1490985883156,2,-34,-12,32,66,48,-8,-24,-10
1490985883156,2,30,44,19,10,6,54,-15,24
1490985883157,3,-128,-76,5,-21,-13,-21,-13,-4
1490985883157,3,6,16,-84,-70,-33,-25,-41,-85
1490985883158,0,-5,-42,-32,-27,-6,5,17,80
1490985883158,0,-28,31,52,2,-3,4,44,-33
1490985883159,1,5,20,74,76,6,-31,0,-26
1490985883159,1,42,-23,-1,43,-3,14,-16,49
1490985883205,2,-49,20,-53,-60,-21,34,24,-31
1490985883205,2,31,26,-75,-64,-46,-38,-24,-10
1490985883206,3,-97,-62,26,19,24,37,28,13
1490985883206,3,112,66,127,42,-4,-19,12,38
1490985883207,1,-37,-48,-43,-68,-11,-17,33,-15
1490985883207,1,-11,34,14,-29,15,21,8,47
1490985883208,2,-58,-35,-1,92,8,-1,-44,-49
1490985883208,2,-34,-36,-41,-73,-10,23,36,12
1490985883253,3,125,44,-18,-41,0,-3,-26,-14
1490985883253,3,-128,-69,10,12,9,6,45,-9
1490985883255,0,39,8,14,-4,8,5,21,3
1490985883255,0,62,27,7,89,7,4,1,29
1490985883256,2,48,5,30,15,4,1,0,-17
1490985883256,2,-13,-7,-39,-34,-27,-3,6,-15
1490985883256,3,-4,25,-15,-9,-1,9,-2,17
1490985883256,3,1,1,-2,40,25,10,17,10
