1490984364584,0,-23,36,13,36,36,36,-9,36
1490984364584,0,55,-49,20,-112,-42,10,39,47
1490984364588,1,45,-71,-69,-117,-85,-26,20,25
1490984364588,1,-81,-71,-42,-76,-52,-9,4,-59
1490984364590,2,85,-30,-65,-63,-70,-44,-3,6
1490984364590,2,-126,-17,-3,42,11,-3,-18,-19
1490984364633,3,38,46,32,48,25,7,-9,-18
1490984364633,3,-2,-14,-15,4,-17,-21,-13,-44
1490984364634,0,33,15,15,22,16,4,-6,53
1490984364634,0,-4,30,13,31,11,5,-8,-18
1490984364635,1,-16,-5,10,12,11,3,1,12
1490984364635,1,1,31,10,18,17,4,5,25
1490984364637,2,-38,-21,16,16,15,9,6,-24
1490984364637,2,56,15,-4,9,6,2,-6,-39
1490984364681,3,-51,-22,-8,20,5,-1,-9,0
1490984364681,3,17,14,23,13,18,14,8,29
1490984364683,0,53,21,3,-32,-15,-13,2,11
1490984364683,0,-73,-25,-23,-9,-10,-13,-1,-14
1490984364684,1,33,13,11,7,9,11,5,-8
1490984364684,1,4,39,22,-3,3,1,1,-8
1490984364730,2,3,-35,-8,-1,0,3,8,9
1490984364730,2,34,14,-3,8,1,-2,2,-8
1490984364732,3,-52,-14,-3,-8,4,2,2,-20
1490984364732,3,-2,-14,-5,-9,2,4,6,31
1490984364732,0,-49,-6,10,15,3,4,-2,-26
1490984364732,0,39,15,-1,2,5,-2,4,-12
1490984364733,2,-36,-9,5,-3,-4,-7,3,-14
1490984364733,2,-14,-7,-14,-11,-6,-1,3,8
1490984364779,3,-6,12,15,13,5,4,1,3
1490984364779,3,29,13,5,15,7,4,1,7
1490984364780,0,-24,2,-5,-9,-3,0,9,-39
1490984364780,0,-33,-9,6,-4,8,15,-1,38
1490984364781,3,79,-3,-9,-16,-2,-2,-6,-5
1490984364781,3,1,17,1,1,-2,6,-4,19
1490984364783,0,10,-24,-2,-5,-3,-1,-1,-14
1490984364783,0,11,11,8,-15,-6,-3,0,18
1490984364828,1,-4,2,0,27,12,-3,1,6
1490984364828,1,24,-21,6,13,1,-1,3,-11
1490984364829,2,-32,17,-1,-16,-7,-9,3,-2
1490984364829,2,31,20,-12,25,4,2,-4,7
1490984364830,0,-112,-33,-15,7,6,2,2,-25
1490984364830,0,114,27,43,-13,-9,-10,5,8
1490984364831,1,54,42,-33,1,-8,-6,-1,-3
1490984364831,1,-54,-67,4,1,5,2,0,-12
1490984364876,2,10,26,14,-2,10,13,-2,6
1490984364876,2,38,-9,-1,8,-8,-11,-7,-10
1490984364877,3,-72,-11,11,15,6,0,-7,-29
1490984364877,3,-62,-14,-18,12,15,7,1,-15
1490984364879,0,72,63,12,-24,-10,-3,5,56
1490984364879,0,52,-35,-41,-49,-11,0,5,-24
1490984364880,1,-84,-28,33,12,11,1,-3,-19
1490984364880,1,99,47,4,-23,-14,-5,9,25
1490984364925,2,-62,-12,-11,15,-1,0,-2,-79
1490984364925,2,8,-11,19,-17,-12,-10,0,5
1490984364927,3,-58,-8,-13,20,12,10,1,-15
1490984364927,3,-66,-20,-25,-14,4,1,4,-2
1490984364928,1,8,34,26,2,-15,-7,3,31
1490984364928,1,-46,-39,-39,35,12,5,-5,20
1490984364929,2,87,29,30,-19,-10,-5,-2,1
1490984364929,2,-78,-49,-94,-22,11,13,-4,-29
1490984364974,3,30,58,53,-13,2,0,-2,16
1490984364974,3,15,30,32,-1,3,-3,-4,0
1490984364976,0,58,-60,-36,-12,-4,-7,2,8
1490984364976,0,34,78,20,-2,-6,0,-1,26
1490984364977,2,-5,49,42,29,1,-4,-2,-39
1490984364977,2,-13,-2,-1,21,-2,0,10,-10
1490984364978,3,85,-2,11,-40,-10,-1,0,42
1490984364978,3,27,-17,-9,-11,-5,-8,3,-38
1490984365023,0,-47,-76,-21,9,12,3,-3,40
1490984365023,0,94,-26,-2,-21,-2,3,0,27
1490984365024,1,-75,37,7,18,0,-4,1,-59
1490984365024,1,92,-62,23,36,-2,3,1,45
1490984365025,3,20,-2,0,-35,8,6,0,27
1490984365025,3,-30,53,19,15,-5,-4,1,-34
1490984365027,0,85,-7,-11,18,14,4,-3,53
1490984365027,0,6,24,42,-10,-9,-3,2,17
1490984365071,1,-81,-19,-53,5,-9,-5,0,35
1490984365071,1,-77,-43,26,28,9,1,-6,-31
1490984365073,2,24,24,-8,-24,-5,-1,0,-21
1490984365073,2,-110,22,15,32,32,11,0,54
1490984365073,0,29,36,19,13,-9,-1,0,-24
1490984365073,0,14,-10,-10,-31,1,-3,-1,17
1490984365074,1,-12,55,25,39,15,4,-1,18
1490984365074,1,31,-19,-11,19,24,7,0,28
1490984365120,2,70,14,-15,-19,6,-5,-2,-10
1490984365120,2,-97,-63,-65,3,-6,8,-1,-20
1490984365122,3,-36,6,25,-12,9,1,0,17
1490984365122,3,54,71,47,10,1,8,-5,77
1490984365123,1,37,14,-45,-70,-23,-3,1,0
1490984365123,1,-111,-88,-77,-104,-24,-5,-1,-59
1490984365124,2,67,71,57,-30,10,10,0,25
1490984365124,2,54,18,51,79,20,-9,-3,5
1490984365169,3,0,-25,32,25,-19,-10,2,-80
1490984365169,3,-10,61,-74,-67,-26,0,-2,78
1490984365170,0,45,23,56,-65,-7,3,0,-5
1490984365170,0,-70,-56,11,32,29,8,4,1
1490984365170,2,-123,12,72,65,-3,0,-5,88
1490984365170,2,59,8,-110,-29,17,6,2,-28
1490984365171,3,-21,30,-18,-14,-13,-4,2,-45
1490984365171,3,30,8,55,-12,0,-7,2,90
1490984365217,0,-109,-95,-53,10,-7,-13,-5,-87
1490984365217,0,52,11,-17,-84,-8,4,0,-13
1490984365219,1,16,-83,0,97,-1,-4,-4,39
1490984365219,1,-89,19,71,-16,7,4,-2,-128
1490984365219,2,117,45,-35,-31,-37,-9,4,31
1490984365219,2,-50,5,-18,51,13,-3,-3,87
1490984365220,3,52,4,58,-61,79,-3,3,-48
1490984365220,3,-58,-31,-43,5,57,2,0,51
1490984365266,0,21,-39,102,20,-59,-7,3,-46
1490984365266,0,66,25,-73,47,-90,-13,-2,29
1490984365267,1,30,-66,-57,-45,-86,-6,-5,-9
1490984365267,1,-52,-43,-67,-3,13,2,0,-59
1490984365268,3,-10,-51,-12,97,80,8,-2,16
1490984365268,3,74,116,35,-8,-9,-2,1,26
1490984365278,0,-28,-51,-29,71,-25,-6,-1,-35
1490984365278,0,107,24,53,-94,-61,-7,-2,-13
1490984365315,1,-25,40,24,-53,-28,-2,-1,20
1490984365315,1,-75,-122,-57,79,42,15,0,-93
1490984365316,2,90,96,45,0,107,12,-2,90
1490984365316,2,64,127,127,46,58,-11,-1,-27
1490984365317,0,3,-72,-8,-29,8,5,-3,15
1490984365317,0,-49,-35,79,43,28,5,-1,-48
1490984365318,1,-7,21,-92,53,38,-9,-2,37
1490984365318,1,116,8,41,0,-6,-1,1,76
1490984365364,2,-25,-20,-27,-8,-14,5,2,-15
1490984365364,2,64,105,20,-128,15,-5,-3,38
1490984365365,3,-9,-100,-52,-48,11,17,-1,12
1490984365365,3,-28,26,127,127,10,-14,-4,-64
1490984365366,1,-47,-30,59,40,-5,-4,-1,-3
1490984365366,1,-86,14,-113,-105,28,13,-3,-78
1490984365367,2,40,-76,-14,-60,-6,12,3,3
1490984365367,2,35,15,88,88,19,4,-3,31
1490984365413,3,29,99,55,14,13,5,-2,32
1490984365413,3,-58,-7,-6,56,10,-14,0,-58
1490984365414,0,-49,-87,-56,10,-13,11,-4,54
1490984365414,0,86,92,-56,-57,-27,-8,2,27
1490984365415,2,35,10,-101,-23,-66,-4,5,22
1490984365415,2,-65,-73,23,59,6,-5,-5,-53
1490984365415,3,-26,-24,87,-33,48,0,1,-38
1490984365415,3,45,99,9,-41,-64,8,2,54
1490984365510,0,26,94,14,86,33,-1,2,47
1490984365510,0,-32,-126,-61,86,27,-8,-1,-1
1490984365511,1,50,4,-88,-83,25,9,-2,53
1490984365511,1,63,52,75,-90,-71,1,0,14
1490984365513,3,-49,35,-7,44,13,-3,1,-39
1490984365513,3,13,-118,-128,-90,-11,-11,-1,82
1490984365513,0,48,57,69,-20,28,8,-2,-29
1490984365513,0,-22,-69,-23,14,-19,2,5,22
1490984365559,1,63,41,-48,57,-14,-21,1,-32
1490984365559,1,-75,-35,35,39,-21,-7,0,-41
1490984365560,2,-16,-72,-120,-83,-27,10,1,7
1490984365560,2,-6,110,96,-16,56,14,-4,-19
1490984365560,0,-6,52,77,-18,-16,-16,1,-15
1490984365560,0,77,65,78,-15,-24,-3,-2,29
1490984365561,1,-1,100,-82,-128,-68,-15,-1,2
1490984365561,1,-45,-10,-56,-50,15,16,0,-64
1490984365607,2,6,-44,55,104,32,5,-1,-39
1490984365607,2,-15,68,85,54,47,-9,1,-14
1490984365608,3,14,-37,-24,-64,-62,-9,-1,31
1490984365608,3,19,-22,-88,-73,11,0,-1,46
1490984365609,1,-55,-84,-29,-5,-50,4,-1,35
1490984365609,1,78,-9,-100,-40,38,3,0,-27
1490984365610,2,-67,48,31,-102,-47,10,-9,15
1490984365610,2,57,127,91,69,7,-3,1,-30
1490984365705,3,-97,-86,-69,32,5,0,1,33
1490984365705,3,-32,20,-30,-52,43,14,2,-14
1490984365706,0,-19,-10,-7,29,-21,-7,-2,5
1490984365706,0,-70,-3,82,-24,-37,-3,0,-18
1490984365754,2,0,59,39,5,22,-8,-2,12
1490984365754,2,-11,-33,-40,-26,-29,4,0,-32
1490984365755,3,18,0,127,31,80,-13,-1,-44
1490984365755,3,-45,-63,-69,6,-55,-8,-3,20
1490984365756,0,21,-27,-60,-11,-40,16,11,14
1490984365756,0,9,-14,-39,1,-8,-3,0,-17
1490984365757,1,26,-4,11,-19,45,24,-4,25
1490984365757,1,3,32,31,30,15,-4,-9,-57
1490984365804,3,-22,71,127,36,-19,9,1,-16
1490984365804,3,17,127,-43,-12,1,-10,5,6
1490984365805,0,55,12,-71,21,-47,-15,-3,15
1490984365805,0,-42,-92,-34,-49,32,8,-5,11
1490984365806,1,-31,5,-58,-28,-36,-8,-1,10
1490984365806,1,21,-3,5,34,27,-13,-4,27
1490984365807,1,-25,-1,46,14,47,-37,0,-30
1490984365807,1,22,10,-4,-22,-20,6,3,-7
1490984365851,2,-55,-50,-76,-7,-8,0,-3,-16
1490984365851,2,4,-13,-15,10,121,5,1,-7
1490984365852,3,29,18,5,-12,-116,3,0,2
1490984365852,3,-19,22,127,48,-19,39,-7,8
1490984365853,2,3,-12,-47,-19,-36,-1,-3,-5
1490984365853,2,38,49,88,56,-14,-21,-1,-8
1490984365854,3,-37,-34,-128,-84,20,26,1,-14
1490984365854,3,-14,1,-17,2,68,-16,-1,5
1490984365901,0,46,31,95,50,-80,-28,0,17
1490984365901,0,-27,-19,-106,-62,51,-5,-5,8
1490984365903,1,-1,11,-5,1,79,49,-3,-11
1490984365903,1,12,14,61,45,53,39,1,2
1490984365903,3,-28,-38,-128,-50,-52,-34,5,7
1490984365903,3,-29,-25,-1,13,67,26,-1,12
1490984365904,0,-9,13,61,-12,84,-14,-2,-36
1490984365904,0,-5,11,16,0,-74,1,1,5
1490984365949,1,26,0,1,26,-47,-24,0,2
1490984365949,1,18,2,55,48,-6,-42,-4,26
1490984365950,2,27,-23,-97,-23,59,-4,1,16
1490984365950,2,-33,2,-43,-24,-32,-45,1,5
1490984365950,3,10,7,-1,22,11,-6,0,-25
1490984365950,3,25,2,11,7,68,28,2,-10
1490984365951,0,7,11,119,2,8,77,3,71
1490984365951,0,7,16,-3,29,-48,39,-2,-39
1490984365997,1,-4,-28,-89,-24,-58,-15,-4,-8
1490984365997,1,-21,13,32,-69,-113,-27,3,-2
1490984365998,2,21,1,-39,9,-13,0,0,-3
1490984365998,2,-20,25,49,52,124,19,-4,15
1490984365999,0,-14,5,74,-1,56,-56,-2,-3
1490984365999,0,13,-44,-86,-98,-72,-37,1,3
1490984366000,1,-9,20,107,20,40,-8,1,-31
1490984366000,1,-19,-5,-7,18,4,68,1,33
1490984366046,2,0,15,6,-8,-126,20,-2,-21
1490984366046,2,2,-1,111,47,76,12,-3,2
1490984366047,3,-5,22,59,6,-73,22,1,7
1490984366047,3,34,-12,-128,-109,-72,-11,3,14
1490984366048,1,-3,6,65,-53,63,-34,-3,-4
1490984366048,1,18,6,101,84,3,-2,2,-14
1490984366049,2,6,-19,4,-9,-49,12,0,5
1490984366049,2,-12,8,32,33,-68,12,3,-20
1490984366095,3,-7,-11,-18,14,29,51,-2,65
1490984366095,3,23,29,-23,38,-16,-45,-1,-15
1490984366096,0,-16,-51,-51,-59,-47,-39,-1,-37
1490984366096,0,-15,7,-61,-75,95,0,1,17
1490984366097,2,7,34,-49,-14,-26,9,-1,31
1490984366097,2,-9,53,44,3,-43,10,1,-8
1490984366098,3,-11,-29,-17,50,-1,-15,-1,-34
1490984366098,3,-30,-17,-93,-51,-72,36,-1,23
1490984366144,0,-4,25,-106,-76,49,-38,-4,-9
1490984366144,0,-37,-14,-112,-69,-7,-106,-7,-12
1490984366145,1,56,10,-25,15,125,-117,3,6
1490984366145,1,22,-17,97,33,-6,73,0,30
1490984366146,3,-45,47,-52,-12,59,67,-3,-15
1490984366146,3,-21,0,-80,-16,74,-10,-1,-24
1490984366146,0,33,-29,51,56,38,-43,0,41
1490984366146,0,-13,-71,42,67,63,-65,-4,-10
1490984366192,1,5,-61,-64,12,41,-91,-1,2
1490984366192,1,12,32,5,15,-81,-68,3,36
1490984366194,2,13,14,-54,-1,9,-14,2,-9
1490984366194,2,9,45,65,66,15,50,0,13
1490984366194,0,21,-5,73,-3,32,-23,-4,0
1490984366194,0,-47,-34,23,-2,33,77,-7,-55
1490984366195,1,-36,19,31,1,-35,72,-8,83
1490984366195,1,3,6,-24,-45,-73,34,-2,-37
1490984366241,2,-30,-16,-14,-1,76,73,-1,29
1490984366241,2,9,-8,21,29,107,-83,6,-51
1490984366243,3,-16,5,-16,-9,-112,-57,-3,-14
1490984366243,3,-12,-14,-41,-27,-5,-49,-4,3
1490984366243,1,22,7,-20,-9,-31,2,4,14
1490984366243,1,-32,-16,-35,-3,118,-54,-3,-18
1490984366244,2,18,19,11,-15,-126,-14,3,-5
1490984366244,2,10,-5,-16,30,50,8,-2,5
1490984366290,3,-17,-6,-2,11,-35,-10,0,-7
1490984366290,3,-13,-14,-4,1,52,8,2,-9
1490984366291,0,16,2,-9,3,-15,-3,-1,-8
1490984366291,0,18,19,-5,-50,-117,-2,0,36
1490984366292,1,-14,-5,-1,30,46,15,2,1
1490984366292,1,12,-4,-5,11,101,3,-5,5
1490984366293,2,0,-10,-8,-12,2,-11,0,-29
1490984366293,2,-9,-5,-4,15,42,4,2,-33
1490984366387,3,-4,1,6,2,-11,20,1,6
1490984366387,3,4,12,-15,-21,-24,10,0,32
1490984366388,0,-21,-17,3,4,-13,-10,2,6
1490984366388,0,-9,-2,-6,-12,-30,16,-3,-6
1490984366436,2,4,-4,-6,-14,35,-6,-3,12
1490984366436,2,20,18,15,-11,-38,5,-6,9
1490984366485,3,17,-2,-11,2,61,-11,4,2
1490984366485,3,-40,3,12,-25,-109,21,4,-6
1490984366486,0,1,4,-4,-7,52,-20,2,-4
1490984366486,0,18,16,20,2,-80,2,-3,43
1490984366486,1,6,14,5,1,39,7,-2,-18
1490984366486,1,-2,-5,-7,-10,14,-4,9,27
1490984366487,3,9,-1,8,-14,-61,6,-1,-3
1490984366487,3,-12,-6,-15,6,0,4,-7,-7
1490984366535,0,-55,-2,-16,-7,-86,0,-4,-17
1490984366535,0,25,3,13,2,42,-13,0,0
1490984366535,1,6,-20,5,-14,28,-5,-7,-13
1490984366535,1,-62,-23,-25,4,-7,8,-2,-11
1490984366536,2,-5,-12,-1,-8,4,-5,-1,-6
1490984366536,2,29,7,55,8,77,-3,-1,-9
1490984366536,3,21,26,-26,2,-59,-15,0,-2
1490984366536,3,-45,-9,6,-7,-9,14,1,-16
1490984366582,0,1,-42,-78,-11,33,1,-4,-1
1490984366582,0,6,-4,12,7,-28,0,-3,-1
1490984366583,1,-4,19,85,-8,-23,2,2,-11
1490984366583,1,50,-11,-28,17,-5,-1,-3,21
1490984366584,3,-12,-45,-51,0,53,14,-2,-12
1490984366584,3,-18,23,22,-19,-16,5,5,-15
1490984366585,0,23,46,-16,-21,-8,11,-1,-3
1490984366585,0,-30,-30,5,19,34,-1,0,15
1490984366680,1,-5,18,13,8,9,-8,-4,-22
1490984366680,1,24,-31,0,35,-9,-11,-4,5
1490984366681,2,-28,1,2,-41,-12,-5,2,-10
1490984366681,2,42,32,-2,-6,20,4,0,-3
1490984366681,3,-49,0,2,27,-39,2,0,-1
1490984366681,3,38,10,20,-16,-1,3,-4,33
1490984366682,0,-4,-22,17,6,-6,-3,-6,3
1490984366682,0,-11,26,-34,14,18,0,-4,8
1490984366778,1,10,-55,-77,-39,-28,0,0,-9
1490984366778,1,39,62,38,17,7,-4,0,21
1490984366779,2,-10,-33,-14,-14,-14,8,1,-11
1490984366779,2,-22,-48,18,41,14,9,-2,-29
1490984366826,0,48,4,13,5,-10,1,0,-13
1490984366826,0,-60,-33,-107,-52,-5,4,-4,-33
1490984366828,1,-32,-7,-20,-5,-6,-3,-5,-29
1490984366828,1,72,24,10,12,9,2,-2,27
1490984366829,2,-48,29,37,-15,19,3,5,-2
1490984366829,2,-58,-73,-85,10,2,4,-2,-18
1490984366830,3,23,7,-38,-35,19,13,-4,19
1490984366830,3,-1,11,47,22,-9,0,0,-22
1490984366875,2,9,11,-66,-7,30,10,-2,-14
1490984366875,2,42,9,37,19,-28,-14,1,4
1490984366877,3,-4,18,40,16,-2,-31,1,50
1490984366877,3,8,-66,27,-5,10,-12,-1,-20
1490984366878,0,-57,-22,-88,-14,-20,5,3,-18
1490984366878,0,60,65,30,1,-2,9,-2,19
1490984366878,0,-12,6,-14,18,7,-16,0,-42
1490984366878,0,17,-9,-75,-25,-10,-22,0,71
1490984366924,1,-46,-9,72,1,-23,-26,-4,-25
1490984366924,1,20,-19,-85,-28,-4,19,0,20
1490984366925,2,-15,-4,16,21,26,48,-1,7
1490984366925,2,-73,-78,10,21,45,73,1,8
1490984366926,1,-6,-37,28,10,15,16,0,-19
1490984366926,1,-46,-7,10,29,33,55,0,-26
1490984366927,2,-1,9,-28,8,18,-4,-2,31
1490984366927,2,95,20,52,7,-11,-24,-3,-6
1490984367021,3,-45,-9,-86,-45,-20,-49,-2,16
1490984367021,3,35,42,17,-2,-12,-10,0,-44
1490984367022,0,-82,-14,15,5,23,22,2,-11
1490984367022,0,59,-19,47,39,23,9,-1,-1
1490984367023,2,-40,24,5,-32,-7,42,1,-1
1490984367023,2,81,43,-18,-28,4,22,3,6
1490984367024,3,6,-36,51,48,82,19,-2,21
1490984367024,3,-1,-22,-26,-3,7,-31,-1,-17
1490984367070,0,-41,57,39,13,-22,34,-7,-6
1490984367070,0,-13,-30,-18,-24,-34,31,1,0
1490984367071,1,78,16,-21,-39,-16,-24,1,-11
1490984367071,1,-41,12,14,13,30,-31,0,-5
1490984367118,2,63,-13,32,12,13,-44,3,22
1490984367118,2,-107,55,26,22,13,28,0,-35
1490984367119,3,-38,-2,2,6,29,27,-7,-52
1490984367119,3,53,-91,16,-1,-25,2,1,-9
1490984367167,0,-15,23,15,18,27,34,1,35
1490984367167,0,6,86,25,19,35,-9,-3,-17
1490984367216,1,85,47,15,-25,-16,-53,2,30
1490984367216,1,-106,14,-5,-44,-63,-36,-1,-35
1490984367218,0,23,63,26,34,-13,1,-1,-12
1490984367218,0,-72,68,-54,-24,-31,17,2,-29
1490984367218,1,-62,59,-33,-4,42,62,1,-8
1490984367218,1,118,65,-3,-29,44,37,-1,23
1490984367219,2,-128,-79,31,7,26,-39,1,-23
1490984367219,2,61,-59,8,-16,-102,-64,3,41
1490984367265,1,-15,6,10,2,-46,-8,-3,3
1490984367265,1,3,20,-54,-9,-107,-20,-2,-15
1490984367267,2,49,44,46,-18,-15,-20,0,16
1490984367267,2,48,-37,-79,-21,-102,-31,-3,10
1490984367267,3,-43,-65,98,1,48,14,0,-5
1490984367267,3,7,-94,13,40,-56,-14,-2,7
1490984367268,0,-24,98,-98,-18,-58,-11,2,19
1490984367268,0,-67,94,-128,-25,-44,-2,1,-39
1490984367314,1,83,59,-51,4,9,-3,-2,-12
1490984367314,1,-8,57,53,-20,15,-16,-2,14
1490984367315,2,16,-35,73,-8,8,-20,0,-15
1490984367315,2,-71,-35,19,-13,-13,-18,-3,16
1490984367315,0,11,-89,-29,18,26,23,-3,43
1490984367315,0,70,40,-24,-4,10,10,-5,4
1490984367316,1,22,54,-7,-6,-2,-12,-1,-7
1490984367316,1,20,89,70,-14,27,-9,2,24
1490984367362,2,2,13,62,-28,55,17,-4,-1
1490984367362,2,-7,-94,-2,-119,0,-4,4,-27
1490984367363,3,-56,-94,-35,-128,-51,0,-1,3
1490984367363,3,73,85,-80,-83,-75,14,-1,0
1490984367364,0,-22,115,-93,42,-117,-7,-1,-11
1490984367364,0,-46,71,-46,116,-23,-14,-1,-7
1490984367366,1,-38,-46,-13,127,43,-22,2,-25
1490984367366,1,14,-37,16,124,52,-11,0,-32
1490984367411,2,6,-53,24,10,50,6,4,47
1490984367411,2,-9,-49,32,-43,43,17,0,-24
1490984367413,3,68,-37,59,-60,24,-8,0,32
1490984367413,3,-53,34,46,-113,15,6,-3,42
1490984367414,1,12,-3,-2,-101,-3,5,-3,-5
1490984367414,1,-35,-63,-36,-78,22,12,-3,21
1490984367415,2,15,-61,-110,-59,48,2,-1,-6
1490984367415,2,9,20,-112,-115,72,8,-1,36
1490984367460,3,66,49,-84,-123,69,36,-1,18
1490984367460,3,127,32,-9,-128,36,44,2,70
1490984367462,0,-128,-4,76,-40,-62,21,-2,18
1490984367462,0,-84,-4,127,104,-115,-51,1,-36
1490984367464,2,-114,-63,86,59,38,-31,-3,-84
1490984367464,2,127,1,-94,-101,41,17,0,26
1490984367465,3,-23,21,-123,-115,38,34,-2,59
1490984367465,3,-125,8,-128,-128,35,63,-3,0
1490984367509,0,83,11,-121,-90,-1,30,5,48
1490984367509,0,30,0,-103,-14,-4,17,-2,-2
1490984367511,1,52,46,-118,-18,0,3,-1,33
1490984367511,1,27,17,-115,-3,-3,-4,-5,-3
1490984367512,3,-17,4,-9,2,8,-10,-4,0
1490984367512,3,12,-14,32,29,5,-10,2,-39
1490984367513,0,-38,-8,27,20,5,-1,-5,7
1490984367513,0,0,13,36,1,8,4,-1,-9
1490984367558,1,107,44,44,13,-11,-10,-2,0
1490984367558,1,28,-44,-15,0,-24,-12,-3,12
1490984367559,2,-56,-37,-16,10,17,9,0,-65
1490984367559,2,54,71,54,-14,-9,-4,1,35
1490984367560,0,87,-6,-2,-31,-10,-6,2,17
1490984367560,0,22,-7,-6,4,-18,-7,-4,8
1490984367561,1,-74,-42,3,38,30,19,4,-17
1490984367561,1,19,-22,-3,-6,8,3,0,-4
1490984367606,2,57,13,24,0,-2,-4,-2,14
1490984367606,2,-51,9,18,16,6,3,0,7
1490984367608,3,98,25,-6,-23,-14,-8,3,54
1490984367608,3,9,11,-18,3,-7,2,-3,4
1490984367608,1,49,-7,83,22,18,-3,-1,-37
1490984367608,1,-36,-3,-74,35,4,-9,-1,-27
1490984367609,2,47,10,37,-17,-5,1,0,15
1490984367609,2,52,0,-32,-20,2,0,1,30
1490984367655,3,-97,74,32,-42,-14,-7,2,22
1490984367655,3,-45,-89,5,-8,-3,-4,-3,58
1490984367656,0,73,17,7,38,7,-5,-4,4
1490984367656,0,86,36,-11,24,2,-6,3,-36
1490984367657,2,46,41,-52,-69,-23,-6,2,68
1490984367657,2,-123,-33,30,-4,-1,7,1,-43
1490984367658,3,49,-6,-54,-21,7,11,-1,46
1490984367658,3,19,-8,-14,-27,-12,-3,1,10
1490984367704,0,-128,-44,85,56,25,7,-1,-42
1490984367704,0,63,12,-27,30,12,-3,-2,-32
1490984367705,1,38,17,-13,-35,-29,-8,1,-22
1490984367705,1,76,75,28,-44,-23,-10,0,5
1490984367706,2,-110,-100,-54,49,18,20,-1,-23
1490984367706,2,68,27,24,-10,14,-1,1,5
1490984367707,3,69,-45,-43,-11,20,10,-6,-14
1490984367707,3,102,61,74,-24,11,0,-1,94
1490984367752,0,-14,55,22,24,3,-15,0,-29
1490984367752,0,-70,-6,55,24,-12,-8,2,0
1490984367754,1,75,-9,3,-31,-9,7,2,15
1490984367754,1,-104,-40,-39,-22,5,13,-1,25
1490984367754,3,-39,69,-14,-97,14,0,-2,18
1490984367754,3,79,-38,68,94,26,12,3,-18
1490984367755,0,-103,30,94,26,-23,-14,-2,-21
1490984367755,0,5,-33,-103,-80,6,7,2,-7
1490984367801,1,-24,32,82,33,31,5,-2,-30
1490984367801,1,79,31,-29,8,3,-11,2,-6
1490984367802,2,-101,64,66,13,-48,-14,-1,37
1490984367802,2,110,-75,-51,20,-21,0,-3,-21
1490984367803,0,127,56,40,40,6,1,1,19
1490984367803,0,-93,10,-33,21,9,9,-3,37
1490984367805,1,-35,58,112,72,12,-7,0,-43
1490984367805,1,55,-100,-103,-32,-1,-1,-1,-23
1490984367850,2,-41,110,33,-33,-11,2,0,-37
1490984367850,2,84,-76,-42,-28,-26,3,-2,41
1490984367851,3,-13,37,60,81,0,8,0,-54
1490984367851,3,-114,-11,-78,103,-43,-19,-1,-67
1490984367852,1,26,-65,-73,72,25,-13,2,10
1490984367852,1,-72,-87,9,-92,14,19,-2,-13
1490984367853,2,59,46,45,44,12,-3,-1,66
1490984367853,2,-111,-78,-93,31,-1,-2,3,3
1490984367899,3,112,50,-88,-93,-48,-5,-1,13
1490984367899,3,-21,119,102,16,-15,-11,2,-25
1490984367900,0,-11,-128,-40,-13,18,10,-6,20
1490984367900,0,-56,50,127,50,13,3,-1,-70
1490984367901,2,-31,-27,-124,25,19,-15,-4,-3
1490984367901,2,-36,-27,-44,-56,22,13,-1,-23
1490984367902,3,-78,-52,7,-78,29,9,3,-5
1490984367902,3,82,81,88,36,33,16,-1,46
1490984367947,0,-16,42,100,69,-8,10,3,34
1490984367947,0,-43,55,80,26,-33,-22,-3,-33
1490984367949,1,-29,4,-128,0,-60,-21,-4,-43
1490984367949,1,-58,-72,-89,-121,-15,11,4,40
1490984367950,3,57,39,70,-9,-8,-16,-1,23
1490984367950,3,3,-2,24,26,6,-4,0,40
1490984367951,0,23,51,-128,-27,-12,5,-2,-21
1490984367951,0,26,9,-48,-79,-17,5,1,-14
1490984367996,1,-29,54,112,65,9,21,-6,15
1490984367996,1,8,-68,-108,-39,-19,-11,1,-3
1490984367997,2,-18,-9,74,42,39,-3,0,-40
1490984367997,2,127,89,-13,-42,-32,-6,2,13
1490984367998,0,-22,-31,-73,-39,52,11,0,5
1490984367998,0,62,77,79,-35,-23,-9,1,12
1490984367999,1,-94,-105,-56,77,0,-3,1,-43
1490984367999,1,73,-2,66,-12,24,8,-6,42
1490984368045,2,27,5,-35,42,-42,-24,1,-31
1490984368045,2,-84,-5,-78,-51,-16,15,2,-12
1490984368046,3,81,30,3,-5,28,-5,-2,26
1490984368046,3,-77,-13,55,8,-20,14,-2,-29
1490984368047,0,56,127,110,59,40,0,1,-33
1490984368047,0,-18,-45,23,-5,-69,-19,-2,-14
1490984368049,1,43,-84,-91,-128,-19,31,0,38
1490984368049,1,1,95,107,96,40,-12,-2,-65
1490984368094,2,-84,-128,-128,35,-29,-13,2,43
1490984368094,2,-20,95,79,-2,45,9,2,-36
1490984368095,3,-20,98,101,62,72,-1,-3,-32
1490984368095,3,38,78,-57,-33,-50,-11,-6,61
1490984368096,1,75,-65,51,9,-22,-22,-1,-9
1490984368096,1,-87,-117,-128,-52,-8,10,-1,-14
1490984368097,2,-25,50,91,-51,-4,3,-3,5
1490984368097,2,83,100,94,58,22,15,-2,29
1490984368142,3,33,56,77,95,44,-18,0,-6
1490984368142,3,-107,-8,-62,-51,-78,-35,4,-49
1490984368143,0,32,-59,-74,-84,-19,10,-1,-29
1490984368143,0,-4,6,61,46,39,-1,-2,92
1490984368144,2,-20,79,75,15,18,-1,-1,59
1490984368144,2,36,52,-123,-14,15,-9,2,-31
1490984368145,3,16,-10,104,-9,-70,-4,2,22
1490984368145,3,37,25,22,11,56,14,0,37
1490984368191,0,27,-110,-128,-34,-77,-7,1,26
1490984368191,0,-103,-95,-69,-20,22,1,-1,-86
1490984368193,1,46,107,40,-20,4,18,-5,95
1490984368193,1,-15,50,-77,24,-25,-27,0,-37
1490984368194,3,-6,-112,-32,-30,7,14,-3,-27
1490984368194,3,31,7,127,71,39,13,1,15
1490984368195,0,0,-40,-124,-26,5,-36,0,-2
1490984368195,0,-60,-88,-119,-48,-87,14,-2,2
1490984368241,1,-20,-49,25,20,25,12,0,-17
1490984368241,1,34,77,111,65,85,18,0,26
1490984368244,2,-26,53,-78,-49,-11,-11,0,-16
1490984368244,2,-3,87,115,41,16,0,0,-15
1490984368246,0,1,-14,95,35,26,21,1,-27
1490984368246,0,15,14,-54,10,27,-22,-3,4
1490984368248,1,29,-20,-42,-14,43,4,-6,20
1490984368248,1,9,-19,91,39,26,-11,1,-6
1490984368289,2,-33,-5,-4,-21,-2,16,-1,0
1490984368289,2,33,-37,-17,-16,-36,11,-1,18
1490984368290,3,-4,106,119,61,34,-14,1,-32
1490984368290,3,-12,-59,-128,-55,15,-21,0,8
1490984368291,1,47,16,11,0,64,-27,2,5
1490984368291,1,-3,10,25,-6,-116,10,0,-6
1490984368292,2,1,-20,10,11,7,-20,-4,-29
1490984368292,2,13,-18,40,13,46,-13,-2,-15
1490984368338,3,0,-11,-98,-29,-2,12,0,24
1490984368338,3,26,31,4,14,-11,0,-4,8
1490984368339,0,-23,-13,-23,4,5,-17,0,17
1490984368339,0,6,11,64,-20,-39,21,-1,-42
1490984368340,2,-4,-73,-62,-10,-7,9,2,-13
1490984368340,2,-8,-8,-54,8,9,-8,1,18
1490984368341,3,-20,5,-16,6,20,12,-2,-8
1490984368341,3,-25,-24,-27,-11,-12,3,-2,-9
1490984368386,0,-5,18,44,-6,70,-13,5,28
1490984368386,0,39,-2,37,-8,-75,-6,-1,17
1490984368388,1,15,4,7,-15,-40,20,-1,0
1490984368388,1,-8,18,78,54,60,-32,0,-9
1490984368389,3,8,3,-66,-21,-42,-6,1,4
1490984368389,3,6,10,20,2,41,20,-4,19
1490984368390,0,38,28,80,8,-81,16,0,-20
1490984368390,0,-31,-52,-84,1,83,-9,3,8
1490984368435,1,-36,-32,-23,-7,33,-12,-2,-65
1490984368435,1,17,-9,9,-9,-62,14,1,34
1490984368436,2,14,31,97,52,22,0,-2,8
1490984368436,2,-7,2,-75,-39,50,43,0,-16
1490984368437,3,-3,11,-35,-5,118,-9,1,3
1490984368437,3,-29,-3,-23,-27,61,-1,-3,-17
1490984368438,0,13,-15,12,-7,-77,-5,1,20
1490984368438,0,13,41,82,56,-85,18,-3,-3
1490984368484,1,-4,-17,-25,-5,-107,-19,1,-7
1490984368484,1,-64,-65,-108,-66,-14,-12,4,-23
1490984368485,2,26,18,2,6,55,-3,-5,-5
1490984368485,2,-5,22,92,66,85,15,1,-6
1490984368486,0,14,-3,-31,-25,33,-37,0,7
1490984368486,0,0,-18,-29,-52,-100,-9,-1,20
1490984368488,1,0,39,97,52,42,20,-1,-17
1490984368488,1,-2,2,29,94,66,-11,-5,13
1490984368533,2,-5,-77,-86,-66,28,11,-2,17
1490984368533,2,-9,-13,34,12,-3,4,-1,-34
1490984368534,3,28,-1,33,-2,-67,18,3,19
1490984368534,3,1,-14,58,-7,26,9,-2,14
1490984368535,1,-13,-13,59,9,32,9,-4,-14
1490984368535,1,25,-13,50,85,109,-14,0,3
1490984368536,2,12,-37,93,-36,-11,13,-1,16
1490984368536,2,-14,-38,-72,-111,-14,-14,-1,3
1490984368581,3,-2,24,-1,52,-128,18,0,-2
1490984368581,3,-24,42,40,59,-57,39,-1,-51
1490984368583,0,-32,4,-93,-4,-32,-44,-1,45
1490984368583,0,29,-6,36,-59,28,14,1,-3
1490984368584,2,43,48,-62,-51,5,-14,1,-29
1490984368584,2,9,32,-57,-14,-98,-42,0,-1
1490984368585,3,-15,16,-123,-87,9,6,-3,-4
1490984368585,3,-42,30,-44,43,-17,40,0,-32
1490984368630,0,-75,5,-26,117,113,-11,2,3
1490984368630,0,-68,-37,-26,89,50,35,-3,-18
1490984368632,1,-27,-74,-65,-13,-49,-47,-1,3
1490984368632,1,43,-18,-3,-113,-99,2,0,8
1490984368633,3,-3,76,-85,3,13,-26,2,-23
1490984368633,3,-60,-27,-21,0,22,1,-1,25
1490984368634,0,-64,-99,-41,-23,-68,-10,-5,33
1490984368634,0,104,-92,-84,-24,75,-50,-2,-13
1490984368679,1,89,63,-69,-95,-73,11,-1,-17
1490984368679,1,111,122,-103,-96,16,5,-3,31
1490984368680,2,18,3,97,11,90,13,-3,-39
1490984368680,2,-35,-29,127,91,3,5,-4,1
1490984368681,0,0,40,-89,-60,-6,-86,0,-45
1490984368681,0,-6,63,-74,-60,14,-120,-2,9
1490984368682,1,-27,41,-95,-44,-26,60,-2,-27
1490984368682,1,8,15,-61,9,10,86,-3,13
1490984368728,2,50,-119,-77,43,-16,127,0,-7
1490984368728,2,69,-117,-26,49,38,66,-2,-29
1490984368729,3,-27,-64,50,51,-21,-25,-4,61
1490984368729,3,-74,4,57,64,43,-35,-2,-71
1490984368730,1,16,49,117,-34,-78,-5,-1,23
1490984368730,1,-7,4,109,-5,50,31,-1,12
1490984368731,2,8,9,127,0,-16,77,-1,-4
1490984368731,2,4,31,67,-9,-10,27,-1,4
1490984368777,3,-14,-26,8,-22,16,87,1,22
1490984368777,3,19,-27,0,-19,-21,17,1,-56
1490984368778,0,-19,14,-3,2,57,45,4,-38
1490984368778,0,1,-2,-17,9,8,16,-2,57
1490984368779,1,8,8,10,8,-54,-33,3,-6
1490984368779,1,17,13,-17,10,-3,-66,-3,12
1490984368780,2,37,15,-14,-7,71,-55,0,-1
1490984368780,2,-16,6,-7,-14,-105,-10,-1,-14
1490984368825,3,2,-1,-2,8,113,-58,-2,-21
1490984368825,3,9,4,-10,6,-41,9,0,21
1490984368826,0,9,7,-5,-5,-84,-1,-4,28
1490984368826,0,-26,-15,-20,19,36,21,-2,-39
1490984368827,2,-23,-29,-31,-3,68,-23,4,-6
1490984368827,2,30,29,-10,-18,-86,-19,0,0
1490984368828,3,-44,-31,-11,21,104,32,-3,-47
1490984368828,3,1,-1,2,-6,-16,-23,-2,5
1490984368874,0,10,4,0,-14,82,30,-2,21
1490984368874,0,-5,-2,-4,-10,6,-7,1,-8
1490984368875,1,12,0,-17,-24,-24,6,3,-8
1490984368875,1,8,10,5,12,-9,-1,3,-29
1490984368877,3,10,-2,-11,0,35,-25,-4,-1
1490984368877,3,-9,-5,-4,5,102,8,-2,-18
1490984368879,0,27,10,2,-22,-58,-33,0,7
1490984368879,0,-30,-10,-7,5,45,16,-1,-14
1490984368923,1,2,3,8,-5,-53,0,1,17
1490984368923,1,-11,-15,-24,-1,-33,8,-3,-3
1490984368924,2,11,7,10,19,72,-12,-3,-19
1490984368924,2,-14,-12,-16,-5,3,24,-2,-17
1490984368926,0,5,11,11,-1,6,17,-6,10
1490984368926,0,10,12,0,-12,3,2,-3,-11
1490984368927,1,2,-5,0,13,15,-7,-2,2
1490984368927,1,-12,-6,-11,-10,-71,3,-1,-1
1490984368971,2,5,4,7,-5,-26,-10,2,4
1490984368971,2,-4,-7,-1,26,48,12,2,-26
1490984368973,3,8,-9,-4,0,49,10,-4,3
1490984368973,3,-1,-5,1,2,-2,8,1,23
1490984368974,1,15,7,7,12,-29,1,11,-2
1490984368974,1,-10,-7,-2,10,93,11,-1,10
1490984368975,2,-17,3,0,-17,-75,10,-5,-19
1490984368975,2,-12,-12,-2,16,82,5,-6,4
1490984369020,3,-3,-1,3,-3,25,7,-3,2
1490984369020,3,8,4,-3,-6,45,-9,0,-15
1490984369022,0,1,-7,3,17,8,-4,0,7
1490984369022,0,14,18,5,-14,-79,-5,-2,8
1490984369023,2,4,12,-3,-8,-8,-2,-6,10
1490984369023,2,-4,-5,-1,8,14,-19,1,12
1490984369024,3,5,-5,-9,-4,37,11,-2,-12
1490984369024,3,23,2,8,5,33,1,-4,-10
1490984369069,0,-30,-13,-6,-9,-77,-31,1,0
1490984369069,0,-1,7,0,1,70,-7,0,6
1490984369070,1,-6,0,-11,-4,-1,-7,0,-1
1490984369070,1,17,3,5,0,42,9,-6,1
1490984369072,3,0,-4,1,-5,-36,-14,-5,-26
1490984369072,3,-10,-14,3,8,2,-6,-1,-8
1490984369073,0,15,0,3,10,56,3,3,1
1490984369073,0,-15,10,-8,-16,-47,-35,-4,-10
1490984369118,1,0,-15,-16,-7,1,14,3,26
1490984369118,1,0,7,7,-6,-21,-19,3,-9
1490984369119,2,-33,-6,-3,16,8,5,0,-7
1490984369119,2,-9,-23,-26,-11,-35,20,-2,13
1490984369120,3,4,28,27,6,37,1,-1,-7
1490984369120,3,-5,-5,-10,3,-28,-2,-1,4
1490984369121,0,17,6,21,16,50,-11,2,6
1490984369121,0,19,-4,4,-1,-31,1,1,2
1490984369166,1,-32,-14,-9,-17,-16,-3,-1,1
1490984369166,1,18,-11,-41,-14,11,-15,-6,-14
1490984369168,2,-27,3,21,-9,-19,15,0,9
1490984369168,2,16,28,28,34,16,-10,-1,-10
1490984369169,0,21,17,31,6,9,-13,-2,0
1490984369169,0,4,-30,-63,-14,6,4,-5,8
1490984369170,1,-10,2,-4,19,41,1,0,9
1490984369170,1,-15,21,20,-15,-22,-6,1,-9
1490984369215,2,40,-53,-51,22,16,8,2,-12
1490984369215,2,0,19,55,2,9,-1,4,26
1490984369216,3,-16,-13,15,3,23,-1,-3,-12
1490984369216,3,15,-23,-14,-24,-36,4,-3,1
1490984369218,1,39,-33,6,3,-17,0,5,36
1490984369218,1,6,23,36,12,-1,3,3,-7
1490984369219,2,-42,-13,53,26,5,2,2,2
1490984369219,2,-9,3,-10,9,20,13,3,-26
1490984369264,3,4,34,-33,-17,-31,0,7,14
1490984369264,3,-46,-21,37,-4,24,11,-3,-11
1490984369265,0,11,44,-49,-15,-13,-16,1,-21
1490984369265,0,-12,0,-11,-19,-1,5,-1,20
1490984369266,2,-8,-11,-20,-8,9,1,4,-15
1490984369266,2,-9,43,64,20,10,-18,-1,7
1490984369267,3,-9,-23,-51,-6,-20,6,-3,-35
1490984369267,3,-52,-49,-23,14,2,5,3,0
1490984369313,0,9,1,10,14,10,-3,-8,19
1490984369313,0,10,12,10,-23,13,-8,-4,-8
1490984369314,1,9,14,17,-10,10,2,-5,12
1490984369314,1,11,-1,15,54,-1,-16,0,-33
1490984369315,3,-16,-60,-39,-1,5,7,0,-7
1490984369315,3,-33,-6,-25,-10,3,5,0,-2
1490984369316,0,55,64,39,25,-10,6,-9,-16
1490984369316,0,28,-29,45,19,18,10,-3,43
1490984369361,1,-18,-2,22,17,18,9,-2,1
1490984369361,1,5,11,-48,-23,-22,-5,0,1
1490984369364,2,11,-23,-26,-12,18,-4,1,-12
1490984369364,2,-16,0,-77,-12,0,-11,5,-13
1490984369365,0,14,-34,-76,-20,-36,4,2,33
1490984369365,0,14,-22,-12,-23,12,18,-4,-20
1490984369366,1,35,42,17,50,-5,-16,-1,16
1490984369366,1,-66,-42,-42,-57,5,-8,0,-21
1490984369411,2,81,55,31,-32,-2,-3,-2,45
1490984369411,2,-69,-6,6,39,-6,-12,0,-50
1490984369412,3,-72,-33,33,-19,6,1,-4,-6
1490984369412,3,4,6,74,40,27,-1,-2,-4
1490984369414,1,-2,47,28,-3,-36,-18,-2,-6
1490984369414,1,16,9,-40,7,7,-18,-6,6
1490984369415,2,-22,-21,10,-30,19,-33,-1,-33
1490984369415,2,70,64,66,-12,-11,-43,-2,-3
1490984369459,3,-109,-36,23,31,22,-18,0,11
1490984369459,3,66,-33,-61,-10,-14,-1,-1,6
1490984369460,0,-61,-40,-37,-8,-5,18,-3,-12
1490984369460,0,14,8,3,-28,6,40,-4,10
1490984369464,1,45,42,-31,31,5,32,0,1
1490984369464,1,57,16,46,22,5,-7,-3,24
1490984369465,2,-27,-81,-21,-39,-20,8,-2,-18
1490984369465,2,-79,-41,58,31,7,-13,0,12
1490984369508,3,49,65,-69,-21,7,11,-1,-16
1490984369508,3,-30,10,-24,-17,6,-5,-1,1
1490984369510,0,10,-27,5,-9,7,-29,-4,-22
1490984369510,0,-22,17,27,-3,-22,-43,-2,18
1490984369511,2,37,7,62,38,30,20,0,7
1490984369511,2,-58,-23,-65,-8,-29,-23,2,2
1490984369512,3,17,11,-64,-41,0,-35,1,-16
1490984369512,3,11,89,-2,-29,-17,-24,3,10
1490984369556,0,-58,-2,117,27,2,-24,4,19
1490984369556,0,56,8,-95,19,4,-3,-4,-4
1490984369559,1,20,-111,10,19,-11,30,0,-7
1490984369559,1,-85,-99,-6,-66,-1,23,3,-31
1490984369560,3,-56,78,-8,-28,-44,-12,-2,-12
1490984369560,3,-19,10,53,64,35,11,-2,2
1490984369561,0,-57,-69,-23,8,18,33,2,26
1490984369561,0,12,-31,6,-37,4,-47,-1,-20
1490984369605,1,-12,-57,-82,-57,-44,-15,0,5
1490984369605,1,10,29,13,-10,-24,3,-1,-11
1490984369606,2,2,38,29,25,15,-8,0,-35
1490984369606,2,-23,-74,-32,49,66,19,-4,-3
1490984369606,0,6,111,-47,-20,-24,-2,-2,12
1490984369606,0,-126,20,-78,-21,-17,18,1,-41
1490984369607,1,1,91,44,-12,44,-28,-3,-21
1490984369607,1,75,-34,18,20,2,18,-1,105
1490984369653,2,78,-78,73,24,1,-12,-7,-12
1490984369653,2,-87,-7,31,-38,-51,-10,4,-39
1490984369654,3,-31,5,-91,-30,-62,0,2,-16
1490984369654,3,-17,-58,-127,-13,30,-14,-6,-15
1490984369655,1,-65,72,102,3,20,10,-3,-28
1490984369655,1,47,127,-40,-48,-96,-15,3,-7
1490984369656,2,-111,127,-30,-8,-42,-5,-1,-27
1490984369656,2,66,-25,-65,9,21,8,-1,3
1490984369702,3,-35,-30,4,16,48,-1,2,10
1490984369702,3,-16,-96,5,-17,27,-6,-1,-7
1490984369703,0,-3,-122,-101,-41,-5,-9,-1,-6
1490984369703,0,-24,7,-9,-5,-30,9,-3,6
1490984369704,2,-4,89,36,-21,-3,-29,-2,-20
1490984369704,2,25,127,-28,-73,-29,-9,-1,-9
1490984369705,3,-3,42,-90,-9,-14,-16,-2,17
1490984369705,3,3,-98,-3,4,-28,-19,-1,-5
1490984369751,0,-55,-128,-23,18,9,7,1,16
1490984369751,0,-20,-107,101,46,56,13,1,-1
1490984369752,1,32,77,61,22,53,27,-1,25
1490984369752,1,24,120,-10,-47,-37,-2,-1,-1
1490984369753,3,64,-128,-108,-14,-90,-22,1,-1
1490984369753,3,-86,-118,-18,25,20,0,-1,-20
1490984369754,0,29,-62,29,40,48,11,-2,-21
1490984369754,0,-7,-59,23,7,44,31,-2,12
1490984369800,1,21,83,32,-17,22,6,-1,16
1490984369800,1,45,86,-15,-22,31,2,1,22
1490984369802,2,-89,-40,-28,7,40,-7,-5,-51
1490984369802,2,-17,-3,32,-3,4,-3,-1,7
1490984369803,0,55,-37,-59,8,-14,-12,-1,27
1490984369803,0,-10,23,-50,-17,-20,-20,3,5
1490984369804,1,-3,-21,49,-25,-24,-2,-4,0
1490984369804,1,41,-118,96,19,35,8,1,13
1490984369849,2,-80,72,82,25,-10,11,2,-23
1490984369849,2,-9,127,-48,-13,-30,-5,0,-7
1490984369851,3,-6,127,-74,-3,-21,-5,-2,-14
1490984369851,3,-50,70,19,11,3,-5,-1,-34
1490984369852,0,62,-110,86,15,23,-3,0,67
1490984369852,0,87,-96,-43,-21,-1,-15,-1,17
1490984369853,1,-128,-121,-125,14,2,-10,0,-29
1490984369853,1,74,-32,-128,-21,-60,-22,-5,8
1490984369897,2,-32,-13,-78,8,-28,-21,-1,-23
1490984369897,2,27,-78,58,17,8,12,-2,13
1490984369899,3,101,-7,117,3,45,44,-4,27
1490984369899,3,-87,81,119,15,45,31,1,-4
1490984369900,1,30,-89,-62,1,-17,-32,0,-30
1490984369900,1,-38,-67,-6,22,-14,-5,-2,5
1490984369901,2,-66,-100,84,-13,5,3,-1,22
1490984369901,2,-20,-68,3,8,26,3,-1,-4
1490984369946,3,-6,-104,-99,8,3,0,-1,14
1490984369946,3,73,-31,-128,-8,-8,3,-1,9
1490984369948,0,1,68,-117,-9,-10,-6,-3,-36
1490984369948,0,-2,127,34,-14,2,1,-1,26
1490984369949,2,12,-128,-76,-3,-9,-2,0,2
1490984369949,2,-30,-58,-112,7,1,2,-2,-6
1490984369950,3,74,-37,-89,-9,10,4,-2,3
1490984369950,3,-102,-21,18,9,12,-9,0,12
1490984369995,0,8,9,19,1,4,0,5,-5
1490984369995,0,-13,38,7,9,17,2,-3,-7
1490984369997,1,27,54,25,-16,-30,1,-1,3
1490984369997,1,21,-30,15,2,-32,0,0,-11
1490984369999,3,-56,-10,23,2,24,5,2,-25
1490984369999,3,30,124,-18,-24,0,-13,1,-10
1490984370000,0,-40,127,14,9,11,1,-2,-8
1490984370000,0,-28,7,42,-2,-6,-2,-3,-14
1490984370044,1,34,-88,14,-8,-12,0,-2,29
1490984370044,1,3,-82,-18,0,7,6,3,-10
1490984370047,2,-29,-87,-17,19,13,6,0,8
1490984370047,2,57,-6,25,13,2,3,1,-2
1490984370048,0,95,16,-2,-16,-5,-2,-1,3
1490984370048,0,7,11,6,1,-9,-5,2,-9
1490984370048,1,-20,31,-19,-14,-6,1,-1,14
1490984370048,1,97,13,-24,-32,-11,-8,0,23
1490984370093,2,-44,15,22,29,1,-5,-1,-25
1490984370093,2,-122,-40,16,21,10,11,-1,-5
1490984370095,3,45,28,-2,-11,9,3,1,-11
1490984370095,3,8,-8,3,39,18,0,-4,-1
1490984370096,1,-16,-4,12,-22,1,-3,-1,-28
1490984370096,1,61,-39,-50,-38,-14,-1,-1,59
1490984370097,2,-68,21,9,1,16,4,2,16
1490984370097,2,-17,-11,32,15,13,10,-4,0
1490984370141,3,15,2,26,14,1,-2,5,14
1490984370141,3,38,41,-3,12,-10,-9,-2,-59
1490984370144,0,31,3,-24,-14,-8,-8,-1,0
1490984370144,0,65,-17,-31,-35,2,3,-3,61
1490984370145,2,21,27,-16,-13,-5,-2,1,-1
1490984370145,2,89,-17,14,-1,-10,-7,1,-12
1490984370146,3,-25,-26,-19,14,-5,0,-2,-3
1490984370146,3,-128,2,31,12,24,12,-4,-3
1490984370190,0,92,62,94,-43,-3,-3,-1,14
1490984370190,0,-60,-40,-82,18,-7,-9,-2,5
1490984370192,1,72,14,-67,-17,-7,-5,-3,-19
1490984370192,1,-56,6,30,-25,3,1,-3,2
1490984370194,2,13,-25,14,-37,-1,-2,-4,76
1490984370194,2,39,48,37,19,-9,-7,-2,-13
1490984370195,3,-58,45,67,26,5,-3,-1,-31
1490984370195,3,8,-6,-40,-6,-5,0,-3,-31
1490984370239,0,13,-69,-90,15,1,2,0,15
1490984370239,0,-17,38,-37,-49,15,12,-1,9
1490984370241,1,-36,-46,53,40,-9,-17,-1,-18
1490984370241,1,-44,39,-62,35,16,14,0,19
1490984370244,3,82,-56,-30,-4,22,17,2,43
1490984370244,3,-56,-72,34,40,4,5,5,-34
1490984370245,0,46,-2,10,67,13,5,-2,53
1490984370245,0,73,19,-57,-43,-11,-4,0,-1
1490984370287,1,-66,48,89,1,-8,-9,-2,-57
1490984370287,1,107,74,-31,-42,-31,-15,1,53
1490984370289,2,-46,-113,-106,38,29,14,2,-15
1490984370289,2,-51,60,73,38,12,-4,-1,-10
1490984370291,0,-128,-60,-2,56,5,-1,0,-64
1490984370291,0,127,51,-74,-105,-36,2,-3,8
1490984370291,1,53,22,-21,-29,10,18,0,27
1490984370291,1,-4,-81,52,64,17,6,-6,-5
1490984370336,2,-16,91,56,57,10,-9,-4,-41
1490984370336,2,-11,44,42,9,-5,-20,2,-26
1490984370338,3,-26,-71,-111,-72,1,7,-1,23
1490984370338,3,90,24,112,28,-4,-14,-1,20
1490984370339,1,48,81,91,55,0,-9,1,-43
1490984370339,1,27,33,34,8,15,6,2,19
1490984370340,2,-34,-82,-3,-20,2,8,-2,31
1490984370340,2,-91,59,74,24,13,-4,2,-17
1490984370386,3,23,-36,-41,6,10,2,-5,30
1490984370386,3,58,24,-110,-51,-1,-4,-2,-16
1490984370388,0,79,6,-99,-10,-43,-19,0,0
1490984370388,0,-122,-10,54,-101,-15,8,-1,19
1490984370389,2,127,107,108,-50,-29,-12,0,17
1490984370389,2,-86,-104,-67,26,-28,-4,-2,-60
1490984370389,3,-49,-39,-25,-22,26,20,0,44
1490984370389,3,96,11,-56,-43,5,13,3,17
1490984370434,0,5,98,127,-33,15,-14,0,-31
1490984370434,0,37,-26,-47,67,-23,-18,-1,-7
1490984370435,1,-68,-58,-31,-53,-23,8,-1,-14
1490984370435,1,-12,52,-97,-126,-19,18,-3,44
1490984370435,3,-2,38,54,-17,55,-19,-2,15
1490984370435,3,-93,-65,6,80,44,6,-2,-80
1490984370437,0,6,-15,-76,-16,-58,0,0,66
1490984370437,0,-19,-45,-80,-85,-64,10,2,13
1490984370483,1,117,32,28,61,-65,-22,0,36
1490984370483,1,-128,-69,-40,-12,17,12,3,17
1490984370483,2,95,37,75,-13,43,22,-4,19
1490984370483,2,84,39,47,111,62,-5,-4,12
1490984370484,0,-36,-95,-113,-105,-43,10,-3,-49
1490984370484,0,-55,101,127,-57,-42,-8,3,0
1490984370485,1,-35,-76,-66,6,7,8,-1,5
1490984370485,1,66,77,13,80,26,-23,-1,33
1490984370532,2,64,65,84,-99,-2,1,-1,-3
1490984370532,2,-15,-9,2,-6,5,-18,0,49
1490984370533,3,-67,-76,-41,25,2,19,0,-83
1490984370533,3,31,79,-7,-72,-27,2,2,-30
1490984370533,0,4,-71,-40,26,-21,-11,2,55
1490984370533,0,-17,-74,-4,37,63,16,-3,22
1490984370534,1,-10,81,65,32,-34,-12,4,-57
1490984370534,1,49,-17,63,-38,23,15,-8,65
1490984370580,2,16,49,46,92,-33,-38,-4,-50
1490984370580,2,-10,-29,-128,-60,1,8,-1,37
1490984370581,3,81,44,62,-66,-9,9,3,-12
1490984370581,3,-64,54,72,58,-28,-28,0,-60
1490984370583,1,103,84,43,33,-78,-30,-6,91
1490984370583,1,-36,-72,-98,17,9,-9,-2,-27
1490984370584,2,-48,32,18,-70,-60,2,0,22
1490984370584,2,9,14,32,97,22,5,3,24
1490984370629,3,-90,-23,-28,-70,53,37,-1,-36
1490984370629,3,108,50,115,110,43,-35,-1,24
1490984370630,0,-128,-128,-128,-43,-56,22,-1,-11
1490984370630,0,35,110,125,-103,10,17,0,-14
1490984370630,2,-29,-2,-49,-66,-9,-11,-2,-31
1490984370630,2,39,-53,-82,16,-15,2,1,-14
1490984370632,3,45,33,69,14,38,6,1,18
1490984370632,3,-8,-13,35,24,-13,4,-4,-24
1490984370678,0,29,127,-8,0,3,-21,3,-12
1490984370678,0,37,-128,-4,7,-15,12,2,30
1490984370679,1,-6,58,-41,21,19,-19,-2,14
1490984370679,1,-30,-23,20,4,-49,5,3,-47
1490984370680,3,42,47,89,-11,-23,4,3,20
1490984370680,3,71,-2,78,-34,-10,12,1,90
1490984370681,0,-8,78,-56,55,65,-7,-1,5
1490984370681,0,23,-11,-20,-10,-28,-34,-2,-44
1490984370726,1,-42,-74,-47,-28,-28,3,-1,2
1490984370726,1,21,-11,34,-48,12,32,1,10
1490984370728,2,8,-57,56,96,54,-12,-2,24
1490984370728,2,11,105,-89,-27,-20,-17,2,17
1490984370775,0,9,49,127,116,68,8,0,-7
1490984370775,0,46,-96,-119,4,-28,-17,-3,-25
1490984370776,1,-89,-33,-75,-68,-78,11,0,-13
1490984370776,1,-17,74,15,-10,52,1,-5,-34
1490984370777,2,53,88,106,63,-10,9,0,-2
1490984370777,2,82,21,127,40,-1,4,-2,17
1490984370778,3,-87,-68,-128,-42,-1,-14,-3,-64
1490984370778,3,-23,-50,73,-38,-2,11,-1,7
1490984370823,1,49,53,70,15,67,-19,1,39
1490984370823,1,7,-23,-36,-18,-84,34,-2,-5
1490984370824,2,-27,-6,-7,13,14,-3,-4,-5
1490984370824,2,-28,-45,-95,-45,8,3,2,6
1490984370825,3,-2,-59,1,23,-33,15,-9,7
1490984370825,3,-13,-23,-44,16,22,-16,0,8
1490984370826,2,-15,-79,-63,-19,-17,-3,-2,-26
1490984370826,2,-26,-32,-72,-18,21,13,3,-12
1490984370872,3,49,34,-50,4,6,-11,6,31
1490984370872,3,6,-17,62,-11,-40,-5,-1,36
1490984370873,0,21,54,111,59,49,-26,-2,7
1490984370873,0,-2,-59,-73,-48,-79,5,-3,-27
1490984370874,2,0,67,116,8,47,-1,-2,-2
1490984370874,2,36,36,127,59,30,-21,1,43
1490984370875,3,15,-26,-15,-1,-18,31,0,-5
1490984370875,3,-37,-53,-128,-64,5,-12,0,-1
1490984370921,0,2,0,-3,-7,24,-8,-4,1
1490984370921,0,-12,-44,-33,5,-59,32,4,-4
1490984370922,1,-1,38,72,9,117,-21,-1,-17
1490984370922,1,57,46,-11,18,-78,16,0,37
1490984370923,3,-15,-13,-94,-42,2,8,-7,-21
1490984370923,3,28,0,19,7,5,7,4,-10
1490984370924,0,-53,-42,-1,-25,17,-4,0,-15
1490984370924,0,17,25,23,19,-27,-36,-6,-1
1490984370970,1,9,19,32,37,32,-7,-1,-2
1490984370970,1,-24,-55,-86,-43,45,23,-1,-22
1490984370971,2,13,47,52,14,-54,27,2,16
1490984370971,2,-12,8,-1,19,74,-2,0,16
1490984370972,0,-2,-4,-47,11,-63,-15,-1,-12
1490984370972,0,-1,-1,8,-12,-47,14,-1,23
1490984370973,1,15,0,8,16,0,10,-4,24
1490984370973,1,-15,-10,21,-15,26,-35,2,-41
1490984371018,2,26,-18,-2,-7,-53,3,4,54
1490984371018,2,-9,13,21,22,-39,-18,-2,-36
1490984371019,3,-39,-36,-59,-36,-13,13,2,3
1490984371019,3,-3,49,63,30,40,-24,-6,-29
1490984371021,1,9,-1,-58,-23,-10,-2,3,-2
1490984371021,1,-15,-48,-27,-4,3,5,-1,18
1490984371022,2,-26,-34,-15,-20,57,0,1,-8
1490984371022,2,29,7,17,-12,-28,9,-5,7
1490984371067,3,8,33,80,73,54,-5,0,-13
1490984371067,3,-2,26,71,-3,-95,6,-1,1
1490984371068,0,35,36,-5,17,45,-27,4,5
1490984371068,0,-33,-54,-98,-35,-19,28,1,-2
1490984371069,2,23,43,67,55,-60,-23,1,11
1490984371069,2,-16,-2,-43,-15,8,2,2,-9
1490984371070,3,23,37,127,79,45,3,3,-2
1490984371070,3,10,4,-128,-40,-8,-9,-3,1
1490984371116,0,-43,-53,-98,-29,-16,27,3,-10
1490984371116,0,17,23,98,37,113,17,-5,11
1490984371117,1,42,-14,57,13,-28,-16,3,42
1490984371117,1,3,-31,32,-4,69,19,0,-11
1490984371118,3,-14,25,94,64,4,32,-3,3
1490984371118,3,11,-9,7,6,102,-40,0,-1
1490984371119,0,7,35,5,-58,-67,6,-3,24
1490984371119,0,5,42,-2,-52,10,4,0,-12
1490984371165,1,-17,13,-31,-53,-36,-10,0,-2
1490984371165,1,1,-44,27,22,43,-12,-2,8
1490984371166,2,9,-50,11,15,93,12,2,-12
1490984371166,2,3,-3,39,51,-40,-2,3,16
1490984371167,0,14,60,-29,-72,-23,-18,-3,-8
1490984371167,0,-10,31,-1,-12,37,-57,0,-27
1490984371167,1,-3,23,-95,-8,-5,6,2,-14
1490984371167,1,8,49,54,2,-83,0,0,3
1490984371214,2,10,14,-35,-49,-18,-18,-5,17
1490984371214,2,-7,-51,10,37,-15,-6,3,-20
1490984371215,3,4,-62,22,33,53,23,-1,26
1490984371215,3,10,-30,65,-17,-57,-13,-1,13
1490984371215,1,-23,32,-87,-52,-41,-42,-2,-19
1490984371215,1,-8,65,-112,-11,-46,18,0,-3
1490984371216,2,21,114,-37,-38,-103,30,0,20
1490984371216,2,-8,42,-48,22,127,-38,-2,-46
1490984371262,3,-29,-11,-10,-8,-107,44,-2,24
1490984371262,3,-21,-70,-56,-40,11,-44,-2,-28
1490984371263,0,11,-90,-18,46,-42,21,1,21
1490984371263,0,0,-42,-1,61,-95,-19,3,13
1490984371264,1,7,-55,-91,46,-43,-10,1,-32
1490984371264,1,-11,-47,-52,58,125,-43,-4,25
1490984371265,2,23,16,3,21,-53,30,0,-10
1490984371265,2,-2,17,38,24,65,0,0,46
1490984371311,3,28,44,86,5,33,58,-1,-19
1490984371311,3,4,28,108,-11,-37,66,0,60
1490984371312,0,-14,-8,108,-33,108,-36,0,-47
1490984371312,0,-14,-13,127,-20,50,13,1,-9
1490984371313,2,6,32,-17,15,-51,4,-4,26
1490984371313,2,19,8,-86,-99,-38,-3,0,-17
1490984371314,3,-7,-20,-128,-127,-42,-10,2,9
1490984371314,3,-33,-1,-90,-118,-71,-19,-1,-29
1490984371360,0,-10,-39,-25,-30,127,-33,0,14
1490984371360,0,-12,2,85,22,-52,-1,-6,3
1490984371361,1,29,32,75,45,-1,-22,-1,25
1490984371361,1,19,37,4,68,-47,36,-4,-37
1490984371362,3,-69,-12,-63,-30,-78,5,5,-7
1490984371362,3,-87,-14,-6,-109,-16,-73,0,-39
1490984371363,0,-61,-13,19,-81,2,38,1,-32
1490984371363,0,-33,-16,-51,-58,116,-10,0,-24
1490984371409,1,-22,15,-104,21,26,3,-3,25
1490984371409,1,44,15,-128,50,34,-7,1,30
1490984371410,2,76,4,44,21,-101,-30,2,-6
1490984371410,2,98,4,127,46,26,90,-3,62
1490984371412,0,-56,-19,22,8,-5,21,-2,12
1490984371412,0,-51,-4,12,-5,42,-89,3,-5
1490984371413,1,-16,-14,-4,-19,27,-33,0,-32
1490984371413,1,-10,8,-6,6,-63,-31,3,26
1490984371458,2,-38,-36,-40,16,81,-16,-6,-14
1490984371458,2,8,26,10,-22,-72,-34,-1,17
1490984371459,3,30,10,-15,7,127,-10,-1,-24
1490984371459,3,11,13,9,-13,-128,15,2,12
1490984371461,1,13,-8,-25,-12,25,-6,2,4
1490984371461,1,34,10,12,-10,-40,1,3,17
1490984371462,2,-22,-8,-14,-7,54,-6,0,-5
1490984371462,2,-5,-7,-11,10,-41,25,-3,-7
1490984371506,3,6,7,11,22,-97,13,-4,-7
1490984371506,3,8,-10,2,11,127,17,-1,2
1490984371508,0,0,1,-6,-17,12,-63,-3,4
1490984371508,0,6,9,0,-23,-4,4,2,-7
1490984371509,2,0,-1,-12,-39,3,4,0,19
1490984371509,2,-8,-4,2,23,50,-3,-3,-28
1490984371510,3,2,1,12,-3,-8,-10,-1,6
1490984371510,3,31,6,-11,-1,39,-26,-4,-9
1490984371555,0,-11,20,22,3,-92,24,-4,9
1490984371555,0,7,-14,-11,-7,49,8,-1,0
1490984371557,1,-26,0,-11,-12,-56,16,-1,13
1490984371557,1,14,8,3,-7,-14,-17,-3,13
1490984371558,3,-1,5,3,8,-56,27,0,1
1490984371558,3,-12,-10,0,15,116,-10,0,-29
1490984371559,0,7,10,2,-10,-90,-22,1,-11
1490984371559,0,-19,-19,-16,-4,102,18,0,26
1490984371604,1,26,20,7,-22,-74,-38,1,-7
1490984371604,1,3,10,7,3,-8,17,-1,15
1490984371605,2,-3,-16,-4,13,49,13,-2,-7
1490984371605,2,-3,-2,5,-4,-63,-9,-5,-19
1490984371605,3,-12,-13,-19,-4,42,-12,-5,0
1490984371605,3,8,-1,-4,5,-31,-3,-2,9
1490984371606,0,4,3,9,1,22,16,7,0
1490984371606,0,1,5,9,6,-45,17,-2,-17
1490984371652,1,-23,-21,1,16,67,-15,-2,15
1490984371652,1,1,-2,-8,-6,3,-6,-3,-15
1490984371653,2,12,22,13,-7,-71,-20,-3,14
1490984371653,2,1,-9,3,5,6,-4,4,-19
1490984371654,0,3,20,10,2,-14,-15,-7,27
1490984371654,0,12,-3,-10,-19,-55,3,-4,-4
1490984371655,1,-7,1,13,8,49,0,-5,-27
1490984371655,1,7,0,-7,-15,-43,17,4,29
1490984371701,2,-12,6,2,-5,60,-6,-3,-28
1490984371701,2,-20,-13,-18,-2,3,8,-1,25
1490984371702,3,7,-5,-6,1,-2,-2,-2,-17
1490984371702,3,-4,16,17,2,-4,17,-3,19
1490984371703,1,9,-5,-7,-1,-45,3,1,7
1490984371703,1,-8,6,2,-11,12,2,0,-18
1490984371704,2,13,-13,-21,-17,13,3,6,5
1490984371704,2,38,12,5,-14,-64,-25,-3,22
1490984371750,3,-4,10,6,-7,30,-10,-1,-10
1490984371750,3,-1,1,28,20,-39,6,-2,11
1490984371751,0,-26,-1,-9,13,19,-2,-4,-6
1490984371751,0,-14,-6,-11,-16,35,15,6,-21
1490984371752,2,0,0,-10,-4,-4,-2,-7,-5
1490984371752,2,1,-17,8,14,14,15,-4,9
1490984371753,3,8,6,5,-9,-6,2,-5,-12
1490984371753,3,-18,7,-9,10,1,-1,0,-12
1490984371799,0,-4,-30,-10,6,22,-8,-3,-11
1490984371799,0,29,10,25,-15,-17,-4,2,20
1490984371800,1,-4,18,-15,-5,35,-4,-4,9
1490984371800,1,-7,-16,-22,-20,-83,9,-3,-7
1490984371802,3,-36,-11,46,5,11,-3,-2,-2
1490984371802,3,7,32,-38,-9,-12,11,-2,15
1490984371803,0,-1,-17,-27,1,8,2,-1,-3
1490984371803,0,36,34,-11,-9,-37,-12,-8,5
1490984371847,1,22,-27,-9,-9,5,3,1,-9
1490984371847,1,-35,40,74,35,40,-8,-3,-3
1490984371848,2,12,-6,-8,2,-21,2,-5,12
1490984371848,2,-36,-60,-24,-19,-1,-4,-2,-10
1490984371849,0,-6,-20,-12,2,38,-4,-4,-11
1490984371849,0,7,44,81,24,-39,4,-1,5
1490984371850,1,4,54,39,14,4,5,-2,13
1490984371850,1,-12,-56,-64,0,17,-1,9,-1
1490984371896,2,-44,-11,-49,-45,-30,10,5,-8
1490984371896,2,-29,-8,-42,-15,32,11,4,-14
1490984371899,3,36,70,13,-6,-13,-3,3,20
1490984371899,3,3,27,84,37,11,-2,1,8
1490984371900,1,-8,3,4,9,-8,-10,-2,-5
1490984371900,1,42,-3,-23,-25,-7,-14,2,0
1490984371901,2,-35,46,7,-21,-1,2,-2,-2
1490984371901,2,3,37,72,37,-28,-1,0,-21
1490984371994,3,-28,-46,-55,2,16,6,-3,31
1490984371994,3,21,-20,-49,-35,-1,7,-1,-19
1490984371996,0,-9,39,32,2,-13,-3,1,22
1490984371996,0,19,27,-19,-29,13,9,3,-6
1490984371997,1,-52,-52,-6,27,18,-3,2,-30
1490984371997,1,45,-7,79,3,-33,2,1,29
1490984371998,2,37,26,22,22,8,4,-1,11
1490984371998,2,20,0,-58,1,10,0,-1,1
1490984372043,3,-53,-25,-9,-12,-3,0,-1,6
1490984372043,3,-62,-39,-9,-8,27,3,1,-5
1490984372044,0,21,38,23,10,3,-8,-2,-20
1490984372044,0,-13,19,-6,11,-6,9,2,13
1490984372045,2,-16,11,53,-24,6,-12,-4,5
1490984372045,2,3,1,-9,26,-1,-1,-3,-7
1490984372046,3,9,64,4,20,3,-22,-4,-33
1490984372046,3,-32,-23,-58,-18,-12,0,-1,20
1490984372092,0,-37,102,32,0,-7,17,1,-32
1490984372092,0,64,73,44,-5,3,41,1,36
1490984372093,1,56,1,60,21,25,27,5,-15
1490984372093,1,-85,-92,-75,23,-10,-29,2,7
1490984372094,0,58,-40,71,17,26,60,1,38
1490984372094,0,-59,-59,-4,45,5,44,0,14
1490984372095,1,-107,-9,-54,-41,-42,31,0,-56
1490984372095,1,25,-29,-54,-16,9,8,1,40
1490984372140,2,-38,-29,50,22,4,-27,4,3
1490984372140,2,63,18,-33,-17,-27,-23,1,36
1490984372142,3,42,-9,50,14,8,-31,0,5
1490984372142,3,-5,30,32,7,-5,-54,-1,-33
1490984372144,1,-21,21,20,12,-6,1,3,3
1490984372144,1,-20,-2,-25,-7,-8,45,0,-17
1490984372145,2,49,-64,36,5,5,74,-5,26
1490984372145,2,-10,-53,-59,22,7,84,0,-5
1490984372189,3,-9,-3,14,20,28,45,-5,-9
1490984372189,3,90,45,68,-33,-44,-14,-2,45
1490984372191,0,-103,20,-37,-13,-22,-23,-4,-58
1490984372191,0,7,20,-36,-15,3,27,-6,6
1490984372193,2,24,-26,-17,41,28,-53,-1,-20
1490984372193,2,23,42,107,-2,-23,-119,-3,19
1490984372194,3,-1,32,42,-68,-33,-117,1,5
1490984372194,3,16,-61,7,-67,-41,-91,-1,-2
1490984372286,0,66,-58,-110,-46,-27,-8,2,-4
1490984372286,0,19,89,25,22,33,43,6,1
1490984372288,1,-21,-80,-63,45,38,28,1,14
1490984372288,1,-46,-22,65,74,32,38,0,15
1490984372291,3,96,27,56,-31,-27,9,-2,-11
1490984372291,3,-31,42,-97,-4,3,25,1,6
1490984372292,0,-68,-41,-53,12,22,89,-2,-54
1490984372292,0,16,127,79,23,17,2,-2,6
1490984372336,1,79,-46,-7,20,-3,-26,2,33
1490984372336,1,-36,-121,1,18,45,-5,-2,-23
1490984372340,2,-46,119,69,-23,-8,-23,4,2
1490984372340,2,44,-91,-91,-21,-13,-5,-5,3
1490984372342,0,-22,106,-37,13,35,-4,0,-16
1490984372342,0,-4,13,107,36,59,23,0,-27
1490984372344,0,86,28,-50,-29,-50,1,1,38
1490984372344,0,66,2,-84,-3,-19,1,-5,-23
1490984372384,1,-128,-64,66,54,112,20,-3,-30
1490984372384,1,74,21,109,33,52,0,2,14
1490984372387,2,-12,5,111,41,73,-21,-1,4
1490984372387,2,9,-71,-77,-42,-40,-29,2,-23
1490984372388,1,-52,-12,3,7,-5,27,0,-27
1490984372388,1,18,-121,-2,-40,26,35,-2,-3
1490984372389,2,41,-52,117,36,7,12,1,44
1490984372389,2,-59,-27,66,28,-43,2,5,5
1490984372433,3,-13,39,41,-19,-62,7,-6,-21
1490984372433,3,10,-3,-53,-18,-20,-10,1,13
1490984372434,0,-48,-128,-126,-24,-26,1,0,-21
1490984372434,0,71,38,-92,-2,1,3,-5,11
1490984372436,2,-93,16,107,17,93,-6,3,26
1490984372436,2,-6,-37,-10,-33,-13,-4,1,22
1490984372437,3,22,-57,-79,13,51,2,1,-24
1490984372437,3,32,31,-60,-23,-44,-28,-3,2
1490984372482,0,-24,-98,-70,-13,34,12,1,-30
1490984372482,0,-7,24,127,-2,56,22,-1,10
1490984372483,1,41,38,116,2,21,2,-6,-3
1490984372483,1,56,6,-42,-17,-53,-16,2,19
1490984372485,3,-74,-16,32,19,29,10,3,-30
1490984372485,3,10,85,127,-4,46,0,3,10
1490984372486,0,108,74,86,-13,-33,11,-2,18
1490984372486,0,18,8,-95,-15,-35,-10,-2,-30
1490984372531,1,-30,-86,-128,-26,-26,-7,4,1
1490984372531,1,25,-114,-94,23,7,-1,-6,13
1490984372532,2,-82,20,26,4,33,-2,-2,-6
1490984372532,2,-46,3,116,17,76,8,3,-21
1490984372533,0,104,0,-101,-38,-56,-16,-3,19
1490984372533,0,-76,2,-79,-15,-15,-9,-2,-24
1490984372534,1,-32,8,-60,-24,-14,-9,-5,-11
1490984372534,1,46,-9,23,-23,50,-4,-1,17
1490984372579,2,97,15,71,18,4,-5,-5,7
1490984372579,2,-66,-9,30,45,27,9,0,0
1490984372580,3,-26,34,-4,15,-9,5,-2,0
1490984372580,3,-13,-51,-30,44,21,4,2,-1
1490984372581,1,-16,42,17,-19,-29,-9,1,-7
1490984372581,1,46,-47,-15,-7,8,-5,1,1
1490984372582,2,-4,-39,-25,-34,36,-2,-4,8
1490984372582,2,56,90,31,-32,-22,3,-4,35
1490984372628,3,-106,-28,-23,0,3,4,-1,-13
1490984372628,3,50,2,-47,-12,4,9,-3,-13
1490984372636,0,-28,1,-9,-17,14,10,3,2
1490984372636,0,74,34,45,-7,13,-13,2,-18
1490984372637,2,43,3,17,30,16,-9,0,-1
1490984372637,2,-43,18,0,8,-8,4,-5,16
1490984372638,3,48,-35,-29,0,-1,6,2,-8
1490984372638,3,-18,-20,-18,-15,-10,-3,-5,-1
1490984372676,0,-76,1,7,-2,3,5,-2,-9
1490984372676,0,64,-6,2,-3,-1,4,3,-8
1490984372677,1,34,11,5,-2,-4,-11,1,6
1490984372677,1,-116,-18,2,9,14,-2,-4,-5
1490984372678,2,59,9,1,-13,-8,-7,-2,3
1490984372678,2,-53,-18,-12,-3,-11,-6,0,-35
1490984372680,3,33,53,-5,-18,-1,5,0,10
1490984372680,3,-63,-76,-25,-6,8,0,0,-7
1490984372725,0,-40,-1,-1,5,1,0,2,-2
1490984372725,0,-5,-16,4,7,-2,4,3,-7
1490984372726,1,119,16,-18,-10,-15,-19,0,11
1490984372726,1,-95,52,16,-10,-16,1,0,13
1490984372728,3,51,2,26,3,4,-1,0,-1
1490984372728,3,109,65,16,0,-13,-11,-2,-8
1490984372729,0,-104,-61,36,13,14,14,-4,-14
1490984372729,0,-12,-49,-35,27,15,3,-1,-20
1490984372774,1,-81,-15,30,26,15,4,0,-10
1490984372774,1,74,20,-39,-25,2,4,-1,4
1490984372775,2,121,33,-10,-28,-32,-14,0,35
1490984372775,2,25,16,-8,-18,-3,1,-4,2
1490984372776,0,19,-2,33,-4,-3,-2,-2,-42
1490984372776,0,-35,-26,-48,-5,-1,-8,-2,25
1490984372777,1,-23,13,-22,-15,-17,-6,0,-12
1490984372777,1,-5,-56,1,19,18,10,-1,3
1490984372823,2,10,11,-28,9,-3,-11,0,-12
1490984372823,2,-18,-32,-8,-44,-1,-4,2,6
1490984372824,3,-53,95,51,-7,4,-5,-3,-45
1490984372824,3,-28,-30,14,35,-13,-6,0,42
1490984372825,1,44,-30,-30,-2,-1,4,0,73
1490984372825,1,52,74,78,-11,1,-5,-4,-7
1490984372826,2,-50,-40,0,46,10,11,-1,16
1490984372826,2,-16,105,38,-2,-12,-12,-3,-44
1490984372871,3,48,-67,-23,-51,-7,2,-1,19
1490984372871,3,-16,-34,-104,-21,-20,-12,0,-17
1490984372873,0,-67,-15,45,38,21,7,4,5
1490984372873,0,-12,-1,16,35,20,14,-2,42
1490984372874,2,-33,-74,-115,-40,-9,11,1,-3
1490984372874,2,66,88,73,24,8,-3,2,34
1490984372875,3,51,-30,-71,-9,4,6,-4,19
1490984372875,3,-54,26,104,50,14,-5,1,5
1490984372922,0,-74,-27,-40,28,-1,-10,-4,-62
1490984372922,0,29,3,-59,-43,-9,-1,-3,-3
1490984372923,1,33,62,44,-37,-5,3,-3,29
1490984372923,1,77,-48,-62,-44,-17,8,3,-36
1490984372924,3,-106,-105,-128,17,10,5,1,-48
1490984372924,3,22,-5,-14,0,-13,-1,4,-12
1490984372925,0,49,-15,-79,-112,-9,12,-2,24
1490984372925,0,81,33,83,-21,-22,-5,-3,37
1490984372969,1,-66,58,8,8,8,-5,3,2
1490984372969,1,-13,86,103,84,33,10,-7,-15
1490984372970,2,7,-50,-86,-8,1,2,-3,-7
1490984372970,2,123,95,-5,-88,-23,-24,2,3
1490984372971,0,103,-2,-40,-7,-6,-4,0,32
1490984372971,0,14,-6,50,-26,4,6,-3,-63
1490984372972,1,-46,47,70,80,0,11,-5,8
1490984372972,1,30,-67,-20,-61,1,-6,-1,54
1490984373018,2,32,77,-13,1,-6,-11,2,-8
1490984373018,2,-68,-58,55,46,36,28,2,3
1490984373019,3,109,96,12,-42,-34,-16,-1,-16
1490984373019,3,-111,-62,12,46,12,19,0,-24
1490984373020,0,-5,124,61,-68,-31,-6,0,-7
1490984373020,0,33,61,6,-15,12,-10,0,56
1490984373021,1,42,-70,36,93,24,-4,-1,-6
1490984373021,1,26,22,-128,-66,-3,-7,-1,98
1490984373066,2,-1,-56,-7,-56,-50,-5,-3,-51
1490984373066,2,-36,67,65,73,17,26,4,-4
1490984373068,3,-90,-23,3,47,-6,0,-2,0
1490984373068,3,127,70,-98,-24,-17,-27,-1,-44
1490984373069,1,127,92,115,27,-3,-12,-1,-4
1490984373069,1,-52,-64,-52,23,3,0,0,-32
1490984373070,2,-14,127,1,-78,-25,1,-2,11
1490984373070,2,44,-128,40,33,19,13,-2,-13
1490984373115,3,-69,-23,-128,-56,-2,4,4,80
1490984373115,3,26,66,69,-7,13,14,0,-52
1490984373116,0,28,47,10,84,2,0,4,-36
1490984373116,0,-65,-43,-39,1,-21,-30,-5,58
1490984373117,2,-69,5,-47,-10,24,4,-1,12
1490984373117,2,36,76,18,37,0,8,3,-9
1490984373118,3,13,37,32,90,-20,-12,2,23
1490984373118,3,-50,-125,-84,-100,-48,-22,0,-40
1490984373164,0,-32,44,74,9,29,16,-5,-54
1490984373164,0,-81,-47,29,53,19,-12,-1,-14
1490984373165,1,43,-25,-40,-69,1,9,0,6
1490984373165,1,127,127,22,-11,-13,2,-3,62
1490984373166,3,12,15,92,-83,-22,-6,-3,-23
1490984373166,3,-42,-49,-21,82,60,15,0,-2
1490984373167,0,2,82,57,-46,-35,-12,0,23
1490984373167,0,27,93,83,-58,37,7,2,9
1490984373213,1,-22,-84,-104,90,-54,-23,4,-42
1490984373213,1,-39,-47,-16,-101,-14,-1,4,51
1490984373214,2,96,19,-27,16,-10,-10,0,-65
1490984373214,2,-75,-91,-128,-15,2,14,-3,55
1490984373215,0,-17,-20,-128,-92,-11,4,-1,-2
1490984373215,0,16,-65,27,-8,-25,-17,-4,10
1490984373216,1,16,52,-14,-39,9,1,-5,17
1490984373216,1,36,-79,49,93,18,4,-2,11
1490984373261,2,4,-11,-61,-5,-31,5,4,-34
1490984373261,2,-23,51,-67,-70,-2,-5,-3,30
1490984373262,3,-41,-17,80,-42,46,21,0,-14
1490984373262,3,30,62,104,58,11,14,0,8
1490984373263,1,-75,-34,-69,-8,-62,1,5,63
1490984373263,1,33,23,-5,-45,22,7,0,1
1490984373265,2,4,-1,122,52,53,22,2,0
1490984373265,2,51,-11,-100,9,-29,6,-5,5
1490984373310,3,-64,75,104,13,51,-8,-2,-36
1490984373310,3,-28,-49,-119,14,-11,4,4,6
1490984373311,0,4,-12,24,-88,-62,4,-1,23
1490984373311,0,-79,43,18,36,38,-29,1,-36
1490984373312,2,-9,103,127,69,77,8,-4,-2
1490984373312,2,-70,-8,-59,56,-6,-9,0,-39
1490984373313,3,6,-128,-110,-70,5,0,-3,-6
1490984373313,3,2,70,80,-49,4,4,2,-18
1490984373359,0,61,46,23,45,35,9,1,38
1490984373359,0,-42,-51,28,32,-11,-4,-1,-63
1490984373361,1,31,20,-30,10,29,-5,2,22
1490984373361,1,-106,-77,-48,-18,-6,11,2,-12
1490984373362,2,23,6,-39,-73,30,14,0,28
1490984373362,2,61,127,122,67,-31,-9,0,26
1490984373363,3,-8,-56,-97,-39,-21,-20,-2,-15
1490984373363,3,19,5,-42,-31,-3,4,-2,23
1490984373408,0,-47,-39,7,0,-16,-3,0,12
1490984373408,0,-12,-19,16,-9,25,10,-1,-18
1490984373410,1,14,39,26,26,39,15,-3,0
1490984373410,1,61,121,106,-1,-22,-12,2,12
1490984373421,3,-11,18,44,-6,9,7,-1,-13
1490984373421,3,19,13,40,-4,18,-6,-2,31
1490984373422,0,15,47,66,88,20,-9,1,-21
1490984373422,0,-17,-26,-88,-78,-1,-10,-3,-30
1490984373456,1,-16,-28,-46,16,-6,10,3,17
1490984373456,1,7,51,54,12,11,6,-2,17
1490984373458,2,47,-35,-30,-7,-8,-19,-1,-11
1490984373458,2,-3,-9,-55,-2,-12,1,1,22
1490984373459,0,-3,5,14,-22,-82,3,1,15
1490984373459,0,69,63,127,91,104,8,-5,-25
1490984373460,1,-22,-66,-101,-59,-51,5,2,5
1490984373460,1,-27,22,35,-55,-43,15,4,4
1490984373505,2,6,-33,31,13,59,9,-2,-9
1490984373505,2,-11,27,24,-50,-40,-3,0,-15
1490984373507,3,47,69,-6,5,-46,4,0,6
1490984373507,3,-10,-61,-22,49,47,-6,1,-15
1490984373508,1,37,39,30,18,-6,-4,-1,15
1490984373508,1,-29,-66,-128,-62,-69,2,-1,-23
1490984373509,2,12,-10,26,27,63,-30,-1,8
1490984373509,2,11,31,69,-15,0,-4,2,17
1490984373554,3,27,26,127,103,97,6,2,-27
1490984373554,3,0,21,-109,-12,-103,-9,-5,31
1490984373555,0,-20,-75,-124,-82,-23,29,0,-29
1490984373555,0,-24,4,-3,-8,18,9,-1,-10
1490984373556,2,-58,-11,5,16,20,-27,-4,-17
1490984373556,2,30,15,-55,-29,-128,23,-2,11
1490984373557,3,-24,0,-61,-12,3,-15,-6,10
1490984373557,3,4,23,60,-4,53,11,0,-34
1490984373603,0,39,61,61,32,38,-18,-2,24
1490984373603,0,-30,-12,-64,-36,-44,6,0,-25
1490984373604,1,-24,-104,-51,-79,-54,3,-2,-14
1490984373604,1,-22,-34,24,-11,34,7,-1,1
1490984373605,3,21,48,64,19,-57,-30,-2,6
1490984373605,3,-6,4,-81,-14,-30,-45,0,-20
1490984373606,0,-30,-10,-48,-18,-31,68,4,0
1490984373606,0,-11,-23,-59,1,-29,5,-3,10
1490984373651,1,3,21,0,-4,-62,-15,-1,21
1490984373651,1,4,-8,-16,0,127,23,1,16
1490984373652,2,23,24,26,10,-63,-24,0,11
1490984373652,2,9,-16,37,10,19,-10,0,0
1490984373652,0,3,-1,-46,-15,-44,-24,-1,2
1490984373652,0,15,9,22,-26,87,-8,-2,6
1490984373654,1,15,24,35,31,-60,-19,-1,-24
1490984373654,1,-13,-25,-53,-4,-44,-5,-1,5
1490984373700,2,4,11,-17,-53,-10,12,-2,0
1490984373700,2,-12,-21,-7,14,-32,-1,-2,53
1490984373700,3,6,-1,1,24,57,-1,-1,-21
1490984373700,3,-23,5,-14,-45,44,8,-1,1
1490984373701,1,28,32,0,6,-107,-9,-3,29
1490984373701,1,-2,23,54,65,-16,1,3,-12
1490984373702,2,4,-13,-27,-29,-15,29,1,19
1490984373702,2,7,-25,-16,-16,32,-21,0,-22
1490984373749,3,-13,-42,-11,2,75,-14,-4,5
1490984373749,3,7,47,6,-13,0,-1,-6,-7
1490984373749,0,-32,-2,28,32,96,24,-4,-17
1490984373749,0,21,13,25,-7,-99,-19,2,29
1490984373750,1,-16,-11,27,-11,37,30,3,9
1490984373750,1,4,-28,37,-4,84,-39,-4,-40
1490984373751,2,14,-21,3,5,-64,-33,0,39
1490984373751,2,-11,10,83,118,51,13,1,-18
1490984373798,3,5,10,-31,-67,-25,2,2,8
1490984373798,3,5,43,92,8,-116,-15,-3,-11
1490984373800,0,-20,-31,-63,-102,28,1,-1,-21
1490984373800,0,0,-14,0,13,-22,-52,-9,-1
1490984373802,2,-8,35,-45,-57,-63,27,-1,-7
1490984373802,2,3,21,47,-70,-1,15,0,-18
1490984373803,3,-8,34,-4,81,-61,1,-3,31
1490984373803,3,-6,6,-101,-73,59,-31,2,-9
1490984373846,0,-2,16,-68,19,41,-21,-1,2
1490984373846,0,-28,-20,-86,-14,34,3,2,-42
1490984373848,1,6,3,26,19,1,-3,-1,-21
1490984373848,1,25,-19,-72,-88,-85,20,1,32
1490984373849,3,-32,-92,-40,10,117,-25,-2,-24
1490984373849,3,9,23,86,92,-113,76,0,19
1490984373850,0,29,2,22,1,-25,-15,-2,1
1490984373850,0,13,66,-56,-50,57,10,4,6
1490984373895,1,-3,116,-40,-88,-8,-33,1,-24
1490984373895,1,-11,79,-11,65,92,23,-4,3
1490984373897,2,6,5,48,95,-28,-4,-1,3
1490984373897,2,6,-83,54,127,-65,55,-3,1
1490984373898,0,-7,-45,-43,-55,-14,27,3,17
1490984373898,0,13,-7,-16,-70,61,-44,0,0
1490984373899,1,6,48,86,-14,11,16,2,11
1490984373899,1,-14,6,111,77,22,-2,0,-23
1490984373944,2,36,39,127,88,42,-27,-3,23
1490984373944,2,-32,0,22,33,82,19,1,4
1490984373945,3,-2,34,0,-18,-37,-16,-3,-18
1490984373945,3,-11,-31,20,32,127,-32,1,2
1490984373947,1,-7,-4,1,-19,-7,18,-2,-12
1490984373947,1,-8,-19,-42,-15,-32,-35,-3,13
1490984373948,2,-16,-4,-27,-3,99,1,-1,-32
1490984373948,2,6,-1,6,12,-114,36,0,6
1490984373993,3,-12,-15,-28,-3,-32,-32,-1,-2
1490984373993,3,7,10,3,-30,-35,-18,2,12
1490984373994,0,4,-14,-21,18,36,37,-3,-6
1490984373994,0,-15,19,21,2,57,-36,-3,7
1490984373995,2,-3,-2,-4,11,-31,-31,-5,-4
1490984373995,2,26,0,1,4,11,-33,4,9
1490984373996,3,-20,2,14,3,38,29,-3,2
1490984373996,3,-17,-7,-11,-10,-49,-1,2,-15
1490984374041,0,-9,-11,-1,13,56,13,5,-20
1490984374041,0,35,19,0,2,-66,-40,-2,11
1490984374043,1,-3,14,15,-6,-68,12,-2,24
1490984374043,1,5,-1,-8,-22,24,11,0,6
1490984374044,3,25,-8,-12,-9,-12,-4,0,-12
1490984374044,3,-8,3,-6,-25,-33,0,-4,15
1490984374045,0,-18,0,-6,9,-43,0,-1,-2
1490984374045,0,3,-2,3,16,51,-8,-3,-12
1490984374090,1,-16,-11,-14,4,-8,3,6,1
1490984374090,1,13,2,8,4,2,23,1,1
1490984374092,2,-21,-20,-7,16,127,-2,-5,-16
1490984374092,2,21,30,6,-25,-127,-7,1,3
1490984374093,3,2,1,-7,-19,74,-22,-5,13
1490984374093,3,2,-9,-5,20,59,4,-1,-5
1490984374094,0,20,4,-3,1,10,-29,1,18
1490984374094,0,-38,-26,-3,3,84,10,-4,-16
1490984374139,1,14,6,-2,-17,-12,0,-6,-12
1490984374139,1,-15,5,-2,-1,-2,-10,0,-21
1490984374141,2,-3,-4,-11,-23,-66,-4,0,15
1490984374141,2,12,0,3,0,25,-5,3,1
1490984374142,0,-12,4,4,4,2,-25,4,11
1490984374142,0,17,4,-12,-20,-93,24,1,20
1490984374143,1,-23,-1,12,10,26,26,-3,-21
1490984374143,1,12,-12,-15,-10,19,16,-4,-4
1490984374188,2,-5,2,11,11,31,8,0,-24
1490984374188,2,-3,-3,-3,-8,17,-5,-3,-6
1490984374189,3,12,16,10,0,-53,-4,0,29
1490984374189,3,8,-11,-11,-6,-1,-1,-3,-5
1490984374190,1,1,-16,-14,-26,78,-4,0,-19
1490984374190,1,11,21,15,-8,-102,-12,-4,21
1490984374191,2,4,-6,-16,6,-1,18,-4,-7
1490984374191,2,-15,6,10,8,29,-12,3,-8
1490984374236,3,-4,-7,-10,-15,8,-10,-3,11
1490984374236,3,-1,2,4,7,41,10,-1,7
1490984374238,0,29,-1,-3,-8,-4,10,-4,-14
1490984374238,0,-5,23,18,-8,-118,16,1,4
1490984374239,2,3,-2,-2,-9,-11,16,-2,0
1490984374239,2,12,8,8,14,66,-25,-5,4
1490984374240,3,-18,-21,-10,-1,10,19,-1,-18
1490984374240,3,-2,-8,-17,-22,-12,-18,2,26
1490984374285,0,-5,8,11,10,3,26,1,-17
1490984374285,0,4,-15,-4,1,28,0,-6,38
1490984374287,1,-3,7,-10,0,-39,-1,-3,-25
1490984374287,1,-6,-10,0,6,38,20,-8,3
1490984374288,3,-5,14,9,5,7,5,-3,-4
1490984374288,3,1,-3,12,3,7,-4,1,-8
1490984374289,0,-32,5,-8,-7,-8,6,-7,0
1490984374289,0,5,-21,-20,-10,-3,1,-1,0
1490984374334,1,16,-5,4,12,30,-7,-1,6
1490984374334,1,31,42,27,-4,-15,-2,-1,-15
1490984374336,2,-65,-59,-23,-1,-5,2,-2,-10
1490984374336,2,-7,-3,-18,-7,20,-3,4,-13
1490984374337,0,-14,8,28,15,-15,-16,-4,-13
1490984374337,0,-19,8,-25,-10,31,3,-1,14
1490984374338,1,18,-19,-10,7,-68,6,1,-16
1490984374338,1,-11,3,-30,-15,8,4,0,16
1490984374383,2,41,6,26,20,4,10,2,27
1490984374383,2,-9,9,7,0,6,-9,0,-20
1490984374384,3,3,10,-10,-22,-5,-5,-1,11
1490984374384,3,0,-12,-11,-15,17,-16,0,-30
1490984374386,1,-35,21,29,4,-26,-8,0,5
1490984374386,1,79,84,41,-5,-4,-13,-6,15
1490984374386,2,-59,-40,10,38,12,4,1,10
1490984374386,2,51,18,-71,-41,-8,-10,9,-33
1490984374432,3,-77,-24,-73,-20,12,1,5,2
1490984374432,3,47,-36,-17,-21,-13,7,3,7
1490984374434,0,8,32,0,-17,7,2,-6,5
1490984374434,0,-15,-18,5,31,14,9,5,13
1490984374435,1,25,11,28,23,19,7,-7,-27
1490984374435,1,-74,47,23,-13,-22,-6,0,8
1490984374436,2,98,-27,-25,10,-1,-9,3,43
1490984374436,2,-44,31,48,-8,-22,-9,1,-24
1490984374480,3,39,13,8,2,23,0,0,9
1490984374480,3,-39,35,74,37,-9,-12,2,-31
1490984374482,0,22,37,-99,-39,7,-14,-2,29
1490984374482,0,21,-52,24,31,19,15,-5,-9
1490984374529,2,-11,49,20,-5,-13,-13,2,10
1490984374529,2,27,-33,33,12,-3,12,-12,20
1490984374531,3,-3,16,-52,-41,3,-23,4,-2
1490984374531,3,1,-3,30,-1,10,11,2,8
1490984374532,0,-25,-30,-23,9,10,13,1,-19
1490984374532,0,27,57,42,-17,-16,2,-5,14
1490984374533,1,31,-18,43,18,7,-7,-1,-2
1490984374533,1,-8,-17,-43,23,25,-6,3,-26
1490984374626,3,17,35,20,-4,8,20,0,-28
1490984374626,3,-9,2,-15,1,17,-1,1,13
1490984374631,0,46,-9,125,60,-7,-27,-3,-24
1490984374631,0,-26,-21,-97,-69,-50,-22,-1,9
1490984374633,1,33,9,-8,-55,4,32,-6,22
1490984374633,1,-6,4,50,32,-1,-6,-1,4
1490984374634,0,44,37,-30,41,0,-34,-2,37
1490984374634,0,23,-11,-54,-29,6,-23,-2,-17
1490984374675,1,-5,40,9,-30,-18,21,-1,4
1490984374675,1,97,0,-11,4,4,30,1,4
1490984374677,2,-78,-68,-12,57,-6,7,-3,-14
1490984374677,2,-25,41,-2,-33,-9,-49,2,1
1490984374678,1,53,49,14,28,-11,-29,4,22
1490984374678,1,85,0,-29,-20,-9,-2,-1,-8
1490984374679,2,1,21,-3,-21,-7,15,0,-2
1490984374679,2,64,29,20,-15,-2,30,0,29
1490984374724,3,-11,-32,30,26,24,66,-3,2
1490984374724,3,38,25,-43,21,40,46,-2,-5
1490984374726,0,-99,5,21,5,15,-12,3,6
1490984374726,0,-17,-31,-25,-36,-28,-76,-7,8
1490984374727,3,13,-2,12,9,-8,24,0,-1
1490984374727,3,-89,52,-63,-27,-3,8,0,18
1490984374772,0,92,78,81,-53,-29,-5,-1,-5
1490984374772,0,4,-70,-59,30,37,47,1,25
1490984374774,1,11,-20,12,57,3,48,-1,-53
1490984374774,1,-48,-124,-109,-31,11,32,1,-16
1490984374775,2,-20,-25,-67,-6,3,39,1,-4
1490984374775,2,21,109,120,25,14,2,0,41
1490984374776,3,23,81,48,-10,-2,-17,4,31
1490984374776,3,26,44,45,35,-2,-38,2,9
1490984374821,0,28,-20,-22,-8,-26,-23,0,-14
1490984374821,0,-1,-13,-42,-73,-6,-39,8,-48
1490984374822,1,-47,-69,-22,31,-25,6,0,17
1490984374822,1,53,-25,-8,25,19,33,2,-5
1490984374823,0,38,53,-5,-12,-25,-16,2,-12
1490984374823,0,46,-3,1,22,17,16,-4,3
1490984374824,1,18,44,17,-2,13,-7,2,-25
1490984374824,1,-48,60,29,-2,-14,20,2,7
1490984374870,2,47,-123,-16,13,1,-2,-3,78
1490984374870,2,-29,97,-12,-41,-30,9,1,-35
1490984374871,3,-2,90,-58,-50,-10,-20,0,-4
1490984374871,3,73,121,69,24,-26,-3,0,-10
1490984374872,1,24,-29,48,7,17,20,-6,9
1490984374872,1,69,4,-9,-32,30,8,-3,28
1490984374873,2,65,72,36,-21,-5,-11,0,32
1490984374873,2,-40,-97,-53,17,4,-8,0,-12
1490984374919,3,-8,-32,-116,-16,-9,10,0,-6
1490984374919,3,102,-29,7,-20,8,11,-4,-5
1490984374920,0,-93,17,8,84,38,-10,3,-10
1490984374920,0,33,-39,106,-31,-18,-27,-2,31
1490984374921,2,-26,32,-128,-12,-33,-4,-1,-29
1490984374921,2,-72,25,-43,-3,54,27,-5,-25
1490984374922,3,-22,-31,126,-5,-1,6,2,-1
1490984374922,3,-26,-32,121,28,-32,-20,-2,14
1490984374967,0,27,-51,-57,-11,-67,-4,-3,-3
1490984374967,0,15,-36,-123,33,-49,-13,2,10
1490984374969,1,27,-14,-108,-19,-7,15,-3,13
1490984374969,1,-128,-35,-28,50,48,16,-2,-63
1490984374971,3,-15,38,-2,-6,0,-13,0,4
1490984374971,3,27,-54,-115,-25,-2,-1,2,42
1490984374972,0,-104,-60,-16,10,35,-1,-2,-35
1490984374972,0,8,6,54,-29,7,2,-1,1
1490984375016,1,27,56,62,9,2,-3,0,14
1490984375016,1,-53,13,21,40,4,-7,-3,5
1490984375018,2,127,-1,-24,-16,-33,-5,2,4
1490984375018,2,-109,17,48,24,8,-6,0,-28
1490984375020,0,89,24,11,0,-17,2,-5,52
1490984375020,0,-63,-10,-4,20,-25,11,-3,-44
1490984375025,1,-6,-81,91,16,-26,-12,-1,-12
1490984375025,1,80,5,-25,-26,-25,1,0,15
1490984375065,2,-128,-63,-90,9,33,3,-4,-74
1490984375065,2,127,74,-117,-58,0,-5,1,61
1490984375067,3,-29,33,-24,12,43,4,3,-4
1490984375067,3,-31,7,60,41,0,-1,1,13
1490984375068,1,-20,-59,18,-24,7,4,0,8
1490984375068,1,94,29,48,-10,8,1,3,15
1490984375069,2,-73,13,40,19,16,0,0,-14
1490984375069,2,127,-30,-60,-13,-7,-1,-1,18
1490984375114,3,-53,5,-4,-13,-2,2,-2,-11
1490984375114,3,-45,-31,-8,-14,-2,-2,-1,-30
1490984375115,0,1,35,12,-2,-8,5,-2,13
1490984375115,0,71,-15,11,-10,-1,-7,-3,-5
1490984375116,2,34,25,16,-10,6,-1,0,6
1490984375116,2,37,2,-21,-24,-1,-5,1,22
1490984375117,3,11,-13,-4,15,-2,-4,-4,-9
1490984375117,3,6,17,20,25,-3,-8,1,7
1490984375162,0,5,46,7,-14,-16,-5,1,1
1490984375162,0,-20,-59,-53,0,7,1,-1,-33
1490984375163,1,-67,-16,-18,-14,-2,4,0,-20
1490984375163,1,93,11,23,-1,3,0,2,51
1490984375164,2,50,-26,-29,33,16,-1,1,19
1490984375164,2,-48,52,24,-23,-11,-6,-3,-14
1490984375165,3,8,-22,-1,-24,-11,-4,-3,5
1490984375165,3,-56,-2,-6,5,-5,-6,-2,-29
1490984375211,0,80,-15,15,-1,2,-6,-5,24
1490984375211,0,36,24,-8,-4,0,-1,-2,-10
1490984375212,1,-64,-17,1,7,8,2,1,-10
1490984375212,1,11,2,44,16,13,8,-1,-13
1490984375213,3,79,-10,-39,-37,1,7,2,-14
1490984375213,3,-15,-51,-22,-22,-4,4,-4,13
1490984375214,0,49,28,-27,-17,2,4,-1,24
1490984375214,0,-61,41,27,-15,10,7,-1,-48
1490984375260,1,54,-37,32,38,1,-2,2,13
1490984375260,1,27,15,5,4,-7,0,-3,26
1490984375309,2,-45,-53,-22,-8,6,8,-4,-29
1490984375309,2,45,78,52,-13,-8,-16,-3,31
1490984375358,0,25,29,55,-17,-9,-8,2,-22
1490984375358,0,-11,6,-13,-7,-10,-8,-1,10
1490984375360,1,20,-8,-25,-23,0,-1,3,16
1490984375360,1,66,13,-5,2,-6,-3,1,-4
1490984375361,2,-3,79,33,-40,-14,-14,-1,-28
1490984375361,2,-30,-105,-27,15,9,9,-2,-4
1490984375362,3,20,68,35,18,13,-1,1,18
1490984375362,3,96,-32,-24,10,3,6,2,-18
1490984375406,1,-99,-24,-12,39,13,1,-4,-51
1490984375406,1,63,10,-46,-40,-20,-8,3,31
1490984375408,2,-112,-86,-48,26,9,12,-2,-55
1490984375408,2,3,17,15,14,22,10,2,23
1490984375409,3,-54,11,30,4,20,16,3,-10
1490984375409,3,75,-113,-86,-16,6,7,-2,30
1490984375410,0,-60,-28,80,24,12,-4,-1,7
1490984375410,0,-111,33,9,64,-22,-17,-1,-71
1490984375455,1,127,30,-23,-97,-18,-5,-4,25
1490984375455,1,19,104,68,-21,-2,-6,0,13
1490984375457,2,-50,-128,-83,2,24,25,3,-30
1490984375457,2,24,49,-21,-52,-1,0,-2,70
1490984375458,3,76,33,60,62,20,-8,-3,-47
1490984375458,3,-127,35,-16,29,-11,-7,-3,35
1490984375459,0,125,14,-81,-83,-27,-6,-1,-4
1490984375459,0,50,93,113,-47,-23,-16,-1,9
1490984375504,1,-123,-120,-71,8,10,11,2,-24
1490984375504,1,-18,-25,32,62,20,18,0,-22
1490984375505,2,72,112,2,12,-11,-20,-3,48
1490984375505,2,43,-7,-33,-49,20,18,1,78
1490984375552,0,-15,-34,-46,-68,-26,6,-1,-16
1490984375552,0,55,-43,55,59,-14,-9,-2,68
1490984375554,1,-59,127,-76,-15,32,12,2,-62
1490984375554,1,104,-108,127,-1,25,8,-2,53
1490984375555,2,13,79,-52,13,9,-3,0,-3
1490984375555,2,-49,-44,44,-55,-8,-5,0,-31
1490984375556,3,30,-32,-19,22,9,0,-1,41
1490984375556,3,-29,62,-27,-2,-63,-15,0,-67
1490984375601,1,9,45,49,40,-22,-5,3,-10
1490984375601,1,11,-92,-114,-59,-16,-11,0,21
1490984375603,2,-58,59,29,-39,3,0,-1,25
1490984375603,2,-19,-5,-77,81,7,-16,-3,-11
1490984375604,3,45,28,-24,-128,-41,-10,-2,-44
1490984375604,3,-16,8,-59,-37,28,13,-3,66
1490984375605,2,25,-122,-88,79,11,-7,-2,42
1490984375605,2,-26,51,-40,-116,7,18,-1,-12
1490984375650,3,37,45,92,75,15,-1,-7,18
1490984375650,3,44,8,69,90,-17,-3,1,-26
1490984375651,0,-63,-48,-46,-95,4,4,2,54
1490984375651,0,84,56,53,58,4,-8,0,-59
1490984375653,3,-26,43,-46,-5,25,5,1,-29
1490984375653,3,57,105,63,7,21,8,3,10
1490984375654,0,9,-15,103,47,14,-7,-3,-42
1490984375654,0,-87,-110,-128,-50,-16,-1,1,-43
1490984375699,1,122,127,127,-107,-47,10,-5,-25
1490984375699,1,-121,-30,-68,105,29,7,0,5
1490984375701,2,46,-37,-112,-55,-2,-11,-4,-49
1490984375701,2,-56,25,-80,-96,-35,4,4,40
1490984375702,0,21,49,-55,-49,-21,-13,2,35
1490984375702,0,59,16,-15,-38,-13,-5,0,-66
1490984375703,1,-89,8,11,-35,14,0,-4,57
1490984375703,1,98,81,15,29,7,-2,-5,8
1490984375747,2,-70,-5,28,32,-10,-3,1,-25
1490984375747,2,-6,-18,76,34,38,-11,-1,14
1490984375749,3,-51,72,20,-26,-77,0,2,12
1490984375749,3,75,-81,-50,-72,18,15,-7,1
1490984375750,1,69,67,83,71,53,-18,-3,-15
1490984375750,1,19,-64,-47,-54,-25,-37,0,-10
1490984375751,2,-45,29,85,-91,-49,19,-2,32
1490984375751,2,48,-43,80,127,68,24,-3,58
1490984375894,3,53,3,-127,-71,-39,-14,4,7
1490984375894,3,20,40,112,-33,6,0,-3,-62
1490984375895,0,-53,-39,-128,46,13,12,-3,41
1490984375895,0,-50,9,73,-24,-51,12,-1,-12
1490984375899,2,127,-36,-63,45,16,-10,1,35
1490984375899,2,-83,41,-89,-55,-48,-7,-4,-77
1490984375900,3,-38,-20,29,61,-20,-13,1,-27
1490984375900,3,-47,-10,-111,-64,-4,3,3,-24
1490984375943,0,41,39,127,-10,48,9,0,80
1490984375943,0,49,42,62,95,31,5,-1,-9
1490984375946,1,-66,-128,-128,-39,23,-39,-2,-31
1490984375946,1,-16,61,14,-28,-48,16,0,36
1490984375947,2,6,-84,16,-29,0,-8,4,-51
1490984375947,2,1,50,-126,-40,19,-5,1,16
1490984375950,0,-53,15,79,17,-19,7,-3,-71
1490984375950,0,87,73,-75,9,44,-22,-3,70
1490984375993,1,22,-6,94,35,-15,18,2,0
1490984375993,1,50,10,92,0,-70,-5,1,19
1490984375996,2,-50,-92,-124,-30,71,-22,0,-51
1490984375996,2,7,12,91,2,3,6,-1,0
1490984375999,1,42,17,0,-6,-73,-31,0,26
1490984375999,1,30,46,-57,-10,-76,-21,-1,-11
1490984376002,2,-93,-70,71,26,-38,18,-5,7
1490984376002,2,11,-44,-76,0,8,4,1,-26
1490984376041,3,-37,77,98,-10,53,9,-2,-48
1490984376041,3,-25,-82,-98,-57,14,-3,0,7
1490984376043,0,39,19,10,-5,-48,13,-1,3
1490984376043,0,9,53,127,47,44,2,1,18
1490984376044,2,66,44,69,95,115,3,-2,41
1490984376044,2,-40,4,-69,-28,-67,6,0,1
1490984376045,3,-17,-47,-100,-58,-25,12,0,-15
1490984376045,3,-25,-54,-82,-87,-80,-34,-2,-17
1490984376092,0,7,22,63,32,32,22,-2,23
1490984376092,0,33,61,127,77,72,-13,1,-7
1490984376093,1,18,-16,-81,-15,-66,-24,-5,32
1490984376093,1,-7,-12,-50,-18,67,20,0,23
1490984376094,3,-70,-88,-43,-40,17,29,1,-25
1490984376094,3,14,1,-35,5,82,9,-2,1
1490984376096,0,22,6,-6,12,12,-2,-1,31
1490984376096,0,-3,24,24,52,16,13,2,18
1490984376137,1,66,26,-37,-58,-75,-12,2,-2
1490984376137,1,-50,-23,-38,58,-48,-31,-4,28
1490984376139,2,-29,-20,32,-42,15,4,2,-75
1490984376139,2,5,-28,-24,-18,-16,45,-5,35
1490984376140,0,-15,-19,-9,36,14,-42,-2,-2
1490984376140,0,-34,-31,-114,-128,-77,36,0,-2
1490984376141,1,25,-9,-50,-8,-2,21,-3,22
1490984376141,1,-7,0,55,21,123,24,0,-14
1490984376186,2,28,12,2,12,-49,-29,-2,49
1490984376186,2,23,10,96,26,-24,1,-3,-38
1490984376188,3,25,35,116,36,-49,-17,2,12
1490984376188,3,-17,42,4,34,-39,-15,3,-15
1490984376189,0,-5,-18,-128,-121,-88,-7,-3,2
1490984376189,0,-41,-70,-68,1,30,-33,-3,-32
1490984376189,1,34,38,64,12,39,33,2,42
1490984376189,1,25,24,82,69,92,15,2,-8
1490984376235,2,-7,-23,11,-60,-114,7,4,30
1490984376235,2,-5,14,83,56,-7,-32,-3,-44
1490984376236,3,-13,-36,-128,-89,-84,12,-2,31
1490984376236,3,-16,-5,72,16,65,-25,-8,5
1490984376238,1,-20,-27,-4,41,39,-8,-1,-11
1490984376238,1,24,45,111,-30,-7,45,1,-18
1490984376239,2,15,19,-26,68,12,22,0,22
1490984376239,2,19,13,96,12,-75,-16,2,-10
1490984376284,3,-44,-58,-118,-96,-25,-8,-2,-14
1490984376284,3,16,-8,-56,22,-35,40,0,19
1490984376285,0,-8,-8,32,26,81,4,0,-30
1490984376285,0,7,17,70,52,52,-22,-2,2
1490984376286,2,17,51,93,59,55,43,-3,26
1490984376286,2,-11,-46,-72,-69,6,-44,2,-1
1490984376286,3,2,28,61,-65,-58,-103,0,-13
1490984376286,3,-6,-21,-61,-67,-107,-93,-3,-1
1490984376332,0,2,-12,-15,60,119,42,0,-2
1490984376332,0,-8,3,-6,91,-81,67,-1,-2
1490984376334,1,25,18,-20,19,34,57,-5,14
1490984376334,1,21,27,28,-22,10,-39,1,41
1490984376334,3,1,-25,-66,14,-56,-13,0,-7
1490984376334,3,8,23,24,2,49,27,-1,-7
1490984376335,0,23,10,-39,-17,-19,-20,2,-4
1490984376335,0,-24,-2,23,73,81,13,4,3
1490984376381,1,16,7,15,24,39,-25,-2,10
1490984376381,1,-2,13,127,77,-50,-46,-2,-5
1490984376382,2,-16,-46,-111,-110,31,-12,-1,-33
1490984376382,2,-17,-16,13,-63,44,9,-1,8
1490984376383,0,5,27,105,80,44,29,3,-43
1490984376383,0,-2,20,4,-8,-104,-72,2,7
1490984376388,1,-17,-41,-44,-19,68,21,-2,2
1490984376388,1,-12,-27,-38,-37,51,33,-4,-33
1490984376430,2,-25,-14,-97,-83,47,-7,-1,15
1490984376430,2,38,21,-54,-125,-88,-30,-8,31
1490984376432,3,-51,3,13,-46,-87,-33,3,-44
1490984376432,3,-10,-11,-11,6,-16,-49,0,-18
1490984376434,1,16,23,-2,31,67,-47,-4,11
1490984376434,1,-5,-23,-103,-55,-51,0,-3,9
1490984376435,2,2,25,10,1,-91,30,-6,-10
1490984376435,2,-20,-5,28,60,71,4,0,-14
1490984376479,3,14,-28,47,-52,110,67,-1,24
1490984376479,3,3,42,94,-3,15,13,1,-8
1490984376482,0,21,24,7,-95,-57,-88,-3,-10
1490984376482,0,-15,-29,-70,-66,-26,5,3,2
1490984376483,2,-21,-54,-128,-62,-31,1,1,6
1490984376483,2,9,-3,-128,1,48,54,-1,3
1490984376484,3,-5,9,-100,99,20,89,2,-26
1490984376484,3,-17,-2,-71,57,-29,48,-1,-10
1490984376528,0,20,15,21,55,64,-40,3,46
1490984376528,0,18,3,32,17,12,-20,-2,-9
1490984376530,1,-27,-31,99,54,123,28,0,-30
1490984376530,1,20,1,11,29,105,-50,-5,11
1490984376532,3,0,29,96,-34,58,32,1,16
1490984376532,3,39,45,127,-3,-20,56,-2,31
1490984376533,0,-33,-5,65,-19,-70,5,-8,-20
1490984376533,0,-16,-7,35,8,-52,-3,0,-7
1490984376576,1,14,7,30,-3,-91,-25,-3,-9
1490984376576,1,-13,-23,-24,-10,79,33,-2,8
1490984376578,2,26,9,-17,-33,-54,-44,0,19
1490984376578,2,-18,-27,-26,6,82,-26,-2,-25
1490984376579,3,-1,8,-13,-13,-98,29,0,-4
1490984376579,3,12,17,4,27,-8,-41,-1,26
1490984376579,0,-2,-15,-7,3,42,30,4,-19
1490984376579,0,6,-12,-36,-10,7,-18,1,-9
1490984376625,1,-2,13,13,16,65,-25,-3,-2
1490984376625,1,-1,10,9,9,-28,-18,-5,16
1490984376626,2,20,-1,-7,-10,-4,-19,6,47
1490984376626,2,-1,-14,-24,-20,109,18,-3,-12
1490984376627,0,3,5,15,19,29,8,-4,-12
1490984376627,0,14,10,-8,-6,-44,18,1,26
1490984376628,1,-11,11,1,2,-79,-64,-5,-2
1490984376628,1,-12,-9,-2,13,85,26,-1,-31
1490984376674,2,-3,-6,-14,-10,-43,19,-2,-2
1490984376674,2,14,11,2,-10,22,-22,2,12
1490984376675,3,7,12,8,-6,6,7,-1,-1
1490984376675,3,-7,-4,1,6,29,-21,3,5
1490984376676,1,37,-11,-18,-9,103,12,-1,17
1490984376676,1,-39,3,9,-1,-15,11,-2,5
1490984376677,2,-2,-18,-17,-19,45,18,-4,-17
1490984376677,2,5,13,6,-13,8,-33,-5,8
1490984376723,3,-9,-22,-12,16,4,-9,0,-4
1490984376723,3,1,9,4,0,-39,15,6,-6
1490984376724,0,4,8,8,2,14,-15,-5,-5
1490984376724,0,3,-5,-4,-4,6,24,-2,3
1490984376725,2,-48,0,4,5,44,17,-2,-27
1490984376725,2,8,2,1,8,-15,-14,-3,19
1490984376726,3,9,-7,-1,-7,24,16,-2,25
1490984376726,3,-9,2,-3,3,-27,-12,-2,-14
1490984376771,0,23,12,-4,-16,-41,6,-3,9
1490984376771,0,-12,-12,18,12,7,25,-3,-9
1490984376773,1,-14,1,-24,-14,-30,-2,1,-14
1490984376773,1,17,9,6,-12,-21,-2,0,3
1490984376774,3,-10,-3,19,15,17,-16,-4,-9
1490984376774,3,21,-1,4,-3,0,-10,-4,7
1490984376775,0,-24,-6,-13,-16,3,8,-1,16
1490984376775,0,1,-4,-4,5,20,28,5,-12
1490984376820,1,39,14,6,15,56,-11,2,-2
1490984376820,1,-7,6,-2,-13,-32,2,-5,6
1490984376821,2,-7,0,10,8,-52,-31,-3,4
1490984376821,2,-14,-11,-6,1,-16,-21,-2,16
1490984376822,0,12,18,0,-10,-59,10,-2,22
1490984376822,0,-14,-11,-8,5,39,-4,2,-20
1490984376822,1,-15,-16,-2,-9,44,-24,0,25
1490984376822,1,13,22,9,-2,-84,22,0,7
1490984376868,2,7,2,-2,0,19,20,0,-29
1490984376868,2,27,21,21,8,-21,0,-6,5
1490984376869,3,20,1,11,-8,26,-15,2,8
1490984376869,3,12,-3,2,4,12,8,0,-1
1490984376870,1,15,-6,-47,-11,-2,18,-1,7
1490984376870,1,-29,4,35,24,43,-15,6,-19
1490984376871,2,24,20,12,7,-51,9,0,11
1490984376871,2,-11,18,-6,-18,14,10,-2,-22
1490984376917,3,-7,-3,49,13,-19,-15,3,1
1490984376917,3,-20,-29,-84,1,49,12,-11,11
1490984376918,0,25,-6,-13,-11,22,-6,-2,2
1490984376918,0,-19,-4,14,6,-36,11,-6,-8
1490984376919,1,-25,-3,5,-2,-35,5,-3,-3
1490984376919,1,1,26,20,6,-17,-9,-3,-9
1490984376920,2,7,-21,-21,-13,17,14,-4,-12
1490984376920,2,39,13,-11,-11,7,-7,-3,26
1490984376966,3,-11,-17,-27,13,6,15,-6,16
1490984376966,3,4,-26,40,-7,-3,-14,5,-33
1490984376967,0,0,24,-93,-7,1,-14,0,31
1490984376967,0,2,-51,-13,-13,16,2,1,-12
1490984376968,2,-57,4,64,3,29,-7,2,-22
1490984376968,2,18,-11,-20,14,-29,12,4,12
1490984376969,3,-37,4,11,12,8,-9,-1,-18
1490984376969,3,37,16,-38,-19,23,-10,1,-4
1490984377015,0,14,70,-15,5,-63,3,0,-27
1490984377015,0,18,13,-9,-23,-7,3,4,36
1490984377017,1,-38,-58,-56,-35,0,21,0,19
1490984377017,1,9,-4,78,29,1,-8,-12,9
1490984377018,3,-45,-20,30,30,1,2,4,3
1490984377018,3,34,-20,-4,-19,-6,-11,2,13
1490984377018,0,-17,-25,44,-1,13,-17,0,1
1490984377018,0,-32,-2,-59,-8,11,15,-5,2
1490984377064,1,55,-5,-29,-14,36,9,-4,-18
1490984377064,1,-46,70,-33,17,-29,4,-1,-10
1490984377065,2,26,-83,-26,-7,24,15,0,1
1490984377065,2,26,34,71,4,1,-5,2,37
1490984377112,0,58,60,-2,-29,-82,1,-5,4
1490984377112,0,-51,-46,-3,16,31,-4,-7,7
1490984377114,1,23,27,67,-16,-14,16,0,-21
1490984377114,1,-36,-37,-21,35,5,-10,1,-3
1490984377115,2,38,-4,-57,-23,-15,0,3,2
1490984377115,2,-44,71,50,-32,15,-12,2,-15
1490984377116,3,-30,-32,-28,35,0,-20,2,-4
1490984377116,3,-10,-36,-12,-31,-24,-1,2,-7
1490984377161,1,17,44,24,11,28,3,-5,-9
1490984377161,1,16,72,29,16,-39,-18,0,6
1490984377163,2,-38,-35,-64,-33,7,2,-3,-16
1490984377163,2,58,-44,-62,-42,-19,-8,3,-24
1490984377163,3,17,24,65,12,21,17,4,25
1490984377163,3,-73,44,6,36,34,13,-4,-11
1490984377164,2,-106,-33,6,23,22,-3,-4,6
1490984377164,2,-41,23,-45,1,-12,-21,-2,-29
1490984377210,3,108,14,-9,10,-25,-1,0,49
1490984377210,3,17,-72,-30,1,2,21,1,-28
1490984377213,0,-72,70,76,26,7,56,3,31
1490984377213,0,39,6,3,36,19,28,-2,-10
1490984377215,3,59,29,-6,46,28,-11,-1,9
1490984377215,3,-34,15,32,-7,3,-81,0,-16
1490984377217,0,70,12,72,12,-8,-107,2,20
1490984377217,0,-23,-46,32,-35,-35,-88,-1,10
1490984377259,1,-12,40,-68,-89,6,-69,-2,-39
1490984377259,1,-70,-117,-112,-3,-39,37,1,14
1490984377261,2,31,45,111,75,32,88,-7,16
1490984377261,2,-9,-18,-74,-10,20,89,7,-16
1490984377262,3,59,-16,-38,-10,-1,110,1,9
1490984377262,3,-96,-23,13,59,62,116,-2,0
1490984377263,0,124,101,80,29,2,-29,0,82
1490984377263,0,7,-29,-61,-30,-32,-84,0,-23
1490984377308,1,-65,-25,-12,-64,-28,-64,2,-8
1490984377308,1,8,17,-100,-78,-9,25,5,-24
1490984377310,2,1,-62,-3,-14,8,-9,-2,-23
1490984377310,2,-12,82,55,34,28,-54,-3,-24
1490984377311,0,-80,104,31,-40,-3,-28,3,7
1490984377311,0,48,-83,-95,16,15,30,-3,-23
1490984377312,1,-128,-2,12,36,29,80,2,-15
1490984377312,1,71,17,67,60,43,117,-2,8
1490984377357,2,104,47,-17,-80,-3,-31,-4,10
1490984377357,2,-93,-28,-27,-33,-72,-40,-8,-43
1490984377359,3,-23,43,68,19,-1,17,-4,-1
1490984377359,3,84,8,-14,1,-2,24,-1,33
1490984377408,1,25,31,29,-21,-32,-107,-4,73
1490984377408,1,29,11,-21,-62,-70,-120,-1,-35
1490984377409,2,-68,-54,1,9,-14,24,2,-39
1490984377409,2,-74,-69,-101,27,3,104,4,-12
1490984377411,3,35,-14,3,32,55,74,-1,10
1490984377411,3,37,39,79,9,14,28,-2,43
1490984377412,0,98,20,-77,-19,-43,-29,-5,16
1490984377412,0,-84,-40,23,5,14,60,1,-3
1490984377502,2,67,32,-57,-18,-5,-53,0,-41
1490984377502,2,-6,32,-12,-13,-37,53,0,34
1490984377504,3,58,-36,-100,-56,-9,58,-3,-5
1490984377504,3,-41,-42,7,-15,26,-25,-1,-3
1490984377505,0,5,-16,27,9,-41,-40,1,49
1490984377505,0,75,104,43,-31,-32,-58,0,0
1490984377511,3,-62,-38,47,-9,-51,8,2,-24
1490984377511,3,45,19,104,-12,-24,-3,-3,20
1490984377552,0,-51,-128,-118,11,24,29,4,-8
1490984377552,0,-34,29,-71,-15,3,9,1,-1
1490984377553,1,29,127,-93,-37,-1,-7,8,-5
1490984377553,1,-84,16,-46,-1,5,10,-4,10
1490984377554,0,-90,-12,-88,-9,34,13,1,-26
1490984377554,0,-28,5,-2,12,21,-9,-1,-5
1490984377555,1,78,15,-107,-29,-8,-14,-2,-41
1490984377555,1,7,20,-89,-19,-4,3,-2,37
1490984377600,2,-89,74,120,8,26,14,-1,-15
1490984377600,2,26,-49,43,20,-28,-7,-1,22
1490984377601,3,-8,91,42,17,15,3,0,-10
1490984377601,3,-1,8,0,-5,4,5,-2,2
1490984377602,1,-110,-71,69,-19,-77,7,0,10
1490984377602,1,63,-72,-45,-27,-54,-2,1,-4
1490984377603,2,-105,-35,-57,-4,-18,-1,1,-15
1490984377603,2,73,19,-50,11,26,-5,1,5
1490984377649,3,72,14,-8,-2,29,-10,-2,23
1490984377649,3,-128,9,20,24,47,15,1,-30
1490984377664,0,-6,7,47,13,-1,-1,-1,-6
1490984377664,0,56,69,33,-12,-28,-5,2,11
1490984377665,2,9,-32,-17,13,23,2,-2,-19
1490984377665,2,53,51,22,5,2,-10,1,-12
1490984377666,3,-23,-16,75,7,22,2,-5,33
1490984377666,3,-2,-60,25,-6,20,14,-4,4
1490984377698,0,2,-28,-59,-27,7,16,-2,10
1490984377698,0,58,22,-59,-22,-19,-5,1,-19
1490984377699,1,-8,-31,-128,20,-1,-5,0,-22
1490984377699,1,-124,-51,-74,-17,3,0,-2,-4
1490984377700,3,19,35,69,-1,29,-9,-3,25
1490984377700,3,39,48,35,3,-41,-13,-1,-13
1490984377711,0,15,-84,0,4,-36,-7,2,-4
1490984377711,0,-39,5,-31,-11,13,0,-3,-17
1490984377746,1,-22,43,2,-22,-3,-6,2,-22
1490984377746,1,-79,-14,-39,9,46,20,-3,4
1490984377748,2,87,23,9,-15,-8,-11,-3,3
1490984377748,2,34,-53,5,28,-7,-6,1,30
1490984377750,0,-120,-26,70,37,13,15,-2,-23
1490984377750,0,-49,-10,70,15,14,12,-1,-8
1490984377751,1,39,-4,-24,-20,-10,-8,2,17
1490984377751,1,-20,-87,-109,-9,-6,-3,-2,6
1490984377795,2,49,37,-89,-29,-19,-7,-3,8
1490984377795,2,71,70,16,-6,1,1,0,0
1490984377797,3,-48,-1,57,33,8,2,-3,18
1490984377797,3,-37,44,73,28,1,2,2,1
1490984377798,1,-53,0,18,13,8,3,2,-8
1490984377798,1,-51,-31,-2,12,26,1,-2,-30
1490984377803,2,10,-9,4,4,15,5,-5,16
1490984377803,2,62,2,-22,-32,-14,-13,-3,29
1490984377843,3,4,-25,5,14,-3,1,-2,21
1490984377843,3,53,26,15,7,-4,-8,0,-36
1490984377844,0,-60,-15,-6,14,11,9,3,-7
1490984377844,0,-29,-33,-28,-4,2,11,-1,-34
1490984377845,2,15,44,26,1,-8,-13,5,6
1490984377845,2,-26,0,-12,0,3,0,0,8
1490984377846,3,29,-28,-10,3,1,-8,-2,-23
1490984377846,3,-37,23,-8,-47,-26,-9,1,-3
1490984377892,0,78,17,-3,-10,4,3,1,9
1490984377892,0,-110,3,24,25,14,2,-1,-11
1490984377893,1,42,-23,-36,-13,-1,0,2,-75
1490984377893,1,34,12,27,-13,-3,1,-1,67
1490984377894,3,-25,9,33,45,3,4,-1,19
1490984377894,3,19,16,-48,-3,5,1,1,-6
1490984377895,0,-44,33,-4,-59,-6,1,-1,-18
1490984377895,0,-14,11,47,18,12,1,0,-32
1490984377941,1,51,28,-1,-11,-10,-4,4,41
1490984377941,1,23,-54,-23,-10,-12,-17,-1,-30
1490984377942,2,-44,-20,12,26,21,16,-6,47
1490984377942,2,77,19,54,-1,-17,-11,2,-33
1490984377942,0,13,-2,-18,-13,4,1,-1,29
1490984377942,0,-54,43,-14,-32,-5,-3,-2,-4
1490984377945,1,37,-9,84,-63,-14,-6,1,-20
1490984377945,1,57,51,-10,44,5,-10,-5,2
1490984377990,2,-69,-51,-29,33,13,13,-1,-17
1490984377990,2,1,-9,1,-50,-7,-5,5,20
1490984377991,3,7,80,41,6,-20,-16,2,-19
1490984377991,3,-21,-90,-57,-3,19,15,0,-4
1490984377992,0,127,66,104,-28,-15,-2,-2,70
1490984377992,0,-91,-36,-73,96,17,-2,-3,-41
1490984377993,1,11,34,-63,-86,-10,-2,-3,24
1490984377993,1,76,59,91,-40,2,5,5,11
1490984378038,2,-60,-95,-64,73,3,-14,-2,-46
1490984378038,2,104,102,53,-23,-15,-11,-2,0
1490984378039,3,-4,-122,-87,15,12,2,-2,-2
1490984378039,3,-85,20,44,-30,-10,-9,0,-68
1490984378040,1,47,73,-9,11,-4,-2,0,34
1490984378040,1,-48,-52,46,6,7,0,-3,-11
1490984378041,2,55,56,50,0,-10,-15,4,-48
1490984378041,2,-13,-22,-41,60,-15,-8,0,66
1490984378087,3,-20,-6,-30,-77,6,12,0,-27
1490984378087,3,5,-78,56,87,15,14,2,60
1490984378088,0,-89,46,30,-42,13,1,0,-80
1490984378088,0,83,-36,28,-41,-10,-2,-7,21
1490984378089,2,-101,-50,76,81,22,5,-2,-29
1490984378089,2,41,56,19,25,6,-3,-2,-53
1490984378090,3,-128,8,113,-52,-7,4,-2,-12
1490984378090,3,78,-15,-40,95,-13,-23,1,-19
1490984378136,0,79,-23,-117,-76,-30,-9,1,55
1490984378136,0,-101,61,-20,-57,8,21,-1,-46
1490984378137,1,55,-93,-82,91,34,13,0,-26
1490984378137,1,71,127,77,-17,3,-4,-1,1
1490984378137,3,-97,-110,95,83,24,-8,0,-84
1490984378137,3,36,58,-113,-97,-42,-22,-1,-15
1490984378138,0,-11,-71,-83,-36,-7,10,-1,21
1490984378138,0,-26,-3,74,32,36,19,4,-43
1490984378185,1,27,106,28,102,-21,7,-4,59
1490984378185,1,-82,-78,75,33,36,4,-2,10
1490984378187,2,29,83,106,-17,-29,-17,0,-25
1490984378187,2,19,-17,-128,-52,-13,-7,1,11
1490984378188,0,18,-64,26,101,10,7,-4,-15
1490984378188,0,78,6,-9,-39,-1,-6,3,73
1490984378189,1,-33,-46,11,-48,-22,-13,0,-54
1490984378189,1,-23,-80,-127,-128,1,14,2,29
1490984378234,2,96,127,127,54,-2,-1,0,68
1490984378234,2,-62,-128,-80,62,22,5,-3,-38
1490984378236,3,57,93,60,-75,12,-9,0,93
1490984378236,3,-120,-4,5,41,4,16,-1,-5
1490984378237,1,79,76,51,24,-26,5,-1,-35
1490984378237,1,49,-50,30,40,-28,-26,2,9
1490984378238,2,-17,-50,-95,-87,13,9,-2,-17
1490984378238,2,-11,30,89,12,6,-7,1,-38
1490984378282,3,95,-5,-77,-24,-5,2,3,-3
1490984378282,3,-70,72,-22,84,-10,-8,-2,-11
1490984378284,0,-22,-49,3,-30,6,-6,3,-29
1490984378284,0,7,93,102,-61,-7,0,-4,47
1490984378285,2,-26,-12,-71,-56,28,6,-3,55
1490984378285,2,-33,61,104,112,2,14,0,-5
1490984378286,3,47,-93,-67,-1,15,-8,1,44
1490984378286,3,7,10,-120,-58,-41,-24,-2,-27
1490984378332,0,81,56,45,-110,-22,15,1,-38
1490984378332,0,-41,64,50,65,43,-21,3,81
1490984378333,1,-38,-46,-59,78,18,34,-4,-89
1490984378333,1,-73,-48,-42,-66,-11,-40,-5,50
1490984378334,2,-38,-91,-123,-88,-25,44,0,-33
1490984378334,2,127,77,71,-60,22,1,-3,74
1490984378334,3,-18,59,108,80,-12,-12,1,-22
1490984378334,3,-74,-29,111,-4,36,10,1,-67
1490984378380,0,41,29,36,127,104,6,2,-24
1490984378380,0,48,-128,-128,-79,-128,-29,4,-66
1490984378381,1,-7,108,-72,-102,-7,-4,3,47
1490984378381,1,127,65,127,3,26,16,3,121
1490984378381,3,29,9,-46,-54,-22,-20,-3,-44
1490984378381,3,-74,-109,-88,-55,40,7,1,55
1490984378382,0,39,127,127,-5,-45,-1,4,7
1490984378382,0,74,-74,-58,127,32,-1,-1,-3
1490984378429,1,-44,83,-117,-123,-59,-5,2,25
1490984378429,1,-36,-53,-60,8,52,32,-3,-41
1490984378430,2,12,100,68,51,26,-3,-5,44
1490984378430,2,-71,-104,-108,29,76,29,-3,-54
1490984378431,0,-116,-97,60,30,82,17,5,-52
1490984378431,0,18,97,-16,40,-80,16,0,28
1490984378432,1,68,-67,-59,-26,66,-36,-3,46
1490984378432,1,-81,-31,-61,-80,-128,-4,-2,-45
1490984378478,2,11,13,-44,-65,39,-9,2,-64
1490984378478,2,106,92,127,8,52,22,-2,50
1490984378479,3,-16,-128,127,106,76,31,0,3
1490984378479,3,29,55,37,37,-33,-37,-5,-43
1490984378480,1,49,85,85,29,63,24,-6,40
1490984378480,1,1,-67,30,101,8,4,4,-89
1490984378481,2,-40,-25,-110,-44,-18,-12,-7,25
1490984378481,2,-7,33,85,-8,65,2,-4,-40
1490984378526,3,-4,0,63,-30,-31,21,0,-6
1490984378526,3,127,127,30,57,61,-2,-4,77
1490984378527,0,-56,-75,48,30,-55,-29,-4,-22
1490984378527,0,-37,-43,-117,-70,28,9,4,-39
1490984378528,2,14,-1,-79,-14,-5,-11,2,64
1490984378528,2,-30,-8,113,-33,-71,-21,2,-84
1490984378528,3,-42,44,-16,33,38,27,3,-7
1490984378528,3,41,3,-48,-105,-32,-8,1,7
1490984378577,0,44,-22,4,92,51,-13,-3,1
1490984378577,0,64,41,-84,-96,-81,-25,-1,21
1490984378578,1,-128,6,-51,45,23,19,-3,-90
1490984378578,1,47,16,70,-2,-10,-12,-6,4
1490984378578,3,-26,-15,25,-17,-18,-19,1,-20
1490984378578,3,14,21,100,57,25,4,1,-1
1490984378580,0,17,56,18,13,27,20,0,10
1490984378580,0,-14,-69,-121,-46,-21,-23,0,15
1490984378623,1,-61,-96,-59,-58,-35,-8,1,-10
1490984378623,1,17,46,70,44,-5,33,-1,-2
1490984378625,2,1,30,5,18,57,-10,5,1
1490984378625,2,30,58,-11,25,-23,-15,-2,22
1490984378625,0,-35,52,104,2,45,5,-1,-16
1490984378625,0,-30,-9,-66,21,-34,7,-1,8
1490984378626,1,31,-31,-59,-14,-43,-7,0,17
1490984378626,1,53,72,64,27,36,-11,3,6
1490984378673,2,-23,-65,13,-4,-64,26,2,33
1490984378673,2,-24,11,26,28,68,-5,-4,-15
1490984378676,3,39,43,88,4,-16,5,2,34
1490984378676,3,-15,16,-115,-73,-68,3,0,-10
1490984378677,0,-7,-25,-115,31,95,-8,-4,-26
1490984378677,0,42,15,127,14,-71,6,3,34
1490984378678,1,-7,-3,34,-43,90,-9,-5,-16
1490984378678,1,-27,22,-66,-41,-45,-7,-2,-13
1490984378721,2,6,-20,-16,4,6,-8,-2,-7
1490984378721,2,5,-18,63,53,29,14,3,11
1490984378723,3,40,65,44,43,13,-11,-6,15
1490984378723,3,-62,-104,-61,-51,0,-21,1,-9
1490984378724,1,34,2,93,76,-82,2,-1,11
1490984378724,1,-40,-16,-57,-45,8,-10,-2,-4
1490984378725,2,-25,-56,-120,-54,-104,2,0,5
1490984378725,2,16,42,81,-7,29,17,-3,-7
1490984378770,3,47,38,68,121,106,9,2,41
1490984378770,3,-91,-75,-67,-67,22,-2,2,-53
1490984378771,0,23,22,14,8,-19,9,-2,41
1490984378771,0,-9,36,39,40,60,-25,-3,-22
1490984378772,2,49,28,52,3,-45,20,-3,72
1490984378772,2,18,27,24,6,7,-39,-2,11
1490984378773,3,27,54,72,39,-6,14,-2,13
1490984378773,3,23,77,57,92,39,-28,0,-19
1490984378819,0,-57,-73,-75,-81,-118,-17,2,-55
1490984378819,0,-21,-22,35,29,16,19,-2,39
1490984378821,1,-5,17,5,35,47,-15,-1,7
1490984378821,1,12,35,127,87,72,28,-6,35
1490984378822,3,-79,-128,-128,-128,-63,-17,2,-37
1490984378822,3,-23,26,124,48,39,3,-4,-12
1490984378823,0,-25,18,-2,-22,-58,25,-1,32
1490984378823,0,22,3,50,-14,-26,16,-4,-4
1490984378869,1,-7,89,111,118,59,0,0,-17
1490984378869,1,6,-72,-122,-104,-52,-20,4,16
1490984378872,2,20,-21,32,21,18,-17,2,-26
1490984378872,2,-18,9,48,16,-3,44,0,31
1490984378873,0,8,-15,-11,-16,127,-1,-2,-27
1490984378873,0,11,-4,-55,6,2,-11,1,20
1490984378874,1,-9,-48,-93,-55,99,42,0,-7
1490984378874,1,-19,34,41,80,89,-7,2,-17
1490984378918,2,48,40,-25,-29,-94,0,-1,22
1490984378918,2,-47,-26,23,-33,-20,-14,-4,-30
1490984378920,3,-5,-37,-107,-75,-53,4,0,15
1490984378920,3,4,7,-26,-5,69,-12,-3,-15
1490984378921,1,20,-5,-71,-87,-122,22,-1,29
1490984378921,1,23,77,99,101,43,26,2,14
1490984378922,2,-26,-58,-107,-79,3,-24,0,-3
1490984378922,2,11,20,94,-29,-47,-34,3,0
1490984378965,3,-18,-6,37,64,84,22,-3,-26
1490984378965,3,20,3,19,-5,-4,32,-2,21
1490984378967,0,-11,11,-22,51,-42,-10,0,7
1490984378967,0,3,65,36,92,123,0,-1,-31
1490984378968,2,22,27,96,63,80,-10,0,18
1490984378968,2,19,-3,40,-66,25,28,-1,-8
1490984378969,3,-1,43,120,61,94,-56,0,-8
1490984378969,3,30,29,-83,-6,-81,-44,0,18
1490984379014,0,-44,-79,-127,-86,4,22,-5,-8
1490984379014,0,-24,-6,-45,-42,5,-8,1,-59
1490984379016,1,15,17,12,36,59,-12,-3,43
1490984379016,1,23,27,89,54,-55,19,3,9
1490984379017,2,10,-15,-65,-20,38,-24,-3,-20
1490984379017,2,6,-2,-60,-45,12,14,-2,8
1490984379018,3,5,40,45,-8,-128,-3,-1,37
1490984379018,3,-18,-32,19,51,57,7,0,-32
1490984379063,0,14,42,39,72,48,6,0,7
1490984379063,0,0,-34,-8,30,62,-8,-3,5
1490984379064,1,-21,-20,43,-40,94,26,0,-34
1490984379064,1,14,1,-44,-49,-100,-11,-1,19
1490984379065,3,-17,-3,-28,-2,-6,17,-1,-9
1490984379065,3,-17,29,52,101,71,-58,1,10
1490984379066,0,25,19,-20,18,11,53,-1,5
1490984379066,0,-6,-20,-5,-21,-35,-31,0,6
1490984379111,1,9,-5,-48,-2,70,-11,3,-13
1490984379111,1,1,10,-48,-97,-71,11,-4,10
1490984379112,2,-38,-45,-102,-66,85,6,0,-15
1490984379112,2,15,28,9,-5,-13,-24,0,19
1490984379113,0,-11,-18,11,20,-46,-5,0,-1
1490984379113,0,-13,-11,10,68,68,11,-3,-26
1490984379116,1,6,35,62,108,-74,18,0,15
1490984379116,1,25,-8,-93,77,22,32,-1,10
1490984379160,2,-1,5,54,18,46,-44,-1,-3
1490984379160,2,10,7,0,-106,-96,13,2,-4
1490984379161,3,3,-46,19,-43,-7,13,-2,70
1490984379161,3,-7,53,67,-23,-36,-13,-2,-35
1490984379162,1,4,-23,-92,-108,41,-42,3,-30
1490984379162,1,21,-26,-47,-128,-69,46,2,12
1490984379162,2,-30,-40,5,-49,-10,12,0,-22
1490984379162,2,14,33,28,16,-15,-10,-5,15
1490984379209,3,-9,5,10,74,36,-44,-3,-30
1490984379209,3,-8,-12,63,102,127,-100,-4,11
1490984379210,0,26,57,102,78,-39,23,3,8
1490984379210,0,19,9,70,65,-3,26,-1,-24
1490984379211,2,10,-35,1,-4,57,-25,2,5
1490984379211,2,-25,-7,3,4,-21,-14,0,18
1490984379212,3,-2,-17,-46,-27,66,-15,1,-47
1490984379212,3,-9,-31,0,-14,64,38,4,21
1490984379258,0,22,23,8,4,84,-43,-2,-5
1490984379258,0,18,9,13,0,-50,106,1,13
1490984379259,1,-22,-22,-33,-6,42,-13,0,-25
1490984379259,1,5,26,13,-26,-120,-26,2,8
1490984379262,3,23,67,55,-17,-32,-6,-2,-20
1490984379262,3,0,-26,-9,4,-32,21,-2,54
1490984379265,0,9,-11,-15,6,44,22,2,19
1490984379265,0,21,9,-1,-29,29,39,-4,-19
1490984379307,1,-33,1,10,5,-62,-59,-3,5
1490984379307,1,-3,-15,-15,-16,36,-6,-2,-34
1490984379311,2,12,18,16,-6,-4,-56,-1,24
1490984379311,2,-16,-5,-1,25,48,12,0,0
1490984379312,0,11,25,19,11,-84,33,-4,13
1490984379312,0,-1,-10,-18,-13,2,71,-1,12
1490984379313,1,4,15,5,-14,-43,22,0,-17
1490984379313,1,-1,5,8,6,45,-13,1,38
1490984379355,2,3,3,-2,-6,-128,-1,-1,-20
1490984379355,2,-18,-18,-8,7,94,-68,3,-43
1490984379356,3,20,13,4,6,27,38,0,75
1490984379356,3,-2,-1,-8,-25,-50,19,5,-12
1490984379357,0,21,13,12,7,-71,-14,-1,7
1490984379357,0,-13,-6,0,4,42,-4,-1,7
1490984379358,1,-9,-16,-16,-1,-2,18,-2,-18
1490984379358,1,13,-9,-3,1,-16,4,2,-12
1490984379403,2,-8,5,-2,-4,-9,3,1,14
1490984379403,2,10,2,4,-11,-34,-29,1,12
1490984379404,3,-13,3,-10,-19,-68,-7,-3,-14
1490984379404,3,-7,0,-17,-3,4,8,-2,1
1490984379405,1,6,1,2,-1,11,-39,2,-20
1490984379405,1,3,2,9,5,48,13,-3,-1
1490984379407,2,0,5,-3,-5,-105,-11,4,6
1490984379407,2,3,3,4,-12,35,-15,3,-7
1490984379453,3,13,14,-2,6,8,23,1,27
1490984379453,3,-19,-14,-8,-10,4,17,0,-1
1490984379454,0,-2,-9,-2,11,50,12,1,-8
1490984379454,0,4,11,11,6,-14,-9,-2,10
1490984379456,2,12,2,7,2,52,46,1,10
1490984379456,2,8,6,-5,1,-28,-5,0,5
1490984379457,3,-4,-6,2,1,19,-10,6,-16
1490984379457,3,-7,-10,-5,9,-9,4,-4,-11
1490984379501,0,-2,-5,-4,-10,57,3,1,-5
1490984379501,0,9,12,13,-9,-34,-7,0,6
1490984379503,1,14,9,-2,-4,-11,-14,-3,2
1490984379503,1,22,13,9,-3,-17,3,-2,11
1490984379504,3,-2,-11,-16,-22,-39,0,-4,18
1490984379504,3,9,23,12,6,-13,4,1,-25
1490984379505,0,4,15,13,8,-18,-30,-5,18
1490984379505,0,1,-11,-2,-8,23,36,-1,10
1490984379550,1,-17,-10,-2,-5,-7,-12,0,-16
1490984379550,1,25,-7,-21,-22,9,-5,-5,-4
1490984379552,2,-32,8,0,3,-26,-9,-1,14
1490984379552,2,27,1,12,-12,-18,19,-6,-10
1490984379553,0,23,-5,-11,-33,-77,-21,-1,6
1490984379553,0,-35,-18,-21,6,79,2,-3,-6
1490984379554,1,-9,9,15,6,-23,9,-4,-26
1490984379554,1,6,13,20,-2,1,-12,-3,-7
1490984379599,2,22,5,-15,1,18,-3,0,3
1490984379599,2,-15,15,15,6,15,-12,0,-5
1490984379601,3,10,-16,-15,-1,22,19,2,0
1490984379601,3,-45,-46,-21,-3,8,-9,-1,-10
1490984379602,1,17,4,42,33,48,-1,-3,7
1490984379602,1,-9,21,3,-3,-22,-8,-3,-34
1490984379603,2,-5,-14,8,-44,-27,7,3,-1
1490984379603,2,17,14,-19,-15,17,-2,-8,-2
1490984379648,3,-14,-15,-38,1,-31,-12,3,15
1490984379648,3,-16,-18,-16,16,20,-2,1,-25
1490984379651,0,7,27,59,19,36,13,-5,-38
1490984379651,0,-38,-1,23,-13,-71,-1,-4,14
1490984379652,2,-12,-25,88,43,13,-7,3,9
1490984379652,2,3,-25,-94,-1,17,-3,5,-5
1490984379653,3,12,-2,30,-18,3,-5,-5,-12
1490984379653,3,-27,13,-45,-33,-26,5,-2,16
1490984379696,0,-35,31,5,5,-4,-1,-1,-18
1490984379696,0,12,-91,13,48,25,6,-1,18
1490984379697,1,-16,16,-18,-4,5,-6,-4,13
1490984379697,1,53,0,21,-8,28,-4,-1,10
1490984379697,3,-36,-15,-4,-36,3,3,-1,-4
1490984379697,3,35,21,-12,1,-6,8,9,7
1490984379698,0,19,38,49,-17,-13,-6,-2,4
1490984379698,0,14,42,0,11,22,-1,-2,5
1490984379745,1,-70,-88,-42,37,-9,16,0,-11
1490984379745,1,-50,34,-11,-40,0,-1,-1,-22
1490984379745,2,15,-72,-60,10,-10,5,6,3
1490984379745,2,76,42,58,-31,-5,-13,3,51
1490984379746,3,-37,-14,16,6,15,3,5,2
1490984379746,3,11,6,47,82,6,-13,3,-27
1490984379747,0,-11,8,-88,-75,-15,-5,-2,-3
1490984379747,0,-32,-60,-18,-40,10,12,2,-30
1490984379794,1,16,42,69,60,1,-8,1,30
1490984379794,1,17,19,-43,-19,-18,-5,-3,27
1490984379794,2,41,5,-34,-23,-1,0,-1,-11
1490984379794,2,-65,24,-8,6,-7,0,4,4
1490984379795,0,1,-27,78,51,19,1,-3,5
1490984379795,0,40,30,-40,-31,28,5,0,-2
1490984379796,1,-58,-61,-63,-35,-39,-4,1,22
1490984379796,1,-14,3,87,15,-11,-8,-3,-17
1490984379842,2,39,20,-107,-26,-10,-20,-2,41
1490984379842,2,77,5,34,30,13,-8,2,12
1490984379843,3,-47,-1,69,42,25,-1,-1,24
1490984379843,3,-50,-17,-75,-64,-21,5,-3,-25
1490984379844,1,68,16,-8,53,15,28,-1,-27
1490984379844,1,-54,-63,-88,-35,-5,41,-2,13
1490984379845,2,-13,20,99,9,12,-21,-6,51
1490984379845,2,-18,-25,-57,-34,-16,-57,0,-57
1490984379891,3,24,-26,-31,-43,6,-19,1,22
1490984379891,3,4,92,51,-15,6,-18,-2,-9
1490984379892,0,-35,-82,-78,36,34,13,-1,-8
1490984379892,0,-10,21,34,-8,-12,28,2,14
1490984379892,2,-65,27,16,1,-41,-34,-1,-23
1490984379892,2,-31,-14,51,8,-20,-24,-6,-10
1490984379895,3,20,57,-35,-48,-14,-11,-2,-37
1490984379895,3,39,-4,-22,-28,3,15,-1,32
1490984379940,0,5,68,106,-6,-16,-27,-1,-12
1490984379940,0,-30,-128,-128,-8,21,5,0,-9
1490984379941,1,-64,31,22,-44,-8,-25,1,7
1490984379941,1,38,100,122,39,24,-30,-2,23
1490984379941,3,22,-31,-26,-41,10,41,-2,-3
1490984379941,3,67,14,-19,-3,-13,25,2,85
1490984379942,0,-51,17,8,17,20,27,0,-71
1490984379942,0,5,31,16,29,9,2,-2,1
1490984379989,1,-21,-13,-9,3,-18,-27,0,-22
1490984379989,1,-13,-69,-66,-23,4,-35,-3,-13
1490984379991,2,-18,49,40,-20,-3,-9,2,9
1490984379991,2,58,36,31,-11,5,6,-2,40
1490984379992,0,-4,3,-49,-22,3,79,-6,22
1490984379992,0,11,5,-64,-45,13,46,-1,-9
1490984379993,1,19,-27,-6,-58,-20,-12,-4,15
1490984379993,1,-88,7,63,37,32,-62,-2,-49
1490984380038,2,26,-85,-7,-6,-2,-85,-2,22
1490984380038,2,-26,51,25,-29,-18,-44,0,2
1490984380039,3,105,-6,-91,-56,-23,-6,-2,9
1490984380039,3,-62,-74,14,44,9,42,-5,27
1490984380040,1,71,25,5,-32,8,5,0,-18
1490984380040,1,-74,10,51,15,9,19,2,-57
1490984380041,2,66,79,-74,-55,-9,11,3,20
1490984380041,2,45,-16,79,-9,-6,-12,-3,2
1490984380086,3,-91,-41,-80,26,-16,-39,-1,5
1490984380086,3,1,-6,-14,-69,-11,-4,2,-44
1490984380088,0,83,-8,-4,4,-2,-1,1,37
1490984380088,0,6,33,40,33,22,30,-1,5
1490984380089,1,-18,3,84,23,5,33,2,-1
1490984380089,1,-34,106,-19,17,24,-1,-3,-24
1490984380090,2,20,-55,-52,26,-33,-12,-2,7
1490984380090,2,-68,-6,-10,-36,-9,-10,0,-56
1490984380135,3,62,53,91,-10,22,6,0,58
1490984380135,3,45,-14,22,-1,-13,-11,1,-8
1490984380137,0,-84,-50,-74,-41,5,-20,0,-42
1490984380137,0,22,11,-16,8,-20,-33,-3,-25
1490984380138,2,86,78,5,-13,15,25,-1,12
1490984380138,2,-128,-33,109,37,32,33,3,-23
1490984380139,3,-10,-8,-6,-2,-15,-2,3,0
1490984380139,3,-27,-1,-95,-11,5,2,0,48
1490984380184,0,26,78,53,4,26,1,1,-22
1490984380184,0,16,51,52,14,12,-13,1,-7
1490984380186,1,39,-3,58,-2,-37,-41,-4,44
1490984380186,1,16,-31,-34,-28,-56,-16,1,-1
1490984380187,3,52,-7,25,17,15,18,-4,12
1490984380187,3,11,-27,-8,12,-5,2,1,0
1490984380188,0,93,127,97,-31,-21,-20,4,37
1490984380188,0,-42,-128,-41,24,19,0,0,-45
1490984380233,1,-91,97,28,12,46,7,0,-24
1490984380233,1,63,-56,-22,-1,35,15,-3,23
1490984380235,2,6,-58,12,-1,-12,2,0,10
1490984380235,2,-21,43,-23,-48,-53,-12,0,1
1490984380236,0,-73,-12,-10,3,-13,-5,-5,-15
1490984380236,0,96,17,2,10,-16,3,-6,28
1490984380237,1,29,-14,38,-38,-4,21,1,-15
1490984380237,1,-12,-38,105,7,11,8,-5,9
1490984380281,2,-40,-5,33,23,14,6,-2,-7
1490984380281,2,56,-21,-1,6,26,-12,0,29
1490984380283,3,-40,50,-23,2,6,-2,-2,-5
1490984380283,3,-23,15,-61,-12,-12,2,1,-54
1490984380284,1,55,41,13,-41,7,-12,-4,11
1490984380284,1,-21,-1,28,-4,16,-22,0,-14
1490984380285,2,-32,-85,-20,20,-55,-4,0,-10
1490984380285,2,18,96,21,-4,-29,-2,-3,6
1490984380330,3,38,43,-18,-28,-44,-6,1,-12
1490984380330,3,-58,-74,-53,2,-5,12,5,-1
1490984380332,0,-45,-10,-26,-2,27,18,2,9
1490984380332,0,35,-56,46,-14,19,12,2,2
1490984380333,2,33,7,-32,-27,0,-10,-1,-3
1490984380333,2,-5,-8,-103,-1,-8,-6,1,10
1490984380334,3,-88,27,-53,13,23,-4,0,-48
1490984380334,3,25,15,5,-7,45,9,0,2
1490984380379,0,71,29,76,-17,-13,-2,-3,11
1490984380379,0,-65,31,53,-2,-27,-4,2,3
1490984380381,1,76,-1,-6,-7,-31,-1,0,18
1490984380381,1,-20,-18,-12,17,-28,-1,-2,13
1490984380382,3,5,8,34,13,5,2,5,-2
1490984380382,3,29,-19,-67,2,-12,-1,0,-30
1490984380383,0,37,-21,-66,-17,7,-8,-5,9
1490984380383,0,-94,-11,-78,-3,-13,-4,-4,-36
1490984380428,1,46,61,-18,-18,-15,-12,0,3
1490984380428,1,-44,33,14,0,2,-7,-2,-46
1490984380429,2,15,-6,37,9,7,-4,3,26
1490984380429,2,33,-32,79,5,-1,6,-2,19
1490984380431,3,-16,-69,-38,-9,6,3,-1,15
1490984380431,3,27,-9,36,18,-26,-3,-2,1
1490984380432,0,-92,-25,-18,-14,-9,-1,0,-60
1490984380432,0,36,-1,19,14,31,3,-3,35
1490984380477,1,28,65,22,13,16,-3,-3,-5
1490984380477,1,-48,-54,-3,-10,10,2,5,12
1490984380479,2,22,-9,15,29,5,2,-3,-27
1490984380479,2,13,57,-20,-21,-14,-2,2,9
1490984380481,0,-2,15,66,6,5,-4,1,15
1490984380481,0,100,39,-43,-16,-1,-9,-2,11
1490984380482,1,-119,-48,30,75,13,5,-3,-53
1490984380482,1,68,-43,-44,-28,6,4,-4,5
1490984380525,2,95,35,29,-49,-5,3,-1,29
1490984380525,2,2,20,11,3,-5,-7,-2,8
1490984380526,3,46,17,8,-13,-5,1,0,75
1490984380526,3,-107,11,-1,24,10,-2,-4,-10
1490984380527,1,-40,-87,-62,-20,-14,1,1,-30
1490984380527,1,-67,32,-3,13,5,6,-3,23
1490984380528,2,-53,5,-20,-15,20,2,2,-7
1490984380528,2,43,-12,93,17,-3,8,1,40
1490984380574,3,-17,-4,-48,7,5,-7,-1,-57
1490984380574,3,63,66,46,-59,-18,-8,1,39
1490984380575,0,84,-7,-34,3,-8,-8,2,6
1490984380575,0,-101,-42,-37,26,9,12,3,4
1490984380576,2,53,12,-11,5,-1,1,-1,38
1490984380576,2,-67,25,37,-15,12,-2,-1,-53
1490984380577,3,25,7,45,8,18,10,2,12
1490984380577,3,-12,-1,2,32,12,1,2,36
1490984380622,0,20,56,30,29,-14,-9,-1,-10
1490984380622,0,29,-74,-63,-16,-5,-9,-4,28
1490984380624,1,-46,37,36,-20,-14,-4,-3,-39
1490984380624,1,46,-7,-16,18,-10,-7,2,29
1490984380625,3,-32,62,59,-6,5,-6,0,22
1490984380625,3,20,6,-25,15,-6,-9,-3,-30
1490984380626,0,-16,-39,-16,-14,-3,10,2,43
1490984380626,0,59,-28,-4,-50,-15,-5,-3,-42
1490984380671,1,-39,-37,-46,-11,4,7,1,-22
1490984380671,1,11,20,17,11,18,8,1,45
1490984380673,2,-78,12,44,30,0,-9,0,-56
1490984380673,2,127,52,-52,-41,-10,1,-1,-7
1490984380675,0,34,-26,-56,7,13,24,-2,65
1490984380675,0,60,43,115,25,-1,-1,3,15
1490984380676,1,-38,-40,-128,-52,-2,7,-4,-62
1490984380676,1,61,20,26,-83,-17,8,-2,-6
1490984380720,2,-61,76,88,92,16,-4,-1,-22
1490984380720,2,49,-36,21,-6,3,-6,-3,-2
1490984380722,3,71,-23,-14,37,-2,-2,-3,39
1490984380722,3,22,-7,-50,-78,2,15,-1,15
1490984380723,1,57,-64,-47,17,18,13,-1,-10
1490984380723,1,-67,8,114,73,34,6,2,15
1490984380724,2,79,-50,-128,99,0,-21,-1,4
1490984380724,2,-77,-71,-121,-64,-28,5,0,-47
1490984380769,3,24,104,111,-84,4,13,-3,79
1490984380769,3,90,41,30,-42,-19,-6,-3,41
1490984380771,0,-21,53,127,78,14,-9,1,7
1490984380771,0,-38,-42,-53,118,-11,-20,-2,12
1490984380772,2,-125,2,88,58,22,9,-2,54
1490984380772,2,45,105,-43,-116,-26,-5,4,-29
1490984380773,3,16,-24,6,47,0,-7,4,9
1490984380773,3,-55,-80,19,90,4,-10,-2,17
1490984380817,0,-12,-25,-128,-62,-27,-1,6,-72
1490984380817,0,-37,39,42,96,30,4,-3,53
1490984380819,1,-34,-36,-90,-39,-13,-6,-4,-55
1490984380819,1,52,11,45,-104,-19,2,0,86
1490984380820,2,-27,-9,80,57,37,2,-1,-38
1490984380820,2,-29,23,21,74,9,4,0,-12
1490984380821,3,65,-44,-23,-54,-24,-16,-3,12
1490984380821,3,-64,76,-63,18,-3,-9,0,-61
1490984380866,0,-2,-39,-94,-53,-17,0,1,11
1490984380866,0,127,127,88,-107,32,21,0,25
1490984380868,1,-60,-53,127,127,37,11,1,28
1490984380868,1,-55,34,-121,36,-43,-13,-4,-84
1490984380869,3,4,36,67,44,1,7,2,33
1490984380869,3,127,62,10,90,38,-11,0,22
1490984380870,0,-110,-63,91,8,-11,-13,-3,-43
1490984380870,0,12,-9,-128,-82,-7,4,2,36
1490984380922,1,12,18,-5,-63,11,7,-1,61
1490984380922,1,-26,-13,-50,83,-26,-11,-2,-21
1490984380924,2,-23,-2,-93,-108,-14,8,-3,19
1490984380924,2,31,-70,109,50,38,3,-1,19
1490984380925,0,118,125,70,-4,2,0,-1,-50
1490984380925,0,-96,-115,-16,97,2,-7,-1,-12
1490984380926,1,106,95,127,-10,26,4,2,69
1490984380926,1,-31,-58,42,80,-3,-19,0,-39
1490984381013,2,72,35,-128,-104,-12,11,1,-20
1490984381013,2,-87,8,116,-80,-13,19,2,96
1490984381015,3,87,114,98,107,13,-3,-1,-70
1490984381015,3,-33,-106,-2,49,43,-8,4,11
1490984381016,1,-128,-115,-86,0,-30,-1,-4,-67
1490984381016,1,97,-36,39,-111,-10,2,1,120
1490984381017,2,-12,79,44,57,52,-6,-3,-117
1490984381017,2,-37,-33,14,17,-48,-6,3,69
1490984381061,3,79,55,-56,45,1,-2,-5,45
1490984381061,3,-94,-49,-58,-84,-37,12,-5,-77
1490984381065,0,28,77,-50,39,18,7,-2,14
1490984381065,0,104,-6,-36,-38,17,-11,0,0
1490984381066,3,42,9,38,-128,-62,31,1,53
1490984381066,3,36,56,124,127,68,6,0,91
1490984381067,0,-2,80,127,-55,42,22,0,-28
1490984381067,0,-76,-78,-99,127,13,-12,-3,-48
1490984381110,1,-69,-4,-128,-128,-66,-33,0,-26
1490984381110,1,36,33,-21,-51,-21,1,-1,22
1490984381112,2,-30,-98,127,105,72,27,2,70
1490984381112,2,11,55,73,127,-26,-20,2,-16
1490984381113,0,-91,-3,81,71,62,9,-5,33
1490984381113,0,-75,14,-73,24,10,-15,-2,-53
1490984381114,1,72,44,84,-20,-27,-16,-1,63
1490984381114,1,-14,1,-69,50,-4,11,0,-81
1490984381159,2,127,58,63,-88,-3,-7,3,110
1490984381159,2,-41,-26,57,-55,6,9,0,-56
1490984381161,3,-89,-26,-55,107,-1,-9,0,-39
1490984381161,3,97,-10,27,-3,9,1,2,101
1490984381162,0,-49,-42,21,-5,7,-18,-2,-69
1490984381162,0,48,107,-83,-86,-33,7,2,100
1490984381164,1,-73,-11,27,42,2,-2,-1,-2
1490984381164,1,-22,-61,-41,-24,35,35,-5,-62
1490984381207,2,-44,9,-10,22,-4,-7,-2,-68
1490984381207,2,22,39,33,21,34,-1,-4,78
1490984381208,3,1,25,-36,18,-19,7,3,-7
1490984381208,3,-5,57,6,32,18,-26,-1,-18
1490984381209,1,23,-91,-89,-62,-24,-3,0,20
1490984381209,1,-124,-83,-46,-66,41,2,-1,-72
1490984381210,2,0,86,51,77,0,-11,-1,-21
1490984381210,2,65,-105,-91,-16,-25,0,0,37
1490984381256,3,-29,83,39,-10,64,35,-6,-54
1490984381256,3,26,103,52,78,-1,-11,3,45
1490984381257,0,-17,-51,-128,-85,-4,6,-4,-29
1490984381257,0,3,-27,101,91,50,10,-1,43
1490984381257,2,8,0,-90,-36,-49,-18,3,19
1490984381257,2,56,-5,53,32,41,17,3,-44
1490984381258,3,-58,-54,56,46,90,7,1,7
1490984381258,3,-23,97,121,121,-42,-10,-2,1
1490984381305,0,25,27,2,11,-44,-11,1,-13
1490984381305,0,7,-29,-107,-128,-64,-12,-2,53
1490984381309,1,-49,-78,-48,-24,60,5,2,-6
1490984381309,1,107,126,101,4,10,16,2,29
1490984381310,3,70,42,104,13,9,8,2,39
1490984381310,3,10,31,-28,-28,39,0,-2,58
1490984381311,0,47,18,-65,-51,-41,-13,1,-10
1490984381311,0,3,-47,25,61,-56,1,0,6
1490984381402,1,-43,1,-67,-48,17,-21,-3,-16
1490984381402,1,43,-49,-14,-82,-105,21,0,-1
1490984381404,2,-35,25,127,96,127,20,-3,16
1490984381404,2,26,-18,-97,9,-109,-23,3,-11
1490984381451,0,6,86,75,34,-26,17,0,-12
1490984381451,0,-29,-71,-45,-8,-55,-11,1,18
1490984381500,1,78,82,75,45,-11,1,-1,-32
1490984381500,1,-79,-128,-128,-67,28,-4,-2,-2
1490984381502,2,7,94,127,12,31,20,-2,11
1490984381502,2,-10,-49,-86,20,-25,-16,-1,-15
1490984381503,3,20,5,-77,-93,-25,10,1,40
1490984381503,3,-58,31,89,80,22,-6,-1,-21
1490984381504,2,-47,-11,-27,9,29,-9,1,16
1490984381504,2,76,50,79,-38,6,-23,-3,9
1490984381549,3,-92,-108,-77,42,35,5,-2,-25
1490984381549,3,4,86,127,113,59,4,-1,-5
1490984381551,2,33,98,127,96,-87,18,0,66
1490984381551,2,-32,-40,-97,2,-28,-12,-2,8
1490984381552,3,25,14,39,-19,48,-14,3,7
1490984381552,3,2,54,80,71,-68,-54,2,-2
1490984381553,0,-78,-121,-128,-101,42,15,-3,-37
1490984381553,0,38,19,95,52,103,-18,5,4
1490984381598,1,4,52,-9,-16,-118,13,-2,18
1490984381598,1,-2,-18,19,-4,43,-14,1,-26
1490984381599,2,11,-4,-81,9,6,2,0,34
1490984381599,2,-5,5,13,28,61,4,-8,-7
1490984381601,0,-14,-51,-52,-84,72,-26,1,-39
1490984381601,0,-15,4,-8,-128,-71,77,2,6
1490984381602,1,22,15,-18,110,24,-46,-6,8
1490984381602,1,-29,-66,-115,-128,-69,-19,3,8
1490984381648,2,12,27,48,-1,14,0,1,0
1490984381648,2,16,15,-22,67,-38,-3,3,-6
1490984381649,3,0,27,105,68,-67,-14,3,6
1490984381649,3,25,-27,-12,15,84,16,-5,10
1490984381650,1,-76,-110,-83,-74,-7,-15,1,-30
1490984381650,1,27,56,78,20,-13,6,0,29
1490984381651,2,36,50,108,77,-109,20,1,18
1490984381651,2,37,41,74,127,119,8,-3,20
1490984381695,3,21,49,35,10,-6,105,-1,0
1490984381695,3,-17,-9,-111,-91,-77,-33,4,-7
1490984381697,0,-11,-44,-47,-58,61,14,0,1
1490984381697,0,10,17,28,-18,-43,6,-1,16
1490984381698,2,1,46,103,74,-12,-11,2,19
1490984381698,2,-48,-68,-128,-88,-41,-35,-4,-28
1490984381699,3,-23,-52,-104,-104,54,-41,0,15
1490984381699,3,34,45,107,75,34,58,-6,3
1490984381744,0,9,49,84,25,-128,-19,0,-14
1490984381744,0,-19,-41,1,9,-15,-1,-2,-1
1490984381746,1,15,26,66,12,68,70,4,19
1490984381746,1,-21,-45,-75,-86,-21,-34,-1,-10
1490984381747,3,-6,38,22,47,-73,-5,0,26
1490984381747,3,-8,-49,-96,14,106,17,-3,-20
1490984381748,0,47,57,-25,6,-82,5,-5,39
1490984381748,0,-64,-23,-46,-26,107,19,-2,-32
1490984381792,1,-9,6,-46,-27,-7,-22,-6,-1
1490984381792,1,-2,20,-39,-33,15,-67,-2,-7
1490984381794,2,14,-27,-30,-76,-28,-61,0,-13
1490984381794,2,-6,-22,-29,-16,58,-69,1,-12
1490984381796,0,9,-8,0,77,71,56,-1,17
1490984381796,0,22,-2,5,29,-52,3,-6,17
1490984381797,1,-5,-40,-58,-7,-1,0,-1,-15
1490984381797,1,-6,0,-16,-12,-84,61,-2,1
1490984381843,2,-21,-32,2,-56,124,-26,-5,-34
1490984381843,2,26,36,24,17,-51,-76,-2,36
1490984381844,3,-2,-9,-6,85,-8,6,-6,-24
1490984381844,3,15,13,0,52,-17,-3,-1,45
1490984381846,0,-37,15,14,-36,20,-6,5,-33
1490984381846,0,9,34,63,11,-85,22,-3,42
1490984381847,1,25,0,62,13,69,-36,0,-16
1490984381847,1,-23,-23,50,-7,120,-29,1,-9
1490984381890,2,-15,-33,65,66,-51,-24,-6,10
1490984381890,2,-4,-10,-17,62,-28,34,0,-25
1490984381892,3,-4,2,3,44,60,-46,1,17
1490984381892,3,19,37,-5,3,-35,12,-4,3
1490984381893,1,22,7,19,34,-28,15,-1,-3
1490984381893,1,-13,6,-14,-3,-108,36,3,-10
1490984381894,2,1,-12,-5,7,119,1,0,-11
1490984381894,2,-7,-21,-9,4,109,-34,5,60
1490984381938,3,8,-2,-12,-32,-73,-13,-3,-3
1490984381938,3,-8,-15,-5,-18,70,-23,-2,-29
1490984381940,0,0,-2,-20,-14,-1,-80,-1,-17
1490984381940,0,25,10,1,4,-32,-8,-4,-19
1490984381941,2,-10,4,-13,12,-25,-82,-5,-3
1490984381941,2,18,36,34,-8,-14,-109,-1,-2
1490984381942,3,-12,70,47,37,-64,-128,1,22
1490984381942,3,46,67,65,75,21,-76,-9,43
1490984381987,0,-29,-16,-14,-34,-33,33,-8,23
1490984381987,0,-24,-96,-81,-103,-28,106,3,-61
1490984381988,1,-41,-122,-112,-115,-99,127,10,-81
1490984381988,1,-40,-67,-84,-95,43,127,5,-28
1490984381989,3,36,54,51,54,76,-128,-4,16
1490984381989,3,3,23,29,62,6,-128,0,9
1490984381990,0,23,2,13,38,127,-54,0,28
1490984381990,0,0,15,9,-8,-27,-54,-1,4
1490984382036,1,6,5,3,-2,-43,-47,-5,17
1490984382036,1,6,-1,4,1,33,8,3,27
1490984382037,2,1,2,-12,-35,-104,8,-1,-15
1490984382037,2,2,-7,-5,12,56,8,-1,19
1490984382038,0,0,-10,-14,-18,-41,31,2,30
1490984382038,0,-32,-23,-6,16,106,12,-3,-12
1490984382039,1,-13,15,19,-7,1,22,-9,-8
1490984382039,1,7,-7,-10,-19,6,-12,1,5
1490984382085,2,-3,16,4,-12,14,44,7,18
1490984382085,2,20,7,8,1,43,-5,0,-19
1490984382086,3,8,3,0,7,-13,-16,-5,0
1490984382086,3,-12,-15,-3,0,1,19,0,5
1490984382087,1,0,3,-5,-14,-25,-3,-6,2
1490984382087,1,8,11,6,10,34,-3,2,6
1490984382088,2,-5,-24,-10,12,79,18,1,8
1490984382088,2,1,0,12,18,23,-14,-3,-23
1490984382133,3,-17,-14,7,11,-12,-9,3,3
1490984382133,3,-1,-1,-5,-6,-41,-1,-2,-2
1490984382135,0,-3,3,0,-7,-33,-5,-1,-8
1490984382135,0,10,-6,-4,0,-58,4,1,8
1490984382136,2,-23,2,0,7,-56,-7,-4,-9
1490984382136,2,38,18,-1,-12,-40,-3,-2,10
1490984382137,3,-28,3,18,-2,53,-1,2,1
1490984382137,3,-20,-16,-8,5,15,-12,-11,6
1490984382182,0,4,13,0,-2,26,-16,-1,-7
1490984382182,0,12,8,0,-4,-35,23,-6,-5
1490984382184,1,31,10,2,-12,-22,-1,3,18
1490984382184,1,4,4,6,-1,-7,8,-4,11
1490984382185,3,10,-6,-15,-10,-42,-14,-2,3
1490984382185,3,-9,0,12,14,-13,0,1,-19
1490984382186,0,17,11,15,5,28,-10,-4,6
1490984382186,0,9,7,1,-5,-17,-9,-3,3
1490984382231,1,-37,-6,-13,-3,15,14,0,-10
1490984382231,1,28,-3,-2,-6,1,14,0,-2
1490984382233,2,-24,-9,4,22,-5,-26,-2,-25
1490984382233,2,-18,12,12,4,-18,-6,-1,12
1490984382234,3,17,-2,-12,-6,21,7,-5,6
1490984382234,3,-26,-21,-15,5,1,-3,-6,-19
1490984382234,0,4,-11,-17,-7,45,-10,0,7
1490984382234,0,22,3,3,-12,-9,0,-3,-10
1490984382280,1,0,24,28,22,12,-9,-1,40
1490984382280,1,-6,-12,-14,-16,-27,-2,-1,-12
1490984382281,2,21,36,8,-9,38,8,0,-15
1490984382281,2,-43,-41,0,12,-11,2,1,11
1490984382282,0,0,-39,-97,-48,-44,6,0,-11
1490984382282,0,-24,-20,-6,-8,9,13,-2,6
1490984382283,1,8,21,45,2,17,0,-3,-32
1490984382283,1,18,9,43,50,36,-9,1,17
1490984382328,2,49,19,31,-8,-69,-12,1,21
1490984382328,2,-55,-19,-59,-37,-35,2,-5,-7
1490984382330,3,3,-20,22,13,84,4,1,17
1490984382330,3,-24,44,-40,-7,-74,-3,-1,-22
1490984382331,1,9,-49,-109,-68,5,2,-4,15
1490984382331,1,18,32,58,-2,0,5,-3,-5
1490984382332,2,-65,-22,-13,44,14,1,-7,7
1490984382332,2,-9,-19,-8,4,-12,3,2,-17
1490984382377,3,29,45,34,8,24,-8,-8,-20
1490984382377,3,-17,-52,-34,-17,-38,15,4,5
1490984382378,0,17,-3,17,-14,30,-3,-3,2
1490984382378,0,3,-4,80,43,1,-12,6,-25
1490984382379,2,34,111,100,29,-37,6,6,27
1490984382379,2,17,-55,-31,3,20,6,-7,5
1490984382380,3,27,45,-25,-20,-34,11,0,-5
1490984382380,3,-41,-9,-21,2,21,0,0,6
1490984382426,0,6,57,9,39,10,0,0,-10
1490984382426,0,-17,-51,23,17,12,3,7,-14
1490984382427,1,-21,-10,-61,-39,-14,5,0,-8
1490984382427,1,-16,4,22,-17,2,-5,-8,-5
1490984382428,3,5,-14,4,5,-2,-5,3,-9
1490984382428,3,-43,-50,29,-13,-14,11,3,12
1490984382429,0,47,95,41,22,10,-18,1,-9
1490984382429,0,-34,-76,-53,24,-17,17,-15,-23
1490984382475,1,12,15,53,7,-13,8,-6,27
1490984382475,1,4,46,-34,8,-15,-17,3,-20
1490984382476,2,-40,9,15,5,11,-4,-4,-29
1490984382476,2,37,-6,56,-29,-34,-13,2,50
1490984382477,0,-42,-128,-115,-17,11,22,2,-24
1490984382477,0,17,116,-11,-60,-5,1,9,-25
1490984382478,1,-18,-38,127,51,-2,-4,-1,8
1490984382478,1,56,-38,-62,22,28,18,2,10
1490984382523,2,43,52,16,-49,2,10,-1,15
1490984382523,2,-41,6,-44,-48,13,20,-3,-20
1490984382525,3,50,-2,70,14,-45,39,3,1
1490984382525,3,-12,13,17,15,18,8,-5,11
1490984382525,1,-4,93,67,-20,-42,-62,5,-22
1490984382525,1,16,-64,-70,-48,-19,-41,-1,26
1490984382526,2,-58,-68,-97,-16,7,-71,2,-15
1490984382526,2,-5,50,-41,-53,-34,1,-1,0
1490984382572,3,17,14,29,0,28,83,-3,-3
1490984382572,3,20,62,47,21,21,121,-3,26
1490984382574,0,2,2,127,84,60,101,-3,32
1490984382574,0,3,-7,-47,-10,-16,-88,-3,-13
1490984382575,1,49,13,-82,-24,-12,-128,-3,-19
1490984382575,1,-79,-82,-64,19,-19,2,-1,-11
1490984382576,2,19,53,21,-53,-44,101,2,13
1490984382576,2,56,21,10,8,16,14,1,35
1490984382621,3,16,-92,-73,-19,-4,-13,4,8
1490984382621,3,-42,107,31,67,43,3,-4,-44
1490984382624,0,14,-86,-47,-49,-26,-56,-4,-25
1490984382624,0,-98,7,20,-2,-46,-30,-3,-25
1490984382625,2,42,3,8,52,50,79,-3,6
1490984382625,2,11,94,17,21,15,31,-2,4
1490984382626,3,-38,-103,-104,4,-32,-71,-3,-27
1490984382626,3,91,-22,-27,-75,-22,-58,-2,33
1490984382670,0,-38,66,68,21,-11,-14,2,-5
1490984382670,0,-49,37,73,29,15,-25,7,44
1490984382681,1,-68,-40,-57,-15,27,2,-2,-30
1490984382681,1,34,62,-5,-20,-37,-93,-2,4
1490984382682,3,-9,105,82,-12,19,110,2,20
1490984382682,3,-75,-34,59,68,62,100,2,-40
1490984382683,0,118,1,127,6,17,5,-5,50
1490984382683,0,-126,-128,-92,15,-15,-81,-1,-41
1490984382718,1,-30,12,-61,-63,-26,-61,-1,-5
1490984382718,1,65,33,-27,-56,13,-29,2,-14
1490984382720,2,44,23,-46,-3,-19,-74,4,-18
1490984382720,2,-18,-28,23,42,-2,11,-2,56
1490984382720,0,-122,-36,-51,-26,-14,10,1,-40
1490984382720,0,44,29,-23,-42,20,-6,-3,-7
1490984382721,1,-29,18,92,47,20,67,-3,-4
1490984382721,1,27,-19,42,55,-2,3,-4,79
1490984382767,2,-22,-87,-86,-37,-14,-46,-2,-69
1490984382767,2,8,45,-36,-69,-41,-27,-1,24
1490984382768,3,27,8,-19,13,17,29,-3,4
1490984382768,3,-7,22,70,44,41,45,1,-16
1490984382769,1,-64,6,0,-6,16,17,4,-21
1490984382769,1,92,24,-9,-50,17,-84,0,-7
1490984382770,2,-47,45,-48,-24,-13,-83,-4,25
1490984382770,2,76,-35,16,15,-19,-51,-3,-38
1490984382816,3,-64,21,-36,-29,-72,30,-4,28
1490984382816,3,8,-29,5,11,-25,-16,2,-56
1490984382817,0,-52,-75,13,16,49,19,-4,25
1490984382817,0,95,78,79,3,4,34,-3,13
1490984382818,2,3,16,-33,-25,-95,-26,-6,-8
1490984382818,2,44,9,-30,-40,-6,24,-2,3
1490984382819,3,-23,-26,-30,-20,-40,39,-1,13
1490984382819,3,-48,46,43,77,59,83,1,-14
1490984382865,0,83,39,105,1,71,23,0,15
1490984382865,0,-70,-6,71,37,36,33,1,-21
1490984382866,1,94,28,-53,-8,-35,-62,0,12
1490984382866,1,-41,-78,-92,-8,5,-3,-5,36
1490984382867,3,95,106,116,2,7,-25,-1,21
1490984382867,3,-105,-95,-3,0,-72,-41,3,-20
1490984382868,0,72,4,-9,-5,-118,-29,4,2
1490984382868,0,9,2,-48,-33,-49,-46,1,-35
1490984382914,1,-86,-95,9,-11,8,11,-2,-7
1490984382914,1,85,39,-20,-50,-44,-7,1,-3
1490984382915,2,-128,-39,11,46,18,18,-1,-19
1490984382915,2,48,5,-84,20,-26,14,-2,31
1490984382916,3,50,27,-42,-15,18,11,1,10
1490984382916,3,-74,7,81,13,45,53,-1,-4
1490984382917,0,89,66,125,-10,30,7,4,9
1490984382917,0,-34,25,-6,36,-23,-22,-2,-4
1490984382962,1,26,-65,-103,3,0,-13,0,7
1490984382962,1,-94,5,-79,-11,56,3,0,5
1490984382964,2,41,-24,22,-6,59,21,6,-2
1490984382964,2,49,37,68,-17,22,-6,-1,6
1490984382964,0,6,28,-10,2,-39,-31,-2,16
1490984382964,0,40,-6,40,-14,-4,5,0,-20
1490984382966,1,-72,1,23,5,26,33,0,-20
1490984382966,1,58,-3,96,-7,4,15,-3,18
1490984383011,2,25,5,93,3,9,-20,-3,13
1490984383011,2,-26,-44,-90,-20,-40,1,2,-5
1490984383014,3,-77,-14,-87,-24,34,-15,-3,-49
1490984383014,3,101,46,-37,25,3,-42,-1,27
1490984383015,1,3,-10,35,-27,-16,22,-3,6
1490984383015,1,-44,24,15,-17,25,44,3,-6
1490984383016,2,36,-27,47,5,23,89,0,-14
1490984383016,2,61,7,76,12,32,76,-3,28
1490984383060,3,10,14,-19,26,6,25,4,2
1490984383060,3,40,-46,-77,-13,0,-16,-4,-50
1490984383062,0,-30,0,-103,3,-11,-47,-3,32
1490984383062,0,-31,31,-36,-7,9,-46,1,-22
1490984383064,2,-3,42,36,14,-36,-2,-1,0
1490984383064,2,-73,0,-79,-6,28,9,0,-50
1490984383065,3,0,41,37,-3,23,-8,-3,23
1490984383065,3,5,-36,4,5,6,14,-3,18
1490984383109,0,104,16,15,-24,-16,10,-4,24
1490984383109,0,-76,-63,11,13,12,-9,-2,-36
1490984383111,1,51,-14,-50,-9,-12,0,-2,25
1490984383111,1,17,-9,9,-20,-7,3,-5,-9
1490984383112,3,35,20,9,5,-5,1,-3,-12
1490984383112,3,74,17,-14,-24,-18,3,-2,32
1490984383113,0,-43,12,0,22,12,10,5,-2
1490984383113,0,6,4,45,13,1,-9,3,-37
1490984383158,1,80,-14,-16,3,1,2,3,21
1490984383158,1,-119,-21,22,0,-2,4,-1,-46
1490984383159,2,19,-34,-85,-24,14,-2,-1,12
1490984383159,2,0,-1,-40,-32,-6,16,0,10
1490984383161,0,0,-7,-26,-52,-18,-3,2,-5
1490984383161,0,32,34,17,-47,-7,-8,1,3
1490984383162,1,-65,-26,7,21,11,0,1,13
1490984383162,1,86,28,21,32,-1,-5,0,14
1490984383206,2,28,55,35,14,-9,-13,2,-35
1490984383206,2,-21,-81,-24,1,12,10,-4,0
1490984383208,3,26,83,6,-18,-1,-6,0,6
1490984383208,3,-65,-45,54,34,22,7,-2,-6
1490984383209,1,-104,-52,-35,-11,-11,-6,-2,-54
1490984383209,1,-8,31,-64,-29,-5,5,-3,12
1490984383210,2,0,-21,-17,-35,12,8,-4,16
1490984383210,2,-26,42,70,32,10,-11,0,-14
1490984383255,3,-21,-39,12,23,-11,7,-3,15
1490984383255,3,95,26,38,-31,-8,-5,2,7
1490984383257,0,-70,-45,15,44,9,3,-2,14
1490984383257,0,-111,-29,-77,32,20,13,-1,-53
1490984383258,1,127,40,26,-62,-8,4,1,18
1490984383258,1,77,55,23,-16,-17,-14,3,42
1490984383259,2,-49,-16,-2,31,1,-4,-2,-17
1490984383259,2,-2,-33,-34,-28,-1,-5,0,24
1490984383304,3,53,55,40,-14,-6,-5,-3,21
1490984383304,3,-53,-93,-56,-21,17,14,2,-9
1490984383306,0,75,47,42,-23,-10,-6,-3,0
1490984383306,0,-65,-53,55,9,-15,-13,-3,-38
1490984383307,2,97,-41,-29,-46,-2,11,-1,-41
1490984383307,2,52,61,4,-10,-4,12,-2,40
1490984383308,3,25,-50,-1,-41,2,0,1,33
1490984383308,3,54,68,26,1,-12,-15,-2,-17
1490984383353,0,33,-22,-38,12,-10,-10,0,-31
1490984383353,0,-43,-65,-29,7,-1,1,-2,19
1490984383355,1,84,43,92,30,21,4,-3,25
1490984383355,1,-69,-60,-120,-23,0,7,0,-23
1490984383356,3,-76,-22,-118,-46,-7,-11,4,-19
1490984383356,3,-3,0,24,-38,-32,-8,-1,-51
1490984383357,0,74,-6,-11,-38,5,2,1,37
1490984383357,0,43,15,84,44,-10,-17,-2,20
1490984383401,1,-76,-79,2,17,17,12,1,8
1490984383401,1,-9,15,-85,58,20,4,-6,-3
1490984383404,2,-128,37,66,44,6,7,0,11
1490984383404,2,94,-54,-110,-57,-17,-2,0,5
1490984383405,0,13,69,-109,99,1,-7,1,-3
1490984383405,0,-65,-66,-95,-90,-12,1,2,50
1490984383406,1,18,76,86,-26,-9,-10,-1,-13
1490984383406,1,31,14,-128,37,-5,-10,1,2
1490984383450,2,-86,-30,53,16,3,2,-3,-43
1490984383450,2,-17,1,-75,18,37,9,1,-4
1490984383452,3,75,17,28,5,-26,-17,0,52
