1491694815803,0,-69,-46,-40,-26,40,56,-109,82
1491694815803,0,105,104,-13,-2,17,-105,105,-108
1491694815806,1,99,109,13,28,-43,-42,111,-110
1491694815806,1,27,66,49,33,-37,4,111,-105
1491694815807,2,11,61,36,27,-81,-33,73,-63
1491694815807,2,-31,-36,5,-15,-45,50,-2,12
1491694815851,3,-96,-53,-28,-21,4,19,-48,24
1491694815851,3,73,-4,23,33,-24,-9,-61,10
1491694815853,0,-28,-33,-3,-21,28,52,49,29
1491694815853,0,-7,-44,0,35,26,28,-14,35
1491694815900,1,2,-12,-15,-41,-5,-8,-34,0
1491694815900,1,-77,-54,-22,-19,21,-8,-25,2
1491694815902,2,59,-7,-13,15,8,-16,4,-1
1491694815902,2,6,-14,15,-39,-21,-30,-28,27
1491694815903,3,-18,0,-6,13,6,49,-63,26
1491694815903,3,-50,-10,-4,0,20,-14,25,27
1491694815904,0,44,4,-8,-21,-21,-59,-57,-16
1491694815904,0,-58,0,-2,8,8,35,37,-9
1491694815949,1,43,-18,2,-12,-6,-2,17,15
1491694815949,1,57,-7,-23,-19,0,0,-46,25
1491694815950,2,-33,0,24,5,8,-11,39,-28
1491694815950,2,60,4,5,31,-6,-7,-46,23
1491694815951,2,22,-2,9,13,10,-46,25,11
1491694815951,2,-52,-3,-7,10,1,6,-1,-19
1491694815998,3,65,-1,-2,-26,-8,1,47,5
1491694815998,3,-39,-2,-19,-15,-10,-7,-42,-7
1491694815999,0,-1,6,11,14,7,13,-10,-15
1491694815999,0,77,-6,0,1,9,31,50,18
1491694816000,1,70,10,-11,-15,-10,-29,-15,-18
1491694816000,1,-45,5,14,33,16,15,-4,-11
1491694816010,3,-58,-8,21,19,0,16,-54,20
1491694816010,3,29,-8,-11,-13,4,5,49,15
1491694816046,0,63,14,0,-16,-15,-13,-68,-21
1491694816046,0,-54,-20,0,-10,16,17,66,17
1491694816049,1,39,-4,1,21,5,-16,-15,2
1491694816049,1,-32,-2,-4,-25,-11,-19,-52,23
1491694816050,0,6,-8,-3,-1,-12,-7,-31,-4
1491694816050,0,-73,-12,2,11,15,39,7,18
1491694816051,1,64,6,-9,0,-2,-22,-12,-23
1491694816051,1,-17,-1,31,27,-1,10,40,20
1491694816095,2,-49,4,-19,5,1,-17,-23,-26
1491694816095,2,73,-2,13,-12,2,8,43,-6
1491694816095,3,-33,12,-6,2,-6,-10,-26,-7
1491694816095,3,-2,-8,5,14,-4,-23,31,2
1491694816096,0,54,15,12,12,12,35,23,13
1491694816096,0,6,0,-3,-5,-4,-1,-6,-4
1491694816097,1,-21,0,15,5,8,12,10,-13
1491694816097,1,20,-1,-16,-10,9,20,4,-2
1491694816144,2,-64,-2,-12,-22,-21,-29,-7,-19
1491694816144,2,22,-1,24,44,-2,-15,-8,17
1491694816145,3,-62,-11,-13,-42,-15,-27,-23,-3
1491694816145,3,34,-13,-10,4,15,24,28,-16
1491694816145,1,92,-3,-31,-36,-21,-22,2,6
1491694816145,1,-51,-14,7,-9,-9,-20,-31,-8
1491694816146,2,5,5,8,36,16,33,15,-5
1491694816146,2,-4,2,-29,-27,-12,-37,-31,-21
1491694816192,3,-28,-8,4,2,-16,0,19,-1
1491694816192,3,-14,8,-14,-21,-6,7,-34,-15
1491694816194,0,-10,-1,-7,-7,-8,-17,7,12
1491694816194,0,33,-13,1,-2,13,14,4,-2
1491694816194,2,27,5,-5,-5,-2,-25,-19,-5
1491694816194,2,-21,-14,-3,-23,4,5,19,9
1491694816195,3,62,-6,-14,-15,-7,10,-19,-9
1491694816195,3,-68,4,0,8,-9,-27,-20,18
1491694816241,0,-14,0,19,13,6,0,5,2
1491694816241,0,-2,-17,-21,-12,-2,4,-10,-4
1491694816243,1,87,8,3,-4,-2,-3,-15,2
1491694816243,1,-68,-20,-10,-30,-17,-20,-21,-12
1491694816244,3,-8,-1,28,17,24,29,12,3
1491694816244,3,-1,1,-13,9,-5,-25,-33,-16
1491694816244,0,-7,-15,-2,-27,-6,20,13,6
1491694816244,0,-18,2,-4,2,4,17,3,-10
1491694816339,1,-32,-5,6,33,-5,-46,-15,6
1491694816339,1,46,24,7,5,-1,3,-5,-12
1491694816340,2,-26,-6,9,-6,-8,-14,-4,1
1491694816340,2,33,0,-10,0,5,38,30,1
1491694816388,0,4,11,-28,-4,-2,5,22,-17
1491694816388,0,-13,-6,29,27,8,-7,-12,6
1491694816389,1,-61,1,-8,-2,-10,-8,-37,-30
1491694816389,1,30,11,-13,-2,-2,-15,11,-13
1491694816390,2,-30,-9,-9,-15,0,33,8,6
1491694816390,2,39,-10,-11,3,-1,-48,30,-5
1491694816391,3,34,-7,8,11,-1,23,-21,-14
1491694816391,3,-57,5,-25,-29,-11,-5,-32,-22
1491694816436,1,-55,4,-32,-34,-17,7,11,-18
1491694816436,1,15,-11,5,-11,-8,-15,7,-6
1491694816438,2,25,-12,18,7,-18,-32,-50,7
1491694816438,2,5,0,-3,-31,12,38,20,12
1491694816439,2,28,3,6,8,-13,-38,-8,4
1491694816439,2,-19,-13,-12,-36,-5,38,61,-16
1491694816440,3,22,-8,4,29,7,-3,2,1
1491694816440,3,8,15,11,16,1,-7,-1,20
1491694816485,0,-16,-7,4,-11,-10,2,-59,-6
1491694816485,0,71,-13,-12,7,10,-18,-14,8
1491694816485,1,11,10,5,2,-13,8,6,27
1491694816485,1,17,-9,-28,-55,-23,20,10,1
1491694816486,3,-32,-8,-4,3,3,0,-16,-16
1491694816486,3,29,-8,-3,-6,-4,10,23,1
1491694816487,0,7,8,10,13,8,22,9,-9
1491694816487,0,-18,0,-16,-15,-7,-18,-23,-25
1491694816533,1,53,9,20,17,12,17,8,15
1491694816533,1,-34,-10,13,8,0,-22,0,-4
1491694816534,2,5,8,-2,21,-2,32,38,13
1491694816534,2,-34,-5,-17,-1,4,4,-19,-2
1491694816535,0,15,-5,0,4,9,-12,-13,6
1491694816535,0,26,5,11,23,-10,-7,10,8
1491694816536,1,-76,-4,0,-9,-4,-27,-46,-12
1491694816536,1,-14,15,2,8,-2,18,4,-8
1491694816582,2,55,-13,-17,-35,-18,-6,-4,-17
1491694816582,2,13,-15,1,7,11,25,27,3
1491694816583,3,-3,12,20,20,5,-1,15,-12
1491694816583,3,22,4,-14,-11,3,0,15,2
1491694816584,1,26,-11,0,20,-5,5,-7,14
1491694816584,1,16,1,14,-2,7,26,22,1
1491694816585,2,-36,7,8,-3,-7,9,-13,-2
1491694816585,2,66,8,-6,17,-10,-28,-34,-16
1491694816631,3,-9,-16,-9,-38,0,28,49,-7
1491694816631,3,-4,-7,-4,14,1,-19,-13,18
1491694816632,0,53,-21,13,14,25,17,19,10
1491694816632,0,-62,15,-21,-38,-24,-24,-30,-5
1491694816633,2,7,-5,-1,-9,-12,-6,-1,18
1491694816633,2,16,-4,15,37,18,11,-23,12
1491694816634,3,-9,-4,-29,-19,-7,-39,-29,0
1491694816634,3,-23,1,-13,-1,-3,3,24,6
1491694816680,0,-9,-11,1,-25,-9,-7,-16,-18
1491694816680,0,31,9,-11,-18,-12,12,-8,11
1491694816681,1,-18,-9,21,-1,-7,-6,-27,-12
1491694816681,1,34,-20,0,29,20,17,35,1
1491694816682,3,33,5,13,16,-7,-8,-35,-5
1491694816682,3,-13,5,-12,-3,-6,-7,9,-9
1491694816683,0,-37,-3,7,-15,-13,-3,-18,-8
1491694816683,0,-35,-7,1,7,-1,0,51,34
1491694816729,1,50,-2,-36,-13,5,5,6,-12
1491694816729,1,-2,3,39,42,33,26,-30,12
1491694816730,2,-26,-1,12,27,-7,-4,46,-5
1491694816730,2,39,-4,20,-14,-14,-8,-68,-25
1491694816731,0,22,-14,17,5,18,19,-20,3
1491694816731,0,3,-11,-1,39,6,-9,-21,1
1491694816732,1,0,7,-12,-17,-12,-19,0,-2
1491694816732,1,-1,-2,-17,-17,-2,13,-4,-13
1491694816777,2,-16,16,13,12,-6,-8,2,-12
1491694816777,2,-8,-29,-6,-4,2,31,82,0
1491694816779,3,32,0,10,-10,0,-13,8,5
1491694816779,3,10,-13,2,23,3,-23,-28,-5
1491694816780,1,25,-4,24,36,5,12,3,29
1491694816780,1,-7,14,-6,-4,-12,-40,-26,-35
1491694816781,2,-9,2,-22,-45,-10,5,40,7
1491694816781,2,59,3,3,-2,-16,-18,-37,1
1491694816826,3,1,-11,-2,4,-2,15,24,11
1491694816826,3,-39,-4,1,3,2,-7,12,2
1491694816827,0,84,-5,-20,-19,10,2,-11,12
1491694816827,0,-106,2,10,26,0,-6,15,-6
1491694816875,1,1,4,-9,-48,-42,-51,-75,-30
1491694816875,1,19,-12,19,7,24,41,47,21
1491694816876,2,-12,-12,-20,-12,3,-11,-45,-10
1491694816876,2,-42,12,27,11,1,16,82,24
1491694816878,3,73,7,-20,22,9,18,-8,-2
1491694816878,3,-76,-13,-17,-6,-13,-3,8,-8
1491694816879,0,-23,12,-5,-36,-25,-8,19,-5
1491694816879,0,-61,-9,1,12,11,-6,7,-12
1491694816924,2,76,10,-17,-8,-7,-21,16,-8
1491694816924,2,-47,-9,2,-1,-6,9,9,-14
1491694816925,3,-77,-18,-1,8,10,15,16,17
1491694816925,3,85,4,-21,-36,4,1,3,4
1491694816926,3,-40,-7,-3,14,13,-19,-12,-14
1491694816926,3,24,-19,5,16,29,36,86,21
1491694816927,0,-93,4,7,-22,-22,-23,-22,1
1491694816927,0,99,-3,-9,16,4,40,24,-9
1491694816972,1,-14,-18,5,-24,-1,-10,16,24
1491694816972,1,-58,3,-1,5,2,-16,6,-25
1491694816974,2,25,-7,21,25,20,49,2,27
1491694816974,2,40,13,-16,-14,-27,-52,-36,-21
1491694816975,0,-82,-7,16,18,5,-13,-14,-7
1491694816975,0,-51,-5,-25,-30,19,5,16,-6
1491694816976,1,53,20,35,63,-1,-7,-18,15
1491694816976,1,-5,1,19,-5,-23,-39,-77,0
1491694817021,2,104,-20,-21,-12,17,35,23,10
1491694817021,2,-56,-6,-15,-19,-34,-10,10,-12
1491694817023,3,60,-2,4,11,15,-5,-30,-3
1491694817023,3,-40,4,5,20,18,-14,-72,-5
1491694817024,1,-44,12,-26,-47,-9,34,-6,-21
1491694817024,1,-15,4,10,33,1,-50,-25,-2
1491694817025,2,1,-16,-30,-26,-37,-13,-2,-30
1491694817025,2,46,-3,-11,-21,-14,14,-25,13
1491694817070,3,-30,0,13,26,30,-1,77,1
1491694817070,3,7,-14,3,-8,-28,-3,15,17
1491694817071,0,-95,-7,-12,15,15,-19,-50,-42
1491694817071,0,33,6,-14,-10,4,3,31,-2
1491694817072,2,20,-7,15,13,-5,-16,6,27
1491694817072,2,16,-9,5,44,15,-15,-31,-31
1491694817075,3,4,23,-22,-14,-20,-19,-31,2
1491694817075,3,-55,-41,-6,-44,-14,7,12,13
1491694817167,0,-18,-2,23,50,-15,-43,-70,-18
1491694817167,0,-31,-13,-10,13,40,80,94,-2
1491694817169,1,87,-15,-8,-55,-3,-38,20,3
1491694817169,1,-37,10,-6,9,-28,-7,-50,-10
1491694817170,3,-49,-8,-13,13,23,10,32,-15
1491694817170,3,51,21,15,-2,17,23,-19,7
1491694817171,0,42,-6,-21,-29,-4,-25,22,-14
1491694817171,0,-87,-19,19,33,16,-31,-29,7
1491694817216,1,11,6,-24,-29,-5,43,32,-4
1491694817216,1,-29,-2,-2,-5,-2,-10,61,2
1491694817218,2,23,5,1,17,5,25,29,14
1491694817218,2,14,-10,-14,-46,4,-5,-17,16
1491694817219,3,-53,-14,-2,-19,-15,-19,-11,-12
1491694817219,3,88,7,-16,-10,-38,-8,-27,2
1491694817220,0,32,0,13,-14,25,-5,50,18
1491694817220,0,-17,-5,8,13,-4,15,-17,-9
1491694817265,1,34,3,-1,19,42,-5,-4,-15
1491694817265,1,-4,13,6,1,-41,-10,6,19
1491694817267,2,9,-2,0,-9,1,58,-52,-39
1491694817267,2,-37,4,-13,-31,-82,-26,0,5
1491694817268,1,-27,-2,-2,-46,-49,28,-19,19
1491694817268,1,18,-4,-16,17,35,-13,-3,-8
1491694817269,2,-41,19,15,19,6,-42,2,20
1491694817269,2,-38,-13,-11,-25,-7,30,-25,-18
1491694817314,3,98,-10,-2,7,-22,11,46,4
1491694817314,3,-128,-2,24,17,36,-41,-54,-16
1491694817315,0,90,11,2,-2,-25,66,21,-12
1491694817315,0,29,21,13,42,87,-15,64,9
1491694817411,2,-39,-24,-14,-65,-85,0,-52,-16
1491694817411,2,34,18,0,6,46,-46,62,-4
1491694817413,3,-50,-8,6,22,43,39,-12,20
1491694817413,3,-56,-25,-13,15,-17,-65,-38,11
1491694817414,0,68,-6,25,55,81,93,21,37
1491694817414,0,-16,10,28,-22,-101,12,16,-16
1491694817415,1,-8,7,-13,-37,3,-25,46,-30
1491694817415,1,-37,4,-53,-62,-86,-43,-123,-10
1491694817460,3,23,-13,6,99,63,-1,16,-12
1491694817460,3,42,8,-12,-80,-26,49,53,-23
1491694817462,0,-70,-25,-46,-106,-98,-92,58,-27
1491694817462,0,-84,-6,23,-27,-3,31,-109,-5
1491694817463,0,10,12,19,64,95,-13,-14,-20
1491694817463,0,23,3,22,49,34,32,44,-2
1491694817464,1,-86,4,-33,1,4,-37,-7,-17
1491694817464,1,20,-12,-24,-1,19,41,-32,1
1491694817509,2,41,-6,23,-65,-108,-108,7,-10
1491694817509,2,20,-14,4,8,-14,90,1,8
1491694817510,3,-39,-20,-22,21,29,-13,7,24
1491694817510,3,-3,19,10,22,61,-27,32,5
1491694817512,1,-20,-12,1,16,-7,-45,-25,23
1491694817512,1,-16,-13,-42,79,63,64,-5,10
1491694817512,2,-1,10,81,0,-8,-55,28,13
1491694817512,2,3,11,-34,-29,-30,12,35,-15
1491694817557,3,1,5,28,-67,-60,-8,-36,9
1491694817557,3,-13,-30,-41,-16,-48,-60,-9,-24
1491694817559,0,-2,-18,27,49,39,-56,6,14
1491694817559,0,35,18,-45,-1,-16,21,-27,-23
1491694817559,2,5,-3,-42,-2,25,91,-32,-21
1491694817559,2,-16,-6,16,13,87,-112,-17,-2
1491694817560,3,-5,-11,-49,-11,-68,40,-5,-27
1491694817560,3,-13,-16,64,-51,-41,-6,8,9
1491694817606,0,15,42,20,38,11,78,-19,24
1491694817606,0,-15,-46,-57,39,48,-78,-74,-12
1491694817607,1,27,36,61,6,-15,22,50,5
1491694817607,1,-10,-19,-5,-9,83,53,26,-11
1491694817608,3,-16,-3,-48,72,52,-128,-49,15
1491694817608,3,13,39,19,-29,-43,33,71,-23
1491694817609,0,-9,7,-29,-52,9,35,-57,-4
1491694817609,0,10,-18,29,54,-26,-24,-7,-7
1491694817655,1,-16,-8,-6,-38,8,36,-13,15
1491694817655,1,49,48,18,61,73,2,43,28
1491694817656,2,-48,-27,-17,70,4,-47,-12,-16
1491694817656,2,23,31,-23,-127,-38,-13,7,-20
1491694817656,0,33,30,-12,-58,54,30,56,-5
1491694817656,0,15,4,23,64,11,4,42,9
1491694817657,1,-17,-9,18,20,-4,-62,-74,-5
1491694817657,1,18,-2,-18,-15,12,-8,-26,-20
1491694817704,2,-17,-32,-25,-41,-52,13,47,-17
1491694817704,2,2,-1,-17,-55,-64,8,-14,31
1491694817705,3,32,-1,-3,16,53,49,114,0
1491694817705,3,-36,2,23,31,0,-25,-43,5
1491694817707,1,-43,20,-29,-25,-8,30,21,-34
1491694817707,1,28,-7,-5,-41,-20,-54,-7,4
1491694817708,2,8,-7,17,8,-19,-11,44,26
1491694817708,2,34,-5,-23,-12,-23,-26,-55,30
1491694817801,3,-12,-18,5,-7,13,29,14,7
1491694817801,3,28,-7,54,109,55,49,-4,11
1491694817802,0,-57,8,-36,-97,-73,-75,-68,-47
1491694817802,0,51,6,2,-21,18,35,27,13
1491694817850,2,32,-22,7,-28,-70,-15,-17,10
1491694817850,2,-1,-33,3,55,0,45,38,-13
1491694817851,3,-16,-3,2,-28,73,7,-33,-37
1491694817851,3,-37,4,-7,-16,-24,13,0,1
1491694817851,0,6,28,23,65,64,-46,-33,8
1491694817851,0,-9,9,-16,-31,-77,-65,-85,-31
1491694817852,1,70,6,17,14,1,29,102,28
1491694817852,1,-61,-79,-38,-59,44,78,81,-10
1491694817898,3,-13,10,1,-38,-25,-128,-89,-17
1491694817898,3,2,28,30,23,-63,17,-56,-17
1491694817899,3,-29,-18,5,-33,-24,61,-18,7
1491694817899,3,23,-21,-18,-22,6,73,83,28
1491694817900,0,35,6,-18,-11,13,-10,-27,5
1491694817900,0,-120,-12,-24,-48,-42,-25,-20,-11
1491694817901,1,-8,-30,-21,-9,23,70,40,-6
1491694817901,1,-60,16,12,65,25,-1,41,-15
1491694817947,2,55,-2,-33,-17,-5,-23,-10,-4
1491694817947,2,-7,43,44,-17,-29,-46,45,26
1491694817948,3,-74,10,-16,14,19,26,-35,-28
1491694817948,3,13,6,22,30,39,11,-55,12
1491694817949,1,-41,-17,3,17,-17,30,6,7
1491694817949,1,31,7,8,18,-2,-86,-42,27
1491694817950,2,-51,-35,4,11,46,53,58,-14
1491694817950,2,-18,-16,-23,-23,-32,24,39,-44
1491694817996,3,35,-11,5,-15,6,42,27,17
1491694817996,3,64,3,-2,2,-4,-1,14,12
1491694817997,0,52,11,18,39,44,-31,-42,2
1491694817997,0,23,46,-20,21,-6,20,14,-23
1491694817997,2,-7,4,-26,-15,2,44,46,12
1491694817997,2,-44,6,24,6,-3,-8,-45,-1
1491694817998,3,84,7,-9,37,-33,-72,-64,5
1491694817998,3,24,-16,-20,-20,49,72,93,1
1491694818045,0,-113,-27,-27,-40,-7,-5,13,-13
1491694818045,0,87,-4,15,7,-39,-8,-86,-3
1491694818046,1,-83,13,-3,6,33,-3,55,13
1491694818046,1,-5,-3,-43,19,4,-36,-76,-38
1491694818046,3,79,3,1,16,-3,9,-7,0
1491694818046,3,-69,-3,-13,10,47,-8,27,-17
1491694818050,0,36,16,-12,-9,-2,30,-18,0
1491694818050,0,22,-17,-18,-15,-15,-49,-15,20
1491694818093,1,-45,-8,13,16,10,5,-44,-17
1491694818093,1,-1,1,-14,-43,-33,12,-2,18
1491694818094,2,11,-22,-24,7,7,6,46,31
1491694818094,2,-17,-3,23,-11,15,-13,6,-8
1491694818095,0,33,7,27,43,-8,-35,-43,47
1491694818095,0,2,-11,-5,18,17,48,27,-41
1491694818096,1,10,-15,-26,-30,-20,-26,30,16
1491694818096,1,69,3,12,-13,22,7,9,10
1491694818143,2,-11,10,-7,9,-21,-30,-30,-16
1491694818143,2,-18,-15,7,30,54,44,39,33
1491694818144,3,0,-6,-23,1,-40,-34,-23,-29
1491694818144,3,-15,-13,3,0,-23,35,68,-8
1491694818145,1,-49,-7,17,0,-7,-36,7,-13
1491694818145,1,-13,8,7,24,-1,8,-16,9
1491694818146,2,35,-16,-17,4,30,35,41,-20
1491694818146,2,-33,-2,10,19,21,39,28,-3
1491694818191,3,12,12,-6,-10,11,-22,0,-10
1491694818191,3,5,-5,-11,-15,-29,1,35,-15
1491694818192,0,41,-6,2,-24,12,-27,-32,-16
1491694818192,0,-73,14,-10,-24,-30,0,3,11
1491694818194,2,-39,11,-20,-53,-9,-79,-25,8
1491694818194,2,55,-11,3,37,7,-4,-32,32
1491694818194,3,-80,-9,18,47,47,33,8,-33
1491694818194,3,-32,9,-13,-32,-23,18,8,11
1491694818240,0,30,-8,-13,18,8,3,16,-29
1491694818240,0,-27,10,-10,-58,-43,-62,-47,-11
1491694818241,1,-2,-1,-4,5,-3,48,51,18
1491694818241,1,-12,-14,8,13,19,-28,-22,1
1491694818242,2,10,10,9,30,14,18,-25,-4
1491694818242,2,31,2,31,14,30,-15,14,25
1491694818243,3,-49,-5,-8,-22,-38,-5,1,-16
1491694818243,3,-7,-9,-37,-35,0,-32,-26,-1
1491694818288,0,46,-6,9,12,-23,28,15,21
1491694818288,0,-24,-2,-1,4,15,-3,7,-19
1491694818290,1,55,0,12,14,12,18,-5,13
1491694818290,1,-62,-10,0,21,-3,-27,36,7
1491694818337,3,-2,-3,-3,-28,-38,-51,-37,-7
1491694818337,3,-19,-13,23,24,7,40,10,-13
1491694818339,0,20,8,-28,-22,25,34,43,0
1491694818339,0,22,-8,37,48,34,8,-19,8
1491694818340,1,24,14,4,-18,-26,-6,21,-4
1491694818340,1,21,5,0,-10,8,-18,-18,-7
1491694818340,2,-43,9,-21,-23,-38,9,-5,12
1491694818340,2,-2,-19,16,9,-24,-32,4,-8
1491694818390,0,-67,0,33,55,-4,18,4,6
1491694818390,0,-77,-21,-46,-76,-6,43,41,-45
1491694818391,1,29,5,29,40,24,-22,-14,14
1491694818391,1,45,-2,-23,-16,-20,-2,30,24
1491694818395,1,-50,-12,6,-19,16,-11,4,-23
1491694818395,1,26,5,-26,-31,-47,1,-10,-4
1491694818396,2,18,-9,-13,15,29,42,69,-19
1491694818396,2,-39,-2,5,10,0,-34,-80,3
1491694818435,3,11,-4,-21,0,-12,-1,-9,-16
1491694818435,3,-15,5,38,26,30,-15,2,-23
1491694818436,0,-42,-8,-19,16,-12,12,-3,-48
1491694818436,0,-14,7,-19,-53,-27,-40,4,6
1491694818436,2,13,-9,-15,-32,-12,-4,-32,-3
1491694818436,2,1,-1,9,28,7,9,-10,7
1491694818437,3,-2,0,-2,-9,-1,-22,-51,-3
1491694818437,3,1,-6,-6,-11,-6,-25,22,12
1491694818484,0,7,-7,-6,-7,-4,4,-18,18
1491694818484,0,16,13,22,5,-18,-38,-62,0
1491694818485,1,-3,1,21,29,2,15,74,16
1491694818485,1,-36,-19,-27,-8,46,24,-1,-14
1491694818486,3,-17,-2,-7,-37,-12,-24,-34,11
1491694818486,3,50,1,-12,-1,-5,19,38,22
1491694818488,0,-1,1,11,10,-18,25,-9,1
1491694818488,0,-32,0,-4,11,47,-53,-10,-25
1491694818532,1,12,9,18,16,11,43,40,7
1491694818532,1,-10,1,-13,-27,-32,1,-8,-17
1491694818534,2,13,-4,-5,13,-10,-41,-19,1
1491694818534,2,22,4,-20,-11,-1,38,41,-33
1491694818535,0,-39,-9,2,2,17,4,-18,-1
1491694818535,0,92,5,21,28,18,28,29,5
1491694818536,1,46,-3,-42,-56,-39,-30,-15,11
1491694818536,1,-17,-3,28,21,18,26,-12,10
1491694818581,2,8,-10,-4,25,36,-37,-15,-19
1491694818581,2,-5,4,17,-7,-26,-25,-19,-5
1491694818582,3,-11,-10,-31,3,4,34,17,-11
1491694818582,3,0,-9,-5,-42,-24,-11,10,-15
1491694818630,0,0,1,8,16,-25,-18,5,16
1491694818630,0,-30,-3,-11,-9,43,0,-35,-1
1491694818631,1,1,-5,23,45,3,13,51,-10
1491694818631,1,-28,4,-17,-21,-13,-17,-17,11
1491694818631,2,-18,-6,-22,-44,5,-4,14,-34
1491694818631,2,-45,-16,-11,-46,-34,17,3,10
1491694818632,3,4,3,6,22,-3,-37,-60,14
1491694818632,3,14,-2,3,39,29,2,1,-7
1491694818678,1,-44,-5,-4,-31,-2,40,-9,-21
1491694818678,1,26,2,0,-14,-19,-72,-34,7
1491694818679,2,13,-4,8,20,7,15,-12,5
1491694818679,2,-30,-4,14,35,9,53,74,17
1491694818680,3,50,-2,0,-7,34,-24,13,-11
1491694818680,3,-61,-10,-12,-21,-20,23,13,-8
1491694818681,2,-64,-2,11,-28,-23,3,14,-2
1491694818681,2,66,-13,-40,-10,-27,-13,-50,-15
1491694818727,3,-33,2,13,-5,-13,-1,-6,0
1491694818727,3,31,8,18,30,36,2,-32,-2
1491694818728,0,-17,-8,-16,8,5,10,19,-8
1491694818728,0,3,-4,-13,-24,-22,16,-2,6
1491694818729,3,-41,-9,-5,1,11,-28,-43,-1
1491694818729,3,-1,2,-33,-28,-21,12,10,-9
1491694818734,0,-25,-9,45,13,-9,-21,-19,9
1491694818734,0,-10,2,-13,9,3,-15,-10,-5
1491694818776,1,-25,-2,9,2,1,6,-7,6
1491694818776,1,31,4,9,11,10,-3,-15,-19
1491694818777,2,-6,-1,-22,-12,-4,-37,14,-10
1491694818777,2,-22,2,21,-25,-11,17,13,10
1491694818825,0,-21,-3,-21,-4,-13,13,2,-5
1491694818825,0,3,-2,11,7,20,17,27,2
1491694818826,1,-59,1,-12,-42,-39,-4,-14,-7
1491694818826,1,1,-12,11,8,-26,-54,-48,-8
1491694818826,2,-19,2,-17,-24,-8,21,3,-12
1491694818826,2,-62,-4,4,21,25,6,19,-3
1491694818827,3,98,6,31,31,13,7,22,35
1491694818827,3,-38,-2,-3,2,6,8,-2,-9
1491694818873,1,-45,-5,1,-8,-11,-28,4,17
1491694818873,1,34,-6,-20,-34,-34,-14,-28,-8
1491694818875,2,-43,-6,13,26,33,19,-14,1
1491694818875,2,41,1,-14,0,-16,-6,27,-2
1491694818876,2,-26,-6,29,35,-2,17,33,12
1491694818876,2,7,-5,-20,-43,-6,-19,-37,-11
1491694818878,3,50,-1,8,24,10,29,33,-5
1491694818878,3,-14,-5,-17,-16,-39,-44,-29,-35
1491694818922,0,59,-1,-11,-30,-6,1,17,17
1491694818922,0,-29,6,-1,9,26,-12,-32,0
1491694818924,1,-10,-6,7,34,0,2,-28,-8
1491694818924,1,-19,-6,-21,-43,-24,15,20,4
1491694818925,2,-1,-6,21,-1,-17,-28,-6,-14
1491694818925,2,-50,-4,1,4,-11,-19,-15,-21
1491694818926,3,-12,-2,-19,-20,20,27,-15,5
1491694818926,3,81,5,11,56,54,6,9,-2
1491694818971,0,-22,6,3,-24,-30,-2,-41,-17
1491694818971,0,13,1,-9,-13,-1,-19,-10,0
1491694818972,1,-20,-9,-1,14,-10,12,16,-3
1491694818972,1,-73,3,17,22,55,8,-16,1
1491694818973,3,12,-7,1,19,1,-29,-8,-7
1491694818973,3,-22,-1,3,19,4,-4,-28,-2
1491694818974,0,-12,2,19,21,37,45,13,-9
1491694818974,0,60,2,-20,-16,-17,-71,-7,-1
1491694819020,1,-66,-6,-1,-6,-29,0,25,8
1491694819020,1,80,4,-20,-69,-25,33,57,-10
1491694819022,2,-48,0,8,46,25,-21,-22,6
1491694819022,2,19,0,-9,24,6,-4,-13,-14
1491694819023,0,43,-6,-10,-33,1,-21,-1,6
1491694819023,0,-95,-12,-11,-12,-44,7,2,4
1491694819024,1,67,4,-8,-3,-2,-33,-12,9
1491694819024,1,-80,-7,-11,-6,2,17,-2,9
1491694819069,2,61,3,26,34,18,2,4,20
1491694819069,2,-24,-8,-9,-3,28,27,-1,-12
1491694819070,3,12,9,11,18,12,16,33,11
1491694819070,3,-33,-3,-18,-9,-9,-32,-16,-26
1491694819072,1,49,-1,2,-12,0,4,-11,7
1491694819072,1,7,-6,16,26,26,25,3,14
1491694819073,2,-47,-11,-17,5,-11,-53,-23,-7
1491694819073,2,-3,5,-2,0,-6,1,17,-1
1491694819118,3,20,-10,-18,-34,-3,23,19,-1
1491694819118,3,-12,2,21,11,-24,-37,-34,12
1491694819119,0,7,-5,0,-11,2,24,2,9
1491694819119,0,35,3,-18,-15,7,7,-7,19
1491694819120,2,-47,3,-11,-16,-26,12,26,-18
1491694819120,2,11,2,-15,-32,-34,-29,-22,-7
1491694819121,3,47,-1,18,26,19,3,-14,7
1491694819121,3,-4,3,9,22,14,30,1,-11
1491694819166,0,-47,-1,-6,8,21,-22,-6,-26
1491694819166,0,114,15,23,52,45,33,26,12
1491694819167,1,-20,-7,-31,-48,-36,25,31,-14
1491694819167,1,-30,-9,-2,-28,-45,-55,-15,-38
1491694819167,3,-20,4,11,23,9,5,-10,-1
1491694819167,3,-17,-2,23,20,26,27,28,17
1491694819168,0,11,6,-18,-6,19,-8,15,-8
1491694819168,0,-1,-9,22,46,17,16,-5,-6
1491694819215,1,16,7,-11,-38,-19,9,-1,11
1491694819215,1,-19,-5,-12,-43,-39,-26,6,-12
1491694819215,2,-35,4,-17,20,-1,41,1,-10
1491694819215,2,36,1,31,37,28,-14,56,9
1491694819216,0,-38,-18,-16,-42,-35,-25,-11,9
1491694819216,0,26,-4,-19,-6,-8,2,-3,-3
1491694819217,1,-71,-2,-1,-15,-7,-21,-19,-12
1491694819217,1,108,8,-10,-3,45,39,-6,19
1491694819263,2,-56,-6,35,55,24,-3,-24,3
1491694819263,2,-69,2,-38,-54,-48,-34,-53,-40
1491694819265,3,34,-10,-5,-44,-11,33,76,12
1491694819265,3,-49,-4,8,29,14,-12,-44,-12
1491694819312,0,84,4,-18,-30,-5,-7,25,1
1491694819312,0,-32,-2,54,47,-6,-28,-43,-3
1491694819361,1,-19,-4,-18,-10,11,26,-8,-8
1491694819361,1,16,2,-8,-6,-9,-8,12,3
1491694819362,2,39,-2,-3,-12,0,-7,-6,-4
1491694819362,2,-29,2,24,5,9,-1,-18,2
1491694819363,3,-98,4,-11,-5,-4,3,31,-12
1491694819363,3,95,0,1,3,16,16,12,9
1491694819364,1,2,-7,-6,-10,-15,-34,-26,-5
1491694819364,1,-6,-2,-4,13,14,16,61,28
1491694819418,2,-12,-11,15,28,10,3,-25,-7
1491694819418,2,-6,6,-14,-18,5,7,-1,1
1491694819419,2,-3,12,29,14,7,8,-24,10
1491694819419,2,40,-4,3,24,-4,-31,-2,3
1491694819420,3,6,4,-6,-34,-13,58,16,8
1491694819420,3,-9,-12,-8,-2,16,-15,78,22
1491694819421,3,-15,-5,-3,-1,-38,-29,-33,12
1491694819421,3,39,0,-2,-9,19,23,-23,-18
1491694819459,0,-58,-6,-6,11,9,-18,-27,15
1491694819459,0,52,11,4,-1,-2,7,-36,-2
1491694819461,1,-22,-11,-2,-6,-17,-31,33,-25
1491694819461,1,-25,-1,25,-11,-17,47,32,35
1491694819462,0,8,-4,11,2,-8,6,36,8
1491694819462,0,-77,-14,-27,-31,-10,1,-4,-23
1491694819463,1,26,13,-6,-1,-11,-3,10,26
1491694819463,1,-42,2,16,15,-15,-34,-56,-36
1491694819507,2,45,5,24,47,108,12,-8,3
1491694819507,2,-38,-9,-11,-5,-32,34,107,-14
1491694819508,3,-11,-9,-30,-52,-35,-67,-87,-17
1491694819508,3,127,11,-6,11,-40,20,16,28
1491694819509,1,5,0,-14,-32,62,47,116,12
1491694819509,1,-74,-22,2,7,-37,-49,-54,8
1491694819511,2,51,2,-25,-12,-35,-29,-27,13
1491694819511,2,-57,9,-27,-38,-27,52,-75,-51
1491694819556,3,5,-1,25,78,79,-34,9,27
1491694819556,3,-70,-11,6,7,-77,-6,36,-32
1491694819557,0,78,21,-10,-110,-62,-56,-10,-8
1491694819557,0,-48,-29,-25,25,72,51,30,-5
1491694819558,2,-98,1,41,127,69,-7,36,-22
1491694819558,2,32,24,41,24,-88,-51,-6,-21
1491694819559,3,-8,6,15,-78,-59,4,51,-14
1491694819559,3,-63,26,-20,18,116,49,42,-2
1491694819605,0,-90,-25,-46,-104,-107,-95,-8,19
1491694819605,0,121,0,31,43,-11,-78,41,4
1491694819606,1,51,5,18,127,107,127,21,-65
1491694819606,1,43,33,43,27,60,-7,-38,6
1491694819607,3,7,-27,-18,-5,22,-128,-54,-19
1491694819607,3,28,6,20,90,-1,92,29,66
1491694819608,0,28,14,-12,-37,127,-13,11,-46
1491694819608,0,-66,-41,6,-83,-111,-91,75,35
1491694819653,1,89,-21,-62,-113,63,64,-128,-8
1491694819653,1,-89,-8,49,48,-2,-96,-52,-39
1491694819655,2,2,-16,-29,79,80,127,8,22
1491694819655,2,69,43,23,38,-94,-5,-30,13
1491694819656,3,-89,2,16,-17,66,26,44,0
1491694819656,3,-2,-10,-11,-97,0,-107,16,-16
1491694819656,0,13,17,9,83,42,92,-21,9
1491694819656,0,-54,-14,31,-4,-9,-84,-68,9
1491694819702,1,-61,-25,-53,-93,-97,33,-56,3
1491694819702,1,84,-23,-33,114,92,94,-28,58
1491694819704,2,-36,-4,54,-12,-128,-37,27,-39
1491694819704,2,21,10,-19,86,127,58,87,18
1491694819704,0,16,-26,-31,85,31,2,-49,68
1491694819704,0,-58,-1,-38,-29,-11,58,-38,-54
1491694819705,1,-94,3,88,-43,-80,-61,89,36
1491694819705,1,51,3,-13,119,11,21,-2,-58
1491694819751,2,-11,1,-31,-128,-115,-91,-79,33
1491694819751,2,80,39,16,65,83,50,84,23
1491694819800,3,-91,17,-14,114,92,100,55,10
1491694819800,3,-95,0,18,-18,-38,39,-128,-109
1491694819848,1,70,50,26,88,-60,-34,-3,-29
1491694819848,1,-116,11,29,0,101,22,116,37
1491694819850,2,-11,-40,-63,-80,-46,61,25,-98
1491694819850,2,-64,4,37,-40,-128,-59,-118,21
1491694819850,3,38,9,31,101,105,110,80,33
1491694819850,3,-4,13,-8,118,-56,-121,-69,-82
1491694819851,0,10,-16,-64,-73,-119,37,20,-23
1491694819851,0,26,-51,-61,-5,36,98,106,52
1491694819897,2,72,-10,2,-26,-44,-128,13,-1
1491694819897,2,61,16,32,37,68,102,55,-5
1491694819898,3,44,-17,-64,21,61,-65,11,-27
1491694819898,3,-80,-8,39,-36,-69,-8,70,56
1491694819899,3,-128,-9,43,-12,-128,-76,-108,47
1491694819899,3,127,36,-13,-57,36,127,74,-34
1491694819900,0,53,76,-2,-21,-18,44,-21,44
1491694819900,0,-27,-44,-47,-121,-112,-63,-127,-21
1491694819946,1,127,-9,-31,87,79,91,76,2
1491694819946,1,-16,39,21,-45,72,127,44,56
1491694819947,2,-13,2,127,127,80,-78,76,23
1491694819947,2,88,-12,-69,-42,-7,98,-76,-12
1491694819947,1,53,-5,-7,2,34,-14,55,65
1491694819947,1,58,15,29,100,39,9,-19,9
1491694819948,2,-30,53,6,13,-64,77,-19,30
1491694819948,2,-110,-9,-45,-87,-128,-109,72,-85
1491694819995,3,-33,-29,-35,-65,-96,-7,-74,-38
1491694819995,3,26,-12,4,50,52,36,24,7
1491694819996,0,-39,15,94,87,-50,-88,62,8
1491694819996,0,68,35,-89,-26,-23,127,-86,-128
1491694819998,1,-104,-38,14,23,-95,-128,-3,1
1491694819998,1,-81,-55,-41,-22,-18,34,-45,8
1491694819999,2,15,41,-30,81,116,107,-94,-107
1491694819999,2,26,29,76,61,-69,5,-32,-74
1491694820044,3,27,25,-2,-45,-30,-33,-70,51
1491694820044,3,-128,-6,-8,58,2,-80,-3,-112
1491694820045,0,59,-1,-18,-16,-102,99,70,-36
1491694820045,0,0,3,11,-4,127,6,44,-64
1491694820047,2,77,8,60,-43,-81,-121,-59,-79
1491694820047,2,78,17,-23,93,89,50,52,54
1491694820048,3,-50,-29,30,19,-64,127,74,-32
1491694820048,3,-82,15,-68,-122,-72,60,18,-55
1491694820092,0,-5,-7,-65,38,95,-86,25,-43
1491694820092,0,9,-6,92,68,-128,79,-30,39
1491694820093,1,-53,-12,-23,-45,50,-94,-59,-93
1491694820093,1,109,7,5,47,30,18,9,-15
1491694820094,3,-28,51,23,99,124,127,23,37
1491694820094,3,84,-26,-24,-67,-128,-103,-7,-28
1491694820095,0,-57,-58,-4,-43,107,-67,-75,23
1491694820095,0,-128,15,-52,-23,20,68,34,-44
1491694820141,1,86,8,30,47,-31,-62,-33,35
1491694820141,1,-70,-52,-75,-128,-84,20,40,-29
1491694820142,2,99,11,29,97,75,-58,30,46
1491694820142,2,-47,-9,56,35,5,112,7,73
1491694820143,0,-128,6,-32,35,-25,76,-19,39
1491694820143,0,-90,-15,-35,-33,20,-103,40,-31
1491694820144,1,108,18,12,-93,-70,127,-23,-41
1491694820144,1,-6,30,-6,110,127,-128,105,55
1491694820190,2,-63,-41,47,-61,-117,46,-86,35
1491694820190,2,125,-27,-51,36,54,74,121,19
1491694820190,3,-65,20,34,91,36,32,93,-25
1491694820190,3,0,15,-6,-49,-19,-55,-18,0
1491694820191,1,-75,-18,25,4,-77,-122,49,121
1491694820191,1,-17,32,2,-35,25,127,-27,-48
1491694820192,2,48,-27,-42,23,114,80,8,-51
1491694820192,2,64,4,-1,2,-32,41,-19,-9
1491694820239,3,-42,21,8,-21,12,-38,108,-4
1491694820239,3,-91,-9,44,88,60,-12,-47,52
1491694820240,0,-7,-23,-72,-67,-128,-28,100,-79
1491694820240,0,48,4,71,127,104,21,27,5
1491694820287,2,51,-49,93,47,-63,-108,-107,30
1491694820287,2,6,28,-53,39,12,116,114,124
1491694820288,3,-64,-29,74,41,127,-121,-66,-49
1491694820288,3,-8,32,-35,-23,-128,109,50,20
1491694820289,0,-13,-4,0,81,127,-22,49,-19
1491694820289,0,-43,3,19,-38,-2,-43,-128,-32
1491694820290,1,40,2,-28,-74,-27,-25,52,36
1491694820290,1,29,20,-14,68,-38,55,-58,-12
1491694820336,3,-78,-25,-62,-26,-63,-53,24,-83
1491694820336,3,113,58,50,16,57,73,-128,62
1491694820338,0,-62,15,-7,54,-17,-42,-41,92
1491694820338,0,-59,-4,-20,-104,-92,-11,30,-115
1491694820339,3,18,-21,-21,-73,-59,127,-125,-49
1491694820339,3,-103,-11,20,97,80,-101,57,-78
1491694820340,0,60,-10,-31,-87,56,95,99,78
1491694820340,0,-49,-17,-31,-60,-49,-69,-44,-100
1491694820385,1,68,5,-7,46,-104,-18,111,8
1491694820385,1,-65,-9,43,44,80,49,22,11
1491694820386,2,-75,5,-70,-118,-70,9,18,-19
1491694820386,2,94,5,-24,56,-21,-22,10,29
1491694820388,0,-2,-15,-7,-102,-70,-60,-75,85
1491694820388,0,-34,-4,39,54,59,74,17,13
1491694820389,1,4,31,3,5,126,-35,-92,24
1491694820389,1,95,7,57,25,69,82,-4,69
1491694820434,2,-106,-7,-62,-100,-86,22,-63,-128
1491694820434,2,37,-41,-71,-85,-28,-128,-29,-43
1491694820482,3,-10,9,-4,46,94,127,-46,58
1491694820482,3,51,-15,19,-3,-128,-119,6,-40
1491694820483,1,-43,37,-2,57,-18,85,63,25
1491694820483,1,-50,-46,-53,-26,-70,-98,-62,25
1491694820484,2,26,-3,-26,-17,-128,66,12,-2
1491694820484,2,-87,10,44,103,96,-6,-26,37
1491694820485,3,63,-6,-21,30,82,52,-47,-25
1491694820485,3,61,-8,-3,-9,-17,-60,60,23
1491694820531,0,-55,18,3,-6,-49,53,-63,-17
1491694820531,0,-26,-19,26,27,57,-88,-37,-37
1491694820532,2,-6,-14,17,-49,127,-82,13,-11
1491694820532,2,7,10,-28,-97,-34,114,-41,101
1491694820537,3,48,19,59,124,75,-30,105,-24
1491694820537,3,16,3,2,-127,18,127,30,-39
1491694820539,3,-18,-16,-89,-121,-87,-128,-24,23
1491694820539,3,25,13,61,49,32,81,104,59
1491694820580,0,-17,2,40,48,83,-115,-59,-88
1491694820580,0,6,4,-21,-1,70,100,60,29
1491694820581,1,-21,-10,-24,-84,-128,-72,-79,21
1491694820581,1,-22,-11,-25,-60,-13,-91,-51,1
1491694820583,0,18,-9,-91,-32,-53,-14,50,48
1491694820583,0,0,-7,34,60,15,-64,64,-32
1491694820585,1,-12,-4,39,113,4,68,57,-34
1491694820585,1,30,14,82,69,4,44,28,9
1491694820628,2,-42,-6,-78,-115,49,-54,61,-38
1491694820628,2,8,9,-20,-63,-110,-10,15,98
1491694820677,3,-18,-5,-7,105,-4,-82,-128,-61
1491694820677,3,-7,-13,-22,-48,10,20,53,-4
1491694820726,1,30,6,13,15,-89,59,48,-18
1491694820726,1,-5,-3,-18,-125,-10,-36,-36,-8
1491694820731,2,-6,8,-1,45,-120,-24,24,53
1491694820731,2,2,12,5,36,-78,-16,-78,-32
1491694820775,3,15,13,40,19,120,20,0,29
1491694820775,3,9,3,-9,127,115,41,15,-3
1491694820776,0,34,-23,38,-87,-92,-58,-17,-12
1491694820776,0,-7,22,23,-11,-128,-40,18,1
1491694820776,1,-36,-2,-31,52,127,47,18,13
1491694820776,1,22,-8,-43,5,36,23,-9,1
1491694820777,2,-19,57,-31,-89,43,-27,-21,16
1491694820777,2,-31,-32,46,-104,-68,-73,-6,-11
1491694820826,3,-22,-30,34,44,-7,-4,-15,20
1491694820826,3,15,-20,10,13,32,41,24,-21
1491694820829,0,37,17,-12,23,41,-12,-14,-16
1491694820829,0,-83,-7,-8,-27,-12,-34,12,-4
1491694820833,0,-12,-39,-15,-78,-76,-33,2,-13
1491694820833,0,20,20,4,51,105,7,35,13
1491694820834,1,-32,12,-20,-46,-76,-36,-92,-15
1491694820834,1,-1,-5,2,-13,-23,-11,13,12
1491694820872,2,15,-3,45,84,99,78,1,-34
1491694820872,2,-6,-17,10,-6,43,-18,-33,-2
1491694820873,3,-2,0,-41,-61,-90,-29,12,23
1491694820873,3,-2,-1,4,-1,10,5,8,-4
1491694820874,1,-2,1,22,-17,-29,-56,-7,1
1491694820874,1,-1,-18,-24,4,-27,34,-3,10
1491694820875,2,-3,-2,10,66,114,77,60,15
1491694820875,2,14,-11,10,-42,-114,-80,-41,-39
1491694820921,3,-18,-5,31,29,89,-1,-17,-22
1491694820921,3,-15,-12,-19,-100,-92,-5,-8,28
1491694820922,0,4,12,-79,-66,-69,-106,-46,-30
1491694820922,0,13,-2,36,79,42,14,20,-1
1491694820923,2,-20,-27,-14,-3,19,68,38,11
1491694820923,2,14,-18,52,-21,-24,-7,-21,85
1491694820924,3,-20,3,10,-36,-92,-113,-72,-67
1491694820924,3,-4,1,-47,1,-18,100,40,-26
1491694820970,0,3,9,23,14,43,74,52,16
1491694820970,0,-1,13,-79,-41,-60,13,22,-12
1491694820971,1,-11,21,33,10,-4,63,8,-26
1491694820971,1,12,-8,48,5,5,45,8,-22
1491694820972,3,2,7,-1,-20,7,-23,-32,-12
1491694820972,3,9,-21,6,15,3,16,8,33
1491694820972,0,0,26,46,30,20,28,7,-21
1491694820972,0,-4,0,-98,-14,67,-3,28,34
1491694821018,1,17,33,17,25,-128,111,-23,34
1491694821018,1,-18,39,-15,9,26,-118,-11,8
1491694821020,2,6,1,-57,-82,-15,94,23,-28
1491694821020,2,4,54,101,-39,-111,-25,-114,-53
1491694821020,0,-2,-1,-3,-50,-9,-6,-42,-31
1491694821020,0,-11,-24,-36,-2,-30,-15,38,-30
1491694821021,1,9,-28,13,-2,71,-33,24,42
1491694821021,1,-18,10,-20,-6,-10,62,-2,-40
1491694821067,2,22,25,-16,-14,-80,-77,-19,-2
1491694821067,2,-16,-14,-4,-10,52,127,22,18
1491694821068,3,-4,-18,-9,-28,-79,-16,-28,23
1491694821068,3,-38,-21,6,24,76,5,17,2
1491694821068,0,85,43,39,58,86,4,-57,-92
1491694821068,0,-94,19,2,-94,-103,-24,73,-3
1491694821070,1,36,9,-12,-14,50,23,34,26
1491694821070,1,31,-1,-6,-30,-75,52,-34,8
1491694821116,2,52,-81,1,63,43,-56,-65,44
1491694821116,2,-56,-35,29,96,38,63,-24,-9
1491694821165,3,0,21,-30,-110,-97,-36,-51,-110
1491694821165,3,-36,-11,-23,-60,90,-17,36,-8
1491694821214,1,-61,-8,21,-3,-21,7,83,6
1491694821214,1,127,34,24,67,64,-13,-46,20
1491694821215,2,-128,31,6,-81,-55,67,96,16
1491694821215,2,78,36,-6,11,49,-75,-69,-20
1491694821263,3,-96,-4,22,80,-86,24,29,-31
1491694821263,3,60,71,-6,-114,-113,42,82,35
1491694821264,0,7,36,-6,39,18,2,-20,17
1491694821264,0,-53,-51,3,47,49,33,-42,1
1491694821265,2,-51,28,-7,-20,19,49,17,6
1491694821265,2,72,12,7,-48,-109,13,53,9
1491694821266,3,-1,-51,24,89,79,79,118,59
1491694821266,3,-33,-35,39,127,112,-128,-128,-4
1491694821311,0,93,13,-22,39,-5,42,-69,-39
1491694821311,0,43,5,26,74,104,60,99,49
1491694821313,1,2,0,54,95,103,26,71,-17
1491694821313,1,-79,-94,36,43,81,-12,-13,1
1491694821314,1,-114,-38,0,-37,73,127,-80,-47
1491694821314,1,125,48,33,63,-78,-35,44,91
1491694821315,2,-35,24,-7,15,73,75,26,-40
1491694821315,2,-75,1,-2,-81,-20,41,31,-10
1491694821360,3,-15,-55,11,92,4,25,-11,0
1491694821360,3,-65,-13,-19,-69,-109,-110,13,13
1491694821360,0,-13,32,-17,-45,-59,49,-25,-93
1491694821360,0,-6,20,-34,-2,-55,29,19,10
1491694821408,2,82,38,1,-48,26,-91,13,6
1491694821408,2,-11,-11,-65,-119,-105,25,-112,-40
1491694821409,3,81,2,4,35,55,59,79,8
1491694821409,3,38,19,3,25,37,-28,45,28
1491694821410,0,-128,-36,53,52,-70,29,-5,38
1491694821410,0,-4,-1,-2,20,45,-76,-51,-89
1491694821411,1,13,22,-51,-105,-77,-31,-73,-1
1491694821411,1,54,4,-12,-22,-9,16,-51,-16
1491694821457,2,-68,17,6,48,69,86,108,54
1491694821457,2,99,-57,4,127,0,93,82,59
1491694821458,3,-62,40,-12,-105,-114,-62,-17,-86
1491694821458,3,-41,7,-30,-93,-128,-13,-12,-78
1491694821459,0,47,14,-5,-17,-41,-23,4,13
1491694821459,0,-1,-87,16,30,1,127,56,46
1491694821460,3,18,127,-11,-43,-123,23,-57,17
1491694821460,3,-61,97,-2,-11,21,-117,12,-28
1491694821506,0,91,92,4,-11,-22,123,40,41
1491694821506,0,7,28,-2,-27,22,-128,-101,31
1491694821508,1,-25,-113,15,31,-37,-56,2,16
1491694821508,1,14,-105,23,52,54,117,-87,-87
1491694821509,0,127,-7,43,79,127,-8,-102,25
1491694821509,0,-82,-35,-34,-22,-47,-73,-35,14
1491694821510,1,-53,-12,35,39,-45,33,17,-74
1491694821510,1,88,9,5,16,-67,78,61,-11
1491694821555,2,32,-42,-52,-65,-73,-33,5,-18
1491694821555,2,16,22,17,71,-16,52,24,0
1491694821556,3,-30,109,10,23,37,115,3,4
1491694821556,3,38,127,29,0,30,9,-82,46
1491694821557,1,59,27,-72,-79,-45,98,53,7
1491694821557,1,-73,81,45,84,25,106,-36,40
1491694821558,2,-53,80,48,63,-45,24,-51,-36
1491694821558,2,16,9,0,-18,127,78,113,25
1491694821603,3,-9,-40,-7,-56,-128,-100,-78,-29
1491694821603,3,120,-32,-22,8,59,76,76,58
1491694821605,0,-7,-41,14,66,16,-128,-72,-20
1491694821605,0,8,2,24,46,45,-84,40,1
1491694821606,2,-47,-22,-8,-8,-109,-67,-1,46
1491694821606,2,-69,33,6,82,66,68,-30,7
1491694821607,3,77,4,-19,41,-61,-4,62,-15
1491694821607,3,-11,-21,27,-40,-35,-128,-21,-22
1491694821652,0,-8,32,19,-4,4,127,19,-23
1491694821652,0,-15,16,11,32,57,65,-51,4
1491694821654,1,-53,-51,-11,-49,-39,84,127,38
1491694821654,1,93,-43,-37,-51,-70,-5,-62,19
1491694821655,3,-77,0,26,81,127,37,-58,0
1491694821655,3,-128,-1,-1,112,127,-46,12,-81
1491694821656,0,127,0,-51,-106,-79,-60,10,19
1491694821656,0,-116,-21,-73,-64,2,9,25,-63
1491694821701,1,127,-5,-9,78,83,-2,18,11
1491694821701,1,5,5,69,75,44,26,-8,7
1491694821708,2,-47,108,27,58,127,-25,-30,-52
1491694821708,2,24,82,1,12,-60,-65,-10,2
1491694821750,0,-65,23,-3,55,9,-43,-73,8
1491694821750,0,31,81,7,25,10,11,-36,26
1491694821752,1,-109,127,51,62,127,118,17,-48
1491694821752,1,101,80,-9,21,-59,-110,20,-39
1491694821753,2,-88,-50,-55,-128,-116,85,-49,-29
1491694821753,2,-125,-44,2,44,15,-2,38,12
1491694821759,3,120,-37,-17,35,55,12,11,38
1491694821759,3,-54,5,53,26,47,42,-65,3
1491694821798,0,75,-6,76,127,127,127,107,-6
1491694821798,0,-28,-28,-53,-103,-128,-128,19,2
1491694821799,1,77,-52,-72,-99,-69,4,-54,-10
1491694821799,1,-44,-23,-20,75,93,37,-21,8
1491694821800,1,121,10,-8,-15,-71,-85,-18,-71
1491694821800,1,-75,15,1,-17,83,38,47,-5
1491694821801,2,-27,-48,-27,-17,-71,-11,-22,-120
1491694821801,2,80,-33,-33,-117,57,-4,0,20
1491694821847,3,-18,1,57,70,1,21,10,15
1491694821847,3,-124,24,-24,-100,-128,-109,-59,-50
1491694821848,0,116,-6,11,29,13,82,122,49
1491694821848,0,-22,15,8,50,-5,-36,-128,-34
1491694821848,2,-32,-9,3,-9,36,-97,-7,35
1491694821848,2,74,20,26,-41,-128,53,32,-14
1491694821849,3,14,-14,4,-3,19,6,-25,49
1491694821849,3,-71,31,15,127,17,-60,-30,-1
1491694821896,0,62,-7,-14,-128,-80,25,-20,5
1491694821896,0,62,-15,-43,-28,0,26,-77,-9
1491694821897,1,-13,3,82,99,83,96,88,55
1491694821897,1,-15,21,7,-97,-65,91,-6,-71
1491694821897,3,-52,-65,-28,-41,72,111,-19,13
1491694821897,3,4,54,70,127,127,15,61,18
1491694821898,0,-91,29,-22,-100,-95,26,45,-71
1491694821898,0,11,-46,-75,-128,-128,-21,-99,-52
1491694821945,1,115,-15,-41,40,102,-80,-19,92
1491694821945,1,-70,21,121,107,11,127,-38,31
1491694821945,2,14,14,2,98,63,-19,97,-65
1491694821945,2,-100,-22,-8,-69,-62,-123,15,25
1491694821946,0,-50,-29,-16,-55,-12,-55,-75,-26
1491694821946,0,-66,1,-10,-37,-62,-15,60,9
1491694821947,1,77,15,-4,2,77,38,19,15
1491694821947,1,89,38,27,12,-72,-52,-101,-36
1491694821993,2,-48,-36,-83,-66,-65,-26,-101,57
1491694821993,2,-2,-9,17,127,127,8,48,43
1491694821995,3,-31,-26,51,49,-79,-81,-126,51
1491694821995,3,113,-2,5,25,127,97,98,22
1491694822001,1,-63,61,20,84,87,2,52,-48
1491694822001,1,101,48,17,-33,119,-76,-22,-34
1491694822002,2,-56,111,26,-17,-59,-8,40,110
1491694822002,2,42,-62,-42,-41,-95,-100,-103,28
1491694822042,3,-57,-10,-28,-92,1,74,41,-5
1491694822042,3,26,-128,43,65,62,10,49,127
1491694822043,0,77,-38,16,43,-59,-60,36,104
1491694822043,0,-95,72,22,4,127,103,-59,63
1491694822044,2,127,22,62,124,127,119,11,-5
1491694822044,2,-102,17,-21,-26,-95,-60,-30,-92
1491694822045,3,-35,51,46,0,10,111,-9,-128
1491694822045,3,15,1,-90,-16,-8,34,59,-50
1491694822091,0,24,-33,39,23,-48,-64,36,-89
1491694822091,0,3,33,12,44,70,127,114,-124
1491694822092,1,23,-20,-17,-62,43,-128,11,-44
1491694822092,1,-91,23,18,-21,-128,12,88,-54
1491694822092,2,12,5,-18,20,127,4,-44,-3
1491694822092,2,16,41,48,31,-48,-19,48,-63
1491694822093,3,75,36,38,-50,-121,79,-42,-33
1491694822093,3,-55,54,-26,27,-29,-73,48,41
1491694822140,0,-35,20,-29,-81,28,37,-20,-7
1491694822140,0,-90,65,62,22,-12,33,30,-11
1491694822141,1,-38,-104,-21,13,3,61,25,34
1491694822141,1,-26,-112,-46,-83,-59,-4,37,-79
1491694822142,3,-128,116,3,35,41,-16,123,15
1491694822142,3,62,-25,13,-84,-102,-98,-128,-53
1491694822148,0,44,-41,-15,-43,80,99,106,66
1491694822148,0,-112,8,100,127,-53,40,12,-24
1491694822189,1,-39,-47,-63,-95,-13,-71,-71,-60
1491694822189,1,65,11,-35,17,61,62,90,30
1491694822190,2,104,-52,69,61,-14,-65,-94,30
1491694822190,2,-86,-18,-34,-124,-105,39,-3,34
1491694822237,0,-93,-31,-33,-48,-128,99,-100,-62
1491694822237,0,116,-18,10,19,127,-64,2,38
1491694822239,1,-104,-16,-70,-1,-128,-83,48,-90
1491694822239,1,-61,-12,11,-47,-37,-2,-100,43
1491694822239,2,104,-16,-3,109,44,33,67,-12
1491694822239,2,-30,-37,-42,-128,-119,-128,32,24
1491694822240,3,41,34,48,76,127,54,-121,20
1491694822240,3,31,81,-14,38,-120,96,-76,-7
1491694822286,1,21,-12,-24,-110,-78,9,113,8
1491694822286,1,-29,-35,22,108,110,27,-17,3
1491694822287,2,-82,75,62,7,80,127,-27,2
1491694822287,2,-48,-12,-72,3,-120,-104,-101,-25
1491694822288,2,35,5,-68,29,100,-45,-39,4
1491694822288,2,-15,-15,38,-38,-102,67,-28,-28
1491694822289,3,-36,-26,-6,-20,41,-89,-10,71
1491694822289,3,123,12,-20,91,11,127,0,1
1491694822335,0,-87,-6,-34,-96,46,18,82,-19
1491694822335,0,66,8,-12,15,-126,38,59,58
1491694822337,1,26,-39,5,60,108,-116,-128,48
1491694822337,1,4,65,-14,-59,-78,118,95,71
1491694822338,3,20,24,10,79,-113,107,-31,-62
1491694822338,3,-53,-21,46,-73,-36,-126,-65,-26
1491694822339,0,-4,1,-33,39,92,102,-39,22
1491694822339,0,34,-11,-48,22,-99,-12,80,-17
1491694822384,1,-108,-25,45,-28,71,-89,68,-21
1491694822384,1,107,-16,-7,-1,71,-15,-48,-24
1491694822385,2,48,14,84,11,-119,-106,123,22
1491694822385,2,-17,-3,-11,73,127,-51,-32,-64
1491694822387,0,97,-31,-37,12,-3,-8,8,-34
1491694822387,0,-31,1,-7,-61,-55,-107,66,0
1491694822388,1,1,-7,-25,35,30,3,-1,-48
1491694822388,1,-31,6,-47,-70,-53,58,-21,8
1491694822433,2,12,-9,13,11,61,16,-98,3
1491694822433,2,7,19,102,27,8,35,29,26
1491694822435,3,-25,12,20,-15,31,-13,59,-53
1491694822435,3,-64,-28,-70,-63,3,-119,29,61
1491694822436,1,-1,1,28,54,93,108,62,71
1491694822436,1,13,-20,-8,27,-59,27,-50,-26
1491694822438,2,-73,-9,41,-66,-33,-104,102,42
1491694822438,2,-17,-14,48,86,91,-30,27,-38
1491694822481,3,51,7,22,-43,-119,-79,-77,20
1491694822481,3,-9,7,-27,25,127,93,120,-11
1491694822482,0,61,19,-9,-42,-48,-85,-102,-12
1491694822482,0,-27,-13,-93,-62,-128,-52,-23,44
1491694822483,1,4,12,34,97,45,55,-3,-10
1491694822483,1,-1,15,103,-12,-94,-90,-9,14
1491694822484,2,12,13,78,73,45,117,97,46
1491694822484,2,10,0,23,32,60,102,30,9
1491694822530,3,-22,-12,-128,-115,-128,-46,-55,-43
1491694822530,3,-21,-7,59,53,127,127,9,-68
1491694822533,0,49,8,9,31,-82,-28,43,81
1491694822533,0,1,-6,-1,-2,-86,-97,-104,-21
1491694822534,2,-72,-4,-35,-106,-34,15,-20,13
1491694822534,2,5,-26,-42,42,-73,-38,26,14
1491694822535,3,22,38,64,12,-10,66,-8,30
1491694822535,3,24,-23,67,74,-70,-55,14,-40
1491694822579,0,1,6,15,-32,127,7,-55,-11
1491694822579,0,-13,11,-51,-78,-109,-31,-49,46
1491694822582,1,15,23,85,-28,-55,30,53,-36
1491694822582,1,3,-54,-59,2,47,-65,-33,44
1491694822583,3,-26,-19,-28,-24,47,-93,-27,-21
1491694822583,3,16,40,-99,-113,-88,-2,3,36
1491694822584,0,6,-78,38,42,-44,-44,-47,25
1491694822584,0,-13,-78,-67,56,112,28,31,-13
1491694822627,1,2,-6,92,127,18,111,66,-44
1491694822627,1,1,88,-34,-113,-31,-15,1,-43
1491694822629,2,-47,107,-128,-59,-77,-93,-101,23
1491694822629,2,38,39,77,88,48,106,60,19
1491694822631,0,-36,-21,8,-67,-52,1,56,-27
1491694822631,0,57,10,-5,-96,0,-28,-34,-22
1491694822633,1,-11,-9,-41,-62,-58,-50,-12,-1
1491694822633,1,2,28,41,37,-11,21,-2,21
1491694822676,2,8,4,-13,53,-9,14,4,-9
1491694822676,2,-30,-6,-22,-81,-4,-52,-10,11
1491694822677,3,18,8,-11,-23,-77,-54,-74,27
1491694822677,3,-22,-1,6,8,-102,-19,-2,-14
1491694822725,1,-11,0,-77,48,-36,11,-56,5
1491694822725,1,10,2,17,-35,81,14,-73,18
1491694822726,2,-16,1,98,21,88,53,-8,-9
1491694822726,2,-9,15,105,82,127,87,-10,4
1491694822726,3,0,-5,39,-89,64,-54,-21,-29
1491694822726,3,-36,-7,-40,41,127,-42,-23,6
1491694822727,0,78,-6,-8,-38,127,-83,-2,27
1491694822727,0,35,9,-62,-22,104,-64,-55,38
1491694822773,2,15,3,-35,-12,-108,61,-25,16
1491694822773,2,11,3,15,-15,-128,-52,7,3
1491694822774,3,43,-2,34,-8,-128,50,-29,16
1491694822774,3,17,2,1,-10,-115,62,-1,-22
1491694822775,3,32,-8,-13,-29,-67,-55,16,-5
1491694822775,3,-10,0,-5,24,-46,-35,-3,5
1491694822776,0,11,-2,13,-6,-11,13,34,7
1491694822776,0,-3,1,23,-14,-34,-11,-28,12
1491694822822,1,-10,3,-3,-3,-22,-69,8,9
1491694822822,1,35,-5,20,-4,14,-25,5,-5
1491694822823,2,-47,-4,-7,35,20,12,28,-3
1491694822823,2,-20,-3,-7,-4,11,4,-35,7
1491694822823,3,14,-4,-12,-25,-2,-5,18,-8
1491694822823,3,5,-4,42,26,15,6,13,2
1491694822824,0,-14,-1,-8,3,12,-35,4,-2
1491694822824,0,-26,-1,-3,6,9,25,-1,-1
1491694822871,1,-8,2,-19,6,0,-4,8,2
1491694822871,1,-11,2,-10,9,18,-35,-3,-24
1491694822871,2,30,-6,-10,-40,-8,9,7,7
1491694822871,2,25,1,7,-1,-4,10,-17,-13
1491694822872,0,-24,0,8,18,17,12,1,-9
1491694822872,0,-14,1,-14,-32,-10,14,10,3
1491694822873,1,16,-4,10,15,14,-3,5,-6
1491694822873,1,-50,-1,-2,23,19,-11,-17,-1
1491694822920,2,8,-1,17,29,11,35,29,4
1491694822920,2,-16,-1,2,0,18,-15,3,-5
1491694822921,3,-27,-6,-20,4,21,11,-4,-7
1491694822921,3,22,-6,13,16,24,12,17,9
1491694822922,1,-24,-3,-4,-8,-20,10,21,8
1491694822922,1,49,-6,-16,22,23,4,-8,4
1491694822923,2,-30,-1,18,-5,17,-5,5,-17
1491694822923,2,54,1,1,-3,7,2,-21,-32
1491694822969,3,-2,-2,6,-12,-15,-7,-8,-8
1491694822969,3,7,4,-6,-15,-20,-32,4,4
1491694822970,0,45,-1,-13,12,15,24,9,7
1491694822970,0,16,-1,10,9,24,8,-7,23
1491694822971,2,17,3,-3,-3,1,16,4,-4
1491694822971,2,-8,2,5,-2,7,-23,-4,7
1491694822972,3,91,5,-18,-4,7,1,-6,13
1491694822972,3,-18,-1,22,21,60,18,20,-9
1491694823017,0,-31,14,-10,-18,-35,-36,-64,-21
1491694823017,0,20,15,-1,2,-36,8,33,24
1491694823019,1,-24,13,6,-12,2,0,46,12
1491694823019,1,-35,-14,23,-3,-24,-38,-34,-5
1491694823020,3,-60,-6,1,-14,-8,-8,-12,8
1491694823020,3,18,-4,-11,-4,-29,-3,18,1
1491694823023,0,-54,-7,-16,0,0,-3,-2,6
1491694823023,0,32,-12,4,-43,-55,38,1,-2
1491694823066,1,17,9,-8,-16,-19,-71,-23,-12
1491694823066,1,23,-15,5,2,27,45,3,-6
1491694823067,2,-29,-8,-9,27,59,-18,3,9
1491694823067,2,-17,-29,20,46,72,103,-17,-11
1491694823068,0,101,17,-29,-44,-8,53,26,-11
1491694823068,0,-46,8,-5,-62,-74,-16,-9,-14
1491694823069,1,12,-1,23,64,51,4,-8,-18
1491694823069,1,-1,-10,10,33,-1,59,11,6
1491694823115,2,-1,24,-4,-41,-63,-92,20,18
1491694823115,2,40,12,-21,26,-8,15,-34,12
1491694823116,3,-15,-19,0,-24,44,-43,-41,24
1491694823116,3,-25,51,-10,-6,4,-5,-32,-31
1491694823117,1,-24,-2,-45,-101,-117,-103,-76,-28
1491694823117,1,17,20,-18,41,-36,29,38,38
1491694823117,2,10,14,15,-3,78,64,-83,0
1491694823117,2,49,25,22,58,19,-11,50,43
1491694823164,3,17,-73,3,107,115,41,-33,-51
1491694823164,3,-12,49,11,-128,-87,-95,-32,7
1491694823165,0,-96,14,-41,-48,-72,14,15,0
1491694823165,0,14,-6,-15,81,48,-16,5,-14
1491694823217,1,-53,11,32,-21,14,-2,-58,7
1491694823217,1,48,-47,-3,45,21,44,21,-22
1491694823218,2,-3,10,25,-16,77,-15,-85,-21
1491694823218,2,28,49,-11,-54,-37,31,75,18
1491694823220,3,50,-21,25,76,12,127,-30,33
1491694823220,3,-17,-4,18,66,126,-5,25,-10
1491694823221,0,-69,-37,-26,-78,-117,-72,-93,-69
1491694823221,0,-1,22,-42,-56,-87,76,43,-26
1491694823261,2,24,-15,40,39,127,16,-17,-16
1491694823261,2,-111,38,-18,13,-13,-40,-75,3
1491694823262,3,31,41,-28,-30,-80,-51,-3,-9
1491694823262,3,-31,-34,19,-51,14,40,68,52
1491694823263,3,70,-64,-24,-16,-32,-4,20,-31
1491694823263,3,56,82,25,5,-72,34,-5,-18
1491694823264,0,-76,12,22,-1,75,-76,24,5
1491694823264,0,-18,-35,1,65,121,75,-56,-8
1491694823310,1,-43,5,48,-1,-56,-62,31,1
1491694823310,1,23,-9,-66,-91,-48,-12,-21,-23
1491694823311,2,36,40,-15,26,-128,-95,-3,51
1491694823311,2,56,-8,3,5,127,-17,-128,-16
1491694823312,0,-58,-21,-20,-36,18,66,50,-37
1491694823312,0,-34,-12,42,-25,-128,-96,8,2
1491694823313,1,34,65,-27,-53,100,35,5,-18
1491694823313,1,-74,6,-4,45,-55,-54,46,48
1491694823358,2,55,-81,-36,0,93,63,-5,-39
1491694823358,2,-42,-99,14,2,45,-128,-77,32
1491694823359,3,-28,17,-12,1,-97,49,-7,-61
1491694823359,3,38,36,-2,-31,28,105,29,29
1491694823360,1,90,25,13,-68,-87,-13,-8,28
1491694823360,1,-79,52,-25,32,55,0,-35,-15
1491694823361,2,-35,8,-12,48,-44,59,43,-1
1491694823361,2,-34,126,4,-78,26,-76,-57,-3
1491694823407,3,-5,-85,19,6,73,27,21,-6
1491694823407,3,-17,-128,-42,55,-47,-88,-115,-12
1491694823408,0,46,-48,0,-45,-24,87,57,42
1491694823408,0,27,35,-51,15,5,22,71,-4
1491694823409,2,26,21,68,8,-41,32,-44,41
1491694823409,2,-35,5,37,9,42,96,55,-9
1491694823411,3,-64,15,54,71,-27,84,-26,-3
1491694823411,3,-3,-22,-18,80,127,38,15,-7
1491694823456,0,-36,4,-44,-20,-110,-122,22,33
1491694823456,0,33,-22,-40,-128,-128,-46,53,-12
1491694823458,1,64,-21,-15,44,93,-30,-45,26
1491694823458,1,-47,1,16,97,127,9,-35,0
1491694823458,3,-89,-28,6,-26,-94,-11,27,-3
1491694823458,3,127,3,20,-33,46,-66,30,86
1491694823459,0,-99,13,-13,5,40,65,-103,20
1491694823459,0,106,-17,21,67,65,-17,63,-16
1491694823508,1,-99,16,-25,-7,-5,67,-5,-29
1491694823508,1,15,8,-28,-49,-126,-113,6,-20
1491694823512,2,9,-29,-53,-64,80,-67,-9,-11
1491694823512,2,51,-5,-41,-16,-128,-86,7,28
1491694823512,3,-8,29,25,-5,25,99,-59,2
1491694823512,3,-34,22,92,43,92,116,10,8
1491694823513,0,-1,-25,25,28,76,-8,-44,-6
1491694823513,0,113,0,-40,-24,3,78,41,4
1491694823553,1,114,0,-36,-36,-102,-57,26,-8
1491694823553,1,13,1,13,9,-55,-98,-84,11
1491694823554,2,-16,4,-31,-13,62,-67,-11,-35
1491694823554,2,-39,-18,4,-78,-45,55,22,42
1491694823555,0,16,15,17,82,46,84,43,-6
1491694823555,0,-55,-8,4,36,117,6,-20,-38
1491694823556,1,-70,-3,-29,-68,-118,-74,-4,-41
1491694823556,1,33,-22,7,1,35,41,37,-18
1491694823602,2,-54,18,-5,16,-81,31,65,1
1491694823602,2,-27,-1,32,3,70,28,-13,-11
1491694823603,3,-45,16,-8,32,-16,-51,-20,-49
1491694823603,3,-68,-8,-17,-40,-19,39,33,-67
1491694823606,1,-102,-9,15,16,121,3,68,12
1491694823606,1,56,19,-20,9,-86,31,-41,-26
1491694823609,2,44,16,24,50,100,62,78,2
1491694823609,2,-128,7,-2,1,-4,-102,-71,9
1491694823651,3,66,-42,-15,-6,-75,25,0,-8
1491694823651,3,9,-7,-28,-77,-75,-79,-77,5
1491694823652,0,-77,5,32,32,64,101,72,-19
1491694823652,0,36,23,15,12,25,53,-63,-2
1491694823700,2,95,4,-32,-97,-128,41,-34,48
1491694823700,2,32,-22,4,14,97,-53,6,32
1491694823700,3,-32,42,76,73,108,127,-15,60
1491694823700,3,27,15,21,32,80,103,-8,-65
1491694823701,0,-9,25,-21,-25,-72,-128,38,31
1491694823701,0,-6,-13,-22,-15,-63,10,-26,-15
1491694823702,1,-22,-27,-50,-3,-40,51,-42,-31
1491694823702,1,-41,27,69,-51,40,71,115,74
1491694823748,3,-115,-8,-21,-116,23,3,-36,-104
1491694823748,3,-50,-8,-40,-52,-112,-37,93,22
1491694823749,0,101,-11,13,19,65,127,24,39
1491694823749,0,-72,0,14,90,-32,19,27,-17
1491694823750,0,-24,-6,51,102,-115,10,23,29
1491694823750,0,36,25,-22,-9,127,127,84,19
1491694823751,1,-67,-9,62,64,-128,-63,-65,-30
1491694823751,1,127,-35,-99,-64,-82,58,50,-25
1491694823797,2,-25,10,1,-47,-14,40,-47,-7
1491694823797,2,-99,24,73,82,75,127,58,-5
1491694823798,3,-18,-12,-17,-92,-82,-41,125,18
1491694823798,3,-37,4,-11,66,41,118,1,15
1491694823798,1,49,17,-18,59,118,77,-15,-30
1491694823798,1,-128,-38,-9,-51,-73,-115,44,8
1491694823800,2,116,12,54,59,80,127,11,54
1491694823800,2,-88,-17,-43,62,76,-22,-92,-110
1491694823846,3,5,-28,-75,-108,-74,-84,19,-17
1491694823846,3,-29,5,72,127,-24,89,42,66
1491694823847,0,-70,3,-32,49,42,40,127,-23
1491694823847,0,-17,6,44,-16,-11,13,35,-35
1491694823848,2,-101,-12,24,-62,26,-119,-82,26
1491694823848,2,-87,-8,-17,-40,-107,-26,21,-2
1491694823849,3,80,-46,3,18,127,36,39,62
1491694823849,3,0,37,-1,-88,-81,28,-53,53
1491694823895,0,-48,10,-35,92,108,-44,-31,-49
1491694823895,0,31,18,-18,-30,-128,102,7,-25
1491694823896,1,80,11,-14,-128,-100,-116,-123,-4
1491694823896,1,65,-12,-20,127,127,72,-43,57
1491694823897,2,-62,24,71,-9,-14,-14,127,76
1491694823897,2,-100,-36,-70,-115,-23,-52,-78,-19
1491694823899,3,75,-44,-52,76,11,-79,8,16
1491694823899,3,-128,22,25,-123,-46,50,-34,-35
1491694823944,0,93,10,-64,61,57,-32,-48,-24
1491694823944,0,12,13,91,87,63,42,24,44
1491694823945,1,-60,48,-24,-27,4,127,115,-61
1491694823945,1,-50,-48,-64,-39,-44,-128,-101,-105
1491694823946,3,-90,-54,-10,-7,-60,-26,-45,-44
1491694823946,3,12,10,24,63,15,-124,5,24
1491694823947,0,-112,24,-68,-42,-57,33,-6,-69
1491694823947,0,52,21,44,20,-60,-81,87,25
1491694823992,1,-70,60,-34,-35,127,127,-4,-35
1491694823992,1,-38,4,34,58,-59,-79,-75,-49
1491694823993,2,-49,-36,-52,-128,-116,-49,22,-4
1491694823993,2,107,-3,-33,46,127,117,70,13
1491694823994,0,-47,-10,-84,-80,67,-2,87,-36
1491694823994,0,46,-23,-24,0,-128,-69,-121,-56
1491694823995,1,-48,0,18,-110,-1,36,-57,14
1491694823995,1,11,13,6,127,127,-62,79,45
1491694824041,2,25,3,9,-106,-128,20,-89,-21
1491694824041,2,-97,-23,-25,-64,83,80,75,7
1491694824042,3,19,30,47,76,122,127,68,87
1491694824042,3,-46,-2,10,-12,-46,-82,-69,-122
1491694824043,1,-56,52,52,-26,-96,115,84,4
1491694824043,1,64,2,30,48,127,-10,118,63
1491694824044,2,-11,-54,15,70,-62,-81,-26,-61
1491694824044,2,-15,-32,-93,-121,-100,-57,-128,-63
1491694824090,3,93,53,29,88,127,44,51,68
1491694824090,3,80,12,-12,-60,-128,-26,-59,21
1491694824092,0,-30,10,-12,57,-31,-36,93,-47
1491694824092,0,-40,-8,79,-23,104,-96,-85,29
1491694824093,2,10,-16,9,60,29,-69,-102,-36
1491694824093,2,54,18,36,6,-116,66,94,11
1491694824094,3,1,-18,-90,-10,104,-51,-54,21
1491694824094,3,-99,4,65,-55,-88,127,127,88
1491694824138,0,39,-7,-19,2,-29,-80,-25,-99
1491694824138,0,-95,14,-20,21,44,110,57,-29
1491694824140,1,-29,-20,25,-9,-122,-82,-80,14
1491694824140,1,116,-1,-55,0,127,57,56,32
1491694824187,3,-32,11,-9,40,76,118,121,-50
1491694824187,3,-37,-1,45,38,-38,-19,-54,-43
1491694824189,0,0,4,71,-83,-17,22,4,40
1491694824189,0,21,-15,4,-8,-52,-84,-58,45
1491694824190,1,-101,6,6,71,60,57,51,-35
1491694824190,1,54,-33,-93,-103,-70,23,-120,-32
1491694824191,2,70,11,78,108,-35,-18,125,85
1491694824191,2,-43,33,32,77,90,117,91,-23
1491694824236,0,-22,3,-47,28,121,68,-84,-60
1491694824236,0,-68,-2,-31,-22,-125,34,77,70
1491694824238,1,52,-13,-7,-29,-89,-118,-37,-31
1491694824238,1,-35,15,40,74,127,127,51,-53
1491694824239,0,127,-3,-1,13,-40,-18,-9,56
1491694824239,0,-72,6,-50,13,-49,109,19,-75
1491694824240,1,75,-7,81,-20,71,-101,88,70
1491694824240,1,-79,-20,-1,7,-99,-56,-102,-17
1491694824285,2,9,14,-42,-25,-11,127,44,-11
1491694824285,2,-20,-2,30,10,12,-128,-24,-36
1491694824286,3,-14,-14,-96,-42,-78,-7,56,31
1491694824286,3,70,30,123,103,127,35,-10,16
1491694824288,1,112,1,21,46,82,-53,28,93
1491694824288,1,-26,-9,32,18,-86,-18,26,-1
1491694824289,2,-51,1,7,99,122,127,-86,-37
1491694824289,2,91,-17,-75,-86,-46,-74,-32,-52
1491694824333,3,-57,-9,-19,-14,-59,-1,20,70
1491694824333,3,5,-10,-19,30,26,60,10,92
1491694824335,0,26,4,87,36,-10,-31,52,-58
1491694824335,0,-74,-16,-9,-78,-68,24,-6,-62
1491694824337,2,18,27,-23,-7,-68,-68,-62,-10
1491694824337,2,2,16,31,19,112,103,58,22
1491694824338,3,-6,-4,0,-116,-128,16,17,-17
1491694824338,3,20,13,-86,-68,112,-17,-83,-47
1491694824382,0,-43,8,127,118,98,126,-17,-1
1491694824382,0,26,-29,-68,-16,50,-99,79,-3
1491694824383,1,-55,-8,-93,-88,-96,-52,-47,-8
1491694824383,1,27,4,35,82,3,-14,23,8
1491694824384,3,-19,-20,24,95,80,127,127,-37
1491694824384,3,25,7,-69,-57,5,54,36,-1
1491694824385,0,-17,-17,-82,-36,89,39,36,2
1491694824385,0,2,7,63,127,8,-8,3,73
1491694824431,1,0,14,68,29,-64,-60,-65,-42
1491694824431,1,15,0,-5,-69,-54,-51,4,-51
1491694824432,2,-34,-29,-11,97,94,4,-20,-56
1491694824432,2,38,2,26,9,-72,-7,10,101
1491694824435,0,29,0,14,-27,41,43,49,-29
1491694824435,0,-35,58,30,69,-61,-17,-38,11
1491694824435,1,-14,-79,50,36,110,32,52,-24
1491694824435,1,35,-2,1,6,-27,-15,-9,-7
1491694824480,2,-6,-16,-36,-40,5,-20,-31,14
1491694824480,2,30,-25,28,42,17,-15,1,-10
1491694824481,3,-3,-38,43,15,31,28,-7,-21
1491694824481,3,16,-29,2,-58,-13,71,43,-25
1491694824482,1,-31,108,-23,34,110,-15,-40,2
1491694824482,1,45,43,-35,-95,-116,-45,-17,14
1491694824483,2,-13,18,-10,-64,-44,-21,5,21
1491694824483,2,24,-57,-20,29,100,-36,-13,22
1491694824528,3,2,-10,-4,39,86,107,33,-15
1491694824528,3,7,-29,55,66,39,87,29,-34
1491694824529,0,3,7,9,26,37,-12,-37,1
1491694824529,0,-51,-25,-64,-128,-75,-117,-14,-2
1491694824530,2,-13,6,53,70,23,30,-13,-22
1491694824530,2,3,1,25,45,127,45,34,11
1491694824531,3,-6,4,-9,-94,-117,0,-27,6
1491694824531,3,-21,-4,-58,-38,-101,-56,-18,-3
1491694824577,0,10,22,-30,23,-21,-25,-4,6
1491694824577,0,30,-8,31,38,52,35,10,8
1491694824578,1,-24,0,1,-5,12,33,10,-7
1491694824578,1,42,2,16,1,-8,-30,-21,13
1491694824579,2,3,12,2,-10,-51,-19,-30,-2
1491694824579,2,-6,-5,-35,-41,-1,-5,27,7
1491694824580,3,56,3,-17,-26,-5,4,-11,-6
1491694824580,3,-73,4,6,47,57,29,2,-8
1491694824626,0,-6,1,44,-14,-58,7,-7,7
1491694824626,0,48,-2,-43,-6,-5,6,12,7
1491694824627,1,7,-3,8,34,17,-15,-1,-7
1491694824627,1,-13,-1,-8,24,19,-16,7,-15
1491694824675,3,19,14,-3,41,49,44,17,1
1491694824675,3,18,-7,0,16,-24,-88,-39,7
1491694824676,0,-18,6,0,-34,-28,39,-1,-13
1491694824676,0,-24,-6,-24,14,32,29,1,-3
1491694824676,1,2,3,1,17,-4,-21,-22,5
1491694824676,1,-15,-2,29,62,11,43,38,1
1491694824677,2,34,0,-14,-27,-16,-19,-4,4
1491694824677,2,-16,-9,-8,-11,7,-12,-10,4
1491694824724,0,-6,2,5,1,25,3,2,-16
1491694824724,0,43,-6,-21,-20,-24,-11,-16,19
1491694824725,1,21,-1,8,9,-23,-38,-10,5
1491694824725,1,18,4,4,-13,6,26,16,-4
1491694824727,1,18,2,3,19,26,-3,3,16
1491694824727,1,-12,0,2,-5,3,10,-7,-10
1491694824727,2,-13,-1,-16,-31,-51,-6,3,4
1491694824727,2,-40,-6,-1,1,23,15,-1,-15
1491694824772,3,13,-1,15,4,-9,4,-12,4
1491694824772,3,-43,-2,6,8,-2,-33,-3,-14
1491694824773,0,15,2,-2,-63,0,1,-2,19
1491694824773,0,-14,3,8,1,-34,-21,-7,-4
1491694824774,2,25,0,-1,7,13,-6,-5,11
1491694824774,2,-6,-1,1,-2,8,12,6,4
1491694824775,3,38,1,-4,1,3,4,4,12
1491694824775,3,-18,32,2,-16,-16,8,-2,-13
1491694824870,0,-8,11,-24,11,-11,-18,29,3
1491694824870,0,25,-37,15,1,7,35,7,-3
1491694824870,1,-37,-27,-1,11,14,3,-20,-26
1491694824870,1,44,-12,-17,-16,-5,-79,-13,-9
1491694824871,3,39,-7,-14,-40,-63,-28,-13,12
1491694824871,3,-8,-18,-27,-14,17,48,12,18
1491694824872,0,27,-20,-4,-2,2,-36,-22,-18
1491694824872,0,-15,-1,21,26,27,20,15,-8
1491694824918,1,-1,-27,10,34,53,36,5,5
1491694824918,1,-8,13,5,3,28,-32,-18,-4
1491694824919,2,63,13,-26,-92,-118,-2,16,24
1491694824919,2,3,8,-7,9,10,1,-25,5
1491694824919,0,53,26,13,4,-62,27,-46,-23
1491694824919,0,-47,-36,9,52,76,53,62,1
1491694824921,1,87,17,44,78,0,-8,53,2
1491694824921,1,-5,-34,-27,-118,-92,111,-21,-15
1491694824967,2,70,55,-65,20,-71,35,11,80
1491694824967,2,-22,-1,19,58,76,14,-114,7
1491694824968,3,-38,3,20,-55,-128,-96,75,-24
1491694824968,3,-15,11,7,17,127,99,-36,-27
1491694824969,1,-9,-4,-18,-62,-85,-41,-5,21
1491694824969,1,76,4,0,-2,45,4,27,-3
1491694824969,2,-127,-10,-1,41,83,-25,-28,-18
1491694824969,2,123,8,-4,-18,6,5,22,5
1491694825016,3,-62,23,-37,-40,-76,-14,-8,4
1491694825016,3,-5,-39,-19,-49,-115,-9,-17,-12
1491694825017,0,39,-21,3,48,55,90,37,-16
1491694825017,0,-35,-7,23,30,-29,-100,-65,-76
1491694825017,2,-37,-29,6,58,13,-43,-14,-43
1491694825017,2,-124,-18,-66,-128,-116,-33,18,-16
1491694825019,3,127,-39,-4,64,97,39,-127,0
1491694825019,3,9,67,104,116,87,-19,93,84
1491694825065,0,-13,30,25,26,41,127,-42,-71
1491694825065,0,-17,9,-47,-96,-89,-94,-29,-42
1491694825066,1,-34,-4,-65,-111,-122,-128,-98,11
1491694825066,1,-123,-33,-35,72,110,80,10,-35
1491694825066,3,-114,17,-11,-57,-19,39,-91,-58
1491694825066,3,126,8,-23,-41,-47,-128,15,66
1491694825067,0,-25,-6,-22,40,34,-27,-26,20
1491694825067,0,11,19,-10,-4,-20,-7,-21,-3
1491694825113,1,-83,6,40,24,-2,16,-26,-66
1491694825113,1,25,-58,-61,-84,-53,-12,9,-41
1491694825114,2,-94,14,-22,-46,-57,-21,5,29
1491694825114,2,56,21,-1,51,32,-8,44,102
1491694825162,0,70,-45,-4,-110,-104,103,12,-15
1491694825162,0,-13,-41,-59,-5,68,-17,-86,-40
1491694825211,1,-57,76,-46,-95,-95,-128,47,26
1491694825211,1,100,-61,11,-15,13,102,29,28
1491694825260,2,-47,89,-6,55,80,-128,-52,22
1491694825260,2,3,32,35,-61,-128,-27,10,-52
1491694825261,3,-11,-31,-37,-56,-32,69,5,13
1491694825261,3,53,-30,16,108,58,23,17,15
1491694825261,1,49,17,-38,-49,-34,-121,-5,-19
1491694825261,1,-28,63,-64,-67,-128,-63,55,39
1491694825262,2,110,26,44,31,59,68,31,59
1491694825262,2,0,14,17,67,102,41,34,1
1491694825308,2,-20,-63,-50,-31,92,19,97,16
1491694825308,2,-39,100,7,7,-112,-76,-77,-6
1491694825309,2,88,2,8,10,-128,-50,-96,-27
1491694825309,2,-128,-18,17,76,127,-22,51,-14
1491694825310,3,1,-1,16,12,-31,47,-7,20
1491694825310,3,-2,0,19,66,-20,-49,-16,11
1491694825311,0,-51,12,-29,-38,85,-6,-64,-1
1491694825311,0,45,-26,69,55,6,-25,-49,0
1491694825357,1,-31,-29,-17,41,9,-14,51,43
1491694825357,1,-97,-6,-30,10,36,23,11,-24
1491694825358,2,48,-5,-14,-104,-128,-33,17,-14
1491694825358,2,26,3,-40,-18,102,11,-74,43
1491694825359,0,15,5,19,8,99,-18,-18,-8
1491694825359,0,-61,-5,-18,-109,-128,20,48,19
1491694825360,1,75,8,18,35,29,80,6,8
1491694825360,1,-66,5,7,74,127,-9,12,2
1491694825406,2,-44,9,7,10,9,41,-11,-64
1491694825406,2,-17,10,47,-10,-80,13,24,-31
1491694825408,3,19,0,-2,5,82,-81,-6,-13
1491694825408,3,-51,-1,-21,-21,-122,42,17,2
1491694825409,1,88,-20,-5,-43,-84,-66,54,-27
1491694825409,1,-76,-10,-33,-78,63,-31,-55,53
1491694825410,2,52,1,13,39,-79,-16,-3,25
1491694825410,2,-9,-2,-10,13,42,72,12,44
1491694825455,3,-11,5,38,50,120,-20,12,45
1491694825455,3,69,1,-11,53,94,17,-97,-1
1491694825458,0,-59,-4,20,-7,-42,-112,66,-9
1491694825458,0,76,0,-33,-79,-17,84,66,-40
1491694825460,2,-54,-5,27,106,42,12,15,-5
1491694825460,2,8,16,12,45,-33,35,-28,-23
1491694825461,3,28,-3,14,-18,123,11,85,14
1491694825461,3,-10,-8,-17,-51,-112,-48,14,15
1491694825503,0,35,-7,-57,-78,-54,-40,-101,25
1491694825503,0,-41,-2,-12,60,93,-44,-24,-11
1491694825505,1,74,13,21,-1,106,122,3,18
1491694825505,1,94,7,18,79,100,78,-27,-29
1491694825508,3,40,-20,-45,-78,-20,105,-27,48
1491694825508,3,-54,-2,7,69,67,91,74,-33
1491694825509,0,-113,7,31,53,-128,-30,0,-13
1491694825509,0,43,5,26,94,127,24,114,36
1491694825552,1,-54,-4,-18,1,-27,12,-123,-102
1491694825552,1,-64,-3,27,-103,-50,37,24,-59
1491694825556,2,48,-2,10,58,21,93,63,34
1491694825556,2,-77,8,13,-81,120,4,-6,-35
1491694825557,0,-51,-2,-6,-1,127,-19,-34,-47
1491694825557,0,70,-10,22,108,-58,-43,16,-1
1491694825559,1,-120,24,5,-107,-78,93,29,-60
1491694825559,1,-22,-12,-39,69,97,-16,73,20
1491694825602,2,127,8,26,59,10,108,32,95
1491694825602,2,66,0,64,58,-27,-75,-46,-16
1491694825603,3,-50,10,-1,86,89,88,83,-4
1491694825603,3,-96,-11,-14,-54,-115,-128,-97,-72
1491694825650,1,-75,-10,26,65,-80,-128,-112,18
1491694825650,1,82,13,54,70,85,48,35,54
1491694825651,2,-13,-5,-52,44,70,55,-48,-73
1491694825651,2,-128,17,0,-118,-69,-6,-48,13
1491694825652,3,127,-38,-71,-92,30,-128,-49,-31
1491694825652,3,-109,0,40,56,-88,94,1,93
1491694825653,0,58,9,-11,35,21,100,-24,-41
1491694825653,0,29,-5,66,127,67,-64,-3,26
1491694825698,1,-72,0,-22,-75,-22,-27,-50,-36
1491694825698,1,35,-2,-37,52,84,29,-3,-33
1491694825700,2,-30,-5,24,65,70,-47,-99,92
1491694825700,2,53,-6,8,-57,-82,-13,88,-55
1491694825701,2,45,19,50,-62,-31,-10,-73,12
1491694825701,2,-47,-8,-50,24,-46,23,101,81
1491694825704,3,-41,-13,-29,35,-55,-28,-52,-69
1491694825704,3,77,0,78,-21,-18,33,9,26
1491694825747,0,-2,-9,12,-1,37,-124,-54,70
1491694825747,0,-35,12,-88,14,52,92,-3,-59
1491694825754,1,127,4,8,-98,-29,40,122,55
1491694825754,1,-30,-18,21,65,-107,-128,-128,-53
1491694825755,3,93,-14,0,43,-7,-96,-110,5
1491694825755,3,-96,51,-29,-128,-121,59,51,-63
1491694825756,0,127,24,21,34,56,-40,-44,27
1491694825756,0,-82,13,-17,49,-63,-65,-17,-44
1491694825796,1,-85,8,22,1,127,127,83,-59
1491694825796,1,24,-27,6,-18,-108,-125,-65,-52
1491694825797,2,32,-18,-34,-86,-63,100,90,19
1491694825797,2,12,-4,2,43,112,56,-108,20
1491694825798,0,-122,-40,-11,73,11,-109,-16,-14
1491694825798,0,107,22,-42,-119,-127,5,-125,-33
1491694825800,1,-36,32,87,99,92,116,80,30
1491694825800,1,-47,32,-60,2,32,119,85,6
1491694825844,2,107,6,10,-77,47,97,4,-44
1491694825844,2,-32,-24,-12,31,-38,-101,-46,-11
1491694825846,3,-58,-4,-29,-42,-21,84,19,15
1491694825846,3,96,2,73,-12,-30,71,-86,19
1491694825846,1,-76,-9,-24,24,-22,14,-38,-4
1491694825846,1,-37,-16,40,50,127,31,44,95
1491694825849,2,108,26,17,-12,-128,80,127,40
1491694825849,2,-36,-33,-7,-11,-11,-67,-15,-78
1491694825893,3,-20,-21,-58,0,52,29,19,-2
1491694825893,3,-108,-11,60,45,38,-76,89,28
1491694825894,0,91,28,-1,-85,-38,92,91,-8
1491694825894,0,-66,27,77,54,62,127,68,78
1491694825895,2,-63,-13,65,127,-70,-54,-118,-57
1491694825895,2,-81,6,-87,-12,31,30,77,-38
1491694825896,3,-34,21,19,-51,-118,-45,-49,32
1491694825896,3,3,6,-24,-59,16,67,-2,39
1491694825942,0,84,-21,-25,76,42,-128,-34,38
1491694825942,0,-12,4,70,-25,-128,127,117,26
1491694825944,1,33,4,95,112,127,84,-103,-73
1491694825944,1,-98,-27,-101,9,-15,-118,-72,-42
1491694825945,3,36,26,14,61,-95,-10,-46,34
1491694825945,3,-42,-3,36,53,53,-38,-79,-25
1491694825991,0,-38,-14,-93,-60,-87,-73,-46,-63
1491694825991,0,11,13,20,-53,-60,-54,17,11
1491694825993,1,17,-16,-22,58,38,76,24,-64
1491694825993,1,-22,2,-16,-17,-128,4,35,20
1491694826000,2,-47,25,57,15,43,127,12,39
1491694826000,2,27,2,-28,23,59,-128,-128,3
1491694826007,3,-42,-25,-96,-125,-108,43,118,-26
1491694826007,3,108,22,21,103,127,123,100,67
1491694826040,0,-75,-1,-49,-89,-106,80,127,-56
1491694826040,0,64,0,127,49,-126,-71,-101,-25
1491694826042,1,25,6,-10,35,103,41,11,102
1491694826042,1,-91,-3,-15,-68,-84,-4,-39,-91
1491694826044,0,27,-8,-86,-51,127,94,70,-30
1491694826044,0,-66,-15,-27,-90,-91,-121,-119,-45
1491694826046,1,70,3,18,122,19,109,60,34
1491694826046,1,117,27,55,-5,57,18,2,25
1491694826088,2,-29,5,72,-2,5,-128,-103,-9
1491694826088,2,-80,-3,-30,-7,-38,127,127,23
1491694826089,3,68,-4,11,49,35,-23,27,-89
1491694826089,3,-8,5,-48,-66,-128,-89,-128,-4
1491694826137,1,29,1,-24,-15,-36,-128,-128,-75
1491694826137,1,-105,-10,48,47,127,127,127,31
1491694826139,2,10,4,-75,-31,-45,78,102,26
1491694826139,2,18,2,36,77,127,25,-83,5
1491694826140,3,-28,-12,-24,-7,-1,-61,112,38
1491694826140,3,1,10,-97,-128,-108,44,-128,16
1491694826141,0,54,0,66,81,72,39,66,-17
1491694826141,0,16,4,-29,-61,-56,-76,-4,-41
1491694826186,2,9,8,42,105,114,94,-58,-28
1491694826186,2,-47,1,-47,-43,-74,-63,-59,-16
1491694826187,3,52,0,-19,-68,3,-95,38,34
1491694826187,3,-48,-12,61,60,102,30,27,25
1491694826188,3,78,-42,-61,62,5,127,82,78
1491694826188,3,7,23,61,81,106,63,-58,-101
1491694826235,0,-49,-14,104,89,127,80,52,12
1491694826235,0,-21,-2,-62,-21,127,-72,32,43
1491694826236,1,-22,5,-11,-74,-128,95,-76,29
1491694826236,1,40,9,45,122,-74,-62,7,40
1491694826237,2,-36,19,-81,-12,-128,-127,-75,-52
1491694826237,2,43,-12,76,126,127,127,41,-10
1491694826238,0,-56,-7,55,9,-123,13,43,28
1491694826238,0,11,-22,-55,-7,108,55,-11,18
1491694826283,1,-29,22,29,6,-35,-82,-86,-23
1491694826283,1,17,6,-95,-62,-95,-106,-10,-35
1491694826285,2,25,10,86,105,94,4,15,45
1491694826285,2,1,21,-84,-62,-99,-43,-40,-12
1491694826287,3,-30,-19,58,-73,-9,21,54,-49
1491694826287,3,-17,6,13,22,62,-20,-30,-14
1491694826291,1,-12,69,-57,-74,-108,-102,-85,27
1491694826291,1,53,-45,13,-60,-78,39,36,51
1491694826332,2,-21,-12,-21,0,19,-20,-11,-28
1491694826332,2,7,-16,34,67,36,68,0,8
1491694826334,3,-5,-20,25,67,21,1,47,-43
1491694826334,3,31,-26,40,33,94,54,16,-6
1491694826335,1,22,65,81,124,7,-56,-18,3
1491694826335,1,33,4,-41,-3,-23,18,0,10
1491694826336,2,23,-11,-19,-22,-49,-77,-43,-16
1491694826336,2,-42,-27,30,117,62,105,34,-43
1491694826381,3,-8,-36,50,0,37,16,-13,36
1491694826381,3,-1,42,-16,5,-39,-75,-27,-9
1491694826383,0,-51,-10,7,0,17,23,19,30
1491694826383,0,71,-28,-21,-27,-37,-14,-18,17
1491694826384,2,-31,12,-57,-69,-30,22,28,-20
1491694826384,2,16,-10,92,27,-31,-53,-28,20
1491694826385,3,18,-22,-67,-59,-4,20,27,-4
1491694826385,3,22,3,27,1,-41,-57,-40,13
1491694826430,0,9,13,-17,30,52,2,25,0
1491694826430,0,-6,2,-4,-19,-18,-1,29,-5
1491694826431,1,22,-20,-42,-38,9,2,3,14
1491694826431,1,-45,1,22,60,30,3,-3,-7
1491694826431,3,-43,-18,4,-4,-52,79,-4,-23
1491694826431,3,-9,0,-18,-20,16,8,-1,-10
1491694826432,0,-7,6,-21,-26,54,66,44,19
1491694826432,0,-12,-10,22,56,21,0,-2,-21
1491694826479,1,-9,-6,-7,1,99,-28,15,3
1491694826479,1,16,6,-14,-48,-102,-61,-37,13
1491694826480,2,14,4,0,-2,-8,-4,4,1
1491694826480,2,10,-5,42,38,-3,0,2,17
1491694826480,0,-8,0,29,42,-10,-22,-16,15
1491694826480,0,-16,1,-6,-108,-61,24,-22,12
1491694826481,1,7,-5,-17,63,-6,-17,14,0
1491694826481,1,25,-1,20,34,24,-37,-8,2
1491694826527,2,-32,0,-23,-30,-39,29,38,-1
1491694826527,2,-9,-3,1,-1,32,44,-7,-9
1491694826528,3,26,-10,10,14,-15,-81,-35,17
1491694826528,3,-4,-2,0,-23,-8,21,0,-7
1491694826530,1,-11,-9,21,30,7,29,19,13
1491694826530,1,5,0,1,8,28,6,6,5
1491694826531,2,-27,1,5,-17,-15,-30,-48,-9
1491694826531,2,-20,-1,-18,0,-22,-9,38,7
1491694826576,3,10,1,6,26,-14,6,-6,6
1491694826576,3,8,0,25,13,16,9,-3,-15
1491694826578,0,0,-2,-10,-23,11,16,6,-2
1491694826578,0,22,-4,-10,-20,-27,-32,-26,12
1491694826625,2,23,-31,22,8,23,72,6,-22
1491694826625,2,-28,-26,-34,2,-16,-90,9,17
1491694826626,3,-33,-33,15,13,2,51,28,-19
1491694826626,3,-36,-43,-5,10,29,-49,-53,-8
1491694826628,0,5,6,-11,-26,-48,15,28,-12
1491694826628,0,46,-4,12,8,19,-14,-47,-1
1491694826629,1,-4,3,-4,2,12,24,8,-7
1491694826629,1,-12,19,-17,-23,-40,-33,16,-2
1491694826674,3,19,18,-12,-6,-11,-28,-2,22
1491694826674,3,20,3,12,-27,-16,31,24,-5
1491694826675,0,7,-10,-13,-19,-27,-42,-41,11
1491694826675,0,-25,11,8,17,11,35,19,-20
1491694826676,0,-5,19,22,36,55,122,37,19
1491694826676,0,-43,1,-7,2,11,-42,-64,-26
1491694826677,1,77,2,-14,-43,-35,-44,12,23
1491694826677,1,-34,18,7,-9,-23,85,-8,-12
1491694826722,2,-35,-3,-14,21,83,-107,-28,0
1491694826722,2,18,2,3,31,8,124,40,-6
1491694826724,3,-65,-27,16,-47,-63,-76,-6,2
1491694826724,3,-1,19,-18,-21,44,-31,-55,4
1491694826725,0,-3,15,-27,-20,-64,-43,-59,8
1491694826725,0,76,18,7,15,17,58,59,-20
1491694826726,1,-104,-22,-2,28,-14,35,35,-6
1491694826726,1,39,-5,16,42,59,95,44,-2
1491694826771,2,-75,-16,10,56,-45,44,8,4
1491694826771,2,31,-44,5,-117,-24,-93,-8,9
1491694826772,3,-76,70,-58,-7,26,-9,-85,6
1491694826772,3,-43,-18,78,64,62,85,82,-25
1491694826773,1,-8,-42,17,-69,-73,127,37,-45
1491694826773,1,67,83,-126,-100,-122,-128,-12,44
1491694826774,2,-95,21,-13,96,68,69,-9,-27
1491694826774,2,21,-24,14,58,65,50,17,41
1491694826820,3,96,-15,18,41,59,-54,-7,-20
1491694826820,3,-9,-6,27,-20,45,-54,1,-46
1491694826821,0,7,-41,-10,-61,-107,38,111,0
1491694826821,0,-49,28,22,-13,78,-2,-29,17
1491694826823,2,22,16,46,-10,108,87,31,-1
1491694826823,2,70,20,4,91,-98,-44,-59,6
1491694826824,3,-16,-5,4,-79,-27,-14,33,-16
1491694826824,3,-17,-20,26,56,74,-17,-16,58
1491694826869,0,49,-17,-64,-62,-73,14,-50,51
1491694826869,0,-128,7,45,45,-32,94,-70,-26
1491694826870,1,68,18,27,106,73,-54,-5,-56
1491694826870,1,-49,-32,43,70,21,89,37,-33
1491694826871,3,-3,-13,19,84,75,60,-8,43
1491694826871,3,-112,8,19,66,46,4,-51,-58
1491694826872,0,72,-50,68,27,127,103,127,18
1491694826872,0,-33,-6,-30,-128,-128,-101,-72,-20
1491694826917,1,73,30,-9,-10,-51,69,5,-7
1491694826917,1,123,-10,-39,39,54,-7,27,73
1491694826919,2,-89,5,-30,-77,-118,-120,1,-20
1491694826919,2,106,8,-34,4,31,108,73,-40
1491694826920,0,17,19,-7,-51,-78,-92,89,-60
1491694826920,0,-128,3,-32,-72,-69,-111,-88,-96
1491694826921,1,-128,38,-66,-88,26,94,127,-6
1491694826921,1,127,114,-28,-67,-128,-124,-59,64
1491694826967,2,8,-8,5,69,127,32,-43,49
1491694826967,2,8,7,52,127,127,105,54,13
1491694826969,3,-16,-63,-10,-88,-128,-118,-26,-39
1491694826969,3,-41,-23,-49,-102,-87,11,-43,4
1491694826970,1,-54,11,27,59,-30,-6,-49,16
1491694826970,1,63,-30,14,-27,-12,107,111,49
1491694826971,2,-33,22,-11,-26,23,-128,-22,-67
1491694826971,2,56,8,-92,-96,-62,-98,-82,-47
1491694827014,3,-3,40,-46,-69,-53,-67,-27,-1
1491694827014,3,1,-52,23,72,65,75,-17,27
1491694827016,0,-22,115,37,73,-43,25,40,93
1491694827016,0,-25,-43,70,103,127,-12,64,-68
1491694827017,2,-15,1,29,46,-40,25,102,13
1491694827017,2,-54,-17,34,-25,93,79,-59,55
1491694827020,3,84,27,15,44,-32,-34,-12,23
1491694827020,3,-128,-15,-36,-101,-70,69,-8,-48
1491694827063,0,-7,-2,-74,-65,-92,82,-49,-1
1491694827063,0,95,38,5,34,21,-4,70,83
1491694827064,1,-60,-21,51,118,113,127,39,35
1491694827064,1,3,31,54,84,105,-16,-28,-10
1491694827112,2,-25,-13,-39,-72,-104,-119,-6,-59
1491694827112,2,17,-25,-23,-87,-30,80,-11,-40
1491694827113,3,45,-9,1,31,72,-46,-15,63
1491694827113,3,-84,8,15,-18,-76,38,-24,-46
1491694827114,0,78,-23,-11,68,61,65,14,41
1491694827114,0,4,10,0,-48,-21,-80,66,33
1491694827115,1,-79,-18,-2,-16,38,3,-58,-27
1491694827115,1,56,20,7,8,-63,-50,-1,-31
1491694827162,3,8,-9,-55,-36,-12,68,35,35
1491694827162,3,58,4,32,-60,-128,-128,-30,4
1491694827164,0,-10,25,-3,-24,42,43,-44,-22
1491694827164,0,82,24,37,101,67,38,60,44
1491694827165,0,35,-4,7,48,57,50,-59,1
1491694827165,0,83,35,30,-79,-10,0,7,18
1491694827166,1,-96,-14,-9,84,-32,-9,39,-53
1491694827166,1,24,6,1,-6,44,-52,10,-34
1491694827210,2,-114,-9,-70,-94,-55,-55,-68,-42
1491694827210,2,-58,-1,30,-5,-116,-16,-9,-47
1491694827212,3,57,-3,-17,-20,104,48,43,-22
1491694827212,3,-60,18,30,56,-63,15,8,-51
1491694827212,1,-87,5,15,14,-52,-103,-113,31
1491694827212,1,18,1,-59,-88,-63,-9,-51,99
1491694827214,2,127,-11,12,-77,-46,-34,16,113
1491694827214,2,-82,18,13,49,47,16,47,69
1491694827258,3,83,12,64,122,127,112,-10,57
1491694827258,3,-60,-17,-24,-48,-35,-125,-6,-69
1491694827259,0,-9,-26,-28,-69,-104,50,-28,-6
1491694827259,0,-13,17,-19,-3,102,-39,47,-28
1491694827260,2,-7,-20,21,21,8,-19,32,-24
1491694827260,2,-5,5,-55,-63,-125,-68,-4,3
1491694827261,3,-41,-7,-37,-100,-78,38,4,-17
1491694827261,3,71,2,12,75,84,-89,-111,69
1491694827307,0,34,-2,57,101,119,86,92,33
1491694827307,0,-15,-4,6,21,-67,-50,-58,-32
1491694827308,1,0,0,-50,-128,-128,-15,18,-85
1491694827308,1,-37,-6,-1,27,-40,1,4,41
1491694827309,3,-88,8,24,12,83,-33,-51,-42
1491694827309,3,83,-3,-49,-44,-103,-44,-31,-82
1491694827310,0,-83,-6,-21,-81,-108,0,-6,-51
1491694827310,0,-56,-1,-17,33,102,-36,-50,50
1491694827356,1,-38,3,15,89,-61,68,112,17
1491694827356,1,-60,5,6,52,127,-59,3,-53
1491694827357,2,-41,-4,6,0,18,-1,-11,-29
1491694827357,2,-4,-10,-53,-128,-125,63,-52,-97
1491694827357,0,-36,-6,-8,3,-67,-62,-8,-57
1491694827357,0,-84,-16,4,-86,-56,-78,38,-37
1491694827358,1,66,16,36,27,-6,81,-104,-4
1491694827358,1,-128,-1,-3,-24,61,-51,64,-92
1491694827405,2,127,15,-14,2,-100,-11,-63,51
1491694827405,2,-66,9,-38,7,22,8,49,35
1491694827405,3,119,9,72,36,67,-56,-7,18
1491694827405,3,-103,-5,19,-73,-122,127,-36,-23
1491694827406,0,-105,4,-12,-46,-56,-68,-94,-91
1491694827406,0,-19,-3,-29,14,59,31,-32,27
1491694827407,1,-60,-8,-3,33,95,96,5,23
1491694827407,1,66,12,49,53,127,118,127,86
1491694827456,2,-47,-18,35,7,-8,-40,-18,-66
1491694827456,2,-17,0,-61,-112,-106,31,-57,-96
1491694827457,3,-93,-17,-95,48,-7,-63,-34,73
1491694827457,3,127,9,16,95,83,21,61,47
1491694827457,1,-93,-8,-82,-128,-58,-23,32,-27
1491694827457,1,31,1,7,62,20,-128,-109,81
1491694827458,2,125,14,-46,-45,-59,38,-18,6
1491694827458,2,127,-3,66,40,94,62,125,26
1491694827502,3,-64,18,45,67,-90,-85,-82,-26
1491694827502,3,41,7,-55,-48,23,114,98,23
1491694827503,0,7,-21,75,55,-22,-86,24,-2
1491694827503,0,-29,3,-2,-42,104,-82,84,-28
1491694827503,2,16,-6,-36,34,74,62,84,47
1491694827503,2,-85,8,56,16,-51,-31,-106,-45
1491694827504,3,13,38,-64,-57,127,-128,52,-35
1491694827504,3,-128,25,12,-114,-114,-91,-126,-59
1491694827551,0,84,12,-19,10,0,120,60,113
1491694827551,0,-91,-6,52,127,26,-82,-89,27
1491694827552,1,-2,-14,35,54,-21,34,-14,-74
1491694827552,1,-39,-13,-113,-106,-128,-7,55,-49
1491694827599,3,64,3,31,30,-35,2,66,11
1491694827599,3,-13,-14,9,30,-32,88,123,9
1491694827600,0,-112,-13,-74,10,12,-85,-128,-80
1491694827600,0,122,8,-25,2,-51,113,-9,55
1491694827601,1,-27,-11,40,58,127,-22,44,-31
1491694827601,1,-88,-17,-10,-2,-128,-128,-67,19
1491694827602,2,-5,-8,-10,-75,72,66,8,-12
1491694827602,2,118,28,21,127,120,-59,54,31
1491694827648,0,91,-8,6,69,-42,101,-16,7
1491694827648,0,-95,-11,-13,-56,45,77,35,-49
1491694827649,1,36,-24,17,-14,-90,84,87,81
1491694827649,1,14,-10,-7,58,117,-61,-102,-59
1491694827650,1,51,-23,-23,60,79,69,-5,38
1491694827650,1,-72,-1,9,-28,-128,-74,-36,-59
1491694827651,2,105,30,-63,-66,29,127,-74,-8
1491694827651,2,-20,13,31,52,56,58,56,-32
1491694827697,3,-17,7,0,50,103,-101,-116,-32
1491694827697,3,-19,-6,38,-51,-82,30,86,56
1491694827698,0,-27,-18,-56,0,-123,-110,-78,32
1491694827698,0,16,-13,-35,5,50,115,69,-18
1491694827699,2,-97,7,-45,-128,-128,-78,125,46
1491694827699,2,96,-4,-29,98,10,26,-123,-16
1491694827700,3,-121,-10,26,-50,-36,-46,-1,-5
1491694827700,3,-21,-8,-8,-75,-112,-97,13,20
1491694827746,0,1,-7,17,16,103,127,68,50
1491694827746,0,-61,-9,-49,28,-11,29,-77,21
1491694827748,1,-11,-31,-68,-79,-128,-91,67,-88
1491694827748,1,32,10,54,31,118,46,-28,37
1491694827749,2,-10,-3,1,52,-93,-36,-97,-37
1491694827749,2,0,-1,6,-22,108,-21,-51,17
1491694827750,3,-66,44,-42,11,12,127,-37,-3
1491694827750,3,9,28,63,-19,-50,-104,127,64
1491694827795,0,-20,2,-44,68,127,127,29,-62
1491694827795,0,-30,2,15,-79,-128,-98,-128,-29
1491694827797,1,2,-14,-5,-10,79,99,89,104
1491694827797,1,6,-24,-46,46,-28,-56,-75,-117
1491694827798,3,18,-6,46,100,64,11,-101,27
1491694827798,3,-128,1,-40,8,-22,-4,-81,-41
1491694827800,0,105,6,88,-51,27,35,58,23
1491694827800,0,-56,-6,-26,-21,70,60,-12,24
1491694827849,1,-2,4,-39,-30,-128,48,-1,-5
1491694827849,1,86,-2,-1,-68,2,-33,67,-5
1491694827851,2,-70,-13,-30,37,15,-110,-71,-21
1491694827851,2,59,-1,114,126,19,74,127,13
1491694827852,0,-39,11,-22,-20,-108,-128,111,50
1491694827852,0,-40,4,20,75,91,-36,46,-61
1491694827853,1,91,-2,24,97,-37,88,61,35
1491694827853,1,-81,2,-67,-62,-97,61,48,16
1491694827892,2,91,7,-34,53,124,-46,-109,-10
1491694827892,2,34,5,21,112,42,74,-9,-12
1491694827893,3,-5,1,53,-90,-100,9,95,-13
1491694827893,3,50,2,-64,-76,81,4,-86,-11
1491694827894,1,-15,8,6,78,117,-128,26,11
1491694827894,1,15,-5,28,-57,-77,127,18,11
1491694827895,2,57,-4,-83,-100,-59,112,-9,-16
1491694827895,2,-40,-17,17,4,18,-26,-32,36
1491694827942,3,-21,-2,-15,-71,107,98,23,-9
1491694827942,3,-8,2,24,15,97,-75,-94,-13
1491694827943,0,-21,3,44,35,-50,-85,-13,-21
1491694827943,0,7,-2,-67,-70,-40,-13,43,-17
1491694827944,2,-10,-8,48,37,127,127,59,-20
1491694827944,2,-20,-3,-6,-23,-126,-68,-76,-19
1491694827945,3,17,2,-20,-41,-120,-105,45,12
1491694827945,3,-34,-7,-82,77,-61,36,-26,3
1491694827989,0,44,-17,61,-60,-94,13,55,-29
1491694827989,0,-46,30,17,-81,113,-65,-67,62
1491694827991,1,87,-4,-62,57,56,35,-21,15
1491694827991,1,-35,-29,73,47,-66,31,7,-7
1491694827991,3,-19,14,7,51,39,14,-83,-8
1491694827991,3,-37,-4,-19,-11,18,-49,34,-18
1491694827992,0,27,8,-1,-14,113,-15,-68,-25
1491694827992,0,0,-13,-28,28,32,-26,82,-27
1491694828038,1,-13,-5,45,-1,13,29,51,-53
1491694828038,1,17,25,-3,17,-32,118,-28,90
1491694828040,2,-13,13,-51,2,-128,-121,-90,-29
1491694828040,2,-36,14,-45,-41,-105,-10,8,-4
1491694828087,0,-8,-13,86,-46,35,45,-4,21
1491694828087,0,18,-31,0,38,-22,-10,-14,11
1491694828088,1,-29,-17,-37,-89,-128,-35,-31,-20
1491694828088,1,60,-11,-29,6,12,-32,27,-22
1491694828089,2,-38,33,-18,-12,122,-44,-20,49
1491694828089,2,34,17,-48,-78,105,-65,-39,10
1491694828090,3,78,-39,43,17,-128,33,12,-25
1491694828090,3,-93,-3,-20,-60,50,-76,-17,3
1491694828138,1,2,-26,-9,60,50,-120,-68,1
1491694828138,1,41,-21,75,127,127,115,69,-27
1491694828140,2,-49,-22,54,-46,53,64,-6,-23
1491694828140,2,17,2,-17,-37,-69,65,1,41
1491694828140,1,-9,39,27,28,-16,46,9,13
1491694828140,1,66,17,-53,-97,30,7,5,23
1491694828144,2,-25,-13,1,76,107,29,-3,-21
1491694828144,2,6,-30,40,54,0,52,6,27
1491694828185,3,-52,-19,43,-8,21,-10,-9,-5
1491694828185,3,34,26,6,12,-40,12,-25,0
1491694828186,0,14,-27,-39,-49,-67,-79,16,0
1491694828186,0,24,-13,14,-36,-81,-69,16,-18
1491694828187,2,5,-8,17,54,127,22,-14,-34
1491694828187,2,-36,-16,-21,-67,-91,-42,11,-10
1491694828187,3,9,4,-30,-29,-8,-33,-18,28
1491694828187,3,-13,3,27,57,76,-15,-5,3
1491694828233,0,-32,-20,5,-7,-13,54,8,-38
1491694828233,0,-16,10,4,5,48,52,8,-6
1491694828234,1,30,-9,-15,36,51,55,26,-8
1491694828234,1,-29,-1,39,61,52,-4,10,-8
1491694828235,3,47,6,1,-15,-72,52,69,22
1491694828235,3,7,-10,-23,-44,-28,-6,7,-19
1491694828236,0,-3,4,45,8,29,32,16,14
1491694828236,0,14,-6,4,45,31,-36,-19,-6
1491694828282,1,1,-7,4,7,25,-4,-5,-11
1491694828282,1,-18,-1,-1,-25,18,11,9,-12
1491694828283,2,4,7,-31,-35,-58,-42,-3,13
1491694828283,2,-11,-19,-1,37,22,64,12,-3
1491694828290,0,-6,-4,-10,17,14,62,13,-2
1491694828290,0,14,-9,15,26,35,45,23,3
1491694828291,1,-31,8,-41,-23,20,24,-6,-3
1491694828291,1,-23,-7,34,0,-21,-17,11,8
1491694828331,2,-4,-7,2,11,-16,-11,-5,7
1491694828331,2,-15,6,-37,-57,-75,-48,-37,-27
1491694828332,3,-29,-9,19,0,-45,-35,1,12
1491694828332,3,3,-7,6,40,47,38,2,8
1491694828332,1,-10,-1,-7,-26,26,17,-7,-25
1491694828332,1,-33,4,34,16,25,-31,-29,7
1491694828333,2,-11,8,-18,-31,-87,-8,0,23
1491694828333,2,16,10,-24,-52,7,-28,-3,-39
1491694828379,3,15,10,7,-11,-105,-42,-10,-4
1491694828379,3,42,6,-5,25,95,56,-2,-6
1491694828380,0,-20,-16,8,25,61,43,6,14
1491694828380,0,2,1,3,16,-22,-27,-47,-3
1491694828381,2,37,-5,9,65,7,46,43,42
1491694828381,2,-65,21,-3,-15,-33,-3,6,-32
1491694828382,3,32,-17,15,62,89,-3,8,9
1491694828382,3,-17,-29,22,44,-2,73,24,-20
1491694828428,0,30,-22,-10,-10,110,5,-13,-11
1491694828428,0,29,9,-7,-19,-53,-7,-11,49
1491694828429,1,-29,-21,-4,-29,-66,-31,-14,-6
1491694828429,1,-23,8,-17,3,-6,35,10,15
1491694828430,3,4,-6,-28,-67,-58,6,3,-7
1491694828430,3,19,8,-1,-67,-78,-40,-72,-13
1491694828431,0,-15,13,-5,26,-57,-82,2,7
1491694828431,0,-62,-4,16,2,33,54,16,8
1491694828477,1,123,-18,-26,40,57,48,20,25
1491694828477,1,-63,-36,47,96,92,30,75,-8
1491694828526,2,-3,25,-26,-124,-116,-43,-93,-26
1491694828526,2,-34,-11,-20,-63,-77,29,5,4
1491694828574,3,-41,35,-8,85,-21,-50,8,6
1491694828574,3,60,-9,2,63,83,127,32,-4
1491694828575,0,-61,-24,-7,-6,-39,-81,-39,-8
1491694828575,0,82,-4,-4,-22,-29,-55,25,27
1491694828576,1,-42,-13,35,36,68,127,-3,-5
1491694828576,1,-16,1,-4,41,-106,-67,-41,-81
1491694828577,2,-65,16,-13,-73,-69,-85,40,-20
1491694828577,2,68,-1,-21,7,95,127,89,37
1491694828623,0,50,-9,55,117,87,127,25,-3
1491694828623,0,17,-58,-25,-4,42,75,-8,-15
1491694828624,1,96,-18,-37,4,-42,66,106,40
1491694828624,1,9,8,-2,53,80,30,2,41
1491694828625,2,-50,-47,42,112,125,35,38,-18
1491694828625,2,-93,23,-28,-79,-91,-74,-42,-61
1491694828626,3,79,44,-20,-38,21,-3,80,67
1491694828626,3,-44,13,39,49,21,-45,-52,17
1491694828672,0,-92,9,-53,-30,-97,28,-13,-7
1491694828672,0,111,-62,47,55,80,22,32,3
1491694828673,1,-96,-90,-17,-63,26,122,46,-43
1491694828673,1,25,-2,12,-35,-128,-99,-10,-37
1491694828673,3,-98,89,-47,-70,91,-125,-128,-76
1491694828673,3,-47,-29,-21,-30,-26,127,121,67
1491694828674,0,14,44,30,60,17,-110,-128,-1
1491694828674,0,-10,-30,-9,-7,-77,9,15,-1
1491694828721,1,-28,-39,-7,-45,17,76,-19,10
1491694828721,1,-60,-26,-22,8,49,22,56,-58
1491694828722,2,90,22,24,-21,-110,-64,-54,19
1491694828722,2,54,-24,4,87,127,-53,42,-22
1491694828723,0,-3,-1,-24,49,75,4,-7,-6
1491694828723,0,-51,33,3,14,-55,127,11,31
1491694828723,1,71,36,0,20,-106,-47,4,-32
1491694828723,1,-30,56,-55,-128,-128,-75,-4,-7
1491694828770,2,97,-4,13,-51,-115,21,-65,-4
1491694828770,2,-101,15,47,110,87,-21,-18,25
1491694828773,3,21,37,24,83,127,16,16,-8
1491694828773,3,7,-8,2,-32,-80,25,84,-9
1491694828774,1,-10,-102,22,25,17,24,12,-15
1491694828774,1,-44,2,-27,20,18,58,24,-53
1491694828776,2,-80,-14,31,6,92,-66,-10,-19
1491694828776,2,53,13,-28,-98,-128,16,-32,66
1491694828819,3,70,20,24,116,-6,-21,59,102
1491694828819,3,68,33,18,91,65,-37,-27,33
1491694828821,0,-109,-29,-23,-51,-3,66,103,-98
1491694828821,0,-82,-24,17,-14,108,-42,10,-68
1491694828822,1,32,-32,1,-57,-125,55,6,18
1491694828822,1,114,5,-8,-3,53,-4,-30,62
1491694828823,2,-55,-11,10,30,5,82,44,1
1491694828823,2,76,-17,-7,49,115,-34,-64,-13
1491694828867,3,-34,24,22,-9,-57,-53,56,-26
1491694828867,3,-101,16,-39,-69,-23,50,-36,-30
1491694828868,0,127,4,-29,-45,-35,98,-13,59
1491694828868,0,-10,-16,-3,108,25,52,20,21
1491694828874,2,28,-34,-8,49,116,-112,5,21
1491694828874,2,-6,-27,-20,-48,-50,-8,83,-14
1491694828875,3,-17,10,-16,-84,-22,-61,-72,-47
1491694828875,3,20,8,-13,3,24,-5,-19,35
1491694828916,0,-13,-3,10,33,38,25,-24,36
1491694828916,0,84,0,18,48,50,90,54,45
1491694828917,1,-47,-4,-49,0,127,-74,-54,-60
1491694828917,1,-128,-2,18,-36,-77,-32,54,45
1491694828918,3,-47,-9,-14,-2,-109,14,11,-23
1491694828918,3,-1,0,-10,-68,-61,-9,-35,-31
1491694828920,0,-84,-9,-31,21,78,-45,23,-28
1491694828920,0,-30,9,25,5,-48,-105,-22,-19
1491694828964,1,0,13,33,32,87,127,83,-4
1491694828964,1,-13,0,-5,4,-9,-24,-36,-38
1491694828966,2,-38,-5,-6,3,-23,12,-18,-48
1491694828966,2,19,-8,-17,-18,5,23,-70,-27
1491694828966,0,57,-20,-34,-16,19,22,-35,44
1491694828966,0,12,8,-2,18,16,15,-83,60
1491694828967,1,127,8,59,86,111,58,-42,77
1491694828967,1,2,3,-19,-4,113,2,2,76
1491694829013,2,56,1,14,-8,-68,-61,-47,65
1491694829013,2,-31,-3,-24,-96,-107,-44,14,21
1491694829014,3,-21,3,-23,-59,-65,-62,-65,18
1491694829014,3,-46,1,4,61,9,-12,27,-39
1491694829062,1,30,5,18,2,86,36,26,-13
1491694829062,1,-62,-2,-6,-20,-32,47,33,-5
1491694829063,2,-6,22,-4,-12,-13,-120,-39,16
1491694829063,2,0,-6,5,-27,-55,97,29,50
1491694829064,3,23,-8,-54,-13,19,-66,-71,-66
1491694829064,3,99,-1,42,10,-33,11,39,41
1491694829064,0,12,-9,22,56,74,51,34,-21
1491694829064,0,-71,7,6,-8,-46,-23,-6,-63
1491694829111,2,-84,-3,-16,-50,-128,-98,12,-21
1491694829111,2,-18,4,9,18,81,-41,-30,2
1491694829112,3,-39,2,1,-13,-2,-2,-78,20
1491694829112,3,10,-4,3,31,80,21,16,-10
1491694829112,3,-48,1,24,7,-28,-3,8,2
1491694829112,3,-22,-3,-22,13,61,18,-20,-19
1491694829113,0,73,5,18,26,15,36,29,7
1491694829113,0,-62,-7,-43,-52,-128,-64,5,-32
1491694829160,1,-128,-14,18,-1,15,-22,-41,-47
1491694829160,1,34,5,-19,-28,-11,52,83,22
1491694829161,2,-31,-1,-16,-27,-23,-59,46,23
1491694829161,2,41,-1,26,62,58,55,9,-12
1491694829161,3,-31,-4,-22,-23,-49,-48,-13,-3
1491694829161,3,-128,-5,-19,-61,-67,-46,-67,-86
1491694829162,0,127,-2,-18,-47,-13,-8,-22,19
1491694829162,0,64,7,48,55,20,75,-15,46
1491694829208,1,-68,-3,-22,-56,-47,-55,-5,-31
1491694829208,1,-5,-2,43,-26,29,5,23,-43
1491694829209,2,-27,0,-19,6,10,-25,-37,4
1491694829209,2,-34,2,-10,-27,92,-17,-25,34
1491694829210,0,-108,6,2,37,-83,-100,-127,-68
1491694829210,0,-3,2,-38,-100,-109,59,77,-46
1491694829211,1,-52,16,60,75,40,-23,32,39
1491694829211,1,55,-13,-79,92,34,-77,-32,-31
1491694829257,2,-70,-14,77,-19,127,127,114,35
1491694829257,2,50,7,-15,36,-61,-120,-110,-21
1491694829258,3,90,8,-38,-120,-120,-27,36,-15
1491694829258,3,-108,-3,-30,-38,74,-29,-109,-10
1491694829258,1,-42,-2,70,93,127,127,28,1
1491694829258,1,63,4,24,102,0,35,45,-8
1491694829259,2,46,9,-32,-128,-85,-37,-72,10
1491694829259,2,6,-10,-58,36,41,102,16,48
1491694829306,3,27,-3,13,78,5,46,-15,49
1491694829306,3,-71,6,-2,-10,20,-62,-19,32
1491694829307,0,-1,11,-1,-89,-79,127,49,-32
1491694829307,0,8,1,21,-37,48,28,127,10
1491694829307,2,-38,1,-43,-44,-80,-65,57,1
1491694829307,2,-81,-1,-34,-86,112,-14,-20,-15
1491694829308,3,58,-6,8,11,-32,13,24,-11
1491694829308,3,86,9,-4,-54,-128,39,-18,19
1491694829354,0,80,3,7,38,86,57,-9,25
1491694829354,0,63,-1,86,93,27,-62,-26,51
1491694829355,1,-128,-11,-78,-117,-67,-34,-102,1
1491694829355,1,36,-5,-34,45,-34,52,9,17
1491694829356,3,-56,-16,-26,-94,-77,-40,48,-48
1491694829356,3,-30,-14,-60,-88,17,-128,28,120
1491694829357,0,-80,4,-16,54,-71,-12,-96,-24
1491694829357,0,-52,-21,27,127,83,55,81,-8
1491694829403,1,75,14,71,20,-107,-97,-14,-19
1491694829403,1,80,-16,-47,-128,-104,127,116,5
1491694829404,2,-126,-12,9,87,114,43,47,32
1491694829404,2,52,6,-56,-112,-128,-128,-73,-16
1491694829405,0,-50,-7,1,-46,-43,-87,-8,-30
1491694829405,0,-44,16,-12,-72,-128,-67,96,-17
1491694829406,1,25,7,-11,126,114,56,22,30
1491694829406,1,-37,-7,108,55,63,-97,-128,-15
1491694829452,2,-53,-11,-67,-61,-115,72,79,-100
1491694829452,2,35,3,-91,-114,-63,33,41,0
1491694829461,3,-33,-14,-35,61,81,-80,62,34
1491694829461,3,-6,10,64,8,-81,5,-94,-55
1491694829462,1,71,-17,78,73,10,-115,95,59
1491694829462,1,-89,15,-28,-55,-67,67,36,-80
1491694829463,2,79,47,28,8,98,-87,-61,67
1491694829463,2,-53,8,-8,35,35,54,42,-51
1491694829501,3,-17,14,32,9,-47,-33,-62,-27
1491694829501,3,-98,-1,-74,-40,-2,78,104,46
1491694829502,0,-51,-22,6,31,21,-65,-106,-40
1491694829502,0,63,6,23,-58,-60,-103,63,-64
1491694829550,2,66,-5,-21,57,49,50,-95,-43
1491694829550,2,-43,-12,-3,3,-17,11,31,-43
1491694829550,3,48,18,18,-31,-59,112,15,33
1491694829550,3,-38,-4,30,31,4,-128,2,14
1491694829551,0,-95,-20,-68,-44,-46,17,-18,-29
1491694829551,0,73,-8,-30,3,90,45,0,1
1491694829552,1,-5,-3,-11,7,-44,-12,12,26
1491694829552,1,-92,7,-24,56,78,32,-28,9
1491694829598,2,120,29,-22,-18,-53,95,-7,-21
1491694829598,2,-80,-6,-30,-128,-128,-128,25,16
1491694829599,3,84,117,-46,0,20,127,7,-39
1491694829599,3,-33,-56,-22,105,127,84,75,-20
1491694829600,3,11,-27,13,-14,1,23,-7,-36
1491694829600,3,103,20,-35,7,-3,-48,53,44
1491694829601,0,-14,-12,77,-25,-68,92,125,58
1491694829601,0,-6,-6,18,76,1,-128,-6,-7
1491694829647,1,61,-25,-45,50,49,72,-46,-15
1491694829647,1,-78,-3,7,-41,-22,127,14,-98
1491694829648,2,58,15,-34,3,-9,-104,32,93
1491694829648,2,-70,-2,-39,-38,127,-22,45,-73
1491694829649,0,22,17,20,114,127,-114,3,-20
1491694829649,0,-40,11,-36,-41,-128,21,-2,-48
1491694829649,1,76,-22,13,-45,66,5,-102,24
1491694829649,1,44,4,57,56,58,54,4,77
1491694829696,2,29,13,-3,-64,-128,30,52,-86
1491694829696,2,43,-4,-32,21,127,97,64,-36
1491694829697,3,-26,-21,98,127,-71,-100,-43,80
1491694829697,3,-6,-8,-104,-128,-128,-19,16,-128
1491694829698,1,48,13,50,-28,-25,3,98,-40
1491694829698,1,-74,5,68,92,35,99,64,-51
1491694829699,2,87,-9,-85,-96,-128,-128,1,78
1491694829699,2,100,7,60,22,76,127,-108,25
1491694829744,3,-28,-6,2,79,97,84,127,-59
1491694829744,3,-49,-16,-66,-128,-128,-128,-115,-53
1491694829746,0,-19,6,63,127,127,127,102,49
1491694829746,0,-6,2,8,-26,19,-128,21,10
1491694829747,2,-128,-19,-61,115,81,96,21,-61
1491694829747,2,-5,6,61,-81,19,62,26,50
1491694829748,3,-65,10,-63,-99,-27,-61,-11,-83
1491694829748,3,16,1,-45,19,40,71,110,23
1491694829793,0,-16,-6,-2,60,23,-49,-56,22
1491694829793,0,50,7,32,-12,-47,-51,15,47
1491694829795,1,-24,-3,24,36,77,110,-27,-66
1491694829795,1,-15,0,-21,39,-128,11,16,31
1491694829796,3,32,-25,27,69,82,10,33,23
1491694829796,3,25,5,5,-21,-54,98,69,20
1491694829797,0,-40,36,53,-75,-83,-69,-34,-6
1491694829797,0,-79,-15,-38,-85,13,-5,-21,-28
1491694829842,1,22,9,-99,-128,-113,-43,-19,66
1491694829842,1,13,-7,51,72,127,98,-6,1
1491694829844,2,60,7,70,87,-16,-111,-1,6
1491694829844,2,-55,-36,-28,-38,-73,105,-79,-32
1491694829845,0,16,-5,-9,-20,-58,123,76,-36
1491694829845,0,-4,-4,56,127,123,40,46,-23
1491694829846,1,25,7,86,1,87,22,-2,-31
1491694829846,1,-30,-17,-60,-88,18,-101,9,14
1491694829891,2,-40,22,-51,-96,-87,-83,-94,10
1491694829891,2,89,47,-86,-61,-117,-53,2,-12
1491694829893,3,-96,-32,-33,75,44,87,22,-43
1491694829893,3,90,7,106,36,79,41,54,28
1491694829894,0,-53,3,-18,-92,-85,-7,12,44
1491694829894,0,63,-47,87,113,-40,89,78,37
1491694829895,1,-57,14,-40,-18,0,-128,-36,-48
1491694829895,1,24,-17,-12,-30,-55,-49,9,-14
1491694829940,2,69,-41,33,127,36,127,57,-46
1491694829940,2,-4,-17,-66,-91,51,-37,-27,14
1491694829940,3,17,60,-13,-22,-124,-41,-21,115
1491694829940,3,-43,-61,-42,64,35,42,-46,-36
1491694829941,1,-42,-45,-21,13,24,41,39,-57
1491694829941,1,71,41,-112,-128,-105,-72,-14,36
1491694829942,2,-66,0,10,58,-33,-70,-27,16
1491694829942,2,27,-11,20,54,-14,14,-9,-22
1491694829989,3,-1,18,41,23,92,42,29,-17
1491694829989,3,6,4,-53,-52,-84,-70,2,49
1491694829993,0,27,-20,4,-72,-62,-18,-18,-4
1491694829993,0,-13,43,18,51,5,55,1,9
1491694830037,2,15,5,-82,-90,-75,-80,48,-10
1491694830037,2,-38,33,-113,-128,-101,-128,-91,64
1491694830039,3,20,-8,38,61,41,127,15,46
1491694830039,3,-25,14,-4,4,56,100,38,-42
1491694830041,0,10,-22,63,73,100,97,30,-27
1491694830041,0,-7,-4,23,-67,-40,-42,-14,0
1491694830042,1,-2,-6,-40,-53,-128,-108,-22,17
1491694830042,1,24,-6,-10,11,-1,-4,13,4
1491694830086,3,42,-6,-41,-114,-96,-53,-41,-21
1491694830086,3,-40,-2,-39,-44,-113,-128,-69,-17
1491694830089,0,3,6,-3,67,77,101,24,33
1491694830089,0,-16,1,53,127,127,109,22,5
1491694830090,0,-32,1,6,73,90,11,-10,8
1491694830090,0,40,2,37,1,90,71,16,-18
1491694830091,1,3,0,5,-22,-67,-69,-27,-2
1491694830091,1,-7,1,13,-35,-8,45,17,-49
1491694830135,2,-10,1,23,-5,-11,89,31,32
1491694830135,2,-29,-3,-25,-48,-98,-111,-74,-23
1491694830136,3,-21,-1,-20,-12,1,107,66,-58
1491694830136,3,-1,-5,29,10,10,58,42,30
1491694830138,1,28,0,6,40,55,-1,-9,22
1491694830138,1,-26,-5,26,-15,-57,-2,-3,-28
1491694830139,2,-34,-2,8,3,9,-12,4,-11
1491694830139,2,62,-5,-44,-27,-63,-46,-1,16
1491694830183,3,-8,-10,8,21,-37,-14,-6,11
1491694830183,3,-17,-3,17,26,83,47,32,-45
1491694830185,0,-41,-10,-17,-6,-9,-23,-14,27
1491694830185,0,-19,28,-13,-13,-15,5,4,-7
1491694830187,2,-102,-15,6,-70,-118,-86,-55,-4
1491694830187,2,6,-25,-10,42,-3,-13,-21,-33
1491694830188,3,-3,-18,33,41,-21,27,-8,5
1491694830188,3,4,-8,23,32,85,18,16,4
1491694830232,0,45,-10,-31,-8,-22,-58,-48,17
1491694830232,0,-37,3,8,-12,9,62,64,-5
1491694830234,1,-9,-17,-11,61,86,68,27,11
1491694830234,1,-34,11,34,-9,-7,-85,-91,-32
1491694830235,2,-4,3,-65,-85,-86,-37,-4,-23
1491694830235,2,1,-2,6,-32,-13,13,-23,13
1491694830237,3,3,7,-9,24,29,-49,-30,-3
1491694830237,3,53,20,26,23,27,23,40,19
1491694830281,0,3,25,20,30,45,55,27,-9
1491694830281,0,-42,-21,3,48,40,46,16,15
1491694830283,1,6,26,-31,-59,63,16,-11,-20
1491694830283,1,-39,0,-3,-29,-75,-45,-20,-12
1491694830284,3,8,-16,12,45,39,70,33,22
1491694830284,3,3,-27,17,41,96,-24,-21,-8
1491694830285,0,-12,-26,0,10,-21,16,-27,-10
1491694830285,0,0,13,-13,-37,33,6,25,-13
1491694830329,1,11,-24,32,14,-7,33,-7,12
1491694830329,1,17,21,-22,-64,-73,-93,-14,-11
1491694830331,2,48,7,-23,-32,-71,-18,45,10
1491694830331,2,-7,-21,12,84,82,62,-58,-17
1491694830331,0,-1,29,-6,85,36,-59,-92,4
1491694830331,0,65,-2,-1,-13,-32,-45,35,11
1491694830332,1,36,10,39,73,111,110,57,25
1491694830332,1,-65,-40,12,27,39,72,3,-9
1491694830378,2,89,-22,-8,-40,98,64,15,3
1491694830378,2,-59,-15,-17,26,-113,-71,-28,11
1491694830379,3,-26,24,-63,-106,-128,-115,-69,-24
1491694830379,3,-2,-11,15,65,12,-26,-14,-15
1491694830380,1,-16,-18,-7,-5,82,76,19,-10
1491694830380,1,52,28,11,-10,-79,22,44,22
1491694830381,2,-29,11,19,62,27,56,-62,-49
1491694830381,2,25,-16,-8,-128,-87,-51,7,22
1491694830427,3,-46,-13,-23,-6,50,-22,77,-38
1491694830427,3,-28,18,-1,-9,-5,66,-59,-15
1491694830428,0,-28,-12,27,85,123,-73,5,26
1491694830428,0,35,31,8,30,73,103,31,-1
1491694830428,2,-68,43,-9,-87,-62,3,-20,-31
1491694830428,2,38,6,-46,-123,-128,-75,6,10
1491694830429,3,-43,1,-19,18,5,21,15,-27
1491694830429,3,-48,-18,35,106,127,-74,-28,1
1491694830476,0,16,-72,68,108,80,117,65,46
1491694830476,0,22,14,21,-42,50,44,28,-38
1491694830477,1,6,16,-19,-93,-128,-4,-43,4
1491694830477,1,-6,44,-95,-21,-62,-82,-54,89
1491694830524,3,45,-47,42,83,126,110,127,35
1491694830524,3,-109,35,-15,-106,-85,-7,-28,-68
1491694830525,0,80,16,-47,-58,38,8,68,88
1491694830525,0,-27,-21,-29,-13,-54,127,-8,34
1491694830526,1,-71,18,14,27,35,-108,7,-46
1491694830526,1,-34,33,67,116,104,23,54,-63
1491694830527,2,53,-20,13,-8,-82,14,83,14
1491694830527,2,-45,-28,-20,-66,-84,15,-82,11
1491694830573,0,22,19,8,-79,-94,47,36,-98
1491694830573,0,-128,-15,6,-17,-76,40,-26,-71
1491694830574,1,80,34,-10,-7,53,-70,-41,57
1491694830574,1,27,-36,-68,-21,-28,93,67,23
1491694830575,0,-22,-18,-50,-128,-93,-128,-108,-7
1491694830575,0,27,-46,6,29,27,28,-3,14
1491694830576,1,-34,26,-1,72,40,54,60,-11
1491694830576,1,58,23,14,-40,-125,-67,-67,-19
1491694830622,2,-18,93,16,1,57,12,-20,4
1491694830622,2,-25,64,0,-8,-61,-36,-4,33
1491694830623,3,-19,13,6,31,31,121,91,-34
1491694830623,3,36,6,-34,-76,-34,87,-16,49
1491694830623,1,13,-33,52,22,-46,28,18,4
1491694830623,1,-18,-40,7,-50,-75,17,41,-51
1491694830625,2,-106,17,5,-64,102,-83,-55,1
1491694830625,2,82,78,17,64,-74,40,13,-6
1491694830671,3,-72,-22,-67,-105,-65,-12,-66,-33
1491694830671,3,26,32,-5,-37,-15,25,33,19
1491694830671,0,-18,-10,22,83,9,67,-72,15
1491694830671,0,-80,22,10,35,127,-107,-34,-20
1491694830672,2,34,9,-98,-84,-118,33,20,69
1491694830672,2,-4,-13,-38,67,28,35,-29,10
1491694830673,3,86,42,39,44,16,30,11,18
1491694830673,3,-111,17,26,27,115,55,79,11
1491694830720,0,-109,-37,9,-1,-26,-89,-10,-118
1491694830720,0,86,17,-30,-90,-9,-25,12,-16
1491694830721,1,-90,12,-23,-23,21,-26,-91,-2
1491694830721,1,85,-7,47,12,127,59,16,50
1491694830722,3,-23,-11,29,-11,-107,-32,-1,15
1491694830722,3,38,8,4,9,-128,15,8,53
1491694830723,0,-12,20,-56,-53,74,49,42,35
1491694830723,0,70,18,-3,0,-45,11,53,31
1491694830768,1,-39,16,6,15,96,-49,-17,-41
1491694830768,1,-66,-27,-49,1,-62,-4,11,-35
1491694830770,2,-52,0,76,37,3,-61,-19,-6
1491694830770,2,-21,26,11,-25,-37,-51,39,3
1491694830771,0,73,-27,-33,78,112,82,50,-24
1491694830771,0,-128,-2,24,2,39,49,-23,-13
1491694830772,1,-13,15,-17,-55,-24,-95,35,24
1491694830772,1,76,31,-26,-43,-107,-21,-65,21
1491694830817,2,-6,-12,7,24,-16,-8,8,8
1491694830817,2,-52,-7,-8,-31,23,-18,-56,11
1491694830818,3,65,-3,-3,-13,-23,-21,8,5
1491694830818,3,32,7,22,49,20,11,-47,28
1491694830818,1,-2,-23,-15,-63,-39,-49,-27,-32
1491694830818,1,8,-3,-14,33,49,41,29,8
1491694830820,2,-61,14,19,-34,-96,-3,18,-39
1491694830820,2,-32,-22,22,-10,17,-13,-47,-7
1491694830866,3,45,-7,14,48,34,26,30,14
1491694830866,3,-88,21,-19,-15,58,14,15,-35
1491694830866,0,109,3,16,-17,-28,40,6,27
1491694830866,0,-96,-21,-15,19,-5,-71,-49,-9
1491694830867,2,11,5,-9,16,72,55,40,34
1491694830867,2,-82,-15,12,36,41,-7,-11,-22
1491694830868,3,76,1,-9,-29,-56,-35,-24,14
1491694830868,3,-35,-2,-24,-26,8,-38,-66,11
1491694830914,0,7,-4,3,-10,-69,37,36,-23
1491694830914,0,34,-5,10,-19,-34,28,4,-2
1491694830915,1,-119,-3,-17,-1,-17,-47,-29,-52
1491694830915,1,93,12,10,18,26,54,29,11
1491694830916,3,27,-4,-31,-11,3,-17,11,73
1491694830916,3,65,0,3,5,-7,-45,-24,-31
1491694830917,0,-74,-2,1,-49,-102,-26,-46,20
1491694830917,0,103,-10,-1,22,49,79,44,23
1491694830963,1,13,-3,15,32,44,11,-41,-16
1491694830963,1,-104,-10,-19,-2,-29,-118,-14,-16
1491694830965,2,37,14,-38,-43,-60,57,-2,22
1491694830965,2,26,-7,1,4,-12,17,20,12
1491694831019,3,-16,17,20,-14,36,43,-20,5
1491694831019,3,72,0,-37,-32,7,5,-28,18
1491694831020,0,-65,1,28,47,7,-22,24,-19
1491694831020,0,-13,-14,-20,0,35,-14,-13,-61
1491694831021,1,59,28,25,-46,-72,1,23,-46
1491694831021,1,33,2,-35,19,16,22,12,-57
1491694831022,2,50,-18,-8,13,-1,-9,30,-49
1491694831022,2,14,-6,-6,-14,9,34,38,9
1491694831061,0,56,2,-11,-19,50,-21,-28,15
1491694831061,0,-55,-1,0,28,8,-16,-21,18
1491694831066,1,-44,-12,-31,20,-19,20,15,17
1491694831066,1,22,-2,5,-67,-38,-66,-2,60
1491694831067,1,76,-26,-60,3,-7,34,31,-2
1491694831067,1,76,6,22,32,-10,71,32,59
1491694831068,2,-63,-4,38,22,-21,19,5,-76
1491694831068,2,103,5,-16,18,53,-18,-36,32
1491694831110,3,5,-7,18,41,62,23,60,-12
1491694831110,3,-128,-5,1,-16,-41,-20,-30,-37
1491694831113,0,118,7,-1,-61,-83,1,7,11
1491694831113,0,-109,3,7,-25,-113,-122,-73,13
1491694831114,2,-74,-22,-60,-59,-60,-27,-32,-30
1491694831114,2,-97,13,5,50,-54,-37,80,-34
1491694831115,3,55,-4,-23,-19,-30,56,4,45
1491694831115,3,26,-11,-22,96,122,-128,-95,39
1491694831158,0,-35,-1,72,56,-47,80,-6,14
1491694831158,0,-6,-18,-8,33,127,108,23,-3
1491694831162,1,-60,1,-26,-104,-128,-128,31,-48
1491694831162,1,43,-10,-27,-117,-114,81,-108,4
1491694831163,3,-5,4,16,-3,-101,-6,-40,-20
1491694831163,3,-43,6,-53,5,90,-86,42,11
1491694831164,0,127,6,21,-98,-98,18,-7,6
1491694831164,0,-13,-6,-55,-60,-65,-6,-37,-70
1491694831207,1,-128,-15,22,71,-56,-12,55,-13
1491694831207,1,90,-8,-7,61,31,-96,-81,-25
1491694831209,2,20,2,21,-15,96,127,95,55
1491694831209,2,-6,13,-35,44,118,37,-78,-27
1491694831211,0,-25,17,107,127,127,12,9,1
1491694831211,0,-58,-25,-1,-105,-32,0,-30,-66
1491694831212,1,-14,-10,-42,-82,-50,-106,11,-4
1491694831212,1,-85,13,-8,-34,-122,41,-53,-43
1491694831256,2,99,9,-2,78,91,61,8,96
1491694831256,2,-31,-25,-24,-28,-95,20,95,-6
1491694831257,3,111,46,18,-20,58,-88,-128,57
1491694831257,3,-128,1,-26,28,30,6,29,-26
1491694831258,1,51,-18,23,-16,118,110,127,-4
1491694831258,1,8,19,64,-128,-128,-77,-36,11
1491694831259,2,-39,8,-99,-61,-52,60,8,39
1491694831259,2,44,24,32,54,69,74,-8,127
1491694831305,3,-40,-43,77,121,122,127,86,-69
1491694831305,3,-58,10,45,-53,-42,-22,-15,-60
1491694831306,0,-4,-25,-117,-68,-96,-85,-22,-46
1491694831306,0,127,14,-75,62,69,19,29,120
1491694831307,1,62,30,108,103,85,127,-65,25
1491694831307,1,-73,-15,26,127,67,47,97,0
1491694831308,2,31,-15,-36,-128,-120,23,5,-128
1491694831308,2,-46,7,-23,-128,-121,-110,-36,-30
1491694831353,3,57,-1,12,126,71,74,58,98
1491694831353,3,-40,-5,36,70,39,39,-93,-64
1491694831354,0,-99,-19,-15,-60,-41,-47,7,-34
1491694831354,0,49,-5,-43,22,-48,-32,-71,-26
1491694831355,2,-52,-25,110,-1,-2,-64,-82,-72
1491694831355,2,-128,1,-57,-102,-106,2,19,-128
1491694831356,3,58,24,0,-52,-4,42,-116,49
1491694831356,3,-28,3,-26,49,105,72,24,7
1491694831402,0,-18,-4,46,44,-25,55,28,-43
1491694831402,0,-14,-4,1,-17,64,-39,74,56
1491694831403,1,-89,-14,-84,-9,-128,-128,-37,-56
1491694831403,1,-10,-4,-7,-121,-80,49,59,-19
1491694831403,3,-119,-3,-55,-94,-124,14,12,20
1491694831403,3,127,34,-28,-99,-33,-128,-13,-6
1491694831404,0,-112,50,-58,54,-99,-128,-101,-29
1491694831404,0,53,9,1,-33,-83,127,126,43
1491694831450,1,-57,-52,100,124,127,72,-99,-13
1491694831450,1,99,-76,-2,-6,-128,53,41,-72
1491694831452,2,43,32,-104,-90,-13,-60,-44,-35
1491694831452,2,85,38,-38,-21,14,-128,-128,47
1491694831500,0,123,-18,28,59,26,7,103,-4
1491694831500,0,26,2,-88,-67,-95,-86,-128,-24
1491694831501,1,-110,10,-16,11,-93,-128,47,21
1491694831501,1,81,9,86,85,119,118,-49,41
1491694831501,2,-101,13,-21,-6,-12,99,17,-63
1491694831501,2,-2,37,34,-37,-128,-73,23,63
1491694831502,3,127,33,-67,13,54,118,61,69
1491694831502,3,-100,-26,21,112,38,39,87,-34
1491694831548,1,-104,8,7,34,39,-34,-62,-100
1491694831548,1,126,73,34,-28,-128,-10,65,81
1491694831549,2,-63,15,-36,-25,59,77,-48,-32
1491694831549,2,-69,-50,26,92,-60,-28,83,-52
1491694831550,2,-45,5,37,127,114,115,127,42
1491694831550,2,-63,14,20,-16,2,-75,-124,-12
1491694831551,3,58,-15,1,63,107,125,80,-1
1491694831551,3,-97,-27,-42,-62,22,-128,98,-13
1491694831597,0,49,32,127,73,-35,-97,-109,77
1491694831597,0,19,-19,-3,82,40,122,127,-101
1491694831599,1,28,-25,-30,24,-26,-84,52,39
1491694831599,1,-92,-10,-78,-94,-128,-37,-62,5
1491694831599,3,-92,-1,21,-75,-118,-83,-128,-54
1491694831599,3,-17,0,70,117,68,92,74,51
1491694831600,0,-37,-3,56,62,-32,-119,-24,11
1491694831600,0,-76,-17,-80,-82,-71,19,-93,-47
1491694831646,1,88,-8,-25,38,127,88,24,-16
1491694831646,1,35,21,22,-82,-45,-120,-49,37
1491694831647,2,-28,-4,-81,-37,-126,-40,10,11
1491694831647,2,127,14,102,78,127,115,-16,102
1491694831648,3,-128,-15,5,12,9,-119,8,-20
1491694831648,3,5,9,-58,-60,-128,-61,-42,-67
1491694831649,0,56,6,-9,35,91,-24,-9,-25
1491694831649,0,0,-19,21,66,21,57,90,-5
1491694831694,1,-56,12,-12,-128,28,-80,-108,-36
1491694831694,1,58,-15,-15,35,-29,127,111,110
1491694831696,2,-54,12,68,56,117,-19,-61,-68
1491694831696,2,-65,0,-7,-40,-14,-128,-36,18
1491694831696,0,97,-13,-21,35,-8,65,37,83
1491694831696,0,15,17,112,120,-74,-63,-21,-38
1491694831697,1,-49,0,61,65,-26,54,-64,0
1491694831697,1,24,-5,-57,-32,85,-6,-61,60
1491694831743,2,3,3,-91,-128,-128,-8,21,-90
1491694831743,2,4,-19,81,36,-29,120,84,43
1491694831744,3,76,22,5,102,-128,-128,-55,3
1491694831744,3,-120,-8,25,19,51,108,-128,-128
1491694831745,1,-37,-38,40,54,-128,-18,67,-49
1491694831745,1,114,16,-103,-48,-50,-6,-29,16
1491694831746,2,-73,7,127,27,127,57,-30,98
1491694831746,2,-8,1,-101,44,-128,-59,-106,0
1491694831792,3,66,12,34,-94,-53,127,127,-14
1491694831792,3,-66,-11,3,114,52,-49,-125,-66
1491694831793,0,-14,-5,-49,-114,-101,84,61,41
1491694831793,0,-24,1,14,24,67,9,-49,15
1491694831794,2,59,11,25,-32,-76,20,-87,-32
1491694831794,2,-61,-20,-107,-32,127,-51,32,-2
1491694831795,3,-35,21,26,-80,-85,-81,-50,70
1491694831795,3,39,-33,29,76,101,42,32,24
1491694831841,0,3,-7,28,-30,93,90,100,-57
1491694831841,0,-1,-5,8,-86,-111,-53,-13,-62
1491694831842,1,53,13,-110,-102,-30,-33,-5,84
1491694831842,1,41,35,69,74,-13,56,-121,-22
1491694831843,3,-52,-29,121,72,67,127,-16,-23
1491694831843,3,-23,34,-34,72,30,-84,110,17
1491694831844,0,0,11,-66,-51,-119,66,-45,65
1491694831844,0,-33,29,-113,70,-95,24,4,12
1491694831889,1,14,-52,24,93,93,108,6,4
1491694831889,1,0,-33,75,80,57,-114,69,-93
1491694831891,2,-54,-7,38,-82,122,-38,-43,-68
1491694831891,2,-19,74,-70,-128,-128,-71,-31,126
1491694831892,0,-85,-18,54,-78,-128,-35,-1,-17
1491694831892,0,75,-61,86,95,-18,127,111,-72
1491694831893,1,-36,-35,-3,34,119,-58,4,-20
1491694831893,1,-43,31,-104,-23,-67,-111,-118,25
1491694831938,2,37,32,16,-13,26,-27,-20,-25
1491694831938,2,-53,19,48,109,62,75,13,65
1491694831939,3,66,7,-6,10,86,74,-20,7
1491694831939,3,-72,20,-41,-128,-128,-84,-25,-45
1491694831988,1,-2,59,39,31,-101,-86,-21,57
1491694831988,1,-59,-13,20,-119,70,127,42,5
1491694831989,2,24,62,-78,-26,-67,-56,-88,11
1491694831989,2,24,-25,27,-2,43,61,39,4
1491694831990,3,-40,-20,-1,60,127,88,55,-60
1491694831990,3,34,-37,60,104,31,106,71,-12
1491694831991,0,-35,43,-41,-43,-84,-111,-81,13
1491694831991,0,-1,36,-116,-113,-57,-89,-78,56
1491694832036,1,21,-26,93,35,48,99,15,-16
1491694832036,1,27,54,-23,-65,14,2,-4,78
1491694832037,2,-7,-66,13,127,127,127,112,-47
1491694832037,2,-15,14,103,-44,108,10,-8,-49
1491694832038,2,43,19,2,-4,-13,25,-34,1
1491694832038,2,-29,-33,37,38,-55,60,18,12
1491694832039,3,-28,-22,-11,-63,-86,-9,4,-7
1491694832039,3,-19,8,-34,-2,35,-65,5,-11
1491694832085,0,35,12,14,57,-59,-123,-38,46
1491694832085,0,-20,-25,-32,28,-59,12,-2,-44
1491694832088,1,47,18,10,-89,-99,49,5,19
1491694832088,1,-19,8,3,49,21,10,-32,7
1491694832089,3,31,47,-71,-83,-98,-91,-47,65
1491694832089,3,19,-18,-77,-48,-59,-100,-80,52
1491694832090,0,-12,10,21,61,107,47,27,-16
1491694832090,0,17,-15,68,125,126,-8,6,-13
1491694832134,1,-10,-17,37,24,113,81,57,-27
1491694832134,1,-16,-13,-28,-71,3,21,25,-22
1491694832135,2,26,-8,8,-26,-42,-1,30,64
1491694832135,2,14,22,30,-40,-98,-79,-58,-35
1491694832137,0,-41,-10,-36,27,-39,37,48,0
1491694832137,0,37,-6,71,-2,-45,-10,-8,10
1491694832138,1,-7,19,-52,-5,-8,-19,-12,-9
1491694832138,1,-31,-12,41,-1,-27,10,-2,-4
1491694832182,2,-62,-34,-54,20,7,14,-7,-14
1491694832182,2,13,27,15,-51,-53,-21,-1,11
1491694832183,3,13,-16,4,53,31,-2,5,-4
1491694832183,3,10,-21,19,2,-36,0,-18,-4
1491694832184,1,19,-25,-1,1,-27,-38,-8,-23
1491694832184,1,-20,14,12,2,-11,-23,-20,1
1491694832184,2,-46,2,-8,-40,-25,-41,-35,-41
1491694832184,2,1,-24,-15,19,9,25,40,39
1491694832231,3,-9,-1,5,1,27,38,-20,-14
1491694832231,3,-23,0,-16,-3,-6,4,-11,-11
1491694832232,0,3,-17,6,-10,-6,-9,13,6
1491694832232,0,-40,19,-6,-23,-8,-31,-27,-10
1491694832233,2,-13,2,10,4,-4,31,1,-11
1491694832233,2,-32,11,8,-27,-19,-16,3,-25
1491694832233,3,-37,76,-16,-8,40,65,36,2
1491694832233,3,29,115,14,33,-17,29,-16,41
1491694832280,0,-41,35,-17,-14,-63,-55,-26,-50
1491694832280,0,5,1,-5,13,23,70,-8,-12
1491694832281,1,16,-50,36,35,25,39,25,5
1491694832281,1,17,-81,-13,1,41,24,21,-10
1491694832282,3,36,-32,-5,-19,-24,7,65,38
1491694832282,3,-9,-21,-1,-87,-118,-82,-24,-47
1491694832283,0,13,-39,-4,8,42,38,-3,9
1491694832283,0,-17,0,-22,28,26,-57,8,27
1491694832328,1,5,0,-16,-53,-13,-22,-32,1
1491694832328,1,-5,-13,9,22,45,-19,-15,-5
1491694832329,2,30,12,10,-22,-40,-31,45,28
1491694832329,2,-26,-26,-2,12,26,50,2,-11
1491694832330,0,-2,36,-21,-92,10,9,3,-29
1491694832330,0,-13,17,-52,0,-46,-9,-18,25
1491694832331,1,-18,-1,-1,5,-7,23,6,4
1491694832331,1,6,4,36,57,64,69,8,-21
1491694832377,2,8,-40,46,127,126,119,57,-2
1491694832377,2,45,19,-2,-90,-95,-49,-11,28
1491694832378,3,-27,25,-24,-87,-89,-14,-67,-4
1491694832378,3,-4,16,-16,45,-6,-28,-68,-7
1491694832379,0,-42,25,-2,29,53,-26,77,0
1491694832379,0,6,-5,46,-8,42,59,29,4
1491694832380,1,-42,-49,-12,18,-60,82,51,8
1491694832380,1,-19,7,-10,-21,-2,-117,-48,6
1491694832474,2,26,11,1,-39,-25,32,-34,13
1491694832474,2,17,-6,15,38,21,66,25,4
1491694832475,3,62,-22,24,23,80,-36,21,-9
1491694832475,3,-7,-28,13,26,56,38,-11,-32
1491694832476,1,-62,35,46,-76,-62,32,-30,26
1491694832476,1,65,5,-2,101,69,110,123,12
1491694832477,2,-89,-3,15,51,65,123,-119,-104
1491694832477,2,77,-3,-1,14,82,-18,85,-8
1491694832523,3,-9,-12,-39,-40,-63,-97,-104,2
1491694832523,3,-101,12,14,-9,33,46,8,11
1491694832525,0,127,15,63,86,55,22,-4,26
1491694832525,0,-29,-42,33,-14,-31,-30,31,-46
1491694832530,2,5,36,-30,37,53,13,16,-13
1491694832530,2,3,-63,61,122,127,127,31,-44
1491694832532,3,52,4,55,15,-63,-37,-69,1
1491694832532,3,-36,29,40,-70,-83,-96,-11,-20
1491694832573,0,-62,-41,-68,-32,12,-128,11,36
1491694832573,0,-108,22,-36,78,106,59,-61,41
1491694832574,1,77,-42,20,52,-9,64,92,-45
1491694832574,1,32,-22,16,13,119,-77,-48,-2
1491694832575,0,14,21,46,58,-87,15,49,14
1491694832575,0,17,-15,4,-47,46,-36,-25,-53
1491694832576,1,-100,-18,-71,-70,-120,-37,25,-2
1491694832576,1,12,25,29,5,57,63,2,1
1491694832621,2,83,-10,12,16,-3,-128,-38,111
1491694832621,2,80,-23,-15,35,-128,42,14,-3
1491694832622,3,-96,-88,10,24,127,-42,-37,-46
1491694832622,3,88,-102,3,68,-116,3,26,31
1491694832623,1,68,86,-46,-28,-82,-59,-50,-14
1491694832623,1,-128,24,40,2,54,109,1,-41
1491694832624,2,53,-20,0,-4,114,20,27,6
1491694832624,2,74,-26,48,-15,-25,38,-48,8
1491694832671,3,-103,-32,-18,91,127,85,14,7
1491694832671,3,78,4,68,71,-128,-26,27,-4
1491694832672,0,7,-4,-89,-128,49,-106,-48,-104
1491694832672,0,-71,58,-44,-52,-75,-128,-73,-3
1491694832673,2,43,-18,0,65,127,127,15,-37
1491694832673,2,-3,31,20,17,-68,-128,-3,19
1491694832675,3,4,-10,-22,-74,24,15,-63,14
1491694832675,3,-76,10,-35,-62,-63,67,39,-31
1491694832718,0,64,50,58,49,-6,27,102,33
1491694832718,0,-86,15,-16,-30,-96,23,-51,-15
1491694832719,1,-14,1,-20,-98,-128,-109,15,-84
1491694832719,1,-67,-26,-25,57,127,-62,-48,7
1491694832720,2,70,-3,9,4,14,11,30,77
1491694832720,2,44,-32,21,-4,-16,-43,1,-27
1491694832721,3,-57,60,-24,85,-45,43,8,79
1491694832721,3,35,0,28,-37,127,57,-20,-84
1491694832767,0,-98,25,-3,71,0,-128,-76,8
1491694832767,0,-58,-47,43,15,0,0,-42,-30
1491694832768,1,38,3,-7,7,68,52,-34,-17
1491694832768,1,77,33,-45,-108,-128,21,77,-11
1491694832769,3,127,-54,19,37,64,61,-9,-20
1491694832769,3,26,-9,-8,9,3,-70,1,22
1491694832770,0,-2,-32,-5,10,-13,-19,-3,-56
1491694832770,0,-47,11,0,-6,-29,-57,-5,-30
1491694832816,1,-14,-14,0,0,25,67,75,14
1491694832816,1,-3,37,10,-20,81,51,36,0
1491694832817,2,-4,-39,68,92,-1,15,-30,57
1491694832817,2,-52,16,-34,-99,-58,-61,-70,-84
1491694832818,0,-29,13,2,-13,56,45,12,14
1491694832818,0,94,6,36,49,15,-13,-30,8
1491694832819,1,-71,-1,14,0,-38,-4,28,14
1491694832819,1,63,-13,-27,-20,-20,-94,-80,19
1491694832865,2,-24,9,12,-27,-7,89,87,-19
1491694832865,2,31,-26,-17,27,9,127,-28,29
1491694832866,3,10,-3,-4,-103,-128,-120,-45,0
1491694832866,3,61,24,-15,-5,6,30,36,57
1491694832867,1,41,64,53,28,111,-29,-17,127
1491694832867,1,6,9,-32,-21,-6,-65,-14,81
1491694832868,2,-35,-4,15,-53,-85,-67,-38,55
1491694832868,2,92,9,-48,-26,-47,-50,-18,54
1491694832913,3,-38,-19,54,62,7,17,-4,-28
1491694832913,3,45,-46,-22,47,37,13,60,-87
1491694832915,0,-21,-30,14,95,66,115,92,-109
1491694832915,0,-46,-39,-39,-95,-63,-70,-3,-128
1491694832962,2,-70,10,3,-1,-33,-37,13,-16
1491694832962,2,45,-6,7,50,55,31,-15,2
1491694832964,3,-80,-5,-4,-38,-10,23,-59,-26
1491694832964,3,-7,18,-8,-8,41,4,33,17
1491694832966,0,60,18,-2,-23,-36,-21,-48,52
1491694832966,0,1,8,-4,-18,48,-15,-43,73
1491694832967,1,-46,-5,13,0,-4,10,-15,63
1491694832967,1,58,4,-1,20,31,-33,-68,-14
1491694833011,3,-17,-21,-20,16,-19,8,21,-27
1491694833011,3,13,-15,2,26,27,12,26,-25
1491694833012,0,-44,-16,-9,8,47,26,11,-28
1491694833012,0,51,-2,48,57,56,47,53,-48
1491694833014,0,12,7,-12,-8,17,-13,15,35
1491694833014,0,-40,-1,-9,-33,-55,-43,-37,-22
1491694833015,1,87,6,-5,7,16,0,20,11
1491694833015,1,-60,5,7,1,-58,-11,-22,-37
1491694833060,2,-45,-12,-10,6,23,61,17,13
1491694833060,2,-3,21,14,41,118,-11,-60,18
1491694833062,3,36,0,-17,-22,-49,-21,-31,-20
1491694833062,3,-60,-5,12,-21,-8,9,39,9
1491694833063,0,-12,9,-28,1,19,-11,-17,64
1491694833063,0,-80,-21,-8,0,-2,88,113,-52
1491694833064,1,-58,4,11,-45,-58,13,-79,-42
1491694833064,1,52,18,8,11,105,-72,-44,42
1491694833108,2,-29,-26,-81,-41,-127,-55,-63,11
1491694833108,2,46,59,23,-27,-1,84,76,26
1491694833111,3,25,-17,30,103,97,14,-29,28
1491694833111,3,-101,-30,-5,7,-105,30,-5,-57
1491694833111,1,-36,-2,36,71,114,-54,-5,-24
1491694833111,1,-15,-11,-22,-56,-25,92,108,-19
1491694833112,2,20,9,23,-49,-69,-83,27,46
1491694833112,2,-33,36,-72,-105,-113,21,-64,-23
1491694833157,3,-62,-11,-25,-32,-122,-16,42,57
1491694833157,3,83,19,-10,-16,60,-89,-99,-19
1491694833158,0,-51,9,108,113,77,127,30,-15
1491694833158,0,-36,-34,-3,-56,-70,-46,45,-59
1491694833159,2,113,26,2,7,125,-16,-61,22
1491694833159,2,-47,1,2,81,-23,40,-37,40
1491694833160,3,83,-14,18,17,25,-24,-4,-50
1491694833160,3,3,-16,-50,-90,-96,-17,46,10
1491694833206,0,-80,27,40,89,127,79,-115,-95
1491694833206,0,1,1,42,63,-50,-128,4,64
1491694833206,1,-72,-6,-101,-115,-75,76,68,45
1491694833206,1,41,-9,81,115,127,9,-77,-34
1491694833207,3,42,26,-1,91,61,-16,41,46
1491694833207,3,67,21,80,122,-76,7,-38,32
1491694833208,0,50,-29,-67,-37,90,96,90,3
1491694833208,0,-35,-29,11,-25,-27,33,-22,-92
1491694833254,1,-119,20,19,-100,-128,-128,-49,-63
1491694833254,1,10,-2,-15,74,127,27,69,21
1491694833303,2,-21,-31,29,121,-108,12,-30,-47
1491694833303,2,79,4,-64,-111,-44,7,-86,-36
1491694833353,0,-116,20,33,-23,-75,-128,-73,-2
1491694833353,0,117,19,39,127,127,127,127,109
1491694833356,1,17,2,34,37,14,101,16,5
1491694833356,1,-93,7,-24,-128,-66,-111,-54,8
1491694833401,2,87,-8,-66,-65,25,37,101,46
1491694833401,2,56,38,23,-18,-67,59,-93,108
1491694833403,3,-110,12,42,87,99,46,-84,-36
1491694833403,3,29,-8,-11,-65,-37,25,119,33
1491694833449,1,-29,9,-30,-93,60,79,39,108
1491694833449,1,-51,-55,19,32,123,127,27,-57
1491694833451,2,-49,-28,15,10,-2,-16,-16,-30
1491694833451,2,28,22,33,-53,-2,-52,85,-14
1491694833453,2,93,3,36,99,112,95,70,28
1491694833453,2,-103,-41,10,-91,96,-11,-5,-50
1491694833453,3,127,19,-31,-19,-94,-110,-47,4
1491694833453,3,-126,-9,-42,34,-128,39,-61,-28
1491694833498,0,111,18,54,33,87,110,91,32
1491694833498,0,-101,-5,-36,22,89,127,124,50
1491694833500,3,-23,-70,-44,-113,-103,-101,38,-70
1491694833500,3,97,-35,31,83,-49,-9,12,63
1491694833503,0,-100,-15,-106,64,88,-118,-128,-25
1491694833503,0,23,52,-5,-25,-128,42,-46,34
1491694833504,1,48,-1,42,-25,127,125,78,18
1491694833504,1,-51,-54,37,127,10,24,126,9
1491694833547,2,-57,51,-52,-128,22,-80,-51,-93
1491694833547,2,127,24,4,26,49,-106,16,32
1491694833548,3,-34,9,-22,-28,-90,114,91,-20
1491694833548,3,-90,12,0,-128,-63,16,26,-45
1491694833548,1,-34,6,-7,-81,127,1,-128,-101
1491694833548,1,24,-31,-53,72,-124,42,93,5
1491694833549,2,18,-26,51,50,54,42,45,-33
1491694833549,2,61,11,-36,-18,127,127,76,101
1491694833596,3,-43,-9,-26,-2,-128,-43,41,4
1491694833596,3,15,23,1,9,127,-56,-107,-39
1491694833597,0,-46,7,34,-42,-122,-2,27,70
1491694833597,0,1,-11,43,22,-103,-57,-81,-85
1491694833597,2,-64,0,-5,-6,-111,-128,-58,-120
1491694833597,2,23,68,-32,25,124,40,127,54
1491694833598,3,-56,35,101,10,27,80,-118,39
1491694833598,3,-128,53,-87,43,-46,-121,76,-35
1491694833644,0,74,-28,39,30,20,127,23,-32
1491694833644,0,-98,-128,-91,-86,-103,89,1,-107
1491694833645,1,-59,52,24,85,-103,-117,8,37
1491694833645,1,59,9,3,-112,-38,-28,-113,-21
1491694833646,3,13,-30,-13,-69,109,123,41,22
1491694833646,3,30,-7,68,61,25,73,11,-23
1491694833648,0,16,-7,-128,-128,-106,-128,43,-9
1491694833648,0,-63,-17,1,-27,-1,111,35,18
1491694833697,1,4,-29,12,94,46,105,50,34
1491694833697,1,-25,-30,17,74,-68,-22,17,-29
1491694833697,2,31,21,-57,-68,-61,-104,-128,-23
1491694833697,2,-17,-11,-20,123,49,75,39,-35
1491694833698,0,-72,-2,40,13,123,98,-64,-42
1491694833698,0,75,13,-2,43,-61,-128,24,40
1491694833698,1,51,9,-25,-68,-22,42,69,-5
1491694833698,1,-36,-14,-18,127,127,85,-37,-61
1491694833742,2,-36,11,67,11,-128,-105,12,102
1491694833742,2,51,25,45,-80,-59,61,-7,19
1491694833743,3,27,-1,-43,86,127,40,-43,-84
1491694833743,3,50,1,14,-6,-128,-128,79,87
1491694833744,1,120,63,100,35,34,1,67,-2
1491694833744,1,48,37,-24,-128,-98,-19,-55,9
1491694833745,2,-61,25,-64,32,78,96,109,-11
1491694833745,2,-3,-44,71,86,94,57,87,28
1491694833790,3,-86,-20,-60,-125,-128,-71,-107,-93
1491694833790,3,52,-31,-13,-52,3,-16,-65,-36
1491694833792,0,121,0,-2,81,89,58,114,107
1491694833792,0,-41,14,52,29,-83,-34,-9,39
1491694833792,1,-31,-26,-11,28,-74,5,-53,6
1491694833792,1,-128,-33,17,-114,-41,82,101,27
1491694833793,2,127,40,-42,3,39,16,-125,-75
1491694833793,2,-113,4,5,19,-49,14,96,-16
1491694833839,3,-15,-31,33,7,114,41,-27,13
1491694833839,3,23,11,-88,-55,29,14,-26,26
1491694833841,0,14,-10,46,35,-63,-19,-27,70
1491694833841,0,-44,4,42,-16,-33,-15,-28,24
1491694833842,2,-92,-29,-52,-29,117,127,114,28
1491694833842,2,-20,38,72,5,-14,-101,-79,54
1491694833843,3,85,-10,-25,-78,-125,-86,48,71
1491694833843,3,-88,-16,-16,31,15,9,55,-51
1491694833888,0,-36,-8,-33,82,40,-105,-102,-51
1491694833888,0,74,-47,-19,-36,-54,68,111,71
1491694833890,1,21,-6,-14,-76,-19,127,109,-21
1491694833890,1,23,71,5,-36,49,-122,-100,26
1491694833937,3,-16,52,-92,-62,-64,127,-83,20
1491694833937,3,16,0,-59,67,-128,-63,76,28
1491694833939,0,-77,-47,127,92,63,-10,-67,4
1491694833939,0,36,3,-58,58,41,-99,-6,-45
1491694833940,1,34,-9,-87,-84,-97,-126,-30,-48
1491694833940,1,-9,4,22,38,55,104,-25,19
1491694833941,2,-7,40,-10,43,51,0,5,60
1491694833941,2,36,-44,76,104,127,127,67,-86
1491694833987,0,36,65,-26,9,10,52,-74,-81
1491694833987,0,76,63,70,74,127,110,29,35
1491694833989,1,-12,-40,37,113,127,74,127,-33
1491694833989,1,-22,-19,39,-115,-60,-44,-57,42
1491694833990,1,27,43,-30,82,-80,-75,-18,106
1491694833990,1,-10,-59,95,127,127,50,72,-32
1491694833990,2,42,6,120,-21,37,68,60,-55
1491694833990,2,-23,-114,-128,-113,-127,-20,37,-77
1491694834034,3,-83,102,-49,-125,-87,-100,-66,-24
1491694834034,3,65,84,-111,80,46,-113,12,33
1491694834036,0,-24,10,63,88,88,83,119,48
1491694834036,0,-3,121,-91,-85,-53,-10,-57,-47
1491694834037,2,42,-70,53,-48,-107,-33,-26,-2
1491694834037,2,-45,-53,-47,-69,-101,-117,-33,-31
1491694834038,3,-21,-20,-15,11,-114,-66,-41,37
1491694834038,3,28,-47,-49,58,46,23,-36,17
1491694834083,0,1,-17,42,16,114,26,28,2
1491694834083,0,-24,21,76,85,48,82,-12,38
1491694834084,1,7,-94,-39,-52,-65,54,68,-9
1491694834084,1,-8,39,-55,-21,-116,-81,-36,-54
1491694834086,3,-8,-2,65,68,37,120,97,-23
1491694834086,3,-4,-22,22,-62,-19,60,21,-6
1491694834086,0,-21,65,-128,-128,-128,-128,-54,-15
1491694834086,0,46,-20,-17,35,-44,-50,-37,10
1491694834132,1,23,12,14,127,99,-6,25,47
1491694834132,1,-18,3,56,7,-45,-1,-7,-23
1491694834133,2,36,31,29,-50,11,-24,0,7
1491694834133,2,-77,-21,-31,23,100,42,22,-15
1491694834134,3,-37,-3,30,91,14,21,-12,-13
1491694834134,3,-69,33,-16,-96,-54,-29,-53,-22
1491694834135,0,-21,-12,-69,-11,-21,-2,20,14
1491694834135,0,-31,-1,42,56,-40,-24,4,35
1491694834181,1,-44,-14,27,75,116,50,26,-31
1491694834181,1,1,-11,-26,39,127,85,14,-21
1491694834182,2,-56,44,24,-52,-92,-88,-118,31
1491694834182,2,-105,24,-65,-55,-43,7,27,-5
1491694834183,0,67,-3,-4,22,74,127,50,12
1491694834183,0,92,16,4,-67,-67,-112,-75,-22
1491694834184,1,51,-5,-22,-70,-51,-45,-17,-16
1491694834184,1,53,11,24,-7,1,3,21,9
1491694834229,2,56,8,-17,-10,-44,-37,2,9
1491694834229,2,47,32,4,-9,-18,-2,-23,-8
1491694834231,3,29,-13,-54,-31,14,15,13,-5
1491694834231,3,33,29,-25,-80,-79,-44,-12,-4
1491694834232,1,16,-4,-22,-3,4,1,9,-20
1491694834232,1,10,15,46,-34,-19,-5,0,6
1491694834233,2,5,-30,-35,15,18,7,11,-12
1491694834233,2,16,-21,22,44,20,15,13,23
1491694834278,3,6,-13,-21,-35,-32,-23,-18,12
1491694834278,3,-4,12,-30,0,7,0,-49,-39
1491694834279,0,1,-1,12,17,-32,-52,-6,-2
1491694834279,0,12,-11,22,4,1,-11,-10,-30
1491694834279,2,2,-6,21,-22,-10,29,22,27
1491694834279,2,6,19,-31,-28,-14,1,-10,0
1491694834281,3,-3,-38,25,26,0,-15,-17,-15
1491694834281,3,15,-11,4,15,18,-4,11,8
1491694834327,0,5,-8,-39,-1,-4,3,0,-12
1491694834327,0,26,16,21,-19,-16,0,7,9
1491694834329,1,-30,13,-6,19,28,34,35,5
1491694834329,1,-32,-10,17,2,3,-7,-11,-1
1491694834330,3,-12,13,8,26,3,-23,-50,-31
1491694834330,3,39,3,-30,-74,-32,8,20,-10
1491694834331,0,29,1,-16,40,21,-1,-2,6
1491694834331,0,-4,-7,30,14,0,8,6,-11
1491694834376,1,7,-14,-8,-22,-8,-2,1,8
1491694834376,1,-2,8,13,21,-7,-11,2,15
1491694834377,2,-8,-14,-43,-4,29,16,-14,-9
1491694834377,2,32,0,17,-43,-23,-9,-20,5
1491694834425,0,-23,-7,17,-2,0,-12,-25,-25
1491694834425,0,-65,-18,-35,0,-18,-2,-18,-18
1491694834426,1,-16,27,34,22,10,-12,-8,15
1491694834426,1,-30,4,-10,19,25,2,-10,6
1491694834427,2,16,-6,0,21,20,31,24,5
1491694834427,2,15,13,7,-5,-17,13,18,9
1491694834428,3,18,-10,-6,-29,7,14,12,-37
1491694834428,3,8,3,12,-10,-25,-20,-32,11
1491694834473,1,-3,6,-3,-10,21,-66,-4,3
1491694834473,1,30,-28,-13,4,-33,13,-10,22
1491694834475,2,2,-29,-6,-11,-33,87,13,-29
1491694834475,2,-16,-4,5,0,21,-95,-39,8
1491694834476,1,40,-35,10,16,8,-2,4,23
1491694834476,1,-51,-8,-8,-8,-13,-54,-35,-46
1491694834477,2,-14,18,-13,-30,-23,45,27,-2
1491694834477,2,-20,-8,24,1,34,-25,-3,-27
1491694834522,3,0,33,-18,-5,-29,-8,-16,45
1491694834522,3,4,19,-6,20,-46,-31,-13,-16
1491694834524,0,35,-12,11,29,33,26,6,-21
1491694834524,0,-89,-14,-26,-94,8,63,-4,-30
1491694834525,2,7,24,14,0,9,-5,-18,-8
1491694834525,2,15,-23,4,26,-46,-33,-30,2
1491694834526,3,-84,35,11,-2,36,16,21,-22
1491694834526,3,31,-5,-2,-65,-71,-18,25,-18
1491694834571,0,-63,-5,-26,-3,26,-83,-13,14
1491694834571,0,74,8,21,78,92,28,4,35
1491694834572,1,-70,-18,-23,-22,-111,-20,10,-5
1491694834572,1,79,-1,-7,-56,-54,32,2,25
1491694834574,3,98,-8,47,87,59,-60,4,7
1491694834574,3,-57,5,-29,-73,-62,-56,-14,-26
1491694834574,0,13,29,-14,13,-65,-56,-65,32
1491694834574,0,-63,-39,-38,-14,14,16,-7,-46
1491694834620,1,62,9,-8,13,5,0,-11,20
1491694834620,1,-60,-26,-3,41,127,65,16,21
1491694834621,2,22,12,5,-22,-38,-17,109,53
1491694834621,2,30,63,-45,-93,-128,-88,-128,-55
1491694834622,0,-15,-6,27,108,93,53,-7,9
