1491695160583,0,-52,-70,-112,31,64,54,-112,59
1491695160583,0,9,107,-6,-66,42,-39,85,-109
1491695160585,1,-3,81,35,-56,-31,-12,102,-111
1491695160585,1,12,39,59,-21,-44,-2,127,-119
1491695160586,2,18,-9,57,-16,-71,6,127,-101
1491695160586,2,3,-73,16,15,-35,18,23,-13
1491695160632,3,-6,-68,-30,16,-5,-2,-15,0
1491695160632,3,0,-14,-2,-12,-15,0,-13,-6
1491695160633,0,5,-21,0,-1,-1,-14,-22,12
1491695160633,0,-4,-21,-34,5,2,4,-42,32
1491695160634,1,1,3,20,13,7,-7,-19,15
1491695160634,1,-17,-21,-23,15,13,1,-47,42
1491695160634,2,0,3,-2,-7,5,-14,-10,17
1491695160634,2,1,26,7,6,2,-2,-13,3
1491695160680,3,-10,-32,-29,-1,-3,6,-14,11
1491695160680,3,-7,16,16,7,12,1,-15,10
1491695160681,0,3,11,2,-7,1,-12,-4,-4
1491695160681,0,-15,-32,7,-10,-17,1,-4,0
1491695160683,1,6,-1,-8,4,3,1,-12,21
1491695160683,1,-6,-12,-26,-3,8,-4,-9,-7
1491695160729,2,15,58,17,-5,-2,-8,13,-3
1491695160729,2,3,24,17,2,-7,0,-13,16
1491695160730,3,-3,-45,-25,-3,5,-1,-10,-7
1491695160730,3,8,16,-12,-4,1,-5,-4,24
1491695160734,0,-2,-7,13,-9,-11,-7,3,-8
1491695160734,0,-12,7,-20,4,-1,2,-7,4
1491695160741,2,-5,1,1,-8,-2,-5,-3,-1
1491695160741,2,0,24,42,16,1,0,-9,12
1491695160777,3,-17,-23,-32,-13,-2,-1,-1,3
1491695160777,3,-1,13,2,1,1,1,-6,3
1491695160778,0,0,1,31,4,4,-4,1,5
1491695160778,0,39,-96,-66,-14,-7,-3,-2,-3
1491695160779,3,9,-25,-23,-3,-6,-3,-6,5
1491695160779,3,6,-19,37,13,3,-1,-6,-5
1491695160784,0,9,42,16,-4,-1,-3,-1,-7
1491695160784,0,-10,19,43,9,-3,2,-3,1
1491695160826,1,-15,-27,14,2,0,0,1,-12
1491695160826,1,-6,22,-23,-16,-7,-4,3,-9
1491695160827,2,4,-41,-12,4,-1,-2,6,-11
1491695160827,2,-4,29,13,7,0,-2,3,-9
1491695160829,0,2,-14,-1,3,1,-1,5,-6
1491695160829,0,-5,-8,-20,-1,-3,0,-1,-2
1491695160832,1,9,42,42,10,1,-2,-2,-2
1491695160832,1,-12,-8,-20,-5,-5,-2,-2,0
1491695160875,2,17,43,-3,1,4,1,4,1
1491695160875,2,-12,-14,-33,-5,1,-2,-5,2
1491695160884,3,-7,-8,20,6,-2,-2,0,-4
1491695160884,3,-9,-4,12,-6,-4,-3,-4,-5
1491695160886,0,2,-8,0,25,2,-1,2,-2
1491695160886,0,-7,13,25,-18,-2,0,-1,-3
1491695160892,1,-10,-28,-50,-11,5,1,-6,4
1491695160892,1,-7,-44,4,5,-1,-1,-5,5
1491695160972,2,-1,6,-1,-12,-8,-6,-1,2
1491695160972,2,1,7,0,11,3,0,-1,4
1491695160973,3,-10,-38,-30,-18,-2,-3,-5,-3
1491695160973,3,10,28,9,-5,-6,-2,-6,15
1491695160974,1,19,34,2,8,-4,-4,-2,3
1491695160974,1,-7,-47,2,-3,3,-1,2,-6
1491695160975,2,0,16,-13,-16,0,-4,-9,2
1491695160975,2,-8,12,11,4,-2,-3,-5,8
1491695161022,3,2,23,-2,-13,3,-1,-2,7
1491695161022,3,4,54,18,33,24,6,-47,51
1491695161023,0,1,-4,13,-11,-5,4,13,-51
1491695161023,0,11,-12,10,-10,-10,-8,15,-46
1491695161024,2,-10,9,-4,-2,7,2,5,8
1491695161024,2,-6,-4,16,17,9,6,12,-1
1491695161024,3,-11,-6,-3,7,4,7,2,-3
1491695161024,3,-8,-13,26,12,4,5,13,-10
1491695161071,0,16,10,-7,-8,-4,4,4,12
1491695161071,0,18,-42,-8,7,0,-1,-6,12
1491695161074,1,19,10,4,-13,-1,-2,-6,1
1491695161074,1,-5,12,-6,-2,-5,-1,6,-11
1491695161084,0,7,2,-1,-4,-4,-9,9,22
1491695161084,0,-9,16,-3,-3,3,9,-25,-22
1491695161086,1,-64,-37,-5,1,-2,3,-5,0
1491695161086,1,-13,-4,-2,-3,-1,3,0,-8
1491695161122,2,6,1,2,3,3,6,2,14
1491695161122,2,7,-1,0,-6,-7,-16,7,5
1491695161124,3,0,-14,1,-1,-2,-4,-4,-9
1491695161124,3,-4,-3,-3,1,2,0,-2,-12
1491695161127,1,-6,-10,-9,-16,-1,-2,-3,0
1491695161127,1,-8,4,-10,-5,3,1,7,-5
1491695161128,2,-20,-30,-4,13,-10,-4,-14,-2
1491695161128,2,16,26,6,-11,-13,-6,-2,9
1491695161167,3,-4,2,40,7,-4,2,1,3
1491695161167,3,-26,-22,-48,-16,-8,-15,-3,-4
1491695161168,0,-1,-14,-7,-10,0,43,-3,-6
1491695161168,0,17,-9,-2,3,5,-23,13,3
1491695161168,2,9,25,4,-2,9,-34,15,-9
1491695161168,2,-9,-11,-5,-4,-2,18,2,8
1491695161170,3,15,63,-6,4,3,6,7,5
1491695161170,3,23,-8,26,-7,-15,0,-23,11
1491695161216,0,-18,6,-14,-4,-6,-34,-23,-3
1491695161216,0,6,21,4,-4,-1,15,-2,10
1491695161217,1,7,-6,-5,-9,-3,-6,-4,3
1491695161217,1,-21,-22,-19,1,6,4,4,-2
1491695161217,2,-24,-29,-36,9,-12,19,25,15
1491695161217,2,1,-23,19,-15,-18,-42,-67,-22
1491695161219,3,-10,5,-18,-14,-13,7,-8,-15
1491695161219,3,66,39,28,16,13,-5,25,7
1491695161265,0,-4,1,6,-11,11,15,16,-12
1491695161265,0,7,-3,-12,9,13,37,26,5
1491695161265,1,-31,-5,-8,-6,-6,-12,7,6
1491695161265,1,55,-4,-17,-1,-10,-32,-24,-10
1491695161266,3,-19,-43,-42,-3,4,-2,-10,-2
1491695161266,3,13,-2,-1,-19,-15,-16,3,1
1491695161267,0,-30,-3,-16,8,9,-14,-66,6
1491695161267,0,42,-6,2,-14,-10,-2,-15,-4
1491695161313,1,-28,0,12,26,-2,76,47,1
1491695161313,1,12,9,-14,-29,-7,-80,4,-9
1491695161314,2,47,4,2,-6,-20,-15,6,20
1491695161314,2,-115,-2,-10,-14,-12,-26,12,-13
1491695161315,0,-68,-18,0,-8,0,12,-4,-31
1491695161315,0,17,-7,12,31,-7,-59,-64,9
1491695161317,1,-34,-22,1,-15,-2,-22,-28,-37
1491695161317,1,-11,12,16,41,59,110,83,88
1491695161362,2,127,-19,-47,-10,10,38,-23,-31
1491695161362,2,-51,10,-7,-18,-7,43,58,-10
1491695161364,3,-106,0,37,21,-6,-60,-16,-25
1491695161364,3,33,8,15,-1,-31,-6,-44,27
1491695161364,1,-2,0,-8,-48,-29,-43,-30,6
1491695161364,1,-8,-25,-1,31,13,-40,60,-11
1491695161365,2,28,26,8,-9,0,64,27,34
1491695161365,2,125,-4,-14,0,23,10,-1,-11
1491695161411,3,79,55,23,11,22,6,-9,16
1491695161411,3,-116,-36,-8,3,-13,58,-91,-65
1491695161412,0,50,-3,4,-7,-13,-120,-13,0
1491695161412,0,-32,46,14,0,-1,-13,2,4
1491695161413,2,-128,-9,-2,-32,-25,-86,-33,-28
1491695161413,2,86,-12,-21,-1,-40,-29,-43,-12
1491695161414,3,-22,30,-10,-9,17,81,93,59
1491695161414,3,35,8,0,-9,-12,-51,-41,-17
1491695161460,0,-38,-40,-9,-2,13,17,-42,19
1491695161460,0,-84,-4,0,-1,-18,-74,3,-5
1491695161461,1,-56,-16,4,-2,-4,48,70,-17
1491695161461,1,43,40,12,7,25,29,27,12
1491695161463,3,109,-8,-9,-6,-20,-33,-62,-31
1491695161463,3,-59,-8,-5,-12,-10,-34,5,0
1491695161464,0,-3,13,-15,5,-2,-17,2,-13
1491695161464,0,-21,-12,10,30,33,127,105,31
1491695161509,1,-128,-23,-26,-59,-25,-105,-31,-6
1491695161509,1,121,49,34,48,-17,-11,41,4
1491695161510,2,68,24,21,-21,-13,40,16,28
1491695161510,2,-30,9,-16,-11,-14,-38,-59,-36
1491695161511,0,56,70,33,14,-2,-29,62,12
1491695161511,0,-35,-4,5,-7,19,58,19,-2
1491695161511,1,-6,0,-22,7,-17,-8,-12,-16
1491695161511,1,-13,33,-5,6,-9,-76,-78,-41
1491695161557,2,65,-10,9,-23,-22,14,-12,-13
1491695161557,2,-54,-14,-30,-22,7,5,22,10
1491695161558,3,79,27,11,13,-3,24,11,-1
1491695161558,3,-18,4,4,-4,-1,-31,-37,-4
1491695161559,1,52,6,-20,-11,-1,18,49,-18
1491695161559,1,44,-26,-6,-25,2,40,10,-29
1491695161560,2,35,-12,7,29,8,-11,59,15
1491695161560,2,-36,-55,39,6,-14,-28,20,-26
1491695161606,3,110,-68,5,18,13,46,51,-39
1491695161606,3,18,-74,-3,-16,-20,-12,29,-26
1491695161607,0,-90,-114,6,0,-23,-25,-20,-50
1491695161607,0,6,-48,10,20,20,27,51,9
1491695161608,1,-128,-91,-7,-8,-7,-12,-49,-10
1491695161608,1,-103,-52,19,13,12,-9,-6,49
1491695161609,2,-128,-49,-7,1,29,17,-68,66
1491695161609,2,-128,-6,-5,-6,-3,-13,-64,108
1491695161655,3,-6,14,3,1,5,-21,-103,96
1491695161655,3,-21,59,-3,-27,15,-14,-104,109
1491695161656,0,91,50,-19,-16,4,-1,-80,112
1491695161656,0,93,61,-9,-19,17,-4,-121,111
1491695161657,2,65,54,2,-1,4,-20,-64,76
1491695161657,2,113,55,-5,0,-1,32,-69,94
1491695161658,3,-77,35,14,13,11,-16,-51,-44
1491695161658,3,55,30,6,17,-7,2,44,-41
1491695161703,0,-7,26,-9,-10,-2,27,65,-79
1491695161703,0,32,12,-27,-16,-17,-16,72,-128
1491695161704,1,-14,16,14,12,-11,37,63,-73
1491695161704,1,-19,-2,-2,3,-12,-26,114,-120
1491695161705,3,-8,-3,-5,3,-8,-15,63,-95
1491695161705,3,-18,24,21,20,10,33,41,-63
1491695161706,0,-39,-15,2,26,1,-1,78,-62
1491695161706,0,-57,-3,4,-32,-11,-5,39,-75
1491695161752,1,30,-12,-13,4,-3,6,71,-40
1491695161752,1,-76,-19,2,20,-11,-13,1,-76
1491695161753,2,32,24,9,2,9,30,27,-46
1491695161753,2,-102,-38,-14,-12,-14,-47,-53,-27
1491695161754,0,-81,21,18,15,25,20,12,23
1491695161754,0,26,1,9,16,-8,-40,-8,-11
1491695161755,1,-43,11,-1,-17,6,-27,-96,18
1491695161755,1,30,-31,6,21,41,36,-6,52
1491695161801,2,53,-17,-3,10,-6,-4,-8,21
1491695161801,2,47,-8,-22,-52,-17,39,38,31
1491695161803,3,26,9,4,-15,-36,-28,-14,16
1491695161803,3,-12,-13,4,14,15,-31,-25,31
1491695161804,1,17,10,-9,-33,-14,4,-3,7
1491695161804,1,16,5,-10,-17,-2,24,-8,56
1491695161805,2,-1,22,22,23,-12,-2,-86,-5
1491695161805,2,9,4,3,32,120,-29,6,70
1491695161850,3,44,51,16,-4,-47,0,6,59
1491695161850,3,127,7,-8,12,89,85,57,44
1491695161851,0,-17,-2,-40,-45,-91,-88,-67,-59
1491695161851,0,85,8,-4,-74,-113,-29,-35,-52
1491695161852,2,-12,-15,-1,6,45,-12,-56,-54
1491695161852,2,2,0,18,48,45,18,24,-13
1491695161853,3,-5,3,10,18,35,68,56,67
1491695161853,3,-56,-65,-44,-44,-76,-77,18,-89
1491695161898,0,-50,-1,14,-17,-28,105,54,-10
1491695161898,0,-42,-5,7,19,6,59,104,4
1491695161900,1,-23,6,-4,15,45,-51,-40,-39
1491695161900,1,-23,11,6,4,-31,-117,-86,63
1491695161900,3,-13,-14,-28,1,-18,-34,12,6
1491695161900,3,11,53,34,-10,-18,51,2,-59
1491695161901,0,-35,-31,-6,-18,-8,-8,-6,-15
1491695161901,0,2,18,-38,5,9,66,2,15
1491695161947,1,1,-12,61,25,34,32,-52,19
1491695161947,1,-18,0,-17,-19,-25,-60,-28,13
1491695161948,2,-68,0,-43,-1,7,9,0,47
1491695161948,2,-78,21,81,40,12,-8,-30,-6
1491695161949,3,-69,-5,-28,-45,1,-41,-49,6
1491695161949,3,-51,11,62,7,-5,-17,-32,47
1491695161950,0,-16,-65,-46,-7,-2,-1,-11,43
1491695161950,0,-8,-15,-36,-14,-24,-42,-28,16
1491695161996,1,2,-22,0,14,1,-44,-67,-44
1491695161996,1,35,9,46,9,25,46,17,5
1491695161997,2,50,62,-24,-12,1,-21,1,37
1491695161997,2,45,-93,-39,-8,-21,-27,-34,-26
1491695161998,0,40,15,29,0,7,42,51,21
1491695161998,0,58,76,-21,-3,38,-10,-82,-50
1491695161999,1,10,-9,-32,-20,-44,28,16,-12
1491695161999,1,-87,12,-40,-32,-101,-95,-116,-75
1491695162045,2,-49,2,16,-5,99,-69,68,30
1491695162045,2,12,3,0,25,-8,79,45,67
1491695162045,3,69,3,-2,-15,3,-5,-83,27
1491695162045,3,-84,31,-6,8,11,-13,56,-28
1491695162046,1,4,-10,-14,36,60,-16,-47,9
1491695162046,1,55,-32,-42,-61,-64,126,-4,71
1491695162047,2,-3,-32,-3,1,-76,-108,-101,-43
1491695162047,2,42,35,5,-28,8,37,44,-14
1491695162093,3,68,-34,15,45,7,49,98,-45
1491695162093,3,104,-32,30,71,66,55,91,-116
1491695162094,0,-72,-5,12,-10,11,-10,72,-77
1491695162094,0,27,-82,-13,-47,-59,-76,-25,-59
1491695162095,2,17,14,25,7,2,66,17,-44
1491695162095,2,-28,20,2,1,-39,-24,8,-7
1491695162096,3,-52,20,-4,-1,35,-29,18,-27
1491695162096,3,104,-9,-5,13,-15,38,42,58
1491695162143,0,12,0,11,20,4,-7,-34,-23
1491695162143,0,63,11,-5,17,99,45,-57,-1
1491695162144,1,17,16,-9,-31,-81,-54,-8,28
1491695162144,1,-81,7,-21,-44,-45,-39,-19,15
1491695162145,3,-33,11,8,5,24,-15,5,33
1491695162145,3,-27,-16,3,13,30,31,-84,-14
1491695162146,0,0,1,-4,-6,9,66,85,29
1491695162146,0,-68,-12,3,9,-24,-12,-36,-27
1491695162191,1,-84,-17,-9,-11,9,4,4,-47
1491695162191,1,-83,0,-3,-17,-26,-51,18,-14
1491695162193,2,-12,-5,6,15,30,45,-3,-3
1491695162193,2,-80,7,-4,-15,-21,-6,24,13
1491695162200,0,-72,-2,-10,-1,-15,-25,-36,-6
1491695162200,0,39,-10,2,-6,-28,-33,-32,0
1491695162201,1,42,12,-7,-7,-11,38,76,23
1491695162201,1,-87,-5,-1,25,63,37,-42,-24
1491695162240,2,59,38,26,28,24,30,31,0
1491695162240,2,13,6,0,3,57,69,113,-5
1491695162243,3,-7,-4,-15,-24,-23,-106,-85,-28
1491695162243,3,-12,8,6,-32,-26,-28,-28,-6
1491695162244,1,-44,-12,-1,-8,79,40,11,14
1491695162244,1,61,1,8,31,-95,10,-10,23
1491695162245,2,0,-2,1,3,99,42,-46,-14
1491695162245,2,-4,-12,-2,-11,-70,-46,9,-8
1491695162288,3,19,-16,-9,-12,-6,24,-32,9
1491695162288,3,-60,-6,-21,-38,-47,-41,27,-3
1491695162289,0,52,16,-1,2,-41,29,27,20
1491695162289,0,67,-5,7,29,47,31,-52,-11
1491695162290,1,59,3,21,-4,-67,-48,72,44
1491695162290,1,-52,5,17,37,119,95,26,-21
1491695162291,2,29,-15,-13,11,-10,-108,-90,-1
1491695162291,2,-53,-12,-19,-58,-70,35,51,-10
1491695162337,3,-12,11,9,-8,35,-34,-50,-27
1491695162337,3,111,4,-5,17,-28,-31,5,59
1491695162338,0,-81,-10,2,-17,-21,51,37,-12
1491695162338,0,-32,-8,-4,-5,7,-14,-65,13
1491695162338,2,-75,-5,-9,-42,-109,-33,-27,-13
1491695162338,2,77,-1,5,-25,14,83,12,14
1491695162340,3,-110,-13,-1,28,46,-26,-31,-55
1491695162340,3,77,-18,-4,1,-59,39,32,-50
1491695162386,0,1,-14,-6,-18,84,-33,52,-3
1491695162386,0,-75,-31,-21,-4,-92,-18,41,-16
1491695162387,1,126,19,4,1,-1,10,-45,-10
1491695162387,1,-69,-4,8,12,23,15,-19,-37
1491695162388,3,73,5,-5,15,5,37,29,12
1491695162388,3,-26,-9,-16,-25,-15,39,24,3
1491695162389,0,29,-7,5,-18,-38,7,-11,1
1491695162389,0,-53,6,11,29,60,-23,5,27
1491695162483,1,-9,-6,-3,34,-11,-38,-42,8
1491695162483,1,71,-11,-23,-65,-17,-52,-32,9
1491695162532,2,0,0,-22,-31,-55,59,-4,22
1491695162532,2,10,0,19,38,53,-23,16,5
1491695162583,0,-30,-2,-7,10,-9,25,22,-16
1491695162583,0,-58,-8,-24,-36,-36,41,-50,-41
1491695162584,1,-57,-14,-19,-45,-58,-41,62,6
1491695162584,1,37,3,-2,13,12,-59,-63,31
1491695162585,2,42,9,28,50,70,2,-25,26
1491695162585,2,45,8,24,49,19,16,32,27
1491695162585,3,-10,0,-20,-33,-4,37,-10,28
1491695162585,3,-46,-6,-39,-54,-50,-39,-45,-1
1491695162630,2,25,7,-3,-19,-42,39,33,5
1491695162630,2,17,1,-4,-17,-19,-20,1,-60
1491695162632,3,-53,-12,-11,-25,6,89,3,-17
1491695162632,3,-43,-8,-16,-37,-42,-86,-61,14
1491695162636,3,0,-9,-20,-47,-103,-44,37,7
1491695162636,3,-9,11,-1,-13,-9,-27,-35,-4
1491695162637,0,41,10,-13,-3,15,84,78,-3
1491695162637,0,-57,1,24,44,50,19,-36,-18
1491695162678,1,63,11,17,22,25,32,-35,-8
1491695162678,1,-58,-1,6,5,-6,-67,37,0
1491695162681,2,39,0,-20,-26,-20,15,-1,12
1491695162681,2,-7,17,13,-5,-36,-25,-12,14
1491695162682,0,-110,18,11,-25,6,18,49,-6
1491695162682,0,80,2,2,-16,-18,29,30,16
1491695162683,1,25,-3,3,14,-19,-81,-45,2
1491695162683,1,8,0,15,17,28,73,-27,-14
1491695162727,2,-83,-23,-38,-16,-30,-121,-5,-20
1491695162727,2,19,-12,0,-13,-35,43,62,46
1491695162728,3,49,4,16,-7,17,48,-80,-33
1491695162728,3,-16,-11,14,25,31,-60,8,11
1491695162729,1,57,1,-9,-19,-26,3,44,-11
1491695162729,1,-91,-1,-17,-9,-12,-16,-13,-5
1491695162730,2,114,-4,-1,-51,-35,20,-17,0
1491695162730,2,29,13,-2,40,60,-9,-29,1
1491695162776,3,-44,-20,-8,-3,-39,-4,-2,-5
1491695162776,3,39,0,-6,-19,7,127,98,25
1491695162777,0,-77,-6,15,49,16,-109,-96,-21
1491695162777,0,-10,4,-8,-20,-5,29,21,-20
1491695162778,2,24,2,-27,-13,17,-17,-30,44
1491695162778,2,-16,4,21,30,15,-10,7,-11
1491695162778,3,-43,-17,0,-1,-20,-24,16,36
1491695162778,3,89,4,1,25,65,-27,-19,-19
1491695162825,0,-18,-5,-4,-25,-22,32,10,6
1491695162825,0,80,15,-10,-11,8,-15,-37,-26
1491695162827,1,35,-3,-5,29,-20,48,-27,9
1491695162827,1,-31,-15,-21,-55,-16,-83,-23,-13
1491695162828,3,32,30,44,19,-7,-109,-19,7
1491695162828,3,-13,-37,-14,48,8,40,2,3
1491695162829,0,-21,-2,-23,-32,-18,-23,-23,-21
1491695162829,0,22,-3,2,-55,-70,-43,-57,-23
1491695162873,1,-83,-16,-17,16,96,69,81,17
1491695162873,1,-70,16,16,57,28,-12,-9,-2
1491695162874,2,-75,-23,-18,-40,-95,-30,-3,-16
1491695162874,2,32,29,-37,-53,8,20,-35,-22
1491695162875,0,-102,-20,17,106,13,48,41,-16
1491695162875,0,68,-13,-23,-71,-10,-23,2,-32
1491695162876,1,36,44,10,-31,-2,54,8,10
1491695162876,1,-32,-6,-8,-5,-34,11,-20,-9
1491695162922,2,76,-2,0,41,49,-60,-4,13
1491695162922,2,-46,-12,8,32,-27,6,-17,-17
1491695162923,3,-96,7,-9,-37,25,28,9,-19
1491695162923,3,120,43,12,-17,10,-6,29,30
1491695162924,1,-66,-36,-28,-35,-23,-22,26,-16
1491695162924,1,10,31,13,-30,-91,-11,-38,-40
1491695162925,2,32,24,22,36,113,58,25,12
1491695162925,2,-61,-5,6,43,51,29,17,9
1491695162971,3,34,1,-2,5,-45,-27,-5,-10
1491695162971,3,-128,-2,2,-25,6,40,-5,-40
1491695162972,0,7,4,11,3,-18,-22,-8,1
1491695162972,0,22,-12,-8,-24,-41,-8,-4,11
1491695162973,2,-5,-11,-13,-12,47,69,-11,-9
1491695162973,2,34,8,19,-19,-28,-30,9,40
1491695162974,3,-58,-14,-24,-16,-37,33,3,-18
1491695162974,3,85,3,-7,32,57,-10,7,7
1491695163020,0,21,13,28,18,-3,14,-6,9
1491695163020,0,-61,-35,-17,-30,-14,-11,-21,-17
1491695163022,1,121,9,7,37,-5,-4,5,22
1491695163022,1,-66,-26,-34,-66,26,28,8,-19
1491695163024,2,100,2,-14,2,-49,-69,-51,17
1491695163024,2,-88,2,17,2,-36,-80,28,3
1491695163024,3,-46,-1,-16,-36,2,12,-33,-41
1491695163024,3,-2,-30,1,26,-7,9,20,10
1491695163068,0,12,2,-17,-5,7,24,17,2
1491695163068,0,33,30,39,31,44,-6,-25,7
1491695163069,1,-58,-16,-4,27,23,26,3,-2
1491695163069,1,60,3,20,-8,-9,30,14,-3
1491695163070,3,25,12,-2,-17,3,18,35,25
1491695163070,3,17,-5,11,18,4,45,-21,-3
1491695163071,0,-74,-11,-29,-50,-48,-76,25,25
1491695163071,0,-28,3,24,67,51,37,-2,-38
1491695163117,1,46,10,-2,-55,-23,-3,-21,25
1491695163117,1,13,1,-10,-16,-24,-28,35,7
1491695163118,2,82,16,18,11,21,54,8,16
1491695163118,2,-84,0,-2,71,58,49,-18,-15
1491695163119,0,-67,-7,-6,-8,-11,1,-1,9
1491695163119,0,60,4,3,10,17,68,18,8
1491695163121,1,-82,2,8,55,17,-10,19,-30
1491695163121,1,-30,3,24,29,42,2,21,11
1491695163166,2,72,-6,-10,-36,-40,-27,-11,-27
1491695163166,2,-5,3,-14,-43,-37,-26,31,25
1491695163167,3,12,-5,-9,-5,-25,1,-36,-23
1491695163167,3,-12,14,16,49,10,-21,9,40
1491695163167,1,-4,9,-6,4,31,1,1,9
1491695163167,1,-37,-11,-12,20,20,0,-15,-22
1491695163168,2,0,-7,-8,-11,-40,-16,-14,4
1491695163168,2,-14,2,0,-7,-34,-8,-15,28
1491695163215,3,-105,-13,5,-13,-10,30,12,-6
1491695163215,3,116,7,-1,13,29,-21,-12,13
1491695163215,0,-1,20,24,25,29,59,13,-11
1491695163215,0,-19,-9,-16,-19,-20,-74,-48,-15
1491695163217,2,88,-1,-17,-17,27,-105,-33,11
1491695163217,2,-61,-6,13,63,34,38,-8,3
1491695163218,3,57,-15,-11,0,-18,46,48,7
1491695163218,3,22,9,-12,-73,-71,-55,-18,-4
1491695163263,0,-40,-3,1,-1,-15,7,7,-14
1491695163263,0,73,-9,-18,13,17,-5,-16,-6
1491695163264,1,-80,-3,13,9,8,-1,13,-10
1491695163264,1,42,-3,-14,-32,-32,-26,-20,-14
1491695163265,3,-5,1,1,26,14,-34,-18,-26
1491695163265,3,-8,2,-14,-37,-6,25,79,9
1491695163266,0,-14,-12,-7,-11,-9,47,-11,-7
1491695163266,0,-61,7,0,19,28,-70,25,18
1491695163312,1,-10,-4,-19,-38,-68,-17,-41,-3
1491695163312,1,16,-5,8,-16,-25,-11,10,-2
1491695163314,2,67,3,7,52,65,97,27,13
1491695163314,2,-65,-4,0,5,27,-37,-57,-29
1491695163315,0,87,-13,-23,-36,-60,16,41,17
1491695163315,0,32,-20,-21,-31,-56,-18,-49,-46
1491695163315,1,-33,9,22,21,19,-16,-15,37
1491695163315,1,43,6,17,51,63,116,38,-4
1491695163362,2,-56,9,44,42,45,-114,-105,-9
1491695163362,2,-85,1,-12,-30,22,53,93,-22
1491695163363,3,73,-27,-34,-32,-36,-26,-57,-8
1491695163363,3,-2,1,-18,-2,-37,-9,38,-2
1491695163364,0,-53,11,3,-43,-27,-2,-10,6
1491695163364,0,-93,0,4,17,8,-22,6,-18
1491695163365,1,-20,-5,0,-7,36,19,12,-38
1491695163365,1,15,12,-3,-13,-41,-1,-33,11
1491695163410,2,10,-12,-7,7,-18,-2,-1,20
1491695163410,2,-32,-8,-6,-11,6,89,1,-14
1491695163411,3,-3,-1,0,12,19,-103,20,15
1491695163411,3,-114,-13,6,28,34,-1,-39,0
1491695163411,1,-87,-8,14,6,-31,40,-17,-45
1491695163411,1,25,-3,-25,-50,-32,-77,-17,13
1491695163415,2,80,7,-2,-14,-37,-22,34,22
1491695163415,2,24,1,-5,-20,-17,7,-26,9
1491695163458,3,-55,-6,-7,29,39,29,30,-3
1491695163458,3,27,-6,11,25,10,-29,-43,8
1491695163459,0,-21,4,9,0,19,37,12,-20
1491695163459,0,-5,0,8,-2,-17,-34,1,-11
1491695163461,2,9,-10,-12,-15,-23,-29,5,23
1491695163461,2,3,-1,-8,-13,-19,-24,-28,-6
1491695163462,3,47,16,10,24,28,-3,32,4
1491695163462,3,73,-4,8,29,6,6,11,-12
1491695163507,0,-14,-5,-10,-20,4,27,1,-21
1491695163507,0,6,-19,-25,-26,-41,-47,-47,0
1491695163556,1,23,39,8,-6,-4,-15,21,0
1491695163556,1,-75,10,3,19,38,54,17,1
1491695163605,3,-36,-2,-7,6,2,-8,-23,2
1491695163605,3,56,6,14,18,12,-22,3,12
1491695163605,0,-10,-28,-11,1,-12,-17,0,7
1491695163605,0,-80,-8,-2,-10,17,54,-19,-33
1491695163606,1,76,-21,-6,-7,-8,-35,-52,0
1491695163606,1,-84,1,15,17,3,68,37,-10
1491695163607,2,34,6,11,21,56,35,32,-2
1491695163607,2,42,6,-10,-30,-9,-58,-5,-10
1491695163653,0,-116,8,0,8,2,15,9,-6
1491695163653,0,62,-1,-1,-2,-32,32,18,26
1491695163654,1,50,6,3,11,10,-65,-11,15
1491695163654,1,-100,-16,-5,9,29,61,53,-19
1491695163655,2,0,-3,4,0,-2,16,-8,15
1491695163655,2,55,17,9,10,10,-56,-25,-17
1491695163656,3,-37,-7,-7,-5,32,97,49,-1
1491695163656,3,8,12,-17,-24,-25,-57,-52,-15
1491695163702,0,-98,3,10,4,-1,-43,-18,15
1491695163702,0,-47,3,20,33,35,87,-2,-15
1491695163705,1,2,-4,-4,-3,7,3,18,-3
1491695163705,1,39,-9,-13,-40,-55,-11,-49,-46
1491695163706,2,13,3,-6,-10,-4,18,34,18
1491695163706,2,-73,-18,-15,-6,-3,-5,12,-7
1491695163706,3,83,21,9,6,23,41,-16,20
1491695163706,3,-89,-17,-18,-13,-8,-70,-22,-5
1491695163751,0,35,12,10,7,-13,42,3,-8
1491695163751,0,15,-3,-4,6,14,-33,58,7
1491695163755,1,31,0,2,-11,-38,26,-12,18
1491695163755,1,-29,10,8,13,23,-20,-36,20
1491695163756,3,57,23,-2,1,-22,-41,-33,12
1491695163756,3,33,6,27,28,7,-6,-23,-5
1491695163757,0,-56,-18,-12,-7,25,49,-1,5
1491695163757,0,16,7,4,9,-14,5,-9,-19
1491695163800,1,-42,-7,-3,-2,10,-68,25,-18
1491695163800,1,-58,-16,-13,-14,-4,-75,-17,31
1491695163804,2,54,-1,-6,9,-17,-25,-23,-10
1491695163804,2,-54,-10,-18,-54,-46,31,-16,6
1491695163812,0,-21,3,25,14,16,-34,-17,1
1491695163812,0,-33,10,3,31,37,31,19,15
1491695163824,1,11,4,4,1,10,37,32,-24
1491695163824,1,97,-10,-13,-34,-20,-35,12,23
1491695163897,2,-14,-1,-7,-5,-12,-54,-18,-10
1491695163897,2,32,-8,-1,0,-34,56,-77,-8
1491695163898,3,2,2,29,34,94,-26,38,23
1491695163898,3,-59,-11,-3,32,-5,50,6,-57
1491695163899,1,-47,-21,-15,-2,-36,-28,23,14
1491695163899,1,106,17,-2,-6,23,14,-1,14
1491695163902,2,-11,17,34,48,57,53,18,-6
1491695163902,2,-7,-6,7,41,27,-20,-48,-19
1491695163946,3,-103,-5,25,-10,-51,-88,21,-30
1491695163946,3,100,-17,-27,-58,-30,21,13,47
1491695163947,0,89,13,0,25,44,43,-44,15
1491695163947,0,-7,11,7,-8,-16,-75,5,13
1491695163948,3,30,6,-1,-11,-25,-75,-78,-7
1491695163948,3,27,-5,-12,-35,-17,19,41,-4
1491695163951,0,-68,-3,-5,-17,-46,2,-21,-19
1491695163951,0,16,-16,-13,-22,-13,26,10,-3
1491695164044,1,-28,-5,-5,13,15,38,5,-5
1491695164044,1,22,15,14,28,24,-40,-35,6
1491695164093,2,-28,-11,4,26,25,25,56,-5
1491695164093,2,79,19,16,-9,-51,54,3,-6
1491695164141,0,1,0,-7,-14,0,117,35,6
1491695164141,0,16,-11,-14,-5,9,-113,4,8
1491695164142,1,-43,-1,3,4,-17,-26,-33,-17
1491695164142,1,89,14,22,-1,-24,4,-61,19
1491695164142,2,19,-5,4,31,45,4,92,27
1491695164142,2,-49,-9,-16,-20,-16,21,-41,-30
1491695164143,3,-14,-4,-3,-29,-49,-46,26,16
1491695164143,3,27,-8,-8,6,30,29,16,-7
1491695164190,1,-17,-9,6,8,-8,9,52,8
1491695164190,1,21,-4,-3,2,-10,-75,-60,-5
1491695164190,2,22,5,13,28,29,-15,-42,-8
1491695164190,2,37,4,9,18,26,34,26,10
1491695164191,3,-41,-4,8,40,120,0,25,-4
1491695164191,3,-56,-2,-2,-4,-19,19,19,-22
1491695164192,0,88,4,-8,-22,-41,-39,-22,-7
1491695164192,0,-41,-3,-9,-16,-2,28,-1,-8
1491695164239,1,63,6,-1,7,-10,-10,-24,8
1491695164239,1,-43,-3,18,19,35,103,-7,-11
1491695164239,2,9,5,10,18,-4,-69,-1,3
1491695164239,2,-13,-2,-5,8,23,12,-11,5
1491695164240,0,-13,4,0,0,-5,21,6,0
1491695164240,0,19,1,6,16,29,-6,-1,-3
1491695164242,1,13,-4,5,18,20,32,14,9
1491695164242,1,-78,1,4,23,8,-21,22,-19
1491695164287,2,36,-4,-6,-62,-37,-13,-33,-6
1491695164287,2,-5,-11,-19,-22,-36,-39,-10,-11
1491695164288,3,8,10,8,13,2,9,38,17
1491695164288,3,25,-1,-11,5,11,15,-15,8
1491695164289,1,46,6,5,4,0,19,82,12
1491695164289,1,-25,-4,-9,-10,4,5,-3,2
1491695164290,2,46,11,6,12,-8,-41,32,10
1491695164290,2,15,-2,1,-5,29,-1,-36,-18
1491695164337,3,-52,-4,-3,-1,-41,-18,-15,-12
1491695164337,3,-40,-12,-11,-20,-53,2,-7,1
1491695164339,0,4,1,6,16,76,3,-8,0
1491695164339,0,-3,-7,-10,-16,-22,74,29,8
1491695164342,2,-92,-13,2,-12,-10,22,-12,-24
1491695164342,2,35,5,16,29,22,12,33,13
1491695164343,3,13,4,4,-11,5,28,19,0
1491695164343,3,71,0,-5,-21,-17,-35,-44,-7
1491695164385,0,-41,-7,-16,2,-2,2,-18,0
1491695164385,0,47,6,9,27,33,11,16,-3
1491695164386,1,-46,-1,-3,-19,-28,20,-4,5
1491695164386,1,21,5,6,16,47,-62,22,0
1491695164386,3,50,-9,-2,-12,-29,-20,-37,-15
1491695164386,3,-42,11,18,18,36,41,24,5
1491695164396,0,43,-4,6,27,31,54,15,-18
1491695164396,0,7,-2,-4,-16,-39,-68,8,-7
1491695164433,1,12,-8,-13,-20,-17,-10,36,-4
1491695164433,1,19,0,-9,-21,-20,-6,-16,4
1491695164434,2,-60,1,-1,-1,-9,15,5,11
1491695164434,2,17,-3,2,9,3,-15,-27,-6
1491695164435,3,-85,10,2,14,25,21,11,4
1491695164435,3,72,-23,-9,-7,5,-4,-6,-7
1491695164436,0,8,10,13,0,-17,2,12,10
1491695164436,0,26,9,-4,-6,-5,-2,26,11
1491695164482,1,66,1,-1,3,16,2,-27,9
1491695164482,1,-60,-4,-4,-7,-11,18,3,4
1491695164484,2,89,-4,-7,-9,-14,-28,-39,-6
1491695164484,2,-29,-2,-8,-21,-25,-2,37,6
1491695164488,0,-46,-9,-6,0,0,-31,-44,-37
1491695164488,0,-11,-7,0,0,-8,12,91,24
1491695164489,1,-6,-3,3,4,19,70,7,0
1491695164489,1,1,5,-4,2,-7,-65,-13,-6
1491695164531,2,0,-8,-15,-31,-33,-27,-11,-4
1491695164531,2,105,-7,-19,-9,-40,-8,-29,12
1491695164580,3,-36,-6,-13,-17,-21,-18,-70,-23
1491695164580,3,-9,14,34,29,-4,32,71,12
1491695164580,1,16,-6,6,7,-24,14,14,28
1491695164580,1,0,9,7,-4,28,59,3,1
1491695164581,2,0,-6,-27,-16,-28,22,1,16
1491695164581,2,-108,-37,-15,-17,-75,-17,29,-2
1491695164583,3,61,19,16,30,89,46,-23,-19
1491695164583,3,-61,19,9,2,0,-62,-37,-25
1491695164628,0,-112,-4,4,13,-9,61,77,45
1491695164628,0,105,38,15,-12,98,-48,-79,-25
1491695164629,2,20,23,-16,-67,-16,43,17,-23
1491695164629,2,-105,-25,-27,-78,-121,-105,-84,-25
1491695164632,3,-128,-28,8,117,73,-1,-92,14
1491695164632,3,25,-23,-31,-89,-115,-8,-19,-23
1491695164633,0,97,8,-4,-86,38,-23,5,-69
1491695164633,0,-123,43,17,-73,-123,72,25,8
1491695164677,1,89,-55,-36,82,116,-43,-49,-2
1491695164677,1,58,78,24,76,-41,53,53,38
1491695164678,2,-32,-22,2,-81,-90,-106,-83,-29
1491695164678,2,-31,-31,-20,-80,-6,66,-25,-95
1491695164678,0,64,13,-8,-52,-65,-87,-80,16
1491695164678,0,-57,8,13,-66,-106,-35,18,-48
1491695164679,1,127,22,-27,-128,-128,127,-19,31
1491695164679,1,1,9,51,88,127,-68,57,77
1491695164726,2,-90,-60,-52,72,45,82,37,-46
1491695164726,2,-10,26,36,-39,-104,18,-35,-11
1491695164727,3,-62,-18,-36,-128,-54,-14,-27,-9
1491695164727,3,94,15,19,55,36,-82,-91,63
1491695164727,1,-85,12,34,91,-79,-48,-45,1
1491695164727,1,58,28,31,37,63,37,-90,-62
1491695164728,2,-30,3,-9,-34,-52,-36,7,39
1491695164728,2,-73,-53,-37,0,108,63,91,-33
1491695164775,3,49,67,-28,-28,-93,-98,-19,26
1491695164775,3,-62,-25,14,-34,-92,12,59,18
1491695164775,0,35,45,76,127,115,113,30,-48
1491695164775,0,88,-20,-8,21,-15,-94,-82,46
1491695164776,1,61,-2,-52,-75,13,17,100,11
1491695164776,1,-128,-9,16,64,-44,39,-21,-39
1491695164777,2,37,9,76,77,77,43,61,76
1491695164777,2,127,13,-16,56,52,-8,87,-52
1491695164823,3,-42,-20,-8,-35,-19,-35,-58,-21
1491695164823,3,-25,-27,-85,-81,-7,-128,-71,-13
1491695164824,0,-128,-8,-26,40,-19,95,1,52
1491695164824,0,103,-3,18,83,102,11,18,56
1491695164825,2,-21,-10,-9,16,-18,-47,10,40
1491695164825,2,73,37,85,114,52,4,-82,18
1491695164826,3,-20,3,4,-103,-75,119,102,-42
1491695164826,3,-11,5,0,-76,-94,-46,-3,34
1491695164872,0,-50,-13,-44,64,2,0,-53,41
1491695164872,0,-128,17,-12,53,5,121,67,-8
1491695164874,1,108,1,49,-30,-8,-27,-60,-48
1491695164874,1,12,-10,-44,-30,-81,30,-10,-24
1491695164875,3,38,45,45,29,85,122,-59,12
1491695164875,3,-111,-22,-41,57,-3,-127,-22,-58
1491695164876,0,-38,38,3,-123,-122,-4,-72,-41
1491695164876,0,-13,6,11,69,0,77,-30,-20
1491695164921,1,35,-48,-23,7,33,-128,36,-10
1491695164921,1,-48,1,-69,-96,-60,79,45,12
1491695164923,2,-33,-35,-7,58,-36,-38,-33,-27
1491695164923,2,-38,-11,21,-119,-70,13,118,23
1491695164924,0,90,-34,-40,-93,58,49,-63,-42
1491695164924,0,-92,18,-43,44,-22,19,-36,-64
1491695164926,1,-93,-48,-11,56,-62,-5,65,77
1491695164926,1,127,16,15,4,119,117,15,-77
1491695164970,2,14,18,11,56,-128,67,67,19
1491695164970,2,111,15,27,-27,98,-10,-3,81
1491695164970,3,-35,-43,34,113,-2,58,-20,10
1491695164970,3,-25,-45,-13,-75,-52,-76,-76,-38
1491695164971,1,28,-13,28,-88,-128,54,-59,17
1491695164971,1,37,-4,-35,1,-119,43,26,90
1491695164972,2,21,30,59,4,99,27,32,-12
1491695164972,2,-70,36,2,111,22,56,-121,-4
1491695165018,3,71,-42,-57,-48,-88,-100,47,-36
1491695165018,3,-113,40,61,-12,-6,10,-28,7
1491695165019,0,51,-19,-52,85,92,42,50,53
1491695165019,0,48,-36,11,11,-128,9,117,11
1491695165020,2,-1,20,-28,-128,-91,-128,88,-12
1491695165020,2,12,9,-20,-75,18,61,69,67
1491695165021,3,-128,-65,-83,117,123,-50,-93,-48
1491695165021,3,70,12,82,-26,-78,-95,54,-16
1491695165067,0,-74,15,-26,53,115,11,34,-43
1491695165067,0,44,20,82,91,-114,-27,-94,8
1491695165068,1,-92,14,-68,-117,-81,123,105,-45
1491695165068,1,-54,4,19,127,127,-65,-128,-6
1491695165069,3,-38,-11,42,97,84,94,75,18
1491695165069,3,-2,-9,-42,-45,-37,81,99,-4
1491695165070,0,16,17,30,-21,36,-13,0,-29
1491695165070,0,-79,-33,-111,56,-81,-123,29,-5
1491695165116,1,127,32,114,81,57,92,-56,8
1491695165116,1,37,5,-33,-64,108,-44,21,-74
1491695165117,2,-128,22,35,44,-61,-87,-63,-23
1491695165117,2,-30,-21,-68,-115,92,49,105,-27
1491695165117,3,65,11,58,59,47,103,-49,34
1491695165117,3,-55,-43,-11,34,-74,29,-16,31
1491695165118,0,87,59,85,-10,-18,70,-90,46
1491695165118,0,-93,-62,-118,-14,18,-128,25,-82
1491695165165,1,81,15,-17,-91,-110,101,41,70
1491695165165,1,32,24,90,93,84,126,3,40
1491695165213,2,-120,5,-45,-45,37,42,-23,-44
1491695165213,2,2,-8,46,33,-88,-40,-57,58
1491695165214,0,15,-15,2,7,-20,-30,55,-108
1491695165214,0,12,2,39,-44,-36,-27,20,17
1491695165215,1,-107,-10,7,105,63,13,-3,14
1491695165215,1,-10,-14,-47,-128,-93,65,64,-27
1491695165216,2,0,-48,-27,-26,-92,-128,-68,3
1491695165216,2,33,-32,-4,1,-9,40,-90,-47
1491695165262,3,-7,32,50,51,30,-35,3,88
1491695165262,3,-128,-15,-56,-53,102,-90,52,-61
1491695165311,1,-57,-22,-96,-86,-128,-57,61,-30
1491695165311,1,81,54,97,127,127,72,-54,65
1491695165313,2,-59,-15,-128,-71,103,15,-22,-80
1491695165313,2,-14,20,77,-46,-55,88,-48,28
1491695165314,2,0,-27,127,114,-65,-124,47,-6
1491695165314,2,-49,7,-86,-86,44,-45,-2,-86
1491695165314,3,-2,-12,-28,97,-71,-17,45,41
1491695165314,3,5,-7,28,115,96,-13,-17,-33
1491695165360,0,26,21,-17,25,67,41,62,54
1491695165360,0,-1,-21,8,-40,-74,67,33,-31
1491695165364,3,33,-5,2,-27,-90,-65,-105,-54
1491695165364,3,-75,-64,-74,92,93,-23,73,3
1491695165365,0,17,23,6,-73,-128,66,63,52
1491695165365,0,49,-23,43,127,-20,42,-63,-5
1491695165408,0,24,-13,-57,-44,-21,-42,-31,26
1491695165408,0,34,6,71,105,6,61,10,20
1491695165410,1,-17,-19,-68,-30,105,-57,-14,1
1491695165410,1,-1,13,99,-15,-116,17,13,-13
1491695165410,2,17,-5,-48,-128,-63,-42,-28,-9
1491695165410,2,38,-27,-63,-9,-92,-41,28,10
1491695165411,1,14,4,77,127,32,111,66,0
1491695165411,1,13,23,103,-51,-50,34,21,-12
1491695165506,2,-31,-8,-13,-73,-91,-128,-49,-37
1491695165506,2,-5,-44,-110,-106,127,-10,11,16
1491695165512,3,-59,-28,-33,34,-38,-32,-49,23
1491695165512,3,19,1,-2,119,8,117,30,-11
1491695165513,0,73,57,113,67,67,60,50,43
1491695165513,0,-58,-18,-69,-124,-96,-62,-51,-4
1491695165514,1,53,27,5,-26,-57,-18,17,14
1491695165514,1,-32,-45,78,-14,-128,-39,-42,11
1491695165554,2,26,67,-87,5,60,7,4,-38
1491695165554,2,-4,-4,100,53,111,26,-13,3
1491695165555,3,-3,-79,-65,65,88,82,33,42
1491695165555,3,-57,6,-53,-128,-127,-69,-60,-49
1491695165556,2,-13,-58,-9,19,44,4,-9,0
1491695165556,2,14,13,-8,-81,-18,-67,-19,12
1491695165557,3,22,58,-5,-128,-128,-128,-75,0
1491695165557,3,-11,-15,5,105,127,125,78,17
1491695165603,0,58,-60,73,82,123,99,65,-52
1491695165603,0,-48,-19,-91,-100,-49,15,-12,-17
1491695165604,1,-18,26,-20,-78,-87,-116,-25,21
1491695165604,1,16,0,-36,32,67,-7,-42,6
1491695165605,0,28,-12,-74,-76,-50,18,-37,30
1491695165605,0,-24,-13,-28,33,19,25,-26,11
1491695165606,1,-88,-62,8,-4,4,76,32,-31
1491695165606,1,32,48,-56,-78,-65,-58,-34,-2
1491695165652,2,-97,-10,-62,-84,-112,-114,-112,-14
1491695165652,2,-1,-23,48,36,19,2,40,17
1491695165653,3,-14,-9,64,127,127,71,32,4
1491695165653,3,12,-33,41,40,73,66,48,4
1491695165654,1,-88,2,57,-7,-10,-11,6,-10
1491695165654,1,5,-14,5,113,107,-12,-10,-19
1491695165655,2,91,7,96,54,115,94,84,19
1491695165655,2,-71,8,-91,-117,-107,-102,-20,7
1491695165701,3,-5,19,-96,-44,40,-97,-98,-3
1491695165701,3,29,-73,26,18,-53,-5,11,-6
1491695165754,0,-32,13,47,124,127,60,33,-9
1491695165754,0,-6,-10,38,53,70,43,30,-18
1491695165755,2,-23,-64,3,111,75,85,51,-24
1491695165755,2,50,-46,15,-55,-11,-19,3,-16
1491695165756,3,0,20,-85,-97,-128,-126,-35,-5
1491695165756,3,-12,-24,29,-12,-25,-26,5,15
1491695165757,0,-8,-50,8,39,15,31,-15,8
1491695165757,0,2,29,-29,57,36,40,45,12
1491695165798,1,32,-4,21,53,103,50,27,9
1491695165798,1,-40,35,-1,-56,6,30,37,6
1491695165802,3,37,23,-9,42,35,20,-29,-9
1491695165802,3,-32,-47,-7,24,21,29,34,13
1491695165805,0,27,44,-4,-14,22,10,18,-5
1491695165805,0,-30,-49,56,28,24,29,-25,1
1491695165806,0,43,-12,-34,-12,-12,0,20,26
1491695165806,0,32,17,7,13,16,28,14,1
1491695165847,1,31,-6,39,38,65,-5,-51,-8
1491695165847,1,0,3,35,86,70,127,83,-4
1491695165848,2,-36,-1,-5,-53,-50,-92,-42,31
1491695165848,2,-43,7,-66,-104,-104,21,-26,-13
1491695165849,0,38,38,-2,67,69,-25,6,19
1491695165849,0,84,-5,46,-22,-7,-20,-14,26
1491695165850,1,-60,-39,-10,-5,38,70,26,15
1491695165850,1,-32,-16,-10,-21,-19,12,-73,-8
1491695165896,2,3,-14,10,-25,-27,63,8,-10
1491695165896,2,15,57,15,58,100,-55,-28,-16
1491695165947,3,92,-24,0,-42,-128,-20,16,14
1491695165947,3,7,37,19,5,29,65,-7,-30
1491695165993,1,50,87,22,67,-84,-25,-28,6
1491695165993,1,-57,-12,9,35,72,72,51,31
1491695165994,2,18,-8,20,72,-7,17,-80,-42
1491695165994,2,-14,-13,-7,33,49,-60,1,-42
1491695165995,3,-9,-67,-20,-102,-73,-49,-15,8
1491695165995,3,-7,-83,-28,-28,-20,94,50,-16
1491695165996,0,-29,-46,27,16,43,87,-7,-36
1491695165996,0,-39,-81,-7,6,47,66,-1,-11
1491695166043,2,15,12,33,26,-82,60,25,39
1491695166043,2,-38,45,22,105,74,44,31,20
1491695166045,3,-83,-18,-25,50,117,-95,46,4
1491695166045,3,81,49,-6,-114,-128,-116,-39,52
1491695166046,0,-35,70,1,-71,17,-40,-19,40
1491695166046,0,127,41,-7,58,-27,62,8,56
1491695166047,1,-51,16,21,-23,-63,-128,-21,-23
1491695166047,1,-111,-76,-24,-74,-128,106,-2,-76
1491695166091,2,127,-22,-6,56,55,-66,79,38
1491695166091,2,-65,-33,5,31,-93,12,63,-14
1491695166092,3,85,54,12,-17,66,-97,-102,-30
1491695166092,3,-33,-1,4,3,-96,-90,20,41
1491695166093,1,56,9,6,-3,-24,127,9,25
1491695166093,1,-49,42,-4,-4,-25,47,32,-20
1491695166094,2,-112,14,-1,32,-83,-58,17,31
1491695166094,2,22,-18,-65,-101,-106,-10,-82,-63
1491695166140,3,56,-12,17,-35,-103,-7,-34,-26
1491695166140,3,-56,-29,2,57,71,30,57,-12
1491695166143,0,-21,8,-6,-42,-98,-30,-75,47
1491695166143,0,-32,-30,40,86,92,39,75,32
1491695166144,2,-70,5,10,82,74,-56,55,-8
1491695166144,2,63,20,19,-14,82,3,-13,30
1491695166145,3,-112,-11,-13,-39,-47,57,20,-34
1491695166145,3,-51,-1,-18,-50,17,-6,5,3
1491695166189,0,50,23,12,8,-81,24,-44,1
1491695166189,0,-101,27,-27,14,66,-25,-40,-3
1491695166190,1,-16,-63,-19,-9,-72,42,4,3
1491695166190,1,79,87,13,43,-18,105,9,-8
1491695166191,2,-57,-33,16,55,91,20,47,-1
1491695166191,2,127,19,11,-88,-55,7,-2,12
1491695166192,3,-38,-10,-24,3,-92,4,-15,-29
1491695166192,3,33,-21,-13,-36,-16,-128,-88,19
1491695166238,0,9,-6,-1,-9,2,33,23,-15
1491695166238,0,-15,25,18,42,41,104,29,30
1491695166239,1,-24,15,-1,47,29,-21,17,-20
1491695166239,1,32,-12,-8,-63,62,-20,-15,18
1491695166240,3,-79,0,-2,-11,-23,-128,35,32
1491695166240,3,115,16,15,-2,0,38,-78,-51
1491695166286,0,-49,-30,20,63,85,-60,20,-2
1491695166286,0,81,-5,-21,16,-128,-66,-11,-5
1491695166287,1,-56,-2,-14,-42,95,89,1,16
1491695166287,1,18,15,32,43,-53,-51,0,21
1491695166288,2,35,-7,-12,-96,-99,-17,-3,-27
1491695166288,2,62,3,17,72,55,62,-12,40
1491695166289,0,-45,-12,-24,-59,-111,-56,-42,-2
1491695166289,0,85,-14,-3,-9,29,90,0,-1
1491695166335,1,-65,17,11,41,61,-1,45,-19
1491695166335,1,-26,-6,12,37,15,19,79,4
1491695166336,2,-10,28,50,93,127,105,30,-2
1491695166336,2,-4,10,-34,-44,-128,-128,-20,-25
1491695166337,1,-3,-7,2,45,82,84,-4,-2
1491695166337,1,-83,-10,0,-17,25,1,56,23
1491695166338,2,39,-22,-16,-29,-8,116,80,-23
1491695166338,2,-63,-26,-13,-29,-79,-121,-84,13
1491695166383,3,127,3,-3,13,-46,-2,44,10
1491695166383,3,1,-14,-9,-9,-20,6,-52,28
1491695166385,0,-15,30,33,53,69,92,-42,23
1491695166385,0,4,-32,-3,-29,-43,34,2,-37
1491695166387,2,24,2,-4,21,58,5,26,-22
1491695166387,2,-17,12,8,-40,-70,66,61,0
1491695166388,3,-2,5,-10,-3,-10,-37,-7,13
1491695166388,3,27,-14,-6,12,4,-22,19,-49
1491695166432,0,-47,-3,3,0,15,1,24,28
1491695166432,0,-61,6,2,7,11,63,7,-9
1491695166433,1,99,49,44,77,125,-40,4,-8
1491695166433,1,73,-1,-24,-47,-53,95,44,-17
1491695166434,3,-87,-11,12,78,53,127,-29,-75
1491695166434,3,-88,1,29,-36,-33,-99,-2,-29
1491695166436,0,115,7,-13,-42,-46,-50,-1,4
1491695166436,0,-71,-2,-5,-24,82,8,-46,-29
1491695166481,1,-29,-43,-29,46,0,24,-26,36
1491695166481,1,-69,30,26,40,-52,12,32,-36
1491695166485,2,71,-25,-31,-99,-63,-31,-63,-39
1491695166485,2,-100,-8,-27,33,44,38,55,5
1491695166490,0,-106,-5,4,46,71,-20,22,-57
1491695166490,0,51,10,8,-26,46,-36,7,-3
1491695166496,1,9,18,-27,-75,-102,-128,-96,-16
1491695166496,1,58,-15,-43,-61,-105,51,27,63
1491695166530,2,-122,-27,5,30,80,105,-9,-16
1491695166530,2,85,-25,-31,23,-71,-91,32,26
1491695166534,3,-41,-2,44,55,88,-80,-75,-45
1491695166534,3,-60,18,18,-31,-123,-6,7,23
1491695166540,0,40,14,-3,-37,112,64,41,0
1491695166540,0,-104,-27,-10,38,-70,-59,47,-30
1491695166540,1,-46,-19,-17,-54,-110,-112,-10,55
1491695166540,1,121,31,20,5,-23,48,-24,-8
1491695166578,2,4,-22,-33,83,57,-48,-60,-33
1491695166578,2,-68,29,37,-110,-128,36,59,37
1491695166579,3,27,17,20,50,118,-3,-95,-59
1491695166579,3,79,-7,-26,7,-37,-14,122,-33
1491695166580,1,29,0,25,-7,99,70,51,46
1491695166580,1,-113,-20,-37,-4,127,127,-74,-43
1491695166581,2,127,20,62,109,-1,-128,43,21
1491695166581,2,-88,-4,-37,-65,-39,-69,-86,-53
1491695166627,3,24,-9,-15,11,-111,126,61,66
1491695166627,3,-12,-3,2,97,106,-34,-39,2
1491695166630,0,39,-18,-19,-53,-106,-45,-30,16
1491695166630,0,-98,20,28,-39,-20,127,40,-16
1491695166631,2,-98,-33,-19,-55,-128,-36,-126,-9
1491695166631,2,127,-24,-55,-66,4,98,34,-20
1491695166634,3,30,21,10,14,21,-12,-33,-10
1491695166634,3,-61,40,56,71,-107,-50,107,7
1491695166676,0,-42,-14,-71,-80,-84,69,-70,-43
1491695166676,0,38,-57,-40,94,-73,-100,-9,66
1491695166677,1,-3,40,58,55,44,127,-57,-26
1491695166677,1,83,34,54,78,77,80,44,31
1491695166678,3,-128,-67,-52,90,55,-120,-71,23
1491695166678,3,127,55,86,6,65,100,3,48
1491695166679,0,-50,30,36,-24,-64,80,117,21
1491695166679,0,-92,-1,15,-41,58,-73,-71,-57
1491695166725,1,98,-71,-84,-116,75,-47,36,63
1491695166725,1,-85,7,-12,-24,-128,30,-23,-3
1491695166726,2,9,27,50,-11,-75,90,127,18
1491695166726,2,99,12,27,85,127,-52,35,48
1491695166727,0,30,11,46,127,-9,117,25,44
1491695166727,0,-37,11,51,54,71,-112,104,2
1491695166728,1,16,14,-57,-128,-128,20,45,-22
1491695166728,1,-43,-58,-3,30,110,22,17,28
1491695166773,2,-79,-6,-13,2,-39,-123,-128,-82
1491695166773,2,-17,46,47,5,6,92,47,49
1491695166775,3,-18,-32,-7,72,68,77,80,-8
1491695166775,3,73,-12,12,-3,-57,-73,7,-29
1491695166775,1,-82,-5,2,-90,-128,-93,-102,-40
1491695166775,1,-40,-37,-53,-109,-77,117,58,90
1491695166776,2,107,-21,6,127,127,11,-84,17
1491695166776,2,22,30,-21,-97,-93,-43,-31,-18
1491695166822,3,-100,-17,-21,-85,65,-33,123,38
1491695166822,3,21,-27,-38,-108,-128,-100,-128,22
1491695166823,0,-40,56,57,33,-50,75,105,-53
1491695166823,0,68,-5,86,127,119,127,-26,-5
1491695166824,2,105,-15,32,61,117,71,42,88
1491695166824,2,-118,32,38,-10,-69,-29,-24,-41
1491695166825,3,105,38,33,-66,-86,-50,-11,-39
1491695166825,3,-65,-35,-52,62,127,84,4,-58
1491695166871,0,51,18,-5,-24,-104,-128,7,-27
1491695166871,0,54,3,-18,10,127,116,103,0
1491695166880,1,-92,-19,73,115,-104,-19,0,8
1491695166880,1,-66,60,-38,-95,18,-31,-84,-79
1491695166881,2,40,-40,-30,-67,-41,-88,-68,25
1491695166881,2,0,-24,-21,-13,-13,113,13,3
1491695166884,3,-46,29,-20,33,110,116,110,18
1491695166884,3,41,-12,41,54,44,-33,-113,15
1491695166919,0,-21,-26,-60,5,5,-19,50,-60
1491695166919,0,37,7,38,-46,36,-61,-77,29
1491695166920,1,41,-36,-29,76,-27,-14,-12,-44
1491695166920,1,-102,30,32,12,-24,71,106,20
1491695166921,3,-37,-28,-51,-36,28,-51,-89,-85
1491695166921,3,32,-13,90,75,24,-10,7,67
1491695166926,0,-127,-12,-17,16,-128,56,55,1
1491695166926,0,43,-8,-23,-50,-57,39,17,32
1491695166968,1,2,33,33,112,105,90,41,36
1491695166968,1,47,12,-4,53,7,-128,-128,-104
1491695166969,2,-7,24,36,-114,-55,109,70,63
1491695166969,2,14,-7,-7,109,68,-48,-20,-39
1491695166970,0,-51,-12,67,127,123,-99,56,-13
1491695166970,0,-111,28,-15,-113,-60,-105,-48,-80
1491695166971,1,46,10,-27,-128,-87,-18,-14,109
1491695166971,1,-51,-43,-15,127,127,27,-12,-104
1491695167017,2,-12,4,-29,-127,-128,-90,52,34
1491695167017,2,-79,-38,-23,3,59,-17,-128,-22
1491695167018,3,29,20,46,127,115,29,16,6
1491695167018,3,-7,-10,-48,-119,-120,48,59,12
1491695167066,1,5,12,101,-81,-29,10,-18,93
1491695167066,1,69,-8,-34,32,16,51,16,-14
1491695167067,2,-57,-5,25,44,123,-111,-97,-24
1491695167067,2,-33,8,-32,34,127,127,34,-6
1491695167067,3,-10,17,57,-39,-106,-3,-21,-2
1491695167067,3,-64,-37,-43,-48,2,-121,-31,-31
1491695167068,0,-4,-61,-33,-29,79,112,88,56
1491695167068,0,-84,-16,76,-77,-128,-124,-106,-5
1491695167115,2,-30,52,8,-38,103,97,-7,39
1491695167115,2,15,14,21,-82,-128,18,66,-29
1491695167115,3,10,-25,-57,-124,-47,-46,-66,-40
1491695167115,3,4,38,-15,120,127,58,66,29
1491695167116,0,-10,37,93,79,33,38,-70,-13
1491695167116,0,-32,-58,-94,-116,-76,81,104,-33
1491695167117,3,37,7,-23,19,127,83,51,25
1491695167117,3,-36,17,-33,-23,43,-3,-81,-1
1491695167164,0,12,-16,-60,-128,-94,-51,43,16
1491695167164,0,-19,-8,56,127,-3,30,-24,13
1491695167165,1,18,-35,27,-63,-12,25,-45,-2
1491695167165,1,-43,15,110,61,-64,40,66,5
1491695167166,0,-7,45,78,127,74,-9,28,-2
1491695167166,0,81,4,20,76,97,68,-10,32
1491695167167,1,23,21,48,6,122,127,99,-20
1491695167167,1,-82,-37,-36,-46,-79,-50,-52,10
1491695167212,2,-9,-13,-39,-44,38,-14,16,-52
1491695167212,2,-34,-36,-98,-70,-41,14,-67,41
1491695167214,3,57,37,55,127,116,88,10,-4
1491695167214,3,20,-14,18,-13,-48,35,14,35
1491695167215,1,20,55,10,40,60,-36,-20,-1
1491695167215,1,40,-52,30,-64,-31,8,40,10
1491695167216,2,-37,-35,42,18,4,-14,-24,10
1491695167216,2,43,-27,-84,-61,83,31,26,-17
1491695167263,3,-50,-58,-46,50,-7,-38,-32,-28
1491695167263,3,40,53,36,-77,-14,34,30,-4
1491695167263,0,-48,-9,75,54,14,9,-30,-11
1491695167263,0,34,-38,-37,9,88,92,78,-29
1491695167264,1,-48,-37,-63,-85,-128,-96,-88,20
1491695167264,1,2,36,-66,62,25,127,99,22
1491695167264,2,16,-7,12,26,-2,-16,-35,6
1491695167264,2,-10,16,42,125,-11,4,8,-45
1491695167310,3,2,71,127,44,-11,31,31,-4
1491695167310,3,2,9,-13,-44,-6,-24,-26,11
1491695167311,0,38,31,-3,69,-38,-27,-22,20
1491695167311,0,3,-29,-22,-68,-38,-14,-25,4
1491695167358,2,-21,-16,53,53,64,-8,-21,-7
1491695167358,2,33,15,-15,51,122,31,46,-9
1491695167359,3,-38,-31,-18,-21,-21,-14,-44,-21
1491695167359,3,41,55,1,-32,-62,-40,-7,10
1491695167360,0,15,8,6,-18,36,21,16,17
1491695167360,0,-11,13,0,15,-69,-13,-28,-8
1491695167361,1,-5,-61,8,-5,66,-3,21,21
1491695167361,1,-37,-14,37,49,37,12,-5,-33
1491695167407,3,12,1,47,101,-16,110,18,-6
1491695167407,3,5,-4,-49,-128,-52,-113,-43,-43
1491695167409,0,-26,36,-86,-123,-124,-76,-29,32
1491695167409,0,4,-23,-56,54,-99,-58,-41,16
1491695167410,1,-7,-14,14,90,82,27,20,19
1491695167410,1,-32,-37,56,127,127,127,53,-9
1491695167411,0,30,-9,-28,-20,50,35,12,-1
1491695167411,0,59,13,13,66,34,41,7,-3
1491695167456,1,-13,29,60,118,109,14,-7,18
1491695167456,1,-53,-64,-17,-69,-99,71,13,-12
1491695167505,2,13,-7,6,16,-4,-42,-30,-49
1491695167505,2,-59,-8,-46,-83,-96,-91,-28,25
1491695167505,1,-48,10,3,66,64,27,9,-11
1491695167505,1,36,-5,-12,-30,-26,-32,-18,23
1491695167506,2,-25,26,10,77,54,48,30,-4
1491695167506,2,-7,37,24,-44,-7,-1,-19,-19
1491695167507,3,8,19,8,-33,-10,-69,-18,-17
1491695167507,3,-43,-11,-32,62,89,77,39,1
1491695167553,0,34,-53,52,70,96,-12,-29,-3
1491695167553,0,-62,-77,-46,-77,-102,53,-11,-14
1491695167602,2,4,-20,-12,57,58,31,20,14
1491695167602,2,-10,-82,29,112,114,57,25,-15
1491695167603,3,15,76,-8,6,56,112,46,-6
1491695167603,3,40,50,-34,-68,37,40,21,30
1491695167603,3,14,2,-24,-23,25,29,13,15
1491695167603,3,8,31,29,22,3,20,-27,9
1491695167604,0,-35,-1,-37,-67,-72,-82,-2,10
1491695167604,0,28,56,-8,-24,-86,-76,-2,11
1491695167651,1,-49,-14,0,17,22,8,-26,-41
1491695167651,1,-46,-6,-21,-40,-18,-8,-5,2
1491695167653,3,-38,-8,60,-7,-107,39,-11,-17
1491695167653,3,-89,-10,-93,-72,-86,-111,-35,12
1491695167654,0,87,35,-51,54,-18,-71,49,-6
1491695167654,0,-33,-15,6,-84,-100,-22,29,-21
1491695167654,1,71,11,42,76,93,36,8,13
1491695167654,1,59,-5,9,26,63,-17,6,13
1491695167700,2,52,-19,31,-10,46,52,-26,14
1491695167700,2,-26,-4,-19,17,17,-25,-21,4
1491695167700,3,1,-17,-6,-95,-37,-1,29,8
1491695167700,3,-34,-6,-13,48,-49,-29,-72,-27
1491695167701,1,-14,-5,-4,4,-58,-12,-55,-31
1491695167701,1,55,8,25,32,19,31,43,-11
1491695167703,2,-19,11,-46,-11,-33,-125,-33,-20
1491695167703,2,-100,11,11,7,71,97,34,-5
1491695167748,3,26,39,6,-21,-22,50,-30,5
1491695167748,3,36,-3,-12,28,99,-38,-59,0
1491695167750,0,-72,12,20,8,-13,32,-1,16
1491695167750,0,85,-24,14,81,-20,54,32,34
1491695167750,2,-18,-7,3,-14,-15,-33,-100,-51
1491695167750,2,-5,-49,-12,12,24,-100,-30,-14
1491695167751,3,-37,-12,30,35,48,85,90,2
1491695167751,3,76,9,6,17,-37,43,-15,-19
1491695167797,0,30,-18,-38,-128,-108,15,80,12
1491695167797,0,-91,-29,-14,32,19,-86,-43,32
1491695167798,1,97,16,26,113,108,13,-5,-1
1491695167798,1,-59,13,12,-93,-33,27,-9,6
1491695167799,3,-47,-7,-7,-6,20,18,6,23
1491695167799,3,43,-20,62,126,17,29,42,38
1491695167800,0,-13,-31,20,81,100,7,-51,-23
1491695167800,0,24,-21,11,-113,-63,33,29,-31
1491695167846,1,-87,0,-48,-18,-31,4,-115,-6
1491695167846,1,65,7,1,-21,-44,55,89,15
1491695167847,2,9,10,-2,0,-6,78,58,28
1491695167847,2,-51,-39,53,116,127,64,-4,-34
1491695167848,0,-54,-8,-13,-45,-79,-33,-62,-13
1491695167848,0,-20,36,1,71,116,117,24,-21
1491695167848,1,51,40,32,-14,-71,-67,-32,31
1491695167848,1,-128,41,0,56,55,-44,-8,-1
1491695167895,2,127,16,4,19,93,29,-15,10
1491695167895,2,-80,-17,-24,-52,-80,-92,-47,25
1491695167896,3,-47,-5,10,49,97,115,23,-43
1491695167896,3,-16,-14,0,-114,-125,-83,36,29
1491695167901,1,-128,-2,30,46,112,6,-21,-54
1491695167901,1,111,-25,-32,12,-16,-71,-31,-36
1491695167902,2,-15,-5,-13,-34,58,127,5,42
1491695167902,2,-83,-4,-15,11,-24,-128,-7,20
1491695167944,3,111,62,42,53,21,44,12,19
1491695167944,3,29,48,78,115,127,127,95,-8
1491695167946,0,21,-30,25,-7,-60,-40,2,35
1491695167946,0,29,-3,-26,-120,-80,50,32,-43
1491695167948,1,43,-23,-71,-35,-36,-65,34,-6
1491695167948,1,-128,-18,-25,-51,-79,-10,-110,-26
1491695167949,2,18,-9,-14,1,22,-25,94,45
1491695167949,2,-69,24,53,65,24,104,-113,-49
1491695167992,3,49,-7,2,32,7,-56,52,-5
1491695167992,3,47,25,18,-27,79,-51,41,-11
1491695167994,0,-63,0,-21,-18,-64,-36,25,80
1491695167994,0,50,24,2,19,32,40,4,13
1491695167996,2,2,64,37,113,82,-126,58,34
1491695167996,2,68,-5,-13,-30,-86,-35,45,-24
1491695168001,3,30,-22,-49,-73,-60,46,-5,-38
1491695168001,3,-128,4,-37,54,120,-128,-63,15
1491695168041,0,-33,2,10,38,4,123,42,4
1491695168041,0,-42,13,32,86,127,87,-28,-41
1491695168043,1,58,-11,31,46,-27,-2,48,28
1491695168043,1,-32,2,-6,-88,-80,5,-36,-17
1491695168044,3,42,7,22,0,-68,-65,18,45
1491695168044,3,69,-18,17,35,127,8,-49,-25
1491695168045,0,31,-17,16,15,-128,-36,-128,-37
1491695168045,0,-53,-18,-31,-34,70,-30,54,-7
1491695168093,1,-62,18,13,-35,-81,26,91,49
1491695168093,1,95,6,-10,-43,53,86,19,22
1491695168094,2,-94,-34,-54,17,-97,-83,-92,-44
1491695168094,2,96,-4,-14,-68,-84,-46,57,-9
1491695168095,0,-5,-5,20,2,-96,-45,-5,-30
1491695168095,0,13,-28,-45,-53,6,89,3,9
1491695168096,1,23,18,8,-22,-29,-107,-61,31
1491695168096,1,-118,-8,15,18,-32,3,48,0
1491695168138,2,79,-7,6,44,127,56,77,-19
1491695168138,2,24,28,4,8,-35,-21,-55,4
1491695168139,3,-58,-17,-22,-57,-61,-28,-20,-49
1491695168139,3,26,-7,-47,-22,-58,72,23,48
1491695168140,1,21,-13,-5,14,24,41,11,8
1491695168140,1,-63,-10,-1,9,-51,-47,-27,-4
1491695168141,2,-62,4,-25,-63,-57,-42,-85,-45
1491695168141,2,-21,-10,-22,-31,-106,6,32,-15
1491695168187,3,-55,32,46,54,119,2,-35,-8
1491695168187,3,17,-7,0,76,20,26,71,14
1491695168188,0,-9,17,-5,-67,-17,22,-22,-9
1491695168188,0,-18,-26,2,-30,10,34,-27,-24
1491695168189,2,-25,11,7,-35,27,38,22,27
1491695168189,2,-45,-21,8,32,-52,-51,-19,-2
1491695168190,3,-29,-4,-13,35,104,43,41,0
1491695168190,3,68,36,13,-44,-89,81,-31,-28
1491695168236,0,-66,-27,-28,-41,-68,-100,-18,22
1491695168236,0,68,13,-7,10,4,-7,-85,-24
1491695168237,1,60,-4,-4,7,-3,57,-10,35
1491695168237,1,-110,-12,15,12,29,-32,4,11
1491695168238,3,12,-17,-29,6,-64,-69,-50,-33
1491695168238,3,28,7,-39,-58,-65,38,29,21
1491695168239,0,91,14,78,52,103,57,6,-5
1491695168239,0,-50,-12,-6,30,4,-12,35,12
1491695168285,1,47,7,-33,-72,-102,45,8,39
1491695168285,1,-128,-3,30,19,-6,-94,-60,-26
1491695168286,2,-72,-4,-32,12,82,28,17,9
1491695168286,2,-15,20,20,42,33,-15,-29,-20
1491695168287,0,-52,-14,9,16,14,-22,-109,-17
1491695168287,0,50,-26,4,64,102,-11,62,48
1491695168287,1,-48,0,2,60,-17,-49,-57,13
1491695168287,1,116,19,24,10,127,78,104,8
1491695168333,2,30,0,-25,39,-126,87,91,-30
1491695168333,2,36,12,-3,-120,-124,-121,-128,-40
1491695168335,3,91,2,-1,-56,-9,40,3,82
1491695168335,3,-121,-20,26,67,70,62,31,-20
1491695168335,0,-7,8,-8,48,-45,-111,-37,-23
1491695168335,0,-69,14,-9,-82,-91,-74,29,-36
1491695168336,1,50,2,-1,75,66,60,-17,6
1491695168336,1,63,13,-1,56,44,51,-17,-33
1491695168382,2,18,-12,4,-64,-63,-33,27,58
1491695168382,2,-26,-4,-17,-29,-5,4,-24,6
1491695168384,3,-110,24,14,-2,75,70,-29,-23
1491695168384,3,123,10,23,88,62,118,-17,22
1491695168386,1,-24,-15,4,53,70,127,32,-33
1491695168386,1,64,0,63,114,61,49,-30,37
1491695168387,2,60,15,13,-52,-57,-72,50,20
1491695168387,2,7,15,-3,-66,-39,-61,-57,-1
1491695168431,3,-14,-27,-60,-39,39,70,127,-5
1491695168431,3,-12,14,21,21,-103,-128,-92,37
1491695168433,0,-30,-11,25,31,127,127,26,-14
1491695168433,0,-89,59,53,126,19,72,98,63
1491695168434,2,-87,10,-39,-116,-50,-63,-21,27
1491695168434,2,49,-21,-24,113,127,127,-67,52
1491695168435,3,10,5,33,62,109,-5,-11,8
1491695168435,3,-62,-5,46,42,-107,-104,75,-25
1491695168481,0,-20,-12,-30,-34,57,124,9,-46
1491695168481,0,21,16,-17,40,-73,76,-24,10
1491695168486,1,61,-24,-38,-126,-123,-128,-101,31
1491695168486,1,-106,-5,12,73,97,73,-2,-24
1491695168489,3,-62,-16,-46,-79,3,-7,104,-21
1491695168489,3,-75,-10,-28,-16,-7,38,26,79
1491695168492,0,92,40,41,76,-14,-74,-80,73
1491695168492,0,-74,-19,58,100,127,98,4,6
1491695168529,1,-25,-20,0,64,-87,44,42,-63
1491695168529,1,40,23,-66,-128,-128,-124,60,-14
1491695168531,2,-128,-53,-82,49,-27,24,-60,40
1491695168531,2,50,-8,1,-86,31,85,-53,-20
1491695168532,0,127,10,33,-76,-3,-65,62,54
1491695168532,0,-5,-11,-11,88,55,3,-87,-30
1491695168533,1,-122,-22,-9,28,18,-88,-78,-33
1491695168533,1,3,-6,2,-74,-52,118,53,-3
1491695168577,2,-104,3,-25,-1,7,-44,-18,-33
1491695168577,2,-13,-52,-44,-87,-108,-113,7,14
1491695168579,3,82,32,5,55,124,69,28,47
1491695168579,3,49,-25,-37,79,54,25,-11,-11
1491695168581,1,8,-5,-29,-12,75,67,13,8
1491695168581,1,111,-8,30,35,46,20,-10,8
1491695168582,2,-36,11,10,12,6,12,87,44
1491695168582,2,37,12,-18,-80,-46,78,18,-54
1491695168626,3,-5,-8,-56,46,0,-66,50,-23
1491695168626,3,-88,-17,-33,3,-101,-84,-100,14
1491695168628,0,127,-3,70,-34,127,127,127,29
1491695168628,0,47,10,-1,104,-67,-77,-120,31
1491695168629,2,81,-11,20,127,68,-128,-128,-41
1491695168629,2,-34,24,21,-124,-60,107,127,-68
1491695168630,3,-8,18,-49,-56,-97,78,-40,-39
1491695168630,3,-35,-2,-8,66,63,37,10,45
1491695168675,0,11,57,59,61,4,127,106,8
1491695168675,0,-48,4,-63,-34,9,-22,-56,-29
1491695168676,1,3,-32,-40,17,-82,-93,-116,-33
1491695168676,1,65,58,104,8,1,14,-78,43
1491695168678,2,98,11,6,98,9,109,127,44
1491695168678,2,39,-29,-58,-8,-24,32,-92,-118
1491695168679,3,-116,-3,33,-37,-83,95,62,15
1491695168679,3,26,-77,-117,14,-77,-128,-115,-34
1491695168731,0,-70,23,14,-60,-68,53,-11,-17
1491695168731,0,-66,1,28,127,79,57,-28,22
1491695168731,1,-2,9,24,-110,-41,52,65,13
1491695168731,1,-70,-42,-34,-114,-83,-11,86,36
1491695168732,3,81,4,10,-16,101,127,102,43
1491695168732,3,-97,25,74,85,-102,-58,18,-40
1491695168732,0,26,-75,-89,-128,-38,-60,-87,45
1491695168732,0,-4,-19,86,127,-8,66,30,63
1491695168772,1,58,44,10,13,127,60,-23,-31
1491695168772,1,-77,-10,-59,-106,-109,-100,-91,-42
1491695168774,2,-78,9,-23,18,-110,-39,74,-10
1491695168774,2,49,4,15,-13,86,23,-51,61
1491695168775,0,40,10,55,100,80,86,73,32
1491695168775,0,40,-14,-65,-107,-69,-110,-24,17
1491695168776,1,0,-8,27,108,-64,97,79,-55
1491695168776,1,69,44,55,102,127,127,-6,59
1491695168821,2,-40,-50,-111,-80,-128,-104,35,-28
1491695168821,2,10,13,6,52,55,-1,40,33
1491695168822,3,-93,-4,57,90,-80,46,-128,48
1491695168822,3,64,23,90,94,98,88,127,-3
1491695168824,1,-73,-18,-8,61,44,-42,-102,8
1491695168824,1,2,-39,-65,-66,-112,70,76,-22
1491695168825,2,-22,14,9,-91,-34,-2,-118,-41
1491695168825,2,15,2,10,67,59,-7,-21,-19
1491695168870,3,15,-13,60,12,-66,14,74,3
1491695168870,3,68,-10,-15,-65,-23,124,10,30
1491695168871,0,-43,-26,-55,89,70,-118,92,35
1491695168871,0,-11,6,69,34,-42,45,-64,-8
1491695168872,2,19,7,66,4,-128,-68,-104,44
1491695168872,2,-11,9,44,23,15,63,55,2
1491695168873,3,66,1,-64,15,-90,47,-74,5
1491695168873,3,-69,-48,72,15,29,-78,-37,1
1491695168919,0,21,-74,-72,28,63,0,46,-18
1491695168919,0,-47,-28,-7,-11,-62,-81,42,25
1491695168968,1,49,1,17,8,54,27,-124,-9
1491695168968,1,117,50,58,107,-55,24,-28,-8
1491695168970,3,32,27,-61,-119,-41,-108,-6,9
1491695168970,3,-14,-25,15,127,109,11,3,19
1491695168972,0,-20,41,29,-74,60,26,3,-31
1491695168972,0,68,-3,-128,-128,-77,12,-63,-20
1491695168973,1,-15,10,42,125,94,35,88,61
1491695168973,1,-36,43,55,30,-33,-128,-73,-43
1491695169016,2,-3,-34,75,-40,-106,-58,-54,-23
1491695169016,2,-87,17,-67,112,127,123,80,-23
1491695169018,0,-45,-34,-1,61,14,-3,37,23
1491695169018,0,-5,18,55,80,-33,32,-90,33
1491695169019,1,-9,-33,19,73,89,44,65,-6
1491695169019,1,-23,-20,-45,8,-17,38,-33,-58
1491695169029,0,-60,0,-9,127,20,92,1,20
1491695169029,0,79,7,34,67,123,2,30,18
1491695169065,1,2,22,12,29,-74,26,4,-1
1491695169065,1,18,-15,-21,-116,-14,-36,-5,-10
1491695169067,2,-37,-69,47,99,48,-2,-13,-18
1491695169067,2,12,17,-34,-26,-37,50,56,33
1491695169068,1,-10,-44,-52,-97,-85,-119,-72,-25
1491695169068,1,-55,12,-89,-2,-61,-101,-28,9
1491695169069,2,3,36,-25,45,42,66,-6,18
1491695169069,2,1,-33,4,114,64,65,38,15
1491695169113,3,-5,35,93,-66,18,1,-34,-6
1491695169113,3,39,-23,-23,32,-17,27,10,10
1491695169115,0,15,8,-13,-4,-61,4,22,3
1491695169115,0,25,-28,3,-24,-19,-39,-10,-3
1491695169116,2,30,13,88,-9,25,19,-23,20
1491695169116,2,-1,-58,-112,-13,12,-34,-10,-43
1491695169162,3,-6,106,69,12,-83,-67,-34,41
1491695169162,3,19,-53,-69,116,39,58,54,-3
1491695169163,0,-1,-10,49,100,90,85,21,-18
1491695169163,0,-9,28,12,-128,-128,-109,-74,7
1491695169164,1,-12,26,-56,-52,51,-81,-20,-17
1491695169164,1,25,79,0,115,121,15,-19,42
1491695169165,3,25,-59,95,127,105,101,52,24
1491695169165,3,14,22,-17,-109,-47,-50,-34,-24
1491695169211,0,18,18,-7,-29,-32,12,27,0
1491695169211,0,25,22,41,37,83,31,-17,-6
1491695169213,1,-3,9,11,72,40,77,42,-14
1491695169213,1,-47,-28,-38,-38,-51,13,17,-12
1491695169312,2,-11,59,-118,-122,-128,-128,-95,28
1491695169312,2,3,9,-3,44,41,42,-6,20
1491695169313,0,41,-58,-15,-18,15,60,24,-46
1491695169313,0,-14,3,-6,-61,-33,-106,-56,-1
1491695169313,1,-16,-24,-74,-35,7,18,24,-29
1491695169313,1,-31,26,7,-87,-105,-102,-56,16
1491695169314,2,-11,-30,5,63,0,-39,33,8
1491695169314,2,-9,-40,35,122,38,109,21,-44
1491695169357,1,21,57,-52,-84,-128,-85,-41,1
1491695169357,1,-35,-17,44,124,107,30,23,-10
1491695169358,2,4,27,4,-5,22,-30,-40,0
1491695169358,2,1,38,-43,-25,-74,-17,46,-1
1491695169359,3,45,39,25,-36,24,12,-29,6
1491695169359,3,-21,8,16,50,76,36,11,-6
1491695169360,2,70,-15,-15,-27,-67,-12,24,1
1491695169360,2,24,-4,57,102,84,0,-10,19
1491695169406,3,-2,-19,13,40,70,33,30,-3
1491695169406,3,9,56,-13,-37,-63,-23,-8,-18
1491695169407,0,-25,46,18,-6,13,27,16,-8
1491695169407,0,9,-13,-7,37,33,80,-3,24
1491695169408,3,-35,-27,12,74,55,81,16,7
1491695169408,3,39,4,21,54,56,-42,-46,-21
1491695169409,0,-49,31,-36,-98,-54,-10,21,18
1491695169409,0,-50,23,-38,-57,-64,-9,-16,-9
1491695169454,1,-48,-21,-19,-2,2,-55,12,0
1491695169454,1,29,-2,-18,21,5,17,12,-15
1491695169455,2,-52,0,65,10,49,47,13,2
1491695169455,2,-2,19,-15,24,11,19,9,-7
1491695169456,0,10,3,17,67,42,27,-8,7
1491695169456,0,17,2,-7,-30,43,-46,44,5
1491695169457,1,-57,55,-9,-43,-92,-13,-63,-41
1491695169457,1,16,-10,26,86,127,97,89,2
1491695169503,2,-51,-3,-26,-39,-96,-64,-29,8
1491695169503,2,-68,3,1,-50,-73,-43,-31,-9
1491695169504,3,-10,-17,-43,10,28,10,-11,-9
1491695169504,3,-1,37,11,59,56,27,0,7
1491695169505,1,42,69,-49,-128,-128,-29,16,17
1491695169505,1,-56,35,-13,38,-62,-52,-87,-46
1491695169506,2,101,-4,10,85,65,8,-24,5
1491695169506,2,40,-16,-4,38,47,64,58,-7
1491695169552,3,-6,-80,58,1,-27,-29,10,21
1491695169552,3,81,26,11,-111,-11,33,16,36
1491695169553,0,-21,27,-55,-23,-127,-111,-22,-19
1491695169553,0,-32,20,16,30,9,81,16,-15
1491695169554,2,-32,15,-28,-87,55,-99,-26,9
1491695169554,2,66,-8,-28,-19,-128,49,-11,6
1491695169555,3,-77,-23,-13,8,-93,-122,-18,12
1491695169555,3,-54,-35,23,119,116,39,-60,-68
1491695169601,0,70,-35,-19,-70,-22,25,23,55
1491695169601,0,36,-17,11,68,110,71,57,-19
1491695169602,1,-47,-1,-34,-118,-96,1,-12,-17
1491695169602,1,-9,-15,-26,-50,-100,-4,-74,-26
1491695169603,3,73,0,23,69,100,100,17,17
1491695169603,3,-28,-19,8,37,76,74,86,3
1491695169604,0,32,-30,10,-60,-64,51,-23,-10
1491695169604,0,-18,27,-23,-122,-128,-65,-70,-16
1491695169650,1,-99,-6,-18,95,112,58,39,5
1491695169650,1,85,55,4,56,-24,-11,74,3
1491695169651,2,28,-43,-20,-49,-49,48,-25,5
1491695169651,2,-1,-11,-9,-49,-126,-44,-37,-15
1491695169652,0,60,5,8,10,-74,31,-18,-25
1491695169652,0,-77,-10,23,31,104,68,42,16
1491695169653,1,0,17,-20,-64,47,11,-118,-76
1491695169653,1,-49,32,-23,-69,-124,28,10,27
1491695169698,2,55,66,-22,31,68,-46,20,-7
1491695169698,2,-58,1,25,12,53,66,13,37
1491695169699,3,17,-50,20,22,66,-62,-37,-49
1491695169699,3,-18,-25,0,-82,-75,78,30,-8
1491695169701,1,0,-14,26,82,84,127,108,14
1491695169701,1,59,-35,29,23,-16,-128,-115,37
1491695169704,2,-77,-2,13,48,37,52,90,-55
1491695169704,2,115,11,34,30,126,68,113,38
1491695169747,3,-36,22,-51,-114,-128,-128,-56,-59
1491695169747,3,58,40,-41,-120,-40,66,84,11
1491695169748,0,-65,2,-2,82,87,-63,-72,-45
1491695169748,0,-76,-27,-45,-56,-99,-24,-38,-16
1491695169749,1,57,-41,32,-44,-66,41,41,75
1491695169749,1,-52,-45,-29,99,90,127,-34,6
1491695169750,2,12,5,53,78,-64,-101,-43,-23
1491695169750,2,-82,2,64,-50,93,-14,-40,-106
1491695169796,3,72,13,-86,-124,-105,2,64,24
1491695169796,3,64,11,10,71,71,-51,-25,25
1491695169797,0,-34,-14,24,85,127,127,-4,30
1491695169797,0,34,-44,-34,-67,-96,-128,10,-27
1491695169798,2,40,56,47,45,102,37,37,14
1491695169798,2,92,0,31,59,51,-13,-90,14
1491695169799,3,24,-29,1,-47,-40,-71,96,-18
1491695169799,3,-45,37,28,-74,-69,-31,49,-34
1491695169845,0,4,-35,-15,-24,14,70,-7,16
1491695169845,0,-56,59,-4,36,-50,2,-2,52
1491695169846,1,-29,0,-12,127,127,69,-36,2
1491695169846,1,42,-47,-8,-97,-102,-15,-20,-61
1491695169847,3,-109,-32,13,7,-63,96,-60,-60
1491695169847,3,84,-9,31,69,48,31,94,24
1491695169847,0,-69,-29,-15,-82,51,23,-81,-46
1491695169847,0,-96,-6,-19,-63,-84,5,36,15
1491695169893,1,1,26,46,77,127,21,26,4
1491695169893,1,-16,-34,-5,29,-115,-87,-39,-23
1491695169894,2,34,13,-2,-65,-3,-76,-45,14
1491695169894,2,0,9,-38,-45,-11,94,77,-40
1491695169895,0,-68,-15,-5,42,-72,-44,-7,49
1491695169895,0,-69,-41,-20,-52,70,18,-25,-12
1491695169896,1,69,14,20,47,21,77,8,21
1491695169896,1,-55,21,27,51,55,-103,-24,-67
1491695169942,2,-40,-23,-6,3,-113,-69,-12,-7
1491695169942,2,36,-21,-21,-89,-31,127,25,-53
1491695169943,3,-103,-15,-18,-32,-47,-128,-11,44
1491695169943,3,64,11,3,19,24,-27,-56,17
1491695169945,1,-64,0,17,0,-42,-64,94,-23
1491695169945,1,-67,-3,-16,-27,-29,91,26,23
1491695169946,2,82,47,16,19,92,-11,-36,35
1491695169946,2,-82,-30,6,45,-40,-54,-31,-48
1491695169995,3,127,11,8,10,61,22,-37,7
1491695169995,3,-91,-2,-4,-25,28,106,91,-6
1491695169999,0,-1,3,-10,-89,-75,-27,-7,-31
1491695169999,0,-26,-8,6,71,35,-23,-16,34
1491695170000,2,-42,-30,-49,-71,-55,-34,-27,-1
1491695170000,2,-3,-1,-12,-17,-58,24,24,38
1491695170000,3,98,12,6,48,44,37,9,-4
1491695170000,3,-50,0,41,47,107,71,8,26
1491695170040,0,-38,1,6,28,54,88,65,-1
1491695170040,0,4,9,-13,-62,-68,-128,-57,-45
1491695170040,1,14,-25,-58,-66,-110,77,-12,5
1491695170040,1,-20,15,4,-39,4,-75,-66,27
1491695170041,3,43,10,-2,40,76,43,-46,-16
1491695170041,3,0,-14,-34,-27,-84,-87,-19,-39
1491695170042,0,-55,1,-4,-54,-71,0,54,12
1491695170042,0,39,7,20,24,88,84,12,-16
1491695170088,1,54,-14,-14,-35,-90,-111,-66,-9
1491695170088,1,33,-7,-5,10,31,59,42,27
1491695170089,2,-24,-8,11,24,-12,32,6,7
1491695170089,2,2,-1,-5,1,-24,-79,-7,-6
1491695170090,3,37,-7,-6,-27,2,21,-9,22
1491695170090,3,-66,-19,-9,-19,25,-37,-48,60
1491695170091,0,68,3,2,17,37,120,12,50
1491695170091,0,-36,13,4,26,-5,-25,-86,34
1491695170137,1,36,10,15,13,18,-39,43,44
1491695170137,1,127,-5,-17,-51,-48,63,10,4
1491695170138,2,-113,-12,5,38,67,-94,-21,-46
1491695170138,2,-44,-11,2,6,46,69,-50,7
1491695170139,0,-119,-22,5,-18,-41,-119,-50,-27
1491695170139,0,127,9,2,22,-76,46,85,4
1491695170140,1,-77,2,11,34,127,80,-19,4
1491695170140,1,-99,-2,-10,87,-85,-26,20,-55
1491695170186,2,49,-2,24,-48,-12,22,32,-39
1491695170186,2,-14,-3,-17,-88,-27,35,1,-12
1491695170187,3,29,-3,-3,48,-110,-36,-19,-25
1491695170187,3,55,-3,-6,-27,4,41,60,-15
1491695170188,1,-54,-4,-10,-40,-65,87,-108,-44
1491695170188,1,-92,8,1,-58,-40,-97,-29,28
1491695170189,2,107,-18,-32,16,26,106,79,53
1491695170189,2,79,33,17,26,-8,-123,-41,17
1491695170235,3,-52,-22,-14,-84,-89,6,6,-25
1491695170235,3,10,6,-22,103,46,58,-16,26
1491695170238,0,84,24,42,77,87,-17,21,-6
1491695170238,0,-74,-13,0,2,-90,101,63,8
1491695170239,2,-78,5,-21,80,-14,127,86,45
1491695170239,2,40,-20,11,40,127,-65,-99,-42
1491695170240,3,-8,17,36,-10,0,36,107,-16
1491695170240,3,11,-25,-31,-128,-99,-104,-6,-17
1491695170284,0,38,-19,-35,-67,10,65,-75,-34
1491695170284,0,22,11,9,101,82,-68,57,11
1491695170284,1,-34,-14,-8,27,-79,-98,-104,-28
1491695170284,1,-51,24,7,-48,57,76,59,69
1491695170285,3,-75,-25,11,20,52,-72,-45,5
1491695170285,3,38,-2,3,109,-54,-46,85,-29
1491695170286,0,-110,4,-21,-128,-75,2,73,-11
1491695170286,0,16,5,9,77,127,-82,-5,17
1491695170332,1,60,2,7,88,10,-76,-61,63
1491695170332,1,-114,-39,-23,-123,-58,74,48,-11
1491695170334,2,30,-12,-52,100,103,0,-80,-31
1491695170334,2,-34,13,6,-128,-100,-85,-90,-32
1491695170336,0,-114,-19,6,-84,-110,-45,71,-9
1491695170336,0,-90,-15,-20,53,79,107,-13,1
1491695170338,1,65,9,36,79,35,77,-64,15
1491695170338,1,-10,-13,-26,-85,-70,127,-15,-60
1491695170381,2,127,-2,-8,-27,-104,16,-64,32
1491695170381,2,-128,6,22,54,-78,-122,-107,2
1491695170384,3,127,-12,-12,8,127,113,127,40
1491695170384,3,-20,25,-46,10,-55,-100,-91,-70
1491695170385,1,-78,8,23,86,58,-36,127,4
1491695170385,1,127,23,29,-5,-82,-127,-128,-39
1491695170386,2,-110,40,-56,-71,-20,29,17,-15
1491695170386,2,28,-31,-40,-39,9,-45,-80,46
1491695170430,3,33,-6,44,50,81,90,79,1
1491695170430,3,-23,-20,32,-65,-15,122,-11,-1
1491695170431,0,-49,-24,-17,122,101,53,-128,-109
1491695170431,0,0,-41,-70,-109,-128,-51,53,17
1491695170432,1,-2,11,-33,-128,-71,78,15,54
1491695170432,1,51,29,60,127,127,86,72,37
1491695170435,2,-15,5,80,39,90,-101,-88,24
1491695170435,2,80,7,-8,-13,-86,127,28,0
1491695170478,3,-85,-17,-75,-128,-128,-97,-18,-85
1491695170478,3,-8,37,36,42,38,127,104,107
1491695170479,0,-43,-2,-24,127,94,81,-58,-31
1491695170479,0,57,-9,25,-49,-76,-111,113,-5
1491695170479,2,-51,18,15,-23,-29,76,58,15
1491695170479,2,-81,-14,-29,-38,-49,-85,-116,-105
1491695170481,3,-61,5,-15,-50,-128,-73,83,36
1491695170481,3,97,8,67,52,75,73,62,50
1491695170527,0,14,-9,-29,-72,-106,-100,-22,-7
1491695170527,0,-19,-20,-65,-98,-103,-45,82,17
1491695170528,1,103,-2,17,73,76,79,-100,53
1491695170528,1,-123,4,-10,118,72,-121,-56,-51
1491695170530,3,-89,-52,-54,-33,37,72,24,-81
1491695170530,3,113,14,42,75,59,93,57,70
1491695170531,0,-40,9,-39,-78,-72,-34,-91,-37
1491695170531,0,-12,7,62,1,0,-3,37,6
1491695170576,1,-75,3,-8,110,57,51,-29,-16
1491695170576,1,-5,-40,-92,-128,-128,-76,-128,2
1491695170577,2,-7,13,-22,112,127,81,127,48
1491695170577,2,-52,12,60,127,127,127,18,-51
1491695170578,0,-93,-36,50,70,-13,-22,-31,0
1491695170578,0,-48,-25,-21,-14,-29,-42,-24,12
1491695170579,1,66,36,-5,51,72,121,57,26
1491695170579,1,-44,-24,3,-128,34,56,-12,4
1491695170624,2,-39,-2,33,35,-83,-60,30,10
1491695170624,2,12,-15,-62,3,38,-29,20,-12
1491695170626,3,5,-17,-32,-125,-128,37,-82,-61
1491695170626,3,-90,12,89,73,37,-17,79,52
1491695170626,1,-10,-19,-15,76,53,-42,109,74
1491695170626,1,59,26,-2,-88,-124,-117,-108,-76
1491695170629,2,-33,-13,10,14,127,83,116,37
1491695170629,2,44,12,38,101,38,68,-41,1
1491695170673,3,-37,-14,1,-128,-69,-60,-88,-5
1491695170673,3,-78,-26,-49,127,115,101,24,-10
1491695170674,0,44,26,24,44,-1,-128,-9,15
1491695170674,0,113,19,3,-115,-96,127,74,39
1491695170675,2,43,18,45,23,64,51,-26,28
1491695170675,2,46,7,-65,-36,-32,14,104,-33
1491695170676,3,-72,-7,71,-9,-50,86,82,32
1491695170676,3,66,12,-89,29,-15,-17,-89,35
1491695170723,0,-38,-9,49,17,-80,64,52,23
1491695170723,0,36,1,26,21,101,127,69,38
1491695170724,1,-38,-13,8,-35,-81,64,-99,-51
1491695170724,1,-36,-14,-14,26,62,-115,-41,-79
1491695170725,3,-67,-9,-41,58,110,12,-28,2
1491695170725,3,-42,-33,5,-71,-112,-77,-98,21
1491695170771,0,46,-7,-54,-15,-39,65,-34,23
1491695170771,0,-37,1,69,100,-79,-90,6,-33
1491695170772,1,24,0,6,-59,-6,-108,-16,-48
1491695170772,1,-51,-7,2,-23,-85,40,33,-5
1491695170773,2,-23,-25,-12,15,-13,19,-58,-21
1491695170773,2,-43,-2,6,-20,-47,86,-36,29
1491695170774,3,84,30,82,31,121,-48,-16,27
1491695170774,3,-17,-41,-34,81,37,80,1,-25
1491695170820,0,43,22,-94,-128,-128,-128,-26,-71
1491695170820,0,-70,2,31,7,48,11,-27,-8
1491695170821,1,48,-8,21,112,56,117,62,71
1491695170821,1,-22,-62,67,34,34,105,43,13
1491695170822,0,62,36,-36,60,15,98,-19,61
1491695170822,0,-128,22,102,-34,-41,-55,-107,-65
1491695170822,1,75,28,5,-28,31,-68,82,41
1491695170822,1,39,30,-37,-43,-61,-90,-100,14
1491695170868,2,-9,15,-109,-42,-4,-23,30,-30
1491695170868,2,-19,-4,-14,-10,-12,93,-73,-23
1491695170872,3,19,17,11,127,46,-32,56,63
1491695170872,3,-15,19,127,108,106,94,15,-85
1491695170873,1,112,-57,-8,53,46,-58,-37,53
1491695170873,1,-70,25,68,68,-82,60,33,26
1491695170874,2,4,10,37,74,115,39,59,-53
1491695170874,2,16,-29,-38,-7,44,-30,-31,-5
1491695170918,3,-18,-33,-71,84,32,7,-25,0
1491695170918,3,-25,-41,-55,-128,-128,20,-1,-6
1491695170920,0,-11,87,69,53,22,-79,0,-16
1491695170920,0,0,-4,-102,-28,-19,47,84,-28
1491695170921,2,-53,-48,-11,39,19,127,60,-17
1491695170921,2,31,33,2,-27,-46,-40,4,16
1491695170922,3,26,-16,23,28,-87,29,30,-28
1491695170922,3,14,-24,-100,-80,79,101,16,-53
1491695170966,0,-23,-72,-15,-45,-51,-128,-80,38
1491695170966,0,109,53,-17,106,-23,75,23,45
1491695170968,1,-31,24,78,55,34,73,2,-9
1491695170968,1,-19,66,35,-22,-84,-11,-1,-49
1491695170969,3,-23,-13,4,-23,-85,-61,-1,-25
1491695170969,3,19,66,127,127,35,23,0,34
1491695170970,0,-57,-15,103,80,72,60,73,9
1491695170970,0,-14,-32,25,-22,127,-28,-18,-19
1491695171015,1,-3,-11,-64,-43,-124,-42,25,17
1491695171015,1,31,-32,20,48,18,33,46,-10
1491695171016,2,-18,-6,95,-76,-121,44,-38,19
1491695171016,2,-21,-3,-15,16,22,19,4,0
1491695171019,0,43,17,31,33,127,16,31,-30
1491695171019,0,-13,12,-14,5,-28,-6,15,9
1491695171019,1,-3,69,-9,-122,-23,-63,-22,30
1491695171019,1,-54,-61,-48,89,26,37,13,-34
1491695171064,2,64,56,55,62,33,-8,-15,0
1491695171064,2,-2,20,3,-100,-37,-51,-16,-21
1491695171066,3,5,69,65,62,-12,59,48,13
1491695171066,3,23,29,-23,-8,82,9,9,4
1491695171067,1,-19,27,-41,-9,-128,-45,-23,-17
1491695171067,1,-1,-6,-39,-26,-60,-9,20,22
1491695171068,2,-60,5,4,6,114,-5,17,-43
1491695171068,2,41,46,38,-3,28,14,-43,28
1491695171112,3,-14,-50,-23,-36,45,52,4,2
1491695171112,3,-32,-22,-14,-110,-121,-128,-45,-15
1491695171114,0,16,-56,-17,107,60,23,14,17
1491695171114,0,-49,-49,103,127,127,122,69,-49
1491695171116,2,1,89,-39,-21,-119,-111,-49,59
1491695171116,2,-64,-44,44,69,20,15,24,-34
1491695171117,3,2,-67,-10,83,4,49,6,-45
1491695171117,3,27,39,100,127,25,21,22,40
1491695171161,0,-1,35,-90,-103,-68,-80,-20,29
1491695171161,0,4,-30,-22,-41,-44,5,-32,27
1491695171162,1,14,-21,33,75,40,-18,-9,-16
1491695171162,1,61,-17,85,108,110,94,52,-30
1491695171162,2,-1,3,9,73,112,127,54,-34
1491695171162,2,-35,10,-97,-107,-71,-80,-47,-11
1491695171163,3,-29,2,-98,-128,-103,-22,-27,19
1491695171163,3,-20,-19,-5,80,41,-28,-20,4
1491695171209,0,-14,19,14,65,47,-26,-22,13
1491695171209,0,29,-30,21,100,127,127,66,-28
1491695171210,1,-48,-29,12,-30,46,14,19,-9
1491695171210,1,47,-23,43,56,98,29,7,13
1491695171211,3,-1,-43,-26,32,-45,-54,-11,5
1491695171211,3,-11,-4,1,19,5,-17,-17,14
1491695171212,0,52,12,65,87,106,53,27,-4
1491695171212,0,-42,16,39,3,8,7,0,-17
1491695171258,1,30,54,22,-3,42,65,37,-1
1491695171258,1,-67,37,-30,-25,-22,-77,-26,5
1491695171259,2,7,-8,-14,-10,-9,38,-14,-53
1491695171259,2,13,3,-26,-60,29,50,24,-6
1491695171259,0,-16,-37,-32,53,44,32,32,28
1491695171259,0,37,-13,68,87,104,24,-13,-8
1491695171261,1,-12,-31,60,101,127,85,35,-26
1491695171261,1,36,22,-56,-126,-78,2,21,-9
1491695171307,2,-42,2,-32,12,-71,-56,-28,23
1491695171307,2,37,-13,9,-67,-44,-24,5,-24
1491695171308,3,17,28,12,7,-13,-19,-29,55
1491695171308,3,-1,-36,-17,70,74,37,4,-18
1491695171308,1,53,-55,-30,-4,-125,-107,0,83
1491695171308,1,-90,-72,-34,16,86,-71,-112,-94
1491695171310,2,14,-95,45,16,-64,53,70,23
1491695171310,2,80,49,-12,-5,39,-52,5,34
1491695171356,3,-76,95,40,21,35,15,-35,-42
1491695171356,3,38,-5,23,56,80,116,53,30
1491695171356,0,-42,73,12,51,65,25,-13,-11
1491695171356,0,-23,-11,-42,-71,-128,-89,-28,-8
1491695171357,2,-15,-43,42,-32,-28,1,-5,24
1491695171357,2,92,-21,60,127,37,36,17,30
1491695171358,3,-12,22,-41,24,66,19,7,-48
1491695171358,3,38,38,65,-115,-128,-18,39,-2
1491695171405,0,-75,-12,-60,-5,88,-18,-45,0
1491695171405,0,-7,-88,-40,24,-21,48,52,29
1491695171405,1,-24,-31,41,-6,-9,-17,-41,-23
1491695171405,1,8,34,-43,38,-6,42,44,21
1491695171406,3,-32,73,-67,4,-17,6,10,4
1491695171406,3,-83,35,4,11,14,55,-6,10
1491695171407,0,117,19,3,22,88,-29,2,5
1491695171407,0,-66,-13,44,122,127,77,66,-26
1491695171454,1,122,10,-8,-77,-40,-32,-50,11
1491695171454,1,-14,-8,-28,-12,-3,-10,10,1
1491695171454,2,110,27,67,-9,-45,-78,-71,9
1491695171454,2,-38,42,-36,-39,-84,54,52,-20
1491695171455,0,-6,-13,-4,23,109,32,19,-3
1491695171455,0,-28,48,-6,0,-70,-114,-86,7
1491695171456,1,-67,16,-38,-11,-25,35,7,-28
1491695171456,1,-35,24,24,-74,-69,-22,15,1
1491695171502,2,32,-52,-24,11,-44,11,-6,-10
1491695171502,2,-55,-5,37,84,119,-41,-40,2
1491695171503,3,-6,-66,-34,-17,46,83,9,5
1491695171503,3,-40,26,20,-60,-88,-128,-14,-4
1491695171503,0,-34,-3,-81,-95,-113,-99,-60,-20
1491695171503,0,29,20,-15,26,27,72,18,33
1491695171504,1,-12,-23,76,116,60,-45,-20,-37
1491695171504,1,84,-9,37,-12,102,60,7,35
1491695171551,2,-79,-49,-2,6,-91,71,37,46
1491695171551,2,-40,32,46,50,16,-49,-18,-71
1491695171552,3,-3,3,-18,-8,-34,62,105,20
1491695171552,3,-54,-15,-16,-89,3,30,49,-3
1491695171552,1,-14,71,-65,-23,-36,-118,-67,15
1491695171552,1,109,13,21,72,61,51,11,22
1491695171554,2,-45,-15,21,50,7,21,-48,-38
1491695171554,2,3,-26,27,57,112,67,48,-11
1491695171600,3,-22,-5,23,-34,-64,66,27,1
1491695171600,3,22,12,-16,-17,-81,-88,-81,1
1491695171600,0,-73,13,-37,-87,-32,96,81,5
1491695171600,0,22,3,16,72,92,37,-102,-41
1491695171601,2,31,19,17,16,-125,52,41,30
1491695171601,2,-77,-5,-35,47,95,-105,-39,-8
1491695171602,3,70,-13,1,53,-30,-12,-16,8
1491695171602,3,-24,-31,16,45,-67,18,-27,-16
1491695171648,0,0,-1,19,62,95,17,23,6
1491695171648,0,-8,-56,-27,-118,-128,-33,19,-20
1491695171649,1,38,44,-16,-28,4,101,50,2
1491695171649,1,26,50,51,91,41,40,12,28
1491695171649,3,-125,-32,-63,90,73,-1,-6,18
1491695171649,3,58,-1,7,34,32,-33,3,33
1491695171651,0,75,-67,80,127,127,127,88,26
1491695171651,0,32,-30,29,-27,-85,5,55,52
1491695171697,1,-27,-7,-20,-81,29,42,22,-85
1491695171697,1,-66,65,-39,93,79,77,2,16
1491695171698,2,73,14,0,-54,-41,-80,18,-25
1491695171698,2,52,-16,-14,-69,-91,-88,-70,2
1491695171698,0,45,63,-33,-47,40,-120,2,-72
1491695171698,0,79,13,5,-53,-61,76,92,19
1491695171699,1,-52,10,-30,-51,127,76,-54,-42
1491695171699,1,-13,-39,23,-16,-109,-6,-68,10
1491695171746,2,13,-13,-14,55,61,-110,-80,26
1491695171746,2,28,2,72,116,127,127,102,23
1491695171747,3,-32,-24,-21,-35,-76,-46,-104,-49
1491695171747,3,103,71,-28,-128,-128,-79,45,-5
1491695171749,1,96,20,53,79,-49,-124,-89,-8
1491695171749,1,85,-16,27,-29,-2,121,113,34
1491695171750,2,-79,20,1,-21,3,-35,4,2
1491695171750,2,38,37,-4,22,49,42,-121,-9
1491695171794,3,-6,47,24,26,-30,-17,78,4
1491695171794,3,-36,-58,-46,-61,-128,-76,-43,-27
1491695171796,0,35,23,32,40,77,125,57,-16
1491695171796,0,-99,-55,-37,-59,-62,-17,72,10
1491695171797,2,-106,-42,-41,-41,-27,127,86,23
1491695171797,2,-81,19,-1,-61,-52,-107,-112,32
1491695171798,3,14,0,-2,98,55,104,94,57
1491695171798,3,-12,37,49,9,-4,-101,-22,-49
1491695171843,0,-29,7,6,-14,-19,-50,-110,-54
1491695171843,0,39,28,27,47,52,97,78,21
1491695171845,1,60,-18,-3,-53,-6,57,10,5
1491695171845,1,-71,9,-39,-16,19,-18,-12,-8
1491695171846,2,76,-5,-13,-20,-118,95,53,31
1491695171846,2,-41,-7,11,-34,-128,-61,-65,-10
1491695171846,3,39,12,-3,64,127,14,-54,12
1491695171846,3,-112,9,2,89,102,-11,127,19
1491695171892,0,-16,-49,-30,-128,-119,6,-128,-86
1491695171892,0,127,42,-40,-32,-101,-63,39,24
1491695171893,1,-83,-7,40,35,-5,127,75,26
1491695171893,1,-69,13,6,76,81,-75,-79,-31
1491695171894,3,51,7,-12,24,63,-25,-20,5
1491695171894,3,36,9,-9,-21,-76,123,51,25
1491695171895,0,24,-9,-14,-37,-40,-81,-79,45
1491695171895,0,-20,-19,-1,65,79,127,-3,-34
1491695171941,1,-82,32,31,-15,7,-128,21,-1
1491695171941,1,93,-10,27,12,28,9,-50,-18
1491695171942,2,33,35,33,-16,52,55,-23,1
1491695171942,2,125,-4,-15,45,-18,46,60,55
1491695171943,0,-25,10,29,35,-76,-55,21,7
1491695171943,0,-118,16,6,-12,22,39,2,-16
1491695171944,1,60,1,12,57,-14,-51,42,-7
1491695171944,1,81,-15,-9,-29,-7,-70,-46,21
1491695171990,2,16,26,14,4,127,91,29,-15
1491695171990,2,4,-13,-18,-25,-52,-42,-33,38
1491695171991,3,-87,-3,6,25,-33,-63,-7,-12
1491695171991,3,39,4,-38,-55,-71,87,13,-21
1491695171992,1,-22,2,-8,-20,9,88,-33,-33
1491695171992,1,-28,19,30,-40,-9,15,-1,6
1491695171992,2,61,-12,-18,9,20,17,3,40
1491695171992,2,-69,-1,24,16,35,-39,52,-13
1491695172038,3,81,-2,-1,9,-51,-17,-6,13
1491695172038,3,-69,-6,-25,-42,-30,53,20,-20
1491695172039,0,36,-5,-6,-4,2,9,-10,-18
1491695172039,0,-2,11,16,42,46,40,10,-9
1491695172040,2,-23,-16,-38,-64,-74,32,39,8
1491695172040,2,42,-8,-6,31,1,-37,-116,1
1491695172041,3,10,9,10,35,27,62,27,7
1491695172041,3,-21,-28,23,11,-27,-57,-24,-10
1491695172087,0,0,-34,-18,-29,17,5,-30,-1
1491695172087,0,13,-14,5,16,35,-5,12,7
1491695172088,1,-49,4,11,-14,18,71,31,-1
1491695172088,1,20,-4,-9,18,5,-53,-11,-13
1491695172089,3,58,6,6,-10,24,27,6,1
1491695172089,3,2,0,6,38,23,25,8,-9
1491695172090,0,-14,-19,-33,-13,-17,-15,-31,-14
1491695172090,0,-83,20,-14,-29,-34,9,-11,7
1491695172136,1,49,-4,10,-14,-34,-50,-16,23
1491695172136,1,3,17,21,27,21,43,-20,-14
1491695172137,2,-65,0,-4,17,32,29,44,30
1491695172137,2,-9,12,14,27,72,54,19,-31
1491695172138,0,-56,19,17,1,-44,-75,-2,0
1491695172138,0,17,-3,2,-3,31,-10,-50,22
1491695172138,1,-74,-2,-2,15,51,61,16,-19
1491695172138,1,-43,-15,-11,0,-51,-75,-47,-4
1491695172186,2,70,-13,-4,-30,-73,-74,-31,16
1491695172186,2,-43,-7,19,25,107,13,14,-9
1491695172187,3,-41,-17,-15,-27,-96,4,14,-16
1491695172187,3,-71,14,-16,-46,-19,8,-42,-36
1491695172188,0,-97,-13,-9,24,-3,-15,-22,-58
1491695172188,0,119,-26,-17,-18,-58,44,26,35
1491695172189,1,-103,5,-2,-7,75,-40,-30,-35
1491695172189,1,114,15,26,35,-2,12,-63,22
1491695172234,2,108,-8,7,24,102,38,-30,7
1491695172234,2,-11,6,-1,38,56,-45,-21,-56
1491695172235,3,-19,-1,-6,-57,-93,26,-7,17
1491695172235,3,45,-24,-39,-45,-11,-66,9,-21
1491695172237,1,52,9,7,83,-15,68,-10,64
1491695172237,1,6,-1,21,11,73,90,11,-19
1491695172238,2,20,7,-39,-28,-80,-84,-65,6
1491695172238,2,-86,-3,-5,24,70,102,12,6
1491695172282,3,-10,0,-13,-29,-54,-125,-29,-51
1491695172282,3,35,19,26,-8,-14,17,12,44
1491695172284,0,48,5,15,98,127,86,19,-50
1491695172284,0,39,-5,2,-6,-51,-5,75,5
1491695172285,2,-25,16,-13,-58,6,-28,67,-28
1491695172285,2,35,28,38,108,51,14,-116,16
1491695172291,3,-65,-15,-43,2,-50,47,46,-41
1491695172291,3,46,3,4,-77,-75,14,127,27
1491695172331,0,-4,9,34,58,74,-52,-79,57
1491695172331,0,78,14,24,-46,12,127,86,6
1491695172332,1,-78,-13,0,28,-49,-64,-79,-43
1491695172332,1,87,5,1,122,34,-87,47,-23
1491695172334,3,127,79,106,88,105,127,60,62
1491695172334,3,28,-19,19,-41,-37,-58,-116,-58
1491695172335,0,67,-11,9,-53,-45,45,99,12
1491695172335,0,-41,-2,-21,-12,-3,-5,-68,31
1491695172382,1,70,5,-16,-9,-99,-20,3,-2
1491695172382,1,19,14,18,44,13,-54,-31,40
1491695172384,2,38,-9,-28,-47,92,88,-2,-15
1491695172384,2,-76,-1,-31,-6,-94,-78,29,46
1491695172385,0,-16,26,75,66,43,102,-55,-6
1491695172385,0,-42,-8,-11,-20,-97,-115,-1,-112
1491695172386,1,26,-25,-61,-53,-7,81,2,95
1491695172386,1,-16,1,-28,29,-88,-120,-29,-7
1491695172429,2,47,24,54,70,114,127,111,85
1491695172429,2,5,10,70,73,-95,63,22,-43
1491695172430,3,-39,-28,-90,-86,-63,-77,44,-13
1491695172430,3,-117,-22,-62,-128,-79,9,-77,-19
1491695172431,1,116,7,13,-101,-106,-78,56,-47
1491695172431,1,81,31,25,127,127,127,78,23
1491695172432,2,-99,-36,-41,-61,-104,-128,-72,-107
1491695172432,2,127,16,-55,-128,-18,118,81,69
1491695172477,3,-100,-14,30,116,36,-27,32,22
1491695172477,3,23,-1,12,-67,84,-48,-28,9
1491695172478,0,-70,-20,-48,120,-70,-88,-105,-33
1491695172478,0,114,8,22,-128,-28,64,20,-3
1491695172479,2,1,-20,-64,-128,-118,-84,-23,13
1491695172479,2,-23,7,-13,20,-67,-128,-94,13
1491695172480,3,117,35,124,118,126,104,44,88
1491695172480,3,-128,-30,-64,-57,-95,-118,-56,-82
1491695172526,0,91,-21,-73,-114,-105,-90,125,-1
1491695172526,0,44,2,-18,71,83,83,-38,70
1491695172527,1,-55,15,95,111,127,72,-108,-28
1491695172527,1,-9,9,-5,-21,-83,-53,57,1
1491695172527,3,-42,-19,37,-113,-55,65,-44,-25
1491695172527,3,76,-18,-29,20,95,120,107,77
1491695172528,0,-128,-4,51,42,97,78,58,-23
1491695172528,0,-52,-13,-55,-116,-76,-128,-77,-110
1491695172575,1,18,10,7,18,-8,63,82,93
1491695172575,1,87,-22,-6,84,66,33,-62,-24
1491695172576,2,-99,-27,58,-52,-51,90,77,15
1491695172576,2,96,12,-57,-14,94,61,24,-63
1491695172576,3,68,8,-43,29,19,-18,-99,16
1491695172576,3,-90,-4,10,-64,-128,-21,83,-9
1491695172578,0,127,53,86,110,127,127,-112,20
1491695172578,0,-59,-13,2,-81,-128,-124,-20,-31
1491695172629,1,105,-12,-84,-125,14,12,-54,-84
1491695172629,1,69,-1,-29,87,7,33,53,109
1491695172629,2,-36,3,27,9,-85,-60,-126,-44
1491695172629,2,-65,-10,8,-21,90,104,78,47
1491695172630,0,-111,-37,-112,-101,-85,-20,98,-65
1491695172630,0,-58,-57,43,32,-34,6,-11,56
1491695172631,1,37,11,25,20,0,-2,-47,39
1491695172631,1,-20,-11,-48,25,-36,127,72,-5
1491695172672,2,-14,63,81,-53,109,-53,-16,36
1491695172672,2,37,-5,1,40,-1,74,76,-34
1491695172673,3,-55,-1,-46,-120,-126,-102,-58,-44
1491695172673,3,-128,-16,30,-34,-128,-102,10,-13
1491695172673,1,-109,-7,-98,-55,48,92,79,-18
1491695172673,1,127,19,23,-57,-23,-50,-76,40
1491695172674,2,-105,-43,-31,80,46,50,72,-34
1491695172674,2,-11,-2,-54,-72,-20,66,66,44
1491695172721,3,31,-9,29,50,-41,-75,-53,-20
1491695172721,3,21,31,27,82,118,44,19,28
1491695172722,0,-29,-18,21,-85,-128,123,88,37
1491695172722,0,56,-15,-44,-36,27,-2,-13,-56
1491695172722,2,68,16,65,127,17,75,1,-14
1491695172722,2,8,27,-84,-68,-60,103,61,44
1491695172723,3,-29,38,91,46,18,-85,-31,10
1491695172723,3,-77,-33,-36,96,127,62,80,18
1491695172770,0,45,33,41,-74,-128,81,70,-26
1491695172770,0,-82,-5,-6,14,127,-87,-42,37
1491695172771,1,13,-11,11,57,-72,75,70,-6
1491695172771,1,36,-26,-63,-67,30,-13,-3,-1
1491695172772,3,-67,-31,-76,11,127,113,127,20
1491695172772,3,-46,46,91,-9,-82,-128,-95,-21
1491695172772,0,107,59,-34,-1,73,107,61,-31
1491695172772,0,-73,26,-16,-22,15,8,-36,-32
1491695172818,1,-21,-46,-98,-76,-74,53,91,51
1491695172818,1,-38,-15,26,96,104,127,-31,14
1491695172819,2,80,-32,-10,7,-118,-128,-110,46
1491695172819,2,-38,-22,9,0,73,-4,-1,-36
1491695172820,0,-66,-3,17,-46,-88,-69,-85,5
1491695172820,0,-59,-10,25,80,127,-64,-54,-33
1491695172821,1,118,-46,43,39,-78,-14,69,27
1491695172821,1,-75,-28,-5,-101,61,-4,-52,-66
1491695172867,2,-99,-7,-32,56,118,58,95,-2
1491695172867,2,-10,15,37,96,-128,51,26,65
1491695172868,3,-20,69,39,-56,-28,-98,-120,-86
1491695172868,3,-1,67,-9,1,65,-18,-78,-14
1491695172869,1,57,32,-1,13,-12,127,87,24
1491695172869,1,18,-12,-3,115,42,-71,65,-58
1491695172869,2,-9,6,54,-128,-85,-91,-97,18
1491695172869,2,-55,-31,-1,78,11,-20,-30,18
1491695172916,3,21,-6,-86,101,103,-85,-60,-29
1491695172916,3,-10,-21,37,-6,-45,9,29,-31
1491695172917,0,52,9,42,54,56,57,31,26
1491695172917,0,11,19,-22,-94,-53,-7,16,-19
1491695172917,1,31,-9,19,53,120,85,9,53
1491695172917,1,44,14,-70,27,-124,23,-78,27
1491695172918,2,-16,25,5,92,-33,84,81,-14
1491695172918,2,-26,16,99,19,71,-19,-22,-51
1491695172965,3,13,-36,-56,-9,-68,79,47,-12
1491695172965,3,-34,-29,-78,-128,60,-99,-63,39
1491695172966,0,-39,72,-18,-77,30,-71,-105,0
1491695172966,0,60,-22,27,119,-128,40,5,11
1491695172967,2,40,-31,-6,-121,-57,-76,-26,44
1491695172967,2,-12,-4,44,44,102,109,-14,-4
1491695172968,3,-101,-37,-60,-53,-87,-128,-88,-11
1491695172968,3,69,-11,25,46,34,65,68,56
1491695173013,0,-36,14,-4,94,1,120,39,-25
1491695173013,0,127,3,-40,-55,-23,-36,-6,-55
1491695173015,1,-25,-45,42,69,127,127,6,-11
1491695173015,1,-49,73,50,-76,-128,-120,-97,26
1491695173016,3,-28,-9,-59,-49,-16,-115,-3,-24
1491695173016,3,12,-6,-20,-38,83,53,54,-29
1491695173017,0,7,24,97,91,112,35,-43,35
1491695173017,0,-41,-29,-11,-18,-68,67,40,-35
1491695173062,1,15,-15,-98,-128,-39,-75,-79,-3
1491695173062,1,17,10,14,82,-126,55,89,-7
1491695173063,2,-31,-85,-98,-7,60,-47,5,-26
1491695173063,2,28,59,-32,-75,-45,-80,-50,43
1491695173063,0,-50,-39,-7,3,-52,-92,-19,-74
1491695173063,0,20,-24,-7,-93,-72,-16,45,32
1491695173064,1,-50,23,120,67,23,-48,-30,12
1491695173064,1,6,-24,-21,95,76,55,17,7
1491695173111,2,23,-33,19,-87,16,-26,-2,-12
1491695173111,2,-15,-6,-40,-35,-88,47,-12,-24
1491695173111,3,-23,9,-58,-98,-128,-30,-25,7
1491695173111,3,-32,59,-5,-101,-111,-72,-46,6
1491695173159,1,65,26,3,-37,-47,15,17,-27
1491695173159,1,-68,-22,29,57,62,18,0,-35
1491695173160,2,12,-9,32,-94,-47,41,44,-21
1491695173160,2,11,58,-58,2,-35,-84,-55,69
1491695173161,3,-60,-5,-6,107,121,60,2,-19
1491695173161,3,7,-8,56,-39,13,13,10,-14
1491695173162,0,22,10,-18,69,117,41,-9,2
1491695173162,0,-87,-17,-19,11,30,-14,-15,11
1491695173208,2,14,-21,52,88,95,127,68,-23
1491695173208,2,-57,15,26,-53,-79,-52,7,-39
1491695173209,3,46,7,-22,17,73,-76,-61,31
1491695173209,3,-19,-19,-24,-10,20,42,13,23
1491695173209,0,23,-43,-41,59,112,90,41,-10
1491695173209,0,-15,7,-44,-41,-58,-72,-58,-9
1491695173211,3,-25,-98,-26,-28,-57,66,29,-7
1491695173211,3,3,62,-99,-128,-128,-124,-69,-5
1491695173257,0,-44,25,-41,-10,-128,-128,-62,42
1491695173257,0,30,35,22,127,127,44,26,-3
1491695173258,1,-8,-13,109,121,50,86,51,11
1491695173258,1,-20,-47,16,-29,91,55,21,-17
1491695173258,3,-9,41,-42,-71,-45,-58,-48,-19
1491695173258,3,-4,24,-67,68,-14,-128,-37,5
1491695173259,0,16,2,-35,10,76,37,46,13
1491695173259,0,-12,45,69,-36,-3,1,-25,-1
1491695173306,1,32,-54,7,65,65,90,-17,-15
1491695173306,1,-31,11,-11,-57,-36,12,-6,-19
1491695173307,2,30,-14,4,-4,-11,-12,74,-11
1491695173307,2,45,63,-55,-85,-98,-117,-62,2
1491695173308,0,-50,-73,-56,-80,-78,2,4,-3
1491695173308,0,49,60,-81,-88,-112,-7,59,30
1491695173309,1,-28,62,29,66,102,-49,-52,-22
1491695173309,1,-3,-42,17,54,-14,21,49,-5
1491695173354,2,24,-54,85,63,83,83,75,16
1491695173354,2,-41,-3,0,-31,2,-89,-49,-20
1491695173355,3,64,-60,-24,75,111,103,37,-15
1491695173355,3,-15,50,-11,-83,-78,-54,13,16
1491695173356,1,-21,24,51,73,88,69,47,-2
1491695173356,1,-57,-54,40,44,68,71,2,9
1491695173357,2,16,-22,-27,23,58,-7,-15,10
1491695173357,2,-80,-8,44,44,53,1,-54,-35
1491695173403,3,30,6,23,9,89,45,45,-11
1491695173403,3,7,22,-46,-128,-128,-64,-46,-12
1491695173404,0,-69,41,7,34,-49,-55,-24,6
1491695173404,0,12,-71,-19,127,127,-49,-62,23
1491695173405,2,88,33,49,75,54,18,-53,-58
1491695173405,2,4,-67,12,59,69,127,109,-21
1491695173406,3,-25,12,38,27,64,-28,14,-23
1491695173406,3,1,1,-5,-72,32,-10,-25,-16
1491695173452,0,27,-16,-70,-48,-59,-60,-11,23
1491695173452,0,-67,-21,-1,-110,-128,-1,12,-14
1491695173453,1,39,41,-32,-128,-109,-28,-63,21
1491695173453,1,58,4,-14,93,78,67,32,-1
1491695173454,3,-29,-95,27,-16,-53,105,13,-31
1491695173454,3,23,50,-61,-80,-95,-117,-54,-20
1491695173455,0,1,2,20,78,100,125,-12,36
1491695173455,0,33,9,-58,-93,-108,-59,9,12
1491695173501,1,-49,71,35,107,76,50,68,-19
1491695173501,1,9,-75,35,-21,55,62,6,24
1491695173502,2,-36,12,-23,-31,17,-71,-76,-72
1491695173502,2,16,10,26,2,108,88,73,24
1491695173503,0,9,25,28,17,-31,44,-10,26
1491695173503,0,1,14,-42,-47,-42,-61,-50,-15
1491695173504,1,31,-10,30,45,23,14,-38,-32
1491695173504,1,-19,48,-45,-38,-14,60,47,26
1491695173550,2,33,12,92,90,99,104,90,13
1491695173550,2,47,-27,8,12,47,127,-9,-21
1491695173551,3,-27,-38,-92,-101,-76,-84,-59,-5
1491695173551,3,-43,0,23,47,-22,-51,-22,-18
1491695173552,1,46,-14,-14,-9,31,-17,68,63
1491695173552,1,-77,-32,19,23,43,-32,-100,-67
1491695173553,2,81,55,-62,-91,-117,-83,55,10
1491695173553,2,-3,20,21,115,70,15,13,19
1491695173598,3,16,-3,49,-42,-27,109,54,1
1491695173598,3,34,-39,21,-20,-25,-14,-17,-4
1491695173599,0,-14,-14,-29,9,30,-38,-35,11
1491695173599,0,-47,-9,11,40,24,72,24,-20
1491695173600,1,34,44,12,52,30,-24,10,12
1491695173600,1,58,26,20,-57,-73,-64,5,7
1491695173601,2,-80,-29,5,32,46,37,-48,-11
1491695173601,2,11,46,-53,-75,-83,-66,-3,3
1491695173647,3,-128,4,5,31,-38,-38,-44,-77
1491695173647,3,19,5,-38,-70,56,74,29,-14
1491695173648,0,92,2,17,31,21,-42,27,48
1491695173648,0,-88,-26,38,120,35,72,7,-11
1491695173649,2,-81,14,-16,78,67,127,48,-19
1491695173649,2,90,16,29,58,36,3,27,13
1491695173650,3,-31,-10,-45,42,36,47,11,-45
1491695173650,3,3,-42,54,18,111,62,18,14
1491695173696,0,-105,-80,-29,-99,-95,111,43,-11
1491695173696,0,87,68,-1,-78,-95,-128,-116,3
1491695173697,1,-29,-5,31,64,-17,106,19,13
1491695173697,1,86,41,-12,9,69,-91,14,-16
1491695173698,3,84,29,6,-14,101,65,-48,43
1491695173698,3,-120,-7,-8,127,18,6,44,-42
1491695173699,0,111,33,28,-37,46,-75,27,10
1491695173699,0,-49,-32,-22,-51,-108,66,-14,-14
1491695173744,1,12,-19,14,44,106,28,-45,12
1491695173744,1,5,0,23,11,-67,-93,-38,-3
1491695173746,2,25,26,9,-11,-21,43,9,3
1491695173746,2,19,1,-34,-80,-71,44,56,-24
1491695173747,0,-77,-61,-10,-10,-8,55,-14,-31
1491695173747,0,107,23,-7,-25,-82,-69,-26,17
1491695173747,1,-116,32,-1,3,48,-30,77,-37
1491695173747,1,127,10,14,36,-65,38,-22,35
1491695173793,2,-15,12,28,64,116,85,9,4
1491695173793,2,-30,-34,-42,-70,-47,-71,-36,-45
1491695173795,3,76,59,-33,-87,-36,84,41,31
1491695173795,3,-110,47,1,79,70,-5,-30,-18
1491695173796,1,29,-45,8,-31,-64,62,-46,-30
1491695173796,1,26,7,-31,14,-90,-73,-29,-44
1491695173797,2,111,3,-31,-99,-83,109,-6,-4
1491695173797,2,-113,5,62,51,51,-49,50,-5
1491695173842,3,-68,9,-26,-84,-128,-34,-38,61
1491695173842,3,31,-20,-3,5,127,70,15,20
1491695173843,0,68,6,8,67,-31,34,3,10
1491695173843,0,-64,-41,2,59,108,56,-41,-24
1491695173844,2,-128,25,-25,-122,-72,-48,47,-11
1491695173844,2,105,-7,-52,-28,-34,-79,-33,29
1491695173845,3,57,21,56,75,5,16,-19,47
1491695173845,3,-85,-38,14,81,124,124,92,5
1491695173891,0,127,8,-13,-95,-112,-97,-2,-27
1491695173891,0,-33,33,-13,25,-33,1,11,-12
1491695173892,1,44,-41,-23,-17,-48,55,-65,6
1491695173892,1,127,21,-6,-21,16,-24,34,11
1491695173893,3,-49,10,14,41,-14,-75,13,-26
1491695173893,3,-67,8,-20,-64,27,127,56,18
1491695173895,0,64,38,11,14,-7,-49,-48,-6
1491695173895,0,1,-9,-47,-7,99,60,27,-11
1491695173940,1,-78,-29,-5,-43,-74,-83,6,-17
1491695173940,1,-15,-31,6,-41,-110,-109,-104,-16
1491695173942,2,35,-11,-13,-15,-1,49,60,59
1491695173942,2,-55,4,9,25,90,-4,-68,-50
1491695173943,0,-44,-26,-15,-59,-96,-114,-53,-12
1491695173943,0,75,11,25,27,30,102,-26,62
1491695173944,1,-20,-33,-3,39,76,-38,-22,-24
1491695173944,1,38,-25,19,32,72,61,-5,34
1491695173988,2,-91,-10,13,84,29,21,8,-9
1491695173988,2,14,-4,-35,-128,-96,86,36,-8
1491695173989,3,-47,16,-6,-26,13,-117,-31,-59
1491695173989,3,127,33,30,61,-66,66,21,78
1491695173990,0,-128,-18,-16,-31,127,-53,-31,-12
1491695173990,0,67,-5,14,56,-23,-81,-8,11
1491695173991,1,-17,17,13,-34,-46,95,-9,-37
1491695173991,1,-87,-15,-49,-20,-42,-57,39,9
1491695174037,2,6,-6,35,9,9,34,18,3
1491695174037,2,-38,3,-2,-12,-11,-42,-57,-15
1491695174038,3,-2,15,1,1,-17,41,14,-1
1491695174038,3,-36,-4,-13,3,14,9,-4,-8
1491695174039,1,20,-10,-19,-30,-71,52,-88,-8
1491695174039,1,-111,0,-7,-20,-1,-83,15,28
1491695174040,2,85,-5,-12,-54,-83,18,-7,-1
1491695174040,2,29,-7,30,21,30,-34,-41,-13
1491695174086,3,-46,-23,-39,-5,42,36,63,20
1491695174086,3,49,-4,22,-1,39,11,-34,-60
1491695174087,0,-62,-21,-13,-19,-77,-31,16,17
1491695174087,0,-70,-9,-24,-45,3,19,-5,0
1491695174088,2,-51,12,5,29,61,53,69,-3
1491695174088,2,-20,-14,15,45,-76,22,12,-19
1491695174089,3,33,3,-9,-20,97,10,35,-3
1491695174089,3,-83,14,-10,-42,-48,-25,7,4
1491695174135,0,88,2,7,4,-11,-33,-43,-12
1491695174135,0,-109,-13,-32,-22,-39,2,36,19
1491695174136,1,86,5,9,23,-8,2,-30,12
1491695174136,1,90,10,21,15,32,9,9,4
1491695174137,3,-87,-12,-23,-13,-36,-55,4,-39
1491695174137,3,-25,-14,-17,-48,-3,46,49,40
1491695174138,0,53,20,30,24,-14,-10,-39,-10
1491695174138,0,0,0,-5,3,24,8,8,-19
1491695174183,1,-11,-10,-1,-5,2,24,-29,-12
1491695174183,1,-43,-5,-13,2,-2,-23,-20,2
1491695174185,2,-56,-17,-19,1,10,31,12,-20
1491695174185,2,3,1,14,-4,-31,-3,-29,3
1491695174186,0,-11,-15,-30,-45,-73,-47,5,-4
1491695174186,0,-38,7,-15,-49,-14,-103,-53,-5
1491695174187,1,18,-10,-7,1,-54,29,46,8
1491695174187,1,-32,14,20,45,74,58,-58,11
1491695174281,2,-28,-5,13,55,101,100,23,-15
1491695174281,2,13,0,-6,3,-30,-93,24,3
1491695174282,3,24,34,11,-27,-27,-26,-41,2
1491695174282,3,-73,-16,-19,8,-3,18,24,-26
1491695174283,1,-11,-9,2,-5,-20,32,25,15
1491695174283,1,34,-5,2,-1,12,-66,-68,-20
1491695174283,2,-88,-28,-46,-9,-2,-7,21,-6
1491695174283,2,75,-27,17,4,-49,-50,-27,13
1491695174329,3,42,-21,-11,-14,-59,-13,89,17
1491695174329,3,60,-11,-9,4,64,69,-26,-32
1491695174331,0,-33,-19,27,11,-14,-17,10,41
1491695174331,0,79,18,-30,-62,-76,46,-60,1
1491695174331,2,38,10,53,50,87,77,58,62
1491695174331,2,-126,-38,-58,83,-46,-88,-96,-69
1491695174332,3,71,-10,-18,-72,-60,-7,62,-32
1491695174332,3,49,-28,-8,-31,-84,-96,-27,2
1491695174378,0,86,42,8,27,5,11,-12,58
1491695174378,0,-54,-14,-28,-26,-72,127,38,-15
1491695174380,1,5,21,62,65,127,-111,-43,19
1491695174380,1,8,-1,-13,-74,-125,50,5,2
1491695174381,3,-41,-29,-82,-100,-127,-61,-73,-46
1491695174381,3,42,-31,-44,20,16,45,28,-4
1491695174382,0,107,-6,-52,-36,-111,-128,-128,-3
1491695174382,0,-95,41,89,70,-9,108,37,23
1491695174427,1,-27,-17,50,127,36,-25,89,48
1491695174427,1,-46,-10,-42,-50,1,11,-49,-58
1491695174428,2,-123,-33,-79,-67,-125,-128,-51,-25
1491695174428,2,-94,-21,-4,30,28,13,32,43
1491695174430,0,-9,0,-50,-128,-128,-67,88,-2
1491695174430,0,127,-8,-37,-73,78,-67,-128,-70
1491695174431,1,62,10,15,58,-18,-72,24,71
1491695174431,1,-54,0,43,99,127,127,127,2
1491695174476,2,-51,-18,-41,-69,-108,-82,-114,-43
1491695174476,2,-84,-5,-32,-120,-88,19,-27,18
1491695174478,3,-37,-2,-35,67,113,95,-75,-27
1491695174478,3,-7,19,58,7,-116,-26,85,5
1491695174479,1,20,-22,7,35,59,-106,-105,-82
1491695174479,1,57,27,0,-59,-12,52,25,0
1491695174480,2,-87,-38,-29,31,-31,89,-58,12
1491695174480,2,57,21,85,40,-65,-82,10,-14
1491695174525,3,-7,6,-47,-40,84,127,-25,-2
1491695174525,3,52,-21,-3,96,-19,-93,106,37
1491695174526,0,104,0,-23,-77,-31,-109,-65,-42
1491695174526,0,-75,-14,-20,29,-69,58,34,72
1491695174527,2,85,20,-16,-45,-26,-3,-17,15
1491695174527,2,72,7,-32,-62,103,55,-11,-16
1491695174528,3,-52,-11,32,39,10,-102,-45,86
1491695174528,3,33,11,67,87,127,127,-82,-60
1491695174573,0,-74,-44,-30,38,-22,-39,102,-10
1491695174573,0,-23,2,-94,-128,-111,83,7,-21
1491695174575,1,-40,9,44,32,27,-95,-69,34
1491695174575,1,59,-16,-1,-49,-81,30,-47,3
1491695174576,3,-62,8,-32,-41,-35,127,50,-46
1491695174576,3,61,-12,-17,14,127,-80,19,22
1491695174576,0,-84,-13,26,-1,-24,-62,10,-128
1491695174576,0,-54,20,-9,-111,-52,100,45,-4
1491695174622,1,104,-8,-19,101,29,-22,-19,76
1491695174622,1,-69,29,7,-62,-36,49,3,-48
1491695174623,2,85,10,13,-11,-31,75,-12,-1
1491695174623,2,-74,-5,-39,41,122,94,-16,-38
1491695174624,0,33,-6,17,-15,-46,-23,-56,-65
1491695174624,0,34,-28,-44,-84,49,-45,-19,-12
1491695174625,1,17,-20,-34,-29,16,127,-25,-39
1491695174625,1,-15,-11,-30,16,-59,-111,42,127
1491695174671,2,-24,-5,20,18,11,32,-13,-33
1491695174671,2,64,27,17,42,93,49,69,-17
1491695174672,3,-71,-4,-40,-113,-128,4,9,-20
1491695174672,3,-12,-28,-89,-39,-43,-20,73,-10
1491695174673,0,43,49,127,127,127,23,-58,48
1491695174673,0,96,-20,-11,-68,-128,-31,53,-16
1491695174674,1,-49,-5,-33,-88,-125,-3,11,-20
1491695174674,1,15,-30,-82,-2,-34,-6,-23,15
1491695174719,2,127,-5,21,105,107,45,56,109
1491695174719,2,-78,27,34,99,127,16,-15,-60
1491695174721,3,37,31,84,-5,-104,60,-8,-7
1491695174721,3,-128,-26,-98,-128,-61,-128,-79,-24
1491695174721,1,-76,-22,-6,-30,-109,-106,73,-104
1491695174721,1,34,14,-11,-73,-110,117,50,-26
1491695174722,2,-5,53,51,81,121,127,-26,27
1491695174722,2,-128,-28,-44,15,-128,-128,-8,-3
1491695174773,3,45,-31,-90,-92,-67,-17,-62,-43
1491695174773,3,102,38,75,127,127,70,1,96
1491695174776,0,-15,-19,1,47,-63,-25,46,-63
1491695174776,0,-103,11,-27,-83,-128,16,-61,-13
1491695174780,2,-22,29,-28,-89,-31,127,-1,43
1491695174780,2,-46,-29,-19,120,108,35,58,11
1491695174782,3,23,-32,-6,-128,-120,-51,98,16
1491695174782,3,-11,-59,96,100,127,119,-128,-24
1491695174817,0,-36,-105,-21,-77,-102,-128,-43,-21
1491695174817,0,-49,-85,-69,-78,-128,-9,6,-58
1491695174818,1,-40,-3,12,50,84,122,52,13
1491695174818,1,49,52,-21,-45,-92,-95,61,83
1491695174820,3,108,64,13,75,-75,63,-84,-45
1491695174820,3,-119,19,-6,-115,-111,-107,-3,-2
1491695174821,0,-39,-2,-33,98,107,127,127,-16
1491695174821,0,-37,46,12,-110,-126,-128,27,-13
1491695174866,1,69,17,5,-44,24,-78,43,106
1491695174866,1,-9,-38,7,101,105,-1,-28,-54
1491695174867,2,-35,-38,-58,-128,-128,-84,-19,-50
1491695174867,2,92,-2,69,89,127,127,34,37
1491695174868,0,56,7,19,78,127,39,100,71
1491695174868,0,-49,25,-3,111,64,-105,-69,-99
1491695174869,1,54,36,31,-128,-128,-3,71,68
1491695174869,1,30,1,20,103,125,68,-16,-29
1491695174915,2,15,39,-1,101,35,0,71,73
1491695174915,2,-47,3,21,62,69,-54,-101,-74
1491695174916,3,-83,-26,-55,-45,-42,-95,-39,-49
1491695174916,3,-25,-17,-61,-54,4,89,57,26
1491695174917,1,28,-29,-14,-25,-31,58,7,14
1491695174917,1,25,-1,-53,74,31,-16,-56,-71
1491695174918,2,-4,16,60,26,-2,-31,-85,-19
1491695174918,2,24,-10,-81,-49,-83,72,55,-17
1491695174963,3,-70,1,-85,-68,-31,-85,-70,-22
1491695174963,3,-30,54,78,27,-13,127,112,78
1491695174966,0,114,-34,-114,-73,-19,91,-10,26
1491695174966,0,-65,-59,16,-63,24,-9,23,-59
1491695174968,2,77,37,-10,37,108,-83,1,-7
1491695174968,2,9,34,38,-15,-95,127,-36,73
1491695174969,3,-47,-18,43,105,10,1,75,-34
1491695174969,3,127,82,28,-36,116,11,38,-22
1491695175012,0,-59,-25,-34,-119,-128,-39,-22,-25
1491695175012,0,61,-17,-36,78,87,87,12,18
1491695175014,1,-63,55,101,94,113,75,73,40
1491695175014,1,-100,-38,-89,116,-23,-15,-34,-34
1491695175015,2,81,6,24,-116,-128,127,103,-3
1491695175015,2,-112,8,33,55,43,-9,-85,37
1491695175027,3,22,-45,-52,127,127,127,3,-60
1491695175027,3,82,-3,39,-124,-128,-67,-51,61
1491695175061,0,-36,28,-111,-126,20,-79,-22,-4
1491695175061,0,-22,25,15,101,62,30,40,4
1491695175063,1,16,-40,-2,-65,-29,-10,-33,-55
1491695175063,1,-15,-20,-4,-40,5,-49,-87,-84
1491695175064,3,-7,13,-25,40,-63,5,4,4
1491695175064,3,32,-17,49,-6,35,54,32,48
1491695175065,0,-73,-51,30,127,127,63,-46,-20
1491695175065,0,80,41,10,-69,-102,44,15,-48
1491695175109,1,-9,-12,-47,-121,-64,-44,2,-28
1491695175109,1,-11,-19,-71,-44,-75,17,-13,1
1491695175110,2,-38,18,-31,31,72,-69,-58,36
1491695175110,2,7,5,89,64,67,7,17,6
1491695175112,0,-29,-6,61,122,83,-55,-79,-40
1491695175112,0,7,0,-24,31,47,34,41,32
1491695175119,1,20,-33,-8,-60,-87,-28,-11,33
1491695175119,1,28,9,69,119,127,-24,6,-34
1491695175158,2,-15,31,-26,71,-13,127,113,-22
1491695175158,2,-46,19,16,-100,-18,-128,-96,16
1491695175159,3,35,65,94,127,127,98,43,22
1491695175159,3,35,-39,-80,-128,-52,51,44,-25
1491695175160,1,-28,-18,58,61,100,53,-6,-46
1491695175160,1,-35,-29,-85,-60,-112,-128,-93,44
1491695175161,2,25,16,-36,3,127,88,28,-21
1491695175161,2,17,8,1,47,6,-15,-6,11
1491695175207,3,-1,2,94,105,64,107,-37,-13
1491695175207,3,-8,9,4,8,-42,-40,62,1
1491695175208,0,-7,-49,-73,-116,-128,-9,-24,14
1491695175208,0,-30,-17,-73,61,-7,-102,-43,16
1491695175209,2,-55,-21,-25,-98,-95,-89,-15,21
1491695175209,2,-33,2,-121,-57,-45,-31,-36,-20
1491695175210,3,51,56,52,54,63,53,47,31
1491695175210,3,-10,-27,81,-54,12,70,46,-28
1491695175256,0,84,-5,-52,-26,-50,-56,-52,43
1491695175256,0,-47,9,-8,38,-128,-47,6,-19
1491695175257,1,-47,0,27,29,6,12,17,24
1491695175257,1,96,-17,33,79,127,99,48,29
1491695175257,3,12,51,-128,-128,-128,-128,-128,-6
1491695175257,3,12,6,-63,127,79,50,6,81
1491695175258,0,-4,-51,126,127,127,98,68,-26
1491695175258,0,33,-51,-67,-103,4,-46,1,-68
1491695175304,1,-52,5,-29,23,-14,-2,-14,12
1491695175304,1,-15,47,-72,-91,-75,-31,-6,-3
1491695175305,2,-5,50,66,45,10,87,2,23
1491695175305,2,7,-21,20,-60,-69,20,26,-14
1491695175306,0,-5,-39,0,127,84,88,36,-17
1491695175306,0,48,-4,-53,-57,-60,44,41,-26
1491695175307,1,-94,-34,25,42,-126,6,3,-15
1491695175307,1,2,17,-49,-73,-100,-128,-85,0
1491695175353,2,-3,57,-10,-75,-89,-44,-31,22
1491695175353,2,-8,1,16,117,118,-52,19,28
1491695175354,3,23,-7,-128,-97,64,42,34,-35
1491695175354,3,-22,-4,122,123,123,107,43,12
1491695175355,1,37,6,-30,-73,-69,-35,-4,-1
1491695175355,1,-5,-8,-91,-71,-94,-98,-14,10
1491695175356,2,-20,42,61,-4,12,-61,-50,12
1491695175356,2,-32,1,49,73,108,32,6,13
1491695175402,3,23,-24,-27,16,127,41,33,-34
1491695175402,3,-17,-57,13,-47,-128,95,12,-16
1491695175403,0,4,98,-23,-84,-103,-128,-110,-34
1491695175403,0,2,-30,36,41,46,49,6,28
1491695175404,1,54,-37,-18,41,9,68,-29,5
1491695175404,1,-42,8,21,-15,3,-39,45,28
1491695175405,2,54,-16,15,61,111,109,-18,-5
1491695175405,2,-30,-6,56,78,27,89,62,-8
1491695175451,3,-23,32,-85,-128,-128,-128,-43,-71
1491695175451,3,-37,23,-82,-53,-45,-43,-4,15
1491695175452,0,-30,-28,23,41,20,33,50,11
1491695175452,0,97,-13,91,76,65,65,26,46
1491695175452,2,-56,-62,-88,34,19,-64,-50,-4
1491695175452,2,-62,86,40,43,-7,-96,-69,-67
1491695175453,3,-5,-69,84,127,65,71,78,34
1491695175453,3,25,-19,1,62,127,88,-20,17
1491695175500,0,52,54,3,-74,-40,71,8,13
1491695175500,0,-87,-33,-82,-112,-111,-70,-70,-69
1491695175506,1,84,29,37,9,-19,16,125,5
1491695175506,1,81,69,-19,23,5,-20,-18,-3
1491695175507,3,-15,-41,68,21,-24,-30,-19,-16
1491695175507,3,63,-77,-83,-81,-32,-72,-97,42
1491695175507,0,-90,71,15,119,111,45,81,-26
1491695175507,0,118,-39,-73,-123,-128,14,23,-18
1491695175548,1,-51,60,-38,-102,-119,-48,-45,36
1491695175548,1,-60,30,109,127,127,4,-18,7
1491695175550,2,68,-5,-20,7,60,-128,7,-5
1491695175550,2,-11,2,36,99,96,97,-63,-26
1491695175551,0,-109,-28,-59,-128,-128,22,-26,-59
1491695175551,0,54,74,-54,-91,-77,-105,-32,16
1491695175552,1,22,6,-23,5,-46,-66,-53,16
1491695175552,1,26,-24,92,127,126,71,59,-23
1491695175597,2,22,-27,27,94,72,103,12,8
1491695175597,2,-6,-44,-68,-70,-67,43,-21,5
1491695175598,3,-98,37,36,-38,-33,-36,-12,-9
1491695175598,3,-6,8,-29,-6,39,-51,12,2
1491695175599,1,55,-8,54,5,17,81,6,-9
1491695175599,1,-113,11,-40,-105,-101,20,-51,-81
1491695175600,2,127,5,-44,83,26,-9,-8,80
1491695175600,2,-82,37,23,46,-84,-73,23,7
1491695175646,3,82,-17,-14,127,124,14,27,8
1491695175646,3,-96,-47,17,-56,-56,100,43,-2
1491695175647,0,1,11,20,-19,47,-28,-10,-26
1491695175647,0,24,23,-63,-57,-95,-31,-35,15
1491695175648,2,-66,-36,-43,-128,-128,-98,-45,-23
1491695175648,2,92,47,-6,127,33,-7,110,58
1491695175648,3,-107,-39,23,49,41,-20,-58,-29
1491695175648,3,84,6,79,127,127,93,12,26
1491695175694,0,-15,-6,5,27,-34,-50,-24,-23
1491695175694,0,50,-31,-48,-127,-72,-24,35,-12
1491695175695,1,-70,18,-95,7,-119,-72,-99,-5
1491695175695,1,65,16,26,101,14,-31,14,-10
1491695175696,3,88,40,-100,-128,-109,-92,-48,-30
1491695175696,3,-106,-24,20,-86,-128,-14,-119,2
1491695175697,0,127,-18,-9,58,-128,-59,20,3
1491695175697,0,60,18,19,-12,118,57,77,29
1491695175743,1,-73,-28,89,121,77,127,32,3
1491695175743,1,13,5,-22,18,84,25,-2,-44
1491695175745,2,-58,-6,-86,-126,-127,-57,-66,-16
1491695175745,2,-110,-3,56,56,29,-128,-120,-23
1491695175745,3,37,47,-27,-118,83,97,72,10
1491695175745,3,117,-13,7,88,-19,-96,53,81
1491695175746,0,13,-25,2,49,127,3,-2,-61
1491695175746,0,26,38,-5,-52,-127,4,-55,2
1491695175792,1,-50,25,6,-61,48,-75,18,9
1491695175792,1,41,59,-58,-7,-92,-112,-74,-20
1491695175793,2,-60,-54,-2,-28,-80,127,-4,48
1491695175793,2,67,13,40,127,122,-15,-46,-33
1491695175794,0,-3,22,12,-103,-68,60,19,-30
1491695175794,0,-128,-15,-36,-31,-21,-76,-106,-17
1491695175795,1,123,-6,-53,-52,-128,96,42,49
1491695175795,1,-92,29,27,-10,127,108,8,10
1491695175841,2,-72,-24,50,108,-36,-29,-22,20
1491695175841,2,58,8,2,-29,-46,-53,34,-19
1491695175842,3,-51,-7,5,66,75,-38,-27,-56
1491695175842,3,-48,0,3,-45,-128,70,69,20
1491695175843,1,-110,-16,-7,-15,-70,-128,-43,7
1491695175843,1,-26,-40,-19,-56,-89,127,21,5
1491695175844,2,-106,30,13,-12,-78,-99,-25,3
1491695175844,2,84,-43,42,121,63,20,-50,43
1491695175890,3,-69,-23,-8,-50,-120,-55,23,-101
1491695175890,3,88,1,-38,-82,102,76,48,49
1491695175891,0,43,8,-35,77,96,-78,-23,37
1491695175891,0,53,46,52,1,56,37,75,-44
1491695175892,2,42,-15,-29,-45,-42,85,-69,-8
1491695175892,2,-128,-37,-49,-63,-118,12,104,36
1491695175893,3,32,-4,29,47,49,67,-107,-41
1491695175893,3,62,51,0,5,-65,-123,-24,-14
1491695175938,0,64,40,17,25,127,127,96,96
1491695175938,0,39,32,-10,44,-67,58,17,-15
1491695175939,1,36,-33,-51,-107,-128,-70,-17,-15
1491695175939,1,-125,-40,-26,-6,-10,-100,-89,-42
1491695175940,3,83,18,22,38,-47,20,28,8
1491695175940,3,-47,1,37,51,67,38,-49,-4
1491695175941,0,-17,-47,5,44,-56,28,32,-8
1491695175941,0,-128,-31,-23,-74,-71,-55,11,-32
1491695175987,1,-2,-22,-54,-43,32,77,-17,-24
1491695175987,1,97,81,-10,75,-101,-128,-105,57
1491695175988,2,-84,39,-17,-58,-39,10,-13,-23
1491695175988,2,-21,18,32,98,83,101,-37,45
1491695175988,0,-16,3,28,19,-20,-53,-37,1
1491695175988,0,-8,-11,-67,-107,-127,-128,-69,-62
1491695175989,1,89,-11,-34,11,-44,53,16,39
1491695175989,1,-47,7,-13,-24,0,-58,36,18
1491695176036,2,42,-19,42,61,50,-14,-30,13
1491695176036,2,17,15,16,13,36,82,33,32
1491695176036,3,120,20,-4,4,-46,-90,-64,11
1491695176036,3,-82,-7,12,-53,-35,17,49,-60
1491695176037,1,25,-7,-27,-46,-63,-49,-39,19
1491695176037,1,45,-21,-18,-30,4,60,-12,23
1491695176038,2,26,-21,-13,-20,47,-76,-77,-12
1491695176038,2,64,-5,25,74,110,127,16,-6
1491695176084,3,-95,-29,-3,-12,-59,-48,67,0
1491695176084,3,90,-1,10,25,59,18,-14,-29
1491695176085,0,-54,6,-3,-35,9,-40,64,11
1491695176085,0,0,6,-48,-42,-43,35,18,22
1491695176086,1,-69,7,27,-2,-92,-98,-15,-36
1491695176086,1,44,25,-6,-20,-23,-4,-9,26
1491695176087,2,-47,19,32,57,75,64,51,-29
1491695176087,2,85,11,-16,-36,-39,-57,-25,-5
1491695176133,3,-53,8,-5,3,24,-21,5,23
1491695176133,3,-105,-3,17,45,5,27,-9,5
1491695176134,0,65,-2,-42,-45,-20,-14,-17,-17
1491695176134,0,-45,0,-11,-17,-37,8,1,-21
1491695176135,2,-48,-29,-38,-102,-105,-18,-84,-7
1491695176135,2,-46,-1,2,-44,-24,-62,27,13
1491695176136,3,-6,-5,-5,72,-17,-37,-28,-19
1491695176136,3,-2,-11,-6,-8,20,-6,-38,-21
1491695176182,0,-29,12,7,-7,37,23,64,14
1491695176182,0,18,7,11,7,3,17,5,9
1491695176183,1,-22,12,27,52,113,36,-45,2
1491695176183,1,9,-20,-17,-11,-30,115,99,3
1491695176183,3,-8,-3,13,7,-2,68,39,33
1491695176183,3,-128,-6,25,29,2,-54,-118,-37
1491695176184,0,46,1,-2,19,24,5,-19,-2
1491695176184,0,-47,1,-33,-33,-33,-46,33,-34
1491695176231,1,44,-3,-13,-24,-20,29,-11,71
1491695176231,1,47,4,45,30,-5,24,-21,-22
1491695176231,2,61,0,-5,27,57,69,-30,16
1491695176231,2,-3,5,-7,-1,-33,-128,-44,27
1491695176232,0,27,9,15,0,-2,-65,-105,-45
1491695176232,0,-90,-3,3,2,15,103,117,20
1491695176233,1,127,6,-6,3,33,20,87,-27
1491695176233,1,48,1,-14,11,3,-3,5,51
1491695176279,2,-128,-8,11,-2,6,22,2,-36
1491695176279,2,4,12,4,-2,46,-16,-31,-6
1491695176280,3,-75,-2,17,33,29,6,-26,-5
1491695176280,3,-118,-13,-23,-11,-73,-20,-6,-19
1491695176281,1,62,-24,7,28,25,-43,-69,6
1491695176281,1,-22,-11,41,41,104,34,-7,-1
1491695176282,2,-21,28,27,46,43,50,6,11
1491695176282,2,-44,15,-27,2,-36,-53,-59,-48
1491695176328,3,-63,-18,5,-90,-66,-25,42,-1
1491695176328,3,102,18,-33,26,43,5,-9,37
1491695176329,0,5,41,27,17,45,81,45,1
1491695176329,0,-5,4,-9,8,-6,20,-54,-56
1491695176330,2,-63,-15,-2,18,5,55,25,-13
1491695176330,2,-26,25,44,99,127,103,86,31
1491695176331,3,38,-7,38,45,-91,95,60,-45
1491695176331,3,-128,-18,-29,-90,73,-91,-84,-27
1491695176377,0,108,-20,-18,-18,-61,-83,15,8
1491695176377,0,13,-1,-13,-46,-102,-124,-117,-12
1491695176378,1,7,6,-36,-4,-20,86,68,22
1491695176378,1,-23,25,12,48,68,86,-14,-33
1491695176378,3,-80,-35,-27,-82,-33,-123,-19,40
1491695176378,3,-10,-7,-49,21,-63,127,76,-9
1491695176380,0,-102,0,11,-23,-18,-120,-75,8
1491695176380,0,44,-3,38,-9,-10,-4,39,26
1491695176426,1,114,25,55,64,72,126,-35,-10
1491695176426,1,-13,-31,-5,89,60,62,126,13
1491695176426,2,23,26,-32,-54,-128,-86,-49,-7
1491695176426,2,-120,-40,-72,-99,-81,97,81,19
1491695176427,3,-30,-22,-47,47,100,-128,1,43
1491695176427,3,-54,14,52,88,2,-93,-128,-3
1491695176428,0,22,8,47,51,103,96,25,-39
1491695176428,0,124,10,5,-20,127,33,15,-24
1491695176474,1,48,6,14,50,-121,-30,94,15
1491695176474,1,-85,2,-63,-92,-55,16,43,-7
1491695176475,2,75,-7,16,120,-61,-58,-74,53
1491695176475,2,89,10,-36,24,64,92,84,57
1491695176476,0,13,-7,-33,-97,48,117,52,-7
1491695176476,0,-14,-18,-4,-33,-90,-107,81,3
1491695176477,1,-60,0,-79,-73,-12,-107,-104,-17
1491695176477,1,55,-20,-3,-57,25,101,32,85
1491695176523,2,59,20,-15,24,-87,43,28,65
1491695176523,2,-69,2,127,127,120,24,7,-18
1491695176525,3,30,-2,-48,-92,-38,-41,-78,-67
1491695176525,3,31,25,-2,-106,-29,-6,78,-22
1491695176526,1,68,14,-12,-43,127,127,-2,20
1491695176526,1,-98,-5,44,53,-128,-89,-16,-51
1491695176527,2,44,-31,-50,-102,-36,6,54,-12
1491695176527,2,-103,-23,-31,-92,-128,-128,-128,-62
1491695176572,3,24,-10,-31,49,123,127,33,24
1491695176572,3,106,42,76,77,93,-40,-39,64
1491695176573,0,-128,-54,-10,-53,-5,-128,6,-118
1491695176573,0,127,45,19,56,50,83,48,57
1491695176575,2,107,-2,20,122,104,-41,-104,-34
1491695176575,2,-128,-26,13,-20,-116,-110,63,-2
1491695176576,3,-59,-17,-27,-28,120,-33,-18,-45
1491695176576,3,97,10,-51,58,-128,-99,7,51
1491695176621,0,-128,1,37,-10,83,84,8,12
1491695176621,0,127,-9,-47,46,36,127,-11,-51
1491695176622,1,-39,38,104,-13,-88,-64,84,45
1491695176622,1,-21,-49,-74,-52,-128,-100,-2,-30
1491695176623,3,-8,27,-61,-50,-128,123,18,-98
1491695176623,3,-128,-2,-15,59,112,67,-29,28
1491695176624,0,84,31,38,86,13,-63,101,123
1491695176624,0,84,41,54,97,37,127,72,6
1491695176670,1,-79,-20,4,-72,-89,-27,-78,-68
1491695176670,1,64,-13,-45,11,-18,-68,-30,13
1491695176672,2,-128,-41,-67,74,66,123,98,-85
1491695176672,2,14,-8,-67,-128,-112,-125,-109,-29
1491695176673,0,-5,26,46,-62,-103,55,7,53
1491695176673,0,-8,-33,-107,-58,122,-82,5,-79
1491695176674,1,6,-36,-67,-59,-128,-107,-100,-47
1491695176674,1,70,-13,25,-81,-48,49,39,18
1491695176719,2,27,23,26,31,-36,-82,35,15
1491695176719,2,-25,4,66,68,91,68,-23,-7
1491695176720,3,-31,-21,-37,10,-49,-77,78,-15
1491695176720,3,-38,41,18,7,115,127,-3,-10
1491695176722,1,9,-3,-35,84,127,73,-48,93
1491695176722,1,9,1,94,41,22,57,83,14
1491695176723,2,-111,12,67,-43,112,109,5,-93
1491695176723,2,-83,-1,-58,-44,-70,-75,-23,6
1491695176767,3,53,7,-33,3,34,-114,-8,29
1491695176767,3,-36,-14,-9,40,58,66,61,37
1491695176769,0,19,-45,-18,-95,-72,-112,-51,-65
1491695176769,0,-107,-12,-11,43,-68,-39,-48,-51
1491695176770,2,44,8,16,-46,-33,-41,127,123
1491695176770,2,-57,14,-4,46,10,8,-128,-110
1491695176771,3,-24,-9,-67,-87,-123,-79,-50,33
1491695176771,3,15,-16,61,99,83,32,-38,9
1491695176816,0,-42,10,31,56,72,-73,-83,3
1491695176816,0,26,-34,-17,-128,-74,98,0,-5
1491695176818,1,68,13,-7,55,-43,-85,-98,52
1491695176818,1,-127,-13,-3,28,-39,63,118,41
1491695176819,2,66,30,-52,-21,76,127,59,-74
1491695176819,2,35,0,12,-20,-12,-52,-100,18
1491695176820,3,35,3,11,112,13,127,127,-29
1491695176820,3,84,-32,-36,-119,-128,-75,-38,-18
1491695176865,0,9,29,-37,-75,-48,-77,-104,9
1491695176865,0,83,0,31,127,127,127,117,22
1491695176866,1,-41,-3,67,-95,-128,-55,-18,-23
1491695176866,1,-94,16,-16,-47,10,36,-103,-25
1491695176867,3,-11,-12,-77,-41,127,122,42,-12
1491695176867,3,-17,-1,-1,22,-84,-57,-91,-45
1491695176868,0,-65,-12,-61,-128,-128,10,36,36
1491695176868,0,23,36,93,100,107,127,-74,-16
1491695176914,1,121,4,9,-31,-71,120,24,19
1491695176914,1,-128,35,-32,-49,-88,-128,-101,-78
1491695176916,2,70,-27,-39,39,57,-36,97,18
1491695176916,2,-54,-23,-19,-82,-119,90,39,2
1491695176917,0,63,-29,-105,-81,-115,-91,-11,-54
1491695176917,0,88,0,60,127,110,60,123,77
1491695176918,1,-35,33,37,11,37,-1,-40,-20
1491695176918,1,108,-30,24,77,25,-73,28,44
1491695176962,2,-120,-53,-53,-48,-17,67,43,-24
1491695176962,2,54,-7,-15,-44,-34,63,-114,-90
1491695176963,3,-84,-52,-95,65,19,-70,21,50
1491695176963,3,-76,-112,51,-79,-90,83,46,-127
1491695176964,1,-10,75,27,-53,103,105,21,-13
1491695176964,1,7,51,-44,4,-52,-90,-47,-11
1491695176965,2,26,9,92,73,55,30,-66,-96
1491695176965,2,-71,-5,-116,-128,34,24,-21,10
1491695177011,3,-73,17,83,-24,-67,-117,-74,19
1491695177011,3,73,18,-98,2,29,113,124,11
1491695177012,0,-89,46,122,35,48,24,-75,-14
1491695177012,0,-29,4,-13,-27,-62,-128,-19,47
1491695177013,2,11,0,-63,-27,39,116,74,-28
1491695177013,2,-45,-43,-5,-34,-19,-86,-15,15
1491695177014,3,109,31,16,27,13,67,-98,-13
1491695177014,3,5,16,-89,-55,-77,-72,27,15
1491695177059,0,-3,8,-29,-12,82,100,74,-23
1491695177059,0,-15,26,67,69,76,85,53,16
1491695177061,1,-17,1,98,-115,-128,41,14,73
1491695177061,1,-13,-24,-65,-41,-14,-43,-11,-69
1491695177062,3,-57,-45,-12,127,127,-32,-31,-61
1491695177062,3,47,7,127,22,-47,127,94,21
1491695177062,0,-97,-19,-128,-128,-128,-128,-128,24
1491695177062,0,66,49,-80,-12,16,11,17,-21
1491695177108,1,-16,39,17,126,127,71,5,42
1491695177108,1,0,22,2,-128,-83,53,7,-8
1491695177110,2,-20,-41,-84,-83,-37,12,4,25
1491695177110,2,39,-23,23,103,69,20,21,-39
1491695177111,0,55,-22,38,117,74,127,11,38
1491695177111,0,-40,23,-42,-94,-87,-128,-23,34
1491695177112,1,-89,-18,-82,73,62,68,66,-93
1491695177112,1,55,-18,39,40,-119,99,38,65
1491695177157,2,14,73,-3,4,-37,-111,-72,-4
1491695177157,2,6,10,36,102,64,85,-30,-5
1491695177158,3,18,-77,-120,-88,28,21,89,-31
1491695177158,3,-46,48,69,17,-29,-104,-77,18
1491695177159,0,24,-15,7,127,110,114,62,6
1491695177159,0,59,3,104,-14,-101,102,13,-14
1491695177161,1,-6,5,-73,-94,-128,-123,-55,-37
1491695177161,1,-25,-6,-64,81,101,23,-55,-19
1491695177206,2,-15,0,80,15,41,56,37,35
1491695177206,2,-33,-40,-105,-102,-62,0,-7,-5
1491695177208,3,24,25,50,-31,-100,-83,-25,-11
1491695177208,3,-2,-32,35,18,-70,47,-11,-39
1491695177209,1,39,-42,34,76,76,13,-5,11
1491695177209,1,48,86,21,-92,50,17,-2,32
1491695177210,2,-39,-39,82,127,26,85,40,-12
1491695177210,2,-30,-97,-80,-57,-40,-82,-7,-58
1491695177254,3,106,21,30,9,-113,42,21,-3
1491695177254,3,-22,-4,-36,-85,106,-33,55,12
1491695177256,0,-13,12,-80,-4,42,0,-86,26
1491695177256,0,-38,71,74,-10,-96,-36,-51,18
1491695177257,2,18,-45,4,-128,-123,-11,-10,-12
1491695177257,2,-28,-69,-79,38,57,-53,-30,-19
1491695177258,3,24,-20,7,95,-128,6,8,25
1491695177258,3,9,67,-18,-128,-103,-88,-23,37
1491695177303,0,-45,28,-41,74,40,-29,-6,-12
1491695177303,0,-21,-51,29,51,127,95,18,-21
1491695177305,1,-4,31,-10,-76,-64,-58,-15,15
1491695177305,1,-8,-69,-62,-32,-114,-105,-12,-11
1491695177306,3,-16,44,46,82,40,-16,-46,34
1491695177306,3,-33,65,-61,-85,-73,-83,26,-38
1491695177307,0,-7,47,-60,-39,-28,-112,-48,18
1491695177307,0,-7,33,46,127,104,74,19,-18
1491695177352,1,62,-23,-9,-77,112,86,35,10
1491695177352,1,0,-53,23,31,24,9,-37,-10
1491695177353,2,-24,30,61,-18,-82,-22,0,-27
1491695177353,2,46,13,-35,-54,-41,-48,-4,8
1491695177355,0,63,-29,-45,10,-11,7,22,-13
1491695177355,0,-49,32,-13,-65,-113,-51,-50,19
1491695177356,1,21,77,10,-7,6,-32,-11,5
1491695177356,1,-42,45,-6,45,30,-2,-26,-25
1491695177405,2,-4,-13,12,14,-9,7,10,-8
1491695177405,2,-26,74,24,-16,-37,-38,-30,-6
1491695177406,3,33,-16,-46,-33,-6,2,44,-3
1491695177406,3,-53,34,46,65,65,25,5,-24
1491695177408,1,-38,-47,1,-89,-73,-83,-29,6
1491695177408,1,8,-63,-30,29,67,28,14,13
1491695177408,2,-3,2,20,-49,-128,-83,-29,14
1491695177408,2,48,-16,22,80,86,42,40,-12
1491695177450,3,-42,-60,9,61,93,27,4,-6
1491695177450,3,4,-18,-40,-100,-84,-5,-5,-2
1491695177451,0,-40,-2,-33,-57,-42,-26,-28,-4
1491695177451,0,16,-42,34,50,-13,-6,5,13
1491695177452,2,9,-2,-11,-23,29,33,53,6
1491695177452,2,26,-4,-26,-59,-111,-77,0,3
1491695177453,3,-18,-10,-6,-36,-19,12,-4,-10
1491695177453,3,2,-12,-12,20,3,-18,16,7
1491695177498,0,25,-59,-37,26,13,14,-31,-8
1491695177498,0,-18,-52,13,4,22,32,-10,-15
1491695177500,1,-50,-63,7,-6,-17,-57,-31,-3
1491695177500,1,6,-28,-28,-118,-108,41,-2,25
1491695177500,2,2,-22,42,38,-72,-98,-42,-31
1491695177500,2,-28,-111,-21,1,-7,42,-2,-3
1491695177501,3,42,28,15,13,-43,-42,4,-1
1491695177501,3,56,37,23,103,127,35,5,15
1491695177547,0,-56,-34,4,-10,8,18,-22,24
1491695177547,0,-20,76,13,-50,7,-11,-23,-45
1491695177548,1,-23,91,10,-2,-32,13,-39,-12
1491695177548,1,15,94,-27,-35,-111,-48,33,-20
1491695177548,3,21,-37,-11,4,38,43,15,-6
1491695177548,3,58,-16,-5,-87,-95,-83,-22,53
1491695177549,0,-95,17,-1,46,15,-30,-59,-42
1491695177549,0,16,-36,-37,17,53,-9,16,-10
1491695177596,1,38,17,70,67,18,62,32,3
1491695177596,1,-21,-26,-23,25,68,59,25,-5
1491695177596,2,-24,-29,37,46,89,15,-3,-25
1491695177596,2,52,61,-14,-56,-122,10,38,15
1491695177597,0,41,4,18,57,80,10,40,41
1491695177597,0,-41,-63,14,100,55,90,-37,-18
1491695177599,1,-16,-28,0,-25,0,-67,-29,-26
1491695177599,1,-15,-25,10,-75,-102,54,13,-11
1491695177644,2,8,48,-17,59,59,62,65,18
1491695177644,2,-71,93,0,-90,-121,-123,-93,-19
1491695177645,3,10,-46,-58,-69,14,22,59,-21
1491695177645,3,47,-21,19,127,13,7,-15,18
1491695177646,1,-85,-18,-36,-31,49,90,86,15
1491695177646,1,61,1,-5,-101,-57,-61,-128,-21
1491695177647,2,79,35,-8,98,41,127,62,13
1491695177647,2,-109,-43,-3,34,-70,32,-18,-59
1491695177693,3,-54,-64,29,11,86,32,-48,-43
1491695177693,3,60,10,-15,102,47,89,105,35
1491695177694,0,7,11,10,-124,-128,-86,-73,-9
1491695177694,0,13,29,-88,-128,-102,-80,12,1
1491695177695,2,92,-72,75,52,95,82,82,-14
1491695177695,2,44,53,-4,-52,-44,28,-77,-31
1491695177696,3,-56,36,0,-15,-128,-84,33,63
1491695177696,3,-1,19,18,-95,98,-9,-74,-73
1491695177742,0,-60,30,-89,-32,-128,-50,25,9
1491695177742,0,-29,-60,8,10,77,62,17,3
1491695177743,1,16,-2,-6,-24,-40,91,31,36
1491695177743,1,-55,-12,0,23,-24,37,36,-2
1491695177744,3,87,-5,-32,44,-6,-49,-128,11
1491695177744,3,-33,52,35,111,98,25,116,42
1491695177745,0,-49,27,-11,-104,60,-21,-49,-94
1491695177745,0,54,4,30,25,33,79,66,19
1491695177791,1,40,19,-19,-73,-86,-84,-36,-8
1491695177791,1,-88,-62,18,6,-92,59,-32,19
1491695177792,2,74,-91,-33,52,78,1,-27,32
1491695177792,2,66,85,54,34,-12,4,40,5
1491695177793,0,14,-68,-34,-109,-128,-64,-128,26
1491695177793,0,-128,83,-46,-68,17,-51,54,-13
1491695177793,1,127,15,-16,126,127,107,59,42
1491695177793,1,22,-19,52,5,-85,56,43,-59
1491695177840,2,22,-15,16,0,47,-57,-55,-12
1491695177840,2,-61,52,-42,-85,-60,-60,-104,76
1491695177841,3,57,60,-8,82,111,89,50,-17
1491695177841,3,-33,43,-38,-4,-48,-128,-21,-10
1491695177841,0,52,56,-27,-95,-120,116,52,-54
1491695177841,0,-20,-67,68,36,127,91,-8,-3
1491695177842,1,-128,-35,34,36,24,-114,-57,-27
1491695177842,1,70,-51,-3,75,127,54,-68,15
1491695177888,2,-23,-49,-30,-37,-99,63,114,-12
1491695177888,2,116,-3,12,-4,-85,-70,-58,25
1491695177891,3,30,-100,13,51,91,127,86,2
1491695177891,3,-71,-104,-41,-116,-40,-128,-99,-16
1491695177891,1,109,68,48,35,88,20,-68,-47
1491695177891,1,-47,87,-44,-85,-7,-36,51,18
1491695177892,2,-88,56,-10,-9,-109,-12,-42,-18
1491695177892,2,41,115,8,23,119,40,42,-1
1491695177937,3,-79,38,23,63,12,44,-5,-9
1491695177937,3,50,-7,12,23,113,-73,-16,50
1491695177938,0,45,111,46,36,127,65,99,13
1491695177938,0,-64,-56,-25,-3,-57,72,-50,-42
1491695177939,2,-40,-23,-15,30,-79,30,-10,25
1491695177939,2,-40,-36,0,26,9,-33,55,-12
1491695177940,3,1,21,-1,-42,82,100,-102,-51
1491695177940,3,10,28,33,68,37,73,127,27
1491695177986,0,19,27,37,38,-29,-128,-76,-21
1491695177986,0,-72,-63,7,11,9,124,-34,-56
1491695177987,1,-27,55,-18,-94,-39,-87,0,50
1491695177987,1,97,-24,6,88,90,-7,-29,-42
1491695177987,3,98,-10,-15,-13,-128,-58,-14,43
1491695177987,3,-11,77,14,-71,67,90,-5,41
1491695177990,0,-5,-64,-7,127,47,18,-20,-31
1491695177990,0,127,9,-52,-112,-94,-70,-22,28
1491695178035,1,-128,-24,51,49,44,-22,-21,16
1491695178035,1,127,9,5,32,6,41,74,36
1491695178038,2,-117,4,-5,-39,24,-3,9,-46
1491695178038,2,60,2,12,-6,-22,112,76,58
1491695178039,0,-29,35,3,-94,-50,-54,-26,16
1491695178039,0,-15,32,-13,51,117,57,1,-33
1491695178040,1,87,-55,14,19,-128,-69,20,20
1491695178040,1,-43,0,-6,-89,51,63,-24,-36
1491695178083,2,3,-11,10,49,41,-63,44,60
1491695178083,2,-128,20,11,39,70,39,-87,-49
1491695178084,3,94,16,11,15,76,127,86,4
1491695178084,3,47,-44,4,24,-44,-128,16,10
1491695178085,1,-128,-23,24,10,-24,39,-84,-107
1491695178085,1,96,17,5,-35,-103,11,44,28
1491695178086,2,-65,-23,-21,26,127,36,53,6
1491695178086,2,39,4,42,50,-79,-49,-83,15
1491695178132,3,21,-14,-33,-76,-83,85,65,-30
1491695178132,3,-71,9,-16,-10,78,-62,-17,-35
1491695178142,0,-35,-16,-1,-9,-102,-60,-33,-1
1491695178142,0,-25,-18,-15,-89,-37,7,-12,4
1491695178143,2,27,-15,2,42,68,54,-2,12
1491695178143,2,-66,-32,-43,-15,-58,1,52,0
1491695178143,3,88,16,39,-62,-38,-10,-7,28
1491695178143,3,-49,-18,-8,58,17,-8,-10,-27
1491695178181,0,-91,9,5,1,21,16,4,-10
1491695178181,0,75,1,-52,-5,-7,-17,-17,28
1491695178182,1,-14,29,-8,8,1,31,23,26
1491695178182,1,-63,22,32,-7,2,14,-24,-23
1491695178182,3,-82,-12,-23,-17,10,-42,25,-18
1491695178182,3,26,15,18,-6,-13,50,23,42
1491695178184,0,55,9,6,-8,7,93,-37,4
1491695178184,0,-59,-7,23,36,56,-95,3,-9
1491695178229,1,-13,0,-10,0,-2,31,52,-16
1491695178229,1,-21,-24,-31,-32,-79,-85,-67,-10
1491695178230,2,23,6,26,-23,-9,12,-35,-1
1491695178230,2,-30,2,-2,42,28,48,47,-10
1491695178231,3,18,3,10,-2,-25,-74,11,9
1491695178231,3,-81,1,-24,-10,41,21,-50,13
1491695178232,0,-57,-5,0,-10,-30,42,43,2
1491695178232,0,-34,-3,3,18,-8,4,-9,-25
1491695178278,1,-61,-14,-11,-14,46,-10,-9,4
1491695178278,1,67,-7,-13,-21,-60,-21,-17,-21
1491695178279,2,23,10,-15,15,17,24,56,13
1491695178279,2,-19,-2,0,-13,-47,-38,-26,-40
1491695178280,0,119,-13,-12,17,23,-36,-37,-26
1491695178280,0,-36,29,34,1,62,77,40,-14
1491695178282,1,43,-27,-6,-8,-14,-63,-88,-10
1491695178282,1,10,-15,-26,-18,-43,-1,1,-6
1491695178327,2,34,4,-3,-25,-28,-8,75,43
1491695178327,2,-35,-3,13,-3,-3,-43,-9,-68
1491695178331,3,30,0,-27,-28,31,25,63,36
1491695178331,3,27,27,42,34,24,36,-1,15
1491695178332,1,84,21,18,41,73,8,-53,-2
1491695178332,1,-62,-24,-51,-34,-67,8,73,-6
1491695178336,2,18,-20,-19,-24,-46,-31,-48,24
1491695178336,2,-16,12,43,5,-28,39,7,-21
1491695178376,3,-72,-3,3,11,55,43,-15,-32
1491695178376,3,17,-21,-30,12,-19,-42,-9,1
1491695178377,0,-6,10,10,-6,-65,-67,-21,-12
1491695178377,0,124,-1,-28,-50,-60,21,-12,23
1491695178378,2,51,1,42,-9,-7,-65,70,20
1491695178378,2,-36,-17,-13,6,-27,28,-50,1
1491695178379,3,120,1,-44,-58,-118,-35,34,4
1491695178379,3,-15,0,15,5,-17,25,-71,8
1491695178424,0,-128,-44,-6,30,106,118,10,-112
1491695178424,0,54,22,-3,-10,-16,-91,20,30
1491695178425,1,-96,-5,5,-26,-115,-67,21,38
1491695178425,1,100,-4,-27,6,71,30,-13,0
1491695178426,3,10,-8,-45,-81,-73,-108,-57,-13
1491695178426,3,-67,37,9,-27,-128,74,99,-24
1491695178427,0,46,-5,-30,4,10,-17,19,49
1491695178427,0,53,23,15,48,23,-88,-53,-23
1491695178473,1,38,-7,48,114,106,117,39,60
1491695178473,1,44,-23,-49,-112,-122,-11,-63,-65
1491695178474,2,-109,6,-60,-63,-9,-27,-6,-16
1491695178474,2,127,25,-2,74,-128,-128,103,70
1491695178475,0,-128,-61,-33,-28,65,-47,-42,-83
1491695178475,0,98,35,3,-117,-48,84,93,47
1491695178476,1,-26,9,19,-8,29,0,-79,-23
1491695178476,1,-105,-33,-61,-115,-42,77,96,-32
1491695178522,2,127,66,104,106,62,-55,-104,16
1491695178522,2,-128,-7,-65,-52,127,21,-61,-65
1491695178523,3,127,-22,-81,-110,-90,-84,-86,16
1491695178523,3,-100,-29,-47,-113,-16,19,88,27
1491695178524,1,48,16,89,-31,-47,15,44,-22
1491695178524,1,43,2,-12,53,-45,-100,10,42
1491695178525,2,9,3,1,-23,59,99,4,38
1491695178525,2,-32,-6,8,72,56,-3,-2,-4
1491695178571,3,-128,-23,-40,-90,-3,44,59,-45
1491695178571,3,-30,32,-24,-78,-79,-128,-128,-47
1491695178572,0,-81,1,-19,-98,-128,33,106,30
1491695178572,0,114,20,85,107,105,119,-51,48
