1490821323664,-11,-58,-2,5,-44,83,-3,-70,-22,-10,56,63,71,101,-74,-36
1490821323666,-48,-84,-41,-62,-58,-17,-26,-14,-6,87,-16,-11,-30,13,-9,-15
1490821323667,118,-37,-14,-39,-90,-64,-26,17,-53,-81,6,-29,-50,-85,58,-5
1490821323713,-46,-39,32,39,-101,2,127,27,-49,88,7,82,50,-51,-128,-12
1490821323763,-108,2,-8,-98,7,-20,34,0,-47,-104,44,61,13,12,-17,-6
1490821323811,-44,-75,4,34,81,-107,-128,-46,1,55,14,60,66,64,49,29
1490821323860,-28,-62,16,-78,-52,43,63,-20,-19,-44,2,-42,25,31,-57,-22
1490821323908,112,60,3,95,111,-77,-3,-16,12,-109,-44,-128,-128,-128,-112,-7
1490821323909,-53,121,-42,-94,-42,16,127,48,-34,92,3,80,16,-21,-41,-37
1490821323957,-3,-4,-14,-65,-33,100,41,46,40,25,19,-32,51,-5,-77,-45
1490821324006,-24,53,33,-10,-20,127,-4,34,83,-3,-8,-10,-41,-94,-7,29
1490821324055,-16,-98,-1,63,127,51,11,-11,41,-105,58,87,-128,-31,-57,-1
1490821324103,3,101,-24,-123,-42,-123,60,13,-59,15,-53,-96,7,-9,-88,-46
1490821324104,5,16,53,127,64,2,94,50,16,-11,-11,-75,-62,-63,-91,3
1490821324152,-37,115,3,30,-34,-89,-79,-32,33,127,30,52,109,13,28,1
1490821324201,40,-112,-44,-87,-12,-95,-65,-43,5,-100,42,-20,31,43,-18,-24
1490821324250,16,85,-7,67,-69,45,-110,-7,-19,54,-24,-30,-30,-80,-89,-20
1490821324299,-24,49,-42,-40,-65,-64,71,-20,44,-93,1,49,10,30,41,40
1490821324346,43,-113,-4,-58,-128,-107,-22,-4,80,-100,-59,-124,-101,-104,-9,-20
1490821324348,-11,17,33,70,86,33,89,35,-7,87,34,85,58,82,69,1
1490821324397,31,-124,-7,-35,6,22,-56,-4,-12,-49,13,100,-109,-105,-18,28
1490821324445,-19,11,-45,-31,-58,-21,4,15,-33,-46,50,92,108,127,22,13
1490821324541,117,86,-54,-98,-68,-5,-62,6,51,75,9,30,-40,27,21,-9
1490821324590,-96,-72,-47,55,-62,-85,-17,-40,5,-17,90,38,103,73,15,-10
1490821324639,-49,4,20,92,-7,34,-85,37,-117,-34,-102,81,51,-48,-68,7
1490821324640,52,-44,65,99,73,127,37,53,55,-27,45,52,50,82,-96,-54
1490821324641,24,-4,113,5,-66,-22,-108,-22,10,-13,39,-38,-30,26,-128,-23
1490821324688,98,-6,-56,63,65,2,123,11,16,0,-128,-20,-128,-20,-31,-1
1490821324737,6,1,73,35,-107,-48,87,35,-66,-1,-52,-18,-86,-75,70,44
1490821324785,-55,-3,44,-8,3,-71,26,-44,36,-1,7,36,5,19,38,-12
1490821324786,19,-1,-2,63,56,42,47,9,40,0,14,-65,12,-5,13,11
1490821324835,80,47,9,2,46,-5,-7,-7,21,9,-29,-21,24,-5,-24,-11
1490821324883,33,14,20,-14,-45,-27,-37,-22,0,-6,-5,47,8,20,24,7
1490821324932,-35,6,-9,-12,-71,-5,9,2,-49,-8,-31,-87,-32,-34,-46,-26
1490821324981,1,3,-4,15,-3,-18,1,0,-3,2,12,3,-4,-11,2,3
1490821325029,-26,69,-22,-27,-28,-19,-31,-19,68,103,8,14,-11,-9,-2,8
1490821325030,-59,27,18,-8,3,-5,-17,-4,30,48,-1,9,6,10,-22,10
1490821325078,28,-76,11,54,39,89,17,3,-1,29,20,11,60,8,16,8
1490821325127,127,97,0,0,-15,-2,-11,-12,-59,107,-10,-20,-20,-55,-6,-16
1490821325176,-82,38,-26,-62,-46,-86,-33,-26,-84,16,-7,-11,-18,40,-40,-2
1490821325273,33,1,12,41,13,51,71,-2,-70,8,-16,-79,-124,-105,-96,-35
1490821325274,-11,7,1,27,38,-73,-65,-16,-26,-4,4,6,9,106,68,21
1490821325275,-46,-2,-21,-46,36,-24,16,-14,26,1,15,28,33,64,35,8
1490821325322,8,-1,16,56,36,-1,-20,-19,41,2,14,63,115,106,48,24
1490821325371,0,0,-9,-50,-78,-18,34,-10,0,0,-9,27,63,-62,-75,-28
1490821325420,72,-1,58,123,127,108,59,33,-28,0,0,81,7,11,42,28
1490821325468,-81,0,10,-15,34,-21,-128,-58,68,0,8,54,21,-39,72,12
1490821325469,44,0,-17,0,-128,-27,50,6,66,0,8,-33,-100,-109,-92,-44
1490821325517,-128,42,-13,3,52,-14,51,-17,64,14,16,3,-43,20,49,40
1490821325566,59,-28,-17,-52,-64,14,-7,-4,50,34,-8,-60,-43,-41,-66,-29
1490821325615,5,-11,10,54,53,16,30,26,-73,57,-22,-27,-27,40,-49,-13
1490821325664,73,-18,15,48,30,-26,50,37,-73,-52,-5,17,-15,-3,-11,-47
1490821325711,-69,-42,23,-20,0,-8,5,29,7,-22,-10,-27,-20,-24,-14,2
1490821325713,-42,10,13,-18,-3,20,-21,24,-84,3,-4,39,-2,-42,-67,-47
1490821325761,-9,-42,-4,7,-3,2,-11,-16,-12,26,-8,18,-9,-9,49,16
1490821325810,-22,-25,-7,2,1,-3,-89,-30,15,14,11,12,2,87,41,4
1490821325858,2,-35,-25,60,54,35,30,52,6,-93,-25,-10,-27,21,35,6
1490821325906,14,5,-9,-106,-20,-94,29,-6,-86,14,5,-75,5,-31,-20,-3
1490821325908,-20,49,-2,7,15,-67,-41,-10,29,-25,4,20,16,-14,2,14
1490821325956,44,-11,6,7,-36,102,25,22,0,38,13,23,-20,108,-31,-16
1490821326005,-86,2,1,20,30,-75,6,-13,-10,-17,6,13,18,-18,8,17
1490821326053,-29,31,-1,19,-3,69,-60,-16,-41,36,-8,6,-11,92,-25,-2
1490821326102,-2,17,-6,-29,-3,46,-3,-6,63,-24,20,-4,-4,-1,33,1
1490821326150,-57,26,-6,64,27,25,-76,-31,-12,14,-16,-21,-11,51,79,17
1490821326152,112,3,-23,-52,-60,-69,42,-14,-62,-100,12,-35,-63,12,1,32
1490821326200,-13,-10,35,53,47,-8,61,11,41,43,35,68,127,-20,-11,-3
1490821326248,-49,-80,-19,-117,-46,-92,-72,-30,-75,-64,10,70,60,33,86,12
1490821326297,115,26,5,37,-103,52,-5,8,-19,-112,-65,-128,-104,-118,-105,-42
1490821326346,71,-16,55,127,98,127,75,82,41,78,6,37,23,-83,-7,14
1490821326394,-82,68,-43,-107,-21,71,45,-3,-4,10,-20,-101,-128,-86,-108,-30
1490821326395,6,-44,19,-65,-45,27,115,52,-5,-97,3,114,89,27,23,-19
1490821326443,4,-98,-27,-25,74,-52,-75,-32,4,-19,45,-10,91,122,73,-14
1490821326492,3,79,13,-43,19,43,32,0,-45,-56,31,71,-7,-10,-18,23
1490821326541,-71,72,-28,17,-71,-5,-13,20,-7,21,-14,-128,-128,-128,-93,-33
1490821326589,8,-10,-39,-45,-51,-48,-55,3,-71,91,-28,-4,10,40,49,5
1490821326591,10,20,22,82,27,-100,44,39,47,55,-33,-34,21,95,-102,-38
1490821326639,-39,9,26,-50,64,36,114,-35,1,24,53,120,77,27,-91,27
1490821326687,-84,-26,14,54,-4,-51,-33,-32,-31,-125,31,83,27,-22,-70,-60
1490821326736,39,-8,2,-77,-116,15,-76,16,-16,-1,5,10,50,39,19,-11
1490821326785,16,87,2,99,93,-28,-100,-27,-39,63,38,59,41,106,74,-1
1490821326833,-16,-96,-30,-70,57,33,-64,-40,14,-128,21,37,-51,-43,21,-9
1490821326836,11,-34,-13,29,-126,5,62,31,-18,-77,-3,-116,-57,10,-82,-53
1490821326883,-26,26,-5,-2,-46,-2,-65,-10,-120,57,-26,-100,-128,-53,16,-16
1490821326931,46,27,-28,-22,17,4,80,33,-9,91,-17,-91,63,10,34,12
1490821326980,-28,-72,14,127,112,-48,9,9,12,-90,29,39,91,105,40,10
1490821327029,20,33,-9,-93,-5,-13,45,15,49,55,-23,20,97,-35,-30,-19
1490821327078,-59,72,38,126,123,89,-6,-7,-26,-1,-38,-61,-90,-88,-27,3
1490821327079,-20,-128,-1,-53,-45,-63,-22,-2,72,-77,3,7,-5,39,23,15
1490821327126,-86,-9,-3,-19,-79,-56,-7,0,-53,4,-51,-9,-38,12,18,0
1490821327175,127,-9,31,-84,62,26,-6,9,9,13,-12,45,-66,80,-15,7
1490821327224,-20,3,-20,35,127,-66,-21,-12,-114,-9,33,-46,-74,-31,-17,2
1490821327272,26,-6,-33,-54,-18,88,8,1,28,5,-34,-114,-62,43,18,-8
1490821327273,35,1,-19,-72,-86,-109,2,1,86,1,-5,51,1,-119,-17,-8
1490821327321,1,-2,40,12,48,-45,112,-9,-40,-1,26,-21,107,46,81,-8
1490821327370,27,-1,38,42,40,11,-3,-11,31,0,40,79,90,2,-12,33
1490821327418,-68,-104,-29,43,-61,14,-35,4,16,5,-118,-72,-39,20,-35,4
1490821327469,38,69,-28,-13,-2,-3,-20,6,-71,27,-5,109,15,17,-10,0
1490821327517,-36,-17,44,4,-15,-3,7,2,-28,-13,49,-39,29,-29,-10,-5
1490821327519,-21,-14,4,-5,12,11,-1,-16,20,-3,42,0,18,27,13,-3
1490821327565,-21,-1,-33,13,-30,-21,7,0,-75,2,-18,-7,-23,-34,1,-13
1490821327614,5,-64,5,31,2,57,15,-6,-28,-5,-8,-9,4,39,-2,-8
1490821327662,-18,3,-16,10,17,-9,-1,0,31,85,18,-3,-10,-9,-15,-9
1490821327710,127,-46,27,6,15,-2,-15,-8,36,-51,-14,2,67,-3,-12,5
1490821327711,-21,-88,-7,6,-3,1,17,-7,-22,37,7,-6,-47,18,-45,3
1490821327759,-37,44,16,-3,-4,11,5,17,-62,-70,3,-41,-20,-33,-4,-5
1490821327808,-23,125,-15,9,-11,89,2,-52,-13,-21,-8,9,19,-24,-16,4
1490821327858,-4,28,-38,-14,-26,17,-42,17,-2,127,-8,-37,24,50,70,1
1490821327907,-2,29,-13,-23,5,33,-27,-4,-6,14,-39,26,20,-15,39,22
1490821327956,18,-4,38,-2,79,-3,-53,15,-58,-32,-22,-90,-92,-91,-60,-35
1490821327958,-46,3,-7,63,-42,7,72,15,-21,14,-12,-80,-101,37,-69,5
1490821328004,34,12,35,23,-50,-2,-91,8,33,13,32,27,127,19,-25,-13
1490821328052,-13,8,0,19,56,-38,-3,-5,-120,3,-7,25,37,67,33,-9
1490821328101,52,5,-27,17,0,66,50,1,-86,0,3,9,21,94,32,-11
1490821328150,13,1,12,-24,-113,-64,75,46,-60,0,-2,-18,40,-104,-81,-22
1490821328198,34,0,-7,18,50,-18,-47,-58,-18,1,17,-5,-27,-33,70,54
1490821328200,34,1,-23,-39,-110,-30,19,0,70,0,-18,-39,-47,-37,-37,-28
1490821328252,-56,72,-17,-46,-44,-3,30,-3,6,-23,-2,-63,-29,-115,35,-33
1490821328298,73,-118,-6,18,-60,30,66,18,-85,-85,-16,-23,-16,-19,-95,-21
1490821328349,-128,36,4,23,123,94,-12,1,56,57,-6,-18,-66,44,-31,-37
1490821328393,-46,-28,-8,-10,-54,-73,-22,-3,-34,-6,8,1,62,42,17,-23
1490821328395,50,78,-12,-27,-109,38,-12,-6,16,27,5,5,-73,-38,-9,-14
1490821328442,-58,-21,-6,6,-57,-27,-28,1,72,-7,4,-27,-34,-11,-18,5
1490821328491,-15,49,15,38,31,27,-5,-13,-59,33,23,59,37,-89,-50,-3
1490821328542,33,43,20,-42,-29,-37,-26,2,-7,12,2,-23,3,5,60,34
1490821328588,-68,-25,-5,-14,-32,-8,73,19,11,-14,-5,-11,6,-19,-62,9
1490821328637,76,-5,-3,-20,-12,82,-52,-8,-55,-8,14,-4,7,34,-15,-12
1490821328638,31,16,-12,-21,19,-80,-12,-6,-50,-12,29,65,23,-85,-5,0
1490821328686,119,34,9,14,3,-29,-4,-11,111,65,6,14,-4,-21,50,-1
1490821328735,10,14,-5,10,-16,-27,-38,-4,-71,-25,6,30,23,-60,6,6
1490821328784,50,5,-21,-19,-9,-82,-80,2,35,-4,7,6,-7,-128,-80,4
1490821328832,57,-33,26,19,-22,79,85,22,-128,4,-19,-8,8,113,-7,-55
1490821328880,3,-27,-2,-4,-4,-64,-8,1,29,-32,6,-5,-53,-14,-42,-7
1490821328882,-75,33,21,35,7,-17,-14,18,74,-12,-28,-28,-17,-85,-24,-29
1490821328930,81,-53,4,-24,79,-34,50,32,-77,-111,10,15,-22,-50,3,33
1490821328979,-118,83,23,-45,-54,31,127,-16,-34,38,4,7,-78,-39,-54,-19
1490821329027,74,-39,-2,-49,-11,-3,-11,9,-46,-55,-8,71,57,-27,-43,-29
1490821329076,67,17,-19,-72,6,-82,-58,-13,68,21,8,42,-114,-4,-14,-14
1490821329078,-21,-95,-18,-46,-69,-123,-18,-14,-62,-17,-14,8,69,-2,20,-9
1490821329125,38,15,16,-44,-39,5,36,32,-72,15,-40,-83,-9,0,66,-14
1490821329174,42,58,23,101,41,29,33,28,-112,75,-4,-108,-128,59,31,13
1490821329222,5,8,29,75,75,-14,20,34,-29,110,19,127,127,100,12,-27
1490821329271,127,-37,40,33,4,-61,-53,107,-23,-47,-26,32,29,-115,-58,-29
1490821329319,99,-35,26,-2,-1,-26,127,-3,-18,-108,-49,-2,48,-55,-100,10
1490821329321,-25,96,6,104,99,86,-70,-22,-71,76,39,36,-70,97,124,19
1490821329369,3,32,-54,49,9,33,98,9,-4,57,29,34,127,6,-119,-23
1490821329417,-2,-71,20,-40,-128,22,-60,-10,13,-45,-41,-49,83,12,-53,-22
1490821329466,-73,-128,-56,-66,-41,-108,-106,-45,-20,-77,17,-85,-65,-72,52,-14
1490821329515,45,12,-8,2,-15,23,-47,-2,-43,83,0,-60,-27,-4,92,-20
1490821329564,-53,20,5,43,30,127,73,7,43,9,-7,66,127,121,-18,2
1490821329566,-5,92,-19,22,44,-9,22,-76,-36,127,27,104,109,57,54,21
1490821329612,19,-84,48,93,110,127,35,53,-84,-119,19,20,4,30,48,0
1490821329661,53,-66,38,-21,14,127,115,37,34,-37,-31,-128,-76,-95,-128,-15
1490821329709,4,7,-16,79,-57,-34,-64,-35,10,-97,33,15,-66,50,24,-1
1490821329758,-16,-74,-25,-37,-74,14,39,37,5,61,-3,-38,-57,-121,-78,-7
1490821329759,-16,-111,3,-13,-9,25,-9,-8,-97,-128,-72,-58,56,-8,5,-1
1490821329807,-87,55,35,-2,-28,-9,15,-2,-17,-28,8,37,90,78,21,7
1490821329856,89,-45,-25,-96,12,-64,-29,-15,114,-83,-8,9,1,30,19,19
1490821329905,28,-4,-11,-68,-102,29,-6,-14,30,-51,-65,-77,-53,18,-17,-17
1490821329954,20,107,-15,-89,-19,103,-26,-7,3,65,-29,7,61,49,25,-12
1490821330002,4,56,18,11,23,31,-20,2,-4,-7,0,-50,52,32,2,18
1490821330099,0,-24,12,74,17,-62,0,16,0,-56,45,55,30,-79,-12,1
1490821330100,29,84,-41,6,-10,-124,10,1,-1,37,101,1,40,-85,40,4
1490821330102,23,-32,-32,-47,12,-128,13,11,-1,-40,-36,5,17,-124,-15,-39
1490821330148,-18,-16,28,79,33,70,18,9,7,8,-35,-1,-6,-5,-11,40
1490821330197,-20,1,-11,-3,-2,23,-14,0,3,1,-39,-19,-19,68,-21,3
1490821330198,-1,-3,1,-49,-82,22,-14,-1,9,-1,33,2,-83,45,4,8
1490821330246,-5,-2,-10,-25,-8,-51,3,-22,62,-2,0,22,-26,-54,-17,19
1490821330295,53,6,36,36,-15,-4,-8,-6,1,70,-15,-45,-6,0,-7,10
1490821330344,55,-16,-15,-22,1,6,-16,0,-12,-26,27,19,9,-21,-20,5
1490821330392,107,-45,23,20,-7,-14,23,3,85,-10,3,5,4,17,10,-4
1490821330440,-91,17,19,-7,-14,26,10,16,-52,-28,21,22,0,19,-11,-1
1490821330442,28,19,-19,8,25,14,-7,8,59,-3,-26,-22,4,9,14,-7
1490821330490,33,-125,4,18,39,7,6,-6,42,48,-17,-35,-27,3,-18,-5
1490821330538,-42,119,1,-9,-17,-25,-34,19,-59,70,-29,-17,-1,-1,29,-14
1490821330587,-7,24,-9,-30,-56,-7,-43,-3,-17,-5,-14,4,49,30,53,36
1490821330636,0,-109,-27,-16,-19,-8,86,4,-1,-58,31,-46,-64,-13,-43,3
1490821330684,5,-62,-20,-27,19,38,14,18,-3,-128,28,73,-31,25,21,2
1490821330685,-17,122,7,-62,-36,-15,-28,-25,-24,127,-10,69,72,50,-2,11
1490821330733,14,18,27,37,18,33,33,10,-62,-54,4,17,102,32,-17,-10
1490821330782,-71,-10,3,-5,38,38,35,-5,109,-72,-8,61,38,-7,-27,27
1490821330831,-61,-25,-23,-63,-80,-62,24,-18,19,-87,-11,6,18,-15,-23,12
1490821330879,-21,-104,-21,-24,-57,-73,-95,-11,-11,71,18,-22,-16,-23,26,-34
1490821330881,71,-103,29,101,49,22,34,40,-38,-12,14,-25,-49,-20,-36,-12
1490821330929,22,54,0,34,38,14,13,12,8,36,17,0,-26,57,47,1
1490821330977,-56,9,16,45,-17,28,43,1,56,6,5,14,22,-4,-20,-12
1490821331026,-25,-6,-11,-33,-35,46,98,-2,31,16,-12,-17,6,-12,-74,15
1490821331075,-16,2,1,25,8,-13,-19,-14,-31,4,-15,10,-20,38,-24,-53
1490821331123,37,81,4,-1,27,28,-51,24,28,24,1,22,90,-9,9,14
1490821331124,22,-97,23,80,42,-45,0,-2,30,-35,10,-48,-103,-18,-14,36
1490821331172,24,-128,6,-9,-14,5,77,6,2,-128,-6,-38,-57,-8,-14,10
1490821331221,11,-22,17,3,6,21,-11,17,-31,-4,5,27,24,-17,58,1
1490821331270,-2,-3,-21,-50,-36,15,47,2,59,1,-18,4,6,-13,15,10
1490821331319,10,20,19,-28,2,-45,-45,-6,2,5,-7,-14,19,21,16,20
1490821331368,-6,4,-4,-2,-19,24,1,-15,79,-11,3,35,20,119,-29,5
1490821331371,-34,84,-4,-12,9,-11,18,9,9,27,0,-70,-13,-32,-12,-25
1490821331416,95,6,19,24,-10,-57,-42,14,-61,-12,-3,-15,7,-128,10,8
1490821331465,8,-37,-12,-8,77,84,-5,6,25,-31,2,52,49,76,11,15
1490821331513,19,-7,15,2,-11,23,-4,-8,37,-37,4,-28,-1,-4,48,14
1490821331611,-65,24,-22,-23,-20,-1,42,13,-16,14,28,23,28,-6,14,-17
1490821331614,8,14,3,31,8,0,26,7,40,-82,14,23,-10,-3,0,2
1490821331621,104,-58,-8,-3,-4,19,3,2,-9,95,-29,-33,-17,-16,-21,-8
1490821331659,13,-22,-4,-11,-5,1,-6,22,-11,-78,-18,-2,-4,-9,34,4
1490821331708,61,42,9,-8,21,-45,0,27,-51,26,3,24,15,-25,-29,-31
1490821331757,-27,92,-18,-6,-3,28,37,-4,-5,71,21,-30,21,-76,-38,21
1490821331805,15,64,5,69,57,68,9,33,40,127,-5,-44,-90,20,104,3
1490821331806,86,-70,-43,-128,-114,-123,-57,-30,-54,-103,8,23,66,-69,12,-13
1490821331855,-34,47,-1,48,44,-7,24,-18,26,78,-19,-3,-93,-39,-32,23
1490821331903,-102,-17,27,94,47,-75,-29,-30,124,32,6,18,24,37,17,-14
1490821331952,37,-128,29,54,93,95,48,-12,30,-115,43,103,66,127,-9,33
1490821332001,-41,63,-16,38,52,-111,-68,-13,-87,2,-45,-79,-81,85,-52,-67
1490821332049,33,31,50,113,-44,83,49,15,19,12,18,45,-77,-128,-52,40
1490821332050,-74,-20,-52,-75,83,91,-68,-31,-22,-23,65,127,127,-96,24,10
1490821332099,-108,127,-36,-96,-128,-82,-86,-13,42,111,-15,-81,104,61,-128,-24
1490821332147,-12,-84,-55,-43,-122,-69,104,15,-111,-110,-51,-72,-18,-117,-10,-85
1490821332196,37,127,-21,-36,-1,127,108,37,-57,119,53,8,48,-67,-104,-17
1490821332245,16,113,7,29,67,22,89,21,20,15,31,127,-128,-77,-20,-65
1490821332293,54,-29,-48,-113,112,86,36,42,25,-31,25,45,90,83,79,16
1490821332294,-27,-36,5,-3,127,98,-25,9,-45,-112,-64,-128,-128,-43,-86,-23
1490821332342,-60,3,22,127,-37,-18,94,-14,106,127,6,3,-100,-13,22,53
1490821332391,-24,-3,-20,-81,127,99,24,-21,21,-55,23,108,112,-119,-128,-49
1490821332440,0,-97,-4,20,41,61,59,48,1,-112,37,47,127,-9,32,27
1490821332489,-19,-22,-8,-69,-9,-88,-88,-32,-5,-23,-21,-38,82,25,19,-9
1490821332490,14,5,20,70,-100,17,71,40,25,-3,-13,77,99,55,-1,4
1490821332537,49,-79,44,36,127,9,-36,-8,24,-76,10,-21,-116,-42,10,6
1490821332586,27,-99,-19,-46,-62,-1,-8,12,13,0,-28,-70,-51,-47,-26,-8
1490821332635,-41,77,-3,7,-1,19,-16,-9,0,127,-24,47,33,23,26,8
1490821332683,84,-61,0,106,71,91,48,12,91,-29,-20,-46,-5,8,-16,7
1490821332732,68,-6,-41,5,5,-54,24,1,64,-13,31,47,-20,-18,11,-4
1490821332733,12,-2,26,-23,-32,44,-15,3,40,-1,16,11,-4,19,5,12
1490821332785,8,2,-13,67,127,27,-13,-1,-1,-4,83,105,71,-4,-20,8
1490821332829,-6,-3,-9,9,-14,-34,4,-3,-6,-2,-11,-72,-102,-38,-3,-25
1490821332878,1,-2,18,59,41,-24,3,12,-3,0,-48,-70,-14,5,25,17
1490821332926,-1,-1,-77,5,31,-3,3,11,-3,-1,21,-93,10,-128,6,4
1490821332927,12,-1,49,33,96,9,4,1,-2,-1,47,28,-11,-36,-22,-27
1490821332976,41,-65,35,-21,-105,-17,3,-16,26,-20,-65,-23,8,-33,1,-6
1490821333025,-6,47,63,11,2,0,0,-2,-8,3,36,59,42,23,25,-6
1490821333074,0,-49,-23,62,19,5,-23,-2,1,3,31,13,4,12,12,13
1490821333123,25,-20,-13,14,-7,14,-5,-10,-22,-23,-21,18,15,32,4,19
1490821333172,40,-1,-10,32,20,11,-3,-5,0,13,17,14,-2,9,5,5
1490821333175,127,22,-17,-19,7,-2,8,5,6,-15,-6,-1,-14,2,-6,-10
1490821333219,-4,-2,-29,-12,11,10,9,27,13,1,16,10,-4,14,4,-10
1490821333268,-16,24,-12,-17,9,8,-16,-10,-86,13,15,2,-15,-16,-20,-4
1490821333317,-87,15,-4,1,4,-24,-17,-1,-57,23,8,-14,-21,-5,20,-6
1490821333365,-13,-51,-16,-12,-10,-1,-18,11,1,-105,2,19,14,7,5,-18
1490821333366,2,-111,10,12,44,27,1,27,-1,-86,-8,8,-62,2,-7,-10
1490821333415,-1,122,-12,5,-65,10,3,18,1,113,-19,-19,31,18,35,5
1490821333464,-47,10,-4,67,26,43,43,23,-57,29,19,45,100,81,51,-37
1490821333514,-16,7,0,7,54,30,-30,20,-21,6,-41,-13,-17,12,60,19
1490821333561,-9,12,16,9,63,-57,-104,-10,-23,-11,-6,12,14,-10,0,11
1490821333609,7,-4,-7,-22,29,20,-22,-15,-71,3,-8,17,-22,-24,-50,-25
1490821333610,-24,-60,3,-14,-26,-48,3,-4,-14,-73,-8,-47,-4,10,10,44
1490821333659,-64,27,9,13,55,18,-114,-16,50,-10,-12,5,35,-15,23,9
1490821333707,-16,9,26,0,1,-57,-36,-25,98,-12,-23,-26,-45,-6,-28,31
1490821333756,-4,-1,14,53,66,53,-4,-23,-19,0,-5,-5,17,34,-10,-33
1490821333805,49,3,-5,-11,-55,-1,-67,1,-17,-1,12,21,96,14,94,22
1490821333853,-33,1,0,14,18,74,36,0,-91,-3,7,53,97,-31,-18,-65
1490821333855,-13,0,-15,-10,-72,-49,-54,-3,-25,-1,14,4,82,51,51,13
1490821333950,-66,0,-4,-21,3,68,17,13,71,-1,6,-1,-34,-48,-63,2
1490821333952,-34,112,-9,-36,7,-4,-17,-31,-24,80,10,4,-77,0,-20,1
1490821334000,14,-75,12,36,15,-35,-3,12,-41,-19,-14,20,14,-18,46,-18
1490821334048,6,77,-25,-67,-123,-4,-38,-22,11,-5,15,-38,9,28,52,29
1490821334050,-11,-53,4,-1,26,6,52,21,34,-72,-2,5,19,-10,3,15
1490821334097,-16,11,8,26,78,-11,-4,-13,-91,114,7,40,17,30,16,-12
1490821334146,24,-30,8,-32,-39,4,-9,11,11,0,17,14,-25,-22,-61,6
1490821334195,43,53,-16,-17,-31,-23,-35,-7,34,47,7,9,-36,-19,10,-1
1490821334244,-57,7,6,-1,8,-49,-4,-14,-3,-6,-11,8,2,-39,46,19
1490821334292,84,-103,-6,-6,-3,-18,7,-16,-79,-49,-11,-24,-10,1,44,13
1490821334294,-32,34,-2,-15,1,92,-8,9,18,26,-11,-8,-30,33,-30,4
1490821334341,18,-15,-20,-40,-19,-4,-36,-11,-61,15,11,16,39,0,-33,-5
1490821334438,26,-120,-6,3,15,-67,60,24,-39,16,9,0,-20,-80,-4,-19
1490821334440,-53,13,0,25,-10,71,19,-2,21,14,6,2,46,114,25,-10
1490821334487,6,55,-10,22,10,-18,-30,-7,-16,-53,-24,-70,-40,51,-27,2
1490821334585,-63,-11,-7,-96,-106,-61,45,4,84,26,1,74,-27,1,-33,14
1490821334588,-13,-73,-19,25,-7,-56,-29,-4,103,-118,15,-6,-32,-11,91,41
1490821334592,31,3,21,100,10,51,-25,-2,-41,50,-14,-34,107,-84,-7,1
1490821334633,-79,63,-11,42,-80,-63,-128,-27,40,-66,-21,-63,-101,-27,25,-13
1490821334682,-19,-3,-67,-3,-26,-40,20,-36,-30,-60,-31,-109,-50,-66,-65,29
1490821334730,-128,60,23,39,14,94,26,-63,127,-87,23,-55,-17,-26,-56,9
1490821334731,-67,11,7,32,81,82,-58,10,29,54,42,127,37,45,88,49
1490821334779,-71,-101,-13,-31,-98,0,35,26,85,112,32,38,112,78,-107,-17
1490821334828,46,6,32,57,40,-38,-62,18,-4,-115,42,113,54,72,127,63
1490821334879,47,82,35,47,63,26,81,27,-72,-110,-13,0,32,-68,-2,-36
1490821334926,-73,52,35,97,-58,39,-35,23,10,74,-38,-94,-128,-41,-31,-4
1490821334974,-30,4,-34,16,-65,-128,-81,-35,-118,-1,-57,-112,-128,-23,127,-3
1490821334976,45,-8,14,119,119,112,83,-20,59,1,35,-34,-79,-80,-114,29
1490821335024,-23,-4,-19,36,98,68,-52,-6,-4,-2,21,127,91,64,64,25
1490821335072,-96,98,-54,-128,55,25,54,-7,23,97,65,100,-6,45,-15,15
1490821335218,42,4,4,76,-95,127,13,43,-45,127,-59,-128,-82,-111,24,-18
1490821335219,-46,-128,5,-54,-10,28,37,29,-3,-128,-64,-68,83,-27,25,15
1490821335220,-35,-27,-41,-128,115,-24,8,18,-49,-32,16,48,22,72,45,-52
1490821335222,19,9,-28,100,102,-27,13,8,-7,-14,11,65,34,17,27,2
1490821335268,-14,97,-6,-83,-1,-11,13,-8,21,-84,10,127,30,28,12,17
1490821335316,10,-48,3,-71,-51,-94,-74,-1,0,-83,-16,85,35,15,-15,-19
1490821335412,-65,-8,38,-59,-73,-17,-10,-10,-31,48,-24,-16,43,-34,-18,-12
1490821335414,25,-37,5,15,-66,-21,-8,-9,77,-9,8,15,64,35,21,17
1490821335415,-99,-2,28,88,61,32,1,12,-128,14,-55,-56,29,-9,-26,-5
1490821335510,-33,-17,14,-32,33,-13,-2,-7,27,-14,-38,12,-95,-57,-10,-5
1490821335511,71,101,-11,-21,4,-22,0,-2,24,74,-6,7,-3,-12,8,-8
1490821335560,10,-11,-25,24,-106,9,-5,-6,23,-56,-22,-29,-1,48,54,-2
1490821335608,8,6,9,40,13,40,-11,23,2,-4,-36,11,35,31,0,18
1490821335657,1,14,115,-27,-106,-62,-45,-4,3,-8,-72,4,-24,27,-2,-6
1490821335659,5,-98,16,-33,-46,-26,20,-9,0,-89,-13,33,-18,-21,3,-15
1490821335706,-3,37,-20,35,27,18,5,-4,33,6,86,35,2,4,11,-11
1490821335754,2,12,-24,-98,0,4,4,-2,17,-4,62,44,8,-26,-11,-21
1490821335803,-44,5,-15,-23,13,-26,0,-9,-19,17,38,73,5,-19,5,-6
1490821335900,60,-5,13,31,0,-8,12,-8,-1,-11,-20,6,0,-13,-3,-10
1490821335901,24,-2,13,13,-4,11,-6,-11,23,-4,27,17,12,15,4,11
1490821335902,-85,29,3,23,-3,12,-6,-10,-97,-9,-17,-22,0,1,-1,-12
1490821335949,62,-11,3,-1,1,13,7,10,59,-8,5,-14,-1,2,-1,5
1490821335998,-128,1,-12,-1,-14,-3,8,-22,-115,74,14,5,-7,-3,7,7
1490821336048,32,-14,28,8,6,-3,-11,23,1,-29,-15,2,1,-2,-12,10
1490821336095,-28,117,-1,-6,26,9,-11,16,-47,127,-42,-10,-22,-28,-16,20
1490821336097,18,-86,-22,-6,-5,16,13,36,-25,-39,-8,-6,7,-17,-33,-28
1490821336145,3,-115,-31,-10,-5,-35,-42,-31,-11,-65,9,16,32,11,19,-1
1490821336241,4,127,5,-32,-52,-42,27,8,-12,88,-18,-34,-60,11,12,-4
1490821336243,-24,18,14,-9,21,18,14,-7,-1,23,-4,71,-43,84,44,18
1490821336291,-20,13,5,-34,-30,-26,22,2,49,3,-9,-8,127,-5,-8,16
1490821336339,71,92,-8,26,-128,-25,-96,-19,-36,-40,-15,-115,-40,-17,-25,-27
1490821336341,112,-27,-25,-17,52,-56,-42,-3,-114,51,-3,-17,-96,-44,-42,-27
1490821336388,37,-21,-6,-10,-49,-19,10,-13,-42,8,14,83,127,63,32,13
1490821336438,-42,-7,-16,-104,51,-9,-6,-13,-78,15,-30,-72,-95,-128,-24,-9
1490821336534,101,-2,-3,-28,-19,-6,-43,-23,5,1,14,51,77,116,62,15
1490821336536,47,-5,-3,12,-59,51,-49,43,63,3,2,28,46,-128,-72,-32
1490821336538,30,-2,24,48,23,127,57,33,58,1,-12,10,4,5,72,42
1490821336584,10,-1,-18,-65,53,-11,-2,-24,-31,0,-4,-28,-32,6,72,24
1490821336632,-75,-1,2,39,19,5,27,-24,37,0,3,-11,76,127,-40,7
1490821336681,54,-59,5,5,-90,-14,-19,21,-21,-128,-1,-74,-59,-49,-84,-64
1490821336729,37,127,6,-1,-4,19,27,15,9,23,3,33,-42,-78,-32,3
1490821336777,7,28,6,53,25,2,59,4,50,21,-32,-16,-52,-36,-21,-5
1490821336779,-6,-35,30,25,17,-71,-54,5,6,101,14,57,45,62,51,3
1490821336827,-4,-97,3,8,3,7,2,10,-44,-90,8,17,-1,-5,9,10
1490821336876,-51,20,3,-30,10,-26,-24,-19,84,51,18,30,31,45,-21,1
1490821336926,-25,-35,-10,2,21,-12,48,25,44,-20,3,2,4,-86,28,-1
1490821336975,-48,12,1,-27,-27,29,-33,2,-11,5,-3,-3,13,-7,18,8
1490821337025,3,-33,-6,-35,-9,-30,-42,21,41,-64,22,22,-23,-14,50,14
1490821337029,7,47,5,19,-13,-21,-86,-27,-14,32,-3,-10,31,45,78,19
1490821337072,17,-60,-4,8,-4,-7,-6,7,-13,-24,-16,11,-15,-12,-11,-12
1490821337120,-64,-83,8,23,21,-5,31,-4,-54,-33,-4,-40,-10,38,-47,-31
1490821337171,12,-125,-19,-76,0,-53,4,12,-17,-56,-6,2,-32,-63,9,-23
1490821337218,73,26,0,34,-9,25,-19,34,-30,1,-19,-56,-28,46,-11,-32
1490821337221,-44,33,-21,-102,-65,25,-8,-21,116,41,-6,31,105,20,-16,21
1490821337266,-78,1,23,87,91,-28,2,9,17,14,-25,49,2,-50,-3,3
1490821337315,-23,-9,27,-51,-24,-5,-57,3,-6,-13,24,121,124,109,79,54
1490821337364,-15,-70,-41,-128,-18,105,71,-25,-55,-30,16,66,17,-78,-110,-28
1490821337412,50,5,-34,-93,33,-36,-92,-4,-35,-40,-11,-103,-58,74,69,0
1490821337461,100,-36,-21,-55,-107,-74,-57,-16,-26,-50,7,54,115,60,74,28
1490821337465,64,77,-8,-28,-49,127,122,40,8,-66,12,27,8,-113,-77,-52
1490821337511,14,4,16,-37,111,127,15,22,95,31,11,0,35,59,86,1
1490821337560,-18,-125,-62,100,-128,2,94,1,-29,127,22,-72,-41,127,20,55
1490821337607,-31,34,42,70,35,36,34,21,94,50,11,83,-118,6,-8,30
1490821337656,-108,-75,-13,-70,44,-115,-128,-50,28,-61,43,66,52,40,89,28
1490821337704,119,57,30,46,110,59,-6,13,-1,49,-18,39,-117,13,3,0
1490821337706,19,-83,-9,78,72,-128,-101,-13,29,31,-4,37,38,78,31,29
1490821337754,-15,-14,-36,-29,-62,-81,56,-19,-20,-33,-29,-29,84,17,-118,24
1490821337850,-51,63,-3,-128,1,-31,-128,-57,-3,-16,6,-10,-81,23,29,-20
1490821337852,-12,15,43,-54,-128,-102,-78,32,-16,15,-83,-108,127,-33,-128,-91
1490821337899,-53,-126,-61,-105,-106,-13,44,-24,36,-128,3,96,70,18,-21,48
1490821337901,-55,-19,29,-54,-83,4,23,-11,-53,-41,-35,-121,28,-98,-116,-24
1490821337948,5,5,-8,-77,-65,-43,-40,16,-31,-17,-17,-120,-6,-124,-76,-49
1490821337997,33,0,-28,-88,38,-38,29,-13,-39,-3,-43,122,-14,-49,-70,-42
1490821338046,34,0,-3,85,98,62,23,5,62,-1,16,-8,-60,49,47,26
1490821338094,-66,17,-64,5,-85,-55,-35,-29,-25,-18,109,112,-19,127,91,29
1490821338142,55,13,-32,-128,-114,7,-7,4,12,0,-88,-73,-84,-112,-83,-30
1490821338144,38,14,0,-1,41,-13,-9,-17,7,-8,15,-66,-76,-26,-15,-15
1490821338192,0,5,21,37,-42,-2,-4,-22,-1,-1,0,116,-41,30,2,0
1490821338242,27,2,13,-36,-6,-19,-7,14,-13,-1,-57,-32,-3,26,22,-4
1490821338290,11,7,90,64,-26,4,32,15,21,-28,-26,-26,60,1,6,0
1490821338339,-91,1,-37,-35,28,39,1,-5,-30,-28,19,3,-47,-45,-21,-11
1490821338386,42,-11,-19,-82,-71,-22,-23,10,13,-7,5,-45,53,-12,11,7
1490821338388,29,5,-22,27,80,27,-15,-6,-24,-6,31,127,78,23,-7,24
1490821338436,-4,2,8,12,22,-28,12,32,10,-4,-16,-26,-16,-5,12,4
1490821338484,-6,-103,-54,37,73,116,27,31,-9,-107,46,-62,-59,60,-28,-31
1490821338533,-37,30,36,1,-11,-104,9,-4,18,55,10,24,15,-112,-4,-1
1490821338581,22,43,-18,-8,-18,-6,-15,-9,-19,-1,-30,68,37,24,9,4
1490821338583,13,22,0,12,-27,9,-9,-4,32,2,11,-34,-12,33,-6,-1
1490821338631,29,19,61,3,-13,-11,-11,2,-38,-4,-31,27,6,13,0,3
1490821338679,-33,0,28,-22,-9,-71,-6,-5,8,21,-40,8,13,-19,15,0
1490821338728,61,-3,-3,-10,-10,4,-13,-8,40,2,17,8,1,8,4,10
1490821338777,-128,20,0,-4,0,19,35,6,-120,-9,42,-1,-4,6,16,-13
1490821338875,-9,-88,9,12,10,25,5,7,-43,-96,3,-1,6,21,9,20
1490821338878,-36,-113,7,11,-4,-11,9,2,-31,-128,-44,-10,17,17,4,1
1490821338883,-9,90,-20,-14,-26,-20,-23,11,8,-110,-12,7,-7,27,10,0
1490821338924,-2,117,19,25,56,33,13,-2,-1,116,-10,-58,25,-7,-15,-12
1490821338973,-85,12,2,-49,1,-31,3,-5,-38,25,35,20,-72,-61,-50,9
1490821339020,22,2,-30,-87,-57,-90,-9,2,47,1,28,7,24,88,47,38
1490821339069,2,29,7,51,1,-29,-72,-10,39,63,5,71,106,-11,-29,-21
1490821339070,3,-32,12,-9,-66,-78,-91,-39,-10,25,-8,11,-13,-39,-19,-8
1490821339118,-16,-29,-2,-13,-51,-62,-23,13,-12,-32,14,-14,7,1,11,13
1490821339167,3,-15,8,3,69,71,19,-21,37,19,-12,-53,-59,-99,-103,3
1490821339216,-6,-72,2,25,102,58,80,54,21,-40,42,84,67,65,72,-7
1490821339264,101,18,0,-15,-9,23,20,1,27,66,19,23,6,-22,39,51
1490821339266,20,0,10,47,87,51,6,20,-20,19,-9,-7,-48,41,5,-9
1490821339313,-55,-7,5,-21,-107,-33,81,1,-26,8,-23,-119,-28,-64,-104,-38
1490821339363,20,-3,19,62,-54,18,48,30,-14,3,-36,-17,-8,17,-28,-11
1490821339411,-119,-1,-14,21,38,-105,-51,-9,86,2,15,-43,-89,-36,-6,14
1490821339460,7,-1,-10,-29,-89,-43,-94,-39,-19,0,0,0,17,-35,118,8
1490821339508,5,-1,-6,-16,21,-28,-40,22,-41,0,15,59,-1,-4,-21,5
1490821339510,-94,-1,-4,-10,52,-2,-9,-40,93,0,16,39,17,-19,17,28
1490821339605,-20,-1,16,25,-21,41,-15,2,-55,0,-13,-48,-17,-60,-34,-27
1490821339607,-60,0,-15,-37,-42,-10,-27,-24,48,0,-12,-5,-13,-43,-4,-2
1490821339655,76,29,-3,20,30,16,30,9,-103,8,1,-26,-16,-30,-21,-17
1490821339702,-57,-76,-1,6,6,17,-18,23,121,-67,8,42,16,6,42,9
1490821339704,-59,-30,1,-46,-25,45,-1,-21,2,-14,7,-27,9,-90,27,28
1490821339753,-64,11,-5,-31,-3,18,-3,18,-12,-33,-7,-25,-31,0,-3,-14
1490821339801,-40,-52,-2,-13,28,-22,3,0,-38,-25,6,-3,-8,-5,-11,-12
1490821339850,-66,30,-12,-13,-13,-16,-40,-24,30,9,-3,1,13,9,99,25
1490821339898,27,40,-1,-1,9,98,-28,1,30,-12,-8,-18,32,86,1,14
1490821339947,78,1,-10,-6,15,-49,2,-12,21,37,-26,-41,-47,-40,-52,-20
1490821339948,24,-9,14,-22,35,-33,64,3,86,-12,-6,-21,-47,6,22,30
1490821339996,12,30,8,39,-58,-44,-10,-10,-5,42,-14,-60,3,-59,-4,-11
1490821340044,67,13,28,94,62,56,46,24,-115,-36,-22,-19,-52,-72,-90,-51
1490821340093,-18,-52,-12,-35,31,-41,-122,-48,-9,-28,0,-4,7,127,0,18
1490821340142,110,55,-11,-76,-37,-29,97,20,8,-44,-5,-82,-77,-96,9,19
1490821340190,14,39,7,-23,46,62,-95,20,-105,51,-14,51,-92,-9,0,16
1490821340191,7,-41,55,56,-93,-128,-61,-31,15,81,-20,-21,127,127,-76,-34
1490821340344,31,67,27,80,47,14,45,-22,-17,-59,-21,-67,-77,-80,15,-29
1490821340355,86,88,77,88,105,43,115,100,31,127,1,7,-24,80,-19,-22
1490821340359,-101,-128,-60,-31,-128,10,72,8,109,-38,37,123,127,6,-128,35
1490821340385,-12,80,1,29,19,50,-68,-29,-64,-3,-28,-69,37,-62,119,23
1490821340386,-89,-51,-16,5,-57,-104,85,2,-52,-20,-43,-61,-74,-70,-33,-72
1490821340441,110,103,15,-52,-29,4,-59,34,-54,121,-2,12,-11,91,21,53
1490821340531,-123,-115,19,11,76,-16,16,17,32,-90,5,49,3,3,-66,-19
1490821340532,111,-38,-16,-9,79,-7,54,53,-70,-59,98,127,17,-58,-128,10
1490821340581,-33,35,-42,21,81,-55,-20,19,53,127,94,126,-15,-35,-76,1
1490821340629,34,-64,26,-7,49,-60,48,-53,-79,-35,31,127,82,87,-13,-36
1490821340630,39,-43,-27,24,19,41,32,20,-6,-12,11,42,99,4,-47,-20
1490821340678,20,-19,-26,-87,-89,-96,-32,11,13,-6,-88,-118,-128,-118,-35,-61
1490821340727,-27,-9,45,36,-128,25,85,22,-29,5,-47,-96,111,-75,-104,-37
1490821340776,68,0,32,125,-23,-111,-46,-15,65,4,-21,-38,-38,59,-9,6
1490821340825,-24,-1,-8,54,41,47,36,-4,23,-1,5,52,15,91,50,9
1490821340873,43,-2,33,31,-37,13,1,5,19,1,60,75,14,19,14,8
1490821340875,27,10,34,6,39,9,12,2,64,30,73,127,62,54,36,22
1490821340922,-7,-1,58,33,8,-9,-37,-3,37,-5,-36,-27,-54,-7,6,9
1490821340971,-22,-94,-50,-59,-67,-30,-21,-11,-12,-72,-23,-15,-15,-23,-4,2
1490821341019,-68,55,-54,-8,23,6,-2,-14,33,36,25,5,7,27,18,16
1490821341067,-112,20,61,48,105,-12,-2,-12,-34,1,-70,11,49,-25,1,-7
1490821341068,69,17,28,31,12,-9,3,23,54,-35,17,64,2,-12,12,12
1490821341117,5,-2,6,38,-35,5,4,-14,27,2,-18,-36,39,-5,4,-5
1490821341166,11,6,-22,29,24,-14,-8,-21,12,3,50,3,-43,-18,4,9
1490821341215,4,-4,-9,8,17,30,10,26,-1,1,-18,24,34,7,2,9
1490821341266,1,-39,-18,-50,13,5,-7,-22,4,53,74,60,1,8,9,9
1490821341311,-21,0,19,44,23,1,13,2,2,-7,-40,-88,-29,-19,-14,-17
1490821341312,17,23,6,17,10,4,8,18,30,-3,-27,14,13,11,10,6
1490821341409,-60,-9,8,-25,-24,-5,-4,2,26,-22,41,36,1,-5,-2,0
1490821341410,-29,-8,7,-4,10,9,13,-10,-28,9,-34,-25,-11,-6,-6,3
1490821341458,62,-2,20,5,2,-16,5,7,66,14,-6,7,7,-45,3,-2
1490821341506,-23,10,-2,-28,-11,-5,-7,-15,107,1,-33,20,-3,7,6,-18
1490821341507,74,-7,17,16,0,-2,7,7,7,-8,-17,-42,-1,0,-13,-11
1490821341556,-116,-10,-53,-3,4,7,-10,-12,-57,46,13,-6,-14,-4,-7,-6
1490821341605,37,3,14,2,-2,-6,-4,12,-46,12,-6,1,2,-1,-4,-5
1490821341654,-12,95,2,-16,-4,-11,-9,-17,-31,-27,2,22,10,5,-11,-4
1490821341702,7,-105,7,-4,-16,-39,-48,-25,-11,-128,-17,-9,-8,-10,1,8
1490821341799,2,10,9,10,-5,20,34,23,-2,-39,1,8,38,-28,-10,3
1490821341807,3,89,4,-16,-28,-71,-34,13,-98,123,2,-20,-36,47,46,-24
1490821341809,-4,21,-32,30,36,19,27,4,-28,20,25,-25,-32,-17,-5,-8
1490821341848,26,-4,10,-17,16,-24,-70,-13,15,-2,-46,-10,91,10,-13,-6
1490821341897,41,1,18,-14,95,-21,26,13,-25,0,8,-4,-63,7,7,4
1490821341946,58,-21,-20,10,-12,-20,72,22,43,-11,7,-7,-84,76,-46,-15
1490821341994,-37,-34,-1,5,-18,-52,-23,1,76,25,3,13,4,35,3,15
1490821341995,-5,-70,6,37,-98,20,-21,-26,-75,-60,3,50,103,38,3,-15
1490821342043,7,49,-3,-98,-128,-49,-61,-8,9,3,-32,-58,-30,-90,60,5
1490821342092,-23,-27,14,82,107,10,10,-43,-3,-47,17,83,34,1,-102,15
1490821342142,65,22,-16,-21,59,-36,125,31,58,42,1,-39,-81,-47,-86,-18
1490821342189,83,1,0,2,-11,41,16,17,-19,22,-9,29,63,99,95,38
1490821342191,93,3,-10,-68,-93,-37,-72,-5,7,0,-1,-20,24,46,113,50
1490821342238,-121,-4,18,33,90,33,-28,-19,-22,5,3,65,-30,-11,0,-8
1490821342287,-77,1,23,1,-55,31,70,11,-19,2,-10,21,0,-115,-37,-8
1490821342384,3,-1,-7,-57,-48,39,-80,-33,41,0,-1,-34,-21,-8,41,34
1490821342386,73,-1,-6,-12,43,-4,19,16,-73,1,12,7,-14,-16,14,-10
1490821342433,-34,0,2,-17,31,-30,76,26,60,0,-3,-2,26,68,-89,-12
1490821342436,-41,0,7,37,15,-18,-13,29,2,0,-5,21,33,25,-12,-15
1490821342482,-6,0,-13,-31,16,31,9,-29,36,0,3,3,5,-24,10,30
1490821342531,11,0,-10,-12,-2,-33,-37,-25,4,-1,-7,-3,-1,-14,21,15
1490821342579,9,0,1,2,3,-4,29,6,-41,-1,-9,-4,0,-35,24,-11
1490821342628,91,0,16,40,9,33,8,42,-122,25,-9,11,-11,2,11,-23
1490821342676,3,-22,-7,-18,0,15,17,2,82,-9,-8,-8,1,-12,-35,-2
1490821342677,10,-7,-4,4,-22,-43,-35,-19,-25,2,11,6,-8,-10,17,6
1490821342726,10,-1,-27,-22,-24,-19,-28,-7,-106,-19,-8,-21,-3,23,32,-6
1490821342776,-13,-111,10,-8,10,49,-38,-2,67,-4,0,27,21,-44,61,6
1490821342827,86,39,-8,-26,-7,-63,19,-1,-87,-19,6,-3,-54,-37,-33,-7
1490821342872,69,4,34,11,115,-3,-7,28,-25,30,3,33,-128,9,27,25
1490821342874,34,-4,-18,-16,7,9,-22,2,60,-56,-9,-94,-9,-12,49,23
1490821342921,84,-81,38,80,75,109,-58,-5,-13,-6,-1,64,-47,-116,-84,-13
1490821342969,52,-30,-46,-128,-128,-97,58,31,81,-37,14,77,57,90,-81,6
1490821343018,109,36,-27,-82,-108,31,127,80,-128,-93,-8,-36,-10,-60,-58,-93
1490821343067,10,74,5,-21,127,-1,18,-42,30,43,-61,-73,-112,114,91,12
1490821343115,-79,102,11,-116,-22,94,-78,-5,83,127,87,127,127,93,95,0
1490821343116,98,-100,-50,-106,-128,-115,-128,-4,-62,24,13,-92,-8,87,-16,-12
1490821343165,33,-59,-36,-15,86,-25,-82,-69,-35,-111,-49,-48,-64,42,-61,-11
1490821343214,65,-15,-27,-41,-84,-128,-37,-36,-97,-96,-35,-97,-8,-94,7,-62
1490821343262,108,127,17,127,104,127,10,84,-21,71,11,-42,9,-15,-73,15
1490821343311,48,-71,7,-9,84,50,77,18,6,-81,34,108,117,30,-10,71
1490821343359,-80,-43,21,-57,-62,8,-128,-13,59,18,-21,26,73,26,69,35
1490821343360,9,-104,7,-2,-104,-79,-69,-3,11,-37,-14,-92,63,88,24,-35
1490821343408,-3,123,-4,71,127,-49,-114,-32,8,16,41,83,-128,32,32,13
1490821343457,-13,21,-61,-128,42,93,39,0,2,81,4,-77,-122,81,11,16
1490821343506,-15,-43,-58,-87,42,-96,18,-17,36,-19,-21,-3,-77,46,78,50
1490821343555,49,20,-33,-86,-69,31,33,40,16,-24,-5,-106,46,-36,-25,-15
1490821343557,-30,-3,16,30,35,-51,-70,-25,-51,-7,1,10,-1,-44,-3,-17
1490821343603,-6,4,3,61,38,16,17,-6,20,1,-41,-82,-50,9,12,4
1490821343700,0,1,10,17,-81,49,32,22,-11,-4,-91,-111,3,-78,-30,-22
1490821343704,7,-1,-45,-40,-20,-3,12,-2,-7,0,32,4,25,11,-1,-4
1490821343750,0,1,27,60,-16,-22,-10,-10,-4,-2,29,-21,24,27,22,2
1490821343798,17,-1,-62,-29,-3,26,12,8,-35,-1,42,73,39,13,14,2
1490821343798,-41,-17,-15,-5,22,-1,6,-1,-61,21,18,-36,-1,-15,-17,-1
1490821343847,31,49,24,72,58,18,-1,-5,-3,21,-59,-41,-21,-14,-17,10
1490821343896,3,2,2,-1,-20,30,5,0,83,-4,-24,-115,-50,-20,-23,-20
1490821343945,55,15,38,21,6,-20,-12,-9,54,-5,-26,-39,2,-18,9,6
1490821343993,25,0,-47,-48,14,-5,-5,-6,27,0,59,47,-13,-16,-11,-20
1490821344041,-8,-6,-23,-17,-20,0,6,-3,-2,5,2,-12,3,9,13,23
1490821344042,18,-96,81,14,-49,-31,-21,-11,54,-52,-97,-84,23,19,13,12
1490821344091,-5,53,22,33,27,25,8,14,7,14,-57,-23,20,-8,1,18
1490821344140,4,11,57,58,-20,-1,1,7,26,-2,12,-13,-14,-7,-9,-21
1490821344188,-13,-11,10,12,3,-9,-2,-7,16,-12,0,-19,9,7,10,-10
1490821344236,-62,0,-40,1,11,10,13,2,45,35,31,15,-18,-18,-13,5
1490821344238,-11,1,5,-15,-4,14,8,-1,-11,-5,16,14,-4,-6,-9,-7
1490821344286,45,-13,2,22,7,19,1,1,0,1,21,15,10,8,-3,-10
1490821344334,-51,15,-5,-4,-13,-5,-10,-14,-81,-1,7,-16,-21,0,2,-6
1490821344384,3,85,-10,-22,-5,-6,-11,-17,38,62,1,-9,-6,1,2,0
1490821344432,82,27,-3,-27,-22,7,3,10,127,37,6,11,5,8,10,38
1490821344480,-29,-107,-26,2,3,-1,3,-5,-46,-126,31,5,6,13,-11,0
1490821344482,-24,-99,-25,-8,-9,-33,-57,-40,-18,-103,-12,35,-35,13,53,17
1490821344530,4,113,13,27,-4,24,60,75,2,101,5,17,61,30,-17,-98
1490821344578,-30,60,40,34,28,8,3,21,-55,44,-7,-103,-105,-28,1,-43
1490821344627,10,8,-5,14,49,11,19,5,58,3,15,-6,37,62,-55,-8
1490821344676,-25,-5,-83,-81,-72,-86,46,-38,-11,70,-26,-101,-104,-87,-81,18
1490821344677,34,-74,16,58,127,82,-24,23,-13,-95,5,42,-111,78,73,12
1490821344724,-58,36,-22,-43,-50,-110,-49,-66,30,100,-2,30,79,53,13,-15
1490821344773,74,-50,6,-9,-89,-9,12,8,23,-26,-18,-12,28,4,22,20
1490821344822,-102,-22,-24,-73,-97,-45,-27,-35,100,-18,-23,-62,-21,-37,18,25
1490821344872,-55,-80,-1,67,-67,-91,-82,-58,-32,-1,16,16,127,29,-40,-10
1490821344919,-20,7,2,-15,19,51,77,11,-38,-62,0,16,-13,-15,-97,-25
1490821344922,29,73,7,1,9,98,0,87,-56,66,0,-4,58,-24,29,7
1490821345017,-52,12,6,17,2,10,32,1,17,24,18,27,10,-8,-87,-26
1490821345019,97,4,17,30,0,-104,-101,-13,-73,3,2,-22,-69,105,116,54
1490821345069,32,-2,16,35,92,27,76,20,19,3,7,10,-59,-54,1,3
1490821345115,25,2,-14,-24,-45,-127,-75,12,-71,1,-20,-31,-32,1,-81,-45
1490821345163,44,18,-6,18,6,-74,-61,-6,-41,-42,-14,-35,-21,3,47,-5
1490821345165,-34,24,-17,-15,-17,36,42,20,68,-9,-8,-54,-31,-11,27,-8
1490821345212,-11,-17,-12,-31,-16,7,-53,4,-103,-73,-1,-24,15,35,10,-23
1490821345260,50,88,-5,7,12,32,44,28,51,16,12,-7,19,30,-10,0
1490821345309,-62,-12,3,7,-5,-27,-57,-44,11,35,-5,-35,-22,33,53,19
1490821345358,76,87,4,-40,-29,-3,-73,-2,-22,-63,13,19,-35,7,-6,8
1490821345360,-46,68,-1,-24,15,17,60,4,45,-1,-22,-40,-20,-16,-38,-7
1490821345407,-33,-84,2,2,-3,-10,-8,-2,0,-11,2,25,-15,-6,-16,-7
1490821345456,-10,41,14,32,33,18,24,-6,-15,9,-5,-5,-13,-32,-71,-9
1490821345505,51,-24,-7,11,5,5,18,-3,-22,40,-12,-19,-4,-15,-11,-31
1490821345553,-82,29,-14,6,0,3,-8,-17,-45,32,-33,-96,-71,-10,-38,-20
1490821345601,-19,-65,1,-16,-6,3,-10,-8,102,18,7,7,4,-15,-36,25
1490821345602,44,-91,-22,-44,-57,6,66,18,-43,-84,-14,-3,-46,-46,-66,-50
1490821345650,-4,-57,-31,-52,36,19,38,4,21,-33,-8,-39,-69,22,42,31
1490821345699,-63,9,21,-1,-68,65,-59,-14,-32,67,0,-21,13,43,-32,16
1490821345748,21,-128,-1,-72,-51,-94,-24,-10,-117,-90,-14,13,-40,36,70,7
1490821345797,127,-6,-29,-98,-128,-68,7,10,-31,-38,-10,-56,50,-37,-128,9
1490821345845,-10,-45,0,34,-7,79,12,13,77,-33,-33,-106,-99,81,46,-7
1490821345847,78,29,14,127,127,70,118,13,-80,36,6,59,-39,-63,-128,-23
1490821345894,-24,-8,-13,19,93,-57,9,-45,127,24,24,31,-63,44,-14,13
1490821345943,-10,-5,-13,-11,-50,-58,-13,3,-30,65,-48,-127,25,68,-73,-1
1490821345992,-55,4,-51,22,-54,-75,-19,-3,4,12,2,33,-20,75,-8,-1
1490821346040,-125,29,-36,-65,-12,67,50,-40,127,13,1,48,52,3,-44,106
1490821346042,63,-72,5,28,127,6,-46,41,-35,-65,49,103,68,83,-20,-7
1490821346090,-25,-16,-16,-41,-107,-118,-128,-50,9,-27,-48,-128,-44,75,124,-17
1490821346138,65,96,-18,-80,-81,60,13,-24,57,27,15,25,-87,17,48,14
1490821346187,68,-86,-1,-61,-19,127,39,98,-19,-55,-35,-72,73,-128,-97,-15
1490821346236,-12,15,12,107,127,-27,105,3,-53,16,22,23,-34,-122,-33,-61
1490821346284,-104,-12,95,99,127,100,80,49,41,0,-32,-71,-63,5,-98,16
1490821346286,3,-110,-47,-80,-128,-97,27,1,-35,-116,-10,-99,-86,-20,-62,-59
1490821346333,51,89,-59,48,82,6,-88,-18,-37,120,67,87,127,78,66,5
1490821346382,-54,93,-27,-57,-102,66,46,23,18,-3,57,127,-2,-36,57,20
1490821346479,-44,-22,-26,-123,109,32,-23,-19,-39,-8,-41,-26,-128,23,12,22
1490821346481,15,0,50,127,127,85,44,17,42,-8,63,10,-74,81,47,41
1490821346529,-17,-6,37,47,-75,-33,-8,-9,20,-1,-54,-9,-1,25,-6,3
1490821346532,-19,2,20,19,67,7,4,-12,34,-1,42,127,91,97,29,25
1490821346578,-1,-87,-8,64,26,28,12,-7,9,100,-31,47,56,15,3,14
1490821346626,4,35,-21,-2,-73,-24,1,-3,5,73,45,-4,8,-47,-27,-18
1490821346723,-63,5,23,35,-1,-2,-3,-2,21,-42,5,2,-9,8,16,16
1490821346725,-128,33,17,10,27,0,-3,-1,-57,-49,-42,-6,44,6,6,11
1490821346726,113,50,38,42,-41,13,7,2,53,82,-60,-52,-54,-6,-9,-11
1490821346772,85,-40,-26,-73,-40,-46,-15,-9,78,-85,-37,1,-2,-8,4,-5
1490821346821,22,-46,4,-4,22,6,15,-1,18,-45,-18,-44,-7,-9,-2,-6
1490821346917,10,-40,-32,0,13,-4,0,2,14,-14,1,29,52,18,12,19
1490821346919,-7,-119,-8,-25,-11,17,-11,-34,-3,-85,44,30,-4,4,0,8
1490821346966,18,23,25,22,20,-8,-2,1,35,36,-23,5,1,-22,-13,-15
1490821346967,-9,-9,14,-7,-7,-11,1,15,47,16,83,23,-10,0,-7,-9
1490821347016,42,0,-32,-7,18,0,13,4,23,29,22,-56,-52,-21,-18,-21
1490821347065,12,-29,-23,-79,-29,4,12,6,21,-42,10,54,20,15,12,9
1490821347115,37,3,-27,-23,7,9,-4,-1,38,35,-2,-53,-10,0,-4,12
1490821347162,-37,-9,6,-7,-2,-25,-4,-13,-44,12,27,18,10,4,6,-6
1490821347171,76,-2,-4,-10,-4,3,8,-7,7,-11,2,15,3,5,-2,-2
1490821347211,12,11,41,4,2,2,-7,-18,-36,-16,-41,12,7,11,12,2
1490821347307,127,12,-6,9,4,4,-6,16,-41,9,22,-4,-11,-3,-9,-29
1490821347308,-66,35,-5,-26,-11,-18,-20,-15,-66,78,5,25,1,5,0,13
1490821347357,-22,-39,23,25,4,16,3,5,-4,-94,27,-1,1,-12,-11,-4
1490821347454,-1,-73,-20,-3,8,-12,6,17,6,-119,0,-16,-22,-27,-19,-9
1490821347455,-3,95,-7,-15,11,-39,0,17,-28,122,10,15,24,10,-11,-23
1490821347455,-31,78,10,10,14,21,17,-15,-48,52,-13,-35,9,25,22,33
1490821347503,-28,4,-15,-35,-30,7,27,-9,4,1,11,16,30,17,-29,-16
1490821347552,-19,34,14,21,-80,42,9,5,-32,41,-7,-64,-7,22,15,11
1490821347601,-29,-49,-3,-6,71,31,7,-22,-12,-47,7,19,-36,-3,18,10
1490821347649,51,122,1,10,11,-67,-44,32,15,-24,2,35,10,67,-13,15
1490821347651,1,-38,1,37,127,-9,-20,7,-69,-26,5,19,-52,-43,103,6
1490821347698,85,122,15,31,36,22,15,8,7,24,14,91,89,35,-36,7
1490821347747,-73,-92,3,-16,-34,66,7,-54,-8,7,7,20,59,58,48,57
1490821347795,-77,83,8,-25,-124,-62,-16,-23,-82,53,-4,-1,-38,-1,-40,-25
1490821347843,35,15,-10,-30,-8,63,72,11,10,25,-23,-66,-91,-57,-51,-22
1490821347845,-89,10,9,-5,-23,9,39,-10,-41,6,-8,-9,-35,-21,-16,13
1490821347893,-60,3,-9,0,86,-40,-36,-6,110,4,17,8,68,18,17,-11
1490821347942,-128,4,-3,42,-15,-80,25,10,119,1,-6,-49,22,-19,-33,4
1490821347991,-65,1,-4,-45,-80,-4,-46,-5,38,0,-9,-34,-50,-31,44,5
1490821348041,41,9,7,30,-11,-103,-37,27,-32,-50,-13,-14,-30,12,-6,-22
1490821348087,-24,-41,2,-4,17,23,18,-2,14,-56,3,-9,-22,-23,-10,-9
1490821348089,-50,-40,14,-9,-27,6,-37,3,-9,10,-4,-2,37,25,6,-25
1490821348138,-5,-30,7,0,4,-19,-41,-25,24,-11,-2,35,2,78,64,29
1490821348185,7,27,-20,-31,-11,64,56,20,-1,7,-4,-50,-20,-73,-20,-6
1490821348234,73,-38,-7,-12,-12,20,-5,7,-51,-65,-3,-4,51,-46,20,32
1490821348283,-8,-1,-5,18,-2,-3,-11,0,-36,6,8,0,-13,10,-55,-11
1490821348331,-8,-46,14,-9,16,-36,2,23,84,-90,-4,7,-7,48,59,31
1490821348428,-87,24,8,9,-4,5,-23,-5,32,32,-12,-2,13,8,33,4
1490821348429,14,39,3,-1,-14,19,-19,-6,-33,40,-9,-7,26,-21,31,-15
1490821348430,-5,20,-4,4,-23,3,4,7,45,46,-8,-53,-51,9,-5,7
1490821348478,-29,31,6,27,-9,-38,23,-31,-61,78,0,-3,-38,39,42,15
1490821348526,57,-11,11,21,124,76,54,21,32,-4,-23,-19,-73,-7,-26,-16
1490821348528,-30,-3,2,4,29,-39,-87,-11,-36,-26,5,14,-21,46,32,-3
1490821348575,-128,-19,3,-12,-79,8,36,-27,103,25,24,67,127,11,-100,29
1490821348625,-29,7,-12,-9,18,63,-17,7,27,-52,8,43,-82,-128,-2,-15
1490821348673,127,12,58,127,102,90,-86,23,66,-22,27,72,-73,-112,27,16
1490821348722,-67,-80,11,29,-36,32,-117,19,86,114,44,99,127,47,61,12
1490821348770,-97,-20,-28,-99,15,-80,-27,-22,29,-66,-15,-53,-11,-74,-120,-89
1490821348771,-89,55,-36,125,-19,-72,58,5,-1,35,0,-106,-108,35,-89,37
1490821348819,-29,31,27,38,-128,-34,-84,29,-37,-43,-31,-73,52,66,21,-3
1490821348868,7,101,16,39,127,34,-65,-39,81,101,32,122,49,115,14,91
1490821348917,-92,-128,4,19,-82,-128,-128,-57,36,115,40,64,20,115,2,44
1490821348966,125,5,-21,-124,-11,12,-22,9,-104,2,2,9,-41,12,49,-20
1490821349014,-128,-71,-47,-83,120,-110,-61,-128,68,16,25,48,109,127,-39,88
1490821349017,-4,-12,-12,21,-34,-22,-81,-25,-70,-34,-40,42,93,5,68,-85
1490821349064,27,52,-1,14,-28,67,95,71,-39,44,23,79,25,125,63,-36
1490821349112,62,-22,-10,-29,-54,35,53,60,-40,-47,-6,31,73,44,-5,-32
1490821349160,54,-5,16,-25,-22,-62,-108,-83,-19,-26,-13,6,-46,-118,33,2
1490821349209,19,-5,35,65,-89,96,100,25,-26,-2,-21,-58,-90,-96,-128,-23
1490821349210,-14,3,-5,-36,-19,-101,-108,-35,19,-5,-45,-98,50,36,25,-12
1490821349258,18,-2,-17,-13,-25,-24,9,4,-47,-2,6,33,-4,11,-18,10
1490821349307,31,0,-41,10,-46,59,70,30,-2,-1,66,100,-69,-72,-31,0
1490821349356,-45,-1,20,127,-2,127,77,17,-6,-21,-26,-89,45,-79,-44,-11
1490821349404,25,-38,7,89,102,-7,15,15,-6,-45,42,68,38,56,18,6
1490821349452,18,5,11,59,75,25,-6,-10,9,45,21,51,88,47,43,16
1490821349453,-17,-8,31,40,77,15,0,-4,55,14,-47,-77,-28,-39,-32,-4
1490821349502,-82,-25,-24,-108,-100,-47,-25,-9,-68,10,-11,27,-24,-8,-12,7
1490821349550,-128,-8,55,50,83,9,-3,-10,-87,44,-34,-59,-85,-21,-1,-7
1490821349599,79,-112,-54,-78,6,-58,-25,-18,49,64,-9,97,-18,34,-1,0
1490821349648,19,17,12,2,-16,21,11,17,24,-5,32,62,-17,-18,-23,-22
1490821349696,11,64,-17,-26,-57,-103,-38,-30,2,-6,-10,72,27,22,-11,-11
1490821349700,2,47,25,37,7,-71,-36,-5,0,-76,22,127,74,-11,28,15
1490821349747,2,0,-79,-104,-45,-30,-3,4,0,85,18,-41,-19,-7,-11,-2
1490821349795,1,-20,-45,-54,-48,-23,4,-12,-1,-105,-46,37,67,-5,23,19
1490821349843,0,-36,-15,8,-31,8,-1,-8,0,11,26,32,92,25,27,5
1490821349891,20,13,5,-39,-6,0,-4,-4,-16,-17,-14,-34,-27,-15,-3,-14
1490821349893,-21,79,14,36,14,24,6,-5,59,36,29,18,0,17,4,9
1490821349941,31,-24,25,17,-10,-2,-2,-4,-27,-4,24,27,-6,-2,-7,-9
1490821349990,-11,27,20,-21,-19,-8,0,1,-9,-56,-16,29,14,10,9,4
1490821350040,99,-47,-29,66,38,-17,2,6,33,-22,-38,-58,-24,-24,-8,-1
1490821350087,88,-46,6,-11,-5,15,1,2,61,5,22,-10,-22,-21,-6,-18
1490821350135,100,-54,-14,13,-3,2,2,-3,-9,-35,-3,-13,5,9,0,14
1490821350136,-128,-114,-53,-19,13,3,0,-5,-51,56,23,18,-43,-21,-3,3
1490821350184,-60,1,-1,1,-7,3,10,17,-52,16,-23,-14,-16,-7,3,0
1490821350233,-30,-5,32,0,-43,-4,2,6,-15,-2,-1,4,4,-9,5,-15
1490821350282,-11,118,33,-22,-16,-25,-61,-48,-1,19,4,2,-3,23,30,32
1490821350330,-10,115,-20,-14,-33,8,-35,-4,1,-10,-1,4,-8,-61,-22,-16
1490821350331,-4,10,7,32,6,4,30,24,1,2,21,6,46,41,36,-1
1490821350380,-34,-2,-19,7,-7,24,18,-2,-3,67,-4,-23,-58,0,53,36
1490821350429,17,16,-12,23,56,22,17,-27,15,-12,43,103,127,42,-9,-17
1490821350477,77,-51,8,6,16,-24,-40,13,38,60,-40,-58,-115,15,-15,-10
1490821350527,68,-2,-52,-93,-83,31,63,17,4,-68,-27,-44,41,0,17,-26
1490821350574,-33,74,3,-29,-3,-13,24,-2,23,39,26,46,99,-1,-45,-18
1490821350576,68,-17,20,19,19,5,-3,1,10,19,0,53,-75,17,-14,23
1490821350623,50,10,3,-33,-32,7,4,5,27,83,25,72,115,90,14,39
1490821350672,-42,-24,-1,38,127,58,38,0,-1,-21,25,60,35,58,-28,14
1490821350720,16,-53,-1,-3,57,-70,24,24,-48,-44,-37,-28,-65,8,27,-10
1490821350769,-69,-77,3,7,35,-10,-25,-26,83,-73,5,23,-15,-26,6,11
1490821350817,-15,125,-8,-11,-15,10,10,-17,-10,102,7,9,7,9,-17,-7
1490821350819,10,39,9,24,49,12,-19,-3,6,24,2,-1,-9,-45,-8,13
1490821350867,-10,14,-13,-14,1,27,19,1,19,0,24,36,23,-1,7,-3
1490821350916,7,3,22,67,66,127,47,18,-17,0,13,26,-10,-105,-17,-11
1490821350965,-9,2,3,21,44,6,54,4,-2,1,-6,-9,-52,36,-10,11
1490821351012,-8,0,-7,-40,-53,-32,32,10,-11,0,0,-8,21,20,-17,-11
1490821351013,-11,0,5,-1,-7,51,48,8,12,0,6,35,47,6,25,3
1490821351062,11,29,8,12,3,-16,4,4,-29,2,-22,-34,-18,-31,-19,-15
