1490821949314,-23,111,-39,10,-104,-30,-46,23,-20,18,16,-64,60,-65,-11,-80
1490821949362,68,-9,13,-75,-88,48,88,-8,31,-47,0,104,47,-36,-101,14
1490821949364,-77,-56,-22,-123,5,26,-84,-11,65,-8,4,84,7,-32,-34,-19
1490821949412,-8,34,-32,45,-60,-74,-16,-8,23,60,-6,-103,50,79,58,4
1490821949460,69,57,26,109,50,9,-5,9,-119,52,-12,-49,-26,-97,27,-35
1490821949510,-118,-65,-3,9,63,63,37,27,45,-53,43,63,78,-51,-53,-16
1490821949558,59,-10,30,9,54,-128,-128,-83,18,-43,-67,48,22,99,118,84
1490821949606,103,-39,-63,-128,-123,-128,64,-4,-22,-2,39,28,61,74,-78,-7
1490821949607,-9,15,53,23,-5,1,49,28,-49,-11,55,-121,6,-88,-17,-51
1490821949656,-77,-42,-76,-95,52,7,-116,-63,41,32,-16,22,22,78,-62,57
1490821949704,19,7,-6,-59,-128,-115,17,-90,6,-5,-39,-67,39,-48,-82,-26
1490821949753,-93,-10,-52,-99,54,-112,-11,-73,-29,-4,-18,-107,-103,127,40,22
1490821949801,-24,-52,-10,7,-9,8,-44,-31,-9,-41,-59,-34,1,80,-57,17
1490821949802,-65,-42,-58,-5,10,-39,-10,17,-9,-11,75,-107,-89,-39,26,19
1490821949850,-23,-15,-75,52,-73,49,69,19,-41,-4,-45,58,127,-11,44,-18
1490821949900,51,47,-33,-125,-76,-65,-14,-13,45,28,2,52,75,10,-10,0
1490821949948,27,5,16,-77,-35,-2,47,12,5,-57,-62,99,-63,-10,-37,-22
1490821949997,-30,-51,14,121,88,46,-1,9,18,0,15,-107,-58,74,32,16
1490821950045,-18,5,17,1,14,-23,5,0,-55,-10,-41,86,62,-17,-11,-5
1490821950046,-58,17,6,19,-81,72,54,19,-90,-13,0,-1,47,-58,-19,-17
1490821950094,64,-21,-46,-22,-47,-13,-2,-12,70,38,41,49,-4,11,-20,-4
1490821950143,-128,20,13,-89,-88,-1,-15,-40,-78,13,-81,-107,33,-22,10,33
1490821950192,-48,-1,-34,-88,-11,-71,-27,10,-26,3,-16,-1,60,-30,-8,-8
1490821950240,65,25,32,-58,-25,14,-4,14,-25,14,-33,41,-75,-3,-1,-1
1490821950241,-54,-12,-17,40,57,-61,3,-6,-104,-6,-19,23,23,26,35,29
1490821950289,-18,-4,39,28,-104,32,6,-7,56,19,-47,-76,-108,-23,-12,11
1490821950338,-24,32,-1,-16,-10,-7,6,10,-13,17,-1,-37,-47,-31,-19,-26
1490821950387,37,0,52,13,8,9,39,28,-43,31,35,61,38,39,-9,-12
1490821950435,-97,-17,-25,-11,39,-17,-21,-4,-45,5,-37,-26,21,-31,-5,12
1490821950483,-44,-14,-3,15,12,-17,-57,-69,38,-34,1,-4,2,-2,-9,22
1490821950485,-25,-32,-8,-18,-24,26,13,15,99,-1,-23,-23,-8,-2,16,-11
1490821950533,83,14,-4,-36,-26,8,6,30,127,-36,-8,3,-9,-15,9,-26
1490821950582,-128,57,-28,2,29,-75,-17,-13,-128,119,48,16,7,61,1,7
1490821950631,16,3,12,-5,7,65,76,21,82,12,-26,-104,-63,-20,-55,13
1490821950679,-52,0,12,-6,11,19,11,0,-64,8,-5,-1,-13,51,39,40
1490821950727,-82,-21,-5,-1,66,0,22,0,22,-4,8,-2,37,-10,-58,-2
1490821950728,-85,-52,18,1,4,6,4,24,40,-27,6,111,10,-45,20,-14
1490821950777,50,-11,24,5,64,24,-16,20,-116,-33,15,63,4,37,16,-27
1490821950825,-24,15,-5,-2,-38,-86,-39,17,-33,42,14,7,12,8,-20,1
1490821950874,121,29,27,97,95,77,25,40,-105,-3,-5,7,-61,-59,-42,3
1490821950922,-31,-52,-19,-38,12,22,3,-47,-81,13,1,5,9,-3,17,41
1490821950923,-35,22,-5,-2,-5,27,35,-3,-34,11,-4,-1,7,38,30,-25
1490821950972,-22,9,-42,-26,-5,-37,-24,-23,-58,56,-4,-28,3,-14,-6,-11
1490821951022,-46,-2,-4,7,-26,41,13,-22,-16,-60,10,-11,-26,-40,-7,0
1490821951069,93,21,-3,0,-8,25,-10,10,23,70,11,44,31,30,18,10
1490821951118,-109,6,-14,-5,1,-9,-12,-15,97,-35,7,10,26,23,18,15
1490821951166,-44,-24,6,-3,-5,-26,-31,-1,121,0,2,-6,15,37,57,21
1490821951167,21,5,-5,-55,-7,-23,-18,-17,44,8,-14,-5,-12,6,27,45
1490821951215,-15,0,7,-2,-8,9,38,4,-15,0,6,2,8,14,6,-1
1490821951264,104,-1,-7,-14,-6,50,43,19,-22,4,-22,-12,-18,1,29,21
1490821951313,10,-84,-9,2,-3,-6,-8,-6,-23,-80,2,2,-19,-18,-35,-23
1490821951361,87,3,1,8,29,22,23,24,38,5,3,-7,2,39,34,5
1490821951409,-51,-21,10,-4,17,8,1,-10,30,-9,25,25,6,18,4,21
1490821951411,6,58,-27,-24,-5,-16,-37,10,39,38,4,10,23,6,15,-7
1490821951459,30,53,11,6,18,18,15,34,96,35,4,11,26,-33,-53,-22
1490821951508,-117,-13,-22,23,-8,-7,-8,7,39,36,19,-47,-15,-30,55,45
1490821951556,-10,-34,-21,-1,-16,-77,-40,-41,99,1,17,46,25,105,34,12
1490821951605,127,56,17,61,68,112,75,72,-128,0,8,60,-43,66,-15,3
1490821951606,14,-25,-79,-115,-56,17,-40,-30,36,23,-19,-117,19,-50,-37,-9
1490821951654,20,-31,26,127,-59,16,-66,-15,-128,-41,-56,-107,-64,-54,-47,-17
1490821951703,-33,-42,-3,37,32,14,20,-19,-39,0,-40,-74,-94,78,80,2
1490821951752,-73,29,-59,-102,-57,42,76,-5,-74,-65,-99,-128,-111,-12,-48,-15
1490821951801,-15,-116,-11,39,-36,13,40,25,-42,18,0,0,16,18,-4,-20
1490821951848,-52,-111,-44,-85,24,41,-45,-60,49,-110,30,127,-24,-111,-94,29
1490821951850,34,89,-11,41,-32,45,-41,-42,-107,50,59,-73,20,-13,94,20
1490821951898,41,4,-30,-49,-47,-128,-64,31,-23,9,-57,-109,-30,77,45,-32
1490821951947,-58,7,-65,-72,-23,19,69,-4,-31,3,36,72,110,-35,-21,-1
1490821951995,-128,3,43,-81,-66,22,-79,-77,31,-5,75,127,39,126,93,33
1490821952044,10,1,-19,-2,40,33,0,31,-101,0,-31,18,96,73,57,-70
1490821952092,-49,55,-45,-33,-75,63,-23,-13,40,70,33,21,-2,36,53,38
1490821952093,-62,32,-27,2,-70,-127,-109,-1,115,13,-5,-19,-34,-25,-72,7
1490821952142,34,-8,63,70,117,-37,-67,-9,-121,-39,-120,-128,-128,-75,79,1
1490821952191,26,-10,-12,-2,-14,-62,-39,42,-45,-37,-63,-121,-84,-10,-10,-21
1490821952239,-17,-27,-60,-128,125,71,33,-4,-22,-3,-43,-31,-12,-84,42,28
1490821952287,-22,-29,-63,-62,115,17,59,5,-15,11,16,127,127,76,94,-2
1490821952288,-2,-48,-56,-70,-60,-49,13,-48,12,53,69,-11,-94,-97,-5,-7
1490821952336,-37,-8,-30,22,-36,-30,-20,-3,5,-21,56,8,-17,108,19,11
1490821952385,6,-24,-21,2,11,-114,-78,-17,-2,-23,-22,51,64,82,48,1
1490821952435,17,7,10,7,-10,94,56,-5,-30,6,12,-9,-52,-59,-107,37
1490821952483,10,-8,-32,25,-31,-61,-13,1,33,26,33,78,76,-14,0,1
1490821952531,64,43,116,40,15,12,-13,19,-16,-19,-24,44,76,37,39,3
1490821952532,29,22,100,66,98,35,6,11,-66,-11,-89,-107,-43,0,-2,-19
1490821952580,-56,-10,-33,-52,-6,47,38,37,0,-3,93,-1,-71,-55,-22,9
1490821952629,-23,-15,-34,-32,-59,-2,-15,-4,-4,6,18,-57,-65,-50,-18,-5
1490821952678,63,91,17,115,53,-1,-7,-1,93,-28,38,57,34,-6,1,-5
1490821952726,106,4,-9,10,55,15,7,1,127,-2,-19,-40,40,25,9,-11
1490821952774,-128,28,52,-11,56,-27,-4,4,-124,-36,-70,-22,44,-8,8,-6
1490821952776,-94,1,62,-64,-73,-10,6,4,-116,12,56,44,-44,-9,-3,-19
1490821952824,-16,12,19,8,21,22,15,10,-32,-12,-3,12,57,21,5,-7
1490821952873,7,-31,-7,25,-2,-2,-2,-12,-15,16,31,46,21,-3,1,4
1490821952922,20,-29,-8,8,0,22,5,-7,20,-1,-14,-4,-34,-2,6,4
1490821952969,-93,9,8,0,4,46,4,-2,-13,33,-30,-5,21,-3,5,3
1490821952971,-50,-14,-17,3,-22,-26,-5,-9,84,-6,-11,-20,-18,5,5,-1
1490821953019,51,-34,29,25,21,30,-13,14,61,-20,-4,-30,-42,-6,-40,-41
1490821953068,127,-1,28,-6,-23,-19,-2,17,121,12,-4,4,-5,-5,-9,7
1490821953117,-124,20,-31,-6,-12,-18,3,-3,-23,8,37,-2,0,44,18,25
1490821953165,25,55,17,-4,-28,-8,12,8,17,44,-21,-3,7,30,35,-12
1490821953213,59,-12,-12,-49,-78,-52,-11,4,-62,13,-52,-21,43,9,20,-16
1490821953214,-83,-42,-29,55,-7,-40,-34,-35,-68,48,16,-16,36,83,89,43
1490821953263,-13,-16,-9,-1,17,-9,-3,-3,38,2,0,-2,-4,53,-25,4
1490821953313,-81,-40,16,48,35,41,13,-23,65,16,16,-19,19,-37,-21,26
1490821953360,76,-11,0,6,-37,-56,-17,12,-128,-22,7,32,6,7,39,-20
1490821953408,-13,0,6,-21,-63,-43,-27,-7,48,-22,-1,59,43,54,-18,42
1490821953410,-78,8,-17,-115,-63,-54,20,18,-30,-9,-6,-40,-30,-13,-29,-18
1490821953458,27,35,-39,25,100,99,12,1,-38,44,75,98,41,12,-21,-11
1490821953507,80,-46,-14,-2,45,93,4,38,-67,0,21,35,91,-44,15,6
1490821953555,-42,5,-2,-9,15,19,-50,-11,70,42,31,36,-12,-93,-29,-16
1490821953604,-121,-120,-6,-39,-98,-128,-48,-46,26,-15,2,13,45,5,-46,-10
1490821953652,17,33,12,40,27,-36,-35,-12,-65,29,-3,-48,-70,33,-24,-2
1490821953654,85,16,-4,-77,-39,-14,1,15,-66,17,-8,-24,-11,6,35,-12
1490821953702,66,-54,-13,-8,-14,-25,-7,-7,54,-102,20,11,38,38,46,21
1490821953750,73,121,7,28,-23,3,-2,13,-100,55,-25,-21,-1,-3,23,-11
1490821953799,48,16,-9,14,21,-1,0,9,30,56,6,8,13,-18,-23,8
1490821953848,-95,122,8,18,5,13,14,10,104,127,15,33,-10,-17,-29,1
1490821953896,35,-86,3,0,7,11,29,31,-103,-56,-13,-13,5,-21,-54,-22
1490821953897,-53,105,-3,2,-11,-5,-13,-29,98,66,-2,-6,-2,16,17,49
1490821953945,-32,-23,0,-13,3,7,2,-10,-29,69,2,-8,27,29,35,10
1490821953994,101,7,2,3,-8,11,26,29,97,-7,1,-4,25,10,7,5
1490821954043,76,7,11,34,22,-5,40,40,-40,0,32,38,-7,22,-2,-12
1490821954091,-114,20,5,-64,-16,5,31,20,87,41,11,8,-11,-37,-42,-10
1490821954092,90,15,-9,0,-8,-5,-28,15,-55,10,15,54,-3,-37,-13,-9
1490821954140,-74,-46,-17,-54,17,-56,-11,-23,46,34,-26,-51,12,-3,28,-2
1490821954189,-105,5,27,22,-9,25,-9,1,127,23,-19,66,-83,-89,-42,6
1490821954238,127,0,39,111,114,67,21,47,-100,-1,11,83,-100,38,57,22
1490821954286,36,-30,49,90,72,109,123,57,-37,-64,49,-57,-45,-48,-17,5
1490821954334,100,43,29,-67,-74,-38,-25,10,65,16,18,87,34,16,55,4
1490821954336,-1,35,-15,-85,73,-124,29,5,59,-86,-35,17,-17,-1,2,9
1490821954384,33,12,-9,-60,-128,72,32,46,-29,-55,-31,35,50,-50,51,-19
1490821954433,-93,5,-15,-69,33,-83,-50,-36,-87,118,89,49,117,127,95,41
1490821954482,15,-81,83,127,86,91,66,77,-98,-27,41,-73,-56,55,97,-68
1490821954530,46,-27,-90,-113,117,91,38,-50,127,108,92,127,100,-8,-98,44
1490821954578,107,127,39,-51,4,-109,-31,38,-59,77,-88,-29,30,-99,-45,-31
1490821954579,-84,-67,-87,-82,-19,-116,-128,-32,-98,40,47,64,29,92,93,-9
1490821954628,-114,11,1,55,-48,89,-64,-13,27,-50,25,69,59,-89,56,-16
1490821954676,29,6,32,127,55,-29,69,54,-18,-18,-79,-65,-52,66,61,-75
1490821954725,72,25,-25,-26,-128,-35,-61,-6,-128,-31,59,-14,81,-28,-12,-47
1490821954773,25,10,5,-12,81,89,127,25,-52,-64,-60,-33,-128,-112,-93,-71
1490821954774,49,37,17,127,84,112,112,21,26,18,52,-55,-104,-29,-80,16
1490821954823,26,-28,-55,-91,-16,42,-6,16,23,11,-39,104,-24,127,35,-4
1490821954872,13,102,-62,-23,58,-29,25,-31,24,114,27,127,43,-30,-47,22
1490821954920,-46,-26,-18,-122,-64,18,32,30,-40,-48,-4,-67,-102,-55,-101,-52
1490821954969,-1,-30,-74,-22,-77,-56,-60,22,-29,-36,13,-24,38,-77,-98,-45
1490821955017,16,19,93,127,-52,-58,8,4,20,5,75,44,-40,-25,-32,24
1490821955018,-14,8,-13,-61,-21,106,55,0,-13,-22,-81,-92,23,-24,-35,-43
1490821955067,0,-24,-12,127,127,-43,1,-21,6,1,-15,-86,-107,93,112,21
1490821955115,-11,9,39,70,67,-54,-30,-20,18,20,16,-56,-102,1,62,11
1490821955164,-44,48,87,95,110,86,38,2,-16,-5,-44,-46,1,124,36,18
1490821955213,-7,30,104,127,95,86,35,-1,-19,-6,-81,38,20,63,51,20
1490821955261,80,18,-12,3,-7,44,0,10,33,20,48,8,17,28,29,11
1490821955263,56,-43,-94,-41,-7,-7,-33,-1,65,30,9,-97,-117,-17,-22,-20
1490821955311,19,12,39,-19,117,-15,-42,-15,-3,2,-59,-1,39,-39,-6,11
1490821955359,-106,26,4,-49,-18,16,32,3,-7,-49,-74,-104,-95,-34,-11,-13
1490821955408,-23,-59,-25,-3,-82,-2,-22,-1,37,47,121,67,37,53,12,2
1490821955456,71,10,11,-15,0,23,23,57,120,10,16,24,6,-14,-18,-23
1490821955457,45,30,-20,13,50,93,5,-4,127,-13,-66,-123,-57,23,-32,-3
1490821955505,-74,32,-47,-74,-24,-60,-17,-22,-8,29,11,58,47,-48,13,-15
1490821955554,-47,-31,-46,-44,-53,-1,-19,-1,-75,-19,39,16,14,25,10,-5
1490821955603,-1,10,34,8,-12,-11,2,-9,-10,31,13,-14,7,-24,3,1
1490821955652,-33,-33,-4,-13,11,-17,1,-5,41,-38,8,16,-1,-9,-8,-5
1490821955699,-1,6,2,5,-1,-1,1,2,40,-9,-28,-4,-24,15,5,17
1490821955701,-20,-31,9,17,20,45,7,3,-56,16,16,-10,36,78,0,0
1490821955749,8,-42,-26,-3,-5,-33,1,-11,16,57,-2,7,23,-22,4,11
1490821955798,8,1,21,12,-8,15,-19,-3,-24,-8,-39,-13,-39,-6,-16,-5
1490821955847,108,-56,-19,24,-2,29,30,8,-41,-27,-7,-4,8,10,-16,-18
1490821955894,-47,-100,2,-8,-3,-2,23,15,-31,-59,-11,-15,-7,-36,-19,-27
1490821955896,-25,58,4,16,-43,-16,14,4,11,81,51,-3,-29,19,27,36
1490821955944,13,-8,15,85,127,71,53,-6,-2,-4,-28,-76,-55,-34,-35,9
1490821955993,-4,44,3,-27,-103,-20,44,15,-37,19,31,111,98,-13,-37,-11
1490821956041,2,67,-2,-9,28,105,-35,-5,55,-13,17,87,61,-21,33,-9
1490821956090,-11,9,-20,-26,-19,-13,-23,-37,62,7,-14,9,39,-26,34,-11
1490821956138,123,13,12,-39,-74,-7,-18,-16,11,25,-42,-66,-13,-33,29,31
1490821956139,-90,-86,12,66,28,-10,44,-5,37,-6,-13,-52,-98,-21,-38,31
1490821956188,127,43,-13,-51,-14,-42,19,32,-91,14,11,53,42,-3,-7,-26
1490821956236,-90,-60,-51,14,-17,-36,-40,-53,-41,28,3,-52,-19,54,42,40
1490821956285,-5,16,47,114,116,19,58,16,24,-21,0,28,103,66,-4,4
1490821956334,-44,43,-4,-40,-82,-19,79,12,94,20,-11,-54,6,-15,65,4
1490821956382,27,23,-12,-98,-76,-61,-43,-23,50,13,-12,81,127,10,-40,-5
1490821956384,-13,32,26,-4,-28,66,83,27,-48,-15,-10,-39,-53,-23,-9,9
1490821956432,32,-47,-14,-19,-12,-33,-24,-56,-47,-41,8,38,-9,-15,-59,-14
1490821956480,-40,-26,25,-5,-24,-17,-1,-5,-7,-112,16,9,-13,-3,-26,-27
1490821956529,-73,30,-8,-2,8,51,49,0,92,-40,-1,28,-27,-14,-29,15
1490821956577,10,41,26,33,56,34,86,48,0,-11,-18,-16,-16,-20,-11,-14
1490821956578,-21,-49,-29,6,-18,-10,7,2,-3,6,8,-1,-18,6,-4,1
1490821956626,-36,-21,1,-10,-18,6,0,35,-39,-24,-19,-15,-15,-26,-34,-30
1490821956675,112,7,1,7,-2,-13,-18,12,-88,-8,-1,-5,-16,8,19,-11
1490821956724,1,-1,-5,-19,-5,16,-19,-19,43,-5,3,1,17,26,8,7
1490821956773,67,-98,-8,-4,6,-7,-35,-4,30,-79,-9,9,0,-19,-24,6
1490821956821,-70,47,13,12,-14,9,50,-10,76,51,12,23,-15,-19,-31,36
1490821956822,11,10,-56,-93,-37,-25,-14,0,-88,5,4,-37,-17,12,-32,-24
1490821956870,-104,2,-1,60,40,115,73,28,-61,30,-14,-50,-58,-68,-72,-51
1490821956919,54,-7,46,56,5,9,7,22,120,-3,22,107,127,-12,15,2
1490821956968,6,39,-6,-104,-82,-58,-49,-29,3,23,15,55,73,47,27,9
1490821957016,6,19,19,82,56,-28,32,80,-84,-14,-32,-128,-128,4,18,-23
1490821957064,-62,44,0,56,-61,-47,26,-18,-111,33,4,-57,-114,-114,-91,-48
1490821957066,127,-98,-19,-84,12,103,-36,-14,-76,119,35,126,-68,-8,-46,-22
1490821957114,-84,-22,59,31,75,9,49,8,-16,-36,3,108,-30,87,-61,-26
1490821957163,-102,116,-4,-46,-61,-40,-45,-40,-20,51,-40,81,65,-92,12,-10
1490821957211,104,25,34,49,78,70,10,17,-114,0,55,82,-113,8,-82,-20
1490821957259,96,11,10,-21,-58,-121,-95,-55,68,-5,-80,6,11,-21,127,56
1490821957261,-82,2,-13,30,91,127,60,51,-45,-3,25,63,-110,-93,-119,-53
1490821957309,-23,1,4,-128,-128,-101,64,3,66,-1,-42,46,82,63,-62,2
1490821957358,81,99,43,105,39,25,53,79,-128,25,-76,-128,55,-91,22,-57
1490821957406,-23,36,-30,-17,58,-64,-21,5,-79,8,4,-8,-50,-32,2,-7
1490821957455,58,-6,-15,-60,-51,26,-25,18,-91,-64,16,-53,20,-113,-45,-10
1490821957504,-23,36,30,-92,-128,-128,-74,-87,19,47,12,76,127,127,0,-23
1490821957505,6,0,39,63,-72,-63,-128,-30,14,69,39,56,-41,65,-17,61
1490821957553,-44,-48,-23,-19,-29,-79,-55,-29,-10,-39,31,75,58,66,-34,-9
1490821957601,-26,-11,-62,-117,-70,73,126,-70,68,-40,1,11,-65,-85,-123,-41
1490821957650,5,16,8,-73,14,-10,84,7,-44,-19,3,-59,-128,16,-77,7
1490821957699,21,-19,-64,-6,-53,62,12,11,15,28,-6,14,4,44,-22,40
1490821957747,5,6,51,24,127,-2,53,0,-27,-57,-78,24,7,89,28,-9
1490821957748,5,-14,93,-24,-34,-41,-33,-13,-29,-39,-102,-128,2,17,76,-36
1490821957796,-12,-15,-42,-25,-46,-50,2,-16,5,0,61,-69,7,60,61,2
1490821957845,20,3,26,127,33,-78,-57,14,-5,-35,-4,-39,-111,91,61,-5
1490821957894,19,6,-25,-13,101,-13,-61,0,-21,24,33,68,27,-41,47,17
1490821957942,-21,-3,-94,-113,-12,9,-79,-14,-6,-9,31,96,122,-99,-43,-2
1490821957943,31,-2,22,110,-27,113,53,-10,56,14,71,-66,-126,-35,-34,8
1490821957992,-7,1,-16,61,-39,19,38,18,6,25,79,18,-34,2,2,1
1490821958040,-10,-18,-51,-75,-28,-80,-46,-33,-12,-7,-29,59,-96,36,41,0
1490821958089,3,17,47,103,127,73,39,25,-24,-21,-30,-86,-45,-9,10,2
1490821958138,-27,-14,-4,-10,-7,-29,-37,-34,18,-19,-55,19,-41,23,16,18
1490821958186,-25,9,6,36,92,95,47,19,4,-38,42,109,-25,8,10,-16
1490821958187,-71,-37,-5,127,19,-31,-24,-22,52,-46,-30,56,10,25,18,12
1490821958235,36,-32,40,-11,21,-61,-22,3,23,-25,-34,-8,2,32,30,17
1490821958284,10,-13,19,-26,3,13,4,-9,-45,0,-54,-31,-4,10,-15,-10
1490821958333,27,0,6,108,96,-13,-12,-18,49,34,23,76,33,27,16,0
1490821958381,-8,19,26,79,78,44,33,17,42,8,14,-84,-31,-23,-11,-16
1490821958429,1,-46,-14,18,19,-1,-1,2,6,-21,9,8,37,6,0,-4
1490821958431,15,-4,18,-27,-88,14,1,7,42,-14,3,-39,2,-33,-24,-6
1490821958479,15,36,36,4,6,6,-3,-14,-15,35,-20,-42,-34,-1,1,5
1490821958528,25,-72,29,40,22,35,16,-2,-17,1,-11,9,-18,67,8,10
1490821958576,-50,31,-6,-5,12,-60,5,7,14,-29,-30,-27,-33,-93,-12,7
1490821958624,-39,-60,-38,6,-3,4,7,2,-97,63,36,25,-22,-9,9,10
1490821958673,83,12,-8,-26,21,-3,-22,-16,-40,-16,-18,2,-7,13,18,11
1490821958722,-104,-7,-10,-13,-19,10,21,-1,-59,38,5,3,21,-7,-31,3
1490821958723,-60,-55,-3,16,5,29,0,-10,-9,-10,28,13,7,20,72,33
1490821958771,-14,72,-14,-5,1,-57,-71,-45,-1,63,5,-64,-28,6,-10,48
1490821958820,-48,12,-24,51,-11,6,-19,-1,-49,12,-7,-73,-66,-20,-34,-6
1490821958868,53,12,3,-34,88,58,42,23,-41,10,-28,-33,-16,-89,-62,-16
1490821958869,-34,18,1,56,-7,8,-2,-22,14,69,35,49,11,16,49,46
1490821958918,34,-16,-46,-128,-128,-74,-57,31,18,65,-18,21,18,17,2,-31
1490821958966,-61,28,-9,11,105,-31,-60,9,96,-33,-31,-22,55,32,7,-1
1490821959015,-33,33,-23,4,8,-16,102,21,44,-7,0,-89,-75,-25,-69,-3
1490821959063,48,-38,4,32,21,65,4,-10,69,-17,18,21,-9,-54,25,0
1490821959064,120,66,-1,-26,37,91,11,48,-17,-85,-42,-26,-119,-100,-39,-48
1490821959113,-51,28,-5,-18,63,-4,25,-6,-98,27,4,0,-16,38,-28,-33
1490821959161,32,45,17,45,44,62,41,19,0,22,7,32,-64,25,39,54
1490821959210,-89,33,-7,-30,26,-60,-26,-47,-55,83,47,92,-21,79,47,6
1490821959259,-100,-51,-8,-85,-12,-37,-28,-3,-74,-102,-24,1,-43,36,-33,-35
1490821959307,0,-10,25,73,-46,-26,-5,8,93,-23,-27,-117,-55,-13,-10,-8
1490821959308,5,-31,-39,-43,-23,-47,-81,-47,31,-11,-4,-17,21,7,114,8
1490821959356,17,-11,14,15,88,-12,-37,-19,-54,25,21,47,-11,13,37,-11
1490821959405,-126,-65,-17,21,14,27,34,3,77,-13,-1,-35,-44,-51,-68,-24
1490821959454,-67,12,-9,-19,-47,10,23,-4,-56,-28,10,-14,-7,2,-4,31
1490821959503,-44,33,1,5,7,-7,-31,-31,-57,46,3,28,12,16,35,8
1490821959551,-75,-27,-16,-14,7,9,2,-7,14,1,14,48,49,41,64,14
1490821959552,68,15,12,-4,-12,-30,2,20,-13,-14,-19,-9,7,5,-18,2
1490821959600,31,3,19,6,-17,-20,-10,11,-22,-28,-10,-22,10,16,7,-14
1490821959649,-11,24,-9,6,-9,-11,-15,-25,-12,30,-11,-25,-14,-11,-15,-14
1490821959698,21,-5,-12,11,-4,-7,22,-11,-12,-10,5,10,30,33,-18,0
1490821959746,48,16,22,39,-3,14,34,15,-88,-23,-17,-64,-41,-5,-34,-38
1490821959747,-7,-6,0,-7,-55,-15,-61,-46,-68,-15,-33,-13,-54,-28,59,13
1490821959795,31,43,22,-14,51,40,44,-29,127,2,-6,103,-21,-78,-37,43
1490821959844,-39,-1,7,-36,-68,69,9,26,64,2,17,105,102,-16,78,23
1490821959893,35,9,47,77,34,30,31,2,127,18,32,78,-28,-10,-5,46
1490821959941,-51,-26,-113,-128,-32,91,59,2,-40,-14,-26,-128,91,-16,-69,-6
1490821959989,-125,-4,14,127,-90,44,-5,-17,53,3,-21,-113,77,-20,52,7
1490821959991,-66,60,32,-67,-78,26,21,-18,81,-5,-65,36,-69,-54,-128,-41
1490821960039,66,45,36,23,86,123,110,45,-122,-6,61,98,119,-65,-128,-45
1490821960088,24,-4,42,114,47,-111,-57,-24,-87,-20,-22,-70,-52,57,11,53
1490821960136,127,20,52,-20,89,-56,-52,67,-26,-66,-62,97,-71,-38,78,-48
1490821960185,-32,25,72,54,-115,64,-70,-23,-14,17,-10,-128,-117,-25,-3,18
1490821960233,-86,65,8,-22,-29,0,52,8,19,49,19,30,41,-33,-42,26
1490821960234,127,28,55,52,1,66,22,50,-121,-42,-25,49,15,-38,99,-10
1490821960283,-77,-21,-18,-25,106,101,69,-60,-38,13,45,127,74,19,-43,36
1490821960332,64,28,-69,45,-51,88,20,27,22,-3,-6,-128,-46,-30,16,-18
1490821960380,-22,-20,-15,-25,-22,-69,26,-9,11,6,22,-57,-45,15,3,-1
1490821960428,-29,3,73,-4,9,-127,-33,-38,-18,-5,-30,-67,-74,4,-51,-39
1490821960429,36,-11,-13,20,-75,-56,-26,46,-12,-6,-32,-39,11,36,3,-33
1490821960478,2,13,23,85,96,127,108,5,-17,-32,-31,2,36,-128,-94,1
1490821960526,20,62,-43,-123,-114,-128,-46,34,1,58,-35,93,53,63,11,46
1490821960575,-17,-17,-27,2,66,112,16,-37,26,-9,-65,-88,-81,-9,-96,-2
1490821960624,0,9,-28,2,-12,-8,96,22,-62,-13,-42,-65,-36,-34,-47,-76
1490821960672,24,27,86,54,3,-10,-50,16,-15,-12,42,127,69,116,88,1
1490821960673,9,9,-12,36,29,75,50,5,15,24,33,57,65,38,-6,-2
1490821960721,6,-47,-62,71,-23,104,72,-5,22,7,39,12,-57,-55,-6,5
1490821960770,-9,-14,27,43,127,120,69,10,5,5,-1,82,-92,76,-28,1
1490821960819,-28,-2,43,-81,-11,-102,-81,-30,17,5,-38,35,127,94,29,21
1490821960868,2,-1,-43,-62,-128,-74,6,-18,14,13,13,70,65,2,-37,5
1490821960916,14,17,30,85,126,39,19,-3,-20,-10,-39,-105,-74,-19,-16,-15
1490821960964,5,-1,16,-53,-87,-17,14,5,6,16,97,109,-100,37,11,8
1490821960966,7,-1,-50,-46,-113,73,17,-6,-10,-43,-31,81,122,-99,-7,-21
1490821961014,-101,-66,-53,24,-62,-50,16,-28,-47,20,55,75,100,8,-82,-9
1490821961063,69,29,68,74,5,-8,-19,-4,-3,-73,-128,-123,11,-44,-29,-14
1490821961112,-45,-20,-51,-102,-1,-76,-59,-16,-21,-56,-128,3,43,-25,-13,-10
1490821961113,49,-15,19,93,127,26,5,8,56,4,74,118,-25,49,17,11
1490821961160,-61,23,36,102,19,0,3,6,-80,36,-4,61,27,30,15,10
1490821961209,65,49,81,-78,-36,26,37,19,29,-21,-58,-115,-95,-87,-53,-9
1490821961258,2,-11,-53,-100,-111,-12,-17,-15,47,-22,-32,-49,-102,-7,-9,-9
1490821961306,15,24,18,2,78,-84,2,20,-58,35,6,-14,42,-87,16,-7
1490821961354,12,5,89,43,127,-15,9,5,93,-19,31,1,111,-21,10,20
1490821961356,-23,-29,18,22,-36,6,2,17,-6,-18,82,79,-18,14,6,-3
1490821961404,38,71,53,29,1,19,-4,14,-67,7,1,-4,-8,20,1,3
1490821961453,32,-70,-34,-5,-1,9,0,7,-40,-35,41,-10,-42,-20,-9,-15
1490821961501,-69,-83,-12,-6,15,22,8,-5,-126,-55,-60,5,20,24,3,-14
1490821961550,127,-13,10,6,-7,-3,-1,2,108,-54,-31,-3,-10,-6,-8,-8
1490821961551,-19,-19,21,6,-2,-16,0,-10,-45,-8,-10,5,-4,-16,4,2
1490821961599,-94,-47,-68,-28,-5,-1,-5,9,-80,-46,55,28,-4,3,-6,-27
1490821961648,-63,28,-14,4,-28,-10,-11,-31,-37,7,-6,5,-6,7,8,25
1490821961697,-83,3,-12,-22,-63,-32,-25,-20,27,90,21,5,7,35,49,24
1490821961745,26,-19,13,59,23,12,70,24,-19,81,-11,-49,-57,-57,-89,-17
1490821961793,12,18,29,0,-90,52,27,34,36,28,-13,-24,-69,-73,-30,39
1490821961795,-28,-2,-2,-89,45,-24,-10,-4,0,-30,-14,-7,-17,-26,-8,-35
1490821961891,-78,-64,-39,-95,40,-21,-16,-23,-30,-72,18,-69,-34,29,20,-46
1490821961892,-10,-23,4,82,48,23,-26,-15,-10,39,53,98,91,94,3,29
1490821961940,-35,-51,-20,-89,-65,-70,5,7,1,-113,-72,-118,-75,-88,-75,-27
1490821961989,-6,34,44,89,47,36,17,30,27,79,23,98,40,4,34,6
1490821962037,41,41,-36,-64,68,-22,-33,18,-86,26,5,14,48,-78,-42,-52
1490821962038,115,-26,-15,29,92,-13,25,25,-110,-30,-20,-84,-120,-6,-36,-50
1490821962087,12,-1,-14,-55,73,35,62,8,12,23,16,101,38,18,-17,2
1490821962135,37,55,17,71,21,-2,-8,3,13,-2,-7,17,-8,65,10,-44
1490821962184,58,14,2,-30,-27,-44,22,14,63,19,10,-35,57,24,-9,41
1490821962232,-12,39,50,97,21,53,2,-37,0,61,-8,35,-33,-67,21,49
1490821962233,56,45,-28,-40,-52,8,16,22,-41,33,-27,-35,-47,-5,-43,-5
1490821962281,-33,-59,10,43,7,20,-1,-45,47,-84,21,-19,-3,0,13,41
1490821962330,-44,-16,15,-3,-24,38,30,6,-6,-31,-14,6,28,-7,2,-2
1490821962379,-47,38,19,32,49,10,-21,0,49,30,25,69,-12,20,39,6
1490821962428,-11,-6,7,16,2,-18,8,10,-27,-4,1,24,42,44,4,7
1490821962476,47,-10,-7,-2,1,-9,2,3,-72,-2,4,2,16,0,-10,-23
1490821962477,-9,-20,-16,-25,-8,-9,-85,-43,46,-7,-1,11,-5,-8,0,7
1490821962525,-53,3,6,-9,-10,-26,2,-21,-114,-33,-19,-9,-11,0,-41,-25
1490821962575,-22,-17,-17,-17,-7,8,24,-7,30,-13,9,31,21,-2,13,32
1490821962623,-31,-3,6,19,3,-7,-18,-20,127,-18,-4,-9,-2,-5,2,39
1490821962719,75,57,15,22,-49,-25,9,7,-26,4,-19,-51,-30,20,-14,-29
1490821962720,-17,-12,-17,-7,44,36,-22,-14,32,-18,-20,-48,-5,11,24,-24
1490821962722,-90,-28,-9,35,-15,37,32,1,-26,-19,-12,-7,72,-19,-26,-15
1490821962817,-77,8,35,56,3,7,83,17,-45,-7,-22,-76,-91,35,-91,-34
1490821962818,123,-21,-12,-4,110,17,6,12,-108,-14,75,127,17,-20,-47,-13
1490821962866,44,-23,-22,-49,4,-34,17,9,-21,6,21,-15,70,52,-50,-38
1490821962914,-48,80,45,31,-128,15,45,52,-33,-24,-77,-113,-84,-128,-37,-1
1490821962963,-30,-30,21,71,-38,98,-48,-34,103,8,3,111,127,38,50,32
1490821962964,91,-31,-24,-128,-83,38,34,29,47,29,-11,-118,-48,-45,99,37
1490821963013,26,-8,-16,-102,55,31,3,55,48,-8,23,82,41,-3,-104,-29
1490821963061,-95,-4,-46,27,127,30,39,-44,-107,24,39,62,-11,-75,26,-15
1490821963110,53,28,-29,12,-29,16,-2,26,100,46,-11,-42,29,127,8,51
1490821963158,4,31,-27,-52,-21,3,-128,5,57,-12,-68,-108,-98,-111,-90,-51
1490821963160,-23,-80,-103,-110,-31,-21,-70,-54,89,-20,11,114,-69,24,-17,0
1490821963209,75,-30,-75,-71,-63,-101,-36,43,-116,19,32,13,34,78,112,-17
1490821963257,-38,30,33,-44,-61,-107,-8,-34,-95,-77,-43,-94,33,-68,-32,-14
1490821963305,2,17,-5,4,108,59,82,-19,-93,-1,18,109,-113,87,-47,-46
1490821963354,2,61,100,51,83,-97,-80,59,18,19,-15,81,-20,82,73,-25
1490821963402,25,-19,-39,-128,-35,-28,0,35,36,-6,30,127,127,-45,8,-7
1490821963403,-11,-10,-27,-106,-128,-36,-12,-23,-2,6,-12,31,52,64,49,-20
1490821963451,-36,-6,-51,6,-41,-74,21,-24,12,-9,-21,-56,-114,-53,-2,-4
1490821963503,26,61,-16,69,111,-6,-122,7,15,40,-50,-2,92,109,-5,21
1490821963549,3,-81,-32,-88,-38,21,34,5,11,-42,-35,-93,-70,0,10,-9
1490821963597,48,40,4,113,-98,-50,-112,30,45,-20,-28,78,-43,-100,25,32
1490821963599,-8,-14,2,-46,90,64,31,-2,-29,-27,-27,-121,-128,-28,-49,-33
1490821963646,-7,0,-65,-96,-88,-78,-52,-17,-24,3,-65,-97,-16,-58,-49,-11
1490821963695,-45,-20,40,-90,-39,-60,-20,-18,-13,-14,-62,-25,40,-24,-60,-22
1490821963744,6,24,67,83,-37,54,31,3,-9,-14,-92,-110,-23,-84,-5,8
1490821963793,-5,-9,60,84,47,40,36,4,3,-3,-15,-51,-82,-5,-7,-2
1490821963841,18,3,29,-30,-68,-26,-6,3,-13,-26,-48,92,63,39,29,-3
1490821963842,-3,39,-29,-75,-18,-42,-14,5,34,-68,26,-24,0,6,8,5
1490821963890,21,109,-29,-95,-28,-18,-4,8,-62,-42,69,124,0,5,1,13
1490821963939,56,20,25,-11,-24,-8,-23,-18,-58,-33,-78,-31,-13,-6,-11,-16
1490821963988,-84,-76,-78,14,-2,-33,4,16,-17,46,87,-30,-27,-38,-23,4
1490821964036,51,19,91,69,46,49,12,-18,127,-29,-64,6,34,41,0,6
1490821964085,103,57,4,6,-60,-33,-13,-33,98,-26,-79,6,-10,-25,7,-6
1490821964086,-12,-103,56,2,-14,19,-6,-38,47,40,49,-9,18,13,3,21
1490821964134,5,-50,-59,-46,12,5,-20,7,-10,25,77,17,33,15,-7,0
1490821964183,-105,-37,-54,-7,11,-12,-9,-29,97,65,-3,24,-1,-10,-6,3
1490821964231,18,12,21,8,22,2,7,-11,-82,-126,-51,-1,11,4,-6,-6
1490821964279,7,9,1,47,-8,-8,-10,-18,67,-44,44,-2,-7,8,1,-7
1490821964281,87,-1,-19,-12,-7,13,6,12,91,1,25,17,-1,-10,-16,-17
1490821964329,49,-40,-18,-16,-9,-9,1,17,-48,-16,-28,-24,-11,1,-4,-12
1490821964378,-94,-99,22,0,-8,10,-10,-3,-85,-21,36,18,4,11,13,0
1490821964426,-121,126,-2,-2,-14,-14,-28,-7,-53,94,-18,-2,-5,15,13,-2
1490821964475,-16,45,24,26,6,-3,37,-1,23,22,14,47,-12,0,-36,-10
1490821964523,42,13,18,65,35,7,23,-19,-24,-2,-13,-35,-77,-22,-20,9
1490821964524,23,5,-30,49,-39,-26,-18,14,4,1,3,-72,-14,77,41,5
1490821964573,-8,4,-12,10,38,73,35,27,-11,-1,-12,-33,-72,-33,23,-4
