1490821899736,-51,-15,-23,36,-37,-71,35,0,-25,-102,25,70,102,10,79,-38
1490821899784,55,94,50,76,92,-22,-79,10,6,68,2,-56,-123,55,77,-28
1490821899786,-7,-76,-21,-21,-89,-78,-26,-1,-94,-3,-12,-62,95,-19,68,3
1490821899833,79,126,12,127,-60,-28,-49,6,1,57,-98,-128,-57,1,81,16
1490821899883,6,-25,52,76,-23,100,-94,65,-35,-23,22,127,119,15,-89,-22
1490821899931,23,-24,1,-36,57,-33,-87,-8,-52,-90,28,100,112,125,12,7
1490821899980,61,52,-7,19,83,19,38,-32,-13,62,0,-68,26,49,111,55
1490821900028,-56,-83,8,75,-128,-77,57,-24,-60,-97,-47,-112,-30,91,37,-45
1490821900029,17,14,94,105,103,79,27,50,72,53,86,123,-46,-128,-62,79
1490821900077,-52,-109,-15,-128,-94,-41,-19,-99,-40,-22,7,69,125,92,127,27
1490821900126,113,37,37,99,-81,54,59,57,-43,-41,-48,-57,-65,-11,-95,0
1490821900175,31,61,100,-87,-97,13,-19,32,-15,-10,-72,-87,59,-96,5,-21
1490821900223,-15,-8,-11,-100,11,-29,33,5,-21,-17,-8,-60,-128,-100,-60,-83
1490821900224,-6,5,89,-45,57,-51,-43,-41,49,20,55,96,-75,127,58,101
1490821900274,-10,6,-3,58,-27,8,23,-22,17,-37,-31,-73,49,-22,-38,-9
1490821900321,2,-2,35,-128,-83,11,12,2,-21,-83,-56,-6,82,49,-20,-12
1490821900370,-21,17,-30,58,17,85,29,20,-13,81,5,-75,-65,-77,94,-17
1490821900419,13,-37,-80,22,66,-9,5,29,9,-63,8,70,-19,28,17,7
1490821900467,-12,-14,9,-110,-71,-121,-37,-4,-14,-52,-60,-32,79,-66,-86,-21
1490821900468,-30,-26,-59,-128,-77,-26,-1,-17,-11,-19,5,6,52,6,-20,-18
1490821900516,-12,46,12,67,12,-64,-10,-12,-6,45,-16,-10,-21,-25,-7,-12
1490821900565,-7,-83,9,33,6,5,17,8,3,-70,-2,106,80,59,42,11
1490821900614,-104,46,-21,-46,-91,-73,-39,-17,-96,11,0,-19,-104,-45,-4,-2
1490821900662,68,-106,-17,31,81,81,16,11,18,-62,17,18,109,-32,-29,-17
1490821900663,92,50,54,4,77,10,10,1,76,70,13,-64,127,-28,-11,-1
1490821900711,-128,89,41,-28,-114,-11,11,1,-82,-43,7,-18,-119,1,-13,-21
1490821900760,-59,-7,-29,14,-76,24,24,5,-63,-4,-2,15,-63,-32,-23,-15
1490821900809,-59,-25,18,-57,-86,-41,-4,-11,-40,9,-6,-21,-13,-39,3,1
1490821900857,12,15,65,1,48,7,2,7,19,-13,-21,22,57,-7,7,12
1490821900905,29,-72,9,13,29,-14,-12,3,7,-65,-39,-30,14,-7,-4,-6
1490821900906,-8,-12,17,22,20,10,8,-2,0,24,-28,-35,1,15,-1,-1
1490821900955,48,41,-11,4,13,-7,13,-5,66,38,-4,7,3,-7,-9,1
1490821901004,-46,21,12,-12,-7,16,22,12,-69,-48,-8,-16,-27,-25,-43,-4
1490821901052,4,-104,-10,-6,-6,-25,5,5,47,20,-10,3,12,-6,-8,1
1490821901101,122,17,26,21,-2,-10,-38,4,-40,2,-4,-15,-31,-20,5,-8
1490821901149,-10,-93,-11,-11,-4,-11,3,-7,-36,-128,-10,18,10,-20,-13,2
1490821901150,-94,62,-21,-31,18,18,18,15,-64,48,9,-3,38,-25,-33,-24
1490821901199,-24,7,-13,-26,-7,28,16,-3,3,-4,7,5,12,-21,0,3
1490821901247,-35,-3,22,52,5,15,-53,-6,-90,4,-18,-50,-12,-40,-26,17
1490821901296,-51,50,-4,-4,22,-91,15,16,58,18,-6,18,13,6,-32,-3
1490821901344,-21,-3,17,-10,-57,-12,-24,-13,67,62,9,-49,-65,3,74,17
1490821901345,13,-68,-6,-7,19,-57,22,-18,11,-32,0,-13,-44,0,-28,-32
1490821901394,-39,-14,13,19,-5,-35,-36,6,18,-15,-48,-58,0,3,12,-2
1490821901442,2,-34,8,25,55,127,22,12,32,-18,8,58,66,28,62,4
1490821901491,13,62,-3,-38,-47,6,-30,24,4,74,-2,-2,39,13,-57,1
1490821901540,-1,-60,21,62,28,-9,17,10,-31,-51,20,21,-18,-49,0,5
1490821901588,-31,127,-16,-19,7,-24,-7,-15,-5,92,14,41,26,-2,42,4
1490821901589,-37,-61,-11,-15,6,-16,19,-7,-11,13,-2,-9,-24,3,-2,-7
1490821901637,36,62,6,-2,-33,-14,-24,0,-72,65,-15,-37,-34,-12,-9,-25
1490821901686,38,115,5,14,-24,3,16,26,-54,110,-12,-2,-12,-37,-17,-17
1490821901735,-81,-2,-5,-13,-7,12,-8,-10,2,-18,-3,-2,-18,-6,31,-1
1490821901784,-27,15,-21,-11,-5,-30,-40,-18,66,-53,14,-5,11,37,23,27
1490821901880,14,-60,-3,0,-49,-6,-50,-9,8,-110,0,-22,-14,-13,-13,-6
1490821901882,-32,-44,-1,20,17,-8,19,-7,-10,14,-2,31,5,16,-3,-3
1490821901929,-11,127,-3,-27,12,-23,-15,3,38,50,-8,-1,12,-5,-5,-9
1490821901930,-33,47,0,-6,25,37,18,-1,13,54,4,17,3,8,20,6
1490821901978,27,-29,-4,1,-6,-11,-8,12,-21,-49,-5,-4,-6,-2,0,1
1490821902027,41,-25,-4,3,21,33,18,14,-45,-30,12,16,23,-15,-1,-20
1490821902028,14,-6,-9,0,41,40,11,-16,20,-28,23,10,20,41,19,17
1490821902076,29,-13,-13,-66,-1,31,0,-2,-40,-6,-21,-43,-14,-22,0,-12
1490821902173,2,-6,9,-16,105,-26,-45,-12,31,-13,8,46,52,-20,28,23
1490821902174,-53,60,-11,86,-18,-68,-41,-26,-25,73,18,4,29,-13,24,1
1490821902222,-35,17,-2,-47,0,-9,-14,-11,-38,63,-16,-4,-21,38,-11,-2
1490821902319,-41,80,64,50,-41,-90,-89,24,45,-81,21,75,-117,85,24,7
1490821902320,-23,117,38,82,24,114,59,12,3,62,-50,-86,-89,25,-6,-32
1490821902321,35,-8,13,34,65,12,11,-7,-21,-67,0,-5,-93,-9,43,22
1490821902368,45,-128,-2,-44,29,-10,27,60,-16,-2,-13,48,72,-70,29,-22
1490821902417,18,97,-23,-71,-128,84,67,11,12,33,-11,-82,-115,-128,-2,-1
1490821902466,42,-48,21,58,126,92,49,27,-61,-106,34,127,13,-68,20,-4
1490821902515,124,-113,-49,-33,27,-105,-56,53,-62,-128,-31,-84,17,-7,44,-11
1490821902515,13,-89,-111,10,-57,-109,-60,-24,-82,-15,28,71,86,-29,-23,-26
1490821902663,39,-18,17,-128,-128,-47,54,-15,47,37,-24,-70,-116,-17,10,-21
1490821902672,9,6,-15,15,119,84,98,-2,46,33,76,49,-48,-20,-82,-34
1490821902675,13,-7,19,-42,-79,52,73,31,-34,-14,-64,-111,-58,-82,-88,-34
1490821902709,-20,77,-52,-42,37,-34,-44,-5,-60,54,42,122,-12,25,-12,-18
1490821902711,50,1,61,54,127,72,102,9,-12,-66,-48,-25,-49,-64,-63,4
1490821902759,-37,-22,-62,7,-29,-14,96,-31,-10,-9,-5,-54,57,16,127,21
1490821902807,-36,-64,-57,-128,35,-93,88,3,-31,-66,-1,49,45,92,-128,-11
1490821902856,21,62,-2,-67,-26,5,-50,-18,26,93,-30,95,-33,-27,12,8
1490821902905,-11,59,9,61,68,50,39,2,5,14,113,59,-62,127,120,19
1490821902953,-43,-106,-83,-72,-25,-68,-114,-29,-4,-55,31,67,45,70,-23,17
1490821902956,-4,4,11,16,63,-30,19,-1,42,46,44,79,18,63,23,7
1490821903002,0,112,28,42,94,64,10,6,-18,38,-9,13,-114,-44,64,-4
1490821903051,4,-35,-5,-96,-128,127,19,3,-15,-57,13,-32,-42,-125,-85,-20
1490821903100,-103,-88,-30,-22,-52,-2,36,-4,-27,-47,-36,-128,-116,-115,-72,-34
1490821903148,-4,-6,46,77,-16,68,87,22,-10,48,-11,-90,85,-23,-59,-4
1490821903196,-15,25,-24,78,19,-2,-63,-7,-10,-32,65,127,13,90,61,32
1490821903198,123,-22,17,-57,48,-16,-31,-8,127,-36,-19,14,27,29,19,-2
1490821903246,-17,-30,17,-64,31,-33,2,4,-74,84,3,-15,-28,-41,29,-2
1490821903295,75,-31,26,73,90,2,1,1,60,-61,-18,-37,69,42,-10,-5
1490821903343,4,70,11,40,6,50,34,24,-31,52,55,127,82,102,54,11
1490821903391,-12,-76,9,-66,60,0,-7,-9,33,-94,-32,-20,100,-22,-15,-14
1490821903393,-2,-12,1,-25,-67,-36,-5,-8,-20,20,-7,1,-97,-14,0,-5
1490821903441,-2,38,16,10,30,0,9,0,-40,16,-30,-20,6,-6,10,5
1490821903490,-13,-19,-3,-9,0,25,-3,-9,-19,-2,-13,-13,4,19,-6,1
1490821903538,117,113,7,13,-16,28,-1,-10,127,67,-6,-12,-28,5,-8,-3
1490821903587,89,19,-26,-9,-13,-18,-8,10,67,-85,4,3,-22,-24,-5,-5
1490821903635,-108,-116,7,-22,8,3,-9,-10,-87,11,-7,-5,15,-4,-10,-11
1490821903636,13,-70,-5,-17,0,-6,8,3,-62,5,-5,-4,3,21,11,-15
1490821903685,-61,79,-2,5,8,-8,-1,-7,55,107,12,1,15,19,26,4
1490821903733,-59,52,-8,7,11,12,-23,-7,-96,107,22,25,17,43,78,-1
1490821903782,62,-17,-4,2,44,-3,27,9,-35,17,-13,-46,-69,8,1,-5
1490821903830,-39,30,-13,-9,-18,-2,1,0,-69,13,13,50,24,18,-38,-9
1490821903831,30,12,28,13,-22,-5,30,8,-39,-5,-2,81,119,57,19,-17
1490821903880,-19,79,-36,-50,-59,-24,1,-18,44,11,0,29,49,9,-18,36
1490821903928,-31,1,7,24,-13,26,-2,12,-54,-10,-29,-20,-19,17,6,-14
1490821903977,-29,-73,8,19,39,26,-53,-31,127,19,7,38,-8,-7,7,54
1490821904026,-54,-17,25,15,13,-35,38,-27,-6,-41,-15,30,-13,-14,-35,1
1490821904074,-66,-17,-59,48,-84,-36,-41,-11,68,80,18,-56,-32,-1,41,20
1490821904076,69,117,-12,-41,-16,27,34,28,-23,77,3,-10,-6,-16,22,13
1490821904123,-14,112,55,44,50,34,20,6,-32,-48,-21,12,3,39,9,-13
1490821904172,-8,-72,-25,-6,-39,-108,29,1,-17,-45,14,6,1,31,-41,1
1490821904221,21,-71,-14,-55,-10,-4,-17,-9,8,-119,-12,26,-44,-54,-1,-8
1490821904270,90,-128,2,-9,-8,50,47,50,-6,-85,5,3,30,-6,-16,8
1490821904318,-25,96,1,16,-9,-3,-45,-34,-40,76,18,1,15,-2,6,-2
1490821904319,21,104,1,-9,3,33,27,24,-5,70,5,-8,2,-3,-20,-8
1490821904367,-13,24,-7,11,-3,22,42,14,-60,-1,-28,-35,-30,-12,-24,-18
1490821904416,-13,-76,-11,6,-2,-1,-4,-10,-15,-57,3,-11,-17,-8,7,11
1490821904465,-50,-3,6,4,-21,2,14,6,30,3,7,14,-21,-12,7,3
1490821904513,67,-1,-2,17,32,9,2,-5,44,1,19,4,66,-17,0,4
1490821904514,-30,0,-35,-24,-14,-55,-54,-28,-20,5,9,-1,1,33,16,11
1490821904562,-71,127,-15,6,-6,18,7,-9,4,119,4,-21,-8,-31,-10,-15
1490821904611,-46,42,0,22,-38,-25,-39,-25,127,40,13,20,-7,2,-12,33
1490821904660,46,-7,11,-90,18,16,2,6,-50,-6,-7,77,8,-18,-7,-10
1490821904708,-22,14,-22,-41,-34,1,-7,4,-2,18,-14,-28,20,-89,-34,-13
1490821904756,-47,-42,-57,-93,-18,-16,49,0,6,-36,-1,-64,55,1,22,-11
1490821904758,127,15,2,97,-31,1,-54,-2,-51,16,-24,-94,-78,-28,14,-10
1490821904806,45,18,-42,-87,-66,14,32,9,-89,127,1,-60,7,-69,-117,-53
1490821904855,19,-68,-52,-99,-128,2,34,14,-10,-103,-36,-109,-61,-105,-75,-37
1490821904903,79,11,-41,52,127,25,35,18,-35,-94,57,-30,23,-43,6,-18
1490821904952,43,-85,10,-17,-128,18,6,12,36,-128,-4,-87,-101,74,52,38
1490821905000,-76,127,55,6,127,-33,52,5,-34,127,46,120,-104,55,36,-4
1490821905001,-8,-28,10,-57,-39,35,23,40,-79,-55,-18,75,90,68,2,-32
1490821905050,-68,-96,25,110,-72,-5,-77,-28,46,-60,-17,7,44,120,31,35
1490821905099,27,-78,46,12,115,-76,15,8,-25,-13,-31,-76,-34,15,-68,12
1490821905147,55,8,-21,64,-49,-1,-128,-6,-44,78,106,127,127,61,114,7
1490821905197,-6,39,42,-127,-81,74,44,10,20,-49,27,45,101,29,-73,38
1490821905198,20,60,-123,-30,83,7,12,29,-8,122,39,-68,23,-65,-91,21
1490821905245,-8,-33,-22,-66,-128,-65,41,-60,15,40,-4,-72,-34,87,123,-1
1490821905293,-17,84,41,-122,58,41,-35,5,-55,-44,-38,114,27,-78,-63,-62
1490821905342,-6,127,42,110,-99,121,96,-3,-27,91,-51,-110,-49,-128,-86,-24
1490821905391,-60,-15,20,127,-42,93,-3,2,-7,80,106,-128,-55,-109,76,18
1490821905439,-25,-41,38,53,7,110,-11,-38,-14,-9,16,-66,9,41,113,62
1490821905440,-37,10,-14,36,59,-6,-53,-8,-17,-5,-63,-66,28,-48,-2,-4
1490821905488,11,-47,-112,-87,-88,-76,-12,-15,32,42,-15,63,68,82,-102,27
1490821905537,20,8,0,77,-33,62,20,24,5,-9,9,-11,85,-10,-26,-15
1490821905586,-3,-19,26,5,-42,-42,-18,2,-8,-30,-49,-8,-19,-33,33,3
1490821905635,-1,77,18,36,29,-53,26,2,-23,-15,-16,-59,-6,-33,-32,-19
1490821905683,-53,-62,-16,45,21,-14,-41,-11,-6,-11,37,29,-29,17,40,10
1490821905684,52,9,-3,-37,-43,-2,-15,-5,-5,-25,-16,4,-62,5,-9,4
1490821905732,-10,-38,-18,28,58,4,-5,-7,10,-2,-16,-35,21,-31,-12,-7
1490821905781,46,18,-43,4,-6,16,12,9,46,-6,35,71,12,48,5,6
1490821905878,-118,5,18,-6,16,-15,14,-3,87,-4,-26,-63,-5,-47,-8,-6
1490821905878,3,-62,17,-8,-8,-23,-6,20,-13,34,-8,-67,14,-6,-2,-6
1490821905975,110,-4,-8,-42,13,-8,-1,-13,17,-20,18,22,21,-4,1,-2
1490821905976,33,-17,-6,34,10,11,6,2,24,27,4,-30,-25,-3,2,-3
1490821905977,-9,11,19,-2,-5,-9,8,10,-83,-16,-24,19,3,-7,-3,1
1490821906025,116,20,-13,-23,-19,-5,-3,8,50,-40,16,-8,-10,5,0,0
1490821906073,108,61,2,7,-11,3,-9,-5,-68,-25,-10,-5,-7,5,-3,3
1490821906121,-111,-3,-5,9,11,6,2,-2,-47,-7,-12,-7,1,-5,3,-3
1490821906123,-8,-39,-13,-11,7,-3,5,1,-26,-32,8,-3,-23,-20,-28,1
1490821906171,-10,-128,0,13,-4,39,-8,0,-54,-107,13,15,11,-37,2,1
1490821906220,-75,70,13,-3,-18,0,37,0,-75,-80,1,-10,-4,-66,-6,21
1490821906268,-5,-128,-30,15,24,39,2,-1,-41,-30,14,7,-14,36,39,3
1490821906317,56,35,-4,-33,-34,-15,17,39,-2,38,-6,-37,36,4,-23,-1
1490821906318,48,1,1,42,63,-41,-30,-3,-85,18,17,7,-23,27,4,-39
1490821906366,-69,13,7,-79,-56,50,-3,-32,3,29,5,113,24,-68,9,51
1490821906415,-16,106,57,46,34,-4,10,23,101,22,-35,34,4,38,-1,25
1490821906463,2,-77,11,42,-46,-51,-8,-15,123,-17,-18,-54,-38,28,-26,5
1490821906512,-68,71,27,-9,11,-61,-36,-18,-27,68,-8,-5,-1,21,-3,-5
1490821906560,-13,-8,-1,11,39,19,27,-9,71,22,15,-8,-13,-46,-15,17
1490821906561,21,-7,-8,-63,-11,-40,-40,14,-32,29,-16,36,-14,-6,3,-8
1490821906610,-7,65,-10,-54,-19,-28,-13,-14,7,-45,-15,-4,9,38,7,14
1490821906658,25,49,-20,-37,-6,12,12,-8,17,44,19,15,39,3,52,-3
1490821906707,12,41,-11,0,-17,19,74,13,12,95,-24,-38,-12,-50,-35,-12
1490821906756,93,19,-35,-73,6,-18,4,13,-57,78,4,-16,1,-27,-9,-9
1490821906804,-10,35,2,39,-10,-5,-44,9,-84,-19,1,-2,10,-4,-15,-16
1490821906805,40,-46,-20,-21,20,1,19,-4,-83,-28,16,24,-3,-7,21,5
1490821906853,22,-8,-6,7,-4,19,15,6,27,-3,-4,-22,-1,3,0,-2
1490821906902,9,29,7,-5,9,-11,-6,-7,48,117,21,16,6,-15,-3,2
1490821906951,-6,72,10,15,6,-5,-6,-9,7,50,-3,3,12,-2,5,-11
1490821906999,-6,1,-10,9,12,-8,-11,-4,-39,-5,8,0,0,-3,25,8
1490821907000,-17,-1,-33,-45,-28,-25,-11,-17,43,-1,-19,-31,-6,15,-44,-11
1490821907048,-48,0,5,-9,15,-14,-7,-7,-6,13,2,7,43,-24,0,-2
1490821907097,21,44,20,9,10,48,66,27,5,19,2,5,26,3,-17,-3
1490821907146,-94,19,-18,-54,15,25,80,18,75,7,13,32,38,87,-10,26
1490821907195,84,35,-32,-92,-13,-64,-52,-9,-82,-37,23,9,46,74,13,-6
1490821907243,-20,-20,-23,-81,-15,-75,-58,7,2,-47,6,57,-9,58,18,2
1490821907244,56,52,-26,17,78,22,14,1,2,-1,6,40,11,-63,-15,-12
1490821907292,-112,-14,36,68,115,60,3,-15,23,-29,23,-20,-63,-39,0,2
1490821907341,55,-11,18,17,46,-73,-104,5,-23,102,59,73,80,82,86,6
1490821907389,30,127,-35,-65,-128,-54,-50,-18,-69,-24,-54,-128,-42,86,37,-3
1490821907438,94,-63,53,89,56,1,-27,-1,-35,-20,1,-38,-83,80,107,10
1490821907486,83,-128,-19,8,-98,89,-21,-12,48,-122,-36,29,82,-124,-37,5
1490821907488,-128,-128,-2,8,75,69,52,-6,-81,-40,24,67,17,6,-21,-12
1490821907536,-15,-73,22,127,46,-46,-67,10,5,9,-26,3,9,-75,-49,-42
1490821907584,6,47,42,88,62,1,62,8,-92,114,-24,-61,-98,-67,31,-44
1490821907633,-128,23,-29,83,-45,-121,-50,-47,49,87,28,-39,55,110,-79,12
1490821907681,-14,40,-2,-128,-128,-3,0,-27,2,-57,5,117,-86,-47,115,16
1490821907682,38,-18,83,41,-35,-34,-128,-32,-75,-13,-48,-57,76,127,29,-24
1490821907731,-109,-33,111,90,96,77,50,8,76,-7,-33,-12,-31,-81,31,32
1490821907779,110,38,-108,-105,-121,-43,-41,3,-101,-29,57,120,126,-57,80,6
1490821907828,-10,-6,30,-48,-21,6,-21,-13,-27,-53,-112,-128,-74,-23,49,-1
1490821907877,22,42,1,43,114,-11,98,31,-43,77,58,8,-96,3,-39,-29
1490821907925,26,16,11,127,-116,123,28,34,15,44,116,19,-128,24,127,48
1490821907926,-33,-70,-13,-120,-18,-94,-80,-15,-35,-29,-119,-62,-61,-99,74,-62
1490821907974,-1,-37,-19,-52,-37,-101,1,-11,-29,-37,-64,-94,122,36,39,-21
1490821908023,21,30,35,76,127,110,63,20,26,-1,-27,-56,-77,-42,-10,30
1490821908072,-46,-29,-40,-21,127,-6,-96,-46,-18,-14,41,73,18,80,-83,10
1490821908121,11,-33,-5,15,-57,48,33,28,-15,-22,-6,13,20,-82,-19,-11
1490821908169,-14,-28,-54,-82,-41,-91,-31,-35,-5,-19,-18,73,15,-12,-7,-9
1490821908170,2,-80,-9,53,-25,10,-26,-2,-3,-50,32,-67,68,21,-8,-7
1490821908218,9,-11,23,-44,-52,34,59,6,1,6,26,57,-7,-68,-26,-4
1490821908267,0,-1,40,-18,15,-25,-17,6,-5,-14,-3,44,-9,-10,12,4
1490821908316,7,-7,10,112,87,55,29,16,-4,7,23,-66,-18,-14,-5,-6
1490821908364,-66,18,25,52,30,-26,-7,-10,-56,-13,-65,-78,-74,11,1,5
1490821908365,9,-23,-22,-124,-51,-88,-69,-26,-19,-110,-27,-27,-32,-24,-14,-9
1490821908413,12,84,-21,-9,-87,-10,14,-7,8,66,15,-9,39,5,-11,-3
1490821908462,-54,31,-25,-27,-11,-23,5,-6,-7,-7,20,58,101,53,41,12
1490821908511,-87,6,42,7,27,5,6,-2,48,19,2,53,7,10,22,14
1490821908560,-91,-13,-34,-62,23,-26,-12,-17,-86,-36,3,-19,-23,-34,-19,-21
1490821908608,7,0,-34,-16,-2,-1,-2,1,12,-7,-3,14,24,2,-5,3
1490821908609,122,-18,13,20,7,7,10,-2,94,-3,35,8,-29,-5,0,-6
1490821908657,-26,9,24,12,3,15,6,-3,27,17,-8,6,-1,-6,4,-1
1490821908706,-20,76,1,0,2,25,2,0,22,-24,-16,-33,6,41,-3,-8
1490821908754,83,1,5,9,-25,0,-3,14,89,21,5,9,-28,-5,-5,-9
1490821908803,6,-29,-25,-24,-10,-4,-9,-13,30,9,6,-3,-12,17,20,2
1490821908851,55,-42,18,-3,-9,-19,-8,1,-65,-119,-13,-21,-15,-26,-41,-9
1490821908852,77,48,-7,-6,2,-28,-21,5,111,-69,-38,-22,-21,-33,-3,-10
1490821908901,-13,61,-7,11,-3,8,18,13,2,114,-6,19,13,25,31,-3
1490821908949,-34,-52,6,2,13,-13,-16,-14,-9,-21,-22,-3,7,46,-2,2
1490821908999,-99,43,3,25,-15,-42,-15,13,-73,49,-11,-39,-5,-21,1,-3
1490821909046,33,-14,4,4,24,-27,-13,-11,-58,53,21,-7,17,14,43,10
1490821909048,-8,-78,19,4,10,32,34,-8,-84,-64,18,20,-52,-27,-17,-18
1490821909096,68,-9,-34,-94,-20,-2,-54,-12,17,-11,32,49,7,-24,-13,0
1490821909145,-16,16,-11,21,-23,44,42,11,-3,-10,-19,-23,-28,-13,-35,-29
1490821909193,35,-4,20,2,-42,27,59,6,-41,-1,-5,-34,-25,-9,-67,-5
1490821909242,79,56,5,50,48,58,-9,-6,-46,63,45,57,34,-11,-23,11
1490821909290,27,-20,13,23,17,-16,-14,4,18,-37,6,-24,-9,5,-14,-14
1490821909291,-13,17,22,37,-28,-25,30,-2,8,63,-30,-51,-45,21,34,0
1490821909340,30,80,-10,9,18,-6,-23,0,-20,87,-36,-75,-55,11,38,8
1490821909388,14,-128,3,-13,-18,-43,-37,-4,40,-52,12,-2,14,67,70,27
1490821909437,-37,50,-2,1,20,24,44,22,-44,77,-3,44,-12,-10,-22,-4
1490821909485,2,76,-3,-29,-20,18,12,1,2,122,-15,-1,13,-20,-13,-4
1490821909486,-7,69,-11,7,3,3,-26,-13,-80,96,-16,-18,11,-7,5,-14
1490821909535,25,-43,23,52,-20,2,15,9,-46,-29,-14,-56,-19,-9,-8,-26
1490821909583,-79,-119,23,7,-1,4,28,-5,-32,-128,-19,-25,15,-8,-46,-16
1490821909632,26,57,-12,-18,-3,-19,-4,8,15,-24,5,19,-29,-5,-5,-11
1490821909681,-37,-10,-6,-14,0,-20,-23,-14,44,-29,21,1,34,4,14,-7
1490821909729,108,81,-3,4,-1,12,25,36,-64,44,8,6,-8,-5,-8,-12
1490821909730,-35,78,-21,0,-5,-9,-11,-18,-7,47,-14,-19,-27,21,30,4
1490821909779,-73,23,-6,-10,29,-7,-21,-21,-57,38,6,26,53,-5,-14,-16
1490821909827,47,-30,27,53,-11,7,21,12,-50,-50,-9,-3,-26,12,-13,-28
1490821909876,-32,-30,-20,-57,-94,61,57,19,0,-31,-3,-1,-26,-37,-26,4
1490821909924,6,-25,-29,-111,6,-47,-52,-42,-37,-3,5,48,59,31,-30,-21
1490821909972,105,0,-7,19,-11,-16,27,52,-42,13,-5,-2,-32,3,-24,-26
1490821910021,-92,-40,-18,-67,0,15,-64,-30,54,-39,-8,-64,0,5,29,-1
1490821910022,-2,108,-23,82,-7,-45,-18,1,-46,73,-7,40,123,18,1,0
1490821910071,-28,54,-2,-128,-11,-118,15,10,33,-74,-37,-87,-128,107,18,20
1490821910119,16,-15,4,106,-82,-116,-76,-39,-9,-3,-36,-114,-39,-30,-63,6
1490821910168,-30,63,31,57,-114,-59,-34,0,32,-23,0,-34,-44,-5,-3,26
1490821910169,76,98,32,97,-120,37,-49,-10,-89,116,-23,-78,-40,-61,-27,-26
1490821910217,-1,-104,-18,54,-78,93,107,-45,-10,-56,-27,-90,34,-77,-104,-27
1490821910266,-108,6,20,100,127,89,46,-9,30,108,40,123,-44,79,90,-2
1490821910315,5,110,-20,-48,-25,-9,32,11,76,99,-19,-34,-54,-84,23,3
1490821910363,-11,-4,32,107,-98,102,20,5,-34,97,3,-67,-85,92,85,-3
1490821910412,86,-128,-17,-51,17,-86,8,37,-60,-95,57,127,112,127,116,1
1490821910413,-46,-50,-11,65,65,58,0,-91,44,10,32,47,126,-35,-112,70
1490821910461,47,127,51,55,92,111,-116,53,-69,93,-27,-98,-24,-128,44,-13
1490821910510,16,-7,-8,-30,55,38,-93,-29,11,39,79,92,-73,14,75,1
1490821910559,8,-54,-48,-128,-16,-101,-56,-53,-35,-52,-47,50,61,-33,-32,12
1490821910607,35,26,10,-75,-106,55,35,39,-6,-58,-63,-35,-14,-46,-19,19
1490821910655,-34,-29,-8,-9,51,38,-56,-31,-7,-18,-43,-95,-41,127,-7,42
1490821910656,-30,-47,-55,-38,64,-75,3,-55,5,49,81,127,127,85,95,45
1490821910705,-22,-44,-69,-128,-95,127,63,-12,-22,-54,-32,-7,2,-116,20,-67
1490821910753,-4,7,42,127,-31,63,71,2,23,-2,1,-30,-76,99,-83,10
1490821910802,-15,-8,-15,-23,-66,-40,58,19,28,30,25,72,38,11,-74,-11
1490821910850,-22,1,2,5,-2,-17,-10,-11,7,-4,-20,37,41,42,31,16
1490821910852,-50,-11,27,127,6,27,-22,0,-20,32,45,19,-2,-28,30,25
1490821910900,-1,4,-9,27,103,30,21,8,20,27,-9,107,-40,39,9,13
1490821910948,-31,-50,-4,-35,-33,-69,-18,-3,-24,-52,-58,-44,-52,21,1,-3
1490821910997,77,26,-25,-120,-31,51,-15,11,53,-38,-63,-84,-67,-68,-65,-24
1490821911046,31,17,30,-9,-89,49,25,1,44,32,-40,73,24,5,8,0
1490821911094,27,-9,-9,-45,41,-86,-23,0,-71,-7,42,44,27,59,33,1
1490821911095,23,2,-12,-31,-12,-20,3,1,33,-11,-85,-94,-86,-45,-2,5
1490821911143,-113,-23,51,20,42,-3,2,-13,-128,14,-6,61,74,37,27,3
1490821911192,96,-87,-6,-49,-35,-2,-3,-4,40,-72,20,37,22,-5,5,8
1490821911241,37,41,15,-28,-18,-7,-4,9,-12,15,7,-18,6,5,8,10
1490821911290,77,9,6,1,-49,-12,10,30,-33,47,-17,-6,-24,4,2,6
1490821911338,-33,-19,-52,-17,23,-19,-3,8,65,-6,32,0,8,1,2,2
1490821911339,109,8,9,9,1,-4,5,2,86,10,-29,7,-11,-13,-5,0
1490821911387,19,15,-34,-11,-3,-5,-9,-4,-55,41,26,18,-14,-2,-4,-5
1490821911436,-37,-12,-1,1,-6,1,2,-7,30,-26,-31,-4,-3,-4,-6,-3
1490821911485,-128,-30,9,24,-5,-4,-1,-7,-79,9,-16,-11,-5,-5,0,1
1490821911533,-45,-6,-26,-10,-9,-14,-2,-2,-9,11,20,0,10,51,-14,4
1490821911534,-9,-2,-4,2,18,60,9,5,-51,62,-2,0,-11,-44,-10,-7
1490821911582,-66,104,-27,10,12,-5,-81,-38,23,-71,-34,20,-12,-63,-30,10
1490821911631,-7,65,35,14,89,34,97,3,-4,99,-21,11,-52,32,20,29
1490821911680,71,-35,12,34,2,-46,-53,-10,50,-25,-12,-25,5,30,61,40
1490821911729,26,105,-49,-19,-31,50,-14,-1,-80,-69,18,16,3,-19,-12,-19
1490821911776,28,-33,-32,-70,-51,-103,-25,28,46,34,5,-23,49,9,-3,-11
1490821911778,-20,-20,34,-6,8,26,2,-11,-2,84,-9,30,-20,15,-21,-7
1490821911826,-15,1,5,-2,-57,80,40,3,-118,-17,-25,25,23,-47,-128,-60
1490821911875,-24,39,9,-24,-10,15,75,-1,77,87,6,-1,-11,-30,-60,36
1490821911923,-43,-65,-24,-58,-81,-40,-44,-44,37,-100,20,2,-47,45,74,42
1490821911971,76,-14,1,-8,-3,44,75,37,-38,0,-30,-37,-24,-2,17,-18
1490821911973,-117,-80,36,29,-7,18,-8,7,76,-111,-17,-35,-32,-53,55,2
1490821912021,23,-128,-25,-57,5,-31,-25,0,-89,-55,36,12,-29,-11,-15,-24
1490821912070,-13,-128,-28,6,-14,-15,17,11,9,-128,-10,-50,-1,-11,-3,-19
1490821912118,-38,60,1,23,11,10,-15,-9,54,-89,-1,26,-8,6,25,3
1490821912167,-112,127,-15,15,-2,-17,5,-24,28,127,-3,-13,13,24,34,1
1490821912215,-82,87,-10,-17,-23,-19,-19,-36,63,72,4,11,1,7,17,26
1490821912216,42,-102,16,-19,5,7,20,20,-102,-92,-21,-22,-5,-10,-37,-26
1490821912265,41,-31,2,4,-3,1,18,2,-26,-10,31,31,3,-16,-36,-11
1490821912314,-67,-117,-25,-15,-42,16,-1,-12,63,20,18,13,0,-7,4,0
1490821912362,-5,100,-13,-30,-3,14,37,10,102,77,-29,-33,-4,14,-16,5
1490821912411,-8,23,16,21,3,-33,-33,-4,17,9,-10,17,6,-22,26,10
1490821912459,1,6,-15,-13,-38,20,-4,23,-75,-4,5,27,-117,-19,-53,-41
1490821912461,83,9,-12,-5,44,-9,-2,-23,49,59,1,-11,-9,-20,-67,9
1490821912508,-39,51,50,93,-4,-42,-27,13,7,42,-29,-8,-34,-87,48,24
1490821912557,-34,11,-13,-62,96,32,-16,-34,61,0,-1,0,107,55,-2,28
1490821912606,95,-36,13,97,110,21,93,48,61,-36,-29,54,-82,-65,-17,3
1490821912654,81,-37,-46,-71,-79,-5,6,15,45,3,49,47,-19,24,-51,-18
1490821912655,-77,-106,8,-106,17,-128,44,11,94,-128,-69,-127,56,-48,-19,-38
1490821912703,-88,-98,9,127,15,36,26,-20,-51,-114,-12,58,-11,-118,46,24
1490821912752,119,127,1,-28,19,127,45,10,-72,125,25,-79,-117,-47,103,30
1490821912801,-82,43,51,115,102,65,91,-14,84,47,-49,-107,-115,15,-34,36
1490821912850,-39,32,-47,-128,-128,10,11,1,77,1,6,-57,-58,26,65,63
1490821912898,12,112,9,-58,-43,40,5,-4,-17,15,11,74,-9,28,-17,0
1490821912899,-104,-128,-66,-93,16,-103,-38,-11,-81,-128,4,-80,117,-6,-128,-92
1490821912947,54,-3,55,127,-125,-10,-29,-5,-18,31,-16,-50,127,-39,-51,4
1490821912996,-36,28,3,57,122,-89,-97,-53,-11,65,50,110,-128,114,21,-15
1490821913045,-24,-58,22,79,-48,16,14,23,52,-31,-30,-18,31,35,6,26
1490821913093,-6,37,99,66,61,95,-23,-5,-38,1,-12,40,-97,-8,57,-18
1490821913141,24,80,-9,70,25,69,23,13,-16,33,-27,-55,-63,59,58,-10
1490821913143,17,-46,-74,-122,1,-7,39,15,-14,-40,16,-69,127,-15,-35,-28
1490821913191,4,36,-2,-68,-63,34,30,13,-15,5,22,-57,-3,68,-43,-13
1490821913240,0,-7,-13,47,-32,40,-13,-7,18,8,72,123,49,68,84,5
1490821913288,-11,-43,-103,-128,13,-128,-80,-15,8,-44,-38,127,3,-31,-50,-8
1490821913338,-9,-15,18,24,85,-1,-68,-36,20,0,11,127,104,85,22,39
1490821913342,11,-30,59,67,-127,65,-46,20,2,-32,-75,-97,-76,-101,-9,-5
1490821913386,-11,88,48,63,67,48,31,-12,1,72,33,-46,-67,-3,21,11
1490821913435,-10,-78,-61,-128,27,-97,-21,5,4,-32,45,85,23,-47,-67,-13
1490821913484,29,-31,-20,21,16,-20,-11,-6,42,-22,28,6,-48,83,72,6
1490821913533,-8,0,18,78,-91,34,-1,-7,4,11,32,18,99,78,62,21
1490821913581,6,6,22,1,-39,-57,-50,-5,2,10,51,106,68,73,92,7
1490821913583,-13,8,-6,127,83,16,5,-11,8,18,-4,2,45,74,29,8
1490821913630,-36,-108,39,-16,-84,51,4,15,-12,-101,-46,-53,-97,-62,-21,3
1490821913679,33,-40,52,127,59,96,61,32,-2,-73,38,-11,-72,35,2,14
1490821913727,45,75,14,100,77,7,-4,6,24,113,-17,0,-25,6,-6,-20
1490821913776,-48,-20,-32,-89,4,-52,-21,-13,-5,-21,-8,40,41,-37,-8,-18
1490821913824,21,5,1,62,76,12,32,5,23,7,27,61,-3,33,8,9
1490821913826,-30,24,37,50,-27,0,9,1,3,-14,22,4,-15,9,-7,10
1490821913874,36,-15,6,22,2,8,4,-1,12,15,7,-52,-18,-41,-30,-8
1490821913972,48,18,6,-29,-11,-15,-8,1,-10,-1,-1,22,-3,7,14,12
1490821913974,36,6,-6,5,9,29,11,8,-17,1,18,-12,-2,-7,0,7
1490821914020,-56,15,32,30,-18,7,3,-1,26,-6,-2,-4,-10,11,4,-2
1490821914068,127,-47,-27,5,18,28,-4,1,88,-14,9,-8,1,14,-6,-14
1490821914069,-75,-3,9,-3,-28,-12,-1,-11,-55,-6,-15,-8,-16,-14,0,-7
1490821914118,79,-16,-6,-15,-11,-8,0,1,43,-17,-9,3,-17,2,0,-6
1490821914166,-51,-66,-6,-2,5,20,69,22,-84,-116,-8,3,11,-14,-32,-9
1490821914214,9,-122,3,8,14,-7,-8,-8,-4,-12,14,6,-12,7,15,-9
1490821914263,-10,-107,-11,-23,-16,-4,3,-4,24,-3,-14,8,-5,13,50,17
1490821914265,19,9,25,26,-24,22,6,-12,-45,72,0,4,8,-30,-4,3
1490821914362,-63,11,-35,-53,26,0,-8,-10,82,33,16,35,-20,-12,25,13
1490821914365,44,-2,-12,-17,-1,-31,-17,-10,-71,12,-4,-9,42,18,8,-19
1490821914410,24,-7,15,38,77,1,5,1,-3,24,9,-5,1,53,37,-6
1490821914458,51,-40,-33,25,-13,-24,8,0,11,37,31,40,41,30,-18,-23
1490821914506,7,19,26,100,-6,4,30,14,-55,-18,-39,-121,-57,-54,1,-4
1490821914508,-40,-37,-3,-24,-27,28,-6,5,-13,-18,8,10,-44,17,56,7
1490821914556,63,-35,-3,-24,-16,-31,-21,3,92,-24,-14,-78,-29,13,3,7
1490821914605,-40,-114,-2,-15,-99,15,-23,-1,8,-39,-34,-59,-43,-42,-3,5
1490821914655,30,-85,-21,-30,3,-22,45,-21,-76,-63,7,26,14,-22,-23,-39
1490821914703,-13,107,-16,-25,-12,13,-21,-11,-49,97,-30,-15,18,27,-8,-16
1490821914708,-72,6,-11,-9,-33,-29,-13,-15,21,11,18,14,17,9,21,38
1490821914753,-36,-21,7,30,-8,23,4,-12,71,16,36,92,34,42,37,20
1490821914800,45,-99,8,52,-2,-6,-13,-17,-24,-57,-3,-4,89,-13,-10,-10
1490821914848,-42,-22,4,17,11,-19,-10,-14,52,30,-11,-25,-40,-9,25,27
1490821914897,-23,48,-33,-22,-1,4,2,16,67,46,1,-23,12,19,18,14
1490821914945,49,13,-18,-35,-15,-18,-21,-14,-35,-20,-18,-67,9,-15,-25,-20
1490821914946,-30,-17,-18,-25,-31,-8,17,9,32,-17,5,20,-29,-7,-7,-2
1490821914995,-44,-40,-9,-20,8,-15,-11,-24,13,-37,11,-4,27,7,7,1
1490821915044,42,-62,-4,1,-2,-2,8,13,-66,-119,-10,-20,-9,-5,11,-9
1490821915092,-22,20,1,27,30,-15,-13,-18,-4,-25,-10,-30,19,2,12,-7
1490821915140,-80,95,-17,-24,42,-18,-31,-21,86,16,26,51,32,12,31,19
1490821915142,-32,9,-4,43,19,51,23,3,14,61,0,-32,11,11,-4,0
1490821915190,-53,110,-6,34,-16,5,17,-29,74,53,-1,-60,-4,15,-75,13
1490821915240,112,0,17,35,7,-25,43,39,-128,16,-2,-46,50,-35,-93,-50
1490821915289,35,-27,-29,-55,-32,-50,-38,-26,-10,6,17,-7,118,26,3,-14
1490821915336,45,-15,-11,34,53,62,-21,21,-47,-3,-5,-26,-86,-61,3,-7
1490821915384,-71,-37,-47,-88,32,3,-66,-53,59,16,6,104,26,-34,65,24
1490821915385,-12,21,127,-33,94,31,0,12,47,85,13,-13,-125,-50,20,6
1490821915434,-22,22,-15,-36,-128,98,60,-37,26,39,-35,-116,-128,-87,6,31
1490821915482,-53,127,22,84,-5,17,8,37,3,-46,8,-18,32,85,50,-32
1490821915532,-52,-19,-47,35,64,-100,-87,-31,-83,-22,29,-47,110,-3,-38,-27
1490821915580,30,-31,22,14,-32,-95,85,-3,-56,15,7,-66,-20,27,-53,7
1490821915628,66,66,-28,34,-71,-44,-19,-8,52,49,32,-50,-92,48,50,19
1490821915629,1,96,17,64,24,38,-17,-19,-51,114,39,70,110,46,-26,6
1490821915677,0,-63,-39,45,51,-35,-128,-46,108,30,10,12,125,22,94,35
1490821915726,-45,5,-55,-128,-128,-2,69,9,-23,23,23,115,-13,-116,-61,19
1490821915775,-3,-54,-49,-128,-69,-43,-28,32,-20,-22,23,-96,-16,18,-69,-38
1490821915824,49,47,14,97,-40,51,36,23,8,-4,-27,-39,-40,-18,-76,25
1490821915824,-10,-6,52,98,37,5,-19,-23,-21,-36,-10,5,-70,26,19,7
1490821915872,104,12,49,-8,-121,-119,7,53,-30,-14,-36,-90,38,-9,10,-2
1490821915921,-37,-4,85,37,90,60,-22,-10,9,-5,-10,-44,-111,2,11,-1
1490821915970,2,5,27,38,5,73,14,-4,-16,12,-72,-20,-86,65,110,-31
1490821916018,-9,-45,-19,41,36,-33,-6,-20,4,-38,-64,-26,-96,-32,-32,15
1490821916067,11,29,69,120,76,52,-90,-10,19,23,22,70,114,43,76,29
1490821916071,-1,-19,18,-71,38,-97,-62,8,-17,-56,-55,-55,-11,38,9,-22
1490821916116,-1,105,63,12,-124,18,41,8,6,97,14,73,127,16,-42,14
1490821916165,-6,-24,-15,-1,113,36,2,-5,15,37,-17,-81,-53,33,106,24
1490821916261,-12,-27,40,-120,94,-58,-49,-17,-16,-43,9,69,36,-22,-35,-19
1490821916262,2,-3,36,114,71,59,24,3,1,28,87,-19,-1,12,-6,6
1490821916310,2,-20,-55,-57,-86,-62,-20,-8,22,16,39,103,83,48,21,15
1490821916311,-49,-31,10,83,82,34,10,4,-3,-48,15,-71,-53,46,15,7
1490821916359,-1,-44,-42,-77,28,-64,-30,-6,-76,8,-12,-27,-64,-7,-18,-5
1490821916409,23,2,20,-82,-32,-21,-16,-5,-15,-11,-2,-18,11,-40,-25,-5
1490821916457,17,83,9,71,81,61,20,10,96,69,13,-1,-31,41,-8,-2
1490821916505,-21,87,9,-14,-56,-38,-5,16,-46,-14,11,43,30,-12,13,7
1490821916507,-57,-54,-17,23,-40,-11,-4,-1,-13,-15,64,30,-13,-15,-8,-7
1490821916555,24,-31,16,-13,-9,-1,-1,-3,-77,-56,51,49,10,7,4,14
1490821916604,-20,-30,-20,-26,29,-3,3,-3,20,-13,-16,11,21,-7,-9,-14
1490821916652,-19,3,7,-48,-8,-21,-4,1,-16,-18,14,50,2,-17,4,2
1490821916701,-98,21,-14,-10,-5,2,1,2,-35,32,26,15,3,-3,-5,-7
1490821916749,112,1,16,1,-2,5,-4,0,1,13,-34,-14,-3,-12,-5,-2
1490821916751,68,14,-37,-20,5,-15,-2,6,-12,14,15,-3,-7,-16,-15,-7
1490821916799,34,5,23,-8,-38,-10,-8,-10,-35,-54,-5,-6,-28,-4,-1,-6
1490821916895,-50,12,-9,4,-11,-9,-8,-3,-5,-2,-14,-26,-8,0,-4,1
1490821916899,12,-1,30,3,3,22,51,8,26,100,-3,27,-5,4,-71,-4
1490821916945,-2,-12,14,7,-6,22,6,2,-50,36,11,29,2,14,37,5
1490821916993,-14,-27,0,-8,1,-24,-52,-12,1,41,12,-1,-7,-5,-1,4
1490821916995,-30,42,6,-58,11,-73,-54,-27,12,22,-3,15,37,6,-10,-3
1490821917042,71,-15,-9,21,-11,29,61,25,-78,33,-4,-84,-24,5,1,-8
1490821917091,26,27,-15,-61,-77,91,14,10,-44,50,-18,-53,-13,-89,-27,-31
1490821917140,-20,14,30,-15,8,3,-58,8,-71,-6,8,13,0,-45,4,-12
1490821917188,-40,-56,-13,-3,24,-9,-37,-28,-27,-29,8,15,-25,2,37,13
1490821917190,-62,-6,-19,-39,-37,-23,50,-8,68,-7,4,-17,-20,-10,-36,5
1490821917237,-1,-21,5,12,31,72,22,12,41,-11,-24,3,-30,1,-16,-9
1490821917286,-13,8,-40,23,83,-37,-19,-18,39,-4,54,-17,-8,27,-18,44
1490821917335,48,-7,6,14,18,3,13,31,18,4,0,13,12,-40,32,-53
1490821917384,31,94,16,68,62,18,39,22,4,107,12,61,68,52,-26,8
1490821917432,102,48,37,32,-22,27,9,20,21,-8,-10,0,-17,-23,-44,-20
1490821917434,76,43,-19,10,44,-8,-23,-2,-91,-18,-8,-7,-22,26,26,-15
1490821917481,-29,-128,-30,9,49,-33,-4,-3,-26,-81,19,1,-5,14,-13,-4
1490821917530,20,-91,-29,12,-61,-20,12,6,23,-124,3,0,7,-11,14,20
1490821917578,-60,43,-27,-17,9,19,-17,-15,92,127,29,21,-28,-30,25,10
1490821917724,8,127,8,-13,3,-6,-9,-12,13,96,8,24,-8,9,-10,16
1490821917724,78,52,19,8,13,21,-6,28,38,38,-24,-10,-7,-15,5,1
1490821917725,63,-64,-3,10,-15,-10,-3,-5,-17,-50,34,-6,-3,17,20,12
1490821917726,-39,-128,-2,6,20,6,-5,-12,55,-76,-9,-19,-6,-29,-24,-15
1490821917773,-26,-6,-2,0,-14,-6,-4,-3,-23,16,-8,10,-1,-34,-32,-3
1490821917822,20,-107,-19,-8,-29,16,21,14,-26,31,8,25,16,-31,-28,-20
1490821917870,-75,75,30,50,38,16,39,-7,25,61,7,-18,-13,36,-13,24
1490821917871,61,38,-29,-26,8,9,19,1,4,9,22,14,18,-16,-16,-13
1490821917919,96,7,18,43,34,33,27,23,37,-21,21,29,10,10,37,8
1490821917968,17,8,0,-25,-35,35,10,1,13,-11,-30,-99,-31,-36,-26,-12
1490821918017,-38,-17,-3,21,-18,56,12,3,-69,-17,-29,-12,-42,-49,-44,-20
1490821918069,50,-2,11,-56,-1,-69,-9,-2,50,-34,-19,13,-75,-4,45,58
1490821918115,-50,3,2,71,111,93,65,-9,-17,-2,-7,-35,7,-33,-16,10
1490821918118,-55,-17,-46,-101,-47,-63,3,-4,109,-92,-23,-10,78,51,-91,-10
1490821918166,-57,78,69,67,73,-128,-86,-36,24,71,76,103,127,114,117,86
1490821918212,85,55,1,46,-7,-95,-117,-32,-19,-3,47,83,-127,127,95,27
1490821918261,20,62,-54,-128,-98,-32,49,18,-19,-69,-117,-10,63,-68,-114,-36
1490821918309,-5,-128,23,-3,99,73,49,-24,12,-48,37,-6,-96,-22,35,20
1490821918311,-15,-128,-37,-117,-81,-69,-16,-46,56,-128,3,16,124,-100,-5,-29
1490821918358,2,-94,-84,-94,-70,-21,10,70,-13,-12,85,-47,-93,-23,32,-53
1490821918407,17,112,12,-16,46,-11,57,57,20,94,-12,-6,122,22,-120,6
1490821918456,-20,-37,0,-1,-52,25,-20,29,-25,83,19,26,-57,11,74,-32
1490821918505,55,-74,19,123,-107,27,-112,-85,-87,-89,-30,-128,-128,19,122,-25
1490821918553,22,9,-37,-24,7,-73,-38,-7,-26,31,-78,11,85,57,-24,-7
1490821918554,-21,-63,13,10,17,32,74,1,-20,-67,-16,-15,56,67,59,25
1490821918602,-13,55,11,86,13,46,3,-8,75,116,18,-89,-110,-30,-56,-8
1490821918651,-10,-13,23,65,-61,127,15,62,-19,-3,28,19,127,5,14,-25
1490821918700,-36,-14,14,-98,44,-128,-122,-58,-23,-59,-16,47,-69,13,-1,-43
1490821918749,0,-77,-128,-128,-26,-34,-97,-7,-32,-27,21,127,108,89,32,-26
1490821918797,29,19,-37,69,-42,-52,94,-1,-17,-13,-80,-100,-125,-128,-95,-21
1490821918798,13,-9,-7,-95,-69,116,93,25,-16,-7,-23,-72,-78,-109,-100,-21
1490821918846,-22,11,-69,42,86,-67,-25,-42,-11,66,47,127,84,127,21,-12
1490821918895,2,-35,-12,-31,48,-2,-16,-7,13,-25,91,106,75,55,92,26
1490821918944,22,42,-34,41,79,59,35,28,8,96,102,-94,-114,15,-30,0
1490821918992,-4,-30,30,-100,34,-17,-1,6,2,-44,5,77,75,74,38,17
1490821918994,11,-10,55,56,13,28,12,16,-8,-52,-71,-111,-37,46,20,-14
1490821919042,3,28,-18,52,-68,-25,-22,-7,-1,-6,20,72,10,-26,-11,-4
1490821919091,-1,-61,-79,-82,-91,-51,-4,1,0,-47,22,-2,-45,-34,-16,-6
1490821919235,-5,-4,-67,-70,-25,-30,-29,-8,-49,36,20,39,16,-9,-8,8
1490821919236,-9,87,-24,22,-4,-3,-9,-16,-13,52,30,-10,-8,6,5,12
1490821919237,-32,-41,-6,3,-38,-11,-2,-10,-39,115,-14,3,-15,-4,-6,12
1490821919238,18,23,-35,18,28,-17,-8,-1,9,63,-35,-32,23,0,-1,-3
1490821919286,-32,-72,30,26,12,-1,9,-7,26,-81,-27,-25,17,7,18,10
1490821919333,-18,-13,-23,-21,-17,-7,-9,-5,-16,-7,31,2,19,11,12,2
1490821919383,-50,77,-9,-1,3,11,3,3,17,40,-16,-1,-8,-2,-4,-8
1490821919479,21,-45,28,0,1,2,5,-11,57,-20,1,39,14,2,8,6
1490821919480,-65,-36,6,32,0,2,4,4,-5,44,-25,-46,-16,12,2,-3
1490821919481,127,30,-34,-34,-10,3,1,9,67,-9,14,14,-2,-9,-3,8
1490821919528,-81,29,-24,-1,-5,-6,-7,-5,-51,30,6,6,-2,-13,-1,3
1490821919577,-56,3,11,-4,1,-1,-4,-4,-27,-9,-8,-2,-3,1,-4,-6
1490821919627,-11,11,-6,-20,-8,-5,-7,-4,0,-53,-12,3,-11,3,3,-1
1490821919674,-11,-68,-1,6,7,6,3,5,-108,-87,-2,2,-4,3,4,-4
1490821919675,-17,17,-10,2,-4,-2,-5,-7,68,113,13,-5,9,-3,6,2
1490821919723,6,82,-16,0,-9,-5,-7,5,-19,100,-41,-53,-9,-16,-27,-12
1490821919772,5,17,29,40,94,40,-36,-3,-22,6,-10,-20,-13,-27,1,-28
1490821919869,61,-2,-6,-3,-26,-23,7,7,-41,-5,8,18,23,-11,63,-13
1490821919873,-33,5,3,38,-2,-7,-32,27,54,-2,2,16,15,72,48,-1
1490821919918,34,99,18,45,58,43,-27,2,-16,66,-3,29,-64,-39,-24,21
1490821919919,17,12,-19,7,9,-13,-28,-1,12,-5,42,36,-78,-25,16,12
1490821919969,-47,-6,-9,31,-84,-43,-19,8,84,9,-18,-125,-111,18,6,13
1490821920017,22,-8,-21,-35,4,-45,-30,18,-82,-19,0,-8,-54,-18,-37,-29
1490821920065,18,-27,8,10,54,12,98,22,-18,-36,-25,-7,36,-36,-76,-43
1490821920114,19,-99,-16,-82,39,-27,-30,11,-74,-111,-8,30,-21,0,14,-18
1490821920162,86,103,-2,25,-30,60,44,51,-30,35,-7,0,21,-39,-46,-12
1490821920164,-53,20,-11,50,-93,-31,-14,-22,123,79,8,-26,42,38,16,31
1490821920212,36,-39,2,37,34,49,40,25,89,-30,27,40,-52,-4,6,8
1490821920261,77,48,32,13,-20,-7,-23,11,-8,33,32,71,38,19,38,9
1490821920310,-7,72,26,63,-34,12,-5,-13,10,11,-40,-14,-25,-10,5,15
1490821920356,3,-72,-5,-50,-35,-4,-18,-8,3,-44,-17,19,2,-39,-28,-5
1490821920357,15,-61,-37,-48,-23,-4,18,7,-64,-70,7,-17,-4,-11,-15,-16
1490821920406,-42,122,26,26,3,14,15,26,-74,36,23,58,61,22,1,-27
1490821920456,110,66,24,-2,-16,21,23,32,-103,51,3,-12,-45,5,-2,2
1490821920503,12,-67,5,6,26,7,4,-7,26,-38,-21,-29,-4,9,20,7
1490821920553,-12,-110,9,-4,15,5,4,-3,74,-61,12,-3,23,18,24,16
1490821920649,17,-14,38,45,22,-4,-12,-11,-46,-66,-27,-23,-17,-7,-19,-1
1490821920651,23,-48,-53,-23,-27,-15,-17,-13,-18,-12,4,-23,14,-43,-30,-17
1490821920652,85,48,-10,-39,-21,-10,14,20,-85,35,12,15,-29,4,-13,-15
1490821920698,-36,-74,-19,-28,7,36,-4,1,89,-28,-5,-4,38,-7,-17,1
1490821920747,32,28,-7,-31,-59,-72,-6,10,-53,10,-36,-33,-11,-5,-88,-41
1490821920795,-58,31,-8,-65,-60,-51,-48,-53,12,-30,5,32,78,80,27,13
1490821920796,54,-21,-13,-13,22,23,20,-5,-32,20,-14,-44,-6,-81,-42,-40
1490821920844,67,6,71,120,127,103,-13,57,-6,-21,29,57,-92,-44,-78,-27
1490821920893,-15,28,-34,-50,-72,-58,29,-22,-96,-29,-27,-128,54,16,-16,29
1490821920942,-45,-49,55,44,73,-8,-54,10,25,-37,-39,89,11,-26,0,-2
1490821920991,97,-17,-10,-34,-105,-41,-54,-34,-20,52,31,108,124,-62,16,46
1490821921039,57,74,-35,-96,-128,-20,124,-5,-53,108,55,41,52,43,121,45
1490821921041,-94,44,21,64,21,15,73,84,11,17,12,-37,33,-61,-123,-74
1490821921088,-33,5,13,101,-102,119,-66,29,-94,-1,45,64,-59,-104,-113,-21
1490821921137,86,-108,-44,-128,107,-34,-2,36,73,-14,-18,-81,34,127,127,58
1490821921186,-128,-128,-22,-88,-37,-32,-44,-66,47,-64,-31,-91,-128,-86,-78,2
1490821921235,0,3,2,-89,-8,127,110,51,59,-71,73,111,127,73,110,89
1490821921284,-37,8,35,75,-59,-128,-87,-75,34,14,-62,55,127,127,127,22
1490821921286,8,63,-38,-60,-97,-44,41,31,-65,38,-16,-20,40,-45,-39,-12
1490821921333,15,-24,33,127,26,46,68,46,-45,1,15,-18,77,127,96,-11
1490821921381,7,-1,47,57,37,127,99,24,12,-81,-26,-105,-80,-14,-33,-31
1490821921430,-21,6,-36,-25,98,29,5,18,14,6,20,118,-16,-32,2,2
1490821921478,12,48,-33,-128,16,52,-34,12,-21,-37,-18,16,-57,20,15,-6
1490821921480,12,46,-1,96,14,75,14,-34,-1,123,32,127,127,-6,32,21
1490821921528,-28,-31,-33,28,34,44,-6,29,-5,-9,70,2,-112,84,45,29
1490821921576,38,18,45,-85,-104,-98,-55,-11,26,-13,-9,-117,-30,68,-30,28
1490821921624,-8,-7,59,-56,88,-23,-33,-16,-27,-8,-27,-94,-85,-27,9,-9
1490821921674,13,14,-46,34,82,56,44,8,-2,-28,-47,-96,-3,-43,-43,-18
1490821921722,16,-19,-2,90,57,-39,1,2,8,-52,26,123,-64,57,43,27
1490821921727,124,-29,11,-32,-51,-32,-10,15,56,10,-23,-34,126,70,43,1
1490821921771,-16,5,-27,-7,-14,-17,15,5,28,28,-61,-29,-50,-41,-20,26
1490821921820,63,-5,20,112,-11,59,45,7,66,7,-20,-12,33,23,-12,10
1490821921868,-124,-8,-23,-47,-45,-4,-16,-8,25,8,-12,-3,-9,-5,-5,17
1490821921917,-95,-8,12,29,71,11,-6,-1,-125,3,-15,-5,12,13,8,-15
1490821921965,80,3,13,-11,-45,11,7,15,-19,28,-1,-128,-32,-58,-23,-11
1490821921966,-22,3,-12,-39,70,-2,-9,-12,27,-13,-6,-16,27,-22,-17,-7
1490821922015,-1,11,-2,-13,-3,2,3,2,-92,-11,12,-3,-13,-4,-13,-35
1490821922064,64,-7,-48,-13,2,14,1,18,0,5,26,-12,-25,6,-8,-8
1490821922113,-13,74,-5,-3,-11,8,1,10,59,-53,-11,0,-8,6,2,9
1490821922160,68,2,-1,-10,-18,-40,-15,16,14,-7,1,3,-12,-22,-7,-15
1490821922162,86,-88,35,19,-12,-22,1,1,-104,-32,-1,-11,-16,-29,-9,-3
1490821922210,112,3,-2,2,-11,13,4,-9,50,16,-11,18,-2,2,-10,-6
1490821922258,-128,-11,5,23,14,-10,-17,-12,-69,-38,-2,11,10,45,49,23
1490821922307,-48,-105,-7,-19,-29,-22,-37,-12,85,-41,26,-12,1,-4,22,11
1490821922356,-56,-17,-21,-2,43,9,-26,-21,-26,-60,12,-3,-9,-4,70,14
1490821922404,-47,26,-7,13,9,-72,-66,-2,-18,80,-9,41,-14,31,7,6
1490821922406,23,8,23,19,50,-4,-30,5,19,26,0,4,42,-11,8,17
1490821922455,71,67,4,-90,-21,-108,-124,-12,-65,73,-5,-50,-8,-54,-75,-1
1490821922502,22,2,6,68,84,81,-19,-24,2,-59,-15,-64,-110,-81,69,-20
1490821922551,-80,-22,18,37,-54,13,-31,-29,-9,14,44,31,-53,-14,17,17
1490821922600,-81,-6,-23,44,25,113,70,-21,127,32,13,28,13,7,-42,51
1490821922648,94,-29,-81,-7,40,7,24,9,-128,-7,20,33,52,-66,-28,-22
1490821922651,51,-7,-70,-25,16,-17,14,-20,-8,9,12,-24,-18,17,-15,21
1490821922697,-60,-33,19,8,12,-47,-97,-35,-19,-7,-25,-49,-18,-3,20,1
1490821922746,94,58,-20,-18,10,16,17,23,-84,-7,48,43,1,10,-4,-26
1490821922794,-58,17,30,-42,-22,-9,-38,-25,20,21,-18,-21,3,-5,31,22
1490821922843,-62,-35,-9,47,-4,-15,-14,-23,16,5,-16,-35,-1,36,35,5
1490821922844,-80,-25,-15,-59,-23,4,-7,-6,64,-52,-3,-15,-15,-6,21,2
1490821922892,-64,72,-7,9,4,-27,-26,-42,82,64,38,26,15,13,3,43
1490821922941,96,-62,-2,-29,12,-12,-22,-5,-75,-8,19,-6,34,5,8,-7
1490821922989,15,51,-9,38,-19,15,20,-4,77,86,-10,-28,-22,3,14,9
1490821923039,-43,-34,-7,-22,-12,3,-18,10,60,-2,27,41,-27,32,13,13
1490821923088,-20,16,0,-1,30,3,8,-5,45,33,0,10,29,4,-10,-8
1490821923093,-77,111,3,9,-2,14,17,-11,35,108,-27,-21,-55,7,2,3
1490821923137,61,-101,-12,-32,-13,10,-10,-3,-30,-99,13,22,15,13,12,4
1490821923186,34,-15,-6,-2,-6,-5,-14,-8,-22,-31,2,-8,22,29,47,22
1490821923233,39,-5,-11,-35,-5,-33,-37,-9,-53,-2,6,12,7,12,21,-1
1490821923281,16,1,37,55,-32,-7,-16,-19,-40,-3,-8,7,-26,8,30,32
1490821923283,45,-2,-26,-47,5,-28,21,-5,-107,-2,11,12,12,-15,-77,-29
1490821923331,-32,0,3,-12,-21,-12,28,12,33,-1,25,45,-2,26,-2,-7
1490821923379,103,0,7,8,17,-40,-46,17,-19,-1,30,53,3,11,-7,-14
1490821923428,-128,-31,28,-15,28,105,39,-6,62,9,-4,18,13,-41,-3,9
1490821923477,19,-39,-14,44,-83,93,13,-2,-19,-4,21,22,15,-18,-22,-22
1490821923538,-21,39,4,28,58,-64,-21,17,83,18,-52,-22,-62,17,17,-16
1490821923539,-64,-26,-5,-1,-37,6,-61,-35,32,28,26,83,33,18,56,49
1490821923574,91,-87,5,64,112,-70,11,25,16,-107,28,47,-22,63,22,20
1490821923623,71,7,-30,-48,-34,-10,-44,9,-20,109,36,3,47,-96,-48,-35
1490821923672,43,46,73,114,108,-7,19,15,-92,31,91,94,-59,111,-28,-21
1490821923721,106,5,29,-78,61,36,96,13,4,-3,-10,-43,-35,-42,-82,41
1490821923769,12,1,5,101,-55,84,8,-18,71,0,69,-82,-97,112,115,35
1490821923770,-92,-2,-51,-33,35,-84,-103,-56,-107,0,-15,19,58,-68,-56,-6
1490821923818,-6,32,-21,-128,-34,-127,81,-13,-10,-66,-21,67,64,40,-69,55
1490821923867,-35,54,-6,8,108,54,-35,14,41,15,57,127,92,70,76,-43
1490821923916,-25,-89,23,82,-24,51,36,29,-12,-53,-76,45,109,-28,104,-33
1490821923964,46,-22,-54,-86,-80,-93,-47,8,21,89,-21,-5,-123,97,-89,14
1490821923965,-30,52,99,74,67,-3,89,45,-9,64,25,15,-83,12,-10,26
1490821924014,23,-58,-33,0,10,68,13,12,-28,-1,25,-30,-58,47,11,-8
1490821924062,-54,1,4,81,127,-121,-77,-54,81,19,-23,43,-90,88,-30,23
1490821924111,0,10,-41,-118,-102,-81,-105,0,-3,-37,-20,25,-54,47,83,29
1490821924159,10,18,5,95,67,73,-6,30,28,-8,20,40,-104,-64,-86,73
1490821924208,2,-15,13,-8,75,107,122,54,-8,4,-57,82,33,-53,73,-10
1490821924209,2,-14,30,-78,-128,-83,-35,-4,-2,-13,-68,-128,14,57,60,-29
1490821924257,21,15,18,-2,68,34,16,-8,-20,-41,-34,18,66,18,-72,-6
1490821924307,-1,23,100,59,-22,118,70,-8,28,33,13,-3,43,-2,-6,11
1490821924355,-15,-30,-35,3,-83,-39,11,-21,8,-25,46,93,-63,60,-7,14
1490821924404,13,-4,40,5,52,19,61,22,-26,-14,-29,-128,-54,-37,-128,0
1490821924451,14,-27,-9,89,-16,16,33,6,-17,-40,-56,-67,127,-9,-21,-15
1490821924453,10,31,-19,25,13,51,38,5,3,9,19,-91,50,-49,-38,-14
1490821924501,0,-21,-26,-110,-128,-41,-8,-5,0,-4,-61,-99,-6,-76,-62,-17
1490821924549,5,-19,7,-107,-63,-7,-11,-8,-4,-16,-16,41,55,3,11,5
1490821924598,20,-18,-9,25,-13,-31,-7,-2,-31,-25,15,89,49,37,27,5
1490821924647,3,-1,-28,55,-16,2,9,12,-28,15,117,118,50,85,45,25
1490821924648,-52,76,10,16,16,31,7,12,49,47,-17,-82,-70,5,-25,-17
1490821924696,60,-62,28,34,59,25,10,7,28,-62,-27,31,49,58,22,0
1490821924745,39,4,64,99,127,63,50,9,104,-23,46,92,58,11,24,9
1490821924793,-41,5,-54,-22,-14,13,20,12,17,0,47,15,30,-7,-20,-4
1490821924843,45,-23,22,57,36,6,7,-5,44,7,35,23,31,25,14,11
1490821924891,6,-4,-17,-17,2,6,8,2,49,-18,-37,-47,-44,-33,-11,2
1490821924893,-19,7,13,-2,-15,-14,-1,-8,-9,1,-20,-16,4,-7,2,-2
1490821924940,-18,-10,-10,-6,-17,-1,-3,-2,15,-3,9,30,5,8,8,-3
1490821924988,-28,9,15,2,26,20,2,8,51,1,1,2,-17,6,-7,4
1490821925037,82,24,-28,-13,-4,-24,-2,-7,-1,46,7,25,15,-7,1,-1
1490821925086,-21,10,3,11,-18,-6,-2,0,-72,74,-6,2,2,10,3,5
1490821925134,58,0,8,16,2,14,5,6,-20,-4,-3,-15,-24,-8,-16,-16
1490821925183,-80,-84,-9,-3,-20,-30,-53,3,-91,-67,23,7,-12,-7,32,-10
1490821925184,-22,85,-37,-13,-29,-6,15,5,28,9,1,21,-2,35,11,15
1490821925280,2,53,11,-2,2,47,24,18,-20,-92,19,3,-20,-6,-11,-36
1490821925282,-1,78,30,102,33,-59,-44,-25,5,70,-14,-57,-41,69,-16,5
1490821925329,-4,-8,-1,17,-8,75,19,5,-6,9,-10,-53,1,-128,-35,-7
1490821925331,23,33,-15,-62,17,-13,24,20,5,55,-33,-82,-35,-28,-13,-11
1490821925378,113,-25,15,126,-3,32,18,30,-79,19,21,-2,-68,-13,-11,-13
1490821925428,-100,-15,8,56,-120,32,76,29,20,-37,-26,-95,16,-51,19,10
1490821925476,26,-15,-1,-53,56,23,3,-7,33,-8,-4,42,39,11,-3,48
1490821925526,-29,9,22,-39,53,9,7,-17,-14,6,-29,27,-22,-22,-9,-15
1490821925572,24,-17,-46,-88,-66,-85,-25,-9,53,38,24,55,79,60,50,-4
1490821925574,20,-27,-16,-66,-59,-36,-38,10,-14,13,-1,6,27,-14,-43,-10
1490821925622,8,7,8,-8,6,48,22,-4,6,-28,2,20,2,-4,-11,3
1490821925671,-4,21,-7,-33,-30,27,35,-9,-28,-14,4,22,37,6,17,4
