1490821432083,-28,-112,-12,-77,-88,-60,100,-19,15,-118,13,67,94,-39,-98,-43
1490821432132,30,80,5,11,54,25,34,16,-40,67,-6,3,106,20,82,39
1490821432133,29,-16,-49,-104,-65,-3,-22,-3,-34,34,-16,59,5,11,-8,7
1490821432181,9,19,-25,-67,-67,-54,71,18,-94,-12,-58,-128,-128,-55,-40,-73
1490821432230,-71,1,-17,-10,108,27,-21,-33,32,-33,-46,-128,-128,-44,36,4
1490821432278,40,39,5,15,86,127,-88,31,23,39,2,43,-22,-116,64,37
1490821432327,42,27,66,127,123,127,25,18,-38,11,6,22,-36,-14,15,14
1490821432375,-29,-51,-25,54,80,15,-89,-12,36,-4,59,127,127,125,127,21
1490821432376,-32,-39,-35,9,78,-118,26,-8,75,-1,20,105,50,81,-83,53
1490821432425,-40,-19,-39,-128,-128,32,68,-55,4,-2,35,-2,79,-52,-28,-5
1490821432473,-24,9,39,127,98,79,-85,-9,-3,-1,-43,-54,-128,-74,9,-14
1490821432522,32,-20,-7,45,88,-84,4,10,-5,9,25,75,68,65,-38,-6
1490821432570,16,64,-16,-6,79,-72,-6,-9,-8,107,1,-7,10,18,32,-8
1490821432572,2,-19,3,50,-79,33,92,20,-1,-15,34,-54,44,-20,-116,18
1490821432620,10,51,37,61,-83,27,-33,41,28,9,19,-88,-128,-27,-28,-14
1490821432668,-26,-44,-54,-103,-19,-58,16,-24,-4,59,-15,-39,85,26,67,30
1490821432717,10,45,5,12,69,-49,-58,-14,-7,-43,-6,99,-31,48,-46,-10
1490821432766,1,-18,-48,56,86,33,55,9,5,18,55,99,4,35,-1,-1
1490821432814,2,-24,39,37,69,93,36,7,6,-56,-69,-109,-90,-19,19,16
1490821432815,-3,21,-24,-32,-53,-77,-12,-6,-26,1,1,1,24,-6,3,-4
1490821432863,8,8,-7,-38,11,14,14,7,7,16,-11,26,-7,-4,0,1
1490821432912,10,49,-8,-10,-17,-44,-10,-11,17,-14,6,-2,-12,-4,-5,2
1490821432961,6,-21,-18,6,25,12,9,-2,-7,-31,0,2,10,2,11,2
1490821433009,0,111,7,-36,-39,-30,-23,-13,4,9,-2,-17,4,-8,-11,-4
1490821433010,0,-101,10,-13,-5,6,-1,2,-2,-27,44,-6,-17,-3,-14,-12
1490821433058,15,-60,-15,-5,15,-1,0,8,0,-24,-12,-1,1,5,13,9
1490821433107,-3,127,47,55,7,13,-1,4,11,26,-26,-16,5,-1,-1,-4
1490821433156,-12,-74,-16,30,6,-19,9,2,-47,-39,-27,-34,19,9,9,6
1490821433205,12,-7,19,11,-1,-5,-8,-3,-27,3,-25,-22,12,14,12,6
1490821433253,-4,-3,39,38,27,21,-6,-1,-16,3,42,47,32,24,12,3
1490821433254,-13,-6,26,3,-39,-25,-20,-13,-3,1,-4,-12,-3,-18,-1,-4
1490821433302,7,-3,14,9,-20,-9,-4,-5,-40,3,8,-31,-4,3,-4,-6
1490821433351,-9,34,-30,-29,0,-6,9,11,3,27,23,3,-14,-11,-5,-6
1490821433400,-7,-13,-12,-29,-8,11,3,9,34,-38,-11,-1,-2,14,0,-2
1490821433448,-6,-17,-43,6,29,30,5,8,4,0,32,-14,-27,-2,-6,-2
1490821433496,-19,-11,3,-21,-8,-8,-9,-4,-1,54,-33,-4,-6,0,-12,-8
1490821433498,10,-128,5,-2,0,0,0,-8,-4,-97,-26,-3,3,3,8,-6
1490821433546,-4,-7,-14,-4,1,5,5,17,-5,66,-2,16,-2,3,-6,-2
1490821433595,-36,63,-5,-1,3,-3,-15,-16,10,18,-11,-30,12,10,-5,-3
1490821433643,-9,96,8,38,0,12,5,-1,-4,89,9,-8,-3,-3,-13,-8
1490821433691,-9,12,-2,30,5,-11,3,13,26,72,-29,-25,-5,10,-2,2
1490821433693,11,80,0,-11,-3,-1,-6,-6,-69,-62,-6,1,-6,-19,-19,-3
1490821433741,0,-116,-42,-45,-10,10,-37,-3,-4,-128,4,10,-18,15,47,-12
1490821433790,3,-57,11,9,6,-8,8,5,-18,-43,3,4,18,-34,5,-22
1490821433838,21,-21,-5,-4,-21,37,8,11,66,-26,4,31,121,-1,-2,11
1490821433935,6,-18,-10,-18,-6,69,17,7,-48,-57,2,-69,-8,-59,-27,-9
1490821433936,43,31,25,46,-8,17,-21,35,-9,46,7,-4,-8,73,-13,5
1490821433938,11,13,-2,-3,-47,2,-32,3,17,-8,-3,-3,-7,-10,8,8
1490821433985,-48,30,15,49,29,-92,-12,-5,104,30,13,3,-41,43,-1,10
1490821434033,19,-19,-17,-71,-66,-40,-8,6,-72,-17,-9,-16,-92,-71,-88,-19
1490821434082,54,-14,-3,11,-4,1,34,34,11,-42,-18,-42,20,27,-58,5
1490821434131,35,31,9,15,26,52,52,9,-52,-7,-9,10,97,-61,-42,-24
1490821434179,-44,-1,-19,13,17,55,-71,8,5,66,4,25,39,20,127,5
1490821434180,-116,32,-13,-59,-81,26,1,-10,127,25,-2,-10,9,2,-13,3
1490821434228,-44,-41,4,12,24,38,7,-6,14,6,-9,-18,-8,-35,-50,-35
1490821434277,0,31,4,17,-17,-13,-85,-15,-14,-13,4,12,36,19,-25,-4
1490821434326,4,-27,-5,3,-9,-59,-59,-24,-43,-17,-9,-24,-37,18,25,3
1490821434374,10,-12,-15,12,17,24,8,2,23,-12,0,-5,-2,8,51,16
1490821434375,-15,21,9,-5,-6,-40,0,-25,-22,-12,-7,-5,-28,-8,-69,-3
1490821434424,2,50,-2,6,2,22,33,4,5,-11,-1,6,-15,8,-19,13
1490821434472,5,29,-11,-9,15,11,28,2,-14,-17,-8,-6,-8,-14,1,10
1490821434521,27,-70,12,19,9,-12,-32,27,3,-39,-11,-15,6,4,4,-5
1490821434570,-92,-6,-3,-16,-15,-17,-9,1,42,-5,6,-25,-16,-6,54,8
1490821434618,15,-5,0,14,3,18,20,13,53,1,-3,-13,-2,7,-17,-3
1490821434619,-6,-1,-1,16,14,8,54,-1,11,2,12,10,3,-13,-17,-1
1490821434667,-10,-1,-2,-16,-8,-16,4,-3,23,0,4,4,-1,6,4,2
1490821434716,18,-9,4,18,1,5,-13,6,28,-9,7,9,3,-1,46,7
1490821434765,8,-31,1,-8,2,-4,4,17,-6,19,16,26,11,16,-23,5
1490821434813,-14,117,-2,6,-7,-27,33,-21,-28,50,2,2,-9,-1,-56,-16
1490821434861,29,66,-14,-3,20,103,22,-2,30,39,-2,1,-16,-76,31,13
1490821434862,-17,-7,-6,-33,-35,-29,-16,2,33,0,-22,-9,-27,22,12,9
1490821434911,49,8,-8,-19,-44,-74,-53,-6,-64,-34,-9,-18,-1,9,-38,-9
1490821434960,7,14,4,-25,-69,79,75,34,58,-26,-9,-2,-48,41,-18,-7
1490821435008,63,9,14,-25,-74,-43,84,35,-51,-32,-33,-54,-8,17,-120,10
1490821435056,-45,8,2,-8,-40,-24,-11,-10,-19,-31,-13,-23,-99,-115,-107,-37
1490821435058,-12,39,13,83,-59,-64,72,-16,-49,77,-14,-27,12,0,-111,0
1490821435106,17,-70,-14,82,127,121,32,33,-53,-90,4,-9,-57,-75,-49,-37
1490821435155,59,-30,-30,-37,-50,-32,-16,36,-43,-24,18,81,127,127,127,15
1490821435206,-10,-4,17,-13,-109,-125,-128,53,49,-2,58,-24,104,91,50,-37
1490821435253,-50,-1,65,119,127,10,-111,12,14,-2,27,127,111,62,62,-34
1490821435301,-89,0,-8,-71,-75,-49,98,-34,99,-1,-39,-118,-100,-49,-91,10
1490821435305,37,0,39,78,27,53,-128,52,10,-1,-19,-28,51,-103,36,42
1490821435350,-6,-1,31,95,115,127,125,39,-19,-1,-24,11,-50,19,115,44
1490821435399,27,-1,-66,-117,-38,34,-30,3,-49,0,-2,0,-12,-81,-76,-76
1490821435448,-12,-1,23,-61,-62,53,45,-59,28,-1,47,97,16,-5,-42,-19
1490821435496,6,-23,22,54,-60,-80,-89,9,-29,-111,40,-3,18,44,127,-12
1490821435544,-8,111,28,58,56,41,70,21,33,127,-20,-42,-117,39,6,47
1490821435546,-6,54,-14,62,-19,-4,69,-18,-5,56,0,54,127,63,-7,-4
1490821435593,17,2,20,6,-4,21,-37,0,1,13,23,72,127,93,41,20
1490821435642,-23,-1,-42,-99,-70,-80,-42,-11,-10,3,32,-73,-68,-24,49,-1
1490821435788,7,-1,34,14,84,23,-3,13,11,1,-23,1,-37,38,60,5
1490821435790,-12,-1,35,-25,0,-25,-4,-9,-5,0,-35,15,-5,-12,-21,-9
1490821435791,3,0,32,59,20,19,46,12,10,1,16,11,2,-47,-49,-5
1490821435792,1,0,-6,5,-8,-17,-14,-4,-21,0,-11,-4,6,7,32,-5
1490821435982,-18,0,-38,-24,55,-5,-7,-11,14,0,-26,11,-32,12,-10,0
1490821436130,2,7,8,-29,-35,1,4,-5,14,8,4,16,11,2,3,8
1490821436133,17,-47,-33,-17,-51,-13,-10,9,-17,-81,-5,42,16,-4,-6,4
1490821436134,1,-24,0,1,-5,3,1,1,-22,-42,-31,-24,23,-19,-9,-2
1490821436136,32,60,-17,-30,-11,2,-8,-5,9,35,57,-7,19,13,3,7
1490821436226,6,-55,17,50,16,0,2,3,2,27,-8,-31,-4,-4,-5,3
1490821436227,-29,-126,8,-16,-7,9,8,-3,4,-103,-26,-13,10,13,4,2
1490821436228,-17,30,-11,8,-11,-4,0,8,32,58,21,4,10,-6,0,-1
1490821436229,-39,-28,12,45,24,5,1,-4,17,-18,-10,4,-24,-2,3,2
1490821436277,4,-14,-7,0,-6,-5,2,-3,10,-14,6,24,13,11,4,-2
1490821436279,-34,-52,-2,3,-9,-5,-1,-4,52,-63,10,-6,-7,-12,1,9
1490821436281,-25,-14,18,6,-12,-27,1,-11,-9,-25,-22,-27,-15,-29,-4,-8
1490821436324,2,45,-14,-21,-7,-5,-31,2,-36,-45,-21,3,-12,-4,17,-6
1490821436373,-2,53,15,7,-22,13,8,1,14,23,-18,12,0,-4,-1,-3
1490821436421,-9,-46,3,-16,-19,-30,10,-7,24,-39,5,33,7,-15,-53,-16
1490821436422,-8,115,2,27,7,13,3,-3,8,94,-13,2,-10,-17,3,2
1490821436572,20,59,7,9,-13,1,-1,-1,2,-10,-2,5,19,50,30,8
1490821436576,-16,-128,18,11,-1,3,-1,9,37,-128,-7,18,-11,14,7,4
1490821436618,18,-23,7,-38,6,-15,6,2,-7,-6,-18,-44,-13,-36,-1,15
1490821436623,-27,-25,-13,-47,36,-35,-49,-16,5,2,9,34,43,12,-40,-27
1490821436665,4,2,-20,-22,-36,-23,15,2,-30,4,4,0,37,-8,-5,9
1490821436666,11,-16,-15,-9,38,-74,-55,6,-23,22,11,5,-57,34,0,-5
1490821436714,14,58,21,13,-35,-22,-11,-2,-21,36,0,41,67,35,39,1
1490821436763,-92,-33,3,30,-21,16,58,-20,113,-5,6,21,62,-22,-13,13
1490821436812,52,38,5,16,-73,10,19,14,-2,55,14,-50,-100,-19,-7,2
1490821436860,-25,-9,-16,-48,-23,-14,40,-13,6,-61,6,21,30,-5,-15,1
1490821436861,22,-49,-9,3,25,49,-9,-10,43,10,5,22,24,-13,-14,31
1490821436910,-4,54,-3,12,40,-15,36,-3,25,92,-14,-45,-108,25,3,-12
1490821436959,-56,-31,12,17,7,-47,-44,15,37,-29,-9,2,-16,-56,-21,-9
1490821437007,-27,34,-2,-2,25,50,-13,-6,94,34,5,25,10,-12,55,35
1490821437056,1,-62,-7,-7,-13,-31,2,-4,-7,-77,-13,-17,-24,22,5,22
1490821437104,0,-13,-29,19,19,-42,-86,-2,-54,-10,17,-3,-3,11,94,4
1490821437107,18,-2,-17,-43,-79,-51,-20,-1,36,3,-5,-11,-22,-2,0,-4
1490821437155,18,2,1,0,12,-7,36,13,69,-3,-10,13,11,10,-24,-4
1490821437202,-24,-1,4,4,2,-24,2,-9,-3,-1,-3,5,25,45,-16,11
1490821437258,49,0,15,10,2,-2,26,6,-27,-1,-1,-12,-11,6,-20,-13
1490821437347,-2,-1,-5,0,-20,6,15,14,-13,-1,-2,-19,-11,-12,-11,-13
1490821437348,-16,0,0,-16,-9,-19,-7,1,0,0,-3,-1,1,9,13,14
1490821437349,1,-1,11,20,-6,-56,-32,-2,35,-1,-7,-15,-10,-9,-32,4
1490821437397,-8,-1,-4,-9,6,23,47,4,-6,0,-4,0,3,-19,-66,-16
1490821437446,24,-76,-13,-1,-6,9,16,11,4,-78,-2,10,-18,-2,-14,-3
1490821437494,-40,-65,-8,-7,4,-4,3,-16,16,-87,-7,5,7,6,15,-3
1490821437542,1,59,-4,-11,-18,-22,15,-4,23,98,1,18,-13,1,-63,12
1490821437543,11,37,-13,-11,13,27,33,9,-19,35,4,4,4,-19,-9,0
1490821437592,-59,-32,15,25,-35,-16,-52,-8,-24,2,-11,14,16,-13,64,-12
1490821437641,3,18,-9,-12,-23,-32,11,21,-31,-1,-7,-9,-11,60,58,-9
1490821437690,91,16,16,27,-12,-46,-18,14,-17,8,-11,-12,-7,13,9,12
1490821437738,-16,-10,-1,21,16,-34,26,-19,102,-5,-5,11,9,15,-86,19
1490821437786,-9,-19,-5,19,-47,-8,26,9,62,-18,-15,30,11,18,32,15
1490821437788,-29,34,-8,-76,-6,76,26,12,-21,116,-9,-6,-86,-118,32,4
1490821437836,-43,-64,-12,-47,-33,-95,-9,-20,-11,-80,-18,-123,-102,43,33,22
1490821437932,-11,14,-10,7,87,43,-54,25,7,-42,1,-25,-76,-86,-128,-36
1490821437934,-12,-61,7,-34,-128,-75,8,-29,-50,-61,-13,-58,40,24,-67,-18
1490821437982,38,2,20,94,-46,-4,43,13,-84,17,-37,-67,-128,-128,-51,-19
1490821438030,19,17,-11,31,11,15,8,3,19,7,13,-5,74,127,45,42
1490821438032,-25,-32,-48,-78,-59,-97,-82,9,-8,48,-10,-49,79,78,-2,-72
1490821438080,70,-18,-24,-85,-17,108,-10,42,13,18,44,42,104,114,61,-39
1490821438128,-65,39,-17,62,18,101,76,0,35,6,-37,-68,-69,-91,-11,-13
1490821438177,-13,-48,-59,-128,-46,-75,-45,-27,-15,1,62,69,18,-2,-35,-59
1490821438226,52,23,16,-10,-36,-70,-62,10,-18,-23,-46,-118,-46,-70,24,-18
1490821438228,-26,-56,-15,-93,-120,-101,-112,-92,-31,-39,-58,33,77,101,35,-18
1490821438275,-32,41,-29,-45,-66,-60,53,14,-6,-35,-27,-25,-66,25,26,-32
1490821438324,48,85,99,34,-14,117,86,109,14,61,-23,-14,72,-103,-82,-51
1490821438372,26,22,1,-11,-76,74,-108,12,-27,26,-51,-53,-128,61,107,91
1490821438421,10,15,0,72,-35,-22,46,6,23,1,69,34,25,-36,-65,16
1490821438469,11,1,-41,73,44,11,92,39,18,-1,31,-68,-72,-104,2,12
1490821438471,-13,2,-10,90,124,10,-46,-18,5,1,-33,-18,27,2,0,-1
1490821438520,-15,1,11,35,107,20,-2,-6,10,0,-5,-70,-40,-16,31,2
1490821438567,1,0,4,40,18,-21,-23,-9,7,0,-6,-44,-40,9,0,0
1490821438616,7,0,45,3,71,33,16,4,-1,0,-14,49,-9,9,-7,-5
1490821438664,14,-1,-38,-74,9,11,20,-1,-11,-1,-3,-50,-58,-18,-13,-10
1490821438666,5,0,-8,3,12,5,5,4,-15,-1,6,43,30,9,6,0
1490821438714,26,0,4,24,0,2,-7,4,10,0,31,39,-4,11,1,0
1490821438763,-12,0,9,-45,-23,-15,-22,-12,6,0,-24,-26,-7,5,-26,-8
1490821438811,12,1,14,39,-30,9,12,3,-13,10,-10,-73,16,-10,-29,-6
1490821438859,31,-25,-21,-18,47,19,15,14,-16,8,4,-9,-1,12,-1,-5
1490821438907,-20,-39,22,78,75,63,24,3,-4,1,14,17,86,27,14,2
1490821438909,-1,13,34,-2,-16,-37,-26,-16,2,-1,4,-17,24,-6,12,5
1490821438963,3,-36,24,37,68,12,6,0,-8,3,20,-6,-45,-19,-18,-1
1490821439006,-50,-45,-31,-17,-29,0,8,-4,-20,-26,25,27,14,14,23,7
1490821439056,32,4,17,37,-5,1,-3,5,-4,-73,1,88,28,31,25,13
1490821439105,-11,-37,-26,-33,-66,-3,-10,2,23,-15,12,-2,-49,-34,-24,-16
1490821439152,0,-31,26,14,30,18,13,13,-5,-11,-13,-18,-34,-22,-10,-2
1490821439156,18,-10,-15,18,7,2,-10,1,18,-8,23,-2,-9,15,5,2
1490821439203,0,-16,-13,-7,12,2,-13,-10,-19,-18,16,1,13,4,-9,-12
1490821439251,-15,9,13,-31,-2,-14,-13,-7,-28,12,-3,2,-9,-10,4,4
1490821439298,-6,15,-4,12,-23,-13,-4,-1,-13,-2,4,-8,-43,-34,6,-6
1490821439346,21,49,8,-20,-28,-29,5,-5,-40,-7,-16,-4,-3,-6,6,-9
1490821439397,-11,105,-25,-9,2,24,21,9,30,120,7,5,-4,-35,-37,-4
1490821439399,-24,61,-7,2,18,21,-9,-10,14,-1,9,16,18,28,9,7
1490821439445,-29,-92,-25,-35,38,-12,11,5,-44,-128,0,-15,-37,-24,4,-3
1490821439493,-18,-3,14,-15,-28,7,-23,-4,-7,-51,7,28,46,4,21,8
1490821439542,19,-18,-4,8,-1,1,5,1,-1,-17,-25,-67,-34,-25,-30,-13
1490821439590,-60,-9,-12,-38,-17,-12,-9,0,44,29,15,33,20,13,-6,-5
1490821439591,23,-66,6,65,50,53,22,6,65,-13,7,6,51,17,34,28
1490821439640,3,-6,-16,-6,77,-52,-24,-4,-12,31,-22,-17,-17,-12,14,-10
1490821439688,15,-21,-15,-25,23,14,63,13,35,7,21,36,44,-23,-97,-7
1490821439737,-39,7,-4,5,17,-97,-29,-8,-16,19,13,20,-12,58,39,2
1490821439786,19,21,-1,-11,-13,15,-33,-14,-80,-13,-1,5,-4,-47,68,-15
1490821439834,-11,-15,-8,-8,18,19,-29,-9,24,-83,-14,-8,-1,47,51,10
1490821439836,47,18,-18,-14,21,33,36,13,-9,66,4,20,17,-49,-34,-6
1490821439884,-19,-39,8,-4,-38,84,39,22,49,-26,-4,16,67,-54,-16,5
1490821439933,34,1,-1,-41,-60,-41,-10,10,-13,2,4,13,10,2,-28,-19
1490821439983,19,1,-6,-8,0,-57,-2,5,-15,-4,2,-5,-1,76,1,-10
1490821440030,-45,-1,4,3,-7,-14,1,-14,27,0,-11,-9,12,11,-19,-13
1490821440032,39,0,11,44,17,24,11,17,12,-1,5,-14,-5,-19,32,20
1490821440078,-37,-52,2,12,28,1,-13,-1,24,-52,-1,6,-8,-39,9,14
1490821440127,-27,-9,-5,-17,-4,19,28,0,13,70,8,-31,-8,3,-8,-3
1490821440176,9,-6,-7,-24,-7,-20,-35,-15,13,8,-1,1,21,10,4,-3
1490821440225,83,28,4,7,4,1,3,4,21,16,5,8,4,23,2,8
1490821440273,4,1,1,-2,4,-26,14,11,-2,-30,-5,13,3,-9,-9,0
1490821440274,-6,-37,-8,-19,-1,4,34,-1,-2,-24,-5,5,-1,-14,-47,-10
1490821440322,2,31,-3,0,-3,-3,-4,-1,55,13,-9,-12,-5,-12,-8,1
1490821440419,-13,-3,-8,-2,1,8,-15,8,48,19,6,-10,-2,-2,-15,-8
1490821440420,-4,-8,-2,3,-10,-10,-29,-8,12,-3,7,12,0,5,16,-2
1490821440516,-73,9,-5,1,8,-14,-27,-9,-1,-10,-8,-5,4,11,32,13
1490821440517,53,-13,-12,7,10,10,30,13,-41,-23,-2,-36,5,7,0,-4
1490821440518,43,5,0,8,14,13,54,16,-37,12,1,59,-28,-13,-57,-20
1490821440567,94,3,8,-15,-22,-30,-17,-3,5,1,12,24,29,-15,35,9
1490821440614,-27,15,20,54,-15,63,21,-5,34,26,10,94,79,-44,-10,10
1490821440663,9,32,32,127,127,-20,-47,2,-37,10,2,-101,-128,37,49,-4
1490821440712,20,31,-36,-81,-64,-59,17,63,-48,-54,-30,-75,79,-3,-115,-58
1490821440714,-38,-4,21,9,-53,-81,45,8,40,-24,-7,-5,-104,-35,-128,-45
1490821440761,-2,-42,30,46,105,40,51,40,70,-52,-15,35,-109,-10,-70,-33
1490821440810,-87,-57,32,92,127,-72,-77,34,127,32,36,127,127,99,127,56
1490821440858,88,1,1,71,-86,9,48,30,-46,42,-18,-108,54,126,48,-10
1490821440907,-44,-23,-30,55,20,-40,23,9,9,-26,36,70,-10,-57,-113,-45
1490821440957,-13,10,4,-121,-26,73,-69,-12,93,20,-1,40,-128,-128,85,5
1490821440959,-71,17,20,82,102,99,53,-13,64,16,1,36,88,125,-70,-4
1490821441005,55,-19,21,60,-96,-128,-115,10,3,15,19,-62,-63,94,87,11
1490821441053,95,20,42,35,127,42,-54,20,-50,-42,-67,-48,-89,-86,-128,-61
1490821441102,10,36,37,18,52,50,-36,-32,22,14,24,87,-86,68,-88,70
1490821441151,25,-65,14,-50,114,-67,-66,-4,-8,-106,76,90,-73,6,35,43
1490821441199,-26,71,-57,101,95,21,7,-26,-16,39,6,43,-17,1,4,-31
1490821441200,-23,3,-62,-119,-46,-7,82,42,31,14,-2,67,35,81,31,9
1490821441248,-3,5,31,34,26,20,21,14,-2,3,6,86,127,21,39,7
1490821441299,9,-1,31,62,47,43,16,4,-2,-2,20,5,-3,5,5,3
1490821441346,2,-1,45,4,-17,17,-19,2,-13,1,-55,4,-31,-2,-10,-2
1490821441398,7,0,6,60,38,9,27,12,11,-1,-32,-56,-48,-8,-17,-8
1490821441399,-7,0,-2,10,-21,-19,-22,-2,-7,0,-11,-12,40,20,5,-2
1490821441444,-7,0,4,-2,-8,5,3,-6,4,0,-16,-28,25,0,11,1
1490821441492,4,0,10,28,-7,8,11,-2,-5,-1,-1,-2,-2,-19,-10,-5
1490821441541,16,12,-45,29,-5,-4,10,3,-2,-6,29,52,-38,16,3,3
1490821441590,-14,-2,-1,14,69,12,-4,0,12,69,0,-51,23,-20,-28,-9
1490821441638,4,-35,-43,-53,-14,-7,3,-1,-8,-7,40,59,-24,-4,1,-4
1490821441641,18,5,-6,57,78,18,-2,-5,-11,7,20,-16,-34,-4,3,-1
1490821441687,32,0,42,33,3,12,1,2,18,-2,-25,-17,37,34,21,10
1490821441736,-3,-35,10,9,-34,-9,-8,-15,24,-62,45,-26,-12,-4,0,6
1490821441784,-20,-99,12,26,43,2,-3,-6,-23,-42,3,16,-4,24,21,10
1490821441832,-8,102,12,-60,-73,-24,-14,-4,11,13,-13,-13,-23,-15,10,8
1490821441833,16,7,-5,13,11,9,10,9,3,-3,-35,-19,-24,-12,-8,5
1490821441882,-6,-12,3,9,3,4,14,14,6,-22,-36,-8,7,-12,-11,-4
1490821441931,28,18,-2,13,9,-1,-2,8,-10,44,15,17,14,13,4,0
1490821441986,1,-5,2,11,-23,-13,5,0,12,35,-10,-7,-24,-8,8,0
1490821442028,9,-45,-7,14,17,-8,-38,-6,-27,-11,-14,-14,-2,-13,-19,-4
1490821442076,-25,-35,-7,-15,-3,-10,0,4,14,-117,19,32,22,11,7,1
1490821442077,14,35,25,32,7,49,78,17,-16,99,-22,-10,-19,-12,-67,-25
1490821442126,-26,56,-2,8,-20,-37,-42,-17,-37,81,9,-20,-28,-41,-1,-7
1490821442174,54,-128,-11,7,15,8,25,18,-5,-116,31,19,35,48,2,9
1490821442223,-15,-77,-14,-9,-1,8,-47,-21,19,-41,16,-28,13,-8,16,1
1490821442272,-8,47,-2,-9,-25,-5,11,5,-7,-20,0,12,25,3,-14,-13
1490821442320,6,18,3,-10,5,-22,42,0,17,-11,-19,-22,-16,30,17,-4
1490821442323,-4,-2,5,-22,-23,-70,-80,-14,3,29,0,-24,51,-13,98,0
1490821442370,-22,22,-6,-6,-26,1,-97,-32,-4,7,5,-14,-38,-23,43,30
1490821442419,-69,-29,-14,11,29,-22,3,-12,98,-2,1,47,93,48,-47,1
1490821442467,0,-52,-7,0,-78,-24,31,23,10,7,7,-16,-37,25,33,4
1490821442515,2,-51,-23,-9,6,-24,-105,-10,-3,-73,-12,-32,-42,-28,52,-8
1490821442517,12,-12,2,34,62,-29,2,-10,51,-17,5,27,-23,20,35,23
1490821442565,22,24,1,-28,-54,-3,34,11,27,4,10,1,51,7,11,5
1490821442614,67,77,12,16,56,14,-32,-4,-42,66,-5,23,-4,4,8,-7
1490821442662,-3,-33,-14,-21,-29,1,11,-11,17,31,-2,19,41,15,-4,12
1490821442711,20,11,11,22,34,37,20,17,30,-50,-7,-2,-28,6,14,-8
1490821442759,-60,-86,-8,-6,-2,-28,-37,-15,64,-34,-12,-9,10,33,2,19
1490821442760,31,10,14,32,12,28,23,10,-1,22,2,23,28,-19,1,-9
1490821442808,-32,7,12,15,-14,4,-26,-5,-23,-5,-7,-7,-1,10,-4,-19
1490821442857,18,-11,-5,12,-17,-7,-6,-7,-25,-3,-7,-31,14,13,3,11
1490821442905,28,-108,7,-5,3,-15,11,-9,-83,-103,-8,21,26,10,-2,-5
1490821442954,7,119,-1,2,-1,-5,-7,1,-32,44,-1,13,0,0,3,-3
1490821443003,-53,1,10,2,-7,1,10,7,-30,-87,2,6,-2,2,-6,-1
1490821443006,-14,-28,0,-3,8,-3,15,10,-32,-37,-6,-3,-5,-19,-12,-9
1490821443053,-28,-58,-1,-4,-3,-3,2,2,3,-53,9,8,9,12,37,17
1490821443101,10,93,-3,3,12,5,20,-7,-80,113,7,2,7,13,-9,7
1490821443149,8,-32,-2,7,-2,-16,-1,1,44,-16,14,33,5,2,12,16
1490821443197,-15,25,-19,-33,-11,7,19,-1,50,30,3,7,1,-9,-19,-10
1490821443198,1,5,0,-2,7,-10,-11,-14,3,74,2,1,-3,-5,0,2
1490821443247,-3,59,1,0,6,13,8,-1,31,-13,14,28,3,20,-4,1
1490821443296,-46,83,5,23,-9,-24,-12,-16,24,48,-4,-6,3,-2,32,7
1490821443345,68,-7,-10,-7,10,15,9,16,-16,-21,-1,-5,-14,-7,-1,1
1490821443393,-2,1,7,23,-14,-12,-40,0,-5,-15,-9,-32,-14,-30,51,8
1490821443441,-57,-31,-2,-29,-69,-2,16,14,-20,-24,-2,-1,15,-10,20,-11
1490821443443,95,-118,-11,3,-20,4,-28,6,-8,-61,-7,-34,26,46,-24,2
1490821443491,18,14,-27,41,22,-20,87,28,6,-16,-9,-57,-31,-60,-60,-13
1490821443540,-15,7,-9,23,103,-10,-106,-26,-120,-12,74,86,124,119,106,-2
1490821443589,69,8,15,82,110,-20,79,12,4,40,-23,-52,31,-10,35,-14
1490821443637,-11,16,-17,56,-128,-23,88,10,-14,-63,44,-66,5,62,18,30
1490821443685,-54,-71,35,-46,123,-9,29,-30,41,-35,-23,-37,-98,-74,-128,40
1490821443686,10,-7,14,92,127,53,70,11,-19,15,8,-51,-58,-37,101,1
1490821443734,-83,1,15,-29,-45,-33,-38,-29,40,-1,-16,-73,-96,52,-83,-9
1490821443783,-8,-3,-66,-128,29,-65,-29,-21,-43,2,10,112,127,127,47,23
1490821443832,-78,0,35,-23,-54,101,-11,-27,37,0,37,56,105,-73,20,86
1490821443880,4,-1,-7,-88,103,57,11,-16,-58,0,3,37,-4,65,29,-30
1490821443881,127,-1,23,-12,-121,80,71,103,-44,0,-44,-128,11,-92,36,41
1490821443929,21,-1,1,33,127,6,-13,-27,3,-1,3,127,-90,107,127,12
1490821443980,-18,-1,13,-90,14,-128,-128,-43,-7,-1,-18,-21,82,-113,34,16
1490821444027,-10,-107,-7,-13,-86,92,22,2,11,-111,45,-93,28,69,53,-5
1490821444076,-2,127,-9,28,-54,33,57,44,-8,125,-13,-13,20,-76,-100,-71
1490821444124,38,35,2,91,70,8,0,9,-14,51,-24,-106,-109,-18,-105,10
1490821444125,-9,20,46,127,108,94,-12,-4,6,2,-13,-65,-14,33,20,27
1490821444173,-1,4,-43,-106,-89,-86,-29,-13,4,1,74,97,42,19,27,13
1490821444222,10,5,7,32,-17,-63,3,5,6,2,36,108,46,52,16,12
1490821444270,-10,1,33,-18,15,-39,9,-3,-10,0,-95,-128,-128,-18,5,-3
1490821444319,-5,-1,2,-65,-101,-50,-51,-7,6,1,-32,-62,-25,-47,-8,-6
1490821444320,-13,1,0,-62,-22,-16,-13,-9,0,0,21,75,56,14,16,6
1490821444370,6,0,-4,45,-2,7,12,1,-5,0,-6,-2,11,-8,-5,-3
1490821444419,0,0,-43,-46,14,2,3,1,5,0,23,59,27,0,11,11
1490821444470,27,0,-5,67,-25,17,7,13,17,86,-21,-89,-78,8,-1,-3
1490821444515,-15,-110,12,24,25,-12,0,-5,-32,-128,-15,-18,50,0,1,3
1490821444563,8,52,3,-17,7,-1,-10,2,-15,33,-29,-20,-56,-17,-25,-10
1490821444565,-10,-31,2,24,7,-8,5,5,-4,-29,-21,10,25,20,12,7
1490821444612,15,-6,-2,2,12,13,10,5,-12,-5,6,2,22,0,1,-1
1490821444660,47,-1,16,-27,-25,-2,6,6,-1,-5,18,2,14,-4,-1,-2
1490821444709,-29,4,34,13,-4,-2,-4,-7,14,4,-12,-41,-34,-6,-12,-5
1490821444758,-6,-2,-16,-7,-1,-6,6,-1,-6,-1,13,23,18,0,9,-2
1490821444806,11,-14,0,-6,-1,-3,-14,-6,6,-11,5,-13,-5,1,-3,-6
1490821444807,6,-5,43,9,-3,-3,7,2,24,-9,-3,12,-6,-5,0,2
1490821444856,2,-4,-12,-11,-12,-9,-9,-6,-18,6,0,1,4,2,-3,-3
1490821444905,-17,-90,-25,18,10,13,16,9,-11,-61,-16,9,-12,-3,2,-5
1490821444954,-14,118,-12,4,4,2,-6,-5,17,61,-12,17,-1,5,-11,-9
1490821445003,13,-19,17,9,-5,-48,-21,3,-33,-72,-27,-14,-1,11,-9,-14
1490821445005,16,13,-12,-5,-17,-33,-32,-17,-26,-32,7,17,6,15,12,8
1490821445050,41,-40,21,8,15,9,24,14,-33,-56,-18,-14,-3,11,12,-15
1490821445099,-12,5,3,13,-12,-29,-25,-11,8,-54,2,-6,18,9,-5,-31
1490821445148,18,36,-9,15,-4,15,-3,-4,-40,72,-9,2,-7,-25,-12,2
1490821445197,6,19,-16,-22,-10,-6,-7,1,-12,-68,-6,-1,9,-28,7,3
1490821445245,-39,-79,-2,12,28,11,31,2,29,-53,26,9,8,10,-3,-13
1490821445246,-66,-9,-4,-3,-2,5,7,15,-23,83,6,8,-24,-16,-38,-11
1490821445295,17,-6,4,32,14,-64,-76,-15,-57,66,-3,23,-2,50,11,15
1490821445344,-33,28,-8,-37,-45,-48,47,-10,67,-38,-2,1,9,1,-9,2
1490821445392,47,-52,-12,-12,14,74,36,23,-3,-38,3,4,55,-19,27,-1
1490821445441,40,8,1,-15,-19,-5,-6,-15,-25,52,7,-4,19,9,15,-3
1490821445488,29,28,4,21,7,23,-14,12,39,-20,-12,-20,-10,-28,19,-5
1490821445490,26,15,-17,-65,-63,-37,-8,-4,53,1,-2,-7,-21,-22,-36,23
1490821445538,-23,-18,6,-5,10,-6,6,-13,2,-57,-8,3,-15,-25,-43,-15
1490821445587,65,110,-11,-36,-66,-40,-11,5,-10,74,-8,-24,-36,-20,-9,-5
1490821445635,-48,-79,-10,3,6,14,-47,-28,12,-64,4,6,-5,1,49,23
1490821445683,7,19,20,19,2,33,12,21,-43,62,8,19,7,9,-14,-3
1490821445685,-39,11,8,34,36,2,2,5,88,-1,-5,-5,-24,1,10,7
1490821445733,-14,22,13,-32,-3,21,43,25,-15,9,11,14,24,11,-15,-5
1490821445782,-19,-33,-22,-7,-9,11,11,1,-2,1,29,6,-14,5,-13,14
1490821445830,-5,14,26,17,9,-5,-9,-6,-2,12,-2,0,3,-1,-1,6
1490821445879,-26,23,8,19,10,-12,2,-12,-38,1,-6,-14,6,13,-15,-17
1490821445927,23,15,-9,-24,2,2,11,-3,3,-6,6,6,-9,-1,-4,-3
1490821445928,-2,9,5,6,0,7,6,1,-11,-19,-11,-25,0,-6,12,1
1490821445977,10,-26,1,-9,-2,-9,-12,-14,35,2,-7,11,0,-5,-21,-2
1490821446026,-14,-29,-10,-9,-7,8,-17,-11,106,-42,-4,3,-10,-7,-13,1
1490821446076,42,-6,-7,-15,-2,11,30,20,-8,26,11,14,0,-5,-1,-9
1490821446124,-52,18,-6,-10,-5,-14,-5,-4,-68,7,-12,-15,-9,-6,2,-8
1490821446171,4,5,12,15,-1,23,-4,-15,-94,7,-6,-24,-13,-37,-15,-12
1490821446173,11,11,6,26,28,-2,8,7,66,22,-9,-4,5,1,-38,-7
1490821446221,78,40,2,31,27,27,-6,21,-37,-27,-14,-18,-46,13,-21,-17
1490821446270,-52,38,20,33,9,21,-24,-14,-47,61,-4,24,14,31,34,0
1490821446318,88,66,12,34,20,1,-14,15,-43,95,-13,-15,-92,-98,23,2
1490821446366,-40,-52,-29,-122,-106,-115,-127,-21,57,-37,32,41,71,45,75,39
1490821446367,-92,-125,-25,-83,-92,-35,-53,-17,43,-124,6,-1,-32,23,-51,5
1490821446416,6,-10,31,33,-92,65,-27,0,-8,-9,-25,-32,14,-128,-54,-35
1490821446465,33,6,33,110,127,60,26,0,-105,53,29,101,35,114,-89,-6
1490821446513,-31,19,8,22,84,17,2,4,90,63,44,55,64,127,59,48
1490821446562,-52,28,1,127,127,56,-38,-21,15,-37,20,-85,-109,-128,17,12
1490821446610,10,29,39,99,127,56,83,27,49,-18,22,127,-36,-95,-116,56
1490821446612,20,-6,8,37,49,-74,-6,4,-66,-30,40,97,-20,74,17,25
1490821446661,26,60,35,112,-28,110,49,69,1,-55,-64,-128,-121,-98,-128,-29
1490821446710,-64,-40,-44,-72,-81,24,27,-50,24,24,20,77,61,59,111,43
1490821446760,-31,-60,10,-128,-128,-128,-96,-42,9,-4,4,-28,-61,61,-89,17
1490821446806,-2,10,3,49,127,-6,-61,-28,6,57,11,101,-62,9,47,12
1490821446854,8,97,26,44,-3,37,32,19,20,48,35,43,127,82,55,19
1490821446855,2,-98,-3,27,-30,22,46,-2,8,33,23,19,54,32,56,14
1490821446903,-2,69,14,-49,-73,-93,-55,-13,-15,45,0,94,17,40,84,15
1490821446952,-12,20,-24,-74,79,-53,-63,-13,-13,5,-43,-100,55,-31,-15,-19
1490821447001,3,8,4,16,-57,18,21,7,16,-5,24,20,127,64,-3,12
1490821447049,-19,-2,-19,-18,1,1,5,6,-9,2,-56,-95,-117,-47,-56,-20
1490821447051,-3,1,8,66,77,50,10,-19,3,0,35,-50,-120,-75,-33,-2
1490821447098,-8,40,7,-7,-65,20,10,2,-7,42,-20,-19,3,22,34,10
1490821447147,0,2,-5,-75,-26,-28,-20,-9,-6,27,56,74,15,24,24,-2
1490821447196,-20,103,-33,-64,-38,-5,-20,-5,-12,-39,9,-22,-44,-28,1,0
1490821447342,-15,-32,-21,-52,-10,1,4,-1,17,20,-46,-14,15,-4,2,7
1490821447348,23,38,-9,-17,13,15,1,3,-13,38,-3,-36,-18,-7,-11,-5
1490821447352,23,31,-30,-109,-40,-23,-11,-3,0,-27,-13,4,16,0,8,1
1490821447353,4,-12,34,-10,-3,-12,11,1,15,2,10,29,29,14,-3,-13
1490821447392,-7,-3,-25,22,51,-2,16,9,-19,1,42,42,-41,-4,14,3
1490821447440,-41,89,8,17,14,-4,-9,-8,20,27,16,0,12,5,-1,-1
1490821447488,-25,-10,-15,-67,-30,-20,-19,3,53,-40,25,11,-2,4,7,8
1490821447489,30,-47,16,31,23,20,13,12,-11,-20,-54,-39,-23,-13,-13,-6
1490821447537,-7,-14,-35,-31,0,5,1,1,3,0,18,-3,-18,-4,-11,1
1490821447586,-3,48,2,-3,-7,-27,-11,2,-58,40,-15,8,16,-5,13,5
1490821447635,14,-7,16,28,0,-7,0,-1,2,27,-6,1,1,2,-1,-3
1490821447683,3,1,-36,-32,-11,10,-8,-1,27,22,11,6,-7,-9,-4,2
1490821447731,-50,-26,19,8,-4,-4,-4,-6,11,-7,-8,3,-2,8,-2,6
1490821447733,-4,46,-21,-1,-6,-2,-11,2,11,-9,-5,-6,-3,-1,-3,-4
1490821447781,-7,-53,1,11,4,-2,-3,-7,-6,-70,-11,3,-5,-1,-7,-6
1490821447830,1,39,-7,5,4,13,9,10,-2,15,-6,-3,-3,0,-1,6
1490821447879,23,-83,0,6,4,-5,3,2,26,3,-11,-16,2,5,1,-1
1490821447927,4,119,-18,-10,-3,-5,-7,-12,-2,-1,3,-4,-7,-3,-1,0
1490821447975,13,20,1,4,-4,-23,-5,1,-39,22,-1,6,-10,-5,6,-10
1490821447977,21,-54,-3,-29,4,13,12,4,24,-40,-3,17,16,1,-2,17
1490821448025,75,-24,7,7,-16,-35,-63,4,-23,-10,-8,-12,-6,2,14,-6
1490821448073,0,-27,4,28,92,23,87,32,46,29,2,-12,-30,-3,-78,6
1490821448122,-10,-52,-3,-35,-35,36,-17,6,73,-48,8,22,4,-39,-60,-28
1490821448170,-47,41,13,39,-45,30,-8,-10,-58,13,17,-2,47,-13,9,-2
1490821448172,119,-19,-5,-16,-28,-35,-65,-3,-37,-34,-8,-5,11,-31,12,-4
1490821448220,-16,-31,-4,-4,-25,26,39,12,-52,-1,-3,-41,-63,-71,-19,-11
1490821448268,-93,72,-4,-62,-48,35,16,1,76,63,-14,-21,-51,-3,-14,11
1490821448317,-9,-36,-1,4,27,-14,-31,-10,39,-2,16,70,38,83,46,44
1490821448366,-40,45,11,28,-29,-15,-8,3,-2,14,5,-42,30,-26,43,5
1490821448414,-16,46,2,20,25,-5,7,9,31,20,-24,-6,0,-14,-21,-11
1490821448416,11,-27,23,40,-9,5,-19,-8,-1,-71,5,9,22,-24,-27,2
1490821448464,8,33,-14,-20,16,-13,33,6,-85,31,8,16,2,20,4,-8
1490821448513,-16,34,-6,-26,-3,-27,-10,-15,-7,-12,1,-12,-23,-8,16,15
1490821448563,-70,35,-2,-16,8,35,11,-6,31,63,-2,-11,-14,13,4,14
1490821448610,-29,-6,23,41,29,8,25,6,14,-15,0,32,20,8,25,6
1490821448659,-24,-12,-4,-13,4,5,0,-9,-17,-59,-11,-12,-3,-9,-16,-11
1490821448662,-31,31,0,12,-3,0,25,5,26,-7,-1,0,-31,-7,-9,-19
1490821448707,-31,-12,-3,2,5,-6,-7,-7,45,-50,-1,1,3,5,-1,9
1490821448756,20,-69,6,3,-7,-8,-8,-4,-52,-41,2,-24,-15,-4,2,-5
1490821448805,5,63,8,-1,10,23,20,7,48,42,-10,-8,8,2,7,7
1490821448852,14,-5,-2,11,-3,12,-1,7,61,3,-11,-19,-2,-9,-2,3
1490821448854,3,18,-8,-5,4,10,28,3,8,66,3,15,-5,6,6,18
1490821448902,0,5,-10,-24,-3,-1,-22,5,24,5,-11,3,14,14,0,-8
1490821448953,-36,0,-15,17,-8,-11,16,-17,-36,6,-6,-36,-9,-49,-51,-14
1490821448999,-68,-44,7,65,63,53,-6,-6,-20,-19,-3,13,7,-43,7,11
1490821449048,-65,-5,23,22,-3,16,-48,-25,51,56,8,60,73,18,61,28
1490821449096,55,0,-6,44,-32,43,43,19,-17,-5,-14,-4,76,20,40,30
1490821449098,-28,19,5,49,16,-27,39,2,-18,-43,-29,-4,-57,-70,-84,-27
1490821449146,63,29,-10,-93,-53,17,113,29,-9,27,-7,-32,-94,-83,-93,-35
1490821449195,-32,32,31,-30,75,14,43,-30,0,4,-5,-34,-49,2,-46,13
1490821449244,-76,-41,-37,-16,-42,-24,-32,14,-17,54,36,47,111,85,-35,-32
1490821449293,71,-13,3,-46,127,88,-29,21,-9,-96,-2,72,72,-99,35,4
1490821449341,-34,-2,48,33,-68,125,73,-6,87,-1,-19,49,-12,-109,-55,13
1490821449343,-20,28,10,123,-21,85,105,28,91,-16,37,-47,64,32,-81,-14
1490821449390,-38,-58,-51,-18,100,9,-63,-39,41,24,38,79,-86,54,12,28
1490821449439,-67,0,-4,97,51,93,6,-15,20,-38,5,40,-86,-37,5,-50
1490821449489,-25,-34,-45,-40,81,-109,2,-43,-50,-38,7,-1,37,-16,-86,-2
1490821449535,-46,-40,36,-25,63,-49,-69,-34,9,-95,-55,-48,29,62,46,7
1490821449537,4,-45,33,46,-104,-22,-9,-50,9,-104,48,126,34,6,70,63
1490821449585,-20,-94,1,63,30,88,13,6,4,65,-20,25,127,-11,-70,-9
1490821449633,37,86,19,90,47,112,70,12,10,115,12,-46,-68,41,28,-3
1490821449682,8,-20,-39,61,97,59,41,22,-13,109,51,101,10,67,96,-8
1490821449731,-7,-12,49,15,69,117,113,7,0,-13,-48,-1,-128,7,-118,-6
1490821449779,-8,0,-2,-128,-128,-76,-100,-18,-13,-1,-23,-88,100,-4,58,12
1490821449781,0,-27,16,-20,-49,-16,16,2,2,-22,3,127,74,63,25,4
1490821449876,-6,-31,16,-12,-38,-19,16,8,-8,44,-39,25,35,-47,-40,-16
1490821449878,8,-28,-7,-18,-33,-21,-7,-1,6,-24,1,-90,-12,-9,-19,-5
1490821449926,15,18,-24,34,27,-1,-8,-8,12,-12,-5,18,13,19,12,7
1490821449974,-28,21,-27,-55,-18,-8,13,-5,-12,1,30,33,-8,-10,0,-2
1490821449975,-5,-46,10,19,-10,-24,-28,-10,25,-76,7,-8,-5,1,-10,-2
1490821450023,8,127,-4,-18,26,-14,-11,0,-4,118,-16,-18,-21,-27,-25,-12
1490821450072,19,-16,0,30,16,9,-2,1,11,111,9,19,32,14,9,4
1490821450121,0,-97,0,31,22,5,13,8,-25,-51,1,-46,23,21,6,8
1490821450170,-14,29,0,-21,-76,-18,-1,4,-38,15,-12,-32,9,-3,5,-4
1490821450219,-18,5,-26,-60,-16,-7,-8,-3,21,7,32,37,45,25,20,9
1490821450220,-12,5,14,16,37,13,16,5,18,-2,-12,37,12,9,7,7
1490821450267,-17,-1,1,24,23,21,14,7,-14,-1,18,17,4,-9,-8,-7
1490821450315,15,-92,1,-23,-9,-3,-3,4,-20,-125,-11,-12,-1,2,-1,-8
1490821450364,-14,-69,-5,15,24,8,2,-5,2,3,16,0,-7,10,2,2
1490821450413,-47,21,7,2,-1,-4,-9,-11,-3,25,2,7,10,4,1,7
1490821450464,-85,-2,-6,6,-2,-9,-4,-4,8,12,20,3,-3,-10,-1,8
1490821450468,33,8,-1,-6,0,-3,-1,-6,9,2,8,-2,-6,15,-4,-5
1490821450511,-33,-28,2,-5,-8,-6,-2,4,-8,-43,-6,-1,1,-3,-4,-6
1490821450560,8,40,2,10,-4,-6,-3,-5,-14,25,-9,-9,-2,-9,-10,-4
1490821450608,-2,29,-10,-17,-5,-9,-31,-2,16,-2,1,-5,-3,12,7,-1
1490821450656,25,92,3,-4,6,4,6,7,-27,14,-10,-1,-1,0,12,3
1490821450657,9,-128,7,15,10,23,-13,-12,-10,-114,6,17,11,2,-14,-6
1490821450705,47,-16,2,-10,6,-8,14,18,-11,68,4,-15,-36,-34,-13,5
1490821450754,0,-104,-8,-7,-4,-17,5,-6,-9,-37,3,22,19,8,38,-10
1490821450803,1,-19,21,42,-15,65,-38,-21,-16,-39,1,-8,8,-55,16,4
1490821450854,11,33,-14,-14,-18,-4,-32,-3,-66,13,1,-18,-27,-18,-6,3
1490821450901,-26,20,-3,-2,21,-12,4,-12,23,43,-3,28,1,61,51,13
1490821450903,7,19,5,1,16,-66,20,-4,-72,-37,-5,-23,-53,9,-11,-12
1490821450950,16,9,14,3,-47,61,28,17,28,-14,3,28,81,-31,-26,-5
1490821450998,-9,23,-2,-22,-47,39,66,28,56,3,6,18,-8,-54,-50,-21
1490821451047,-8,109,13,25,30,-3,41,13,-51,77,-8,17,35,-7,-38,-17
1490821451096,-22,-5,11,5,3,-19,9,-8,41,-11,-5,-12,-11,-3,-22,3
1490821451144,4,-40,14,19,67,-32,-7,26,-54,-20,2,11,-30,7,15,-7
1490821451146,-23,-4,-14,-63,-19,-11,20,18,15,19,13,59,6,-2,-6,4
1490821451193,-20,3,-14,4,28,-39,-47,-25,18,3,-11,-30,-75,-25,-3,20
1490821451242,26,-33,-7,-8,-20,16,-22,-7,-43,-51,2,8,37,19,5,-13
1490821451291,0,-15,-1,-2,-17,6,12,-2,-8,-58,-7,9,-2,-26,5,-7
1490821451387,-3,25,-12,-49,-3,9,5,17,75,4,-16,-20,17,-5,5,8
1490821451389,-6,-47,-9,-29,-13,-10,-43,-10,11,10,19,1,6,11,24,5
1490821451390,-12,-49,-2,14,-2,3,-3,-11,77,-59,11,37,-2,5,16,34
1490821451439,-35,23,4,-1,0,-9,-10,-4,29,-11,5,-22,4,-9,-11,-5
1490821451582,23,29,3,-11,-15,-5,11,4,-53,-22,-15,-36,-17,-18,-7,-1
1490821451583,10,-82,10,10,0,14,0,12,62,-109,1,-17,2,-3,-5,-8
1490821451631,14,118,8,13,2,8,6,6,16,93,-12,4,-5,-10,-21,-12
1490821451680,20,33,-6,-6,5,-1,21,6,16,5,12,12,-5,3,-10,-6
1490821451681,27,1,-2,0,1,10,-10,-2,-3,-2,-15,-13,2,16,-5,-13
1490821451682,10,0,0,-4,-9,-20,-3,-3,31,0,-2,-7,-2,-12,-12,1
1490821451730,-25,75,-3,-10,-8,-5,12,9,33,113,13,24,4,-7,-18,-7
1490821451778,-14,-128,-7,-22,2,-6,2,0,40,-118,6,8,10,23,49,19
1490821451826,61,-83,-4,10,-11,20,-20,-3,-41,-128,6,2,-11,31,13,-8
1490821451827,53,35,32,27,20,14,23,28,-22,6,-23,-22,-27,-28,-47,-37
1490821451923,-68,36,10,-65,-36,-6,74,33,27,0,2,14,-32,-43,-90,3
1490821451925,31,20,-4,28,-7,29,63,-24,-35,5,-4,-33,-79,-64,-70,17
1490821451973,88,-76,-18,-16,15,7,-78,-10,-41,-30,-8,-5,43,-47,86,11
1490821452021,-61,-42,-17,-128,-128,-78,-96,-17,25,28,-3,-28,-123,30,18,5
1490821452025,-38,-31,-31,-88,-68,-1,20,-36,30,10,-24,19,-62,9,-16,19
1490821452071,32,21,-43,-47,41,127,79,33,-70,-23,-40,-37,49,-128,35,-43
1490821452120,9,-84,17,-52,43,24,-7,-55,-33,-81,77,127,127,88,12,43
1490821452169,-38,-6,-17,-18,-40,-119,-2,-36,-44,63,4,31,70,127,50,45
1490821452217,-59,49,44,39,-45,-97,-60,14,64,4,-51,-105,42,60,1,-29
1490821452265,-6,-42,-6,7,0,-42,13,-5,-42,-54,-26,-35,-1,-63,-79,-55
1490821452362,28,37,35,127,29,115,115,12,12,9,-9,-88,-109,-74,41,-3
1490821452364,13,18,-7,28,77,-32,-114,-5,14,-7,-38,-24,-43,64,-26,-9
1490821452365,30,27,24,73,-52,127,127,89,50,48,36,-33,-61,-10,-32,84
1490821452412,-29,-90,-5,-128,33,-125,-123,-62,7,4,22,33,15,127,37,18
1490821452462,2,14,-19,-60,-128,28,-72,-11,14,-23,5,97,127,-38,-8,-7
1490821452518,-24,-10,-54,-109,-39,-30,118,-36,-6,-5,21,-33,-28,-7,-111,-33
1490821452522,6,24,1,34,8,-4,-36,0,4,-93,55,127,117,93,97,32
1490821452558,-29,-11,-24,-24,-22,-17,-28,-39,-3,61,15,22,111,69,42,4
1490821452607,2,-2,-53,72,-21,75,-10,1,16,8,75,87,81,-7,20,27
1490821452656,-1,-8,13,-64,-107,-11,-14,-22,-12,-1,12,-8,-29,-43,58,-1
1490821452703,4,-8,10,127,-115,67,47,9,0,-2,0,27,-56,-62,1,-4
1490821452705,-5,-6,-11,-105,-43,-58,-57,-19,2,0,11,71,-11,-9,-55,-6
1490821452753,-6,-9,-5,-17,-49,-2,7,-4,1,-3,19,58,101,11,14,6
1490821452802,6,-62,33,103,62,29,20,9,2,-33,5,14,10,-36,-23,-7
1490821452851,0,9,-18,9,0,44,23,10,13,0,-6,19,62,-8,-15,-6
1490821452899,-20,-3,35,7,-44,1,3,2,-11,5,-7,65,88,36,17,1
1490821452948,-1,-4,-22,-62,-87,-15,-17,-14,14,-4,14,-55,-128,-38,-19,3
1490821452951,11,-6,21,65,-61,30,25,12,6,1,-2,-54,13,5,-4,-1
1490821452998,24,-1,-26,-106,-86,-16,2,-3,-17,0,-26,8,99,21,13,-4
1490821453046,7,-1,-29,-88,-60,-20,-13,-4,-8,0,43,53,-5,-26,-15,-14
1490821453094,-16,0,-14,-46,-36,-22,-24,-6,-15,0,0,-40,-48,-28,-6,-10
1490821453142,18,-1,-13,7,17,-8,8,7,-3,0,39,11,23,11,16,5
1490821453143,-4,-7,-18,6,-18,12,1,-3,16,-7,27,3,-7,6,-3,-1
1490821453192,-8,-13,2,12,19,3,7,0,-3,-10,-19,-14,3,-11,-9,-2
1490821453241,-8,-11,12,21,-3,-8,-4,2,7,-27,-36,-5,23,0,3,1
1490821453290,-15,10,14,-9,1,5,-1,-6,-15,-9,-1,-8,-11,1,1,-5
1490821453338,-50,2,-1,0,6,-12,-4,-2,-8,-1,-5,2,-5,-27,-6,0
1490821453387,-35,-12,11,21,10,7,2,4,-16,-32,0,-7,-7,-7,-2,-4
1490821453388,-12,-26,26,12,6,-3,-3,0,-15,-22,4,4,-11,-4,8,-1
1490821453436,21,-63,-16,-6,-7,-14,-17,-5,11,51,-3,-6,4,7,10,15
1490821453485,-15,108,-10,-13,-6,-1,2,-5,3,74,-10,-15,3,6,-1,0
1490821453534,-13,-122,-8,-13,-12,3,-21,-2,-7,-105,16,-1,-5,17,-7,-8
1490821453582,24,-80,7,4,-4,16,18,6,12,-35,-18,-30,7,-4,-5,-10
1490821453630,4,1,-10,-13,-28,-25,-16,-34,18,96,3,5,-25,-33,-30,14
1490821453632,-16,17,9,-32,-7,5,-13,-10,-10,-10,-13,-12,-31,-25,-30,-13
1490821453680,23,-12,-7,-3,24,33,23,33,7,7,15,24,-10,56,18,10
1490821453730,-20,41,-5,20,19,-15,-15,-8,30,35,20,-29,-36,-18,-49,-6
1490821453777,62,64,1,23,85,104,57,32,8,20,-9,-46,-77,-34,28,31
1490821453826,2,-20,-6,-41,-36,-24,28,26,-92,-105,-18,2,-10,-2,-22,-20
1490821453828,-60,4,-12,16,-55,-2,2,-2,33,-1,-22,-21,59,7,-11,-1
1490821453874,11,33,9,29,103,39,41,5,14,23,-15,-31,-25,-27,-55,-8
1490821453923,-77,29,14,-39,-69,28,-69,-24,-109,-11,-8,-8,9,-58,-9,-12
1490821453972,42,41,-3,16,12,41,57,19,22,34,5,-17,-83,-21,18,13
1490821454020,54,53,-24,-44,-73,-28,-33,-18,-64,122,6,-14,1,11,15,11
1490821454068,37,-45,-1,-10,-28,-26,-37,-8,82,-15,5,2,-25,31,14,24
1490821454070,-110,-30,-6,-5,-17,-13,25,-16,90,14,4,14,1,-4,-33,20
1490821454166,-32,-11,-16,-21,-53,-35,56,-35,36,13,19,34,16,17,-60,19
1490821454167,-87,-1,5,17,-11,24,8,-6,61,-2,-1,-1,-8,11,10,24
1490821454216,-7,1,22,-2,-21,-21,-35,1,-19,-6,-13,-21,-6,-39,-14,-23
1490821454266,12,36,-5,-19,5,4,-25,-12,5,26,7,23,19,21,40,13
1490821454410,2,-4,5,15,-3,-27,-22,-9,-15,4,-15,-23,-13,-13,-5,-13
1490821454420,-3,3,-8,6,14,8,5,7,16,-8,-1,-13,-14,-1,2,7
1490821454428,-34,-70,-3,11,-3,0,16,-2,3,77,-4,-12,4,3,-10,-1
1490821454437,38,-93,-7,8,-5,10,7,4,-12,-68,-2,11,4,-5,-1,4
1490821454459,-71,9,-5,0,-2,10,-10,-9,-31,-32,1,-16,-2,-3,-5,-5
1490821454507,50,14,-4,7,9,18,4,3,39,-34,1,2,-14,-8,-12,-2
1490821454508,-13,8,-6,-9,-9,-9,5,3,-47,17,0,3,9,5,11,-12
1490821454605,-37,19,-2,-21,-12,20,1,-1,-7,-4,4,1,-5,21,-11,-13
1490821454606,-1,20,-13,-17,-2,-1,-13,-12,23,50,14,19,6,-9,-1,10
1490821454655,35,17,5,-3,-5,-30,-54,-18,23,-50,10,15,24,1,-18,-6
1490821454804,19,2,-31,-15,36,20,53,6,-41,-19,3,-12,-40,-17,-45,-18
1490821454807,-83,46,-10,-32,-60,-91,-128,-55,85,75,22,18,52,50,127,38
1490821454811,-60,16,-12,-57,-98,-6,106,8,24,-11,-15,-14,86,87,-1,12
1490821454813,54,40,2,-12,0,6,-32,6,-12,-20,12,29,72,76,68,-6
1490821454851,72,28,21,-71,-116,12,-9,9,32,-16,-2,-49,-123,-87,-128,-33
1490821454898,-83,-1,-15,45,-11,-33,-51,5,-35,1,12,59,51,69,26,-26
1490821454947,-107,12,3,13,115,72,84,14,61,-18,-6,-88,-123,-90,-49,10
1490821454995,58,30,8,-12,-56,-9,-30,1,-112,-21,-34,-128,-128,-128,-24,-10
1490821454996,20,-32,20,89,-44,-1,127,-18,-30,-77,-63,-128,-128,-76,-64,-43
1490821455045,35,58,0,127,86,24,-33,78,40,48,25,-10,-96,52,115,73
1490821455093,-36,-13,17,8,-22,51,61,-7,6,-19,-20,-24,-37,-44,-32,-32
1490821455142,-6,-66,-31,-64,14,-20,32,4,-13,5,21,122,127,45,42,27
1490821455190,-26,46,16,35,-97,-92,-67,23,37,53,35,120,127,33,127,7
1490821455192,-25,-20,-12,-31,-104,75,-26,-30,-20,-26,-10,-3,-11,21,8,21
1490821455240,-18,-33,-28,-46,28,-128,-128,-17,-21,10,9,26,-128,126,69,9
1490821455288,-9,-5,15,50,95,-6,45,15,18,-47,36,52,39,-68,11,59
1490821455337,31,49,62,-31,127,-71,-57,-53,-18,-58,-68,-119,-78,44,-119,-39
1490821455386,-19,-78,-64,-37,63,72,-81,-3,-11,-67,12,75,83,-128,-51,-17
1490821455434,-3,-110,-40,-44,70,-80,-20,-2,5,-31,-1,-66,-18,5,34,0
1490821455436,18,63,40,127,-43,55,-52,14,9,93,-13,-13,-87,-36,12,21
1490821455484,14,34,17,124,127,81,92,5,-6,88,36,90,26,90,51,10
1490821455534,6,4,-16,54,104,22,27,13,21,44,86,-12,66,96,51,17
1490821455581,-19,54,-10,-1,-25,-37,-7,-14,-3,-19,-13,25,44,48,10,5
1490821455628,-4,-36,0,-48,9,40,24,-4,-8,-16,11,0,31,15,31,9
1490821455629,5,-31,-45,-58,15,-46,-32,-14,9,17,9,-25,-15,-33,-20,-10
1490821455678,7,-37,-8,0,-50,-30,-19,2,2,-60,-8,52,102,29,11,8
1490821455727,-15,33,-1,23,15,19,5,2,22,-75,7,39,11,17,7,12
1490821455776,-11,31,-8,-14,20,4,1,-4,1,46,3,-3,-10,3,-4,0
1490821455825,-3,-5,-19,-52,-17,-13,-9,-4,-2,8,1,10,-11,10,6,6
1490821455877,0,-2,18,37,-7,-5,1,5,33,8,-36,-51,0,-3,11,4
1490821455880,-8,1,2,10,-11,2,6,2,-5,1,-30,12,42,23,25,9
1490821455922,24,-2,-17,-54,-26,9,10,6,-46,8,14,21,-19,-5,-7,-16
1490821455970,40,-43,56,16,-5,1,-3,2,5,-50,3,-17,0,3,0,-6
1490821456019,-19,-46,-1,-1,31,-25,-20,-12,44,-11,22,15,-43,-13,5,10
1490821456068,-14,87,-12,-19,-2,5,-12,-7,1,4,0,5,-10,10,14,1
1490821456116,12,-22,-4,25,-14,-4,-2,0,-22,-44,7,-2,-1,8,-3,1
1490821456117,-9,-21,-9,2,-1,8,3,-3,3,37,4,-7,-29,17,8,8
1490821456167,51,-23,-25,-42,-14,3,-7,17,5,11,-4,3,4,1,-3,2
1490821456215,8,-23,0,-17,-7,18,1,0,18,7,-22,-2,-2,5,-2,-1
1490821456263,-65,-8,11,23,7,-13,-6,1,-23,2,21,-26,-7,-7,0,4
1490821456311,5,84,-18,2,5,-1,3,0,-43,28,-9,0,3,6,2,-6
1490821456312,4,-32,-1,-20,-3,-1,-8,-4,-25,-48,-5,-4,-14,-2,-5,-5
1490821456360,16,-46,-5,-1,0,4,6,0,-29,-31,-4,-1,-2,2,2,2
1490821456409,23,46,19,11,-3,-1,5,0,25,21,-8,-9,5,2,2,-1
1490821456458,-1,109,-5,6,-1,0,-4,-1,-5,104,-8,-14,3,-1,2,-6
1490821456507,24,-71,13,13,-3,-2,-1,8,14,-64,-9,-5,-5,1,-5,-5
1490821456555,3,-1,5,8,-3,8,11,-3,-5,-21,-12,-19,16,17,-3,-4
1490821456558,6,-87,28,36,7,11,31,2,18,-108,-7,-10,1,-13,-22,15
1490821456605,-4,34,7,0,10,-16,15,15,-14,39,12,4,-5,-29,-6,-4
1490821456653,8,20,10,-2,-2,-11,-74,1,13,14,8,-10,-2,43,40,5
1490821456702,-15,-93,-8,-10,28,-14,-34,3,35,3,8,16,59,40,31,0
1490821456751,-15,73,-4,-7,-1,-8,-84,-12,-114,29,4,-6,13,4,45,-1
1490821456799,-24,52,-5,-2,19,49,12,-13,5,-17,6,16,26,-45,-21,19
1490821456801,-4,31,5,24,19,20,52,8,111,45,11,12,2,36,-32,7
1490821456848,-31,50,0,-63,-64,-33,-39,19,39,84,-29,-52,-56,-71,-6,-26
1490821456897,5,71,13,16,36,10,38,14,-25,91,7,31,95,41,-37,2
1490821456945,59,-39,5,41,40,13,-16,3,22,9,-9,0,-37,-49,-30,6
1490821456993,-35,-11,-4,17,46,-13,-30,10,104,-57,11,11,-37,25,-15,14
1490821456994,-45,34,-1,-5,-18,5,44,3,-14,33,7,14,24,-29,-53,-5
1490821457043,46,-1,2,5,-40,1,-8,-3,31,-43,-11,6,-1,19,13,12
1490821457092,-6,-15,-13,-39,-25,-6,-69,-7,-18,-41,6,-13,-89,-19,15,-6
1490821457141,-9,37,-8,15,11,12,6,-8,-47,0,-5,1,27,7,5,-6
1490821457190,-1,-11,6,-10,4,5,-15,-4,-42,-18,-11,-15,16,1,6,-14
1490821457238,7,-6,-5,22,4,11,27,-5,4,-10,-5,36,14,16,43,15
1490821457241,13,1,2,-7,7,2,9,23,-54,-31,4,6,3,-12,-15,-7
1490821457287,-8,1,4,19,6,3,-29,-26,-4,-18,-12,-24,-1,7,19,-17
1490821457336,-6,23,-10,6,-8,4,-8,5,-30,52,6,1,4,6,11,-4
1490821457384,-2,-57,-5,-6,-8,4,9,2,-16,-37,-14,9,-8,-6,-21,-15
1490821457433,-32,-9,-11,-18,1,-26,-21,-9,-40,3,16,34,18,9,4,-1
1490821457481,-18,32,-2,3,-12,6,-5,-16,-4,7,2,2,-7,15,-16,-10
1490821457482,6,-13,9,11,4,30,-16,20,25,-46,3,-7,1,-3,17,3
1490821457578,-22,4,-3,-10,-6,-18,11,-7,21,15,-8,-6,0,-27,-12,0
1490821457579,8,-6,-9,-7,-6,0,-10,-1,9,11,-1,-6,2,-7,5,7
1490821457630,-15,57,-3,15,-1,-13,6,-2,-47,8,-11,4,4,-6,-8,-13
1490821457676,-46,-91,-1,-10,5,15,23,12,-13,-106,1,-10,1,3,5,-3
1490821457678,-68,-96,-9,12,-8,-27,-8,-15,40,-82,4,-31,1,15,28,4
1490821457727,-29,100,-2,-8,-8,-36,-63,-26,73,113,-2,5,13,26,104,35
1490821457774,23,17,-6,-2,-53,-13,-1,9,0,24,-12,4,13,6,-85,-26
1490821457823,-24,14,-39,-25,-57,12,-4,-9,-75,9,-9,-37,22,11,-48,-42
1490821457872,53,65,9,-30,24,-53,-81,-19,45,71,-3,42,22,26,5,11
1490821457920,-74,-66,6,84,39,26,-35,-26,-53,-34,-32,-3,-3,-53,66,-2
1490821457922,65,-57,-41,-119,-27,-19,38,-7,-101,-105,-19,-53,1,43,-128,-76
1490821457970,-54,38,-26,29,17,-39,-26,-46,-31,79,21,-56,-46,-17,63,74
1490821458019,-44,-4,14,-106,-62,59,82,-56,-63,-44,21,75,25,-17,-42,12
1490821458067,-76,35,-21,-47,58,-38,109,25,87,-41,26,-63,-14,-33,56,14
1490821458116,1,8,42,77,57,78,29,-12,-9,15,-35,-112,-42,124,86,44
1490821458164,39,-11,60,63,84,95,110,32,54,26,10,59,-88,-17,-67,-17
1490821458166,-88,61,20,78,-42,-128,35,-69,60,19,-20,15,-61,81,-86,10
1490821458214,-27,-3,-2,-17,-119,-37,-128,-48,4,53,-36,-106,68,-27,-91,-67
1490821458262,-9,-42,0,44,-8,37,-32,41,-18,12,40,67,-7,79,27,15
1490821458310,-40,-61,-43,-66,-53,-2,-101,-93,-10,-62,-57,17,-51,-65,46,27
1490821458358,-20,31,18,-16,-35,127,-74,49,27,22,-3,-3,-80,-6,8,-21
1490821458359,-47,-10,-2,-49,127,-49,-67,-75,-16,-81,-106,-128,-33,17,83,59
1490821458408,-8,-77,5,66,117,-109,-84,-11,-8,-19,27,106,-14,-94,13,-19
1490821458458,-14,-36,-29,9,25,30,-1,-36,15,71,52,114,2,108,65,12
1490821458506,-8,37,-38,66,-13,12,64,-13,6,24,32,38,-55,-76,-101,-16
1490821458555,-2,-32,-99,-128,-108,-128,61,-35,-13,-1,-1,-45,-24,69,-128,-28
1490821458603,0,-41,-47,-110,93,-104,-89,-13,-38,-34,-82,-101,99,-47,-62,-27
1490821458605,-12,-12,-32,-97,-128,-24,-83,-8,-2,28,-39,-62,55,-52,15,-4
1490821458652,-4,1,-19,97,63,13,0,-7,3,-4,13,48,33,7,-18,-5
1490821458700,7,4,25,54,-9,13,4,5,8,26,-43,-82,-30,10,19,9
1490821458749,-1,-40,-1,-41,-44,10,-15,-10,0,-73,-1,-43,-8,-19,7,-1
1490821458797,-3,-43,-3,58,100,39,37,1,7,-7,36,-15,-14,-33,-29,-13
1490821458798,15,42,-11,-17,-17,24,5,9,3,55,-19,-44,-18,-32,-43,0
1490821458847,-35,12,-13,-49,-19,-19,-22,-3,21,0,-13,20,32,36,22,11
1490821458896,-1,-5,-30,-62,-74,-47,-10,-12,0,1,-20,-19,-15,-27,-5,8
1490821458949,22,0,29,50,68,25,13,0,-14,0,3,62,-27,36,13,4
1490821458993,31,-1,19,56,19,14,10,12,-15,-2,4,-27,-45,-14,-15,-12
1490821459041,-3,6,21,-11,-10,-26,-8,-5,-11,-18,13,39,49,34,30,8
1490821459043,-2,-20,-9,31,31,18,6,-5,-6,18,-5,-41,-60,-25,-18,-5
1490821459090,-18,1,9,-18,-28,-2,-9,-5,-2,-31,-11,-22,23,12,1,9
1490821459139,-8,-22,-4,5,0,-8,1,-4,-11,-20,-29,28,2,-2,3,-6
1490821459188,-25,-2,28,26,-1,10,4,4,9,-25,-28,-2,7,20,8,1
1490821459237,-24,-7,-3,-4,-4,31,-10,-3,5,-5,-4,-6,1,8,-8,-1
1490821459285,-38,33,-16,-23,-11,-26,0,-6,41,4,5,7,1,-7,5,-5
1490821459286,77,-59,-5,-7,-2,4,4,6,17,-19,-3,-9,-9,5,3,-4
1490821459334,30,-28,0,-3,-2,-2,2,7,10,-6,-3,3,-2,3,4,-8
1490821459383,-11,8,2,39,8,2,-2,0,9,16,-16,-38,-8,2,3,6
1490821459432,7,0,-4,-7,-1,-2,-4,-4,22,-27,-8,-10,1,-4,-3,-1
1490821459480,-16,32,14,9,-1,-2,0,-1,2,107,-13,-7,3,-2,2,4
1490821459482,19,-91,15,-8,-6,7,2,-3,14,-83,-2,1,-1,-7,2,3
1490821459529,-6,-26,-6,13,31,2,-1,-11,11,-49,12,0,-26,21,80,20
1490821459578,-3,-3,-17,-27,-19,-5,-9,-12,-30,-11,-10,-39,-32,-25,-7,3
1490821459627,-1,-53,5,16,9,35,39,15,-7,-96,5,17,-11,-93,-56,-23
1490821459675,13,34,-4,3,-7,-47,-67,-23,-42,-46,-14,-48,-81,-37,11,-2
1490821459723,-28,19,-12,-18,33,-11,-16,-14,46,21,-4,49,32,47,-9,-3
1490821459724,15,20,0,-37,-24,-5,78,0,-7,41,-6,-21,0,-27,-98,-4
1490821459774,-19,-19,-6,-15,5,21,-40,3,-15,23,-14,-16,35,-56,30,-10
1490821459825,2,-34,-16,-11,-9,-3,3,-15,-58,-29,-6,-27,-25,10,-1,-4
1490821459870,-7,31,-4,-2,-13,-64,-3,-4,46,21,11,17,-25,13,-38,8
1490821459919,-14,19,10,-5,-12,44,-42,-4,-26,-21,-19,-64,-75,-120,-39,-5
1490821459967,37,4,6,9,-41,-37,-1,-14,-42,-8,-3,5,14,26,29,-9
1490821459968,24,16,-2,-45,-53,-70,14,10,-36,35,7,7,11,-7,-21,-11
1490821460017,-64,-12,19,1,-66,11,34,6,-65,13,-12,-53,-46,-12,-9,-30
1490821460065,-55,-73,-14,7,-16,-9,-19,-20,54,-18,13,13,19,33,39,24
1490821460114,-14,12,2,36,39,12,23,-26,-16,1,6,58,106,30,-30,24
1490821460163,4,32,9,23,10,-14,-28,-12,24,-15,-8,11,28,8,15,16
1490821460165,16,49,-10,-44,1,12,-5,11,6,29,10,-2,-4,-9,-12,-12
1490821460211,8,-13,-10,4,0,-10,-13,-6,16,1,11,17,17,6,0,3
1490821460260,13,5,3,5,-3,-4,-8,-4,-11,-6,0,-2,-5,10,14,-1
1490821460309,37,5,2,8,7,6,6,10,-5,0,-10,-7,-7,-6,4,-13
1490821460358,-13,-63,10,-9,-8,-6,-3,-3,-8,-18,2,1,4,-5,0,2
1490821460406,-5,0,5,14,19,20,18,8,-6,-2,6,-4,-2,-1,-11,-7
1490821460407,3,78,6,4,1,4,9,5,-7,-48,-1,-6,-2,2,11,1
1490821460456,-21,18,-8,-9,-5,8,-7,-9,3,5,5,3,-7,2,1,7
1490821460504,-40,-18,14,3,12,-4,-5,-5,-24,70,7,-2,11,1,3,-2
1490821460553,-24,-15,12,9,-6,0,-4,-4,3,-32,-4,-7,-6,9,0,0
1490821460602,-67,-42,-18,-12,0,-6,-1,-11,36,31,-4,-7,-9,-5,-1,6
