1490655296154,-95,61,-97,-112,-14,-10,0,-55,78,-111,-25,-58,11,23,-81,-64
1490655296202,-3,-31,16,12,9,10,20,16,-27,17,-7,-3,3,-9,4,-15
1490655296204,13,-45,1,0,-3,-11,-24,-7,-77,85,2,10,4,10,30,19
1490655296252,-41,18,11,15,4,-5,-18,-14,9,-34,-24,-4,-10,-2,4,-2
1490655296302,73,-78,0,7,7,12,37,8,-70,-90,0,-4,1,-2,-14,8
1490655296349,-16,-1,-16,-5,-6,10,2,-15,55,70,6,-18,-3,3,-79,-36
1490655296398,117,-30,-19,-13,9,5,9,5,-115,-49,-1,19,12,1,-26,-20
1490655296446,-49,-111,-31,-20,0,11,4,-15,-45,31,-13,-19,-17,-39,-40,-45
1490655296447,-76,11,7,-30,-28,-16,-1,7,-58,30,-3,6,14,-3,-2,14
1490655296495,-27,50,-20,-12,-28,-49,-39,-8,60,-37,21,3,-9,42,88,-14
1490655296544,20,-56,13,20,12,1,-21,-2,32,-1,6,-8,-3,4,-19,29
1490655296593,21,-46,-5,4,-2,-14,38,7,-9,55,13,17,15,26,-1,17
1490655296641,29,127,-20,-4,0,25,51,18,69,25,41,13,11,-2,-9,22
1490655296643,-88,-42,14,-14,3,4,28,-11,16,-128,-4,17,23,26,38,9
1490655296690,-52,16,-7,2,8,-23,-33,-25,53,64,31,5,-3,-21,-27,22
1490655296739,94,-128,-12,-2,-1,5,-34,2,51,37,4,-7,-17,-22,32,-25
1490655296788,-66,2,-2,-15,-18,-17,35,-18,29,-128,-38,6,-4,-4,-35,11
1490655296837,65,-97,25,8,27,31,-41,-22,-5,94,6,-5,-26,-30,2,85
1490655296885,11,71,7,17,8,13,-75,28,-108,-83,-16,-10,5,-4,1,-14
1490655296886,49,-44,8,-4,-10,2,8,27,-12,34,-3,2,-3,22,77,-16
1490655296934,-105,-52,-28,1,-1,-8,-37,-41,89,-123,6,-24,-28,-100,-60,31
1490655296983,74,101,15,17,25,58,127,34,29,8,-16,12,0,-20,99,57
1490655297032,16,62,-34,0,11,-19,-65,-12,4,41,-8,-7,-17,-42,-68,3
1490655297080,-6,-41,25,2,14,-4,127,58,-48,-16,3,-11,-3,-7,-125,-50
1490655297128,-17,-80,14,-5,-2,26,6,11,-10,42,2,-6,-1,-2,-47,-16
1490655297130,-10,36,0,0,-2,27,46,26,-22,-82,-7,0,0,18,9,-5
1490655297178,21,-46,-3,-10,5,-16,-15,-11,24,4,13,17,12,-5,-25,-26
1490655297227,-41,-1,-2,-6,-5,-6,-20,-31,-1,-84,-10,-4,-8,-21,-9,-18
1490655297275,26,-34,-11,-4,-6,-16,-31,1,-26,25,-4,7,9,-6,-1,1
1490655297323,-33,1,-7,1,5,29,-7,-24,6,19,3,-12,-11,10,2,9
1490655297325,29,-98,-11,-18,-17,-24,-31,7,52,13,-23,-15,-12,-4,7,24
1490655297373,23,51,4,-7,0,16,11,-3,-18,-31,-4,-2,0,-25,-19,-8
1490655297422,25,-45,1,-1,-6,40,23,12,11,37,8,12,6,7,-15,-3
1490655297470,-23,-6,-5,-3,2,4,-6,0,102,53,-3,0,3,-9,11,25
1490655297519,-37,28,-1,-10,-8,-16,22,-17,4,-15,-9,0,-5,-4,-10,-3
1490655297567,11,-76,-1,9,4,-2,23,7,42,78,6,7,-1,0,-13,0
1490655297568,-36,12,4,-2,6,12,9,-8,41,37,-1,-17,-1,-1,-15,24
1490655297617,17,10,0,-18,-25,-9,-21,-11,-48,-51,-6,-3,3,-5,-7,-6
1490655297669,60,111,13,7,2,12,-2,8,3,113,-1,-6,-16,-35,5,15
1490655297714,1,-41,-11,5,7,14,-14,-35,40,15,5,-7,1,0,11,-2
1490655297763,60,-56,3,2,3,10,7,18,-55,-128,-7,0,7,7,4,-1
1490655297764,-23,64,-1,-3,-13,2,-19,-17,-44,-9,-23,3,-8,-8,3,-21
1490655297812,-17,23,0,-13,-1,1,23,8,-30,-12,-5,-11,-3,-17,0,3
1490655297861,-11,-7,10,8,2,9,7,-12,-7,-13,9,5,6,12,-3,-9
1490655297909,-14,-42,-7,-8,-1,-16,-13,0,-8,-102,-3,-4,-4,0,1,8
1490655297958,-44,30,-3,-1,0,-10,-40,-8,32,57,4,-8,-3,1,1,0
1490655298006,-12,-47,-6,1,-9,-8,12,-1,-14,-32,6,6,-5,-4,-12,-17
1490655298007,-1,-72,-5,-7,-7,-16,-19,-1,34,-20,6,6,1,4,3,19
1490655298055,118,2,7,2,3,-11,2,3,-11,28,4,-4,3,-8,-37,4
1490655298104,-74,-46,10,6,-3,-1,46,-25,-15,24,-5,-17,-7,14,3,5
1490655298154,91,18,-9,-9,-1,-12,-72,-18,-76,79,-15,-26,-12,26,47,20
1490655298202,-65,-57,-2,-2,-17,-20,32,-42,-2,-100,-5,-22,-6,-16,3,40
1490655298250,-93,-26,9,19,12,12,31,10,78,91,-15,-3,-15,-21,18,13
1490655298251,51,-4,-13,-11,-13,17,29,16,-91,4,28,-5,-10,-26,-1,-2
1490655298299,107,66,-9,3,7,42,-10,-14,31,-99,-3,-3,1,3,-20,44
1490655298348,-41,70,-11,-9,-8,-17,-38,-22,-21,43,12,2,-17,-22,-24,-17
1490655298397,-78,1,-6,-12,0,36,16,-24,66,-126,-2,8,-13,-20,-5,61
1490655298445,-67,-30,-17,8,2,-21,-40,5,57,114,4,-8,1,-6,58,-12
1490655298446,13,-44,-8,2,-7,-45,-77,-38,-34,-111,-9,4,-1,25,-4,-17
1490655298494,24,5,16,11,16,65,71,38,-50,98,16,2,-1,-26,-110,-20
1490655298544,-67,-108,-11,6,4,-1,7,17,-25,91,33,-4,2,35,36,56
1490655298592,-83,77,1,9,5,-13,-34,-51,-31,-128,-34,3,10,6,-48,-3
1490655298640,-46,59,5,6,26,59,18,8,36,-15,24,-4,2,-38,-38,-2
1490655298688,77,-94,19,6,-12,5,30,16,1,-41,-11,-1,-9,-39,60,-28
1490655298690,26,56,31,-14,-53,-61,-25,0,-49,-61,39,15,7,56,114,-56
1490655298738,-59,64,17,-4,7,29,35,-39,18,-19,-30,-10,-22,-75,-77,25
1490655298787,13,65,11,-4,8,-5,-96,-23,24,81,28,2,5,36,1,20
1490655298835,-115,-36,-21,-13,-11,-19,-14,14,58,12,-9,-10,-3,7,-34,-5
1490655298884,24,39,-24,1,5,14,-40,-10,-1,-57,5,7,12,16,-54,-84
1490655298932,-41,-31,-18,-14,6,19,-38,-24,-42,-47,-13,-21,-10,-18,-10,-21
1490655298934,-17,46,18,14,5,-17,11,17,-25,-1,-21,-17,-10,-28,-18,-23
1490655298982,-26,60,2,-7,-1,-9,28,16,19,79,2,8,2,1,-21,4
1490655299030,85,-5,0,8,1,-11,5,-36,38,25,5,21,4,3,88,61
1490655299079,26,-86,-11,3,-7,-14,6,-6,8,-63,-10,-3,-3,7,1,-15
1490655299127,-5,108,6,-5,-8,-26,-8,2,-15,41,15,-5,-5,19,26,14
1490655299128,8,62,28,-1,5,-18,17,-25,-9,113,19,15,9,-4,-23,-25
1490655299177,36,59,19,5,-6,41,34,37,9,-37,-7,-2,-3,8,-16,-12
1490655299226,-19,52,13,0,6,-6,-25,4,-17,-2,-10,4,-5,-19,-19,-19
1490655299275,51,-66,-3,-15,0,-23,13,-21,-4,27,17,13,21,2,34,19
1490655299327,-99,-128,-22,5,8,13,24,-21,64,-119,8,-2,-12,-7,-11,4
1490655299371,44,6,8,-20,4,-6,-4,14,9,67,6,5,2,-5,-13,8
1490655299374,14,112,-6,-1,4,34,32,42,-5,68,21,-9,2,-1,-6,-8
1490655299421,67,-5,-7,17,-4,-13,-10,-11,22,-22,5,11,-8,-9,-22,-6
1490655299469,-5,-51,-11,-12,2,-1,0,-3,-44,10,-5,11,-3,-21,-26,-13
1490655299518,80,-4,-3,-7,-9,-1,-10,10,-30,53,11,-4,-10,-4,15,-3
1490655299567,53,28,16,2,1,1,7,11,-65,-4,1,-17,-4,-7,-14,-1
1490655299615,-48,-43,-16,-3,-4,-11,-5,10,84,-13,6,-9,9,-4,7,19
1490655299616,61,-51,-3,-4,-1,0,-15,-12,24,-11,7,1,-1,3,-4,1
1490655299665,8,-68,-6,0,1,-6,4,19,102,-67,-10,-14,-4,-7,-6,3
1490655299713,-90,-71,-3,7,6,5,10,-10,44,-33,-3,-3,4,7,8,9
1490655299762,-1,17,11,-7,-8,-5,-3,-49,-112,90,1,9,1,6,9,-37
1490655299811,4,70,17,-7,-2,20,-59,11,59,41,-21,-18,-3,-35,-32,-20
1490655299812,-21,116,8,-17,-6,3,60,-5,17,-21,-6,12,13,28,-68,-2
1490655299859,70,-82,-19,5,-10,-28,-43,3,2,13,16,11,30,63,26,-4
1490655299908,-6,19,19,-2,10,8,-9,18,83,102,3,-8,4,-9,-16,-21
1490655299957,44,-16,-8,9,4,17,35,-4,48,127,-2,4,3,-31,-22,-20
1490655300007,20,-98,-33,-4,1,-10,18,-8,-80,-128,5,-5,-13,-15,2,-27
1490655300054,-58,108,20,-6,-9,-49,-44,-20,-57,127,-17,-10,-4,13,46,20
1490655300057,28,34,-25,-10,-36,-29,-25,3,-35,127,28,9,23,18,41,15
1490655300103,-128,64,5,-18,-3,4,-7,-30,18,90,-15,7,2,20,24,-7
1490655300152,-116,12,-17,3,0,-5,5,-35,106,34,8,8,-3,-2,32,30
1490655300205,66,-112,61,18,0,32,110,1,-76,79,2,-5,-5,-39,-47,9
1490655300248,30,-55,-29,-2,12,21,70,0,-4,-70,4,-4,14,44,12,56
1490655300250,21,-60,-66,1,8,-26,-35,26,-33,66,24,-7,5,29,44,-11
1490655300298,78,-6,-45,-8,-3,21,-87,-8,-49,56,-12,-15,-27,-43,-23,-36
1490655300348,16,96,19,0,2,-8,-45,-28,-98,-67,-19,-4,-11,-4,8,-48
1490655300395,-2,85,63,10,25,41,-55,42,3,34,8,-10,-1,25,103,107
1490655300444,57,3,-38,-5,-5,21,12,-28,21,-27,-37,-23,-11,14,-70,65
1490655300492,12,-1,11,-2,9,18,15,33,-73,-87,21,2,-4,-28,-20,-51
1490655300493,-99,-29,-28,-14,-24,-10,-25,-24,81,-6,41,29,10,-10,2,19
1490655300541,-13,-2,21,5,5,0,-6,-14,-80,-86,-11,-2,-2,9,38,-13
1490655300590,-29,-28,7,1,-2,-11,6,-25,-25,36,-1,9,6,1,-22,11
1490655300640,108,45,-3,-2,-4,-3,-7,7,-57,102,10,-20,-8,2,-13,-32
1490655300690,-43,-63,-16,-8,11,4,68,25,111,57,25,16,7,1,20,30
1490655300736,-27,-99,-3,-9,3,0,-16,10,-64,-16,-9,3,3,20,-3,-32
1490655300738,-66,93,13,14,4,1,30,-6,69,-69,-10,-5,2,-7,-32,4
1490655300786,-53,-89,-16,2,16,46,-31,12,12,-52,-22,-13,20,6,50,39
1490655300834,27,19,-3,7,-3,8,37,-2,-7,-65,-14,-25,-22,-33,19,17
1490655300883,27,22,0,-18,-17,-6,-6,4,-95,119,9,14,11,21,-27,-30
1490655300931,5,-40,0,7,-12,-1,-18,-8,38,-23,-8,9,-6,-44,-34,-6
1490655300932,-66,-41,-1,15,12,-9,4,-4,-24,112,-18,-28,-6,17,0,-2
1490655300980,15,-84,-6,-6,4,-8,-40,-26,13,-123,-3,4,1,-9,5,9
1490655301030,-57,125,7,5,9,-3,12,-17,70,80,-6,11,-6,6,-11,25
1490655301079,9,17,10,12,-1,-2,-3,-14,74,67,21,0,2,9,-1,47
1490655301127,86,-78,-5,-3,-13,-7,13,-1,-29,14,-5,1,-2,3,-3,3
1490655301175,-25,-64,4,-9,3,17,1,14,53,-64,8,42,4,5,13,-11
1490655301176,-56,71,17,10,18,2,17,25,76,-82,-14,-32,-9,9,24,16
1490655301224,2,-57,-13,6,-13,-27,-44,-27,5,31,-8,-7,2,12,33,26
1490655301273,-63,-35,0,9,7,-1,-13,2,2,-56,-6,-10,-5,19,9,-18
1490655301321,-60,42,1,7,7,5,18,48,33,28,4,-8,-2,19,11,24
1490655301371,35,64,-12,-23,1,10,-7,-14,-112,-23,9,26,-9,-36,-37,-17
1490655301419,17,-65,0,-3,-4,-10,10,19,-86,-76,-4,-1,1,18,-27,-51
1490655301422,-22,-61,-4,4,-5,-23,-13,-7,127,50,21,7,11,14,42,18
1490655301469,83,41,6,1,5,16,-14,-18,79,4,5,-8,-10,-33,-6,10
1490655301517,2,9,-7,7,-7,-12,-34,7,-21,41,10,-2,4,-2,-5,13
1490655301566,6,44,-4,27,-9,-47,-43,-22,-110,-82,-9,-23,-13,-24,-1,-31
1490655301614,-70,-25,30,16,6,-21,42,20,-8,29,-15,-4,-14,-29,-55,-56
1490655301616,-128,-50,-24,-24,-26,-57,-91,-45,83,63,25,11,11,15,36,12
1490655301663,-99,65,-10,2,-13,-31,-52,-40,16,-128,-27,-12,-11,4,16,19
1490655301712,-42,88,-4,-4,-7,16,87,8,-128,-79,1,11,8,-36,-84,-62
1490655301761,80,-53,-27,-1,7,18,-33,-47,-69,4,-1,6,5,12,56,15
1490655301809,-54,-64,12,-23,-6,-8,89,43,-64,-53,-19,-8,-17,-40,-94,-31
1490655301857,4,127,-16,-12,12,52,16,2,-8,-70,21,6,-9,-20,32,14
1490655301859,127,-128,-14,23,-17,-38,11,20,-113,35,34,-14,10,21,-17,-52
1490655301907,-62,6,18,1,29,57,-79,14,41,-22,-22,-14,2,15,-28,3
1490655301955,-22,-19,31,11,-3,-40,-33,9,-36,-12,12,21,31,46,60,21
1490655302004,46,5,-13,29,16,25,56,-7,-56,124,24,-12,1,-11,12,53
1490655302053,127,77,37,16,-3,-33,-34,-6,20,-6,1,-16,11,88,81,68
1490655302101,-96,-53,20,1,1,-2,6,-15,-19,-22,-6,-5,-2,9,17,-31
1490655302102,115,43,34,1,-8,-26,58,28,-41,52,7,4,-20,-18,-43,-74
1490655302151,46,-82,-8,9,0,13,29,10,-52,-18,-6,-18,3,19,78,39
1490655302199,36,-31,-25,-10,-4,-21,27,-26,-45,122,16,6,-12,-33,-114,-27
1490655302248,-77,-24,-27,-16,-11,-1,14,9,35,11,26,13,10,1,-16,2
1490655302296,44,-77,-10,-11,-16,-5,10,14,-75,5,-10,8,0,-3,-28,-30
1490655302298,-1,71,-9,-2,8,22,13,42,64,-37,9,7,-1,-34,43,35
1490655302345,-64,-43,-8,-3,-8,1,-18,-31,-25,31,19,20,15,6,-24,10
1490655302395,82,-104,-4,-5,-6,-10,32,0,20,13,-3,4,-6,-2,-51,-11
1490655302446,-75,63,6,-1,3,-5,-12,-15,-71,-47,-8,2,2,5,16,-21
1490655302492,-13,25,-14,-6,-12,-11,-8,-21,-46,-114,-5,2,10,25,-32,-20
1490655302540,11,6,3,8,-3,-8,-2,-28,16,-14,1,-5,-1,4,9,19
1490655302541,41,22,5,7,8,12,14,-7,-4,-80,-20,-16,-8,-4,0,24
1490655302589,14,10,-13,-17,2,1,30,9,-23,83,-6,17,18,6,14,12
1490655302638,-20,-99,-18,11,20,2,-11,15,-42,87,11,9,1,7,13,-7
1490655302687,107,3,24,-3,6,16,-6,18,-53,-89,-1,23,2,8,7,-4
1490655302735,-89,-33,-5,0,4,-7,-46,-22,63,28,0,-14,-7,4,17,10
1490655302736,-53,35,11,11,-4,-21,-15,-7,-23,105,-16,-15,-4,-7,-5,-7
1490655302784,-35,-65,6,-9,4,6,21,-7,11,-65,10,17,1,-6,-31,-14
1490655302833,-70,-120,1,-5,-4,8,4,0,9,-61,7,1,-1,1,-13,-4
1490655302882,-1,52,-4,1,13,-4,-4,17,-67,61,13,7,12,6,8,5
1490655302931,-36,-50,0,-12,-5,2,2,10,-58,-5,8,20,-6,-12,-16,-10
1490655302979,92,-29,8,6,2,-5,2,5,-19,3,3,-1,0,2,52,14
1490655302980,17,33,6,17,19,12,9,-3,50,71,3,40,12,-4,-11,3
1490655303028,-66,22,1,3,-4,3,4,10,35,4,3,4,2,5,1,3
1490655303077,3,6,1,9,-6,-6,-27,-14,-82,10,-9,-7,-10,-3,-3,-15
1490655303126,42,7,8,-1,0,7,21,-23,72,57,15,-3,1,1,-9,2
1490655303174,-35,-3,-11,5,2,7,-2,5,-39,15,-16,-3,-3,5,5,-15
1490655303222,-9,57,4,-9,-2,-5,-16,7,-56,-7,9,18,2,7,-8,-4
1490655303271,91,27,-5,-4,2,-17,-62,18,-85,120,11,-12,6,9,33,0
1490655303273,25,-36,-9,7,9,-18,-34,-40,-69,14,21,4,-1,52,92,7
1490655303320,-7,-23,-8,-18,-2,7,33,-8,27,-26,22,23,-14,-9,17,10
1490655303369,-24,-45,5,-12,3,58,59,-12,127,-128,13,-24,-20,-57,-19,9
1490655303418,48,22,20,-3,0,-8,-39,9,23,91,-13,-12,16,21,61,28
1490655303419,-128,127,28,4,-14,-9,59,-1,67,50,-6,7,17,44,-13,0
1490655303467,12,-7,3,3,-3,8,38,-3,-128,68,40,13,-9,-24,-62,-18
1490655303515,27,-44,-17,-4,-3,1,-30,-48,-67,-10,-4,-2,10,36,47,14
1490655303564,-23,112,8,-5,0,23,41,38,33,61,-24,-7,-4,-9,-15,-20
1490655303614,-61,95,9,4,-9,-28,2,-17,89,-117,-45,-13,-7,23,29,42
1490655303661,-96,-89,7,-6,4,-1,-45,-49,36,55,-1,13,-3,-4,-18,6
1490655303668,-2,122,39,-9,-8,6,81,82,10,34,-9,-3,-5,-1,-43,-16
1490655303759,34,-45,-13,4,-12,-17,-44,-25,-5,-16,14,-9,-21,-40,-8,54
1490655303764,-23,74,-8,-24,4,19,-5,-15,21,-52,38,-8,-3,5,-15,-41
1490655303809,6,-16,9,22,8,2,10,-7,3,7,-35,-3,-6,9,48,116
1490655303858,53,-61,13,6,24,30,14,-60,-44,16,34,8,3,9,112,43
1490655303905,-128,22,-3,-20,-12,-22,-9,-39,106,-89,-48,-17,-4,-3,-59,18
1490655303907,-64,12,42,10,-7,-7,-17,-39,35,-24,2,-3,-54,-11,-9,-9
1490655303954,19,-128,-21,-5,3,-1,-30,2,14,-6,7,3,-1,3,-60,-19
1490655304003,30,-26,8,4,13,-2,-10,9,7,-30,8,5,0,-7,14,11
1490655304052,-72,-69,-10,-9,-2,4,42,39,33,19,-2,0,-2,4,17,-22
1490655304100,13,5,-16,0,0,-11,-23,-2,-35,-120,6,9,10,-1,3,-6
1490655304102,-7,65,12,4,1,-5,-14,-4,26,16,0,4,0,-6,-14,-33
1490655304158,89,-51,-5,-4,2,0,-5,53,-60,74,12,9,6,10,9,-1
1490655304198,37,-14,16,7,10,4,-4,-3,26,-44,3,-2,-7,-13,1,1
1490655304247,-38,8,-8,-4,1,0,8,-14,8,23,1,-7,7,6,18,31
1490655304295,-45,108,14,2,-2,-11,-16,-7,37,58,13,6,-1,-7,-11,8
1490655304344,20,8,-10,-14,0,6,8,19,-93,22,-6,-23,4,11,2,-12
1490655304346,25,82,10,1,-1,-1,-4,0,-13,7,-3,2,6,10,-14,-10
1490655304393,61,74,0,10,-8,-6,-7,-4,-89,-87,-18,2,-2,-8,-20,-18
1490655304442,-66,-57,-1,8,-3,44,-17,-17,17,87,7,-3,-6,24,7,4
1490655304490,30,-77,-13,-21,-5,-10,12,-2,-63,-69,5,-19,-11,-28,-11,-19
1490655304539,-6,60,14,1,10,6,16,8,11,-99,7,28,4,0,11,3
1490655304587,8,-14,8,12,2,10,2,-5,-113,24,-7,10,-2,4,-2,-7
1490655304589,-47,0,16,5,-6,-5,5,5,33,-10,-2,-4,-10,-7,-2,3
1490655304637,-21,29,13,-7,-6,8,13,10,-45,-98,-25,-14,-5,1,-7,-5
1490655304686,46,15,-17,-12,-1,-7,-2,-10,6,33,4,18,8,3,16,4
1490655304734,-14,0,-5,-7,-1,-3,-7,-5,-66,-9,-3,5,-3,-3,0,-1
1490655304782,66,41,5,-20,-9,-1,-7,-6,17,17,-1,15,11,8,10,11
1490655304784,31,-4,3,-6,7,-6,-6,1,1,-15,-8,-10,-9,-2,1,6
1490655304832,-62,-5,1,-14,1,2,4,-2,48,13,-5,3,1,-2,-6,-3
1490655304882,-53,15,-12,11,-7,-5,-4,-2,34,13,-1,-11,-4,-9,-15,1
1490655304929,49,-8,-9,1,0,-11,-28,-7,-104,-26,-3,-12,-1,11,2,2
1490655304978,92,-16,-9,-18,-5,-7,-26,-4,-125,-101,-21,32,-5,-2,24,-16
1490655305027,-49,64,24,6,0,9,2,-19,71,-55,-16,-47,-2,1,-33,-11
1490655305028,-30,53,8,10,18,9,33,3,-88,52,12,7,13,11,-37,-12
1490655305076,-8,-15,-4,-5,0,12,-15,4,-30,8,-6,-7,0,-15,3,8
1490655305124,81,-29,-7,-1,16,31,59,63,98,51,33,10,-5,-5,-44,-24
1490655305173,-47,-69,-7,38,19,23,-12,-46,-4,94,23,-6,2,-18,-20,-8
1490655305221,22,50,-24,-20,-20,-31,-80,-59,34,71,11,15,12,14,13,31
1490655305269,30,-98,9,18,26,13,-11,13,61,-122,-49,1,7,28,85,54
1490655305271,58,-34,-10,7,15,18,-60,-17,-110,5,18,-26,-16,-30,-1,-21
1490655305319,-128,80,36,-2,4,-30,-33,-15,52,-103,-34,-3,-13,4,58,11
1490655305368,-25,42,-7,3,-11,7,50,75,-36,-95,6,7,-2,-47,-72,-121
1490655305417,127,-3,5,-9,9,1,84,47,-85,51,-22,-5,-1,12,-53,-7
1490655305465,73,-33,-13,15,-6,-20,7,33,16,20,30,15,9,25,47,-11
1490655305467,96,0,6,-3,0,17,26,43,-67,6,28,7,2,-7,10,-4
1490655305514,36,-22,-3,-8,3,-3,-14,4,31,3,-4,3,12,22,14,4
1490655305563,26,-32,-17,-10,-27,-12,-10,6,38,10,30,11,-4,-11,15,33
1490655305612,-23,-37,14,4,-3,-8,0,7,56,43,-20,-1,0,2,9,4
1490655305661,-11,-117,-9,-4,-4,2,-9,-1,-46,-35,-11,-12,-4,-1,-3,-5
1490655305708,4,39,-1,-4,-1,3,-2,9,-5,-53,-21,-12,-13,-10,-9,-5
1490655305709,-23,-6,8,-3,1,-2,-13,-15,-29,-16,-14,-12,-6,2,-2,-13
1490655305758,-24,5,-14,10,4,0,-11,-19,-33,-49,5,0,-2,3,0,7
1490655305806,-2,-39,-9,-4,-3,-7,-6,-15,-38,-43,12,-1,9,8,-4,-16
1490655305856,-3,24,7,8,2,1,7,-3,-50,3,0,-1,3,8,-4,1
1490655305904,-1,-33,13,-4,4,-3,-12,-17,22,-74,-10,19,8,1,2,-12
1490655305908,5,58,-3,-1,3,-1,-15,-4,-25,11,-3,9,-4,-2,7,-3
1490655305953,-15,24,-4,-30,-11,-3,6,7,59,-96,-14,7,-6,-16,-16,2
1490655306001,-44,-119,4,-7,10,19,37,17,124,1,-10,-21,-7,-10,-6,7
1490655306050,1,8,-9,-4,5,3,-3,-5,-28,-13,5,3,10,7,1,-10
1490655306099,-11,8,-6,9,-17,-10,-6,-5,31,65,3,-2,13,6,-6,9
1490655306147,2,60,-6,-11,-2,-3,7,13,0,79,7,32,-8,-7,-5,-6
1490655306148,51,113,10,-19,-3,0,6,3,8,10,-7,7,5,4,18,18
1490655306197,-47,-39,-19,8,17,7,9,1,-18,-78,-6,-26,-18,-9,-12,-14
1490655306245,-40,-74,7,14,3,6,-3,-6,60,-45,-11,-30,-8,-5,-7,-7
1490655306294,18,47,-4,-27,7,11,20,20,-105,-19,9,-1,-2,8,12,-1
1490655306343,-20,-23,7,-28,-12,-2,-4,-1,2,-43,2,18,-6,-4,-8,-6
1490655306391,-90,-17,-18,-7,-2,-13,-12,-20,79,-3,11,14,-11,-12,-14,-5
1490655306393,-42,-2,7,14,-3,-4,15,7,-44,4,-19,-10,-2,-22,-12,-12
1490655306440,0,-5,7,20,-4,1,6,7,22,65,2,-10,4,4,-2,5
1490655306489,52,19,8,-14,-5,-9,-15,-3,-53,-8,-3,12,11,3,4,-10
1490655306538,28,-6,3,8,-1,-2,-1,2,19,-4,-8,-26,-9,-4,-16,-4
1490655306586,-60,-64,-3,9,3,-3,3,7,-26,-39,8,-7,-4,-2,-9,-12
1490655306588,12,52,-11,-5,6,11,57,25,39,100,9,-2,-2,-4,-24,8
1490655306635,-82,-62,33,43,-29,4,11,-4,-92,-21,-17,-45,4,0,-10,-13
1490655306684,11,-17,-8,-36,-17,-13,-17,-2,88,9,-9,22,11,11,23,-3
1490655306740,41,51,27,16,5,10,8,31,-71,-119,-38,-44,-5,-6,-33,-69
1490655306782,-36,108,10,24,31,33,36,-3,4,65,10,37,3,1,-19,2
1490655306832,-54,127,13,20,-26,-28,-26,-9,120,-43,8,-41,23,41,45,25
1490655306833,86,-12,20,62,-5,-3,52,69,-67,-15,4,2,4,1,7,-22
1490655306880,111,-128,-44,-87,-11,-17,-35,-1,-15,-24,9,40,22,11,-3,-6
1490655306928,-128,97,14,37,37,31,42,23,-49,-10,-14,-33,1,-10,-54,-32
1490655306976,119,9,-11,11,0,9,-4,22,-7,-14,-14,-1,-15,-21,-14,-17
1490655307025,-29,-84,-16,2,19,36,-6,-25,-95,118,-13,-7,-20,-15,-10,-40
1490655307073,0,-35,-5,-41,11,37,47,-1,86,-92,-10,21,-8,-8,4,25
1490655307075,-121,53,4,37,29,19,1,-20,87,-72,-2,2,-20,-24,-16,31
1490655307123,-128,56,16,39,7,0,7,7,32,36,13,28,5,2,24,9
1490655307172,-45,27,-11,-34,4,-55,-42,-20,69,31,-18,-14,21,43,27,-12
1490655307220,67,11,-70,-62,-35,-46,-30,-16,-62,19,22,20,-7,6,-3,-6
1490655307269,59,17,-13,40,28,46,49,1,108,-27,21,-8,2,-2,12,29
1490655307272,88,64,50,3,25,-1,-6,46,-84,-8,-13,-5,21,11,-65,-10
1490655307321,-23,-128,-19,-23,-38,-16,8,-20,-35,27,-25,7,-5,3,-54,6
1490655307369,-22,-9,5,-1,5,-1,15,19,-61,127,-16,-4,4,5,24,-39
1490655307416,-19,-114,-12,12,-37,-24,-18,-23,123,81,-16,-37,-37,-15,-8,-2
1490655307465,-7,-80,29,5,9,31,-43,-12,-19,34,21,2,3,28,-16,-6
1490655307513,12,2,-10,-15,-6,-3,-23,6,-41,-107,-29,-5,13,18,17,-10
1490655307516,7,18,-2,-20,-13,-14,-22,-20,24,5,30,-2,-13,-13,21,16
1490655307562,-25,67,8,5,6,-6,-49,-10,-67,-41,-11,-1,-3,-7,-8,-13
1490655307658,22,22,-16,16,6,10,24,14,-2,125,-9,-6,-4,-16,-6,4
1490655307661,-67,40,-7,7,-9,-7,-14,-13,-11,49,11,1,4,1,-9,4
1490655307708,51,49,-4,-12,11,3,12,-1,92,-75,-3,-14,-3,11,27,17
1490655307756,6,-34,-4,8,0,-8,-1,-22,-58,52,11,9,1,5,14,-4
1490655307758,6,27,5,-3,8,11,22,30,21,21,-6,-11,11,-5,8,-9
1490655307805,-16,-29,-6,-10,-4,-14,-8,-9,-14,4,-6,2,7,1,-28,-10
1490655307854,30,-7,-2,-5,-3,0,-4,-16,35,-55,-2,4,-6,-4,3,9
1490655307903,100,7,3,22,26,-14,-11,10,-31,-59,6,4,22,9,17,-10
1490655307951,47,-23,-13,-7,3,3,21,2,59,5,-3,24,14,12,3,22
1490655307953,-117,22,4,4,19,-4,-8,-22,11,-41,-4,-19,33,-3,-15,-12
1490655308000,-11,-71,2,27,-16,0,-5,4,-13,44,17,-6,-12,13,18,15
1490655308052,-8,91,-1,-8,11,7,15,4,-125,100,-17,-18,-7,1,4,-14
1490655308098,-6,41,27,9,0,-7,-7,4,-22,-61,1,-7,-2,-8,-11,-21
1490655308147,40,-11,-6,-2,-5,6,2,-1,-25,30,-17,16,11,5,-6,-9
1490655308195,-49,-5,3,11,1,1,-28,-6,-23,-25,6,5,-9,-8,-3,-16
1490655308196,-24,-2,0,11,3,5,-3,-1,91,7,0,-1,0,7,-1,27
1490655308244,-62,-15,-11,-9,3,0,-5,-19,-15,-21,2,-2,14,2,5,-1
1490655308293,-11,17,-6,0,5,-5,-23,-3,3,-9,5,-23,-11,-5,-8,7
1490655308342,-57,-37,-10,2,0,-5,1,-17,94,-63,7,7,0,3,9,8
1490655308390,-48,79,6,2,-6,-2,9,-3,-35,42,-14,0,-2,1,0,-7
1490655308393,30,-22,-4,6,3,3,-15,-13,-76,-17,1,1,3,-2,-4,-11
1490655308439,-101,-40,-10,-12,-7,-13,-21,-11,113,-22,-7,13,-6,-18,-7,18
1490655308491,41,13,-2,-12,6,9,22,44,-121,87,7,-17,-15,-28,-42,-28
1490655308537,-37,-28,-5,-27,-1,-18,-21,-5,-2,32,36,7,-13,-11,7,34
1490655308585,6,-34,10,11,12,19,38,44,61,6,14,-3,3,8,-6,3
1490655308633,-29,-34,-6,-7,-5,-11,8,35,-18,61,34,-8,18,15,3,-12
1490655308635,-18,-24,34,1,-16,-4,22,-26,37,-125,-21,-1,-17,-12,25,31
1490655308683,-1,-30,-23,4,9,-11,-8,23,51,97,26,-43,-19,-37,53,37
1490655308732,-35,-115,-16,-1,7,-8,-59,41,-35,-20,-14,-32,-33,-17,17,-44
1490655308781,-70,-47,-14,-9,-4,3,-50,26,76,-77,-30,-3,1,51,127,-39
1490655308829,109,127,-33,7,1,-36,34,60,-104,86,13,-13,3,48,-44,-25
1490655308877,85,-63,-25,-5,-1,68,127,-27,65,-19,32,25,18,24,25,90
1490655308878,100,-42,-30,21,41,53,17,95,-86,2,-31,-23,-30,-63,-22,-20
1490655308926,-36,-17,3,9,-3,-1,6,45,35,-84,-39,8,6,63,36,-124
1490655308975,-46,-24,15,-4,2,-12,74,-14,-31,40,3,-14,-9,13,15,57
1490655309024,-106,68,0,-19,-18,-11,93,17,-93,-124,-78,-19,-37,-49,-5,-84
1490655309073,-13,-43,-40,0,19,42,-45,-42,12,116,80,13,14,11,9,55
1490655309076,-25,-14,-22,-1,10,39,-26,-4,-10,-22,15,-6,6,25,56,-26
1490655309125,-95,-15,37,15,8,12,40,-10,-14,42,7,4,-7,13,-34,43
1490655309171,-5,-81,-23,-7,-6,-3,-9,-74,-3,68,8,3,4,4,35,26
1490655309219,97,54,-11,-5,-3,-11,21,-19,-11,-95,-10,-11,2,11,-34,-4
1490655309268,-22,94,24,14,6,-32,14,19,38,15,-38,11,9,-28,-40,9
1490655309316,23,-83,17,-1,-3,-3,-30,25,37,-64,-40,-9,-13,7,27,20
1490655309318,23,51,96,18,23,10,29,-40,2,36,19,5,4,31,38,-39
1490655309365,49,62,-10,6,8,-1,-12,60,11,10,-41,-6,-4,6,38,18
1490655309414,2,-55,4,-11,-20,-11,48,31,31,96,28,16,3,-8,-48,52
1490655309463,-25,-5,-30,-14,-7,16,3,-29,63,3,17,6,2,18,11,-22
1490655309512,-41,-25,-17,-19,-3,15,-12,1,66,-18,9,-4,-2,11,24,23
1490655309608,11,-73,-1,-2,-5,-11,-33,-4,-41,15,-4,5,-4,-6,-57,-3
1490655309610,23,-16,5,2,1,4,57,0,-27,-65,8,-4,-2,-1,-68,-14
1490655309612,-20,-85,-11,-9,-17,11,65,73,11,-98,4,-9,-6,-3,-3,1
1490655309659,-33,10,16,0,7,22,28,20,-77,56,-11,1,3,-5,44,12
1490655309707,-8,-79,10,19,12,16,45,37,-24,-28,17,19,8,0,1,10
1490655309755,-59,-14,5,-3,-4,9,-5,18,98,37,14,0,6,0,-31,-17
1490655309756,-12,17,-9,0,4,-2,26,15,-78,-12,-12,3,8,6,-4,-31
1490655309804,13,-13,-1,-18,-2,3,-39,15,0,60,25,27,7,-13,-1,13
1490655309853,-11,-93,-11,5,6,9,2,-25,-17,-128,24,0,-4,-1,-9,17
1490655309902,-16,101,-10,4,-2,4,-35,-2,-66,127,20,-11,-8,-17,-19,2
1490655309951,12,-60,-1,-8,-8,3,23,6,-18,-100,-4,-12,-6,-14,-28,-16
1490655309998,1,29,-16,3,-6,-6,-1,-3,56,76,8,-22,-8,11,-6,21
1490655310001,-5,26,9,11,-1,3,12,13,-29,-39,-14,-8,-2,-3,-9,-28
1490655310048,8,11,17,-1,1,0,24,-8,60,-28,-6,22,-1,2,12,30
1490655310097,-23,-105,-26,-9,-10,0,8,-10,11,46,8,3,-9,-8,-17,12
1490655310146,48,11,5,5,-1,-7,-9,-2,-67,12,9,-1,-3,11,18,-1
1490655310198,64,27,7,7,-9,-3,22,10,11,-20,-16,-5,-5,-5,-7,-8
1490655310242,-35,-6,-13,3,7,8,-6,-10,35,-4,14,4,3,5,-2,9
1490655310244,-114,-118,-13,5,-3,-4,5,5,60,101,-6,-8,-9,-14,-14,-5
1490655310291,25,109,39,5,18,13,24,16,-109,38,-19,-2,5,-9,-9,-4
1490655310340,99,13,3,-9,-12,-10,-10,-15,77,27,-13,9,20,32,49,25
1490655310389,47,110,-13,-4,-13,-10,-3,6,10,37,-3,-4,0,19,21,10
1490655310437,-47,-73,-5,-26,-8,-12,10,-37,-19,-118,-17,11,-14,-26,5,-16
1490655310438,61,-32,-13,25,6,1,4,-7,30,-48,-16,-33,-6,-16,-4,-9
1490655310486,-101,127,4,-23,10,47,-74,-28,68,100,58,18,-12,-27,4,34
1490655310535,34,11,10,4,-16,-37,12,18,-62,-44,-35,-23,9,1,-64,-14
1490655310584,60,36,0,2,-14,-3,3,27,-97,-61,21,14,-7,-28,4,-57
1490655310633,19,29,17,2,7,5,19,-76,-74,23,-12,-14,-6,-5,-113,-32
1490655310681,-26,0,-17,-36,-25,-82,-23,-19,-97,30,50,21,6,-11,-15,-13
1490655310682,90,-82,8,0,19,6,26,-3,-44,7,-38,-11,-11,28,44,-55
1490655310730,-85,40,-33,6,10,9,50,3,127,-14,-1,-23,-30,-16,2,-18
1490655310780,-7,-6,-40,11,0,-48,-35,41,-7,-75,28,8,13,65,99,-44
1490655310828,55,48,14,5,19,18,53,116,-59,-120,-55,-12,0,-15,-6,-52
1490655310877,-79,24,-3,-8,-1,17,-22,-64,-24,-103,-7,-20,-12,-11,-36,17
1490655310925,-39,43,-38,-24,-20,-85,-108,4,60,-21,-39,3,24,88,64,0
1490655310926,-2,-109,10,19,-11,-4,112,14,-51,94,-37,-16,-8,7,-6,-105
1490655310974,36,-60,-8,2,12,32,76,9,-48,16,-24,3,-20,-29,-31,24
1490655311023,-78,-28,-26,-5,0,-9,4,38,67,-86,1,-18,-20,-14,6,-43
1490655311073,-11,-40,6,-5,-12,-36,-59,-24,36,20,-6,-5,3,40,59,-76
1490655311119,-63,24,2,-7,-4,-24,-120,-8,23,-25,-11,2,9,16,18,5
1490655311122,127,5,-15,-2,2,-1,-35,-51,6,43,15,1,-10,-22,9,1
1490655311169,-11,23,21,2,1,4,23,3,48,-58,-22,-12,-2,-2,44,24
1490655311218,-9,73,-7,4,5,4,29,3,-65,59,33,-6,-15,-15,-14,-33
1490655311267,-45,-63,-15,-10,-7,-8,26,-14,66,15,-38,-6,5,-1,-13,0
1490655311315,-12,10,2,-5,4,6,36,35,-73,25,22,11,2,1,-32,-13
1490655311363,90,38,6,-3,6,14,18,27,-37,8,3,-2,-2,3,16,-6
1490655311366,-85,22,3,6,3,0,-14,-8,100,57,-1,3,-1,9,6,15
1490655311413,111,0,15,28,4,4,21,33,-51,-29,-33,-20,-10,-9,-9,-13
1490655311462,105,-24,-24,-1,-1,-15,-20,1,-70,13,9,-4,-1,3,-1,-3
1490655311511,-85,-15,4,-4,-7,-4,-11,-17,40,-14,-9,-4,-6,-15,-37,-40
1490655311558,-5,-33,-22,-5,6,-5,2,-6,-19,-47,-1,-11,-12,0,7,1
1490655311560,111,121,16,24,-14,-11,-5,21,-63,39,-19,-11,6,15,4,-9
1490655311608,71,-95,-15,21,6,3,19,50,-67,23,4,1,-8,-5,-2,14
1490655311657,24,-19,-9,-25,-12,-8,20,0,-39,-61,-3,16,14,3,-2,-26
1490655311706,-73,-118,9,3,-2,14,14,18,66,-89,2,1,-7,-5,-2,4
1490655311754,15,56,-3,5,4,-1,1,10,49,78,6,8,-10,0,5,8
1490655311802,59,-40,-7,7,2,7,21,27,16,1,-1,-3,9,1,-3,9
1490655311804,-21,51,6,5,6,7,-7,-12,-2,-18,-24,2,-4,-6,7,-6
1490655311852,-21,-24,-5,-17,-3,1,27,21,117,5,4,21,-3,-7,1,-10
1490655311900,-64,-65,1,10,11,7,-9,-14,-24,-12,-1,5,-4,2,1,4
1490655311949,20,-2,-4,-10,3,0,-27,4,0,27,-4,-1,9,16,17,8
1490655311999,-17,124,1,-4,-5,-7,-12,-15,40,89,9,-2,-1,6,0,14
1490655312046,-48,-62,-12,-12,-7,7,22,-4,51,-94,-14,-6,-8,-9,-13,-4
1490655312048,13,-13,7,20,7,4,28,18,-42,75,10,-9,1,10,10,11
1490655312095,-63,-34,-19,-32,-13,-12,10,-13,98,-12,15,1,10,18,26,8
1490655312145,-103,-63,-12,15,-2,-17,-80,-21,-47,-63,-46,-40,-10,-4,-30,-4
1490655312193,-54,-94,-37,-8,-16,-17,-18,-24,72,103,20,-12,14,11,-2,-3
1490655312242,125,-33,17,-25,2,5,24,19,-108,-96,-39,15,19,12,1,-23
1490655312245,33,127,1,8,16,39,8,-8,-29,-25,12,-5,-12,-41,-61,-32
1490655312290,-94,59,1,7,14,-6,16,-6,97,58,25,6,13,-8,-32,-22
1490655312339,-54,125,5,-25,-16,-122,-128,-71,-64,-51,-24,-6,-17,-34,46,29
1490655312388,7,-10,-40,-23,-15,41,126,55,-115,6,-4,-9,-7,-15,19,-9
1490655312436,-128,-128,-16,0,-2,55,78,-26,44,-128,-35,-4,0,26,44,88
1490655312485,-43,49,8,21,13,-48,-7,-46,107,15,70,25,14,29,10,22
1490655312486,66,74,-40,-8,0,20,-12,-4,-96,127,1,-2,8,-13,6,25
1490655312534,53,-73,-35,-16,-16,-51,-105,-44,103,59,1,-2,15,62,56,46
1490655312583,98,-22,-33,-17,-18,47,80,56,88,64,-29,-3,7,4,-61,-4
1490655312632,44,-104,-57,-2,16,80,80,65,-34,-38,-24,-7,-20,-67,15,-21
1490655312681,-116,51,16,8,16,50,-100,-91,-90,-49,-53,-9,4,15,-21,-96
1490655312729,65,8,29,10,11,-40,30,80,-69,80,10,-8,-28,-64,-58,-59
1490655312730,-95,95,45,16,6,58,34,-10,-4,-119,-28,-10,12,-7,-4,62
1490655312778,93,66,4,5,1,-97,-103,-25,26,12,-36,-6,-17,-6,-29,7
1490655312827,-16,12,-2,23,27,110,127,58,76,88,-5,-4,-13,-49,4,22
1490655312875,56,64,-34,-15,-20,-27,36,-37,5,-11,40,8,5,11,1,-15
1490655312923,35,-66,-13,-1,-12,-30,5,-42,42,103,6,-10,-13,-1,-43,-67
1490655312924,6,-26,0,-14,-18,-6,-37,74,5,-51,-15,-7,-13,0,-24,-10
1490655312973,-45,-2,-4,-10,4,3,24,14,-8,73,43,22,2,-2,-33,-35
1490655313022,39,71,10,13,3,-13,17,38,83,10,12,-9,-7,-12,-71,-6
1490655313070,82,-4,7,-9,-4,1,-30,-13,-83,-64,4,-4,-1,14,62,-14
1490655313119,-46,-71,-24,-7,-1,-10,-38,-44,10,-15,-14,3,-2,-5,-22,-18
1490655313167,32,-30,-7,15,5,18,14,-3,-110,-42,-12,-1,3,-23,-9,-22
1490655313169,7,30,4,9,2,-50,-37,-27,-44,32,-14,0,3,0,10,2
1490655313216,5,16,-7,-7,-5,-3,10,18,-13,-31,-7,7,2,0,12,-33
1490655313266,-61,46,10,-9,-16,-9,-25,-28,8,42,-6,-6,0,-5,-30,-25
1490655313314,-88,-41,7,11,0,-1,19,8,-29,3,-3,9,-1,6,74,-15
1490655313363,-51,43,2,-29,6,3,-5,0,-46,-101,-19,-4,-7,-2,-32,-13
1490655313411,123,-12,-16,31,0,3,-7,-26,58,64,-8,-7,3,-4,-31,-21
1490655313413,-67,-26,1,-19,-10,-14,-7,8,103,-24,-15,21,-7,7,8,-3
1490655313461,-6,-128,12,25,-8,-6,-1,-2,-59,-49,-5,-12,-1,12,-3,5
1490655313509,-19,117,-10,1,12,11,12,25,52,127,-7,-6,-4,-5,13,2
1490655313558,-23,-128,-16,-20,-4,1,10,4,17,-110,8,39,13,7,2,-8
1490655313606,-30,69,21,18,17,-6,16,26,-1,9,-16,-23,-4,2,-10,4
1490655313608,-30,-14,-6,-21,0,3,-4,-12,48,5,-11,-4,0,-7,-8,2
1490655313655,40,-43,-8,2,-7,-9,-3,11,8,36,-1,-8,-3,7,7,16
1490655313704,10,-19,0,11,1,1,-6,-12,43,-17,0,-9,8,14,27,26
1490655313753,90,55,10,2,-3,-3,3,6,-63,33,0,-20,0,-6,-17,-32
1490655313802,-7,37,-8,-28,-14,-13,-24,-13,-31,12,-3,-2,-1,-1,-21,-11
1490655313850,-4,127,7,-8,6,-15,2,-5,-25,-8,-3,-3,0,-5,-6,-8
1490655313852,-67,101,-8,-3,6,3,10,12,74,50,16,11,5,4,-2,16
1490655313899,24,-55,0,-10,0,-24,-7,0,-4,-128,6,5,5,10,33,26
1490655313948,32,108,3,1,3,-11,-2,5,6,-65,-3,-2,-3,-6,15,8
1490655313997,-118,31,21,13,8,-2,-35,-17,8,94,-8,-3,7,2,7,-9
1490655314045,-51,48,23,-6,0,-33,32,-1,36,-31,-2,32,-4,8,19,-10
1490655314047,-128,-63,4,5,-21,-12,-17,-61,71,-78,-17,-15,5,29,50,78
1490655314097,-22,-123,15,12,8,-23,-67,-14,35,-64,-4,-5,-12,-6,45,31
1490655314143,88,-13,5,-12,-2,18,-25,20,-127,-7,20,6,13,-15,-6,-49
1490655314192,52,-108,-76,-3,-24,-30,22,60,110,119,62,33,39,110,97,71
1490655314240,-63,-30,-3,-19,-48,-85,32,-37,33,27,2,-3,0,36,27,-6
1490655314288,-73,-39,-12,-1,6,33,-33,40,-15,82,10,14,13,-24,-62,3
1490655314290,-19,-128,-40,4,7,-73,-128,-83,-128,104,58,1,12,71,96,-5
1490655314338,127,65,59,3,26,44,61,37,-122,-128,-20,-5,-18,-45,-16,98
1490655314388,-128,-34,-100,-29,-58,-82,-41,-119,126,11,10,-4,-8,12,-48,64
1490655314435,60,101,96,12,12,70,-56,-32,-128,-62,-11,-9,-20,-65,-2,-102
1490655314484,-41,-75,38,44,49,81,60,5,-20,-62,-41,-31,-39,-37,56,37
1490655314533,-70,86,4,-10,-26,-71,104,112,19,43,-6,2,11,-1,-48,-71
1490655314535,48,88,-20,-14,0,0,18,-45,-63,23,-20,-30,-15,19,72,44
1490655314581,91,74,16,10,12,-5,48,-60,-96,10,17,9,9,1,40,-15
1490655314630,-38,14,-50,-14,3,35,-46,44,-27,-68,-15,-2,4,-23,-1,18
1490655314679,-64,-23,-28,-13,-22,-31,8,56,-22,22,8,12,0,-24,-55,-74
1490655314727,-22,32,-8,0,-1,30,26,-75,-29,-72,3,-13,-9,-26,-116,-21
1490655314776,12,-84,2,-13,-10,0,25,55,79,21,18,10,6,1,9,8
1490655314779,-27,-10,-4,3,0,25,27,-14,-21,28,-24,2,-3,-19,-49,8
1490655314826,-1,-77,-10,-10,-13,-17,19,38,-37,-1,30,1,-1,11,10,-31
1490655314875,8,40,-4,-1,4,27,-99,-23,50,22,2,-3,-6,-15,-16,-8
1490655314923,-45,-6,27,-2,7,-10,18,-48,11,-61,6,0,2,-29,-7,62
1490655314971,-82,-112,15,8,11,50,127,43,42,-74,-36,-7,-2,-43,-128,-92
1490655314973,64,119,19,2,-3,9,40,33,-7,68,-10,3,-4,-15,-51,27
1490655315020,14,22,-4,-18,-19,-18,17,31,-7,-33,-26,-1,-11,-10,-14,-6
1490655315070,-34,3,16,24,13,-9,-3,27,-65,49,1,-4,3,19,61,-16
1490655315117,63,-62,-7,1,1,11,-9,22,-77,-25,-13,5,1,-4,-13,-11
1490655315167,-3,65,36,7,13,14,35,11,-65,-101,-27,-5,-7,-24,-60,-27
1490655315218,50,29,-10,2,3,-22,-61,1,67,30,3,-3,-3,-13,9,23
1490655315220,8,-72,-27,-4,-8,-2,-30,19,-16,81,25,7,18,13,1,-29
1490655315264,52,-19,-14,-34,-22,0,-6,-4,-35,-75,-9,25,-4,-10,-12,-16
1490655315313,-128,-46,6,13,4,-13,8,-54,88,11,10,-9,-1,9,37,21
1490655315362,-23,127,8,30,0,-4,-31,-13,-10,63,-11,-6,4,-1,-4,-17
1490655315410,101,103,-8,-7,-8,-3,-39,6,32,49,4,-8,-1,-15,3,20
1490655315411,49,-128,-8,-5,3,15,11,9,-59,-27,-3,-4,-9,-3,-2,-11
1490655315459,-32,-46,-3,-16,5,16,30,-7,-1,-2,2,19,-1,-18,-44,-13
1490655315508,-50,-35,-11,-1,9,8,-2,-6,-35,1,-7,-4,-2,-5,-13,-7
1490655315556,0,-8,10,-5,-3,-8,19,-17,95,-6,4,-5,0,-2,12,22
1490655315605,34,16,8,9,0,16,35,10,-83,-22,-1,-9,1,0,-23,4
1490655315653,-73,-67,-10,-16,-6,-31,-36,-19,-11,1,-31,-8,-13,0,3,-15
1490655315655,-124,-35,24,-12,-21,-55,-61,-53,127,10,5,-2,15,57,51,48
1490655315703,62,-60,-5,-2,10,10,3,6,1,-43,-18,-15,-28,-69,-63,-25
1490655315751,-79,-82,-10,-2,12,52,45,59,106,-94,-11,3,-8,-16,54,0
1490655315800,36,12,0,13,22,-11,-58,17,-30,-51,-13,11,-11,-39,-42,-3
1490655315849,-95,-54,15,9,-17,-22,12,-15,42,-34,-11,0,4,0,-14,2
1490655315898,85,12,7,2,-1,10,13,-7,-128,28,7,-15,16,11,-40,3
1490655315901,-128,91,29,22,20,-12,-65,-73,7,59,21,-4,2,20,56,35
1490655315947,35,-39,-40,-27,-26,-79,-106,-36,-18,-73,15,6,-9,-15,43,-41
1490655315996,45,-14,54,-9,-1,30,28,57,107,22,-23,-4,5,-24,3,28
1490655316044,-42,85,15,4,2,-10,-63,11,17,66,-23,-19,-18,-7,37,-117
1490655316092,-128,-113,-43,-7,-2,-32,-92,-3,-57,-58,8,12,-7,-29,3,-28
1490655316094,47,-17,-29,22,21,63,79,71,38,-54,11,7,1,5,5,-41
1490655316142,-128,74,22,-21,-1,5,-11,-46,-35,-11,4,23,8,-1,42,-82
1490655316190,66,-70,1,0,11,20,-6,-76,24,79,82,2,4,19,72,50
1490655316239,-102,19,16,-1,-8,-64,2,25,-76,-4,-34,-21,-20,22,-63,33
1490655316288,70,18,7,8,13,25,52,41,65,-6,1,-5,-6,-15,23,51
1490655316337,90,61,43,6,2,3,-59,98,-42,100,19,3,6,0,37,3
1490655316338,-75,8,-39,-14,-8,-26,-80,-41,-43,27,-38,12,7,25,74,39
1490655316385,85,-87,12,1,10,4,-14,12,-27,-70,-34,-2,17,11,-8,-67
1490655316434,22,-46,-8,-7,-8,6,4,11,-9,-58,-14,-4,-5,3,57,-9
1490655316483,-3,37,-27,-13,-17,-6,-19,-56,102,53,22,-6,9,9,36,32
1490655316531,-106,-38,0,-9,-3,8,60,25,109,-84,-31,-14,-15,-10,-75,-42
1490655316580,-46,25,-13,-12,1,1,-12,-42,-12,-67,39,12,4,0,-9,2
1490655316581,-81,-40,-20,2,-4,-13,-23,-10,32,-68,-7,2,5,7,36,28
1490655316631,43,7,17,5,15,17,43,37,12,58,-15,-2,8,-1,-36,8
1490655316678,-31,-66,10,-8,-12,-12,-17,-12,-9,20,4,5,3,13,34,-6
1490655316727,59,-2,-29,3,2,-1,-1,21,-16,-16,-13,-15,-12,-1,13,-17
1490655316774,-82,-35,-6,5,6,-4,-33,-35,-39,-66,20,6,3,-1,12,5
1490655316776,64,-100,32,9,-6,-18,-65,-23,-20,-35,-13,0,7,9,23,15
1490655316824,-10,-19,-15,-2,-4,-4,-18,-12,-36,-22,-2,2,5,7,24,13
1490655316872,64,38,10,18,9,3,19,35,2,15,-13,-4,-2,-2,-6,-9
1490655316921,59,-1,1,-4,-2,-6,-3,0,38,2,-7,-10,-1,3,-2,-3
1490655316970,47,-22,-22,-5,0,-3,3,9,-94,28,4,9,12,8,39,-15
1490655317019,-62,50,-8,-12,-4,5,2,-13,72,-16,-3,5,14,2,4,-10
1490655317020,11,26,-5,-13,7,6,-1,2,-17,120,-8,8,-5,-8,-7,-8
1490655317068,-94,-86,3,4,-13,1,13,-4,62,-117,-11,-3,-7,-2,-5,-1
1490655317120,-45,-54,-12,6,1,5,-15,-1,22,-54,5,10,0,-7,-14,1
1490655317165,3,-11,-7,-2,2,10,10,6,-17,-46,3,-2,-4,7,10,3
1490655317213,9,43,17,1,0,-5,-12,-7,10,-54,-16,-1,4,0,8,2
1490655317214,53,-31,-9,6,3,-5,4,-2,-28,-8,5,-2,3,5,10,0
1490655317262,-17,-21,14,5,1,10,12,8,34,-27,-13,0,-2,-9,21,3
1490655317311,72,36,-6,-4,-2,-3,6,2,-18,-48,1,3,-1,-2,7,6
1490655317360,9,59,3,-3,10,7,25,22,13,-49,-11,-5,-6,6,3,0
1490655317409,49,21,-7,2,4,-2,-11,6,38,39,2,7,-2,-1,0,8
1490655317457,-18,-5,4,2,-9,-7,-8,3,-1,5,2,8,-16,-9,-26,-2
1490655317458,-10,2,5,-3,5,-6,-4,-11,-10,-7,-6,9,-6,-10,-11,-4
1490655317506,-49,44,2,19,11,0,-11,-17,-60,-6,6,-5,-1,-9,-27,-25
1490655317555,29,-29,-16,-19,-3,-3,-3,-20,51,7,16,-7,-7,13,22,9
1490655317604,-71,-58,18,-22,2,3,29,3,114,-23,-3,1,-1,-24,-42,3
1490655317653,13,78,8,16,14,3,13,23,-33,67,-3,-17,-20,-3,-14,-25
1490655317701,-54,-1,19,42,14,34,47,19,-70,-61,-5,-6,-5,-10,8,-3
1490655317702,1,26,-4,4,-5,-12,-17,-5,61,10,-1,30,8,4,8,8
1490655317750,-4,-26,-4,-15,-2,-14,-22,-5,12,-20,-11,-21,-4,6,2,-1
1490655317799,13,46,-1,-16,-9,-12,-19,-16,-19,56,-14,6,2,11,4,14
1490655317848,-29,-11,-5,-8,-3,-9,9,0,57,89,14,16,-2,0,-5,-3
1490655317896,17,-70,2,13,4,-3,-14,-6,-4,101,-5,-6,-3,-8,-15,-12
1490655317898,14,95,7,28,5,-4,-7,-3,40,-92,-8,-29,12,2,18,22
1490655317945,80,-64,-6,-9,-2,-10,-12,-1,-65,-38,5,-13,-12,-11,-23,-38
1490655317994,8,-44,19,0,15,19,31,22,-18,-119,5,2,-14,-17,-5,7
1490655318043,-66,85,4,-6,-5,-3,-5,-9,9,102,3,3,-2,-11,-10,-3
1490655318092,-75,-128,-7,7,-3,-11,-7,-17,16,-81,-7,0,-6,8,2,0
1490655318140,14,21,-10,-7,-5,-7,-18,-11,-15,-16,1,6,8,2,-5,2
1490655318142,-8,127,-1,2,-8,3,-3,-1,18,108,2,-4,-11,-2,-13,-6
1490655318189,35,-10,6,-15,-6,1,16,10,-23,-23,1,4,2,6,7,4
1490655318240,-47,-7,-12,4,-2,-10,-26,-17,-28,-9,1,-9,-3,-6,-2,-9
1490655318286,24,123,-6,-10,-4,-10,4,16,-15,56,30,24,32,10,25,2
1490655318335,-59,-78,-8,-22,1,0,-25,-15,25,-74,1,12,-2,-4,5,4
1490655318383,-41,-24,-1,8,3,2,2,-4,-20,4,-15,8,-4,0,-7,-5
1490655318384,-20,3,1,3,1,-13,-8,-13,28,-24,-8,-11,-6,-2,0,7
1490655318433,8,15,4,3,0,-4,-5,-2,-25,15,5,-3,-1,-7,-2,-5
1490655318481,4,-33,-4,4,-8,-7,-7,-17,3,8,6,-4,-5,-1,-9,0
1490655318530,-54,-7,2,1,-1,-11,-24,-36,94,47,9,17,11,14,30,40
1490655318578,-14,-52,-10,4,-1,-14,-7,-7,-6,-42,-4,-1,-1,0,5,1
1490655318580,40,10,13,10,0,11,22,17,9,-11,-5,-15,-8,-8,-6,-7
1490655318628,-29,-10,-4,-7,-4,-2,8,-2,113,3,10,12,14,16,19,19
1490655318676,10,-10,-3,-6,-12,4,-4,-7,-31,-11,0,-1,-5,-2,1,3
1490655318725,-15,-18,-1,0,-7,-9,0,4,13,-95,-9,-6,-6,5,4,31
1490655318774,5,30,23,3,-2,-1,7,33,-5,26,-13,-9,-4,-6,2,5
1490655318822,4,30,-1,5,12,8,5,-3,-23,-26,0,5,1,1,-9,-6
1490655318823,-8,60,-4,-6,-8,-4,-4,-7,-6,29,-9,-6,-10,-1,5,-7
1490655318871,-3,5,-7,-10,-5,-7,-13,-7,2,44,-4,-11,-7,-1,28,8
1490655318920,1,72,-12,-1,-2,-2,7,-12,-2,35,4,3,-1,3,11,8
1490655318969,0,-36,-15,-13,-3,-1,-8,-10,2,-15,25,-3,0,1,-17,3
1490655319018,-10,-11,-3,6,0,-4,-3,8,-9,-7,-2,-5,0,-3,-3,-1
1490655319066,0,-6,19,-4,-9,-1,5,6,2,-9,-2,-7,-6,-12,-12,5
1490655319067,-5,-12,3,-3,-2,2,3,-4,-3,-1,33,5,-2,10,6,-2
1490655319163,-2,-18,-38,-14,-6,-4,-9,0,-8,18,9,-13,-10,2,-1,0
1490655319165,-2,-20,-32,-6,-2,-3,-2,-8,7,5,6,36,4,-2,-3,4
1490655319213,-3,9,11,-3,-1,0,2,-5,-4,-7,-14,-10,-6,-7,2,4
1490655319261,-2,-4,3,5,3,4,4,2,-6,-13,-22,-10,1,-3,2,2
1490655319262,-3,12,2,-10,-1,7,-4,-6,-7,-26,-22,-16,-4,10,-2,0
1490655319310,7,11,-4,6,5,6,6,3,5,-7,-5,-9,5,2,2,2
1490655319359,-1,-13,-2,1,-6,-5,-2,4,0,-3,-13,-6,-1,-3,0,3
1490655319408,1,24,13,0,-4,1,-2,-10,1,-36,-10,-3,-6,2,3,3
1490655319456,0,1,-8,7,2,1,3,-1,-2,-6,-2,-5,-5,-4,-1,-12
1490655319504,-2,-14,-57,-12,-1,-1,-4,-22,7,14,51,14,3,0,0,-6
1490655319505,7,0,-26,-5,4,10,-1,13,12,-14,-33,-10,-1,2,9,5
