1491090346919,0,36,-110,-108,-104,-82,-112,-110,36
1491090346919,0,-112,-12,106,110,40,-43,105,-1
1491090346920,1,-20,19,108,104,24,-44,97,-11
1491090346920,1,-22,52,109,102,118,15,43,8
1491090346921,2,-23,34,76,19,-9,50,-4,-44
1491090346921,2,-4,23,-1,0,-8,27,-14,6
1491090346967,3,-45,-31,-34,-41,-98,-28,-36,-12
1491090346967,3,37,-17,-49,-100,-81,-13,-1,-19
1491090346968,0,46,13,2,10,35,109,60,8
1491090346968,0,1,-11,-53,-55,-55,13,-95,-6
1491090346969,1,-6,33,7,4,-5,67,-13,4
1491090346969,1,-24,-7,6,22,27,37,1,12
1491090346969,2,1,26,21,1,77,40,47,9
1491090346969,2,27,-8,-21,-9,-39,-21,49,4
1491090347016,3,13,-18,-36,-23,34,20,-11,5
1491090347016,3,45,-17,-41,-32,-99,-6,-32,-2
1491090347018,0,-48,22,-3,-1,-65,30,102,5
1491090347018,0,61,21,39,56,113,57,-57,1
1491090347019,1,-74,0,10,-9,-81,-91,-20,-1
1491090347019,1,8,4,-48,-47,-24,-7,22,-18
1491090347064,2,0,14,22,59,51,1,2,-2
1491090347064,2,0,7,1,-31,37,-19,-53,-21
1491090347066,3,59,20,21,37,98,41,23,31
1491090347066,3,-7,-18,-1,-9,-57,-37,-45,-5
1491090347067,0,-53,-28,-8,-10,-65,-3,-28,-6
1491090347067,0,102,-1,-26,10,24,32,0,1
1491090347067,2,-31,2,-8,-6,8,-104,-102,-13
1491090347067,2,-17,0,17,7,-39,82,82,14
1491090347113,3,-1,3,2,6,74,-37,49,-12
1491090347113,3,-14,-16,-25,-12,-44,26,-10,8
1491090347114,0,5,11,-4,-18,-18,2,6,-6
1491090347114,0,-52,10,18,10,5,43,-12,5
1491090347114,3,60,28,-1,-40,-79,32,-17,-4
1491090347114,3,-48,-15,14,25,4,-7,41,13
1491090347115,0,-12,0,-10,73,113,54,-13,-2
1491090347115,0,-37,-9,-3,31,-50,-6,26,3
1491090347162,1,3,-2,6,51,54,57,-20,-14
1491090347162,1,-18,-7,-19,4,-33,-38,-46,-4
1491090347163,2,3,10,22,11,19,79,69,18
1491090347163,2,18,8,-23,-16,-124,-128,-45,-11
1491090347164,0,29,-17,-35,-9,-103,-121,-46,-14
1491090347164,0,13,19,32,-1,116,123,28,-4
1491090347165,1,29,-17,-36,-20,-110,-85,-60,-3
1491090347165,1,-2,-16,0,-78,-42,-18,-18,-3
1491090347211,2,-14,11,10,10,-12,20,18,-12
1491090347211,2,14,-29,-23,-78,-5,-56,-60,-6
1491090347211,3,28,17,-19,8,-47,43,52,10
1491090347211,3,-37,1,30,11,117,77,-29,-7
1491090347212,0,80,-10,-39,-27,-39,-87,-89,0
1491090347212,0,-68,-8,14,-9,41,112,36,1
1491090347213,1,30,6,2,44,14,33,-59,-2
1491090347213,1,44,13,-7,-14,-88,-64,22,-3
1491090347259,2,-56,-9,23,2,-10,127,68,18
1491090347259,2,-8,6,-5,35,90,-21,-83,-15
1491090347260,3,51,-29,-33,-41,-81,-57,-6,6
1491090347260,3,5,25,31,53,90,37,23,4
1491090347261,1,-56,-14,24,-47,65,110,-47,15
1491090347261,1,18,-19,-28,-57,-100,-48,18,-8
1491090347262,2,0,2,11,-20,43,-117,-31,-9
1491090347262,2,21,-7,-34,-37,-38,-13,30,10
1491090347308,3,13,10,20,3,12,5,0,-7
1491090347308,3,-18,4,1,0,75,9,-67,13
1491090347309,0,25,0,2,-1,1,66,41,-8
1491090347309,0,-1,-4,-3,-43,-43,-19,13,-1
1491090347310,2,21,18,26,-57,-45,66,34,9
1491090347310,2,-6,4,-9,34,34,-21,20,6
1491090347311,3,-21,-5,-3,-24,29,38,4,-5
1491090347311,3,-21,-19,-11,0,-4,31,67,4
1491090347357,0,28,-6,-34,8,-58,-25,-21,-7
1491090347357,0,-64,14,35,26,20,110,58,-1
1491090347358,1,-20,-12,5,31,-3,30,0,7
1491090347358,1,8,2,12,70,110,84,45,-5
1491090347359,3,-1,-6,-28,37,-47,-27,12,-5
1491090347359,3,-16,-10,0,-20,14,23,-38,-4
1491090347359,0,-70,-19,3,4,63,74,72,11
1491090347359,0,64,-2,-11,-1,-128,-105,-128,-15
1491090347406,1,-94,-8,-6,-30,41,-55,50,2
1491090347406,1,56,9,-12,-1,-98,-55,-28,-12
1491090347406,2,-2,7,18,16,25,74,68,5
1491090347406,2,-8,-11,-10,-16,52,-40,5,8
1491090347407,0,-3,-10,-1,32,123,-50,20,-6
1491090347407,0,23,15,13,1,-41,27,-53,0
1491090347408,1,-47,-10,-10,14,-94,46,38,-15
1491090347408,1,-56,-3,10,17,92,-34,-3,5
1491090347455,2,-28,7,12,9,-128,-7,-28,-5
1491090347455,2,49,-35,-43,-52,-45,-16,31,-1
1491090347455,3,15,-14,-21,15,73,32,27,-8
1491090347455,3,38,24,-5,9,-70,-89,-81,-3
1491090347456,1,-17,5,1,-9,-28,84,48,-2
1491090347456,1,-34,9,35,26,10,121,69,12
1491090347457,2,29,0,-20,38,-35,-114,-48,-4
1491090347457,2,-54,-12,-9,-63,-82,42,76,-16
1491090347503,3,46,-5,-46,-24,-55,-37,-32,-2
1491090347503,3,26,25,26,35,89,47,24,11
1491090347504,0,-20,7,20,14,74,38,-12,5
1491090347504,0,-44,5,18,-1,-18,69,20,-7
1491090347504,2,-7,-7,-3,8,-41,-4,-39,5
1491090347504,2,-27,2,-6,-17,85,4,-16,6
1491090347506,3,44,-13,-24,-4,-41,-62,-87,-9
1491090347506,3,-22,-27,-27,4,-25,57,3,-2
1491090347552,0,50,25,26,-3,106,95,-41,9
1491090347552,0,1,-23,-44,2,-121,-92,-14,-9
1491090347553,1,-17,15,30,1,93,97,5,14
1491090347553,1,-15,-9,12,9,-10,16,-62,-13
1491090347554,2,39,14,-6,-39,-46,-24,0,0
1491090347554,2,68,-28,-37,27,15,31,-46,-8
1491090347554,3,-16,32,43,-8,10,49,-8,10
1491090347554,3,25,-17,-25,4,7,-77,1,-12
1491090347601,0,42,4,9,-8,-15,-7,68,5
1491090347601,0,-42,-2,15,21,72,49,10,3
1491090347602,1,26,5,3,35,14,-128,-12,-15
1491090347602,1,25,19,13,-25,-70,113,98,17
1491090347603,3,-20,-1,-6,-54,-74,30,-40,-10
1491090347603,3,-14,-6,8,-9,3,32,4,10
1491090347603,0,21,0,4,63,83,-83,46,-4
1491090347603,0,37,14,5,-1,-17,119,4,9
1491090347649,1,-29,28,41,42,13,48,3,4
1491090347649,1,32,-3,-11,-35,-40,-34,9,-2
1491090347650,2,-88,2,4,-21,4,101,20,2
1491090347650,2,0,12,4,17,85,27,-44,-5
1491090347651,0,4,10,14,-21,-49,-33,-63,-7
1491090347651,0,-26,-28,-7,1,-47,41,-3,3
1491090347652,1,37,10,0,30,103,-57,24,-1
1491090347652,1,-20,3,-4,-8,-45,-26,-70,-20
1491090347698,2,73,-1,-22,-14,29,-47,43,9
1491090347698,2,-40,8,38,19,38,45,42,8
1491090347699,3,-12,4,-5,18,38,7,-6,1
1491090347699,3,15,-10,-14,-14,-77,-109,-37,3
1491090347700,1,-37,9,9,38,-21,25,-16,5
1491090347700,1,-1,9,2,-31,76,-28,82,1
1491090347701,2,-37,-3,-2,31,-46,81,-70,-3
1491090347701,2,3,-18,-21,-12,-123,-104,3,-12
1491090347747,3,-17,-26,-12,-86,-11,63,18,0
1491090347747,3,3,-3,-10,42,35,-26,-55,-6
1491090347748,0,11,4,9,27,37,-81,-65,-16
1491090347748,0,14,19,12,-7,-53,12,52,12
1491090347748,2,-33,-1,-4,25,78,124,64,6
1491090347748,2,8,33,36,25,75,-68,-37,-9
1491090347749,3,-24,-2,7,-16,-121,41,43,9
1491090347749,3,-3,6,6,23,123,16,9,7
1491090347796,0,-19,-11,7,25,-6,65,68,3
1491090347796,0,4,-2,-9,-37,-50,-36,30,0
1491090347796,1,44,-9,-5,-1,73,-5,-13,0
1491090347796,1,-29,-12,-6,-7,-67,56,60,3
1491090347797,3,16,18,-3,-22,-76,-113,-90,-14
1491090347797,3,-18,-7,11,39,101,59,19,1
1491090347798,0,3,-9,-9,16,21,-75,-2,-3
1491090347798,0,-69,11,19,-29,26,58,21,3
1491090347844,1,38,3,-21,10,-63,-82,-22,-14
1491090347844,1,3,-7,-13,-39,-43,7,-73,-3
1491090347846,2,15,0,-4,-5,-43,17,17,-1
1491090347846,2,-8,-17,-30,-6,30,14,-17,-3
1491090347846,0,20,-7,3,-46,-71,42,-4,-4
1491090347846,0,1,-45,-43,5,-7,-92,-75,-10
1491090347847,1,-17,2,12,31,68,127,6,-7
1491090347847,1,47,5,17,20,9,-109,-80,-3
1491090347893,2,-15,14,-6,-55,-32,75,38,-1
1491090347893,2,32,-5,-27,5,-3,-2,6,-16
1491090347894,3,-35,-18,8,3,47,37,37,16
1491090347894,3,-40,-20,-7,-16,-37,9,-56,-17
1491090347895,1,22,-1,-27,14,-74,-97,-39,-9
1491090347895,1,-4,-14,-2,1,3,54,52,9
1491090347896,2,-31,31,17,-6,49,12,-67,-1
1491090347896,2,-19,8,5,36,37,55,25,-7
1491090347942,3,0,3,5,-19,-38,-40,34,10
1491090347942,3,-3,4,3,-5,8,-23,-11,3
1491090347943,0,5,-33,-49,-65,-106,-101,-27,-12
1491090347943,0,50,1,4,22,88,31,-1,10
1491090347944,1,-21,19,15,26,-10,38,45,9
1491090347944,1,-15,12,33,4,95,24,-4,-2
1491090347945,2,-30,0,20,14,-63,51,70,5
1491090347945,2,3,-18,-19,-46,-10,72,35,-4
1491090347991,3,28,-5,-22,-22,-70,-37,6,-6
1491090347991,3,-2,7,-3,18,90,3,41,3
1491090347992,0,1,-3,8,13,28,98,-16,-1
1491090347992,0,-5,10,0,9,-89,-51,-32,-14
1491090347992,2,-39,-7,-6,-19,-63,40,50,-1
1491090347992,2,25,-2,9,51,86,-62,14,9
1491090347993,3,8,-4,-7,-14,-106,-32,34,-1
1491090347993,3,-46,15,9,-28,-2,34,-39,-14
1491090348039,0,50,-13,-6,9,4,-59,-22,9
1491090348039,0,-10,-16,-20,-38,2,-35,8,-2
1491090348040,1,-40,5,6,35,30,18,17,-6
1491090348040,1,19,32,32,17,14,-1,92,11
1491090348041,3,-4,-6,11,-36,120,-89,26,1
1491090348041,3,53,-37,-77,-75,-128,-28,-11,-8
1491090348042,0,-47,-16,-6,39,118,73,-57,-4
1491090348042,0,66,23,1,-19,-33,-89,-11,-1
1491090348088,1,-28,-32,-11,31,-57,-3,12,-22
1491090348088,1,40,35,31,42,88,53,13,13
1491090348089,2,0,2,4,-21,-77,-41,14,-13
1491090348089,2,-18,-20,-34,-50,-94,111,-5,2
1491090348091,0,52,3,-5,9,-43,-106,-11,-14
1491090348091,0,-46,31,31,16,70,38,57,18
1491090348091,1,25,2,-26,-51,-83,-38,-65,-9
1491090348091,1,35,-20,-14,40,103,-10,30,1
1491090348137,2,-13,24,45,31,57,85,45,8
1491090348137,2,15,-12,-19,-58,-100,-128,-74,-1
1491090348138,3,7,-3,-18,5,-34,98,65,12
1491090348138,3,-6,-12,12,41,63,55,40,-1
1491090348139,1,-31,11,4,-4,-16,103,6,5
1491090348139,1,14,30,27,8,-5,-105,-30,-11
1491090348140,2,5,-8,-2,44,99,65,32,-7
1491090348140,2,-50,1,19,7,-61,119,44,16
1491090348186,3,-6,12,-3,-17,-7,-47,8,-6
1491090348186,3,-31,-37,-22,3,-35,23,29,0
1491090348187,0,-13,-5,9,10,83,-6,16,-6
1491090348187,0,-7,29,25,9,-34,-79,27,-3
1491090348188,2,66,2,-23,-49,-111,-87,-66,10
1491090348188,2,-25,-21,-5,25,22,36,17,-5
1491090348189,3,-8,-7,21,43,85,8,-22,-1
1491090348189,3,-38,15,5,-39,-46,-1,-59,-10
1491090348234,0,-12,-9,-5,0,-6,8,20,4
1491090348234,0,-2,6,9,7,54,40,-23,-6
1491090348236,1,33,-14,-13,-38,-113,-108,-43,5
1491090348236,1,-29,-2,6,21,26,99,-31,2
1491090348237,3,-63,-22,-16,22,1,-9,-60,-7
1491090348237,3,-7,1,3,-19,-2,46,-67,0
1491090348238,0,-17,2,26,7,-3,41,-6,7
1491090348238,0,-43,5,22,71,104,96,14,0
1491090348283,1,35,0,1,-39,-82,12,19,4
1491090348283,1,45,-17,-53,-54,-94,-14,6,0
1491090348287,2,-33,16,30,47,71,53,18,4
1491090348287,2,-27,-6,-7,11,52,-43,-75,-16
1491090348289,3,16,24,35,26,27,14,40,6
1491090348289,3,-38,-4,1,-16,-20,39,36,6
1491090348289,0,2,-6,-11,-23,-31,46,13,9
1491090348289,0,50,-9,0,-1,-8,-70,-14,-21
1491090348332,1,-10,11,11,20,77,38,39,13
1491090348332,1,-30,-3,-1,-20,-87,37,70,-1
1491090348334,2,12,2,-35,-36,-123,-80,-4,-1
1491090348334,2,18,-25,-34,-12,-106,-95,-31,-2
1491090348335,0,-15,21,41,4,-23,79,42,-4
1491090348335,0,-31,-26,-24,-36,-107,-9,-33,-2
1491090348335,1,-3,7,4,-12,94,-56,-2,-18
1491090348335,1,44,-23,-35,-5,-71,-93,-35,-22
1491090348381,2,-4,20,21,34,75,70,21,7
1491090348381,2,22,2,-13,-22,-42,-23,-58,2
1491090348382,3,-38,1,3,-3,-97,-3,40,0
1491090348382,3,6,-3,8,-19,59,70,26,1
1491090348383,1,-25,10,4,37,21,69,16,3
1491090348383,1,55,-2,31,4,82,-14,25,12
1491090348384,2,-48,-10,-8,6,-29,15,42,-5
1491090348384,2,-11,-6,10,1,64,35,3,-5
1491090348429,3,39,6,-10,-19,16,-27,40,-2
1491090348429,3,-30,14,5,21,-91,87,27,14
1491090348430,0,11,-14,-18,-24,29,-69,-89,-10
1491090348430,0,33,5,6,11,-17,-24,-53,-2
1491090348431,2,11,16,15,7,-37,-14,-64,10
1491090348431,2,-55,-6,-4,13,55,28,41,-13
1491090348432,3,56,-19,-22,14,16,-25,-17,-8
1491090348432,3,-52,42,37,23,32,40,-16,3
1491090348479,0,47,-3,-14,17,-25,31,65,1
1491090348479,0,-49,8,22,1,57,72,-30,-3
1491090348482,1,-21,9,18,10,-81,-7,28,1
1491090348482,1,18,-19,-4,24,107,7,-29,-1
1491090348483,3,-34,-14,-3,47,55,81,22,-3
1491090348483,3,-1,-9,10,3,11,-58,-30,11
1491090348483,0,65,38,17,25,77,-28,35,-7
1491090348483,0,-35,-3,17,66,32,43,-6,4
1491090348527,1,31,12,9,-42,-53,1,-42,-4
1491090348527,1,-48,-18,-3,-18,-67,-3,-18,-5
1491090348529,2,12,-34,-26,-3,2,-4,-13,-18
1491090348529,2,18,10,-12,-5,-61,-27,7,16
1491090348530,0,-19,-2,7,-16,5,32,9,-3
1491090348530,0,5,-10,-3,-7,-42,50,-35,-3
1491090348530,1,24,-1,-7,-51,14,1,24,-5
1491090348530,1,-6,18,9,-48,-78,65,1,4
1491090348576,2,-18,-23,-20,-19,105,-75,-27,8
1491090348576,2,1,17,16,-8,-22,-51,-61,-8
1491090348577,3,-26,-11,-3,-50,-101,-23,40,5
1491090348577,3,31,-6,-28,-28,43,-29,-38,-7
1491090348578,1,10,-10,-5,-25,-4,28,-10,-6
1491090348578,1,-19,-15,-9,-12,-11,-44,-31,-14
1491090348578,2,-33,9,16,-27,-38,112,75,14
1491090348578,2,4,2,6,-26,53,-75,-15,-15
1491090348625,3,21,-8,-10,-4,62,-66,-66,-3
1491090348625,3,-2,-11,-15,-9,-67,55,60,4
1491090348626,0,25,-8,-11,-58,12,-65,-91,-14
1491090348626,0,-15,2,3,-21,-120,32,74,1
1491090348627,1,-40,-12,-12,-16,-49,-20,-39,2
1491090348627,1,34,-11,-15,11,-12,-19,-13,-18
1491090348628,2,42,-3,-14,30,51,15,3,1
1491090348628,2,-26,14,16,40,75,76,3,9
1491090348673,3,-8,12,22,36,50,-13,73,7
1491090348673,3,22,13,3,29,-45,-63,-46,-10
1491090348674,0,-41,7,15,54,51,83,31,8
1491090348674,0,74,-36,-27,-3,-17,-64,-36,-19
1491090348675,2,68,17,-2,-51,-27,4,17,-10
1491090348675,2,-65,-28,7,30,-3,27,89,10
1491090348676,3,-19,-4,2,10,-6,-39,17,-6
1491090348676,3,45,5,-7,-23,-15,15,30,5
1491090348722,0,-21,-6,8,45,3,-3,-46,2
1491090348722,0,-30,2,6,3,69,38,33,-1
1491090348723,1,42,-8,-27,-46,-118,-26,-99,-10
1491090348723,1,-37,12,24,22,37,60,25,0
1491090348724,3,-23,-2,-1,5,-4,-51,-49,3
1491090348724,3,-11,-9,-1,22,86,-20,-2,-10
1491090348725,0,11,14,9,10,-59,49,-6,17
1491090348725,0,8,-11,-26,-71,-112,-36,7,-13
1491090348771,1,-11,-9,-1,35,-8,-27,35,-15
1491090348771,1,36,-2,-11,-31,50,-16,-72,5
1491090348772,2,-39,-14,-5,26,-10,42,32,-1
1491090348772,2,4,12,3,9,28,-27,-28,8
1491090348773,0,-13,-4,5,12,7,36,-7,-9
1491090348773,0,16,5,-4,-42,-11,44,24,7
1491090348774,1,3,2,0,6,-28,-17,15,14
1491090348774,1,-37,14,26,29,78,99,22,-9
1491090348819,2,38,-16,-43,-34,-80,-102,-36,0
1491090348819,2,-73,-12,2,17,-15,86,-39,-14
1491090348822,3,74,9,19,24,54,16,-5,19
1491090348822,3,-69,15,18,8,81,27,29,8
1491090348823,1,8,3,-4,10,44,-53,-57,-9
1491090348823,1,-1,-3,3,14,-43,80,30,3
1491090348824,2,-24,0,-5,-11,-10,-20,-16,-2
1491090348824,2,5,9,12,11,22,-54,18,2
1491090348868,3,0,5,27,8,25,127,41,1
1491090348868,3,47,2,-21,6,-51,-107,-88,-8
1491090348869,0,-29,-5,9,-25,86,99,-11,3
1491090348869,0,69,8,-13,16,-43,-70,-26,-1
1491090348870,2,22,3,15,12,-45,-22,12,-4
1491090348870,2,-54,-1,9,-12,56,112,7,17
1491090348872,3,38,-3,-10,29,96,-104,-67,-26
1491090348872,3,20,-13,-21,-61,-123,40,8,15
1491090348917,0,18,22,-2,-4,-1,17,6,6
1491090348917,0,4,17,25,21,40,80,67,-7
1491090348918,1,-9,-13,-1,5,-43,-60,-81,-2
1491090348918,1,-31,-8,3,9,53,87,-16,8
1491090348919,3,-38,-11,-20,-22,-15,-32,89,11
1491090348919,3,17,14,11,-30,-60,74,40,8
1491090348920,0,34,-19,-17,4,5,-18,-41,1
1491090348920,0,-45,-2,-36,-30,-69,-52,-53,-23
1491090348966,1,-27,9,10,20,64,74,-29,10
1491090348966,1,-51,-2,30,26,-33,37,22,-15
1491090348967,2,63,2,-34,-32,17,-48,7,10
1491090348967,2,-68,-5,-10,15,-73,40,51,-4
1491090348967,3,-3,-16,2,-37,-32,6,9,3
1491090348967,3,3,8,3,13,78,-22,49,-14
1491090348968,0,-43,-2,7,24,-45,-11,-21,15
1491090348968,0,13,-10,7,-13,68,15,68,2
1491090349014,1,12,2,-8,11,20,29,-5,-5
1491090349014,1,-34,-16,6,13,64,88,-3,-6
1491090349016,2,-24,14,28,-9,-11,29,-14,-5
1491090349016,2,36,-25,-45,12,30,-128,-82,-13
1491090349017,0,-35,-4,26,35,23,27,52,7
1491090349017,0,-5,-6,-11,-41,-76,9,-13,5
1491090349018,1,-42,-8,-26,-11,16,-29,38,-5
1491090349018,1,16,-12,-9,17,31,-75,41,-1
1491090349063,2,-43,9,10,10,-1,-102,-18,-11
1491090349063,2,2,1,32,18,45,69,12,8
1491090349065,3,46,-26,-34,-23,-54,-87,-81,-5
1491090349065,3,-18,5,2,7,64,36,-26,-3
1491090349066,1,66,8,11,3,49,-2,-20,5
1491090349066,1,21,-33,-44,-38,-99,-38,-17,-8
1491090349066,2,-5,30,18,24,106,73,-33,-3
1491090349066,2,18,-14,2,7,-16,-90,50,-14
1491090349112,3,-32,-8,-17,-14,-63,37,70,15
1491090349112,3,36,3,-4,-2,24,-51,-14,-10
1491090349114,0,9,-32,-28,-10,-53,-39,17,-5
1491090349114,0,-73,-9,3,30,127,-27,-27,-12
1491090349115,2,-14,-1,-7,-5,48,30,1,-3
1491090349115,2,18,-12,-23,-39,-83,54,3,5
1491090349115,3,22,12,14,35,-63,-63,-24,-18
1491090349115,3,-29,-4,-1,-19,40,19,-43,5
1491090349161,0,32,-1,-5,2,-20,11,45,-7
1491090349161,0,5,-8,-10,9,29,68,-25,4
1491090349162,1,9,-19,-41,-33,-24,-74,-56,-8
1491090349162,1,-45,3,34,30,26,111,-34,-2
1491090349163,3,37,-1,-13,2,-47,25,-10,1
1491090349163,3,-15,16,7,-3,-92,30,7,-2
1491090349164,0,2,-33,-13,16,-5,-86,-32,1
1491090349164,0,24,-5,-15,-11,34,-6,-41,-15
1491090349209,1,-35,1,5,-14,-22,39,34,1
1491090349209,1,-3,2,3,2,33,29,0,0
1491090349211,2,-17,1,-3,-10,-49,38,-25,3
1491090349211,2,-2,37,28,36,21,27,54,17
1491090349212,0,19,8,-18,17,88,-74,85,3
1491090349212,0,20,1,23,42,27,16,-70,12
1491090349213,1,-65,-3,32,12,59,69,52,-4
1491090349213,1,43,-20,-29,-44,-128,-101,-1,-11
1491090349259,2,-18,-28,-11,13,35,21,3,5
1491090349259,2,-18,14,16,3,52,29,23,-6
1491090349260,3,-27,6,1,-21,-5,-76,40,4
1491090349260,3,-9,-5,-16,-35,-21,48,-20,1
1491090349261,1,-53,-14,34,19,-56,114,-2,1
1491090349261,1,43,-15,-8,11,116,-87,31,-4
1491090349262,2,-9,-7,-12,-21,-64,-66,9,-21
1491090349262,2,53,5,-8,-23,-48,53,-43,14
1491090349307,3,-29,-19,-15,-5,-15,65,-10,-8
1491090349307,3,68,8,0,26,74,-65,72,3
1491090349308,0,-20,-5,6,-3,-65,38,-5,-5
1491090349308,0,36,2,1,-14,6,-2,48,6
1491090349309,2,-28,12,27,3,-45,19,18,-2
1491090349309,2,6,-8,1,-7,21,25,-15,1
1491090349310,3,56,-2,-32,-8,-58,-128,-28,-2
1491090349310,3,-44,-4,31,29,118,122,72,5
1491090349356,0,25,-1,-13,-25,-13,-11,-21,-8
1491090349356,0,-37,-25,-18,-7,-67,-76,-16,-3
1491090349357,1,-21,15,12,10,109,91,-11,12
1491090349357,1,-30,7,31,62,-49,3,-85,-16
1491090349358,2,-2,-12,-25,-78,-38,-53,19,5
1491090349358,2,-31,-14,-20,-40,-58,83,48,-12
1491090349359,3,-12,-27,-25,7,-72,-111,-40,-21
1491090349359,3,-3,23,10,-23,-25,82,43,24
1491090349404,0,-4,-1,17,85,127,-45,3,23
1491090349404,0,4,-1,10,5,-23,32,12,-18
1491090349406,1,-41,-10,-8,-34,-44,-71,-51,-8
1491090349406,1,52,0,-7,14,-14,-10,5,2
1491090349407,3,17,4,-4,-30,20,-36,-13,5
1491090349407,3,19,-7,-5,23,-20,-74,22,-13
1491090349408,0,-27,11,33,29,66,109,66,11
1491090349408,0,64,-10,-52,-44,-101,-128,-115,-14
1491090349453,1,2,-4,-2,-16,60,127,2,-5
1491090349453,1,-38,-15,-2,0,-6,-23,41,-2
1491090349455,2,47,-4,-7,25,44,22,-30,-4
1491090349455,2,-61,20,42,13,73,127,43,3
1491090349456,0,3,-7,-33,-31,-104,-19,-32,-19
1491090349456,0,9,-20,-14,24,-12,27,-53,-5
1491090349457,1,5,12,9,-8,-5,85,-7,2
1491090349457,1,5,-19,-48,-28,-42,-53,-2,-13
1491090349502,2,-33,-9,13,16,32,95,11,15
1491090349502,2,-14,45,30,22,-46,-101,55,1
1491090349504,3,-17,1,17,-13,52,120,37,16
1491090349504,3,15,-21,-41,-22,-72,-94,20,2
1491090349505,1,-20,0,7,36,-36,85,77,7
1491090349505,1,-52,17,57,33,50,12,50,-6
1491090349505,2,21,-10,-3,-17,-81,10,-66,2
1491090349505,2,23,-19,4,-8,68,20,87,20
1491090349551,3,-12,-11,0,29,-20,9,3,-2
1491090349551,3,-39,-18,5,-15,-2,70,-95,-3
1491090349552,0,0,-53,-60,-55,-128,-95,-54,-10
1491090349552,0,39,7,-13,-6,-17,89,8,2
1491090349554,2,5,14,29,-18,-33,10,16,-11
1491090349554,2,4,-17,-30,-29,-85,-73,-113,5
1491090349555,3,38,-6,-22,-12,-42,-76,45,5
1491090349555,3,-53,-3,22,32,107,64,3,-21
1491090349599,0,34,10,21,51,127,-46,-1,-2
1491090349599,0,-57,-7,16,-11,2,30,38,7
1491090349601,1,48,5,-28,-39,-92,-42,-18,-20
1491090349601,1,-27,-6,-14,-21,-28,-31,-51,7
1491090349602,3,-9,13,22,6,77,35,31,2
1491090349602,3,34,-4,-27,18,-6,-104,-20,-4
1491090349603,0,-9,8,29,-22,45,73,-60,14
1491090349603,0,-16,-6,-14,5,5,47,49,-11
1491090349648,1,55,15,9,21,6,-4,62,-3
1491090349648,1,-22,10,9,4,32,13,4,0
1491090349650,2,-50,0,13,23,18,-12,30,-5
1491090349650,2,34,-8,-2,-15,-53,-3,-30,14
1491090349651,0,-35,26,35,12,12,110,85,28
1491090349651,0,9,-24,-8,-3,-46,-79,15,-10
1491090349652,1,-61,10,-6,24,44,-37,-53,-10
1491090349652,1,72,31,50,67,117,43,-12,23
1491090349697,2,1,21,0,-60,-96,-1,50,-4
1491090349697,2,5,-17,-28,-28,-48,105,68,2
1491090349699,3,-11,4,30,53,70,36,14,6
1491090349699,3,-7,-1,13,6,75,-81,-74,-24
1491090349700,0,15,-4,-37,-48,-107,66,28,12
1491090349700,0,-4,12,1,9,74,39,23,-1
1491090349701,1,51,18,16,28,14,48,-65,-4
1491090349701,1,-30,4,3,13,33,-7,0,-2
1491090349746,2,-26,-16,15,7,10,65,70,-5
1491090349746,2,-5,-6,-37,-26,-24,-128,-102,-13
1491090349747,3,-30,-19,-19,-42,-82,108,28,-3
1491090349747,3,-29,2,13,0,-54,119,62,14
1491090349749,1,15,10,-4,-5,-37,-76,-23,2
1491090349749,1,21,-8,-22,-27,-21,1,62,-6
1491090349750,2,2,2,-11,10,23,-66,-61,-6
1491090349750,2,-71,-13,24,38,31,39,-32,-14
1491090349794,3,54,-2,-20,-67,-51,-75,-53,-6
1491090349794,3,-37,0,-9,-12,-128,-41,72,8
1491090349796,0,-2,-3,-10,4,0,-69,-108,-19
1491090349796,0,14,13,13,2,70,80,40,19
1491090349797,2,0,-29,-20,0,-14,-4,77,-24
1491090349797,2,-16,47,52,116,106,-45,-24,8
1491090349798,3,-3,-1,-9,-15,-81,17,48,-3
1491090349798,3,-2,-2,-32,-65,-64,29,-5,-3
1491090349843,0,82,-23,-26,13,-55,-85,-50,-7
1491090349843,0,-32,-17,-18,-55,-94,77,1,-11
1491090349845,1,12,-28,-11,2,15,-42,-20,-1
1491090349845,1,7,10,13,28,5,-10,-28,-9
1491090349846,3,-38,-15,-11,-51,-95,-39,-54,-7
1491090349846,3,69,-8,-15,-24,-84,72,62,16
1491090349847,0,2,8,17,11,82,56,-48,-2
1491090349847,0,6,17,33,11,-22,-62,84,7
1491090349892,1,-20,-12,-12,31,124,70,-17,-5
1491090349892,1,-54,14,16,31,76,64,40,4
1491090349893,2,8,1,-26,-39,-92,-81,-11,0
1491090349893,2,-8,-2,-6,-45,-128,100,-4,9
1491090349894,0,7,12,17,9,5,44,-33,4
1491090349894,0,22,-7,-6,41,-11,-38,-8,-12
1491090349895,1,-42,23,30,27,68,104,75,25
1491090349895,1,8,-15,-26,-21,-59,2,-67,-5
1491090349941,2,46,-27,-41,-41,-76,-76,15,5
1491090349941,2,-34,-11,4,-27,-79,42,19,-12
1491090349942,3,-13,-10,-12,11,83,-51,-52,15
1491090349942,3,-4,8,15,4,-39,53,-31,-13
1491090349944,1,39,19,29,19,-13,22,44,2
1491090349944,1,-43,6,1,-25,6,-2,27,-11
1491090349944,2,-33,1,25,26,31,64,6,25
1491090349944,2,-19,-20,-23,-26,-39,-122,-88,-11
1491090349990,3,20,-9,-26,-31,-76,91,5,-5
1491090349990,3,-3,-5,11,13,49,-11,-12,0
1491090349991,0,9,14,0,0,14,20,34,-8
1491090349991,0,-30,4,29,46,61,61,51,21
1491090349992,2,8,-7,-16,-9,-15,-23,-39,-11
1491090349992,2,-14,6,-4,-1,13,19,-41,4
1491090349993,3,37,-24,-26,4,-121,-66,74,-10
1491090349993,3,-37,3,5,-35,33,15,-4,1
1491090350038,0,-15,-6,29,46,127,28,-55,13
1491090350038,0,49,-11,-32,0,-67,59,-6,-10
1491090350040,1,-11,-6,-8,-38,-37,-26,3,2
1491090350040,1,-48,-11,11,52,74,99,25,0
1491090350041,2,-11,5,-8,-48,2,-6,-48,-2
1491090350041,2,33,16,-13,-17,-59,-59,35,2
1491090350042,3,-18,-3,6,12,74,113,-20,0
1491090350042,3,50,-18,-30,-28,-83,-56,-10,-14
1491090350087,0,-46,13,7,23,30,-20,-29,-5
1491090350087,0,0,6,14,6,75,46,21,8
1491090350088,1,-78,2,2,-28,5,81,13,-18
1491090350088,1,51,3,-6,22,-71,-90,-35,6
1491090350089,3,-39,-13,2,31,23,-20,25,16
1491090350089,3,-6,8,17,26,51,17,-97,7
1491090350091,0,-51,7,20,20,-20,13,43,-25
1491090350091,0,7,-4,4,-32,47,50,5,8
1491090350136,1,-15,5,-11,-24,-99,-12,41,10
1491090350136,1,-2,-15,-16,-2,29,15,-23,-4
1491090350137,2,-19,20,20,55,95,-8,10,9
1491090350137,2,19,-13,-15,-16,-15,-66,-55,-18
1491090350137,0,-8,-6,7,-7,61,-71,-6,-9
1491090350137,0,-9,-20,-10,-11,127,127,59,-7
1491090350138,1,28,3,-17,-16,-105,-78,-58,-8
1491090350138,1,19,-10,-2,9,39,40,53,-9
1491090350184,2,-76,-7,1,-6,-73,104,22,-2
1491090350184,2,13,-5,11,13,30,-40,-69,5
1491090350186,3,45,13,0,11,-69,-110,11,-3
1491090350186,3,-68,4,29,-5,3,127,39,9
1491090350187,1,-13,10,10,18,50,71,5,3
1491090350187,1,-5,0,10,18,19,28,-84,5
1491090350188,2,53,0,-9,9,-112,-72,92,15
1491090350188,2,-87,2,24,7,-16,85,17,-10
1491090350233,3,120,3,-34,-57,-81,-96,-20,-9
1491090350233,3,-32,10,-5,-14,44,4,-35,-12
1491090350234,0,0,-15,-17,-32,-67,76,-37,-26
1491090350234,0,25,-3,-13,-3,10,37,-12,24
1491090350235,2,10,11,8,14,85,-21,5,6
1491090350235,2,14,-7,-6,-12,-110,-34,43,-15
1491090350236,3,-40,7,28,23,90,127,6,26
1491090350236,3,90,-11,-22,-14,13,-128,35,-14
1491090350282,0,-6,-2,-34,-18,15,61,30,-14
1491090350282,0,10,-7,0,13,-20,5,2,-1
1491090350283,1,9,26,-1,-27,-42,-85,-64,-5
1491090350283,1,-13,-1,14,15,-60,49,69,-1
1491090350284,3,-30,-30,-35,-23,-41,-74,-6,-9
1491090350284,3,33,-41,-30,-38,-115,44,-11,9
1491090350284,0,37,22,-1,7,2,-106,22,8
1491090350284,0,-6,-14,-9,-6,-9,-28,48,14
1491090350331,1,-13,-13,12,24,67,28,0,-8
1491090350331,1,-48,-9,9,-5,11,35,-59,6
1491090350332,2,36,0,-4,10,-3,2,-7,-17
1491090350332,2,6,-2,13,28,109,-52,40,19
1491090350333,0,18,-8,-9,-68,-128,60,20,-3
1491090350333,0,45,10,-27,4,1,-118,-85,-11
1491090350334,1,-9,-15,-2,22,40,33,21,-4
1491090350334,1,20,31,15,25,-5,28,15,-2
1491090350379,2,-49,3,37,21,67,111,55,23
1491090350379,2,-6,-3,-12,6,-28,-80,6,-12
1491090350380,3,-23,-9,10,1,30,127,-29,17
1491090350380,3,27,40,33,-4,-51,13,-40,-12
1491090350381,0,6,-47,-46,-16,3,7,-1,-20
1491090350381,0,13,-11,-20,-15,-51,75,-5,7
1491090350382,1,22,-3,-17,-24,-9,2,-25,-10
1491090350382,1,2,-5,8,21,-38,-20,40,13
1491090350428,2,-32,26,34,47,78,12,-54,2
1491090350428,2,-16,19,31,-12,-14,117,51,0
1491090350429,3,-4,-11,-6,13,-60,-86,-30,-3
1491090350429,3,-8,-29,-32,-57,-80,9,-16,17
1491090350430,1,9,-11,-21,13,41,-8,34,2
1491090350430,1,-10,14,17,-21,-39,68,-118,-5
1491090350431,2,39,-3,-34,-2,-51,-128,-99,-4
1491090350431,2,-41,11,23,18,48,68,86,-1
1491090350477,3,-6,0,-3,-29,-31,39,-41,1
1491090350477,3,-26,-12,9,26,111,51,23,-2
1491090350478,0,-27,-28,-24,-21,-79,-34,-8,4
1491090350478,0,-12,12,5,0,87,44,-28,-9
1491090350479,2,28,-9,-15,-3,-15,-43,-59,7
1491090350479,2,-44,-15,7,32,-12,-9,-28,-22
1491090350480,3,-6,27,32,16,98,79,58,-1
1491090350480,3,42,-26,-67,-75,-62,-99,-27,-16
1491090350526,0,-34,-22,-14,29,17,63,-71,-1
1491090350526,0,1,24,25,-27,-38,80,51,10
1491090350527,1,-3,-18,-23,0,6,-14,-34,-2
1491090350527,1,-2,17,15,13,-23,-42,-66,-4
1491090350527,3,-51,-12,10,-13,38,24,16,11
1491090350527,3,33,-26,-39,6,-45,-89,-60,-6
1491090350528,0,-13,-25,-23,-26,-106,84,26,-7
1491090350528,0,14,-7,-18,-37,-11,-67,-32,14
1491090350575,1,-40,29,30,16,47,66,-30,-6
1491090350575,1,39,-10,-4,20,63,-99,25,-5
1491090350576,2,-22,24,35,62,90,43,-46,5
1491090350576,2,-16,-6,-4,-42,-96,60,65,45
1491090350576,0,-36,25,31,5,19,20,-32,-7
1491090350576,0,59,7,-8,3,17,-33,12,-20
1491090350577,1,-39,-10,2,-14,-39,55,-16,-6
1491090350577,1,12,-30,-18,51,37,-18,16,-24
1491090350623,2,15,25,39,-12,86,31,104,16
1491090350623,2,-77,6,6,-22,-92,4,34,-14
1491090350624,3,79,-36,-68,-48,-63,-112,-42,-23
1491090350624,3,48,-5,1,36,21,-11,-58,-8
1491090350625,1,-37,16,36,22,-3,68,46,-2
1491090350625,1,-27,20,16,12,72,41,-25,5
1491090350625,2,-4,12,-9,-6,-28,45,-45,-7
1491090350625,2,14,42,38,6,30,-16,-5,-13
1491090350672,3,-8,-41,-58,-45,-128,-58,1,6
1491090350672,3,-27,23,10,-13,97,75,28,14
1491090350673,0,30,-18,-27,0,-96,-118,-54,-13
1491090350673,0,-29,-7,22,24,76,66,12,-6
1491090350673,2,17,0,14,13,66,122,108,12
1491090350673,2,42,-7,-12,43,23,-128,-48,-5
1491090350674,3,-22,-9,3,15,31,-15,4,-4
1491090350674,3,-22,0,-2,-44,-128,127,68,0
1491090350721,0,47,-14,-37,-47,-61,-128,-97,-4
1491090350721,0,-31,-9,-9,15,23,106,65,22
1491090350721,1,5,14,33,50,99,112,-16,-1
1491090350721,1,-19,35,45,11,107,38,86,-4
1491090350722,3,41,-15,-45,-65,-107,-91,-98,-28
1491090350722,3,12,-19,-17,-27,-70,-31,41,9
1491090350723,0,19,-1,7,30,48,-53,-99,-14
1491090350723,0,-40,-15,-6,-7,10,54,7,-12
1491090350769,1,5,-11,-3,14,-26,-77,-5,9
1491090350769,1,-15,6,18,16,-1,87,20,-3
1491090350771,2,26,-2,-12,-24,-49,-43,-46,-12
1491090350771,2,30,-28,-38,-35,-101,-116,-33,-6
1491090350771,3,-43,-3,3,-16,5,102,71,0
1491090350771,3,69,-27,-45,14,-103,-128,-118,-7
1491090350772,0,2,22,24,7,53,127,65,14
1491090350772,0,-69,9,22,33,113,11,-9,-11
1491090350818,1,49,-6,-6,2,-35,-122,-24,-3
1491090350818,1,-16,-2,-16,-48,-39,126,4,-7
1491090350819,2,8,-6,10,37,-37,-67,-10,-6
1491090350819,2,56,23,21,32,67,68,-119,19
1491090350820,0,15,6,-11,-22,-11,-20,45,8
1491090350820,0,17,-16,-19,-36,-43,-12,-31,-4
1491090350820,1,-30,13,34,68,59,76,-21,-2
1491090350820,1,44,-5,-6,-5,73,-83,0,11
1491090350867,2,-7,47,39,15,16,88,39,-12
1491090350867,2,31,-12,-19,-27,-107,53,11,-4
1491090350868,3,-72,19,27,54,127,127,65,13
1491090350868,3,59,-2,-13,-62,-85,-47,-31,-11
1491090350868,1,-2,37,45,0,46,116,56,-2
1491090350868,1,-30,-1,9,23,-42,-36,-8,-7
1491090350869,2,0,-25,-10,-5,9,-1,-41,1
1491090350869,2,-50,-5,-7,-44,-95,93,-32,-1
1491090350916,3,35,-8,-8,37,102,-84,-41,3
1491090350916,3,-22,-2,10,20,57,82,32,12
1491090350917,0,21,11,-5,-39,-22,23,-32,-2
1491090350917,0,4,-10,-13,2,-76,-112,63,11
1491090350917,2,22,0,-11,32,-10,-94,-21,-19
1491090350917,2,-50,0,14,1,74,81,57,-8
1491090350918,3,49,21,10,20,-46,-128,-46,-6
1491090350918,3,-18,3,14,-15,10,70,97,-3
1491090350964,0,-37,-15,4,19,67,97,45,2
1491090350964,0,26,-16,-44,-13,-54,-128,-87,-15
1491090350965,1,33,-19,-9,-47,-30,20,-44,-3
1491090350965,1,-43,12,25,36,28,82,73,24
1491090350966,3,-1,17,14,29,33,51,-39,-5
1491090350966,3,36,-19,-23,-7,-20,-67,13,2
1491090350967,0,-77,-3,10,-11,-35,64,44,10
1491090350967,0,23,-8,13,17,23,-47,-12,1
1491090351013,1,-1,-3,-14,-11,-6,93,5,-5
1491090351013,1,16,10,14,29,90,56,-14,-6
1491090351062,2,-14,5,0,-32,20,39,-12,5
1491090351062,2,-6,-13,-4,12,-36,-45,13,6
1491090351063,0,-50,-4,15,20,-4,117,62,0
1491090351063,0,-16,8,29,41,109,-69,-102,-13
1491090351068,1,-18,-18,-18,-41,-108,13,86,12
1491090351068,1,33,-7,-21,-15,24,-4,-7,12
1491090351069,2,-7,-15,-24,-10,-14,-19,-78,-12
1491090351069,2,-46,5,26,16,81,91,17,6
1491090351111,3,14,-21,-4,12,-29,-28,-17,-6
1491090351111,3,-6,0,-12,1,-3,-91,-66,-21
1491090351113,1,41,-16,-30,15,14,-29,-38,8
1491090351113,1,-6,1,15,10,29,11,32,2
1491090351114,2,3,6,21,25,9,97,53,2
1491090351114,2,9,20,3,3,12,-101,1,-2
1491090351115,1,12,4,-17,-10,-55,-128,-4,-9
1491090351115,1,-39,14,27,10,-67,107,6,3
1491090351159,2,50,-7,-24,-27,-20,-74,-43,10
1491090351159,2,-16,-4,16,36,-15,83,66,-20
1491090351161,3,-12,-15,2,13,127,11,-5,19
1491090351161,3,-37,36,27,-12,-69,81,-80,-21
1491090351162,2,-32,-12,-16,0,49,-6,4,-10
1491090351162,2,-12,1,15,5,-84,-38,62,6
1491090351162,3,14,16,21,-5,2,96,14,2
1491090351162,3,-56,-23,-17,-10,32,-70,89,-10
1491090351209,0,-31,-12,-1,-6,35,-65,-17,-15
1491090351209,0,90,-2,-42,1,-76,-65,9,10
1491090351214,1,-45,9,12,-18,-27,-47,-7,3
1491090351214,1,10,-22,-19,12,2,14,23,-10
1491090351215,3,18,-6,-5,14,38,-32,-1,-7
1491090351215,3,-28,4,15,1,-9,82,-73,14
1491090351216,0,22,2,-15,-19,-11,16,27,-17
1491090351216,0,15,15,-7,-37,-102,-26,-43,9
1491090351257,1,-53,-2,12,26,80,-80,14,-19
1491090351257,1,19,3,-8,10,25,-10,-17,14
1491090351258,2,0,-16,9,1,-70,127,45,3
1491090351258,2,-24,-8,-18,10,85,-96,-27,-21
1491090351259,0,-25,-3,24,30,100,88,48,8
1491090351259,0,-16,-9,-10,-19,-104,-55,-34,-7
1491090351260,1,25,19,9,14,90,44,23,8
1491090351260,1,11,-2,7,44,33,49,2,-7
1491090351306,2,-12,-1,-5,-48,-92,-45,-37,-4
1491090351306,2,-16,-2,7,-5,35,107,26,4
1491090351307,3,74,-13,-18,17,26,-115,-57,-7
1491090351307,3,-38,-10,-6,-36,-40,122,70,16
1491090351307,1,-23,0,3,1,-4,18,75,1
1491090351307,1,-88,-8,22,20,-10,124,28,1
1491090351308,2,65,32,-1,-28,-117,-93,-5,16
1491090351308,2,-52,-18,-18,-32,-7,-20,17,11
1491090351354,3,14,22,10,3,-18,35,7,0
1491090351354,3,3,-9,3,18,-5,32,33,-8
1491090351356,0,-32,7,13,32,72,-27,-20,13
1491090351356,0,-4,4,2,-23,20,44,16,7
1491090351357,2,-14,-13,-8,2,96,121,42,7
1491090351357,2,9,-8,-17,4,-32,-18,-38,-14
1491090351357,3,-16,25,3,-40,-2,-96,-59,-10
1491090351357,3,37,-6,-14,16,77,24,4,3
1491090351403,0,-30,9,31,29,9,55,27,-4
1491090351403,0,4,14,2,-45,-61,-17,-10,0
1491090351404,1,-5,-16,-8,10,-34,127,41,4
1491090351404,1,-14,6,19,24,68,23,-26,-7
1491090351405,3,-11,-13,-5,-30,-90,6,62,2
1491090351405,3,12,3,2,-12,20,-68,-47,0
1491090351406,0,12,-19,-19,27,15,-26,-48,-3
1491090351406,0,-9,13,29,-12,-39,99,82,11
1491090351452,1,38,-4,-18,17,-39,-128,-35,-4
1491090351452,1,-58,-10,4,1,93,-13,40,-13
1491090351452,2,23,-17,-32,-44,-128,-57,-27,9
1491090351452,2,-19,4,8,24,70,38,21,-14
1491090351453,3,11,-7,-9,12,-19,-85,-15,-9
1491090351453,3,-1,-6,5,11,35,121,39,15
1491090351454,0,11,1,3,-8,15,-2,23,-16
1491090351454,0,32,1,-26,-34,-74,-68,-35,-8
1491090351501,1,-24,4,14,10,105,100,5,0
1491090351501,1,12,1,-15,-29,-51,-19,-24,14
1491090351502,2,-27,-14,1,37,-38,19,-33,3
1491090351502,2,3,2,13,10,51,-33,8,-6
1491090351503,0,13,30,7,7,-38,35,21,-11
1491090351503,0,-21,0,0,-31,-2,29,47,11
1491090351504,1,30,-11,-21,11,65,-35,-33,1
1491090351504,1,-29,-6,1,38,53,-47,-36,-21
1491090351549,2,-31,4,28,-6,28,49,5,14
1491090351549,2,57,-16,-16,0,4,-75,18,-17
1491090351551,3,-5,9,-9,-33,-57,63,8,3
1491090351551,3,7,-13,-11,5,5,3,3,4
1491090351551,1,10,3,-2,6,42,-67,-17,1
1491090351551,1,42,-2,-20,-38,-93,32,42,0
1491090351552,2,-15,7,7,13,24,-65,-2,-6
1491090351552,2,-20,-16,-1,11,-21,52,17,-6
1491090351598,3,3,-14,-9,7,29,80,-52,-4
1491090351598,3,45,13,-14,-13,-47,-128,-66,6
1491090351599,0,-4,-17,-9,-23,60,25,-61,2
1491090351599,0,44,-12,-14,30,-22,-38,-18,-12
1491090351600,2,-16,-3,16,19,39,-8,-20,-3
1491090351600,2,5,-6,2,-15,-33,-25,-5,-4
1491090351601,3,-65,-12,-7,-9,-47,67,34,0
1491090351601,3,76,-10,-32,-35,-73,-51,71,-12
1491090351647,0,-38,-1,-3,-6,-14,55,51,1
1491090351647,0,31,13,2,20,47,0,-70,0
1491090351648,1,-4,9,21,16,24,1,127,7
1491090351648,1,-72,-19,4,9,7,98,-22,-10
1491090351648,3,6,12,24,-21,-75,2,-6,3
1491090351648,3,-11,-16,-24,-1,18,-27,-29,6
1491090351650,0,-13,7,8,-8,-28,52,69,-3
1491090351650,0,5,6,-11,-12,54,-48,-81,-2
1491090351695,1,9,11,23,34,-1,62,56,-5
1491090351695,1,33,16,-5,2,-23,-117,-32,-2
1491090351697,2,44,-8,3,11,37,127,23,-4
1491090351697,2,5,20,19,-25,-128,84,51,0
1491090351697,0,-40,11,5,-57,-87,29,13,4
1491090351697,0,27,-30,-45,-33,-54,-46,79,-3
1491090351698,1,43,-22,-34,5,-20,-30,-128,-1
1491090351698,1,8,15,24,8,14,24,24,5
1491090351744,2,-41,-3,-5,9,14,-30,15,-9
1491090351744,2,-33,-12,30,11,26,10,-72,-1
1491090351746,3,-45,13,23,26,91,103,107,-8
1491090351746,3,46,-7,-24,-14,-104,-86,-30,6
1491090351747,1,29,-15,-22,12,-35,-11,5,-14
1491090351747,1,-23,-9,-13,-1,-1,73,-9,8
1491090351747,2,-20,7,23,16,-22,59,-10,2
1491090351747,2,4,2,13,42,81,-43,53,7
1491090351793,3,-42,14,22,-35,-29,61,-19,10
1491090351793,3,-1,-4,8,18,-42,39,116,-1
1491090351794,0,76,-6,-32,-32,-96,-105,-16,-11
1491090351794,0,-17,-4,3,1,11,84,4,-1
1491090351795,1,14,2,-5,7,2,1,5,2
1491090351795,1,0,23,22,1,-61,-96,-89,-5
1491090351796,2,19,-39,-37,-15,29,-49,-52,-17
1491090351796,2,-7,15,14,31,103,46,48,6
1491090351842,3,-8,4,27,6,-23,32,20,9
1491090351842,3,42,10,-36,-50,-64,-28,-38,12
1491090351843,0,-20,24,19,31,-44,101,96,20
1491090351843,0,-8,-7,9,16,40,-42,-42,-6
1491090351843,2,35,-23,-39,-20,-118,1,-37,-8
1491090351843,2,23,25,29,45,66,-68,-44,-11
1491090351844,3,35,-13,-4,29,60,6,-21,11
1491090351844,3,-71,6,33,12,-19,-36,-4,-5
1491090351891,0,31,-18,-25,-31,9,-65,-49,-7
1491090351891,0,-11,-3,-4,-28,-128,78,54,-1
1491090351941,1,-37,-7,7,8,94,23,30,-23
1491090351941,1,38,2,-7,3,-6,-76,85,6
1491090351942,3,20,17,-12,-12,-103,-55,-71,-2
1491090351942,3,-47,-25,-20,-18,81,25,5,-2
1491090351943,0,7,16,37,37,12,34,43,12
1491090351943,0,-64,-16,-16,-18,48,-66,0,-3
1491090351943,1,26,-17,-27,-4,-76,-15,-61,-9
1491090351943,1,-33,13,31,-6,79,127,21,1
1491090351944,2,26,-2,-13,24,68,-80,-39,-11
1491090351944,2,0,0,15,11,-40,92,48,2
1491090351944,0,-12,22,33,3,29,123,84,10
1491090351944,0,-63,9,-1,-20,-121,96,66,4
1491090351945,1,58,-10,-12,21,94,-104,-30,-4
1491090351945,1,-37,-17,-27,-13,-5,127,23,-9
1491090351988,2,-46,9,30,55,96,7,-12,10
1491090351988,2,3,12,7,-11,-2,58,-13,-9
1491090351989,3,14,-4,-15,-32,-73,-77,27,1
1491090351989,3,-21,-4,5,-16,-83,58,-43,-8
1491090351990,1,5,-12,-8,-22,-109,-5,23,10
1491090351990,1,-17,16,-2,-11,3,7,-15,-20
1491090351991,2,-17,-23,-23,6,20,18,-35,-13
1491090351991,2,23,25,30,35,3,-4,-71,5
1491090352037,3,-37,4,28,37,127,66,79,-2
1491090352037,3,36,-17,-37,-42,-78,-126,-28,2
1491090352038,0,-19,-23,-26,-30,-86,-3,-51,-12
1491090352038,0,56,7,3,53,71,32,16,6
1491090352038,2,37,-9,-10,-53,-77,2,-37,-15
1491090352038,2,27,-21,-33,21,-44,-128,2,1
1491090352039,3,-8,2,18,13,43,3,-22,7
1491090352039,3,-43,11,30,44,69,116,46,-1
1491090352086,0,88,-5,-35,-37,-53,-128,-47,-18
1491090352086,0,-26,-15,-7,-8,-5,127,79,14
1491090352087,1,-16,20,25,70,105,38,-66,-7
1491090352087,1,8,-29,-25,-62,-41,-45,-93,-11
1491090352087,3,-11,-5,-13,21,26,-51,-20,-13
1491090352087,3,-10,11,42,34,29,84,71,15
1491090352088,0,-45,7,7,-4,-18,25,-40,3
1491090352088,0,-1,-9,-21,-60,-122,-54,-80,-14
1491090352135,1,9,-2,-1,-1,22,73,68,2
1491090352135,1,16,-8,-4,41,115,22,-72,-6
1491090352135,2,15,9,-1,-5,18,-68,99,-1
1491090352135,2,-19,-7,23,-2,58,104,44,-4
1491090352136,0,49,13,6,-11,-64,26,-19,10
1491090352136,0,-15,1,2,24,123,-28,-91,1
1491090352137,1,39,-12,-28,-12,-53,8,26,12
1491090352137,1,-13,10,31,34,75,31,-54,-1
1491090352183,2,6,-14,-17,16,-2,-38,-74,10
1491090352183,2,1,-13,-33,-84,-128,-85,26,-16
1491090352184,3,-32,-8,3,-19,-101,34,9,-1
1491090352184,3,42,-12,-6,-5,51,-27,73,6
1491090352185,0,-70,6,22,46,66,-23,-21,-4
1491090352185,0,-24,-17,7,-8,-19,97,-71,-13
1491090352185,1,31,4,-6,-19,0,-72,-7,-19
1491090352185,1,49,3,13,17,-4,39,65,23
1491090352232,2,-74,14,16,42,45,39,111,-2
1491090352232,2,-9,-14,-19,-40,-6,-15,-62,-2
1491090352233,3,14,2,6,-21,9,-3,2,8
1491090352233,3,-5,10,-2,36,1,8,5,-11
1491090352233,1,-16,6,7,-1,-50,32,15,12
1491090352233,1,29,5,-24,-30,49,-19,-55,-7
1491090352234,2,9,-4,-2,15,-12,48,16,5
1491090352234,2,-40,4,26,31,90,47,-35,3
1491090352281,3,52,19,3,-5,21,-39,69,10
1491090352281,3,-32,-14,-18,-40,-128,-19,57,-1
1491090352282,0,10,-9,3,-8,33,-22,-62,-29
1491090352282,0,1,12,10,20,-40,48,47,20
1491090352282,2,-6,10,21,-1,81,51,-57,-23
1491090352282,2,26,14,0,7,-40,-108,14,-7
1491090352283,3,-13,-16,-10,-22,-25,39,-48,-8
1491090352283,3,-4,0,7,29,63,22,-7,-4
1491090352329,0,-34,11,24,30,18,31,7,-4
1491090352329,0,45,-18,-24,-33,-75,27,64,22
1491090352330,1,-24,4,-11,-7,-2,-38,-6,-13
1491090352330,1,21,-10,-4,-7,-15,48,40,0
1491090352331,3,-32,2,23,30,-68,-36,15,17
1491090352331,3,-46,4,24,20,95,55,-6,-10
1491090352332,0,52,-9,-7,17,-20,20,-33,16
1491090352332,0,-11,-15,-26,-43,-70,-68,-21,1
1491090352378,1,2,2,-2,-42,-35,80,23,5
1491090352378,1,54,-15,-19,12,-82,-74,-52,2
1491090352379,2,-20,-5,-11,-28,23,66,100,10
1491090352379,2,11,8,7,36,91,-36,-37,1
1491090352379,0,52,18,-10,-18,-24,-19,-88,-9
1491090352379,0,6,-15,-5,10,69,58,70,6
1491090352380,1,-28,-27,9,26,26,78,68,0
1491090352380,1,8,26,-3,-41,-54,-33,47,-10
1491090352427,2,-12,6,4,-21,-62,-9,8,8
1491090352427,2,-19,16,7,7,-22,58,46,-3
1491090352427,3,17,-6,-1,42,31,-117,-59,-2
1491090352427,3,7,18,19,26,127,39,1,-11
1491090352428,1,13,-14,-34,-9,-71,-59,-16,-15
1491090352428,1,-2,-2,21,9,56,44,32,-20
1491090352429,2,-53,-9,4,-11,-43,36,20,14
1491090352429,2,15,-26,-46,-33,-104,-40,34,-9
1491090352476,3,25,-27,-12,3,87,98,-69,-4
1491090352476,3,-36,1,6,2,38,25,-17,0
1491090352477,0,42,16,12,14,50,-38,61,4
1491090352477,0,-45,2,-1,-13,-65,-79,-24,-16
1491090352477,2,-15,-11,-16,-18,-10,-27,-27,-2
1491090352477,2,-24,-5,7,18,24,68,-59,3
1491090352478,3,88,46,-7,10,35,-111,-109,-33
1491090352478,3,-8,3,10,21,-65,40,22,8
1491090352524,0,-35,-14,-10,-45,2,75,-13,-1
1491090352524,0,13,12,5,2,71,-57,-56,-19
1491090352525,1,14,-11,-17,-11,-65,11,37,26
1491090352525,1,10,-5,7,-2,-55,-13,7,-3
1491090352526,2,-27,-2,15,39,86,18,-100,-27
1491090352526,2,60,9,-3,23,18,-27,99,-5
1491090352527,3,-28,4,-1,-25,21,74,26,8
1491090352527,3,31,5,1,-2,14,-16,-14,-3
1491090352573,0,25,-9,-28,-46,-128,-77,-32,-12
1491090352573,0,-23,1,14,6,64,113,11,9
1491090352575,1,-20,4,19,32,69,37,54,-3
1491090352575,1,-18,-27,-29,-48,24,19,-4,2
1491090352576,3,-57,-20,5,23,32,-34,93,-7
1491090352576,3,9,19,3,-57,-75,-16,-71,7
1491090352576,0,39,6,-15,-2,28,-18,14,-39
1491090352576,0,-12,-15,-22,-8,-86,-61,27,19
1491090352622,1,-27,2,13,20,5,25,-19,7
1491090352622,1,8,-4,11,14,65,-10,20,-6
1491090352623,2,6,-10,-17,-6,-87,-16,9,5
1491090352623,2,0,6,3,-2,-30,68,35,1
1491090352623,0,29,1,-5,-10,20,32,-23,-9
1491090352623,0,-2,-3,-15,-2,4,-57,-71,4
1491090352625,1,-10,1,-1,11,37,104,38,15
1491090352625,1,26,12,22,27,-9,-80,-57,6
1491090352670,2,-59,-17,-1,-22,-6,82,127,19
1491090352670,2,-3,-9,-9,-5,12,41,9,-31
1491090352672,3,34,5,-6,-30,-2,-58,-61,-1
1491090352672,3,-47,-9,-28,15,-18,-4,-20,-9
1491090352672,1,20,-23,-53,-69,-50,-74,-34,-5
1491090352672,1,58,0,-10,48,2,-52,-24,-8
1491090352673,2,-2,0,15,6,35,62,52,20
1491090352673,2,-61,18,4,-48,-74,-9,32,2
1491090352719,3,48,-3,-12,-18,-93,-80,-15,-19
1491090352719,3,-35,-16,5,10,3,27,46,4
1491090352720,0,7,2,-5,53,92,-25,-125,-3
1491090352720,0,-24,20,19,30,64,56,-23,-6
1491090352721,2,-13,-1,-19,-15,-38,-37,-37,-17
1491090352721,2,3,-8,8,2,-19,94,45,7
1491090352722,3,-19,-13,-9,5,84,-7,-82,-9
1491090352722,3,35,6,-18,-20,-90,-45,-32,-3
1491090352768,0,3,-22,-14,-16,23,-3,-3,7
1491090352768,0,-12,-16,-10,3,4,-33,-36,-8
1491090352770,1,-22,23,32,17,-7,93,46,7
1491090352770,1,-12,13,-2,2,-29,-57,1,3
1491090352771,3,-21,15,17,31,0,-76,-82,-5
1491090352771,3,-35,-13,-4,-19,-53,127,-28,-2
1491090352772,0,18,-16,-41,-25,-24,-114,-68,-12
1491090352772,0,-34,-1,11,16,46,79,6,-8
1491090352817,1,2,1,3,-14,-24,22,97,19
1491090352817,1,32,1,-16,-16,-49,4,-31,-14
1491090352818,2,-16,-8,10,32,36,-21,-6,-9
1491090352818,2,1,23,33,11,52,94,3,0
1491090352819,0,5,6,3,15,-43,97,48,-6
1491090352819,0,25,-12,-4,13,51,-52,-17,-8
1491090352866,1,-5,5,9,18,-17,124,33,17
1491090352866,1,-19,-11,-18,-45,-10,-26,15,-7
1491090352867,2,-3,-9,0,-2,-38,94,-14,-2
1491090352867,2,3,-11,-31,-1,19,-108,-59,-13
1491090352869,3,13,-23,-19,-29,-75,38,-43,2
1491090352869,3,-10,13,23,35,110,-41,6,-4
1491090352870,0,-8,-5,2,3,1,22,39,-3
1491090352870,0,12,-11,-18,-54,-128,-85,11,3
1491090352914,1,-21,-3,1,31,49,25,-46,-6
1491090352914,1,18,6,8,6,73,-21,-50,-8
1491090352915,2,-4,-3,0,10,-88,22,49,-2
1491090352915,2,-37,11,20,19,122,-14,-97,6
1491090352916,3,70,-1,-27,-32,-92,31,2,-7
1491090352916,3,-32,-13,-13,-10,-114,43,107,-4
1491090352917,1,-29,7,22,22,127,27,-6,-8
1491090352917,1,25,21,9,28,-2,39,-27,4
1491090352963,2,-38,-9,-7,-79,-17,-1,10,12
1491090352963,2,30,-15,-23,-12,-82,-78,-3,-8
1491090352964,3,54,-4,-12,-19,-59,-128,-34,-13
1491090352964,3,8,1,22,25,64,127,24,18
1491090352965,2,-52,11,16,-42,65,81,53,-24
1491090352965,2,20,-5,-21,24,-11,-41,21,4
1491090352965,3,21,-14,4,35,77,13,-23,6
1491090352965,3,-12,2,-2,-51,-95,13,17,-6
1491090353012,0,30,-1,-10,6,-60,-98,-13,10
1491090353012,0,-60,4,22,9,-6,57,-72,-14
1491090353013,1,12,-54,-58,-80,-29,-23,-24,-7
1491090353013,1,-36,-11,4,38,31,67,-9,2
1491090353014,3,53,6,-18,-42,-80,-81,-34,12
1491090353014,3,13,-5,-4,-5,75,107,29,16
1491090353015,0,15,-4,-13,3,-92,-120,53,-25
1491090353015,0,-31,28,50,42,107,86,70,21
1491090353061,1,-56,41,55,92,121,115,9,-7
1491090353061,1,7,-3,-8,-56,-86,-52,16,-13
1491090353062,2,-39,-9,-24,-61,-61,-44,-92,0
1491090353062,2,49,-20,-38,-17,-89,-105,-77,-25
1491090353064,0,54,10,2,10,14,53,78,30
1491090353064,0,-41,-18,-28,-69,-7,69,-39,1
1491090353065,1,47,-7,-19,41,-3,-86,-74,2
1491090353065,1,-40,35,64,122,127,71,-14,-3
1491090353109,2,-73,-17,-2,-64,-31,42,-44,-12
1491090353109,2,33,-25,-49,-69,-97,-55,-17,-17
1491090353111,3,-18,-6,10,54,73,-2,34,15
1491090353111,3,60,-4,-26,-30,-67,-88,54,7
1491090353111,1,-64,1,-7,-9,-1,82,24,-5
1491090353111,1,-53,-3,41,46,-82,43,80,-14
1491090353112,2,6,15,-11,-60,127,-41,-21,2
1491090353112,2,32,0,-12,33,22,96,76,-2
1491090353159,3,-52,14,8,-9,7,75,-79,-3
1491090353159,3,-29,-12,-10,-51,30,42,33,26
1491090353160,0,44,2,-2,35,-41,11,-5,-7
1491090353160,0,-62,27,29,7,-28,80,23,15
1491090353161,2,-44,-75,-44,-23,-23,85,4,-8
1491090353161,2,17,23,18,-1,-70,15,-58,11
1491090353162,3,-24,23,46,40,41,-42,45,-16
1491090353162,3,-5,1,-14,-19,-117,8,-71,3
1491090353207,0,-32,-8,15,27,74,20,63,-4
1491090353207,0,8,-14,0,-12,-1,-4,44,-4
1491090353208,1,52,-17,-42,-47,-128,-33,45,-10
1491090353208,1,-77,22,47,46,113,66,14,8
1491090353209,2,39,-34,-54,-23,-55,-128,-119,-22
1491090353209,2,-22,5,1,-25,-48,93,-3,6
1491090353210,3,-19,13,22,-5,-1,72,-56,1
1491090353210,3,36,-5,-20,0,44,-64,-12,6
1491090353255,0,-14,8,17,59,-71,41,34,-10
1491090353255,0,-21,2,25,-21,80,28,-42,-2
1491090353256,1,45,-46,-69,-42,-43,-77,-13,30
1491090353256,1,-32,-20,32,65,117,75,32,0
1491090353304,3,5,5,-8,-5,37,92,32,-10
1491090353304,3,-16,-14,-37,-86,-95,-24,-80,-18
1491090353305,0,54,7,-39,0,47,-59,40,6
1491090353305,0,21,7,4,22,38,46,-118,-1
1491090353306,1,-21,-12,-13,8,-9,-7,119,11
1491090353306,1,-27,19,17,15,32,-7,-3,-16
1491090353307,2,20,-20,-7,12,93,-50,-61,-10
1491090353307,2,-26,-3,-15,-28,-105,-11,62,1
1491090353402,0,-32,-21,-11,36,16,127,113,13
1491090353402,0,57,27,17,2,-20,-128,-71,-26
1491090353403,1,-77,-19,3,-54,-127,127,53,3
1491090353403,1,54,21,3,32,40,-111,-31,-1
1491090353403,2,-32,27,49,40,105,110,73,3
1491090353403,2,36,-25,-34,-33,4,-81,45,30
1491090353404,1,26,-10,-19,-36,-57,-42,29,3
1491090353404,1,-29,33,16,38,85,46,89,11
1491090353451,2,-13,-18,1,20,-25,-20,-61,1
1491090353451,2,10,8,38,54,63,4,-52,-3
1491090353452,3,-50,-17,-5,-89,-91,14,-69,6
1491090353452,3,77,-43,-78,-18,62,0,11,-13
1491090353453,2,18,-8,-6,-57,-47,2,-44,5
1491090353453,2,7,-14,1,50,127,40,77,2
1491090353454,3,68,-5,-23,-53,-107,-128,73,-1
1491090353454,3,11,-9,-27,-33,-76,-26,-21,6
1491090353500,0,12,-10,-30,36,72,60,-7,-18
1491090353500,0,-26,5,23,-3,46,48,79,4
1491090353501,1,-64,-11,18,45,76,74,-37,-5
1491090353501,1,-43,18,45,21,6,26,18,-2
1491090353503,0,-34,-6,-3,50,64,15,-48,4
1491090353503,0,-23,-9,8,1,32,-27,59,-7
1491090353503,1,14,2,-3,8,92,-34,-8,10
1491090353503,1,-43,10,14,13,29,71,4,-12
1491090353548,2,18,-5,-4,-21,-125,-90,-17,-5
1491090353548,2,-74,-2,17,20,101,88,38,-1
1491090353551,3,45,-20,-21,-43,-83,-34,-65,-11
1491090353551,3,-90,-9,19,68,127,102,-28,-4
1491090353553,1,-37,-1,30,109,113,75,26,-10
1491090353553,1,19,17,26,6,-80,-4,19,21
1491090353554,2,-8,-10,-30,-56,-92,7,29,-27
1491090353554,2,-10,15,21,-8,49,49,18,4
1491090353597,3,10,1,-2,36,54,-9,21,6
1491090353597,3,21,-23,-10,8,111,-34,-6,8
1491090353599,0,32,7,22,60,114,91,26,-5
1491090353599,0,-39,-48,-30,-59,-97,-42,58,14
1491090353600,1,84,-18,-61,-104,-109,-83,-125,-8
1491090353600,1,-12,-3,4,50,-66,81,120,0
1491090353602,2,14,10,28,52,127,46,66,4
1491090353602,2,-53,-7,3,24,-83,82,-17,-1
1491090353646,3,35,27,27,21,93,-3,42,-12
1491090353646,3,30,-33,-50,-62,-59,-120,-14,7
1491090353646,0,11,29,23,-9,-120,21,-16,-1
1491090353646,0,-16,-1,10,18,51,17,-14,4
1491090353647,2,-30,-11,-5,11,31,40,-59,-11
1491090353647,2,45,13,10,17,-72,-121,39,2
1491090353648,3,-32,-18,-8,-3,-50,127,32,0
1491090353648,3,36,6,-7,-14,67,-84,95,-11
1491090353694,0,-59,15,23,12,4,36,-8,9
1491090353694,0,33,-8,-27,-64,-78,-22,-61,-5
1491090353695,1,70,-25,-22,40,62,-58,-83,-7
1491090353695,1,-46,-29,-3,48,77,62,76,8
1491090353696,3,-71,19,44,45,-46,92,58,-3
1491090353696,3,44,-27,-37,-65,-102,-59,-23,-5
1491090353697,0,26,-9,-39,-54,-65,-12,-80,-28
1491090353697,0,4,-20,-25,8,-2,33,-10,-1
1491090353743,1,8,19,33,39,96,-32,64,-3
1491090353743,1,-25,-11,-7,30,-18,52,-11,-13
1491090353744,2,19,4,8,6,19,-93,81,10
1491090353744,2,-91,41,46,1,-6,47,-59,-29
1491090353745,0,79,-2,-2,26,70,11,127,22
1491090353745,0,39,-12,2,92,114,83,-69,-19
1491090353745,1,-57,23,21,17,-62,-79,5,13
1491090353745,1,-43,13,49,-7,-45,76,54,4
1491090353792,2,11,-57,-69,-52,-100,-48,-55,5
1491090353792,2,3,-7,7,12,28,76,49,-5
1491090353793,3,-35,4,-3,-35,-87,79,-2,-3
1491090353793,3,38,5,-28,16,90,-61,-78,-3
1491090353793,1,22,-18,-41,-58,-71,-68,-97,2
1491090353793,1,-3,-16,-35,-7,-128,111,97,18
1491090353794,2,-44,-9,3,-12,-55,-3,-12,-7
1491090353794,2,-1,-3,-10,-9,92,-73,0,-17
1491090353841,3,-47,-17,-3,17,70,-3,34,-10
1491090353841,3,-8,85,86,76,127,50,-11,11
1491090353842,0,8,-11,-26,-10,101,-9,-74,-19
1491090353842,0,24,-30,-39,-16,-128,-34,30,-1
1491090353842,2,-38,16,25,11,-84,-56,18,5
1491090353842,2,27,-19,-26,-6,98,-96,10,-14
1491090353843,3,24,0,-14,0,-83,-4,-58,-1
1491090353843,3,9,-1,11,5,21,-25,15,-7
1491090353889,0,-39,-6,1,-6,39,39,62,7
1491090353889,0,-5,29,26,34,79,48,45,2
1491090353890,1,6,-9,14,-9,-85,16,35,0
1491090353890,1,-83,-8,-5,-46,-104,10,-47,-4
1491090353890,3,14,5,15,49,107,2,-8,-6
1491090353890,3,24,14,6,-15,-48,-56,-30,7
1491090353892,0,-63,3,12,-25,56,50,26,16
1491090353892,0,39,-8,-23,-9,-126,26,-29,-4
1491090353938,1,-54,19,4,-89,-44,94,12,-1
1491090353938,1,61,-36,-12,18,56,-82,60,-7
1491090353939,2,24,1,-19,47,54,-70,-5,-16
1491090353939,2,13,32,58,36,71,105,-67,36
1491090353939,3,-35,2,10,9,-44,-50,12,-9
1491090353939,3,12,2,-21,-49,-89,-40,-34,-16
1491090353942,0,11,3,-8,31,53,81,7,1
1491090353942,0,-34,-17,-22,-85,-34,-39,32,-20
1491090353987,1,-1,8,6,-9,-78,89,-71,-1
1491090353987,1,10,25,15,83,120,14,63,20
1491090353988,2,41,7,5,-13,12,-66,-124,-49
1491090353988,2,17,-9,-25,-8,-32,-4,-21,-6
1491090353989,0,-13,7,20,89,69,-29,-9,8
1491090353989,0,-30,10,-6,-64,-116,-108,26,-3
1491090353990,1,3,-14,-1,-52,-45,81,33,-4
1491090353990,1,52,-5,-33,31,50,-74,-100,21
1491090354035,2,33,15,28,44,80,-33,39,7
1491090354035,2,-37,-9,-3,-16,-119,81,60,3
1491090354036,3,55,15,-6,-27,-24,-102,-107,-13
1491090354036,3,-32,13,28,48,112,28,17,-8
1491090354037,1,-58,-21,-16,30,8,-38,66,4
1491090354037,1,61,-27,-44,-54,62,-31,-55,-1
1491090354039,2,-33,10,2,48,16,61,49,-2
1491090354039,2,18,40,54,55,82,15,-46,3
1491090354084,3,19,-21,-25,-47,-40,-25,-41,-1
1491090354084,3,12,-13,-2,32,-4,-68,-8,-4
1491090354085,0,-40,-17,0,-32,-128,-6,122,-3
1491090354085,0,43,-41,-44,-35,-32,-89,-50,-23
1491090354086,2,47,-5,-2,43,74,-10,-59,-11
1491090354086,2,-4,25,12,26,-103,-47,50,9
1491090354087,3,5,-17,-5,-16,108,34,44,-7
1491090354087,3,1,-22,-18,-35,-128,6,-78,-11
1491090354133,0,-79,5,27,-48,37,41,18,17
1491090354133,0,10,-30,-36,1,-46,-32,-90,-5
1491090354134,1,-5,23,24,59,58,76,88,4
1491090354134,1,8,5,15,30,52,-51,26,-10
1491090354134,3,8,-28,-49,-54,-120,-7,-16,0
1491090354134,3,-44,16,19,16,110,54,8,-3
1491090354135,0,2,-11,-17,1,-128,-16,-8,-6
1491090354135,0,-74,45,71,87,127,127,127,12
1491090354182,1,26,-5,-32,-65,-63,-128,-97,-35
1491090354182,1,-4,0,17,2,-41,65,71,9
1491090354183,2,58,-6,-42,-14,71,-69,-128,8
1491090354183,2,-20,-13,-6,60,-30,86,74,1
1491090354183,0,-13,24,33,20,0,-75,-40,-5
1491090354183,0,4,0,6,16,40,31,-6,13
1491090354184,1,4,-8,-3,54,26,-61,38,-6
1491090354184,1,-8,34,31,-8,55,24,-16,10
1491090354231,2,-36,6,39,17,16,127,48,12
1491090354231,2,46,-7,-43,-32,-17,-128,-44,-5
1491090354231,3,56,14,-5,-24,73,104,2,9
1491090354231,3,-67,8,-21,-6,-14,-5,12,-14
1491090354232,1,-17,36,63,83,99,-25,127,13
1491090354232,1,-29,-14,-11,-13,-107,8,-12,-15
1491090354233,2,-4,-6,3,-18,127,59,16,21
1491090354233,2,40,-9,-17,-8,-121,-18,19,-14
1491090354279,3,-25,-28,-8,-18,-23,-35,-112,2
1491090354279,3,23,24,-1,-19,5,-32,-17,-7
1491090354280,0,-22,-19,-25,19,-26,-72,20,-11
1491090354280,0,-28,-12,5,-35,-28,90,72,6
1491090354281,1,-19,0,1,24,-54,-73,-51,-7
1491090354281,1,13,29,65,71,114,60,-54,10
1491090354282,2,-34,4,-63,-74,-113,64,73,-4
1491090354282,2,20,45,6,47,127,54,-38,-9
1491090354328,3,-20,-3,-17,0,-128,33,10,16
1491090354328,3,-3,-28,10,-29,-55,99,27,-15
1491090354329,0,3,-33,-15,-76,-75,-57,-6,-1
1491090354329,0,-8,-12,24,44,47,-34,-39,-11
1491090354329,2,-67,-27,7,22,-31,124,73,3
1491090354329,2,-35,-18,-30,-53,-6,-95,-71,-24
1491090354331,3,34,10,33,74,127,11,4,-2
1491090354331,3,-62,0,46,41,127,91,6,18
1491090354377,0,57,-13,-34,-30,-107,-90,0,-3
1491090354377,0,25,-27,-41,-51,-65,55,-17,0
1491090354378,1,-35,-20,-7,29,68,97,49,-5
1491090354378,1,21,41,29,50,-51,-4,-6,14
1491090354378,3,5,29,4,66,50,-64,-55,-16
1491090354378,3,12,19,0,-44,-78,49,54,22
1491090354379,0,12,29,30,31,87,74,17,15
1491090354379,0,-49,-33,-14,-6,-60,7,-13,9
1491090354426,1,6,5,5,19,68,-89,-40,-20
1491090354426,1,-16,-15,-38,-29,-98,-68,-80,17
1491090354427,2,26,-27,-42,-79,-53,-37,-51,-22
1491090354427,2,-50,-14,-6,28,35,50,-22,-11
1491090354428,0,64,53,27,-1,-101,48,19,4
1491090354428,0,-22,24,4,-78,-56,31,58,-5
1491090354429,1,40,-28,-50,-8,-30,-48,-48,-17
1491090354429,1,12,1,15,57,84,45,74,-9
1491090354474,2,1,49,52,35,50,-25,-82,6
1491090354474,2,-17,1,25,-12,-96,-10,62,13
1491090354475,3,3,-5,-41,-96,-105,64,113,7
1491090354475,3,-35,-35,-24,-19,-107,-128,-71,-9
1491090354475,1,35,20,16,-31,33,-128,-5,-5
1491090354475,1,18,-22,-38,-30,-69,-48,50,-29
1491090354477,2,-24,13,30,17,-56,88,48,7
1491090354477,2,43,-27,-59,-58,35,-128,-16,-36
1491090354523,3,-16,-16,-16,0,-128,55,85,20
1491090354523,3,-54,23,36,49,115,110,-27,11
1491090354524,0,-35,0,45,58,117,-57,-123,-6
1491090354524,0,56,-17,-44,-83,-71,-36,-2,-9
1491090354525,2,-7,-14,6,35,-115,-35,40,1
1491090354525,2,-71,-45,-7,-29,-71,-45,-4,8
1491090354525,3,82,-6,24,-50,-42,24,-18,-7
1491090354525,3,35,-18,-4,11,34,37,25,-11
1491090354572,0,22,-29,-38,-29,-56,-5,-8,-2
1491090354572,0,-53,39,34,61,107,81,38,9
1491090354573,1,2,77,12,-11,37,43,-97,11
1491090354573,1,24,54,21,25,127,94,52,0
1491090354573,3,-52,-41,-48,-78,-40,-30,-36,-3
1491090354573,3,51,6,-8,-16,-93,-34,-72,-1
1491090354620,0,-52,33,34,75,127,-8,-8,-11
1491090354620,0,-24,-12,2,1,-38,96,78,4
1491090354623,1,-4,14,23,29,-53,-52,32,9
1491090354623,1,-18,-17,-24,-87,-120,-39,-46,-3
1491090354623,2,54,1,-27,-16,-79,-100,56,-4
1491090354623,2,-20,-1,30,52,91,27,6,8
1491090354624,3,-27,-3,6,13,99,80,84,6
1491090354624,3,36,4,-20,-28,-128,-128,-119,-13
1491090354669,0,-120,-23,41,3,127,127,124,14
1491090354669,0,104,0,-37,21,29,-119,-74,24
1491090354670,1,-9,1,11,22,56,-98,12,-8
1491090354670,1,-33,-1,-3,17,-43,119,117,15
1491090354671,2,25,-21,-36,-109,-128,-77,-102,-31
1491090354671,2,76,40,3,3,66,9,43,-19
1491090354672,0,28,5,5,44,127,-31,39,7
1491090354672,0,-1,-10,-11,-24,-122,-84,-74,-10
1491090354718,1,-38,-10,8,63,104,39,16,13
1491090354718,1,-5,-10,-5,-32,-57,-31,58,-11
1491090354719,2,47,1,-23,-77,27,-15,-33,-1
1491090354719,2,14,24,19,113,127,40,-19,-2
1491090354767,1,39,-8,4,18,-48,-31,-27,-13
1491090354767,1,-70,16,47,75,127,124,43,9
1491090354767,2,14,3,-25,-60,-63,-88,-22,6
1491090354767,2,-71,-12,4,-43,-81,71,-3,8
1491090354768,3,80,-37,-82,-53,-4,-104,-85,-38
1491090354768,3,-35,-17,-22,32,84,5,-21,5
1491090354769,0,-26,6,29,-16,-40,27,35,32
1491090354769,0,7,-2,14,49,127,-50,-14,-2
1491090354815,2,-42,-21,11,59,-33,127,61,-1
1491090354815,2,30,19,0,-81,-128,-93,-84,-35
1491090354816,3,10,1,7,-11,15,84,34,24
1491090354816,3,24,20,18,53,127,92,-30,-15
1491090354817,0,-50,8,17,32,-39,86,91,7
1491090354817,0,-14,-20,8,-19,97,3,28,-17
1491090354818,3,-80,6,64,47,127,119,1,20
1491090354818,3,-22,21,39,46,113,-6,-20,-11
1491090354865,0,-6,20,16,26,-60,78,-76,24
1491090354865,0,5,-25,-48,-112,-118,-28,-16,-17
1491090354866,1,-12,-43,-49,20,80,17,93,3
1491090354866,1,44,1,0,-3,-63,24,-109,-22
1491090354866,0,85,-1,-12,15,28,-128,-18,4
1491090354866,0,-26,9,7,45,-86,-31,-52,-5
1491090354867,1,22,24,7,-29,18,-10,49,-9
1491090354867,1,-26,-20,3,11,-21,76,49,15
1491090354913,2,-5,30,5,-27,-15,-27,-42,-6
1491090354913,2,-15,-31,-11,-5,75,88,-17,-11
1491090354962,3,10,-27,-34,-26,-98,-104,-42,15
1491090354962,3,4,-2,24,23,12,25,27,0
1491090354962,1,-24,16,18,21,-55,28,86,22
1491090354962,1,57,-17,-33,-41,-59,-96,-66,-37
1491090354963,2,-43,-8,-32,-22,-115,62,7,6
1491090354963,2,11,23,33,24,54,62,127,7
1491090354964,3,-11,-22,-13,14,14,-61,-112,-9
1491090354964,3,-30,-2,7,-40,-82,11,9,13
1491090355011,0,-17,-21,-25,-46,-14,27,42,-10
1491090355011,0,-12,0,4,19,4,0,-61,-4
1491090355011,2,-2,-10,-16,-44,-51,-100,-67,-4
1491090355011,2,27,4,-1,-5,-83,127,44,9
1491090355012,3,-40,-12,-36,-24,-74,-105,-88,-7
1491090355012,3,-19,-34,-43,-10,86,96,47,-7
1491090355013,2,23,-7,-25,-53,-24,1,-77,-26
1491090355013,2,27,-10,-9,46,47,-53,20,1
1491090355059,3,-83,-5,28,-5,8,127,-20,-14
1491090355059,3,-18,13,13,-47,-72,-90,34,-8
1491090355060,0,0,12,-14,45,49,-35,-26,-1
1491090355060,0,-21,68,26,12,36,52,35,-17
1491090355061,3,36,-50,-7,32,29,-5,-21,9
1491090355061,3,46,16,21,11,34,-111,2,5
1491090355062,0,-45,-18,22,6,68,51,15,0
1491090355062,0,-3,-9,32,56,116,65,0,13
1491090355108,1,40,-8,-13,-48,-9,-37,13,-9
1491090355108,1,-12,-33,-21,-51,-119,93,3,2
1491090355109,2,49,34,8,22,54,-88,-49,0
1491090355109,2,-28,-14,-6,-7,-81,16,70,7
1491090355110,0,23,2,-30,-38,40,-13,-27,-12
1491090355110,0,8,-3,0,53,93,27,-24,-8
1491090355111,1,-40,-31,-11,-30,-88,-25,13,9
1491090355111,1,-40,44,49,54,89,90,21,-4
1491090355157,2,-32,7,33,-6,-84,3,-18,26
1491090355157,2,47,-17,-53,-70,22,24,-13,-2
1491090355157,3,29,-34,-36,13,-51,-67,47,-16
1491090355157,3,-39,3,14,34,47,119,-31,-1
1491090355158,1,-45,-3,9,-21,-4,127,29,-5
1491090355158,1,-23,-21,-6,31,-73,-84,84,-5
1491090355159,2,22,-1,-7,-11,-32,-58,9,-23
1491090355159,2,-12,-6,-22,-12,-14,13,-53,-4
1491090355205,3,20,5,12,18,78,41,5,8
1491090355205,3,63,3,2,-24,-101,-33,-72,-26
1491090355206,0,-71,-13,-4,11,127,62,30,40
1491090355206,0,69,-17,-21,9,-39,-128,-59,-24
1491090355207,2,-17,9,19,26,38,45,38,-10
1491090355207,2,-46,-12,11,32,97,74,-58,3
1491090355208,3,-22,24,29,0,-61,-102,29,-18
1491090355208,3,-17,-2,-9,-35,11,-15,-56,4
1491090355254,0,15,-7,-20,-7,-27,109,54,26
1491090355254,0,72,2,-12,-16,-63,-45,-95,-21
1491090355255,1,-105,-2,8,4,119,127,72,25
1491090355255,1,127,3,-22,-29,-85,-121,-50,-1
1491090355256,3,0,14,9,26,35,-60,23,2
1491090355256,3,-37,-1,-2,-64,-53,-9,77,19
1491090355257,0,-26,3,8,32,-44,16,69,18
1491090355257,0,-31,-12,4,2,5,-12,120,4
1491090355303,1,48,36,-25,-96,-95,16,-58,-12
1491090355303,1,-29,-18,-10,58,61,33,-26,0
1491090355304,2,19,17,2,8,-37,-126,-33,-21
1491090355304,2,4,33,50,42,21,69,104,31
1491090355304,0,-42,3,-19,7,-71,95,-19,-5
1491090355304,0,44,-22,-34,-61,-115,-128,-69,-44
1491090355305,1,64,23,8,-10,-12,43,-75,10
1491090355305,1,-28,-16,-8,18,37,21,4,-19
1491090355352,2,-46,-12,14,24,127,102,112,4
1491090355352,2,10,41,15,33,-64,-12,-87,-8
1491090355352,3,-30,-39,-36,-98,-101,-56,18,-7
1491090355352,3,9,17,13,16,21,-59,72,13
1491090355353,0,10,-23,-38,29,-53,-83,-52,-8
1491090355353,0,-37,-40,-34,-52,-60,56,66,-18
1491090355354,1,43,-20,-36,-19,-52,-128,-109,-25
1491090355354,1,-30,12,27,34,23,127,52,26
1491090355401,2,21,1,15,17,47,-89,-125,-3
1491090355401,2,-31,-7,13,-2,-4,17,73,31
1491090355402,3,-14,-24,-21,33,43,-87,-46,-21
1491090355402,3,-59,3,8,26,47,58,21,5
1491090355402,1,-69,-19,2,-55,-77,109,100,29
1491090355402,1,80,-8,-8,17,73,-68,-70,-6
1491090355403,2,22,11,-26,-17,36,4,-41,-17
1491090355403,2,-10,4,26,37,82,120,-5,9
1491090355449,3,24,23,39,38,51,34,-50,18
1491090355449,3,-44,-5,-9,38,-5,-27,60,-16
1491090355450,0,-32,-1,1,-73,-93,39,20,-12
1491090355450,0,41,-1,-20,-22,-40,28,-88,2
1491090355451,2,14,-33,-43,-54,23,-44,-93,-2
1491090355451,2,5,-15,-15,22,-79,-24,100,-12
1491090355452,3,-2,44,58,99,127,-7,14,-14
1491090355452,3,77,13,12,40,-18,-84,-73,7
1491090355498,0,-39,24,25,-37,22,107,127,14
1491090355498,0,-1,-27,-62,-98,-76,-128,-84,-14
1491090355500,1,-8,-2,2,2,71,101,-14,-4
1491090355500,1,23,13,14,27,4,59,22,-7
1491090355501,3,23,0,10,32,35,-11,-8,-10
1491090355501,3,-61,-1,-3,-44,-123,-58,5,11
1491090355502,0,54,-25,-32,-41,-98,-128,-4,-2
1491090355502,0,24,-21,-30,30,45,-11,-12,3
1491090355547,1,-13,-2,-11,-42,-55,5,59,12
1491090355547,1,17,30,10,9,45,-4,5,-4
1491090355548,2,-60,-10,24,56,28,76,19,9
1491090355548,2,-10,20,4,-77,-94,-101,-43,-10
1491090355548,0,2,-7,8,28,105,87,27,-5
1491090355548,0,-42,21,27,27,27,3,50,1
1491090355549,1,15,3,3,-16,-76,63,-17,9
1491090355549,1,51,-11,-8,-24,-47,66,34,0
1491090355595,2,-5,13,-6,-15,-53,-111,-62,-11
1491090355595,2,9,-3,-1,38,7,5,35,16
1491090355596,3,19,17,0,-2,69,17,25,13
1491090355596,3,10,-11,7,-9,-34,112,28,19
1491090355597,1,-12,7,10,34,12,-8,-53,-16
1491090355597,1,-27,-21,-6,-21,-65,54,43,15
1491090355598,2,16,-3,-4,43,70,-61,-81,-6
1491090355598,2,-26,19,24,-29,-53,67,59,8
1491090355644,3,14,-15,-44,-58,-81,53,-50,-13
1491090355644,3,-65,5,29,67,127,61,76,26
1491090355645,0,96,21,-13,-29,-52,-101,-91,-37
1491090355645,0,-54,28,12,44,-26,114,38,4
1491090355646,2,-56,-17,9,30,21,113,77,21
1491090355646,2,48,19,-6,-3,-12,-96,-66,-4
1491090355647,3,-65,6,-1,-20,-116,65,108,-2
1491090355647,3,35,2,-19,-21,36,-42,-35,-16
1491090355693,0,47,-21,-37,-50,-127,-63,-43,16
1491090355693,0,6,-22,-4,40,124,90,-7,-8
1491090355694,1,-31,7,16,-26,-76,72,4,-22
1491090355694,1,-18,7,10,44,127,-88,-73,5
1491090355694,2,1,23,26,20,23,120,115,-1
1491090355694,2,-29,1,21,34,57,-7,-25,8
1491090355695,3,13,18,29,38,110,7,27,-3
1491090355695,3,-47,-6,1,-56,-85,-30,-58,-21
1491090355742,0,14,-23,-46,-76,-76,1,-14,10
1491090355742,0,21,-31,-24,24,13,-85,-63,-25
1491090355743,1,24,-26,-10,25,82,-44,-20,4
1491090355743,1,-31,26,12,-21,-38,127,-53,12
1491090355743,3,-13,-2,-26,-40,-108,-69,11,-3
1491090355743,3,2,4,14,58,-4,-99,70,16
1491090355744,0,-101,-11,14,-38,-25,91,7,-1
1491090355744,0,21,-24,-28,-55,-37,-80,-52,-10
1491090355791,1,37,-19,-17,32,-29,92,-96,-19
1491090355791,1,-15,-18,-12,-10,70,-33,118,1
1491090355792,2,-38,12,29,27,39,45,8,1
1491090355792,2,-45,8,25,62,127,16,49,-12
1491090355792,0,98,8,-1,1,-83,-72,42,2
1491090355792,0,20,11,-24,-72,-125,-35,-86,-6
1491090355793,1,-10,-10,-16,25,120,6,-18,-6
1491090355793,1,-25,9,39,71,-45,127,12,12
1491090355839,2,10,-11,-11,-71,-37,-68,-42,7
1491090355839,2,40,-31,-47,-18,-93,-77,0,17
1491090355840,3,-4,-15,-3,-6,-29,-5,22,-33
1491090355840,3,18,26,17,51,87,54,11,6
1491090355841,1,56,-6,-6,-37,-21,-31,9,-8
1491090355841,1,-20,-19,-20,-55,-82,-59,102,-4
1491090355842,2,84,-18,-50,8,24,-83,-85,-41
1491090355842,2,-88,-8,31,55,116,125,101,16
1491090355888,3,-5,25,20,13,-105,-81,-43,7
1491090355888,3,45,-18,-52,-23,43,-1,-45,-8
1491090355889,0,-69,-13,12,38,47,71,43,22
1491090355889,0,-5,34,57,22,88,78,-6,-53
1491090355889,2,27,20,4,38,68,13,-16,2
1491090355889,2,-4,12,32,83,97,127,13,12
1491090355890,3,-61,1,51,11,-45,39,-29,20
1491090355890,3,-21,5,-2,-31,64,-55,-2,-4
1491090355937,0,27,-22,-39,-24,-104,-26,-78,12
1491090355937,0,24,-22,-16,33,106,2,14,4
1491090355938,1,34,7,5,-19,-86,33,75,-21
1491090355938,1,-82,-12,-2,4,109,1,24,2
1491090355938,3,44,-14,-27,4,121,-65,21,-20
1491090355938,3,-61,9,51,73,41,82,41,5
1491090355939,0,-33,2,-7,30,103,-55,-44,-10
1491090355939,0,35,11,-26,-103,-128,-30,-57,1
1491090355985,1,-26,8,-11,28,53,-13,104,-5
1491090355985,1,-3,6,24,38,51,7,-128,-15
1491090355986,2,36,10,17,-47,-114,-28,-33,0
1491090355986,2,-39,-24,-48,-40,-40,-17,26,-2
1491090355987,0,-23,-11,-3,-10,106,83,96,-4
1491090355987,0,46,-8,-16,-52,-116,-47,-37,-8
1491090355988,1,-57,14,41,51,95,127,49,-4
1491090355988,1,-59,-23,14,58,99,52,29,-9
1491090356034,2,72,50,57,7,-67,38,-27,-5
1491090356034,2,5,-34,-52,-101,-86,-107,-6,18
1491090356035,3,55,-18,-54,-22,-14,48,-17,-5
1491090356035,3,15,1,12,47,22,85,66,24
1491090356036,1,-1,-32,-9,-24,-57,-18,7,23
1491090356036,1,48,43,18,-4,-128,26,-8,-14
1491090356083,2,18,2,13,14,71,1,40,-7
1491090356083,2,13,8,4,77,117,19,11,-4
1491090356085,3,-61,-6,5,-46,-68,23,-54,-4
1491090356085,3,31,-4,-11,-51,13,-21,-9,1
1491090356086,0,-5,-55,-46,55,9,-3,52,16
1491090356086,0,4,26,15,-48,-94,-128,-84,1
1491090356086,1,-36,8,-3,0,21,80,91,12
1491090356086,1,0,-26,-24,-7,-56,42,-22,-18
1491090356132,2,-24,1,27,11,-29,-2,103,29
1491090356132,2,-64,-10,16,43,127,36,-4,2
1491090356132,3,-10,10,25,1,-66,-6,45,25
1491090356132,3,36,-8,-34,10,108,-85,-92,-37
1491090356133,0,-13,-9,-2,60,89,5,47,-14
1491090356133,0,-24,-7,9,-15,-69,49,44,23
1491090356134,2,17,-26,-13,32,22,47,13,-4
1491090356134,2,-61,35,52,44,80,127,39,6
1491090356180,3,-61,-20,18,53,-2,-88,-22,-20
1491090356180,3,49,56,59,-21,93,9,28,42
1491090356181,0,0,12,-28,-18,-112,16,30,-9
1491090356181,0,12,-42,-24,-34,-102,43,50,-16
1491090356182,3,34,-9,-17,23,-4,8,48,5
1491090356182,3,-9,-5,25,30,77,75,51,-13
1491090356183,0,3,-14,-34,-31,-128,-84,-104,-15
1491090356183,0,-48,32,63,108,108,127,81,-6
1491090356229,1,-28,-10,-17,-32,-70,-123,-80,2
1491090356229,1,-19,-15,-21,-57,-60,30,69,13
1491090356230,2,17,-8,-1,-35,-128,63,-31,0
1491090356230,2,49,-32,-46,-19,76,-91,8,3
1491090356231,0,-27,35,26,-5,27,-42,8,20
1491090356231,0,-26,4,22,48,37,56,-47,-18
1491090356232,1,-13,6,29,52,127,98,-1,23
1491090356232,1,-26,5,-5,4,81,-22,-29,-21
1491090356278,2,-10,7,-18,-77,33,-78,-79,-15
1491090356278,2,24,-3,-38,-43,-128,80,-37,21
1491090356327,3,54,-4,-35,-9,-90,-128,31,-26
1491090356327,3,-39,9,11,37,74,44,-72,27
1491090356328,1,29,-14,-18,-11,-58,-29,-42,0
1491090356328,1,-3,-1,7,40,37,6,-48,8
1491090356329,2,-10,0,-23,-12,-17,24,2,-18
1491090356329,2,-3,-9,-9,-53,-30,28,48,9
1491090356329,3,-9,-9,9,37,108,95,-82,0
1491090356329,3,14,-10,-15,-5,-128,-37,111,-24
1491090356375,0,41,6,-12,-34,-45,-85,-28,34
1491090356375,0,21,26,32,68,89,-11,-22,12
1491090356376,2,18,-30,-11,16,69,61,78,15
1491090356376,2,43,-22,-61,-94,-128,-105,-56,-13
1491090356377,3,-10,24,46,77,44,64,71,7
1491090356377,3,2,56,45,40,7,-78,-74,-9
1491090356378,3,76,-21,-47,-70,-92,-104,21,-38
1491090356378,3,-13,11,-15,29,18,12,-35,-2
1491090356424,0,18,0,-4,6,42,93,59,17
1491090356424,0,-20,73,80,67,112,105,-10,10
1491090356425,1,-48,9,16,-8,-47,-1,74,1
1491090356425,1,25,-23,-45,-101,-105,-111,19,8
1491090356426,3,-58,8,18,-54,8,-102,-55,11
1491090356426,3,53,-10,-36,-14,49,-21,40,-5
1491090356427,0,-10,6,-7,-16,-71,-20,-66,-13
1491090356427,0,40,-32,-17,28,-97,-65,-24,-5
1491090356473,1,13,5,0,-24,127,-53,-24,27
1491090356473,1,-66,1,-6,-27,-77,34,52,5
1491090356474,2,32,-31,-28,-13,51,-48,9,-12
1491090356474,2,-11,-30,-47,-3,-74,-81,-101,-26
1491090356475,0,31,-6,-35,-36,-64,-104,-59,-21
1491090356475,0,-16,-2,12,30,55,102,-24,0
1491090356476,1,16,-4,2,29,-79,60,22,32
1491090356476,1,-71,6,38,2,69,0,21,8
1491090356522,2,-26,-7,-15,-33,-76,66,-47,-14
1491090356522,2,16,-1,-6,-47,-80,30,35,19
1491090356523,3,22,-48,-65,2,127,-39,-49,-42
1491090356523,3,-1,7,24,80,66,94,37,-2
1491090356524,1,-72,0,13,11,-73,-34,-51,-20
1491090356524,1,63,4,-22,-39,-65,-114,-35,-61
1491090356525,2,-70,-31,-47,0,45,96,29,-8
1491090356525,2,52,-16,-9,-51,8,-7,-65,-8
1491090356570,3,1,-4,7,29,61,107,75,14
1491090356570,3,56,18,31,39,69,-6,-45,13
1491090356571,0,-6,-18,-9,2,-72,26,55,-6
1491090356571,0,-81,44,64,82,127,4,-40,-11
1491090356572,2,68,-14,-13,26,62,-30,-50,-8
1491090356572,2,-18,-25,-4,45,51,15,84,-12
1491090356573,3,-40,15,36,4,73,83,-22,3
1491090356573,3,-1,-20,-22,-39,-75,17,53,40
1491090356619,0,-15,16,22,26,-15,-40,-18,-12
1491090356619,0,-7,-14,-32,-17,18,-36,73,-11
1491090356620,1,34,-28,-44,-11,-39,-25,-68,-24
1491090356620,1,49,43,56,43,-43,-2,58,19
1491090356621,3,-37,-10,-4,29,127,87,0,-10
1491090356621,3,66,-29,-17,11,-101,-55,71,-6
1491090356622,0,16,14,18,7,-109,-44,40,13
1491090356622,0,-33,3,21,28,93,-4,-98,-8
1491090356668,1,54,1,-9,-13,-13,18,10,-15
1491090356668,1,-42,-17,-16,-22,-90,60,39,12
1491090356669,2,38,39,28,33,57,-3,-17,-10
1491090356669,2,-31,-25,-29,-51,-32,26,-22,1
1491090356669,0,-34,8,33,15,94,107,62,19
1491090356669,0,-45,-28,-4,21,95,0,112,2
1491090356670,1,47,8,-3,22,-15,27,18,-21
1491090356670,1,18,17,17,34,109,78,12,4
1491090356717,2,0,-4,1,-19,-75,37,-13,26
1491090356717,2,51,-16,-43,-61,-128,-128,17,8
1491090356718,3,-28,25,46,66,91,28,-80,16
1491090356718,3,-43,-29,-3,27,123,-9,28,-22
1491090356718,1,-16,-27,-24,7,-128,-92,58,25
1491090356718,1,-25,17,-2,-16,57,93,-19,-17
1491090356719,2,38,-4,-24,-3,48,-81,-74,-7
1491090356719,2,-30,1,29,17,72,71,-7,13
1491090356765,3,16,10,-4,-51,-81,-34,24,-5
1491090356765,3,-30,2,27,77,3,35,13,5
1491090356766,0,-45,3,9,9,-15,34,-18,19
1491090356766,0,0,-24,-31,-73,-44,-39,29,-3
1491090356767,1,63,15,4,-16,-2,-28,-112,3
1491090356767,1,-82,-8,8,41,58,35,22,41
1491090356814,2,62,-17,-44,-12,17,46,-2,-10
1491090356814,2,20,25,-21,39,-6,19,12,-27
1491090356815,3,-38,5,44,6,23,37,48,9
1491090356815,3,-27,-6,3,11,23,10,-72,-4
1491090356816,0,10,17,35,29,38,38,23,9
1491090356816,0,-8,1,-10,-90,-128,-49,-96,-25
1491090356817,2,-24,-19,6,47,68,-6,15,-1
1491090356817,2,-69,23,29,-5,19,64,31,-18
1491090356863,3,-3,-19,-2,17,61,-39,35,-38
1491090356863,3,37,-11,-15,-48,-113,38,53,-7
1491090356864,0,-9,-31,-42,-35,31,-34,25,-4
1491090356864,0,36,8,-6,-26,-88,35,-54,-7
1491090356868,1,-7,9,14,60,-1,65,-11,1
1491090356868,1,-123,3,26,8,77,-12,7,-17
1491090356869,3,46,-6,-25,-28,-59,-41,53,-7
1491090356869,3,-25,-17,-22,-42,-25,-65,-45,0
1491090356912,0,3,49,50,20,72,95,-50,4
1491090356912,0,-39,11,21,95,-8,-16,101,24
1491090356918,1,14,-3,-1,-52,-47,22,-64,-11
1491090356918,1,41,-21,-54,-100,-128,-89,-52,26
1491090356918,0,-3,7,28,-21,33,127,60,28
1491090356918,0,-31,-3,17,46,56,31,-6,7
1491090356919,1,-31,32,26,40,122,-82,-33,-30
1491090356919,1,79,12,-34,-66,-81,16,-25,-7
1491090356960,2,-4,-25,-31,16,-71,-83,-66,-11
1491090356960,2,6,9,9,-51,-3,-77,-28,-1
1491090356962,3,43,9,-18,-33,-71,30,115,-1
1491090356962,3,-70,5,50,116,127,127,45,6
1491090356981,1,-15,-42,-43,-3,32,0,-6,13
1491090356981,1,78,1,-9,-10,-128,-39,-87,-20
1491090357034,2,-46,-12,-23,-13,-90,-68,54,-19
1491090357034,2,22,-3,20,34,127,48,-10,-11
1491090357035,3,3,-10,-27,-33,-6,-40,-28,29
1491090357035,3,-57,51,70,74,-26,15,68,-3
1491090357036,0,35,-21,-20,-33,87,-7,22,-14
1491090357036,0,-38,-5,-28,-13,-76,38,61,-8
1491090357036,2,6,-6,7,29,-101,4,20,-4
1491090357036,2,10,30,67,102,124,-13,-36,9
1491090357058,3,47,-15,-46,-36,-91,-102,-6,-22
1491090357058,3,-45,-43,-45,-80,5,69,3,7
1491090357060,0,17,-12,-12,1,20,46,33,0
1491090357060,0,-13,3,-10,23,77,-31,-54,4
1491090357063,1,-47,13,49,7,-46,60,31,20
1491090357063,1,-22,13,38,12,81,79,-6,-9
1491090357107,3,26,15,0,55,4,-45,-98,0
1491090357107,3,1,-2,-20,-26,-32,79,23,-19
1491090357108,0,-28,7,34,69,104,13,48,-14
1491090357108,0,-101,5,46,-6,-66,76,105,34
1491090357109,1,42,-15,-33,-52,36,-85,-81,-24
1491090357109,1,11,-54,-63,-10,-104,-10,46,2
1491090357109,3,1,-6,14,4,-44,108,33,23
1491090357109,3,-16,12,11,34,71,17,-31,-5
1491090357156,0,20,-26,-24,24,64,-54,-70,-13
1491090357156,0,-34,-5,6,-30,51,85,-36,12
1491090357157,1,18,40,44,44,127,34,40,-3
1491090357157,1,-76,-3,9,0,-109,-91,-39,-25
1491090357157,2,-9,2,13,-7,30,96,56,27
1491090357157,2,42,49,30,-3,38,-20,-66,-15
1491090357158,0,-58,-36,-35,-64,-128,-7,-69,-27
1491090357158,0,33,20,17,-17,10,-30,55,5
1491090357204,1,-45,-23,-3,13,69,29,-5,12
1491090357204,1,4,15,26,-1,89,8,44,5
1491090357205,2,-31,3,-10,23,41,-31,27,8
1491090357205,2,9,-11,-28,-38,-115,-17,16,10
1491090357206,1,-55,12,9,-48,-41,33,-13,-17
1491090357206,1,57,-39,-69,-75,-41,-75,-12,2
1491090357207,2,-7,31,19,59,58,5,41,-27
1491090357207,2,-54,-18,6,43,74,78,-1,3
1491090357253,3,31,-5,9,11,5,-74,-12,11
1491090357253,3,-38,41,43,-10,9,22,33,2
1491090357254,0,-33,-18,-3,0,52,63,54,23
1491090357254,0,71,-13,-29,-39,-128,-127,-35,-46
1491090357255,2,-29,-8,-5,-2,69,-28,29,16
1491090357255,2,-24,-2,29,90,63,76,-70,21
1491090357256,3,-13,25,26,13,-67,94,62,8
1491090357256,3,2,6,-6,-68,-115,-128,-47,-17
1491090357302,0,-39,-32,-34,-4,-50,111,-91,-19
1491090357302,0,54,16,15,24,32,64,39,13
1491090357303,1,-25,-17,2,16,108,-17,-19,8
1491090357303,1,-44,-26,-47,-39,-89,10,-44,-13
1491090357304,3,-28,-11,-7,28,-12,-43,17,-1
1491090357304,3,-60,20,33,-11,89,51,61,-2
1491090357305,0,80,-48,-25,0,4,-67,-35,3
1491090357305,0,-42,0,-17,-40,-39,-8,-6,6
1491090357351,1,-3,32,41,86,46,61,-29,0
1491090357351,1,12,15,8,-47,-80,-47,43,8
1491090357352,2,-37,13,33,62,-4,49,67,-10
1491090357352,2,6,-28,-19,-28,2,-10,-66,-26
1491090357353,0,82,-2,-26,-15,64,-90,-28,-11
1491090357353,0,-65,38,49,-22,-2,72,72,20
1491090357354,1,-2,-8,-18,-19,12,-99,-50,-5
1491090357354,1,65,4,-24,-34,-17,-56,-79,-25
1491090357399,2,-30,-16,-26,2,0,96,119,15
1491090357399,2,10,-41,-12,72,-1,6,39,14
1491090357400,3,-21,4,17,-40,-41,-3,-33,1
1491090357400,3,64,21,18,60,48,57,-23,12
1491090357401,1,19,10,-3,12,11,49,12,16
1491090357401,1,-10,-20,5,65,32,114,55,1
1491090357402,2,-65,61,51,37,-14,-101,26,-17
1491090357402,2,92,-44,-83,-107,-37,-89,-76,-20
1491090357449,3,-12,-32,-48,29,-84,69,57,-17
1491090357449,3,49,-26,-14,23,-23,-52,-48,-17
1491090357450,0,-30,-5,2,-46,-91,-14,-3,8
1491090357450,0,-54,22,44,36,64,71,82,37
1491090357451,2,15,-6,2,42,61,95,17,-1
1491090357451,2,-37,-16,8,49,112,-118,-46,-17
1491090357451,3,103,32,22,11,36,-16,-97,-2
1491090357451,3,-51,-12,-1,18,46,8,101,5
1491090357497,0,77,-10,-40,-128,-128,58,68,10
1491090357497,0,58,-13,-49,39,90,-13,-38,-10
1491090357499,1,-40,-41,-24,12,-67,95,39,8
1491090357499,1,-22,48,82,41,-10,-53,67,13
1491090357500,2,-7,-15,-12,-6,22,-84,-62,17
1491090357500,2,-49,-3,15,-29,15,127,126,18
1491090357501,3,-26,-11,-4,20,21,-87,32,-34
1491090357501,3,-10,70,29,14,-7,-44,-86,6
1491090357546,0,-6,-28,-25,14,-9,-26,118,13
1491090357546,0,13,-3,3,-34,-44,81,41,-20
1491090357546,1,27,-27,-34,11,-42,-120,33,29
1491090357546,1,-35,-22,-30,-71,48,102,-86,3
1491090357548,3,-14,22,22,-20,29,108,39,7
1491090357548,3,29,10,19,27,110,52,85,35
1491090357549,0,-24,6,1,38,5,-71,-112,-10
1491090357549,0,80,-20,-27,-46,-69,-92,34,4
1491090357594,1,-82,-7,5,-20,13,84,-103,6
1491090357594,1,67,30,3,3,-30,-54,-61,9
1491090357595,2,28,-6,-17,-11,-69,3,-24,-1
1491090357595,2,-98,-23,24,41,15,92,44,2
1491090357596,0,-58,-12,12,-1,84,104,23,3
1491090357596,0,52,31,-11,-54,-26,-114,-14,-11
1491090357597,1,-9,-8,-7,-3,-47,-53,-18,5
1491090357597,1,-23,-5,1,21,4,96,-5,-20
1491090357643,2,33,-5,4,-61,-115,-23,-29,-3
1491090357643,2,-48,-10,1,69,56,24,94,-5
1491090357645,3,-24,16,10,33,75,33,34,7
1491090357645,3,8,-64,-60,-67,-21,-15,-121,-11
1491090357648,1,-38,2,-6,-5,10,94,19,17
1491090357648,1,21,-57,-50,-45,-79,-47,-38,-28
1491090357649,2,-12,26,16,45,-23,45,-1,0
1491090357649,2,27,-3,-6,-43,-13,44,-8,-33
1491090357692,3,1,-10,10,53,37,-40,9,-4
1491090357692,3,-27,31,26,26,-6,45,28,1
1491090357693,0,-87,-58,-40,-77,5,30,-46,-10
1491090357693,0,38,31,15,43,-19,-74,17,-13
1491090357695,2,-34,-13,-4,-9,36,50,1,-14
1491090357695,2,39,-24,-23,-6,-49,-39,-8,1
1491090357695,3,24,-6,-14,-46,-59,113,-6,-14
1491090357695,3,-10,4,2,24,43,11,33,12
1491090357741,0,35,27,23,20,-60,1,-96,-13
1491090357741,0,-2,0,25,31,127,105,15,31
1491090357742,1,61,7,-20,5,-25,-57,-67,6
1491090357742,1,4,37,-3,-41,-128,-97,38,-4
1491090357742,3,35,3,-21,-58,62,-85,-11,-1
1491090357742,3,-19,-13,2,49,2,103,23,31
1491090357743,0,24,10,12,4,-56,-128,-4,3
1491090357743,0,-30,-15,-10,-36,-12,-24,10,5
1491090357789,1,-53,-26,-9,22,4,127,-35,-23
1491090357789,1,23,-24,6,4,-62,-67,77,22
1491090357791,2,30,-27,-36,-6,89,-38,-84,-23
1491090357791,2,9,-15,-38,14,-61,-10,-2,9
1491090357792,0,36,-14,-58,-32,-42,-98,-42,-5
1491090357792,0,-42,-2,13,-14,-10,75,-35,-11
1491090357793,1,-14,3,35,68,105,17,-27,-31
1491090357793,1,3,50,31,67,9,-105,-10,14
1491090357838,2,-18,-18,-30,-101,-108,49,34,16
1491090357838,2,-43,-14,-6,-30,-44,-15,-24,-3
1491090357839,3,12,13,7,35,39,10,11,1
1491090357839,3,-5,23,37,103,127,115,1,-10
1491090357840,0,22,17,14,-8,-15,24,19,18
1491090357840,0,59,30,-10,-50,-128,-21,55,6
1491090357841,1,-38,-12,-3,-26,-100,-25,4,12
1491090357841,1,12,-9,-32,-31,86,11,31,0
1491090357887,2,22,19,3,15,56,50,17,-16
1491090357887,2,-72,20,44,34,5,31,-11,-1
1491090357888,3,76,-38,-65,-86,-128,-128,-14,16
1491090357888,3,-2,-52,-40,-7,34,1,-28,-24
1491090357888,1,7,-24,-38,-76,-114,36,34,-10
1491090357888,1,-1,-10,-1,5,-76,-51,-6,-19
1491090357889,2,11,1,5,86,127,47,-10,1
1491090357889,2,6,-28,-14,57,48,-38,-16,-1
1491090357935,3,-15,14,3,-87,-92,-12,39,-12
1491090357935,3,-22,6,-20,-47,83,-64,-69,17
1491090357936,0,-8,-22,-28,-6,67,-4,-24,2
1491090357936,0,66,6,-10,73,23,-14,-71,5
1491090357937,2,-57,-44,-23,-84,-128,26,61,19
1491090357937,2,15,7,-20,-24,49,-43,11,-2
1491090357938,3,67,-28,-40,63,120,-128,-53,-16
1491090357938,3,17,-12,-9,-13,-99,75,10,-10
1491090357984,0,-58,-18,-11,-73,-84,89,79,7
1491090357984,0,-7,-1,25,21,-24,-41,-82,14
1491090357985,1,6,34,28,82,115,86,100,12
1491090357985,1,-74,-41,-22,-40,-42,-5,36,-8
1491090357985,3,-23,35,47,1,-92,-34,12,4
1491090357985,3,-25,-37,-57,-64,-22,23,-48,0
1491090357987,0,55,-1,-20,-2,-112,-108,-26,-11
1491090357987,0,19,-11,-11,-3,-13,-58,-10,0
1491090358037,1,-69,12,25,36,91,53,25,13
1491090358037,1,-74,2,41,17,29,79,-34,4
1491090358037,2,-66,34,30,60,111,24,77,11
1491090358037,2,6,34,37,-10,94,106,72,23
1491090358038,0,55,-16,-18,61,120,-15,42,17
1491090358038,0,-16,33,23,48,69,61,71,-7
1491090358038,1,-65,-10,16,-13,-72,55,12,-11
1491090358038,1,98,3,5,16,61,-30,-63,6
1491090358082,2,9,-15,9,22,-30,59,-25,-11
1491090358082,2,-50,41,28,34,53,-99,14,-4
1491090358082,3,-1,0,-3,-60,-44,-101,17,13
1491090358082,3,-23,-27,-25,-21,-76,5,-41,2
1491090358083,1,-13,26,39,70,126,118,81,24
1491090358083,1,-29,30,52,103,110,-99,-91,17
1491090358084,2,-47,14,-5,-53,-58,39,51,-4
1491090358084,2,-23,-46,-15,-20,50,44,-27,-18
1491090358130,3,63,-1,-45,-58,16,-15,-35,-8
1491090358130,3,-40,0,27,79,127,127,71,4
1491090358131,0,-42,-25,-23,-50,-95,-107,-32,-9
1491090358131,0,69,29,-11,-64,-113,-47,-23,8
1491090358132,2,-35,-20,11,11,-8,61,-71,-9
1491090358132,2,28,27,3,2,32,43,6,3
1491090358133,3,-47,10,51,18,-18,29,68,0
1491090358133,3,52,-33,-58,18,-57,-128,-46,-17
1491090358179,0,-65,58,77,-23,59,127,27,40
1491090358179,0,56,-51,-57,-9,-94,-120,-73,-33
1491090358180,1,-8,-15,-26,-93,-128,49,-31,6
1491090358180,1,-31,-5,-17,-10,-56,76,-80,9
1491090358181,2,93,-37,-39,75,118,-28,49,-1
1491090358181,2,-54,18,50,45,2,87,56,11
1491090358182,3,5,13,19,-8,127,-105,0,18
1491090358182,3,9,-7,-27,-69,-111,4,96,-30
1491090358228,0,39,2,-1,8,-84,-42,27,18
1491090358228,0,39,-9,-26,-56,41,-52,27,15
1491090358229,1,19,-41,-42,53,-89,62,-22,-22
1491090358229,1,-11,2,37,1,17,61,56,12
1491090358230,3,50,-13,-30,-43,52,-112,-123,-3
1491090358230,3,-24,20,3,-12,-32,109,30,-16
1491090358277,0,-44,-28,-8,18,10,-88,-30,-9
1491090358277,0,-60,-41,-29,-94,-128,-9,9,-14
1491090358278,1,-9,1,4,28,104,-8,-39,-6
1491090358278,1,32,19,13,44,-63,-48,-96,18
1491090358278,2,-25,-16,-3,-20,42,48,68,-16
1491090358278,2,47,2,-13,39,28,-19,-58,-10
1491090358279,0,-35,-6,10,19,28,21,-103,-18
1491090358279,0,-27,13,0,-41,-49,-68,-48,-2
1491090358325,1,31,-14,-21,-41,-95,49,14,-6
1491090358325,1,-48,7,18,60,88,8,-4,8
1491090358326,2,27,5,9,26,86,-5,20,-37
1491090358326,2,25,-5,-1,-36,-82,80,112,38
1491090358327,1,-40,20,14,30,-69,-32,99,17
1491090358327,1,-20,-38,-23,-96,-77,-88,12,4
1491090358328,2,16,34,13,2,56,-32,-12,20
1491090358328,2,-30,-21,-24,-14,-38,-57,-106,-5
1491090358374,3,-48,-20,2,47,-1,16,54,6
1491090358374,3,43,4,-3,7,23,-128,-93,-28
1491090358376,0,-65,3,10,-54,-20,18,37,1
1491090358376,0,9,7,12,56,45,-29,57,0
1491090358376,2,108,26,-35,-34,-128,-58,-43,-10
1491090358376,2,-37,-29,3,37,51,107,127,5
1491090358377,3,43,29,17,55,106,35,-85,-10
1491090358377,3,0,30,27,42,95,40,74,31
1491090358423,0,-65,-28,-15,-6,-49,21,-27,12
1491090358423,0,43,27,-2,-66,-54,-79,-121,-19
1491090358424,1,-1,8,-14,-14,42,37,55,-4
1491090358424,1,-42,5,37,87,-1,127,53,4
1491090358424,3,-55,-27,11,26,-114,71,-31,8
1491090358424,3,87,66,18,7,58,-100,-35,-3
1491090358425,0,-8,-4,-2,6,-61,-29,-34,-13
1491090358425,0,-26,24,37,21,63,77,-44,-1
1491090358472,1,2,-43,-18,-43,-47,-2,30,-3
1491090358472,1,-104,-32,-9,-2,-39,127,25,-6
1491090358472,2,65,6,-17,1,-27,-79,-119,-2
1491090358472,2,32,-13,-33,-72,-91,67,94,-20
1491090358473,0,-7,-26,-2,-60,-60,94,37,21
1491090358473,0,-28,16,15,29,34,43,-33,5
1491090358474,1,3,-14,-2,42,27,-41,-15,0
1491090358474,1,105,-23,-81,-128,-44,-117,80,-10
1491090358520,2,-62,16,38,42,-41,-37,84,9
1491090358520,2,-33,23,32,54,42,-80,-58,-30
1491090358521,3,16,43,-13,-35,6,-94,-25,-12
1491090358521,3,34,-1,8,40,25,59,23,-3
1491090358522,0,-71,-26,2,25,109,127,18,4
1491090358522,0,-29,27,36,-29,-117,87,45,16
1491090358523,1,7,-38,-36,-49,67,-59,26,-27
1491090358523,1,69,-50,-62,18,-4,-128,-128,-17
1491090358569,2,-24,-6,17,17,32,89,79,-1
1491090358569,2,-3,44,31,-35,-59,17,-26,31
1491090358618,3,4,-20,-23,-38,-86,1,39,-12
1491090358618,3,14,1,-6,28,-22,27,-84,4
1491090358619,1,-46,31,34,-12,-67,81,68,17
1491090358619,1,-91,29,48,18,42,-81,37,-5
1491090358619,2,-14,-4,-16,-14,-14,-22,-53,-10
1491090358619,2,50,-37,-63,-59,-85,-42,3,-1
1491090358620,3,91,-35,-54,-64,-33,21,-69,-11
1491090358620,3,-58,-30,6,36,-3,98,-25,-3
1491090358667,0,-11,-16,-14,-10,-37,-53,-43,-8
1491090358667,0,12,48,68,40,-50,67,25,15
1491090358668,2,-23,-6,-2,-33,-77,95,95,-19
1491090358668,2,20,-45,-34,46,25,-3,10,-30
1491090358668,3,-42,49,58,37,51,114,39,13
1491090358668,3,58,25,17,-13,-34,-67,-48,-1
1491090358669,3,3,-21,-12,-32,-128,17,121,4
1491090358669,3,-22,9,-28,-50,9,-78,-14,-49
1491090358715,0,34,-10,24,69,67,127,-85,31
1491090358715,0,43,0,-36,-24,-31,-128,26,-6
1491090358716,1,-6,-1,15,2,89,67,-93,-15
1491090358716,1,27,-47,-54,-63,-126,-101,-24,-4
1491090358717,0,-4,-21,-22,-18,-53,-4,27,-3
1491090358717,0,-4,-14,-41,-95,-36,31,-37,-4
1491090358718,1,47,-21,-17,-1,-120,-76,4,-5
1491090358718,1,-6,23,7,-10,40,2,-27,0
1491090358764,2,79,-2,-13,22,-99,-89,-39,-10
1491090358764,2,-16,-28,-18,28,-25,10,-5,-25
1491090358765,3,-48,35,51,42,56,74,0,-2
1491090358765,3,5,8,12,4,127,38,84,36
1491090358766,1,8,-35,-41,-23,-46,-83,-128,10
1491090358766,1,-38,-1,1,-58,-110,103,58,17
1491090358767,2,23,2,-33,7,51,-114,-53,-20
1491090358767,2,-33,24,47,56,40,127,53,1
1491090358813,3,-30,14,30,-1,91,1,10,8
1491090358813,3,1,7,12,48,-72,83,-28,-12
1491090358814,0,52,-21,-27,-64,26,-15,-55,11
1491090358814,0,-34,4,-16,-10,-11,57,31,16
1491090358815,2,53,20,40,39,13,20,-9,-15
1491090358815,2,-52,-17,-2,-28,-12,4,23,-23
1491090358815,3,68,-12,-27,-22,-58,97,-21,43
1491090358815,3,14,-23,-31,9,16,-108,-11,-32
1491090358862,0,-48,1,11,-3,46,32,90,12
1491090358862,0,-7,21,4,-51,15,33,-6,-21
1491090358862,1,55,22,6,23,-5,-63,-9,3
1491090358862,1,-1,-8,37,62,76,70,29,-12
1491090358863,3,-15,-24,-21,-1,-47,-2,114,-2
1491090358863,3,21,2,-42,20,50,-128,-57,-2
1491090358864,0,-37,-27,-19,-34,-87,-20,78,-21
1491090358864,0,68,-1,-1,-18,-49,-97,-84,-4
1491090358910,1,-47,0,-3,25,57,9,2,-19
1491090358910,1,68,-31,-13,10,35,22,46,31
1491090358911,2,-75,-8,-1,24,38,82,-39,6
1491090358911,2,38,15,-6,-38,-42,-128,14,-8
1491090358912,3,21,-21,-26,14,-1,32,-36,-2
1491090358912,3,-29,-25,-3,-22,-128,-8,41,-5
1491090358913,0,-17,26,-5,-67,-36,73,68,18
1491090358913,0,-37,7,37,81,114,21,-29,11
1491090358959,1,30,17,37,33,61,6,5,3
1491090358959,1,-34,-21,-19,30,63,25,-19,-13
1491090358960,2,19,-15,-16,-46,-112,-26,46,7
1491090358960,2,-57,-20,-14,-20,58,33,-72,-16
1491090358961,0,80,15,-10,-33,-14,17,25,-4
1491090358961,0,-87,-67,-31,35,-19,68,23,-36
1491090358962,1,24,36,13,12,7,-70,-92,14
1491090358962,1,-33,-6,-2,-51,-58,115,91,29
1491090359008,2,18,-9,-6,39,100,-109,-91,-14
1491090359008,2,-65,31,62,14,-29,127,108,35
1491090359009,3,20,-39,-66,-66,-19,-39,-121,-60
1491090359009,3,29,-15,-22,28,83,-24,28,22
1491090359010,1,-111,0,-11,-27,-58,63,93,3
1491090359010,1,49,24,9,21,11,-78,-89,-35
1491090359011,2,57,-29,-22,36,111,48,-37,14
1491090359011,2,-33,17,59,127,89,-55,8,11
1491090359057,3,-84,19,19,-74,-67,-25,-58,8
1491090359057,3,19,-49,-60,-106,-128,-14,103,-28
1491090359057,0,11,-16,-10,31,99,33,-68,15
1491090359057,0,62,-36,-48,10,-14,-111,42,2
1491090359058,2,-34,18,-3,-1,-80,-108,17,-16
1491090359058,2,48,13,-24,-77,-83,33,-50,-7
1491090359059,3,-62,-16,11,23,86,104,-47,19
1491090359059,3,33,-5,-30,-10,-79,-84,-45,-26
1491090359105,0,-12,-28,-20,-36,38,82,25,-12
1491090359105,0,-15,19,9,43,44,68,-80,-21
1491090359106,1,-27,-18,-3,23,17,127,62,23
1491090359106,1,44,25,12,-80,-56,-57,28,20
1491090359107,3,36,19,2,6,127,1,-75,-7
1491090359107,3,-38,-28,-30,-3,-61,66,101,20
1491090359108,0,-2,28,39,54,34,-9,40,14
1491090359108,0,-52,-49,-49,-61,-48,-51,-19,21
1491090359154,1,41,65,40,-10,37,116,100,14
1491090359154,1,92,-5,-23,-14,-102,-128,-82,-25
1491090359157,2,-18,-21,-29,4,73,118,105,0
1491090359157,2,4,38,53,76,127,127,-38,-13
1491090359158,0,-19,-5,9,-56,-128,37,-2,-3
1491090359158,0,0,-8,1,46,118,-112,-13,-6
1491090359158,1,1,-9,8,7,-29,38,73,-18
1491090359158,1,-59,-16,-6,-17,17,8,-38,-18
1491090359203,2,-33,-21,-31,-70,-82,36,18,-10
1491090359203,2,95,34,4,62,33,-45,46,-11
1491090359204,3,-83,4,24,7,40,64,-18,18
1491090359204,3,-6,9,-10,-50,-21,-24,-57,-35
1491090359205,1,18,-60,-55,15,-48,-31,3,-20
1491090359205,1,4,28,33,9,-18,98,68,11
1491090359206,2,22,42,30,44,82,-7,6,10
1491090359206,2,-73,-8,34,51,43,110,-51,9
1491090359252,3,52,40,34,-24,-109,-109,25,-5
1491090359252,3,-98,-18,-20,-79,-61,-54,-7,-7
1491090359252,0,54,-14,-24,-14,35,4,14,7
1491090359252,0,38,-2,-1,101,74,-48,-41,34
1491090359253,1,-112,2,15,-31,-98,67,-88,13
1491090359253,1,-4,17,13,-28,127,127,112,26
1491090359254,2,115,-48,-83,-22,-64,-128,-82,-46
1491090359254,2,12,-56,-41,30,35,127,12,-17
1491090359300,3,1,56,50,31,75,91,-10,1
1491090359300,3,-34,-1,12,-11,-79,18,69,10
1491090359302,0,-14,-1,15,-49,19,42,55,14
1491090359302,0,-66,12,29,13,16,24,-46,-7
1491090359302,2,12,4,5,55,74,26,62,12
1491090359302,2,-1,7,-9,-42,26,-20,-89,-23
1491090359303,3,-4,45,78,127,127,75,113,2
1491090359303,3,-95,13,43,-34,-61,65,46,55
1491090359349,0,44,10,-62,-74,-57,-128,-125,-59
1491090359349,0,18,-8,-22,-17,-128,37,85,43
1491090359351,1,-12,-54,-37,0,38,92,-17,-38
1491090359351,1,91,27,7,66,116,77,-64,2
1491090359351,3,35,12,-19,-114,-96,-125,-42,-11
1491090359351,3,-26,-19,-29,-11,-73,87,95,17
1491090359352,0,5,-41,-39,-22,-45,-35,-84,-4
1491090359352,0,0,12,-18,-71,-105,22,34,-19
1491090359398,1,35,-40,-16,36,92,67,0,13
1491090359398,1,-7,-33,-22,63,4,-35,-9,-18
1491090359399,2,34,44,73,52,46,9,-78,59
1491090359399,2,-43,4,25,2,-37,-11,87,17
1491090359400,0,21,8,14,73,53,126,10,3
1491090359400,0,-70,-13,-11,-122,-128,-118,17,1
1491090359401,1,71,22,-20,1,-22,30,-20,26
1491090359401,1,-12,-19,-14,-24,-21,-71,-41,-53
1491090359447,2,6,-1,-17,-8,-45,-86,-34,6
1491090359447,2,-4,19,46,55,127,127,-1,-5
1491090359447,3,-17,8,-12,59,85,-5,66,1
1491090359447,3,-31,-11,-1,10,-63,-11,32,-16
1491090359448,1,-8,-63,-65,-84,-70,-107,-54,-18
1491090359448,1,62,4,-10,66,18,41,-95,12
1491090359449,2,-51,-25,7,40,42,-66,58,-17
1491090359449,2,-5,41,36,-2,118,82,3,15
1491090359544,3,-38,-13,7,35,-82,-47,28,7
1491090359544,3,-49,7,5,-55,-122,26,42,-25
1491090359546,0,-21,-22,-28,-5,60,-71,-61,15
1491090359546,0,23,-14,-4,41,115,13,34,-5
1491090359546,2,-41,4,1,29,-128,72,5,-1
1491090359546,2,43,1,-28,-88,-106,-69,6,-10
1491090359547,3,-53,-27,6,75,127,127,53,-7
1491090359547,3,25,5,42,12,-43,-16,35,36
1491090359593,0,-26,-2,-13,-51,-92,-80,-54,12
1491090359593,0,54,-7,-5,22,70,66,-63,-6
1491090359594,1,-18,-4,-12,5,-43,-96,-39,-12
1491090359594,1,-4,-23,-15,-51,-25,69,5,7
1491090359595,3,17,6,18,34,40,47,-74,-10
1491090359595,3,9,56,38,64,99,-35,100,7
1491090359642,3,-43,10,18,-38,-10,24,-91,-10
1491090359642,3,-30,-29,-23,-12,-55,91,10,29
1491090359643,0,-12,14,5,5,77,-69,10,-1
1491090359643,0,13,8,16,50,77,22,29,2
1491090359644,1,4,26,20,-96,-106,-19,-39,9
1491090359644,1,-49,-41,-42,-13,127,-48,-102,-13
1491090359645,0,-1,7,14,30,63,-92,-21,12
1491090359645,0,-34,-15,3,-10,14,33,49,-7
1491090359690,1,-4,53,19,30,23,16,99,12
1491090359690,1,48,-3,4,-8,-95,34,-114,9
1491090359692,2,-17,12,14,-11,39,-2,46,9
1491090359692,2,-40,-14,-5,-3,-83,77,10,-10
1491090359693,3,73,-23,-44,-86,-39,-128,-76,-15
1491090359693,3,22,-26,-57,-4,-55,-75,20,-3
1491090359739,1,-20,-2,27,33,59,-3,-17,3
1491090359739,1,-107,32,73,44,94,94,85,25
1491090359741,2,76,6,-51,-100,-112,-100,-9,-42
1491090359741,2,7,-30,-53,-35,-106,23,-51,-38
1491090359742,3,49,-5,-13,13,72,3,-46,-9
1491090359742,3,-32,-5,8,51,42,10,-1,1
1491090359742,2,71,-17,-5,57,-2,-25,-41,0
1491090359742,2,0,42,38,2,15,-4,33,-2
1491090359788,3,-15,-1,28,26,-19,81,-18,11
1491090359788,3,17,-18,-12,-2,36,-128,68,-4
1491090359789,0,-60,-3,0,-3,38,127,98,-1
1491090359789,0,22,17,-2,19,2,37,-4,54
1491090359790,1,42,-41,-55,-49,-109,-83,8,-37
1491090359790,1,-43,26,14,-13,34,77,-22,19
1491090359791,3,31,43,37,41,-54,27,102,3
1491090359791,3,23,21,29,30,58,-24,-65,-10
1491090359837,0,5,-22,-23,-19,-128,-98,-8,8
1491090359837,0,-47,11,19,-8,-45,42,-8,9
1491090359887,1,-29,-22,-49,3,60,110,19,5
1491090359887,1,12,1,19,-72,-128,31,-23,-4
1491090359890,0,-53,2,43,2,49,58,47,12
1491090359890,0,-65,1,4,2,-63,-64,34,-5
1491090359891,1,-78,-3,39,-38,-114,88,-70,-3
1491090359891,1,-19,13,-62,-37,127,-20,-16,-42
1491090359893,2,0,-6,4,13,-126,97,60,16
1491090359893,2,66,43,34,43,-84,-128,-27,-1
1491090359935,3,-79,-21,9,34,127,8,64,18
1491090359935,3,-6,28,57,73,-3,127,-5,2
1491090359937,1,-62,2,6,38,-56,23,38,5
1491090359937,1,95,-31,-26,-117,-127,-96,-5,2
1491090359943,2,-59,5,-19,-3,14,66,36,6
1491090359943,2,38,9,-3,5,-59,-68,-15,10
1491090359944,1,95,40,35,70,69,40,22,15
1491090359944,1,4,-29,-37,-7,-51,-110,-15,-29
1491090359983,2,10,18,15,16,-128,26,81,11
1491090359983,2,-30,-6,6,-34,69,-44,-44,-19
1491090359984,3,-14,-16,-10,-16,-68,-11,-52,-4
1491090359984,3,-46,-9,12,41,-39,-4,-124,-17
1491090359984,2,2,9,-14,-41,-1,69,32,12
1491090359984,2,-21,-24,-16,18,62,15,-55,-29
1491090359985,3,4,19,12,-61,34,109,76,33
1491090359985,3,9,-48,-14,45,15,-106,-50,-15
1491090360032,0,-71,63,65,53,-62,62,42,3
1491090360032,0,10,14,42,-28,39,127,-13,8
1491090360033,1,-8,-11,-29,52,-9,-128,101,-14
1491090360033,1,36,-4,-35,-45,-2,-81,-85,-10
1491090360034,3,-7,-37,-10,70,-102,37,-76,-29
1491090360034,3,7,-21,-6,-20,99,-2,80,13
1491090360035,0,-42,4,-6,-63,-44,110,26,12
1491090360035,0,16,10,-8,76,-31,-112,-17,2
1491090360081,1,15,-25,-15,-72,-116,49,-54,15
1491090360081,1,-84,42,60,68,113,7,125,0
1491090360082,2,37,-18,9,51,-41,-8,-109,5
1491090360082,2,-19,-55,-63,-101,-125,79,48,10
1491090360082,0,79,-8,-29,-28,116,-74,-31,11
1491090360082,0,15,-15,-29,13,-117,-29,42,-19
1491090360083,1,-51,4,27,30,100,93,-11,26
1491090360083,1,-11,-15,-17,-32,-37,-16,14,16
1491090360130,2,37,12,5,-8,-44,-36,2,6
1491090360130,2,34,6,14,27,85,83,-12,-6
1491090360143,3,50,-5,-14,-81,-128,-117,39,16
1491090360143,3,-21,-11,-7,62,1,71,30,2
1491090360143,1,-20,34,56,77,68,-2,79,-12
1491090360143,1,-33,7,8,-54,-117,127,40,-8
1491090360144,2,30,-30,-83,-95,-93,-46,10,-15
1491090360144,2,-4,-4,6,103,61,125,-10,-9
1491090360178,3,59,38,32,66,107,-22,20,10
1491090360178,3,-76,4,0,-38,-99,-40,34,-2
1491090360227,0,13,14,22,-16,120,113,23,-18
1491090360227,0,26,25,7,23,58,-114,-72,-8
1491090360227,2,1,11,-7,-29,-128,-18,38,4
1491090360227,2,35,2,-1,15,52,-38,-45,4
1491090360228,3,-24,-15,-26,19,39,2,-59,-16
1491090360228,3,47,4,-16,-30,-5,48,12,-34
1491090360229,0,6,-22,-19,6,7,-12,-98,-5
1491090360229,0,27,65,49,1,-128,-49,78,10
1491090360324,1,-81,2,39,8,36,85,-32,10
1491090360324,1,100,-15,-35,-6,46,-54,-31,12
1491090360325,3,8,0,-42,-94,10,-93,33,-18
1491090360325,3,-39,-23,-13,-12,-48,91,62,11
1491090360325,0,83,-8,9,91,127,-39,-43,-6
1491090360325,0,-114,8,43,62,21,57,103,17
1491090360327,0,20,40,30,3,20,-15,28,3
1491090360327,0,-8,-28,-36,-46,47,7,-6,-28
1491090360373,1,53,4,-17,29,-15,26,-9,6
1491090360373,1,3,37,58,67,127,6,49,7
1491090360374,2,-117,-21,1,-70,-89,90,67,3
1491090360374,2,48,-14,-33,-5,14,-128,-57,-21
1491090360374,0,-2,17,28,74,-65,91,-4,-30
1491090360374,0,17,27,53,36,127,-9,58,2
1491090360375,1,-45,-40,-34,-128,-19,-13,6,24
1491090360375,1,34,-22,-43,-41,-64,61,-22,-26
1491090360422,2,59,-11,-2,43,16,-92,-67,2
1491090360422,2,-33,-7,5,-19,-126,14,5,24
1491090360422,3,-1,26,43,84,92,40,-25,-16
1491090360422,3,-92,26,37,41,117,26,90,19
1491090360423,2,56,-33,-34,0,56,38,-36,0
1491090360423,2,13,2,-2,-33,-59,44,-2,40
1491090360424,3,17,17,30,22,27,56,-23,-20
1491090360424,3,-30,19,46,61,-102,-108,-76,-16
1491090360470,0,-14,22,35,20,127,99,-52,17
1491090360470,0,-33,-52,-44,-36,48,-108,-53,-26
1491090360472,1,61,-23,-63,-43,-101,43,-79,1
1491090360472,1,41,20,10,1,46,-18,4,-22
1491090360472,3,52,-9,-15,12,-15,-128,-70,4
1491090360472,3,-1,-15,-7,18,89,45,34,5
1491090360473,0,-31,35,59,84,13,56,35,43
1491090360473,0,-58,86,66,80,82,-16,-36,-7
1491090360519,1,-55,-48,-52,-104,-128,17,-5,15
1491090360519,1,33,-30,-51,-73,-3,-52,33,-41
1491090360520,2,41,-20,-14,37,33,15,27,11
1491090360520,2,26,-16,-8,20,50,-128,-121,-11
1491090360521,0,-7,44,21,3,53,-40,-22,-6
1491090360521,0,-30,-33,-16,-17,-61,125,127,3
1491090360522,1,83,15,-15,-2,-1,-123,-98,-17
1491090360522,1,1,-4,-7,-22,-103,120,22,32
1491090360568,2,-33,-29,-26,44,77,-3,-84,-19
1491090360568,2,-22,-3,-16,-45,-48,-11,8,4
1491090360569,3,39,-27,-58,-79,-120,-78,20,-14
1491090360569,3,39,2,-5,61,78,12,64,1
1491090360569,1,-80,22,59,66,117,-15,-59,-16
1491090360569,1,9,37,75,77,71,2,54,-8
1491090360570,2,-79,-7,-17,-65,-124,-92,81,-12
1491090360570,2,65,-56,-106,-118,-100,-73,11,4
1491090360619,3,16,-10,-8,32,81,50,-50,-16
1491090360619,3,53,-7,-9,57,-35,-113,-60,-5
1491090360620,0,-39,27,68,67,99,51,45,14
1491090360620,0,-49,29,19,1,127,72,74,-13
1491090360622,2,-10,-55,-41,-101,-128,-72,24,-2
1491090360622,2,82,7,-5,37,84,-7,-101,-14
1491090360623,3,-7,9,33,127,127,-45,49,9
1491090360623,3,-57,20,50,30,-36,17,36,10
1491090360665,0,-75,2,11,-51,-93,72,-25,-6
1491090360665,0,-64,-46,-19,54,72,-48,24,2
1491090360667,1,64,66,35,-65,-5,73,54,7
1491090360667,1,30,-23,-46,-40,-71,-117,-128,-8
1491090360668,2,80,-30,-71,-19,-79,-55,24,-28
1491090360668,2,-7,11,12,15,-22,41,-26,10
1491090360669,3,-43,6,40,59,28,43,-4,25
1491090360669,3,-40,7,-13,-52,74,49,13,-21
1491090360714,0,17,-8,-27,-35,-28,-61,-73,-10
1491090360714,0,25,-22,9,30,-42,37,29,0
1491090360715,1,-40,-4,-4,-55,-128,11,4,6
1491090360715,1,14,-5,-4,-2,122,-55,1,-13
1491090360716,3,5,-44,-31,-3,-127,-65,17,-9
1491090360716,3,25,3,-28,-89,-113,-74,-64,15
1491090360717,0,-47,-5,-4,-61,-29,94,83,9
1491090360717,0,90,-16,-47,69,33,-112,-51,17
1491090360763,1,-44,29,34,30,97,1,63,-28
1491090360763,1,54,-22,-8,10,9,53,47,15
1491090360764,2,-28,34,24,-3,-9,54,44,11
1491090360764,2,-5,-19,-22,-65,-128,-50,-73,-9
1491090360765,0,16,6,38,39,89,24,8,11
1491090360765,0,-15,12,-6,-91,-82,2,14,-51
1491090360766,1,68,-39,-29,74,96,-41,-44,28
1491090360766,1,-1,19,-7,-13,-128,-13,15,-15
1491090360812,2,9,-20,-19,-23,-18,37,-30,3
1491090360812,2,30,4,-12,25,2,41,28,-2
1491090360813,3,-68,4,12,-60,-128,80,98,22
1491090360813,3,-73,-17,-1,25,127,43,-50,1
1491090360814,1,0,74,37,-18,-80,14,-21,-6
1491090360814,1,-67,26,53,50,64,127,103,23
1491090360815,2,14,-4,-30,-14,-53,-103,53,-34
1491090360815,2,15,-36,-42,-52,-45,-73,-75,0
1491090360860,3,22,-31,-29,-28,-62,89,96,-7
1491090360860,3,-16,-29,-25,35,1,-102,-42,-22
1491090360862,0,39,14,28,-7,68,31,-53,7
1491090360862,0,-10,39,38,-19,77,127,13,27
1491090360863,2,-54,-20,-44,22,-82,-15,-53,-9
1491090360863,2,-4,-11,29,3,92,71,-10,7
1491090360863,3,95,-23,-31,1,-53,-88,-69,-1
1491090360863,3,-32,0,-4,-66,-124,49,39,-23
1491090360909,0,-4,-16,-6,11,86,34,29,31
1491090360909,0,22,29,37,33,-30,-56,-17,-3
1491090360912,1,-68,2,2,-12,4,-22,10,-4
1491090360912,1,-11,-5,1,46,125,80,26,9
1491090360913,3,19,6,-30,-36,-23,94,60,-7
1491090360913,3,21,4,-31,-16,48,-63,38,-1
1491090360916,0,-65,-37,-17,-42,-121,79,34,-22
1491090360916,0,13,-14,-38,-44,24,-39,-24,0
1491090360967,1,56,-44,-19,49,0,-128,-93,-17
1491090360967,1,-51,14,43,42,51,114,46,11
1491090360967,2,-10,-8,6,15,-50,50,7,16
1491090360967,2,-10,17,27,-54,-125,-13,-13,-13
1491090360968,0,8,-2,-9,27,-5,-93,-36,12
1491090360968,0,-34,-8,-1,-6,34,86,95,-9
1491090360975,1,25,22,-4,-96,-99,15,21,-4
1491090360975,1,46,-16,-33,19,67,-10,-50,-6
1491090361007,2,34,-22,-22,40,84,107,8,1
1491090361007,2,-26,-15,-27,-51,-127,-90,-7,-4
1491090361019,3,-64,-6,31,69,96,69,69,-17
1491090361019,3,8,-1,19,17,-9,-109,-91,8
1491090361019,0,21,12,-26,-81,-47,41,5,9
1491090361019,0,-11,-19,-14,1,53,119,93,11
1491090361020,1,44,-16,-9,18,-29,-15,-128,-9
1491090361020,1,-94,-15,24,66,-31,-71,19,0
1491090361056,2,66,15,-7,-113,-57,-54,-42,11
1491090361056,2,-17,-17,-27,14,-43,96,24,-10
1491090361057,3,19,55,57,88,99,-91,-60,14
1491090361057,3,9,4,-9,1,11,97,-24,2
1491090361058,1,10,-6,9,22,22,-41,-13,-5
1491090361058,1,-25,-44,-28,4,62,27,6,10
1491090361059,2,4,37,1,-28,-25,-57,-68,-45
1491090361059,2,16,-7,-13,-49,-128,49,-54,11
1491090361104,3,58,-10,-23,0,-111,-102,-47,11
1491090361104,3,45,10,14,-1,29,82,-3,6
1491090361105,0,-30,15,30,79,118,126,-27,2
1491090361105,0,-5,18,25,60,-37,-128,12,23
1491090361106,2,83,-1,7,86,127,-44,15,-11
1491090361106,2,63,0,2,26,-41,-25,20,7
1491090361107,3,-14,18,13,-15,79,89,19,3
1491090361107,3,-3,-24,-42,-27,-14,-82,12,11
1491090361153,0,37,-6,0,-7,-64,113,-20,1
1491090361153,0,-93,-28,-5,32,-32,-71,-46,-9
1491090361154,1,23,21,18,35,79,-100,-119,14
1491090361154,1,21,-16,-19,-88,-128,-40,-47,-13
1491090361154,3,-32,-3,-24,-68,32,-14,-6,-22
1491090361154,3,12,34,28,38,-65,4,9,18
1491090361155,0,-15,-18,10,50,107,-42,28,-11
1491090361155,0,50,15,-1,-54,-44,35,-48,0
1491090361202,1,25,-17,-34,24,-18,-60,100,-23
1491090361202,1,0,-5,5,-13,-47,49,-78,9
1491090361202,2,-15,11,1,-12,26,66,99,-15
1491090361202,2,-16,-14,0,13,7,3,-94,-13
1491090361203,0,20,2,-8,-60,52,-59,-39,-9
1491090361203,0,-19,-32,-70,-24,-3,40,10,-20
1491090361204,1,22,10,40,71,99,86,27,18
1491090361204,1,-15,16,33,27,-128,44,127,4
1491090361299,2,18,13,9,37,55,-35,-96,3
1491090361299,2,-7,-17,-20,-45,-34,29,93,-10
1491090361300,3,12,-34,-32,-66,-128,-69,-31,-4
1491090361300,3,-41,3,10,-10,29,84,34,2
1491090361300,1,1,-10,1,12,35,-7,-32,-7
1491090361300,1,7,16,24,50,127,48,88,-4
1491090361302,2,-112,-15,18,47,-112,-8,-83,-1
1491090361302,2,55,22,2,-98,-73,-128,-31,3
1491090361348,3,31,-41,-64,-25,-32,104,-1,-20
1491090361348,3,66,17,-8,36,99,11,26,13
1491090361349,0,-55,7,11,65,34,2,65,-26
1491090361349,0,-1,16,39,1,-33,-59,8,8
1491090361397,2,-7,-1,3,-10,-17,127,-53,8
1491090361397,2,13,21,7,86,127,18,40,4
1491090361398,2,30,12,-7,-31,-95,-117,-103,4
1491090361398,2,-60,-19,-18,-91,-7,-1,26,-3
1491090361398,3,-36,37,33,104,121,65,29,-10
1491090361398,3,-39,-4,18,-29,-81,65,8,34
1491090361399,0,43,21,3,-71,-118,-76,-64,-30
1491090361399,0,-6,-24,-26,33,117,57,50,-18
1491090361445,3,4,45,45,58,75,-26,94,27
1491090361445,3,-12,1,1,-48,-3,13,-31,-21
1491090361446,0,7,-18,2,-20,-101,72,111,0
1491090361446,0,-57,36,41,34,-70,-53,-42,-4
1491090361447,1,49,-97,-112,-119,-121,-86,-21,-28
1491090361447,1,-19,7,12,49,71,40,13,-12
1491090361448,0,50,-45,-78,-60,-69,14,98,10
1491090361448,0,-1,10,22,58,66,103,-34,-2
1491090361494,1,11,13,15,2,-87,16,-123,-7
1491090361494,1,-45,15,26,8,105,81,116,22
1491090361495,2,-51,22,57,96,127,90,28,16
1491090361495,2,-19,-3,-9,-28,-83,-128,-56,-12
1491090361496,1,-78,75,93,49,8,127,100,15
1491090361496,1,23,-63,-79,-8,29,-128,-114,7
1491090361497,2,15,-28,-39,5,-41,-123,-26,-23
1491090361497,2,109,11,12,58,80,-64,-67,-4
1491090361543,3,-8,-17,-32,-98,-128,-34,78,-29
1491090361543,3,39,-5,-21,-32,-34,48,20,0
1491090361544,0,-33,6,49,112,127,122,0,22
1491090361544,0,-10,11,45,42,-69,-15,-36,11
1491090361544,2,68,-34,-49,-48,7,76,6,15
1491090361544,2,1,11,12,21,115,110,-32,-7
1491090361545,3,9,5,25,100,-37,-76,40,11
1491090361545,3,-93,13,23,4,72,115,59,-21
1491090361592,0,41,15,-8,-32,-65,-123,-63,-26
1491090361592,0,-18,12,3,-8,66,95,56,26
1491090361592,1,51,-36,-66,-94,-76,-66,-98,-8
1491090361592,1,-2,-23,-14,3,-44,34,-16,-4
1491090361593,3,-76,35,62,39,26,57,55,14
1491090361593,3,-4,-9,4,-32,-119,43,1,-2
1491090361594,0,-7,-31,-72,-103,-63,-42,-6,-39
1491090361594,0,65,-65,-86,-39,-111,-128,-109,-15
1491090361641,1,41,51,50,87,127,119,-29,1
1491090361641,1,-21,-7,23,28,20,-40,-86,3
1491090361642,2,-23,15,4,57,96,102,62,23
1491090361642,2,9,-1,19,31,45,-34,-55,-16
1491090361643,0,-19,11,39,65,-23,-61,-1,27
1491090361643,0,-8,-28,-41,-104,-106,3,13,-10
1491090361643,1,-15,-34,-32,3,21,58,-13,8
1491090361643,1,63,2,-7,8,8,-9,-2,-3
