1490229445488,-9,25,20,21,2,-21,-37,3,32,-11,12,14,29,30,80,-4
1490229445493,-40,-24,-61,-45,12,21,51,-5,37,27,0,-2,2,7,3,58
1490229445496,16,-50,16,5,-11,7,8,9,16,22,22,37,16,-10,-36,-28
1490229445538,60,-8,64,50,58,27,57,42,-74,-62,23,5,-48,-20,-38,-51
1490229445635,-6,10,-75,-20,15,2,-11,-28,-17,-29,1,20,-1,-3,-15,-18
1490229445638,25,-13,-74,30,-13,1,9,13,33,-95,-29,-30,-3,-13,-11,104
1490229445684,39,3,10,-61,-9,-17,-13,6,5,16,6,-8,-22,-34,-38,-24
1490229445731,5,94,4,-9,29,16,-7,3,83,54,-18,4,-25,7,10,30
1490229445733,27,4,12,-14,10,-3,21,15,-95,-78,-7,-6,-7,2,-22,2
1490229445781,-61,17,2,-20,-16,11,10,13,-24,36,11,19,11,-18,5,-56
1490229445830,2,14,35,-7,1,-11,-4,22,-40,-41,-28,33,16,16,-11,-50
1490229445878,32,-95,-25,61,-15,2,-25,-12,-67,-11,51,-7,2,-2,11,1
1490229445927,26,82,57,19,11,-35,-6,-49,-67,-62,-66,-42,24,19,14,-29
1490229445928,85,-23,-75,-58,-24,-9,-34,16,-57,33,109,21,10,-6,29,6
1490229445976,32,64,78,36,-4,8,33,44,-61,-8,-85,-17,29,7,-60,-72
1490229446025,84,17,-11,-14,-5,-13,-13,-42,-55,83,88,3,24,-5,13,15
1490229446074,-66,-107,21,-4,6,-5,33,9,70,-7,-89,9,-17,18,-39,55
1490229446122,73,5,-27,31,18,-8,11,-22,13,-10,-43,1,28,13,-13,-5
1490229446171,87,56,36,0,29,29,-45,29,-33,-21,-52,-58,-50,-35,-13,-67
1490229446172,-51,-28,57,-2,50,4,-1,-82,73,64,43,40,17,4,-5,14
1490229446220,-54,-70,-22,-2,-24,-2,-10,-28,-22,49,2,58,20,-21,3,23
1490229446268,-9,40,-7,7,11,23,19,28,22,-35,-84,-48,-63,5,-37,-76
1490229446317,41,39,-65,24,-4,-11,27,9,13,16,63,-38,2,-2,-22,22
1490229446366,58,-51,-32,1,-38,-1,44,46,-43,-81,-76,-20,4,-35,-42,-47
1490229446414,-31,27,2,-12,29,4,-19,36,-107,-44,50,60,18,-6,-26,-44
1490229446416,38,-9,-70,-67,-32,-6,-11,-13,6,40,-30,-32,-19,21,-11,29
1490229446464,33,-13,-44,-43,-39,2,30,58,-77,-60,27,17,-1,-16,-19,-25
1490229446512,-42,-4,-18,-44,-12,-25,-21,-82,21,-15,53,54,6,0,38,11
1490229446561,-46,-24,-51,-20,-24,10,-13,-46,54,9,-62,-44,50,2,12,-4
1490229446609,-20,102,122,50,15,4,56,81,127,118,87,75,37,32,0,38
1490229446612,-128,-59,-79,-75,6,11,-57,16,80,16,15,5,-5,-16,51,52
1490229446658,-113,-20,127,52,-13,-11,-12,-30,103,48,-102,-42,-3,14,-54,60
1490229446707,-67,47,-103,-56,8,-3,42,-34,-51,-96,-88,-87,-42,-33,-25,0
1490229446756,-36,20,32,-27,-7,-3,-18,-106,47,80,77,36,16,5,-10,25
1490229446806,-23,35,69,22,25,16,30,36,71,-55,-6,63,-10,-1,1,-25
1490229446853,-60,-28,-18,2,6,9,15,30,-38,-1,-15,19,1,-6,-7,6
1490229446856,-105,23,-26,-22,7,-10,-19,23,2,-32,-25,-64,-48,-2,27,-39
1490229446902,68,97,119,49,15,-2,-30,-10,-18,16,-24,44,25,7,-52,27
1490229446951,-73,-26,-22,1,20,6,-13,-2,77,-5,-8,-28,-47,-19,38,65
1490229447000,89,62,-42,-102,-62,-10,-11,-14,2,7,10,37,45,14,16,-46
1490229447048,35,31,4,23,20,12,9,4,25,78,-61,-61,-20,-2,-7,47
1490229447097,-35,-12,-29,-7,29,8,7,-47,-6,48,-38,-18,-51,1,18,-11
1490229447098,-2,44,-20,19,-22,2,51,17,-34,105,109,30,27,8,28,15
1490229447146,83,38,-9,-61,-46,-8,-11,26,-128,-60,-58,-26,8,4,15,-36
1490229447195,63,76,72,-2,-1,16,19,-13,58,41,-10,29,9,14,27,19
1490229447245,-99,29,64,31,12,1,2,-74,88,63,8,11,-20,6,-8,18
1490229447292,-59,-5,85,30,38,20,-6,-37,65,7,-20,55,32,-1,-9,56
1490229447296,90,-10,-1,11,-21,-35,-7,39,-68,-69,-97,-73,2,22,-3,11
1490229447341,-46,79,36,-12,-16,-45,-31,-85,-59,-99,82,42,33,-19,-4,21
1490229447390,-56,76,-54,-69,36,43,14,43,-92,-103,-75,-9,-50,-60,-27,-28
1490229447438,17,-93,4,3,-21,-14,24,66,-74,29,31,47,94,57,29,-40
1490229447487,62,85,36,34,-5,-15,-62,29,53,4,24,29,30,16,98,29
1490229447535,-128,-53,69,-16,-47,8,-6,-33,127,63,30,57,8,6,32,27
1490229447537,83,44,-46,-52,-21,-23,-52,-17,-85,64,90,71,-4,35,8,36
1490229447585,71,-14,-10,-26,6,54,9,45,-91,-73,-41,-61,3,-4,-57,-123
1490229447634,57,-14,-67,-59,-12,-20,-9,-43,-28,-102,-128,-86,-33,-13,-17,-26
1490229447682,-46,-60,21,26,-2,4,40,6,73,56,11,34,10,13,41,10
1490229447731,-40,65,29,60,7,2,6,-15,-3,-105,31,31,28,10,9,26
1490229447779,70,-46,13,62,-2,-20,1,-16,-46,-8,-2,-22,10,6,2,-30
1490229447781,75,-9,14,38,41,10,-23,-19,-128,-82,-44,-1,-5,-19,1,1
1490229447828,-6,17,-79,-60,-32,-25,-39,-75,-6,-27,-24,14,7,9,4,33
1490229447877,42,81,2,-6,-17,-16,6,92,-23,-33,-50,-14,3,-18,-40,-78
1490229447926,-53,52,93,99,61,7,36,-9,72,50,69,8,-11,3,-9,57
1490229447974,-99,-68,-4,46,46,7,19,-29,84,58,71,23,15,19,20,69
1490229447976,-5,20,84,16,-27,-10,-15,42,-27,-22,-31,-35,30,3,-9,-18
1490229448023,38,5,25,38,25,15,-4,4,-12,-3,3,-15,13,-9,1,-16
1490229448072,7,-117,-77,-52,-11,-23,-23,11,-6,18,41,62,-25,-5,13,19
1490229448121,-73,2,-6,-97,19,26,13,-20,36,-65,-5,71,-2,-4,-37,-7
1490229448170,4,22,52,49,2,-14,-5,48,37,127,121,25,-1,8,-9,-53
1490229448218,-50,-42,16,-28,-28,-11,26,13,64,6,68,78,27,-5,-34,2
1490229448220,-109,-59,-51,-70,-33,-4,-1,-14,-56,12,-92,-34,-36,-6,-17,-20
1490229448267,119,34,19,-68,-48,-26,-37,64,-111,-68,-37,31,23,-4,-4,-70
1490229448316,-91,-14,-50,-17,-10,-4,-13,-100,32,79,65,11,2,8,-8,49
1490229448365,64,27,2,60,36,13,-18,36,-98,-81,50,21,-4,-21,-6,-83
1490229448413,101,22,-59,50,22,8,-18,45,93,3,-43,-57,-26,-7,22,12
1490229448462,2,24,33,-10,8,4,20,-13,90,93,61,55,21,19,6,7
1490229448464,-11,-77,-104,-76,-14,-3,-24,-35,-115,-20,14,14,-10,2,2,9
1490229448511,-39,39,45,10,9,13,-10,-13,33,-1,-75,-56,-5,-8,-18,17
1490229448560,5,18,58,13,-18,5,-16,33,-49,-77,-69,3,48,-1,37,-31
1490229448609,-22,-30,14,47,10,-9,7,44,114,57,-64,-62,-23,12,25,10
1490229448657,-76,26,-49,3,-6,4,-18,33,21,-26,-27,-15,3,1,-22,-4
1490229448661,105,31,-5,26,19,20,4,58,-50,-16,-13,-41,-24,-13,-26,-50
1490229448754,10,29,-1,-15,2,4,-24,2,-77,-26,61,59,45,2,19,3
1490229448760,19,84,48,-35,-48,-15,-3,-44,89,74,-48,-2,16,11,-21,36
1490229448804,-98,-53,-7,-30,-4,22,44,-33,-8,-20,21,-13,12,6,-25,14
1490229448900,-6,39,9,57,18,-2,-16,56,-11,-26,16,1,13,8,-4,18
1490229448901,61,48,80,14,-22,-23,-17,23,-97,-48,31,29,10,7,15,-65
1490229448903,-27,27,47,55,2,0,27,29,42,-10,-102,-80,-37,1,-6,57
1490229448950,-70,0,33,5,-1,10,12,-33,14,78,-53,56,6,4,8,-17
1490229448998,97,71,30,11,-11,4,-13,44,41,-53,28,44,40,13,21,-19
1490229449047,57,47,21,1,20,3,3,41,50,68,54,51,5,-8,14,72
1490229449095,-94,-100,-53,23,-6,9,-27,-36,-60,52,53,13,-20,-6,-11,-28
1490229449098,9,-11,51,25,-1,-8,7,-15,30,4,-32,-20,17,12,35,23
1490229449145,39,-17,-40,-29,-9,-15,-17,2,54,31,18,26,1,-12,-3,34
1490229449193,64,109,59,24,-4,3,65,9,7,-59,-45,-19,-21,-9,-24,-15
1490229449242,76,-23,-28,-2,32,9,-40,-4,-66,-62,-65,-46,-17,4,29,-36
1490229449291,78,99,63,17,-19,-14,-6,66,34,-50,-128,-111,-23,-2,-25,-36
1490229449339,26,-26,-19,13,47,6,-9,-12,15,-22,17,-33,-14,-4,-7,23
1490229449341,-13,51,32,4,-1,19,0,-54,87,34,23,26,23,-9,1,52
1490229449389,-91,-107,-22,-13,-42,-17,1,-11,58,31,5,22,0,8,-21,-34
1490229449437,33,51,-20,7,27,-7,-22,30,12,41,19,-1,-36,-7,-2,18
1490229449486,2,63,2,-6,-48,-13,30,-20,-71,-27,16,54,48,6,-27,-31
1490229449535,51,24,-59,-15,-12,-13,0,44,-53,-118,-74,-55,-20,-11,17,-31
1490229449583,-23,-54,85,19,11,7,30,-31,110,93,-78,30,-7,-19,-45,40
1490229449585,-47,-69,-24,-16,-13,-5,3,-37,-11,-30,48,11,15,6,1,-5
1490229449632,99,70,-45,-63,-38,-18,-23,-18,69,-26,116,79,16,11,17,-1
1490229449681,-119,-26,-41,-51,-2,3,17,-44,19,59,41,27,2,8,-10,-2
1490229449730,88,54,12,27,-15,15,14,61,53,7,-12,-28,29,-15,10,11
1490229449778,76,-4,-8,4,13,12,8,51,-119,-36,20,-1,7,-5,1,-38
1490229449780,11,50,-27,-10,1,16,-2,33,-65,-40,-25,-65,-52,-18,-7,-79
1490229449827,15,29,28,58,9,8,-17,-13,-47,-4,-80,-68,-11,-3,-16,0
1490229449876,58,-53,21,41,29,-7,12,15,-25,31,3,-26,-16,6,1,-38
1490229449925,-57,-60,-15,-21,-10,-2,2,-41,-51,-2,37,25,-20,16,8,-59
1490229449974,-54,19,-27,-40,-21,-19,-2,18,47,-33,-7,44,29,2,-52,-39
1490229450021,-81,-18,-48,-7,16,19,-8,-30,-48,62,3,-19,10,-6,13,-48
1490229450025,-91,-59,-100,-70,-30,-26,-62,-87,79,57,65,28,-14,18,18,21
1490229450071,1,39,-2,15,-10,-2,-24,-37,-72,38,97,52,36,6,1,53
1490229450122,89,51,118,68,27,29,50,11,-58,91,3,10,1,-5,-9,3
1490229450169,-38,32,-108,-84,-27,-2,72,23,-22,-97,-52,-21,-19,-21,-70,-17
1490229450217,69,9,21,-21,-15,-13,-39,-4,-128,-115,-63,14,-5,10,-19,-7
1490229450265,-108,58,-54,-53,5,4,-8,-24,-5,-28,37,29,10,-1,8,-7
1490229450268,88,-24,-17,22,-22,-13,-31,82,-122,-92,-96,-70,-6,-19,-32,-120
1490229450315,21,106,70,104,5,16,85,4,-19,-45,86,-31,27,17,-37,83
1490229450364,-61,-6,14,26,-18,-9,-10,-54,79,119,43,7,23,14,76,1
1490229450412,-50,47,86,39,21,-14,0,7,17,34,31,37,-11,-16,-24,-11
1490229450460,34,11,-66,-65,-4,-10,-32,-46,-88,-76,-7,6,-13,-22,-7,-37
1490229450462,39,-65,-14,-61,-1,8,-27,16,-93,-94,-74,19,4,-18,17,-76
1490229450510,-15,-60,19,-53,-23,-13,12,33,64,111,5,84,35,38,19,18
1490229450558,-79,35,-82,-13,-23,0,7,-14,89,62,70,16,25,5,-14,47
1490229450607,62,16,97,-10,10,3,17,13,-63,-49,-90,-21,10,1,10,-40
1490229450656,-95,-87,-75,-28,13,9,10,-21,-35,-42,-27,-13,-19,-16,-4,23
1490229450704,-45,32,-25,-30,3,10,17,30,9,13,90,35,5,-8,-30,-18
1490229450707,-100,70,16,11,5,-4,12,-82,113,55,-38,-31,-7,-6,-1,11
1490229450754,75,-53,-50,-91,2,13,-17,36,-128,-54,31,36,10,-1,-30,-68
1490229450850,-23,-39,-24,25,-7,3,25,33,-43,1,-55,-60,-18,-5,29,1
1490229450853,-75,-34,24,28,3,-10,10,-54,9,-108,-59,-61,-30,-5,-29,9
1490229450904,-10,59,56,-3,-20,10,-17,-9,61,102,48,62,52,4,16,9
1490229450948,-18,37,36,75,28,3,-14,-21,83,-15,31,-31,-4,8,68,94
1490229450949,14,-15,96,77,17,-13,-9,15,127,7,10,19,6,20,20,45
1490229450997,69,26,-51,-54,-28,-9,28,50,-48,100,67,41,16,12,4,-58
1490229451046,-41,60,-65,-46,-2,-2,8,-8,16,47,46,0,12,-4,14,13
1490229451095,115,51,10,2,33,39,14,-6,1,10,113,66,-2,-9,18,25
1490229451143,14,84,-29,-74,-26,10,-8,11,19,37,-16,-13,-21,-15,-6,-67
1490229451146,-28,-49,4,-16,-26,5,50,27,-89,23,46,37,16,-13,-21,-50
1490229451192,-3,-14,-104,-77,-27,-9,-23,-21,-9,8,59,31,-8,-4,-8,-5
1490229451241,45,3,40,28,33,-1,-36,40,20,28,62,45,8,20,30,-39
1490229451290,66,-43,46,59,42,4,-11,26,-111,8,-23,8,22,2,34,-10
1490229451338,66,-39,10,4,-13,-8,56,12,-46,-51,22,57,32,-4,-37,27
1490229451386,115,87,72,65,17,5,-25,-30,-121,-29,-56,-4,9,-1,-3,-13
1490229451388,-30,-25,-45,-66,-24,-9,28,12,4,-42,-32,10,-20,-13,-7,44
1490229451436,-19,3,6,37,2,-1,-51,-30,-55,-128,-121,-72,-27,2,-17,-20
1490229451485,36,72,33,-40,2,-24,-34,-74,-70,37,35,-19,-25,-3,13,-55
1490229451534,-31,7,24,44,13,-4,12,19,0,47,100,40,4,0,-4,-12
1490229451582,1,21,50,56,-12,-4,-1,-27,2,-46,-82,-40,31,3,-15,10
1490229451584,-18,-22,35,8,29,13,-35,-40,31,60,61,41,10,13,18,17
1490229451631,112,108,-5,-69,-42,-27,-1,34,-47,-47,15,89,44,25,12,45
1490229451685,-46,-13,-1,-13,-6,18,-9,20,-13,38,-23,10,16,-13,-12,-26
1490229451728,15,58,-38,1,-2,7,-14,27,32,-5,2,-15,-23,-5,6,-51
1490229451777,-77,-128,-60,-31,34,-6,0,-39,86,-35,-10,-48,-41,0,17,36
1490229451874,-70,12,59,21,30,20,-13,6,-43,41,-20,-10,1,3,-41,-6
1490229451875,-75,-90,-82,7,-25,-26,-3,-19,124,65,74,-44,4,-2,10,43
1490229451876,-35,-21,-33,-30,15,0,-21,90,-54,-32,-49,-79,-21,-6,-15,-79
1490229451971,63,-7,46,26,4,5,14,-52,-78,-43,-16,22,8,8,17,32
1490229451973,-53,18,-77,-11,13,-1,42,13,13,-25,50,28,9,-2,-18,-87
1490229452021,77,43,55,36,4,-12,-37,46,-83,3,74,43,21,15,33,-54
1490229452069,-124,-108,14,12,5,-4,-24,0,95,-25,-2,-9,-25,-12,4,0
1490229452071,14,24,-83,-7,1,1,40,-39,76,24,46,-33,-31,1,-16,47
1490229452119,32,-69,-93,-104,-25,1,-5,-28,28,34,67,-10,-21,-2,4,57
1490229452167,-76,-46,-30,17,26,-5,-4,-26,23,-48,1,5,-10,-13,-16,-8
1490229452216,-100,40,55,48,34,14,22,45,101,32,16,-21,-24,-6,1,10
1490229452264,-43,23,116,19,2,-5,9,42,-44,7,-44,25,3,5,-11,6
1490229452267,23,58,-1,24,-17,1,-6,-47,-86,-6,-1,19,16,8,27,10
1490229452314,127,38,42,55,10,7,29,-8,-23,-8,5,-27,-3,3,-17,22
1490229452362,-128,-19,-11,44,17,6,18,22,31,80,47,9,-10,-4,20,18
1490229452411,-45,58,28,28,4,-13,33,-45,95,69,47,51,29,19,-25,21
1490229452460,57,-10,-45,-67,-4,3,-26,-37,2,16,-39,-34,-23,-9,-3,-16
1490229452508,-42,52,69,44,18,6,33,-14,110,-72,-119,-78,-30,-3,-8,73
1490229452509,26,-20,-100,-73,-4,0,-23,-7,-74,38,32,29,2,-2,-7,5
1490229452557,18,72,-34,-14,-34,-7,-1,-43,48,2,-116,-55,9,7,33,90
1490229452606,29,-37,-17,47,16,-13,-11,-75,60,-61,-36,-33,-8,-3,6,22
1490229452656,42,5,-22,-32,-22,10,29,70,-19,-14,10,-2,-15,-10,-23,-33
1490229452703,-10,78,-38,-29,12,3,15,-53,-43,67,75,67,21,2,18,-17
1490229452751,90,44,64,56,68,26,29,36,-81,-19,-61,-39,-26,-26,-29,-52
1490229452753,-8,-57,9,-19,23,15,-12,54,76,21,10,24,-27,-9,-14,-21
1490229452801,-52,1,-37,-14,-22,4,2,40,10,-56,-73,-56,-18,-3,48,-30
1490229452851,-31,-31,-36,-53,-17,-24,-9,0,34,15,18,6,5,-7,5,4
1490229452898,-101,-71,33,5,-9,36,-6,-75,99,115,114,93,35,22,99,86
1490229452946,2,66,-11,-10,-2,1,1,-19,10,59,-11,-19,-22,-19,1,10
1490229452996,60,82,71,94,3,13,4,25,-86,-25,-66,-69,-9,-11,5,-53
1490229452998,-56,25,47,7,12,-7,-13,9,-22,62,-32,-9,32,-11,-31,-55
1490229453045,27,64,15,18,25,13,43,10,120,-21,39,37,21,20,12,101
1490229453094,-21,-58,13,-10,5,8,58,-13,88,56,-97,-72,-22,-7,-15,2
1490229453145,6,-86,-38,-9,-20,0,9,13,76,61,27,0,-26,4,-20,24
1490229453192,5,-85,-118,-30,-6,-2,13,-71,-37,-23,39,-46,10,10,-18,-22
1490229453200,7,1,-16,-48,-12,19,-17,-2,27,-67,24,79,29,-7,35,19
1490229453240,-19,-77,29,37,22,-2,21,65,-18,103,-11,-3,-12,0,-18,-83
1490229453288,-47,127,52,26,52,18,35,-53,81,-110,-44,-11,-5,-3,0,31
1490229453337,101,78,58,68,24,9,-20,70,-128,-70,7,-19,0,26,33,0
1490229453386,75,25,20,0,-6,-2,-7,76,-16,8,-34,-23,-2,-7,-14,-33
1490229453435,61,-40,-3,57,12,-11,54,3,115,31,-42,-33,-7,27,1,7
1490229453436,98,114,77,38,14,6,-47,42,-94,-86,-89,-48,-27,-30,-9,-60
1490229453484,113,65,121,103,32,25,43,21,-7,48,15,-8,-27,5,4,19
1490229453532,-65,0,-18,-18,-27,2,-13,-36,54,-22,-61,-33,-2,-12,-27,-15
1490229453581,-55,106,94,111,36,6,11,-27,46,-89,-109,-60,-12,-19,-17,17
1490229453629,17,87,-10,-59,-20,5,32,-17,-74,5,27,59,-4,-3,-24,-64
1490229453631,-11,-59,-128,-79,-18,-6,24,-13,-18,41,-72,-48,-24,-13,7,28
1490229453679,-45,20,25,-4,-5,5,-6,-50,71,-11,16,0,17,5,20,42
1490229453727,-112,-16,61,19,2,1,12,-63,107,1,-25,22,-16,-15,-20,19
1490229453776,-16,26,-88,-57,9,-10,-46,-25,-43,9,-26,-12,-16,2,1,17
1490229453873,54,77,-28,3,27,9,16,-18,-9,-75,84,-4,35,17,-4,-33
1490229453874,103,73,26,-32,-24,-22,-1,-27,-37,25,127,71,19,20,-2,10
1490229453876,81,21,-22,20,-9,-7,-62,-34,-72,64,11,-1,9,29,56,10
1490229453922,-85,26,39,46,26,-8,-5,-36,65,2,-51,-7,-7,-7,-9,-12
1490229453971,33,66,-25,-15,-16,4,5,39,-37,-125,51,55,24,-23,-24,-35
1490229454020,38,-85,-79,-100,-36,-17,-9,21,-71,4,-113,-25,-24,4,-13,-4
1490229454068,-65,8,-2,31,14,-5,7,-45,1,-61,4,-19,-11,-3,15,53
1490229454117,31,80,-21,45,-9,8,34,-10,-6,68,20,-10,15,-6,-24,28
1490229454119,48,-51,23,2,10,-6,-44,-19,-60,28,63,61,12,17,55,-3
1490229454166,-44,4,45,50,33,3,1,45,87,47,-15,-9,-28,4,-15,9
1490229454216,-13,-21,-40,-12,26,10,-30,33,-106,-57,-111,-123,-53,-24,10,-97
1490229454264,-76,-106,-34,8,-2,-3,18,27,6,15,-23,-30,21,0,-27,-24
1490229454311,29,63,14,17,-4,-6,-19,-39,-94,-71,48,30,50,3,-9,34
1490229454313,42,-32,-62,4,-21,-12,17,79,-18,26,-56,-80,58,13,-3,-44
1490229454361,49,-115,37,35,15,2,-49,-13,-5,83,23,2,-50,-14,21,14
1490229454409,-74,-69,1,-3,8,-9,15,-6,127,48,65,42,11,1,-2,61
1490229454458,51,59,-22,-44,0,21,28,-7,32,36,63,7,8,-3,-1,27
1490229454507,68,91,-20,-27,48,3,-22,-50,-118,-85,27,45,-51,-17,-4,-40
1490229454556,37,-27,-22,-41,-31,-16,11,103,68,-46,-19,17,22,-9,-14,-2
1490229454557,9,46,-54,-28,5,11,3,-33,-40,-12,-86,-79,-39,-7,-7,31
1490229454604,-38,-20,-40,-28,-9,-1,-22,33,70,17,-72,-28,-11,-17,7,-5
1490229454653,3,23,1,23,14,26,9,-67,-15,-35,-43,-57,-23,-30,-11,17
1490229454703,-30,-128,-42,-2,-8,-6,-14,2,-22,46,-1,-23,38,7,-3,-4
1490229454750,-55,-24,-23,-33,-53,-16,-9,-55,55,-42,1,29,27,-24,0,56
1490229454752,-18,82,-38,-53,22,-5,1,8,64,71,-8,-34,-17,14,0,-1
1490229454800,68,11,-21,70,-20,-8,6,15,80,-7,-49,-79,-17,0,9,-12
1490229454849,-15,-12,-25,0,48,28,-3,-46,9,38,-33,-3,-14,-30,-26,29
1490229454897,-14,-1,25,36,15,3,-6,-34,22,107,21,-35,-18,5,28,0
1490229454946,-31,-47,-54,-11,-60,-20,1,-43,-13,-4,7,-32,55,1,-2,-7
1490229454994,61,127,55,30,-23,0,-9,-15,42,-128,24,53,50,8,26,9
1490229454995,19,-6,-71,-123,-46,-21,3,24,-15,41,5,13,-35,-15,-69,-24
1490229455043,-98,34,-63,-21,-1,19,-25,6,-68,-128,-29,-19,-7,-52,-31,-50
1490229455092,-85,-44,9,26,18,21,34,-12,54,15,-5,2,-22,-7,10,34
1490229455142,85,55,42,0,-15,-16,-51,-73,-75,-106,30,65,43,12,53,-10
1490229455189,25,-52,-73,-36,-27,3,-16,5,-24,-46,-85,-61,21,-6,6,-43
1490229455238,64,117,64,9,-22,-9,5,5,-108,-52,-46,45,-13,3,-33,-7
1490229455240,28,-38,-2,-32,12,16,34,-3,-50,62,-10,8,-1,-22,3,-1
1490229455288,22,8,-88,47,58,8,-1,19,-15,-42,-91,-79,-29,-28,-44,-74
1490229455336,-128,-8,42,15,20,3,-9,-104,109,126,71,30,-18,13,34,34
1490229455385,-3,29,-84,-5,-51,-3,-1,37,-65,-33,21,-6,55,-5,-5,16
1490229455433,-63,-36,21,32,4,19,-7,-42,-73,-56,-93,-52,-28,-5,-32,21
1490229455434,50,2,-80,-44,-2,-14,13,-9,36,-49,12,-22,-38,-1,-4,25
1490229455482,61,108,55,5,3,-4,9,45,13,13,-16,12,8,-5,2,-4
1490229455531,30,-25,59,14,-4,-9,3,-24,31,10,-28,-6,35,12,18,0
1490229455580,-18,-28,-14,19,18,-25,-63,-2,-31,17,51,34,-28,7,12,14
1490229455628,-79,18,-42,-27,-4,-14,-49,-88,4,39,35,-23,4,12,37,1
1490229455676,127,61,-14,-9,-17,0,0,59,-65,13,73,40,0,-1,-3,-32
1490229455678,94,28,27,71,17,3,-12,100,84,38,-84,-57,-7,3,25,56
1490229455726,-27,-25,-32,-18,-3,5,-9,45,-5,125,68,49,14,15,25,27
1490229455775,-72,73,1,-28,-11,-10,3,-71,-37,-128,-116,-22,-26,-23,-8,64
1490229455823,-42,-34,96,47,-26,21,47,35,78,126,77,61,39,18,-2,21
1490229455875,-5,-49,57,77,46,-2,22,23,-102,-121,-98,-63,-23,-16,-28,-3
1490229455920,89,70,-48,47,76,30,-23,17,-5,-44,49,-3,-23,8,0,-45
1490229455921,24,4,-35,16,-14,-6,8,-4,4,56,72,24,6,-8,-8,25
1490229455969,43,64,-7,8,16,16,36,45,-74,-2,2,4,-35,-11,7,-40
1490229456018,-23,26,30,-15,-16,-17,-15,36,26,6,-87,-90,-3,18,27,-35
1490229456067,-36,-18,-34,-12,14,15,3,-1,24,24,61,-21,-43,-6,6,31
1490229456116,-85,-71,46,83,18,-14,-35,-26,95,38,7,-82,-22,9,30,57
1490229456118,22,116,30,21,22,10,17,75,-112,-34,-38,-60,-73,-17,-32,-48
1490229456165,-11,-68,28,-43,4,-4,-15,-15,105,54,11,22,-11,-14,-3,-22
1490229456213,7,127,26,5,-2,6,-48,-47,-84,-128,-28,-5,17,-2,36,16
1490229456262,23,-27,7,18,15,1,-2,6,-19,121,5,16,39,27,13,67
1490229456311,76,-22,-53,-52,-13,17,51,2,66,-91,-95,-13,-22,-5,-12,33
1490229456360,-82,22,3,-15,-8,13,26,-47,12,-66,-25,-37,5,-20,-34,-48
1490229456365,36,-62,5,3,-2,-13,-22,38,34,42,11,37,14,3,28,11
1490229456409,-83,20,-10,-17,-24,-19,-25,-1,-82,-105,-100,-90,-37,-4,-18,38
1490229456457,-8,85,111,79,35,11,-29,-25,42,44,-10,7,-15,-9,33,14
1490229456506,21,5,-31,-24,-1,-25,-35,-7,-105,-64,60,84,45,23,39,-38
1490229456555,-41,-20,-51,-13,13,2,-8,-28,124,74,-88,-51,-13,-3,-34,4
1490229456603,-55,-128,-69,-40,-48,-21,47,59,-109,43,36,27,-4,-13,-34,-38
1490229456604,1,-91,-69,-58,-38,-2,-1,13,7,-93,-39,-23,2,-2,-20,-47
1490229456652,98,127,-37,65,16,17,25,47,-66,-21,70,-26,-10,0,-35,-95
1490229456701,-55,-88,-67,-87,-48,-12,-18,-16,127,91,73,21,26,6,48,94
1490229456749,79,79,13,-5,4,15,28,8,-16,-21,41,48,44,9,-34,25
1490229456797,55,29,62,-37,-33,-3,5,-46,-128,44,-12,44,20,-11,-18,-23
1490229456799,-51,105,12,18,-16,-7,-44,-85,76,-85,-36,-63,6,2,-33,73
1490229456847,46,-35,-27,-21,-5,-6,30,23,-100,-20,-64,-81,-18,-2,-2,21
1490229456896,113,-32,-13,-42,-10,-6,-14,36,-84,-6,-15,3,-20,2,-11,-73
1490229456945,-18,14,-72,-85,8,-1,17,25,101,-48,-40,-28,-13,2,46,-13
1490229456993,-45,98,-28,-24,19,21,5,17,-23,33,66,-12,-47,-15,-4,-36
1490229457090,39,-78,19,71,-10,-7,18,12,-100,-35,-24,-36,30,-5,-29,-52
1490229457093,28,71,22,1,10,5,-18,-50,75,20,54,57,12,6,18,124
1490229457095,-67,-64,-77,-50,-10,-12,-26,-20,22,35,-28,-20,-50,-7,-27,-32
1490229457140,-57,0,89,69,3,-6,1,-41,-22,-51,-49,-36,-7,5,11,29
1490229457189,113,65,79,1,1,6,23,50,-114,-47,-27,67,27,0,22,-4
1490229457236,41,45,127,104,55,22,34,36,-61,-84,-106,-7,-15,-1,-41,-70
1490229457238,-22,-61,-56,26,-32,-14,-35,-6,74,79,5,-85,2,18,-16,68
1490229457286,-116,-25,-19,-25,-19,4,100,-12,74,-16,-40,0,11,-2,-39,-41
1490229457334,-74,-39,-96,-18,-7,-4,12,-17,-41,40,-34,-31,-26,-19,-16,-21
1490229457384,-27,67,88,28,4,0,9,26,-55,-82,-29,26,-6,-10,-67,-53
1490229457435,37,-126,-24,49,-7,-15,24,48,-64,19,-5,-35,4,-5,-22,-7
1490229457480,-39,94,-15,-31,-18,8,-15,-6,109,-90,24,24,-2,-14,17,21
1490229457481,20,-12,-31,-67,-24,2,-16,39,-72,55,7,18,-8,-12,20,-63
1490229457529,77,95,101,79,35,10,11,-12,-88,-41,-33,-82,-20,-8,-6,-16
1490229457578,-31,-38,-24,-22,-1,1,-8,-29,54,111,89,19,-1,5,6,-24
1490229457627,26,-30,56,53,34,8,21,1,65,42,45,34,13,10,9,45
1490229457676,-105,31,64,4,-10,-15,-29,-41,81,37,-31,-1,7,10,19,77
1490229457724,-82,10,-22,32,-42,-11,-25,-22,35,-43,14,-20,41,4,-26,-41
1490229457728,93,34,75,48,31,11,-2,18,25,72,14,15,11,2,17,7
1490229457774,-36,3,11,12,42,18,-6,-31,39,-59,68,-5,-9,1,27,14
1490229457822,19,73,-54,-22,0,8,-23,0,20,-38,-32,-78,-42,3,60,23
1490229457871,59,-67,-44,-2,-6,-14,0,-23,-128,-119,-112,-64,-47,-14,-12,-28
1490229457919,-30,22,25,44,39,16,26,-36,-10,9,64,26,9,-1,0,52
1490229457921,7,45,-46,-35,-17,-16,-7,11,-20,-64,-66,-29,16,2,12,23
1490229457968,86,127,111,91,41,20,22,44,77,-23,98,53,-16,-4,-10,-32
1490229458017,127,56,69,15,24,11,6,39,-96,-49,25,12,-4,-5,5,-42
1490229458066,16,-45,44,28,-9,-9,-3,38,28,24,-14,-13,18,-5,17,-10
1490229458115,-128,-111,54,49,27,-6,-40,-110,-11,-70,-80,-63,-50,-22,-39,-13
1490229458163,-15,-18,-7,13,-19,-5,-13,-23,19,4,-54,-6,21,7,31,-23
1490229458166,18,6,27,24,-1,-9,-25,3,-57,-1,0,-14,-3,1,-17,-51
1490229458212,-62,-92,-6,-35,-29,-37,-3,-63,103,50,32,47,41,53,-5,115
1490229458261,-44,-91,-16,-47,7,-10,19,1,96,67,22,32,-6,7,33,80
1490229458310,29,37,62,-26,-18,21,-31,-38,6,-28,-29,48,8,-9,27,-10
1490229458406,39,127,117,91,15,0,-23,-24,68,56,-50,-32,18,2,6,-23
1490229458408,-81,-88,-82,-72,-33,-13,-13,-22,48,100,31,-12,10,4,-44,-34
1490229458411,-105,-85,20,-3,8,25,25,14,61,0,67,86,29,21,-17,-37
1490229458456,22,-11,-5,-20,-16,-11,-36,43,-86,-32,11,23,-13,-3,36,-91
1490229458504,-9,65,19,-23,30,6,-39,-16,82,10,-11,17,-4,-6,52,15
1490229458553,91,-24,-68,-24,-1,1,60,64,-45,-6,33,21,35,15,-32,-18
1490229458602,26,-88,32,73,26,11,5,36,-128,47,-29,-13,1,0,-45,-75
1490229458605,-121,1,10,-22,4,-4,-45,-69,6,-81,32,-2,-3,-22,30,75
1490229458651,-71,-59,-15,13,34,0,15,-12,55,72,40,96,5,-5,-2,26
1490229458700,-9,-23,-17,10,4,-5,-5,-16,118,78,40,2,-56,-11,-12,74
1490229458748,4,79,94,38,40,9,7,-36,11,-122,24,37,2,10,-6,45
1490229458797,127,95,27,40,-2,9,0,5,-83,-74,-95,-103,-27,-9,25,-14
1490229458845,96,-14,28,46,1,-2,39,63,7,-26,-75,6,20,-15,-69,-56
1490229458847,-4,-13,-37,-22,-4,6,18,0,81,87,29,-11,3,-1,3,-25
1490229458895,91,84,10,9,5,13,12,-28,-65,50,-24,-93,-32,-18,19,92
1490229458943,-83,-12,43,34,7,4,3,20,35,-53,-53,-27,-16,-9,19,-29
1490229458992,-62,15,-43,-2,14,4,-13,-35,100,26,-18,2,-9,0,-1,46
1490229459041,112,-10,-75,-32,13,7,-19,1,-61,-100,-23,20,15,8,3,82
1490229459089,-6,-12,12,-23,-42,-27,14,69,-24,-43,-57,3,34,-1,3,-82
1490229459139,-18,22,-54,-15,19,16,44,48,54,80,81,48,42,4,-13,6
1490229459143,-5,121,106,17,-22,-2,35,8,37,-30,86,80,16,-2,-61,-66
1490229459188,-128,49,-29,24,-3,-1,10,-80,87,-123,-87,-72,-26,4,41,-31
1490229459236,12,52,127,36,23,25,-3,17,78,89,-33,7,-11,15,16,14
1490229459284,-43,-96,-56,-2,1,-16,-36,11,4,10,71,-1,-14,13,-44,-38
1490229459285,-11,-1,-24,-27,-3,-2,20,36,-29,-75,-32,-3,-15,-7,-34,-71
1490229459333,-41,-88,-112,-34,-14,-21,-13,-42,62,16,-17,-65,-64,-24,19,11
1490229459382,14,78,-82,-52,-30,-20,-16,-69,-7,20,-70,-53,-50,-2,-29,51
1490229459431,-41,-49,-94,-91,-20,-5,6,-74,26,97,75,29,-9,-12,-38,-23
1490229459480,-9,127,101,26,-20,26,29,46,-33,88,127,97,69,11,40,-37
1490229459528,-33,56,40,33,39,15,-22,-55,8,-44,8,-24,-11,9,31,79
1490229459529,-107,-84,6,-12,29,7,-35,-66,127,89,71,65,5,-26,-21,-21
1490229459577,112,87,43,58,28,1,-14,60,-128,-96,-20,-7,-23,-2,21,-62
1490229459626,63,41,46,6,-12,20,-6,-5,-60,9,-74,-13,32,19,-2,9
1490229459675,103,11,-51,-106,-69,-32,15,31,41,6,-58,3,3,-7,-8,26
1490229459724,-53,-38,-54,-19,-7,-11,-16,-95,94,27,2,-2,-40,-20,-1,31
1490229459772,53,-1,59,35,9,-9,-2,57,-26,28,35,10,20,10,7,-32
1490229459776,81,-50,-86,-11,-26,3,26,66,-91,-74,-110,-107,-16,-19,20,-7
1490229459821,-34,11,-26,-58,-11,-5,-14,-39,72,10,50,28,7,-9,-13,106
1490229459870,75,105,56,40,13,-4,-26,-33,-77,-77,48,21,-32,-12,14,2
1490229459918,16,-19,113,81,24,28,18,12,88,127,24,34,8,4,15,30
1490229459966,-36,7,31,25,39,16,37,7,-43,-92,89,97,26,-3,-13,-38
1490229459969,37,83,74,-13,-19,5,-51,-16,29,46,-56,18,-17,-14,19,18
1490229460064,-14,9,75,99,34,-10,-43,-47,37,65,72,40,36,13,23,40
1490229460066,101,-9,-123,-79,-46,0,-3,32,-56,-67,-86,-113,-29,-24,11,-21
1490229460113,64,78,25,30,22,-2,-6,-54,9,4,85,15,-23,5,-26,24
1490229460162,-38,60,73,30,5,0,21,15,3,127,127,88,53,8,16,4
1490229460210,-22,-84,-111,-57,53,30,-43,11,103,-41,-2,10,-8,5,13,-33
1490229460213,20,62,-81,-48,-26,-14,-2,-34,43,-42,103,119,32,-8,2,13
1490229460260,34,121,118,105,26,-1,14,50,95,110,-19,24,-7,13,21,30
1490229460309,-52,7,51,71,47,5,-22,-58,21,43,-30,-59,-10,12,10,38
1490229460362,-11,-69,-128,-119,-47,-9,-22,-22,-94,46,54,-46,-16,-8,-9,-58
1490229460405,-10,-128,-15,-34,-27,-33,18,23,-33,75,-5,-8,-21,-15,6,-26
1490229460408,-35,-4,67,-1,5,16,16,10,56,21,93,83,12,0,26,-36
1490229460455,-75,63,76,74,16,8,-11,-60,93,62,29,10,13,11,31,49
1490229460503,-86,-2,51,4,-35,-1,-5,-10,72,63,16,26,-10,-4,55,71
1490229460552,-46,-12,30,11,-5,-7,24,-6,93,-27,10,31,22,19,-5,53
1490229460601,-43,26,14,-33,-23,16,-19,-24,6,-84,-9,43,20,-9,-9,5
1490229460649,74,22,81,56,4,5,17,13,-27,5,119,39,33,-1,-33,-13
1490229460651,-50,63,54,41,4,3,-8,-20,-56,-128,-128,-60,-26,-14,-24,8
1490229460698,-75,-41,43,50,30,0,-18,-49,76,56,35,7,10,17,10,22
1490229460747,77,127,69,34,49,14,3,-3,25,-81,-61,56,16,-14,-10,35
1490229460796,-45,50,-66,-87,-52,-7,-9,-72,7,-58,18,54,22,4,23,45
1490229460845,115,84,-74,-20,-55,-12,-21,40,-125,-99,27,-14,47,2,17,-20
1490229460893,38,26,29,26,10,-11,28,11,28,-8,-72,-19,-1,-2,-4,-36
1490229460896,-15,-111,-87,-43,45,0,-1,-90,15,38,112,29,-2,-3,-8,60
1490229460942,53,74,73,23,18,14,-26,73,-80,-37,72,113,26,3,-6,-15
1490229460991,-97,51,51,22,-10,-1,-36,-128,17,15,102,84,17,6,-17,15
1490229461042,-33,15,-97,-88,-50,-13,-23,37,-81,-83,-106,-116,-43,-28,-40,-83
1490229461088,-10,-64,35,-43,21,1,-11,-12,115,106,66,89,6,-15,-58,-2
1490229461091,-45,91,52,48,26,-4,-31,-3,-44,-26,-128,-70,-38,2,-10,-13
1490229461137,-29,26,56,48,4,-1,-11,6,14,64,32,-28,-25,4,28,9
1490229461186,17,-25,-92,-61,-19,-2,-35,-28,9,-65,-126,-100,-59,-20,-3,27
1490229461235,52,-100,-52,-45,-17,3,40,86,-70,84,52,31,3,-10,-32,-128
1490229461283,62,101,101,115,21,11,35,-15,15,-26,43,72,37,16,-1,29
1490229461331,4,5,42,-21,-26,3,-43,-6,-88,40,-107,-43,-32,-13,18,13
1490229461334,90,92,85,29,42,5,0,-31,33,-36,20,3,-5,4,-4,69
1490229461381,36,-1,-47,-5,-10,3,26,51,-53,52,76,61,9,13,8,-11
1490229461430,-74,45,41,13,8,5,1,-14,83,-73,40,33,11,3,28,36
1490229461478,-92,-75,-28,33,16,-5,11,12,87,45,-14,-32,-15,-4,-24,27
1490229461528,-10,19,74,76,13,-5,35,12,-57,-47,-56,-56,2,15,-30,-7
1490229461575,4,-126,-24,-33,-38,-8,-5,-45,-27,-2,70,-2,-2,-5,-27,39
1490229461576,40,56,-31,-18,-21,-6,-19,59,58,55,53,62,0,-7,-5,-20
1490229461625,99,16,86,-16,-7,-8,-19,-3,-128,33,25,90,33,37,56,-2
1490229461673,11,5,-12,-19,-10,-7,43,7,-54,-26,-27,22,12,-16,-30,-42
1490229461722,-25,-42,-6,-21,-10,4,-6,-21,63,61,45,0,11,-1,-14,3
1490229461770,-5,55,4,-42,-22,-11,-39,4,-11,-15,-17,-29,-15,-5,35,19
1490229461773,114,1,6,34,6,-10,-22,0,-120,32,25,42,4,22,41,-8
1490229461820,-11,15,-39,13,-9,-7,-10,-39,113,8,-1,-27,7,3,-24,9
1490229461868,-72,-90,83,78,16,11,-41,-5,-4,0,113,44,19,-1,70,23
1490229461917,43,121,22,24,25,10,27,11,-77,-124,-31,22,16,0,11,4
1490229461966,-88,10,37,50,-12,-11,3,-104,127,60,-40,-9,-11,-2,-26,103
1490229462015,-96,-24,40,0,8,-13,-13,-5,-50,78,90,72,6,11,11,8
1490229462017,-55,-14,-43,-2,-17,-15,29,20,65,43,72,4,18,28,-8,80
1490229462064,24,-9,6,-11,3,2,-20,-14,16,-57,-84,-26,2,-9,4,16
1490229462112,44,28,-18,4,14,0,-11,-18,-125,-86,-128,-88,-35,-4,-8,-59
1490229462209,-89,-73,-76,1,-5,-5,1,27,-14,-47,-114,-109,-39,-25,-42,-57
1490229462212,-48,-92,-13,-16,-4,-14,-28,-9,19,2,1,-23,-38,-11,5,27
1490229462258,-51,50,47,56,70,19,1,-32,56,22,6,6,-60,-5,15,-4
1490229462260,47,115,35,-40,-15,-3,-34,-52,66,52,11,-5,18,9,24,16
1490229462309,-70,59,91,67,3,1,4,-25,-7,-54,-39,11,21,-2,7,8
1490229462356,127,41,1,9,16,-6,14,103,-97,-8,35,-12,-17,8,-13,-60
1490229462405,-67,-10,36,21,0,8,-43,2,-29,21,-17,11,29,20,65,50
1490229462453,90,40,-38,-84,-48,-22,-16,17,-106,-41,-3,18,8,19,-4,-80
1490229462455,-19,40,-14,8,-15,24,49,9,-62,-69,-75,-22,-7,-26,-39,-2
1490229462502,-128,-121,-55,-11,-41,-25,-36,-101,127,108,6,7,32,11,-7,51
1490229462599,-4,37,-95,-85,-9,-13,0,16,20,-36,-13,-13,4,-24,-53,-83
1490229462601,-83,-30,-3,10,-32,-27,-33,-49,31,75,96,54,23,13,35,18
1490229462649,40,-74,82,45,20,2,6,71,-128,-58,-34,12,9,16,-13,-90
1490229462696,-78,-59,-30,-22,-14,14,-24,-8,50,62,16,25,18,4,-3,5
1490229462699,53,57,94,55,25,0,-28,-3,88,44,-11,-32,-2,9,15,-8
1490229462746,29,49,-8,-81,-45,-14,-14,-7,-50,-49,9,-31,-10,-10,-8,23
1490229462795,-77,-53,-65,-64,-42,-11,-16,-93,-67,97,-21,-9,-9,3,7,52
1490229462844,-58,13,-15,-67,-73,-12,12,-1,57,32,40,47,23,16,26,14
1490229462891,-49,67,-38,-44,-14,-24,-29,-20,74,-125,-38,36,35,10,40,22
1490229462893,43,-115,15,-17,10,14,-25,79,27,39,58,22,7,15,13,-30
1490229462941,-6,35,4,33,17,27,41,26,-10,5,-71,-55,-12,-21,-44,-6
1490229462989,45,48,-69,3,12,10,-39,-30,119,13,-81,-66,-26,-3,10,42
1490229463038,-104,-24,-45,-42,-2,8,1,-21,16,-87,-86,-42,-26,-11,-33,51
1490229463087,-60,-25,-15,-28,0,12,0,13,3,13,-37,26,-45,-6,-11,-26
1490229463135,21,108,120,51,7,2,17,-8,-13,-69,-8,11,3,-3,-4,-5
1490229463136,48,-18,-2,53,13,10,-21,-53,-115,-90,-96,-84,-53,-17,-4,-20
1490229463184,21,55,65,-8,7,16,8,59,28,22,19,90,43,10,17,-26
1490229463233,13,32,55,-8,-2,-9,-12,0,27,-104,62,76,34,5,22,-25
1490229463282,-60,3,15,-18,15,22,-9,1,-1,23,53,43,4,8,-9,40
1490229463331,-75,57,-71,-38,-10,-13,15,39,-36,14,6,-25,-15,3,-20,-37
1490229463379,-110,-50,29,17,-2,2,-11,5,87,77,-47,-57,2,8,12,4
1490229463382,-81,-107,10,1,37,13,2,-24,-75,-62,-6,76,15,-6,-8,9
1490229463429,33,32,14,-56,-20,-2,3,-4,-5,-21,-10,22,-21,6,19,62
1490229463477,83,16,41,73,43,17,-16,5,24,-14,-19,2,2,-8,3,-36
1490229463526,73,30,-55,-59,-21,1,-24,-66,1,76,101,55,2,7,19,-3
1490229463574,-63,-56,-83,-97,-44,-21,7,-14,57,127,88,87,13,-7,-10,-29
1490229463577,50,-4,8,34,-19,-8,-19,-42,-18,-25,-83,-52,-10,-3,-9,96
1490229463623,45,113,116,91,37,-2,27,8,-31,21,-49,-57,-5,18,14,39
1490229463672,73,92,118,41,-1,5,4,57,47,-100,45,33,24,-10,7,-21
1490229463722,34,-2,-68,-88,-10,15,-20,39,9,-57,-43,-29,14,7,-21,-15
1490229463867,13,90,51,18,-17,9,33,37,52,-40,29,89,51,13,19,-7
1490229463870,67,44,42,17,-7,4,-40,-65,-52,-65,-37,-5,-4,-4,27,9
1490229463872,46,-89,-103,-69,-35,-20,-37,-2,-94,-14,-64,-60,1,-11,-22,8
1490229463875,-4,66,-10,-62,-34,-6,-22,73,-76,-86,-41,17,-13,-1,39,-71
1490229463916,-10,44,96,35,11,6,40,19,54,25,-48,15,5,-6,-34,-39
1490229463965,10,58,53,0,-17,10,46,23,20,86,52,36,53,11,-17,35
1490229464013,-128,-82,-128,-93,17,12,42,-36,119,43,42,51,-4,12,58,84
1490229464062,-60,105,72,43,25,31,23,-36,-60,-101,-93,-12,-23,-28,-7,-29
1490229464064,-43,-37,8,-29,-29,-31,-38,15,24,57,88,29,10,20,20,-39
1490229464111,80,22,-37,4,3,-10,-25,-8,-96,-54,-83,-74,8,-9,-6,-27
1490229464160,-113,-43,-6,66,13,4,-11,-78,68,22,48,9,7,-19,-34,22
1490229464208,32,-20,-128,-128,-1,-14,-31,-39,89,72,60,-25,-5,0,13,34
1490229464256,-42,24,1,-14,-17,5,59,59,-34,72,61,72,-4,-4,-89,-17
1490229464259,-37,5,2,1,11,18,48,30,-36,-20,78,59,6,-4,-19,-47
1490229464306,93,119,17,30,37,-4,31,11,-19,-28,-25,-73,-19,5,-18,-68
1490229464355,1,45,43,63,19,-1,-5,14,91,-75,-91,-16,2,2,4,74
1490229464403,50,40,-55,31,-16,-10,-28,-39,-34,-107,-76,5,-30,-37,-38,-43
1490229464452,-63,-64,-78,17,11,-9,-30,-78,63,-93,-59,-51,-35,-20,-20,22
1490229464500,15,51,52,-14,19,-3,17,-22,118,100,78,82,18,14,44,96
1490229464502,68,-28,-128,-128,-74,-36,-8,-2,-77,93,-43,-16,-12,-11,-27,-4
1490229464550,-128,-91,64,17,7,12,-26,0,89,127,127,109,36,-7,47,-19
1490229464601,-77,76,63,4,32,4,-48,-76,-44,-84,58,52,2,4,37,26
1490229464647,-47,-48,60,86,-11,2,40,4,31,33,33,-11,68,8,-31,-20
1490229464696,97,28,112,62,17,37,38,-32,-43,59,-68,50,1,9,-14,-17
1490229464744,124,111,30,-1,32,20,21,96,-21,-92,-70,1,-35,-6,-31,-65
1490229464747,19,-50,-30,-48,-28,-21,-19,5,-86,-89,-78,-30,-6,7,22,-23
1490229464794,19,7,52,18,-17,-12,-14,-35,12,127,78,50,6,-3,-19,73
1490229464842,-90,-98,-11,2,4,-4,7,-29,127,86,31,-28,0,1,-16,26
1490229464891,26,-39,-51,-48,-5,-1,30,-1,-56,-54,40,56,14,-8,8,61
1490229464939,43,68,-42,-66,-59,-2,0,80,57,-67,-56,-72,-32,-9,-17,-5
1490229464940,-128,-105,-25,2,21,12,-3,-48,110,-3,-47,19,-3,-3,28,103
1490229464988,-16,17,-37,70,15,-1,2,-19,-8,-74,-86,-111,-51,-13,5,-19
1490229465037,-26,113,53,15,34,-4,-23,42,11,-121,-42,-2,-14,-11,28,-12
1490229465086,-14,8,81,43,53,17,38,5,113,113,0,5,-10,8,-23,8
1490229465135,13,95,-75,-37,-31,-8,-40,-52,-85,-29,11,-13,-13,-21,40,34
1490229465183,10,20,-31,-50,-25,-17,-22,-26,-128,-54,-41,-28,-15,-6,-9,-67
1490229465187,-36,39,-31,-18,-18,-31,-31,-7,127,-31,-18,14,7,22,25,4
1490229465232,-64,-90,-64,-50,-23,-16,-36,21,81,-93,-87,-13,9,25,25,25
1490229465281,98,27,42,39,30,13,-36,29,-26,-49,-49,-12,-13,1,6,-45
1490229465378,80,109,99,56,15,12,-9,36,-73,-88,42,-14,-16,-29,6,-37
1490229465380,89,92,127,115,10,-14,15,45,-99,-76,-92,-45,-19,8,-19,-67
1490229465426,46,68,8,-70,-25,17,34,9,127,0,60,71,31,0,9,9
1490229465428,68,47,-128,-64,-19,-11,0,-32,-85,10,-41,-33,-18,-10,-23,-6
1490229465476,67,-34,-109,-42,-14,-15,-11,68,-64,-24,-9,-27,-16,-11,-40,-77
1490229465525,-48,-68,38,35,22,14,5,4,-26,-41,-94,-31,-9,-7,17,26
1490229465621,70,80,114,102,71,4,-3,-27,2,32,32,73,30,34,75,42
1490229465623,60,-29,-1,-46,-35,-12,-24,4,81,63,19,-12,15,-13,-26,8
1490229465635,-50,-15,-28,-26,-35,-12,6,-27,71,-1,74,35,23,4,-50,49
1490229465672,-69,33,45,81,-16,4,-11,-50,21,-4,-62,-88,34,10,41,38
1490229465767,-66,10,74,33,38,15,39,19,43,102,32,8,-9,-5,8,64
1490229465774,81,-9,-25,-42,-6,0,-18,-9,19,42,39,19,-36,-1,-2,-5
1490229465817,-73,-68,-36,-30,2,-10,-36,-39,26,-2,52,64,16,1,-5,38
1490229465865,110,64,-33,-28,-9,5,-13,59,-128,-95,19,36,-30,-44,-7,-54
1490229465867,-57,-23,-76,-72,-5,-14,-7,-13,48,34,-67,-21,-10,-3,-31,39
1490229465915,33,6,99,14,17,5,4,21,41,8,-34,-17,-9,12,-36,0
1490229465963,15,2,19,25,6,0,7,-7,-55,-75,57,33,29,4,82,43
1490229466012,127,103,25,9,-7,6,3,79,-9,-47,-70,-25,-2,-4,28,76
1490229466060,32,-47,28,25,-2,-11,-11,-44,-75,-83,82,51,13,0,-3,62
1490229466062,14,112,-89,-83,-4,2,33,12,48,-22,89,8,-17,1,12,30
1490229466110,48,101,14,23,10,-5,1,-50,-60,40,33,31,-5,-3,-49,31
1490229466159,-34,-68,-38,-28,-29,-18,-14,-52,48,24,24,-33,13,-2,12,45
1490229466207,65,-32,-64,-30,-22,-8,5,-6,-106,-29,-13,1,-14,-12,-11,-36
1490229466256,-12,1,47,14,-1,8,29,46,54,2,82,116,80,15,1,-30
1490229466304,-21,-96,37,-65,0,18,3,-10,-48,62,-88,-17,-25,-4,-40,-17
1490229466306,8,16,37,-29,-3,-6,16,46,127,-5,58,68,9,-1,-4,35
1490229466354,93,105,83,46,20,-3,-88,-38,99,-14,21,21,5,16,66,70
1490229466402,14,13,59,33,25,9,17,-8,-36,-13,-9,3,-10,-14,-71,-10
1490229466451,-27,94,45,89,42,-1,14,-46,35,-56,-59,-63,-13,-11,1,33
1490229466500,-63,18,-11,13,43,24,10,-36,15,59,56,-6,-30,-6,-15,6
1490229466548,-128,-76,40,-18,9,3,14,-40,42,-37,-57,-4,-31,-3,-34,23
1490229466550,-48,-65,-93,-79,-40,-9,-53,60,-2,75,57,3,20,-3,25,-15
1490229466597,61,58,66,63,13,14,6,69,122,22,-28,-36,-3,-18,-7,12
1490229466646,75,77,14,73,19,-6,6,-61,-77,-57,-5,-32,-32,-35,-21,10
1490229466695,-98,-67,69,76,6,-26,-52,-22,27,-19,-8,-66,-1,9,-1,4
1490229466744,3,-47,5,42,-4,-6,24,30,127,72,-92,-88,-5,15,3,0
1490229466746,-128,-30,-7,-18,14,31,60,14,-53,26,100,94,-5,-16,-31,-53
1490229466792,127,74,-9,-30,1,-8,-6,55,-102,-47,23,21,-24,1,39,-27
1490229466841,11,-15,-9,34,16,3,11,2,-5,-13,3,-21,27,10,-26,40
1490229466890,28,-48,-40,-57,-24,-13,-41,-10,-13,33,47,57,25,23,5,-4
1490229466940,-67,26,34,22,-7,-1,32,-69,55,-112,-17,-50,-3,-19,-31,26
1490229466986,0,-59,-101,-36,-14,-3,27,-22,-21,-30,-45,-71,-24,-29,-71,-49
1490229466990,54,-24,-46,32,74,43,52,20,-128,-70,14,32,10,4,-20,-58
1490229467084,68,34,97,33,9,-1,1,43,-24,25,52,42,31,15,-25,-82
1490229467089,-26,-22,16,-19,-51,-14,3,7,69,78,63,18,20,23,33,41
1490229467134,48,90,-34,17,-22,-34,-55,26,-128,-89,12,6,28,2,24,-8
1490229467182,-70,-128,-30,-25,26,27,13,-19,1,28,81,53,-2,-8,6,-14
1490229467230,-99,-21,-30,-16,-15,-9,12,-16,48,-12,14,21,-21,-5,-4,24
1490229467232,-33,-17,84,87,33,8,43,27,-12,-73,-103,-76,-54,-18,-79,-71
1490229467279,15,62,-17,-22,6,0,-54,-27,119,64,-52,-25,-47,-10,-3,-9
1490229467328,-93,-40,-54,-46,-21,-12,9,-47,44,18,-48,-60,33,-4,-2,13
1490229467377,34,-24,50,108,12,-15,-4,20,42,-41,-80,-110,-12,7,33,23
1490229467425,18,-48,-128,-128,-46,-5,9,-1,20,20,30,11,-13,-19,-10,-21
1490229467428,112,-41,-24,0,-20,5,-24,30,-68,-28,9,-32,1,2,21,-51
1490229467475,11,51,-12,51,42,2,5,60,127,-55,-4,-55,-1,3,-12,14
1490229467523,75,61,32,-19,-16,-2,-70,-14,-117,-78,-105,-38,-20,-5,63,-31
1490229467572,50,62,-10,-4,-12,-13,-9,16,19,-53,-47,-27,-28,-24,-43,-43
1490229467621,-112,41,82,-38,12,19,97,6,11,4,-68,26,-56,-13,8,22
1490229467669,-27,-98,-26,-20,-14,-28,-7,-30,-7,26,-11,1,31,23,39,-16
1490229467670,-22,-5,35,11,2,7,5,48,18,5,32,45,15,9,2,-34
1490229467720,11,63,-50,-62,17,7,-12,-23,43,116,-15,67,-28,-14,71,97
1490229467767,37,-30,-44,-57,-35,-23,-34,32,17,-43,70,22,41,14,-22,-32
1490229467816,21,44,105,72,13,-13,-20,6,14,43,3,50,28,11,-20,8
1490229467865,-128,-111,10,-16,-8,-14,-14,-50,63,45,-27,67,-5,-20,-12,82
1490229467913,40,-23,37,-14,8,18,26,-18,-69,64,55,43,-1,-4,-24,-46
1490229467916,67,90,18,-6,7,18,42,65,-15,28,108,54,20,0,-18,-57
1490229467962,-100,-74,-100,-80,-30,-14,-57,-74,115,21,32,31,4,-4,41,118
1490229468011,41,43,-25,8,-24,11,-38,-8,-46,-33,-99,-117,-34,-20,34,75
1490229468059,67,-5,-5,-51,2,17,-35,-21,-22,64,-55,4,-30,-6,59,24
1490229468108,-99,45,-23,-23,-14,-9,-19,-63,47,48,53,74,56,-1,-10,37
1490229468156,127,-10,-13,-20,8,22,10,64,-61,13,-19,26,-26,-13,-27,11
1490229468159,10,-24,-28,-37,-26,-16,32,-41,-54,28,-22,-41,7,13,-10,-4
1490229468206,17,-15,61,10,15,-21,-15,-8,80,88,122,72,26,13,76,58
1490229468254,-26,-27,-16,-54,6,13,-29,-13,86,107,96,117,42,15,28,79
1490229468303,106,89,30,46,11,6,-13,40,-15,61,72,73,6,0,14,-17
1490229468351,24,-2,48,44,62,16,52,21,60,101,-14,-34,-53,-5,-18,37
1490229468353,-128,-11,-47,20,-19,-30,-53,-53,100,57,63,-29,-1,17,-23,85
1490229468401,-63,-36,5,-61,-11,20,21,-4,24,-13,54,63,15,1,23,4
1490229468449,123,-5,73,50,41,5,56,72,-102,-66,-121,-87,-24,-16,-13,-91
1490229468498,-106,27,-65,-2,4,22,25,2,114,9,-63,-35,-30,-32,-7,-62
1490229468546,-109,-53,-17,65,33,3,-45,-56,93,-24,-128,-128,-75,-24,-23,105
1490229468548,7,69,101,41,25,-4,10,-51,70,83,127,95,58,37,15,-58
1490229468596,-4,12,-18,-19,-24,-14,-11,-15,-51,-80,-36,-2,-23,-9,-31,-1
1490229468644,109,-10,9,-33,-21,-9,-9,-41,-128,-49,12,-5,-21,-7,-39,-17
1490229468693,50,48,54,51,17,4,46,66,28,101,50,-8,21,20,13,70
1490229468742,94,47,49,31,7,9,29,51,-45,-23,69,72,13,-23,-17,-50
1490229468790,-81,-68,-72,19,30,-2,39,9,97,28,-99,-112,-7,0,5,-14
1490229468791,-104,1,37,31,5,-17,-52,-5,10,57,105,18,11,13,-18,-48
1490229468839,-79,7,32,4,22,21,30,-14,97,43,47,-4,-5,3,-8,39
1490229468888,-67,-85,-48,30,21,4,11,12,-25,114,83,38,26,21,0,21
1490229468937,40,72,82,79,15,12,38,32,104,63,-63,32,22,6,-3,50
1490229468986,1,42,100,17,-10,7,-3,39,-31,-4,-111,7,6,14,24,33
1490229469034,-58,-84,-100,-112,-21,1,-48,-66,-15,58,-25,-11,-43,-28,0,-7
1490229469036,18,-16,-128,-77,-36,-13,-12,13,52,56,99,18,-7,18,5,57
1490229469084,80,11,58,-30,-7,14,8,-34,-101,13,-102,4,-24,-22,-25,32
1490229469132,-102,-19,5,-35,-28,-14,-13,26,-3,61,69,51,35,10,2,-66
1490229469181,-26,-69,-120,-15,-23,0,56,7,-34,-85,-84,-128,-46,-4,-8,15
1490229469278,1,80,25,-31,-5,-6,-65,-75,58,6,-20,-9,3,8,12,72
1490229469281,-51,-30,34,-20,-20,13,-37,-11,4,41,57,74,20,9,-11,-27
1490229469283,40,-21,54,61,22,1,35,113,-59,46,46,51,-14,-32,-42,-98
1490229469328,16,-57,-52,29,-39,2,28,50,-102,-102,-103,-83,-17,-25,-25,-47
1490229469376,51,127,90,25,40,29,3,28,78,-36,-83,-23,-23,-11,45,119
1490229469425,-15,111,114,64,23,16,29,37,40,51,29,5,3,6,-28,-82
1490229469473,27,113,10,44,13,14,10,-26,-90,-128,16,23,14,-2,-38,-87
1490229469475,52,9,-112,-69,-44,-22,-38,-10,-117,-69,-33,-44,1,6,74,-41
1490229469522,-77,-38,50,62,35,0,-13,-28,80,-73,1,73,24,-4,2,72
1490229469571,-35,-11,60,-52,9,3,89,-36,17,82,46,54,22,-3,-47,-63
1490229469619,-19,-30,-80,25,-20,-17,-8,52,34,97,74,36,-11,17,24,68
1490229469668,108,91,111,85,6,-18,-33,47,-92,-19,-17,-15,-23,-10,-4,-28
1490229469716,117,32,-1,58,4,-5,-15,36,44,-32,-106,-81,-8,-7,9,-38
1490229469718,-84,48,-9,-19,6,8,2,-54,25,-47,-77,-20,-20,-10,-35,44
1490229469766,-28,87,-56,-8,-20,-10,-18,-41,79,71,-33,-128,-16,12,67,111
1490229469815,59,-5,-37,20,0,13,11,33,-72,-117,21,-9,-13,-9,-4,67
1490229469863,69,102,76,100,39,20,83,59,-9,-21,-124,-33,-3,0,-24,-96
1490229469911,16,8,15,25,-28,-10,-34,-27,-26,68,58,44,22,5,-5,26
1490229469913,-74,-22,61,15,12,-5,-3,-67,34,40,43,37,3,1,-25,12
1490229469961,-81,-77,-93,-20,-37,11,-43,16,-14,-94,-47,-87,-32,-5,49,-8
1490229470009,13,82,-43,-32,-14,-22,-5,-19,-55,-91,6,-10,4,-9,-32,13
1490229470059,46,32,57,38,-5,12,-3,15,43,127,127,107,43,12,34,56
1490229470107,61,23,83,68,20,-8,-18,-9,-58,6,5,-5,16,0,-4,-42
1490229470155,-18,30,102,108,85,22,80,100,19,-6,58,54,0,-6,-26,-10
1490229470157,19,-56,83,59,9,5,-16,36,-78,109,49,10,30,33,-29,-80
1490229470204,32,6,-39,-58,-36,-8,-9,-31,-7,-39,20,36,19,0,30,30
1490229470301,-102,-29,-48,-31,15,-14,-6,-56,93,36,13,-9,9,8,-17,71
1490229470302,63,-40,-2,13,-9,-12,-11,41,-128,4,60,75,19,12,41,-73
1490229470351,127,42,6,5,-11,-3,-20,52,-84,-57,-25,-7,-16,6,19,-26
1490229470399,1,105,74,41,43,29,105,2,-107,-88,-72,4,11,-15,-29,-11
1490229470400,-101,-26,102,122,32,22,46,34,125,58,35,-13,0,-1,2,-32
1490229470448,-27,-10,-116,-110,-31,-15,5,-19,9,-109,-23,-66,-20,-25,-38,-7
1490229470497,68,71,-99,-31,-17,-16,-18,29,25,-30,-74,-98,32,11,-9,22
1490229470546,-123,78,60,5,-28,-28,-82,-69,8,-86,-98,-13,11,-4,0,-11
1490229470594,74,31,5,37,17,9,-8,11,-75,57,126,49,30,-1,-13,-53
1490229470597,-97,-64,16,9,-2,10,45,-68,94,-38,-25,-4,-16,9,35,77
1490229470643,-54,-113,-21,-44,-60,-10,62,-34,53,36,9,6,36,-3,-19,-14
1490229470692,-2,1,37,34,22,1,29,32,55,85,41,20,-36,7,-5,-15
1490229470741,119,42,98,23,8,9,-32,-43,43,119,-51,8,14,15,4,82
1490229470790,-43,-82,69,23,-5,-1,-21,29,-67,15,-95,-23,-15,-7,-17,0
1490229470838,86,45,-32,-6,-6,8,19,65,11,-31,-15,-22,-1,-10,0,30
1490229470840,85,-5,-89,-24,-31,-3,18,-6,127,11,1,1,23,5,-2,63
1490229470887,42,-94,-13,-17,-12,-10,-44,-18,-94,72,43,7,10,-8,27,-67
1490229470936,-75,109,-6,56,27,-3,74,-12,127,-63,-68,-55,-18,16,-34,45
1490229470984,-69,-36,26,2,-4,7,-35,-58,93,45,-42,-22,-17,-3,18,89
1490229471033,38,-19,-51,-39,-21,-4,36,80,-36,-24,53,15,3,-5,-53,-67
1490229471081,34,-3,-43,-42,2,8,-29,-12,-42,7,93,80,34,18,20,23
1490229471083,76,7,43,22,14,4,10,48,-30,-17,-3,25,-8,0,-23,-4
1490229471131,125,75,43,64,15,-6,-26,45,-79,56,-29,14,27,22,26,-60
1490229471227,-25,-79,36,23,8,7,-26,-8,-36,-40,-63,-27,-21,-10,9,11
1490229471229,93,39,33,-5,14,1,-16,94,-51,-38,43,23,1,3,19,-6
1490229471276,-22,-36,-55,4,14,-1,-50,-109,38,8,78,44,-5,-7,49,79
1490229471325,2,16,1,-8,-6,-5,20,-41,-49,14,56,1,-5,13,22,-3
1490229471327,69,-25,20,53,36,20,56,-1,-66,10,-47,-45,-5,-4,-62,2
1490229471375,78,-3,-76,-6,-28,-1,-78,17,-8,20,-85,-73,3,-6,-20,-73
1490229471423,-30,-69,-19,-18,-17,-9,26,93,65,36,-48,-22,-10,-31,-67,-95
1490229471473,43,-112,-38,-80,-15,27,106,61,-46,-11,82,53,12,-6,8,19
1490229471520,30,-6,-128,-107,-44,-14,-55,34,-31,21,28,7,-1,11,28,-41
1490229471521,21,76,105,74,9,14,-36,-28,-71,-20,-68,-46,-21,-10,18,15
1490229471569,-90,-67,-8,8,-8,-18,12,-81,5,66,79,-29,1,10,-16,27
1490229471618,-50,22,-27,-1,8,-3,11,-41,-17,-61,-29,6,0,9,16,-52
1490229471667,115,8,83,49,60,11,48,66,-108,9,-7,36,12,40,-1,6
1490229471715,-34,-15,-40,3,15,-3,70,-6,110,37,38,-1,-15,-11,12,89
1490229471718,-24,67,5,26,-10,6,34,90,44,16,104,89,18,-10,-20,-97
1490229471764,57,-51,102,-2,-39,-17,1,8,93,83,86,40,23,4,-15,55
1490229471813,-72,16,-38,5,22,10,19,-13,2,6,-18,-30,-3,1,-15,-52
1490229471862,37,6,-100,39,-1,-21,-53,29,-62,-24,-30,-106,-62,-12,-2,-9
1490229471911,-34,-69,-86,-98,-69,-4,5,-1,72,71,-35,-56,-26,-13,-12,13
1490229471959,-108,-79,-86,-43,-12,-20,-32,-75,6,-8,19,4,3,-7,-15,-10
1490229471962,-44,72,127,127,18,15,3,9,77,-15,-48,-38,-5,-8,-19,-15
1490229472008,84,18,-59,-33,2,12,41,7,29,48,69,2,-5,-2,22,42
1490229472057,-59,-116,-31,-48,-39,-12,-55,-45,75,94,105,52,40,11,8,19
1490229472106,89,104,-27,-7,-10,4,5,62,-110,-79,-61,-81,-7,-12,-23,-46
1490229472203,9,33,70,-33,18,-20,-5,-7,17,23,-21,-3,-2,4,-18,55
1490229472205,-6,42,30,24,-27,1,22,65,-49,-12,0,-73,-9,3,-32,-53
1490229472209,-11,19,-40,3,-7,-16,-18,-18,22,-56,-2,-11,-21,-7,-22,-72
1490229472252,-15,-70,104,-28,-7,7,-26,-41,127,127,79,83,45,15,-3,51
1490229472301,-7,-9,27,11,23,7,-13,-6,10,43,73,52,8,3,35,-12
1490229472349,-60,37,127,79,11,9,8,38,69,94,-67,41,4,5,12,23
1490229472397,-115,32,12,-17,0,-7,53,22,3,-43,-63,-22,28,-1,-35,-16
1490229472399,33,43,36,2,6,8,8,23,24,47,28,32,-21,3,0,-27
1490229472447,-34,-110,-21,39,19,3,-18,-78,-29,-53,51,-8,24,-6,3,1
1490229472496,74,-45,-62,11,-18,-4,8,54,-32,35,62,15,23,3,-34,-72
1490229472545,-17,42,-31,-15,1,-10,17,-51,52,-26,-7,8,-13,3,6,110
1490229472596,18,-53,44,60,16,-21,-23,-51,-5,44,44,-39,19,32,39,62
1490229472643,-117,39,3,-13,-40,-18,47,24,127,44,31,74,60,24,2,112
1490229472648,5,-64,-94,-103,-58,-19,-44,29,-16,19,72,-21,-13,-4,52,-18
1490229472691,-73,73,15,10,9,2,-44,-84,-3,43,-18,-13,-19,-3,-16,-3
1490229472740,36,11,71,41,14,12,51,71,127,-9,-21,36,30,-12,7,-11
1490229472788,108,126,5,86,-6,-26,-9,74,-100,-128,-81,-96,-9,22,-22,-53
1490229472837,36,79,127,94,76,17,46,61,-78,-33,39,36,4,16,-3,-63
1490229472885,67,20,11,28,33,27,11,-39,-72,-94,-55,-52,1,-13,-8,-13
1490229472889,-13,58,-51,-8,-22,1,20,-16,-48,-61,-74,-88,-23,9,-25,39
1490229472934,-90,-121,-118,-40,-7,-16,-45,-57,74,40,92,-24,-32,-12,-9,-35
1490229472983,60,19,18,15,23,0,13,0,-40,116,90,67,14,1,-3,24
1490229473032,100,48,-4,43,-4,33,64,11,97,67,-15,-21,22,1,-29,86
1490229473080,55,-31,33,85,-5,-11,18,-38,59,0,-60,-92,-5,1,1,47
1490229473083,32,-53,-100,-79,-10,6,-16,97,-16,-3,40,8,-6,-5,67,-29
1490229473130,68,-128,-96,14,4,-18,-4,20,-128,-47,-78,-67,-2,2,-25,11
1490229473178,64,116,127,62,22,8,34,83,-52,-22,12,-17,-5,2,-3,40
1490229473227,54,-4,45,39,16,-31,-39,28,15,-56,-24,-13,14,19,2,-42
1490229473276,-81,127,127,66,27,16,-5,-13,-56,-128,45,75,0,2,27,4
1490229473325,-37,25,24,9,11,18,8,-32,-54,10,-17,-32,3,-14,8,5
1490229473327,-73,-6,-111,-97,-37,-10,-26,13,28,97,74,35,0,11,-25,-11
1490229473373,-10,-1,22,63,-8,-7,3,-37,86,-1,-112,-82,-9,-1,-3,-22
1490229473422,118,89,127,16,0,16,-3,53,-50,-82,86,90,36,12,38,35
1490229473471,56,6,90,108,52,9,23,9,66,60,29,63,5,23,34,59
1490229473519,28,-33,25,-11,-30,-30,-7,12,-48,12,-2,48,-8,-32,-88,-67
1490229473568,73,-58,-5,42,-18,20,15,58,30,76,124,105,43,20,84,-2
1490229473570,-106,-85,-126,-111,0,5,-58,-107,-93,66,-3,-10,-13,-14,11,41
1490229473617,-76,58,127,121,19,-7,-47,-78,89,47,40,-56,27,41,44,18
1490229473666,110,41,-6,-26,0,1,-28,43,-69,22,127,127,19,-17,16,-77
1490229473714,119,96,30,-13,-24,-7,40,44,-32,-74,30,28,41,7,6,31
1490229473762,-128,-41,-122,-67,4,34,19,-26,-17,-112,99,30,-11,-37,-32,-47
1490229473764,-43,-66,-106,-109,-77,-35,8,33,66,39,78,49,-18,-13,29,-5
1490229473812,5,-128,-63,8,33,35,45,33,-39,55,-128,-120,-72,-24,-79,-43
1490229473861,-56,36,65,108,23,-11,-3,26,127,53,20,13,25,23,-12,38
1490229473909,-38,23,60,61,8,-18,8,64,76,-24,21,35,12,16,-3,28
1490229473959,-26,-41,-49,-33,1,60,51,29,63,61,21,71,29,-16,-80,8
1490229474056,-21,-22,-15,25,29,2,-11,-128,109,83,58,-8,13,22,29,96
1490229474058,-40,-82,-103,-62,-17,-5,-50,32,-91,93,11,-10,-15,-17,23,-61
1490229474065,44,-12,18,40,25,-1,-9,2,104,47,30,27,-11,-4,-20,89
1490229474104,-128,11,31,54,42,19,15,-46,-28,-60,-68,-93,-33,2,-1,57
1490229474153,-21,54,111,124,71,15,-34,-86,6,-29,-79,-5,31,-5,-12,12
1490229474201,-52,-17,34,-2,-15,-22,-39,-64,-95,-81,-69,-43,-31,-25,42,0
1490229474203,29,43,-14,-109,-50,6,44,72,-84,-92,-105,10,19,-6,-29,-61
1490229474251,114,22,-93,-36,-5,-10,3,45,-58,-24,99,23,35,3,15,0
1490229474300,-110,20,95,76,11,-2,18,-37,119,-34,-93,-20,-14,-17,-42,31
1490229474348,-37,29,46,65,1,23,62,-3,3,35,84,26,1,2,5,23
1490229474397,56,84,68,52,39,14,-27,-42,-8,34,-13,-12,13,12,3,59
1490229474445,-72,112,85,26,-3,-13,22,22,-88,-91,2,31,21,20,45,67
1490229474494,44,-59,-39,-70,-43,-9,0,57,33,124,127,55,20,10,31,20
1490229474497,-13,88,-14,23,11,8,21,64,7,-78,11,55,40,4,3,-35
1490229474543,-112,-128,-93,-69,-30,-13,-40,-43,51,37,1,-72,-23,-15,-14,52
1490229474592,-10,27,-98,-97,-35,-5,30,-20,1,-92,-2,-23,-25,-25,-30,-26
1490229474641,77,65,119,59,18,19,3,48,-73,-21,-32,23,14,13,22,47
1490229474689,-64,15,-34,0,-15,-14,-32,-1,127,73,110,33,6,18,32,33
1490229474692,12,22,-25,44,3,6,8,13,44,94,68,-33,4,33,48,-74
1490229474786,-12,18,97,-16,5,10,-17,-51,34,-10,-47,13,-16,-13,27,66
1490229474788,59,-7,95,16,29,38,31,23,-110,27,127,104,38,5,6,-61
1490229474884,30,-33,-58,-13,18,1,41,36,-53,12,34,12,-8,-13,-43,-30
1490229474886,9,-29,-6,-15,26,6,28,-1,78,126,34,63,26,-12,-6,91
1490229474887,-21,-47,-97,-88,24,-9,-31,-29,-30,-17,-13,16,-24,0,4,-3
1490229474933,-78,-49,18,25,-11,4,0,14,-6,108,42,30,20,1,45,61
1490229474982,37,67,127,78,5,-2,-53,-14,2,-4,6,53,39,23,41,59
1490229475031,-84,2,-36,-3,-13,0,11,-43,-59,-9,81,29,31,9,12,-34
1490229475079,29,-29,81,-10,-16,-6,-9,25,29,-73,-40,72,12,6,6,-4
1490229475128,31,-15,31,-11,-4,-15,-17,49,-53,57,-56,-107,-55,-11,-20,-90
1490229475130,86,63,93,58,30,14,34,79,-41,70,23,49,19,0,0,34
1490229475177,3,-51,-128,-110,-59,-9,-20,-17,-13,56,-3,30,0,-12,-29,-5
1490229475225,-128,-114,-46,-32,-4,-5,3,-3,52,-74,17,-61,-24,-24,22,25
1490229475274,-4,33,55,-21,12,12,-30,29,80,62,-14,15,17,8,17,-38
1490229475323,13,38,-29,-36,19,-3,-54,89,62,93,-66,27,-3,10,9,-69
1490229475420,-76,-29,-99,-35,-47,-25,11,11,-37,-2,-69,-44,25,17,-11,23
1490229475421,107,86,12,46,20,8,-27,-35,-13,-90,66,11,37,34,31,41
1490229475422,-13,84,79,127,36,17,1,38,51,-42,46,31,-12,-27,22,-6
1490229475469,-36,-51,-12,5,23,29,29,12,-27,97,8,7,-34,-22,-34,-26
1490229475518,74,-3,45,79,2,-16,-20,-13,46,-3,-38,-79,-26,5,-3,41
1490229475566,-116,15,-72,-32,10,2,23,-39,120,110,43,58,-17,2,-18,66
1490229475569,68,17,51,-4,-1,-2,42,28,76,-39,-79,20,-9,-16,-43,24
1490229475616,89,100,7,51,-1,-13,22,83,87,-61,-45,-47,13,7,-19,15
1490229475664,13,25,-57,37,-6,-7,-12,-50,-16,-25,-73,-82,-2,10,0,0
1490229475713,50,46,103,87,3,-6,1,58,31,30,44,49,27,22,65,7
1490229475766,-76,48,27,-8,7,0,34,12,-68,-80,35,63,8,-12,-24,-67
1490229475810,112,80,-6,9,39,27,11,37,-128,-85,-51,-22,-29,-23,-34,-57
1490229475812,89,24,-65,-39,19,-9,-59,-47,-81,40,-29,-33,-17,7,39,21
1490229475859,-51,-14,-3,10,10,10,5,-5,31,-25,80,45,-16,-13,-51,-13
1490229475908,-34,114,32,59,10,7,30,48,25,-113,-63,-41,10,5,-77,-51
1490229475957,-80,-23,50,22,5,2,11,-89,37,8,-2,-29,-30,-19,-28,127
1490229476006,-75,-51,69,13,-2,-3,3,-10,-18,-80,-68,-56,-31,-9,14,-52
1490229476054,31,11,-15,-8,-15,12,46,-38,-118,-89,-33,-13,16,-22,3,-11
1490229476057,127,88,-17,-35,-22,-13,-3,52,-6,58,85,124,58,2,44,91
1490229476103,115,53,-42,3,1,-9,28,30,-128,-97,-72,-20,-41,-14,-55,-39
1490229476152,-48,74,64,92,28,12,-13,32,40,-27,-18,7,12,19,32,3
1490229476201,88,24,23,27,-27,-27,-15,50,-97,97,127,110,75,33,55,-41
1490229476249,-12,13,36,56,22,-6,0,30,98,127,116,73,24,20,12,33
1490229476250,-73,-89,-99,-103,-50,-18,39,-98,15,15,17,13,-32,-24,-86,-17
1490229476299,61,93,73,1,-5,15,-12,-21,-15,-113,16,-46,-36,-18,9,44
1490229476348,-128,-123,-78,63,-10,-27,-35,-64,-63,41,34,-91,-32,13,11,-37
1490229476396,-93,-73,127,127,73,44,62,-23,-8,116,-49,42,2,-15,-48,45
1490229476445,127,104,-94,-93,-7,-18,-28,56,-89,-91,-75,-82,-54,-15,-22,-59
1490229476493,23,-82,16,25,37,17,18,33,-55,57,92,76,9,1,-58,-33
1490229476495,-55,86,-70,56,18,15,50,32,-95,-73,-46,-68,-23,-15,-1,-71
1490229476542,25,-50,-27,-45,-23,12,15,-47,-75,-82,-128,-103,-44,-21,-59,-91
1490229476591,-40,7,73,60,-12,2,-8,-37,-37,-36,-40,-63,-32,-9,4,-70
1490229476640,-53,59,-62,-89,-13,-13,-43,-26,41,61,116,86,18,10,-33,35
1490229476688,-28,-11,98,80,15,8,-32,-3,110,56,-101,-6,-27,-11,4,51
1490229476736,127,89,69,34,1,14,8,70,-6,-38,5,-7,27,18,5,-41
1490229476737,76,44,88,86,-2,-8,-13,-19,-47,-11,112,73,45,-2,-28,-29
1490229476785,-95,-21,40,34,74,15,19,-33,-12,-6,69,61,-27,-8,-21,-12
1490229476835,-68,-81,-128,-11,-26,-19,-31,26,-89,-118,91,-10,8,12,49,2
1490229476883,-105,-57,-12,-49,-77,-15,-17,-40,48,23,8,47,32,0,-14,-16
1490229476931,-55,-7,25,-2,-2,-7,9,-58,-34,-51,64,104,-3,-9,26,23
1490229476933,-11,83,20,38,51,15,-13,-21,48,-77,-54,-123,-16,1,36,-10
1490229476981,38,72,-20,-41,-30,0,37,32,0,54,109,77,17,1,-29,1
1490229477029,-86,-22,61,22,-8,-17,-1,-12,115,127,59,75,12,7,-4,73
1490229477078,68,-30,-81,-15,18,-4,22,10,-59,-53,-26,-68,-36,-23,-14,18
1490229477127,33,-12,86,-9,6,-14,-19,-20,-44,92,-58,-6,4,26,-2,-30
1490229477177,93,63,54,44,11,10,70,33,-70,-67,39,43,2,-24,-103,-109
1490229477179,37,-15,55,-36,-24,13,-40,18,-20,15,69,57,29,-1,30,-33
1490229477225,-35,-116,43,34,27,15,30,-57,-76,-74,-48,-12,-8,-36,0,40
1490229477273,-35,44,44,51,9,-5,-4,-42,-6,49,42,33,6,19,28,50
1490229477322,18,41,118,29,-37,-30,30,-62,115,22,68,9,9,12,-71,58
1490229477370,-32,-75,-15,5,-17,-15,-69,-68,99,48,74,33,5,-12,2,92
1490229477372,70,125,65,37,24,17,-23,-4,-36,-52,71,112,82,2,44,28
1490229477419,-86,-61,-82,23,16,27,-16,-9,127,102,-28,-111,-56,-5,-7,52
1490229477468,38,65,31,6,56,13,55,-6,-34,66,4,30,12,-8,-51,-18
1490229477565,106,109,53,103,36,19,33,108,-111,66,40,-31,-28,-20,-46,-101
1490229477568,-107,-104,-120,-115,-22,-12,-25,-50,-27,-91,25,35,-28,-13,25,1
1490229477614,-103,-111,-34,-8,-39,-23,-32,-124,-47,31,-41,-85,-13,2,39,26
1490229477617,67,20,27,-49,-21,5,4,50,-101,7,44,47,10,-9,-49,-118
1490229477663,33,127,127,127,43,40,91,27,86,-40,46,90,57,5,-16,-54
1490229477713,3,-96,-16,-17,23,-2,-62,-14,-128,9,-51,60,-9,-5,27,-17
1490229477762,-92,-111,-87,-66,-18,2,-47,-57,127,71,-90,-101,-40,-29,4,-58
1490229477809,-18,-77,-89,-82,-64,-38,-26,-68,4,-32,13,-86,-32,10,-24,30
1490229477906,88,10,-4,115,34,-1,19,33,103,81,-122,-31,37,28,49,-22
1490229477908,-69,-43,26,-13,-24,3,4,53,108,127,-19,14,-7,-9,-59,37
1490229477910,-67,9,15,-29,-16,-38,52,-53,42,101,63,75,23,12,-75,-9
1490229477956,-84,39,13,-15,-4,23,36,-62,9,24,-86,-50,21,0,-17,15
1490229478004,74,59,-47,-18,-24,-9,-19,-38,-66,-63,-80,-51,-12,-13,-34,22
1490229478052,5,47,127,66,19,-5,10,26,-4,92,14,35,28,20,62,70
1490229478053,7,0,80,25,-16,12,30,15,55,73,-105,-73,0,14,-7,34
1490229478102,-45,-58,65,38,-1,-16,-33,-4,9,-111,-93,-41,-17,18,58,76
1490229478151,-102,7,64,69,47,6,13,-15,2,90,60,89,48,33,-19,-43
1490229478199,19,-78,-14,54,-9,-28,-23,-54,-49,82,57,26,7,1,-37,-52
1490229478248,51,53,-119,-56,-54,-35,-51,-45,-128,-118,-48,-50,21,-8,23,-19
1490229478296,83,115,60,24,10,3,56,72,-74,-128,-128,-88,-18,6,-20,9
1490229478303,-106,-128,25,8,16,15,36,-49,105,98,-9,98,4,7,7,91
1490229478346,-86,-6,16,-65,3,-6,29,-36,20,0,0,67,6,1,-3,-22
1490229478394,-50,-21,-128,-90,-49,-20,12,-37,-3,72,71,-63,-22,-34,-36,-31
1490229478443,47,26,-4,46,-25,0,-44,79,-44,-38,39,-65,5,5,-13,-113
1490229478492,127,96,75,90,58,38,72,62,45,-38,27,46,35,28,50,127
1490229478540,-128,-123,17,48,21,0,77,6,42,86,127,61,19,14,17,-4
1490229478544,53,104,-33,-49,14,3,-22,-86,-55,-47,28,-17,1,-10,-21,47
1490229478589,28,27,113,80,36,19,27,23,21,86,21,21,9,-9,-9,8
1490229478638,127,115,127,27,-1,-1,1,40,-66,12,-67,127,14,-20,47,2
1490229478687,40,17,69,21,41,31,-11,45,59,51,105,106,52,-11,-15,-21
1490229478735,-5,-61,-21,-4,10,7,-54,-63,-19,54,35,4,6,13,26,2
1490229478738,66,59,104,17,3,-1,-11,23,91,100,104,111,27,10,-7,35
1490229478784,56,70,46,80,16,-13,-99,-73,-88,17,-45,-71,-2,-6,25,-54
1490229478835,-42,-74,-105,-68,-51,-21,6,3,-49,72,3,29,-20,-11,7,-40
1490229478882,78,-62,-45,5,17,1,0,-23,33,33,4,-89,-13,-5,-51,43
1490229478931,127,127,87,12,-26,2,58,69,-128,-110,-128,-68,-27,-34,-83,-98
1490229478979,35,-14,36,64,14,-7,-43,40,30,-37,18,22,-11,5,63,-32
1490229478982,-104,27,2,23,0,-11,58,51,127,127,127,127,64,40,0,-67
1490229479028,-117,-116,-110,-110,-62,-32,-9,-56,10,62,111,82,-47,-23,2,20
1490229479079,6,-33,-9,-71,-14,2,-25,50,5,-83,-66,-36,-10,-21,-14,-5
1490229479126,-35,74,72,50,29,21,-2,-2,95,-8,79,19,28,9,-23,25
1490229479223,16,-32,-39,15,0,12,-49,-34,-7,-18,-39,-26,-42,-15,9,-15
1490229479226,-52,-40,-49,20,-22,-30,9,-68,8,8,127,80,37,31,61,-12
1490229479228,89,52,9,-83,21,5,-15,6,-29,-35,-117,-47,-16,-25,33,22
1490229479273,123,127,56,127,67,7,7,98,-115,-128,47,-86,14,28,34,-2
1490229479320,41,43,45,69,10,27,60,64,-72,-83,-95,-82,-17,3,-28,-51
1490229479417,-128,-82,98,93,22,20,-25,-96,24,33,35,7,38,13,42,38
1490229479419,-61,39,88,36,3,-1,12,37,101,77,36,75,9,9,-33,-25
1490229479424,-103,-33,-57,-71,-5,0,-113,-62,31,72,91,70,6,-23,27,50
1490229479467,54,-9,-90,-54,-21,-20,-74,7,-92,-92,24,31,12,11,-1,-49
1490229479516,-78,-80,13,-4,14,8,20,-32,-16,-33,-108,-55,-32,-10,2,2
1490229479564,-70,-24,26,82,18,5,38,-77,35,-106,-99,-34,2,39,25,52
1490229479613,75,118,89,34,18,41,47,117,-15,-42,26,1,5,-6,28,1
1490229479661,19,-101,-128,-108,-23,-15,-9,-10,-62,-21,41,-77,-50,-27,4,40
1490229479663,62,89,69,76,43,40,24,64,-35,-69,-45,-5,-11,-27,-3,-77
1490229479711,-12,44,10,-17,-31,13,42,20,-115,-75,-31,51,54,1,1,-12
1490229479760,65,95,42,-13,24,0,-6,-21,41,127,82,69,25,21,25,67
1490229479808,-1,-7,-38,-60,-47,-29,19,58,-16,-46,22,68,-2,-3,-57,-32
1490229479856,-96,-128,-97,-56,2,10,22,-24,107,48,-88,-85,-54,-22,-33,-25
1490229479857,72,127,127,127,73,10,10,-12,-24,-45,-11,25,6,1,-9,1
1490229479905,-19,-51,-74,-25,3,11,11,35,-100,29,-44,-40,-16,-9,-57,-85
1490229479954,16,-4,-17,53,25,-2,-12,54,64,-57,38,58,49,25,45,82
1490229480003,42,125,127,111,54,14,18,46,28,111,25,87,40,27,-9,-52
1490229480052,-128,-128,-86,-78,-55,12,-29,-98,95,104,-18,-53,-58,-22,8,39
1490229480100,46,8,20,3,-2,-22,-8,-28,-118,-117,21,-24,-5,-5,-51,-74
1490229480104,-48,-51,-18,-23,19,11,-15,43,90,74,28,-15,0,0,25,16
1490229480197,-42,-100,-72,-16,-27,-29,-101,-72,-74,-39,16,16,-1,9,44,-30
1490229480199,32,32,80,-31,-15,4,19,-16,21,59,37,70,-4,-7,-22,65
1490229480247,70,66,84,45,22,-2,2,25,11,-9,-123,-57,-21,0,-37,10
1490229480296,15,118,127,98,5,-6,0,-36,69,1,-121,40,28,10,2,96
1490229480344,15,-87,-95,-73,-60,-26,-3,-60,-30,91,59,-4,-3,20,-21,46
1490229480347,-89,-6,44,7,41,11,79,2,16,-8,-58,-18,4,2,10,1
1490229480393,21,-15,11,70,20,7,-19,13,9,28,37,24,41,2,37,-39
1490229480442,12,40,29,4,-12,-2,-14,17,127,-39,-36,12,0,0,-46,-30
1490229480538,20,93,-2,-34,-9,1,57,41,-86,78,-47,93,-7,-18,-6,35
1490229480540,90,14,-2,24,-11,3,-32,68,8,-19,-19,-13,5,9,5,-55
1490229480542,39,-13,57,25,-38,-34,-120,-67,5,-64,53,16,-1,9,6,-3
1490229480588,-105,-87,-105,-91,-66,-18,-52,-44,-70,-8,37,-46,28,18,38,5
1490229480637,44,2,-53,-49,-44,-29,-65,-35,-128,64,62,81,-12,-2,14,-73
1490229480686,-39,-65,-58,-52,2,-14,-62,8,-89,-15,-128,-128,-68,-21,-56,-79
1490229480735,18,-3,43,127,30,2,42,-5,-42,-80,-85,-110,-20,12,-18,43
1490229480783,22,28,-19,44,-7,3,45,60,77,32,35,48,27,3,8,26
1490229480785,-26,-73,75,-47,-12,27,5,-29,33,67,13,35,17,3,43,31
1490229480832,-69,32,23,-84,-42,-21,7,-33,-65,-120,24,2,-8,-4,-21,-76
1490229480881,85,46,-80,66,39,11,-13,-9,-77,-128,-128,-128,-58,-21,-15,-2
1490229480929,0,-77,-13,-12,-27,-20,-67,24,51,-36,-128,-115,-35,-1,-27,-42
1490229480978,-112,4,-25,1,-38,-26,-43,-123,60,50,-11,14,-22,-23,-113,33
1490229481026,32,35,72,78,50,18,34,18,10,127,127,121,38,9,51,42
1490229481028,-1,-44,-85,-27,-12,-22,-62,-81,-65,-74,-115,-68,-45,-11,10,0
1490229481075,-56,-34,2,67,6,-14,-34,3,20,-34,-71,-63,-48,10,22,-2
1490229481124,-37,-101,-24,19,55,-2,-15,-27,-55,44,91,16,-27,-13,36,-6
1490229481173,-96,-63,66,43,9,5,-39,2,101,36,-124,-19,-4,8,77,-2
1490229481221,-27,82,40,77,36,40,51,-19,57,-48,-128,-37,-4,-19,-49,-12
1490229481222,-109,-86,18,127,16,1,27,33,-46,24,-28,-56,-31,-15,-25,-21
1490229481271,-93,-77,15,8,-5,-13,28,-43,104,100,-11,-61,-23,11,5,61
1490229481320,37,-18,-71,-41,7,-29,-46,-64,-64,-81,-128,-94,-21,-2,0,-29
1490229481368,-9,-40,126,-4,9,-24,-10,-5,9,17,-104,-67,0,1,-1,1
1490229481417,-26,-4,-122,-104,-37,-12,-18,-20,-41,-35,65,-43,-57,-41,12,-28
1490229481465,1,-11,-66,-26,-5,-8,-21,-20,62,30,26,60,-1,-14,-25,10
1490229481468,58,64,77,17,14,6,-50,-2,27,53,-29,-9,-17,1,-18,-14
1490229481515,-115,-79,-88,-81,-36,-23,-10,-77,23,-19,-9,-9,-49,8,-4,51
1490229481563,-57,-36,-128,-113,-33,-13,-14,-12,-48,-35,112,69,4,-20,-36,-27
1490229481612,78,-2,-96,-55,25,62,24,25,100,-69,31,-46,-29,-25,-17,13
1490229481660,64,-23,-55,-46,12,-8,-5,-8,92,8,47,6,-3,9,23,60
1490229481708,-116,11,96,95,50,6,12,-22,-63,-20,-69,15,2,8,-16,15
1490229481711,-12,41,127,90,58,26,-10,-15,91,116,-51,77,8,12,21,83
1490229481758,-128,-76,44,66,10,-12,-45,-75,102,54,-9,-7,28,4,16,32
1490229481807,-19,54,-114,-123,-67,-19,-33,-27,-101,-128,-84,-40,-46,-20,0,-45
1490229481856,-79,-99,-32,-68,-39,-6,40,9,127,115,38,58,3,-33,-10,29
1490229481904,-104,-56,42,78,47,18,-60,-50,-48,35,77,51,26,13,63,54
1490229481908,127,127,106,127,64,30,28,86,-37,-102,-108,-76,-57,-29,-84,-12
1490229481953,-55,-89,-85,-89,-23,-13,3,3,-8,-38,-103,-92,-25,42,38,51
1490229482002,-32,-71,-48,-15,13,-16,-10,-48,-16,-34,-2,19,-10,-27,-81,-1
1490229482051,109,43,67,97,21,-4,-15,15,-107,101,127,127,84,42,108,56
1490229482099,55,51,-128,-9,-23,2,9,30,15,-52,43,-6,-27,-23,-32,49
1490229482147,-6,54,79,46,30,22,-2,86,-34,-27,-18,86,19,-4,-15,-34
1490229482149,-42,-33,14,54,46,10,47,34,-40,34,-22,-46,-5,8,36,-71
1490229482197,84,28,-60,29,10,10,11,35,3,-33,15,19,-11,2,4,-10
1490229482245,-70,-60,50,112,21,1,-6,-98,117,72,-121,-99,-12,-42,-2,82
1490229482295,-33,81,127,85,21,-2,-12,2,-61,3,87,41,-9,18,-50,-61
1490229482343,-54,-117,-34,-58,-12,10,-49,-5,-2,39,56,40,21,12,51,33
1490229482391,93,-63,-65,-85,-61,-32,-24,1,-42,-108,-88,-40,-23,16,15,51
1490229482393,19,-23,-128,-128,-14,-35,-67,-77,6,-40,92,76,-7,-23,-48,5
1490229482440,123,127,127,78,17,-7,-19,26,-58,-30,-21,74,22,24,29,-88
1490229482489,-128,-76,-55,-43,-84,-33,-15,-18,61,22,88,80,45,15,18,2
1490229482538,56,61,37,72,31,11,12,6,-69,114,5,-21,-1,25,-20,-90
1490229482586,15,12,50,-22,-10,25,-33,34,-62,-61,-128,-123,-56,-32,9,-43
1490229482588,37,2,-88,-9,5,-3,9,33,-3,-13,117,17,-6,-1,-29,-42
1490229482636,-20,83,32,6,-5,7,37,-44,95,90,97,107,76,53,17,61
1490229482684,12,51,51,55,22,3,19,-36,-30,-48,-2,84,10,3,1,-34
1490229482733,-109,-33,85,39,15,10,-3,-47,99,47,-68,-18,6,14,25,72
1490229482782,-62,35,79,-4,0,17,5,-7,47,-15,-13,-61,-10,-21,-47,-61
1490229482830,6,37,97,104,74,17,-31,-108,18,97,70,79,23,29,78,127
1490229482832,-125,-75,-104,-26,-30,3,-10,-2,86,88,56,63,20,4,27,5
1490229482879,-110,-92,67,63,51,-4,-43,-55,54,84,-32,-38,-17,-18,-35,38
1490229482928,74,33,15,22,27,32,58,46,12,24,21,31,-5,4,3,-33
1490229482977,-53,-37,-47,-17,-3,-15,-50,-47,14,24,-14,-88,-8,-19,31,-86
1490229483025,105,106,1,-65,14,36,13,77,-128,-94,-39,56,10,-12,11,-102
1490229483026,33,40,-10,113,21,1,-54,-39,22,47,87,56,51,34,52,59
1490229483074,-6,-43,-128,-103,-64,-46,-44,73,-62,-107,-120,-82,-57,-2,-39,-63
1490229483123,59,51,-103,-49,-35,-18,9,-51,-111,-104,-27,-110,-44,-20,-28,47
1490229483172,22,-57,63,57,6,1,13,29,-24,51,20,-13,30,19,5,6
1490229483220,69,10,72,-68,-42,-33,-78,43,74,116,94,119,32,29,106,-12
1490229483269,-45,-61,-116,-110,-59,-23,-21,-112,6,-33,30,18,14,7,-7,32
1490229483270,118,117,74,-1,27,-15,-43,13,-9,-81,-59,64,12,13,-2,-25
1490229483318,-20,-10,-25,40,40,8,24,-49,66,17,47,-31,-7,-13,-6,24
1490229483367,127,119,43,76,26,32,1,127,-90,78,127,106,48,33,55,-16
1490229483415,91,101,81,90,26,16,17,5,-20,-37,-36,0,24,1,7,-3
1490229483464,-64,-117,2,83,23,12,22,-39,-115,-47,-97,-87,-14,-24,-65,-80
1490229483513,10,-49,-61,-18,-16,-13,-10,-41,16,41,72,33,40,30,18,107
1490229483516,56,86,16,-26,18,-9,-28,72,53,-19,-58,-22,-7,25,37,-2
1490229483562,84,-3,44,18,29,23,-5,-22,14,20,79,91,5,-10,12,4
1490229483611,-82,11,-24,-110,-21,-16,30,-13,28,79,74,71,1,-13,0,-5
1490229483659,-61,49,74,64,18,-34,7,-39,-60,-9,8,98,12,36,12,16
1490229483707,-78,113,100,127,42,22,-3,73,36,-50,-111,-108,-37,-6,-2,6
1490229483709,-42,-71,-89,21,-18,-14,-12,59,-127,105,127,34,44,9,61,-3
1490229483757,101,-21,-107,-101,-22,-7,-9,54,36,78,85,49,17,-7,-4,10
1490229483806,-120,18,54,18,-22,-5,47,-77,-18,5,41,84,6,-15,-21,-86
1490229483854,-54,-54,113,72,16,-21,-16,-77,-5,20,38,58,53,32,-4,2
1490229483903,39,-63,52,41,56,38,-11,41,105,115,117,36,19,5,21,-64
1490229483951,121,30,71,-16,-4,-12,21,-36,11,20,20,61,26,8,4,102
1490229483954,5,0,-128,-128,-29,6,-61,-17,62,32,49,-21,-35,-20,31,33
1490229484001,30,68,-116,-61,-37,-39,-42,-69,-101,-107,48,56,13,8,8,31
1490229484049,-94,-9,45,28,19,14,23,-39,18,73,44,36,22,19,19,50
1490229484099,107,16,127,127,4,14,19,101,-120,-3,-115,-72,35,33,-26,-70
1490229484147,53,81,84,89,20,32,33,-2,-121,-48,-77,-18,-7,-12,-12,-17
1490229484196,-76,-35,-7,61,-9,-28,-79,-68,96,64,101,18,27,14,14,35
1490229484204,20,-71,-112,-37,-9,-1,13,38,-17,11,-93,-25,-20,-13,-14,-65
1490229484244,-94,-7,-37,18,20,-12,-24,-55,33,-50,-41,-106,-54,-7,-8,-9
1490229484293,86,-49,-35,66,8,8,4,70,0,-33,-122,-108,-50,-17,-24,-6
1490229484342,-29,-63,-88,-47,-9,13,-10,-56,67,-48,-41,-104,-57,-7,-11,57
1490229484390,59,110,-1,-28,-8,11,-26,39,-1,-17,-92,-62,-17,2,-4,7
1490229484392,-8,-38,111,64,-16,-26,19,-27,-75,75,65,120,65,24,-7,-14
1490229484439,127,69,-38,14,-7,-29,-43,-7,-128,-128,-128,-128,-45,-16,30,-40
1490229484488,-45,7,77,-11,-3,10,33,19,74,56,-22,6,-5,21,65,65
1490229484537,72,52,14,60,43,8,58,-7,-53,13,-18,36,-1,-23,-75,-36
1490229484586,25,24,14,64,-34,-24,-53,40,-49,29,-72,-74,-9,6,41,24
1490229484634,22,-49,-40,54,-6,-3,-32,-24,-32,-76,-63,-79,-4,-21,-60,-48
1490229484637,10,-28,64,-6,27,-2,13,-32,-35,89,61,-41,-22,9,39,10
1490229484683,-95,-28,-128,2,-17,-6,-12,-45,127,-68,-31,-44,-2,30,-13,42
1490229484732,-3,90,111,48,12,24,-14,-14,4,-58,89,38,18,-24,-18,-30
1490229484781,88,-26,21,-15,-20,-4,-35,55,24,116,127,127,58,12,25,6
1490229484829,-25,11,-11,-1,-5,4,-17,4,-82,-128,-112,-48,-36,-12,-15,5
1490229484877,-83,-60,-128,-34,1,-7,37,-25,91,76,75,25,7,18,-27,3
1490229484880,103,-13,20,3,-11,7,48,15,-75,28,127,90,29,-5,-51,-19
1490229484927,95,-25,12,22,0,7,-4,44,-87,72,16,63,51,14,-21,73
1490229484976,81,-3,-97,-106,-69,-10,65,108,-12,-46,-69,-87,4,0,-17,-28
1490229485025,66,107,39,82,36,3,-14,15,-128,-97,-104,-27,-12,17,77,-74
1490229485072,20,-84,-125,-120,-87,-59,-56,-93,-79,-39,-94,-66,-39,-5,-36,45
1490229485074,6,53,-94,-79,-25,-12,-112,37,-115,-32,31,51,5,5,90,-47
1490229485122,-54,-98,-56,-22,-21,-16,4,-42,27,39,104,105,-1,-4,5,14
1490229485170,-2,-43,2,27,30,-14,-6,13,96,-7,-9,-16,-7,-13,-82,-19
1490229485219,-53,-25,-33,-11,-19,-6,17,30,121,-64,-96,-120,-27,-17,0,47
1490229485268,-8,-56,-30,19,-22,-18,-36,-2,12,127,127,22,-4,-9,-5,13
1490229485316,6,90,34,55,39,-2,-53,-4,53,-128,-127,-108,-23,-7,23,5
1490229485318,-21,-116,-128,-48,-44,-23,50,-46,-59,-60,-17,-68,-42,-14,-27,45
1490229485414,15,106,115,79,12,11,36,-2,-91,22,-6,127,86,38,-6,-34
1490229485416,48,49,40,-44,7,11,5,50,81,74,29,27,-14,3,36,8
1490229485463,15,-13,26,118,55,6,41,55,-111,-48,18,-98,-5,-7,-20,-105
1490229485511,24,-54,98,103,2,-6,-12,-14,35,65,26,51,4,20,-17,6
1490229485512,-47,-97,-108,-52,-8,-16,27,-29,-63,80,-51,-79,-26,7,-14,-45
1490229485560,-68,-21,0,17,8,-5,-38,-7,-56,-70,-76,-88,-52,3,46,-33
1490229485609,58,34,32,-4,-31,-16,-82,-40,25,82,108,109,52,11,29,51
1490229485658,127,114,106,94,34,8,22,32,16,-20,-70,-35,40,26,17,57
1490229485707,42,-87,-105,-123,-62,-32,19,-62,26,17,1,-31,-37,-25,-46,-37
1490229485755,-82,-64,-96,-71,-6,5,15,47,-42,20,-20,37,27,6,66,-6
1490229485756,-128,-74,8,-50,-37,-25,2,-89,-15,44,78,111,67,21,-8,-4
1490229485804,102,41,-21,2,-4,-8,-50,19,-92,-55,-80,-92,-50,-45,-10,-83
1490229485853,0,-113,-27,-61,-24,3,5,-7,-86,5,95,82,6,-11,-26,-112
1490229485902,-90,10,-25,8,0,-3,26,-19,85,127,127,110,29,6,-90,66
1490229485950,-46,-73,-101,-61,-26,-11,-42,-72,-64,-3,-128,-98,-56,-30,64,26
1490229485998,37,-73,-82,-76,-56,-25,-24,-5,78,51,0,-17,-26,11,22,-66
1490229486000,46,104,108,57,51,-6,51,51,12,-15,-91,-29,-18,-35,-62,-19
1490229486048,22,92,125,120,42,-3,26,-44,63,85,-7,117,71,56,14,-6
1490229486097,91,18,-29,-3,15,5,10,26,48,47,96,35,-29,1,-27,101
1490229486146,-62,-45,-4,-17,14,13,-5,-20,48,-72,-36,-11,14,-17,21,-21
1490229486194,35,83,109,36,-2,0,48,41,-63,-54,55,65,37,6,-65,-25
1490229486197,54,-30,127,22,13,11,53,88,25,97,-22,29,10,-4,47,-11
1490229486243,81,44,58,-1,9,39,12,0,-114,-128,-106,-12,-11,1,1,-1
1490229486292,35,-70,-128,-110,-56,-14,-33,-6,-1,11,2,-27,-14,-17,-70,9
1490229486340,-30,-105,-126,33,-34,-30,-15,-45,92,70,77,6,22,19,25,16
1490229486389,-24,96,-15,-111,-40,-20,-11,-119,98,-13,24,39,2,-16,-37,71
1490229486437,-28,-94,102,127,16,-16,6,36,-114,98,96,96,62,9,27,-61
1490229486439,74,53,-33,34,24,-26,-64,-24,101,-64,-128,-128,-29,30,24,49
1490229486487,42,77,8,102,-15,-19,6,-32,-45,-89,63,3,22,16,15,26
1490229486535,115,68,107,46,49,38,-15,83,-99,-62,127,127,39,46,70,-5
1490229486584,1,46,39,65,20,29,57,63,-40,81,57,-26,-11,-30,-61,0
1490229486634,6,-128,32,-75,-22,1,-10,67,-73,97,121,109,89,18,31,-71
1490229486681,-24,45,-55,-79,-41,-25,3,-4,52,-6,-128,-128,-37,-13,-66,30
1490229486683,93,46,14,63,21,15,3,53,-122,-37,27,-37,25,10,-27,-111
1490229486731,-116,97,26,92,37,6,-31,11,81,-84,-64,-21,3,-15,83,29
1490229486779,41,13,75,110,63,0,-44,-24,48,76,52,-51,-25,23,-2,41
1490229486828,-71,-104,-104,-5,-30,-17,-36,-64,6,71,127,76,41,20,45,9
1490229486876,-2,127,103,52,-7,9,5,13,61,32,14,15,30,-14,-1,-31
1490229486878,127,40,-114,-62,13,9,27,82,-121,-83,-19,-8,4,5,13,-3
1490229486926,119,58,73,102,39,-10,-10,24,-27,10,3,-15,-6,-5,32,-41
1490229486974,26,-18,-29,-32,32,43,21,-6,-29,105,91,114,29,-21,-49,34
1490229487023,16,123,80,95,-25,-30,-62,14,3,-14,-28,1,28,24,84,114
1490229487072,78,88,102,84,24,24,7,-22,-89,-38,-128,-83,-27,-45,-31,-33
1490229487120,-1,84,-48,-9,22,-3,-5,-112,7,23,69,127,-27,7,-8,127
1490229487122,84,10,7,-9,0,-17,42,2,-13,21,43,-57,-32,-23,-40,5
1490229487169,-23,85,88,45,36,30,21,-57,-82,-121,-69,37,18,3,-5,-29
1490229487218,67,44,41,67,15,-1,-12,3,-81,-63,-74,25,-31,-12,-16,-75
1490229487267,-79,-56,-100,74,-2,-32,39,-75,92,71,-84,-128,-19,16,-52,39
1490229487316,48,-99,-128,-128,-74,-2,50,-51,18,-43,-1,31,-41,-13,36,-7
1490229487365,-3,-49,-68,-72,-36,1,-34,-24,127,119,-7,-26,12,18,20,63
1490229487367,-75,15,-2,-8,-33,22,77,33,15,-40,-72,-107,12,0,10,52
1490229487413,-98,-10,102,46,-14,-43,-64,-56,-83,-34,-67,32,9,15,49,-73
1490229487462,-54,111,107,104,60,27,38,-31,-45,-124,-59,-1,-33,-9,-4,-1
1490229487511,22,78,-105,7,-10,-1,8,13,51,105,127,44,28,11,9,36
1490229487559,-120,-66,73,61,48,1,0,16,30,30,100,68,0,12,84,-25
1490229487561,-52,-43,-11,45,21,21,48,4,57,56,44,-44,12,15,25,-56
1490229487608,127,5,104,62,-14,-25,-43,77,-53,42,-128,-74,13,19,2,49
1490229487657,-13,111,46,-25,-40,-28,-21,-85,26,4,67,44,21,2,-31,-16
1490229487705,46,50,-41,-7,3,-31,-65,33,-77,-6,36,44,18,-3,-2,-51
1490229487754,0,-85,-97,-60,6,22,21,-58,85,20,40,-37,-37,-6,-41,27
1490229487802,-38,-40,-117,-8,36,14,5,-73,110,16,-105,-80,-37,18,42,93
1490229487804,-20,-14,-33,-18,-11,-8,-31,-66,-14,97,-58,-63,-29,-55,-13,-39
1490229487852,28,-96,38,24,-15,-18,56,8,31,68,76,104,29,29,6,-10
1490229487900,37,121,33,-32,-21,-25,-66,-47,118,-78,-8,40,24,6,60,3
1490229487949,-8,-78,-114,-94,-23,-5,34,-2,61,9,7,-111,-18,-12,-39,7
1490229487997,39,87,103,127,30,25,-6,81,-121,-59,-106,43,31,11,-3,-94
1490229487999,-27,22,7,-96,-68,-24,-49,9,-115,-17,-69,48,27,14,57,-22
1490229488047,-91,-73,81,84,11,13,-11,32,-70,70,-128,-86,-22,-8,-47,-128
1490229488095,-87,-26,28,11,7,-12,-56,-68,118,94,112,52,-6,-1,18,95
1490229488144,65,95,58,80,24,2,70,106,-126,-104,-100,4,-30,11,3,-87
1490229488193,-23,-101,-101,-27,-63,-26,-78,-44,74,36,-46,-71,-19,4,32,24
1490229488241,-43,-93,31,7,-3,-21,23,-111,36,96,105,69,51,9,-40,-14
1490229488242,-69,49,-89,61,34,-16,-20,-42,-104,-114,-98,-95,-40,-17,-34,-61
1490229488291,-22,0,-77,-79,-62,-14,-23,-3,66,17,-107,-80,-8,15,-22,46
1490229488339,108,107,127,79,52,25,27,41,-28,16,-6,33,34,15,5,84
1490229488388,113,-60,-120,27,8,-5,-39,-49,36,119,-82,-24,-41,-30,4,32
1490229488437,74,-72,8,-4,41,28,-25,23,60,74,127,36,26,31,41,-4
1490229488485,102,87,-4,-92,-57,13,-18,67,-125,-128,-78,-59,15,6,-23,-60
1490229488488,-16,-49,12,0,23,-8,-54,-5,1,92,-16,127,7,-21,47,35
1490229488535,2,36,83,-37,-23,-8,31,-69,33,43,-122,-61,-43,12,-3,20
1490229488631,-45,-48,47,-11,6,-17,-28,-56,26,-27,4,22,-18,6,24,15
1490229488635,-27,31,41,-71,-63,-19,-73,-90,86,71,56,92,38,-17,55,20
1490229488681,86,-79,-80,-38,-17,-35,-54,-54,-60,-50,71,31,15,-11,1,20
1490229488683,22,58,64,78,29,37,8,-27,-4,1,-28,-6,-17,-3,-21,-30
1490229488729,28,105,63,-42,-25,-5,4,85,-92,-128,-67,47,11,4,-4,-90
1490229488778,-34,-26,-11,-30,-38,-29,110,12,50,101,98,2,-24,7,-30,62
1490229488827,-25,117,36,67,37,7,51,-27,-9,9,-89,-76,-12,22,-10,-83
1490229488876,36,96,127,85,11,7,-21,-1,-36,-4,68,81,16,-10,11,42
1490229488924,-111,-74,-39,-18,-17,8,17,-46,64,84,28,-41,-37,-32,10,-31
1490229488927,-24,-19,-45,-49,-45,2,16,-28,-7,-3,-128,-103,-55,-2,29,68
1490229488973,-57,-28,82,69,53,30,-21,-20,72,86,41,41,26,10,66,67
1490229489022,-80,-61,-95,-21,22,-6,5,34,51,40,33,-29,-27,-10,-54,-61
1490229489070,-76,22,127,47,49,11,23,-23,68,-22,19,79,25,-4,-52,-39
1490229489119,-97,-1,-109,-89,-65,-52,-40,-30,-48,-76,-103,-82,-18,15,72,-43
1490229489167,110,26,-7,-70,-25,6,-32,41,71,94,79,64,19,-10,-11,35
1490229489170,10,-86,-93,-51,-48,-11,46,45,-14,-128,-115,-88,-50,-16,-5,-29
1490229489217,-67,28,61,-6,13,-11,-22,-55,48,-34,-128,-95,-42,-31,-37,8
1490229489266,-54,72,83,97,25,8,7,-23,-65,-10,-108,-16,25,16,51,37
1490229489315,-6,83,22,-6,72,29,3,63,19,-46,-60,-6,-21,1,28,35
1490229489362,36,81,10,-26,-37,-23,-19,19,-28,-128,-128,-92,-11,1,-46,-97
1490229489364,68,54,56,42,-1,-3,-4,-6,-25,61,-23,-10,16,1,-29,30
1490229489412,-117,-49,-124,-63,14,32,63,36,-85,-119,112,26,16,-12,70,-100
1490229489461,-11,-2,-87,-106,-32,-30,-64,-72,-55,-115,-128,-128,-65,-8,36,36
1490229489557,-51,46,29,-60,-128,-25,-95,-119,102,78,-4,42,104,40,7,48
1490229489558,127,127,101,127,60,7,19,64,-111,-10,91,73,-11,-1,33,11
1490229489606,93,-34,-128,-112,-22,-26,-51,-37,102,18,17,7,-30,15,-14,73
1490229489608,42,80,41,78,8,7,-16,69,-95,-86,88,-10,24,-19,-13,26
1490229489655,49,77,117,75,31,15,46,46,98,117,1,58,14,24,41,31
1490229489705,19,-71,-120,-107,-70,-17,24,32,127,85,84,23,11,-12,-36,-70
1490229489753,-52,-15,44,34,61,1,61,-50,-45,34,-47,-65,-58,-8,-49,-9
1490229489802,-128,73,-3,54,14,-13,-7,-55,34,85,107,85,53,28,75,21
1490229489851,69,-21,-128,-76,21,31,90,112,14,-19,-47,23,-6,16,19,-3
1490229489854,7,42,67,99,23,7,-23,-57,113,65,-29,-20,2,9,-44,58
1490229489899,-32,-84,-76,-77,-45,18,-25,63,-95,-80,-128,-105,-82,-38,7,-109
1490229489948,102,100,-30,-50,-50,4,-61,21,15,-9,61,38,42,8,19,-32
1490229489997,71,-3,-10,77,-14,-25,19,83,-36,42,114,19,19,2,-20,-51
1490229490045,-51,-84,86,45,36,11,-16,-51,-40,61,-69,-66,-17,4,0,-34
1490229490046,127,-16,-128,-128,-61,14,-10,40,-36,54,93,47,-7,17,-22,10
1490229490095,-25,5,15,-67,-57,-30,-36,-55,25,37,58,92,35,-27,3,-14
1490229490143,92,-15,21,-17,-7,2,26,75,-74,-97,-128,-97,-48,-27,-91,-98
1490229490192,8,73,-16,127,20,-8,-32,-15,-76,-115,-91,-117,-38,32,-19,-59
1490229490240,77,26,27,84,40,32,102,87,-105,-108,-65,-68,7,-14,-97,-116
1490229490289,46,61,86,-54,-30,-25,-48,-68,-20,-25,-60,83,65,31,40,7
1490229490292,-128,-88,11,-11,-26,-51,-45,-53,126,110,76,-23,8,28,59,34
1490229490338,-73,-18,-10,44,6,16,8,-103,0,-101,-82,-109,-91,-51,-46,-6
1490229490387,-122,-128,-128,-99,-53,-42,-23,-114,115,45,-24,-72,-26,12,-29,74
1490229490436,-63,62,40,-66,-8,20,-9,-65,16,-72,-65,-71,-8,9,-13,119
1490229490581,62,55,70,67,0,-1,12,7,-7,48,11,56,41,9,-26,-32
1490229490584,35,-93,-104,-101,-34,0,-100,-11,-108,-71,-128,-128,-69,-42,-30,-82
1490229490585,-76,-128,-126,-128,-83,-15,-41,-70,127,39,11,-85,-10,-12,7,99
1490229490586,78,-23,-100,-30,-3,-15,-37,57,-60,-88,-20,-79,-35,-17,12,-108
1490229490630,77,127,53,-2,-17,-6,27,-14,26,39,116,85,58,18,-12,46
1490229490679,-40,-14,-128,-10,1,-47,-21,-116,21,12,-75,-94,-45,12,-42,4
1490229490727,9,6,-37,-41,-48,-14,-44,-24,-64,-19,35,-92,8,-9,22,-24
1490229490731,53,44,6,-61,-35,-28,-27,12,67,34,119,74,-5,-32,-15,31
1490229490777,-87,-29,-87,-117,-53,-19,-10,-19,-14,-126,11,-80,-80,-58,-35,-50
1490229490826,-109,-69,-94,-124,-95,-24,-2,-79,45,73,42,18,32,63,-13,13
1490229490875,63,18,100,50,30,4,-6,46,59,-32,-78,-56,-20,-2,8,-32
1490229490923,127,35,127,127,109,62,75,76,112,108,127,127,70,29,23,66
1490229490976,-40,79,57,-38,-49,-9,-15,-18,-7,-43,115,50,35,-30,-36,33
1490229490980,77,16,-12,31,-11,-8,-30,55,40,89,13,10,30,33,110,39
1490229491020,-1,65,-16,14,45,11,24,-31,-1,-26,15,-24,-50,-9,-35,-28
1490229491069,38,61,-8,8,13,29,6,89,55,54,67,81,26,-15,-49,-48
1490229491118,80,91,127,35,15,23,-15,-5,3,-54,-91,67,31,-18,-10,-13
1490229491166,-95,-104,-79,-73,-5,26,-34,-2,-38,-2,106,-47,-30,-11,-37,31
1490229491167,55,15,-101,-12,6,-27,-49,-20,26,-47,-52,-56,-31,4,21,67
1490229491217,-44,81,93,-1,-1,36,101,-43,113,-39,-33,127,4,-40,-90,-50
1490229491264,-49,47,-101,-128,-34,-28,-66,-87,101,-15,-39,-24,-54,-2,44,3
1490229491313,-30,-1,-128,-128,-50,-48,-64,-36,13,98,22,-85,31,10,-16,-81
1490229491362,59,127,102,14,-63,-17,30,66,-56,-107,34,54,42,-18,-64,-85
1490229491410,62,29,35,82,45,0,15,111,63,37,-52,-45,-48,-26,-22,30
1490229491411,28,86,45,98,6,-6,16,-37,-75,-16,63,-17,12,8,-9,11
1490229491459,-123,-52,-23,-93,-59,-22,-30,-100,101,91,127,127,67,15,-29,91
1490229491508,-94,-65,78,-78,-39,-17,38,-46,7,-10,19,103,52,44,48,42
1490229491557,-115,-31,-109,-128,-68,-48,-48,-109,-31,-44,64,10,-16,-1,25,50
1490229491608,58,74,127,127,14,2,45,116,26,99,94,54,71,43,48,-35
1490229491654,-119,-128,-31,59,35,-2,-13,-81,49,127,65,46,0,32,34,18
1490229491656,109,-34,-108,-71,-79,3,15,41,-99,-4,-85,-48,25,-30,-11,-52
1490229491703,-85,-51,-101,-123,-37,-70,-77,2,127,70,111,50,52,71,-22,20
1490229491752,-6,-38,-53,30,15,34,2,-40,23,6,17,-43,-59,-21,23,37
1490229491800,-102,-93,41,-18,6,-7,-19,13,-17,49,127,127,49,5,-5,28
1490229491848,15,17,21,20,23,8,-6,-11,8,-16,-42,36,-43,20,-23,41
1490229491851,-128,-102,127,121,41,-27,56,27,127,127,90,72,66,47,79,127
1490229491898,-35,-54,-118,-81,-15,-1,7,14,40,-55,-75,-128,-8,22,-43,24
1490229491947,-61,42,39,-45,-17,-30,24,-62,33,113,77,127,60,-10,10,-63
1490229491996,34,21,27,-1,-11,-34,5,34,-13,-15,-2,40,-37,0,-19,26
1490229492044,50,121,60,35,-20,-13,-14,5,15,75,108,112,46,0,16,-2
1490229492092,-125,-101,106,-24,25,4,-34,-22,127,127,23,62,32,7,2,28
1490229492094,-74,61,-124,-26,-34,0,-8,-49,16,5,-47,-128,-64,-13,-11,-38
1490229492142,-86,65,127,40,9,31,10,29,51,-37,-115,-106,2,-35,-8,-89
1490229492190,91,-52,78,88,-8,-10,-30,8,-3,43,-75,55,101,68,6,76
1490229492239,-66,42,106,94,16,13,19,52,-15,-57,31,111,57,21,-66,-108
1490229492288,19,40,-12,70,50,24,40,1,-60,-128,-87,-55,-15,-72,-44,-43
1490229492336,-15,-122,-25,-120,-58,-9,70,-1,-71,127,124,115,7,-8,-34,10
1490229492338,59,61,56,22,-36,0,2,7,-29,41,127,86,81,34,38,-1
1490229492385,-1,-58,-33,-49,18,56,-7,49,-3,126,127,73,6,0,86,-10
1490229492434,119,-1,40,54,12,34,-5,42,105,-31,-4,25,18,1,-5,30
1490229492483,54,34,-43,-117,-33,-46,37,14,-45,59,30,34,14,30,94,3
1490229492531,79,14,-104,37,67,30,0,53,43,-66,-128,-55,-87,-42,0,-8
1490229492534,127,-3,-31,-29,6,-15,6,74,11,41,17,-25,-18,8,53,-7
1490229492581,-112,7,-51,-106,-21,15,5,-34,52,-20,-128,-70,-25,16,-13,10
1490229492629,-53,-73,-69,-55,-17,5,-37,-49,-128,-54,-81,-81,-27,2,-37,-55
1490229492680,65,-43,-25,44,-84,-29,-25,18,104,8,98,34,53,-8,-44,8
1490229492727,118,44,127,111,-7,-38,42,86,-46,24,-90,-30,17,22,20,-1
1490229492775,-22,-95,18,-128,-1,-8,-23,-7,66,30,40,16,-8,-19,-41,27
1490229492777,76,14,121,102,40,22,-8,57,-79,37,88,67,17,-1,-23,50
1490229492824,43,1,96,85,7,17,46,26,-12,-38,72,24,35,19,17,-29
1490229492873,-91,63,-66,-9,5,-13,-45,-70,60,-14,-128,-128,-86,-26,-27,50
1490229492922,127,-17,39,-73,-26,-20,-5,20,-121,29,-60,8,20,9,-29,-19
1490229492971,-36,26,-10,-46,-3,-10,-34,-38,67,84,115,62,30,17,34,91
1490229493068,51,93,127,72,3,-14,-24,26,24,40,-14,0,-22,-9,64,13
1490229493070,-106,-89,-92,-22,-19,21,25,-29,54,51,33,23,16,6,-19,-2
1490229493080,39,38,-77,-31,3,-27,-4,-3,-65,-36,-128,-128,-40,-2,-12,-11
1490229493117,-18,50,98,56,73,-31,-62,-76,65,28,37,74,20,36,-7,64
1490229493165,-124,9,71,23,64,13,75,-32,94,127,98,125,54,19,-19,46
1490229493214,-86,-31,22,43,-5,-1,26,-72,79,-80,-83,-35,11,-23,-24,32
1490229493217,10,14,45,60,10,-17,-48,-19,57,32,96,-17,19,4,-7,3
1490229493263,-93,-90,-92,-44,-36,-4,-21,-90,98,66,85,72,31,40,14,14
1490229493312,-128,0,-19,48,-15,-1,37,-5,-53,0,2,46,-1,-47,-28,-70
1490229493361,-19,5,17,-26,-7,-40,-43,-32,-8,24,-33,-61,-40,1,30,103
1490229493410,96,127,127,122,54,82,9,-20,-72,44,91,93,97,17,3,0
1490229493457,-40,-76,-56,-73,-56,4,92,39,114,107,58,87,59,26,19,-17
1490229493459,-73,95,-107,33,33,-28,-29,-63,81,-9,-127,-69,-62,-37,-24,-17
1490229493507,-24,-96,-79,-95,-15,-23,28,-11,-73,-63,14,66,-61,-51,-57,-23
1490229493555,94,115,48,64,-6,-10,-34,71,112,-106,-77,-80,10,38,37,11
1490229493604,112,65,60,102,-28,14,-4,9,-60,-59,-42,-29,67,-3,-14,14
1490229493652,-128,-122,-20,47,14,15,11,-46,25,60,127,65,-10,-12,40,-20
1490229493654,116,-62,-99,-97,-68,-27,26,87,-39,-5,-99,-36,-8,12,11,-3
1490229493701,65,127,-1,-83,22,24,-60,-17,92,13,92,72,5,17,93,102
1490229493750,50,103,22,82,15,-16,53,54,-60,-30,-118,-56,6,19,25,18
1490229493799,-30,-4,-3,-11,7,-17,22,-24,79,56,41,94,12,-52,-67,56
1490229493848,48,-40,11,86,10,-15,35,52,-23,-23,-64,-81,1,12,-64,12
1490229493896,-110,-70,-81,-98,-48,-10,72,45,78,-42,-23,-3,-13,-42,-40,-88
1490229493899,82,44,-128,-128,-76,-21,26,81,-65,-128,-61,-95,-35,-45,-17,-96
1490229493946,-30,38,-11,-44,-16,10,-28,-5,30,127,127,64,33,-36,5,37
1490229493994,45,8,7,-44,3,54,7,72,-42,-99,-15,-23,-43,-38,-19,-80
1490229494043,-102,-91,-71,-100,-92,-74,-74,-117,127,-7,-122,36,11,-3,25,23
1490229494092,-6,-63,-69,52,10,19,76,-36,-69,-45,21,-64,4,6,-89,-126
1490229494140,73,-7,-109,-63,-22,-39,-88,13,-42,49,103,-79,-36,-16,63,23
1490229494142,-90,-41,-37,-42,19,21,-58,-2,-62,-71,55,-48,-70,-29,-5,90
1490229494189,-115,87,127,70,18,31,-44,-94,67,127,63,122,70,53,60,43
1490229494238,91,99,121,-41,32,41,75,101,-61,-53,-12,-8,16,-5,-12,-46
1490229494287,99,81,23,33,-51,-88,-4,26,45,35,-51,-55,4,19,9,43
1490229494335,-93,-47,-109,-48,-47,12,-9,15,82,-67,-6,9,9,-2,-23,42
1490229494336,127,-2,-77,34,14,30,32,49,-93,-73,-128,-128,-51,-36,-76,-103
1490229494384,49,30,11,11,-40,12,-28,55,-69,-25,99,52,-53,1,101,73
1490229494433,20,60,127,72,57,35,30,91,-17,55,74,98,58,11,17,5
1490229494482,58,29,-81,-28,53,15,-63,-15,14,7,-2,20,-5,3,42,-12
1490229494530,-89,-48,-5,-3,7,-11,18,-26,40,-1,25,44,1,8,-51,-35
1490229494578,21,10,-87,-98,-51,3,-36,52,-25,-29,29,14,20,2,9,0
1490229494580,88,60,-51,-35,-35,24,9,75,-66,-90,-102,-27,-21,-5,-13,-54
1490229494628,21,6,-31,-62,-15,-18,48,-20,-15,-3,-14,10,2,-9,-42,2
1490229494677,99,22,-53,-60,-42,-17,6,6,-66,-27,-48,-25,-3,-7,42,-42
1490229494726,51,41,56,27,-2,-36,20,3,127,-54,-86,9,-17,8,-12,125
1490229494775,7,11,58,5,-31,-4,-75,2,63,49,-51,2,39,9,68,25
1490229494823,8,4,-105,-42,-26,0,37,34,3,-55,-63,-59,-44,3,-7,-31
1490229494825,20,7,5,46,23,-2,-34,16,-30,-17,-13,-5,-2,-1,5,-77
1490229494873,74,-9,46,1,5,-3,-17,40,-106,12,13,29,19,15,18,3
1490229494920,-15,28,20,41,63,30,20,38,-75,-41,-3,-9,-24,-31,-36,-89
1490229494969,2,-18,10,-8,-20,2,38,13,-1,33,33,11,11,0,-9,-15
1490229495017,-37,-6,21,28,23,39,-35,7,34,9,-3,17,4,3,9,18
1490229495018,-7,-10,-19,4,27,14,7,-1,85,6,-43,-37,-33,-20,-17,11
1490229495066,-88,-11,14,15,32,24,69,-22,90,10,2,-8,-15,0,-42,-6
