1491090285640,0,-19,-64,-78,-42,-28,-96,-53,-16
1491090285640,0,65,-54,-19,64,-18,13,-77,-50
1491090285642,1,16,69,46,3,-40,20,-3,16
1491090285642,1,10,24,51,37,16,-22,4,-13
1491090285642,2,67,21,23,-21,0,73,-4,3
1491090285642,2,-6,-8,-11,-42,28,-6,89,37
1491090285688,3,-29,5,-7,-39,-20,-10,-109,-17
1491090285688,3,-13,-32,-23,31,-1,-49,85,-41
1491090285690,0,-13,15,-2,-78,-15,57,103,20
1491090285690,0,-40,7,-6,70,52,-103,-52,2
1491090285691,1,12,-7,75,99,92,99,29,2
1491090285691,1,-17,2,-111,-54,-4,-59,54,30
1491090285691,2,15,-59,-52,110,-46,-108,-96,-1
1491090285691,2,28,21,27,-7,5,28,-23,13
1491090285737,3,25,-5,-2,-80,-45,49,61,71
1491090285737,3,-12,4,12,62,-76,-70,-128,-87
1491090285738,0,13,12,42,88,102,127,119,21
1491090285738,0,-2,30,12,-17,-45,-33,-55,-9
1491090285739,1,-73,-50,-56,10,-3,-26,81,15
1491090285739,1,34,2,71,50,-1,-31,-6,10
1491090285786,2,-16,-19,-57,-40,60,30,-7,-10
1491090285786,2,-26,29,21,83,-28,0,-82,-7
1491090285787,3,-33,-16,5,26,8,-94,64,-37
1491090285787,3,-1,10,-47,-77,-34,18,32,29
1491090285788,0,-49,11,24,127,-5,-42,-94,-12
1491090285788,0,-2,1,31,-63,67,62,28,21
1491090285789,2,-30,-16,-16,-57,0,-75,-88,-50
1491090285789,2,-12,9,-20,2,13,21,65,5
1491090285835,3,-28,-5,10,44,5,40,42,-24
1491090285835,3,27,3,48,104,71,9,67,52
1491090285836,0,-9,38,86,49,45,17,-11,-2
1491090285836,0,-31,-28,-112,-46,-101,49,29,-9
1491090285836,3,-10,27,40,-1,-2,25,53,0
1491090285836,3,-27,-36,-67,-17,90,124,-104,6
1491090285837,0,4,13,63,67,2,-109,-55,-14
1491090285837,0,-29,-32,-42,-54,-77,-89,-35,-38
1491090285883,1,33,-1,-34,-21,24,47,45,62
1491090285883,1,-7,-6,53,-48,-14,37,38,3
1491090285884,2,7,20,-46,104,-67,70,-33,7
1491090285884,2,-47,-29,-16,87,15,-55,-73,-25
1491090285932,0,-39,41,33,-128,-62,-19,-2,33
1491090285932,0,48,25,22,-17,47,-35,-29,-16
1491090285933,1,-29,18,51,-81,-51,66,47,-12
1491090285933,1,10,40,6,93,10,-51,-105,2
1491090285934,2,19,-30,-48,43,-31,76,114,52
1491090285934,2,-44,-61,-22,10,-8,-5,53,12
1491090285935,3,-14,28,-13,-67,30,2,-128,-39
1491090285935,3,6,13,25,-85,-54,-48,-70,18
1491090285981,0,-49,30,33,67,29,8,83,-35
1491090285981,0,27,-19,-16,-74,-24,0,-34,57
1491090285981,1,-83,-34,-43,103,39,-93,-5,-27
1491090285981,1,0,-14,-22,-78,-11,-56,-128,-4
1491090285982,2,53,7,27,36,127,59,73,-1
1491090285982,2,-4,-1,4,-71,-22,101,56,-2
1491090285983,1,5,17,19,-72,19,28,27,1
1491090285983,1,8,-18,-45,107,60,-31,-76,-20
1491090286030,2,9,-21,-17,69,5,-19,98,34
1491090286030,2,-20,-7,35,97,94,89,-59,-65
1491090286031,3,-13,4,-12,-77,-115,-57,11,36
1491090286031,3,6,23,61,19,54,-1,-3,60
1491090286031,2,6,-12,19,-16,-62,-60,-110,-6
1491090286031,2,-5,46,70,95,54,-24,-16,38
1491090286032,3,-15,-2,-40,62,-14,61,-28,-62
1491090286032,3,-36,-26,12,-67,0,21,99,-14
1491090286078,0,31,50,-33,-107,-94,-72,-128,-2
1491090286078,0,-5,4,-8,-43,53,116,111,23
1491090286079,1,42,22,54,58,39,-57,-57,41
1491090286079,1,-37,-28,-45,-45,49,-16,26,49
1491090286080,3,-3,-8,-24,41,-33,-46,-23,26
1491090286080,3,28,24,52,-68,-1,69,36,-15
1491090286081,0,-16,-11,-31,81,-14,79,42,-5
1491090286081,0,58,-20,-72,27,43,-128,-20,-23
1491090286176,1,-10,-69,-60,-13,-6,-57,-37,40
1491090286176,1,-15,24,80,30,-29,113,92,-36
1491090286177,2,40,28,35,-17,42,-7,30,26
1491090286177,2,-20,2,8,20,-78,-13,-111,-18
1491090286178,0,39,7,2,127,8,106,118,-63
1491090286178,0,6,-8,-34,-16,46,-107,47,47
1491090286179,1,-10,-5,40,7,-11,-2,-102,-64
1491090286179,1,-2,-31,-50,49,-68,-19,113,-32
1491090286224,2,-16,-50,1,9,98,69,-12,-18
1491090286224,2,-42,30,-5,-128,-128,-62,-83,-43
1491090286226,3,-8,22,96,56,104,127,54,38
1491090286226,3,97,46,-108,-51,-15,-128,2,70
1491090286226,1,10,-17,-49,-57,81,-128,-106,17
1491090286226,1,-12,14,80,123,-33,92,-128,-81
1491090286227,2,37,32,36,-81,-89,33,65,75
1491090286227,2,2,-1,4,127,73,13,-128,-86
1491090286274,3,-16,-5,1,-7,25,127,127,73
1491090286274,3,66,0,-58,-82,-58,-114,-76,-53
1491090286275,0,-15,-21,22,12,30,72,-14,44
1491090286275,0,-9,25,43,-65,13,-66,-71,-10
1491090286322,2,58,63,63,43,49,-44,-36,-17
1491090286322,2,-16,-25,-32,94,-67,17,-128,4
1491090286323,3,-50,14,-9,-87,10,-5,56,-36
1491090286323,3,15,-21,-19,-38,-48,10,82,43
1491090286324,0,-26,-26,-11,70,58,-98,-104,1
1491090286324,0,3,33,95,4,26,113,-6,0
1491090286324,1,0,17,-10,-34,-41,7,-108,-6
1491090286324,1,-44,-31,-79,36,46,-43,73,-4
1491090286371,3,-18,-25,32,127,21,-3,50,-4
1491090286371,3,-27,27,56,-119,22,61,-55,-42
1491090286371,0,76,41,40,107,45,32,-39,99
1491090286371,0,-31,-4,32,36,28,11,103,-24
1491090286372,0,-2,3,50,68,-22,-46,95,9
1491090286372,0,-36,40,26,-95,127,-90,39,12
1491090286373,1,22,-88,-125,-128,-128,-91,88,8
1491090286373,1,24,-32,5,-32,-50,65,38,13
1491090286419,2,-7,43,40,50,87,46,-9,-40
1491090286419,2,-45,21,60,97,65,-68,-123,-31
1491090286421,3,52,52,119,-1,92,103,43,38
1491090286421,3,16,-14,-94,-21,-34,28,-88,0
1491090286421,1,-22,-20,-25,127,-104,63,-105,-46
1491090286421,1,-14,33,38,-23,-33,-9,119,33
1491090286422,2,0,30,-6,-119,20,105,18,-7
1491090286422,2,9,2,4,115,7,-72,-118,17
1491090286468,3,2,0,28,17,-88,6,-28,-21
1491090286468,3,0,-10,-12,122,100,48,-58,11
1491090286517,0,-25,-13,6,39,-62,-101,-2,-23
1491090286517,0,-1,-15,-18,-92,-25,102,72,-30
1491090286519,2,-1,-42,-28,-7,-53,29,-124,-67
1491090286519,2,53,-14,-70,-88,-68,59,89,69
1491090286520,3,-27,2,-42,-74,-81,-21,-67,-20
1491090286520,3,-66,-38,-13,127,88,-55,106,-54
1491090286521,0,44,20,22,-15,46,59,108,82
1491090286521,0,37,15,-50,-41,-39,-10,-55,-20
1491090286615,1,-5,-8,-10,-21,-5,-30,-105,-35
1491090286615,1,-27,44,99,87,61,35,68,30
1491090286616,3,10,-36,-102,-104,-27,-90,16,21
1491090286616,3,-15,-74,-54,58,-117,12,-13,-26
1491090286617,0,4,56,84,-90,-82,15,-59,-4
1491090286617,0,-18,-8,-27,45,-36,54,69,27
1491090286618,0,8,-1,-26,-7,26,-66,73,4
1491090286618,0,-40,-50,-68,-119,-102,-60,-104,-58
1491090286663,1,-9,-10,-26,-97,-88,87,127,22
1491090286663,1,0,-4,28,92,92,82,-24,-24
1491090286665,2,-3,0,-32,-15,22,-33,-8,16
1491090286665,2,-33,-5,5,-73,-56,69,-103,-39
1491090286665,1,-22,18,-8,91,50,-37,-108,-51
1491090286665,1,-20,-54,-106,-126,-59,15,51,63
1491090286712,1,18,-32,-48,59,44,73,75,-10
1491090286712,1,-5,4,-34,105,46,-107,18,-17
1491090286713,2,11,-25,25,-95,57,127,4,-1
1491090286713,2,-23,4,-24,-42,-9,-113,-128,28
1491090286761,3,18,18,0,-57,42,84,108,27
1491090286761,3,19,-36,-18,-110,-4,127,-46,56
1491090286762,2,18,14,61,58,93,-42,99,66
1491090286762,2,67,43,-7,-25,-21,60,94,21
1491090286763,3,-34,-8,18,-56,23,-124,-69,-14
1491090286763,3,5,26,32,15,0,113,2,-25
1491090286764,0,-10,20,2,-44,-50,54,-19,-7
1491090286764,0,8,-7,2,76,10,-76,84,44
1491090286810,1,25,36,-6,-114,24,-59,-122,56
1491090286810,1,-38,-25,-15,42,-16,-53,-46,-55
1491090286811,3,9,46,73,-43,-33,-62,55,10
1491090286811,3,17,0,-12,46,48,-128,-74,2
1491090286812,0,-4,-3,14,47,10,127,82,-40
1491090286812,0,35,54,71,40,5,29,-48,73
1491090286813,0,-30,24,50,-19,-12,87,36,-35
1491090286813,0,4,-8,-37,-14,71,5,2,-15
1491090286858,1,-4,-23,31,112,38,65,-3,3
1491090286858,1,7,79,13,-128,-37,78,14,-14
1491090286860,2,-24,-49,-54,88,-69,51,26,19
1491090286860,2,56,39,47,125,127,-128,-101,-44
1491090286861,1,24,14,53,13,97,94,12,16
1491090286861,1,-26,12,11,-50,-22,33,-36,-24
1491090286862,2,7,19,5,-65,48,110,40,-14
1491090286862,2,-16,-34,-66,-61,-46,-83,-48,0
1491090286907,3,-4,-35,-31,2,-31,-49,-4,-15
1491090286907,3,-8,8,25,17,20,-50,11,25
1491090286908,0,-3,2,25,31,2,-16,7,-20
1491090286908,0,6,34,-15,-128,-7,-31,-57,-8
1491090286909,2,-8,5,-42,-128,-38,-87,45,-15
1491090286909,2,-13,-27,5,31,-8,-63,28,14
1491090286910,3,-28,-5,-19,11,-72,86,-76,-82
1491090286910,3,-1,-16,-38,52,53,5,-86,17
1491090286956,0,0,7,41,44,-9,109,40,-24
1491090286956,0,49,28,16,38,34,115,68,38
1491090286957,1,-38,-2,19,-81,56,-40,-54,9
1491090286957,1,15,-10,-30,-40,-29,-4,-28,7
1491090286958,3,2,-19,-37,-60,33,52,-32,9
1491090286958,3,-22,-37,-53,-3,-44,97,3,-22
1491090286959,0,-27,2,-18,-26,13,-128,-1,-11
1491090286959,0,-1,-31,-37,-15,-43,73,17,-35
1491090287005,1,81,47,64,2,-17,94,119,28
1491090287005,1,-19,-4,-2,-52,20,-20,-8,45
1491090287006,2,-5,0,18,13,-15,20,-44,-17
1491090287006,2,-21,9,13,53,75,-10,-7,9
1491090287006,3,-9,-14,4,-30,-8,98,3,12
1491090287006,3,30,51,87,35,65,-22,4,4
1491090287007,0,20,-23,-87,47,-27,-96,-84,-10
1491090287007,0,7,-43,-95,-37,-64,102,64,2
1491090287054,1,-5,-29,-22,-2,14,-128,-6,-8
1491090287054,1,-2,20,38,-5,26,10,-99,-19
1491090287055,2,-35,25,41,-103,-46,12,45,-4
1491090287055,2,7,-9,-11,53,42,-3,-105,-31
1491090287056,0,0,-18,-51,127,84,-29,-99,-25
1491090287056,0,10,8,-19,29,-62,-81,84,9
1491090287056,1,-8,-7,-6,-78,-27,47,20,-26
1491090287056,1,-7,5,-38,15,-20,-128,40,19
1491090287102,2,0,-28,41,-50,-5,-30,-35,12
1491090287102,2,-3,-7,-28,-13,52,-3,-102,-19
1491090287103,3,-23,-3,-6,-7,9,-73,-29,23
1491090287103,3,77,0,10,-128,-81,127,89,-16
1491090287104,1,-32,13,36,37,5,-5,-49,-19
1491090287104,1,-36,-41,-34,-69,85,40,-52,12
1491090287105,2,17,27,-6,-80,-103,60,-40,-30
1491090287105,2,-6,-6,35,10,67,16,-73,20
1491090287151,3,-7,14,2,-6,-67,-57,43,-15
1491090287151,3,-21,15,-3,3,-67,-59,24,-51
1491090287152,0,30,-70,-65,69,-6,-67,45,-3
1491090287152,0,-27,13,-19,-121,-47,36,-54,-42
1491090287153,2,-30,30,50,-60,57,-21,-12,31
1491090287153,2,-5,-11,3,-2,-23,-52,69,-32
1491090287154,3,8,36,68,44,11,62,8,21
1491090287154,3,-32,-49,-90,-40,12,-99,-81,-27
1491090287199,0,-3,-1,-17,-64,-82,57,84,1
1491090287199,0,-21,-1,20,-20,-32,11,13,2
1491090287248,1,9,39,90,110,102,52,27,-11
1491090287248,1,-1,-8,-66,-30,-24,-32,32,8
1491090287250,3,15,-25,-23,8,13,-17,-5,14
1491090287250,3,-10,29,46,-40,90,-69,49,9
1491090287251,0,-29,3,53,69,102,123,3,5
1491090287251,0,-2,-4,-15,-92,15,-116,1,-20
1491090287251,1,4,-22,-67,93,64,-14,-111,8
1491090287251,1,-10,-24,-4,-41,-66,45,37,21
1491090287297,2,9,20,-7,-44,-62,7,-34,-16
1491090287297,2,6,8,16,17,-43,67,25,0
1491090287298,0,19,30,46,12,-10,5,46,-1
1491090287298,0,-1,9,-16,-49,0,16,-59,2
1491090287298,1,-31,-23,-34,-14,41,-122,-31,-8
1491090287298,1,73,-8,-5,19,111,34,-2,-4
1491090287299,1,-99,32,27,-43,-69,97,72,20
1491090287299,1,-128,17,39,-1,-112,71,10,19
1491090287399,2,-122,20,32,-52,-51,2,-23,-17
1491090287399,2,-126,-11,-21,24,-48,-33,-64,2
1491090287402,3,-126,-10,-19,-63,-66,-26,-21,-29
1491090287402,3,-58,0,-12,1,-45,-23,-72,-25
1491090287403,1,-8,0,-25,39,31,-58,-102,-6
1491090287403,1,-4,2,2,60,26,-92,96,29
1491090287406,2,4,-29,-42,-62,5,-94,36,-14
1491090287406,2,5,-6,9,65,40,22,-84,-4
1491090287443,3,28,16,30,-101,19,87,67,23
1491090287443,3,4,1,-28,15,-39,12,-1,-5
1491090287444,0,19,21,7,63,7,-61,-73,12
1491090287444,0,11,-14,-24,37,20,-3,-6,-16
1491090287445,2,40,15,-7,-128,-78,44,-40,5
1491090287445,2,25,-6,-22,58,-6,-89,3,-3
1491090287446,3,-38,-24,-15,-44,-32,-60,-18,-8
1491090287446,3,-57,4,22,22,56,34,-5,-4
1491090287492,0,-86,-33,-35,26,-35,58,18,-3
1491090287492,0,-94,9,-9,-45,-30,-88,-54,-3
1491090287494,1,-87,-12,-12,28,0,-49,-84,-22
1491090287494,1,-88,-2,-8,-58,-13,26,3,18
1491090287496,0,-35,1,5,104,64,-1,9,7
1491090287496,0,-23,15,33,80,57,52,18,19
1491090287499,1,-19,33,46,-81,-105,55,-93,-22
1491090287499,1,-23,-28,-55,-5,48,19,79,27
1491090287541,2,-13,-12,-25,36,60,-107,55,-9
1491090287541,2,-29,-22,-16,-23,-13,-3,-68,-8
1491090287541,3,82,-1,16,35,-26,37,-4,11
1491090287541,3,22,20,25,4,10,-3,-6,-10
1491090287542,1,-128,17,13,30,29,-14,-30,-20
1491090287542,1,-124,-1,-6,-20,-2,42,-25,1
1491090287543,2,-89,-7,-25,-70,-58,-94,-41,-6
1491090287543,2,-77,-16,-15,-24,-8,45,42,6
1491090287589,3,-47,13,-5,-37,5,-28,19,8
1491090287589,3,-74,-7,18,-46,-15,4,-73,-15
1491090287590,0,17,13,-2,106,39,11,54,1
1491090287590,0,30,-12,-19,-41,-40,11,-7,-8
1491090287591,2,-31,20,64,-19,-38,38,-74,21
1491090287591,2,25,8,-21,-55,-46,-74,-105,-22
1491090287592,3,42,-11,-22,35,20,30,113,14
1491090287592,3,23,-3,-10,18,-7,-4,-2,-17
1491090287638,0,20,8,11,-44,21,44,-6,6
1491090287638,0,18,18,19,-61,-5,41,38,-2
1491090287639,1,-3,7,-16,37,18,-69,-28,-18
1491090287639,1,58,18,-9,74,-14,-49,-53,8
1491090287640,3,15,49,-11,-97,-26,40,83,-4
1491090287640,3,43,8,-23,-37,-44,-72,-110,-37
1491090287641,0,42,-8,-10,31,12,28,76,20
1491090287641,0,-17,-21,-3,9,0,-24,74,-9
1491090287687,1,33,-12,13,-18,-8,-1,-46,5
1491090287687,1,35,-1,17,72,46,36,8,10
1491090287688,2,13,15,21,-41,-56,27,-24,-8
1491090287688,2,13,-3,-22,-4,-55,-48,-8,0
1491090287688,3,-3,-32,-16,49,31,7,-3,-6
1491090287688,3,44,-13,13,-58,-56,-31,-70,-6
1491090287689,0,8,-9,-4,9,72,56,57,1
1491090287689,0,46,-39,1,53,21,-15,-78,-6
1491090287736,1,5,-13,12,47,-22,-55,-21,8
1491090287736,1,14,-45,-28,-43,-42,10,28,-6
1491090287736,2,-8,-51,-18,-69,-19,-61,-101,-10
1491090287736,2,16,-27,9,-9,57,91,95,5
1491090287737,0,12,-5,-19,-62,-50,-55,-119,-8
1491090287737,0,-31,-21,-25,61,15,53,69,-6
1491090287738,1,42,-17,0,10,11,-55,-86,-2
1491090287738,1,-6,21,14,18,23,20,32,11
1491090287785,2,-1,-5,2,-24,-18,17,41,-18
1491090287785,2,10,17,11,-18,-11,-38,6,1
1491090287785,3,22,-5,-8,-29,7,17,-16,6
1491090287785,3,0,1,-14,-20,13,-5,15,-11
1491090287786,1,13,17,16,-28,-27,32,20,-1
1491090287786,1,-24,-6,-20,73,22,-30,-72,7
1491090287787,2,7,-13,-6,20,31,29,57,-3
1491090287787,2,-20,-12,-12,-39,-2,-2,13,19
1491090287833,3,-6,2,4,-16,-40,-15,-83,-14
1491090287833,3,15,5,-4,-65,1,-3,34,17
1491090287834,0,-41,-9,6,108,24,-12,27,-3
1491090287834,0,14,-12,-6,-25,-5,43,-28,4
1491090287834,2,-19,8,16,33,13,-28,-81,-12
1491090287834,2,-15,-2,-14,-105,-21,-7,11,-28
1491090287836,3,-24,-19,-15,70,13,25,75,3
1491090287836,3,63,4,-6,17,2,-16,43,-1
1491090287882,0,-6,11,-1,-15,-7,39,96,18
1491090287882,0,-4,2,18,36,9,-61,-128,-4
1491090287883,1,-26,3,-6,-49,-28,-8,-70,-12
1491090287883,1,-22,-2,-11,-18,2,-16,26,-17
1491090287884,3,-11,0,13,-39,-15,15,25,10
1491090287884,3,-37,-7,-2,51,10,-17,-32,7
1491090287885,0,-31,-20,-19,-39,-29,-37,-128,-22
1491090287885,0,16,1,5,35,44,8,-25,-5
1491090287931,1,4,-8,5,9,-7,10,103,2
1491090287931,1,5,1,-2,-38,-20,-10,-56,-6
1491090287932,2,5,18,-7,-31,-36,-59,-79,6
1491090287932,2,22,-7,2,12,20,86,90,51
1491090287932,0,54,-4,-23,8,6,-13,-1,-3
1491090287932,0,20,-1,0,-7,-30,-34,-98,-23
1491090287933,1,18,3,-12,-16,2,-2,56,16
1491090287933,1,-12,-39,-54,-2,10,54,53,1
1491090287979,2,-16,13,52,-5,0,-36,-121,-18
1491090287979,2,6,17,25,-1,-6,15,24,15
1491090287980,3,5,-13,-8,0,-14,-38,-76,-3
1491090287980,3,21,-10,-8,-13,-3,21,-19,-18
1491090287981,1,-25,4,18,8,12,-32,-33,20
1491090287981,1,-5,9,-15,-15,-16,0,48,-4
1491090287982,2,16,-1,-3,1,4,22,88,20
1491090287982,2,-4,-5,1,-5,8,13,53,5
1491090288028,3,9,3,-4,9,2,22,17,-5
1491090288028,3,-19,15,7,10,-5,-4,-50,-20
1491090288029,0,7,5,6,-10,-11,-2,-64,-1
1491090288029,0,-11,-4,-44,-12,-15,-61,-128,-31
1491090288030,2,-31,3,7,13,-11,-24,-86,-18
1491090288030,2,-6,-19,-3,-4,-14,13,108,12
1491090288031,3,0,0,-8,-2,1,0,-57,-23
1491090288031,3,-15,3,-3,-13,-7,21,63,11
1491090288077,0,31,6,-13,0,-31,-76,-95,-48
1491090288077,0,116,0,24,7,5,46,55,39
1491090288081,1,127,18,5,28,5,4,-49,-3
1491090288081,1,127,18,8,-16,-13,-11,-58,11
1491090288081,2,120,4,2,7,9,52,79,13
1491090288081,2,107,1,-29,-8,-21,-48,-97,-24
1491090288082,3,37,-4,26,-3,-1,1,9,2
1491090288082,3,-6,-12,-1,12,13,6,-19,1
1491090288126,0,-29,-5,-5,-19,8,-8,-17,9
1491090288126,0,-43,4,12,-5,17,8,29,15
1491090288127,1,-50,-12,-22,-5,15,8,30,8
1491090288127,1,-71,-2,-12,-1,6,-27,-125,-28
1491090288127,3,-13,-4,8,17,21,-15,-93,-13
1491090288127,3,-26,-19,-27,-33,-7,20,124,14
1491090288128,0,-59,-23,-16,-4,-5,6,-94,-14
1491090288128,0,-57,-13,10,10,-3,-11,11,10
1491090288174,1,-76,-16,0,-19,-20,-36,-128,-30
1491090288174,1,-46,-13,-8,4,11,15,90,17
1491090288176,2,3,1,39,12,15,31,8,8
1491090288176,2,-51,17,-20,0,-8,-31,-124,-11
1491090288176,0,-35,16,-9,-7,-2,-5,-9,-6
1491090288176,0,-91,20,13,18,8,-2,-13,-6
1491090288177,1,-74,6,11,3,-8,3,7,12
1491090288177,1,-128,5,0,-9,-13,-30,-84,-32
1491090288223,2,-128,-2,20,7,16,24,66,19
1491090288223,2,-89,-10,-32,-8,-8,-13,-67,-11
1491090288224,3,-71,-4,-2,-11,0,13,74,16
1491090288224,3,-37,-29,-19,10,6,9,17,-15
1491090288224,1,35,-2,-10,0,4,4,26,6
1491090288224,1,45,-7,4,1,1,-3,6,7
1491090288226,2,23,-4,-17,-9,-7,-24,-100,-28
1491090288226,2,25,0,5,6,8,9,95,2
1491090288272,3,21,19,-19,1,-9,-30,-97,-15
1491090288272,3,17,17,14,-4,0,4,16,-14
1491090288273,0,28,10,8,1,10,33,88,25
1491090288273,0,15,-4,-4,2,-8,-14,-39,-25
1491090288274,2,24,-22,-13,-6,-9,-18,-68,-9
1491090288274,2,28,-12,11,15,13,28,84,29
1491090288274,3,30,-19,-2,-1,-1,5,23,-2
1491090288274,3,11,-6,4,8,-1,-1,-31,1
1491090288321,0,19,-7,-41,8,-6,-16,-34,-22
1491090288321,0,7,17,27,-13,-14,-15,78,19
1491090288322,1,20,-9,-2,2,6,26,45,-2
1491090288322,1,33,-10,12,2,-4,0,0,31
1491090288322,3,-10,0,-4,-5,4,7,17,-11
1491090288322,3,7,17,4,-1,-6,-1,-3,-6
1491090288323,0,11,-13,7,0,3,-2,27,6
1491090288323,0,23,21,-10,2,-9,-18,-84,9
1491090288369,1,-1,20,0,-5,9,37,117,13
1491090288369,1,-3,17,-25,0,-5,-4,-46,-11
1491090288371,2,-13,8,17,-6,-2,8,23,-7
1491090288371,2,-19,11,-13,-5,-9,-13,-14,-26
1491090288371,0,-7,15,18,4,1,14,1,7
1491090288371,0,16,8,-5,-8,-2,2,68,8
1491090288372,1,10,10,-10,4,-2,-15,-35,-1
1491090288372,1,-19,-10,-7,5,-2,-9,-43,-21
1491090288418,2,9,-10,-26,-17,10,42,106,6
1491090288418,2,6,1,28,8,2,-7,-27,33
1491090288467,3,1,11,-14,-10,-16,-17,3,6
1491090288467,3,13,4,25,4,2,5,15,7
1491090288516,0,-3,7,-8,-9,-2,-5,-42,-11
1491090288516,0,-2,6,8,-3,16,35,59,-4
1491090288517,1,3,-11,-7,0,-6,-16,-32,-6
1491090288517,1,4,10,-1,-11,-10,-19,-65,-2
1491090288518,2,-11,20,-4,9,-2,-10,-9,-10
1491090288518,2,1,-11,-26,-12,-10,2,45,2
1491090288518,3,-6,-4,11,-5,-7,-15,-61,-2
1491090288518,3,-2,2,1,4,4,4,-3,-26
1491090288564,1,11,-35,-16,7,16,24,73,53
1491090288564,1,-13,-19,-1,-12,-20,-30,-20,-6
1491090288565,2,-6,16,-5,4,2,-1,-49,-13
1491090288565,2,-2,-3,-2,-1,-10,-14,-11,-6
1491090288566,3,12,11,-14,2,-3,-2,26,-2
1491090288566,3,-2,4,0,-17,-4,-3,13,20
1491090288567,0,-1,8,-3,5,8,8,-30,-15
1491090288567,0,-15,-14,-10,-2,-1,0,29,2
1491090288613,1,23,25,3,0,-1,-5,30,-1
1491090288613,1,4,-12,-11,6,1,-3,-28,0
1491090288615,2,-19,-7,11,4,2,16,108,15
1491090288615,2,1,-1,3,-4,-2,-1,-10,1
1491090288615,0,21,-1,1,1,3,-1,16,39
1491090288615,0,-18,-14,-17,2,4,-1,-42,-23
1491090288616,1,-10,-6,17,-4,-13,-15,32,-1
1491090288616,1,-3,2,11,3,-11,-29,-56,-2
1491090288662,2,8,-9,-14,-10,3,15,38,0
1491090288662,2,14,-9,-7,-3,-3,-4,-27,4
1491090288663,3,-22,-12,4,2,1,-13,-59,-16
1491090288663,3,7,2,-15,1,8,20,95,16
1491090288664,1,0,1,9,-5,-4,-4,-56,-12
1491090288664,1,1,-5,1,3,1,8,25,12
1491090288665,2,13,-2,-30,3,0,1,-2,4
1491090288665,2,2,5,25,-10,3,10,6,3
1491090288711,3,-18,5,2,-2,-12,-32,-39,-10
1491090288711,3,-3,-6,5,7,5,19,29,2
1491090288713,0,-13,-17,-22,-4,-5,-17,-6,-7
1491090288713,0,-14,-9,6,0,-1,17,-23,-5
1491090288714,2,9,-4,-21,-10,-4,-9,-39,-13
1491090288714,2,-1,0,16,6,1,-2,32,-12
1491090288715,3,-1,-5,6,8,8,12,21,1
1491090288715,3,-4,-1,-5,-11,-3,3,17,-5
1491090288760,0,-11,-5,0,0,-4,-3,6,4
1491090288760,0,-4,-4,-9,-2,-6,-15,-9,-3
1491090288761,1,13,3,1,3,-1,2,7,12
1491090288761,1,6,-8,-2,-2,0,13,22,-2
1491090288762,2,-7,-2,-7,2,-7,-15,-34,-16
1491090288762,2,5,-2,-7,-4,-4,-15,-31,1
1491090288763,3,-17,-10,-9,-10,-3,3,40,-5
1491090288763,3,14,-8,-14,1,0,2,55,19
1491090288809,0,-20,3,-7,-15,-11,-34,-87,-46
1491090288809,0,27,17,20,17,0,15,85,31
1491090288811,1,-5,-9,-20,-6,5,22,-21,-11
1491090288811,1,-11,-11,12,-6,-7,-9,-45,4
1491090288812,3,13,6,4,-6,2,12,34,13
1491090288812,3,26,-1,1,5,5,23,85,33
1491090288813,0,21,1,-2,-2,-3,-7,-43,-6
1491090288813,0,-23,0,-6,-4,-1,-2,-32,-3
1491090288858,1,-17,-6,1,1,-7,-22,-79,-7
1491090288858,1,-3,4,-4,-1,-2,13,45,-5
1491090288860,2,21,5,19,5,13,28,76,31
1491090288860,2,-6,-14,-12,-3,-6,-17,-53,-3
1491090288861,0,-3,11,29,11,3,15,70,6
1491090288861,0,5,-12,-12,-4,1,-5,-31,4
1491090288862,1,-8,-16,-19,-5,8,23,44,0
1491090288862,1,-17,-3,3,6,-7,-34,-116,-34
1491090288906,2,4,-4,-16,-6,7,59,127,47
1491090288906,2,-5,-9,-1,-13,3,-15,-69,-7
1491090288907,3,-3,-3,-6,-3,-13,-32,-70,17
1491090288907,3,-15,-3,-11,-7,3,15,17,-16
1491090288908,1,-13,5,25,2,-7,-12,-41,-14
1491090288908,1,-12,-6,-6,5,-6,-10,-14,-7
1491090288909,2,1,3,4,3,-2,-14,-69,-36
1491090288909,2,23,1,-25,-2,7,16,-30,-1
1491090288955,3,-9,10,31,8,-7,-13,70,14
1491090288955,3,2,-3,-1,-1,17,41,7,19
1491090288957,0,-26,-6,-6,2,-1,-13,-67,-12
1491090288957,0,13,4,-8,-7,-7,-28,-24,-9
1491090288958,2,-5,17,17,7,-5,-12,-29,-5
1491090288958,2,-7,10,-33,-6,-5,-1,66,-4
1491090288959,3,7,-1,9,-4,0,-9,-50,-6
1491090288959,3,-2,-13,-3,5,4,-9,-32,-4
1491090289004,0,-12,4,-4,1,-6,-7,42,1
1491090289004,0,9,-2,4,-17,-18,-55,-128,-23
1491090289006,1,7,-16,-18,-14,23,97,85,46
1491090289006,1,12,-7,-1,1,-3,-2,-80,32
1491090289007,3,21,8,12,-1,-3,-19,6,-1
1491090289007,3,-6,-2,-14,-1,2,-5,23,-8
1491090289008,0,-3,-4,13,-8,-6,-5,-47,-1
1491090289008,0,-12,-2,22,8,-3,13,67,15
1491090289052,1,-8,5,-5,-13,-10,-22,-63,-20
1491090289052,1,-14,-1,-6,6,-9,-31,-83,-11
1491090289053,2,10,-11,-20,-8,6,32,98,11
1491090289053,2,-10,-7,-20,-3,9,21,3,-1
1491090289054,0,8,3,2,1,-1,-10,-55,-20
1491090289054,0,-19,-14,-11,-8,-9,-9,3,0
1491090289055,1,-5,8,29,4,-7,-32,-37,-21
1491090289055,1,6,-11,-38,-16,15,46,90,38
1491090289101,2,0,-11,4,3,-1,3,-63,-8
1491090289101,2,-9,-3,-2,-7,-2,4,-36,0
1491090289103,3,-3,10,-12,-3,-11,-21,32,-7
1491090289103,3,1,2,29,0,-3,-5,4,-11
1491090289104,0,8,-7,-16,6,7,12,45,2
1491090289104,0,-6,1,15,-4,-9,-19,-64,5
1491090289105,1,-17,-12,-23,4,-1,7,23,-8
1491090289105,1,19,17,19,4,-9,-9,37,19
1491090289151,2,-19,-17,-31,-6,5,-23,-103,-27
1491090289151,2,9,7,18,15,4,33,97,21
1491090289159,3,25,-8,-19,4,19,40,-9,35
1491090289159,3,-6,4,21,4,3,-2,-17,-8
1491090289160,1,12,7,-28,-14,-1,16,56,-12
1491090289160,1,8,-1,-1,1,-3,-8,9,-5
1491090289161,2,6,-2,37,26,3,-6,48,22
1491090289161,2,-3,-10,-44,-29,-4,6,-15,-16
1491090289199,3,-22,-23,20,-9,-7,-9,11,-3
1491090289199,3,-12,1,-26,0,-8,-26,-67,-31
1491090289201,0,3,-2,2,-12,-5,1,-1,13
1491090289201,0,11,5,-18,7,-1,-15,-11,4
1491090289202,2,18,4,-6,-14,-4,-8,30,1
1491090289202,2,-2,8,4,18,11,24,70,6
1491090289203,3,-8,-22,-18,-10,-9,-18,-14,17
1491090289203,3,-21,-1,-1,-1,3,6,-15,12
1491090289247,0,8,6,14,13,11,17,6,10
1491090289247,0,-3,-16,-31,4,9,4,7,4
1491090289249,1,-2,0,12,-25,-15,-30,-80,-15
1491090289249,1,-7,-7,-3,-2,-5,13,54,3
1491090289250,3,-9,-6,-1,12,20,41,69,9
1491090289250,3,10,-19,-17,8,4,12,34,2
1491090289254,0,-2,14,-21,-15,-12,-18,-22,-10
1491090289254,0,-7,-5,12,-14,3,12,-65,-12
1491090289296,1,14,6,-31,-6,-8,-11,36,7
1491090289296,1,18,28,69,13,-8,-10,-31,11
1491090289296,2,-10,-11,-25,7,8,8,64,-3
1491090289296,2,8,2,-2,3,-2,5,7,1
1491090289297,0,1,3,-9,5,0,5,12,5
1491090289297,0,-1,10,31,6,11,11,-9,-2
1491090289298,1,21,7,-39,-8,-13,-26,-67,-15
1491090289298,1,-10,-11,19,-4,0,3,63,-3
1491090289344,2,-2,-2,-34,0,-2,-8,-99,-10
1491090289344,2,1,-10,26,-5,-9,-5,73,14
1491090289345,3,-14,-3,-21,-10,-7,-2,0,-17
1491090289345,3,-4,-12,-21,-15,-3,26,77,24
1491090289346,1,-2,-2,0,-3,-8,-31,-68,-7
1491090289346,1,-10,-3,-8,11,-8,-28,-58,-18
1491090289347,2,1,-1,-8,-7,5,18,65,11
1491090289347,2,15,20,14,4,-5,-16,-63,-9
1491090289393,3,-11,6,-7,6,3,9,53,4
1491090289393,3,-10,6,-16,0,10,10,7,-8
1491090289442,0,4,14,17,7,2,8,30,7
1491090289442,0,-17,5,-4,-4,-7,-12,-62,-12
1491090289443,2,-5,-2,9,0,10,9,3,3
1491090289443,2,-6,0,-8,17,-7,-14,-42,-12
1491090289444,3,-9,33,3,-26,-8,-4,25,7
1491090289444,3,-4,51,-35,-29,-13,-16,-32,-16
1491090289445,0,-13,53,-30,-25,-7,0,-9,-2
1491090289445,0,27,40,20,2,0,4,96,21
1491090289491,1,-12,-2,38,29,11,12,-57,-22
1491090289491,1,0,-19,-14,5,5,12,17,-19
1491090289492,3,-4,-35,-5,-16,-8,6,40,12
1491090289492,3,1,-7,-16,-22,-7,-13,-26,-3
1491090289493,3,12,-9,-30,6,3,-3,-20,1
1491090289493,3,7,-9,36,9,-6,-12,-65,-1
1491090289493,0,6,-4,11,-9,-2,-20,-12,-16
1491090289493,0,7,-14,-23,-22,-5,8,40,-5
1491090289540,1,13,-5,9,-2,0,4,36,26
1491090289540,1,14,-9,-13,-2,2,6,34,2
1491090289541,2,13,-12,3,5,-1,2,-8,-3
1491090289541,2,-14,-3,-4,3,-6,-3,-26,-7
1491090289542,0,6,-6,-11,-10,-13,-10,-3,-13
1491090289542,0,-9,1,-2,-6,6,6,-6,-4
1491090289542,1,2,-8,-1,11,2,0,-18,-1
1491090289542,1,-10,-3,5,5,-5,-8,-75,-8
1491090289588,2,-15,-11,-18,-6,4,14,28,4
1491090289588,2,-6,12,22,6,5,10,33,8
1491090289590,3,-4,-10,1,-6,5,19,41,-10
1491090289590,3,-16,-6,3,0,-7,-25,-61,-10
1491090289591,1,-13,1,11,7,-3,-19,-54,-13
1491090289591,1,-3,-6,-21,-3,-2,6,25,1
1491090289592,2,13,6,17,0,-6,-11,-69,0
1491090289592,2,-12,-10,-13,-23,-4,20,124,17
1491090289637,3,2,-5,-6,-5,-2,0,3,-9
1491090289637,3,-16,5,8,6,-3,-8,-20,-1
1491090289639,0,-15,1,-25,1,0,-12,-33,-13
1491090289639,0,-13,2,24,-11,-9,-12,-45,-14
1491090289640,2,-7,-3,4,7,5,13,94,12
1491090289640,2,-6,1,-9,4,3,-5,-61,0
1491090289641,3,7,7,0,2,-3,-8,-45,-2
1491090289641,3,13,-5,11,10,4,13,95,11
1491090289686,0,-2,3,8,-1,-1,7,-47,-5
1491090289686,0,-6,4,-15,11,9,17,64,-9
1491090289687,1,-2,-9,-9,7,-7,-18,-64,-10
1491090289687,1,-8,-1,5,-11,-1,6,29,4
1491090289688,3,6,4,-25,-10,-4,-6,-56,14
1491090289688,3,-9,-1,2,1,3,-5,-44,-18
1491090289689,0,-23,-7,3,-3,-4,2,84,15
1491090289689,0,4,-8,-1,-2,-10,-17,-108,-10
1491090289735,1,35,15,0,10,2,-5,-34,0
1491090289735,1,-13,0,2,-11,-11,-2,-26,2
1491090289736,2,6,7,33,14,11,2,85,29
1491090289736,2,2,-4,-27,1,-1,-9,-46,1
1491090289737,0,1,-14,-21,-20,-9,-7,-9,5
1491090289737,0,16,7,12,-2,-3,-10,-24,-4
1491090289737,1,-4,9,-7,8,7,9,56,11
1491090289737,1,-11,1,8,-2,1,7,-43,-19
1491090289784,2,8,2,9,6,2,-9,-21,15
1491090289784,2,7,10,10,9,4,12,76,10
1491090289785,3,-22,-7,-23,-10,-12,-19,-123,-14
1491090289785,3,10,7,-18,-15,1,14,127,31
1491090289787,1,11,2,34,9,6,7,-40,2
1491090289787,1,8,11,-8,13,3,-5,55,7
1491090289787,2,-3,-9,-11,-22,-6,20,-26,9
1491090289787,2,-4,-3,-10,0,1,-13,-44,-1
1491090289832,3,-5,-7,-3,-5,-5,1,59,1
1491090289832,3,1,-10,15,31,17,7,-26,-7
1491090289833,0,0,-1,1,9,-8,-17,-42,-10
1491090289833,0,-8,0,-16,-35,-21,-19,-44,-6
1491090289834,1,-5,-3,-8,-8,7,38,127,25
1491090289834,1,0,-19,-16,-1,-12,-37,-128,-26
1491090289835,2,13,23,33,25,11,2,110,13
1491090289835,2,-14,-11,-20,12,1,-2,-52,8
1491090289881,3,-14,5,4,3,1,21,45,-23
1491090289881,3,7,-7,-10,-4,15,8,-27,27
1491090289882,0,-1,0,-3,9,0,-20,-29,-21
1491090289882,0,4,25,4,-5,-11,-3,-19,-6
1491090289884,2,-11,-11,-12,-8,10,23,-47,-20
1491090289884,2,14,3,3,2,1,5,100,21
1491090289885,3,-13,-5,6,-2,-1,-14,-105,-27
1491090289885,3,6,10,-20,8,0,24,102,24
1491090289930,0,-15,-9,-11,-10,-13,-28,-116,-30
1491090289930,0,-6,-2,0,4,7,12,88,5
1491090289931,1,0,-2,-2,-15,-8,-6,10,3
1491090289931,1,-8,-1,9,2,-7,-11,-40,-13
1491090289932,3,5,4,-10,6,4,19,40,10
1491090289932,3,1,-2,15,-2,6,-2,-14,-3
1491090289935,0,-4,7,5,14,1,-16,-38,-8
1491090289935,0,-4,-12,-12,-12,-5,35,68,-13
1491090289978,1,13,-2,-9,-21,-12,-27,-8,46
1491090289978,1,-7,-6,-6,-28,-8,7,36,8
1491090289980,2,4,13,18,49,30,44,-61,0
1491090289980,2,0,-3,13,3,5,-61,-7,-3
1491090289981,0,-18,-3,0,4,0,-24,-40,-13
1491090289981,0,6,-4,-4,5,30,53,61,13
1491090289981,1,-16,-8,8,3,-30,-27,-67,-26
1491090289981,1,5,-8,-9,-14,-36,-61,-89,4
1491090290027,2,8,11,-6,-27,-11,5,74,0
1491090290027,2,-8,5,6,20,7,-2,-49,24
1491090290028,3,-6,13,1,16,22,19,15,-9
1491090290028,3,-17,7,29,35,-1,-48,-128,-17
1491090290029,1,5,3,-9,-80,-31,-48,105,6
1491090290029,1,-25,-6,-13,30,39,59,-42,-14
1491090290030,2,21,-10,1,-39,-60,-100,-58,6
1491090290030,2,-1,20,49,109,85,-27,-100,-14
1491090290076,3,23,-21,-14,-81,30,86,122,24
1491090290076,3,-19,-34,-42,-23,-12,-32,-79,-30
1491090290077,0,-6,11,1,-34,-76,11,-26,5
1491090290077,0,6,21,34,25,27,-36,-31,-5
1491090290078,2,-2,-36,-35,-69,-22,95,-88,-19
1491090290078,2,-22,22,-3,-68,-58,-91,39,-11
1491090290078,3,3,-29,35,100,7,40,-128,14
1491090290078,3,0,9,-19,-50,82,97,-50,-20
1491090290124,0,-13,22,14,106,-79,-45,106,59
1491090290124,0,40,-63,-35,-119,-84,-73,-111,-37
1491090290125,1,-64,41,68,42,97,17,66,-34
1491090290125,1,36,26,-46,-34,-128,65,27,13
1491090290126,3,42,-45,-6,36,98,101,88,35
1491090290126,3,-44,13,108,80,103,29,65,39
1491090290127,0,-6,20,-51,-128,-112,-18,-72,-16
1491090290127,0,58,-19,69,120,82,90,96,-50
1491090290173,1,5,-43,-47,56,59,-86,-92,-9
1491090290173,1,8,57,85,-23,-106,-87,-102,-2
1491090290174,2,-10,41,2,-121,-12,89,-50,-2
1491090290174,2,-20,-66,-90,61,-22,-6,46,40
1491090290174,3,21,-61,-38,121,49,-88,-109,-3
1491090290174,3,4,-11,16,-112,-38,-11,-109,1
1491090290176,0,-19,64,110,127,24,40,127,20
1491090290176,0,61,73,34,-128,-1,57,-126,-31
1491090290222,1,3,-35,-72,104,-22,116,118,-9
1491090290222,1,4,-85,-64,44,66,-63,-87,-26
1491090290223,2,6,-34,-21,-91,-83,-34,-112,-28
1491090290223,2,13,-1,-16,-13,-17,63,82,85
1491090290223,0,44,-36,16,78,65,127,-11,-37
1491090290223,0,13,14,23,-90,7,55,50,4
1491090290224,1,-5,48,97,-71,21,73,75,24
1491090290224,1,-44,12,-12,10,-122,-82,-37,-3
1491090290271,2,59,-70,-94,-25,-28,-120,-93,-13
1491090290271,2,-28,-93,-47,65,-24,-74,5,-1
1491090290272,3,-6,-34,-21,-102,-20,76,74,14
1491090290272,3,-7,-56,-2,-44,-28,22,76,-2
1491090290272,1,-33,38,-9,-58,-50,-54,-31,-20
1491090290272,1,30,24,36,53,87,49,-8,1
1491090290273,2,-32,14,-38,37,38,29,16,39
1491090290273,2,-36,26,55,88,63,44,-128,-64
1491090290319,3,97,53,-61,-88,-74,-45,98,20
1491090290319,3,-28,-60,-95,-67,-113,-96,-106,-12
1491090290321,0,-8,-17,1,29,54,47,112,-8
1491090290321,0,-21,15,42,27,2,-3,-43,-1
1491090290322,2,19,-35,5,68,33,-32,-58,40
1491090290322,2,-21,46,51,-128,4,-1,46,31
1491090290323,3,-11,-29,-42,88,-12,42,31,-11
1491090290323,3,-3,37,-2,-69,-67,-40,-101,-22
1491090290368,0,10,28,-32,91,-35,-61,44,-48
1491090290368,0,-31,-3,-26,18,14,1,-34,-14
1491090290369,1,18,105,96,76,74,24,56,22
1491090290369,1,6,55,-31,-86,-37,-1,-5,4
1491090290370,3,-31,-7,-71,-49,-40,-128,25,-2
1491090290370,3,-12,-6,53,127,35,75,12,-13
1491090290371,0,-12,49,14,-128,-107,36,45,54
1491090290371,0,-31,-14,1,127,122,72,-67,-5
1491090290417,1,48,31,-6,-128,-86,23,11,12
1491090290417,1,-44,0,38,123,116,-74,-59,-33
1491090290418,2,-9,-69,-79,-51,-31,61,76,-12
1491090290418,2,-37,-43,-87,18,-105,-128,-113,-52
1491090290418,0,-8,-35,-19,78,90,38,-50,16
1491090290418,0,-4,-14,80,-120,-72,127,71,9
1491090290419,1,-53,-15,-34,90,30,-77,-78,-18
1491090290419,1,28,-6,48,-57,-76,-11,-8,85
1491090290466,2,26,52,46,-37,-24,-41,-121,-3
1491090290466,2,-12,-13,-78,4,5,72,103,4
1491090290467,3,-38,-11,55,13,34,-31,56,15
1491090290467,3,-16,-42,-43,-13,-8,-35,-13,-61
1491090290468,1,-42,8,65,-7,-8,61,-128,-58
1491090290468,1,67,-30,-76,-13,125,-11,127,40
1491090290469,2,19,-69,-82,-49,-79,-40,-95,-16
1491090290469,2,-19,1,28,37,61,41,-35,-50
1491090290515,3,48,7,24,13,91,-49,-107,-6
1491090290515,3,-29,30,79,-49,2,127,52,-9
1491090290516,0,-11,23,47,69,11,66,127,-38
1491090290516,0,74,34,52,35,76,44,108,110
1491090290518,1,-30,13,-128,-46,-77,-3,-53,-79
1491090290518,1,26,-81,-12,118,32,-74,-97,-50
1491090290529,2,-16,-33,-8,-42,-57,-89,-128,-3
1491090290529,2,-28,31,7,57,78,119,101,30
1491090290563,3,53,-2,-5,-75,-102,-89,-59,9
1491090290563,3,-49,7,27,4,-31,91,-8,-37
1491090290565,0,38,-16,-8,-16,70,70,-37,17
1491090290565,0,-40,19,36,-61,-83,-64,-89,-32
1491090290566,2,-32,73,88,59,9,-67,-97,2
1491090290566,2,35,33,52,66,54,94,80,8
1491090290567,3,10,-33,-87,-108,-97,49,0,52
1491090290567,3,-42,52,58,-48,11,-49,-79,-73
1491090290612,0,6,-31,-18,94,50,6,126,73
1491090290612,0,-27,-29,-62,-46,-92,16,-55,-62
1491090290613,1,-24,11,77,125,127,-100,-8,-39
1491090290613,1,11,20,25,-84,-82,38,34,44
1491090290614,3,6,-43,-30,33,-98,127,-89,19
1491090290614,3,-58,-8,-32,42,30,-61,-7,-29
1491090290614,0,80,10,61,-48,83,97,55,-6
1491090290614,0,-43,4,-42,-34,-13,-88,-128,-19
1491090290661,1,-1,-53,-64,-36,-68,-43,127,-39
1491090290661,1,47,20,67,77,15,9,34,53
1491090290662,2,8,57,66,54,62,67,-50,54
1491090290662,2,78,-18,-64,57,72,73,93,1
1491090290662,0,-17,-64,-46,-80,-110,-93,-94,25
1491090290662,0,-16,38,47,90,57,71,-41,10
1491090290663,1,31,23,38,-38,62,18,40,15
1491090290663,1,-27,-5,12,-44,81,-14,114,-7
1491090290709,2,-29,-34,-75,36,-34,100,74,-22
1491090290709,2,83,-44,-52,-44,-60,-128,46,27
1491090290710,3,0,47,54,-17,-58,-66,-75,16
1491090290710,3,-11,16,62,44,117,34,-112,5
1491090290711,1,-47,-3,-18,-60,-65,127,-11,13
1491090290711,1,49,-41,-44,85,-4,-69,40,-17
1491090290712,2,22,27,18,-7,-41,25,59,16
1491090290712,2,-1,-8,18,23,13,-19,53,3
1491090290758,3,-28,2,23,-97,-39,-28,115,-57
1491090290758,3,40,34,-22,77,-69,-50,-128,8
1491090290759,0,-5,-72,-18,-103,-65,72,127,-32
1491090290759,0,-20,76,43,-66,-35,-67,-85,-28
1491090290760,2,40,-27,-7,24,-30,-14,58,-25
1491090290760,2,-57,24,81,-87,-41,-2,-128,33
1491090290761,3,-7,-11,-20,4,48,-72,62,-68
1491090290761,3,-37,57,105,105,51,127,-14,-4
1491090290807,0,10,15,-61,-8,-33,-128,16,17
1491090290807,0,-50,-77,-60,15,-64,50,-30,-2
1491090290808,1,33,-7,-2,36,9,15,12,-51
1491090290808,1,-21,-29,-47,-104,-88,116,-45,-19
1491090290808,3,20,-32,-49,40,54,73,50,24
1491090290808,3,-5,6,40,41,4,103,-90,39
1491090290809,0,-21,67,79,53,26,113,35,20
1491090290809,0,-6,-49,-128,-66,46,-2,52,-102
1491090290856,1,-8,13,42,23,-52,28,-67,70
1491090290856,1,-10,17,33,-89,8,-54,21,52
1491090290856,2,0,-46,-58,127,-53,-2,-41,-65
1491090290856,2,3,41,100,110,28,-69,44,81
1491090290857,0,-46,-22,-66,-128,-20,34,-99,-81
1491090290857,0,-24,-63,-84,-67,-6,-71,-99,13
1491090290858,1,112,-7,53,-44,66,69,107,20
1491090290858,1,6,49,-41,-3,-78,64,10,3
1491090290905,2,5,36,76,-42,-4,-83,-76,19
1491090290905,2,-40,2,47,-15,11,32,35,-15
1491090290905,3,-23,-32,-101,-40,5,-23,-52,-18
1491090290905,3,10,-30,-4,-26,-59,-92,-39,-9
1491090290906,0,12,-57,-25,16,44,127,120,17
1491090290906,0,-5,57,74,118,-12,74,-124,-59
1491090290907,1,-40,-13,-68,-48,43,-97,44,-7
1491090290907,1,82,10,-2,-38,0,127,127,64
1491090290953,2,11,-3,-31,6,-20,-95,-128,54
1491090290953,2,-24,-14,15,72,-84,15,-15,14
1491090290955,3,4,2,30,4,92,-89,41,-22
1491090290955,3,-31,3,35,-13,106,106,60,-68
1491090290956,1,-26,20,18,-73,-53,89,-84,-95
1491090290956,1,51,-27,-8,89,79,9,36,96
1491090290956,2,-12,46,71,-16,84,-29,-75,0
1491090290956,2,-31,22,-41,-84,-9,66,73,-33
1491090291002,3,-20,-34,-66,59,-102,-30,-83,-12
1491090291002,3,-14,-31,-10,45,42,-127,-45,-41
1491090291003,0,-12,-26,7,-109,14,67,33,-24
1491090291003,0,-36,28,27,127,-29,-35,46,36
1491090291003,2,-12,-32,-20,89,26,-28,-10,-20
1491090291003,2,14,-37,-13,-3,19,-2,-48,-24
1491090291004,3,24,40,61,-28,8,127,34,22
1491090291004,3,-35,-13,15,-4,-13,-63,32,-28
1491090291051,0,10,54,-30,-105,-69,101,-38,38
1491090291051,0,-2,-29,9,41,78,-39,1,-65
1491090291051,1,2,6,-2,89,38,-66,-33,33
1491090291051,1,7,-35,-57,-34,2,10,80,-8
1491090291052,3,18,21,16,96,0,-105,-111,-1
1491090291052,3,-15,23,125,24,-31,68,66,-13
1491090291053,0,36,-12,-100,-44,-28,56,109,33
1491090291053,0,9,-7,-17,-95,-53,-47,6,11
1491090291099,1,-60,-4,86,-45,-25,45,-40,-22
1491090291099,1,72,-9,-112,48,47,-7,3,-3
1491090291100,2,-30,16,72,-92,-46,-64,-57,34
1491090291100,2,7,-8,-28,4,-2,-121,-25,6
1491090291101,0,3,-5,50,43,74,61,-41,-79
1491090291101,0,-4,21,-42,-43,-64,-53,58,94
1491090291102,1,7,19,25,-59,-11,-53,-77,-67
1491090291102,1,-57,-42,-88,4,-73,37,50,6
1491090291148,2,40,-15,17,18,-41,-103,-29,-27
1491090291148,2,-16,26,99,76,100,91,-53,17
1491090291149,3,15,-14,-78,-34,-74,-37,120,-6
1491090291149,3,-15,28,109,21,-2,37,-113,24
1491090291150,1,-40,16,25,-96,-18,40,87,22
1491090291150,1,11,-13,6,94,83,-17,-18,12
1491090291151,2,17,15,32,47,11,120,-29,4
1491090291151,2,-9,20,-58,-128,-74,-73,-27,-42
1491090291197,3,-33,-31,9,-12,47,-83,7,26
1491090291197,3,14,16,-12,-128,-123,-23,-4,30
1491090291198,0,29,0,-38,79,18,-65,111,-38
1491090291198,0,13,15,35,-91,21,94,-120,-3
1491090291199,2,34,21,51,6,65,99,1,89
1491090291199,2,3,11,-59,-94,-81,-119,-64,-11
1491090291199,3,12,-7,19,84,13,42,37,-31
1491090291199,3,-58,26,54,-78,-36,41,-13,12
1491090291246,0,-9,-31,-59,127,75,-80,39,-44
1491090291246,0,5,13,45,-45,-51,37,-15,-1
1491090291247,1,-20,-48,-49,-66,-87,72,37,4
1491090291247,1,-9,3,-31,105,66,39,-53,-60
1491090291248,2,-22,1,52,-69,-30,-88,-8,13
1491090291248,2,-21,16,-32,-64,18,-39,-61,-45
1491090291249,3,8,3,-6,120,-9,-10,-85,-28
1491090291249,3,-3,-16,-13,18,29,-34,95,-4
1491090291294,0,-13,51,122,61,77,41,-82,34
1491090291294,0,25,-51,-88,30,19,-39,118,-11
1491090291295,1,-16,-50,-54,53,-117,11,-114,-25
1491090291295,1,-49,-4,55,-29,48,29,-85,-14
1491090291296,3,0,33,12,-50,25,1,-8,17
1491090291296,3,39,-8,58,-12,-91,3,-17,-13
1491090291297,0,-63,-3,-41,-107,11,127,-14,-16
1491090291297,0,32,-37,-53,66,21,-52,7,-5
1491090291343,1,-24,-43,-82,-37,-27,-25,41,2
1491090291343,1,25,17,-2,-35,-35,34,-68,5
1491090291344,2,-3,11,87,-107,-128,33,-31,10
1491090291344,2,-5,64,62,127,127,127,103,-13
1491090291344,0,-18,-74,-94,-91,-104,-87,8,34
1491090291344,0,-28,4,67,-98,-86,-30,-128,-50
1491090291346,1,19,17,3,58,34,61,81,39
1491090291346,1,-11,13,13,127,102,-38,18,-7
1491090291392,2,-10,3,-24,-81,-114,106,-60,-50
1491090291392,2,-13,-15,16,-33,-13,-24,47,51
1491090291393,3,47,19,-12,-128,12,-95,86,-19
1491090291393,3,17,12,2,51,55,11,-96,4
1491090291394,1,-22,58,84,-69,55,-11,-79,-36
1491090291394,1,22,-41,-39,-62,-18,-28,-32,35
1491090291395,2,-30,1,15,-66,-9,62,57,-5
1491090291395,2,32,26,51,108,33,77,36,17
1491090291441,3,16,15,7,7,48,-110,-85,35
1491090291441,3,-16,12,86,-79,-39,54,19,-13
1491090291443,0,16,25,-12,103,61,-80,-77,-59
1491090291443,0,-11,-26,-94,-43,38,-64,-75,35
1491090291444,2,-41,1,73,115,88,11,-89,-57
1491090291444,2,16,-6,-32,-33,7,68,104,83
1491090291445,3,-17,20,28,71,-35,-98,-73,-35
1491090291445,3,36,21,-20,-112,-10,33,-54,-16
1491090291489,0,18,-18,-75,-5,-61,107,96,23
1491090291489,0,3,17,66,39,46,-93,-91,6
1491090291491,1,2,12,-26,-128,-25,-6,29,21
1491090291491,1,-44,9,20,89,-65,-56,-55,-35
1491090291491,3,-3,22,20,20,-17,127,127,65
1491090291491,3,-15,-23,-120,13,42,-97,-101,-55
1491090291492,0,34,-29,27,15,26,-77,6,3
1491090291492,0,-18,-20,-34,-66,-68,53,-81,-28
1491090291538,1,5,62,81,127,119,-36,106,8
1491090291538,1,10,-30,-50,-36,-37,-52,-4,1
1491090291540,2,-2,-1,12,-105,-10,-35,19,23
1491090291540,2,8,10,6,89,32,14,-11,15
1491090291542,0,8,18,28,-69,5,24,-99,28
1491090291542,0,-25,-8,2,-32,-37,-79,-30,-88
1491090291542,1,-40,-39,1,18,34,97,-119,-5
1491090291542,1,47,65,-9,-62,-67,33,120,47
1491090291636,2,11,-26,46,104,74,-61,10,-38
1491090291636,2,1,48,30,39,21,1,16,-21
1491090291636,3,-32,-39,-53,-121,-100,66,6,-85
1491090291636,3,7,-2,90,106,109,-11,-31,48
1491090291637,0,-20,-15,-117,-104,-66,-85,-122,-58
1491090291637,0,-48,-4,5,-90,-81,21,17,62
1491090291638,1,-38,-45,-96,55,27,-91,40,-31
1491090291638,1,8,-38,1,-11,-44,-61,-29,-98
1491090291685,2,-10,37,53,-57,61,88,115,-45
1491090291685,2,61,-15,-9,127,-8,17,-123,-15
1491090291686,3,75,30,39,-40,-27,12,78,98
1491090291686,3,-58,-11,36,84,107,81,19,60
1491090291687,1,2,22,-51,-25,105,43,-84,-41
1491090291687,1,-23,-50,-54,127,-50,-94,-43,18
1491090291688,2,6,-9,-44,99,-9,-104,-121,65
1491090291688,2,4,3,-20,-84,24,14,95,22
1491090291733,3,-61,-51,-15,39,19,3,-19,-104
1491090291733,3,8,54,80,39,32,122,-12,-42
1491090291734,0,5,-3,-65,-63,25,27,7,38
1491090291734,0,-5,8,56,16,39,-7,-6,-64
1491090291782,3,2,-14,27,-29,-46,-114,2,-15
1491090291782,3,-28,39,108,93,65,60,7,-72
1491090291783,0,30,-3,-107,-110,-1,-59,117,47
1491090291783,0,-42,-43,-35,5,-7,29,-69,10
1491090291783,1,55,-5,47,1,26,-34,-64,23
1491090291783,1,-62,3,12,-103,-45,70,-35,-41
1491090291784,2,70,34,-12,112,24,-30,75,-29
1491090291784,2,-19,-17,24,-8,-6,43,-42,-17
1491090291831,0,-21,2,81,-42,24,113,-19,-41
1491090291831,0,-15,21,21,-119,-128,19,-12,-78
1491090291832,1,20,-1,-56,127,68,-1,-4,49
1491090291832,1,14,-26,-13,76,62,-79,23,6
1491090291833,2,-28,-14,-40,-22,-62,-75,6,7
1491090291833,2,16,14,8,2,-7,-67,-67,20
1491090291834,1,-18,-2,22,97,75,14,1,-4
1491090291834,1,25,-24,-21,-92,46,-20,0,20
1491090291879,2,-6,-35,-54,127,-102,-73,-56,-21
1491090291879,2,-9,-15,6,-5,3,-27,-3,19
1491090291881,3,20,40,23,51,23,63,18,-6
1491090291881,3,2,47,29,-68,-76,-72,110,46
1491090291882,2,-3,-30,-57,-107,24,-107,-38,-11
1491090291882,2,-1,-33,-54,113,-2,-58,-100,6
1491090291883,3,-6,19,127,40,-59,121,74,16
1491090291883,3,-50,13,-77,-64,-45,-7,23,-23
1491090291928,0,21,8,19,66,24,-92,-63,-24
1491090291928,0,30,13,-7,15,81,127,99,6
1491090291929,1,54,-8,-14,-75,-61,69,10,-28
1491090291929,1,8,19,-21,26,106,127,4,-11
1491090291930,2,-11,-9,61,78,-1,-9,111,83
1491090291930,2,-11,9,-80,-90,62,47,-13,-8
1491090291931,3,13,-14,-21,76,-40,-119,-68,25
1491090291931,3,-1,-20,-9,-21,-20,42,-86,25
1491090291977,0,8,0,-11,-53,-22,-59,7,-30
1491090291977,0,7,5,-1,-95,-42,127,-58,-3
1491090291978,1,-23,52,28,-128,-76,-119,-52,11
1491090291978,1,76,-50,-11,84,103,-10,43,48
1491090292026,3,-11,-53,-110,-92,-79,-72,-35,15
1491090292026,3,-41,-7,46,39,-37,-128,-128,-68
1491090292026,0,8,27,15,-81,-15,127,126,25
1491090292026,0,5,-15,-38,-17,81,47,-50,27
1491090292027,1,-15,54,113,72,62,-43,7,-31
1491090292027,1,92,-7,-73,-7,27,-127,6,74
1491090292028,2,-60,-51,-45,96,-42,48,2,-65
1491090292028,2,-14,50,112,-22,-44,63,-105,-12
1491090292074,0,13,25,-14,-44,-41,-55,17,-9
1491090292074,0,-3,-27,-35,-1,42,-104,53,10
1491090292075,1,1,18,89,43,-15,90,51,-8
1491090292075,1,-15,15,-25,-105,-67,52,-57,-10
1491090292076,2,-1,-16,65,87,109,77,14,-18
1491090292076,2,1,9,-98,-15,-86,-115,27,-42
1491090292077,1,44,-29,-85,-112,-81,-45,-88,-10
1491090292077,1,8,19,72,39,-54,107,-13,10
1491090292123,2,-6,36,-21,-117,15,-79,11,-22
1491090292123,2,-57,17,110,11,-31,14,76,9
1491090292124,3,-28,-26,-76,77,21,-22,-113,-19
1491090292124,3,26,-54,-8,2,-90,3,62,17
1491090292125,2,32,-24,-52,127,4,-119,-128,-47
1491090292125,2,-55,-50,-50,-18,-11,103,53,56
1491090292126,3,90,63,61,-69,17,60,-14,34
1491090292126,3,-40,-17,-7,-12,4,-22,-56,-4
1491090292172,0,-27,53,33,-61,15,-37,-2,-29
1491090292172,0,-6,15,72,127,33,19,17,-2
1491090292173,1,1,-29,-56,-114,-78,36,89,-17
1491090292173,1,15,28,38,-66,44,-53,127,-20
1491090292173,3,21,21,87,127,116,31,112,-29
1491090292173,3,24,-8,-75,-86,-11,39,13,-64
1491090292174,0,-22,0,44,67,8,4,-37,21
1491090292174,0,28,34,49,106,93,9,34,23
1491090292221,1,-88,-37,-20,-117,-128,-75,-128,-9
1491090292221,1,15,58,32,127,31,55,40,37
1491090292222,2,11,-24,-20,-105,-28,127,127,25
1491090292222,2,52,33,-16,-11,6,46,-60,25
1491090292223,0,11,-20,-39,-62,-33,59,2,84
1491090292223,0,45,12,-29,-72,-86,57,56,-54
1491090292224,1,5,-15,-29,24,38,-69,-53,69
1491090292224,1,-35,-26,12,86,47,86,88,11
1491090292269,2,20,67,17,-97,-104,110,-77,-46
1491090292269,2,-18,-68,-73,-37,-10,-124,-128,-20
1491090292270,3,-13,-13,16,1,44,-77,24,21
1491090292270,3,-3,-8,4,-5,23,-24,91,-29
1491090292271,1,-42,1,-55,39,-53,1,-91,-38
1491090292271,1,28,-6,49,-93,15,82,23,14
1491090292272,2,-27,-11,-50,46,-43,-7,87,29
1491090292272,2,79,4,5,60,30,-21,-8,-34
1491090292318,3,-35,18,-13,42,-6,-35,36,55
1491090292318,3,-24,-49,-18,-3,-2,101,-41,1
1491090292319,0,-28,37,29,-128,11,-29,-17,-47
1491090292319,0,2,-3,-10,15,27,-103,62,-25
1491090292320,1,-5,-12,11,-80,-33,53,-20,-38
1491090292320,1,-26,-9,-43,50,-16,-116,-12,24
1491090292321,2,5,-15,30,41,-3,-13,-58,-6
1491090292321,2,-21,-23,-30,-67,-23,25,8,-31
1491090292367,3,53,38,62,-21,36,127,20,56
1491090292367,3,-9,18,-85,-29,-9,-26,-10,-11
1491090292368,0,3,-67,-79,43,12,-128,-108,-31
1491090292368,0,17,4,38,0,28,108,124,19
1491090292368,2,-21,0,50,59,-44,49,96,44
1491090292368,2,-34,17,25,-85,26,-81,-124,-21
1491090292369,3,-17,-49,-109,-48,-108,-74,55,-2
1491090292369,3,91,2,53,61,-11,50,60,49
1491090292416,0,-26,60,-35,-39,-25,-20,22,-17
1491090292416,0,-12,-6,24,33,-57,94,-97,30
1491090292417,1,10,36,40,33,62,91,127,31
1491090292417,1,-28,-30,-55,-25,53,-128,-128,-74
1491090292418,3,54,18,31,72,102,-81,107,58
1491090292418,3,-11,42,102,12,23,127,31,42
1491090292419,0,33,3,-55,49,-60,-97,-66,-41
1491090292419,0,-21,5,48,39,-85,66,-91,22
1491090292464,1,-62,-47,-124,-93,-119,-128,-98,-64
1491090292464,1,38,8,86,100,46,117,98,-3
1491090292465,2,20,47,46,-34,121,-71,-107,22
1491090292465,2,-13,-27,-38,-5,-72,-128,96,-7
1491090292466,0,-52,-50,13,2,-9,-25,-98,-48
1491090292466,0,22,13,-38,-43,33,57,127,4
1491090292467,1,-10,0,46,26,-16,86,22,-36
1491090292467,1,19,64,88,28,-64,127,68,21
1491090292513,2,14,10,-83,-34,55,15,63,44
1491090292513,2,-57,-83,-42,95,39,-125,-119,-34
1491090292514,3,-7,4,47,-107,-6,95,64,-22
1491090292514,3,-20,23,-18,124,-74,-104,-57,-5
1491090292517,1,-52,-12,-22,-48,-1,23,15,-40
1491090292517,1,20,2,0,-92,24,57,-12,36
1491090292517,2,-9,14,38,-63,-98,40,-56,-24
1491090292517,2,5,-7,-42,-16,30,-51,91,-16
1491090292562,3,0,-53,-46,127,-9,67,-10,-29
1491090292562,3,1,63,5,-101,-113,-16,-28,15
1491090292563,0,0,-10,-20,102,78,-84,5,-15
1491090292563,0,13,5,22,-122,0,-89,10,2
1491090292563,2,-15,-23,-20,-44,-26,127,102,7
1491090292563,2,-4,25,18,-66,-43,97,-9,23
1491090292564,3,-30,18,14,-14,29,-78,-8,7
1491090292564,3,-28,-55,-47,0,59,-43,-15,-47
1491090292611,0,66,77,127,-28,-33,72,-19,14
1491090292611,0,-8,-17,-78,127,41,93,77,8
1491090292611,1,22,-3,12,44,14,-128,-119,-5
1491090292611,1,34,-31,-85,-114,-29,-2,57,36
1491090292612,3,-42,-59,-81,28,-63,-104,-116,-65
1491090292612,3,2,-18,2,49,69,124,127,46
1491090292613,0,79,11,-16,83,-37,68,-31,28
1491090292613,0,10,23,17,-64,14,-42,-51,-28
1491090292659,1,-16,19,35,75,126,-77,-33,-6
1491090292659,1,17,10,-7,-111,-24,19,-62,4
1491090292660,2,-31,-33,-65,-91,-64,-77,-24,-7
1491090292660,2,-26,-20,15,94,13,-29,-28,-37
1491090292661,3,36,54,0,-89,-37,82,121,41
1491090292661,3,6,42,17,-54,-30,-108,-82,-62
1491090292662,0,-19,-21,-25,127,101,11,74,-34
1491090292662,0,-52,-49,-8,-74,-64,6,63,-22
1491090292710,1,22,0,-20,66,79,-19,-12,-41
1491090292710,1,6,-11,25,53,-66,127,-71,19
1491090292711,2,14,3,-3,-35,72,-10,106,16
1491090292711,2,24,44,50,45,11,-119,-128,22
1491090292712,0,10,-30,24,-21,22,86,63,17
1491090292712,0,-11,-12,-31,127,-30,12,-22,-6
1491090292713,1,22,32,61,-47,-80,127,79,-12
1491090292713,1,-13,0,-4,-51,4,-107,-11,38
1491090292757,2,-46,-19,-10,39,54,-88,-32,-55
1491090292757,2,2,11,116,13,22,127,92,30
1491090292758,3,16,-3,-127,-8,-5,-128,-128,6
1491090292758,3,-68,-60,-38,-19,-92,19,127,-52
1491090292759,1,-27,1,-35,-66,-53,-82,10,-14
1491090292759,1,23,-67,-59,-31,-3,12,67,1
1491090292761,2,-41,-8,-11,-30,27,-121,-93,-4
1491090292761,2,58,13,-17,47,54,95,106,45
1491090292806,3,-8,19,46,-19,-27,101,-31,8
1491090292806,3,-44,26,38,59,14,-73,-17,-22
1491090292807,0,-32,16,77,9,5,108,-36,-14
1491090292807,0,5,-3,-25,-107,-61,-78,12,52
1491090292808,2,-50,3,-81,-17,70,103,37,-2
1491090292808,2,42,-16,-15,95,124,-128,39,-27
1491090292808,3,57,15,61,-48,21,36,-37,53
1491090292808,3,-20,-6,-2,-22,-45,94,47,-15
1491090292854,0,22,-5,-2,-50,-65,-113,-41,-34
1491090292854,0,-30,25,-3,13,55,66,15,-47
1491090292855,1,13,-29,-35,-88,-29,16,45,101
1491090292855,1,-40,-4,8,61,26,-5,-107,-36
1491090292855,3,-43,-32,38,127,124,39,65,-23
1491090292855,3,47,35,90,34,82,101,-101,-10
1491090292857,0,-19,9,-101,-15,-56,-84,-12,18
1491090292857,0,29,-33,-20,104,39,-128,23,-32
1491090292903,1,-44,13,60,-101,-74,102,-38,-43
1491090292903,1,32,15,-14,-61,35,57,-41,25
1491090292904,2,39,6,62,-7,25,40,84,-13
1491090292904,2,3,-5,-50,-30,-28,-47,-128,7
1491090292904,0,-2,10,40,115,-3,56,-75,1
1491090292904,0,44,17,-16,25,14,115,92,46
1491090292905,1,-9,-39,14,-13,48,-101,51,-13
1491090292905,1,-35,52,92,39,5,30,-12,83
1491090292952,2,10,-6,-4,-70,-18,-1,43,-9
1491090292952,2,-7,-9,44,116,94,-21,32,8
1491090292953,3,28,35,-40,-22,41,-83,-59,0
1491090292953,3,-71,-76,-70,-4,-7,-32,69,-44
1491090292954,1,-21,18,41,39,118,-99,-128,26
1491090292954,1,-32,8,84,80,105,55,127,32
1491090292955,2,16,-3,-72,-42,-61,-80,44,1
1491090292955,2,-15,19,-56,-54,-48,-104,-34,21
1491090293001,3,-12,-30,-41,1,-23,72,-72,-9
1491090293001,3,11,-22,12,96,17,-116,-62,-11
1491090293001,0,9,40,65,-2,47,127,120,42
1491090293001,0,7,47,108,-22,45,61,-72,16
1491090293002,1,42,34,-6,-94,14,63,114,16
1491090293002,1,-4,-27,5,25,39,-73,-104,-27
1491090293003,2,-68,-51,-93,-75,-56,-58,82,42
1491090293003,2,33,-25,-74,71,59,-113,-72,-50
1491090293049,3,13,3,40,-32,-93,57,7,-16
1491090293049,3,1,-16,-41,35,18,33,-18,58
1491090293050,0,-29,7,2,-24,-53,-91,13,-35
1491090293050,0,-7,-19,4,-98,-19,-33,-73,-7
1491090293051,2,-27,3,28,127,117,29,-128,-1
1491090293051,2,35,-28,-50,53,-11,15,94,58
1491090293052,3,37,31,84,35,28,49,3,0
1491090293052,3,-48,7,-100,-128,-72,-105,69,-35
1491090293098,0,7,-64,-48,59,-44,-83,2,-55
1491090293098,0,-32,-7,73,18,-14,58,-81,36
1491090293099,1,-7,-17,-92,-37,-72,68,-8,-43
1491090293099,1,6,-4,-25,89,-28,-50,51,25
1491090293100,3,-7,-8,-13,-65,-54,-118,-104,1
1491090293100,3,-3,9,66,33,90,85,94,-24
1491090293101,0,113,55,-49,-102,-18,38,11,49
1491090293101,0,-66,-63,-17,-9,-57,82,-27,-23
1491090293196,1,-11,71,28,-19,29,-53,-54,1
1491090293196,1,28,-33,-9,4,44,45,31,-6
1491090293196,2,1,3,26,106,120,29,-65,-29
1491090293196,2,78,-3,-45,-69,-28,22,79,56
1491090293197,0,17,45,38,-77,-81,-86,-24,18
1491090293197,0,-41,-4,28,-106,-57,-55,-49,-28
1491090293198,1,42,-4,9,127,78,-87,10,-5
1491090293198,1,-19,38,54,-1,25,106,-3,24
1491090293244,2,35,12,3,-113,-89,-78,103,98
1491090293244,2,36,-11,-66,119,120,-107,-128,-49
1491090293245,3,-33,-58,76,43,-9,90,125,-40
1491090293245,3,15,4,-71,-118,-7,90,20,62
1491090293246,1,54,-5,-38,-67,0,21,4,-16
1491090293246,1,-15,14,66,43,-13,56,54,-11
1491090293247,2,-22,-35,-26,-47,25,67,26,-48
1491090293247,2,-38,-2,-12,-28,-46,6,8,-41
1491090293293,3,13,-16,-36,127,0,-99,20,85
1491090293293,3,39,55,34,-62,-30,64,50,-35
1491090293294,0,-23,-29,21,93,44,91,0,-15
1491090293294,0,15,54,127,48,86,8,58,-2
1491090293295,3,-16,-50,-40,119,55,8,44,-82
1491090293295,3,16,19,-30,-93,-2,-76,-65,43
1491090293296,0,-10,-33,27,36,12,34,45,-27
1491090293296,0,-33,33,84,40,64,127,-36,-1
1491090293342,1,15,8,-58,-128,-111,17,76,35
1491090293342,1,-56,-41,-21,116,54,-90,-58,-30
1491090293343,2,24,-11,-30,-41,-9,66,-26,-16
1491090293343,2,-5,16,67,77,70,-94,72,-28
1491090293344,3,5,18,-28,-46,34,-36,25,23
1491090293344,3,41,-33,-44,85,-50,5,-54,34
1491090293345,0,11,35,17,-13,-50,13,-24,14
1491090293345,0,11,-17,-13,-54,47,-44,-45,-16
1491090293391,1,8,9,35,89,-11,96,81,16
1491090293391,1,-8,39,23,-66,31,-87,-44,-54
1491090293391,2,-73,-38,-9,56,12,69,55,-16
1491090293391,2,34,9,-100,-32,23,-31,-44,-18
1491090293392,0,-27,-10,83,127,19,11,-128,-26
1491090293392,0,-2,16,-110,-128,-128,-78,103,0
1491090293393,1,7,-28,43,28,39,37,89,8
1491090293393,1,-20,-13,-29,17,-61,95,39,10
1491090293439,2,16,27,7,-97,24,-120,-93,-43
1491090293439,2,23,5,76,-21,24,127,76,24
1491090293440,3,-24,0,-34,30,-23,8,-66,-30
1491090293440,3,-9,-33,-17,-49,-32,-44,-53,18
1491090293441,1,1,6,56,85,76,127,38,2
1491090293441,1,97,36,16,40,86,-75,-83,15
1491090293442,2,-59,-70,-128,-19,-51,57,94,-2
1491090293442,2,10,-7,-45,-59,33,-66,-85,-28
1491090293488,3,-13,-15,80,8,2,85,75,10
1491090293488,3,26,63,-11,-44,-49,-64,-100,1
1491090293489,0,16,-7,-31,106,87,-78,-86,2
1491090293489,0,12,17,50,17,-29,111,101,50
1491090293490,2,-23,-60,-71,94,-31,-128,45,2
1491090293490,2,-13,-52,-42,20,-116,31,-118,7
1491090293490,3,18,58,-24,-22,-35,-29,-11,-47
1491090293490,3,17,-24,81,48,106,127,97,77
1491090293537,0,5,31,9,-123,-2,-36,13,-43
1491090293537,0,-32,-52,-32,-77,-2,-127,-59,-13
1491090293538,1,1,27,36,30,-24,65,7,25
1491090293538,1,23,-4,40,-33,17,-79,-61,15
1491090293538,3,-29,-47,-128,-128,29,-44,-70,-48
1491090293538,3,72,-47,-39,98,-5,-3,127,17
1491090293539,0,-2,3,53,29,79,102,-29,13
1491090293539,0,-38,1,56,22,-53,-22,-38,-23
1491090293586,1,16,-1,-28,-94,25,-80,-16,-48
1491090293586,1,-69,10,39,28,-14,111,127,-67
1491090293587,2,24,-3,21,46,58,-59,-29,26
1491090293587,2,11,-8,-44,-89,-87,31,54,-4
1491090293587,0,12,56,56,116,53,-8,8,21
1491090293587,0,22,2,16,127,127,-70,64,-7
1491090293588,1,-12,-33,-56,-61,-104,-11,-22,52
1491090293588,1,-36,-47,-71,-78,-64,-128,-114,-93
1491090293634,2,63,38,102,-13,-11,127,82,51
1491090293634,2,18,15,-57,-101,27,93,-52,10
1491090293635,3,-10,-19,-18,-16,-24,-70,-87,-46
1491090293635,3,-57,8,52,8,-18,117,-86,23
1491090293636,1,-15,-1,83,43,-21,6,127,33
1491090293636,1,-15,-9,-58,56,12,80,-70,22
1491090293637,2,23,4,-7,35,-33,-110,60,-31
1491090293637,2,32,1,49,84,59,52,127,46
1491090293683,3,4,9,-44,-49,-41,-56,-128,19
1491090293683,3,-28,-29,22,-44,-40,87,25,13
1491090293684,0,-40,61,-32,-128,-66,-4,-91,-59
1491090293684,0,13,-85,-101,114,20,-73,-20,28
1491090293685,2,-30,14,-11,19,50,-65,-128,-10
1491090293685,2,20,-26,-16,29,25,107,81,29
1491090293686,3,-2,-20,-16,-34,-26,29,-68,-3
1491090293686,3,2,46,47,36,-1,103,118,-6
1491090293732,0,-28,-2,10,-62,-31,-67,-116,14
1491090293732,0,62,20,-8,3,45,86,79,85
1491090293733,1,16,-51,-73,-61,-58,-15,-5,-8
1491090293733,1,-36,-49,-38,99,-32,-128,-30,-37
1491090293733,2,20,65,38,-76,-19,119,35,-58
1491090293733,2,-50,-7,2,-23,-22,-128,-32,-22
1491090293734,3,-5,-20,-67,-82,-5,-67,-44,-17
1491090293734,3,32,17,-29,-106,-68,-30,46,35
1491090293829,0,-33,-31,9,-3,68,127,80,59
1491090293829,0,-36,-7,6,56,-50,-28,-128,-40
1491090293830,1,-14,29,58,36,37,41,112,-50
1491090293830,1,13,38,58,-90,-21,-15,-117,12
1491090293831,3,-2,19,-2,-26,127,-128,-74,54
1491090293831,3,40,10,26,75,89,50,110,6
1491090293832,0,-33,-52,-67,-98,-65,-91,-83,-43
1491090293832,0,-3,-9,-28,-30,-31,112,74,29
1491090293878,1,8,4,36,10,-65,-47,-42,21
1491090293878,1,20,68,40,20,59,-9,11,22
1491090293879,2,34,-13,64,-58,0,34,69,29
1491090293879,2,-68,40,-2,18,-42,75,-82,-60
1491090293880,1,-33,-64,-64,13,-68,-4,18,-33
1491090293880,1,32,7,-30,-67,-59,57,-97,-18
1491090293881,2,-5,20,100,112,69,-14,79,27
1491090293881,2,-5,40,12,-77,1,-8,40,5
1491090293927,3,-20,-3,-16,-128,-80,-68,-128,-50
1491090293927,3,-13,-44,-1,127,58,13,15,36
1491090293928,0,50,21,-25,-120,-96,61,-128,-8
1491090293928,0,-20,-27,83,105,56,127,98,8
1491090293929,2,3,-51,-45,-36,-107,39,19,-16
1491090293929,2,10,15,41,68,70,70,-28,31
1491090293930,3,-48,3,-12,-12,-65,14,-24,-36
1491090293930,3,2,-14,47,-41,16,73,-26,7
1491090293976,0,9,60,34,-1,-54,53,69,10
1491090293976,0,11,-1,-43,-57,-19,-51,-63,20
1491090293977,1,-68,-34,-10,-45,30,-9,40,-44
1491090293977,1,71,18,72,-57,-19,4,66,35
1491090293978,3,-36,-17,-5,119,13,-76,-105,-60
1491090293978,3,63,26,112,117,44,25,99,16
1491090293979,0,-34,-37,-59,-101,-35,-77,-92,-13
1491090293979,0,-11,9,17,39,3,-5,5,-71
1491090294024,1,1,-7,28,4,63,87,-16,74
1491090294024,1,-45,19,-53,-113,-104,-37,15,-32
1491090294026,2,33,2,33,46,10,1,83,5
1491090294026,2,-18,5,10,-36,17,0,-128,-15
1491090294027,0,-23,-13,-39,-70,-97,46,-2,-61
1491090294027,0,-3,-61,-24,67,68,-106,92,-9
1491090294028,1,7,24,28,-85,-85,-32,-66,-22
1491090294028,1,43,17,29,-41,29,67,127,23
1491090294074,2,2,45,35,30,-18,-128,-26,-31
1491090294074,2,-3,13,-28,-70,3,66,-4,51
1491090294075,3,-17,-51,-105,-75,-55,42,40,-80
1491090294075,3,-13,-10,7,127,98,12,-34,43
1491090294076,0,-41,-20,27,22,-36,32,-128,-12
1491090294076,0,-19,25,59,39,5,109,116,-6
1491090294081,1,20,17,8,-75,-23,-65,44,14
1491090294081,1,-36,3,-5,-19,-63,-36,-79,-53
1491090294122,2,1,-37,-54,49,74,71,-14,20
1491090294122,2,12,-10,-31,122,-65,-118,-128,-21
1491090294125,3,-29,3,-11,-101,-25,87,49,28
1491090294125,3,49,2,63,98,49,83,-27,37
1491090294126,1,16,2,-33,-30,31,-64,-53,7
1491090294126,1,-51,-36,-27,53,21,-46,-8,-52
1491090294127,2,-43,-2,20,-73,-24,45,-10,-9
1491090294127,2,-21,-19,41,77,10,40,1,-6
1491090294171,3,58,32,21,-33,20,127,110,65
1491090294171,3,-47,-44,-128,31,-75,-128,-128,-75
1491090294172,0,88,-10,10,-43,-5,71,22,82
1491090294172,0,-29,5,28,22,6,82,36,-25
1491090294174,2,-5,-27,-58,-35,-62,-83,62,-22
1491090294174,2,4,32,-36,10,-55,54,-113,40
1491090294175,3,46,-79,-79,126,70,-82,-84,-43
1491090294175,3,-80,-1,28,-6,30,22,124,18
1491090294219,0,-52,53,68,93,37,60,-65,-27
1491090294219,0,44,21,-9,-128,-91,127,108,29
1491090294220,1,-68,20,70,127,74,-29,-105,48
1491090294220,1,126,-7,-84,-87,-6,-114,-23,-44
1491090294222,3,16,49,71,43,6,127,-19,19
1491090294222,3,-35,6,-55,-10,46,-55,-85,25
1491090294224,0,28,-43,-38,127,60,-12,106,23
1491090294224,0,-48,-27,-12,-104,-74,-61,-47,-46
1491090294268,1,-7,-7,-33,-22,-23,-36,-7,-34
1491090294268,1,-11,6,29,-24,23,127,127,26
1491090294271,2,21,67,63,-39,58,-128,2,-28
1491090294271,2,5,12,34,103,119,-4,25,12
1491090294272,0,-93,-52,-14,55,26,19,-107,-39
1491090294272,0,47,23,49,0,44,23,91,22
1491090294273,1,61,77,102,55,-31,103,33,6
1491090294273,1,-51,-26,-60,2,62,-47,28,-51
1491090294317,2,79,-16,-2,66,21,-69,76,67
1491090294317,2,-25,33,-44,-83,20,30,-128,-12
1491090294318,3,-30,-84,-123,119,-12,-78,-17,-26
1491090294318,3,37,1,36,79,-62,-74,28,19
1491090294319,1,75,25,25,-114,3,70,105,55
1491090294319,1,7,39,59,3,7,-7,-70,18
1491090294320,2,-49,12,67,14,8,-32,33,-57
1491090294320,2,58,-20,-21,3,15,-8,48,49
1491090294366,3,-35,-40,-74,-45,-10,-98,-98,-100
1491090294366,3,-26,-6,66,38,16,34,-20,44
1491090294367,0,-20,21,-38,-14,-54,43,-89,-40
1491090294367,0,36,-5,17,106,-1,-15,17,21
1491090294367,2,7,0,4,-97,-104,61,-37,-33
1491090294367,2,-69,13,52,-21,74,-28,-7,11
1491090294368,3,-30,6,-26,-83,-37,-62,-48,23
1491090294368,3,3,-2,-23,-104,17,-4,127,4
1491090294463,0,-5,-6,-25,-49,11,127,-78,21
1491090294463,0,-19,-3,4,15,-100,-109,-34,-32
1491090294464,1,-28,10,6,-37,-7,-67,-59,28
1491090294464,1,-12,-14,50,38,61,-12,-50,-7
1491090294465,2,0,5,-49,-49,-55,-54,-112,3
1491090294465,2,39,-33,5,25,17,81,108,18
1491090294466,3,-30,84,61,-106,-49,110,114,8
1491090294466,3,17,-20,-70,108,23,-88,-75,9
1491090294512,0,24,-61,-16,19,53,-128,28,21
1491090294512,0,16,49,23,-111,-18,37,-34,-1
1491090294513,1,-14,-34,-53,-23,-30,31,-86,23
1491090294513,1,-14,-11,-49,-1,8,-47,46,-29
1491090294513,0,53,-5,10,-20,-7,83,56,40
1491090294513,0,-66,11,34,48,-41,59,-104,-34
1491090294514,1,25,-32,-37,-44,13,-43,127,4
1491090294514,1,36,38,124,45,18,53,-51,-3
1491090294561,2,-94,15,-83,-123,-92,-88,-83,-41
1491090294561,2,33,-71,-102,106,-103,-106,22,17
1491090294561,3,-7,-33,34,124,38,-57,-27,-81
1491090294561,3,-34,-5,-4,16,30,81,127,52
1491090294562,1,-14,20,73,-55,23,83,-20,38
1491090294562,1,-11,26,-56,50,-49,49,34,31
1491090294563,2,32,-3,-9,-42,-8,-32,-102,-26
1491090294563,2,-1,21,29,71,34,-87,61,11
1491090294609,3,20,4,38,24,30,-58,34,29
1491090294609,3,-7,-22,-77,-128,-91,72,63,-12
1491090294610,0,-56,2,-20,127,83,-65,-61,37
1491090294610,0,76,12,52,8,127,27,65,-82
1491090294611,2,72,49,9,-79,-74,46,-37,3
1491090294611,2,-73,5,28,91,70,-1,-71,-10
1491090294612,3,69,-2,0,10,-14,42,56,68
1491090294612,3,21,28,-11,-35,-18,-81,-89,8
1491090294658,0,33,-45,-36,117,57,26,127,-22
1491090294658,0,-34,7,14,-128,-52,48,-71,24
1491090294659,1,-38,6,43,127,-13,127,48,-73
1491090294659,1,77,33,0,-38,38,9,-56,52
1491090294659,3,55,-6,53,3,-24,55,13,39
1491090294659,3,-7,9,-29,73,13,31,15,-83
1491090294660,0,64,-7,7,-57,-93,117,71,53
1491090294660,0,-35,0,-9,-89,-61,-79,-97,-29
1491090294707,1,-14,-33,-54,71,77,-51,24,-16
1491090294707,1,-21,-22,49,-53,57,57,-21,1
1491090294708,2,-54,-13,-6,52,6,127,-25,-49
1491090294708,2,50,48,49,32,34,-107,31,70
1491090294709,0,-4,-18,-26,-82,-72,-73,-41,-12
1491090294709,0,16,0,-21,86,26,-9,-110,52
1491090294709,1,18,14,47,107,93,127,78,4
1491090294709,1,-35,-3,-9,42,-23,-128,-60,9
1491090294756,2,-6,18,28,75,82,101,2,19
1491090294756,2,-13,4,73,71,27,34,85,12
1491090294756,3,-6,-17,-48,-54,109,-128,-88,-22
1491090294756,3,-44,-58,-93,-101,-107,-90,-74,-22
1491090294757,1,-53,-10,-57,-65,-114,-27,1,-12
1491090294757,1,7,6,36,37,17,-64,-89,-64
1491090294758,2,61,-31,-13,32,18,35,90,52
1491090294758,2,-39,31,47,-64,46,87,30,-24
1491090294804,3,-1,-15,-8,92,37,-58,-55,-63
1491090294804,3,17,-28,-62,-118,-78,116,11,6
1491090294806,0,0,10,63,123,82,-128,-68,-40
1491090294806,0,5,4,-55,-84,-50,-104,-102,43
1491090294806,1,-49,-21,-61,-40,-117,-20,-4,-112
1491090294806,1,91,35,127,47,-4,85,110,117
1491090294807,2,-76,25,-51,70,87,109,-37,-35
1491090294807,2,40,-45,-77,-2,11,19,66,-9
1491090294854,3,-34,31,33,2,28,-80,-128,25
1491090294854,3,7,13,13,6,-54,28,52,27
1491090294856,0,-6,14,22,-57,-101,58,45,-12
1491090294856,0,-74,-12,28,-34,4,12,-13,-8
1491090294857,2,-25,9,31,-48,13,-2,-23,-5
1491090294857,2,-46,6,-10,101,-14,3,32,-28
1491090294858,3,-29,-5,61,-104,-75,127,9,-59
1491090294858,3,5,-12,-109,40,-87,-41,83,1
1491090294902,0,-40,-52,-41,24,-53,-72,-113,-11
1491090294902,0,20,-19,-14,73,2,-2,0,35
1491090294903,1,9,10,62,37,32,58,41,25
1491090294903,1,-3,63,76,-99,-29,82,45,-30
1491090294903,3,7,14,-14,-41,-20,27,17,50
1491090294903,3,-71,-26,-16,-5,71,36,-93,-3
1491090294904,0,13,35,72,-87,-56,100,104,-32
1491090294904,0,39,0,-73,31,-28,-92,-47,16
1491090294951,1,-25,-3,10,59,26,-29,50,8
1491090294951,1,-36,-14,-40,-29,-3,7,-107,-30
1491090294951,2,-31,-26,2,26,-37,-110,4,4
1491090294951,2,35,26,44,-47,-10,-51,43,72
1491090294952,0,-43,-11,-12,65,71,-73,85,57
1491090294952,0,28,-8,59,112,32,89,11,-59
1491090294953,1,12,33,10,-128,-115,105,-14,7
1491090294953,1,-38,-4,11,101,77,66,-4,-8
1491090294999,2,-14,-25,-42,-40,21,51,30,0
1491090294999,2,-11,14,-1,-9,-40,-128,-128,-73
1491090295000,3,-5,4,-18,-30,-18,66,-5,-23
1491090295000,3,32,-18,-65,-48,-25,-128,122,80
1491090295001,1,-17,14,34,-58,15,-97,-128,-18
1491090295001,1,-1,15,80,58,43,29,106,7
1491090295002,2,-4,7,-24,-86,-26,-5,21,8
1491090295002,2,35,30,78,93,67,102,26,24
1491090295048,3,-19,-22,-35,-10,-128,-102,-66,-1
1491090295048,3,31,11,-40,-35,82,41,-7,17
1491090295049,0,-34,3,49,-121,31,-39,-91,-12
1491090295049,0,-62,-37,-70,94,14,-128,-128,-65
1491090295049,2,29,47,47,-88,-86,54,117,-5
1491090295049,2,-22,-8,-13,52,10,-3,-20,-6
1491090295050,3,-17,13,-1,-23,28,13,46,23
1491090295050,3,3,-28,-32,42,-18,-93,12,-27
1491090295146,0,-6,-15,-9,119,72,23,27,-47
1491090295146,0,19,24,37,-82,-50,92,-2,46
1491090295146,1,14,-45,-103,0,-65,-76,80,41
1491090295146,1,39,-7,12,-20,49,-63,-76,0
1491090295148,3,29,22,62,4,39,91,87,-1
1491090295148,3,-5,8,15,-44,-85,127,9,-6
1491090295149,0,-18,-51,-95,-12,-27,-66,-14,-1
1491090295149,0,-8,-31,-15,-58,-1,-27,-56,-28
1491090295194,1,-21,7,-20,-27,1,5,-39,-26
1491090295194,1,63,3,15,101,-27,41,24,30
1491090295195,2,-1,43,36,-63,-4,-40,-35,41
1491090295195,2,-14,16,-16,-25,-37,17,-7,-22
1491090295196,3,-15,-59,-64,77,80,-128,-104,-19
1491090295196,3,-30,-16,27,31,33,-115,-47,-20
1491090295197,0,-68,-90,-95,99,-26,-128,-101,-51
1491090295197,0,32,27,40,62,15,127,106,14
1491090295243,1,-53,22,-25,51,38,-101,-128,-3
1491090295243,1,94,70,27,19,-11,-11,43,111
1491090295244,2,-38,14,102,66,-32,88,94,-13
1491090295244,2,19,8,-82,-82,-113,-65,-108,12
1491090295245,1,49,54,110,30,43,-50,-31,10
1491090295245,1,-49,-4,-7,-128,-60,59,-35,-24
1491090295246,2,48,42,10,64,69,-27,25,-37
1491090295246,2,26,22,63,-76,-61,49,83,59
1491090295292,3,-14,3,-26,-67,-40,73,-11,-8
1491090295292,3,-28,-57,-71,105,-27,-64,-52,-14
1491090295292,0,-6,-5,27,75,88,-69,-17,-6
1491090295292,0,18,-23,-66,-4,73,-93,-127,-20
1491090295293,2,-54,8,24,15,38,77,-43,-7
1491090295293,2,48,26,-38,-70,-62,-71,-96,-16
1491090295294,3,-85,-44,42,127,127,-26,55,-13
1491090295294,3,-71,0,-4,-68,-85,-28,-39,3
1491090295341,0,109,-40,-59,-78,-81,13,16,38
1491090295341,0,-63,4,-31,-51,31,73,70,-28
1491090295342,1,20,-31,-62,82,-15,-53,-106,56
1491090295342,1,-22,2,63,79,95,-45,41,-42
1491090295343,3,27,1,6,65,55,-59,9,-55
1491090295343,3,3,35,23,-80,-49,19,30,72
1491090295389,0,57,-55,-76,-28,-128,83,-76,-3
1491090295389,0,-60,18,26,8,29,-36,99,-29
1491090295390,1,32,3,-45,49,103,-113,-128,22
1491090295390,1,19,-5,62,95,45,93,112,4
1491090295391,2,-28,15,-20,-127,-71,111,98,0
1491090295391,2,6,11,33,-1,-63,-121,-128,22
1491090295392,0,-40,21,-46,-14,-54,-128,-60,-80
1491090295392,0,58,-47,-48,127,126,11,88,51
1491090295438,1,-55,-33,-26,-128,-128,48,22,9
1491090295438,1,-4,17,-13,4,-28,45,-59,-39
1491090295439,2,-45,2,78,127,67,-109,-71,4
1491090295439,2,26,13,-5,-59,61,117,61,-24
1491090295439,3,85,49,33,-70,-43,-39,16,38
1491090295439,3,-73,-21,13,-29,-4,29,63,-19
1491090295440,1,-62,1,-6,-20,-48,90,-79,-15
1491090295440,1,55,9,-17,17,55,-128,-51,-14
1491090295487,2,-57,-39,4,58,80,-13,117,5
1491090295487,2,17,41,90,-80,48,-13,-72,-55
1491090295488,3,22,-15,-55,119,-47,-60,71,13
1491090295488,3,-58,-16,18,8,-60,-41,-95,-7
1491090295489,1,-51,-2,-3,78,41,7,-55,-47
1491090295489,1,3,3,-4,-88,-29,5,19,-15
1491090295536,2,52,1,38,127,107,18,35,36
1491090295536,2,-44,-10,16,64,32,-88,-24,-23
1491090295536,3,-15,-1,10,-54,-22,-45,-110,-17
1491090295536,3,18,17,23,-124,-46,30,102,34
1491090295537,0,17,53,81,66,56,127,-28,21
1491090295537,0,44,-15,-110,-126,29,33,127,35
1491090295538,2,-20,-4,-16,-35,-22,-71,-78,-72
1491090295538,2,-29,-24,57,30,-30,62,27,67
1491090295589,3,4,42,60,109,87,103,4,-6
1491090295589,3,32,-5,-63,-6,-32,59,-43,3
1491090295590,0,16,4,-6,-14,18,-39,-126,-3
1491090295590,0,-66,-3,-17,-57,-60,-63,-52,-35
1491090295590,3,8,5,10,-128,-94,104,99,47
1491090295590,3,-17,7,-79,111,127,-117,-34,-47
1491090295591,0,82,-41,-17,-13,-7,35,-42,19
1491090295591,0,-50,21,20,-90,-6,108,-44,-98
1491090295633,1,-1,29,62,35,19,72,42,5
1491090295633,1,71,29,58,-3,51,73,52,13
1491090295636,2,-47,-48,-95,61,-57,-49,-12,16
1491090295636,2,-18,-22,-32,15,-30,-10,-91,-30
1491090295637,0,11,1,23,12,-3,106,66,36
1491090295637,0,53,46,73,108,78,-16,21,8
1491090295637,1,-8,36,-29,-81,11,-44,75,22
1491090295637,1,-67,-72,-67,73,-46,64,-85,-26
1491090295682,2,97,9,26,-106,-44,-82,9,9
1491090295682,2,-67,-56,-38,127,28,-118,-12,-63
1491090295685,3,76,54,90,-79,58,-21,88,55
1491090295685,3,-33,-27,-53,-128,-47,-28,11,-32
1491090295686,1,-33,-25,-121,-46,-47,-123,-128,-60
1491090295686,1,-6,-16,35,86,65,54,17,-10
1491090295686,2,-31,-11,7,-102,-101,71,-89,-25
1491090295686,2,26,43,79,89,97,-76,101,61
1491090295731,3,-31,12,-47,-63,113,-76,-93,-30
1491090295731,3,40,-29,-14,44,-47,-23,-4,52
1491090295731,0,-26,-2,-15,-106,26,85,-38,-36
1491090295731,0,-18,48,-37,-128,-128,127,-43,12
1491090295732,2,28,6,65,83,105,-111,-93,13
1491090295732,2,37,4,-57,-123,-40,18,119,58
1491090295733,3,-73,-40,0,107,19,-128,-43,-23
1491090295733,3,-15,15,46,-88,73,-12,-76,-6
1491090295779,0,40,36,35,90,15,-69,127,29
1491090295779,0,2,6,56,98,-24,-44,-101,-5
1491090295780,1,-49,-66,-51,-71,-17,116,71,-33
1491090295780,1,9,5,-51,99,-17,-24,7,49
1491090295782,3,52,25,59,-23,8,89,-3,63
1491090295782,3,0,12,62,-64,-66,127,-24,-54
1491090295828,0,-22,18,33,78,56,31,127,34
1491090295828,0,-15,-4,-39,27,52,-120,-128,-59
1491090295829,1,-9,-22,-54,3,-24,-66,-30,-26
1491090295829,1,-21,7,-37,-128,-81,-24,-31,2
1491090295829,2,-3,1,-23,-79,-123,110,35,30
1491090295829,2,-8,-62,-93,89,-55,-52,-79,-38
1491090295831,3,75,3,28,98,127,51,65,16
1491090295831,3,-68,5,30,-17,3,-3,-46,-12
1491090295877,0,2,10,20,-86,-63,127,57,-12
1491090295877,0,-5,42,21,49,30,-24,26,57
1491090295877,1,-42,-25,-13,-23,58,-128,36,-46
1491090295877,1,22,22,99,127,11,60,-97,23
1491090295878,0,61,42,14,106,79,-71,-111,-9
1491090295878,0,-25,-36,-77,-128,60,8,72,-17
1491090295879,1,-63,-19,3,127,1,76,-59,-17
1491090295879,1,-20,-7,-32,-62,20,-99,51,-32
1491090295926,2,78,17,1,101,70,-115,21,96
1491090295926,2,-17,5,39,-55,-38,-8,30,-51
1491090295926,3,-26,19,84,94,14,70,-79,-2
1491090295926,3,21,23,-9,-75,-39,-124,113,75
1491090295927,1,16,-22,-51,12,-119,8,19,13
1491090295927,1,-4,36,33,64,-1,-92,-8,13
1491090295928,2,9,-7,-1,-94,8,-128,-95,13
1491090295928,2,-62,5,115,94,55,13,-2,11
1491090295974,3,37,32,8,-57,39,39,88,0
1491090295974,3,-2,-59,-87,23,-24,-7,-69,3
1491090295975,0,-22,26,52,-111,-79,84,-90,-34
1491090295975,0,9,7,23,59,-128,127,-80,-2
1491090295976,2,-29,-26,-17,53,127,89,-63,31
1491090295976,2,-36,14,39,-45,-79,127,-109,-14
1491090295977,3,-6,16,60,64,7,-9,107,21
1491090295977,3,92,43,-9,-128,-68,111,55,-41
1491090296023,0,-30,-36,-41,19,-22,-128,67,-50
1491090296023,0,-4,5,-9,-15,14,23,13,0
1491090296024,1,24,55,100,86,-64,89,62,39
1491090296024,1,-58,-29,-88,-97,-27,-1,40,-26
1491090296025,3,-20,-14,27,-69,-84,-28,-61,9
1491090296025,3,22,31,68,80,83,14,10,-18
1491090296025,0,1,-3,2,-12,27,-19,101,34
1491090296025,0,38,42,15,-28,-9,63,67,30
1491090296072,1,18,-6,-42,-31,25,-43,-84,29
1491090296072,1,-58,31,127,76,60,-12,39,11
1491090296073,2,25,-20,-96,-128,-80,-32,-99,-91
1491090296073,2,-2,-45,-93,-35,-28,-128,98,26
1491090296073,0,58,49,100,-2,96,116,125,21
1491090296073,0,-14,6,73,86,107,67,33,-6
1491090296074,1,7,9,-81,-70,-35,-111,72,10
1491090296074,1,-53,-40,-22,51,-9,-128,-128,-38
1491090296121,2,35,21,85,72,-6,73,113,43
1491090296121,2,-14,37,-74,-125,-77,6,44,-17
1491090296121,3,-75,-83,-65,99,23,-34,-66,-39
1491090296121,3,40,-47,-73,-67,18,96,18,21
1491090296122,1,-2,11,50,113,127,79,125,-44
1491090296122,1,40,38,16,-29,-17,-79,-89,5
1491090296123,2,-101,-19,-33,-73,15,127,123,-83
1491090296123,2,53,-19,-10,55,73,-59,-124,46
1491090296169,3,-48,24,71,-85,-128,-3,45,-49
1491090296169,3,27,-45,-71,78,1,-48,-77,56
1491090296170,0,-2,7,7,64,19,-42,32,15
1491090296170,0,-12,-13,-10,91,45,43,92,-25
1491090296171,2,-11,30,80,48,-20,56,48,32
1491090296171,2,18,-35,-95,-60,-74,-73,-55,-5
1491090296174,3,11,-17,-28,91,64,-30,-128,-7
1491090296174,3,-51,-15,-18,-128,-5,-22,104,-19
1491090296218,0,60,22,28,127,103,14,-15,9
1491090296218,0,-29,59,127,-42,-41,9,117,21
1491090296219,1,18,-6,-106,50,29,-53,-56,36
1491090296219,1,-92,-63,-78,9,-117,-66,16,-74
1491090296220,2,71,-1,-16,-47,-34,38,72,49
1491090296220,2,-8,-16,56,7,17,108,-5,12
1491090296220,3,-9,46,34,-29,-23,24,-74,9
1491090296220,3,10,22,45,-21,5,93,83,11
1491090296267,0,-19,-2,-9,72,-67,89,-128,-14
1491090296267,0,10,-16,-24,89,127,-98,-97,-6
1491090296268,1,52,-42,-67,-21,-30,-119,127,8
1491090296268,1,23,-15,-35,10,-89,74,-128,16
1491090296268,3,57,40,60,1,53,74,119,4
1491090296268,3,121,26,34,6,54,109,127,93
1491090296269,0,-100,-25,-22,6,-39,38,-38,-41
1491090296269,0,29,33,74,-64,30,41,23,3
1491090296364,1,-77,-18,-44,-32,-23,-111,-85,-43
1491090296364,1,82,-30,-34,25,-72,93,-35,20
1491090296365,2,-47,-13,-68,-17,-67,-43,-44,18
1491090296365,2,1,-42,-89,64,16,-94,-59,10
1491090296366,0,-20,-17,-21,-72,-73,-128,-72,-23
1491090296366,0,11,-12,-10,63,24,44,-10,-17
1491090296367,1,-7,-16,-6,8,35,25,62,43
1491090296367,1,-51,26,52,45,35,77,-77,-56
1491090296413,2,76,42,-9,-123,-64,-104,59,81
1491090296413,2,14,-39,-55,48,-2,104,58,-43
1491090296414,3,-5,-17,32,-12,-45,-63,-45,22
1491090296414,3,13,16,-71,17,42,-125,-59,-11
1491090296414,1,-32,-12,8,-97,-103,127,113,5
1491090296414,1,-56,9,44,29,-19,-19,-56,-59
1491090296415,2,-23,-41,-25,127,31,59,106,-56
1491090296415,2,31,31,-33,-128,-128,107,-59,38
1491090296462,3,-20,-3,11,127,121,-34,-81,-15
1491090296462,3,77,-25,-58,-41,-41,-95,80,-39
1491090296462,0,-52,-26,-6,-54,-13,-53,-109,-16
1491090296462,0,1,63,87,-33,-1,85,127,35
1491090296463,3,-28,25,36,-16,43,-15,-16,-27
1491090296463,3,-29,2,40,83,-34,63,-26,40
1491090296464,0,-27,22,-69,5,63,-111,74,-45
1491090296464,0,52,-86,-100,81,38,22,-21,33
1491090296511,1,32,19,42,62,-73,60,-6,12
1491090296511,1,-31,4,-7,23,49,30,70,11
1491090296559,2,-77,-21,60,61,11,-8,-28,-35
1491090296559,2,52,45,-60,-128,-56,-69,-81,-8
1491090296608,0,2,-1,-64,58,42,-68,110,29
1491090296608,0,-32,-64,-44,45,-54,-128,-67,-46
1491090296609,1,36,-3,-15,18,19,-49,-53,47
1491090296609,1,1,14,46,57,68,100,127,-20
1491090296609,2,6,5,1,-85,15,75,-128,-22
1491090296609,2,-48,2,-4,104,47,-114,-50,3
1491090296610,3,60,-10,-10,-47,-66,-44,-1,-3
1491090296610,3,-57,-5,-1,-7,-35,43,6,9
1491090296657,0,67,49,52,-65,-52,28,64,37
1491090296657,0,-50,3,96,36,85,94,-45,-44
1491090296657,1,-54,17,-6,-66,-72,-102,-128,-14
1491090296657,1,85,-1,-34,-128,-27,75,59,60
1491090296658,2,48,19,-42,-41,75,1,-90,23
1491090296658,2,-26,-54,-32,-15,-19,63,127,-48
1491090296659,3,23,34,2,-18,-96,-40,-111,-22
1491090296659,3,2,-5,-19,57,45,-128,-8,44
1491090296706,0,-25,-67,-86,-128,-49,95,36,-6
1491090296706,0,27,47,37,18,-10,66,-69,-3
1491090296706,1,10,1,63,99,87,127,127,10
1491090296706,1,-24,36,10,0,-44,-105,-5,52
1491090296707,3,-26,-36,-71,-61,-53,127,107,-47
1491090296707,3,15,10,-59,66,26,-75,-112,17
1491090296708,0,-46,-97,-11,48,1,61,57,-25
1491090296708,0,1,38,-10,-86,-95,-115,-112,-29
1491090296754,1,15,12,18,-38,123,-84,-28,29
1491090296754,1,62,-22,38,12,-4,113,117,15
1491090296755,2,-48,2,-54,-110,-106,58,77,7
1491090296755,2,73,0,-27,93,-18,-120,-83,-42
1491090296756,0,23,47,126,127,118,-19,-93,9
1491090296756,0,-64,-11,-83,-128,-128,-11,65,26
1491090296757,1,-35,-56,-79,-2,-52,-105,-126,-58
1491090296757,1,28,-23,-10,110,100,-7,2,-6
1491090296803,2,-9,-7,-37,-85,-56,94,-54,14
1491090296803,2,-19,46,51,16,22,-94,-82,38
1491090296804,3,41,30,59,24,12,89,66,32
1491090296804,3,-10,1,11,-24,1,2,-4,-15
1491090296804,1,91,16,-4,9,85,-40,-112,94
1491090296804,1,-13,4,11,-9,-86,79,34,-30
1491090296805,2,-7,28,-83,-128,-94,-128,-89,-12
1491090296805,2,-38,-52,-30,-51,-101,-69,11,-14
1491090296852,3,19,-44,1,102,79,94,108,-42
1491090296852,3,34,53,39,40,19,84,-49,-38
1491090296853,0,17,-5,19,34,104,-49,50,-1
1491090296853,0,10,16,51,15,92,127,0,21
1491090296853,2,-25,16,64,127,119,34,103,-20
1491090296853,2,-4,-64,-37,-68,-32,31,50,-6
1491090296854,3,47,-9,-116,-122,-86,-90,-33,-63
1491090296854,3,-58,-14,24,10,-21,36,65,83
1491090296901,0,7,41,77,55,18,10,-96,-20
1491090296901,0,-42,18,-6,-31,6,58,29,-17
1491090296901,1,-8,8,22,46,-42,8,-112,6
1491090296901,1,-27,-9,-39,63,-5,34,83,22
1491090296902,2,-60,-3,30,-79,-68,69,-102,-25
1491090296902,2,75,-27,-46,127,89,-53,51,28
1491090296903,3,-6,25,8,-64,-5,-96,-69,16
1491090296903,3,-54,-47,-23,-80,-74,19,28,-54
1491090296949,0,33,-11,-22,105,-29,-20,-25,3
1491090296949,0,-33,37,59,-110,-60,-46,-6,-32
1491090296950,1,74,12,-9,-104,85,66,114,65
1491090296950,1,26,0,-44,-113,-64,60,-39,-11
1491090296951,3,-31,-26,44,75,32,-81,83,10
1491090296951,3,-52,20,99,-76,-66,68,-26,-45
1491090296952,0,15,51,16,58,-2,-85,-47,12
1491090296952,0,14,2,23,78,12,61,-30,4
1491090296998,1,-18,-49,-85,36,-53,-48,64,22
1491090296998,1,4,-31,22,127,-41,86,-1,-27
1491090296999,2,39,70,3,-128,-82,-62,-62,20
1491090296999,2,-17,-32,-13,127,109,-84,53,-20
1491090297000,0,-84,-39,-59,-73,-74,-112,11,-40
1491090297000,0,22,7,66,61,70,127,127,43
1491090297000,1,-16,4,-43,46,-30,-9,15,-9
1491090297000,1,-39,14,-13,70,-5,-122,-115,-62
1491090297047,2,53,29,55,-5,36,113,127,90
1491090297047,2,15,-5,-8,-128,-123,53,-92,38
1491090297048,3,-29,-18,-23,-28,57,56,-109,-19
1491090297048,3,-7,-48,-27,-5,6,-108,-71,-10
1491090297049,1,-27,28,15,79,-35,6,-103,-43
1491090297049,1,6,-24,-56,-23,9,-4,-127,24
1491090297049,2,-12,15,58,11,8,121,99,-78
1491090297049,2,73,-21,-106,110,-8,34,-30,54
1491090297096,3,-12,-44,-26,37,-9,-24,89,83
1491090297096,3,-78,45,37,-56,37,-89,-64,-21
1491090297096,0,52,-38,38,117,26,-3,11,20
1491090297096,0,-45,45,65,-128,-4,28,5,-14
1491090297097,2,9,12,-39,-114,-42,-14,-26,43
1491090297097,2,-20,-27,42,67,-18,12,8,-65
1491090297098,3,10,37,-50,-9,44,57,-113,-18
1491090297098,3,33,-5,-10,108,11,32,127,-19
1491090297144,0,28,-52,-61,-13,82,-61,-128,28
1491090297144,0,-61,-44,-15,-83,-4,0,45,-18
1491090297145,1,3,17,18,61,-42,-58,8,1
1491090297145,1,-4,-20,25,44,-6,-40,-128,-6
1491090297146,3,-14,-15,-46,32,11,127,91,-25
1491090297146,3,-26,-47,-47,48,-31,-55,-67,-5
1491090297147,0,-25,29,-7,21,45,39,72,21
1491090297147,0,-6,22,67,9,28,94,-103,-50
1491090297193,1,21,53,57,-66,-26,127,86,-20
1491090297193,1,56,-8,10,-32,72,-68,49,97
1491090297194,2,-95,-12,9,12,-4,-115,-128,-46
1491090297194,2,56,-6,-111,-79,-11,81,127,75
1491090297194,0,-18,-45,-17,-23,-41,125,100,-41
1491090297194,0,-21,79,65,47,-2,-128,-21,-1
1491090297195,1,90,-19,-61,5,110,-38,89,20
1491090297195,1,-24,3,39,64,60,-2,-67,4
1491090297242,2,33,32,34,53,22,41,13,3
1491090297242,2,-23,-30,-50,26,-43,56,2,-4
1491090297243,3,-23,-12,22,-111,-42,-48,5,-22
1491090297243,3,-13,0,37,-13,5,114,-102,-77
1491090297243,0,58,37,-7,8,-4,-65,91,71
1491090297243,0,-79,-73,-73,-85,65,-68,75,-105
1491090297244,1,85,14,36,49,-3,3,25,72
1491090297244,1,-63,-50,-87,-37,-48,-6,29,-11
1491090297291,2,-14,-37,-47,45,-61,-19,-128,-33
1491090297291,2,-23,14,68,127,-8,26,75,-8
1491090297291,3,-24,-2,-47,-55,12,-38,-5,2
1491090297291,3,31,29,49,47,-6,74,38,-21
1491090297292,1,-45,-41,42,87,31,-13,-128,-40
1491090297292,1,72,90,78,-115,-52,127,127,26
1491090297293,2,-25,-49,-100,-96,-75,107,-128,-50
1491090297293,2,19,-28,-46,-128,45,-102,-107,-18
1491090297340,3,-9,-17,-49,-39,-95,-88,31,7
1491090297340,3,-2,2,84,82,27,33,-112,-16
1491090297341,0,-6,-17,-75,-108,-27,88,103,1
1491090297341,0,21,-17,-12,119,-56,86,52,-1
1491090297341,2,1,24,-19,13,-83,-3,43,1
1491090297341,2,-16,-31,-26,18,-14,-38,-12,43
1491090297342,3,2,7,39,93,78,19,-70,17
1491090297342,3,-38,15,-47,-123,-34,-45,87,-9
1491090297388,0,96,1,59,-6,18,10,98,71
1491090297388,0,-34,21,-56,-128,-18,40,32,-25
1491090297389,1,-34,-81,-74,127,14,-77,-30,-32
1491090297389,1,14,8,-21,-98,-17,-101,-124,34
1491090297390,3,-2,61,96,-1,41,127,-28,29
1491090297390,3,-4,5,-24,-78,-15,99,1,-44
1491090297391,0,-19,2,1,-27,-35,-128,-57,21
1491090297391,0,19,8,17,12,3,-13,-4,10
1491090297437,1,33,62,127,25,80,127,51,19
1491090297437,1,-14,-29,-99,65,20,-128,21,-49
1491090297438,2,11,12,-16,-7,-65,19,-40,64
1491090297438,2,-23,-15,73,95,93,-62,-49,-42
1491090297439,0,59,-11,44,-4,2,62,40,42
1491090297439,0,0,-19,-65,-35,-37,-112,-68,-8
1491090297440,1,-18,27,55,-112,-46,84,19,-6
1491090297440,1,-38,31,1,18,-42,-12,-128,14
1491090297486,2,18,-4,13,11,-5,-17,-17,-61
1491090297486,2,-15,14,38,12,39,79,89,41
1491090297487,3,-10,-15,-17,-6,17,-19,70,-25
1491090297487,3,-8,45,88,21,18,127,-70,4
1491090297487,1,-37,-36,-89,-128,-30,-12,-37,-62
1491090297487,1,49,-43,-43,12,48,11,96,100
1491090297488,2,1,1,-25,-128,-45,-71,-73,-7
1491090297488,2,-41,-17,0,80,-27,35,48,50
1491090297534,3,-9,-13,-18,-54,-96,-128,-117,-18
1491090297534,3,27,32,67,-92,31,127,127,22
1491090297535,0,-112,-15,0,41,3,-3,-12,-66
1491090297535,0,110,63,30,39,52,91,78,75
1491090297535,2,0,44,55,89,38,-6,71,-5
1491090297535,2,-42,1,-19,-34,63,76,-106,-31
1491090297537,3,27,-40,-64,-48,-20,-73,127,-23
1491090297537,3,-19,36,70,-73,42,-37,-90,26
1491090297583,0,40,-34,-54,-10,-29,95,58,42
1491090297583,0,-25,17,-5,38,-36,-99,-6,-23
1491090297584,1,-5,9,6,-85,-56,-76,-80,-69
1491090297584,1,-16,-69,-64,70,67,59,122,55
1491090297584,3,-53,-1,36,101,11,25,-128,-35
1491090297584,3,-22,-1,-44,-72,-32,-58,84,15
1491090297585,0,-29,-30,-12,-47,-8,52,-4,-8
1491090297585,0,63,-33,-60,-95,1,-20,40,-4
1491090297632,1,-54,32,3,1,4,-83,-96,57
1491090297632,1,38,-6,-12,0,-26,101,27,-55
1491090297632,2,42,16,18,-66,33,58,89,60
1491090297632,2,-63,8,-12,27,-99,-113,-108,-27
1491090297633,3,-17,-28,78,127,13,119,42,7
1491090297633,3,-15,34,-36,-41,-77,-23,75,16
1491090297634,0,-3,-32,-22,43,95,-30,-128,28
1491090297634,0,-21,-19,22,-9,38,30,-75,-60
1491090297681,1,46,24,29,-54,65,108,89,64
1491090297681,1,-46,0,-25,-109,-79,-71,-128,1
1491090297681,2,4,-24,-25,-8,-58,-42,7,-95
1491090297681,2,-13,20,-6,-88,18,53,101,62
1491090297682,0,50,57,29,88,-43,64,47,-22
1491090297682,0,27,-1,50,-42,-13,55,-128,4
1491090297683,1,10,-25,-45,19,-41,-40,100,-19
1491090297683,1,-7,-21,2,-75,84,14,-27,4
1491090297778,2,-53,44,-11,27,30,-128,-128,-71
1491090297778,2,24,-12,1,61,-29,25,51,13
1491090297779,3,63,20,16,-94,15,22,87,53
1491090297779,3,82,35,57,-52,-14,32,-70,23
1491090297779,1,96,-9,-46,58,54,14,73,61
1491090297779,1,3,-32,11,44,-40,-4,-55,-27
1491090297780,2,-17,45,29,-87,-35,127,-35,32
1491090297780,2,17,42,-1,-1,47,-100,80,-18
1491090297827,3,-43,-11,-25,-92,60,-54,76,-29
1491090297827,3,66,-24,7,25,-31,-107,-87,12
1491090297827,0,17,7,1,-128,-102,33,127,32
1491090297827,0,-40,-53,-55,116,-46,-63,-108,-19
1491090297828,2,-38,-10,-25,84,61,-85,22,15
1491090297828,2,0,-3,-15,-52,-23,32,-54,-20
1491090297829,3,-38,24,54,21,-13,-50,-42,-32
1491090297829,3,38,36,37,86,73,45,66,19
1491090297875,0,-76,-67,-16,-63,-45,-50,-19,-39
1491090297875,0,-59,49,80,92,75,127,9,-3
1491090297876,1,26,-28,-76,-128,-67,-72,-32,11
1491090297876,1,-12,-50,-93,43,-15,-69,-58,-63
1491090297877,0,-6,-29,19,53,37,86,55,1
1491090297877,0,-10,8,-12,-96,-16,-128,-96,-62
1491090297878,1,-62,-45,-47,127,-20,-49,-1,0
1491090297878,1,26,17,55,69,49,91,20,18
1491090297924,2,59,0,-71,-119,-68,-99,-81,-31
1491090297924,2,-19,-45,-69,90,-24,-6,112,37
1491090297925,3,18,14,55,-42,-41,6,-15,-26
1491090297925,3,-39,25,25,42,67,114,-67,26
1491090297926,1,28,-12,9,45,16,-39,-72,-49
1491090297926,1,-1,8,31,101,36,26,25,28
1491090297927,2,-20,3,3,-48,6,-12,-42,24
1491090297927,2,58,-23,-32,-112,70,-72,57,7
1491090297973,3,-37,-8,-35,51,-63,0,7,37
1491090297973,3,0,-15,10,51,46,-57,-22,-16
1491090297974,0,-16,4,32,56,-77,38,-94,-42
1491090297974,0,-37,9,-8,80,-1,125,127,76
1491090297975,1,26,-14,-13,20,52,12,-7,18
1491090297975,1,-19,-25,-40,-85,-16,-32,-3,-40
1491090297976,2,1,9,-6,-6,68,-108,-35,25
1491090297976,2,13,35,117,30,6,63,9,1
1491090298022,3,-36,19,-23,-52,24,127,100,-22
1491090298022,3,-31,-19,-8,71,-121,-93,-84,27
1491090298023,0,6,-6,-42,-7,86,-128,82,23
1491090298023,0,30,-27,-70,-7,-85,-30,-117,-50
1491090298024,2,-5,-18,-69,-59,-17,-76,-83,-72
1491090298024,2,31,31,16,127,94,69,94,31
1491090298025,3,35,25,56,-18,-58,117,-88,-21
1491090298025,3,6,-3,-40,-128,-42,24,25,-2
1491090298071,0,-95,28,94,24,-33,7,35,-33
1491090298071,0,-9,-19,-35,48,90,-100,-98,-23
1491090298071,1,108,-3,-36,-77,8,70,99,47
1491090298071,1,-58,49,87,-17,-102,-36,-12,-26
1491090298072,3,-73,-22,36,116,66,-116,-77,-77
1491090298072,3,59,-18,-44,-76,14,74,47,26
1491090298073,0,59,43,19,-74,-17,-62,18,68
1491090298073,0,19,1,29,-19,33,-13,3,66
1491090298119,1,-68,-67,-10,-32,21,-3,38,-44
1491090298119,1,-12,47,60,33,-37,11,-16,2
1491090298120,2,-97,-22,-36,35,15,100,-39,-78
1491090298120,2,88,-32,-51,92,43,46,-56,0
1491090298122,0,-78,-35,-5,-39,-83,-75,-43,0
1491090298122,0,94,38,24,1,29,-56,119,54
1491090298123,1,-86,-43,-51,50,15,6,-20,-10
1491090298123,1,-17,17,47,69,-32,-20,-99,-57
1491090298168,2,41,-5,-15,-10,19,74,106,2
1491090298168,2,-120,-44,-23,-39,-70,32,-74,-49
1491090298169,3,80,60,34,-123,-89,-72,9,7
1491090298169,3,35,-12,-37,68,74,87,127,84
1491090298170,1,-12,28,50,5,29,-52,-61,50
1491090298170,1,49,-24,-55,-43,-3,-106,68,-62
1491090298170,2,63,-21,-12,106,-41,53,24,-16
1491090298170,2,-45,30,25,-128,-100,127,-16,-37
1491090298217,3,-20,-6,-48,121,100,-45,-32,29
1491090298217,3,-3,-5,-20,-6,-34,16,21,-46
1491090298218,0,-29,-45,-7,-65,-55,107,-13,23
1491090298218,0,2,41,-18,112,23,-122,83,22
1491090298219,2,49,48,68,96,22,78,11,26
1491090298219,2,15,12,65,-16,-13,-7,-40,1
1491090298220,3,-18,-28,-55,-128,-68,-3,50,15
1491090298220,3,-8,31,-21,127,-65,-128,21,-40
1491090298266,0,17,-23,-46,-75,30,-15,-127,-17
1491090298266,0,-83,-26,-31,-91,-78,3,11,-2
1491090298267,1,77,9,7,-52,-1,0,-41,-48
1491090298267,1,-12,15,41,42,32,6,118,44
1491090298267,3,-70,-41,-46,-35,-44,-53,20,32
1491090298267,3,80,15,28,-70,15,-70,-20,5
1491090298268,0,54,5,-37,127,81,-128,-71,41
1491090298268,0,-27,-6,127,127,39,85,89,-22
1491090298314,1,-49,-21,-68,-33,-57,-20,-78,-12
1491090298314,1,22,-34,-94,28,-16,-92,-4,-8
1491090298316,2,-43,-29,10,-42,-43,-65,39,0
1491090298316,2,3,11,31,-54,-1,70,44,3
1491090298316,3,-3,40,62,71,-30,44,-58,3
1491090298316,3,-27,10,57,6,-16,91,3,11
1491090298317,0,2,-5,-51,-67,0,-8,55,-16
1491090298317,0,-3,-41,-32,-4,45,53,-4,27
1491090298363,1,-27,15,-8,19,-35,127,32,-91
1491090298363,1,-1,-32,-71,-28,34,-56,-128,14
1491090298364,2,71,51,122,63,85,-6,126,61
1491090298364,2,-26,-12,-117,7,-71,-1,77,-16
1491090298365,0,21,6,-9,-121,-54,92,61,31
1491090298365,0,21,37,25,120,35,-34,-4,32
1491090298365,1,-51,1,24,-42,14,110,19,-10
1491090298365,1,-8,23,79,102,-16,37,123,23
1491090298412,2,-13,0,-70,-120,12,14,-91,-60
1491090298412,2,-30,-69,-18,-37,-26,-52,-47,-26
1491090298413,3,12,24,16,71,-40,28,19,17
1491090298413,3,-39,-31,-88,-114,-128,103,2,-39
1491090298413,1,-13,-6,52,-107,-72,60,35,-40
1491090298413,1,58,78,65,-82,16,42,37,10
1491090298414,2,-6,1,-37,127,-14,-8,-49,42
1491090298414,2,-11,-6,-23,59,-33,46,85,48
1491090298461,3,66,24,1,-55,82,-21,-66,66
1491090298461,3,-41,8,86,48,36,127,99,-19
1491090298461,0,-20,17,-60,-128,-35,-80,-59,-34
1491090298461,0,-31,-15,-8,48,-47,-59,-6,-5
1491090298462,2,-8,23,26,-61,-76,117,83,29
1491090298462,2,-19,9,-15,64,35,-4,-128,-7
1491090298463,3,20,-13,26,89,66,29,45,10
1491090298463,3,10,-6,-21,27,20,-128,-88,-33
1491090298509,0,25,17,-15,-84,-1,-73,-21,24
1491090298509,0,-26,-59,-38,27,37,51,-124,-57
1491090298510,1,28,8,-1,-13,-14,63,-37,15
1491090298510,1,88,38,19,-38,43,22,-57,71
1491090298511,3,4,-13,-76,-31,-31,-94,-92,-68
1491090298511,3,-29,-51,-54,-26,-82,1,67,6
1491090298512,0,39,24,50,40,-4,-65,6,-11
1491090298512,0,4,16,28,-30,68,28,-61,6
1491090298558,1,-23,14,81,39,31,13,72,-6
1491090298558,1,-25,30,-28,-103,-8,47,21,-11
1491090298559,2,4,-28,-30,127,62,65,110,-24
1491090298559,2,-21,-11,26,91,19,-102,-100,-57
1491090298560,0,-13,-32,-2,-27,12,-53,-100,-86
1491090298560,0,80,49,48,-113,-17,115,66,25
1491090298561,1,-84,-30,-60,-79,-118,40,-121,-33
1491090298561,1,36,20,2,-116,-17,6,27,0
1491090298607,2,-30,0,-9,-73,43,79,-59,-6
1491090298607,2,3,4,37,70,-41,-18,-31,-36
1491090298608,3,17,52,127,58,28,9,14,8
1491090298608,3,-38,-4,-80,-81,-58,-39,-56,-1
1491090298609,1,-23,8,69,63,60,68,-86,-18
1491090298609,1,-1,26,19,-48,-14,-63,-49,64
1491090298609,2,-28,-22,-20,-79,46,-71,7,-43
1491090298609,2,13,-1,44,47,13,-21,-94,26
1491090298656,3,23,1,-66,-23,41,-40,-39,10
1491090298656,3,-47,-33,-38,105,10,70,15,-53
1491090298656,0,-14,8,3,-103,-105,23,79,99
1491090298656,0,-10,-27,-68,5,-29,-59,-1,-38
1491090298657,1,5,19,44,47,-2,1,-54,-18
1491090298657,1,5,32,69,32,-16,70,71,11
1491090298658,2,10,12,21,-31,74,-46,-87,21
1491090298658,2,-31,-6,-19,-53,-1,61,-14,-40
1491090298704,3,58,-15,69,32,20,18,64,19
1491090298704,3,9,-7,-105,-61,-64,-86,-70,13
1491090298705,0,-15,-46,-40,127,57,-73,103,-53
1491090298705,0,-3,-18,-20,-109,-26,38,-66,-19
1491090298706,2,82,68,58,66,15,127,26,71
1491090298706,2,-43,-18,16,56,-16,-79,-85,-35
1491090298707,3,-14,-11,-98,-51,-8,-22,-10,-6
1491090298707,3,10,-23,29,127,88,29,-11,-29
1491090298753,0,8,16,-2,-42,-69,8,-111,-56
1491090298753,0,-15,-42,-45,-32,-25,1,95,16
1491090298754,1,17,43,19,-51,-63,-128,-123,0
1491090298754,1,-35,17,38,2,47,100,-6,-8
1491090298755,3,3,24,-16,-80,-48,-122,-80,-24
1491090298755,3,-49,-55,21,40,39,25,77,57
1491090298756,0,-8,42,19,38,-35,46,66,15
1491090298756,0,-27,-46,-79,-50,-20,-15,-77,-50
1491090298802,1,-11,-55,-100,-1,-23,-76,58,-3
1491090298802,1,5,-28,13,-5,-16,54,-75,-21
1491090298802,2,-36,11,44,-24,-70,73,51,-6
1491090298802,2,40,60,83,1,43,-20,-89,46
1491090298803,0,1,22,26,-111,-43,-15,-104,2
1491090298803,0,26,19,-28,85,29,127,104,-59
1491090298804,1,-32,-17,51,-12,62,-74,-81,28
1491090298804,1,27,-27,-61,-5,-15,-93,85,60
1491090298851,2,-46,-44,-74,-37,-65,-91,-96,-22
1491090298851,2,9,-31,-32,84,65,18,-118,-7
1491090298851,3,-29,25,56,33,35,94,127,30
1491090298851,3,0,15,50,-51,22,23,50,32
1491090298852,1,-26,-18,-12,127,-4,103,35,-24
1491090298852,1,1,27,-36,-128,-62,-42,-76,22
1491090298855,2,-14,-83,-63,89,11,7,102,-7
1491090298855,2,-31,4,-14,-61,68,-35,-66,-13
1491090298899,3,126,43,17,108,13,-96,-114,47
1491090298899,3,-75,-15,-7,-25,-53,18,15,-51
1491090298900,0,-66,-1,30,63,19,81,-6,-54
1491090298900,0,5,16,65,44,47,69,-35,35
1491090298901,2,64,-8,-76,-107,-64,4,2,58
1491090298901,2,-30,12,43,-12,-48,-25,71,43
1491090298902,3,-56,6,40,55,58,-25,-76,-31
1491090298902,3,104,27,-46,-57,-18,92,107,17
1491090298948,0,-123,-40,-17,-47,-58,-81,-48,-84
1491090298948,0,127,29,32,26,-17,-96,10,100
1491090298949,1,-106,-51,-32,-15,71,-86,104,41
1491090298949,1,-17,34,46,127,49,-85,-128,-19
1491090298949,3,28,16,-26,-128,-62,103,-6,-18
1491090298949,3,-6,22,72,1,-63,-14,73,21
1491090298950,0,-20,-26,-59,111,64,-92,-55,8
1491090298950,0,-51,8,22,-82,-6,-64,-72,-28
1491090298997,1,87,-21,-71,59,0,63,103,-9
1491090298997,1,-42,-31,-10,-58,-19,-4,-89,20
1491090298997,2,29,24,9,-78,-81,100,-12,19
1491090298997,2,-44,-10,5,61,70,-58,19,0
1491090298998,3,50,15,3,50,35,21,-24,-26
1491090298998,3,-36,4,14,-37,8,-20,31,39
1491090298999,0,110,8,23,-65,-1,-114,-22,47
1491090298999,0,-70,-21,-40,-8,-58,34,44,-12
1491090299046,1,36,17,63,-128,-62,14,-22,-13
1491090299046,1,-48,-27,-26,127,68,33,-18,-42
1491090299059,2,25,12,-44,-50,16,-7,9,-10
1491090299059,2,-7,-12,-39,-63,42,-41,-100,43
1491090299060,0,-80,-14,37,113,50,-24,60,-15
1491090299060,0,58,30,37,40,-11,-31,-126,-16
1491090299061,1,-40,11,10,6,41,72,95,-7
1491090299061,1,-29,-1,-57,-128,-64,-11,-118,8
1491090299094,2,1,-45,-62,108,-24,71,-43,-31
1491090299094,2,-21,44,2,-96,-69,5,59,-60
1491090299095,3,43,-4,5,95,90,-71,58,63
1491090299095,3,48,1,24,10,43,-97,-123,15
1491090299096,1,-18,-21,-58,-102,-61,36,-54,-9
1491090299096,1,55,40,56,127,56,-28,-16,-29
1491090299097,2,58,50,68,60,84,68,-123,18
1491090299097,2,-33,-47,-39,-89,-119,20,63,-3
1491090299143,3,-29,-33,-86,30,-26,-128,-109,-34
1491090299143,3,-119,-50,-18,27,-5,15,-92,-60
1491090299144,0,52,16,26,-32,-14,60,57,-24
1491090299144,0,54,44,72,99,127,76,89,-33
1491090299144,2,-91,-33,-32,-122,-73,-39,100,-27
1491090299144,2,53,-8,-52,4,-30,54,76,18
1491090299145,3,-42,-1,4,10,-44,5,37,-2
1491090299145,3,10,-10,-51,-20,-51,-51,17,15
1491090299192,0,3,16,84,-41,-72,-16,5,5
1491090299192,0,10,-5,-84,73,95,-6,-5,4
1491090299192,1,-21,-48,-39,44,-15,-73,-83,-22
1491090299192,1,14,14,70,85,64,112,127,-16
1491090299199,3,79,33,44,-107,-17,21,102,-9
1491090299199,3,-63,-20,-52,109,114,-51,34,7
1491090299199,0,-33,-63,-68,13,39,-128,-92,-2
1491090299199,0,-84,21,95,-9,-8,69,42,-16
1491090299241,1,42,14,27,29,-16,109,23,-44
1491090299241,1,3,-1,39,-128,-47,112,-3,10
1491090299241,2,-42,9,-28,27,32,-68,-61,19
1491090299241,2,-28,-21,-4,40,0,-128,-61,-16
1491090299242,0,-26,-26,-71,6,4,3,-57,-51
1491090299242,0,60,2,-33,45,-29,-110,-128,15
1491090299243,1,66,59,53,-62,-25,-8,59,29
1491090299243,1,-50,-51,-68,96,-25,-128,1,-38
1491090299289,2,36,1,54,25,127,86,1,53
1491090299289,2,-54,-4,34,-81,-11,61,15,-45
1491090299290,3,49,2,-33,-96,0,-108,45,19
1491090299290,3,37,28,3,36,-16,-19,108,44
1491090299291,1,-96,-21,-71,80,0,4,-128,-44
1491090299291,1,96,35,1,-27,5,-26,-67,62
1491090299292,2,-60,41,61,14,-47,67,118,46
1491090299292,2,0,-8,21,22,52,113,-42,38
1491090299338,3,-67,-20,-18,79,17,-79,-75,-89
1491090299338,3,30,-7,1,-20,2,66,108,3
1491090299339,0,68,29,48,52,41,81,35,34
1491090299339,0,-1,54,51,48,84,-73,14,85
1491090299339,2,-21,-15,-75,94,60,-42,64,-19
1491090299339,2,-17,-46,-47,-12,-29,27,-12,-2
1491090299340,3,-11,13,14,-15,0,57,22,19
1491090299340,3,-59,-16,-1,54,-30,-19,-31,18
1491090299387,0,50,39,78,-12,12,43,-92,-23
1491090299387,0,17,-4,-19,44,30,-61,12,7
1491090299388,1,-14,19,30,111,2,28,23,2
1491090299388,1,-13,18,-18,-128,-111,111,58,-7
1491090299389,2,23,-7,5,-95,42,40,-108,-48
1491090299389,2,51,-1,1,9,94,-85,48,-4
1491090299390,3,72,4,-23,61,-49,58,127,106
1491090299390,3,-112,-22,43,104,-5,-61,-113,-60
1491090299436,0,98,26,-29,59,47,-74,79,96
1491090299436,0,-43,-66,-70,-128,-59,69,-20,-31
1491090299436,1,-70,-6,9,84,68,47,-113,-47
1491090299436,1,56,13,8,98,29,-110,-49,12
1491090299437,3,18,-18,-49,65,46,-44,34,-31
1491090299437,3,-35,-55,-81,25,-42,77,33,-10
1491090299438,0,-3,7,80,6,11,-116,-43,12
1491090299438,0,51,53,20,-83,86,116,37,44
1491090299484,1,-68,-1,12,48,-20,-84,-9,-61
1491090299484,1,62,25,40,-128,-39,99,56,12
1491090299485,2,-26,-56,-62,102,11,29,127,-4
1491090299485,2,113,28,2,-36,41,-121,-43,53
1491090299486,0,-49,1,-13,53,-43,8,-13,-49
1491090299486,0,34,-13,25,127,-25,62,42,18
1491090299487,1,-13,35,60,-66,6,116,3,5
1491090299487,1,57,35,-23,42,-8,-29,26,7
1491090299533,2,-47,-30,-14,57,65,-39,-65,-20
1491090299533,2,-85,-4,27,46,49,-56,-92,-72
1491090299534,3,29,-3,-23,4,22,82,-72,17
1491090299534,3,44,-47,-56,-30,18,-114,40,23
1491090299535,1,77,-15,29,-25,58,127,127,51
1491090299535,1,7,37,64,26,47,30,-86,12
1491090299536,2,-74,5,-54,-82,-70,-89,4,-2
1491090299536,2,23,-62,-45,1,-110,45,-95,-89
1491090299582,3,26,19,7,32,5,-51,38,30
1491090299582,3,-2,-26,23,-2,13,-37,11,-15
1491090299582,0,9,22,3,53,-3,102,65,15
1491090299582,0,-77,26,-15,-128,-128,-29,-86,-52
1491090299584,2,-50,-17,29,0,-49,15,57,2
1491090299584,2,41,-8,-64,-85,-27,-85,-95,21
1491090299630,3,-8,7,17,84,4,78,77,4
1491090299630,3,-32,-47,-78,-107,-40,20,-57,-42
1491090299631,0,14,2,-30,-97,-66,3,-37,29
1491090299631,0,-39,-23,19,127,65,59,40,-49
1491090299632,1,-32,13,42,-43,-1,-54,-81,-30
1491090299632,1,47,43,27,127,71,55,28,2
1491090299633,3,-18,-63,-101,-68,88,-121,-79,-13
1491090299633,3,-60,-20,1,-24,-33,-23,-52,-81
1491090299679,0,76,-25,-54,-116,-29,26,-27,52
1491090299679,0,28,65,106,82,30,78,58,20
1491090299680,1,-43,12,-11,-108,11,5,0,-81
1491090299680,1,57,-17,-124,-80,-23,60,76,100
1491090299681,0,2,-1,-32,-92,21,-86,-9,-38
1491090299681,0,-22,-20,-1,-4,-79,-85,-112,10
1491090299682,1,36,16,-10,-98,-42,-29,77,-25
1491090299682,1,-42,13,-2,-114,-30,16,44,37
1491090299728,2,-55,-57,-42,127,56,-25,-65,-68
1491090299728,2,77,24,28,86,18,60,25,48
1491090299729,3,29,50,-27,-111,-124,127,19,23
1491090299729,3,50,-42,-23,127,-12,-20,30,-28
1491090299729,0,40,-3,31,66,127,62,-46,-4
1491090299729,0,-51,-32,-47,-121,-69,-24,7,-17
1491090299730,1,8,-1,27,127,37,-72,64,5
1491090299730,1,-16,30,58,34,-23,-88,-80,-23
1491090299777,2,-27,-2,-27,-116,-29,-3,1,-16
1491090299777,2,-31,13,27,-69,-99,-31,-26,-28
1491090299777,3,0,-9,-27,53,-18,107,-45,43
1491090299777,3,-21,-14,-15,106,77,28,-7,-38
1491090299779,1,6,-54,-88,-56,-80,-58,-100,-1
1491090299779,1,-82,-24,-39,-60,-15,121,-65,-74
1491090299780,2,90,20,0,13,79,-124,96,46
1491090299780,2,-24,27,32,-5,98,-113,-37,40
1491090299826,3,23,28,122,111,45,15,23,-1
1491090299826,3,-57,-9,-51,-125,-103,40,31,32
1491090299827,0,-38,1,-26,62,-118,40,-27,-79
1491090299827,0,-31,-55,-98,109,40,-113,-92,-49
1491090299827,2,22,45,50,-21,-5,113,37,25
1491090299827,2,15,-22,-36,-34,34,-61,-19,-2
1491090299828,3,-21,-15,-61,-88,-31,12,-5,-52
1491090299828,3,47,-18,-25,-10,84,-106,80,56
1491090299874,0,-23,15,83,44,-34,73,3,61
1491090299874,0,11,14,13,-77,-57,-26,-77,-37
1491090299875,1,-45,11,9,-10,25,-75,-33,-9
1491090299875,1,-61,-37,-31,89,24,-37,-94,-6
1491090299876,3,0,-38,-40,28,-72,51,9,6
1491090299876,3,-28,1,-21,-22,-45,-118,5,-61
1491090299877,0,29,23,82,127,35,53,-5,36
1491090299877,0,4,20,-82,-125,62,121,95,7
