1491090538700,0,41,2,-89,-107,-79,-94,-69,42
1491090538700,0,44,7,35,105,4,-10,3,-75
1491090538702,1,35,10,36,86,-3,-71,-20,-75
1491090538702,1,-10,-18,21,64,49,66,59,5
1491090538703,2,-5,8,4,2,45,100,108,-25
1491090538703,2,-55,-28,-25,-61,-6,3,-91,48
1491090538749,3,-13,24,9,-27,-20,40,103,32
1491090538749,3,17,-13,-11,-32,-33,-45,14,-17
1491090538751,0,-33,-35,0,1,-19,16,-74,-22
1491090538751,0,47,21,-9,-30,1,-46,34,21
1491090538752,1,3,-5,2,-7,2,27,-122,5
1491090538752,1,-39,-19,-8,-7,-13,-41,-5,-5
1491090538752,2,1,35,40,30,17,64,47,56
1491090538752,2,26,-25,-18,-14,-9,23,-32,-24
1491090538798,3,-40,9,-6,-16,-16,-97,-6,40
1491090538798,3,-41,0,-23,-22,21,23,-90,-55
1491090538799,0,-29,28,31,32,4,-23,-33,-15
1491090538799,0,-43,-19,-3,8,-6,-28,-14,-28
1491090538801,1,8,3,-9,0,-4,70,-101,57
1491090538801,1,37,-20,-15,-16,-49,-50,-75,61
1491090538846,2,-2,26,25,16,40,48,86,14
1491090538846,2,-38,-11,-14,-14,-12,13,43,-13
1491090538848,3,-16,7,-11,-6,31,42,37,-61
1491090538848,3,79,54,29,8,7,4,-52,15
1491090538848,0,13,-8,-1,33,-14,-29,-20,-29
1491090538848,0,-62,15,20,11,20,16,-71,1
1491090538849,2,-31,-39,-14,-32,-15,37,60,22
1491090538849,2,-2,3,-10,-20,-46,-26,-43,-36
1491090538895,3,55,-54,-21,2,23,-54,51,27
1491090538895,3,-18,49,21,32,10,38,-74,-43
1491090538896,0,-35,-22,-12,-5,3,-4,86,96
1491090538896,0,12,-17,-6,-2,39,78,-34,-81
1491090538897,3,-27,21,13,3,4,-13,25,-37
1491090538897,3,76,21,10,10,29,75,120,-28
1491090538898,0,57,-16,-9,-9,2,-37,-128,-27
1491090538898,0,-54,-15,-19,-32,-71,-88,1,21
1491090538944,1,67,1,1,36,41,59,19,50
1491090538944,1,-52,-8,-7,-19,-8,-48,-50,43
1491090538945,2,4,-11,-7,-75,-19,3,89,-56
1491090538945,2,53,28,24,81,38,16,-26,-11
1491090538946,0,27,9,-1,32,19,-40,-2,6
1491090538946,0,33,12,-5,-30,-17,-94,-47,-27
1491090538947,1,-5,-22,-16,-16,26,73,54,-7
1491090538947,1,-69,8,6,8,-15,-56,-50,-28
1491090538993,2,8,-3,7,25,27,45,-44,-11
1491090538993,2,47,33,18,0,17,38,-11,48
1491090538995,3,-10,-23,-16,23,5,-4,-52,-13
1491090538995,3,34,4,-10,-38,-17,-32,127,32
1491090538998,0,-20,2,-2,11,-20,-21,-71,-24
1491090538998,0,-35,-18,7,-71,6,12,-31,43
1491090539001,1,34,33,19,58,-31,-85,33,-32
1491090539001,1,-24,-32,-20,6,27,84,12,-50
1491090539041,2,56,22,12,32,5,-34,-70,58
1491090539041,2,33,14,17,36,37,-22,-31,-4
1491090539042,3,-36,31,-7,-55,14,88,42,19
1491090539042,3,-31,-15,-6,-8,-37,-65,-69,-16
1491090539043,1,37,26,18,-6,21,-28,-8,37
1491090539043,1,4,2,12,57,30,37,70,-36
1491090539044,2,2,14,4,-21,-7,-91,-128,-31
1491090539044,2,-14,-22,-17,15,38,115,127,55
1491090539090,3,53,36,19,11,8,9,-38,-18
1491090539090,3,14,-10,5,13,16,97,67,59
1491090539091,0,7,-6,12,-52,13,-40,-21,-36
1491090539091,0,-20,21,-3,73,-3,34,19,-22
1491090539092,2,76,13,5,-18,29,9,77,15
1491090539092,2,-55,21,15,22,-42,35,41,27
1491090539093,3,-40,-54,-40,-44,-70,-93,-128,-31
1491090539093,3,-37,22,20,-1,35,60,106,-15
1491090539139,0,33,-27,-15,-19,7,-3,18,18
1491090539139,0,3,14,-6,60,22,-1,7,23
1491090539140,1,-46,-5,-2,7,-18,-8,45,10
1491090539140,1,2,3,2,17,-10,-52,-14,-26
1491090539140,3,-24,5,-25,-85,-2,58,13,21
1491090539140,3,-11,-19,-39,-3,-104,-53,32,-15
1491090539141,0,-22,6,-6,-22,-7,18,24,-5
1491090539141,0,-10,-34,-11,-30,-32,-9,-101,-11
1491090539188,1,-35,-12,19,-54,44,-13,-113,-61
1491090539188,1,75,28,13,56,29,-11,107,56
1491090539189,2,-78,-32,-22,-23,-60,73,-54,-13
1491090539189,2,27,7,22,21,87,-23,83,6
1491090539190,0,-31,-13,-23,-30,31,120,-55,7
1491090539190,0,-46,-41,-39,-128,-75,36,-17,1
1491090539190,1,25,34,27,61,92,-78,58,26
1491090539190,1,-10,4,24,102,-89,6,-128,-12
1491090539237,2,4,5,-2,102,51,-90,41,12
1491090539237,2,-19,1,28,-11,72,-16,2,-35
1491090539239,3,27,-2,-7,57,-100,84,29,18
1491090539239,3,45,20,-14,-128,17,-90,-84,23
1491090539240,1,-17,-29,6,14,46,14,-97,-45
1491090539240,1,-20,2,2,-49,16,20,127,61
1491090539241,2,-16,-8,-6,-4,-33,8,-128,-36
1491090539241,2,32,19,36,124,51,-18,79,35
1491090539285,3,-79,-30,-33,-67,-98,-38,103,-2
1491090539285,3,89,-11,-22,-51,20,-58,-32,-57
1491090539287,0,-20,15,35,25,75,112,1,0
1491090539287,0,17,24,3,-65,-69,-128,-128,10
1491090539288,2,-6,-9,-21,-62,-62,-101,9,-20
1491090539288,2,54,-3,-13,-52,5,100,110,59
1491090539289,3,14,6,8,71,11,-91,-117,-18
1491090539289,3,-21,-15,33,95,15,25,29,-4
1491090539334,0,-4,10,7,3,-29,-91,-2,25
1491090539334,0,-39,-10,-50,-93,-16,-5,-17,-26
1491090539335,1,33,10,7,-70,-11,22,-79,-6
1491090539335,1,-13,18,2,70,97,77,69,-21
1491090539335,2,-2,12,12,-24,-72,-33,57,23
1491090539335,2,-11,-13,3,60,-85,-42,-55,-5
1491090539336,3,36,-13,-1,-91,40,32,61,-10
1491090539336,3,-33,2,15,-37,9,25,-55,9
1491090539383,0,-10,-2,-23,94,9,-29,-79,-2
1491090539383,0,18,-4,-34,22,-65,38,-23,-6
1491090539384,1,12,6,11,19,56,-83,-24,16
1491090539384,1,13,-3,39,35,59,98,48,-31
1491090539384,3,-12,-9,-44,-48,-9,-66,5,-1
1491090539384,3,8,-41,-53,-44,-63,-102,-9,34
1491090539385,0,2,-11,0,-68,-7,84,-6,-33
1491090539385,0,15,29,60,112,102,-8,62,-5
1491090539431,1,0,10,24,-89,19,127,-42,17
1491090539431,1,-40,10,-9,-68,29,-101,-44,-19
1491090539432,2,5,-4,-26,-1,-69,30,0,36
1491090539432,2,5,-6,5,-95,-84,74,-1,30
1491090539433,0,46,0,3,8,17,17,-115,-17
1491090539433,0,-29,-13,1,-46,59,-22,124,25
1491090539434,1,-2,-3,-20,52,-15,20,-41,-23
1491090539434,1,-21,19,37,46,-36,3,-107,25
1491090539480,2,29,30,36,-58,-5,-34,-8,-3
1491090539480,2,44,38,5,-10,-44,97,84,-12
1491090539481,3,-45,-23,-28,-30,5,-75,-31,33
1491090539481,3,2,-11,-24,-3,-78,88,-92,-32
1491090539481,1,-3,-20,-56,-28,-116,-32,-7,38
1491090539481,1,-25,-33,-30,-66,-17,70,32,-43
1491090539482,2,79,6,0,86,-73,-31,27,-3
1491090539482,2,-43,17,-16,-23,127,73,-2,3
1491090539529,3,52,25,63,83,3,-30,57,44
1491090539529,3,-10,4,-8,-124,-128,-118,14,-9
1491090539530,0,-14,-8,28,15,101,127,3,-29
1491090539530,0,-35,-15,-14,3,-41,-128,24,-23
1491090539531,2,-16,20,40,55,-124,-5,48,-54
1491090539531,2,5,-9,-32,-75,-83,-110,-127,54
1491090539531,3,-11,0,21,117,94,1,59,-64
1491090539531,3,-3,-28,-72,-113,-128,-120,-60,-23
1491090539577,0,21,16,16,80,127,9,18,95
1491090539577,0,-7,35,109,9,-61,125,102,-61
1491090539578,1,-18,19,19,77,-5,-128,-81,-83
1491090539578,1,27,-35,-72,-17,-50,81,25,71
1491090539579,3,32,79,127,-30,98,84,-55,-3
1491090539579,3,18,63,96,127,-51,-68,61,-39
1491090539580,0,-29,-66,-113,-108,91,-72,-119,-61
1491090539580,0,-4,-44,-77,-65,-101,2,54,5
1491090539626,1,-20,-23,-15,-35,65,127,-82,-45
1491090539626,1,13,23,31,70,96,-62,6,43
1491090539627,2,8,16,87,79,-59,101,-6,15
1491090539627,2,-16,-43,-87,-30,-27,88,-16,-35
1491090539627,0,-11,-17,-54,-58,-110,-82,-33,-24
1491090539627,0,-3,29,98,-9,127,80,-57,-10
1491090539629,1,22,0,39,74,-128,25,63,56
1491090539629,1,-25,-39,-109,-117,-77,-80,-98,-16
1491090539675,2,-3,-9,22,-22,66,92,61,7
1491090539675,2,3,-28,-41,15,61,54,-5,-43
1491090539676,3,9,65,67,32,-71,-78,-23,20
1491090539676,3,19,23,47,-9,-53,2,46,8
1491090539676,1,-24,-54,-34,-128,112,127,38,-24
1491090539676,1,18,27,98,120,127,102,127,-1
1491090539677,2,23,4,-72,-128,-128,-21,-57,43
1491090539677,2,-15,9,35,-15,-67,-6,47,15
1491090539724,3,-1,-19,-16,-128,18,57,-122,-52
1491090539724,3,-15,-35,-113,24,-36,-24,83,-37
1491090539724,0,-11,4,112,127,127,79,6,-8
1491090539724,0,25,41,-45,-41,-128,-26,48,33
1491090539725,1,-24,-44,-66,-59,-11,-70,-104,57
1491090539725,1,-24,14,-12,-115,-35,-33,78,-27
1491090539726,2,-21,-24,-27,127,-98,45,-68,-57
1491090539726,2,-7,-6,-1,127,81,27,-59,8
1491090539772,3,20,57,127,107,109,-41,-34,99
1491090539772,3,-3,-7,35,-47,-43,127,75,-10
1491090539773,0,-46,2,-93,69,-115,-85,-21,-4
1491090539773,0,-50,-19,-26,77,92,-101,-102,-92
1491090539774,2,22,0,-1,-128,-81,-58,86,51
1491090539774,2,32,49,38,-69,87,127,-1,-62
1491090539775,3,27,-7,11,127,-108,-126,47,7
1491090539775,3,100,-56,-82,-37,-26,-60,-119,38
1491090539821,0,91,28,70,-81,127,61,-32,-10
1491090539821,0,35,-7,1,-27,-39,-45,51,-12
1491090539822,1,0,18,5,-63,127,-2,84,-29
1491090539822,1,-41,23,45,71,76,127,-92,-13
1491090539828,3,-42,-55,-24,-116,58,127,13,-114
1491090539828,3,-27,58,-46,-23,35,45,7,14
1491090539828,0,62,71,44,52,127,99,-33,39
1491090539828,0,-73,79,62,31,-11,19,37,-21
1491090539870,1,-54,-32,-44,30,-15,2,38,78
1491090539870,1,-23,-36,-27,32,17,-47,-62,-20
1491090539871,2,16,77,65,5,-9,-57,7,-24
1491090539871,2,81,-127,-82,-50,-19,37,-20,-15
1491090539871,0,-32,-58,-48,-24,127,1,2,-48
1491090539871,0,-92,75,31,-2,35,-128,-50,23
1491090539872,1,-71,-102,-82,-63,-8,14,14,-73
1491090539872,1,-128,74,77,39,-102,108,21,4
1491090539919,2,-128,-48,21,-30,-128,-69,50,45
1491090539919,2,-53,-6,31,114,45,88,14,-11
1491090539922,3,41,34,24,-74,-128,-79,-44,-48
1491090539922,3,63,-82,-68,56,-42,77,60,-19
1491090539923,1,127,30,51,98,27,25,-97,45
1491090539923,1,120,-60,-80,-65,5,-15,-1,27
1491090539929,2,14,-20,62,127,16,-66,72,-38
1491090539929,2,-11,-16,-42,6,3,110,-42,15
1491090539968,3,-20,-19,-27,-104,-67,-99,121,73
1491090539968,3,39,51,-13,-96,-97,-128,-110,-34
1491090539969,0,85,-45,-59,48,114,115,64,-89
1491090539969,0,127,-4,34,-15,-2,-67,6,43
1491090539969,2,-50,2,8,34,72,42,75,-10
1491090539969,2,-12,-51,62,-72,-121,43,-18,-56
1491090539972,3,-5,-15,-125,93,65,-94,-56,-49
1491090539972,3,-52,-18,85,13,77,85,109,87
1491090540016,0,-124,-7,-24,-37,14,74,-71,-13
1491090540016,0,-29,97,120,-64,-4,-94,35,-6
1491090540017,1,-9,-13,-76,-66,-22,118,84,-55
1491090540017,1,105,-30,-50,-122,-89,-55,25,55
1491090540018,3,-6,100,87,127,68,127,122,16
1491090540018,3,-100,29,-26,21,-106,-123,-107,-23
1491090540020,0,-96,5,41,-82,14,-90,127,60
1491090540020,0,-89,8,44,35,-128,-54,-41,9
1491090540065,1,-106,-29,-45,-80,34,34,-67,-86
1491090540065,1,-128,36,75,-81,-3,17,117,-64
1491090540066,2,-52,-55,-114,88,55,94,46,99
1491090540066,2,-128,-3,-22,-88,14,28,-56,50
1491090540066,3,35,-4,34,80,-57,-64,-10,34
1491090540066,3,-76,9,75,-47,-48,70,-98,-119
1491090540067,0,-122,-1,-11,30,8,85,73,53
1491090540067,0,-109,7,-63,-57,-44,-77,14,10
1491090540114,1,-117,6,45,88,41,35,13,-57
1491090540114,1,-28,-45,-16,8,11,-43,-59,-15
1491090540115,2,111,49,50,20,-128,-3,-40,30
1491090540115,2,127,-55,-71,-29,119,-27,-46,-43
1491090540115,0,81,80,33,-41,28,44,-79,-68
1491090540115,0,61,18,31,55,48,-64,79,123
1491090540116,1,54,-9,71,121,36,80,113,107
1491090540116,1,-89,-25,-76,-71,-67,-54,72,-64
1491090540163,2,-76,-11,43,69,98,111,60,-1
1491090540163,2,29,40,-54,64,-118,-42,37,62
1491090540164,3,-98,-32,-25,14,124,72,39,-60
1491090540164,3,127,32,17,127,123,127,80,87
1491090540211,1,19,6,63,17,-61,104,96,127
1491090540211,1,94,47,79,-46,83,-70,-67,-125
1491090540212,2,55,-19,-69,81,-71,-74,-107,-22
1491090540212,2,52,-25,-68,-25,-94,-38,-16,-23
1491090540213,3,60,-21,-80,50,55,74,-46,25
1491090540213,3,42,-16,16,14,-75,-82,-77,-102
1491090540214,0,127,36,63,1,-13,52,-25,33
1491090540214,0,-30,-2,18,-128,-87,-31,-2,54
1491090540260,2,26,-29,-51,-14,-51,45,-72,-5
1491090540260,2,37,49,79,37,84,33,-66,28
1491090540261,3,-30,45,111,-128,26,-39,-86,-71
1491090540261,3,-128,-28,-110,-71,-55,-27,88,11
1491090540261,0,-128,-46,26,70,107,71,28,-35
1491090540261,0,-101,-2,-59,-74,-9,53,-73,23
1491090540262,3,-46,6,41,-94,-37,5,59,101
1491090540262,3,22,-16,-23,127,124,123,-41,-37
1491090540309,0,49,-2,19,-12,48,-61,93,65
1491090540309,0,-14,27,11,-41,10,10,56,-67
1491090540310,1,18,-31,-54,80,-128,65,4,6
1491090540310,1,43,35,-42,-78,-73,-122,-113,101
1491090540310,0,-56,10,47,-33,-12,59,75,-48
1491090540310,0,-23,-75,-90,-85,-37,-20,-1,16
1491090540311,1,10,3,18,-100,-128,59,-56,-34
1491090540311,1,-116,-3,-45,-4,-16,-113,-35,20
1491090540358,2,104,-14,-28,-46,61,105,-25,-41
1491090540358,2,83,34,98,127,44,-39,-26,-39
1491090540359,3,-32,12,-29,-35,-49,-71,-73,17
1491090540359,3,76,29,71,-86,105,39,7,14
1491090540359,1,75,18,21,22,11,69,-43,32
1491090540359,1,7,-18,26,107,36,-67,-61,55
1491090540360,2,20,5,22,-92,-108,96,63,-37
1491090540360,2,-37,-25,-74,99,55,-84,8,53
1491090540406,3,-41,-34,-1,61,87,-18,-37,-65
1491090540406,3,33,-11,-29,-12,-122,31,-66,-5
1491090540407,0,-20,11,-3,33,72,12,1,31
1491090540407,0,-21,9,40,60,-111,127,98,11
1491090540408,1,-47,0,-6,-113,-95,-128,-63,43
1491090540408,1,59,-22,-16,-30,44,41,94,-9
1491090540409,2,32,37,5,109,55,64,26,-37
1491090540409,2,-46,12,76,-54,76,81,-10,2
1491090540455,3,72,28,-67,-86,-27,-96,-89,18
1491090540455,3,-35,12,37,61,90,127,16,-102
1491090540457,0,-15,-15,21,3,51,-7,-34,29
1491090540457,0,-16,0,-10,-61,-18,-74,13,21
1491090540458,2,-36,-107,-81,-81,-40,-114,-77,-99
1491090540458,2,18,42,55,39,-68,-84,-120,-25
1491090540459,3,-16,25,46,102,66,41,127,50
1491090540459,3,-2,-16,3,-75,38,96,-38,-81
1491090540504,0,-9,22,-13,123,-63,-7,-49,102
1491090540504,0,15,-81,-95,-85,53,28,104,-89
1491090540553,1,10,8,2,82,-127,44,-65,-5
1491090540553,1,-40,-17,-22,43,69,2,89,5
1491090540554,3,-23,-23,-37,-71,13,91,119,3
1491090540554,3,8,9,47,127,68,18,22,84
1491090540555,0,38,-46,-128,-91,-128,11,55,47
1491090540555,0,12,2,-28,97,115,-89,-121,61
1491090540558,1,-31,5,46,-65,70,45,-31,-109
1491090540558,1,29,18,38,67,46,44,67,-13
1491090540601,2,31,-1,9,-25,-58,-124,26,50
1491090540601,2,53,13,69,41,80,119,-41,-36
1491090540603,0,48,1,31,-58,36,-17,-104,-4
1491090540603,0,-50,7,-30,86,22,-55,117,39
1491090540604,1,-11,1,44,68,77,-62,-48,-67
1491090540604,1,-55,38,58,-56,-105,49,37,-6
1491090540605,1,-18,-22,-44,-47,-79,-13,32,39
1491090540605,1,6,3,59,6,64,100,-74,-64
1491090540650,2,-78,-31,92,75,101,-72,-43,-3
1491090540650,2,-95,-3,-91,55,-105,-5,-35,-7
1491090540651,3,18,-16,23,22,121,-117,18,53
1491090540651,3,-15,24,61,-93,-79,81,-89,-85
1491090540652,2,7,-28,85,-74,-59,92,121,-1
1491090540652,2,-15,82,-2,-26,18,-66,-71,11
1491090540699,3,-74,-98,-30,1,-22,-8,-61,5
1491090540699,3,-22,77,-18,-11,55,32,70,37
1491090540700,0,22,-22,39,102,0,127,26,-19
1491090540700,0,-26,-23,83,-127,-65,20,127,-2
1491090540700,1,-8,-24,-44,-110,-56,-44,-32,2
1491090540700,1,-52,-49,24,104,81,92,6,23
1491090540701,3,25,23,52,-8,31,43,-58,-66
1491090540701,3,49,-128,-101,-67,-128,85,105,-55
1491090540747,0,113,25,-3,66,48,-50,-94,121
1491090540747,0,87,72,39,-100,120,-57,-37,-21
1491090540749,1,50,31,83,127,30,127,122,-8
1491090540749,1,-59,-23,7,19,39,-128,-113,80
1491090540749,3,15,102,107,73,115,79,14,-12
1491090540749,3,-12,50,42,-21,26,66,87,25
1491090540750,0,24,17,1,-73,-12,44,90,11
1491090540750,0,-84,15,11,47,-9,-56,-128,-128
1491090540796,1,-39,-40,8,17,-62,-92,0,-83
1491090540796,1,-25,4,-48,2,-67,-121,-3,-16
1491090540797,2,18,12,4,-74,-13,-128,-110,71
1491090540797,2,2,-21,-30,-18,34,127,127,52
1491090540798,0,-16,-22,30,21,92,-43,-63,-57
1491090540798,0,-5,15,21,127,-100,-92,-40,14
1491090540799,1,1,-1,-77,-117,-73,-128,-75,-9
1491090540799,1,22,27,14,18,35,100,92,39
1491090540845,2,-42,-13,3,127,87,108,-75,-8
1491090540845,2,9,-3,82,-6,4,127,127,1
1491090540846,3,6,16,33,127,55,-50,28,12
1491090540846,3,-4,-22,-90,-36,-20,-128,-112,-103
1491090540847,1,34,23,7,-98,-76,-69,84,85
1491090540847,1,88,9,34,-4,20,78,69,15
1491090540847,2,-107,-17,23,68,-39,53,-65,-4
1491090540847,2,-109,0,-24,-52,-9,-37,87,-45
1491090540894,3,-117,-22,-8,-62,28,127,88,-22
1491090540894,3,61,42,20,-68,30,6,-19,25
1491090540895,0,70,42,26,107,102,114,92,93
1491090540895,0,72,-3,0,55,15,-36,-63,41
1491090540895,2,101,-39,-67,-89,-118,-92,-81,49
1491090540895,2,127,-14,-47,-102,20,78,5,-55
1491090540896,3,127,8,26,80,127,-128,-82,19
1491090540896,3,49,20,80,77,-128,-65,-14,-104
1491090540942,0,21,18,-23,-76,105,106,67,33
1491090540942,0,-64,-12,-1,23,-97,38,-90,-26
1491090540944,1,-102,-69,-70,-112,-76,41,-17,-13
1491090540944,1,-128,15,10,127,-45,110,68,40
1491090540949,3,-46,-11,-13,-67,26,-64,43,54
1491090540949,3,-28,-16,-52,82,-128,-56,-62,37
1491090540950,0,16,23,-15,67,119,75,79,-25
1491090540950,0,-7,0,8,38,-86,-46,-74,33
1491090540991,1,54,-32,-14,7,85,-23,81,-27
1491090540991,1,-6,6,10,-86,-74,-97,-69,1
1491090540992,2,18,-11,-50,-86,62,-79,0,-4
1491090540992,2,53,-1,-41,81,-62,33,59,-64
1491090540993,0,87,19,35,26,-124,62,65,50
1491090540993,0,29,33,71,-122,23,-87,4,-103
1491090540994,1,49,-14,-51,-69,-83,6,-16,39
1491090540994,1,-25,-7,94,-27,52,2,-80,-98
1491090541040,2,8,-23,-45,-79,-110,39,-43,-9
1491090541040,2,-1,-10,-55,-115,-12,-121,-99,76
1491090541041,3,-65,-22,33,65,31,31,116,-77
1491090541041,3,-91,2,-67,10,-128,-4,-120,85
1491090541041,1,52,46,5,0,70,29,6,-4
1491090541041,1,55,-8,37,33,89,127,88,-18
1491090541042,2,22,24,65,31,22,-34,-44,-14
1491090541042,2,-13,-70,-46,-4,6,-128,-8,7
1491090541089,3,17,26,-7,-4,-16,-22,15,-74
1491090541089,3,46,-12,-5,-5,16,55,78,38
1491090541090,0,5,-45,-45,-40,-25,38,30,-33
1491090541090,0,99,56,-3,9,94,77,-14,-3
1491090541090,2,-110,-65,-39,4,86,127,50,0
1491090541090,2,-93,96,78,87,-6,-54,40,-13
1491090541091,3,20,19,26,58,114,53,27,13
1491090541091,3,32,-95,-114,-105,-102,-41,-53,-50
1491090541137,0,105,104,66,15,17,-64,-21,-12
1491090541137,0,-22,-126,-60,6,35,35,-23,16
1491090541138,1,-51,-60,-53,-7,-10,114,14,31
1491090541138,1,-39,91,19,-28,42,-4,21,-36
1491090541139,2,-13,45,86,21,84,-14,49,-2
1491090541139,2,-23,-18,51,-87,2,-18,-19,58
1491090541140,3,-52,-98,-80,-10,-114,-128,-128,-101
1491090541140,3,-29,-84,-41,5,12,102,-6,-39
1491090541186,0,-36,-1,-1,21,-97,81,49,60
1491090541186,0,-35,39,-57,-100,-75,-76,-51,-17
1491090541187,1,19,36,42,29,111,-32,-36,-45
1491090541187,1,-18,-19,-2,81,-75,34,79,-61
1491090541188,3,-41,-48,-32,-34,-128,-74,-124,81
1491090541188,3,-40,106,-12,103,91,100,74,-52
1491090541189,0,38,80,95,-61,-44,-97,-45,82
1491090541189,0,-78,-23,-79,-49,-86,82,123,-57
1491090541235,1,-10,22,60,13,127,-1,-10,36
1491090541235,1,-60,-70,-14,77,-39,34,-94,42
1491090541236,2,37,-27,-33,69,6,29,-74,-6
1491090541236,2,89,5,49,-38,-51,92,78,-74
1491090541236,0,-98,-18,-50,33,-59,21,-88,5
1491090541236,0,-105,-46,-62,-49,18,-128,-128,3
1491090541237,1,-65,2,117,127,121,127,127,90
1491090541237,1,99,57,-44,-128,-128,-21,-101,96
1491090541284,2,-91,-8,-37,-89,-66,-74,-72,-19
1491090541284,2,-75,21,79,43,105,22,68,9
1491090541284,3,-86,-40,-128,82,-92,-52,-44,-71
1491090541284,3,-50,34,96,35,127,-14,16,16
1491090541285,1,89,-13,-8,-56,26,68,111,78
1491090541285,1,40,34,55,100,-121,-86,-72,-38
1491090541286,2,56,7,-21,-108,121,89,-15,-59
1491090541286,2,34,-8,41,89,83,-114,53,84
1491090541332,3,-24,18,36,89,88,127,-10,-125
1491090541332,3,103,-46,-67,-98,-95,-117,-88,65
1491090541333,0,13,-40,-21,4,18,-124,49,-58
1491090541333,0,65,32,-23,-26,-49,115,-6,83
1491090541334,2,31,-7,41,95,42,8,8,-79
1491090541334,2,88,0,-12,31,-51,-89,-19,90
1491090541335,3,60,29,69,-79,-40,14,-27,4
1491090541335,3,-35,-26,-70,26,-34,-61,-46,-119
1491090541381,0,67,2,22,-54,66,32,-40,7
1491090541381,0,64,-11,11,-46,36,93,25,50
1491090541383,1,43,69,48,92,55,-83,17,57
1491090541383,1,5,-58,-80,-67,-112,10,18,-23
1491090541384,3,101,-55,-18,-128,-93,-10,-100,-30
1491090541384,3,98,96,109,77,127,9,-35,-25
1491090541384,0,127,11,-2,17,-128,73,112,-26
1491090541384,0,-19,-6,-61,-73,-18,-115,-113,-53
1491090541433,1,-111,-32,13,-11,46,-87,71,61
1491090541433,1,-128,-19,2,98,20,37,-1,-34
1491090541433,2,-63,-30,79,-68,122,86,19,-27
1491090541433,2,-114,-36,-104,52,-79,17,2,-31
1491090541434,0,-104,-19,-3,113,82,78,32,-56
1491090541434,0,-52,-38,72,22,102,23,71,-31
1491090541434,1,-4,-28,14,38,-96,-106,-68,-29
1491090541434,1,69,44,-63,-66,60,81,38,102
1491090541479,2,123,62,-31,-93,-103,-48,9,57
1491090541479,2,86,2,23,30,88,88,-54,-52
1491090541480,3,14,-98,-41,95,27,127,11,-6
1491090541480,3,28,-3,41,98,-28,26,44,-73
1491090541480,0,0,50,23,-58,29,-103,10,82
1491090541480,0,9,29,-9,123,-128,-128,25,-23
1491090541481,1,-15,17,-68,-115,-18,-2,12,-40
1491090541481,1,-97,29,88,73,101,47,39,20
1491090541527,2,-82,-115,-37,20,-47,58,41,31
1491090541527,2,-66,33,21,-112,-3,-128,26,-27
1491090541528,3,18,17,47,122,127,127,67,-2
1491090541528,3,90,-128,-58,-19,-128,-48,-15,53
1491090541529,1,104,94,35,16,72,0,28,32
1491090541529,1,71,-69,-61,-59,-83,59,59,38
1491090541530,2,74,14,-20,-44,-40,-92,4,8
1491090541530,2,127,-25,-79,-31,-3,22,21,21
1491090541576,3,73,3,-5,35,-110,22,10,-57
1491090541576,3,47,124,85,6,127,47,-29,-11
1491090541577,0,-18,36,58,-90,21,113,-7,2
1491090541577,0,-33,-47,67,90,114,-107,-17,-27
1491090541578,2,-123,-30,-47,16,18,-27,-48,1
1491090541578,2,-86,41,6,65,-66,42,-65,-33
1491090541579,3,-32,17,15,-41,115,-13,-47,82
1491090541579,3,-34,-42,-37,-50,-113,17,1,-79
1491090541625,0,8,-63,-59,61,-44,-52,-63,52
1491090541625,0,22,42,58,67,92,117,-32,-62
1491090541626,1,-14,13,26,82,-120,-101,57,-66
1491090541626,1,-8,-36,18,-47,-58,-59,-13,4
1491090541626,3,101,-21,-125,-128,1,-96,-125,94
1491090541626,3,109,-32,-5,-16,26,-84,-63,-8
1491090541627,0,127,35,94,49,-76,112,109,-37
1491090541627,0,73,7,-69,-24,-86,45,44,37
1491090541674,1,-39,-2,28,56,98,-78,-21,-85
1491090541674,1,-94,-37,16,8,69,11,15,-74
1491090541674,2,-115,-20,-28,44,-48,-128,-128,-3
1491090541674,2,-127,31,68,53,85,85,107,48
1491090541675,0,-67,-81,-75,-65,-48,127,8,-37
1491090541675,0,-66,37,66,-102,112,-5,-79,-35
1491090541676,1,62,-28,-68,-31,-94,71,127,65
1491090541676,1,-21,20,27,127,27,-46,-59,40
1491090541723,2,57,20,25,-2,-4,-80,-32,-29
1491090541723,2,-3,-46,-48,-119,-1,-5,54,-12
1491090541724,3,44,-13,-20,-86,-72,117,84,67
1491090541724,3,70,93,53,64,28,-13,-64,0
1491090541724,1,33,-26,35,118,29,-98,-101,37
1491090541724,1,45,1,-45,-88,4,125,127,60
1491090541725,2,55,31,83,127,102,-24,-36,-74
1491090541725,2,20,-36,-58,-58,-128,-128,-42,30
1491090541771,3,34,-19,-25,9,103,36,-21,-111
1491090541771,3,59,6,57,-28,60,91,-32,-5
1491090541772,0,-8,-24,10,38,45,-16,-60,22
1491090541772,0,93,-25,-34,-128,75,-124,50,50
1491090541772,2,113,40,47,105,-108,127,127,-12
1491090541772,2,-33,-50,-89,-72,-73,51,3,-64
1491090541774,3,0,0,16,58,-24,-123,-49,107
1491090541774,3,-99,-26,-11,-96,49,16,-9,-45
1491090541820,0,35,36,93,127,127,-24,-16,95
1491090541820,0,9,54,27,-73,-128,35,33,47
1491090541821,1,-74,-52,-68,-74,57,-5,-62,-106
1491090541821,1,-128,-28,-43,-21,13,-43,-78,-17
1491090541822,2,56,-25,-67,51,62,16,48,-52
1491090541822,2,70,105,113,-82,38,-128,-112,49
1491090541822,3,-7,24,90,-36,94,127,107,-67
1491090541822,3,16,17,-50,-30,-122,0,72,18
1491090541869,0,-54,-92,-67,-46,-31,-74,-13,-62
1491090541869,0,-9,15,-22,54,89,97,0,61
1491090541870,1,22,21,65,87,35,78,121,48
1491090541870,1,49,-8,25,69,-120,-31,-60,98
1491090541870,3,53,14,1,-55,-19,-21,-128,8
1491090541870,3,81,19,59,6,5,26,10,-40
1491090541871,0,-57,3,-40,-128,-121,-43,-92,71
1491090541871,0,23,32,25,-60,30,-12,25,-68
1491090541918,1,-8,-17,9,70,67,-70,-36,52
1491090541918,1,45,6,11,22,-77,127,-6,-68
1491090541919,2,-44,-27,-51,-84,-4,-109,-97,51
1491090541919,2,-2,-32,35,89,60,102,38,47
1491090541920,0,-44,10,23,-82,-43,95,70,-3
1491090541920,0,102,-55,-83,87,-128,-88,-61,-59
1491090541923,1,-5,53,60,-57,-7,2,94,53
1491090541923,1,-118,-29,-47,-10,21,52,-6,-48
1491090541966,2,71,-14,-4,22,-78,-29,2,-69
1491090541966,2,72,56,-48,-70,50,39,76,76
1491090541968,3,-75,1,4,-98,-47,-104,-100,-52
1491090541968,3,0,-17,-7,25,29,-24,4,-71
1491090541969,1,-18,-32,-79,-108,-126,104,10,15
1491090541969,1,37,-24,-54,50,-4,-73,-43,-33
1491090541970,2,-40,33,33,-13,-34,-18,-22,-3
1491090541970,2,27,25,63,103,75,-25,-111,53
1491090542016,3,-75,-45,15,-92,-53,-49,-82,-60
1491090542016,3,44,15,-77,-120,-73,20,103,-18
1491090542018,0,39,3,-4,62,80,42,-9,-83
1491090542018,0,-20,-9,34,84,-79,-3,67,31
1491090542019,2,110,44,18,24,68,-3,-98,-11
1491090542019,2,-29,26,25,-41,-5,-91,-20,13
1491090542020,3,18,-34,-8,127,73,113,3,25
1491090542020,3,4,10,19,-2,-74,-128,-5,84
1491090542064,0,-50,27,16,-16,53,68,-45,-22
1491090542064,0,37,-23,-9,-44,-109,-67,-54,-23
1491090542113,1,-38,-27,-57,-68,17,68,-14,-25
1491090542113,1,7,44,52,32,34,9,63,-13
1491090542114,3,-4,1,-64,-13,-106,34,4,-30
1491090542114,3,44,-9,-39,4,-20,127,31,57
1491090542115,0,15,-26,51,26,90,-21,43,31
1491090542115,0,-61,17,-2,-118,-117,4,-70,-98
1491090542116,1,-1,-27,-20,12,41,-81,-10,18
1491090542116,1,-72,-9,13,-59,42,127,43,-80
1491090542162,2,85,67,42,31,59,-92,-95,86
1491090542162,2,-22,3,49,106,56,-100,16,41
1491090542163,0,-24,-73,-128,-128,-128,127,22,1
1491090542163,0,1,7,-4,28,105,-45,-30,38
1491090542164,1,42,-34,-22,127,17,-92,-12,-17
1491090542164,1,3,-4,76,39,120,47,59,23
1491090542166,0,-19,2,1,87,23,124,77,-13
1491090542166,0,-24,-16,-40,-18,-39,-106,-24,2
1491090542211,1,-49,-15,-49,-82,-55,-19,-74,26
1491090542211,1,50,3,-22,-14,47,87,56,-14
1491090542213,2,-2,-42,-43,-23,-109,-77,-44,32
1491090542213,2,-48,-6,-7,-44,83,117,64,-11
1491090542215,1,-4,12,63,3,98,76,-28,64
1491090542215,1,-57,-71,-83,-116,-71,-28,-21,-113
1491090542216,2,-54,57,4,65,65,-42,101,16
1491090542216,2,84,46,16,-75,-91,-87,-95,26
1491090542259,3,-32,4,17,-107,127,51,69,-82
1491090542259,3,-106,23,82,80,-77,-84,41,127
1491090542260,0,53,-72,-81,-71,50,127,38,-75
1491090542260,0,-115,1,-2,-57,99,-128,-101,-34
1491090542261,2,61,-11,65,-17,-77,59,-39,-62
1491090542261,2,-13,44,-3,-44,-62,-3,24,35
1491090542262,3,12,-52,6,31,86,90,-6,-21
1491090542262,3,-14,13,-54,29,-128,-8,-50,9
1491090542308,0,-25,-28,-42,-71,-32,-128,-100,-3
1491090542308,0,48,0,21,127,-16,71,18,-41
1491090542309,1,50,14,-33,-25,59,38,119,127
1491090542309,1,-28,21,19,64,-30,-117,-128,-9
1491090542310,3,-29,-3,-1,15,81,82,21,-60
1491090542310,3,-4,49,81,-92,-6,30,-25,44
1491090542311,0,37,-41,-79,-32,-78,-123,-59,1
1491090542311,0,-88,-65,-44,-41,-8,71,72,-46
1491090542356,1,-7,-33,-14,-18,19,-98,-45,-26
1491090542356,1,20,18,35,12,76,127,-62,-53
1491090542357,2,-30,49,42,2,35,-119,35,22
1491090542357,2,-1,-17,29,106,-33,38,-61,-86
1491090542358,0,73,64,85,127,-33,99,-10,4
1491090542358,0,32,26,47,-32,111,-55,-107,6
1491090542359,1,58,-12,-55,-111,-128,8,13,53
1491090542359,1,-33,-86,-101,-128,-47,30,110,-81
1491090542405,2,92,78,79,100,127,48,127,127
1491090542405,2,-47,-11,9,-98,-73,119,127,-4
1491090542454,3,-47,45,60,9,-50,-47,-2,0
1491090542454,3,47,-58,-115,13,34,-107,-70,47
1491090542455,1,-16,-41,30,76,85,-49,4,20
1491090542455,1,8,38,11,-13,-101,-88,-128,-3
1491090542455,2,-25,-17,-95,95,102,55,-22,5
1491090542455,2,-10,1,17,89,-15,-112,-72,-24
1491090542456,3,17,31,27,43,-1,-71,-69,-9
1491090542456,3,-24,-9,44,-70,46,52,60,-27
1491090542551,0,39,0,14,35,-128,69,10,72
1491090542551,0,-10,-64,-128,-128,-65,-118,-71,-27
1491090542552,2,-5,-6,19,-128,-3,-128,-42,56
1491090542552,2,13,-12,3,-76,-73,76,32,11
1491090542553,3,-1,38,54,-6,66,-128,-128,41
1491090542553,3,6,19,-12,-43,-66,-85,68,-13
1491090542554,3,15,-11,76,71,42,127,18,91
1491090542554,3,14,5,-46,-97,47,-34,94,-66
1491090542600,0,-17,1,50,80,-52,3,-49,-115
1491090542600,0,11,21,-10,1,-16,79,127,104
1491090542601,1,-26,-28,-29,-74,-63,-13,-10,-65
1491090542601,1,0,4,-55,-54,-56,-13,-77,-36
1491090542602,3,-24,-71,-95,-105,-46,-47,-39,-7
1491090542602,3,3,68,62,91,75,40,80,-33
1491090542603,0,-60,15,4,-85,11,68,12,87
1491090542603,0,24,9,52,65,87,-45,-35,29
1491090542649,1,22,2,71,-20,79,127,74,-95
1491090542649,1,35,-3,39,113,-128,9,-27,90
1491090542649,2,-106,-18,-86,-106,90,-128,-107,71
1491090542649,2,-5,-23,-20,-42,98,12,123,-74
1491090542650,1,-40,-50,-6,76,-37,93,50,35
1491090542650,1,81,16,-6,-32,24,-36,-15,1
1491090542651,2,86,27,71,49,75,126,113,3
1491090542651,2,34,21,9,2,-73,-101,-65,51
1491090542697,3,-53,-67,-74,-84,-114,-109,-81,-33
1491090542697,3,-34,-12,0,31,0,-62,88,8
1491090542698,0,-16,2,39,-121,-110,11,-1,-56
1491090542698,0,82,13,49,127,73,127,34,96
1491090542699,2,23,-36,-38,9,-89,-128,-54,13
1491090542699,2,-16,31,27,67,106,53,-46,-23
1491090542700,3,-12,49,86,73,-22,113,45,25
1491090542700,3,-39,-9,-6,-26,75,-39,-55,-5
1491090542746,0,-60,-15,-21,-22,44,60,111,-13
1491090542746,0,-7,20,44,-60,-128,23,-112,-74
1491090542747,1,27,5,-16,101,31,-65,47,103
1491090542747,1,64,10,127,13,-58,99,47,-123
1491090542748,3,30,6,40,57,5,127,58,-16
1491090542748,3,-31,35,-21,-37,31,79,30,25
1491090542749,0,34,17,53,67,97,74,-88,-9
1491090542749,0,23,-35,4,-33,-71,-55,68,23
1491090542795,1,-31,32,54,-14,-35,-38,22,-72
1491090542795,1,33,34,6,-78,-84,77,-79,87
1491090542796,2,-48,7,-30,74,44,-74,-32,-118
1491090542796,2,-22,-23,-61,18,-50,-100,-74,-68
1491090542797,0,52,-2,-18,-77,-91,-15,-32,42
1491090542797,0,32,64,93,12,-24,103,95,117
1491090542798,1,56,-44,-128,-115,-51,-96,-91,-37
1491090542798,1,-80,-20,18,7,84,-52,-31,-22
1491090542844,2,53,4,74,35,107,43,8,26
1491090542844,2,-126,-1,-6,62,48,80,69,-4
1491090542844,3,52,9,44,-23,-2,-44,-46,45
1491090542844,3,56,34,46,-18,-58,-103,5,23
1491090542845,1,-67,37,95,67,97,127,127,-41
1491090542845,1,17,-24,-108,-87,-120,65,-6,21
1491090542846,2,-13,-14,-33,45,38,-67,44,-19
1491090542846,2,19,-12,13,56,58,127,-23,-22
1491090542892,3,-45,16,-29,-28,-105,-128,-98,90
1491090542892,3,62,8,41,13,117,11,-50,-55
1491090542893,0,-13,-18,11,-47,-38,4,101,-8
1491090542893,0,-23,14,6,-58,41,-107,-14,18
1491090542941,1,-37,23,77,94,127,-21,-97,14
1491090542941,1,-48,-19,4,101,-128,-46,127,23
1491090542942,2,-79,-94,-93,-118,-82,-6,-84,-60
1491090542942,2,107,66,45,17,63,10,58,-82
1491090542943,3,-28,-13,-79,-128,-119,-72,2,67
1491090542943,3,-8,10,-17,-20,-9,-88,64,15
1491090542944,0,-24,10,45,-82,90,-128,-101,-44
1491090542944,0,14,-39,8,31,-78,87,79,58
1491090542990,2,80,59,46,-19,-119,-85,-78,6
1491090542990,2,-110,-29,-45,-126,94,-35,-7,-96
1491090542991,3,-34,-36,38,38,38,127,122,-9
1491090542991,3,34,41,-13,-106,-107,44,-60,40
1491090542991,0,-52,-63,-67,-68,-7,-21,-32,-46
1491090542991,0,13,6,-4,119,43,-123,-65,112
1491090542992,3,-44,-12,-25,97,127,39,47,-3
1491090542992,3,12,9,25,-18,-128,57,-2,13
1491090543039,0,56,-17,-30,-5,4,-1,79,79
1491090543039,0,-84,-58,-99,-85,-99,-128,-48,-30
1491090543040,1,110,38,53,-30,81,78,-41,-3
1491090543040,1,-5,11,-9,20,-73,76,-29,5
1491090543040,0,23,32,85,102,-43,-71,90,0
1491090543040,0,-40,-10,-104,-125,-85,-76,-98,-27
1491090543041,1,-87,-13,-2,76,80,-12,-18,-10
1491090543041,1,29,-14,-4,-110,-119,-83,7,-33
1491090543136,2,-26,40,36,80,66,127,55,77
1491090543136,2,-2,2,65,-88,81,-2,95,-44
1491090543137,3,-56,0,-83,0,-128,-48,15,-33
1491090543137,3,43,-2,-63,-25,64,-128,-20,33
1491090543137,1,-73,-35,-24,-59,-54,80,-18,3
1491090543137,1,-52,-73,-80,-80,-21,-79,-78,-41
1491090543185,2,29,40,32,-60,5,-88,5,60
1491090543185,2,-54,-21,17,21,-44,-35,59,-4
1491090543186,3,-6,-7,24,59,53,0,-45,-72
1491090543186,3,-51,-34,23,7,21,110,23,58
1491090543186,0,42,35,-22,-73,60,2,-37,-57
1491090543186,0,-19,60,102,-44,23,87,59,42
1491090543187,2,-6,8,-8,-7,-36,59,44,-3
1491090543187,2,-7,4,18,-16,96,-110,-128,4
1491090543234,3,38,2,2,66,116,87,32,66
1491090543234,3,58,62,97,-76,-76,53,37,-128
1491090543235,0,-47,-25,-87,113,-54,-85,-91,28
1491090543235,0,26,-36,-32,42,-13,-13,13,-27
1491090543235,1,-90,-24,-26,-112,-128,29,-34,-3
1491090543235,1,61,-18,2,105,73,-80,-68,-15
1491090543236,3,59,51,78,3,29,63,70,41
1491090543236,3,-38,7,-42,-108,-49,-102,-30,15
1491090543282,0,22,-41,-64,-4,-56,-84,-40,-62
1491090543282,0,-22,-20,15,81,58,72,-22,89
1491090543283,1,17,29,32,-70,127,84,83,8
1491090543283,1,-5,24,39,62,-32,-77,-36,-61
1491090543284,0,-53,-23,-48,97,-18,-50,-56,22
1491090543284,0,10,6,-20,-79,-33,80,-47,-38
1491090543285,1,-43,-26,-52,-42,-85,-75,-68,-79
1491090543285,1,25,50,25,13,49,-64,60,56
1491090543331,2,-16,-11,20,-28,-3,15,-22,-32
1491090543331,2,2,0,6,-47,-75,55,3,-36
1491090543333,3,-55,-10,-49,127,-9,-128,-71,57
1491090543333,3,73,6,25,66,39,125,21,10
1491090543334,1,-68,-24,3,-87,-61,94,33,-128
1491090543334,1,35,-1,73,127,127,96,71,80
1491090543335,2,21,17,-34,-26,-63,26,26,91
1491090543335,2,-11,-32,-17,-107,-8,-104,-97,-21
1491090543380,3,21,36,0,52,0,90,46,-26
1491090543380,3,-72,-53,-54,-55,-98,-114,-36,-52
1491090543381,0,28,38,110,116,127,19,28,47
1491090543381,0,-26,-21,27,-112,-128,67,-37,-42
1491090543381,2,5,-7,-72,-11,-102,-23,26,82
1491090543381,2,-13,-10,-29,-44,3,41,17,22
1491090543382,3,-16,2,76,95,93,66,-67,19
1491090543382,3,33,11,-21,-74,-49,-31,86,42
1491090543429,0,-8,-5,31,31,101,-53,-8,-77
1491090543429,0,-23,10,115,44,33,66,127,-29
1491090543429,1,45,-28,-102,-128,-120,-112,-107,44
1491090543429,1,-53,-34,-90,-41,21,-91,-4,-34
1491090543430,3,106,50,67,127,-41,88,40,-44
1491090543430,3,-61,-75,-113,-97,-109,97,-36,39
1491090543431,0,9,6,52,23,71,75,25,-10
1491090543431,0,-5,1,-7,82,-128,-30,50,44
1491090543477,1,75,28,20,-14,-14,-128,-77,-34
1491090543477,1,-77,-14,27,49,76,64,44,6
1491090543478,2,10,-12,-33,-128,-128,127,80,-91
1491090543478,2,-28,-12,-34,-57,88,-1,-83,17
1491090543526,0,8,28,-3,79,-13,-103,-13,62
1491090543526,0,-7,-11,-82,-101,-45,-128,-1,-31
1491090543527,1,-4,-29,-13,34,-49,-12,-36,13
1491090543527,1,-20,-6,-18,-101,25,84,-24,-24
1491090543527,2,-13,21,61,50,22,127,-9,-43
1491090543527,2,24,37,-15,-10,14,-55,37,58
1491090543529,3,-18,-40,-18,-22,-82,-18,-91,-47
1491090543529,3,28,37,48,23,-27,-68,53,44
1491090543624,1,-13,4,58,-47,48,127,121,25
1491090543624,1,-56,9,12,53,22,-128,-105,-64
1491090543625,2,23,-20,29,9,-41,18,59,-5
1491090543625,2,-25,-36,-94,-107,-120,-102,16,-28
1491090543721,1,-39,39,62,-59,83,84,38,3
1491090543721,1,4,-12,-21,123,-38,23,-97,41
1491090543722,2,-45,-32,-29,-54,37,85,55,-28
1491090543722,2,24,19,42,-98,-66,7,76,-72
1491090543723,3,-7,-5,-19,68,-33,-49,71,100
1491090543723,3,-15,-13,-76,-74,0,-128,-21,26
1491090543724,0,-16,15,9,-38,-12,29,-90,-82
1491090543724,0,-5,-18,-22,-57,-61,-58,-61,16
1491090543770,3,-44,-30,-128,-96,-96,-81,-75,-46
1491090543770,3,-27,-68,5,60,127,127,127,11
1491090543771,0,16,96,82,-105,-128,-128,-124,38
1491090543771,0,-75,-11,-8,-11,48,-71,11,-50
1491090543772,1,51,-16,3,20,62,127,86,-22
1491090543772,1,63,38,12,-38,26,2,-4,60
1491090543819,1,-37,2,31,71,56,115,96,63
1491090543819,1,65,63,68,40,-21,-128,-84,22
1491090543819,2,-80,-45,-74,-114,-89,-82,-58,-79
1491090543819,2,-87,-53,-57,-52,-103,-95,-34,14
1491090543820,3,57,26,16,62,98,51,-27,90
1491090543820,3,-128,-37,-83,-82,-48,67,48,-107
1491090543821,2,-13,5,-57,-77,-81,1,-74,-29
1491090543821,2,-97,0,-3,-62,44,32,-11,-8
1491090543867,3,14,-11,-27,0,-114,-94,-71,-30
1491090543867,3,103,26,-13,43,120,-5,-30,107
1491090543916,0,19,-17,80,84,-14,-22,99,35
1491090543916,0,-22,-19,-36,-98,-69,6,20,-35
1491090543917,3,-61,-53,-41,-96,-27,-32,-44,-16
1491090543917,3,20,-20,-7,57,-24,-128,-75,-6
1491090543918,0,-8,-35,-30,-48,21,89,122,-46
1491090543918,0,23,38,-17,-31,-40,90,39,-26
1491090543919,1,37,-21,-26,14,13,94,41,4
1491090543919,1,-9,-15,16,81,33,-80,-94,-18
1491090543965,2,-37,-27,-6,-20,-25,23,35,-6
1491090543965,2,51,24,10,-113,-32,69,22,39
1491090543966,0,-13,-18,-7,96,99,87,-3,-72
1491090543966,0,-24,23,91,-56,119,-91,69,76
1491090543966,1,113,2,-58,23,-128,-21,1,17
1491090543966,1,-94,-48,-27,-36,29,-92,34,-11
1491090543967,0,-29,27,-49,-128,-128,-97,-89,-68
1491090543967,0,18,8,33,125,127,109,50,-15
1491090544014,1,58,36,27,66,-128,30,-87,61
1491090544014,1,-110,-67,-97,-105,-89,-62,-2,-52
1491090544014,2,16,-6,20,7,89,115,80,76
1491090544014,2,-27,-18,-31,101,-17,-69,-45,-36
1491090544015,1,-65,5,-27,-82,-27,107,-39,-115
1491090544015,1,-27,20,28,0,13,-87,23,-10
1491090544016,2,106,-6,-14,38,68,-82,50,-15
1491090544016,2,39,-17,-20,16,-128,-125,7,8
1491090544062,3,-62,-38,11,-75,-39,87,-28,-16
1491090544062,3,19,60,25,83,114,127,42,-7
1491090544063,0,37,34,45,112,-128,-61,-56,2
1491090544063,0,-36,-104,-109,-106,-46,-91,-42,-35
1491090544064,2,47,28,61,50,127,26,127,22
1491090544064,2,-24,10,-5,30,-97,-39,-54,-25
1491090544065,3,-31,-24,-16,-41,19,10,115,-51
1491090544065,3,-3,-16,-24,-25,26,127,-78,-23
1491090544111,0,27,-29,-41,-34,7,-33,-78,0
1491090544111,0,-37,33,68,55,127,113,51,-40
1491090544112,1,41,10,14,67,-121,38,97,35
1491090544112,1,-84,-3,-44,-52,4,-92,-1,-1
1491090544113,3,-13,21,97,-100,127,-49,19,30
1491090544113,3,38,-7,-9,118,-105,-77,-13,-30
1491090544114,0,-115,-61,-128,-97,-69,31,-60,36
1491090544114,0,74,-4,31,-21,103,38,25,-16
1491090544160,1,-62,14,6,117,108,66,-22,5
1491090544160,1,31,11,53,-30,-72,-80,19,-47
1491090544161,2,9,37,70,-31,49,-34,84,69
1491090544161,2,-2,-46,-95,-30,-118,-15,19,-47
1491090544161,0,-56,-38,-65,89,-35,58,54,9
1491090544161,0,3,51,22,50,-1,77,-2,24
1491090544162,1,21,25,33,7,-54,-45,-18,4
1491090544162,1,-3,10,30,19,127,127,30,-15
1491090544209,2,-1,10,72,82,-65,-77,-91,-62
1491090544209,2,-76,-56,-74,-62,-62,-107,2,99
1491090544209,3,-11,-34,-59,27,38,-21,46,-79
1491090544209,3,7,5,11,-95,50,46,-71,-36
1491090544210,1,-55,-19,-35,-55,-128,-105,7,-58
1491090544210,1,-35,-44,-57,-26,-27,-128,47,58
1491090544211,2,-3,-5,8,19,-40,-29,-17,-35
1491090544211,2,-40,29,10,-56,25,13,-90,-48
1491090544257,3,69,59,67,73,74,72,70,77
1491090544257,3,-16,-12,3,-42,-33,91,34,5
1491090544258,0,-26,-18,-66,-100,-44,74,37,60
1491090544258,0,29,18,51,31,101,-17,35,-33
1491090544260,2,50,-24,-14,93,14,-80,-73,0
1491090544260,2,46,11,34,85,17,61,17,-31
1491090544261,3,-91,-38,-64,-26,-39,26,-23,-1
1491090544261,3,104,47,38,-83,3,-50,-10,-13
1491090544306,0,-98,-14,-32,-87,-90,-76,-3,-96
1491090544306,0,26,30,89,95,56,67,-81,18
1491090544307,1,58,-20,-12,-118,-64,23,68,-20
1491090544307,1,-4,-11,-64,93,-72,115,31,32
1491090544308,2,22,45,31,63,86,-67,-5,16
1491090544308,2,-54,-11,5,-92,-41,-25,94,-75
1491090544309,3,-37,-29,-42,20,17,-124,-23,-28
1491090544309,3,39,2,42,-102,94,48,69,37
1491090544355,0,14,36,94,-24,87,127,13,7
1491090544355,0,-31,-12,-40,13,-67,0,-11,41
1491090544356,1,15,-62,-87,-17,-76,121,16,11
1491090544356,1,-52,-6,-93,-55,-128,-128,-97,21
1491090544356,3,-35,43,62,93,90,-103,-75,-23
1491090544356,3,33,-39,-35,-76,-48,-98,38,-20
1491090544357,0,-72,11,-22,55,30,28,40,88
1491090544357,0,-83,-2,-18,-33,-102,-70,-128,-57
1491090544404,1,-18,-19,7,26,-14,21,126,-10
1491090544404,1,-7,26,109,127,-8,-26,-1,7
1491090544404,2,60,-29,-67,-56,-47,105,75,-8
1491090544404,2,-37,-24,-100,-40,-53,-121,-26,70
1491090544405,0,-54,8,92,-32,108,-24,17,66
1491090544405,0,23,13,-13,3,-58,-52,-74,-31
1491090544406,1,-90,-68,-89,-97,-125,-128,-67,-61
1491090544406,1,-12,25,88,-42,104,34,37,20
1491090544452,2,-48,26,-37,-96,-97,115,60,-24
1491090544452,2,72,-22,-61,-18,-32,-49,-46,-22
1491090544453,3,66,45,61,66,118,-42,52,81
1491090544453,3,-22,-42,-65,0,-122,94,35,-89
1491090544454,1,30,31,18,58,-128,-66,-18,-26
1491090544454,1,-9,-39,-67,-75,-17,-128,-72,-9
1491090544455,2,34,30,-15,-17,-30,-71,-87,-30
1491090544455,2,9,-63,-45,-12,32,96,31,18
1491090544501,3,48,70,127,-35,127,108,17,53
1491090544501,3,-12,5,-26,56,-64,25,71,-44
1491090544502,0,4,-22,-72,-7,-48,-43,-18,27
1491090544502,0,43,19,-20,-64,49,55,9,-64
1491090544503,2,6,-54,-76,8,-75,-23,-74,11
1491090544503,2,30,-39,-59,29,-50,60,79,-89
1491090544504,3,72,38,14,4,50,0,-35,12
1491090544504,3,-43,-18,-23,-128,-70,-30,-70,40
1491090544550,0,74,-24,4,127,79,25,-11,-21
1491090544550,0,-11,29,53,62,-3,98,60,80
1491090544551,1,-96,-53,-70,-60,-19,59,-94,-1
1491090544551,1,81,3,34,66,107,-79,25,-72
1491090544551,3,30,9,-2,-100,42,-95,-75,-76
1491090544551,3,-74,14,-45,127,51,10,26,-89
1491090544552,0,22,-54,-33,76,-52,76,73,46
1491090544552,0,76,53,95,49,127,-52,16,-20
1491090544599,1,-56,-15,-93,75,-128,-58,-14,17
1491090544599,1,-3,-94,-71,30,106,28,-73,12
1491090544600,2,11,60,42,5,84,52,104,44
1491090544600,2,-64,-8,48,20,-26,81,-27,17
1491090544600,0,90,-21,-3,67,22,94,5,-24
1491090544600,0,-12,32,0,35,82,-103,-78,118
1491090544601,1,-13,-40,4,-39,-65,-62,60,-95
1491090544601,1,-9,-12,-61,-42,-69,109,127,75
1491090544647,2,48,60,112,30,94,58,38,-2
1491090544647,2,12,6,-31,-52,-128,-87,-31,-29
1491090544648,3,-54,-24,-75,97,84,-62,-72,-5
1491090544648,3,34,27,16,-79,-86,-19,-6,39
1491090544649,0,-35,24,75,-3,57,45,6,24
1491090544649,0,70,3,-1,127,-26,0,11,-38
1491090544650,1,-96,-76,-96,-97,-77,100,71,45
1491090544650,1,65,33,64,121,127,127,21,-15
1491090544696,2,-57,18,18,-75,21,-117,-52,-1
1491090544696,2,10,-14,46,-31,-64,-80,-63,-90
1491090544698,3,-45,-23,-49,-96,-66,-81,-7,-22
1491090544698,3,47,56,52,90,58,-14,-114,22
1491090544701,1,68,8,41,-13,3,127,127,99
1491090544701,1,-16,23,23,-117,72,-15,-80,-89
1491090544702,2,-65,2,-13,33,-6,61,-26,39
1491090544702,2,26,-44,-42,-7,-35,-35,-6,-14
1491090544745,3,-2,-10,36,-37,108,105,62,-14
1491090544745,3,12,42,44,56,25,-97,27,-2
1491090544746,0,-10,-43,-66,-67,-128,-20,-76,-77
1491090544746,0,58,0,-1,124,110,106,58,93
1491090544746,2,-51,31,38,37,5,-31,-36,-50
1491090544746,2,-19,-77,-114,-65,-53,92,114,53
1491090544747,3,83,17,44,98,70,9,-108,-44
1491090544747,3,53,17,31,20,3,18,40,77
1491090544794,0,4,-11,-34,43,-65,7,-51,-98
1491090544794,0,-44,1,16,-61,48,42,-3,14
1491090544794,1,63,25,39,127,21,19,33,66
1491090544794,1,-40,-26,-11,-85,-4,127,-15,8
1491090544795,3,-46,-13,-16,-34,-12,23,50,5
1491090544795,3,-16,-21,75,127,65,84,73,-44
1491090544796,0,30,4,-33,-124,-45,-57,-52,104
1491090544796,0,34,18,-66,99,-58,-19,54,-26
1491090544842,1,-99,-19,-71,25,-111,-50,-128,-64
1491090544842,1,92,-7,-32,-17,45,-75,79,61
1491090544843,2,-25,-16,47,-33,96,119,104,-45
1491090544843,2,32,64,70,-76,28,-121,-66,43
1491090544844,0,38,3,34,-119,34,23,0,-2
1491090544844,0,24,21,-8,35,2,127,66,51
1491090544845,1,-28,-53,-30,127,-82,-50,38,9
1491090544845,1,32,6,-65,-51,-95,32,-102,-60
1491090544891,2,-77,7,-13,127,71,36,-23,6
1491090544891,2,-9,-4,24,-128,-42,-49,-106,-50
1491090544892,3,26,7,31,-71,127,117,32,27
1491090544892,3,-11,-6,10,-52,9,60,127,57
1491090544893,1,28,7,2,53,-91,-84,-107,51
1491090544893,1,-82,16,2,28,18,-128,47,-38
1491090544894,2,-56,-7,-56,-89,-97,47,-50,69
1491090544894,2,20,-23,4,-54,37,12,104,57
1491090544940,3,25,69,72,90,47,106,-111,-59
1491090544940,3,20,-61,-51,-33,30,-46,26,19
1491090544941,0,-25,-34,9,41,-11,-116,-50,-19
1491090544941,0,-36,-11,-12,-75,-126,52,52,-43
1491090544941,2,-13,-28,-26,-20,-62,59,65,-75
1491090544941,2,2,46,68,-25,96,-107,-89,33
1491090544942,3,-24,-45,-28,90,92,-53,32,-72
1491090544942,3,-40,-50,-64,-128,-128,-125,-128,-71
1491090544989,0,75,-20,-78,-72,7,2,7,93
1491090544989,0,-72,57,91,127,76,83,41,-50
1491090544990,1,18,10,-51,-128,-94,-53,18,22
1491090544990,1,-24,-49,8,-47,6,31,-42,-21
1491090544991,2,48,44,43,97,113,70,97,54
1491090544991,2,-16,-22,-22,-56,-99,-96,-79,-35
1491090544991,3,-8,0,56,35,127,-70,127,-24
1491090544991,3,-29,-1,-38,-77,-43,75,72,-42
1491090545037,0,116,21,25,-29,-88,-102,30,98
1491090545037,0,-93,-31,21,-69,39,-85,-80,-53
1491090545039,1,-13,7,-32,-75,33,58,-31,-16
1491090545039,1,-79,-24,-31,120,-64,127,79,24
1491090545039,3,-20,-4,21,-33,95,-33,1,18
1491090545039,3,36,19,34,40,-32,-11,3,36
1491090545040,0,-78,-3,30,-2,77,82,33,-29
1491090545040,0,-11,11,28,-28,2,-56,-17,-57
1491090545086,1,67,-23,-8,92,-5,14,120,10
1491090545086,1,19,35,-31,-103,-42,-128,-92,38
1491090545088,2,10,17,-4,29,3,-128,-43,13
1491090545088,2,-39,-27,-31,-99,-52,-30,0,-12
1491090545089,0,21,-13,4,58,46,31,-25,-42
1491090545089,0,-70,40,39,51,98,48,-38,20
1491090545135,1,92,15,78,85,94,105,76,86
1491090545135,1,-76,-43,-29,-53,-107,-93,19,-50
1491090545136,2,-112,-32,-67,1,-128,-81,25,-8
1491090545136,2,92,-27,-55,13,69,-78,-68,-5
1491090545137,3,-122,10,13,-32,-17,-128,-6,29
1491090545137,3,61,-27,-27,111,-25,107,59,12
1491090545138,1,-69,-12,-8,-82,-123,103,-58,-68
1491090545138,1,-1,8,22,44,127,127,79,124
1491090545184,2,-2,7,10,-84,-54,127,-83,48
1491090545184,2,45,26,-11,46,-35,-64,5,81
1491090545184,3,-6,18,41,76,97,-86,-85,-64
1491090545184,3,-81,-17,-32,-54,-93,-128,5,1
1491090545185,0,35,-55,-20,10,78,11,6,-74
1491090545185,0,5,28,23,53,28,127,96,55
1491090545186,2,67,-25,-23,-22,7,85,79,25
1491090545186,2,-31,45,14,0,72,-53,-104,-17
1491090545232,3,37,-58,-40,-2,-83,53,33,-110
1491090545232,3,127,71,96,-39,82,-115,-64,50
1491090545233,0,-125,-33,-29,-55,-60,57,-7,-107
1491090545233,0,70,5,15,0,57,-29,126,45
1491090545234,3,-79,3,31,-128,49,-30,-21,-8
1491090545234,3,103,-9,10,37,27,122,35,-37
1491090545235,0,40,67,28,120,41,-102,-68,127
1491090545235,0,-75,0,23,-128,-16,12,34,-35
1491090545281,1,127,17,-24,66,-63,87,28,106
1491090545281,1,-128,-89,-79,124,127,127,58,-75
1491090545330,2,99,0,75,73,92,-87,-16,92
1491090545330,2,4,59,88,63,-128,-128,-126,-89
1491090545331,0,51,-17,21,54,80,61,48,9
1491090545331,0,-38,-3,-20,98,127,103,18,-12
1491090545331,1,-54,-12,62,-58,121,51,14,34
1491090545331,1,19,34,-25,-44,-100,-128,-79,-7
1491090545332,2,-65,-17,-20,-33,-119,22,18,-36
1491090545332,2,66,-20,-13,-35,27,78,-14,-35
1491090545379,3,5,-2,8,-8,-30,56,23,14
1491090545379,3,14,-7,4,-75,-29,-123,-8,78
1491090545379,1,70,47,25,36,127,-45,-54,94
1491090545379,1,-3,22,17,-44,-5,-74,-11,-36
1491090545380,1,-68,1,39,64,76,0,32,-4
1491090545380,1,-59,-15,36,127,26,-42,-26,-90
1491090545381,2,-7,-44,-21,23,52,113,27,-18
1491090545381,2,-18,44,99,91,122,-70,-90,81
1491090545428,3,-13,-12,-63,-8,-127,-128,37,-52
1491090545428,3,-80,-83,-80,-73,-94,25,-17,-58
1491090545428,0,61,18,48,-21,127,79,110,-10
1491090545428,0,-20,22,44,115,-128,-128,-105,4
1491090545429,2,26,24,2,46,-7,69,-96,22
1491090545429,2,-60,-22,5,-19,49,63,58,-65
1491090545430,3,-15,1,2,-49,-58,-104,-42,47
1491090545430,3,25,-30,23,-98,-51,82,127,68
1491090545476,0,-55,28,30,66,-91,-21,-69,-56
1491090545476,0,24,-25,-50,-66,24,-103,56,8
1491090545477,1,8,-29,19,-65,-28,42,-37,-75
1491090545477,1,-61,20,-67,-89,-76,67,-8,-27
1491090545478,3,-9,28,65,127,105,-67,75,102
1491090545478,3,10,25,95,-28,109,72,102,-75
1491090545479,0,-57,28,43,-19,16,74,-3,-44
1491090545479,0,-65,-95,-110,-77,-128,10,53,31
1491090545526,1,57,26,-18,-38,30,-75,-128,-54
1491090545526,1,69,13,-13,35,-93,-59,-36,103
1491090545527,2,-17,38,41,-13,64,13,60,56
1491090545527,2,4,15,19,80,74,30,47,-56
1491090545528,0,-15,-31,-28,38,38,-128,-25,64
1491090545528,0,-34,25,68,26,-1,-41,10,-28
1491090545528,1,61,0,8,27,120,86,46,51
1491090545528,1,106,49,11,-9,-71,35,-57,84
1491090545574,2,-88,-66,-120,-128,-42,18,20,-30
1491090545574,2,40,14,11,34,80,-16,15,-63
1491090545575,3,-31,20,16,33,11,48,86,25
1491090545575,3,-13,-27,42,121,92,72,14,-7
1491090545576,1,-25,-15,2,-128,-70,-38,-19,-84
1491090545576,1,-39,-13,13,127,-16,-39,-19,110
1491090545577,2,-52,-15,-13,38,54,-79,-55,-98
1491090545577,2,-65,57,75,-125,-61,-94,-50,-9
1491090545623,3,18,-39,-115,-84,-99,26,-44,-41
1491090545623,3,14,-13,-2,-124,117,-127,-45,2
1491090545624,0,35,-21,-75,-5,-5,-88,-39,-17
1491090545624,0,7,-29,31,-111,-16,127,79,42
1491090545625,2,-20,-1,15,-36,58,-48,0,65
1491090545625,2,97,-21,-25,3,40,32,-13,-2
1491090545626,3,-54,9,21,-31,28,83,6,19
1491090545626,3,-58,13,-9,98,60,-83,-53,-38
1491090545671,0,-10,3,2,-18,-128,-46,-35,14
1491090545671,0,-5,-54,-43,11,41,74,10,37
1491090545673,1,-58,-48,-30,44,-26,-114,-57,-62
1491090545673,1,72,88,37,-69,-24,-86,-73,37
1491090545673,3,100,91,94,117,127,-72,-26,73
1491090545673,3,-53,-66,-21,-102,-88,-114,-19,-38
1491090545674,0,37,42,-12,-113,1,66,72,3
1491090545674,0,-105,20,-16,52,51,37,25,68
1491090545720,1,-76,-86,-84,76,-73,8,-38,-58
1491090545720,1,-66,-10,9,42,65,80,-20,34
1491090545721,2,19,38,67,-99,-5,43,7,0
1491090545721,2,84,16,17,113,67,98,-69,74
1491090545722,3,-69,-53,-31,-36,-26,-97,116,72
1491090545722,3,47,-4,6,-50,-56,-56,-24,88
1491090545724,0,92,12,27,70,48,45,-7,-47
1491090545724,0,84,66,56,-73,-61,3,46,47
1491090545769,1,-128,-44,-61,-77,59,-98,-46,-89
1491090545769,1,23,11,9,-26,-51,127,95,20
1491090545770,2,-91,-29,4,111,86,66,-29,8
1491090545770,2,71,-34,-82,-124,-18,19,-39,-40
1491090545771,0,-38,24,42,54,-63,-128,15,-106
1491090545771,0,-47,3,63,108,-45,-92,-54,44
1491090545772,1,105,-15,-15,-75,-92,-63,-44,-58
1491090545772,1,-1,-8,-89,-50,-37,-126,-49,-27
1491090545818,2,3,4,35,-35,-8,42,11,110
1491090545818,2,25,-32,-32,72,110,32,66,-128
1491090545820,3,-38,-4,7,91,-125,-71,-80,121
1491090545820,3,89,43,38,-38,127,127,92,-29
1491090545821,1,-43,26,26,83,68,-45,-35,-104
1491090545821,1,-80,-21,-35,-76,-128,65,-20,-18
1491090545822,2,12,-31,-54,-60,-30,-86,36,10
1491090545822,2,-32,33,86,20,-29,59,28,-31
1491090545867,3,32,-63,-84,-92,-100,-50,-33,17
1491090545867,3,21,-19,10,48,90,-55,-24,44
1491090545868,0,22,-10,-12,-12,-56,35,33,2
1491090545868,0,-45,-3,0,22,-46,-45,81,9
1491090545869,2,43,-5,18,-46,2,-93,-109,-97
1491090545869,2,25,32,-8,-19,-117,-64,-16,-5
1491090545870,3,-47,-14,-5,-39,-13,74,37,49
1491090545870,3,54,-4,-92,-120,-41,-46,-29,-94
1491090545915,0,-79,-85,-69,22,27,127,13,-9
1491090545915,0,42,45,-17,38,46,-88,-1,39
1491090545916,1,-36,32,19,-61,62,-48,-2,-9
1491090545916,1,-17,-5,96,127,-9,-91,-75,-59
1491090545916,3,101,-19,-23,67,-34,17,-71,43
1491090545916,3,-90,11,24,54,107,96,120,8
1491090545917,0,-79,28,49,54,92,-128,-117,44
1491090545917,0,49,-14,1,-5,-107,-80,94,27
1491090545964,1,19,40,-20,-72,127,16,66,-73
1491090545964,1,-95,4,-83,89,-128,54,-32,-31
1491090546012,2,121,75,17,4,47,10,-26,94
1491090546012,2,-78,-7,70,-51,75,127,33,-21
1491090546061,0,-72,31,-3,67,-1,83,122,9
1491090546061,0,-1,-2,44,-102,-14,-128,-128,-111
1491090546062,1,-69,4,-13,127,10,127,98,23
1491090546062,1,-14,-11,-24,-125,-75,-26,-105,29
1491090546063,2,72,11,-52,15,31,-113,81,11
1491090546063,2,-126,6,2,-60,-114,-4,27,-58
1491090546064,3,-58,-27,26,101,23,105,57,19
1491090546064,3,-26,7,83,115,-51,21,-74,-59
1491090546110,1,-60,22,47,-46,11,78,60,33
1491090546110,1,80,52,14,48,-7,-14,-28,100
1491090546111,1,45,-15,-10,-51,-117,-21,38,22
1491090546111,1,17,-33,7,-44,62,-65,-98,-45
1491090546111,2,-92,-19,-69,-127,-71,19,-109,-101
1491090546111,2,87,-2,4,26,116,-33,-3,52
1491090546112,3,42,-4,3,-23,70,0,33,95
1491090546112,3,-81,-1,6,6,-115,89,105,-44
1491090546159,0,46,14,53,-46,19,59,-46,-52
1491090546159,0,8,9,-11,7,-57,20,10,114
1491090546159,1,-92,0,20,-60,102,-128,-24,-117
1491090546159,1,67,-25,35,61,-39,13,1,-34
1491090546160,3,50,-59,-28,34,3,-10,7,3
1491090546160,3,-86,33,22,24,117,54,85,-57
1491090546161,0,50,6,99,127,43,41,24,-91
1491090546161,0,53,3,-52,-105,-5,87,-3,-4
1491090546207,1,-20,54,9,-91,-10,6,-38,18
1491090546207,1,-99,-34,-45,56,99,-103,-24,78
1491090546210,2,-29,-24,23,68,-128,-128,-41,-31
1491090546210,2,-46,-21,-21,-51,26,44,20,-19
1491090546210,0,-36,9,44,-81,127,-88,7,113
1491090546210,0,-17,0,80,127,-83,83,51,-116
1491090546211,1,-28,-33,-100,-55,57,-112,-36,30
1491090546211,1,15,-3,-30,-53,70,-57,56,-39
1491090546256,2,-50,23,54,42,5,93,-21,-36
1491090546256,2,-6,-19,-21,-107,-51,-128,45,35
1491090546257,3,98,56,38,-14,-61,-101,-15,-14
1491090546257,3,9,-9,13,67,75,81,63,34
1491090546258,1,-128,-40,-10,-71,-39,-30,12,-81
1491090546258,1,12,-31,5,4,71,85,69,22
1491090546259,2,94,57,8,-50,-128,-98,33,7
1491090546259,2,-99,-50,-57,-52,49,-66,-67,-103
1491090546305,3,36,-5,46,10,21,21,61,9
1491090546305,3,85,7,-95,-104,-102,112,-3,26
1491090546306,0,-60,-49,-16,-25,91,127,127,42
1491090546306,0,37,20,22,51,-2,63,-33,33
1491090546306,2,30,2,39,67,66,-50,-13,-71
1491090546306,2,-1,-26,-11,-12,39,34,17,67
1491090546307,3,28,-8,-27,5,-40,18,4,54
1491090546307,3,-97,11,73,53,69,127,-37,-61
1491090546354,0,35,5,-45,-110,-128,-128,7,60
1491090546354,0,-56,-89,-57,-70,110,-81,-49,-22
1491090546354,1,-69,-29,52,122,106,127,26,27
1491090546354,1,78,51,34,-62,52,-43,-71,-4
1491090546355,3,-17,20,-75,-31,-128,15,76,77
1491090546355,3,28,21,-26,-70,-77,52,-53,98
1491090546356,0,-3,-30,22,22,29,-14,-5,-113
1491090546356,0,76,49,13,-33,44,-105,75,94
1491090546402,1,-75,4,35,38,-21,-128,-128,-53
1491090546402,1,-70,-26,-19,-14,77,-26,72,-72
1491090546403,2,55,10,49,115,-115,43,70,47
1491090546403,2,15,5,-83,-107,-44,33,-83,-4
1491090546404,3,127,-67,-69,127,36,127,110,-57
1491090546404,3,-30,15,23,-68,-21,-19,-37,55
1491090546405,0,24,26,-101,7,5,-4,29,3
1491090546405,0,-96,3,91,94,55,39,21,-35
1491090546451,1,90,46,65,-23,55,92,89,-21
1491090546451,1,-97,6,-7,-90,-26,-102,-26,73
1491090546452,2,-93,-62,-4,49,31,-127,-18,-83
1491090546452,2,58,72,70,127,56,91,-46,65
1491090546453,0,5,32,34,28,101,83,50,48
1491090546453,0,34,-31,-61,-112,10,63,-48,-20
1491090546454,1,0,-10,-39,116,-77,-24,32,54
1491090546454,1,-4,4,-16,119,64,-45,-67,15
1491090546500,2,5,-33,19,48,59,-19,69,7
1491090546500,2,64,-48,-32,-51,32,103,106,-25
1491090546501,3,37,98,83,27,127,-42,-62,69
1491090546501,3,-1,-27,-13,4,-68,-103,35,-41
1491090546501,1,-124,-55,-20,-91,-11,127,35,13
1491090546501,1,102,46,39,-11,30,127,53,19
1491090546502,2,-16,5,-54,16,51,-21,-100,-98
1491090546502,2,-22,-37,-34,102,-120,-8,-41,17
1491090546549,3,-4,45,78,76,67,49,14,-34
1491090546549,3,-23,-38,-26,2,-58,-59,-79,-68
1491090546551,0,99,-5,5,-128,53,4,25,127
1491090546551,0,-80,-25,-24,16,-128,-1,86,-60
1491090546552,2,-19,30,17,-17,75,87,39,-53
1491090546552,2,64,-20,-4,86,-54,-128,43,10
1491090546553,3,-20,1,-52,-128,-84,-10,-79,21
1491090546553,3,-70,-17,53,127,25,-19,73,-34
1491090546597,0,-34,-43,-63,-128,8,58,14,98
1491090546597,0,-6,40,2,-26,11,-41,-56,-44
1491090546598,1,117,34,75,88,32,107,117,31
1491090546598,1,-93,-8,-19,-128,-23,-16,-120,-73
1491090546599,3,-29,4,-31,-128,-18,-128,-30,2
1491090546599,3,-11,5,-18,69,-54,123,127,-61
1491090546600,0,91,-8,24,-3,32,127,66,108
1491090546600,0,39,64,98,82,101,-128,-66,-102
1491090546646,1,-112,-10,-19,-89,-95,-82,-128,-119
1491090546646,1,-47,-45,-39,114,127,-39,107,20
1491090546647,2,-56,-37,-88,-128,-128,95,67,-56
1491090546647,2,-26,31,2,-128,-37,-23,-62,118
1491090546648,0,-128,-53,-27,4,-9,-6,-54,-62
1491090546648,0,0,45,80,23,120,127,127,-13
1491090546649,1,111,-7,26,-110,53,122,22,52
1491090546649,1,127,25,10,68,-48,-100,-94,70
1491090546695,2,38,2,74,11,58,-127,69,-117
1491090546695,2,92,14,-58,28,-83,-89,-26,38
1491090546696,3,35,-47,-81,-96,12,-26,-46,93
1491090546696,3,95,19,16,51,72,125,55,-7
1491090546696,1,-61,-8,23,83,23,-114,56,-41
1491090546696,1,-72,40,15,5,57,103,-36,63
1491090546697,2,-113,38,71,10,77,-73,-28,-53
1491090546697,2,59,11,48,117,57,61,107,59
1491090546744,3,-1,-37,-93,-103,-128,-124,-66,-31
1491090546744,3,-8,-71,-48,-83,-45,88,52,5
1491090546745,0,-27,84,75,23,43,-15,-34,-23
1491090546745,0,-24,3,-8,20,-18,-84,73,-31
1491090546746,2,68,-7,39,67,57,71,34,1
1491090546746,2,-107,-13,-23,-77,-33,84,1,34
1491090546747,3,-95,-50,-54,-31,36,34,-28,-28
1491090546747,3,-6,36,-4,1,75,5,58,3
1491090546793,0,-22,-22,-18,-43,-44,89,-13,40
1491090546793,0,-49,2,25,-16,87,-115,8,-60
1491090546794,1,27,21,72,58,30,94,-28,16
1491090546794,1,77,-29,-30,-66,-123,-27,-25,-42
1491090546795,2,-57,-17,-9,3,-33,-128,28,106
1491090546795,2,32,48,61,-27,-17,-38,-128,-35
1491090546796,3,-73,-11,-26,114,-4,108,90,-31
1491090546796,3,74,6,18,-11,127,69,55,24
1491090546841,0,-51,-15,-35,-51,-76,47,-26,-64
1491090546841,0,79,-25,-64,-128,-124,1,56,10
1491090546842,1,-75,-15,-69,60,-61,-105,-26,23
1491090546842,1,-30,36,63,15,91,40,44,49
1491090546842,3,-36,-16,27,61,57,-82,-77,-67
1491090546842,3,-15,13,24,59,-63,-127,-13,45
1491090546844,0,95,30,17,-65,112,-10,-44,-28
1491090546844,0,-128,-94,-80,97,-51,-101,6,-49
1491090546890,1,50,89,-37,-82,-103,-5,-48,-14
1491090546890,1,52,-3,-18,-107,71,24,22,28
1491090546891,2,-46,-6,-18,62,68,87,20,-3
1491090546891,2,39,-18,35,56,110,127,96,55
1491090546891,0,26,32,31,60,-60,6,32,87
1491090546891,0,50,2,21,-38,48,85,-16,-8
1491090546892,1,-30,-33,1,64,26,24,37,20
1491090546892,1,-39,7,0,23,-101,107,94,-7
1491090546939,2,5,-25,-33,89,48,-90,-73,10
1491090546939,2,-119,-10,-49,-87,-10,-128,-128,-105
1491090546939,3,13,-76,-20,-27,114,63,99,89
1491090546939,3,101,106,63,-15,-72,-128,49,100
1491090546940,1,-63,21,-63,-123,-96,123,53,53
1491090546940,1,-65,-85,-47,-11,93,-52,-111,-63
1491090546941,2,23,-11,-4,-17,-19,-100,32,66
1491090546941,2,-56,50,40,77,-24,-13,-48,-16
1491090546987,3,43,9,91,-5,-68,91,13,9
1491090546987,3,66,24,14,54,-27,26,49,57
1491090546988,0,-67,-60,-102,7,-48,-20,32,11
1491090546988,0,50,-24,4,-38,94,-113,-105,-99
1491090546989,2,127,41,105,85,116,28,11,19
1491090546989,2,-44,8,-55,-65,53,-8,47,46
1491090546990,3,4,-26,49,50,-65,102,36,-62
1491090546990,3,-80,-48,-76,95,2,-1,70,-40
1491090547036,0,-6,-20,-110,-42,-115,-63,-60,60
1491090547036,0,29,0,6,-4,-20,-69,-19,99
1491090547037,1,-1,55,118,-47,127,-20,-15,-36
1491090547037,1,29,-8,53,-41,100,127,62,-18
1491090547037,3,21,-16,-47,-45,3,-117,-59,-5
1491090547037,3,13,-18,1,10,34,40,8,-2
1491090547039,0,-42,-8,93,-80,-52,47,49,1
1491090547039,0,-17,79,-30,-58,-66,-11,66,77
1491090547085,1,-27,-74,-86,127,-3,-128,-84,-65
1491090547085,1,-40,9,-5,-7,63,-20,-69,28
1491090547086,2,-13,-63,-35,-9,58,85,115,-56
1491090547086,2,-25,48,64,127,48,-33,-78,40
1491090547086,0,105,-2,-2,-70,-63,95,16,-12
1491090547086,0,-113,-9,8,116,98,94,15,77
1491090547087,1,45,14,10,-87,21,-32,-43,-83
1491090547087,1,-57,-31,17,-70,-71,35,32,72
1491090547134,2,10,-3,-74,-24,-18,-128,-66,70
1491090547134,2,107,15,18,91,96,-71,-72,-44
1491090547134,3,49,21,-12,-48,9,102,86,-34
1491090547134,3,-1,-20,-11,-128,3,-48,-72,20
1491090547135,0,-49,20,22,-2,-24,-43,-25,-101
1491090547135,0,4,20,49,127,-54,-3,49,5
1491090547136,1,48,-14,70,107,99,-74,-83,21
1491090547136,1,23,37,-9,-67,75,17,59,-76
1491090547182,2,-38,9,19,-49,-31,83,5,93
1491090547182,2,106,-65,-91,-71,-57,23,-79,28
1491090547183,3,2,8,-3,-43,-117,127,72,-5
1491090547183,3,-63,-72,-93,-69,30,-122,28,1
1491090547184,1,-35,6,15,-18,40,18,14,21
1491090547184,1,-32,42,78,127,49,-95,-60,-51
1491090547185,2,3,12,-3,-92,-64,66,49,-45
1491090547185,2,57,-1,12,-82,9,51,-31,48
1491090547231,3,-31,2,35,77,116,80,41,1
1491090547231,3,10,26,-5,-86,-101,1,7,8
1491090547232,0,52,4,-72,-48,-87,-126,28,10
1491090547232,0,-46,-25,-9,67,73,59,-5,1
1491090547232,2,-103,-6,56,45,108,127,30,-75
1491090547232,2,24,-37,-51,-85,-106,91,20,6
1491090547233,3,-1,-11,-14,37,-39,-128,17,54
1491090547233,3,-11,3,-12,124,-87,-102,-120,-4
1491090547280,0,69,30,-3,-85,-70,-87,68,-8
1491090547280,0,-83,1,4,-60,-19,89,95,8
1491090547281,1,5,50,97,106,79,-15,-12,67
1491090547281,1,0,-83,-109,-128,-51,-16,80,-55
1491090547282,3,-66,13,-17,-41,-19,44,-31,-51
1491090547282,3,126,25,87,-9,57,117,52,74
1491090547329,0,-84,-27,56,-84,98,60,-98,-41
1491090547329,0,-21,34,41,120,-118,42,39,-49
1491090547329,1,8,-72,-128,-95,7,-103,-79,76
1491090547329,1,-50,-3,-2,-34,101,88,-39,-15
1491090547330,2,-17,-90,-67,69,33,-88,65,40
1491090547330,2,11,59,65,117,37,-40,39,-11
1491090547331,0,-9,-17,-36,0,-106,-15,-20,20
1491090547331,0,1,-33,43,69,-2,34,65,-52
1491090547377,1,-88,-28,-53,-39,-99,1,48,-34
1491090547377,1,57,6,62,-57,58,81,-64,17
1491090547378,2,-46,1,-13,53,49,127,75,54
1491090547378,2,43,-29,-13,-78,127,-58,-64,14
1491090547379,1,16,-88,-128,88,-119,55,0,-13
1491090547379,1,-62,-40,-31,-68,-82,-94,-1,43
1491090547380,2,73,-2,-57,-53,77,-85,-115,-37
1491090547380,2,-37,13,53,-53,110,72,-12,0
1491090547426,3,86,43,27,40,-50,81,104,57
1491090547426,3,0,-5,27,-36,-18,-66,-45,-36
1491090547427,0,39,27,61,30,59,14,47,26
1491090547427,0,-27,-14,-36,-122,-93,60,7,-19
1491090547428,2,19,3,-50,-91,-128,-84,-57,48
1491090547428,2,-45,-18,-35,76,32,13,-55,-76
1491090547429,3,44,45,-2,-128,69,26,-57,49
1491090547429,3,48,2,12,126,-27,-106,73,9
1491090547475,0,-81,-59,-15,21,24,10,51,-78
1491090547475,0,-76,31,-17,1,-128,26,41,2
1491090547476,1,85,-15,-30,-75,12,-11,-6,48
1491090547476,1,-44,23,31,-25,127,127,-35,-16
1491090547477,2,28,33,108,102,79,108,16,-39
1491090547477,2,-12,-16,-55,-60,-71,31,10,67
1491090547478,3,-36,28,56,86,23,64,44,-4
1491090547478,3,3,-8,-59,-82,-110,-98,-43,1
1491090547524,0,70,-28,-60,-51,-63,-63,-61,64
1491090547524,0,35,-72,-9,28,14,-35,6,-41
1491090547524,1,-42,57,-11,86,-15,38,-33,-42
1491090547524,1,46,0,30,107,124,30,123,14
1491090547525,3,-52,-49,-40,19,-128,-128,-30,-59
1491090547525,3,-4,-24,-42,-95,-72,-59,72,36
1491090547526,0,-47,-14,-4,98,95,56,-12,-40
1491090547526,0,8,38,55,-63,65,76,45,83
1491090547572,1,-21,-14,-86,32,-61,-97,-44,-71
1491090547572,1,-7,10,-22,80,-10,-40,-4,-21
1491090547573,2,-34,-5,15,11,-37,47,59,-11
1491090547573,2,-18,-41,6,52,3,-120,-22,72
1491090547574,0,72,50,12,-15,83,127,53,5
1491090547574,0,-37,-4,-20,89,-77,108,84,-11
1491090547575,1,-103,-12,-77,-114,-83,-128,-128,-30
1491090547575,1,98,-5,6,78,69,-70,-15,83
1491090547621,2,-10,-12,1,-91,-123,-54,8,-58
1491090547621,2,-86,-25,-60,-10,3,16,-60,-60
1491090547622,3,-7,-12,22,-91,-41,25,-26,-14
1491090547622,3,-110,11,30,88,82,127,52,2
1491090547622,1,66,5,15,90,21,11,47,53
1491090547622,1,-79,-11,-17,-85,-16,-66,-65,-64
1491090547623,2,-66,-45,28,-71,-67,-77,62,63
1491090547623,2,91,21,-73,-97,-93,43,-23,-48
1491090547670,3,21,22,-5,98,16,-63,9,-7
1491090547670,3,10,41,38,-56,42,-50,-31,20
1491090547671,0,-16,-54,-29,69,-60,73,60,-54
1491090547671,0,-35,43,-6,-76,6,27,10,-56
1491090547671,2,-59,47,89,80,94,-86,-1,-28
1491090547671,2,30,-17,4,-57,-68,-11,14,24
1491090547672,3,-76,-75,-71,-75,-35,-105,-5,-7
1491090547672,3,79,36,-11,-110,44,-10,-65,26
1491090547719,0,-47,-91,-95,-18,-110,89,34,-51
1491090547719,0,29,55,46,91,53,-21,-49,-30
1491090547719,1,-6,-12,71,-58,47,-79,41,15
1491090547719,1,-71,10,-36,92,28,116,77,-16
1491090547720,3,-3,-63,-109,-24,41,-13,-110,-38
1491090547720,3,21,-32,51,-1,-86,117,127,22
1491090547721,0,35,64,9,-120,-83,18,45,96
1491090547721,0,-117,-42,-34,60,-10,-66,-40,-108
1491090547769,1,78,-5,11,13,-28,15,29,87
1491090547769,1,-96,15,16,33,-24,122,-4,-10
1491090547770,2,108,-30,25,-11,65,127,94,-36
1491090547770,2,-29,94,71,63,99,-113,-82,31
1491090547770,0,-40,20,3,-95,-128,-99,-10,-5
1491090547770,0,-47,-100,-104,-116,-62,100,28,-73
1491090547771,1,36,32,19,100,37,-38,-29,44
1491090547771,1,-38,-10,21,-115,-75,33,-38,-87
1491090547816,2,10,33,19,127,123,89,15,55
1491090547816,2,16,2,41,-73,117,-83,-54,-26
1491090547817,3,-58,9,34,44,-103,-54,14,13
1491090547817,3,-6,-25,-71,-128,-81,-85,-24,-44
1491090547817,1,-59,38,90,26,44,32,33,57
1491090547817,1,2,-34,-21,87,14,-128,-37,0
1491090547819,2,39,-28,-128,-102,-128,-125,27,-42
1491090547819,2,-90,-15,34,-46,70,-93,-13,-51
1491090547865,3,79,0,-30,74,-66,18,80,10
1491090547865,3,-16,21,61,82,99,38,-94,1
1491090547866,0,-70,52,50,78,93,112,56,87
1491090547866,0,84,-37,-25,8,-58,81,60,24
1491090547867,1,-83,-8,23,-91,-38,-8,-37,-84
1491090547867,1,26,-19,-18,-128,51,118,7,-46
1491090547868,2,75,26,5,107,-32,-89,-96,109
1491090547868,2,-73,-6,-21,-76,-84,25,33,-23
1491090547914,3,-6,-10,56,-122,48,-43,-66,-128
1491090547914,3,-36,-45,-89,62,-128,-105,-22,127
1491090547914,0,28,-13,-38,-22,120,-49,-35,-15
1491090547914,0,-72,1,40,94,77,50,37,-61
1491090547915,2,28,-18,17,84,-75,2,-31,-51
1491090547915,2,-41,-34,-74,-26,-128,-18,-30,8
1491090547916,3,48,9,-29,48,9,-24,28,11
1491090547916,3,-13,-4,15,-7,10,-64,-28,-42
1491090547962,0,-14,-4,16,20,8,27,-8,-17
1491090547962,0,83,-23,-65,-92,-78,-3,-2,0
1491090547963,1,-128,-42,-38,15,29,-2,-36,37
1491090547963,1,121,26,54,-87,-128,53,49,65
1491090547964,3,112,47,-12,46,-47,-106,-13,-10
1491090547964,3,34,-19,22,31,101,31,-20,-39
1491090547965,0,-81,-6,88,-42,113,60,39,31
1491090547965,0,-29,-19,21,17,-29,13,-32,-36
1491090548011,1,-83,-5,-52,-48,41,127,86,-23
1491090548011,1,-92,17,23,55,-68,-30,-69,34
1491090548012,2,83,10,-27,23,-73,-70,-67,-90
1491090548012,2,74,17,-9,28,-11,-31,55,101
1491090548013,0,-114,-35,-25,-52,29,15,-11,60
1491090548013,0,42,30,-41,30,-9,-128,-7,11
1491090548014,1,-37,-19,-7,-106,-95,4,58,-78
1491090548014,1,-41,-18,-38,29,-30,-49,-57,-3
1491090548060,2,-75,-81,-16,50,101,97,30,-27
1491090548060,2,96,66,94,22,17,-2,-32,89
1491090548061,3,-89,-22,-80,-13,-55,-84,-35,-37
1491090548061,3,84,-65,-74,-61,-99,-128,-63,-58
1491090548061,1,23,31,12,54,-27,116,88,107
1491090548061,1,-11,-6,1,-22,58,-13,5,-14
1491090548062,2,-58,-2,5,-30,21,106,20,-11
1491090548062,2,-39,39,56,41,92,19,53,17
1491090548109,3,44,25,26,-63,-63,61,-32,-15
1491090548109,3,63,-46,-128,-110,42,-85,-45,-14
1491090548109,0,-51,24,-6,107,-128,-126,-90,12
1491090548109,0,64,-19,17,17,121,81,20,13
1491090548110,2,82,20,34,-3,52,36,-34,39
1491090548110,2,-62,-1,10,-89,0,77,-15,-44
1491090548111,3,4,21,73,88,66,127,35,27
1491090548111,3,20,11,9,-119,-37,21,49,-3
1491090548157,0,-21,-7,-28,-20,15,-7,55,-3
1491090548157,0,52,17,50,103,-15,-80,2,6
1491090548158,1,-33,-45,-80,-87,25,82,-60,-69
1491090548158,1,58,29,7,127,-80,-22,54,55
1491090548159,3,-71,1,53,82,-20,89,40,17
1491090548159,3,12,-32,-19,-64,31,57,-78,30
1491090548160,0,-40,18,20,-53,-25,-62,71,-47
1491090548160,0,70,7,5,-7,21,61,29,46
1491090548206,1,-45,13,18,114,64,30,9,-9
1491090548206,1,-102,-14,-16,-68,-97,23,-36,21
1491090548207,2,38,-21,6,5,112,-6,5,2
1491090548207,2,-52,-5,-20,11,-78,-6,-40,18
1491090548207,3,2,15,12,-67,-20,-128,-34,-40
1491090548207,3,-4,-21,45,127,45,50,-16,-14
1491090548209,0,-24,66,102,62,89,30,62,37
1491090548209,0,-27,12,-61,-127,-118,61,-49,-79
1491090548255,1,103,8,-68,102,-64,-47,-35,34
1491090548255,1,-128,-49,-81,-40,44,-102,-37,-98
1491090548256,2,78,-99,-78,18,-53,-40,1,60
1491090548256,2,-74,80,96,15,49,32,20,33
1491090548257,0,18,-36,-4,-40,-9,36,17,-45
1491090548257,0,-11,16,-25,-112,-64,-57,-26,7
1491090548257,1,-7,18,15,-76,-20,-128,-8,21
1491090548257,1,-27,5,34,-59,78,55,-41,5
1491090548304,2,50,3,-32,-50,19,50,27,-20
1491090548304,2,-16,-29,-56,84,-74,18,-12,-63
1491090548305,3,46,-33,-19,28,98,-54,0,81
1491090548305,3,88,39,32,5,32,-81,31,90
1491090548305,1,-29,6,51,117,42,20,13,-49
1491090548305,1,101,-60,-83,23,-107,33,6,-71
1491090548306,2,-30,54,-23,-108,-21,96,-37,66
1491090548306,2,-80,-10,51,-10,108,13,92,37
1491090548352,3,107,46,18,32,-120,127,-14,41
1491090548352,3,-128,0,-45,-92,-7,-98,46,8
1491090548354,0,-33,-16,-2,46,-3,-59,25,23
1491090548354,0,102,40,77,-50,-21,-90,49,-34
1491090548354,2,-30,-38,-50,127,7,-81,45,-5
1491090548354,2,84,-5,10,49,106,-40,8,-43
1491090548355,3,-19,28,36,-99,-67,38,30,27
1491090548355,3,-96,-8,29,116,34,1,-47,-68
1491090548401,0,3,-39,-5,-55,34,65,27,-14
1491090548401,0,-28,-39,-40,20,9,89,-10,25
1491090548402,1,46,38,41,64,113,-40,-30,81
1491090548402,1,-40,-13,-36,-118,-78,-12,18,-107
1491090548403,3,-59,-34,-61,-104,-81,33,17,-57
1491090548403,3,-16,82,127,-27,109,-42,121,80
1491090548404,0,-13,-16,-56,42,-16,127,40,-17
1491090548404,0,-75,-36,-89,-62,-128,-128,-111,-3
1491090548450,1,-66,-37,-19,60,48,-7,-30,-102
1491090548450,1,46,-17,21,31,123,88,-6,56
1491090548451,2,43,101,127,52,73,121,6,-56
1491090548451,2,-120,-71,-85,-79,-93,54,-24,33
1491090548452,0,96,-25,9,-90,72,-34,-109,21
1491090548452,0,21,-8,18,76,-68,93,33,-101
1491090548452,1,41,-8,46,86,50,-67,69,79
1491090548452,1,30,30,-45,-47,-43,127,108,45
1491090548499,2,-23,40,48,-18,10,88,12,-19
1491090548499,2,-40,-40,-40,-28,-70,-128,-99,69
1491090548500,3,-74,-55,-102,-21,-77,-110,-64,-72
1491090548500,3,-46,24,38,95,36,-128,-56,-57
1491090548501,1,19,-9,-14,127,66,-5,11,41
1491090548501,1,9,-35,-25,85,79,0,-1,-20
1491090548509,2,-60,-12,-17,-78,-31,-10,-85,-64
1491090548509,2,-5,10,-14,-20,14,26,-16,30
1491090548547,3,31,-49,5,-41,58,60,-73,-32
1491090548547,3,31,108,100,-76,-14,92,49,-55
1491090548548,0,55,-4,-48,120,-89,-105,93,11
1491090548548,0,65,-20,-11,87,127,-11,58,-4
1491090548549,1,-36,-3,-20,-76,-108,-10,15,6
1491090548549,1,77,-33,-38,7,-102,-67,-49,47
1491090548550,2,-126,-35,39,-70,76,-5,-88,-48
1491090548550,2,48,1,9,92,-89,50,85,9
1491090548596,3,-54,29,14,63,66,-63,-58,-31
1491090548596,3,-29,-1,53,111,97,127,-22,-30
1491090548597,0,-80,28,-45,-124,-128,-12,75,38
1491090548597,0,39,-29,-27,-45,-42,-15,-68,-5
1491090548597,2,71,-16,3,-13,-33,-78,71,-47
1491090548597,2,-58,66,101,-45,127,127,-108,-60
1491090548599,3,58,42,-12,11,-128,-10,98,44
1491090548599,3,-31,-77,-122,-107,-55,-128,-18,-43
1491090548645,0,-8,-11,40,121,126,29,-4,33
1491090548645,0,-27,40,23,-13,95,71,74,-23
1491090548651,1,-9,18,27,-128,65,78,15,2
1491090548651,1,-77,-30,-32,64,-111,95,-45,30
1491090548652,3,11,-23,11,-7,29,-95,-36,-19
1491090548652,3,-39,11,33,-54,78,-32,59,17
1491090548652,0,-92,-20,-14,-13,-128,-31,-39,-70
1491090548652,0,108,41,-7,57,-17,40,-31,82
1491090548694,1,-47,-7,0,-128,74,63,-55,-128
1491090548694,1,72,31,35,37,59,-83,8,34
1491090548695,2,-41,-24,-47,127,46,-102,92,-32
1491090548695,2,-36,-38,-38,23,19,-101,84,40
1491090548695,0,13,40,45,19,127,61,-81,49
1491090548695,0,11,3,12,20,-18,80,25,-74
1491090548696,1,57,20,80,127,89,89,49,105
1491090548696,1,45,26,78,36,54,102,2,-40
1491090548742,2,28,14,-23,-96,-128,-73,-63,122
1491090548742,2,-45,-67,-47,-20,-49,-128,-116,-76
1491090548744,3,4,-37,-8,96,68,67,85,14
1491090548744,3,85,18,5,-79,-79,-40,-20,-85
1491090548791,1,-73,-23,-12,80,-83,-105,-58,-81
1491090548791,1,58,-49,-125,-16,-104,-8,48,68
1491090548792,2,-59,-18,25,61,123,93,68,-32
1491090548792,2,57,9,-1,-80,-20,21,33,30
1491090548793,3,-21,11,47,-60,103,65,-2,9
1491090548793,3,-118,23,48,-44,-32,-74,-75,-33
1491090548794,0,108,-36,-72,-65,-91,-60,-24,35
1491090548794,0,-14,31,22,121,127,33,-45,22
1491090548840,2,-101,20,16,-37,-90,112,17,52
1491090548840,2,-49,-61,-118,-35,-12,-112,-38,41
1491090548841,3,-4,-29,-60,-57,-73,-103,-50,-69
1491090548841,3,-46,26,36,-48,-1,37,-14,47
1491090548842,0,12,18,64,121,119,127,90,42
1491090548842,0,-49,-72,-38,-53,-49,31,19,-35
1491090548891,3,-53,-37,-56,-80,-14,-82,-94,-5
1491090548891,3,102,-23,-4,51,-84,-49,56,81
1491090548892,0,-60,19,2,19,-2,-106,-38,-85
1491090548892,0,-9,36,90,127,105,17,40,-16
1491090548892,1,33,-5,18,-128,-96,110,65,8
1491090548892,1,-32,-20,-89,127,-46,-37,-6,52
1491090548893,3,35,30,69,-31,62,127,36,12
1491090548893,3,-55,11,50,17,41,-15,-62,-7
1491090548937,0,127,68,-6,-89,48,46,76,26
1491090548937,0,23,60,42,-53,-3,75,0,-33
1491090548939,1,-69,-37,-12,85,-9,-84,-2,-13
1491090548939,1,23,32,111,20,46,24,95,-73
1491090548940,2,-30,-57,-68,-104,-92,-84,-91,8
1491090548940,2,12,-16,-48,91,57,-80,24,-18
1491090548941,0,31,-61,-46,24,13,-7,-35,-4
1491090548941,0,-68,48,51,-120,42,-39,-55,35
1491090548986,1,40,-33,-34,-21,-102,-2,-128,-1
1491090548986,1,75,-10,-9,-38,72,62,-12,101
1491090548987,2,0,87,110,29,58,127,63,8
1491090548987,2,-45,-8,-15,-5,-48,1,13,-8
1491090548988,1,31,35,22,85,-17,-80,64,11
1491090548988,1,-4,-1,6,-63,9,6,12,-25
1491090548989,2,-60,-31,44,70,-39,81,-52,-7
1491090548989,2,30,36,83,-64,27,104,45,-23
1491090549035,3,-18,-18,-59,124,-106,-67,76,31
1491090549035,3,-21,-42,-73,-115,11,-86,14,-8
1491090549036,0,-34,26,44,90,92,43,71,-15
1491090549036,0,10,-56,-25,81,-19,42,8,13
1491090549037,2,-64,20,-14,-84,-27,91,11,-42
1491090549037,2,11,12,31,32,-19,-43,-7,66
1491090549037,3,51,15,35,41,66,73,91,-11
1491090549037,3,-29,83,84,52,115,-8,-49,-59
1491090549084,0,-51,-41,-21,-47,-25,79,66,-75
1491090549084,0,13,24,-2,68,74,-103,-4,20
1491090549085,1,-58,-77,-18,-33,-70,-111,-15,4
1491090549085,1,-3,21,41,80,55,13,-58,-6
1491090549087,3,90,12,-52,-26,-63,127,91,-48
1491090549087,3,24,27,-39,-93,-80,-5,-93,-40
1491090549088,0,101,14,39,5,121,18,28,24
1491090549088,0,22,19,21,-9,-62,20,68,-100
1491090549132,1,-90,-34,-4,-41,32,-17,-7,50
1491090549132,1,-2,26,73,-75,97,126,-41,-79
1491090549134,2,-63,10,7,94,-32,-96,81,67
1491090549134,2,2,-19,-71,-100,-98,-70,-63,-32
1491090549135,0,58,-52,9,-48,79,117,80,120
1491090549135,0,-14,86,56,29,82,127,-55,8
1491090549135,1,-5,35,6,-48,-65,62,27,7
1491090549135,1,-2,-9,30,96,87,-72,112,61
1491090549181,2,-128,-4,18,-64,-128,115,-15,-75
1491090549181,2,-39,-64,-51,-47,-71,-128,22,17
1491090549182,3,123,23,27,-128,76,-78,-1,-73
1491090549182,3,-18,-30,-72,82,-108,-20,79,31
1491090549183,1,11,-28,-15,55,-20,127,24,35
1491090549183,1,-56,-7,4,103,52,-84,-58,17
1491090549184,2,35,17,34,106,25,66,52,22
1491090549184,2,-32,-29,-69,-106,-52,26,-44,2
1491090549230,3,-58,-31,7,-23,79,-15,3,27
1491090549230,3,-36,-21,-32,-90,-112,127,28,-107
1491090549231,0,11,51,8,106,32,-108,-58,66
1491090549231,0,-11,-42,56,53,73,-80,45,81
1491090549231,2,26,17,-16,-18,42,-23,-50,-62
1491090549231,2,118,47,71,-20,56,81,-44,-4
1491090549232,3,-6,-2,89,44,68,59,45,33
1491090549232,3,-8,-30,-31,-107,-34,27,34,-17
1491090549279,0,28,-4,-35,-128,-128,-71,11,-46
1491090549279,0,-81,-79,-89,-25,-23,-46,73,-7
1491090549280,1,111,95,7,85,97,-1,-72,68
1491090549280,1,-50,115,127,123,127,127,60,23
1491090549280,2,-72,-84,-29,-9,-76,114,-69,-16
1491090549280,2,70,5,-99,-15,-71,-90,-67,-23
1491090549281,3,-128,1,-43,-117,-63,-96,-72,-102
1491090549281,3,127,-21,-31,66,23,-49,72,86
1491090549327,0,-12,-25,27,54,107,29,-41,31
1491090549327,0,6,119,127,95,49,127,77,1
1491090549328,1,-18,-63,-28,35,-90,26,27,-20
1491090549328,1,-66,20,10,15,71,96,-128,-8
1491090549329,3,-28,-80,-78,-107,-48,-113,6,-50
1491090549329,3,-5,-44,-14,-3,-14,27,-3,-53
1491090549330,0,0,41,-14,85,127,100,114,-1
1491090549330,0,12,10,42,-22,-79,-52,-85,12
1491090549376,1,-13,35,-37,-43,-16,70,38,-57
1491090549376,1,-22,-16,51,47,42,-85,-99,-122
1491090549377,2,49,-45,-48,-106,-32,115,86,4
1491090549377,2,-21,95,96,-45,-50,-116,-55,32
1491090549377,0,-4,12,7,-51,6,40,20,-15
1491090549377,0,51,-2,9,127,94,77,46,-62
1491090549379,1,-93,-35,-42,40,-35,60,-6,63
1491090549379,1,16,-9,2,-47,-67,18,43,20
1491090549425,2,-49,-63,-90,9,30,31,8,50
1491090549425,2,28,0,20,-16,39,34,28,-74
1491090549426,3,-5,70,84,35,80,-29,5,9
1491090549426,3,-65,-38,7,101,24,14,127,75
1491090549426,1,-41,-26,-46,-82,98,-19,-17,3
1491090549426,1,-77,-27,-19,20,-64,-13,-4,5
1491090549427,2,-46,18,-108,-46,-91,-72,-40,-20
1491090549427,2,52,3,20,123,127,59,40,-32
1491090549474,3,49,24,33,-105,-24,41,-6,68
1491090549474,3,26,-1,22,-45,70,43,-40,15
1491090549474,0,39,41,72,127,117,60,17,-15
1491090549474,0,2,-43,-78,-123,-128,-17,5,9
1491090549523,2,15,10,12,-31,-111,-86,-43,21
1491090549523,2,-49,-16,-51,-108,-21,-78,-57,-63
1491090549524,3,-2,-2,32,127,127,-49,-5,69
1491090549524,3,92,102,100,96,-60,-1,46,36
1491090549525,0,-68,-65,-91,-50,-114,-30,-73,-118
1491090549525,0,-45,-53,-72,-21,-10,127,83,10
1491090549526,1,74,-10,2,36,9,95,13,26
1491090549526,1,-54,79,63,45,126,41,-19,26
1491090549571,3,-31,75,44,-112,-90,2,18,-24
1491090549571,3,26,-14,-14,1,94,-98,8,21
1491090549572,0,-93,-48,-24,-68,-75,7,-79,-92
1491090549572,0,79,36,-39,84,57,-121,-16,85
1491090549572,1,-92,-8,-43,-67,-39,-46,-19,-70
1491090549572,1,68,4,4,-30,66,49,17,-25
1491090549574,0,-21,-45,-35,-16,-37,65,28,56
1491090549574,0,-33,6,60,29,16,-66,-18,-17
1491090549623,1,49,7,-8,103,81,34,4,5
1491090549623,1,6,-30,-20,-64,-128,44,32,18
1491090549624,2,107,83,59,113,-22,-93,60,17
1491090549624,2,-23,-32,-79,59,74,-62,-28,23
1491090549629,0,22,12,115,86,3,52,88,-50
1491090549629,0,2,77,69,-30,-128,-116,30,-7
1491090549630,1,13,-44,-101,-39,-98,-54,-15,-47
1491090549630,1,-99,-42,-49,-19,17,-24,20,-4
1491090549669,2,-53,-13,13,51,-92,55,-69,-16
1491090549669,2,80,-35,-11,-113,105,110,127,69
1491090549670,3,-45,42,51,45,127,-43,-71,31
1491090549670,3,87,43,33,58,44,68,74,3
1491090549671,1,4,2,1,127,-100,44,25,-24
1491090549671,1,15,-36,-85,-4,-108,-83,-76,-14
1491090549672,2,29,12,-61,-79,-9,-128,28,-5
1491090549672,2,-69,33,19,-84,66,-30,-120,8
1491090549717,3,120,6,15,37,-128,32,49,36
1491090549717,3,-17,-15,-49,84,26,24,16,-55
1491090549718,0,-25,-11,49,80,127,-14,34,111
1491090549718,0,-25,-4,11,-29,0,11,-21,-45
1491090549719,2,-7,1,-11,88,-13,-105,-37,-46
1491090549719,2,65,-65,-89,-78,-69,-20,48,-10
1491090549720,3,10,63,8,48,127,-65,-94,46
1491090549720,3,-54,-26,-20,-128,-101,-100,-62,-29
1491090549766,0,-81,-25,52,13,127,94,65,31
1491090549766,0,57,110,122,3,-101,58,65,-61
1491090549767,1,-116,-112,-116,-75,-1,-6,-19,-53
1491090549767,1,67,48,77,16,72,-14,-24,14
1491090549767,3,39,7,38,-22,-51,-16,99,72
1491090549767,3,-26,3,-9,-13,10,-122,-11,20
1491090549768,0,50,-6,14,-46,36,-106,-96,-36
1491090549768,0,15,-6,-32,79,-2,127,15,-31
1491090549815,1,-83,-11,34,7,49,23,48,84
1491090549815,1,14,27,30,83,17,24,-105,-14
1491090549816,2,17,11,-12,-67,27,-37,41,-19
1491090549816,2,47,21,67,-58,72,-76,-23,10
1491090549816,0,-13,-26,-41,-2,52,0,1,15
1491090549816,0,-30,15,34,65,94,-93,9,27
1491090549817,1,15,13,125,127,127,127,91,-11
1491090549817,1,-35,14,26,-38,-128,-33,47,-7
1491090549864,2,22,10,-34,-70,-52,-46,-31,-11
1491090549864,2,-9,-30,35,59,56,-46,-12,34
1491090549864,3,-32,-46,-8,124,24,107,101,33
1491090549864,3,-39,65,12,-7,-107,-33,-74,-76
1491090549865,1,22,-34,-59,-99,-75,92,48,-8
1491090549865,1,44,-30,19,68,127,-61,12,25
1491090549866,2,39,80,83,30,-95,-47,12,74
1491090549866,2,21,31,59,-25,3,58,98,-25
1491090549912,3,-11,-13,-48,-19,-63,-128,-85,-24
1491090549912,3,-49,-20,-31,-128,-45,-52,-32,-47
1491090549913,0,-31,-80,-75,122,77,-34,-29,-17
1491090549913,0,59,-75,-84,-93,-109,-46,-24,63
1491090549914,2,47,-19,-32,-116,-19,127,35,32
1491090549914,2,-50,14,-11,108,48,-99,-80,-31
1491090549915,3,18,-10,62,-128,-75,49,56,30
1491090549915,3,-7,-21,-115,65,-75,-88,-43,35
1491090549961,0,-35,-51,-25,-26,-33,36,-22,-102
1491090549961,0,-51,22,17,9,30,45,7,82
1491090549962,1,12,-39,-59,90,-89,7,-9,18
1491090549962,1,-22,91,49,-45,-21,3,-28,9
1491090549962,2,3,19,44,-10,74,7,-31,-63
1491090549962,2,-10,-24,-8,0,36,27,-27,-11
1491090549963,3,25,5,28,-1,127,53,-12,7
1491090549963,3,-36,4,74,-116,100,127,49,-31
1491090550010,0,1,-27,-85,27,-95,113,65,62
1491090550010,0,10,31,-53,127,71,-128,-111,2
1491090550011,1,62,89,108,98,93,-122,-79,-70
1491090550011,1,10,-25,-8,36,-54,-64,70,0
1491090550011,3,-54,-40,-81,-44,-16,-58,-26,-40
1491090550011,3,18,-12,2,-78,86,64,-10,4
1491090550012,0,-1,34,127,66,127,91,64,17
1491090550012,0,69,33,52,92,79,99,28,9
1491090550059,1,43,-16,-88,-115,-88,-128,-125,10
1491090550059,1,48,-50,-93,-86,19,-83,47,64
1491090550059,2,-99,-39,7,30,44,12,-42,-44
1491090550059,2,113,46,40,21,106,89,34,36
1491090550060,0,31,-39,-70,-128,-19,-128,-120,-22
1491090550060,0,-102,40,27,115,-128,37,-63,-49
1491090550061,1,92,-9,45,95,111,-2,108,84
1491090550061,1,-16,29,-12,-68,2,60,21,47
1491090550107,2,21,5,-47,-66,-110,-111,6,44
1491090550107,2,-52,-51,-25,-62,-21,19,21,-3
1491090550108,3,28,-5,5,-51,81,121,22,-29
1491090550108,3,-97,39,87,127,-86,127,-70,-65
1491090550109,1,-104,-48,-69,-84,-124,-128,39,14
1491090550109,1,53,-38,-45,78,107,-91,-79,-68
1491090550110,2,-76,-7,-39,4,-128,48,33,12
1491090550110,2,37,9,-1,-22,-82,-17,10,4
1491090550156,3,-46,-28,39,-33,107,46,-3,-98
1491090550156,3,30,55,37,70,-108,60,54,39
1491090550157,0,75,38,51,-26,76,30,-72,56
1491090550157,0,-8,-5,-23,-7,-108,-15,37,-48
1491090550157,2,-83,-17,-56,-85,-16,2,-9,-35
1491090550157,2,-1,-42,-10,91,121,-7,35,3
1491090550159,3,-35,39,21,3,18,-98,-89,20
1491090550159,3,4,-34,-10,86,-64,-43,15,-33
1491090550205,0,76,38,80,51,-41,-91,48,67
1491090550205,0,-54,-28,-6,-59,32,-23,-63,-125
1491090550205,1,68,26,5,127,0,111,13,47
1491090550205,1,-13,21,38,-119,117,124,17,-9
1491090550254,3,-40,13,-57,-47,-128,-70,-63,0
1491090550254,3,24,18,11,-128,101,-59,42,46
1491090550255,0,-53,-8,-19,26,-79,46,-69,-76
1491090550255,0,27,2,12,58,95,39,112,102
1491090550255,1,-8,-48,-46,-74,-128,-62,-88,-8
1491090550255,1,-24,5,6,-15,11,24,-48,-34
1491090550256,2,-95,-57,42,-5,64,-49,-22,-45
1491090550256,2,41,87,56,84,-40,-94,35,40
1491090550302,0,-93,-33,-58,-40,-5,-42,-45,-71
1491090550302,0,29,38,49,-52,4,32,-8,1
1491090550303,1,45,5,88,-42,101,85,66,-32
1491090550303,1,-128,-38,-8,82,-16,73,90,31
1491090550304,2,63,-32,-66,-18,-22,-3,-17,-19
1491090550304,2,-127,-21,-7,-91,-128,-128,-73,-79
1491090550351,0,-45,55,35,47,89,-39,97,23
1491090550351,0,40,10,10,-10,62,-34,-46,-78
1491090550352,1,10,-5,72,-18,1,63,33,8
1491090550352,1,3,-59,16,0,-112,-55,-25,-63
1491090550353,2,-60,-20,-36,-61,80,46,22,7
1491090550353,2,33,-77,-90,-18,-119,-33,-51,-33
1491090550354,1,80,8,33,8,-36,-39,-84,-20
1491090550354,1,-41,-24,23,91,55,42,41,-76
1491090550400,2,6,6,59,-43,49,84,75,77
1491090550400,2,94,69,66,-39,35,13,-41,-34
1491090550401,3,-20,-4,-52,15,8,38,18,-23
1491090550401,3,6,-5,4,-14,42,-42,17,-20
1491090550401,0,5,-20,-16,-44,-42,-8,-64,-41
1491090550401,0,-24,-25,2,49,66,-54,74,15
1491090550402,2,-21,15,2,23,-31,-35,27,-5
1491090550402,2,-72,-12,-15,70,15,50,8,-23
1491090550449,3,63,52,62,-57,12,9,44,1
1491090550449,3,-47,-12,36,-128,58,54,-66,-67
1491090550450,0,43,4,-12,127,5,-29,26,54
1491090550450,0,10,-22,-11,-100,-87,49,6,-61
1491090550451,3,-69,-36,-102,33,-68,-79,-14,30
1491090550451,3,64,5,-20,114,53,70,-5,30
1491090550452,0,0,2,-16,-91,14,75,-47,-39
1491090550452,0,-9,64,37,34,-40,88,68,36
1491090550497,1,98,46,107,-45,41,112,38,-9
1491090550497,1,-98,-47,-65,-28,-128,-16,-20,-32
1491090550499,2,-22,13,43,14,108,127,56,54
1491090550499,2,69,-10,-66,-34,-110,67,11,64
1491090550499,0,30,29,37,-36,42,5,-20,-41
1491090550499,0,25,-9,-10,-42,-22,44,-52,-17
1491090550500,1,64,32,57,16,57,98,85,86
1491090550500,1,-55,-18,0,70,76,124,34,-128
1491090550546,2,18,-5,-68,-40,-128,-32,-81,23
1491090550546,2,61,71,127,83,127,-46,-16,79
1491090550547,3,-75,-115,-96,-47,-128,-48,-22,-32
1491090550547,3,94,-6,-95,-128,-106,-53,9,52
1491090550548,1,-3,100,86,113,118,-48,-48,63
1491090550548,1,-50,-15,110,-11,62,-98,-76,12
1491090550549,2,-74,-48,-79,-33,-100,-57,-1,-116
1491090550549,2,54,-20,-74,-128,-128,-128,-54,97
1491090550595,3,59,-1,-49,-81,68,-70,40,-51
1491090550595,3,-74,-23,-37,66,-51,8,-14,-72
1491090550595,0,49,17,75,30,105,93,56,17
1491090550595,0,-48,4,2,87,-49,80,-46,-57
1491090550596,2,5,1,-26,-8,10,95,119,27
1491090550596,2,-16,54,89,3,9,-104,-85,55
1491090550597,3,-71,-7,71,-54,-7,1,69,-58
1491090550597,3,17,-14,-11,66,11,46,110,67
1491090550644,0,-27,-25,20,65,72,-85,24,47
1491090550644,0,29,40,-30,97,-65,44,103,-42
1491090550644,1,-33,-65,-85,-32,-128,30,-120,-49
1491090550644,1,21,-7,10,-128,83,23,-8,-46
1491090550645,3,-40,34,75,115,73,-86,-68,-57
1491090550645,3,22,43,69,35,-22,47,90,65
1491090550648,0,54,-17,-63,-97,-96,-26,-117,-9
1491090550648,0,-84,-63,-72,-36,87,-30,-42,-128
1491090550692,1,6,-17,-5,21,-112,-36,79,-8
1491090550692,1,-49,20,36,21,127,66,40,-12
1491090550693,2,-13,49,86,127,-85,-128,-14,40
1491090550693,2,-2,-12,-13,-49,-15,-29,5,46
1491090550694,3,-56,-110,-100,-70,-79,-49,-38,17
1491090550694,3,-48,35,-9,-34,-1,24,-23,-83
1491090550695,0,49,-29,-4,-43,15,79,46,55
1491090550695,0,34,73,67,45,116,98,-45,-10
1491090550741,1,6,16,44,127,-52,101,71,13
1491090550741,1,-14,-48,-55,-35,2,-18,-114,49
1491090550742,2,2,-24,-42,10,77,-67,-6,-38
1491090550742,2,20,39,107,87,127,13,92,-2
1491090550742,0,5,-10,-2,18,98,9,-68,-48
1491090550742,0,-9,-5,1,-61,-80,59,19,-6
1491090550744,1,0,-21,18,127,115,127,47,-34
1491090550744,1,28,43,79,75,-14,13,53,9
1491090550790,2,-51,6,-21,7,-126,24,-46,24
1491090550790,2,68,-47,-45,-24,-12,-88,14,-57
1491090550791,3,12,18,11,-27,53,51,21,63
1491090550791,3,-19,21,-4,-13,36,-116,-71,33
1491090550791,1,-73,-57,-38,58,62,-52,-24,-109
1491090550791,1,-19,-53,-92,-101,39,33,-39,35
1491090550792,2,37,-52,-78,-87,-128,-102,-26,2
1491090550792,2,-41,2,56,-1,111,127,90,-49
1491090550839,3,75,-28,-76,-101,63,25,-20,2
1491090550839,3,-57,11,9,127,-73,113,52,26
1491090550839,0,-106,-11,15,-23,51,-37,24,-11
1491090550839,0,-13,3,-26,62,34,-67,-49,-20
1491090550840,2,67,-3,-1,-20,-112,45,34,121
1491090550840,2,39,6,-57,-69,-47,-59,-4,-15
1491090550841,3,-102,-22,23,36,-8,-104,-29,20
1491090550841,3,28,-20,-82,-110,-81,53,58,-80
1491090550887,0,-16,41,41,62,120,-5,-35,-38
1491090550887,0,-17,-62,-32,43,-128,119,89,46
1491090550888,1,78,55,64,-24,83,-31,-59,31
1491090550888,1,-107,-25,-22,-77,-111,-96,-48,-59
1491090550889,3,-9,70,33,20,14,-49,-14,84
1491090550889,3,42,34,97,84,92,-112,12,15
1491090550891,0,-20,-4,19,16,60,70,-10,-15
1491090550891,0,-42,5,-57,-7,-82,-121,-74,-14
1491090550936,1,10,-6,32,127,30,-6,55,-71
1491090550936,1,19,-18,14,-90,-75,-13,1,97
1491090550937,2,-46,31,-15,125,110,99,2,-42
1491090550937,2,86,14,-8,61,-78,-32,41,78
1491090550937,0,37,-21,26,67,1,-92,35,12
1491090550937,0,-99,-12,-44,-114,5,-58,-128,11
1491090550985,1,49,16,-13,-94,-57,69,26,-33
1491090550985,1,-6,-56,-11,18,-5,-6,-34,38
1491090550986,2,-6,11,50,23,68,101,91,-76
1491090550986,2,35,26,40,99,-73,-73,-22,-22
1491090550986,3,-12,8,-17,-60,31,61,26,24
1491090550986,3,39,23,104,90,127,22,20,17
1491090550987,1,13,1,-22,-111,-113,102,23,-32
1491090550987,1,11,22,-32,108,14,-51,-5,17
1491090551034,2,8,-9,2,87,-48,-51,-93,30
1491090551034,2,-59,-36,16,70,127,33,43,-31
1491090551034,3,8,32,42,-26,-38,113,52,7
1491090551034,3,-31,-10,19,-80,-94,75,-35,-50
1491090551035,0,13,-22,-17,25,13,-98,36,50
1491090551035,0,-28,8,-57,-128,76,29,-16,18
1491090551082,1,120,1,4,51,-108,-36,-14,-24
1491090551082,1,-53,12,21,49,114,40,-49,-13
1491090551083,2,-6,-51,-23,-128,26,45,-5,15
1491090551083,2,13,43,-34,23,63,9,-91,18
1491090551084,3,7,-1,28,124,63,61,61,-8
1491090551084,3,22,27,-24,-128,-128,-76,-18,65
1491090551085,2,75,-20,-59,60,-104,51,-8,69
1491090551085,2,-4,-45,-90,-85,-50,-15,64,56
1491090551131,3,-41,26,6,127,57,-14,-21,93
1491090551131,3,0,-15,11,-57,-22,28,-5,-45
1491090551132,0,22,12,-28,-107,40,106,45,-4
1491090551132,0,38,43,62,8,21,14,-4,-7
1491090551132,1,-16,16,54,20,-19,9,-3,-25
1491090551132,1,2,-9,-52,-113,76,-36,-60,-56
1491090551133,3,45,30,-55,26,-83,-128,-5,71
1491090551133,3,-59,-31,-28,62,65,-60,60,-100
1491090551180,0,65,38,83,1,93,72,-9,48
1491090551180,0,-16,25,13,-8,19,72,49,-23
1491090551181,1,11,-37,-33,-73,15,23,-48,-47
1491090551181,1,6,-20,-36,80,-56,58,58,66
1491090551182,0,-86,50,46,104,-21,96,-16,-123
1491090551182,0,-28,-94,-47,12,-14,-113,-60,-91
1491090551183,1,3,-12,-20,-19,10,23,-17,-20
1491090551183,1,-7,5,16,-36,95,48,53,21
1491090551229,2,23,43,54,72,-25,12,-80,9
1491090551229,2,104,21,76,-11,33,108,83,54
1491090551230,3,-126,-6,8,87,58,82,26,-22
1491090551230,3,-65,-23,-102,-112,-128,8,-35,-12
1491090551230,1,17,29,-9,-57,-81,-14,-117,-48
1491090551230,1,35,-5,12,102,18,-57,-45,-24
1491090551231,2,16,-14,-26,10,44,71,67,96
1491090551231,2,-18,-8,-35,-34,71,26,-31,28
1491090551277,3,-41,-27,47,39,15,-95,77,-118
1491090551277,3,-29,10,-23,51,15,51,28,-24
1491090551278,0,64,-30,17,-32,103,42,39,-6
1491090551278,0,-40,50,38,80,-92,-35,-10,39
1491090551279,2,24,-12,-41,-34,-54,-29,3,-50
1491090551279,2,-87,-72,-36,-121,96,93,-11,-2
1491090551280,3,53,74,-2,-10,-96,-29,-42,37
1491090551280,3,51,7,64,-28,123,-18,1,-33
1491090551327,0,-38,-23,-61,-21,-110,-43,-28,20
1491090551327,0,-1,-25,23,-94,-24,53,48,-20
1491090551329,1,-29,-46,-11,109,71,22,-56,-45
1491090551329,1,86,23,66,21,127,127,35,37
1491090551329,3,88,-6,47,-83,103,81,81,-29
1491090551329,3,89,86,-2,33,-128,-67,28,52
1491090551330,0,-82,-28,-80,-65,83,-43,-92,26
1491090551330,0,9,-27,-19,35,68,13,17,14
1491090551375,1,-88,-15,15,-48,43,45,-27,-5
1491090551375,1,14,-12,18,37,53,127,34,6
1491090551376,2,28,36,90,-31,72,2,13,-35
1491090551376,2,-41,35,-3,-50,-128,50,32,-17
1491090551376,3,16,-25,-32,-128,-90,-71,-38,0
1491090551376,3,-60,18,92,105,52,-33,65,47
1491090551377,0,27,-17,-58,-36,-102,10,-2,16
1491090551377,0,48,-50,38,-23,72,127,3,125
1491090551424,1,75,53,-91,-97,-128,-88,-46,-77
1491090551424,1,-106,-47,-7,21,48,-106,-30,-93
1491090551424,2,-14,11,-14,6,-56,-80,-2,40
1491090551424,2,27,-24,-71,-30,-37,83,74,-20
1491090551425,0,-61,26,74,127,66,37,63,-44
1491090551425,0,-93,17,115,-95,-71,29,-14,-86
1491090551426,1,-106,-57,-95,96,-67,-62,-73,14
1491090551426,1,84,41,-54,-16,-34,29,93,127
1491090551472,2,-24,-27,91,-34,86,-18,-20,-16
1491090551472,2,127,63,-20,45,-89,40,22,19
1491090551473,3,-19,-35,-30,5,125,127,-18,-34
1491090551473,3,-14,-52,-60,37,-14,-85,-61,-42
1491090551474,1,-61,-19,33,-3,22,83,33,4
1491090551474,1,86,29,36,-112,-121,107,63,53
1491090551475,2,105,-52,-72,-4,-61,26,-15,-90
1491090551475,2,32,-13,-98,94,-107,-107,-61,-15
1491090551521,3,20,6,40,-21,-11,12,19,-59
1491090551521,3,-93,-72,-77,-84,-52,-45,-96,-56
1491090551522,0,7,4,-81,-106,-108,-81,-13,16
1491090551522,0,-58,5,9,-89,-16,-2,33,75
1491090551522,2,-83,36,51,-16,36,-42,39,16
1491090551522,2,10,29,72,49,-83,-31,-77,-19
1491090551523,3,12,-5,-40,-73,95,-128,114,30
1491090551523,3,-37,-56,-80,-56,-128,-26,58,94
1491090551570,0,-57,-33,-30,-23,95,58,-13,-51
1491090551570,0,5,3,23,28,-1,95,16,41
1491090551571,1,56,0,12,-84,-49,-16,-93,-17
1491090551571,1,4,13,-7,127,65,-12,-57,34
1491090551571,3,90,96,121,43,-104,127,16,-6
1491090551571,3,-56,-33,-118,-32,-98,-58,-49,-89
1491090551572,0,-12,-45,-7,25,4,-31,27,61
1491090551572,0,13,-25,-54,-92,-3,-36,-32,-59
1491090551619,1,-23,-55,-53,45,61,-57,-40,25
1491090551619,1,63,105,127,-20,112,100,68,-42
1491090551620,2,12,-2,-33,23,-86,-37,-36,71
1491090551620,2,45,-22,-128,68,-5,-122,-26,-53
1491090551620,0,-54,-30,-11,127,119,127,120,-28
1491090551620,0,-89,-33,-19,-128,-123,-108,-102,-26
1491090551621,1,28,33,48,-53,23,-29,28,45
1491090551621,1,-6,41,27,69,-40,79,-27,-4
1491090551667,2,-19,11,-40,62,77,70,17,113
1491090551667,2,1,24,47,72,127,-69,26,-84
1491090551668,3,-57,-28,-5,-37,-123,-128,-10,-38
1491090551668,3,-68,-78,-49,36,118,-67,-54,-29
1491090551669,1,-26,-4,-7,-115,-75,-100,0,-20
1491090551669,1,32,-8,-11,63,-7,-30,36,27
1491090551765,2,14,17,-13,-39,-74,6,-39,-52
1491090551765,2,29,-16,-31,69,-20,65,-56,8
1491090551766,3,15,-9,-55,70,-103,71,81,-12
1491090551766,3,-42,-69,-128,-5,25,-19,-82,-5
1491090551767,0,-46,-33,99,88,127,84,10,18
1491090551767,0,12,87,85,62,-10,94,51,-36
1491090551768,1,68,50,14,-99,46,120,59,117
1491090551768,1,-58,-41,43,13,-51,-75,-23,-98
1491090551814,2,74,32,-48,-75,-128,-128,-128,9
1491090551814,2,-125,12,9,-128,115,-20,-14,-88
1491090551814,3,-23,3,69,127,-92,96,54,4
1491090551814,3,12,-90,-89,-115,-70,82,41,53
1491090551815,3,-58,47,127,-51,127,46,21,-33
1491090551815,3,47,21,78,6,-74,-31,-15,-26
1491090551816,0,45,-50,-66,-14,-113,81,-8,38
1491090551816,0,-60,-74,-94,-78,-128,-90,-98,-11
1491090551862,1,-3,-15,-24,-97,99,-89,-37,-71
1491090551862,1,3,61,83,106,127,96,125,55
1491090551863,2,2,12,64,-99,-28,-29,-41,2
1491090551863,2,24,31,37,88,78,48,-3,1
1491090551864,0,-74,-65,3,101,86,-41,24,-95
1491090551864,0,-42,15,-90,21,-55,35,30,68
1491090551865,1,-18,7,44,-30,58,-37,-51,-26
1491090551865,1,-17,66,109,127,86,105,67,16
1491090551960,2,-35,20,29,7,38,47,7,-46
1491090551960,2,-46,-39,-18,-128,-61,-25,1,-24
1491090551961,3,51,-39,-10,127,100,-108,-33,70
1491090551961,3,40,-30,-93,57,-128,12,23,-14
1491090552009,1,106,17,37,-34,-116,-39,71,47
1491090552009,1,-73,-77,-117,-128,-66,-114,-128,9
1491090552010,2,-50,-21,-27,98,23,-90,44,-67
1491090552010,2,48,13,46,20,61,49,43,24
1491090552011,3,-43,-1,-36,24,-72,127,90,77
1491090552011,3,-31,-8,-2,-113,-46,-111,-83,-4
1491090552011,0,100,5,-3,-30,-12,-31,-67,-60
1491090552011,0,-24,11,31,27,37,57,16,-23
1491090552057,2,-88,-8,-12,-29,-42,-15,-41,37
1491090552057,2,-33,28,39,93,46,-75,-55,-38
1491090552058,3,79,37,19,18,105,8,-6,-26
1491090552058,3,42,15,57,-69,120,81,44,-1
1491090552059,0,68,72,15,-102,-128,-49,83,72
1491090552059,0,-46,-47,-126,-52,-29,30,103,-86
1491090552060,1,-121,-15,8,-9,112,-128,-111,-26
1491090552060,1,59,5,-4,127,-55,42,43,15
1491090552106,2,44,-47,35,99,120,127,-15,-1
1491090552106,2,100,-7,39,-125,-110,60,85,75
1491090552107,3,-2,46,-70,-58,-125,-63,2,10
1491090552107,3,-3,20,43,66,122,-38,-47,-46
1491090552107,0,-128,-53,-55,-96,-128,-37,27,20
1491090552107,0,-102,-22,-24,116,127,127,-35,-5
1491090552109,1,-11,-2,-9,41,-48,-76,-25,-33
1491090552109,1,-106,-35,-25,-22,95,-96,-30,41
1491090552155,2,69,26,79,36,22,-72,1,6
1491090552155,2,-20,-77,-67,-120,-112,-118,-31,-30
1491090552156,3,-91,116,81,-51,78,91,-24,-76
1491090552156,3,109,43,-18,107,-97,91,76,75
1491090552157,1,49,-40,-60,-82,-112,-13,79,-7
1491090552157,1,-111,10,-3,-82,7,54,-7,42
1491090552158,2,-128,-26,5,-106,-16,79,47,-68
1491090552158,2,97,76,18,65,-35,58,11,52
1491090552252,3,-73,-51,37,127,119,-50,-63,45
1491090552252,3,49,72,125,43,-52,44,-16,-60
1491090552254,0,-21,-92,-121,-102,-117,45,99,48
1491090552254,0,-29,54,17,95,121,-48,-91,-85
1491090552254,2,54,60,114,127,1,-23,-21,20
1491090552254,2,-59,-38,-105,-111,-53,11,5,-9
1491090552255,3,-62,-46,-53,64,-88,96,-54,-65
1491090552255,3,-102,-35,15,-63,60,37,-54,-9
1491090552301,0,52,61,16,127,-41,109,64,8
1491090552301,0,-59,-23,2,19,-76,-21,-6,25
1491090552350,1,50,-26,-49,-122,-7,-84,-36,3
1491090552350,1,81,87,54,-18,21,18,47,29
1491090552399,3,49,26,-1,122,89,39,32,47
1491090552399,3,-76,-58,-74,-59,-93,-112,7,-69
1491090552400,0,11,16,70,113,118,-59,-64,-38
1491090552400,0,75,4,22,-101,20,-60,-11,-34
1491090552400,1,29,-1,-24,-35,-111,-90,60,-23
1491090552400,1,16,-60,-128,-123,-52,33,-116,-33
1491090552401,2,39,19,-68,121,46,-1,-32,39
1491090552401,2,-30,18,78,106,127,-66,93,36
1491090552447,1,-14,-34,-39,60,-59,37,-5,38
1491090552447,1,-23,71,53,93,45,85,18,-55
1491090552448,2,56,24,44,118,39,6,68,45
1491090552448,2,48,-1,15,-83,-23,114,-6,61
1491090552449,2,18,-8,26,101,0,127,-61,57
1491090552449,2,-75,12,-15,-25,-18,-128,-107,-34
1491090552450,3,-30,-11,40,125,-17,-88,-27,-21
1491090552450,3,-44,-42,-28,-40,-89,-23,52,54
1491090552496,0,-25,25,98,-113,1,15,10,-22
1491090552496,0,65,-54,-128,-68,-128,-69,-29,-23
1491090552497,1,-31,-48,26,43,127,127,-22,-32
1491090552497,1,34,64,116,71,127,122,89,2
1491090552497,3,-31,-46,-90,7,89,-88,-52,-51
1491090552497,3,60,-18,12,-77,-41,-76,-8,11
1491090552499,0,-35,47,8,19,45,33,92,-112
1491090552499,0,37,55,81,65,16,9,-49,47
1491090552545,1,-16,12,-35,-127,-100,-60,-37,-32
1491090552545,1,-59,-64,-36,127,127,24,-24,-69
1491090552546,2,101,-10,-52,55,80,-30,37,35
1491090552546,2,-45,12,1,-61,-128,-21,61,-41
1491090552547,0,-121,-52,-90,-127,-49,14,19,-20
1491090552547,0,71,-20,-42,31,31,-6,10,57
1491090552548,1,-17,75,127,62,-17,59,8,-25
1491090552548,1,-56,-43,-54,12,15,56,48,8
1491090552594,2,-14,-43,-4,21,-21,76,-23,19
1491090552594,2,48,55,-13,-59,-110,-68,-22,27
1491090552594,3,-112,-46,-65,-49,-45,-118,-91,-90
1491090552594,3,46,-63,-55,-4,70,-45,15,49
1491090552595,1,58,23,-7,-84,4,-5,89,77
1491090552595,1,-58,23,57,-54,28,-22,100,20
1491090552596,2,-61,-23,-20,37,-29,-16,-2,-69
1491090552596,2,43,59,103,94,13,22,90,57
1491090552642,3,-26,23,-5,70,123,54,-61,13
1491090552642,3,51,-15,-73,-112,-128,-34,-66,-34
1491090552643,0,-31,-16,-31,10,60,11,-19,10
1491090552643,0,30,10,8,10,118,101,19,-57
1491090552644,2,17,-12,-31,108,15,-128,-82,-47
1491090552644,2,22,-42,-53,-39,45,-65,14,34
1491090552645,3,23,-74,1,22,-96,-1,-9,3
1491090552645,3,56,65,127,107,105,108,-54,-62
1491090552691,0,-41,16,-88,-128,-128,-108,20,11
1491090552691,0,-128,-76,-92,-11,107,-41,1,-85
1491090552692,1,4,0,39,-36,-111,114,118,81
1491090552692,1,-5,13,-38,-96,20,-128,-128,-14
1491090552693,3,-13,-27,-26,30,45,13,17,-14
1491090552693,3,36,26,46,127,-43,79,-22,33
1491090552693,0,3,31,59,-36,18,60,26,49
1491090552693,0,-17,8,32,13,-95,107,-14,-53
1491090552740,1,37,16,61,-27,-51,17,8,-42
1491090552740,1,-100,-56,-81,-103,-128,-106,-94,35
1491090552741,2,39,-49,-35,50,66,-128,71,18
1491090552741,2,17,-9,-53,-11,-128,-55,-6,6
1491090552741,0,56,29,96,81,96,33,8,-2
1491090552741,0,-52,-29,37,-68,-64,67,14,35
1491090552742,1,17,51,41,69,9,-40,-18,-21
1491090552742,1,-60,-30,-42,-39,-77,29,42,-47
1491090552789,2,21,8,67,74,85,37,24,49
1491090552789,2,36,-7,-11,21,77,41,56,-2
1491090552789,3,-38,19,-23,-128,-104,65,-73,-8
1491090552789,3,55,-9,-104,-85,20,-64,-11,13
1491090552790,0,17,-14,12,73,24,-51,-22,33
1491090552790,0,-62,-32,-14,-78,37,-56,-68,-52
1491090552791,1,2,32,43,53,79,112,42,-4
1491090552791,1,17,-24,31,66,-43,30,11,-16
1491090552837,2,9,44,11,-95,-111,17,-56,-89
1491090552837,2,-26,14,70,78,118,-16,0,28
1491090552838,3,-54,-2,37,-53,127,76,89,15
1491090552838,3,105,53,100,-94,-45,-35,55,55
1491090552839,1,-27,-19,43,79,83,-51,-16,-25
1491090552839,1,24,18,-4,-58,-73,-121,-72,2
1491090552840,2,-40,-23,-14,-112,-48,18,11,28
1491090552840,2,52,87,65,27,30,90,16,19
1491090552886,3,-14,-3,10,58,-10,-30,36,12
1491090552886,3,-41,19,30,127,127,94,44,4
1491090552887,0,-13,-24,0,-74,-90,11,-63,28
1491090552887,0,38,72,63,-81,70,81,50,-22
1491090552887,2,-50,-51,-18,60,92,91,49,-4
1491090552887,2,-54,11,8,41,15,-128,-60,-26
1491090552889,3,38,23,49,-106,-18,-69,11,46
1491090552889,3,2,35,29,81,-43,-65,-1,-58
1491090552935,0,-8,-5,-13,-119,-53,91,3,-12
1491090552935,0,-29,-39,7,119,4,31,9,-51
1491090552936,1,8,7,48,83,100,-32,-5,44
1491090552936,1,-27,-9,-84,-128,-122,-15,22,6
1491090552936,3,42,-9,-64,30,-15,44,-34,-22
1491090552936,3,-53,3,78,41,127,-32,0,54
1491090552937,0,40,52,69,99,-48,-104,77,19
1491090552937,0,-21,-35,9,-118,102,20,-1,-2
1491090552984,1,52,27,0,20,-68,123,31,-66
1491090552984,1,-4,-21,-44,47,-123,-36,-88,-24
1491090552984,2,59,29,57,80,66,-28,16,20
1491090552984,2,-10,-58,-92,-90,-78,20,-9,19
1491090552985,0,104,13,23,34,-7,25,26,30
1491090552985,0,-79,-36,0,127,98,72,-37,-4
1491090552986,1,52,62,106,89,95,91,39,96
1491090552986,1,56,38,48,-68,-128,-56,2,-88
1491090553032,2,-17,-60,-60,-81,-2,-128,-128,6
1491090553032,2,-56,-57,-29,-34,69,-42,91,10
1491090553033,3,33,-2,-78,-128,-97,52,-59,47
1491090553033,3,16,-2,35,101,96,61,41,7
1491090553034,1,-62,-62,-91,-117,-58,-128,-6,26
1491090553034,1,35,20,29,-25,75,46,-10,-8
1491090553035,2,-29,-55,-20,61,39,-19,30,-16
1491090553035,2,17,64,21,97,36,-109,3,15
1491090553081,3,33,28,83,92,6,-82,-34,6
1491090553081,3,-86,-115,-126,-113,9,105,-79,-25
1491090553082,0,-7,9,-71,-127,96,-75,-8,-24
1491090553082,0,22,1,27,-69,-89,-51,71,54
1491090553083,2,-78,-18,5,-38,-85,34,-39,-77
1491090553083,2,49,38,33,-80,92,76,47,60
1491090553083,3,-16,7,-28,35,-23,-105,-12,-7
1491090553083,3,-124,-82,-128,-101,-94,-100,-17,-37
1491090553130,0,101,11,19,-36,-106,-46,-26,39
1491090553130,0,-13,-26,-4,82,-13,49,-52,-17
1491090553131,1,1,12,34,-110,-24,127,66,-6
1491090553131,1,71,79,110,127,127,60,38,62
1491090553131,2,24,21,27,-25,-113,-118,-25,-37
1491090553131,2,-24,-5,-27,-128,-122,-13,-108,-41
1491090553132,3,-83,-89,-88,3,69,-30,-26,-93
1491090553132,3,11,12,10,55,3,29,46,93
1491090553179,0,22,53,62,70,125,127,41,3
1491090553179,0,125,31,-11,-49,-74,-55,54,-9
1491090553179,1,32,35,27,-103,92,-12,2,78
1491090553179,1,29,-52,-88,26,-80,-96,-39,-32
1491090553180,3,8,43,50,70,-53,36,74,23
1491090553180,3,-128,5,31,-36,-47,-111,-26,-69
1491090553181,0,-91,-1,14,-17,110,44,3,125
1491090553181,0,-96,47,-16,-15,-84,-45,-34,-35
1491090553227,1,-54,-9,-62,-128,-37,-16,34,-32
1491090553227,1,-47,-45,-49,-34,46,127,36,-30
1491090553228,2,68,-28,-28,127,28,88,-20,10
1491090553228,2,-2,60,54,-69,126,-3,5,27
1491090553229,0,-77,-58,-99,-54,-128,-128,3,11
1491090553229,0,79,3,-13,-45,11,44,-35,34
1491090553230,1,23,29,47,-9,-2,106,-3,-24
1491090553230,1,15,20,100,32,55,-89,8,19
1491090553277,2,8,-10,-66,-59,-86,127,107,15
1491090553277,2,60,-44,-119,-19,-89,-128,-78,17
1491090553278,3,-15,-60,-95,40,80,-78,-39,-47
1491090553278,3,45,45,48,63,57,116,-20,11
1491090553280,1,-47,-27,-12,13,70,35,-6,-54
1491090553280,1,70,-15,23,-128,77,122,84,-14
1491090553281,2,69,107,80,-14,-85,-90,31,56
1491090553281,2,-108,-54,-119,98,-128,-106,-3,-52
1491090553325,3,-38,-30,-59,-53,-48,-91,-54,-12
1491090553325,3,-87,-35,-43,87,70,61,2,-32
1491090553326,0,-41,22,50,-125,-70,95,15,12
1491090553326,0,-75,24,127,121,127,110,21,-32
1491090553327,2,27,-43,-25,127,120,-55,-64,-31
1491090553327,2,76,-3,60,-59,124,81,25,15
1491090553328,3,36,21,71,127,21,13,31,38
1491090553328,3,5,-17,-7,-87,-128,-86,-41,43
1491090553374,0,25,55,-11,12,108,-128,-23,37
1491090553374,0,-128,-10,38,-57,50,-38,1,-62
1491090553375,1,32,58,68,80,-35,127,46,-25
1491090553375,1,7,-39,-99,-127,-128,-49,-32,8
1491090553377,3,113,2,19,-85,-70,-18,-38,22
1491090553377,3,-7,43,54,20,55,95,-48,-61
1491090553378,0,6,-8,-70,-10,-54,26,67,58
1491090553378,0,40,-46,-102,-128,-86,-128,-8,-20
1491090553422,1,-115,-1,-10,86,81,-63,-15,-33
1491090553422,1,117,24,63,81,28,72,-35,-19
1491090553423,2,10,25,102,82,127,127,44,13
1491090553423,2,0,9,-19,65,-128,-80,29,11
1491090553424,0,18,-23,10,41,-2,117,-34,-85
1491090553424,0,-42,35,2,51,-89,127,75,-4
1491090553425,1,31,16,-56,-58,4,-77,-87,83
1491090553425,1,-128,-20,-22,60,54,-87,26,-3
1491090553471,2,60,-7,28,-109,95,8,12,-71
1491090553471,2,-72,-16,7,36,-60,28,0,34
1491090553472,3,-59,-48,-63,27,45,127,12,-25
1491090553472,3,-128,40,83,61,102,127,85,69
1491090553473,1,59,-33,-44,75,34,-97,-3,-2
1491090553473,1,127,-18,-41,8,-9,-5,-44,14
1491090553520,2,55,-14,46,-27,78,114,69,-17
1491090553520,2,63,-1,46,50,17,28,-10,28
1491090553522,3,-87,32,8,45,-47,5,20,-36
1491090553522,3,34,23,-16,-108,-3,6,3,6
1491090553523,0,-16,-39,4,30,14,-4,-83,-8
1491090553523,0,115,20,-80,-81,-40,-77,-91,-55
1491090553524,1,29,-79,-50,-42,22,-52,26,47
1491090553524,1,-37,59,45,-87,-128,-45,15,-42
1491090553569,2,30,-4,-8,73,0,38,-1,8
1491090553569,2,-10,-28,15,61,127,127,-37,-16
1491090553570,3,36,3,59,-87,-4,-39,37,-18
1491090553570,3,42,-11,28,95,71,-102,-30,-71
1491090553570,0,-23,43,28,45,15,-55,43,83
1491090553570,0,5,-4,62,95,33,-105,-18,-35
1491090553571,2,-23,17,-30,20,10,26,-64,21
1491090553571,2,-90,-21,74,88,32,118,100,-66
1491090553617,3,-85,-23,-13,-53,53,73,96,27
1491090553617,3,-56,32,-35,49,-89,-107,-80,1
1491090553618,0,-70,-54,-104,62,-128,-128,-79,-37
1491090553618,0,104,-12,9,-18,124,23,-15,6
1491090553619,3,35,14,-72,71,-106,-75,-125,-13
1491090553619,3,100,-44,-75,119,1,-71,-38,-23
1491090553620,0,-52,11,16,-61,56,127,116,-43
1491090553620,0,50,-4,13,-1,-55,-128,-12,98
