1490742892662,-22,-85,-2,43,58,-91,-74,9,34,-51,-25,-106,-102,78,94,65
1490742892711,23,9,-11,-128,-128,-108,-87,2,-10,-23,14,16,50,35,-128,-102
1490742892712,-22,9,13,92,28,-40,7,33,-15,14,14,-16,-58,62,62,0
1490742892760,27,37,-18,85,-28,-105,-3,96,57,-24,-33,-127,-100,-81,-88,-67
1490742892809,-15,12,18,16,104,13,-42,-28,-68,-20,-14,-37,-56,34,54,-52
1490742892857,17,-1,11,72,77,120,77,35,9,2,38,81,-70,-16,-19,-13
1490742892954,34,-18,0,-34,-75,72,22,14,-12,-30,-1,-65,43,-64,22,13
1490742892956,8,-25,9,-104,-126,-47,-65,-5,-2,-7,18,111,116,-128,-97,-27
1490742892957,20,-22,-31,-12,-64,21,62,29,24,8,30,-33,-79,-15,-64,-2
1490742893003,21,28,-15,48,89,25,-43,-8,16,9,4,-20,45,53,27,5
1490742893052,4,-2,19,17,-54,67,83,39,11,11,20,127,127,-40,-52,2
1490742893101,13,-6,-34,-98,-92,-128,-82,-16,-30,-10,-47,65,61,-17,47,-4
1490742893149,21,5,22,72,-95,63,93,39,16,-2,5,-90,-77,28,-45,-17
1490742893150,24,16,55,127,127,111,48,26,10,2,-22,-6,2,9,39,27
1490742893198,-11,-10,-12,-34,-26,-40,-8,-18,18,0,-20,-9,55,37,9,18
1490742893247,3,-31,3,63,17,-12,-16,-5,-12,-37,75,100,127,12,4,1
1490742893296,36,33,-2,-83,-62,-31,-9,-2,12,27,-4,28,1,21,8,2
1490742893345,-9,64,39,-36,62,3,15,5,20,49,27,-4,-41,-32,-35,-19
1490742893393,-17,-103,-57,-56,-25,-12,-2,1,-45,-52,29,76,-4,3,-1,-28
1490742893394,-61,127,-44,-24,3,14,6,-16,55,127,-13,-59,-17,-13,-10,2
1490742893442,-15,-110,-103,-57,10,11,-7,-33,-9,-16,13,37,10,23,2,18
1490742893491,-26,-7,-49,49,2,10,-6,-12,-36,99,-14,-90,1,12,-10,-13
1490742893540,-35,-1,-20,105,37,15,-9,-14,43,55,41,-100,-48,0,-14,-24
1490742893588,13,-17,4,30,28,10,24,-2,54,0,-16,-4,-11,-24,-7,16
1490742893589,110,-69,71,15,-10,-5,-11,19,37,-64,-124,-50,47,13,17,7
1490742893685,-51,-4,-26,1,14,4,30,18,64,-16,39,-3,-54,-30,-17,5
1490742893686,35,17,36,38,3,-16,1,-9,-62,-5,-1,71,11,-18,1,-7
1490742893735,-97,-40,-29,-21,5,11,1,1,58,20,36,103,17,-6,-16,-5
1490742893783,89,13,21,-11,-44,-34,-27,-22,-5,-6,74,20,39,28,31,36
1490742893832,38,-16,3,-2,0,-8,-25,-12,-4,24,-18,-49,5,7,21,4
1490742893833,26,-14,-1,26,-7,4,7,-4,33,11,13,1,14,6,4,34
1490742893881,17,24,-14,-2,-2,1,4,-10,-15,-7,15,-10,-6,-7,-8,-8
1490742893930,27,9,31,3,-25,-11,-12,3,-98,-38,28,-10,4,-2,-4,-23
1490742893978,9,25,22,-4,-2,8,2,-7,35,-10,3,-6,-9,1,-8,11
1490742894027,-62,-51,5,13,7,-7,-1,-11,2,-65,-42,-30,3,5,2,-7
1490742894075,-8,-87,1,-6,4,4,6,14,16,26,7,5,-2,-4,-5,-7
1490742894077,18,124,45,41,5,2,23,1,25,127,-29,-24,-8,-13,-45,-28
1490742894125,31,-5,16,18,-7,-13,-7,-12,-30,-102,38,32,39,33,-21,20
1490742894173,2,5,-27,1,7,-19,-18,19,1,59,13,5,5,25,-11,-23
1490742894222,-63,-12,-20,4,21,19,13,-4,7,9,19,-6,15,17,30,28
1490742894271,20,71,-6,-10,-1,3,-34,-11,16,22,-11,13,7,16,34,1
1490742894272,14,26,-12,-1,55,-29,-33,-8,-46,3,22,9,2,42,31,9
1490742894320,123,-37,-20,-35,-60,3,14,15,-47,-10,-3,-18,-34,-43,6,5
1490742894417,-62,-51,19,3,11,24,5,-6,0,-37,3,4,-1,3,32,10
1490742894418,40,-9,0,-2,-41,-69,-42,-13,-39,-36,-21,-6,20,-15,-17,-4
1490742894466,-43,-13,-6,-7,-35,-48,6,-24,19,16,-2,4,27,14,29,23
1490742894514,5,-29,-15,-2,-23,26,36,22,21,16,4,-17,-24,-45,-60,8
1490742894516,16,12,3,-2,-53,0,7,14,-66,7,-5,-9,1,-20,-33,-23
1490742894563,-11,-10,8,39,49,47,1,-17,40,3,13,8,14,27,78,31
1490742894612,21,18,-16,-17,-36,-10,-1,-8,-7,21,16,8,10,46,12,49
1490742894661,-41,-40,1,12,27,11,-46,-26,7,-12,4,3,0,-35,22,22
1490742894710,12,-45,-10,7,9,19,8,15,-72,1,-1,-4,-8,11,-12,-26
1490742894758,-16,8,12,17,15,-8,6,-6,17,-14,-14,-5,-1,9,-18,6
1490742894759,-19,6,1,-2,6,6,14,6,1,-10,2,8,-1,-4,-13,-2
1490742894807,-60,-3,0,-3,7,17,14,8,19,5,0,1,5,-1,-16,-9
1490742894856,81,3,6,7,5,15,4,-3,18,0,-4,-9,-8,-11,11,-17
1490742894905,-25,-7,2,-6,0,10,4,9,6,4,6,-2,0,-4,-11,7
1490742894953,-9,-5,1,0,-1,-7,-2,-6,41,-12,-5,-3,-3,0,-18,-3
1490742894954,-52,4,-4,-3,-3,-8,-9,-11,47,-1,2,1,-4,11,-32,8
1490742895002,57,-7,-2,-7,-4,5,26,21,-41,-1,-5,-3,-6,-15,-27,-25
1490742895051,-5,-2,-4,-2,0,-5,-26,-2,-16,-3,6,-3,-3,10,-8,-7
1490742895148,-35,-11,-11,-10,-4,-10,-38,-21,37,3,7,3,0,4,8,11
1490742895149,6,8,3,-5,0,11,19,9,-96,-14,-16,-4,-9,-13,-9,-19
1490742895196,-52,4,0,0,-13,-25,-25,-22,44,-6,6,11,14,23,-4,3
1490742895198,-12,-1,8,14,16,-3,32,6,-4,-19,-11,2,-5,-17,-42,-26
1490742895294,3,11,7,22,-5,5,8,-8,31,18,9,6,-1,-34,-12,-2
1490742895295,-73,-3,-3,-30,-33,-72,-37,-19,51,-11,-5,-2,15,88,81,17
1490742895343,17,-2,-10,-23,-46,-56,-2,52,-44,-5,-17,-44,-26,-19,-65,-70
1490742895392,-87,-18,-25,-48,-80,8,-3,-21,36,-9,6,-19,77,-57,10,36
1490742895440,-94,2,4,24,-63,4,38,53,17,-27,-26,-83,-77,38,-39,15
1490742895442,-21,16,34,81,40,20,106,55,6,-36,-13,21,-86,-120,-77,-29
1490742895491,-35,-23,-28,-88,-26,-59,-128,-73,-37,52,11,18,15,127,127,103
1490742895538,108,-26,-29,-83,20,-72,-81,-17,-27,-25,-21,-106,-84,19,27,-30
1490742895587,59,-15,60,-15,-67,-128,-25,19,-92,-7,-9,-31,102,124,73,4
1490742895635,-6,-12,-27,-51,-82,22,94,-65,-84,-5,-11,-28,-91,-73,-95,-7
1490742895684,-18,-39,-79,-105,-128,-128,16,22,-51,-18,-41,-36,62,110,4,-55
1490742895686,-73,-28,-34,-55,-128,10,-86,-100,-3,-9,16,39,98,-8,111,21
1490742895734,-17,-3,47,114,125,70,81,25,79,7,-14,47,1,79,60,44
1490742895782,-84,-14,-17,15,10,-48,-44,-3,64,39,64,-14,-60,76,-59,-55
1490742895879,-53,14,0,-53,-128,55,97,40,85,16,-25,-67,-21,-87,-55,-21
1490742895881,5,-19,12,-84,-78,9,-21,13,5,-29,63,27,-29,90,73,28
1490742895883,-3,-27,-48,71,0,5,92,83,-61,-33,14,68,127,-41,-89,-91
1490742895929,-67,-58,21,2,102,76,1,-57,20,-63,-11,68,78,61,59,64
1490742895977,-26,-58,-19,-83,-128,-117,-94,-53,10,71,36,75,49,127,70,17
1490742896026,30,-97,-48,-84,-3,69,21,13,1,-91,-4,65,114,4,19,21
1490742896075,36,84,45,56,85,97,51,32,-14,47,-17,33,14,13,-3,9
1490742896123,-24,26,1,8,-79,20,-2,9,-4,-70,50,15,-128,-113,-86,-39
1490742896124,-14,48,-100,-8,34,-18,-12,-7,13,-23,60,28,-58,-14,5,8
1490742896172,-52,0,25,-9,17,-25,-14,-6,21,127,-51,-50,-17,19,12,-2
1490742896222,-30,-39,-29,-32,-12,-12,-10,-4,-31,-23,58,41,-1,-5,17,8
1490742896270,26,-10,-5,12,16,-56,-28,-8,-11,-83,-16,50,43,6,1,3
1490742896318,14,9,28,78,-12,39,14,8,-18,8,10,-43,92,-10,-26,-19
1490742896320,-9,3,-11,-78,69,-14,11,-31,-43,-29,2,-13,-39,16,0,6
1490742896367,-34,26,-23,-69,-43,-57,-36,-17,25,12,6,20,-9,1,9,-2
1490742896416,-8,-15,-22,60,82,78,2,-12,2,-27,51,88,-82,60,25,1
1490742896465,-8,-7,10,77,100,36,-3,-4,40,17,13,-2,40,57,15,-1
1490742896514,9,-6,-47,-76,-32,-2,14,7,-8,-13,31,34,13,-54,-27,-16
1490742896562,21,76,24,-103,-118,-49,-25,-14,7,28,-25,-20,14,-34,-16,-9
1490742896563,22,6,43,25,-10,-4,0,9,30,-16,47,49,63,48,25,21
1490742896611,-24,64,25,24,-21,-39,-5,-8,-79,-14,-43,-49,-15,-40,15,14
1490742896661,12,-64,-4,57,34,16,-4,-2,3,-100,-84,-11,66,20,6,3
1490742896709,-10,-61,-78,-11,-26,0,19,32,23,-56,-21,-18,-36,-20,-7,-3
1490742896758,1,-10,-73,-12,12,-12,-8,-10,-31,-37,34,13,-11,-18,-20,-21
1490742896760,23,-1,52,-38,-22,-16,-7,7,25,-66,-92,-56,-3,-9,-16,5
1490742896807,5,20,-32,-31,17,-5,14,23,31,-78,29,54,-11,-8,-2,-2
1490742896856,61,27,61,47,-30,-14,-25,-10,-28,-28,16,0,-1,3,2,4
1490742896903,-26,33,11,-6,-7,-2,-7,-2,-35,50,-12,-40,-1,-3,2,-1
1490742896952,58,18,26,8,0,1,-8,-10,46,120,5,42,8,-3,-2,1
1490742897000,-49,-25,-67,-77,-23,-2,12,-3,33,14,14,-2,-4,-4,-7,-1
1490742897001,-65,73,-15,7,-5,8,14,-5,25,-67,30,24,9,0,-3,7
1490742897050,16,-7,-15,12,-1,-12,2,5,-39,6,11,4,-12,-8,-9,-19
1490742897099,0,7,-7,6,2,6,3,9,20,-13,2,9,3,2,2,-2
1490742897147,-7,-43,-13,-2,3,0,1,-1,2,88,24,0,-3,-3,-5,-4
1490742897196,-9,24,29,-5,-1,3,13,-2,2,-30,-22,-9,0,2,7,15
1490742897247,48,20,0,-1,-19,-11,-8,15,-7,48,-40,12,42,-7,-20,1
1490742897249,75,45,3,5,16,4,9,23,-15,-73,-7,7,-11,-3,12,5
1490742897294,-57,-30,-18,18,34,33,-41,-1,7,-26,3,13,31,1,-11,-13
1490742897342,-26,-2,26,-11,-21,-74,-21,1,-17,-9,-10,-11,-71,-4,-25,-23
1490742897391,-50,-38,13,-7,-21,-38,-68,-42,26,-35,-1,-24,-3,15,1,-3
1490742897439,32,52,12,15,5,-21,38,9,-35,22,-28,-35,-17,-14,10,-6
1490742897441,-95,-6,-10,29,104,32,-4,-12,75,-26,20,37,5,-11,22,50
1490742897489,-25,-69,18,-26,-50,27,37,11,-59,12,11,-1,-11,5,11,-14
1490742897537,-31,-33,-6,16,20,23,7,26,21,32,24,-8,-26,-42,-32,-21
1490742897588,18,25,5,7,7,-30,-52,-35,-40,-8,-7,-11,-20,12,36,3
1490742897635,5,15,17,19,-6,60,-9,10,28,-3,-4,14,64,-5,34,9
1490742897683,4,10,-22,-13,-25,2,17,11,-37,-36,5,-14,8,47,-33,-37
1490742897685,-23,26,23,7,-10,-46,-41,8,-23,15,-6,2,12,-44,1,14
1490742897732,15,-9,4,-10,-3,8,19,11,-20,5,16,21,-4,-12,-13,-12
1490742897781,-17,-1,-2,5,-10,19,17,-8,-25,-3,-11,-13,7,3,-11,-5
1490742897831,14,-5,-1,-8,0,12,35,8,-24,-4,-4,-5,-2,-7,-2,-11
1490742897879,54,14,8,1,-12,-22,-40,2,-60,0,-9,4,-15,-12,3,-14
1490742897927,11,15,11,10,18,22,39,27,100,-1,-1,11,8,-4,20,24
1490742897929,-100,0,-9,-18,-13,5,7,-13,42,4,3,-2,5,17,-12,-3
1490742897977,-30,-37,-13,-13,5,6,6,-9,73,-23,-9,-18,1,3,3,18
1490742898028,71,-2,-9,-9,-9,-8,-25,-7,-99,1,1,6,-4,-12,15,-13
1490742898074,-9,-1,5,10,2,13,-2,14,37,-2,-16,-8,0,0,4,12
1490742898122,20,-11,-7,-9,0,1,2,-16,45,8,10,22,-4,-12,15,6
1490742898123,-2,-3,-6,-3,-8,-17,-26,5,12,16,2,-1,5,-3,3,-2
1490742898171,-32,-11,-7,-14,-11,3,10,3,4,2,-6,-17,-17,-24,-30,-7
1490742898220,15,14,19,17,1,5,15,3,-5,3,4,9,0,4,-8,10
1490742898269,-36,-8,-6,-6,-7,-13,2,-6,89,-3,7,5,0,12,13,14
1490742898317,-52,-8,-2,-5,-7,-4,-3,-17,37,9,6,-6,-4,12,-18,-7
1490742898365,-47,-2,22,2,-6,14,8,3,4,-6,-6,-1,-12,-29,34,-20
1490742898414,44,12,6,-3,1,0,18,33,-11,11,8,12,13,27,24,28
1490742898416,66,-8,-15,-26,-52,-6,-12,-28,-49,-12,2,4,2,-27,-41,4
1490742898464,44,-3,0,-16,-36,-32,-28,-4,-23,-10,-16,-53,-36,10,-33,28
1490742898513,-46,-18,-2,12,-54,-29,-88,-17,78,-14,-10,-44,-40,43,96,21
1490742898561,1,-2,5,-9,-57,-39,13,8,1,-9,-1,-8,14,4,-11,-25
1490742898610,-41,17,13,22,79,10,-67,-16,11,-23,-21,-60,-103,-66,33,12
1490742898612,-40,23,9,46,120,-10,-25,-29,67,31,2,111,1,19,93,17
1490742898659,62,-8,17,62,2,-33,0,28,-75,4,-19,-41,-92,42,-103,-44
1490742898707,3,-7,-5,-30,-87,74,-47,-70,-10,-1,-45,-81,56,29,38,20
1490742898756,-93,29,25,-47,-20,20,-91,31,-2,-3,-25,-25,27,-57,-36,-13
1490742898804,25,-21,-63,-81,-105,-128,-39,-89,20,-21,4,-65,80,-22,61,54
1490742898807,-22,-38,-48,-80,-128,-128,-73,-70,-10,58,-25,-49,-53,36,-39,-1
1490742898854,-4,38,15,49,112,-38,46,39,56,14,-1,26,-5,83,80,102
1490742898902,40,8,31,29,24,70,-43,-47,-119,7,-10,105,94,-9,-39,-19
1490742898951,72,46,19,31,66,63,104,43,-124,20,23,27,-6,9,43,-74
1490742899000,-73,-32,79,-30,-94,-126,-103,-50,14,-14,14,-59,55,-55,54,-9
1490742899048,-48,-8,32,-31,-128,52,-108,-7,-75,28,-36,-110,-30,96,11,-24
1490742899050,86,6,-11,2,33,-33,4,19,10,9,15,15,-47,53,65,30
1490742899098,15,-4,29,107,127,118,103,37,20,1,20,53,-37,-15,46,31
1490742899146,4,13,42,77,70,110,127,35,-6,4,35,72,43,-90,-58,-15
1490742899195,-37,21,26,-128,-103,-70,-31,-34,17,-18,-5,-17,-84,-5,-21,-23
1490742899243,2,0,53,46,64,65,56,24,7,17,15,81,98,86,9,7
1490742899245,-13,-2,2,-10,66,47,37,-8,-3,-21,-92,-56,-72,32,5,10
1490742899292,-12,-9,-8,104,127,62,32,16,4,18,-34,50,64,10,-3,4
1490742899341,-19,110,60,22,-58,-8,3,2,1,49,21,59,35,-9,-13,-4
1490742899390,-5,-83,-49,-15,-57,4,0,-4,36,-74,63,-26,-29,-36,-13,6
1490742899439,-33,1,36,-22,10,14,0,-3,24,-34,-2,4,-3,3,4,9
1490742899487,-63,-19,-37,-41,28,16,9,28,86,15,15,37,-28,-19,-25,6
1490742899488,-12,-38,-6,53,34,16,11,-6,-12,-14,-3,-42,-28,-13,-8,-7
1490742899536,8,-7,-8,7,8,1,0,-4,-47,-26,-38,5,30,15,3,-31
1490742899585,100,16,-12,-16,-9,-20,-8,4,-84,13,-39,12,-17,10,3,1
1490742899634,23,1,-9,-17,4,14,12,8,-24,-14,71,2,1,-20,-12,3
1490742899683,-41,0,-26,16,2,4,5,-31,-31,-5,9,-10,16,14,-2,8
1490742899731,5,-11,-60,-27,18,-9,-3,11,63,12,29,25,-16,4,11,13
1490742899732,-8,-16,-12,66,45,12,1,6,-22,21,-74,-107,7,-4,-1,-18
1490742899781,20,-10,36,42,-4,-19,-5,9,7,-11,8,-5,-5,2,-6,-9
1490742899830,-36,-92,-45,-11,17,11,15,-1,8,-1,34,-18,-22,-30,-13,-2
1490742899878,-9,-54,9,10,-20,0,-2,7,53,-9,4,35,12,6,-3,-9
1490742899925,13,40,-21,-44,-7,0,19,19,47,80,47,60,-4,8,-2,-1
1490742899926,-27,-9,-12,9,5,5,2,-13,-10,-37,-71,-57,11,4,-5,-3
1490742899975,-8,12,58,45,7,-3,-8,-8,-2,46,-92,-39,9,9,5,-5
1490742900023,3,27,18,30,9,7,-3,14,15,12,10,-65,-26,-7,-15,-9
1490742900072,-20,49,10,-8,-20,-12,-18,-26,-26,6,17,18,17,1,-10,-17
1490742900121,-65,-17,-11,-4,-3,-1,9,-21,10,-6,-63,-6,6,3,8,13
1490742900169,-66,-123,-16,70,13,5,-6,-32,-6,-22,-11,-85,-12,-2,-6,-6
1490742900171,-26,65,56,31,-27,-14,-5,0,42,-13,-35,-9,-2,-18,-19,-8
1490742900219,4,-52,-12,-5,8,8,-5,-8,28,-7,-5,22,1,5,3,6
1490742900268,-30,-3,-6,-1,-1,-17,-32,-12,-19,2,9,-9,6,-3,7,-16
1490742900316,-16,83,34,21,-10,-5,4,9,80,33,-14,4,-1,-14,-7,10
1490742900365,48,-6,1,2,6,-2,-11,-4,-65,36,-2,11,-9,-4,-7,-13
1490742900413,-54,-16,1,-14,-5,7,1,-7,51,6,-8,-23,-31,-54,-9,16
1490742900414,-47,15,-9,-2,34,-2,23,-21,-46,43,-6,15,-18,21,5,8
1490742900462,-33,-31,-35,-46,-66,-18,-37,-28,79,-48,-41,-22,33,80,63,12
1490742900511,-18,8,4,2,-7,-10,4,11,-43,-32,-15,-11,11,10,2,-19
1490742900561,11,18,12,-10,5,-61,-16,-4,-16,-35,-21,-4,-15,16,-32,-23
1490742900609,20,32,-19,-26,-47,21,-29,-24,13,-28,5,-18,26,-3,15,14
1490742900614,127,-18,-10,-2,-30,-23,-32,-5,-19,39,-17,-24,10,29,47,15
1490742900658,28,-56,-4,26,76,49,92,-5,80,36,14,30,23,-21,-73,41
1490742900706,-82,28,33,-17,-38,-7,-16,-18,-48,5,-27,-6,-5,28,25,10
1490742900755,75,4,-5,-11,-7,-32,-35,-19,-128,-1,-8,-3,-24,15,-6,5
1490742900804,64,-15,-23,-5,-15,-11,-42,-2,49,-8,-10,17,33,-22,10,-9
1490742900852,-31,-11,-8,6,2,-18,40,-19,14,5,2,-9,-3,9,-49,3
1490742900853,-17,-27,-24,-10,-10,25,6,7,-21,-16,-22,-26,-18,-14,-7,-4
1490742900901,-40,10,10,-2,-24,11,-6,4,-45,-28,-10,-14,11,24,-38,-34
1490742900950,0,0,7,-6,-9,-6,-9,-5,-33,-6,-8,-2,-7,21,43,-1
1490742900999,2,7,6,-8,4,6,12,14,-7,-8,-6,-6,1,-27,-44,-34
1490742901047,-10,-8,-19,-14,-11,-31,-83,-26,39,-4,7,14,4,24,28,22
1490742901095,37,7,-4,-3,-7,6,17,-4,0,-13,-11,-12,-9,-16,-10,-1
1490742901097,30,21,6,2,-4,-1,16,-2,-30,3,-12,-14,-17,-17,-27,5
1490742901145,-5,-3,-9,-6,9,9,-3,-10,25,3,13,11,-6,5,30,21
1490742901194,64,-5,-8,-7,-4,17,46,30,-54,-22,-7,5,2,8,-8,-7
1490742901243,39,3,0,-1,-3,10,25,4,-4,-5,3,17,12,21,-13,-6
1490742901291,-19,0,2,-3,0,9,15,-2,-2,-2,0,5,2,-5,24,8
1490742901292,14,-1,-3,-6,-2,-10,-23,-3,19,-6,-9,-1,8,18,24,0
1490742901340,-16,-12,-5,1,6,7,5,-5,51,10,4,4,4,7,-13,6
1490742901389,23,-9,-8,-17,2,15,28,33,59,18,22,5,-2,-7,-5,32
1490742901438,-105,-5,9,14,4,16,-13,-19,-25,0,1,2,11,-3,-12,-7
1490742901486,-50,2,19,13,2,4,-37,-21,36,-18,-17,-13,-17,-6,9,15
1490742901632,-3,-11,-11,-16,-16,-15,-1,-20,-60,5,9,3,-18,-9,-1,-6
1490742901633,41,10,-18,-19,-30,-8,24,4,-5,-24,27,35,52,-63,-97,-26
1490742901635,85,13,-10,30,-7,-11,5,23,-128,-7,47,43,111,43,79,-10
1490742901636,65,19,35,5,75,-49,-69,-19,9,-38,-49,-21,-94,37,43,23
1490742901681,45,31,6,70,44,78,-10,-22,79,24,7,35,48,0,78,76
1490742901730,20,14,9,-80,-119,-128,-69,2,-88,-17,-10,-67,10,50,-62,-87
1490742901778,54,17,17,111,12,-25,117,95,92,-9,-28,-54,-59,-49,29,70
1490742901780,-45,6,12,-14,-42,54,-84,-94,14,13,-11,19,115,-80,-78,-21
1490742901828,60,-50,-29,-52,-40,-50,102,16,41,16,25,66,45,127,75,36
1490742901877,-78,12,45,118,127,71,-62,-26,82,40,76,127,-16,108,73,28
1490742901925,-52,-1,-6,61,108,-11,29,-12,-85,-10,-25,-82,-103,50,60,-43
1490742901973,37,-27,56,43,-3,-101,-68,-32,12,34,-11,60,127,91,60,34
1490742901975,78,49,-14,-48,-88,127,-17,33,99,20,109,127,127,34,49,34
1490742902023,42,-19,-85,-107,-128,-94,57,25,6,-7,-27,-102,-111,4,-92,5
1490742902071,10,21,48,103,127,93,76,58,-128,-13,-25,1,120,-128,-98,-128
1490742902120,-24,9,-30,-40,2,81,-63,-38,-37,-47,9,-77,-116,-128,-128,-128
1490742902168,35,-5,-7,-23,77,-39,61,54,-37,-11,56,116,127,88,-52,-51
1490742902216,85,-72,-14,102,30,-14,-88,-41,-5,-25,-5,105,-3,120,117,56
1490742902218,-42,0,-20,-107,-93,-41,25,17,-9,-36,-41,-128,-128,-90,-59,-29
1490742902266,-3,31,0,127,17,40,61,18,-22,-9,14,-94,-37,-85,-73,-48
1490742902315,-36,30,51,81,127,45,3,12,32,29,50,127,-60,54,52,16
1490742902364,-23,9,35,-47,16,41,40,17,19,14,-17,10,11,11,-6,9
1490742902412,82,-8,2,70,-2,31,24,-15,-8,2,-18,-6,107,58,33,23
1490742902413,-31,-13,-25,-89,-33,-37,-3,9,1,-38,36,69,43,13,-11,-21
1490742902461,11,-41,-15,-82,-84,6,-25,-8,-22,-5,-47,24,-31,-32,-15,-16
1490742902510,-30,18,-25,-23,-3,11,-6,-3,-2,0,14,24,-29,-1,4,5
1490742902558,10,12,60,70,43,12,5,10,41,-14,-41,-36,40,2,-18,-12
1490742902607,-6,-44,-36,6,50,-14,-6,-3,67,1,45,53,-6,11,2,32
1490742902655,-45,16,39,25,-26,-9,-3,-8,2,30,-18,34,75,9,17,-9
1490742902656,-25,-46,-30,-5,38,-3,9,1,47,-3,28,55,80,16,16,20
1490742902705,12,-11,19,48,6,35,25,6,56,-24,-20,5,0,11,14,29
1490742902753,-50,-55,7,62,68,43,18,-16,48,-19,-43,-81,-51,-65,-31,-8
1490742902803,2,33,42,-2,-16,8,15,24,-40,45,-27,-104,-36,-11,-2,-15
1490742902851,-74,-35,-8,21,2,-17,-13,-19,-74,-72,-50,-5,22,5,-5,-20
1490742902899,48,16,39,58,-12,-3,-1,7,37,-25,2,23,1,19,27,19
1490742902901,-105,-36,12,6,-1,-2,-16,-29,114,-59,-42,36,38,17,10,28
1490742902948,-56,-7,9,18,-3,-3,-8,-7,59,-20,-88,-58,-9,0,4,5
1490742902997,12,-56,-65,-59,32,13,7,13,29,-5,22,78,-25,-14,-8,-6
1490742903046,-20,36,5,-48,-35,-12,-12,-14,-8,44,2,-6,14,7,-5,-9
1490742903094,-18,20,1,-20,-1,-8,4,1,-26,-8,44,-17,1,3,6,1
1490742903096,5,-65,51,61,14,-4,2,-4,-7,57,-64,-77,-17,-6,-6,-15
1490742903144,22,-32,6,-1,6,2,-1,4,24,-16,-3,0,-5,11,8,12
1490742903192,-33,-62,-29,-19,-3,0,-2,0,-11,-10,-15,-12,0,-5,-3,-8
1490742903241,8,-1,-16,-12,6,-5,-4,1,-12,30,18,-1,5,6,2,-9
1490742903291,30,-69,-12,3,8,8,-4,-3,-79,9,11,8,3,6,14,9
1490742903338,23,27,20,-4,-12,-12,-8,6,6,-50,-10,-19,7,4,-12,2
1490742903340,33,24,-40,-14,8,8,-30,-36,-60,72,11,22,-16,-35,-23,7
1490742903387,-54,-128,-2,-8,25,5,20,11,52,-52,-29,-21,-31,-39,-23,-2
1490742903436,-29,48,7,-5,-49,-61,-40,-10,6,10,2,-12,8,32,19,28
1490742903485,67,9,8,-6,17,-14,-17,-10,-27,-4,-29,-6,-2,-14,-12,0
1490742903535,-21,40,6,-4,-23,9,12,2,-21,5,-6,-25,-24,-31,-11,14
1490742903582,10,-20,-34,-31,-61,-30,-7,-1,-7,-50,40,24,-20,47,24,-2
1490742903586,76,-5,9,12,35,31,12,19,-71,-59,-9,-10,-39,-23,-23,4
1490742903631,-49,42,9,8,6,16,9,-23,-13,95,-1,17,32,21,12,20
1490742903681,84,-39,6,27,60,43,-9,28,-57,-64,6,15,3,-10,3,-20
1490742903729,-48,-12,-14,-11,-1,-21,-26,-24,83,-11,-1,7,36,15,45,33
1490742903780,-69,88,-11,-15,43,-70,-88,-36,89,-2,-8,12,29,40,15,24
1490742903782,31,-86,5,27,62,18,-12,4,-107,-65,14,31,10,50,90,32
1490742903826,44,-95,-13,-6,10,26,76,61,-17,28,-5,2,-4,-33,-57,-54
1490742903875,-62,-23,8,21,29,-16,46,-17,-85,25,4,-7,-27,-28,-33,-5
1490742903925,-17,-29,-12,15,93,-9,-74,-8,9,11,-6,3,-3,1,45,-21
1490742903972,18,-71,-6,-21,-49,-55,-119,-48,-34,-90,-8,-2,15,21,-28,-14
1490742904021,41,80,2,-21,30,-16,-4,-32,-14,63,1,-3,-90,-47,-89,7
1490742904025,-93,-3,5,17,-23,13,8,15,83,5,0,21,14,24,32,45
1490742904070,26,-3,4,14,-23,4,23,27,25,3,4,-1,-3,10,1,19
1490742904118,-64,37,13,-2,8,-7,32,6,-128,0,9,6,1,38,19,1
1490742904167,-12,-18,7,-3,13,17,-1,-14,-1,2,7,6,10,8,3,16
1490742904216,-2,4,7,8,-9,18,-10,-14,75,-5,7,15,10,13,-9,-18
1490742904264,7,-9,-8,-8,-15,-16,14,17,-38,0,11,4,8,11,6,0
1490742904266,-20,5,4,1,-4,-6,-13,15,-36,-11,-12,-7,-1,0,24,-8
1490742904314,55,-19,2,-2,-4,7,25,17,25,-9,4,2,-2,7,24,21
1490742904362,-49,12,7,4,6,6,10,-7,43,12,-10,-6,-8,-27,-23,-3
1490742904411,28,-3,4,1,-1,-27,-50,-15,73,9,-2,0,-3,-5,-6,-1
1490742904459,77,-20,-21,-6,3,14,-13,-5,-128,15,2,3,3,26,11,18
1490742904461,86,0,-11,-36,-35,-9,43,30,-76,-21,-4,19,28,-6,-8,-45
1490742904509,-68,-16,-6,13,14,-86,-35,-8,-51,-3,12,-13,-2,-32,-33,-29
1490742904557,33,5,12,42,22,-8,-83,2,-16,17,-8,17,-11,14,34,13
1490742904606,10,9,-2,-48,-76,-30,-7,28,36,-13,-18,-31,-33,28,22,2
1490742904655,-98,8,-24,-17,29,46,120,-5,54,20,21,33,-79,-34,32,76
1490742904703,1,4,-9,-73,-111,81,-45,-6,0,61,41,31,94,1,59,14
1490742904752,-92,5,15,61,28,49,80,6,-15,23,-18,37,98,127,105,66
1490742904800,-13,36,-7,77,-18,-1,-128,41,61,34,3,-72,-35,127,127,36
1490742904802,-59,34,48,110,58,26,-81,-49,-17,16,-9,-88,-4,-100,-128,-56
1490742904850,-9,70,14,-103,-108,127,127,24,3,-57,32,64,92,-128,-128,-4
1490742904898,-95,-9,4,-66,-123,-109,-95,-84,107,22,31,33,111,89,59,52
1490742904902,97,15,18,100,121,78,-44,-60,-111,8,6,51,47,-34,80,33
1490742904948,10,66,0,-58,38,2,-10,0,-79,-11,-28,-113,-123,40,-17,19
1490742904996,-112,15,-2,68,-94,50,119,13,127,48,-9,-72,61,66,20,42
1490742905045,-80,-29,45,82,98,62,35,-5,-42,-1,14,36,-60,-109,-66,-21
1490742905094,93,-74,-18,51,106,-2,-24,13,-23,-59,31,-22,-124,-41,13,27
1490742905141,42,-8,36,73,24,94,86,36,24,-43,-48,-11,41,-17,-23,-40
1490742905143,-16,16,84,122,78,-8,31,-18,18,60,43,42,97,91,20,8
1490742905191,3,-33,-34,-113,-128,-118,-74,-34,-63,15,-10,45,66,85,-14,-14
1490742905240,-11,-21,-75,-128,-8,-53,57,-8,-15,-45,39,28,-22,-33,44,12
1490742905289,-18,57,25,60,71,77,48,17,-6,41,-13,-1,85,69,15,-6
1490742905338,-1,-10,-4,19,-14,26,17,-11,-5,1,-37,-3,19,-9,-28,-3
1490742905386,16,94,-15,59,-37,127,48,36,-19,47,63,-117,-128,-108,-5,-17
1490742905389,-11,-128,-11,-54,-53,-75,-40,-20,12,-29,-11,52,-59,3,0,-7
1490742905434,12,98,24,-7,-47,8,0,7,-3,90,21,-21,17,-74,-32,-34
1490742905483,-46,-6,-36,81,59,-12,0,-6,25,-13,-10,-62,49,26,6,3
1490742905533,0,-13,-49,-45,8,-34,-21,-12,23,-44,42,60,-14,1,-5,7
1490742905583,-1,-12,-8,18,31,34,24,8,-6,5,-55,-16,1,-15,-14,-1
1490742905585,10,-25,-8,2,5,11,2,-12,-16,-42,-6,-38,3,3,11,11
1490742905630,-41,4,46,33,-4,10,-3,7,-3,-19,-66,-9,-14,-17,2,-4
1490742905678,97,38,-30,-15,-18,10,6,19,-16,2,-30,-70,-20,4,7,-7
1490742905728,-3,18,-53,-50,13,-7,6,6,-13,-11,5,77,16,-8,-17,-8
1490742905777,26,-60,58,29,8,2,0,-6,-34,63,-11,-25,13,0,12,20
1490742905824,-81,40,-38,-88,-61,-15,2,-6,3,-80,-33,20,2,-4,-7,6
1490742905826,0,-3,-46,-56,9,-16,-17,-8,113,47,26,55,-16,-4,11,36
1490742905877,15,127,123,-25,-41,6,15,8,-7,42,45,76,25,-9,-9,-20
1490742905922,-22,-79,58,45,-4,-14,-6,14,-6,-109,-42,-7,18,17,8,-12
1490742905971,-20,60,51,31,-23,-14,-20,7,-42,-56,-27,5,23,6,0,1
1490742906020,25,77,61,38,-3,4,0,10,-25,-3,3,-37,-8,0,0,-4
1490742906068,-13,-38,-42,38,44,23,15,13,-47,-38,0,-8,-3,-8,-4,6
1490742906070,-36,-56,-13,-33,-10,-1,-10,-18,25,33,-29,-23,-13,13,3,7
1490742906117,-35,-26,5,13,12,-18,-26,-10,3,15,10,1,-5,21,18,2
1490742906166,7,32,2,-5,11,21,7,-1,4,1,-18,-11,2,2,8,3
1490742906215,-59,-21,-8,6,-24,-6,2,-5,54,-31,-6,-22,-2,5,30,56
1490742906263,-7,-56,-5,-20,-9,-8,-2,0,-18,76,-1,10,7,-1,4,-12
1490742906264,-11,19,-25,-11,0,-7,18,12,67,62,12,9,-2,14,-5,0
1490742906312,-37,12,13,15,2,3,-5,-21,34,-21,-24,3,7,4,3,11
1490742906361,7,-34,-4,26,1,1,13,-1,-17,-34,3,-1,-5,-12,-54,-28
1490742906411,58,-10,-49,-32,5,29,22,20,11,-19,37,-2,-11,-1,3,9
1490742906460,-34,28,7,6,7,27,-13,-3,74,2,17,10,-17,-6,26,7
1490742906507,-4,2,-4,-7,25,19,25,10,-34,-5,-7,7,-43,49,-11,-12
1490742906508,12,-15,2,22,8,51,55,8,6,-6,-1,-4,19,0,-24,-13
1490742906556,-31,17,16,5,21,-68,-60,4,-4,-6,6,10,7,79,75,-5
1490742906605,87,-29,0,-13,-13,-24,-107,-13,-92,-15,-17,-3,-38,-18,6,8
1490742906653,-89,-47,-17,-4,-17,34,25,11,70,-53,-1,-2,6,15,-13,28
1490742906702,63,-14,7,8,-39,-39,-33,-35,23,11,7,0,40,66,27,13
1490742906750,-12,4,-5,-17,-42,43,17,8,-34,17,-16,1,43,-54,-21,-17
1490742906752,20,-8,13,-2,-30,-45,-66,-27,-18,-5,1,0,-16,5,37,20
1490742906800,-2,-9,-24,23,39,-25,-50,2,54,26,-1,-13,-12,38,49,26
1490742906849,-24,-20,-18,-42,-73,-115,-97,-32,12,2,13,7,29,105,65,24
1490742906897,34,1,-7,-1,-29,18,39,32,-28,-17,-9,-14,10,16,2,-4
1490742906946,-93,-15,0,-40,-65,-20,-4,-17,-1,4,4,-11,2,15,13,31
1490742906948,-54,-17,1,23,17,-42,-25,1,93,32,25,22,16,-16,-33,33
1490742906994,-78,-4,-10,-6,-13,-32,-15,-21,55,-7,-10,-10,11,11,21,40
1490742907043,32,7,1,4,4,4,-4,-12,-15,-5,-2,2,-11,-7,-4,-15
1490742907092,-79,-15,-14,-20,-6,-15,-19,-10,-15,1,8,4,11,14,-9,-26
1490742907141,34,-1,-3,-7,3,-8,-23,-1,-11,-5,-10,2,5,-3,18,7
1490742907189,-63,-10,-2,3,-3,11,14,10,68,17,4,-1,-6,-16,-13,17
1490742907191,53,0,2,10,5,38,41,28,-22,-8,0,-3,3,-10,-50,-33
1490742907238,24,4,-12,-5,1,-2,-20,-10,-28,7,-2,2,2,-9,-28,-28
1490742907287,-63,-10,5,0,10,8,35,10,-43,1,6,6,7,9,20,5
1490742907336,-6,2,3,-9,4,23,57,29,70,-1,7,2,11,15,-6,13
1490742907433,-68,-28,-20,-4,-10,1,-20,-22,8,10,2,0,-10,-12,-16,6
1490742907435,26,6,1,-9,-11,-11,13,-7,-109,-16,-8,3,-3,-5,-54,-32
1490742907435,-66,8,15,13,12,-29,-77,-42,15,-5,-26,-9,-15,4,92,39
1490742907482,48,-30,-20,-37,-46,22,9,10,-55,22,28,14,10,-17,-25,-3
1490742907531,88,5,-4,-8,24,-50,-49,12,-23,-5,-29,9,-46,16,-8,-4
1490742907580,126,-6,58,38,-1,67,123,119,-73,-41,-26,-11,55,-17,-76,-69
1490742907627,121,10,-11,14,39,24,29,-7,-70,2,24,21,-12,26,-43,13
1490742907629,39,24,1,19,63,-5,-30,20,46,1,1,57,79,42,89,33
1490742907677,-108,-13,-18,-7,53,-3,-79,-70,-23,-13,1,-29,-106,-52,38,-4
1490742907726,-70,15,7,27,-2,-10,-4,14,37,-4,-44,-40,-5,14,-64,-1
1490742907774,-89,-6,-9,-22,23,-114,-70,-87,-45,27,-29,-76,0,62,-46,-24
1490742907823,26,2,21,-89,-32,36,81,14,9,-30,10,36,30,-128,30,-32
1490742907872,55,48,46,92,124,15,127,102,-31,12,15,-4,-20,45,-128,-53
1490742907874,40,-4,-11,-77,-103,-66,-73,-54,-128,-30,-16,-117,26,55,16,-38
1490742907921,-19,-34,-31,8,112,-36,-30,-16,39,16,22,53,-103,95,85,16
1490742907970,84,-20,2,-4,31,28,-6,5,-79,-7,46,104,127,75,-17,5
1490742908019,-54,-46,-35,-43,-128,-128,-128,-83,24,-29,-5,-128,-82,-32,66,57
1490742908069,47,28,68,111,34,88,-43,14,-36,19,-6,35,-63,-82,-84,-89
1490742908070,-16,-44,-54,-11,40,54,105,36,-16,-31,1,57,32,92,80,20
1490742908116,-6,36,-17,66,20,-19,47,19,-21,5,-1,-101,-92,127,55,21
1490742908165,-11,-13,-6,11,-100,-128,-4,-25,6,9,27,46,114,127,127,39
1490742908213,-18,-10,-57,-104,-116,-77,-66,-22,-13,6,3,-121,-128,-97,-99,-41
1490742908262,-6,-17,-21,-66,78,-18,17,8,-30,-4,-33,-32,-36,-100,-80,-59
1490742908311,-3,10,-22,-91,18,-65,-49,-51,25,12,-20,19,51,-25,-37,2
1490742908313,5,19,9,1,127,-77,-93,-16,14,23,-14,9,-56,28,54,24
1490742908360,35,33,61,126,99,27,41,20,-10,8,20,84,3,122,2,-9
1490742908409,13,-17,-21,-51,-86,16,12,14,26,10,37,70,45,55,34,13
1490742908458,3,6,-9,-110,-89,-7,-19,16,13,1,-42,-25,112,-10,5,-1
1490742908506,-12,-12,-14,8,3,-19,0,-12,8,-1,39,90,121,59,10,5
1490742908555,-16,-17,62,113,69,110,51,13,-3,19,-5,-109,-93,-36,-11,-6
1490742908558,3,114,-4,24,109,24,5,1,-10,127,55,42,37,75,29,1
1490742908603,-2,-113,9,-5,-57,-19,-6,4,-3,-71,-34,-102,-85,-74,-35,-7
1490742908652,-41,-17,-36,27,17,18,9,-9,34,11,104,66,79,24,10,21
1490742908701,-16,-52,3,-9,1,4,3,-7,-12,4,-18,36,8,-19,-14,4
1490742908749,-17,-8,74,95,44,32,12,-10,-33,-29,-71,-71,-17,-9,-1,-7
1490742908750,14,18,-41,-6,-21,-27,-10,-1,26,1,-3,-64,-34,-18,3,8
1490742908798,-1,-22,-3,-21,14,24,22,-8,31,53,0,33,-3,-18,-17,2
1490742908847,-54,0,34,12,6,-5,-10,-11,23,-8,24,36,7,9,-9,-10
1490742908896,-12,0,-24,-88,-36,-4,-13,-17,-4,-57,-23,20,22,16,12,9
1490742908944,-122,-58,-10,-38,2,18,-2,2,-7,80,56,23,-11,4,-15,-24
1490742908992,-28,-37,-68,20,17,5,11,9,75,39,42,-17,3,-6,-18,4
1490742908994,18,5,25,-34,2,-2,-2,11,-23,61,-29,-21,-35,-8,-4,-11
1490742909042,25,8,-4,-59,-29,-9,7,8,22,-18,80,43,2,0,-4,2
1490742909091,14,-31,-40,27,5,15,6,6,14,24,-4,1,-21,-6,-6,11
1490742909140,-63,13,13,9,-5,-1,-8,-4,-33,-69,-40,-10,32,-4,-9,-10
1490742909188,-25,-63,-4,-2,23,1,6,14,-2,19,67,5,-26,15,9,2
1490742909237,-1,79,60,-7,-18,-13,-21,-21,12,-47,-46,8,22,18,10,8
1490742909238,-23,-5,-51,6,2,1,-7,-9,24,61,11,-7,-5,0,-2,-3
1490742909286,-1,-2,-24,-10,9,5,10,-6,18,-88,-9,23,-21,-13,-8,22
1490742909335,-17,5,-1,-3,8,13,12,18,-2,-35,11,5,-2,-3,-4,-11
1490742909383,66,-50,-23,-8,7,7,14,16,5,-108,-1,-18,8,7,-1,-2
1490742909433,-26,127,6,6,4,-10,-27,2,-1,-112,-20,1,20,14,13,-19
1490742909434,26,24,-9,-42,-32,-26,-21,-20,-19,127,13,17,7,-27,-15,-9
1490742909482,64,77,51,65,54,-38,-13,5,1,78,21,49,57,18,-7,-24
1490742909531,35,-10,-25,12,-30,0,5,37,-3,-30,-43,-31,-61,-5,-32,-10
1490742909578,-22,14,4,-3,22,-4,27,24,21,29,-10,-27,-45,-33,-29,-19
1490742909627,-38,20,-28,-34,-7,-11,-15,-19,12,40,18,-27,-35,0,3,-2
1490742909675,-33,42,6,5,-30,1,19,-15,-58,-49,-14,-24,-15,-60,-46,-12
1490742909676,12,9,-20,-30,-21,-6,-40,-19,-26,20,18,6,12,8,23,18
1490742909726,28,-21,18,25,49,60,58,38,67,-36,-15,5,8,-15,-35,-21
1490742909775,-24,20,-2,-3,-18,25,34,-2,-33,-10,8,19,21,15,27,9
1490742909822,-4,6,8,10,-45,-69,-70,-41,0,18,-31,-30,-9,31,-42,22
1490742909871,-45,11,2,3,-3,-56,-88,-65,-9,-13,10,-25,-8,-14,26,14
1490742909919,-48,-27,-24,-18,44,20,-1,5,61,-16,-18,5,-20,-68,-12,-3
1490742909921,23,-23,-42,-26,-33,-36,48,-14,-6,47,30,-5,-44,-81,-104,-17
1490742909969,91,20,26,22,21,39,28,38,-85,-43,-10,15,-8,17,21,-14
1490742910017,-24,-33,-18,10,5,29,20,-2,-20,51,11,3,18,-32,26,-4
1490742910066,-112,-6,-5,5,-1,-21,-31,-21,43,-12,-6,-5,0,7,38,-17
1490742910114,92,16,8,-7,-10,4,-22,12,-87,-1,-9,-8,-10,3,-30,-15
1490742910115,-37,2,3,6,11,52,78,5,66,-8,4,-5,-4,1,-10,8
1490742910164,3,16,6,12,-6,-16,32,4,-18,10,4,13,8,-11,-6,11
1490742910213,-74,1,5,5,13,25,27,4,85,-5,-5,15,3,-21,-16,-7
1490742910261,90,14,-5,-25,-16,-10,-5,-1,-56,14,-4,8,6,-7,-9,-21
1490742910310,-18,-5,4,-4,7,7,20,-20,62,1,-7,-3,8,-8,-85,4
1490742910358,-16,-1,12,8,-12,-21,-41,-16,-10,0,-3,-2,-2,7,20,27
1490742910359,-2,-2,-5,0,-2,6,-8,7,45,1,-3,-9,3,-15,-15,4
1490742910407,-10,2,14,16,-17,-23,-54,-16,51,17,17,12,0,9,8,-1
1490742910456,-9,19,-22,-21,-6,-2,27,1,-34,5,-1,2,-7,-12,-5,-26
1490742910505,-42,-20,-14,-5,11,33,48,20,10,-12,-5,7,-7,5,17,10
1490742910553,19,-5,-6,9,-1,-17,-15,-19,-36,-3,0,-1,6,34,-2,18
1490742910555,37,14,-15,-17,-16,10,9,6,-63,-2,-14,-17,-5,-47,-16,-19
1490742910602,-6,-19,-19,-10,-4,26,0,-27,-81,-11,-4,-28,-23,-53,-6,-1
1490742910651,-42,-8,-26,12,-21,-31,-43,-16,-53,8,-20,-52,-66,7,7,-33
1490742910700,-107,-38,-30,-24,-2,-81,-55,-41,18,0,7,5,-26,40,8,-16
1490742910748,116,-3,-5,-24,-10,24,-26,13,-35,-29,13,20,45,18,63,15
1490742910796,-39,28,1,40,105,29,32,-26,61,34,-1,-30,-78,-5,-36,16
1490742910798,-51,-4,16,32,-2,88,84,-15,85,12,-22,-78,-70,-55,21,14
1490742910846,127,14,-4,13,24,62,-9,32,-84,-51,-2,22,100,26,89,8
1490742910895,-79,43,8,109,120,-21,-34,-31,32,25,20,-36,-32,-64,-54,18
1490742910944,104,8,33,22,108,125,124,67,-22,47,21,99,-72,26,-123,-11
1490742910993,86,-23,25,32,-68,-11,85,89,45,37,-6,-89,78,76,-15,18
1490742911043,-37,-48,-63,-36,22,-70,-30,-25,69,-12,20,45,74,75,23,54
1490742911046,-14,8,-2,-42,-80,19,-13,-35,43,-14,-1,-34,37,10,2,28
1490742911089,-21,-19,-30,19,-44,-25,-45,-44,-17,22,29,-13,-102,92,29,-17
1490742911138,-52,3,-13,-14,-28,-87,-19,1,29,14,-13,6,54,58,21,-58
1490742911187,12,-12,35,-8,-15,69,28,-8,71,15,2,72,127,123,23,6
1490742911235,-64,-12,-65,-64,-80,-77,-61,-28,-2,-9,-38,-86,-128,85,38,-3
1490742911236,-2,-9,12,72,126,-86,40,32,-28,26,57,127,48,47,47,-12
1490742911285,5,-28,-18,32,29,-100,-128,-75,-13,22,7,-15,48,127,50,-11
1490742911334,18,-16,17,-82,52,62,71,48,-13,-68,13,72,78,-128,-56,-10
1490742911382,-8,10,55,42,-61,-107,-128,-59,32,27,24,47,127,31,34,5
1490742911431,4,41,39,79,-3,107,58,31,-6,15,-18,-29,51,-75,44,12
1490742911479,17,-15,-34,-10,-128,-78,-33,3,-62,-13,4,-43,-88,-7,-1,-18
1490742911481,15,7,-12,-27,71,31,-40,-1,26,-6,31,45,3,63,74,57
1490742911528,-3,-7,-83,-128,-75,-108,-76,-64,-4,9,6,17,44,91,75,7
1490742911578,11,16,41,78,-2,-61,46,11,-54,-2,-66,-71,-113,-85,-97,-44
1490742911626,47,0,-33,46,76,65,58,28,-24,6,94,127,124,127,0,-16
1490742911675,-13,-6,-43,-124,-128,-119,-63,-34,14,-14,-27,-104,-127,-91,-39,-15
1490742911723,4,-10,-21,-43,-51,-5,-19,-6,36,-9,11,-8,-37,3,8,18
1490742911727,-61,-9,-53,-74,14,38,9,-10,55,19,80,92,20,-19,-10,8
1490742911772,31,23,27,118,64,35,25,0,-68,-32,-39,-6,66,55,29,3
1490742911821,-52,-27,52,73,4,1,6,-10,6,-28,-51,-42,-25,-7,1,10
1490742911870,3,-4,-25,-30,2,-5,-9,1,-26,14,23,21,4,-14,-19,-15
1490742911918,20,-80,-5,76,46,21,26,15,-7,71,20,-56,-27,-15,-17,-17
1490742911922,-7,4,-40,-19,-2,0,14,9,-55,-123,-99,-59,41,7,-23,-25
1490742911968,46,35,64,81,0,-4,-1,13,6,-24,-55,-72,11,7,2,6
1490742912017,30,-57,-21,72,36,-3,-6,3,-20,91,31,-68,-49,-2,1,-25
1490742912065,36,41,-52,-55,17,-4,-4,6,24,-2,14,11,-11,-10,-13,-8
1490742912114,-41,-6,2,6,-2,3,-1,-11,44,-16,-21,17,30,11,25,30
1490742912164,-38,-22,-54,11,2,7,5,5,45,53,36,46,-10,-6,-7,-3
1490742912165,19,42,94,-9,-7,1,23,6,-58,10,-62,-19,6,-2,-10,-28
1490742912211,26,-31,-9,2,-5,4,0,4,-19,-114,57,10,14,8,9,7
1490742912260,-21,33,26,7,3,3,3,13,-59,-101,-70,7,18,2,-6,-20
1490742912309,4,-7,-30,-45,-10,-6,-1,-8,13,39,44,26,5,-4,4,6
1490742912358,7,-22,23,-20,3,2,-7,-14,-16,55,-24,2,-12,2,4,5
1490742912406,8,45,-4,-8,-21,-3,12,-29,49,-5,-16,-1,2,-5,3,15
1490742912407,20,38,-9,-2,2,-14,-9,13,12,20,31,-1,-26,-24,-11,-12
1490742912456,27,104,49,24,12,4,20,15,-39,65,-13,-5,-8,-5,-22,-14
1490742912504,22,-35,21,4,-4,7,-6,7,-66,-44,12,-3,44,10,7,-7
1490742912552,-16,98,-80,-13,-7,-5,-15,-19,-10,110,26,-5,-28,-14,-6,-3
1490742912600,-6,-5,-45,-29,-31,-15,24,18,-35,-16,7,2,-15,-7,0,-4
1490742912604,-70,21,-11,23,17,39,56,30,93,18,-5,8,33,4,14,-6
1490742912649,1,19,-6,15,26,20,-2,-15,41,36,23,8,0,39,15,8
1490742912698,55,26,-18,-7,32,-55,-40,-3,17,-67,-38,-9,-28,-40,-49,-6
1490742912748,-28,-6,-16,-4,35,-14,-39,-9,31,2,1,33,28,2,8,-2
1490742912796,102,-8,12,2,-20,25,73,53,-31,13,-6,-52,-89,15,20,13
1490742912844,-49,-21,15,25,1,6,-1,-19,27,-34,-25,-10,-10,-39,-41,-39
1490742912846,32,5,0,0,-30,-9,-6,9,-6,-66,-4,14,30,-10,47,19
1490742912893,12,5,-1,0,23,-22,-38,-48,88,0,-3,26,22,35,24,56
1490742912942,20,-1,-20,-31,-74,18,32,29,14,41,-4,-52,-17,30,18,-9
1490742912991,14,-97,5,-8,-40,-3,27,30,61,-45,-8,-5,-27,22,46,18
1490742913039,-11,-55,4,-22,9,-36,-52,-21,-15,-55,-5,40,96,6,-7,18
1490742913088,-44,-4,-23,7,0,-3,18,-19,19,16,39,18,-23,-3,-33,12
1490742913090,-17,-5,-25,-47,-30,-45,83,21,-77,-21,-9,-1,-8,33,-41,-32
1490742913137,11,-31,29,14,19,-4,-11,2,-21,-22,-20,-18,16,-11,4,-1
1490742913186,-37,-16,-29,-26,-8,19,1,-16,31,35,5,43,73,5,-24,26
1490742913235,-37,13,-2,-2,-32,-31,-13,-12,-48,0,-4,-14,-17,23,-26,-15
1490742913283,78,24,19,9,13,2,-5,23,-80,-9,0,-10,-12,28,24,11
1490742913284,-109,-11,-9,-20,-7,-16,-36,-13,46,-15,3,4,-5,-12,-5,0
1490742913333,127,-2,-1,4,6,-17,15,38,21,-1,10,9,-7,13,-10,-10
1490742913381,-44,-2,-7,-11,8,30,83,0,-34,-9,-1,0,4,9,-39,-13
1490742913431,108,20,5,-2,-4,-1,-3,5,-1,-17,-7,-3,-11,-2,-19,3
1490742913479,-8,-15,2,3,6,-23,14,2,-26,-2,10,4,-5,-41,-41,-16
1490742913527,66,17,2,-3,11,7,-11,22,-42,-20,-18,-2,7,-7,-31,-24
1490742913530,28,-19,-17,-4,4,24,27,12,1,8,8,21,-6,-4,-15,-2
1490742913576,-55,5,16,8,15,-1,30,6,-3,-1,1,-4,8,-9,-3,-21
1490742913625,-28,-13,-11,-12,-11,-14,-26,-18,-84,-4,1,8,-8,-2,-20,-26
1490742913673,44,-7,-11,-1,-2,13,-16,1,42,0,-9,-3,1,0,20,11
1490742913722,68,-17,-6,-7,-20,-43,-71,-27,-5,-36,-5,3,13,34,116,44
1490742913723,-7,-9,20,8,0,0,33,29,-63,-8,-2,-5,-6,-14,-66,-45
1490742913771,81,7,-6,-11,-5,-11,77,42,-9,9,16,16,45,55,6,36
1490742913820,33,10,11,37,13,29,-51,-27,-32,-26,-26,-62,-34,-2,-32,-4
1490742913869,-54,23,22,42,102,-9,-60,-12,-31,11,4,52,-71,25,93,21
1490742913918,-13,-29,1,4,-7,-17,-24,-27,76,12,18,69,-4,21,27,12
1490742913966,-7,-6,-14,-10,-71,-87,71,28,0,-3,13,15,31,-40,-71,-15
1490742913968,58,-34,-14,-64,-7,0,-31,-14,121,22,-10,52,53,31,33,23
1490742914016,-28,63,14,-42,-70,-1,-15,40,67,17,-27,-74,-29,-8,91,59
1490742914063,19,-12,-5,105,119,127,-22,-26,-10,-19,-16,-17,-44,-80,-47,-21
1490742914112,8,-62,-73,-120,-75,-119,-84,-79,87,-17,28,-11,88,78,-16,-78
1490742914161,5,14,-27,-128,-128,-107,80,84,99,-36,-7,-128,-83,-116,-128,-66
1490742914210,23,-7,11,49,12,-82,-62,-8,-97,-57,-10,-26,-31,-27,-60,-51
1490742914211,-17,23,0,-23,-73,80,93,41,98,46,52,122,98,75,12,13
1490742914260,38,5,-3,-15,87,52,59,69,-53,36,-13,-41,-124,-116,0,-77
1490742914307,78,24,-6,97,127,97,77,-30,47,33,-3,84,-75,17,71,88
1490742914356,-16,21,-40,-100,-83,-45,-54,-77,-31,25,41,-43,26,4,17,18
1490742914404,-79,5,-64,-8,-78,-42,127,41,35,-3,21,-28,-13,-8,-120,-66
1490742914406,2,-13,-40,-49,-82,-53,-14,-4,6,-23,-15,-8,-98,-7,-128,-62
1490742914453,127,-26,-24,32,-14,-25,-43,38,-57,-17,-34,-43,-77,-40,56,26
1490742914502,10,15,-12,-19,-103,35,-33,43,3,8,44,127,127,26,86,7
1490742914551,14,37,1,-48,49,30,81,-31,-28,27,28,101,-10,-3,-16,26
1490742914602,-10,-1,-23,53,-10,127,50,-8,2,27,21,-35,-93,-9,57,22
1490742914648,8,-13,-6,-8,-24,32,125,75,-21,-6,-22,-16,77,-113,-91,-81
1490742914649,15,0,-30,5,-39,8,64,17,1,-4,20,-1,-116,-115,3,-9
1490742914697,-1,11,-32,-92,-64,45,-13,-5,36,-9,-7,89,-58,91,30,14
1490742914746,41,6,24,39,-83,1,51,15,-5,-2,38,6,-70,33,4,3
1490742914795,-28,-21,-33,-64,-71,-107,-128,-69,19,-18,-10,15,51,41,22,12
1490742914844,-27,-11,5,87,91,24,2,-10,-28,-3,46,44,63,7,28,23
1490742914891,-7,7,-37,-119,9,-51,-26,-10,12,8,-4,46,115,20,19,1
1490742914893,9,24,45,91,-120,-7,4,1,3,26,-72,-32,-6,-22,-21,-11
1490742914941,-14,10,18,-50,-44,-47,-14,4,-2,-24,-77,-128,-128,-109,-45,-14
1490742914990,21,-53,-73,-113,-58,-65,-41,-21,-30,-17,-8,59,25,21,-1,-13
1490742915038,13,22,33,-51,-39,-24,-3,1,-28,-8,-40,-84,-58,-20,-9,5
1490742915087,17,-6,-44,-15,18,21,3,3,-61,4,-74,-42,-14,-16,-9,-28
1490742915089,-55,83,91,-3,0,9,18,-1,-46,70,-31,-58,-13,10,11,18
1490742915136,44,37,11,97,15,20,21,28,21,-54,58,-35,-33,-16,-11,-12
1490742915185,9,-4,-32,33,1,16,39,17,38,3,-27,-6,10,-1,-5,-12
1490742915233,-23,-10,-25,1,-20,-11,-23,-11,2,8,-65,-15,-7,11,-1,1
1490742915282,11,12,-89,-70,-24,-7,-4,7,16,2,-21,13,28,15,19,35
1490742915330,-10,-8,-19,-19,14,-14,-2,2,48,27,-39,-49,25,22,31,23
1490742915332,-21,-128,26,22,14,-13,11,16,0,-44,-3,-4,13,-15,-20,-7
1490742915380,-45,6,-21,51,29,1,11,-15,-2,-99,-12,-84,-9,-2,-10,10
1490742915429,81,-61,-9,0,-11,8,5,38,28,55,57,23,-17,5,-4,13
1490742915478,3,50,54,-13,-5,-5,-15,-10,1,9,-40,0,1,17,26,17
1490742915526,19,-58,-72,-11,-14,-13,-7,-10,-27,-35,32,37,28,12,8,-4
1490742915574,6,109,0,6,18,15,13,16,-25,-46,-25,27,5,1,3,-3
1490742915575,-4,91,-31,-30,-19,-16,-8,-5,-27,-11,25,15,-3,6,0,-7
1490742915623,3,42,41,8,5,3,6,11,13,-43,11,10,6,7,10,5
1490742915672,-34,-74,-38,-2,6,13,11,-5,75,27,-20,-13,-8,-3,-3,2
1490742915722,1,2,25,26,22,6,1,-12,-7,9,43,2,-6,2,3,-6
1490742915771,-25,-31,-1,-11,11,9,-5,-3,58,-33,-27,0,14,-3,-5,-10
1490742915776,-36,90,-19,-17,-17,25,34,0,7,14,20,11,16,14,35,24
1490742915818,8,-80,-27,-16,13,-15,-9,21,-75,15,-14,-22,-40,7,-8,-15
1490742915867,54,14,-10,43,10,17,-16,-7,-25,16,9,8,34,19,43,1
1490742915916,25,-14,48,8,12,12,14,-2,-81,35,-1,46,-4,5,-3,-20
1490742915965,-29,47,18,10,-4,19,3,10,-48,72,-7,4,15,7,5,9
1490742916013,45,14,-11,-58,-68,15,16,9,17,7,-13,-52,-34,-48,-3,-16
1490742916015,-10,12,9,33,26,37,108,50,47,-21,15,16,-5,34,20,-6
1490742916062,-13,11,7,16,5,1,-28,0,18,9,1,-7,-62,35,33,17
1490742916111,43,-29,13,0,-8,24,35,22,-5,-11,-11,30,59,19,-20,1
1490742916161,29,-2,0,-1,-5,-47,-47,-11,-55,-14,6,26,30,17,-4,26
1490742916211,-35,40,-10,-3,-79,-91,-40,-14,13,80,6,-8,19,33,2,6
1490742916213,23,-58,-16,13,71,-2,29,10,-74,-9,-8,2,-61,14,74,11
1490742916257,51,-10,1,29,27,-10,-45,-4,9,0,-2,19,39,60,31,18
1490742916306,42,-30,-9,-20,-4,-9,44,39,-76,-53,-42,-35,-14,-73,-80,-41
1490742916355,-12,-112,0,-15,-23,-27,4,-12,27,-88,-42,-22,1,-33,-17,-14
1490742916403,55,69,40,36,-2,-19,-27,-10,-67,-12,11,-4,-19,25,31,17
1490742916453,-24,-13,-13,-55,-23,-44,-32,-3,-7,53,-12,-44,-12,2,52,20
1490742916454,51,15,8,-7,-10,-78,-24,-10,-26,-5,16,-6,4,4,-20,2
1490742916501,-99,7,-3,-13,-27,-11,6,-22,89,1,1,-28,3,13,8,9
1490742916550,10,-8,9,3,-5,-9,-8,13,-66,-7,-6,0,4,15,18,-29
1490742916600,-18,10,-10,-24,2,-7,-16,-1,85,-38,3,6,1,-23,-3,13
1490742916647,50,-2,7,20,9,43,17,-13,-23,5,24,20,8,-17,-25,0
1490742916695,56,-5,-5,-23,-11,-25,-30,22,-55,-6,4,4,2,-12,3,-24
1490742916697,72,-4,4,-4,0,-7,-16,0,2,-9,-12,-2,-4,-2,-31,-8
1490742916745,-23,-8,4,17,-6,-5,38,8,28,-12,0,2,-1,25,8,2
1490742916794,23,7,16,10,-4,0,30,20,26,2,0,1,-1,11,29,18
1490742916842,1,12,1,10,-2,-7,-19,-8,38,28,7,3,3,20,47,45
1490742916890,2,-22,-11,-17,-2,-4,-16,-17,3,-7,-8,3,-5,-8,-7,-13
1490742916891,-34,14,38,36,-12,-22,-45,-3,111,3,-5,-15,-2,-13,7,-16
1490742916939,33,-20,-23,-21,9,55,-27,-3,-105,-21,11,-9,-9,-12,-23,-26
1490742916988,13,1,15,21,-5,7,-79,-42,-13,-9,-7,1,12,10,81,35
1490742917037,-23,-12,9,6,-1,30,8,-19,84,23,-3,13,36,41,19,33
1490742917086,3,-10,-1,-19,-5,-19,-28,6,-70,-28,-7,-1,-46,-30,-29,-8
1490742917136,-15,-7,-2,-16,-88,44,67,30,30,1,-30,-87,-28,4,-26,-1
1490742917140,79,-26,-25,-3,74,-21,32,27,73,38,30,46,9,27,5,43
1490742917184,-125,19,-14,52,127,8,-42,-36,127,61,14,76,-66,20,-41,-47
1490742917232,-39,0,0,-25,81,73,127,2,-13,-64,-27,-19,25,-128,-128,-86
1490742917281,-6,22,-4,92,83,100,127,50,-93,-12,28,33,-47,-128,-109,-74
1490742917330,-35,61,39,84,-39,112,12,11,41,-22,22,127,127,-96,-104,-75
1490742917380,112,-2,-49,-128,-128,47,-114,-24,-12,-36,25,5,51,15,106,56
1490742917383,127,12,-16,65,127,121,127,49,-80,6,-42,33,-57,-36,-55,-39
1490742917427,-55,-2,9,-13,-37,43,30,-89,15,22,9,-51,5,122,58,34
1490742917481,78,-19,5,-34,-86,-128,-128,22,3,-20,-1,92,127,43,-35,-34
1490742917525,-63,21,10,-35,70,122,127,60,5,4,17,17,-16,-45,-30,-7
1490742917573,-32,-13,12,-33,-44,-110,-128,-69,-128,-17,-60,-79,98,27,127,31
1490742917574,-4,-4,7,127,95,83,122,25,-1,-4,2,-55,-58,-101,-94,-38
1490742917622,-11,-6,-5,25,33,-29,-65,-3,6,32,33,127,127,3,66,9
1490742917671,14,20,26,85,29,-13,49,10,-42,13,-31,-70,-120,112,36,62
1490742917720,80,19,-1,-23,-99,-73,127,46,3,57,-6,1,127,122,6,29
1490742917768,-30,18,39,81,-24,-17,-64,-12,67,-39,-101,-96,-111,-123,74,27
1490742917816,19,-8,19,-85,-59,2,-33,35,3,24,-51,-65,62,64,13,16
1490742917818,-4,28,-43,-79,-128,-128,-19,14,17,28,17,-31,-67,66,1,11
1490742917866,-10,-7,31,9,96,75,2,6,-1,27,39,51,83,101,40,-1
1490742917915,-26,-25,0,19,91,-41,-28,4,26,-2,13,55,-56,-57,-22,11
1490742917963,23,-49,-79,-20,-95,-114,-23,-5,8,-26,35,69,-112,87,27,1
1490742918013,14,-19,25,13,-14,97,62,44,15,-51,-16,-5,-105,-19,3,-19
1490742918062,22,101,72,31,-49,48,33,35,16,50,-43,-79,-25,-21,-3,-9
1490742918065,-11,17,-49,10,127,4,-1,-8,0,27,20,0,68,-23,-4,8
1490742918110,28,45,110,110,122,38,9,9,-45,-90,3,87,-10,85,20,-5
1490742918159,-4,114,-3,-66,-3,18,2,9,-3,-31,45,47,-57,-5,-18,-14
1490742918207,25,77,6,-39,-51,-19,3,17,-14,94,-78,-102,-5,-47,-12,-10
1490742918255,-12,-32,11,-79,-15,-61,-24,-9,-6,20,-14,-2,38,-3,-3,5
1490742918257,-7,-60,-53,65,58,31,-10,-22,2,-64,-25,-10,-28,20,13,5
1490742918305,-31,22,50,14,18,33,29,23,28,-13,63,-22,-43,-6,-24,-19
1490742918353,-67,-7,0,-28,24,-8,-12,-18,73,69,65,38,-42,-13,-12,6
1490742918402,-13,-39,-35,-21,-8,-14,-25,-24,-81,-31,-21,2,28,11,17,10
1490742918451,-20,-8,-53,-112,-20,-14,-13,-12,87,86,64,42,-27,-33,-13,-21
1490742918499,26,6,-75,-36,13,20,2,-5,-24,40,63,13,-18,-11,-10,-3
1490742918501,-67,-53,-45,51,34,39,36,22,26,63,1,-42,8,7,-25,1
1490742918548,-1,79,42,55,-8,-14,-4,12,12,-115,-20,29,20,4,14,-1
1490742918597,24,-86,-20,-46,7,6,11,4,1,50,51,40,-14,-4,-15,-21
1490742918646,40,-5,100,91,-4,-16,-9,3,-2,1,-101,-1,23,15,14,-3
1490742918695,-7,74,53,37,-10,-18,-25,-12,25,-29,-60,-77,9,7,-10,-1
1490742918743,-47,-118,-11,-22,28,23,1,-10,2,30,10,90,-2,-4,-4,-11
1490742918745,72,-32,-60,-28,14,8,9,13,-29,-27,17,21,5,26,8,-9
1490742918792,13,97,68,21,-32,-4,2,-4,-7,-33,-104,-21,8,-7,-10,-1
1490742918842,-44,9,-92,-38,8,7,1,-7,8,-20,35,2,-5,-2,-2,1
1490742918890,29,-51,-20,-13,1,3,5,12,-42,68,-4,-35,-14,-8,-12,-11
1490742918938,-9,26,57,24,12,4,6,17,11,44,-13,-1,-5,-5,-9,-11
1490742918939,14,-16,1,-4,3,-1,-8,-13,-31,-56,34,37,1,-1,12,0
1490742918987,32,-47,-37,-8,12,37,26,20,-24,-45,-2,-49,-8,-7,-16,-10
1490742919036,31,34,6,-4,-13,-20,-3,13,3,11,2,19,-15,-10,-4,2
1490742919133,5,69,7,-30,0,2,-8,-14,3,62,4,23,29,-18,-20,14
1490742919135,-50,52,-12,-5,-9,-22,-71,-22,25,-1,0,-12,-66,6,-45,-8
1490742919181,15,-83,-22,-34,86,-70,-38,-25,-14,-88,-36,-47,-39,-57,-5,17
1490742919182,1,23,9,-58,-71,31,6,13,-61,21,18,5,89,34,-10,-54
1490742919231,-70,6,54,76,28,27,40,9,31,-51,13,69,-41,5,-21,2
1490742919279,57,21,-12,-50,-42,3,-1,5,8,9,-14,-20,-13,8,11,2
1490742919329,34,21,48,45,46,61,77,34,-15,-17,-1,42,98,9,-24,-6
1490742919378,-40,-53,-31,-59,-100,-41,-30,-18,29,-50,-2,-43,-51,-26,13,28
1490742919383,0,-25,3,26,127,44,56,17,59,7,-3,-8,-67,27,-16,11
1490742919426,12,72,27,96,127,12,-34,13,-16,10,11,75,106,100,22,5
1490742919475,-94,5,32,19,20,-23,0,-20,127,11,16,17,-16,-40,-34,5
1490742919523,-56,-54,-37,-87,-66,-64,-41,-20,-62,-14,9,-2,-31,-48,-24,2
1490742919572,18,-25,-24,19,20,-45,-56,-33,1,-33,-17,8,10,-37,51,18
1490742919621,67,62,26,82,118,43,20,10,11,50,-13,-8,-53,-52,-10,-24
1490742919624,-74,-22,-2,-34,-32,83,26,10,12,9,40,36,44,-46,-36,-3
1490742919670,-35,-18,30,15,-72,-4,-8,-19,-83,-22,-21,-47,-24,-60,-21,-23
1490742919719,43,-18,-14,1,8,-7,7,-1,-77,29,2,-1,-11,13,-18,-15
1490742919767,99,-42,-7,-1,-8,-36,-14,6,-25,6,-1,0,0,16,48,21
1490742919816,39,20,6,7,-1,1,56,53,50,-6,-20,-34,-35,-66,-86,-55
1490742919864,-71,-21,2,16,5,22,-11,-32,117,27,10,5,12,8,-6,29
1490742919866,-17,6,6,19,7,-11,-19,3,-72,-1,6,3,-3,5,8,-27
1490742919913,40,15,10,-12,-1,2,17,20,10,-20,0,9,9,38,55,14
1490742919962,-54,-12,-3,14,14,18,-14,6,68,-17,-20,-2,9,2,11,14
1490742920011,41,-2,-6,-8,-3,14,19,0,8,-10,0,6,-6,-7,-14,22
1490742920059,54,-8,3,-6,5,11,-7,27,-25,-18,-17,-5,2,1,29,-5
1490742920060,-22,18,12,3,-8,-15,-6,-8,3,0,-4,-7,-9,1,-1,-9
1490742920108,-70,-5,-4,4,3,14,22,-1,92,-3,12,-2,0,5,2,2
1490742920157,29,-17,-6,-4,5,11,53,27,65,-16,-17,-5,-8,-22,-42,-3
1490742920206,13,2,11,5,4,0,3,21,-36,-2,-17,-19,-9,-34,-11,-8
1490742920255,89,-7,-14,-1,0,17,10,3,-121,13,-4,-23,-14,51,17,-50
1490742920304,7,-11,14,-1,13,-51,-59,-63,-60,41,13,26,9,46,17,55
1490742920305,-31,19,25,31,23,33,79,6,1,17,25,44,-15,-22,19,4
1490742920352,49,25,25,-3,-35,-12,-24,-2,72,-2,17,45,55,55,-4,1
1490742920401,62,-26,17,47,-20,36,-37,6,-64,-3,-4,19,52,-80,24,-13
1490742920450,72,19,38,67,97,79,-11,14,-6,20,30,103,83,80,69,0
1490742920498,27,-6,-28,-74,-57,21,51,57,42,94,32,1,47,33,-6,-7
1490742920546,14,-27,-5,-78,-63,-64,-111,-89,-98,-10,-26,-35,65,-45,-90,-81
1490742920548,-71,23,-50,-50,-15,38,90,32,-108,-23,-24,-80,-106,-38,41,-15
1490742920596,120,-57,2,41,1,7,-64,11,-23,21,19,0,-30,-12,127,77
1490742920644,120,26,-23,-128,-128,-57,-13,52,-63,17,74,64,-5,127,77,63
1490742920693,-58,28,-9,47,124,-29,-71,-55,70,-24,-28,-128,-56,-5,-74,-74
1490742920742,11,-29,11,119,77,-15,-107,-16,-74,22,23,71,-7,47,79,30
1490742920743,66,52,21,106,90,30,10,83,127,-20,-4,-22,-108,75,127,105
1490742920791,-96,4,-54,-116,-128,7,50,17,-68,-12,0,8,-29,-126,-116,-67
1490742920840,81,-4,17,9,113,80,21,-30,87,-24,3,20,-27,-45,23,-6
1490742920888,111,-31,46,7,-109,-36,10,65,2,32,-7,-3,127,80,90,8
1490742920939,-58,9,-31,54,127,107,85,58,35,6,-14,-65,-128,-67,26,-4
1490742920985,80,-26,25,8,-23,-114,29,-3,-31,19,-17,44,24,8,-22,-28
1490742920987,43,-23,72,-89,-5,-19,28,28,-60,42,-71,107,18,-43,19,2
1490742921035,24,3,32,99,90,-103,-54,-46,-21,-42,-20,-66,45,127,31,5
1490742921083,0,7,-14,12,-104,-75,-39,-17,31,22,14,19,-42,31,-6,12
1490742921132,3,-26,-30,-24,73,81,43,15,-46,-5,72,93,-37,-9,-27,9
1490742921181,-15,8,33,-52,-66,7,-15,13,10,-35,-16,-42,-94,33,-3,-15
1490742921233,-25,-8,-66,-101,-128,46,-32,-12,-3,7,46,97,52,-100,-44,-31
1490742921234,11,15,60,127,-79,24,-66,-14,-5,-33,-91,-39,77,67,72,22
1490742921279,-11,-22,-29,43,-15,-43,-20,-31,22,-29,50,-37,57,54,-14,17
1490742921327,-20,-14,-49,-57,23,-91,-68,-31,17,5,55,61,-50,34,10,17
1490742921376,-33,5,-33,-49,-87,-36,-84,-68,-23,-21,-75,-88,-128,-50,18,-3
1490742921424,0,-32,6,91,79,114,60,21,-21,-30,-47,-75,-117,-63,-8,1
1490742921425,-24,12,-100,-59,-8,-80,-10,-7,7,55,110,116,42,-4,-2,7
1490742921473,78,-30,4,70,69,62,40,37,-3,5,62,81,25,66,18,13
1490742921522,-17,-44,39,88,28,22,1,2,-15,-59,0,79,127,108,33,19
1490742921571,10,-16,10,-33,37,-38,-6,-4,-4,27,4,-22,-71,-26,-18,-8
1490742921620,15,1,25,49,34,-3,18,18,20,35,25,-68,-110,-10,-1,-3
1490742921668,44,0,37,5,38,51,29,24,-23,4,-20,-15,-35,-28,-12,-10
1490742921669,-37,-43,-18,33,19,57,8,-18,5,-21,-25,-94,-94,-51,-22,-7
1490742921717,-33,41,8,-57,-103,-54,-25,-12,-12,-6,-35,-18,1,-22,5,-4
1490742921766,-2,-20,-36,-118,-18,14,11,9,-4,-3,49,83,12,6,6,10
1490742921815,-70,-52,32,78,-8,-8,-20,-8,29,15,88,98,2,2,3,6
1490742921863,21,12,-60,-45,-16,20,11,-6,14,5,-63,28,16,3,-4,6
1490742921864,2,36,5,4,-11,-13,-7,-1,3,-41,-75,-36,9,-1,-6,-3
1490742921913,45,94,52,-13,-35,-1,42,14,-1,-7,-67,-28,20,17,14,23
1490742921961,-34,-71,-10,39,45,8,7,-2,-22,49,-20,-55,-49,-17,-4,-15
1490742922009,17,-124,44,29,-2,16,36,18,68,115,19,44,-21,-11,-12,30
1490742922059,-20,-34,-64,-45,15,-8,-16,-15,-20,-33,21,85,17,13,31,7
1490742922106,4,42,-38,-60,-3,4,26,38,21,-66,20,-21,-4,-9,-26,-19
1490742922108,58,57,22,33,-17,7,-13,3,-70,38,-22,-32,6,8,7,-13
1490742922156,42,-17,102,-30,-39,-2,10,9,15,-28,-42,15,23,0,-2,8
1490742922205,-8,-26,-51,-47,4,-2,-13,-13,2,30,54,13,-20,-13,-6,-6
1490742922260,-8,53,-81,-54,-13,-1,-3,8,28,-69,-36,41,8,5,7,6
1490742922302,-4,31,66,32,0,-1,2,10,25,33,-19,-48,-8,-12,-13,6
1490742922350,42,-26,-47,-27,-11,1,2,5,21,-16,34,22,5,-7,-3,7
1490742922351,6,-42,-70,-40,8,2,7,4,-10,-52,-8,1,6,2,0,-13
1490742922399,-51,22,5,18,-2,-1,-1,3,56,15,-1,-12,1,-1,8,12
1490742922448,-46,-13,-47,0,-3,4,-7,-4,8,20,-31,-7,4,-11,-11,0
1490742922497,47,-92,-41,-38,3,-3,-9,4,-96,-54,2,-23,-14,-8,1,-20
1490742922545,-2,47,6,24,29,9,5,-6,-3,72,-1,20,18,-4,-7,8
1490742922547,-22,15,1,-3,4,5,10,5,-2,28,6,6,8,7,-2,-12
1490742922596,22,54,20,8,14,0,-13,-8,5,-32,-26,15,35,41,30,5
1490742922644,45,47,12,31,34,33,31,26,-15,1,6,10,-8,-3,5,-3
1490742922692,0,33,32,8,3,-54,18,-2,9,37,-33,-37,-62,-25,-28,4
1490742922740,30,-10,-19,2,-19,30,14,-3,-63,-5,13,5,25,-1,3,6
1490742922788,-32,-16,9,13,20,49,56,10,-23,-82,21,29,40,-10,-14,-19
1490742922791,-11,-19,0,14,-10,10,-44,-18,99,18,7,-34,-84,-40,53,51
