1491694003748,0,-39,-48,8,77,-79,13,-28,-22
1491694003748,0,-18,-18,106,95,-19,-88,-32,-14
1491694003750,1,2,-11,-84,-39,24,83,19,-18
1491694003750,1,4,-11,15,-31,-77,-60,1,38
1491694003751,2,11,29,-23,-128,83,-74,32,11
1491694003751,2,4,10,-16,63,29,117,22,-8
1491694003780,3,5,27,51,107,88,-95,-45,-9
1491694003780,3,-3,4,-22,-54,-50,127,49,-15
1491694003781,0,-18,-60,-38,-32,-92,37,-31,15
1491694003781,0,0,1,-20,-33,-62,-128,-64,-7
1491694003782,1,-7,-18,-13,-9,63,75,15,26
1491694003782,1,12,44,8,17,125,127,33,-33
1491694003815,2,21,38,34,14,20,-71,-66,15
1491694003815,2,13,30,71,7,115,101,89,12
1491694003815,3,-7,-6,-27,-52,-88,4,7,-5
1491694003815,3,-25,-56,-83,-33,-96,-5,41,9
1491694003816,0,-4,-38,-25,-51,-35,-14,-70,-28
1491694003816,0,-3,-1,14,11,110,88,48,7
1491694003845,1,25,51,23,-42,24,-18,-6,-3
1491694003845,1,-13,1,15,19,-85,-102,-40,2
1491694003847,2,-1,1,-1,7,74,72,21,-11
1491694003847,2,6,-14,-29,-12,16,-4,-16,19
1491694003851,3,-8,-11,20,-31,17,67,34,-8
1491694003851,3,24,55,93,101,127,-10,9,9
1491694003879,0,5,5,-82,33,-56,-104,-36,10
1491694003879,0,-19,-57,-97,-128,-128,-71,-42,-13
1491694003880,1,-11,-30,0,-3,-22,-14,-34,8
1491694003880,1,6,-4,56,34,88,9,-26,-6
1491694003881,2,3,35,31,13,13,79,88,-4
1491694003881,2,8,41,33,16,110,85,-12,-1
1491694003910,3,-14,-17,-38,37,-122,-119,-3,-1
1491694003910,3,-18,-56,-39,-84,-53,42,-47,-16
1491694003911,0,15,12,48,61,104,-3,9,1
1491694003911,0,-13,-21,-62,-77,-42,25,-13,-18
1491694003913,1,6,15,53,33,111,71,-6,7
1491694003913,1,8,33,6,105,-77,-128,-58,-13
1491694003913,2,-24,-33,-40,27,56,115,79,-5
1491694003913,2,3,-4,12,-23,-64,-73,32,17
1491694003943,3,1,15,29,82,56,-100,-36,6
1491694003943,3,5,1,-104,-128,-93,72,-4,4
1491694003944,0,-8,-39,-56,-26,-90,-46,-58,3
1491694003944,0,-16,-20,0,53,93,87,-14,-24
1491694003945,1,13,10,49,34,23,112,70,16
1491694003945,1,18,58,96,-29,127,28,8,3
1491694003975,2,3,29,-1,32,-95,-40,32,-7
1491694003975,2,-10,-60,-118,-93,-128,37,76,14
1491694003977,3,-3,-4,-48,-122,21,-120,-87,-25
1491694003977,3,-4,-22,1,55,127,127,101,-2
1491694003978,0,21,52,105,84,61,17,74,-1
1491694003978,0,3,7,-73,-60,55,-12,-33,-2
1491694004008,1,-6,-12,29,20,-61,108,18,-12
1491694004008,1,-4,-29,-40,9,-113,-128,-8,57
1491694004009,2,9,29,126,85,127,94,68,-28
1491694004009,2,48,117,63,87,75,72,77,14
1491694004010,3,-31,-82,-125,-69,-128,-106,-10,-7
1491694004010,3,-10,-53,-21,-71,101,-21,-46,-15
1491694004040,0,-1,60,-2,-35,2,-105,-103,4
1491694004040,0,-20,-53,20,-2,29,0,19,-17
1491694004042,1,7,-35,21,14,39,104,44,5
1491694004042,1,13,87,23,35,-27,13,36,-7
1491694004043,2,-20,-54,-40,-63,-30,77,-54,-16
1491694004043,2,2,44,4,20,-35,-92,-71,-2
1491694004044,3,26,115,10,-1,10,67,-5,8
1491694004044,3,-24,-75,-17,8,-34,82,-19,-24
1491694004073,0,-14,-58,-44,-47,-38,17,-53,5
1491694004073,0,-3,11,15,2,-31,-11,3,2
1491694004077,1,0,-42,-20,3,28,21,20,-13
1491694004077,1,4,15,-9,-13,-22,12,-13,-2
1491694004105,2,-6,-29,-8,-15,-52,-47,4,2
1491694004105,2,-13,-1,-1,12,-6,37,-20,1
1491694004107,3,-15,-40,0,1,1,32,12,-1
1491694004107,3,26,82,19,22,116,83,-14,-9
1491694004108,0,3,-17,-3,-14,25,-63,-6,35
1491694004108,0,-2,-29,-13,46,-27,-28,-17,-3
1491694004109,1,0,29,5,4,37,-54,-33,-6
1491694004109,1,4,-39,26,24,-56,-64,-48,5
1491694004137,2,3,24,-10,-23,-16,45,40,7
1491694004137,2,-15,-37,-21,-52,18,17,-23,-14
1491694004170,3,-7,20,13,8,-46,-64,-34,-8
1491694004170,3,-13,-34,10,19,99,71,12,-12
1491694004172,0,-17,-24,12,-8,-26,-17,-94,-26
1491694004172,0,22,40,36,31,98,59,62,56
1491694004173,1,10,18,21,14,72,85,44,6
1491694004173,1,-20,-38,-82,-14,-15,10,39,-19
1491694004174,2,-5,-24,-5,33,-15,0,-24,9
1491694004174,2,-6,-5,11,-22,-66,-100,-37,-2
1491694004202,3,-16,-53,-34,-90,18,16,-26,-11
1491694004202,3,16,78,82,54,23,18,127,33
1491694004204,0,6,-13,-128,-106,-85,-14,17,3
1491694004204,0,14,31,86,87,97,16,-89,5
1491694004205,1,1,20,-2,76,-37,63,-51,3
1491694004205,1,-18,-52,-14,-90,37,-22,70,36
1491694004206,2,7,4,34,117,80,94,127,24
1491694004206,2,15,-2,-31,-99,-9,50,-37,-10
1491694004235,3,0,34,120,61,127,0,-43,-14
1491694004235,3,-5,-28,-102,-40,-31,25,-128,-12
1491694004237,0,12,21,23,-14,-17,63,-73,-18
1491694004237,0,-28,-47,-29,52,8,80,107,28
1491694004238,1,-2,-21,-4,-11,-46,-123,50,22
1491694004238,1,20,50,98,-8,29,11,-38,8
1491694004239,2,0,35,31,53,2,-5,20,-8
1491694004239,2,7,-29,-90,-39,-90,24,-6,-22
1491694004267,3,-2,-9,43,-62,16,-60,13,28
1491694004267,3,-14,-13,-84,-15,-104,-42,-33,-39
1491694004269,0,-13,-10,-31,61,7,-36,-21,-3
1491694004269,0,-10,-21,16,-75,-125,-31,-30,-28
1491694004270,1,2,12,-40,16,-105,-35,11,17
1491694004270,1,-8,-15,-6,-39,-10,-43,-26,-26
1491694004300,2,29,46,53,3,103,69,34,-2
1491694004300,2,-21,-48,-18,4,-101,-27,-22,-30
1491694004302,3,4,30,-34,-39,-45,127,101,8
1491694004302,3,12,23,28,-2,-10,44,-40,10
1491694004303,0,-2,-1,22,67,94,-33,38,1
1491694004303,0,5,-11,-70,-16,-31,-38,23,12
1491694004304,1,-9,-46,-84,-115,17,29,-63,-31
1491694004304,1,-3,-15,32,127,54,-60,-66,-23
1491694004333,2,-2,34,8,-126,-73,59,28,1
1491694004333,2,5,14,28,103,-1,-35,-10,4
1491694004334,3,-8,-6,-22,-36,-36,-85,47,4
1491694004334,3,-10,-15,48,63,33,-78,9,9
1491694004336,0,-3,-16,-83,-109,74,112,19,9
1491694004336,0,-5,15,23,-39,-39,-77,-1,-22
1491694004365,1,3,7,24,94,-50,-12,-26,4
1491694004365,1,-1,-10,-34,-67,8,102,5,3
1491694004366,2,-2,8,44,62,-19,-47,50,7
1491694004366,2,4,29,-49,-63,-9,-1,18,-5
1491694004368,3,-5,-53,23,67,-56,-47,-52,-14
1491694004368,3,-1,-10,4,-33,61,127,69,-1
1491694004398,0,16,23,41,27,-34,-128,-18,6
1491694004398,0,2,18,-4,19,127,94,-22,5
1491694004430,1,-7,13,0,-69,-24,10,-61,-14
1491694004430,1,-11,-17,-56,-19,-101,53,-3,-28
1491694004432,2,-18,-50,-47,-128,57,-78,-18,-15
1491694004432,2,-4,13,57,127,80,19,26,3
1491694004434,3,7,36,34,-26,124,38,-5,-10
1491694004434,3,-8,0,-19,72,-116,-35,78,9
1491694004435,0,-10,-15,-25,-10,-37,-87,-46,-18
1491694004435,0,-3,1,37,-38,104,113,-2,2
1491694004495,1,-6,-8,-30,104,-100,-15,-5,-12
1491694004495,1,-4,-7,-25,-27,21,-67,-42,-2
1491694004499,2,11,13,26,7,-36,62,24,2
1491694004499,2,6,26,-12,-11,-17,43,-27,3
1491694004500,3,3,-3,35,61,108,61,65,19
1491694004500,3,2,6,3,17,5,-85,13,14
1491694004501,0,-7,-17,-83,-30,-105,-33,22,4
1491694004501,0,-3,-5,51,-28,-10,-111,-95,-31
1491694004527,1,2,-16,-84,-119,-31,-12,-35,-11
1491694004527,1,3,0,18,-13,-88,-118,-59,-1
1491694004530,2,6,12,48,70,51,127,65,27
1491694004530,2,-1,-12,-47,-33,-19,-77,24,-4
1491694004531,3,0,-6,41,67,55,50,22,-9
1491694004531,3,5,26,13,-102,-8,66,16,6
1491694004532,1,-8,-22,2,23,31,-26,-33,-23
1491694004532,1,3,-4,-36,-5,33,103,48,0
1491694004593,2,-2,-13,-4,-2,-20,34,-12,-3
1491694004593,2,6,3,10,2,73,-52,-47,22
1491694004594,3,-5,-3,20,13,17,16,14,-8
1491694004594,3,21,45,33,5,23,97,25,12
1491694004595,0,4,19,-13,104,4,33,20,-9
1491694004595,0,-20,-54,-43,-104,-117,54,-14,5
1491694004596,1,-1,-8,-34,11,79,-7,-34,-7
1491694004596,1,-21,-21,10,59,24,60,18,13
1491694004625,2,29,42,44,1,-1,-37,-24,18
1491694004625,2,2,19,22,89,94,81,52,-14
1491694004627,3,-2,1,15,11,-30,-84,-20,23
1491694004627,3,-8,-4,-24,39,-79,-97,-30,-14
1491694004628,0,-25,-35,-20,-78,27,53,18,-13
1491694004628,0,-14,-68,-16,5,-64,-70,-41,-17
1491694004628,3,-3,-45,-46,-99,-71,81,-11,32
1491694004628,3,-14,-57,50,105,116,26,50,-66
1491694004658,0,12,42,-14,-12,-73,99,40,11
1491694004658,0,2,0,-5,-54,-38,-53,11,13
1491694004660,1,0,9,16,1,45,40,-48,-21
1491694004660,1,-17,-56,-46,-79,-35,-74,-23,41
1491694004660,2,14,59,71,8,75,15,83,-19
1491694004660,2,-6,-38,26,82,74,-128,-35,-17
1491694004662,3,-12,5,-86,-59,-108,61,1,-6
1491694004662,3,7,24,2,-60,-30,61,-19,12
1491694004722,0,-9,-66,0,20,-16,-110,-85,-4
1491694004722,0,9,19,19,-9,45,127,20,10
1491694004755,1,-2,-6,21,58,53,-86,20,-10
1491694004755,1,-12,-58,-13,3,-17,-46,32,-26
1491694004756,2,20,70,1,-57,-40,-71,-5,19
1491694004756,2,3,-1,-4,5,40,0,0,0
1491694004758,3,-9,-37,-23,-15,-80,7,-25,-25
1491694004758,3,1,32,36,31,87,-13,-4,-14
1491694004759,0,-3,-63,-29,34,5,87,4,5
1491694004759,0,-9,7,-12,-23,-31,7,-50,-5
1491694004787,1,16,40,25,-39,21,-39,-26,-10
1491694004787,1,2,5,-13,31,-19,75,53,24
1491694004789,0,-17,-8,12,3,116,18,-3,-33
1491694004789,0,-11,12,-4,20,-60,-97,79,24
1491694004791,3,14,-5,-76,-68,-128,-77,65,44
1491694004791,3,-4,-16,-16,-27,127,109,3,6
1491694004792,0,12,16,9,-27,39,72,13,-7
1491694004792,0,-17,-33,-24,4,-70,-26,5,-18
1491694004820,1,-4,0,30,11,-10,-75,-81,-26
1491694004820,1,-3,-4,-15,12,-9,-79,-1,-3
1491694004822,2,8,-3,9,37,51,-65,-49,25
1491694004822,2,9,40,50,44,57,119,75,-19
1491694004823,3,14,10,-21,-37,-75,-16,-41,19
1491694004823,3,2,-18,12,6,-10,23,49,53
1491694004824,0,-39,-25,-17,-34,-30,-10,-6,-40
1491694004824,0,33,8,22,16,-18,63,19,23
1491694004853,1,-23,-30,-57,-31,14,-76,-44,-19
1491694004853,1,7,27,37,33,-45,79,-29,-21
1491694004853,2,18,-1,-10,15,9,-59,14,25
1491694004853,2,0,32,-7,-1,-43,-43,55,-2
1491694004854,3,-7,-38,13,-66,-76,72,-9,-5
1491694004854,3,20,6,6,27,80,-12,-17,-24
1491694004855,0,-16,-24,-3,4,57,95,23,2
1491694004855,0,7,12,29,46,32,-84,2,-8
1491694004885,1,-10,15,-17,-6,-1,30,25,-6
1491694004885,1,-12,-6,-36,-73,-128,-124,-20,9
1491694004886,2,27,-4,10,-6,23,93,11,13
1491694004886,2,3,20,56,78,123,13,-17,2
1491694004887,3,10,22,-17,19,-76,66,65,-1
1491694004887,3,-21,-36,-49,-69,-80,-91,-1,10
1491694004950,0,-18,-5,44,26,41,58,10,-25
1491694004950,0,-9,-17,-64,-71,-80,8,15,22
1491694004951,1,7,11,35,71,87,57,-23,0
1491694004951,1,-2,26,2,-24,39,-10,-35,-15
1491694004982,2,8,5,5,11,-28,34,34,0
1491694004982,2,4,4,-4,-58,77,27,6,-5
1491694004983,3,23,-2,17,81,-18,7,23,18
1491694004983,3,6,7,-2,-16,33,102,-45,20
1491694004984,0,-7,9,5,39,-32,-128,34,8
1491694004984,0,-14,-26,-30,-82,-42,57,-11,-24
1491694004985,1,-3,10,-16,-22,42,-38,-15,-12
1491694004985,1,-8,-12,-8,0,-29,31,17,-6
1491694005015,2,0,-4,-8,0,-1,9,-51,-11
1491694005015,2,10,0,-13,58,-15,46,15,12
1491694005016,3,-18,-17,8,4,106,66,-14,-29
1491694005016,3,-3,11,5,12,-68,-85,31,0
1491694005017,0,16,3,-2,-28,37,11,-30,18
1491694005017,0,-16,-9,-30,-23,5,69,9,-38
1491694005018,2,-15,8,-9,-76,-5,-54,2,-7
1491694005018,2,-11,1,4,47,-9,-50,-49,-3
1491694005048,3,6,-5,0,-14,-34,-63,8,-6
1491694005048,3,7,-11,-15,-24,-38,-21,18,-14
1491694005049,0,-6,-5,-21,-41,-34,-16,-24,11
1491694005049,0,7,12,11,13,12,6,-8,14
1491694005051,1,-15,-6,3,2,65,48,-15,-6
1491694005051,1,10,10,30,34,14,27,32,14
1491694005055,2,-9,-17,-13,40,-16,77,10,-17
1491694005055,2,0,-11,-14,-22,-39,-121,-44,-3
1491694005080,3,7,-12,-8,-28,-11,12,4,26
1491694005080,3,1,14,20,4,28,106,37,-3
1491694005081,0,-10,-2,-3,-23,29,-33,-89,-20
1491694005081,0,4,0,-16,11,-98,-87,37,2
1491694005082,1,12,16,19,-1,25,72,33,23
1491694005082,1,-19,-18,-15,10,43,95,-31,-16
1491694005083,2,-12,-1,-9,4,-71,-47,-14,-16
1491694005083,2,-13,-8,-10,-34,-32,-1,4,-7
1491694005113,3,4,10,30,12,-24,-102,-39,1
1491694005113,3,1,14,-9,19,27,31,47,-8
1491694005114,0,6,-26,-12,3,-17,52,44,47
1491694005114,0,6,11,18,-42,64,-48,-89,-23
1491694005114,1,-12,5,21,70,-34,22,73,35
1491694005114,1,8,-5,-38,-80,-22,6,-57,-15
1491694005116,2,6,2,19,27,-23,-95,-12,-2
1491694005116,2,0,0,-5,-22,-14,83,44,8
1491694005145,3,-1,5,16,12,49,-16,-9,-13
1491694005145,3,-15,0,12,-22,24,34,42,-12
1491694005146,0,-15,-21,-32,25,-47,-47,-3,7
1491694005146,0,1,-7,3,-4,-1,-45,-60,-13
1491694005147,1,0,0,-14,0,26,-8,18,-6
1491694005147,1,8,0,1,3,-12,-94,2,19
1491694005179,2,13,22,25,74,47,46,50,-15
1491694005179,2,-13,2,6,-43,11,85,36,6
1491694005180,3,3,-5,16,40,31,72,-17,-15
1491694005180,3,11,25,34,36,-22,40,8,16
1491694005182,0,-5,-18,-25,-47,-3,-59,-14,-8
1491694005182,0,3,-7,-38,-21,-57,40,9,39
1491694005242,1,-12,-4,-19,-71,-11,2,-113,-52
1491694005242,1,-2,-14,-7,40,30,-6,48,10
1491694005243,2,-4,5,15,-16,29,115,37,9
1491694005243,2,10,37,27,56,109,-34,33,-24
1491694005244,3,-2,-23,-28,-41,-117,-27,8,57
1491694005244,3,-3,-16,7,-26,60,6,-63,-22
1491694005245,0,-7,-3,13,11,-97,-25,-20,20
1491694005245,0,-7,-23,5,1,72,-2,-2,12
1491694005275,1,5,13,-15,-9,65,-11,-27,-37
1491694005275,1,-10,-8,-27,-2,-69,-43,-23,-19
1491694005276,2,12,23,23,-19,34,76,14,-6
1491694005276,2,-7,-13,-16,5,-38,-14,-27,-1
1491694005277,3,17,27,31,80,94,72,58,-16
1491694005277,3,-7,-15,-7,60,-71,-99,-20,11
1491694005277,0,-12,-8,-9,-52,48,73,-11,-37
1491694005277,0,22,0,23,-28,-123,-105,-2,27
1491694005308,1,-21,-16,-53,51,-47,-31,7,-21
1491694005308,1,-4,-15,-10,-60,-26,-93,-27,-4
1491694005310,2,-7,-5,-4,8,14,15,-16,6
1491694005310,2,1,9,11,38,16,0,15,-11
1491694005311,3,-16,-14,7,-59,33,37,37,-2
1491694005311,3,7,13,24,100,73,45,34,-6
1491694005312,0,2,10,-4,-1,-102,-65,-19,3
1491694005312,0,-12,-16,-15,-22,65,127,9,-6
1491694005340,1,4,6,8,-42,-128,-128,-8,17
1491694005340,1,-16,12,-12,-19,37,-40,-81,-2
1491694005341,2,3,-3,-15,7,55,108,48,-31
1491694005341,2,-1,-1,1,-18,-117,-119,-4,3
1491694005347,3,-1,-3,45,58,74,81,9,4
1491694005347,3,-12,-19,-49,-45,-27,43,-5,2
1491694005348,0,-7,-17,-24,-53,-9,-34,2,-1
1491694005348,0,26,32,38,37,38,21,7,1
1491694005372,1,-14,-29,-42,-35,-52,-97,-69,-17
1491694005372,1,21,31,50,-16,79,33,20,19
1491694005373,2,-3,4,27,76,-41,-11,13,7
1491694005373,2,3,-6,-8,-54,81,84,27,3
1491694005374,3,6,11,-13,46,-117,-64,-19,25
1491694005374,3,-31,-20,22,25,66,-54,-17,-24
1491694005375,0,27,-3,-26,-5,62,92,3,6
1491694005375,0,-23,-22,-34,-68,4,-76,-9,-12
1491694005405,1,16,28,-12,-105,28,-13,29,7
1491694005405,1,-15,-10,28,64,-34,5,21,-42
1491694005406,2,-15,-12,-7,-5,-11,-84,-15,-1
1491694005406,2,-8,-12,-2,-8,-14,13,-37,-22
1491694005407,3,-2,8,4,28,76,15,17,31
1491694005407,3,26,38,26,54,8,41,19,-1
1491694005437,0,-11,-18,4,26,-48,-110,-4,24
1491694005437,0,23,6,-14,-24,-48,-51,34,42
1491694005438,1,-13,-32,-11,-39,52,15,24,-16
1491694005438,1,15,7,-24,-8,-31,82,-1,-16
1491694005439,2,5,-9,-33,-60,0,-62,20,24
1491694005439,2,13,23,25,12,25,77,-3,34
1491694005471,3,-3,19,71,80,61,75,52,2
1491694005471,3,8,-10,-25,-20,-70,-41,9,-4
1491694005472,0,-33,-40,7,-1,5,-26,-55,-35
1491694005472,0,-24,-18,-29,-5,63,17,-25,-6
1491694005473,1,-4,7,7,-57,64,123,-13,-20
1491694005473,1,-2,15,57,13,-26,-53,14,15
1491694005502,2,0,25,-24,41,-39,51,-13,-34
1491694005502,2,11,-10,-28,-82,-73,40,-38,-35
1491694005503,3,7,25,87,104,24,-78,31,1
1491694005503,3,-18,-41,-116,-57,-54,5,-4,9
1491694005506,0,-11,-43,-61,-95,-101,-48,-24,17
1491694005506,0,7,12,29,77,112,91,9,-19
1491694005507,1,8,1,-20,-66,-41,-24,-41,3
1491694005507,1,-6,7,27,15,28,-37,25,-6
1491694005535,2,10,24,49,27,64,1,53,0
1491694005535,2,-2,-1,-23,36,1,23,4,7
1491694005536,3,-13,-20,-30,-4,-48,65,-27,-19
1491694005536,3,-1,-12,9,-13,-33,-47,-25,-3
1491694005537,0,11,16,-7,14,55,31,10,-2
1491694005537,0,2,8,9,21,-55,-38,4,-9
1491694005570,1,-8,-15,-31,-27,-27,-25,-22,-6
1491694005570,1,-14,-13,-14,-34,37,2,-5,-6
1491694005571,2,22,24,10,-2,41,31,9,12
1491694005571,2,-5,0,10,27,19,-38,1,6
1491694005572,3,-7,-18,-22,-26,12,-27,-10,0
1491694005572,3,0,4,-2,-11,48,52,8,-4
1491694005600,0,0,7,16,7,-17,-36,-6,-5
1491694005600,0,0,-12,2,33,-72,-68,-4,13
1491694005601,1,1,-4,-21,-13,-38,32,12,1
1491694005601,1,3,-4,24,25,52,20,23,13
1491694005602,2,9,31,12,11,18,-79,-40,-18
1491694005602,2,-20,-13,16,30,15,26,50,-30
1491694005633,3,17,-10,-48,5,-110,-120,-21,15
1491694005633,3,-3,-10,-10,-93,-64,67,7,34
1491694005634,0,-14,-10,1,32,-58,-52,-33,-4
1491694005634,0,34,-1,12,41,114,100,-14,20
1491694005635,1,-47,-13,-1,-9,-57,-83,-67,-12
1491694005635,1,38,35,15,28,126,104,63,5
1491694005636,2,-39,-9,-6,-13,-98,-92,33,-2
1491694005636,2,-30,-7,6,-23,-15,72,-44,-7
1491694005665,3,-3,13,13,2,-8,91,86,-14
1491694005665,3,-47,-31,-21,29,-96,-117,-112,-3
1491694005666,0,4,2,50,87,127,127,31,14
1491694005666,0,1,-10,-76,-64,-86,-43,-89,19
1491694005667,1,12,12,6,-87,45,82,44,-20
1491694005667,1,22,-5,-18,11,19,3,75,43
1491694005699,2,-17,-20,5,25,40,-15,-6,-22
1491694005699,2,-22,-5,49,-15,-31,60,-14,-15
1491694005700,3,33,80,89,84,127,86,32,1
1491694005700,3,-18,-3,-79,-112,-100,26,12,-50
1491694005704,0,-4,-34,-22,28,-105,-105,-67,60
1491694005704,0,19,-8,-12,16,115,56,52,-32
1491694005730,1,26,-8,-19,114,-128,-128,13,-7
1491694005730,1,-9,-32,-20,-43,-97,17,-48,16
1491694005731,2,-11,6,17,-62,85,22,-18,-21
1491694005731,2,40,26,3,8,-35,-60,11,71
1491694005732,3,-19,-17,-13,-33,-40,1,38,-4
1491694005732,3,4,20,35,21,33,11,7,-25
1491694005762,0,19,1,-21,-39,-27,61,-13,14
1491694005762,0,-7,6,18,31,45,-7,-27,-11
1491694005763,1,-11,9,38,18,80,26,-13,-53
1491694005763,1,1,-13,-57,-68,-46,-96,-79,66
1491694005764,2,15,-19,-14,39,21,127,80,-31
1491694005764,2,-1,11,-13,21,-70,44,50,5
1491694005795,3,-7,-32,-49,-63,-42,-21,15,11
1491694005795,3,-3,-8,22,6,56,10,-9,-12
1491694005796,0,-12,19,2,-34,-2,-11,7,13
1491694005796,0,-2,-11,-7,-5,5,-51,-20,-41
1491694005797,1,-11,8,6,-14,73,70,1,6
1491694005797,1,25,57,96,127,115,9,59,11
1491694005797,2,17,-11,-46,-82,-86,-54,-7,2
1491694005797,2,-43,-31,11,-67,53,-52,-40,-10
1491694005828,3,10,-28,-53,-62,27,22,-44,37
1491694005828,3,5,2,12,35,51,41,-13,-30
1491694005828,0,-2,37,47,26,55,47,36,-15
1491694005828,0,11,12,-20,102,-61,-24,49,-19
1491694005829,1,10,-34,-10,-70,-72,-64,-48,72
1491694005829,1,0,22,55,9,112,118,62,-9
1491694005860,2,8,-7,-13,17,-43,-44,4,-10
1491694005860,2,26,40,21,-14,-23,-7,9,26
1491694005861,3,-38,-41,-63,12,-63,-10,-87,-14
1491694005861,3,50,2,-2,19,24,41,80,1
1491694005862,0,-6,-26,-51,-86,-97,-88,-16,11
1491694005862,0,-4,-2,18,-25,-11,20,-14,-11
1491694005892,1,9,71,57,-76,91,47,31,-13
1491694005892,1,10,-25,-18,19,-128,6,21,10
1491694005893,2,-34,-49,-25,-14,45,4,-81,-15
1491694005893,2,-9,3,23,17,7,-33,53,13
1491694005895,3,-35,-63,-64,-40,-57,-52,-10,-10
1491694005895,3,-43,32,35,0,85,-52,-79,-53
1491694005925,0,28,46,63,109,91,127,56,13
1491694005925,0,-32,-4,3,-73,-115,-105,-107,12
1491694005926,1,4,40,50,89,31,19,56,10
1491694005926,1,-3,-47,-82,-60,-58,13,-38,35
1491694005927,2,-13,-21,-30,-58,-42,-24,16,-31
1491694005927,2,-11,9,-17,86,76,71,28,4
1491694005928,3,15,-12,25,-15,-13,125,35,-22
1491694005928,3,0,18,-19,-4,-49,-120,39,4
1491694005957,0,9,1,19,-22,51,108,-30,11
1491694005957,0,25,16,9,-19,16,127,15,15
1491694005958,1,-7,-12,-42,31,-41,-128,-3,10
1491694005958,1,-22,3,84,43,34,54,8,-17
1491694005959,2,23,16,-44,-42,80,90,15,-5
1491694005959,2,-7,-34,-28,-67,-122,-96,-55,-32
1491694005990,3,1,-19,-26,6,44,-60,-43,-6
1491694005990,3,3,11,-1,-22,26,-7,-36,-7
1491694005991,0,-11,31,117,95,77,42,-2,13
1491694005991,0,-4,-7,-25,-51,40,-46,8,-55
1491694005992,1,-4,6,-3,82,51,13,-23,-11
1491694005992,1,-4,-29,-47,-80,-51,48,11,-14
1491694006023,2,12,31,16,-81,-1,-56,42,14
1491694006023,2,-17,-58,-56,-58,-54,-51,-81,-8
1491694006025,3,-17,9,35,-51,54,93,39,-13
1491694006025,3,11,-15,-50,7,-60,-30,27,18
1491694006026,0,-25,12,15,-24,42,26,1,-8
1491694006026,0,27,33,36,54,9,-12,58,34
1491694006055,1,-1,-21,-42,-77,-87,-38,-27,-13
1491694006055,1,7,13,28,12,5,20,-27,39
1491694006056,2,-22,-26,-35,9,-23,19,-2,-35
1491694006056,2,10,42,41,47,41,21,64,21
1491694006057,3,15,42,110,87,127,15,-45,5
1491694006057,3,-23,-17,-69,2,-95,-73,22,-17
1491694006058,0,12,-31,-33,-25,10,-69,-23,16
1491694006058,0,-12,-9,-23,4,43,64,78,-18
1491694006087,1,16,-5,-9,-81,-75,36,-48,2
1491694006087,1,-9,8,22,45,33,-32,-29,-16
1491694006088,2,-7,15,41,-3,26,-28,-70,-7
1491694006088,2,-34,-21,-24,15,36,14,8,-56
1491694006089,3,77,-2,-5,45,-43,-64,83,92
1491694006089,3,-23,-1,0,-29,41,44,-87,-37
1491694006121,0,7,0,-31,7,-83,-102,71,20
1491694006121,0,0,12,32,-22,25,-7,-8,3
1491694006122,1,-41,-3,-18,54,17,-2,28,-34
1491694006122,1,43,10,41,48,-4,-59,0,13
1491694006123,2,-7,-16,-62,-67,-26,98,-107,-7
1491694006123,2,-4,-10,-4,14,-31,26,51,61
1491694006152,3,-25,1,-13,-74,0,6,-9,-43
1491694006152,3,17,-3,-9,42,15,64,19,5
1491694006154,0,-9,-19,21,19,-51,-21,36,-4
1491694006154,0,2,-6,-3,0,31,9,-20,-19
1491694006154,1,17,10,23,43,60,18,-7,25
1491694006154,1,-25,9,-7,-73,33,49,36,-8
1491694006185,2,22,-6,11,47,-57,-78,-57,-9
1491694006185,2,-24,-28,-40,-48,-46,105,4,-3
1491694006187,3,-8,1,-2,15,-87,-88,-28,-11
1491694006187,3,-18,20,82,10,53,-44,1,-9
1491694006187,0,-26,-64,-101,-60,-120,53,15,4
1491694006187,0,22,-2,15,-10,-3,-32,-53,14
1491694006188,1,-2,5,29,32,94,127,-5,-15
1491694006188,1,-12,-7,11,17,-23,-84,-14,-21
1491694006218,2,6,36,46,25,127,73,79,34
1491694006218,2,12,11,6,82,-31,-115,-30,-28
1491694006219,3,-6,3,-28,-74,-12,96,-13,3
1491694006219,3,19,3,-1,60,10,-60,24,43
1491694006220,0,-7,-28,-33,-37,-64,-55,-21,16
1491694006220,0,-23,-31,-38,-86,7,11,38,-27
1491694006250,1,9,12,7,60,-24,27,-34,27
1491694006250,1,19,22,48,4,112,127,-31,-10
1491694006252,2,-19,14,-29,61,-69,-123,-27,-31
1491694006252,2,21,17,99,60,99,95,18,18
1491694006253,3,-17,-24,-111,39,-128,-29,-62,-5
1491694006253,3,-27,-85,-105,-128,-128,-74,-59,-20
1491694006282,0,-2,23,59,54,114,40,20,-16
1491694006282,0,0,10,6,21,31,21,-11,7
1491694006283,1,-9,8,23,-4,48,6,52,-3
1491694006283,1,29,60,46,-45,107,85,66,31
1491694006284,2,-14,-3,16,36,-108,-70,1,-5
1491694006284,2,-13,-11,-39,-48,-51,-12,-46,3
1491694006315,3,39,14,59,-49,35,-13,-16,-1
1491694006315,3,-34,-51,-123,-78,-116,6,-29,-34
1491694006316,0,13,3,30,-9,116,64,-3,9
1491694006316,0,-13,4,-12,11,1,-22,39,-18
1491694006317,1,-3,0,55,-15,-14,-94,16,11
1491694006317,1,1,11,9,101,55,27,-18,27
1491694006319,2,5,5,-23,-68,4,117,75,-15
1491694006319,2,-13,-21,-22,-14,-85,-65,-71,-4
1491694006347,3,-28,-19,-33,-3,22,-52,-12,-54
1491694006347,3,16,6,27,25,-44,70,34,24
1491694006348,0,-2,9,28,26,2,-3,26,20
1491694006348,0,1,5,-35,-22,-100,-128,37,-39
1491694006349,1,-25,-27,-35,10,29,92,8,6
1491694006349,1,-4,-21,-23,-50,4,-26,35,-5
1491694006381,2,9,-4,-18,5,14,-97,-94,-36
1491694006381,2,17,21,19,-14,46,107,91,54
1491694006382,3,-3,20,55,63,16,-117,-60,21
1491694006382,3,-15,1,-25,-8,-52,36,-30,-47
1491694006383,0,8,-11,19,52,55,61,21,-42
1491694006383,0,-18,-20,-37,-18,-111,-116,-50,12
1491694006412,1,-5,-16,4,-24,-1,3,-17,-6
1491694006412,1,5,13,-2,-22,19,-33,-51,13
1491694006413,2,8,18,67,55,20,2,71,18
1491694006413,2,7,32,-23,-14,127,102,25,-26
1491694006414,3,-1,-33,-28,13,-128,61,25,4
1491694006414,3,-7,-23,-4,-31,-25,-12,-37,-2
1491694006445,0,-25,11,13,11,58,82,-24,-29
1491694006445,0,17,-14,11,-13,33,-22,-27,35
1491694006446,1,16,26,-6,-24,28,-32,28,2
1491694006446,1,1,8,52,63,42,-90,-21,-3
1491694006447,2,-21,-25,-70,-60,-72,-66,-14,-20
1491694006447,2,-9,1,35,5,-6,50,-11,2
1491694006448,3,25,-7,-34,-16,72,48,59,13
1491694006448,3,-5,-4,17,24,-53,-104,-46,-6
1491694006482,0,22,31,29,27,90,45,52,40
1491694006482,0,-12,-19,-34,9,-75,-76,-83,-14
1491694006483,1,-15,-1,36,-15,-25,2,50,-25
1491694006483,1,13,9,-52,101,-28,30,39,2
1491694006484,2,2,-36,-31,-103,-76,-1,-55,8
1491694006484,2,-15,-4,20,19,47,-59,-61,9
1491694006511,3,3,-12,-16,-1,19,-29,-40,-25
1491694006511,3,-17,23,58,21,96,44,50,-8
1491694006512,0,24,32,-3,16,-31,77,43,-10
1491694006512,0,3,-10,15,14,-26,-47,11,22
1491694006513,1,-6,-16,-34,-9,40,8,-14,-11
1491694006513,1,21,9,-11,-38,-40,-21,31,29
1491694006542,2,-12,-27,-45,-16,-103,-128,-51,-27
1491694006542,2,2,12,43,25,69,67,47,-22
1491694006543,3,1,29,47,-10,-9,10,-24,18
1491694006543,3,-18,-26,-13,13,10,80,-23,-22
1491694006548,0,6,6,-4,1,9,127,22,0
1491694006548,0,-1,-12,-25,-46,-97,-19,38,-5
1491694006607,1,-19,14,-2,-9,25,15,22,-38
1491694006607,1,26,-4,55,24,68,102,54,28
1491694006609,2,-1,10,0,43,-81,-99,-78,25
1491694006609,2,-17,-27,-50,-23,-9,10,8,-17
1491694006640,3,5,-36,-31,-18,4,14,15,16
1491694006640,3,-23,3,-2,-85,-32,-43,9,-26
1491694006705,0,4,45,60,85,127,29,49,24
1491694006705,0,40,7,-11,-69,-58,-35,-16,21
1491694006706,1,-8,-26,-66,-23,-66,33,4,7
1491694006706,1,5,-22,-24,-16,-43,-79,-24,12
1491694006707,2,5,-3,32,2,60,13,29,4
1491694006707,2,-7,39,15,31,3,-30,-11,-12
1491694006710,3,-8,-15,-10,-9,-78,-90,-92,3
1491694006710,3,-18,-10,-20,13,57,54,40,-17
1491694006738,0,14,18,22,-20,-27,-97,3,40
1491694006738,0,-17,-18,-59,-18,-33,71,34,-28
1491694006738,3,-8,-11,-14,-58,-94,-82,2,-25
1491694006738,3,-5,15,8,23,42,43,3,16
1491694006739,1,-8,6,26,51,76,12,44,0
1491694006739,1,7,6,-8,-65,-35,61,27,-17
1491694006740,2,-10,-5,6,35,60,-22,-14,-12
1491694006740,2,0,23,6,-2,-25,13,44,13
1491694006771,3,5,-26,-20,5,-21,65,-4,-18
1491694006771,3,-13,2,15,18,79,22,-34,9
1491694006772,0,4,11,-15,26,-53,13,29,10
1491694006772,0,-4,-7,48,13,-27,-37,-37,14
1491694006774,1,-2,19,18,55,41,59,42,-9
1491694006774,1,-12,-16,-29,-68,-105,-114,-28,-22
1491694006775,2,5,-23,-29,-41,31,104,2,17
1491694006775,2,4,10,20,24,-49,-46,-27,-12
1491694006835,3,4,20,21,38,79,59,24,16
1491694006835,3,-4,-21,-7,-18,-18,-41,59,16
1491694006837,0,-15,6,5,12,-8,-34,-40,-18
1491694006837,0,14,-11,-12,-12,4,4,16,4
1491694006838,1,-3,1,17,-12,39,-31,-18,-13
1491694006838,1,15,23,36,56,9,-10,14,16
1491694006839,2,8,-6,-59,-9,-22,-73,-19,24
1491694006839,2,-37,-37,-28,-49,-18,6,9,-40
1491694006868,3,-1,-12,-14,-40,-46,23,-26,4
1491694006868,3,6,19,40,8,34,-33,-32,-8
1491694006871,0,19,18,12,78,28,68,35,15
1491694006871,0,-10,-5,-20,-35,-20,-54,4,-2
1491694006872,1,-13,-20,-18,-30,-83,-52,-57,-8
1491694006872,1,5,-7,-7,-5,21,-79,-62,-15
1491694006873,2,-15,9,29,46,101,13,6,-7
1491694006873,2,16,12,2,32,-11,111,62,8
1491694006900,3,-11,-18,-2,-51,-106,-65,-32,-1
1491694006900,3,-9,-13,-12,42,78,89,24,-22
1491694006902,0,10,15,5,-43,-52,-120,-43,-20
1491694006902,0,-1,6,-3,6,7,85,38,10
1491694006906,2,-13,0,14,-12,-43,-5,6,6
1491694006906,2,-5,9,32,15,80,28,6,-2
1491694006907,3,-3,14,9,8,-33,-93,-49,-7
1491694006907,3,-13,-26,-53,-45,-73,31,31,2
1491694006933,0,-1,-21,2,-3,84,86,37,-7
1491694006933,0,-23,0,-6,-7,-76,-81,-14,-8
1491694006935,1,11,13,8,2,61,72,19,22
1491694006935,1,-10,16,14,12,-49,44,17,2
1491694006936,2,-7,-15,-26,-40,-46,-102,-57,-19
1491694006936,2,-5,-9,13,9,24,7,-19,10
1491694006937,3,1,8,-13,-38,2,-26,-20,-23
1491694006937,3,-8,-13,-9,5,-13,-17,-20,-11
1491694006965,0,6,11,17,-28,-11,-36,8,3
1491694006965,0,2,-4,-14,17,-5,-1,3,2
1491694006970,1,-4,7,0,-8,21,1,4,-3
1491694006970,1,0,4,-6,-22,-15,62,5,-11
1491694006972,2,5,2,4,11,72,29,17,-7
1491694006972,2,-1,-10,8,23,-16,-68,-5,8
1491694006998,3,8,-6,-20,1,-13,-58,-20,-3
1491694006998,3,1,-1,-1,-39,-35,-35,9,3
1491694006999,0,-2,10,14,41,34,65,-12,7
1491694006999,0,-2,14,-1,27,7,42,25,-5
1491694007000,1,3,-3,6,-8,-22,9,-31,-11
1491694007000,1,3,3,-13,-26,26,37,17,-19
1491694007001,2,-4,-32,-27,-8,-26,-73,4,-1
1491694007001,2,10,5,2,-19,55,21,4,11
1491694007030,3,-6,8,14,34,-3,63,51,-8
1491694007030,3,3,16,26,46,5,-13,-70,-4
1491694007034,0,5,-3,-8,1,-45,-8,-7,36
1491694007034,0,12,3,12,0,55,-88,-38,-2
1491694007035,1,-4,-6,-27,-23,-55,23,33,5
1491694007035,1,-7,-18,-15,-30,-36,-59,-43,-4
1491694007063,2,-1,7,26,18,26,18,-22,-5
1491694007063,2,-11,-15,-3,5,-9,-61,-10,9
1491694007064,3,-1,-3,-17,-7,20,64,7,-11
1491694007064,3,14,13,26,55,65,-39,-21,4
1491694007066,0,-3,4,-7,-13,-32,59,72,-5
1491694007066,0,-15,-19,-22,-53,21,53,1,-37
1491694007095,1,-7,-2,9,17,-5,11,23,-2
1491694007095,1,27,-3,-6,-29,17,9,23,-2
1491694007096,2,-5,12,5,35,-13,-61,-92,-18
1491694007096,2,4,8,2,9,1,80,13,27
1491694007100,3,-18,-35,-29,-19,-25,21,30,-15
1491694007100,3,-8,18,29,11,-16,-84,-19,9
1491694007128,0,0,-9,-25,-18,-24,-10,4,3
1491694007128,0,-13,-1,8,-11,9,6,6,-58
1491694007129,1,5,-9,3,30,10,10,18,16
1491694007129,1,-9,-9,-8,4,19,29,36,0
1491694007130,2,1,5,-6,-5,8,-5,-5,17
1491694007130,2,2,10,-12,-25,-32,-24,-56,-23
1491694007132,3,0,-1,16,44,60,17,24,24
1491694007132,3,-10,3,-23,-67,-20,25,42,-17
1491694007160,0,6,3,-3,-6,-75,31,-18,14
1491694007160,0,9,-7,3,-1,17,22,-8,20
1491694007162,1,-5,-2,-8,-3,20,-94,-15,-12
1491694007162,1,-7,-8,-8,6,27,15,-1,-7
1491694007163,2,-9,3,7,-9,113,78,42,-23
1491694007163,2,5,3,8,66,-47,42,38,-3
1491694007194,3,16,-4,12,-10,-43,-39,-66,3
1491694007194,3,7,-2,-16,-26,11,31,9,16
1491694007196,0,9,-11,-9,6,-49,5,-2,-9
1491694007196,0,-9,-10,-18,-20,16,-26,-42,2
1491694007200,1,-11,24,45,25,41,-27,-21,-9
1491694007200,1,-18,-9,-24,-41,-52,-47,-39,-12
1491694007226,2,-1,-10,19,20,31,51,39,0
1491694007226,2,13,7,-16,-21,13,-15,54,17
1491694007229,3,-7,-5,-5,4,-7,79,-11,-11
1491694007229,3,5,13,15,21,1,-32,-58,-1
1491694007231,0,-15,-1,-3,-34,12,97,45,12
1491694007231,0,14,3,20,46,-40,-26,-12,26
1491694007257,1,-18,-8,-5,-32,13,-101,-16,2
1491694007257,1,-4,-9,-13,24,-6,48,21,-22
1491694007258,2,5,7,-14,0,-5,11,28,14
1491694007258,2,-20,-11,44,26,26,-8,-52,-21
1491694007259,3,9,3,-31,-24,17,15,33,10
1491694007259,3,-5,9,6,-23,60,-2,-23,7
1491694007260,0,-10,-11,-8,-4,-108,-32,58,-6
1491694007260,0,-3,-13,-22,-43,-6,-93,11,-11
1491694007290,1,6,-14,4,24,-57,32,40,20
1491694007290,1,-9,-2,-3,2,44,38,37,-16
1491694007291,2,-3,16,3,1,-62,-77,-58,-28
1491694007291,2,-17,-5,1,10,39,-5,-40,-13
1491694007292,3,10,14,7,6,47,99,52,-24
1491694007292,3,4,-24,-14,9,-49,-94,5,48
1491694007322,0,-11,-4,-6,-4,27,103,-39,-24
1491694007322,0,-6,-8,-6,-8,-57,-48,-16,-20
1491694007324,1,4,12,-13,-5,28,58,33,24
1491694007324,1,-11,-2,16,20,-39,-8,-54,5
1491694007325,2,14,9,11,79,127,41,-2,-16
1491694007325,2,-8,-18,-10,-92,-113,-60,-6,7
1491694007355,3,-11,-21,-40,-17,-9,56,-34,17
1491694007355,3,-1,12,8,-6,-51,-82,-11,-14
1491694007358,0,3,-9,12,-7,49,-14,-33,24
1491694007358,0,-1,7,-6,16,27,-39,-3,-27
1491694007359,1,6,3,1,-4,7,38,50,4
1491694007359,1,-5,-6,-1,7,-71,-34,-30,7
1491694007421,2,8,-2,16,-33,25,33,-10,5
1491694007421,2,-28,-13,-33,16,-18,10,-20,6
1491694007422,3,26,-1,9,-21,-4,-3,19,-1
1491694007422,3,4,15,16,30,48,58,60,-7
1491694007452,0,4,-17,-16,-13,-43,-77,-3,19
1491694007452,0,-5,27,10,26,53,58,-6,7
1491694007453,1,-20,-22,5,-11,-43,-36,-7,-21
1491694007453,1,15,0,-8,-21,-21,-40,-72,10
1491694007454,2,-14,-6,-8,-15,-13,-18,5,-18
1491694007454,2,18,10,1,-30,-24,21,76,26
1491694007455,3,3,3,4,23,45,-84,-99,-17
1491694007455,3,-2,5,-6,8,52,80,87,-9
1491694007518,0,-27,-27,-14,-4,-51,-18,21,-15
1491694007518,0,4,7,6,-16,-28,-25,-18,9
1491694007521,1,6,5,16,16,21,5,-30,-13
1491694007521,1,11,6,21,-15,-8,29,-5,13
1491694007521,0,-2,-7,10,10,11,71,-13,-21
1491694007521,0,9,12,3,-1,50,20,-2,43
1491694007523,1,-26,-4,-20,-27,-51,0,42,-35
1491694007523,1,-7,-15,-7,-39,-10,-81,6,-14
1491694007550,2,3,6,16,29,-11,45,3,27
1491694007550,2,-15,-13,8,-17,6,-16,-19,6
1491694007551,3,3,8,24,39,88,70,26,4
1491694007551,3,15,0,2,-8,-6,-10,-14,21
1491694007551,0,1,0,-20,-25,-31,-65,-13,-35
1491694007551,0,8,7,13,33,10,36,30,11
1491694007552,3,0,-2,-30,-1,32,37,57,-8
1491694007552,3,9,-7,-5,-3,-53,-44,-30,-6
1491694007582,0,-14,5,18,8,-12,25,52,-16
1491694007582,0,17,-4,-12,-3,-7,-22,3,26
1491694007583,1,4,8,-10,-24,-45,-40,-82,16
1491694007583,1,-5,-10,2,24,34,26,23,-16
1491694007584,2,5,14,25,1,14,-17,-25,11
1491694007584,2,5,-12,-17,41,39,-3,11,17
1491694007585,3,-15,2,13,13,-88,-50,-16,5
1491694007585,3,12,1,0,28,35,32,2,1
1491694007615,0,3,-7,-29,-40,-39,-31,-12,-9
1491694007615,0,6,-3,-18,-26,17,71,-14,-10
1491694007616,1,-5,-23,-30,-17,-87,-63,-4,3
1491694007616,1,-41,2,0,1,52,-51,-61,-46
1491694007617,2,17,5,22,18,-5,63,80,22
1491694007617,2,16,0,8,13,12,0,32,-10
1491694007618,3,-9,8,5,-1,22,45,-23,-13
1491694007618,3,-9,9,13,-24,45,76,36,-17
1491694007647,0,-2,-3,-26,0,-54,-109,-45,-7
1491694007647,0,11,8,4,6,-1,83,24,26
1491694007648,1,-6,-14,3,26,3,54,68,-19
1491694007648,1,-12,-16,22,12,-7,3,-21,4
1491694007649,2,2,5,14,9,70,67,-3,2
1491694007649,2,0,6,2,1,-38,-108,-26,7
1491694007680,3,2,2,-9,42,22,86,66,-13
1491694007680,3,-18,-21,-11,-25,-42,-51,-41,-8
1491694007681,0,29,1,2,-12,17,56,44,19
1491694007681,0,-27,-14,-21,-42,-63,-53,-34,-18
1491694007681,1,35,11,9,11,67,22,-23,23
1491694007681,1,-2,4,-4,11,15,31,54,-3
1491694007682,2,-12,5,14,22,-40,-39,-22,-15
1491694007682,2,3,2,8,-17,61,18,-21,-5
1491694007712,3,-7,5,-10,-22,-21,-1,-31,-27
1491694007712,3,6,-15,-6,40,-37,71,12,31
1491694007721,0,-11,-20,-21,-19,-57,-91,27,7
1491694007721,0,4,24,22,3,42,33,1,-22
1491694007722,1,-5,6,42,24,53,9,-20,5
1491694007722,1,12,-2,-47,-32,-1,59,-27,7
1491694007745,2,-22,-22,-4,-17,-43,-69,-10,-7
1491694007745,2,-1,-13,-8,-28,-5,67,5,-14
1491694007746,3,-6,2,2,21,-23,-38,9,20
1491694007746,3,-7,24,44,37,49,6,22,-32
1491694007747,0,7,2,-4,18,48,17,-68,3
1491694007747,0,-12,-6,-14,-13,-35,44,49,-16
1491694007777,1,12,2,39,-8,-58,-13,18,18
1491694007777,1,-17,-16,-58,-28,-4,-77,24,-34
1491694007779,2,-9,-20,-18,-28,9,-14,-2,-3
1491694007779,2,30,21,17,1,-14,-128,-97,10
1491694007780,3,3,11,4,-31,127,91,-22,6
1491694007780,3,14,13,13,26,-81,45,59,36
1491694007810,0,-23,-14,-9,-20,-25,-95,-32,-38
1491694007810,0,7,-5,-10,31,13,32,16,15
1491694007811,1,1,16,8,-19,-22,-43,13,-5
1491694007811,1,13,17,35,23,127,52,-3,32
1491694007811,2,-7,16,-9,74,-42,-26,1,-23
1491694007811,2,-35,-41,-45,-88,-96,3,-22,-1
1491694007812,3,-6,-37,-30,-41,1,-55,-47,-11
1491694007812,3,31,0,3,-12,-26,-5,46,3
1491694007842,0,-6,10,1,7,86,33,45,3
1491694007842,0,-7,31,63,71,75,68,23,-4
1491694007843,1,11,-9,-36,7,-44,-16,-3,17
1491694007843,1,-13,-29,-47,-81,-71,55,-25,-6
1491694007844,2,8,-1,2,6,14,-27,29,-1
1491694007844,2,-10,4,8,7,-25,-107,-22,1
1491694007875,3,-8,-9,0,10,34,18,-11,-16
1491694007875,3,10,26,38,16,73,-8,31,7
1491694007876,0,8,23,13,36,-24,80,-15,11
1491694007876,0,-9,-40,-10,18,-72,-16,-74,-1
1491694007877,1,-16,2,-10,-16,46,1,29,-14
1491694007877,1,13,2,-17,-4,-73,-32,28,7
1491694007907,2,0,11,25,-19,119,78,-9,-14
1491694007907,2,-9,-20,-24,21,-54,-69,20,-14
1491694007909,3,3,-32,-43,-53,-23,56,1,-7
1491694007909,3,-39,10,18,10,28,-3,-59,-33
1491694007910,0,68,32,85,60,119,96,50,18
1491694007910,0,20,34,-55,6,-17,1,-33,34
1491694007940,1,-20,-46,-75,-106,-75,-20,-29,-15
1491694007940,1,-5,5,28,66,70,-68,-28,50
1491694007942,2,-22,-29,-5,63,-9,66,39,7
1491694007942,2,1,28,122,62,127,74,32,-14
1491694007943,3,-2,42,14,-29,36,-99,-21,0
1491694007943,3,-28,-68,-127,-128,-104,-102,-97,-67
1491694007944,0,-2,-38,-3,43,30,60,54,21
1491694007944,0,-23,-5,-6,-15,-38,-77,-70,7
1491694007973,1,-4,-9,4,5,-30,55,5,-12
1491694007973,1,18,15,69,30,76,56,0,51
1491694007974,2,-7,63,11,-49,49,88,29,-37
1491694007974,2,42,33,41,66,-17,-53,2,-1
1491694007976,3,-23,17,57,7,56,16,-14,18
1491694007976,3,2,-7,-16,12,-20,84,-44,-7
1491694008005,0,25,-12,-128,-128,-128,4,-122,13
1491694008005,0,-16,-30,-36,-13,-36,-28,61,9
1491694008008,1,-20,-6,-42,-5,-109,13,5,-23
1491694008008,1,26,-13,4,32,1,107,47,27
1491694008009,2,-35,-11,73,82,54,-53,-51,-17
1491694008009,2,4,-7,14,20,-19,-1,12,-33
1491694008038,3,4,13,-10,-24,6,12,40,15
1491694008038,3,4,3,-44,-42,127,81,36,14
1491694008039,0,2,-9,-89,-38,-98,-61,-14,31
1491694008039,0,-11,-7,-119,-85,-54,84,-88,-3
1491694008040,1,21,-25,64,-27,32,-113,-39,-4
1491694008040,1,16,32,102,111,116,93,31,-9
1491694008071,2,-43,1,86,37,-74,-128,59,-34
1491694008071,2,6,0,-12,22,72,119,74,-9
1491694008072,3,12,33,-116,127,123,-60,-7,25
1491694008072,3,-56,-16,88,-128,-128,-69,-41,-101
1491694008074,0,63,-40,99,-39,-81,-23,92,37
1491694008074,0,-40,-27,127,-93,124,-51,46,-31
1491694008075,1,34,49,127,127,-98,119,31,27
1491694008075,1,-16,6,106,12,-54,-101,-41,-16
1491694008103,2,-52,-6,40,17,73,37,-23,-26
1491694008103,2,35,-32,-26,-93,-64,55,-59,65
1491694008104,3,70,-13,-17,50,104,-6,121,53
1491694008104,3,-4,18,-21,-12,0,-37,-20,-26
1491694008106,0,-29,29,-12,-27,28,70,-27,-31
1491694008106,0,-4,59,56,69,127,87,-38,10
1491694008135,1,8,-49,-72,-46,-119,-69,32,7
1491694008135,1,-2,-15,-92,5,-27,-44,17,34
1491694008136,2,5,12,-25,-39,-64,40,-16,49
1491694008136,2,1,11,-30,53,14,-39,11,-45
1491694008138,3,-29,-23,-18,-32,-36,89,4,19
1491694008138,3,33,-17,19,8,73,9,59,78
1491694008168,0,15,28,-56,-42,99,-51,28,-29
1491694008168,0,9,12,-11,51,-17,122,37,45
1491694008171,1,-20,-32,-40,-60,-111,-99,-50,-20
1491694008171,1,2,18,38,77,102,25,57,6
1491694008173,2,-6,-36,-46,55,-94,74,-20,-29
1491694008173,2,4,-28,-6,-96,-46,-6,2,52
1491694008233,3,34,44,36,-40,80,51,14,-46
1491694008233,3,-51,-29,-107,6,-96,34,-81,-10
1491694008235,0,25,4,66,86,122,-94,-41,45
1491694008235,0,-20,8,9,65,-48,-85,14,-107
1491694008236,1,-9,-17,-4,-122,-104,-25,-91,83
1491694008236,1,-24,-20,-81,32,-42,22,13,-46
1491694008237,2,40,8,22,35,64,12,-53,74
1491694008237,2,1,-4,-65,-20,-18,49,91,38
1491694008265,3,-8,19,41,19,111,61,50,-65
1491694008265,3,43,29,91,9,-73,-6,26,35
1491694008268,0,-2,38,-30,-38,97,58,-5,-46
1491694008268,0,-17,-30,-71,-128,-89,-91,-68,17
1491694008269,1,-49,0,41,127,-89,26,-14,-30
1491694008269,1,30,-23,-52,-66,59,-18,-17,30
1491694008270,2,-21,-7,-85,-84,-69,81,77,-62
1491694008270,2,42,34,53,38,84,-81,-13,-14
1491694008298,3,-31,-12,-113,-93,-71,-23,-47,0
1491694008298,3,-25,5,-34,-10,77,-19,15,-46
1491694008300,0,-47,-22,-61,-125,-128,-69,-128,-79
1491694008300,0,26,14,3,45,-33,127,122,32
1491694008301,1,-19,-42,-65,-78,44,-128,-60,20
1491694008301,1,23,23,49,19,-6,47,-26,-7
1491694008302,2,-2,-9,19,-52,-30,5,-9,43
1491694008302,2,-49,-23,0,-89,-48,-58,-94,-57
1491694008330,3,35,26,43,127,58,73,39,38
1491694008330,3,-7,-18,-53,-47,-79,-48,20,15
1491694008333,0,14,6,117,30,53,52,96,-20
1491694008333,0,-54,-37,32,-66,-82,-90,-79,-6
1491694008334,1,18,54,127,62,64,127,91,-47
1491694008334,1,-15,-41,-13,-94,52,-123,-36,20
1491694008335,2,21,22,37,127,-60,60,26,39
1491694008335,2,36,65,25,-54,127,67,-6,5
1491694008363,3,-24,-71,-74,59,-90,4,-97,-22
1491694008363,3,3,0,54,-37,70,6,4,-10
1491694008365,0,-4,-46,-77,-32,78,-69,-21,16
1491694008365,0,4,6,45,35,123,100,20,-38
1491694008366,1,22,32,-4,-30,48,21,56,28
1491694008366,1,5,5,12,85,70,86,7,-14
1491694008368,2,12,33,-9,31,-73,-128,-33,26
1491694008368,2,-11,-14,-89,-32,-24,-1,-2,-47
1491694008395,3,16,30,84,-30,111,49,37,-10
1491694008395,3,-26,7,8,103,-94,-47,-9,1
1491694008397,0,-2,-66,-72,-123,5,120,40,18
1491694008397,0,-1,-2,-43,10,-122,-53,20,9
1491694008398,1,-16,-34,-58,48,40,72,-83,-19
1491694008398,1,17,9,22,-68,-49,36,-27,18
1491694008428,2,-33,19,69,96,13,38,-30,-39
1491694008428,2,4,2,16,21,47,23,14,18
1491694008430,3,-3,3,-12,-77,-87,7,25,35
1491694008430,3,10,-5,-33,63,54,-19,2,-15
1491694008431,0,-1,8,20,-9,25,16,1,1
1491694008431,0,-12,-26,-67,30,7,-17,-8,26
1491694008460,1,14,7,82,-10,31,-18,-12,-31
1491694008460,1,25,70,-32,-89,-61,40,20,-5
1491694008462,2,-53,-99,-121,-128,-124,-105,-56,-19
1491694008462,2,23,-10,80,68,36,11,0,28
1491694008493,3,-23,33,-23,-68,-45,-15,13,-23
1491694008493,3,-3,-21,17,-26,-51,-3,-45,61
1491694008495,0,0,-2,21,26,-21,-9,-56,-8
1491694008495,0,-3,-7,-31,88,-11,62,62,16
1491694008496,1,-5,2,27,-52,76,10,1,-4
1491694008496,1,-33,17,-22,-42,-83,-5,-6,-14
1491694008497,2,33,35,19,-9,88,52,20,2
1491694008497,2,23,12,108,75,72,103,23,28
1491694008525,3,-24,-13,-98,-106,-102,-41,-49,-29
1491694008525,3,0,-51,43,8,99,27,4,0
1491694008527,0,-3,46,-9,-19,-7,27,59,-2
1491694008527,0,-9,-34,5,-46,62,-4,-43,17
1491694008528,1,30,57,39,127,93,100,71,15
1491694008528,1,-37,-25,-110,-118,-128,-99,-76,-31
1491694008530,2,-6,-46,11,-38,73,-20,6,25
1491694008530,2,0,46,17,-99,-34,-45,-16,-63
1491694008557,3,-35,-94,-54,-59,-115,-88,-23,16
1491694008557,3,26,27,15,-5,70,40,0,-4
1491694008559,0,8,47,4,27,7,11,-23,-11
1491694008559,0,-19,-6,1,-1,21,-38,23,-6
1491694008560,1,7,-3,50,46,73,36,16,-50
1491694008560,1,13,44,86,69,37,74,46,-26
1491694008590,2,4,-45,-84,-24,-55,-35,2,32
1491694008590,2,11,29,62,53,97,51,0,-20
1491694008591,3,-23,-83,-116,-55,-123,-81,-43,12
1491694008591,3,-1,-20,42,20,10,37,-9,-3
1491694008592,0,9,34,45,29,82,40,-16,3
1491694008592,0,-15,-39,-13,18,-7,6,-12,-10
1491694008622,1,2,42,53,16,47,53,60,19
1491694008622,1,16,-25,-13,11,40,43,40,24
1491694008624,2,-19,16,37,49,24,-31,15,-8
1491694008624,2,-7,-23,-78,-36,-115,-57,-35,-35
1491694008625,3,6,14,26,-5,55,-26,-15,0
1491694008625,3,2,-9,-35,-27,16,27,-20,-4
1491694008626,0,-27,-6,33,117,104,-37,40,-20
1491694008626,0,9,4,-73,-121,-116,-37,-46,17
1491694008655,1,-26,-19,2,-46,82,87,2,-16
1491694008655,1,-8,-21,-2,29,100,33,5,8
1491694008656,2,12,-26,-34,46,-35,46,56,16
1491694008656,2,-9,39,0,-11,72,59,-42,-24
1491694008657,3,14,5,-31,1,-70,-75,-13,16
1491694008657,3,-8,24,2,-18,-8,-34,-4,-24
1491694008687,0,2,46,23,-4,-6,36,31,37
1491694008687,0,-1,-3,-64,-5,-16,72,34,6
1491694008689,1,8,37,20,32,95,-15,6,14
1491694008689,1,-26,-4,-74,-9,-99,-42,-17,-23
1491694008720,2,24,49,41,53,72,-11,-30,6
1491694008720,2,-8,-67,-98,-56,-92,-116,-56,13
1491694008722,3,-30,-48,-7,-49,-22,9,8,-7
1491694008722,3,9,19,26,0,108,57,65,-18
1491694008723,0,-37,-21,30,1,77,-43,-82,-74
1491694008723,0,0,13,21,17,56,3,16,25
1491694008724,1,9,56,28,35,12,59,57,15
1491694008724,1,95,27,-51,-2,-31,-39,43,99
1491694008752,2,-13,-57,-92,-65,-128,4,-37,-33
1491694008752,2,-22,-37,127,30,45,-19,-32,-38
1491694008754,3,-2,3,94,15,16,-87,-24,-41
1491694008754,3,-30,-37,20,-28,-99,-44,-99,4
1491694008755,0,26,-42,15,-22,-18,18,24,-3
1491694008755,0,2,-4,-12,-24,-86,-15,-8,32
1491694008755,1,-22,14,42,34,87,21,-1,-28
1491694008755,1,-15,-60,-13,-15,-105,-50,12,-38
1491694008785,2,16,48,14,-9,11,38,21,66
1491694008785,2,18,-48,14,41,-38,-36,-6,-23
1491694008786,3,36,42,13,6,-22,9,-11,51
1491694008786,3,-15,-19,87,77,66,30,-7,-32
1491694008787,0,22,10,-78,-119,-128,-27,-23,-2
1491694008787,0,32,60,41,20,-13,56,118,47
1491694008850,1,8,18,-24,15,-56,23,1,12
1491694008850,1,-29,84,0,-6,-25,-28,-31,-20
1491694008851,2,-11,21,39,10,20,54,9,10
1491694008851,2,-6,-14,3,44,53,-31,57,-12
1491694008852,3,0,-5,-71,-21,-104,-51,-70,-37
1491694008852,3,27,-38,-10,-1,59,25,52,81
1491694008853,0,-15,-16,-25,-11,-116,-96,-31,-32
1491694008853,0,-11,4,-46,-17,30,39,9,-24
1491694008883,1,16,11,-8,15,111,75,15,20
1491694008883,1,-26,5,11,-9,-112,-64,-40,-25
1491694008884,2,-1,-5,-22,-39,18,13,11,-24
1491694008884,2,-16,-25,-36,-14,84,23,-21,-7
1491694008885,3,-2,-61,1,-36,-123,-13,37,-6
1491694008885,3,1,65,11,-1,27,49,13,-6
1491694008886,0,0,9,29,29,62,34,6,10
1491694008886,0,-24,-11,-30,-31,-106,-31,2,-10
1491694008915,1,-9,-6,12,11,-16,29,-12,-29
1491694008915,1,30,14,-10,-7,52,14,10,-5
1491694008916,2,-17,20,48,2,-16,-45,-1,1
1491694008916,2,44,35,-24,11,-31,8,-33,33
1491694008917,3,-1,-13,-45,-30,30,-39,-3,7
1491694008917,3,-11,-37,-14,4,-38,-42,-38,-14
1491694008918,0,-20,-33,-7,33,87,14,12,-13
1491694008918,0,3,27,51,32,42,53,5,-3
1491694008947,1,0,4,-30,62,110,89,-1,11
1491694008947,1,-10,-66,-87,-103,-84,-71,-13,-14
1491694008949,2,-13,-8,-10,-27,46,48,-18,-28
1491694008949,2,11,-2,40,35,90,40,22,46
1491694008950,3,-32,-62,-39,-14,12,-20,-58,-65
1491694008950,3,22,11,30,36,73,59,33,22
1491694008951,0,1,7,-12,2,-61,-5,-4,24
1491694008951,0,-50,-34,29,27,23,-47,-14,-54
1491694008980,1,58,55,21,5,3,14,19,40
1491694008980,1,-20,17,35,53,80,55,12,-12
1491694008982,2,1,11,-21,-26,-11,-41,4,-32
1491694008982,2,6,2,-33,-27,-72,-30,-39,9
1491694008983,3,5,-8,-6,-11,41,-9,10,52
1491694008983,3,-18,-6,-23,-22,-39,5,-12,-20
1491694009013,0,8,-35,13,10,-54,-44,10,20
1491694009013,0,-6,29,17,49,116,56,2,-15
1491694009015,1,-10,-5,-40,-58,-32,-28,-31,-16
1491694009015,1,12,30,46,27,21,27,-13,12
1491694009017,2,-14,-16,-41,0,34,-22,-7,-12
1491694009017,2,-11,-7,-4,-29,-64,-30,-34,-16
1491694009018,3,-21,2,26,43,63,0,-35,-3
1491694009018,3,19,-15,-12,-7,-9,6,6,5
1491694009046,0,-5,4,-21,-15,-36,31,-4,15
1491694009046,0,6,-19,-37,-30,30,-4,-5,2
1491694009048,1,-3,9,38,-5,-15,10,8,-10
1491694009048,1,-48,12,-7,8,40,26,-8,-54
1491694009049,2,5,0,-11,3,22,-2,-12,5
1491694009049,2,34,-36,-41,-25,-68,-7,21,41
1491694009086,3,-29,-14,14,2,-24,-49,-10,-7
1491694009086,3,-23,3,-16,12,97,56,36,-8
1491694009087,0,35,-22,-43,-1,-97,-7,20,20
1491694009087,0,-18,33,-5,4,-33,-71,-12,-10
1491694009089,1,-13,-29,-61,-35,-64,-21,-4,-25
1491694009089,1,17,-56,-29,-5,-6,-22,17,23
1491694009110,2,-18,22,-45,-4,11,26,-2,-20
1491694009110,2,-7,-14,-120,5,95,121,-2,-24
1491694009112,3,3,8,-78,29,-50,-23,40,31
1491694009112,3,18,33,74,25,83,-41,-22,12
1491694009113,0,26,5,127,-14,-55,-21,43,44
1491694009113,0,-22,-13,127,-38,-68,-13,-27,-27
1491694009150,1,18,8,127,11,99,3,7,15
1491694009150,1,-9,10,92,5,44,104,35,-13
1491694009151,2,-2,15,80,76,48,-29,-15,-2
1491694009151,2,-16,-29,-58,-71,22,-47,-53,-43
1491694009152,3,14,22,44,58,-7,48,7,43
1491694009152,3,10,-1,-61,-74,-88,-97,58,14
1491694009154,0,4,23,9,18,20,56,-10,11
1491694009154,0,-49,-33,-78,-25,-89,-39,-10,-77
1491694009177,1,72,16,-14,-4,48,55,38,49
1491694009177,1,-17,-12,-44,14,-101,-92,-54,-39
1491694009178,2,-47,-17,6,-15,77,22,37,-7
1491694009178,2,28,41,50,73,0,-18,0,15
1491694009179,3,-7,10,-75,-43,37,60,9,8
1491694009179,3,8,-17,-59,26,56,99,13,39
1491694009207,0,-12,-51,-100,-107,-85,-100,-49,-55
1491694009207,0,5,35,116,-46,127,69,17,79
1491694009209,1,-21,-2,-51,31,-128,-76,-8,-60
1491694009209,1,21,-36,-65,-72,11,-48,-41,1
1491694009210,2,-2,4,-10,-34,78,-6,-25,41
1491694009210,2,57,53,36,5,88,5,108,66
1491694009240,3,-13,50,82,65,93,35,0,-22
1491694009240,3,-18,-51,-63,-71,-128,-20,-13,24
1491694009242,0,-5,-44,-88,-38,14,-44,-94,-63
1491694009242,0,24,32,59,88,62,94,90,53
1491694009243,1,-22,21,0,-101,13,-5,-4,-26
1491694009243,1,3,9,60,116,-21,32,6,3
1491694009273,2,24,27,48,-50,35,95,25,-6
1491694009273,2,-36,-49,-101,-9,-42,-33,-27,-9
1491694009275,3,19,1,37,73,41,-61,2,-21
1491694009275,3,7,11,65,37,96,-24,2,12
1491694009276,0,-33,1,-58,94,-86,127,20,-43
1491694009276,0,0,-69,-77,-82,-128,-128,-95,2
1491694009277,1,-14,-25,16,10,75,98,53,10
1491694009277,1,-38,14,21,-21,-24,109,32,-17
1491694009305,2,3,14,59,58,57,-1,4,-14
1491694009305,2,42,52,24,22,12,-44,61,33
1491694009306,3,-71,-47,-23,3,-80,-95,-69,-66
1491694009306,3,99,51,82,98,127,24,36,73
1491694009308,0,-42,17,-71,-50,-122,11,-3,-25
1491694009308,0,-58,-71,-78,-103,-73,-5,-34,-71
1491694009337,1,70,-18,-4,-48,27,-20,-5,49
1491694009337,1,-64,20,0,-18,-46,-33,-20,-68
1491694009339,2,1,-40,34,43,85,25,57,-3
1491694009339,2,75,90,8,-22,40,-51,-20,27
1491694009340,3,23,-45,-38,1,-46,-60,1,99
1491694009340,3,-33,13,-27,-41,-29,-11,4,-27
1491694009371,0,-5,-4,-22,-14,-10,43,49,39
1491694009371,0,-60,-31,26,49,-19,-43,-45,-95
1491694009372,1,17,34,19,-25,27,67,12,-11
1491694009372,1,20,-7,-28,5,-64,-33,4,37
1491694009373,2,-2,-18,-9,-60,17,-60,-96,-16
1491694009373,2,46,20,10,11,17,71,63,20
1491694009403,3,-36,6,-1,13,45,44,-7,-50
1491694009403,3,-8,-3,34,-47,-78,-81,-39,-17
1491694009405,0,35,5,29,37,57,-10,4,31
1491694009405,0,-16,-15,-81,-29,-110,36,-35,-37
1491694009406,1,-24,-19,3,-15,25,61,20,1
1491694009406,1,15,28,2,12,-38,83,-5,-11
1491694009407,2,12,-19,16,48,53,-44,64,12
1491694009407,2,1,-25,45,2,-13,44,-18,46
1491694009435,3,-11,28,-6,-25,-77,-48,-81,-35
1491694009435,3,-23,-25,-30,-21,65,31,17,23
1491694009437,0,38,71,42,63,55,85,3,-78
1491694009437,0,0,13,0,39,34,107,90,-2
1491694009438,1,-28,-49,-8,-66,-116,-47,17,25
1491694009438,1,4,-5,-15,8,53,1,-31,-50
1491694009471,2,20,11,-16,-44,-36,-22,-29,38
1491694009471,2,2,20,97,81,127,26,37,-11
1491694009472,3,-10,4,16,96,-87,-59,16,-33
1491694009472,3,-22,-37,-115,-119,-104,-103,-56,7
1491694009474,0,-40,-9,43,14,21,20,-49,-7
1491694009474,0,27,-5,-6,5,-8,28,11,46
1491694009500,1,-34,-1,-5,-84,-17,3,8,-34
1491694009500,1,33,3,14,127,105,-12,39,41
1491694009502,2,-10,-28,-41,-47,-81,-51,70,78
1491694009502,2,-31,25,26,33,73,-6,-114,-75
1491694009504,3,10,0,-19,33,51,19,53,31
1491694009504,3,-31,-16,-38,-28,-101,-5,-41,-14
1491694009533,0,30,-18,-32,8,-4,-17,18,41
1491694009533,0,8,12,11,-20,3,-13,-15,23
1491694009535,1,17,-3,9,31,48,-79,-4,48
1491694009535,1,-31,26,28,-36,3,22,-40,-54
1491694009536,2,-25,-41,-65,-64,-99,-46,-40,-47
1491694009536,2,-15,-18,-3,-54,-37,-13,3,25
1491694009565,3,31,15,-4,84,83,-42,-11,21
1491694009565,3,-18,15,64,-33,-2,52,40,-47
1491694009567,0,-24,-19,-18,19,-51,-67,43,18
1491694009567,0,-25,-51,-43,-57,35,-11,-23,-45
1491694009568,1,13,12,38,-7,-29,103,-37,23
1491694009568,1,3,2,27,22,100,-11,17,41
1491694009570,2,15,54,52,60,24,-30,-59,-13
1491694009570,2,-27,11,-3,81,-107,47,-17,-47
1491694009598,3,71,-1,-19,-83,-42,-9,62,73
1491694009598,3,-41,-22,41,53,87,-49,31,-67
1491694009599,0,19,-28,-81,-13,-78,42,-11,-6
1491694009599,0,58,21,33,-29,40,43,47,37
1491694009601,1,-51,-8,-36,-50,-42,18,-9,-52
1491694009601,1,40,7,-18,-29,-36,57,-44,-14
1491694009630,2,-55,1,81,21,127,2,35,-18
1491694009630,2,-12,24,-21,108,-102,-40,-51,-13
1491694009632,3,-18,-82,-65,-33,-16,16,-21,-10
1491694009632,3,5,14,1,-79,36,24,-16,-30
1491694009633,0,29,45,60,28,99,110,0,68
1491694009633,0,-56,-5,-15,66,94,-91,20,-36
1491694009665,1,22,17,29,-61,-81,-96,-48,25
1491694009665,1,-11,-14,-59,2,-47,-43,29,-25
1491694009666,2,27,11,27,-43,27,101,21,18
1491694009666,2,56,34,66,16,111,28,60,32
1491694009668,3,-37,-14,-55,14,-70,-23,-77,-36
1491694009668,3,-7,-49,-41,-66,-45,-11,-30,-3
1491694009695,0,43,16,-37,-16,4,-11,83,35
1491694009695,0,-32,-23,29,-5,48,26,8,-37
1491694009697,1,35,47,74,102,127,48,43,24
1491694009697,1,10,27,15,12,28,-5,27,47
1491694009698,2,-54,-37,-25,15,-106,-52,-120,-92
1491694009698,2,46,-40,-43,-116,-74,3,-16,86
1491694009700,3,-14,25,43,43,-24,-96,-32,-15
1491694009700,3,-4,-20,-65,-31,-24,32,2,23
1491694009728,0,-23,-26,-16,-26,18,-53,16,-76
1491694009728,0,-31,2,-9,-68,-103,-119,-76,-18
1491694009732,1,-16,11,-31,-45,22,127,83,-18
1491694009732,1,23,10,84,45,27,-88,5,33
1491694009735,2,30,33,-3,56,97,34,-26,45
1491694009735,2,-27,-30,-22,91,-75,70,29,-7
1491694009760,3,-38,-51,-54,-104,-49,-100,-98,-99
1491694009760,3,54,59,36,23,29,45,70,47
1491694009763,0,-69,-38,16,8,-60,8,-23,-51
1491694009763,0,18,27,9,-25,71,48,59,33
1491694009764,1,31,34,66,-21,59,-32,87,40
1491694009764,1,-9,-40,-103,-36,-65,91,21,-46
1491694009793,2,-1,-3,-2,-60,-86,-91,-27,-59
1491694009793,2,15,14,9,18,53,115,44,95
1491694009795,3,-8,-10,24,37,36,47,2,-11
1491694009795,3,-40,56,56,13,78,44,21,-50
1491694009796,0,39,-40,-14,-1,-92,-66,-22,85
1491694009796,0,-54,-76,-58,-70,6,-36,-28,-67
1491694009825,1,-26,30,6,21,-5,-43,-44,-63
1491694009825,1,42,5,22,-12,47,13,36,82
1491694009826,2,3,62,37,14,5,54,-7,-62
1491694009826,2,24,-6,47,44,48,-13,-3,-21
1491694009826,3,38,-30,-59,-42,-28,11,5,25
1491694009826,3,-11,47,8,13,-99,-78,-47,-30
1491694009827,0,-35,-45,6,9,39,-5,14,-29
1491694009827,0,-1,21,9,10,49,38,-24,-22
1491694009857,1,17,9,5,-53,21,17,19,-5
1491694009857,1,0,-10,56,127,-29,22,-68,3
1491694009858,2,-28,-34,-99,-125,-56,19,56,73
1491694009858,2,-3,7,-19,-66,-62,-31,-41,-23
1491694009859,3,-23,-28,5,-48,54,-10,-6,-54
1491694009859,3,44,15,-40,20,6,-45,27,27
1491694009890,0,-33,12,59,68,95,42,6,8
1491694009890,0,-45,-7,-24,29,-103,-46,-72,-38
1491694009891,1,8,14,-3,54,97,63,-17,1
1491694009891,1,-27,-55,-44,-98,-108,-117,-41,-5
1491694009892,2,22,46,41,1,55,-3,-75,-22
1491694009892,2,-41,5,9,35,54,54,20,-34
1491694009923,3,78,11,-11,16,-54,-118,46,62
1491694009923,3,-8,28,82,68,116,127,3,51
1491694009924,0,20,10,-62,49,-81,-20,30,19
1491694009924,0,5,-79,-114,-118,-118,-128,-60,-39
1491694009925,1,-44,17,108,25,80,127,12,-42
1491694009925,1,9,-32,3,82,-63,77,38,-20
1491694009955,2,12,20,-34,-112,-60,-114,-85,16
1491694009955,2,-6,36,88,127,107,-56,26,45
1491694009957,3,14,-36,-80,-106,-94,31,49,-19
1491694009957,3,-9,-3,-48,-128,3,-31,44,-34
1491694009958,0,-21,-22,116,96,34,39,-19,-25
1491694009958,0,99,102,55,-44,49,58,34,53
1491694009959,1,-57,-34,-68,-12,-82,-20,-31,0
1491694009959,1,-57,-52,-24,-69,107,-76,-66,-27
1491694009988,2,36,8,23,56,-63,46,21,-25
1491694009988,2,-17,-22,28,5,-41,-25,36,55
1491694009989,3,-19,-11,-43,-19,-75,-2,-38,-23
1491694009989,3,-50,-67,-65,-95,-78,-120,-67,-4
1491694009990,0,46,37,84,62,104,106,86,42
1491694009990,0,43,47,16,31,-76,2,-7,-93
1491694010021,1,9,-1,-47,3,-62,88,79,44
1491694010021,1,-24,-80,-117,-85,45,63,44,-62
1491694010022,2,-33,13,38,0,127,-128,-44,26
1491694010022,2,-14,15,20,5,-9,54,30,2
1491694010022,3,6,9,25,127,87,66,-65,-37
1491694010022,3,48,35,64,120,-82,-97,-4,78
1491694010052,0,13,-7,-87,-65,46,122,112,-1
1491694010052,0,-38,-24,-65,-123,-11,-52,-88,26
1491694010054,1,-42,-23,-29,78,-128,-72,-39,-50
1491694010054,1,-19,-41,20,-61,13,-26,2,-8
1491694010055,2,14,51,76,38,90,88,15,19
1491694010055,2,-4,-31,-67,-84,-128,-80,-83,-8
1491694010085,3,21,31,63,80,119,5,68,73
1491694010085,3,22,17,-14,34,75,50,-4,-27
1491694010086,0,-3,-23,-18,-12,-84,-48,-37,16
1491694010086,0,-14,51,99,71,127,-3,52,-7
1491694010087,1,-35,-38,-74,51,-69,-73,-13,49
1491694010087,1,18,12,74,72,59,115,-44,-11
1491694010088,2,17,20,-55,-68,-98,-93,55,-33
1491694010088,2,34,-46,-67,113,-4,47,75,80
1491694010117,3,-14,-5,1,-106,18,42,-29,-18
1491694010117,3,-50,16,-8,-46,-81,-30,-56,-64
1491694010118,0,36,70,93,7,104,109,42,43
1491694010118,0,14,-56,-95,27,-84,-47,97,-5
1491694010120,1,-11,-12,-39,-96,-8,-63,-109,-8
1491694010120,1,-15,33,58,71,-5,27,40,-51
1491694010150,2,23,-49,-126,-128,63,-68,27,32
1491694010150,2,-9,-12,79,-15,-73,47,-18,-1
1491694010152,3,11,17,34,-16,55,32,-22,11
1491694010152,3,18,49,83,-20,110,62,3,-7
1491694010153,0,11,22,-5,40,-58,69,6,-2
1491694010153,0,19,-28,-98,-79,-106,-92,10,19
1491694010184,1,-41,-31,1,-59,23,-3,-23,-34
1491694010184,1,68,26,-4,31,77,117,-9,60
1491694010186,2,-51,-38,-94,75,-128,-125,-45,-71
1491694010186,2,-5,18,81,8,127,127,94,-8
1491694010187,3,24,18,-8,1,-128,-114,22,50
1491694010187,3,-41,-31,-32,-67,26,58,13,-37
1491694010215,0,10,-14,-34,60,18,78,57,7
1491694010215,0,9,-25,-29,-99,-66,28,-120,26
1491694010217,1,6,40,127,127,127,98,82,-30
1491694010217,1,22,31,-92,7,-128,-47,32,39
1491694010218,2,-63,-128,-22,-88,-107,-92,-128,-40
1491694010218,2,14,127,51,60,82,59,24,2
1491694010248,3,22,-33,13,-21,1,9,3,13
1491694010248,3,0,6,6,-50,5,-93,48,2
1491694010250,0,-22,-16,34,66,-53,-47,33,-6
1491694010250,0,-20,-34,-86,-54,-86,-67,-114,-21
1491694010251,1,-15,-12,-19,14,-56,26,28,-50
1491694010251,1,-34,-65,-72,-50,-79,-43,-10,20
1491694010252,2,28,39,43,57,67,46,13,6
1491694010252,2,-36,-23,-44,-61,-72,-9,-9,-55
1491694010280,3,14,20,36,5,10,-8,-69,30
1491694010280,3,34,30,82,104,88,64,24,-7
1491694010282,0,-27,-21,-19,-106,-128,-88,-39,-6
1491694010282,0,-1,-5,80,-25,57,46,-1,4
1491694010283,1,-5,26,82,64,55,81,18,-8
1491694010283,1,11,27,-15,15,-128,-12,28,5
1491694010313,2,6,-14,1,-53,-50,95,-56,18
1491694010313,2,-30,-57,-90,-80,-53,-76,-2,-7
1491694010315,3,-14,-18,-41,-48,-9,-64,-33,4
1491694010315,3,24,18,63,36,123,85,17,1
1491694010316,0,7,58,38,127,-30,-37,59,27
1491694010316,0,4,4,26,-23,36,29,-15,-42
1491694010345,1,29,20,-52,31,7,-12,72,28
1491694010345,1,-57,-66,-91,-92,64,-22,-62,-19
1491694010348,2,-8,-14,-73,-128,70,8,-55,-35
1491694010348,2,24,62,81,122,127,101,78,29
1491694010350,3,-2,-25,-1,-16,-123,-80,-23,-15
1491694010350,3,-6,-5,-5,-8,66,71,12,4
1491694010351,0,1,-24,-42,-47,-20,-6,-23,27
1491694010351,0,-12,-8,16,-28,62,56,-12,-24
1491694010378,1,21,56,49,-2,72,103,34,20
1491694010378,1,10,13,38,122,-17,-128,36,42
1491694010380,2,-17,1,42,76,-29,-41,-34,-26
1491694010380,2,-1,6,24,-20,15,55,38,16
1491694010381,3,4,8,-24,64,-95,111,10,-5
1491694010381,3,-11,-32,-18,-15,-128,-84,-73,9
1491694010410,0,4,17,-47,-59,34,53,8,-7
1491694010410,0,-8,-33,-8,61,41,23,-12,-4
1491694010412,1,-13,-23,1,-87,-55,-58,-10,-8
1491694010412,1,10,34,59,19,55,110,-2,2
1491694010414,2,-7,19,2,23,-65,-98,-7,-5
1491694010414,2,-20,-20,-17,-42,-15,59,38,-54
1491694010443,3,34,23,27,57,127,93,61,28
1491694010443,3,-10,27,5,-101,27,-31,-38,-35
1491694010445,0,-3,-40,-41,-12,-66,-30,-43,10
1491694010445,0,9,1,66,16,98,44,4,8
1491694010446,1,2,-59,-128,-63,-122,-41,-34,-6
1491694010446,1,-8,-29,21,-47,-42,7,32,7
1491694010475,2,8,17,99,34,103,9,6,14
1491694010475,2,1,20,-41,-13,-48,-83,-12,-5
1491694010477,3,-15,39,81,32,114,28,6,-4
1491694010477,3,51,92,-16,49,-128,-8,22,-6
1491694010477,0,-29,-90,-84,-105,-64,1,10,19
1491694010477,0,12,6,31,56,10,45,-18,-15
1491694010507,1,4,-21,-44,-71,-86,-31,17,26
1491694010507,1,-9,-41,-51,-47,-65,-65,-44,14
1491694010509,2,-11,33,64,55,125,45,11,-18
1491694010509,2,-2,-7,-24,-12,-75,-16,-22,2
1491694010510,3,-18,12,63,40,80,10,-2,-36
1491694010510,3,-4,38,89,55,64,77,-12,-3
1491694010511,0,11,-33,-80,40,-52,21,62,45
1491694010511,0,-29,-28,-49,-34,-39,-78,-56,-28
1491694010540,1,-11,-9,10,-35,33,-38,-41,-13
1491694010540,1,-3,-41,-19,6,56,50,13,12
1491694010542,2,6,87,101,3,18,69,37,-18
1491694010542,2,-26,15,46,85,41,6,18,-23
1491694010543,3,39,-20,-11,-73,80,15,12,42
1491694010543,3,-28,-67,-89,-53,-70,-72,-25,7
1491694010572,0,17,-25,-2,-34,-10,-17,-4,-15
1491694010572,0,-11,-10,33,58,54,8,48,19
1491694010608,1,4,34,29,-93,-37,-19,-21,-15
1491694010608,1,-6,-17,-21,15,102,10,13,9
1491694010610,2,5,14,-62,-63,50,-34,-14,-13
1491694010610,2,-20,-29,26,3,-69,31,-9,-24
1491694010611,3,13,-28,-83,-29,-87,-113,-50,42
1491694010611,3,8,21,27,12,79,110,21,17
1491694010612,0,-10,-5,22,1,87,80,43,-19
1491694010612,0,22,-19,49,43,34,-109,-16,30
1491694010640,1,0,59,-91,94,-56,70,41,-2
1491694010640,1,12,-30,3,-13,-52,-35,37,-34
1491694010641,2,0,-47,-44,-85,-86,-111,-108,16
1491694010641,2,8,-2,-64,31,22,36,-2,6
1491694010642,3,-31,-19,41,-3,12,28,-26,-28
1491694010642,3,8,-27,-79,30,16,-40,-23,-19
1491694010643,0,-8,29,-19,38,6,24,-22,0
1491694010643,0,9,23,-128,-39,-33,-44,1,22
1491694010671,1,19,-13,-63,0,47,18,15,16
1491694010671,1,6,29,-116,39,-31,-32,8,-11
1491694010674,2,-7,-36,-100,-23,-50,0,-5,28
1491694010674,2,-22,-9,-46,-28,-25,-20,-64,-50
1491694010677,3,-15,38,65,6,54,81,34,-4
1491694010677,3,5,-66,88,-3,19,-28,9,10
1491694010678,0,10,118,100,55,92,68,39,8
1491694010678,0,-3,-74,73,-11,-53,-41,-12,15
1491694010702,1,-6,30,57,-39,-52,-82,-13,-62
1491694010702,1,-10,-27,93,-24,-31,-30,-67,10
1491694010704,2,-6,-9,121,-8,-76,30,28,-37
1491694010704,2,6,21,72,-8,24,31,-18,48
1491694010708,3,-15,-11,68,2,73,0,-15,-23
1491694010708,3,26,46,11,61,21,-17,24,35
1491694010735,0,-15,-37,-6,-61,31,90,-19,-32
1491694010735,0,30,125,14,-31,-94,-82,-10,-5
1491694010736,1,-21,-86,11,3,0,41,-14,2
1491694010736,1,-43,47,-17,7,-69,-48,-44,-26
1491694010737,2,24,20,85,84,94,76,41,12
1491694010737,2,20,-31,-43,-29,51,38,65,19
1491694010768,3,-20,3,3,-47,-60,-57,-64,3
1491694010768,3,-15,45,69,3,50,47,31,-11
1491694010769,0,10,3,-12,4,31,-27,-42,-28
1491694010769,0,13,53,63,54,127,124,52,33
1491694010770,1,14,-77,-24,-18,-42,-74,-67,-1
1491694010770,1,14,24,-21,-21,-26,88,37,41
1491694010771,2,-8,-5,19,22,44,-54,-2,13
1491694010771,2,33,11,7,59,68,60,-20,13
1491694010801,3,-2,25,-5,-48,-71,-46,13,-37
1491694010801,3,0,-36,-15,-13,-10,-9,-31,-28
1491694010802,0,7,-14,24,26,80,4,5,25
1491694010802,0,-15,-7,-58,-40,-90,-113,-11,-23
1491694010803,1,-6,-16,2,8,-29,64,12,-8
1491694010803,1,21,-4,23,46,102,122,60,-1
1491694010833,2,-19,-22,-73,-86,-128,-114,-72,-33
1491694010833,2,-24,-47,39,-4,69,83,10,-14
1491694010834,3,5,-19,-66,2,68,29,5,23
1491694010834,3,6,55,85,18,42,16,-3,-9
1491694010835,0,-10,-24,-27,35,-30,5,16,-34
1491694010835,0,6,-46,-54,-42,-40,-29,-4,48
1491694010865,1,-13,28,53,64,109,49,13,25
1491694010865,1,-9,4,24,65,6,6,-40,-1
1491694010866,2,-2,-7,-16,-40,-64,-56,-8,-22
1491694010866,2,-27,31,80,11,-6,-41,-9,-22
1491694010867,3,5,4,-86,23,22,39,26,-10
1491694010867,3,-24,-32,-50,-85,-99,-56,-46,1
1491694010897,0,-1,38,82,82,112,80,25,7
1491694010897,0,5,-23,-63,-79,-58,0,10,7
1491694010898,1,-16,28,65,45,57,-57,-4,-20
1491694010898,1,2,23,-5,75,72,47,-10,29
1491694010899,2,1,-64,-49,-49,6,68,-62,-11
1491694010899,2,-4,1,16,-16,-70,-58,-32,-9
1491694010901,3,10,28,22,9,82,-2,22,6
1491694010901,3,0,-63,-66,-47,-68,-128,-63,-16
1491694010931,0,20,74,127,41,127,72,13,18
1491694010931,0,-37,-48,-107,0,-59,43,-3,-53
1491694010933,1,40,-20,-4,-52,-60,-3,-28,20
1491694010933,1,0,21,9,-6,-31,-18,6,23
1491694010934,2,1,-27,32,15,59,19,12,-10
1491694010934,2,25,16,7,53,33,33,20,-27
1491694010995,3,-5,2,-28,-8,-84,-64,-5,-6
1491694010995,3,9,-29,-48,-50,59,81,47,-1
1491694010997,0,3,6,-50,-64,-128,-15,34,14
1491694010997,0,-20,14,4,-26,73,-30,-7,-14
1491694010998,1,-18,19,0,29,-34,23,23,-10
1491694010998,1,26,-28,61,37,52,65,62,27
1491694010999,2,-24,11,-56,2,-9,37,15,-50
1491694010999,2,14,5,74,-3,-19,-51,-5,60
1491694011028,3,-33,-31,-75,-98,-89,26,-26,-23
1491694011028,3,1,-7,37,-40,31,-7,-5,-15
1491694011029,0,-19,-11,-7,27,-97,-63,35,0
1491694011029,0,32,31,82,59,104,93,-5,31
1491694011030,1,-4,-2,-25,31,60,-29,21,-23
1491694011030,1,-12,-18,-1,-44,-87,-58,-1,-15
1491694011031,2,-9,-21,-38,-6,23,-13,6,52
1491694011031,2,3,40,39,-6,68,36,22,-11
1491694011060,3,-13,-3,-26,64,-79,22,34,50
1491694011060,3,-31,-73,-54,-35,-2,-73,-33,-68
1491694011062,0,29,42,43,29,24,-25,29,17
1491694011062,0,-8,-30,-104,-69,-78,25,12,17
1491694011063,1,2,12,62,21,127,34,-3,1
1491694011063,1,-25,12,12,-24,-127,-87,-55,-59
1491694011065,2,12,-11,-57,9,-15,-110,-31,24
1491694011065,2,-13,-16,-17,7,34,79,31,-26
1491694011093,3,-12,-22,-7,-27,0,10,-5,-27
1491694011093,3,-11,48,40,26,42,56,-47,36
1491694011094,0,26,-17,-13,-41,59,18,5,-17
1491694011094,0,-19,-12,-23,-54,-67,-51,-7,0
1491694011095,1,-29,-47,-64,-15,-98,-24,-59,-29
1491694011095,1,51,4,-76,-48,-29,-14,54,59
1491694011100,2,-5,14,53,9,65,41,0,-11
1491694011100,2,18,26,17,31,22,6,-40,56
1491694011125,3,31,23,64,1,55,-40,25,2
1491694011125,3,-2,30,-4,34,-34,36,-23,-4
1491694011127,0,-21,-50,-24,-10,-87,-95,-60,-23
1491694011127,0,5,-6,8,55,41,94,-6,-60
1491694011128,1,2,37,72,19,-44,-12,21,35
1491694011128,1,-26,-2,-57,-33,-37,-29,-58,-33
1491694011158,2,23,-18,6,-39,31,23,30,53
1491694011158,2,-15,-14,-16,-17,-38,-25,-7,-34
1491694011161,3,49,6,-27,-44,43,32,30,31
1491694011161,3,-4,19,93,68,104,84,16,-1
1491694011162,0,-27,7,-78,26,-10,80,16,-27
1491694011162,0,-16,2,41,-8,-46,-117,-2,-20
1491694011164,1,28,9,22,86,41,-16,58,12
1491694011164,1,-9,9,38,11,79,-36,7,17
1491694011191,2,-15,-27,-11,4,-84,36,-22,-27
1491694011191,2,-4,-14,-27,-19,-28,-71,-26,15
1491694011193,3,-5,43,81,78,78,71,23,-2
1491694011193,3,7,-35,-63,-38,28,83,9,29
1491694011194,0,-11,47,109,-6,72,-44,4,-28
1491694011194,0,21,-67,-118,-58,-122,-63,-29,11
1491694011223,1,-8,21,-8,-102,10,-10,-8,-45
1491694011223,1,-1,-9,-3,11,56,102,23,6
1491694011225,2,12,22,-2,-14,28,-45,-51,10
1491694011225,2,12,35,18,-24,42,104,48,26
1491694011226,3,-7,-45,-13,41,25,62,-18,27
1491694011226,3,-11,13,15,-22,-89,-42,0,-47
1491694011255,0,7,-10,-25,-17,-25,-5,13,11
1491694011255,0,-22,0,26,15,50,47,-16,-30
1491694011256,1,9,14,20,36,28,-67,-43,55
1491694011256,1,-19,-11,2,9,-35,-21,60,-42
1491694011257,2,31,24,49,84,-8,34,-3,-6
1491694011257,2,-20,-6,-60,-6,43,40,0,5
1491694011287,3,17,-24,37,24,20,63,33,55
1491694011287,3,-17,-11,-67,-56,-66,-38,-40,-12
1491694011289,0,-6,-5,-15,8,-90,-73,-19,-20
1491694011289,0,20,11,103,-39,94,94,52,-1
1491694011290,1,-16,-5,-71,92,-102,-70,-44,-39
1491694011290,1,18,-14,-23,-90,5,-41,-15,47
1491694011291,2,-25,-1,36,97,52,104,38,-27
1491694011291,2,-2,-11,7,114,22,18,-6,-9
1491694011320,3,-8,-1,-31,-100,-85,-72,-51,-18
1491694011320,3,-18,-14,18,34,2,4,-18,-16
1491694011322,0,1,-9,-61,-102,5,73,61,11
1491694011322,0,6,34,54,65,45,-116,17,12
1491694011322,1,9,2,31,45,70,16,37,-21
1491694011322,1,17,25,6,72,80,38,30,10
1491694011353,2,35,0,-5,-48,-69,-40,-1,16
1491694011353,2,-30,-25,-3,28,75,-124,-72,-35
1491694011356,3,11,-36,-75,-128,-66,47,-10,1
1491694011356,3,-5,8,-6,-79,-13,-56,32,31
1491694011358,0,5,-3,63,124,127,93,-11,-14
1491694011358,0,-11,-10,-50,-83,-128,12,-24,12
1491694011385,1,-41,-36,-37,-27,50,-26,-71,-48
1491694011385,1,16,29,33,20,-24,93,35,-4
1491694011388,2,-27,-12,-18,-38,-18,12,22,-16
1491694011388,2,25,11,13,-30,-20,-51,22,24
1491694011389,3,-18,19,71,81,101,122,40,-31
1491694011389,3,-7,6,0,23,5,-89,-29,8
1491694011417,0,36,17,4,-78,-91,57,-2,27
1491694011417,0,-22,-29,-59,8,-52,-53,-21,-20
1491694011418,1,7,45,108,-28,95,89,83,37
1491694011418,1,-7,-37,-79,53,-113,-92,-48,-32
1491694011450,2,-27,-44,-45,-87,-46,25,-48,40
1491694011450,2,-4,12,-3,21,36,-41,31,-14
1491694011454,3,31,12,43,6,42,-27,3,9
1491694011454,3,25,56,71,64,127,74,76,60
1491694011455,0,-6,-14,-29,-6,-87,-73,-2,3
1491694011455,0,-14,-3,14,-3,105,20,-18,-19
1491694011455,1,4,-9,-79,-58,-119,-79,-38,-48
1491694011455,1,-26,-63,-32,-57,-30,-36,-36,-14
1491694011482,2,13,25,-22,16,55,-75,-75,-22
1491694011482,2,40,22,14,-22,31,106,72,33
1491694011484,3,-25,-6,18,55,-106,-128,3,2
1491694011484,3,12,20,64,-1,41,20,4,-30
1491694011484,0,-39,-37,-59,17,-21,0,12,56
1491694011484,0,-17,7,4,-74,-7,88,20,-60
1491694011485,1,-23,-4,4,51,-28,-20,-92,-9
1491694011485,1,-8,-23,-65,-44,-81,13,7,8
1491694011515,2,-17,-37,-65,-64,-26,-51,46,-34
1491694011515,2,-11,9,44,38,82,51,65,37
1491694011516,3,17,16,0,-7,104,90,111,27
1491694011516,3,-41,3,-1,17,-54,-58,24,-55
1491694011517,0,-5,4,26,0,23,-37,-33,-52
1491694011517,0,38,-5,-34,2,-74,-13,-88,52
1491694011547,1,11,19,50,21,63,24,-65,-9
1491694011547,1,3,8,41,127,87,-11,-89,-35
1491694011550,2,-35,-7,17,-62,-52,33,-77,-55
1491694011550,2,40,-32,-87,-86,-128,-89,-21,20
1491694011550,3,-18,-10,-15,-25,33,-10,-47,5
1491694011550,3,27,17,4,-34,56,15,50,29
1491694011580,0,11,29,46,28,116,127,-4,41
1491694011580,0,-18,-8,1,28,-80,-74,-11,-30
1491694011583,1,-20,-35,-71,-53,-73,-25,3,-9
1491694011583,1,2,-27,-20,-51,-53,32,36,6
1491694011583,2,-3,20,27,41,88,-14,-74,-35
1491694011583,2,-3,37,53,58,12,51,33,26
1491694011584,3,53,3,3,-3,-9,-47,13,36
1491694011584,3,-63,-23,-26,-34,-29,37,6,-43
1491694011612,0,97,0,8,18,18,-54,84,71
1491694011612,0,-15,7,-2,5,-6,-49,-18,-41
1491694011613,1,-47,-23,-35,-10,0,86,-28,-16
1491694011613,1,41,16,38,52,50,23,53,-17
1491694011614,2,-40,9,20,26,17,10,45,21
1491694011614,2,24,-3,-2,10,0,-64,-35,-10
1491694011645,3,-10,-21,2,-22,-93,66,5,20
1491694011645,3,3,0,27,-6,74,3,-93,-27
1491694011646,0,-44,1,-38,1,-48,-11,3,-36
1491694011646,0,-19,-37,26,16,97,47,-14,76
1491694011647,1,64,33,-37,-47,21,-83,-17,-6
1491694011647,1,6,-28,-52,-37,-128,-49,-9,24
1491694011678,2,27,35,45,-26,23,-41,-14,-27
1491694011678,2,-26,12,40,3,51,116,78,-8
1491694011681,3,-25,-3,63,33,45,6,-19,-64
1491694011681,3,11,3,-68,-31,-41,-16,-48,14
1491694011688,0,-23,-11,-25,-14,85,-52,77,34
1491694011688,0,-32,-33,-16,-10,-128,-20,-76,-43
1491694011743,1,16,11,3,46,39,33,34,63
1491694011743,1,-12,4,23,-79,-92,-108,-26,-15
1491694011744,2,8,-12,-22,11,-14,27,-4,2
1491694011744,2,-25,-15,10,-9,9,-37,-29,-39
1491694011745,3,10,-5,-53,-3,54,67,36,44
1491694011745,3,17,52,126,93,127,-44,45,34
1491694011746,0,6,8,106,-22,-89,-52,11,-19
1491694011746,0,9,32,86,-45,99,38,24,8
1491694011776,1,8,-5,47,30,-117,-14,-8,-24
1491694011776,1,-35,-55,-104,-98,-32,21,-60,-8
1491694011778,2,-23,-14,-40,44,87,96,21,-7
1491694011778,2,36,23,-40,48,-36,-113,-61,1
1491694011779,3,-39,6,-47,-43,-32,-15,-20,-54
1491694011779,3,60,34,-18,45,86,35,111,98
1491694011780,0,-70,-30,-55,-7,-23,18,-9,-26
1491694011780,0,32,-5,-116,-50,-78,-53,-79,-44
1491694011807,1,-44,-24,-96,-42,17,82,62,-7
1491694011807,1,27,29,57,18,27,-8,18,-19
1491694011809,2,30,-4,-98,113,-39,11,3,29
1491694011809,2,-14,-30,-76,-31,-30,57,-9,15
1491694011809,3,-6,6,46,-14,28,-66,-29,-19
1491694011809,3,1,-12,-67,19,34,11,0,-6
1491694011810,0,20,34,40,-38,36,56,-5,4
1491694011810,0,-20,13,19,20,19,10,61,6
1491694011840,1,25,-40,-78,-32,-128,-42,-93,19
1491694011840,1,1,-33,-15,-45,29,-33,38,-44
1491694011841,2,-4,30,14,54,64,22,-37,-36
1491694011841,2,-17,-13,-27,-7,-96,6,98,-17
1491694011841,3,-16,29,51,45,127,-79,-30,-29
1491694011841,3,8,-34,-33,12,-67,26,17,25
1491694011842,0,2,-32,-59,-94,21,6,-38,-20
1491694011842,0,18,71,58,-56,127,37,35,-27
1491694011872,1,34,-7,0,67,-110,6,16,82
1491694011872,1,-32,23,110,80,76,29,-90,-60
1491694011873,2,40,2,-85,-35,-128,9,38,23
1491694011873,2,-57,-91,-78,-115,-80,-65,-40,5
1491694011874,3,20,3,17,-1,72,35,-7,14
1491694011874,3,-8,16,49,48,20,-22,-3,31
1491694011875,0,0,50,121,61,120,75,102,-20
1491694011875,0,32,31,40,127,125,99,83,-47
1491694011905,1,-52,-63,-74,-76,-128,-121,-11,-29
1491694011905,1,3,38,74,28,78,127,53,-27
1491694011906,2,-49,-35,-64,-84,-111,-128,-107,-5
1491694011906,2,52,-44,-82,-103,-116,-26,-72,35
1491694011907,3,-13,-1,1,-17,98,83,31,4
1491694011907,3,-48,-26,-8,-68,-7,53,-8,-24
1491694011937,0,33,47,6,79,-22,-19,39,61
1491694011937,0,-25,2,88,38,79,-18,-17,-73
1491694011939,1,8,15,-2,36,-19,-96,-50,6
1491694011939,1,25,34,67,35,59,-2,37,-18
1491694011940,2,15,-3,-58,14,-78,-87,-51,32
1491694011940,2,-38,-88,-55,25,-88,69,-68,-4
1491694011970,3,-22,3,52,-30,47,-78,85,-17
1491694011970,3,0,25,34,-41,-29,-46,12,22
1491694011973,0,3,38,87,126,20,66,47,-11
1491694011973,0,3,-10,-60,-67,-21,-31,-76,-6
1491694011974,1,-3,13,53,54,81,127,5,-2
1491694011974,1,-5,-50,-128,23,-128,39,16,-1
1491694011975,2,-5,-34,87,-115,60,38,-52,12
1491694011975,2,33,91,75,72,112,-3,58,60
1491694012005,3,0,-11,3,92,-112,107,26,-52
1491694012005,3,-36,-42,-72,-79,-31,-89,-128,41
1491694012007,0,-10,-3,1,-26,98,87,80,-51
1491694012007,0,-19,14,31,60,-11,-74,100,-40
1491694012008,1,24,11,15,-18,27,70,49,15
1491694012008,1,-18,-13,-3,-69,14,2,13,-14
1491694012036,2,28,14,7,10,-128,-6,-24,26
1491694012036,2,-39,-17,-47,1,1,-90,-37,5
1491694012037,3,-12,-2,-68,-58,-108,78,-39,-24
1491694012037,3,50,-2,-28,-55,19,-55,-71,0
1491694012068,0,-43,-25,43,30,48,62,-2,-15
1491694012068,0,32,36,24,24,60,-51,11,-49
1491694012070,1,-26,-28,-103,-125,-80,-122,-18,10
1491694012070,1,1,-4,-20,-24,56,19,-9,-18
1491694012071,2,20,55,75,97,29,21,62,8
1491694012071,2,-18,8,-8,-14,-54,33,-17,40
1491694012072,3,-12,-34,-26,-111,-60,-32,55,-23
1491694012072,3,-18,15,62,107,49,-14,-57,-10
1491694012100,0,-41,-80,-97,-95,-63,-88,22,-43
1491694012100,0,57,-22,-54,-57,-38,125,29,70
1491694012102,1,20,11,15,-4,80,-80,-8,38
1491694012102,1,-48,14,53,54,53,108,59,-1
1491694012102,2,98,51,75,29,8,-27,-3,70
1491694012102,2,-21,25,-20,32,59,5,-18,-9
1491694012103,3,-6,-23,7,110,-63,21,36,16
1491694012103,3,5,-4,42,-4,20,42,19,1
1491694012133,0,-32,-26,-94,-117,-34,-12,-36,-55
1491694012133,0,-4,-29,43,25,-5,-19,-12,42
1491694012141,1,-8,6,-43,-79,10,87,-94,-32
1491694012141,1,-8,13,21,48,-14,1,13,-14
1491694012142,2,-22,-44,-15,1,78,-53,-14,16
1491694012142,2,3,37,59,95,-60,40,62,-11
1491694012165,3,4,46,119,63,96,-24,-60,-20
1491694012165,3,1,-19,-113,-117,-128,-110,-8,3
1491694012166,0,-19,-88,-82,-58,16,-48,-47,25
1491694012166,0,2,13,74,68,92,-38,-40,-38
1491694012167,1,38,51,9,-26,-78,42,44,46
1491694012167,1,-1,13,0,46,4,55,14,12
1491694012197,2,34,55,106,80,127,61,12,-17
1491694012197,2,-32,-71,-72,-70,-128,-84,-66,4
1491694012198,3,-25,-2,0,-65,103,15,13,-49
1491694012198,3,38,38,9,31,-88,-14,83,18
1491694012199,0,-33,-94,-128,-128,-105,-3,-55,-20
1491694012199,0,-7,-7,13,-28,79,-76,-23,0
1491694012230,1,1,1,68,38,24,-50,-7,11
1491694012230,1,5,18,-71,-56,56,92,19,3
1491694012230,2,6,11,-31,78,32,49,18,3
1491694012230,2,14,40,55,-1,8,85,24,2
1491694012231,3,2,20,-11,13,107,67,13,-1
1491694012231,3,-13,12,86,118,105,-34,-12,-18
1491694012232,0,41,30,20,17,-87,3,58,48
1491694012232,0,-51,-104,-127,-128,-66,-30,-96,-4
1491694012262,1,4,23,115,116,97,63,-22,-41
1491694012262,1,-3,-35,-42,-38,-70,-65,-29,25
1491694012263,2,-15,40,31,-16,18,34,-1,-29
1491694012263,2,27,52,66,59,54,127,75,33
1491694012264,3,0,-4,44,-2,49,-12,35,-27
1491694012264,3,14,-35,-93,-91,-126,-105,-10,13
1491694012295,0,-17,17,1,5,92,-18,-9,-44
1491694012295,0,1,25,98,102,-102,68,23,-19
1491694012295,1,-20,-76,-128,-117,-93,-13,-80,9
1491694012295,1,-6,14,122,48,36,-48,-18,1
1491694012296,2,-1,15,-12,-2,-4,-36,41,0
1491694012296,2,-5,-33,-100,-128,-45,86,10,-13
1491694012327,3,8,53,38,12,-17,-51,47,-9
1491694012327,3,1,-43,-38,-7,-128,-71,-24,22
1491694012328,0,-18,6,22,-9,53,-25,-43,-7
1491694012328,0,37,35,42,-4,60,45,59,16
1491694012329,1,6,17,-40,83,44,61,50,5
1491694012329,1,-23,-39,-78,-119,-34,-17,-28,-36
1491694012360,2,-12,-75,-47,-82,13,47,-114,25
1491694012360,2,-8,-13,-3,6,92,74,4,-5
1491694012361,3,-12,-11,6,1,-96,-107,-51,3
1491694012361,3,9,49,127,25,101,65,24,-22
1491694012362,0,-5,4,-35,34,-87,-24,7,13
1491694012362,0,1,-1,-37,40,-15,-20,29,6
1491694012392,1,7,-4,2,60,-42,22,0,36
1491694012392,1,1,-11,46,-5,-68,40,2,-5
1491694012393,2,-6,-5,-22,-106,-32,-72,-30,19
1491694012393,2,12,67,42,-39,17,60,56,-13
1491694012394,3,-31,-88,-85,-68,-45,-97,-69,-6
1491694012394,3,12,45,-32,-35,71,37,-6,-7
1491694012395,0,8,30,80,79,72,25,11,18
1491694012395,0,2,1,-53,-23,-47,-30,1,-6
1491694012425,1,0,6,-24,-49,58,127,26,-23
1491694012425,1,-50,-57,-93,-67,-101,-44,-52,-9
1491694012426,2,-1,-7,36,-63,62,110,1,-17
1491694012426,2,6,32,114,127,113,-6,13,-10
1491694012427,3,-4,1,-27,-24,-104,4,43,36
1491694012427,3,-23,-54,-92,-61,-30,-1,-14,-8
1491694012457,0,0,35,70,127,11,16,45,-5
1491694012457,0,-5,-76,-81,-79,-44,-70,-53,-14
1491694012490,1,7,18,42,43,64,24,29,-9
1491694012490,1,31,66,65,-47,92,26,74,16
1491694012497,2,-5,-62,-95,-47,-128,-80,-35,-11
1491694012497,2,-29,14,18,-33,9,-31,-41,-8
1491694012498,3,56,-11,-2,5,46,-4,24,31
1491694012498,3,5,7,39,18,-6,-1,10,10
1491694012500,0,-26,10,-18,8,38,5,18,-21
1491694012500,0,22,-1,-18,4,-1,66,1,8
1491694012526,1,-27,-31,54,-43,-34,-85,-41,-27
1491694012526,1,18,56,83,118,127,113,44,35
1491694012530,2,28,35,-56,-28,-64,-46,15,16
1491694012530,2,-22,-33,-25,-14,16,54,36,-16
1491694012555,3,-17,-22,8,11,0,-11,-4,4
1491694012555,3,16,-8,-12,31,-15,-19,-14,-25
1491694012556,0,11,53,82,20,14,9,21,53
1491694012556,0,10,-1,-43,-18,-21,-8,-24,-5
1491694012557,1,26,-20,-15,28,22,-18,-32,16
1491694012557,1,-29,-18,-49,-9,-37,18,-35,-46
1491694012587,2,-10,-33,-1,-9,47,31,4,-13
1491694012587,2,-9,-18,-21,-23,-64,-95,-47,1
1491694012589,3,-13,-18,91,47,24,31,20,5
1491694012589,3,-2,59,-45,-10,-2,2,-20,22
1491694012590,0,14,-2,-49,5,-24,24,1,17
1491694012590,0,-45,-10,7,9,57,41,9,-17
1491694012600,1,-5,21,-56,-45,-5,-76,-45,-12
1491694012600,1,-34,-22,3,34,107,79,19,-1
1491694012620,2,2,-18,-56,-19,-86,-34,-10,-2
1491694012620,2,-24,12,-87,-59,37,-49,-51,-2
1491694012622,3,-10,9,-128,-55,-59,-26,-22,18
1491694012622,3,40,-8,-98,18,-53,-14,4,-8
1491694012623,0,27,8,17,41,31,95,63,32
1491694012623,0,28,4,49,-4,31,2,21,19
1491694012624,1,38,52,106,28,21,10,-23,-4
1491694012624,1,-9,-17,72,-12,31,5,-9,-14
1491694012653,2,2,-34,73,90,66,-26,-24,-47
1491694012653,2,28,26,87,-19,-58,-42,20,45
1491694012654,3,25,-1,48,-25,-20,8,11,15
1491694012654,3,-26,-11,46,-30,-9,72,-20,-27
1491694012655,0,-32,12,40,-104,-12,-26,-10,-28
1491694012655,0,14,40,112,97,100,21,-13,27
1491694012656,1,-25,-23,65,-31,-57,10,39,-30
1491694012656,1,28,-52,110,12,-35,-76,-35,54
1491694012685,2,-28,29,106,12,-5,39,19,-13
1491694012685,2,-3,-27,68,32,-4,40,10,-20
1491694012815,3,-15,72,63,24,115,90,1,18
1491694012815,3,-8,-26,57,13,-52,-63,34,-3
1491694012817,0,-5,-61,-24,-26,22,-33,-35,-28
1491694012817,0,23,36,32,71,57,2,39,35
1491694012818,1,8,-27,-95,-69,66,10,23,4
1491694012818,1,-7,-7,-28,-6,-31,16,-16,-29
1491694012820,2,3,-11,18,15,-21,7,11,-19
1491694012820,2,5,-14,-75,-24,-31,-25,-33,11
1491694012848,3,19,3,30,55,3,31,16,-18
1491694012848,3,8,30,-17,9,-43,-42,-14,-10
1491694012850,0,40,57,2,-46,-66,-79,21,16
1491694012850,0,-22,-48,-14,14,20,78,23,-22
1491694012852,1,3,1,-30,-16,-76,-36,9,7
1491694012852,1,-3,-15,-15,4,49,-65,2,15
1491694012853,3,26,-16,-59,-16,59,7,-29,22
1491694012853,3,-13,-23,-16,1,15,-9,1,-3
1491694012881,0,-12,-24,-42,-42,-45,10,-26,-74
1491694012881,0,-6,13,8,-19,-72,-67,-13,8
1491694012883,1,-1,-4,57,50,82,47,-4,3
1491694012883,1,2,-20,-45,-9,-22,16,20,-6
1491694012884,2,9,62,59,63,26,-31,-7,15
1491694012884,2,-5,1,-25,-67,-73,-56,-30,-30
1491694012886,3,-1,0,16,-26,18,48,2,-37
1491694012886,3,13,1,26,7,-34,-31,-6,18
1491694012913,0,-4,3,-49,-5,-4,-13,-17,-3
1491694012913,0,7,9,77,64,126,92,0,-13
1491694012916,1,-8,1,-21,5,-48,-46,-6,8
1491694012916,1,8,-12,-3,-36,46,55,-56,10
1491694012917,2,7,-22,-33,-18,-91,-50,-16,0
1491694012917,2,-1,-2,18,13,90,71,21,32
1491694012918,3,-32,8,24,-11,-25,-21,-41,-94
1491694012918,3,44,38,-41,23,74,-35,25,81
1491694012946,0,0,-34,-27,-70,-76,33,0,37
1491694012946,0,3,30,37,62,48,-5,-6,9
1491694012947,1,-7,-39,-94,-80,-99,-4,-19,-14
1491694012947,1,-30,-4,64,30,69,22,5,-35
1491694012948,2,5,6,-16,-13,121,83,-23,-35
1491694012948,2,7,-31,-15,-58,-72,-90,6,71
1491694012950,3,-20,21,57,35,12,62,15,-4
1491694012950,3,27,-3,56,32,18,34,10,5
1491694012978,0,3,32,22,27,30,26,43,39
1491694012978,0,-17,-5,51,32,91,0,-9,-73
1491694012980,1,11,-55,-104,-81,52,64,63,33
1491694012980,1,-28,-8,-39,-16,-128,-91,-41,-16
1491694012981,2,3,13,22,-33,23,20,-4,14
1491694012981,2,21,23,-3,-44,27,32,62,26
1491694013010,3,-3,-19,25,53,7,19,2,10
1491694013010,3,-3,-5,30,6,-2,0,-8,-66
1491694013012,0,-16,-45,-22,-25,-72,-12,13,22
1491694013012,0,2,16,-14,-12,5,-14,-25,-9
1491694013013,1,-1,10,10,94,-79,42,51,-1
1491694013013,1,14,14,-32,-74,-70,78,-50,-29
1491694013043,2,-3,2,23,23,88,-115,-1,-37
1491694013043,2,-16,-55,-91,-40,-77,-29,-20,12
1491694013046,3,13,10,35,28,117,32,29,19
1491694013046,3,-12,-5,32,32,-48,-6,-7,-2
1491694013047,0,6,6,88,7,78,39,8,20
1491694013047,0,24,18,122,124,-52,45,44,13
1491694013048,1,-24,-13,88,-103,-96,-83,-54,-56
1491694013048,1,-18,-8,31,-42,-25,-58,-40,-53
1491694013075,2,9,-9,-25,-13,38,50,23,73
1491694013075,2,-3,27,-17,39,36,33,-19,1
1491694013077,3,7,33,-48,-13,-62,-56,5,23
1491694013077,3,-25,-43,-50,-38,81,75,47,-17
1491694013078,0,14,44,-32,101,12,-18,53,14
1491694013078,0,-22,-2,-109,-31,-86,-66,-28,-42
1491694013107,1,-20,-40,-98,-79,-93,-29,-45,20
1491694013107,1,6,-6,-65,-19,14,57,-17,7
1491694013110,2,-2,27,30,62,72,39,10,24
1491694013110,2,7,-13,-20,-35,-81,49,-33,-43
1491694013110,3,-23,26,5,28,5,28,-6,-4
1491694013110,3,13,-1,-26,15,103,-12,52,26
1491694013140,0,20,-3,-11,36,-66,50,14,-4
1491694013140,0,17,3,-37,109,-60,26,-11,12
1491694013141,1,-21,-44,-93,-120,-85,-50,-12,-29
1491694013141,1,3,2,27,19,88,-32,38,30
1491694013142,2,-8,-11,8,6,-12,44,-2,-22
1491694013142,2,5,42,70,-13,127,113,46,10
1491694013172,3,26,18,-11,57,57,-84,-40,8
1491694013172,3,8,25,49,90,65,-12,3,11
1491694013173,0,-10,-38,-90,-128,-128,11,-54,-2
1491694013173,0,-14,-47,10,-48,-67,-128,-16,-7
1491694013174,1,23,56,29,36,127,127,90,31
1491694013174,1,-45,-40,-31,-49,-128,-8,-10,-40
1491694013175,2,66,35,65,27,19,33,-18,3
1491694013175,2,-36,-6,-44,-7,-24,14,36,-25
1491694013205,3,9,-1,22,-2,11,-38,-33,36
1491694013205,3,20,18,-36,19,29,78,59,38
1491694013206,0,-17,-36,6,31,-34,-83,-52,-22
1491694013206,0,-4,-10,-50,-11,87,110,13,3
1491694013207,1,6,14,30,24,-72,89,1,-39
1491694013207,1,-26,-17,-42,-42,-2,-71,-102,-10
1491694013237,2,-27,-18,-43,-24,-94,-21,12,-48
1491694013237,2,-1,-27,-35,-99,44,-32,-32,40
1491694013238,3,23,10,4,65,36,46,16,38
1491694013238,3,7,-9,19,-3,-66,55,-31,18
1491694013239,0,-30,16,4,-16,57,1,-32,-55
1491694013239,0,8,4,-28,4,-13,-56,-17,9
1491694013270,1,-21,-19,17,21,39,-2,-2,-45
1491694013270,1,22,-8,7,-8,0,32,32,29
1491694013271,2,8,61,25,2,25,-55,27,-34
1491694013271,2,17,-11,35,12,-9,46,-55,15
1491694013272,3,2,15,45,28,18,-88,-57,7
1491694013272,3,-27,4,-21,-29,-28,49,85,29
1491694013302,0,-84,-60,-41,-41,-24,-94,-71,-94
1491694013302,0,55,-10,-46,-13,18,75,6,77
1491694013303,1,-51,5,2,-7,44,2,4,-80
1491694013303,1,28,13,4,-48,-27,-49,35,-57
1491694013304,2,-72,-13,10,73,95,66,14,-9
1491694013304,2,-49,-31,-5,-76,-128,-55,-8,-47
1491694013335,3,91,30,-23,-18,42,-37,18,91
1491694013335,3,-33,13,-1,43,70,17,-76,-59
1491694013336,0,52,2,53,44,44,88,68,93
1491694013336,0,-32,-35,-73,-71,-39,-124,-18,-22
1491694013337,1,30,-17,-11,-41,-19,21,-41,-49
1491694013337,1,0,-5,39,45,-17,-60,10,6
1491694013338,2,-28,-1,-2,-7,79,68,-52,-31
1491694013338,2,50,14,14,46,26,9,32,18
1491694013367,3,-19,-15,40,-25,-105,-8,21,20
1491694013367,3,-31,-23,-64,-81,-59,-69,-20,-23
1491694013368,0,19,-20,-4,10,9,-74,-60,2
1491694013368,0,-31,19,38,48,45,73,32,-30
1491694013369,1,-22,4,74,79,109,82,63,-1
1491694013369,1,13,25,-14,54,-98,-46,70,14
1491694013401,2,-8,-31,-61,-62,-74,5,-15,-25
1491694013401,2,19,-10,-32,-57,3,-23,-31,61
1491694013403,3,-27,11,1,-2,28,28,-10,-52
1491694013403,3,5,-7,27,24,23,20,6,56
1491694013404,0,15,10,13,21,48,-14,-1,25
1491694013404,0,-30,16,-8,55,-54,58,54,-47
1491694013432,1,-12,-27,-3,-43,-24,21,-16,-9
1491694013432,1,-31,8,-12,-3,30,-4,-15,-12
1491694013434,2,-36,-26,-57,-57,-66,-128,-57,-53
1491694013434,2,65,37,114,35,127,95,34,30
1491694013435,3,-35,0,-34,0,-108,-65,-12,-3
1491694013435,3,-10,-22,10,63,94,27,-31,-6
1491694013465,0,73,24,2,-44,-39,101,27,105
1491694013465,0,-74,-27,-18,-27,-48,-125,10,-48
1491694013465,1,66,7,3,3,92,-1,39,-5
1491694013465,1,-17,18,19,-47,-65,48,-94,-78
1491694013466,2,33,-9,7,28,-35,-67,11,94
1491694013466,2,-6,65,6,18,76,90,-8,1
1491694013467,3,1,-48,-49,-52,-128,-112,-89,16
1491694013467,3,32,14,40,45,103,-79,4,5
1491694013497,0,-5,-3,1,-3,-1,86,54,9
1491694013497,0,-1,11,30,14,13,50,-99,-8
1491694013498,1,-14,-9,-59,-65,-75,-91,-3,7
1491694013498,1,-16,1,-6,41,33,24,11,-18
1491694013500,2,6,-14,-8,-21,-13,73,72,68
1491694013500,2,-16,0,-19,-21,19,-42,-55,-32
1491694013533,3,-15,23,47,85,61,71,-41,-14
1491694013533,3,16,-6,3,-35,-3,101,-28,-20
1491694013534,0,-4,-18,-19,-37,-64,-90,42,9
1491694013534,0,6,0,10,13,11,22,15,-39
1491694013534,1,-10,-1,13,31,65,-13,-9,-22
1491694013534,1,44,9,-28,-78,6,77,69,68
1491694013562,2,-22,7,40,61,6,-34,-11,-61
1491694013562,2,89,-6,-33,-6,-104,-55,-48,22
1491694013563,3,-54,-38,-16,-27,21,66,-6,14
1491694013563,3,3,3,53,19,0,-94,-95,-26
1491694013564,0,29,34,-15,-42,35,79,53,58
1491694013564,0,-17,-18,-25,-8,0,-7,103,-11
1491694013627,1,-4,26,65,85,64,60,9,15
1491694013627,1,-29,21,-14,-26,-36,-18,-13,26
1491694013628,2,-14,-21,-35,-42,-26,-23,-36,-87
1491694013628,2,-53,-33,-6,-15,-18,-3,-15,-1
1491694013629,3,30,46,35,53,65,42,13,14
1491694013629,3,4,-24,-9,-31,-90,-69,28,32
1491694013630,0,13,34,59,19,55,94,-10,8
1491694013630,0,-29,-8,-44,-2,12,35,91,15
1491694013660,1,-12,-27,-13,-5,4,-75,-14,-32
1491694013660,1,-9,10,-2,25,26,99,34,-19
1491694013692,2,17,-4,32,-13,-3,-35,-101,20
1491694013692,2,4,2,28,-7,-57,-78,8,55
1491694013701,0,-1,27,16,-14,-103,-80,19,-13
1491694013701,0,7,28,47,81,127,48,-8,-85
1491694013701,1,4,-20,-9,-36,-128,-43,-12,44
1491694013701,1,26,-40,5,-26,-1,-73,-83,52
1491694013704,2,-58,-2,-27,10,70,76,89,-23
1491694013704,2,-12,-4,-12,-30,-61,-8,-20,3
1491694013725,3,-35,-10,-27,25,52,-81,33,-17
1491694013725,3,-26,18,36,17,-42,39,-17,10
1491694013726,0,-7,-8,-51,14,69,-32,-10,26
1491694013726,0,51,16,3,2,-37,21,-2,11
1491694013727,1,-69,-14,18,-65,-66,57,40,-4
1491694013727,1,15,36,-78,-75,37,-33,-48,-49
1491694013730,2,-5,-44,-50,79,41,-52,-26,-28
1491694013730,2,-15,17,96,-8,-29,15,-35,-75
1491694013790,3,28,4,-54,-80,-4,-54,-23,113
1491694013790,3,65,-57,7,29,-29,25,-3,57
1491694013792,0,-5,43,85,47,79,91,21,-79
1491694013792,0,-50,-19,-44,10,-51,-39,-3,-21
1491694013793,2,2,-23,80,12,-86,-26,-11,-14
1491694013793,2,13,-43,-75,-25,41,-21,-4,97
1491694013795,3,-29,25,19,60,26,82,30,-61
1491694013795,3,-24,-9,32,-48,-103,-113,-25,-86
1491694013823,0,31,9,-10,-20,-30,-17,-83,66
1491694013823,0,40,29,21,-22,40,35,9,-18
1491694013824,1,-28,-30,-34,34,32,-9,-11,7
1491694013824,1,-15,-6,6,48,-47,-37,7,-83
1491694013825,2,-18,-21,29,-40,53,64,47,70
1491694013825,2,-2,-24,10,84,-35,-19,-18,-27
1491694013826,0,8,-14,-27,-110,-118,-75,-51,-90
1491694013826,0,-25,-28,-20,53,127,57,59,-42
1491694013888,1,28,47,86,44,-43,114,33,2
1491694013888,1,-18,-14,-5,32,-60,-73,-24,-1
1491694013890,2,-4,-25,5,-3,62,44,14,-24
1491694013890,2,-18,-9,-51,-96,-127,-120,-98,28
1491694013892,3,42,42,118,101,109,123,59,-73
1491694013892,3,-13,-14,-23,12,-65,-85,62,10
1491694013920,0,-35,-26,-113,-88,-64,72,-27,8
1491694013920,0,37,22,105,50,48,-50,1,9
1491694013921,1,-32,18,-104,-128,-59,30,-52,-44
1491694013921,1,16,-7,96,-10,106,51,-15,-52
1491694013923,2,29,57,5,74,38,43,89,66
1491694013923,2,-29,-26,-16,17,-39,-23,-18,-55
1491694013924,3,2,-4,75,99,76,-110,-77,53
1491694013924,3,-22,7,-33,-55,-43,122,31,-19
1491694013953,2,-19,-3,1,101,67,92,-52,-29
1491694013953,2,33,22,-29,-54,-86,-4,-11,62
1491694013956,3,-31,-49,-87,-3,-12,57,4,-89
1491694013956,3,5,27,-29,19,94,-90,-20,75
1491694013959,1,-7,-13,60,53,-91,70,24,-24
1491694013959,1,3,13,-10,79,-128,-128,20,29
1491694013960,2,15,39,61,46,-38,6,-25,-6
1491694013960,2,-43,-24,19,-32,68,88,-5,-62
1491694013985,3,-51,-57,-103,-125,-92,-105,-27,14
1491694013985,3,12,-5,22,57,66,100,8,-35
1491694013987,0,-5,-5,53,-12,37,-54,-30,-14
1491694013987,0,51,29,34,17,2,98,86,24
1491694013988,1,-21,15,28,-110,-54,-112,-38,44
1491694013988,1,3,-9,54,-28,127,45,0,-23
1491694013989,2,-15,22,33,101,6,71,-5,-32
1491694013989,2,0,-40,-69,-79,-64,-107,-26,-9
1491694014018,3,19,4,34,6,110,59,50,-10
1491694014018,3,6,-17,-105,-44,-84,46,-4,53
1491694014019,0,10,32,24,-22,85,26,37,13
1491694014019,0,56,62,58,127,97,-105,-72,-12
1491694014021,1,26,36,-63,-47,109,100,118,-13
1491694014021,1,-33,-64,-25,-83,-108,-128,-83,22
1491694014022,2,-53,-102,-128,-128,0,-61,-54,-51
1491694014022,2,12,12,44,11,68,-43,-9,-3
1491694014051,3,7,36,64,114,68,32,0,17
1491694014051,3,45,57,82,95,127,127,59,19
1491694014052,0,-16,-22,-44,-25,-128,-82,10,-11
1491694014052,0,-43,-80,-100,-112,-59,-24,-73,-19
1491694014053,1,70,106,114,66,97,-21,29,27
1491694014053,1,-47,-57,-112,-98,-98,-78,-22,17
1491694014083,2,28,-31,28,107,82,33,12,35
1491694014083,2,-39,4,-10,-76,-37,-103,-48,-79
1491694014084,3,-19,-30,43,-23,-36,80,92,72
1491694014084,3,27,95,116,22,91,51,86,-53
1491694014085,0,-14,-54,-125,-69,-128,-79,-65,28
1491694014085,0,8,-11,29,-59,92,91,-6,5
1491694014115,1,-9,47,56,101,68,-42,-58,-29
1491694014115,1,32,37,58,25,-93,2,29,-6
1491694014117,2,-73,-73,-53,-116,-77,127,-19,-2
1491694014117,2,25,15,39,127,-23,-53,-3,7
1491694014118,3,-57,-53,-102,-109,-73,-32,-46,10
1491694014118,3,31,90,101,94,109,83,69,-23
1491694014119,0,-15,47,-21,127,-10,-87,-51,3
1491694014119,0,31,-43,-66,-4,-128,16,96,68
1491694014181,1,-38,-75,-76,-41,-107,0,-34,-16
1491694014181,1,-6,-19,18,-59,19,-5,-69,-42
1491694014183,2,13,42,47,18,126,113,19,-10
1491694014183,2,-3,37,72,100,114,14,6,18
1491694014184,3,23,62,37,104,11,63,47,-27
1491694014184,3,-14,-91,-128,-59,-128,-39,13,62
1491694014185,0,25,-17,-59,-94,-13,-105,-28,2
1491694014185,0,14,15,36,-12,70,75,65,2
1491694014212,1,-1,33,72,36,94,31,20,12
1491694014212,1,-34,-71,-91,16,-55,-53,-73,-38
1491694014213,2,45,-5,2,-54,-12,34,9,31
1491694014213,2,-7,44,56,-128,27,109,13,-22
1491694014214,3,-43,-60,-100,-38,-52,-87,-27,-24
1491694014214,3,25,83,121,-54,93,81,52,-10
1491694014215,0,-12,-60,-93,-47,-113,-73,-26,11
1491694014215,0,-4,6,3,-34,82,127,37,21
1491694014245,1,-14,-10,6,65,-92,-79,-52,-43
1491694014245,1,-14,38,69,81,115,72,-1,-5
1491694014246,2,43,73,62,38,8,-53,112,1
1491694014246,2,-28,-67,-90,-77,-75,30,-77,6
1491694014247,3,-5,6,103,-36,113,-22,-42,3
1491694014247,3,20,-44,-96,36,16,9,70,1
1491694014247,0,8,27,51,-58,-15,127,-3,32
1491694014247,0,-19,48,-53,79,-75,-128,-48,-5
1491694014310,1,-1,-101,-118,-128,-126,-3,-101,30
1491694014310,1,-3,7,57,-14,97,64,9,-3
1491694014312,2,34,90,127,118,122,-63,85,29
1491694014312,2,-46,-53,-90,26,-118,-74,-6,-76
1491694014313,3,8,-48,12,-47,65,96,-20,18
1491694014313,3,3,30,-1,19,29,32,18,-13
1491694014314,0,-8,-12,20,56,81,-18,23,19
1491694014314,0,11,32,104,55,36,-58,-3,24
1491694014343,1,7,20,24,61,4,42,10,-25
1491694014343,1,2,-15,-26,9,48,-18,-10,23
1491694014344,2,-3,-41,-98,-46,-81,54,-19,10
1491694014344,2,-20,-34,15,-40,81,-70,-38,-11
1491694014345,0,-20,-34,-59,-41,-92,-118,-31,-48
1491694014345,0,-17,-86,-85,-76,-117,-51,-12,54
1491694014381,1,-12,-9,52,2,7,21,-1,-17
1491694014381,1,12,38,21,31,-8,-28,-16,0
1491694014383,2,10,95,113,124,127,127,69,-12
1491694014383,2,0,-17,-34,-51,-79,-91,-62,13
1491694014386,3,59,74,104,120,127,96,127,26
1491694014386,3,-39,-106,-128,-128,-128,-128,-96,37
1491694014387,0,-33,-43,91,-33,57,14,-74,-35
1491694014387,0,15,49,122,117,127,-11,17,-15
1491694014408,1,-26,27,12,33,104,-46,-13,6
1491694014408,1,19,0,61,23,-60,24,-4,20
1491694014410,2,19,-37,-11,83,73,71,38,-13
1491694014410,2,11,67,2,-32,-82,-5,0,-16
1491694014411,3,-5,-5,-69,-71,-108,-92,-58,11
1491694014411,3,18,111,83,-19,99,76,87,-27
1491694014412,0,-38,-103,-128,-115,-128,-128,-98,31
1491694014412,0,-16,-2,51,-18,66,35,-52,-21
1491694014440,1,-12,-11,57,60,42,74,46,-15
1491694014440,1,-26,3,-37,5,79,64,0,-32
1491694014442,2,35,111,86,101,127,75,76,25
1491694014442,2,-2,-10,-14,99,63,127,79,-22
1491694014443,3,-14,-79,-91,-49,-128,-128,-112,-1
1491694014443,3,-27,-86,-82,-80,-39,62,-17,-11
1491694014444,0,25,50,74,58,64,90,53,8
1491694014444,0,-10,-14,5,-65,-55,0,-2,-3
1491694014472,1,8,51,120,75,127,100,59,-23
1491694014472,1,-24,-61,-110,-62,-128,-74,-33,16
1491694014474,2,-17,-43,-13,-36,-37,-85,-48,-5
1491694014474,2,19,-6,-5,-19,58,67,54,25
1491694014475,3,-11,44,61,45,68,96,77,-26
1491694014475,3,34,-14,20,38,30,-18,28,30
1491694014505,0,-17,5,8,-8,-33,-78,-95,-23
1491694014505,0,-12,5,-82,-59,-64,-69,-107,-50
1491694014506,1,26,-71,-45,-27,7,93,25,42
1491694014506,1,-18,-24,-18,44,-84,-95,-43,-9
1491694014507,2,6,70,2,6,-59,97,38,-1
1491694014507,2,-24,21,43,46,-12,-49,-50,8
1491694014537,3,15,-16,-32,18,25,11,-6,8
1491694014537,3,8,-17,-40,-48,1,2,0,1
1491694014570,0,13,22,98,65,62,-74,-44,-19
1491694014570,0,-10,-37,-32,-34,-63,27,12,-21
1491694014572,1,-21,29,35,30,66,38,-24,-28
1491694014572,1,-7,89,-62,-75,-65,-84,-48,-15
1491694014573,2,-12,-11,-12,-24,-29,19,55,-6
1491694014573,2,30,44,-27,45,127,127,19,29
1491694014573,3,-32,-25,-128,-31,-128,-89,-32,-2
1491694014573,3,21,18,-59,99,127,103,35,6
1491694014602,0,-16,-64,-63,-101,-128,-110,-9,-22
1491694014602,0,-10,-10,50,-25,-6,16,33,-4
1491694014603,1,24,0,55,-8,8,79,30,28
1491694014603,1,-7,41,118,-26,-68,-60,-25,-25
1491694014604,2,5,-13,17,52,108,102,21,27
1491694014604,2,8,-49,87,40,22,-2,-31,-9
1491694014605,3,-15,33,18,-120,-98,4,8,-11
1491694014605,3,-10,18,70,22,23,-49,-16,-7
1491694014732,0,4,-2,25,-13,-58,-22,-13,-26
1491694014732,0,59,0,23,100,99,74,118,71
1491694014733,1,-12,22,39,46,7,-17,-57,-17
1491694014733,1,-6,-35,17,-88,-67,-40,-47,21
1491694014734,2,-12,-13,66,-19,49,86,24,-17
1491694014734,2,-10,40,102,-10,-61,-48,-20,-1
1491694014735,3,-10,-109,29,19,29,-30,24,5
1491694014735,3,13,77,117,52,88,51,4,23
1491694014765,0,1,-25,38,-10,-45,-33,-24,-28
1491694014765,0,8,2,14,-7,24,-11,7,18
1491694014766,1,2,-49,-47,-90,-82,-80,-18,-27
1491694014766,1,-23,-35,8,12,-41,73,8,-18
1491694014766,2,16,27,7,46,32,-55,-5,8
1491694014766,2,-15,-13,-13,-26,97,107,39,-3
1491694014767,2,9,19,30,26,108,54,-3,20
1491694014767,2,-4,10,-35,31,42,0,-34,11
1491694014898,3,-18,-29,9,-41,-128,-29,18,-32
1491694014898,3,-4,-20,-64,-40,-2,-38,-49,10
1491694014899,0,-1,25,49,45,31,48,-6,10
1491694014899,0,4,19,-43,-36,1,-7,-4,-2
1491694014900,1,-3,26,33,20,34,20,-26,13
1491694014900,1,14,8,52,82,72,43,3,-1
1491694014900,2,-6,-13,-25,-40,-108,-33,-7,3
1491694014900,2,1,14,53,52,62,48,27,18
1491694014927,3,-11,18,-2,6,106,70,13,-7
1491694014927,3,7,-50,-35,-90,-79,-45,26,10
1491694014928,0,-18,18,56,93,108,26,-8,-31
1491694014928,0,10,-36,-100,-104,-111,-58,11,34
1491694014929,1,-16,5,-37,-18,52,51,-31,-46
1491694014929,1,-5,-15,4,16,-36,-38,-6,-15
1491694014930,2,-6,56,-51,-43,12,-21,5,19
1491694014930,2,5,-37,-68,7,-24,-62,-43,-48
1491694014960,3,-24,4,-53,-38,86,95,7,-12
1491694014960,3,2,-5,-69,44,68,-67,29,3
1491694014961,0,3,-32,-125,1,-125,-5,45,13
1491694014961,0,21,21,-74,-75,14,-22,-81,-3
1491694014961,2,-6,-8,7,-10,36,-16,-35,-4
1491694014961,2,-36,-14,-53,79,-46,-57,-2,-11
1491694014992,3,-18,-9,-101,-123,-128,-18,-92,-26
1491694014992,3,-19,27,64,43,124,80,-7,20
1491694014993,0,-23,-14,-44,-19,-105,-23,11,-9
1491694014993,0,-7,35,7,2,45,120,47,-13
1491694014994,1,-17,12,51,44,83,22,47,-24
1491694014994,1,-12,-3,-25,-46,-94,-64,-4,7
1491694014999,2,4,15,39,-40,90,45,-8,-38
1491694014999,2,-43,-7,-52,-57,5,61,-21,-39
1491694015025,3,-14,-51,-63,-15,-40,-89,-34,-13
1491694015025,3,26,45,36,47,75,45,30,26
1491694015026,0,4,-31,-12,-3,-126,-121,-15,10
1491694015026,0,-23,-26,-26,-87,-23,-25,-10,-32
1491694015026,1,-34,-11,-15,-12,11,-11,-55,-46
1491694015026,1,17,26,26,31,17,-13,-50,34
1491694015027,2,-3,-11,-40,4,-32,19,32,-15
1491694015027,2,10,16,18,14,48,-60,-2,-15
1491694015090,3,-21,-37,-23,-21,-116,0,32,15
1491694015090,3,-14,10,24,11,8,-66,-67,-50
1491694015091,0,16,6,-67,-54,-41,-12,2,21
1491694015091,0,22,8,39,70,36,28,20,11
1491694015092,1,1,2,-25,-29,81,55,-20,34
1491694015092,1,10,17,31,15,-63,-82,27,-6
1491694015093,2,-26,-16,-9,-7,29,127,0,-29
1491694015093,2,5,-8,-21,-6,-128,-114,-34,10
1491694015123,3,13,-19,17,-10,42,-12,-37,-4
1491694015123,3,-9,8,21,63,84,97,43,15
1491694015125,0,28,-1,-49,-52,-56,7,35,25
1491694015125,0,-11,-31,-30,12,-7,-43,-7,-12
1491694015126,1,10,-12,9,-51,-38,-41,-8,1
1491694015126,1,-3,28,-15,-59,111,46,27,29
1491694015127,2,-17,8,24,86,-69,-62,-65,-48
1491694015127,2,46,20,57,3,39,74,2,63
1491694015160,3,2,53,25,81,44,-77,-10,-3
1491694015160,3,-9,-36,-22,-24,-32,14,28,-34
1491694015161,0,25,27,6,7,44,-37,61,66
1491694015161,0,-14,-41,-28,-57,-69,-25,-22,-26
1491694015162,1,-6,15,31,39,67,18,7,1
1491694015162,1,1,23,15,-49,-64,72,-34,-43
1491694015164,2,7,-69,-70,-34,-75,-82,-30,86
1491694015164,2,-49,-44,-41,-65,-64,80,1,-86
1491694015187,3,34,25,-8,-115,49,89,42,27
1491694015187,3,-30,-33,40,121,-114,-79,-58,-44
1491694015189,0,-8,32,42,16,88,92,30,-29
1491694015189,0,39,32,44,13,59,14,41,55
1491694015191,1,-1,5,65,63,33,76,9,-17
1491694015191,1,13,-18,-50,-23,116,-42,10,20
1491694015192,2,-33,-40,-40,-45,-72,-25,-25,-2
1491694015192,2,25,26,11,2,38,-59,-21,19
1491694015220,3,-17,-19,5,73,44,93,52,-55
1491694015220,3,-7,-19,-39,-56,-103,2,-19,42
1491694015222,0,26,52,27,21,19,-76,-10,-32
1491694015222,0,-38,-17,63,50,56,57,7,-8
1491694015223,1,46,17,-71,-48,-92,-128,-22,31
1491694015223,1,19,11,1,15,81,29,51,57
1491694015225,2,-8,26,73,10,101,127,-6,-48
1491694015225,2,-21,-43,-70,-16,-103,-87,7,19
1491694015253,3,-11,-32,44,1,-44,-24,-48,-4
1491694015253,3,-11,-22,-84,-77,-28,-26,-17,-42
1491694015257,0,46,28,20,-13,57,42,43,77
1491694015257,0,-18,31,34,23,112,36,-14,-55
1491694015258,1,-3,4,-10,71,-91,-29,31,22
1491694015258,1,16,-17,-1,-13,34,58,14,0
1491694015285,2,-16,-6,-16,-8,-50,4,-13,-47
1491694015285,2,20,50,-1,-47,21,-30,-8,80
1491694015286,3,4,-2,69,80,50,2,29,-7
1491694015286,3,-6,-21,-71,-95,-80,-71,23,-12
1491694015287,0,-30,-22,16,-23,-37,-17,-94,-69
1491694015287,0,-2,-45,10,32,55,34,33,-17
1491694015317,1,2,-9,-21,8,-109,-63,13,4
1491694015317,1,10,23,5,39,21,52,37,70
1491694015318,2,21,-28,-8,-7,34,-50,-31,13
1491694015318,2,-54,7,-1,2,-38,11,-37,-37
1491694015319,3,83,-4,11,-21,46,28,13,27
1491694015319,3,-21,6,23,25,71,9,13,-69
1491694015350,0,-20,-21,-45,70,-41,17,26,-1
1491694015350,0,17,28,46,-29,-5,2,-45,23
1491694015351,1,-48,-20,-94,-52,-100,7,-41,-67
1491694015351,1,-3,37,67,-82,22,-48,-47,-12
1491694015351,2,-9,-11,-48,98,-17,-67,52,-34
1491694015351,2,-11,-2,-16,-10,75,-5,16,-24
1491694015352,3,-10,-27,-18,-84,-16,92,42,23
1491694015352,3,23,-4,12,-22,-117,-73,-86,-15
1491694015382,0,-31,-2,-7,-24,71,45,28,12
1491694015382,0,34,28,36,55,52,17,14,30
1491694015415,1,0,-29,-39,-61,-93,-24,-6,-31
1491694015415,1,-25,-3,-2,11,17,105,35,-29
1491694015415,2,31,37,104,-6,66,29,0,7
1491694015415,2,-5,-51,-123,3,-118,5,37,21
1491694015416,3,-26,17,15,-30,111,-85,-58,-32
1491694015416,3,7,-1,64,68,34,77,43,24
1491694015418,0,-8,-15,-43,-41,-35,-110,-34,-19
1491694015418,0,13,27,65,3,58,27,37,-14
1491694015447,1,23,-4,-84,-44,-75,-15,-27,3
1491694015447,1,-34,-31,-42,-70,-122,2,-2,-39
1491694015448,2,1,37,-4,-30,-7,-1,-55,17
1491694015448,2,6,2,46,101,86,54,23,1
1491694015448,3,-9,25,27,-27,-24,-33,-11,29
1491694015448,3,26,-11,31,57,30,29,-2,-20
1491694015450,0,5,-17,10,-3,-24,-47,-64,42
1491694015450,0,-7,15,6,-4,-37,-14,-4,-17
1491694015480,1,-35,17,17,59,49,25,15,-41
1491694015480,1,0,24,41,18,-29,47,67,0
1491694015481,2,-18,-80,-63,-46,3,-28,-79,16
1491694015481,2,-2,-8,-11,-58,39,41,13,-43
1491694015481,3,-34,-18,-20,-14,70,7,-42,-8
1491694015481,3,29,41,44,41,10,48,-3,55
1491694015482,0,-22,-34,-31,34,65,16,85,-12
1491694015482,0,21,17,2,-77,-128,-25,14,-3
1491694015512,1,-23,21,26,17,-33,-11,14,16
1491694015512,1,28,10,27,-3,125,40,-6,9
1491694015513,2,-11,-4,-8,32,-98,80,44,25
1491694015513,2,-15,-62,-50,-72,-44,-66,-48,31
1491694015514,3,-22,0,59,2,65,43,-3,-77
1491694015514,3,20,17,-38,-58,-5,-90,-15,47
1491694015577,0,9,33,-20,-4,-18,79,57,-7
1491694015577,0,-18,-12,32,20,-16,-62,-72,0
1491694015578,1,50,29,-36,-45,3,15,22,79
1491694015578,1,-31,-31,-39,-8,-21,-21,-29,-78
1491694015579,2,-11,7,67,0,59,14,-74,-34
1491694015579,2,24,13,-13,103,-56,-68,21,10
1491694015610,3,-1,-34,36,-25,-47,33,-53,-3
1491694015610,3,-30,1,-10,49,82,-32,-56,-30
1491694015611,0,6,-24,-21,-74,-23,33,65,50
1491694015611,0,-26,13,28,31,65,-13,-74,-46
1491694015611,1,28,22,13,21,42,-6,9,35
1491694015611,1,-27,-48,-91,22,-82,-4,-27,-4
1491694015612,2,-9,0,14,-9,89,39,-53,-72
1491694015612,2,-15,4,15,-25,-90,-78,-28,51
1491694015642,3,-21,-17,55,81,13,76,34,-45
1491694015642,3,-9,-23,-56,-62,13,-23,58,0
1491694015644,0,-5,-10,-39,4,7,-57,74,5
1491694015644,0,5,4,-24,-40,-28,31,-2,5
1491694015645,1,-3,-5,10,2,56,70,28,-35
1491694015645,1,10,17,71,-1,-37,21,2,-3
1491694015645,2,3,-16,-45,-42,-65,-58,-107,12
1491694015645,2,0,-7,10,-55,88,3,8,29
1491694015740,3,4,-16,-51,-39,-90,-52,-30,33
1491694015740,3,-15,17,51,105,127,81,44,-12
1491694015742,0,-25,10,35,-50,-20,-46,-72,14
1491694015742,0,47,17,-24,77,-39,66,24,-55
1491694015743,1,-5,-28,-73,-89,-36,-88,-6,51
1491694015743,1,4,0,-1,-13,-32,-38,14,-6
1491694015744,2,13,53,30,82,52,-38,-12,-27
1491694015744,2,6,-3,51,-42,39,11,-31,36
1491694015773,3,-28,-18,-64,-9,-44,27,-4,-68
1491694015773,3,39,35,-5,-35,-18,-58,39,86
1491694015774,0,5,-4,16,9,1,-2,67,-65
1491694015774,0,-23,0,3,103,127,-11,72,-19
1491694015805,1,32,43,56,-59,-61,79,33,41
1491694015805,1,-22,-48,-34,-63,-104,-96,-103,22
1491694015807,3,21,67,122,115,112,35,50,47
1491694015807,3,-18,-65,-95,-116,-100,-88,-42,-4
1491694015808,0,19,-16,25,-23,59,-9,-64,-31
1491694015808,0,15,41,-23,47,-21,-40,59,12
1491694015810,1,-44,-53,23,-94,-35,-23,-44,26
1491694015810,1,-2,4,17,-3,-41,113,12,-64
1491694015871,2,-15,-6,-24,16,16,-99,-16,60
1491694015871,2,-1,-16,8,-16,30,81,-42,-77
1491694015873,3,4,58,15,64,-2,-61,27,-1
1491694015873,3,8,36,48,-6,127,108,13,31
1491694015935,0,-3,-73,-59,30,-128,-96,15,-1
1491694015935,0,15,-15,-48,-128,-12,53,-22,19
1491694015937,1,-46,-2,20,64,127,-18,93,-94
1491694015937,1,5,-23,16,70,32,101,50,54
1491694015939,2,14,65,6,24,-61,-47,3,-22
1491694015939,2,-1,-15,44,4,-43,-15,66,23
1491694015968,3,5,-54,-74,-76,-13,-19,-53,21
1491694015968,3,-7,33,82,109,121,-5,43,-9
1491694015971,0,10,-2,-30,-107,-76,0,-44,3
1491694015971,0,-5,-27,-5,-77,71,-2,7,-10
1491694015973,0,-7,-32,10,7,20,87,9,-3
1491694015973,0,-5,19,48,-38,-69,78,21,25
1491694015974,1,-13,4,-66,-111,5,11,5,-19
1491694015974,1,10,-43,-28,12,-116,-73,-45,-28
1491694016001,2,-23,-26,9,-40,-91,36,43,-11
1491694016001,2,-8,-10,-33,47,81,64,86,-54
1491694016065,3,19,-6,-37,70,-69,-7,10,5
1491694016065,3,-18,-33,-45,-55,-76,0,-41,9
1491694016066,1,4,-26,-2,-119,34,10,-30,38
1491694016066,1,20,75,93,108,33,34,49,-25
1491694016066,2,-23,-29,-58,-48,-108,64,-17,20
1491694016066,2,-19,-15,28,76,124,-31,-34,-33
1491694016067,3,-21,-58,-72,-53,-91,-128,-128,-12
1491694016067,3,-22,-1,98,56,59,23,39,-14
1491694016097,0,-11,-18,-99,-82,57,62,26,-33
1491694016097,0,-23,-35,27,32,-110,60,-105,10
1491694016098,1,66,47,64,-19,123,43,32,46
1491694016098,1,-10,-4,-30,35,-62,-16,74,-13
1491694016099,2,-18,-21,29,20,-50,38,-25,-33
1491694016099,2,33,-3,-55,-105,-29,-85,21,64
1491694016100,3,61,10,32,87,108,34,115,43
1491694016100,3,7,3,-71,-25,-82,-10,-53,11
1491694016130,0,-8,33,91,-74,36,71,33,9
1491694016130,0,20,-40,-96,-68,-59,46,-36,17
1491694016131,1,-12,4,-15,-98,-86,6,-64,-37
1491694016131,1,-33,-70,-94,-122,-106,-34,-40,14
1491694016132,2,32,51,65,23,82,-17,43,7
1491694016132,2,6,5,12,127,-59,-128,-19,0
1491694016132,3,-20,-30,-57,-87,77,48,12,19
1491694016132,3,30,3,41,-13,101,54,17,-28
1491694016162,0,-24,18,-35,-27,-25,-16,-22,-17
1491694016162,0,-6,26,73,-13,-10,-25,-66,-12
1491694016164,1,26,61,68,127,24,-61,19,37
1491694016164,1,-27,-38,-80,-123,-41,9,12,-6
1491694016166,2,13,-13,71,85,-4,20,25,-11
1491694016166,2,-31,-27,-25,-26,-26,39,25,3
1491694016171,3,-8,5,39,59,-113,-83,-53,-12
1491694016171,3,6,7,-10,-37,22,-23,-57,6
1491694016195,0,1,12,30,69,90,92,66,-8
1491694016195,0,10,11,-23,48,-94,-69,24,7
1491694016197,1,-50,-33,-56,-128,-34,33,-29,-41
1491694016197,1,43,123,127,127,110,127,75,10
1491694016198,2,-23,-107,-128,-70,-128,-98,-99,3
1491694016198,2,11,11,46,-47,85,122,-2,-16
1491694016200,3,-4,-2,1,-42,-4,-19,66,4
1491694016200,3,-7,-14,-2,-81,-105,-51,-88,8
1491694016228,0,9,26,52,47,103,36,-30,-10
1491694016228,0,23,33,13,96,-88,-47,106,5
1491694016230,1,-70,-113,-110,-128,-119,-77,-58,-33
1491694016230,1,19,17,66,50,123,32,55,14
1491694016232,2,11,17,-10,46,-2,45,63,-1
1491694016232,2,5,41,76,-12,121,50,40,-13
1491694016260,3,-7,-6,13,117,100,8,9,-3
1491694016260,3,19,-20,-62,-70,31,-106,9,-6
1491694016261,0,-15,-13,-21,65,-61,-128,-107,-3
1491694016261,0,-26,-49,-79,-62,-53,80,45,-37
1491694016263,1,-13,-7,38,52,104,26,-31,-17
1491694016263,1,2,2,-54,-41,-64,43,13,8
1491694016292,2,-14,-19,-53,-40,-26,-114,-117,23
1491694016292,2,-23,37,64,-40,73,61,-29,-33
1491694016294,3,20,22,-31,46,53,82,100,6
1491694016294,3,11,-13,53,77,16,33,-17,2
1491694016295,0,10,14,76,44,19,92,127,17
1491694016295,0,-18,-55,-33,18,-66,-51,-63,2
1491694016297,1,1,-13,-85,-127,-74,22,-10,24
1491694016297,1,3,3,19,70,34,52,6,-11
1491694016325,2,-3,52,102,-6,88,60,55,-14
1491694016325,2,11,-20,-104,41,-59,-63,-7,22
1491694016327,3,-7,-31,28,-18,64,-15,-96,-13
1491694016327,3,6,80,101,104,105,112,86,-20
1491694016328,0,-15,-60,-60,-7,-110,-2,1,-1
1491694016328,0,-12,-21,-4,-93,42,14,-16,7
1491694016357,1,23,19,59,57,26,64,43,24
1491694016357,1,-30,-34,-61,-38,-109,-123,-71,-13
1491694016359,2,12,127,127,110,127,127,112,-13
1491694016359,2,8,-65,-113,9,-127,-58,1,17
1491694016360,3,-22,-39,-62,-92,-90,-118,-88,-21
1491694016360,3,-2,30,119,73,116,74,76,-7
1491694016390,0,3,-26,-55,18,-128,-87,-7,-3
1491694016390,0,4,48,124,4,127,97,-7,-8
1491694016391,1,21,58,62,100,-112,4,-26,17
1491694016391,1,-37,-86,-114,-54,-101,-80,-56,-27
1491694016393,2,20,-4,-21,-85,98,-29,-92,7
1491694016393,2,-14,-15,-13,-69,-7,-60,-12,-21
1491694016422,3,14,41,-3,37,66,87,113,-3
1491694016422,3,38,101,94,111,-37,73,124,21
1491694016424,0,-45,-128,-128,-128,-128,-112,-93,-24
1491694016424,0,-9,83,127,127,127,119,5,-38
1491694016428,1,-5,-53,-57,-36,-128,-59,17,5
1491694016428,1,-13,8,-25,-92,67,46,-1,5
1491694016431,2,22,48,82,97,6,95,122,41
1491694016431,2,-16,-115,-116,-128,-89,-81,-51,-4
1491694016520,3,-34,75,79,25,42,-18,23,-18
1491694016520,3,54,-22,-69,23,-76,-2,18,40
1491694016522,0,-1,13,-13,-72,-100,26,-6,16
1491694016522,0,20,17,47,9,57,-12,-5,-8
1491694016524,1,4,-100,-107,-104,-128,-67,-87,43
1491694016524,1,-28,-4,55,-47,103,46,-70,-15
1491694016525,2,5,55,94,70,100,33,74,-18
1491694016525,2,-19,-22,-74,-74,78,-7,-75,-24
1491694016553,3,13,-18,36,-29,-3,-30,-23,1
1491694016553,3,-58,-124,-119,-120,-113,-86,-86,-48
1491694016585,0,-48,-61,13,-58,122,-42,-58,-27
1491694016585,0,20,-20,-52,9,-94,59,5,53
1491694016587,1,28,105,116,107,127,84,-51,7
1491694016587,1,20,87,-7,-30,-44,90,34,48
1491694016588,0,-6,78,73,34,35,-42,40,32
1491694016588,0,-49,-41,-70,-50,-82,-65,-66,-26
1491694016589,1,-35,22,57,-10,41,40,85,-28
1491694016589,1,-12,20,74,88,102,-36,13,-10
1491694016617,2,5,-45,-38,2,-108,23,4,-9
1491694016617,2,41,-8,4,43,40,-32,-29,52
1491694016619,0,51,-107,-34,-23,27,2,-2,19
1491694016619,0,18,127,63,56,47,74,49,12
1491694016651,1,-36,-104,-105,-42,64,42,-21,-5
1491694016651,1,36,-26,-48,-2,-74,-69,-22,3
1491694016652,3,20,-11,45,-16,-13,80,0,10
1491694016652,3,-38,-42,42,20,23,-9,-8,-57
1491694016654,0,10,21,42,4,-13,-32,-57,41
1491694016654,0,32,35,46,37,69,116,55,-11
1491694016683,1,-53,-39,-61,-67,-128,-128,10,-19
1491694016683,1,-9,4,61,8,88,88,-30,-4
1491694016684,2,2,-12,-2,59,72,73,34,-30
1491694016684,2,1,27,18,-55,-59,-44,-28,-21
1491694016686,3,44,41,70,64,116,104,23,42
1491694016686,3,-2,36,81,29,51,-8,10,-19
1491694016687,0,-21,-62,-87,-95,-85,-37,-27,-30
1491694016687,0,-8,17,117,51,118,-10,18,-9
1491694016715,1,-10,-41,-107,-59,45,6,-31,-3
1491694016715,1,45,12,52,35,68,0,26,22
1491694016716,2,7,23,22,45,84,83,40,40
1491694016716,2,-28,-4,-31,6,-69,-75,-55,-20
1491694016717,3,4,40,41,16,2,-17,53,4
1491694016717,3,-11,20,1,33,102,36,-52,9
1491694016718,1,-18,-24,-44,-70,-102,-29,26,3
1491694016718,1,12,-62,-113,-102,-128,-63,17,-2
1491694016747,2,-11,33,27,-5,30,8,1,-21
1491694016747,2,-6,-37,-23,32,-72,-75,-9,2
1491694016749,3,30,0,18,45,83,34,9,38
1491694016749,3,16,0,-20,51,38,39,40,-18
1491694016750,0,0,-46,-61,-92,-63,-95,-41,12
1491694016750,0,-8,-3,-6,17,111,107,-14,-9
1491694016751,1,-4,-10,-17,-2,56,34,-27,-6
1491694016751,1,-16,-31,2,-2,-79,81,65,-5
1491694016780,2,-1,55,114,23,127,-107,-27,-11
1491694016780,2,2,-27,-128,-96,-98,-33,18,-14
1491694016781,3,-24,-30,64,4,29,-3,-80,-29
1491694016781,3,-19,2,57,32,92,56,-1,7
1491694016782,0,-18,24,38,-12,-24,-4,-29,-44
1491694016782,0,9,22,-14,37,8,-8,-11,49
1491694016783,1,-22,14,-63,-29,-4,-22,-61,-47
1491694016783,1,-14,2,-19,47,-51,-18,-51,-8
1491694016815,2,3,25,35,45,57,76,-29,8
1491694016815,2,25,-6,-40,16,33,22,1,18
1491694016816,3,-13,24,2,-6,-110,-36,-14,9
1491694016816,3,24,29,24,15,121,88,16,54
1491694016816,0,-24,-22,-1,15,-128,-65,-40,-14
1491694016816,0,-18,-25,-66,-90,-96,-76,-4,-38
1491694016817,1,-5,-10,31,29,117,98,54,28
1491694016817,1,-26,0,31,18,37,20,26,-61
1491694016845,2,-13,-14,-109,-87,-85,-94,-25,-3
1491694016845,2,-10,-4,63,-26,127,87,24,15
1491694016849,3,11,-12,-25,42,-123,-25,55,7
1491694016849,3,2,43,17,-29,85,-41,-15,-48
1491694016850,0,7,-1,-105,5,-63,40,65,38
1491694016850,0,14,8,-119,23,58,63,-17,-32
1491694016877,1,4,19,-62,42,51,15,17,25
1491694016877,1,-7,-5,80,-37,73,-9,74,17
1491694016878,2,5,-6,115,48,-23,-67,66,1
1491694016878,2,12,-20,118,-100,-101,-51,-16,4
1491694016880,3,-29,6,127,55,73,80,-1,-51
1491694016880,3,20,0,7,2,-1,36,68,72
1491694016910,0,-6,24,78,5,-39,-17,-62,-73
1491694016910,0,4,11,77,91,88,51,20,17
1491694016912,1,17,36,109,55,72,29,16,22
1491694016912,1,2,27,18,-4,19,65,58,-25
1491694016913,2,-49,-96,-93,-65,-14,127,6,12
1491694016913,2,36,-11,-18,-36,-115,-70,-82,-22
1491694016942,3,-35,-13,-59,-128,-79,-16,-47,-15
1491694016942,3,14,24,-6,67,13,-3,-26,3
1491694016943,0,5,-1,-70,-79,-34,5,23,11
1491694016943,0,-24,-2,41,91,107,42,59,-5
1491694016945,1,16,-39,-86,-22,-96,-56,-58,37
1491694016945,1,4,75,77,80,40,1,58,21
1491694016946,2,-11,-58,-91,-44,-69,-75,-77,7
1491694016946,2,-68,-24,-17,-56,44,-1,-39,-84
1491694016975,3,103,57,108,40,-8,66,23,82
1491694016975,3,-30,-28,-128,-31,-57,-119,-12,-16
1491694016976,0,-19,-39,-34,-24,21,0,-45,-90
1491694016976,0,47,51,56,41,69,33,15,77
1491694016977,1,-16,20,-62,81,-124,-53,11,-52
1491694016977,1,-9,-75,-46,-124,-128,-87,-128,-43
1491694017007,2,-6,31,41,-3,39,18,42,-3
1491694017007,2,-3,-5,-19,-22,7,3,-22,17
1491694017008,3,-12,16,39,12,127,-22,29,-22
1491694017008,3,17,1,7,7,24,98,-62,12
1491694017009,0,-13,-20,-31,56,-36,-63,17,11
1491694017009,0,4,-6,-28,14,-50,-21,-9,12
1491694017040,1,0,0,-41,-67,29,83,44,8
1491694017040,1,10,-16,-38,16,27,-70,9,14
1491694017041,2,14,57,127,110,101,88,42,77
1491694017041,2,54,-4,-29,-56,-66,-48,2,51
1491694017042,3,-45,-48,-110,50,-37,-128,-58,-76
1491694017042,3,-17,-66,-89,-128,-111,-13,-75,-3
1491694017072,0,26,62,79,118,102,90,6,6
1491694017072,0,-33,-5,-19,-11,-90,-68,20,-8
1491694017073,1,12,-1,41,-41,75,53,-24,0
1491694017073,1,-6,1,-9,16,-30,-9,-16,-23
1491694017074,2,44,23,9,19,127,50,69,58
1491694017074,2,4,43,87,-60,18,47,47,1
1491694017105,3,-36,-67,-89,85,-21,-82,38,-4
1491694017105,3,5,-21,-5,-111,-125,-41,-43,3
1491694017106,0,-36,13,10,-36,58,75,8,-73
1491694017106,0,30,13,4,39,124,93,51,16
1491694017107,1,18,50,122,32,6,-28,13,56
1491694017107,1,-28,-23,-46,-48,-57,-21,0,-14
1491694017108,2,-26,-28,-67,35,-82,-126,-32,-41
1491694017108,2,-51,-65,-110,-72,-61,-40,-111,-60
1491694017137,3,-22,10,64,-11,78,12,-1,-45
1491694017137,3,12,21,32,100,60,58,39,-13
1491694017138,0,3,-2,-21,42,-28,47,-31,14
1491694017138,0,16,-27,-2,-9,-57,-46,60,35
1491694017139,1,49,2,-8,-65,-66,10,28,29
1491694017139,1,4,30,28,35,43,2,54,-25
1491694017170,2,40,60,80,-9,127,11,60,46
1491694017170,2,-15,-7,20,108,-45,40,13,-26
1491694017171,3,-68,-70,-118,-128,-91,-46,-80,-43
1491694017171,3,58,16,21,19,75,54,-20,-12
1491694017172,0,10,60,61,-126,67,14,-7,45
1491694017172,0,-25,-39,-81,-12,-73,-33,-62,-9
1491694017202,1,10,-24,18,-65,40,34,-30,28
1491694017202,1,-56,-3,29,20,-10,-22,28,-13
1491694017203,2,9,1,22,-100,50,-26,-34,-38
1491694017203,2,1,40,0,97,48,73,-19,17
1491694017204,3,-5,-3,12,-5,22,20,55,22
1491694017204,3,-24,5,14,-20,-2,-19,-68,-13
1491694017235,0,-24,-32,-42,26,-82,96,32,-27
1491694017235,0,39,6,-15,-14,7,14,56,34
1491694017236,1,3,18,12,62,47,-22,-32,-13
1491694017236,1,2,11,53,104,14,85,59,38
1491694017237,2,32,-15,-87,-35,-113,-45,-21,-4
1491694017237,2,-33,-21,1,-57,-38,-79,-76,-10
1491694017238,3,12,52,90,86,58,80,17,-7
1491694017238,3,-17,-34,-69,-87,-99,-121,-52,1
1491694017267,0,-13,-74,-74,-86,-17,-28,-30,-30
1491694017267,0,-1,40,58,64,100,39,41,-6
1491694017269,1,25,39,75,20,125,76,62,35
1491694017269,1,-3,-9,-38,88,-25,-63,7,-97
1491694017270,2,-51,-72,-84,-41,-128,-63,-7,64
1491694017270,2,71,65,121,15,102,73,-11,-35
1491694017300,3,-5,-4,-6,22,-128,8,-19,54
1491694017300,3,23,7,11,-40,31,-10,15,25
1491694017302,0,0,-3,-21,127,104,105,-21,-8
1491694017302,0,14,-28,-49,-102,-94,-111,-71,16
1491694017302,1,-26,4,12,1,12,22,-2,-40
1491694017302,1,28,-6,-28,-52,7,50,39,27
1491694017332,2,-4,35,84,43,127,25,-49,-49
1491694017332,2,21,44,40,97,-20,127,127,70
1491694017365,3,14,-64,-128,-88,20,-18,-10,21
1491694017365,3,-59,-55,-82,-128,-128,-104,-105,-23
1491694017365,0,21,17,60,38,115,72,50,8
1491694017365,0,-48,-12,27,51,50,-26,-15,-48
1491694017366,1,30,29,78,17,8,18,40,-21
1491694017366,1,11,19,-19,89,6,-1,121,35
1491694017367,2,1,7,18,-44,-79,-18,9,-13
1491694017367,2,-24,-22,-8,21,109,-56,-20,-9
1491694017397,3,2,11,56,57,57,-56,-36,-6
1491694017397,3,-27,-13,-56,-71,-13,60,-32,27
1491694017398,0,-14,-32,15,31,-33,24,-35,-60
1491694017398,0,-64,-32,-34,-123,1,87,42,25
1491694017398,1,-19,2,-44,16,-121,-110,-63,-63
1491694017398,1,26,17,61,-19,109,103,63,55
1491694017400,2,-8,-2,-15,28,-24,27,77,-7
1491694017400,2,-28,-5,-8,5,26,16,-36,-38
1491694017430,3,49,55,109,37,81,114,-12,-13
1491694017430,3,-19,-42,-67,-8,-86,-103,-58,-41
1491694017431,0,9,-10,15,-45,7,-10,-36,30
1491694017431,0,4,-7,14,5,109,20,5,-54
1491694017431,1,-55,-39,-63,-52,-121,-58,19,-34
1491694017431,1,23,47,80,44,127,61,7,-32
1491694017432,2,-16,-16,-85,-17,-60,-35,31,-5
1491694017432,2,-9,-17,-11,-65,-89,29,-73,23
1491694017462,3,-5,12,-7,43,89,45,49,-13
1491694017462,3,-30,-30,-4,5,8,-58,-108,-14
1491694017463,0,35,42,49,80,63,-31,60,25
1491694017463,0,9,26,28,-8,-104,-107,-19,30
1491694017464,1,-16,-46,-60,-40,-5,18,-24,7
1491694017464,1,16,50,77,115,127,127,91,26
1491694017495,2,-35,-12,-41,-54,-78,-48,-79,-64
1491694017495,2,52,-19,-69,-22,38,61,73,57
1491694017496,3,-8,-34,-57,-114,-11,16,-5,33
1491694017496,3,6,12,89,78,79,5,-11,-33
1491694017496,0,-28,12,27,50,12,61,22,24
1491694017496,0,68,37,46,58,-9,78,82,33
1491694017497,1,1,5,-71,68,-85,-26,74,-28
1491694017497,1,-26,-74,-59,-110,-95,34,-62,35
1491694017527,2,2,-10,11,-42,-49,-126,-88,-41
1491694017527,2,2,-14,19,-10,69,29,-36,10
1491694017529,3,-13,-8,29,72,6,51,38,-5
1491694017529,3,15,33,2,-27,-29,-58,-14,-36
1491694017529,0,12,28,9,29,-14,-36,18,85
1491694017529,0,6,-17,-12,25,77,76,72,-60
1491694017560,1,22,24,41,-4,85,-9,14,69
1491694017560,1,14,5,9,91,24,8,-49,-17
1491694017561,2,48,51,115,-2,127,18,-75,-6
1491694017561,2,-18,-12,-89,-48,-104,-53,50,36
1491694017562,3,5,-60,-2,-81,-71,-25,-45,-44
1491694017562,3,6,9,-17,77,6,-19,-22,9
1491694017592,0,13,-9,64,-105,-30,-51,15,-18
1491694017592,0,-27,2,-12,8,30,-14,-43,-31
1491694017593,1,-6,-26,-107,-99,-92,-39,-84,17
1491694017593,1,1,12,8,-100,27,-21,-13,37
1491694017594,2,60,22,-8,58,16,106,116,67
1491694017594,2,-64,17,99,118,92,31,0,-82
1491694017625,3,1,15,32,-45,-20,-128,-80,9
1491694017625,3,6,17,-25,-61,-19,90,48,-3
1491694017627,0,-67,-34,-77,67,-52,-64,0,27
1491694017627,0,-15,-22,-5,-97,-46,26,27,-50
1491694017628,1,-33,26,4,116,48,49,15,-13
1491694017628,1,11,-28,-15,-77,-80,-102,-74,-24
1491694017629,2,8,29,61,41,30,2,-42,30
1491694017629,2,-18,28,84,33,71,-57,3,-59
1491694017657,3,37,-11,-62,-1,-48,71,-25,109
1491694017657,3,-38,-47,-73,-97,-15,-91,-48,-60
1491694017660,0,-32,-45,-58,-10,47,78,83,-18
1491694017660,0,28,47,105,48,127,34,-101,19
1491694017661,1,44,40,75,54,27,-6,127,0
1491694017661,1,-22,31,1,82,-75,-41,21,10
1491694017690,2,4,-16,-17,-23,-7,56,-44,-18
1491694017690,2,3,26,46,102,-14,-3,93,57
1491694017692,3,-98,-79,-77,-106,-92,-70,-89,-100
1491694017692,3,99,3,58,2,-57,-8,-12,112
1491694017693,0,-15,-14,3,51,83,78,56,-62
1491694017693,0,-9,-14,-59,-42,-90,43,31,22
1491694017722,1,16,67,92,127,111,15,-12,27
1491694017722,1,-23,-24,-16,-48,-65,26,3,-49
1491694017723,2,-52,-15,4,36,86,98,-74,-30
1491694017723,2,31,-12,-76,-9,-115,-108,-37,10
1491694017725,3,49,29,-20,-110,-31,80,4,71
1491694017725,3,-20,38,111,110,127,127,121,-31
1491694017755,0,6,-15,-96,-108,-128,-58,9,-24
1491694017755,0,-13,-70,-119,-117,15,-1,-97,-21
1491694017756,1,-31,-15,-34,49,-37,-1,-16,-24
1491694017756,1,24,33,121,67,105,108,5,88
1491694017757,2,14,-18,-73,-9,-85,-44,7,-62
1491694017757,2,-43,-7,-3,-85,11,-115,-42,12
1491694017758,3,5,-32,-18,-118,49,-113,-74,-37
1491694017758,3,9,30,55,95,51,101,118,57
1491694017787,0,-73,-75,-73,-113,-102,-112,-93,-38
1491694017787,0,31,-4,-11,-76,-9,39,30,47
1491694017788,1,20,14,103,81,97,101,-72,-15
1491694017788,1,-35,-4,-86,-12,17,38,79,-51
1491694017789,2,25,54,110,94,93,-92,-24,11
1491694017789,2,4,1,-103,64,-128,-40,66,-42
1491694017820,3,-75,-83,-96,-104,-7,-54,-7,-18
1491694017820,3,52,42,58,51,72,41,-92,52
1491694017821,0,-1,12,7,41,-99,-88,-11,-26
1491694017821,0,45,-1,-17,30,25,124,-16,36
1491694017822,1,-16,63,127,122,108,61,127,-29
1491694017822,1,-4,-49,-128,-128,-124,-17,8,-35
1491694017854,2,-11,-40,-59,-56,-47,-9,-49,34
1491694017854,2,-34,22,124,-60,55,-13,-81,-80
1491694017854,3,3,-2,-53,37,-36,10,52,38
1491694017854,3,-41,-16,17,20,112,57,8,-86
1491694017856,0,74,1,-25,27,-61,-23,24,40
1491694017856,0,-33,25,-14,-87,-6,9,-11,-17
1491694017885,1,43,13,2,57,96,75,56,-6
1491694017885,1,-11,-49,-89,-41,-117,-128,-50,16
1491694017886,2,-17,-3,3,-66,62,18,-15,-34
1491694017886,2,74,50,88,117,79,103,74,3
1491694017887,3,-11,-19,-2,-120,-116,-128,-65,28
1491694017887,3,0,57,61,-56,104,41,6,-13
1491694017888,0,-44,-69,-104,-110,-107,-8,-50,38
1491694017888,0,-4,11,61,58,52,-1,-20,-5
1491694017917,1,23,22,-71,48,-121,67,0,-49
1491694017917,1,-9,-89,-81,-106,-92,-111,-83,29
1491694017918,2,8,63,127,89,127,127,65,28
1491694017918,2,-43,-28,29,49,24,-128,-56,-57
1491694017919,3,113,100,113,127,36,115,86,81
1491694017919,3,-70,-95,-85,-78,-128,-110,-11,3
1491694017950,0,33,3,19,-119,103,-1,106,-2
1491694017950,0,-24,8,-49,26,-98,-107,-52,79
1491694017951,1,-51,-28,-39,-16,51,41,-45,-108
1491694017951,1,43,62,70,14,-48,92,42,28
1491694017952,2,31,-8,-69,-84,-69,-40,3,29
1491694017952,2,-7,0,49,-46,25,71,0,-22
1491694017982,3,-14,-13,-26,-77,-6,-128,-57,49
1491694017982,3,1,1,30,-22,127,9,-42,-64
1491694017984,0,-32,29,100,127,-14,60,19,-21
1491694017984,0,40,0,71,-10,41,89,44,24
1491694017985,1,-1,4,-6,52,-128,20,24,22
1491694017985,1,-36,-65,-51,-35,-24,-28,-36,-46
1491694018015,2,4,-4,-86,-123,-59,-21,-21,-1
1491694018015,2,-18,-13,-71,80,58,37,12,20
1491694018016,3,-1,14,72,-60,69,75,2,23
1491694018016,3,19,89,62,127,-52,34,127,-48
1491694018017,0,-49,-92,-82,-86,-110,-87,-128,7
1491694018017,0,-9,-25,-13,-15,54,41,62,-34
1491694018047,1,-18,4,29,47,124,58,35,43
1491694018047,1,48,45,-28,79,-32,-34,-21,54
1491694018049,2,28,91,127,127,127,117,57,13
1491694018049,2,-23,-59,-128,72,-128,-76,-14,-14
1491694018051,3,-37,-66,-86,-128,-17,-22,-97,-34
1491694018051,3,-12,13,58,41,112,45,5,-2
1491694018051,0,29,27,93,127,127,21,43,28
1491694018051,0,-2,-1,-75,-122,-76,-85,-65,-14
1491694018080,1,2,-6,70,100,76,25,37,-40
1491694018080,1,-16,-2,-59,-75,-118,-19,-22,17
1491694018082,2,8,-36,-81,-50,-87,-49,-35,1
1491694018082,2,-7,3,33,-40,-14,59,64,-7
1491694018083,3,48,-15,-58,24,39,-9,-19,0
1491694018083,3,3,55,113,74,71,61,-12,-8
1491694018113,0,-7,10,-17,-23,-11,22,17,9
1491694018113,0,-6,35,-29,-127,-21,0,-36,-13
1491694018115,1,40,3,32,42,-22,10,26,19
1491694018115,1,-20,-79,-88,-52,-49,-85,-37,-15
1491694018117,2,-5,6,-16,-97,11,35,-25,11
1491694018117,2,-19,-32,40,67,59,-85,-69,16
1491694018145,3,-27,28,75,9,105,13,22,-71
1491694018145,3,31,99,106,109,127,111,87,-19
1491694018147,0,-19,-77,-127,-41,-128,-61,-20,3
1491694018147,0,-7,-18,23,-128,24,-47,-47,21
1491694018149,1,-15,7,3,48,42,-31,21,-37
1491694018149,1,2,-23,-47,-41,-20,-42,-83,30
1491694018177,2,19,48,27,-4,-25,31,43,-2
1491694018177,2,2,-24,16,38,83,94,70,-2
1491694018179,3,2,30,23,-10,0,-27,-14,19
1491694018179,3,-25,-42,-44,61,-119,-43,-13,-7
1491694018180,0,2,15,23,-58,74,12,-21,-16
1491694018180,0,38,4,-22,12,-5,-7,-11,7
1491694018181,1,-26,1,25,-34,-13,24,2,-21
1491694018181,1,4,-28,-63,-65,-25,63,-2,10
1491694018210,2,12,-13,44,111,-48,-61,3,11
1491694018210,2,-10,-16,-56,-33,-96,43,-1,-17
1491694018211,3,-5,8,30,-47,38,-32,-14,5
1491694018211,3,-6,-16,-41,-7,-82,9,11,-19
1491694018212,0,-1,64,98,39,127,127,19,-30
1491694018212,0,-4,-71,-116,20,-111,-41,-11,14
1491694018275,1,-21,-30,-19,-128,-10,-96,-98,-19
1491694018275,1,-42,-22,87,36,127,1,-17,-68
1491694018276,2,63,62,65,47,127,24,-7,29
1491694018276,2,26,47,57,74,22,20,35,-3
1491694018278,3,-18,29,26,64,49,102,53,-2
1491694018278,3,27,-98,-57,-42,-109,-88,-13,35
1491694018278,0,-21,-3,-61,-84,-49,-33,-52,-17
1491694018278,0,-2,58,125,112,90,94,84,-33
1491694018307,1,25,-65,-128,-39,-113,-69,42,56
1491694018307,1,-41,6,68,-69,-4,13,-5,-26
1491694018309,2,16,19,38,81,44,55,76,16
1491694018309,2,-5,-1,37,-16,-61,-100,-23,36
1491694018311,3,-28,-17,-3,-25,-51,-9,-38,-37
1491694018311,3,21,55,-7,-42,55,33,53,27
1491694018312,0,4,3,-24,11,69,86,36,-5
1491694018312,0,-9,-19,24,78,10,-55,23,-17
1491694018340,1,8,-19,-58,-61,-91,-10,5,22
1491694018340,1,-19,-42,-40,-57,96,-61,-71,-8
1491694018342,2,-2,-20,-28,-1,-3,-9,3,-13
1491694018342,2,-5,31,44,34,127,91,47,-5
1491694018343,3,-6,0,-77,-35,-19,-17,6,-30
1491694018343,3,7,61,26,35,-73,-58,-4,42
1491694018344,0,-8,-33,103,35,58,-1,-32,-8
1491694018344,0,9,-19,-114,-106,-88,-1,3,25
1491694018372,1,8,4,68,62,76,2,-39,-8
1491694018372,1,0,-4,-41,-63,-30,72,-17,7
1491694018374,2,-1,4,-8,17,-38,-86,-3,-26
1491694018374,2,25,-22,-99,-93,-104,-77,-62,49
1491694018376,3,-28,18,23,-3,-33,7,-8,-34
1491694018376,3,-4,27,57,66,127,44,-11,-14
1491694018377,0,-20,-2,2,-2,-18,-57,-15,-1
1491694018377,0,54,22,24,16,13,7,-38,16
1491694018437,1,-7,-39,-49,-6,-1,5,-17,25
1491694018437,1,-3,36,62,50,-11,-2,14,-45
1491694018439,2,-11,-34,11,15,-2,54,-4,7
1491694018439,2,-26,16,-50,-44,-64,-67,-34,-40
1491694018441,3,-9,5,31,47,87,100,40,20
1491694018441,3,7,70,-25,-59,-107,-106,21,-9
1491694018441,0,6,-22,-38,-49,-55,5,-8,15
1491694018441,0,-37,-7,-9,9,41,10,-8,-2
1491694018471,1,7,-10,68,29,-40,5,34,13
1491694018471,1,-22,-12,-75,-40,97,53,4,-8
1491694018474,2,-23,-6,-3,1,-83,-7,-15,-26
1491694018474,2,4,18,26,27,-17,-18,24,15
1491694018475,0,29,28,2,12,51,52,-10,18
1491694018475,0,-14,-67,-10,-36,46,-9,-6,-27
1491694018477,1,0,-14,-5,5,-84,-102,-37,-27
1491694018477,1,25,15,50,76,57,48,42,28
1491694018503,2,2,-47,-67,-98,-86,-39,-1,16
1491694018503,2,-5,17,27,0,-40,0,-15,-36
1491694018506,3,7,-20,-28,-14,-8,-28,-11,21
1491694018506,3,-3,-19,-15,-34,-19,-19,-18,-30
1491694018507,0,17,28,39,47,69,89,22,2
1491694018507,0,10,32,32,20,20,12,37,19
1491694018508,1,-6,23,-32,-8,-109,-110,-40,-19
1491694018508,1,3,-60,-97,-63,71,61,0,-16
1491694018535,2,-13,-4,-13,40,-9,-9,29,-20
1491694018535,2,-10,14,37,-23,62,111,0,-23
1491694018537,3,0,-7,31,-3,14,8,45,-2
