1491693931210,0,-40,-50,-47,-66,-62,-21,-30,-32
1491693931210,0,0,8,-2,29,10,-11,0,-1
1491693931212,1,-3,-1,-4,14,4,-8,-1,-1
1491693931212,1,10,6,11,18,9,4,4,11
1491693931213,2,10,14,12,11,10,4,12,8
1491693931213,2,-8,-6,0,-13,-11,0,-1,-3
1491693931241,3,-8,-7,-9,-12,-13,-6,-12,-8
1491693931241,3,-8,-3,-7,-13,-8,-7,-10,-12
1491693931242,0,9,5,6,11,9,4,-9,6
1491693931242,0,-4,-13,-6,-6,-4,-2,8,-3
1491693931243,1,5,7,8,6,9,2,6,2
1491693931243,1,-3,-6,-5,-7,-5,-2,-1,-3
1491693931274,2,4,8,6,9,8,3,2,4
1491693931274,2,6,6,4,2,3,5,3,4
1491693931275,3,-4,-10,-2,-6,-5,-1,0,-5
1491693931275,3,-4,-2,-4,-1,-4,-6,-16,-4
1491693931276,0,4,-4,0,4,4,-2,25,6
1491693931276,0,0,-1,0,-5,-1,-3,-4,-4
1491693931306,1,-5,-6,-5,-5,-2,-3,-5,-9
1491693931306,1,-1,2,-3,-1,-2,-3,-1,-2
1491693931307,2,8,2,6,11,8,3,0,4
1491693931307,2,-9,12,2,-4,-4,2,0,-2
1491693931308,3,-1,0,0,-1,-1,0,1,3
1491693931308,3,-1,-1,0,2,-2,2,4,2
1491693931339,0,0,14,1,3,3,0,-3,4
1491693931339,0,-1,-10,-6,-4,-3,-4,-1,-5
1491693931340,1,-9,-11,-5,-3,-3,-3,-9,-3
1491693931340,1,-2,4,0,-6,-3,-3,6,-1
1491693931341,2,-2,-1,0,1,0,-3,-5,-3
1491693931341,2,-7,-8,-2,-2,-4,-3,-8,3
1491693931370,3,3,-1,1,0,-1,2,6,2
1491693931370,3,0,2,-2,-2,0,0,-1,0
1491693931372,0,3,-6,2,3,1,-1,-1,-2
1491693931372,0,1,2,-2,-2,-2,-2,10,2
1491693931373,1,1,-3,2,-3,1,-1,0,2
1491693931373,1,-7,-12,-4,-1,-1,2,-1,-1
1491693931374,2,-10,-2,-1,-2,0,0,-4,-9
1491693931374,2,3,7,2,-2,-4,-1,-6,-1
1491693931403,3,-1,5,-3,-4,-3,0,1,-2
1491693931403,3,2,-13,0,1,-1,-4,-6,1
1491693931404,0,-9,-8,-1,0,-1,-4,6,0
1491693931404,0,3,-6,-1,-4,1,-2,-6,-1
1491693931406,1,-3,14,0,-1,1,0,4,2
1491693931406,1,-1,-2,-1,-2,-3,0,-7,-2
1491693931436,2,10,-8,3,0,-3,0,-2,1
1491693931436,2,1,3,1,2,0,-2,-4,-1
1491693931437,3,-7,-13,-2,0,0,-4,-11,-8
1491693931437,3,-1,3,-3,-1,0,0,5,-2
1491693931438,0,10,15,-1,3,2,0,-2,3
1491693931438,0,-2,-13,-7,-3,0,2,4,2
1491693931468,1,9,0,0,-1,-1,-2,-6,-1
1491693931468,1,1,12,2,4,2,-1,0,-1
1491693931471,2,-3,1,-3,-2,-1,1,0,-2
1491693931471,2,3,5,-2,0,0,-1,-7,-3
1491693931472,3,-2,-8,-2,1,-3,-2,0,-2
1491693931472,3,-1,-4,0,0,-3,-2,-14,0
1491693931566,0,-7,-2,1,0,0,-3,-4,3
1491693931566,0,-14,-23,2,0,0,0,-2,-15
1491693931567,1,10,20,7,1,-3,-1,5,5
1491693931567,1,0,6,-1,1,1,-2,-10,0
1491693931569,2,-2,0,-5,-1,-1,-2,0,2
1491693931569,2,-12,-3,-2,0,1,1,-4,-4
1491693931569,3,-10,12,-1,-5,-3,-4,-4,-6
1491693931569,3,-5,-9,-5,-3,-2,-1,13,-3
1491693931598,0,5,2,-2,-1,-3,-1,1,-1
1491693931598,0,7,2,-4,0,-3,-2,-2,5
1491693931600,1,5,4,0,0,0,-1,-3,1
1491693931600,1,-10,-13,-7,-2,-7,-4,2,7
1491693931601,2,-4,-2,1,-3,1,1,-1,-4
1491693931601,2,0,11,0,-2,1,-2,2,-3
1491693931602,2,8,-4,-2,-1,-2,-4,2,-3
1491693931602,2,-3,22,8,5,1,-4,-3,-2
1491693931631,3,-14,-13,-6,-8,-1,1,-4,-8
1491693931631,3,-14,12,-2,-5,4,2,-2,-9
1491693931632,0,-7,-8,2,0,-3,0,2,1
1491693931632,0,22,16,3,1,-3,3,2,7
1491693931634,1,3,-11,-4,-2,-5,0,4,5
1491693931634,1,4,1,2,2,4,0,-1,-5
1491693931634,2,-5,-10,-7,-5,-2,-2,-2,0
1491693931634,2,21,6,3,4,2,2,6,10
1491693931664,3,3,-4,-3,1,-4,-3,-12,3
1491693931664,3,3,-1,1,4,2,2,2,-1
1491693931665,0,-15,0,-2,1,-2,-3,-3,-9
1491693931665,0,-4,-41,-6,-4,-3,-5,2,0
1491693931666,1,4,20,9,5,5,-4,-3,-2
1491693931666,1,12,-41,-5,-5,-8,-6,0,4
1491693931667,2,-4,12,3,2,3,-5,0,-6
1491693931667,2,-1,21,-2,1,1,1,-3,4
1491693931695,3,18,-5,-3,2,-5,-4,-4,-1
1491693931695,3,-12,9,9,6,4,4,-2,-5
1491693931697,0,-6,-16,-2,-3,-5,0,0,-4
1491693931697,0,-12,-8,0,-7,-1,-2,1,-7
1491693931699,1,-8,3,-3,-6,-3,-9,0,-2
1491693931699,1,-27,-20,-5,-7,-1,12,7,-8
1491693931699,2,23,23,-5,-13,-8,-5,-5,8
1491693931699,2,-19,-26,-11,-15,-3,3,-7,-7
1491693931728,3,7,19,-4,-8,-5,-8,6,-2
1491693931728,3,1,4,-1,1,4,-1,-6,-2
1491693931729,0,-13,-14,-3,5,0,-6,2,-4
1491693931729,0,14,11,7,11,0,23,20,0
1491693931731,1,-18,-11,-3,-6,-8,-14,-22,-3
1491693931731,1,-3,-21,-4,0,-3,-15,-19,-4
1491693931760,2,3,24,2,4,3,5,-3,-3
1491693931760,2,-14,-31,-1,2,-4,-37,-17,-9
1491693931762,3,-1,9,-3,-5,-1,9,10,-2
1491693931762,3,15,3,-12,-7,-4,-2,8,5
1491693931763,0,-2,5,4,4,-3,28,11,-3
1491693931763,0,1,2,-8,-8,-4,-30,-17,1
1491693931764,1,-8,-30,-9,6,9,15,2,-2
1491693931764,1,5,21,14,16,1,15,-2,-1
1491693931794,2,15,16,8,5,-6,6,34,10
1491693931794,2,-4,-3,-5,-18,-8,-13,-7,-9
1491693931795,3,0,18,-15,-28,-9,-1,-13,-7
1491693931795,3,-17,-30,-10,-6,-22,-3,12,-21
1491693931796,0,-23,21,16,4,15,-33,-31,-13
1491693931796,0,-16,-4,-14,-16,-6,-20,-27,-4
1491693931827,1,10,14,-4,-2,1,-2,7,-11
1491693931827,1,-2,-13,-4,6,11,17,19,10
1491693931828,2,-8,-2,9,17,3,9,5,-22
1491693931828,2,9,8,14,16,1,7,-7,-63
1491693931829,3,-2,-19,-6,0,-6,2,-24,-89
1491693931829,3,-1,6,3,-1,-8,-3,10,-50
1491693931858,0,-6,-37,-14,-11,0,-5,27,6
1491693931858,0,-6,5,3,5,8,35,15,45
1491693931860,1,-4,-10,9,8,-6,-22,-26,62
1491693931860,1,-6,-6,4,1,-7,-33,-54,50
1491693931861,2,15,-14,-8,-5,0,-13,25,49
1491693931861,2,8,-7,-9,1,12,70,50,42
1491693931891,3,3,-7,4,-1,-4,-39,-38,25
1491693931891,3,14,34,-8,-13,7,-37,-32,7
1491693931892,0,9,1,-8,-15,-1,9,44,15
1491693931892,0,23,2,-4,-3,-13,-45,-67,-10
1491693931893,1,16,-6,1,16,14,27,23,11
1491693931893,1,8,-3,-1,-2,8,70,100,-6
1491693931894,2,6,-2,-1,0,5,88,89,-2
1491693931894,2,-2,-6,0,2,2,30,25,35
1491693931923,3,-14,4,5,7,-8,-32,-70,5
1491693931923,3,-1,18,14,20,-2,-57,-104,11
1491693931924,0,-28,0,9,19,-5,-91,-128,-47
1491693931924,0,-28,3,-15,-26,-10,2,-36,-11
1491693931926,1,-18,-11,-6,-22,-7,30,107,-11
1491693931926,1,8,35,-9,-65,-17,12,3,1
1491693931956,2,-14,-25,-5,2,10,6,48,-14
1491693931956,2,-5,18,6,35,-4,1,1,-9
1491693931957,3,-2,-9,10,8,19,-7,-36,51
1491693931957,3,-4,-3,12,9,-24,-30,-59,-23
1491693931958,0,17,-27,-32,-70,-51,-27,-22,-16
1491693931958,0,-1,20,5,14,12,9,4,25
1491693931988,1,1,58,-24,-68,-22,20,47,32
1491693931988,1,19,-23,-13,19,-15,-9,3,-4
1491693931990,2,11,-1,16,83,65,-25,-76,-16
1491693931990,2,-7,-19,12,3,25,3,39,40
1491693931991,3,-27,-17,-4,-44,-45,-18,-4,15
1491693931991,3,-7,-17,-15,-20,-24,-10,-20,23
1491693932021,0,-24,8,-3,-7,-31,-17,-67,52
1491693932021,0,-12,-28,-4,12,16,6,36,-7
1491693932022,1,18,59,59,61,73,38,40,-12
1491693932022,1,21,-10,-16,-39,46,45,98,-11
1491693932023,2,3,-3,-11,18,-39,5,-4,-71
1491693932023,2,-12,-16,-10,2,-2,-21,-15,-38
1491693932026,3,-22,-8,-40,-95,-45,-48,-98,-105
1491693932026,3,-3,-5,3,25,-51,36,62,-29
1491693932053,0,32,6,28,55,32,31,28,20
1491693932053,0,18,59,19,2,3,-18,-27,-8
1491693932054,1,1,-27,2,94,4,-23,-27,-18
1491693932054,1,-27,-11,-35,-39,54,-13,-63,-24
1491693932055,2,1,14,16,1,-2,18,69,7
1491693932055,2,-8,-17,-13,-35,-20,-1,26,-22
1491693932085,3,40,-13,-18,-9,1,24,30,1
1491693932085,3,-10,20,47,9,-56,-29,-30,33
1491693932086,0,-27,-39,-66,-56,-11,-6,-13,-1
1491693932086,0,11,2,-6,-40,-8,-8,1,-13
1491693932087,1,21,63,5,10,20,30,14,8
1491693932087,1,-5,6,5,31,20,-12,-38,-2
1491693932118,2,-3,6,28,12,1,16,6,2
1491693932118,2,-2,-16,-1,18,2,-14,0,-8
1491693932120,3,10,-14,2,17,5,-7,-10,6
1491693932120,3,-10,-17,10,23,7,5,-3,-4
1491693932125,0,1,12,-6,-17,10,16,12,11
1491693932125,0,8,2,-2,-4,-4,-2,-10,10
1491693932151,1,-20,-35,-6,11,-14,-5,5,1
1491693932151,1,-9,-5,-2,-6,4,5,12,0
1491693932152,2,3,3,-8,-10,5,-12,-49,-1
1491693932152,2,4,-3,5,5,-9,5,8,-6
1491693932153,3,-17,-17,20,22,-1,8,21,-1
1491693932153,3,-12,-6,-37,-17,2,1,3,-4
1491693932159,0,-2,14,9,-16,-3,-6,-16,-3
1491693932159,0,-11,-6,-5,11,-12,-16,-34,13
1491693932183,1,-1,-15,11,19,1,-4,-30,5
1491693932183,1,17,15,-7,-10,5,-21,6,20
1491693932185,2,-19,-8,-4,-3,-6,30,13,-21
1491693932185,2,-4,2,0,-15,-5,-1,7,-7
1491693932186,3,-10,-19,2,8,9,-2,6,3
1491693932186,3,2,-24,-7,14,9,-5,-46,-2
1491693932216,0,5,18,-10,-17,-15,-33,29,15
1491693932216,0,6,33,13,1,7,3,-1,-11
1491693932217,1,3,-16,-19,-9,-2,-12,-25,0
1491693932217,1,3,13,19,14,1,10,23,1
1491693932218,2,6,6,-1,-9,-1,3,-5,18
1491693932218,2,-10,-25,-1,-1,-2,6,6,-11
1491693932248,3,0,-3,-15,-13,-4,3,11,10
1491693932248,3,-4,1,5,1,1,-8,-14,-6
1491693932250,0,-2,-13,0,5,3,-4,-21,-3
1491693932250,0,-2,0,-7,-3,-3,8,2,-1
1491693932251,1,6,2,-2,-4,1,-9,0,9
1491693932251,1,-6,-13,1,6,7,3,18,-23
1491693932281,2,-14,5,-9,-6,-8,-6,1,0
1491693932281,2,12,-4,-5,4,-3,5,-33,3
1491693932282,3,-13,0,5,-5,11,8,26,2
1491693932282,3,0,2,-9,-7,-6,-4,-4,-3
1491693932283,0,-3,-5,5,-6,-5,-6,-10,4
1491693932283,0,-5,-4,-1,-2,-4,-1,-6,-5
1491693932313,1,-1,-5,-3,2,-2,8,6,-7
1491693932313,1,11,0,1,4,7,-10,12,7
1491693932316,2,4,2,-2,2,1,-6,-17,-2
1491693932316,2,-8,-19,-6,4,1,-5,0,-4
1491693932317,3,12,3,7,4,4,18,16,5
1491693932317,3,-10,4,0,-2,-3,19,6,5
1491693932317,0,-2,-15,-7,-3,-2,-33,-30,-3
1491693932317,0,-3,-4,-6,-5,-3,-8,-15,-11
1491693932345,1,1,-11,-2,-9,-19,-3,14,22
1491693932345,1,0,6,2,-7,0,-4,11,-4
1491693932349,2,7,7,5,-1,-3,4,-5,-3
1491693932349,2,-6,-5,2,3,0,-8,4,3
1491693932349,3,-11,0,-6,-4,-5,-2,-11,-13
1491693932349,3,-6,-10,-7,-1,0,6,-5,2
1491693932378,0,4,6,3,5,6,12,-4,5
1491693932378,0,-5,-2,-4,-3,-3,-29,-15,-6
1491693932379,1,2,0,8,14,0,9,3,0
1491693932379,1,-2,3,-3,-18,1,20,56,-14
1491693932380,2,-1,-7,-7,-7,1,4,8,19
1491693932380,2,8,-11,-10,-4,-7,-1,-4,6
1491693932475,3,-1,8,-2,-5,-6,-18,-22,2
1491693932475,3,5,-3,4,9,1,-12,-17,7
1491693932477,0,5,7,7,2,1,-1,-4,-9
1491693932477,0,4,13,1,-4,-3,1,-6,0
1491693932478,1,-11,-6,-3,0,3,-8,-1,-5
1491693932478,1,3,-10,1,2,-3,-4,-2,-4
1491693932479,2,-4,12,-4,-5,-2,8,1,-3
1491693932479,2,-4,-3,-1,-4,-3,0,3,2
1491693932508,3,-19,-8,-2,-5,-2,4,0,-21
1491693932508,3,-2,-9,-7,-2,-5,2,-8,2
1491693932509,0,11,0,2,3,2,16,-1,8
1491693932509,0,-6,2,1,2,-4,-14,-2,-3
1491693932510,1,13,3,0,-4,4,-22,-22,-6
1491693932510,1,-4,12,1,-1,-1,-9,-1,2
1491693932511,1,10,15,-4,-7,-7,-1,5,0
1491693932511,1,-2,3,7,5,2,10,7,-1
1491693932606,2,6,-4,0,0,-3,-15,-15,-20
1491693932606,2,13,16,10,1,-1,6,-14,2
1491693932608,3,-11,-16,-5,-2,-1,2,32,16
1491693932608,3,-2,19,5,3,-1,-22,-25,-9
1491693932610,0,-7,-1,-4,-2,-7,-5,-7,-3
1491693932610,0,-11,-13,-3,0,2,-3,7,-2
1491693932611,1,6,-36,-5,-1,3,6,-22,-8
1491693932611,1,3,51,10,-1,-2,9,8,3
1491693932638,2,-12,-12,-5,-3,0,0,-1,-1
1491693932638,2,18,3,-7,-3,-8,-10,6,2
1491693932639,3,6,-9,-10,-3,-4,24,-8,-2
1491693932639,3,4,-28,-8,-3,-3,-10,-12,11
1491693932640,3,4,16,3,2,1,-6,14,0
1491693932640,3,-17,-9,4,3,4,6,-2,-1
1491693932641,2,-13,-10,-9,-7,-6,-3,9,-1
1491693932641,2,48,20,10,7,-7,7,8,14
1491693932671,3,-2,3,-2,0,2,-1,4,4
1491693932671,3,-15,-5,-5,-1,-4,-18,-8,-22
1491693932672,0,-2,-11,-5,-3,-5,5,13,5
1491693932672,0,14,1,-5,-3,5,6,-15,-2
1491693932673,1,-19,-4,-1,-7,-5,4,-10,-14
1491693932673,1,26,12,1,0,-8,-14,-25,-2
1491693932674,2,1,13,7,4,8,5,38,0
1491693932674,2,-36,-19,-8,-4,9,24,8,-14
1491693932703,3,3,-16,-12,-8,-6,-14,2,6
1491693932703,3,3,8,-1,0,2,13,6,-9
1491693932705,0,-2,6,1,4,-1,-5,-28,1
1491693932705,0,-7,3,-1,2,-6,-5,-10,0
1491693932705,1,-11,9,11,5,7,2,-25,-1
1491693932705,1,-11,-2,3,2,1,8,19,-21
1491693932706,2,5,2,12,1,-6,-40,-11,36
1491693932706,2,-8,-1,3,1,3,-36,-56,-4
1491693932736,3,-14,2,-7,-1,1,17,44,-5
1491693932736,3,9,-1,-7,-4,-1,12,38,2
1491693932737,0,15,1,2,-1,-2,24,-46,-7
1491693932737,0,-4,2,1,3,5,-13,31,-13
1491693932739,1,-10,-6,-1,-3,-2,-7,-18,0
1491693932739,1,-4,-5,0,-1,-2,-10,-7,16
1491693932739,2,-10,-14,-10,-8,-8,8,-24,-29
1491693932739,2,-12,-4,-3,-9,-8,-10,31,14
1491693932775,3,4,2,-1,-1,4,32,10,-3
1491693932775,3,-3,-3,-3,-1,12,21,36,14
1491693932776,0,-8,-1,1,3,3,-14,-2,-3
1491693932776,0,-5,-18,-3,-2,-9,-69,-25,0
1491693932777,1,-2,16,0,1,-7,-20,-10,3
1491693932777,1,5,1,0,4,-4,-19,-11,10
1491693932801,2,-3,-11,-3,3,3,29,6,-9
1491693932801,2,-11,-1,-5,0,-1,25,13,-8
1491693932802,3,0,8,5,-5,-10,-10,11,0
1491693932802,3,-3,-1,-4,-4,-1,-19,-31,-7
1491693932803,0,-7,0,-2,-5,-4,32,31,-13
1491693932803,0,2,-14,-4,-3,-4,24,-1,21
1491693932834,1,-1,-2,-1,-10,-6,-52,-35,-30
1491693932834,1,-15,-18,-6,-3,-3,45,22,-7
1491693932835,2,10,25,4,1,1,-82,-49,2
1491693932835,2,-10,-41,-11,-3,8,32,23,-1
1491693932836,3,-3,16,0,8,-13,109,68,2
1491693932836,3,0,-12,0,-1,18,-117,-77,6
1491693932837,0,7,1,-2,0,0,23,35,-4
1491693932837,0,4,6,5,3,3,51,20,-4
1491693932865,1,0,-22,-5,-4,-10,-56,-20,-1
1491693932865,1,-9,-23,-9,3,-7,29,16,-7
1491693932867,2,1,-8,-3,-1,18,69,47,7
1491693932867,2,1,21,6,-3,-2,-98,-29,-8
1491693932868,3,-1,-9,-5,-4,2,-13,-2,-5
1491693932868,3,4,7,6,6,-5,66,32,15
1491693932898,0,-12,-17,-6,-14,-12,-49,-8,7
1491693932898,0,1,40,4,0,-7,20,-25,-22
1491693932899,1,8,14,-2,1,5,27,13,6
1491693932899,1,-2,-19,-2,6,-2,-7,-70,-4
1491693932900,2,-18,-85,-11,-1,-7,-46,32,-9
1491693932900,2,3,36,-3,-4,-9,-1,33,-1
1491693932930,3,37,84,22,4,1,-17,-34,10
1491693932930,3,-9,35,-5,-14,-9,9,3,-8
1491693932932,0,14,32,6,5,-6,16,-13,-4
1491693932932,0,-13,-41,-13,4,0,24,-1,7
1491693932933,1,-20,-55,-9,2,9,-42,-14,-2
1491693932933,1,20,-11,5,5,-6,-18,42,1
1491693932964,2,-6,23,1,0,-1,25,-27,-5
1491693932964,2,-3,-25,7,-2,6,21,11,-1
1491693932966,3,-8,-2,1,7,9,-36,-60,9
1491693932966,3,-2,20,-1,-2,-10,31,19,-30
1491693932966,0,-8,15,-11,-20,0,-4,-51,-20
1491693932966,0,7,-3,0,27,22,-60,-38,7
1491693932967,1,1,1,1,-2,5,40,22,-1
1491693932967,1,-12,-19,-8,-13,-13,10,34,19
1491693932996,2,-7,-22,-9,0,3,-3,-22,14
1491693932996,2,-6,9,-4,-23,-5,-1,-23,-22
1491693932997,3,-3,-17,1,-1,37,10,-3,-15
1491693932997,3,13,23,6,25,-1,42,-7,17
1491693932998,0,-4,-1,-2,-8,-26,-15,98,30
1491693932998,0,-6,-19,-7,-3,-21,-41,-72,-34
1491693933028,1,-17,-24,-12,-37,-18,-6,45,-6
1491693933028,1,-20,-2,-2,8,-6,-60,-31,-25
1491693933029,2,10,-3,7,15,16,28,-82,-16
1491693933029,2,10,12,15,12,-1,-37,-81,11
1491693933030,3,0,1,-25,-21,-11,-31,-11,-3
1491693933030,3,-6,2,-12,-37,9,67,64,2
1491693933060,0,-7,-9,-5,-27,1,34,-3,-3
1491693933060,0,-10,11,9,28,-48,-88,-37,-4
1491693933062,1,-7,0,4,-18,-38,45,48,-14
1491693933062,1,5,-33,-7,-4,35,22,33,24
1491693933063,2,27,30,-6,25,-18,-5,15,25
1491693933063,2,9,2,-18,-105,71,73,67,20
1491693933093,3,22,1,13,68,38,13,-61,14
1491693933093,3,-29,-15,1,-18,-79,-126,-113,-50
1491693933094,0,-5,-13,9,-7,-40,85,47,-25
1491693933094,0,28,15,-16,-5,38,69,6,32
1491693933095,1,4,18,0,1,33,21,8,-1
1491693933095,1,-11,-5,34,57,34,36,-85,-22
1491693933096,2,-4,7,0,-30,5,37,55,8
1491693933096,2,-20,-21,-43,-27,-32,-26,-48,-33
1491693933126,3,-14,-12,-1,67,41,-22,65,15
1491693933126,3,-5,29,23,19,-69,-62,-42,-9
1491693933127,0,12,-13,-6,-24,-13,-39,74,46
1491693933127,0,-20,8,-5,-2,-22,-44,-19,-22
1491693933128,1,-26,-14,-2,-32,-21,39,-42,38
1491693933128,1,29,35,-7,32,119,-64,-9,-8
1491693933158,2,-21,-9,32,15,5,-16,43,-12
1491693933158,2,51,8,16,43,-33,12,-16,52
1491693933159,3,1,-13,-43,-95,-63,-100,-73,-38
1491693933159,3,-22,-8,11,-22,-56,83,-29,30
1491693933190,0,14,-10,-49,-85,10,30,34,28
1491693933190,0,5,-24,27,100,37,70,104,-10
1491693933191,1,9,6,25,15,-94,-83,-12,-19
1491693933191,1,8,-8,-19,49,116,28,-67,-12
1491693933192,2,-7,6,-13,-63,31,3,37,-25
1491693933192,2,-30,-1,7,-16,-8,36,26,24
1491693933193,3,4,1,15,59,24,120,17,-10
1491693933193,3,17,-9,-30,-119,-111,-102,22,-15
1491693933223,0,-23,-7,11,31,-13,-117,-128,-27
1491693933223,0,-24,-10,-41,-86,34,-6,-41,-3
1491693933224,1,2,0,21,94,-65,12,43,16
1491693933224,1,-8,-8,36,36,99,80,112,-10
1491693933225,2,0,15,12,88,53,-29,-16,-24
1491693933225,2,37,-6,12,-11,-50,61,33,9
1491693933255,3,-1,4,-27,-63,52,-47,-24,36
1491693933255,3,-9,-4,10,4,18,40,-19,-3
1491693933256,0,25,11,2,-16,-87,-57,-14,44
1491693933256,0,-16,10,25,13,-45,44,44,-18
1491693933257,1,-9,-24,-65,-56,29,-71,-10,-4
1491693933257,1,13,-5,4,19,-24,-42,-16,7
1491693933258,2,-2,-9,-19,1,64,74,-104,-13
1491693933258,2,10,13,2,10,8,23,42,11
1491693933288,3,4,20,5,-13,-5,30,65,8
1491693933288,3,-14,-9,-15,-36,-49,-79,-52,6
1491693933289,0,-10,12,46,41,3,40,3,-34
1491693933289,0,-14,-14,-28,-36,21,90,64,-35
1491693933290,1,-20,-25,-11,33,-67,35,20,-13
1491693933290,1,18,0,6,11,20,55,19,23
1491693933321,2,-13,-4,-30,96,-4,-123,-50,15
1491693933321,2,14,15,110,71,57,-46,-8,5
1491693933322,3,-2,-7,-83,-95,-3,105,-14,-22
1491693933322,3,-17,-30,-48,-26,-97,-58,-36,-13
1491693933323,0,2,-6,-23,-54,-1,-4,14,20
1491693933323,0,-21,-9,-25,-46,13,9,-35,-6
1491693933353,1,5,17,67,98,106,-26,-9,-12
1491693933353,1,46,23,13,-35,-39,1,79,43
1491693933355,2,-12,20,109,103,77,-71,-83,-34
1491693933355,2,-3,-26,-85,-87,-112,-14,104,30
1491693933356,3,-6,-23,-2,-30,55,36,9,1
1491693933356,3,-24,-6,-20,2,14,-43,-28,-24
1491693933386,0,28,28,39,-119,99,67,-6,15
1491693933386,0,-10,9,-28,104,-31,10,-34,-14
1491693933418,1,-21,-24,11,19,-55,22,14,25
1491693933418,1,-20,-1,-61,-88,-4,118,39,8
1491693933420,2,49,-10,-2,3,-71,-10,22,33
1491693933420,2,-1,22,50,-17,-12,-1,9,7
1491693933421,3,-9,-6,30,55,101,71,8,-42
1491693933421,3,6,7,-8,0,-61,-90,-21,16
1491693933422,0,-20,-6,-39,-39,-52,46,-4,-28
1491693933422,0,-10,-9,40,25,-12,-56,-113,-29
1491693933451,1,-1,11,-30,-103,-7,31,40,36
1491693933451,1,18,4,32,51,89,35,53,6
1491693933452,2,-1,7,-38,-7,-12,90,30,8
1491693933452,2,-9,-10,-9,80,6,-85,-46,-31
1491693933454,3,4,-18,4,-29,-108,-109,-72,32
1491693933454,3,-25,-1,2,10,35,68,20,-62
1491693933455,0,7,14,-9,68,-7,60,10,-9
1491693933455,0,1,-2,7,-96,78,89,54,17
1491693933483,1,13,14,19,116,-5,0,-17,18
1491693933483,1,-9,-18,-51,-54,-70,-27,5,27
1491693933484,2,-27,-20,-17,29,52,14,0,-38
1491693933484,2,-4,17,21,-4,-31,-67,-13,-22
1491693933485,3,9,3,-3,26,7,-120,-9,-15
1491693933485,3,17,-9,18,-19,28,32,23,22
1491693933494,0,-5,21,61,-28,40,-2,-67,16
1491693933494,0,-1,-21,-74,57,-76,-22,51,-4
1491693933515,1,-16,-37,-39,-57,12,26,27,-13
1491693933515,1,6,16,-2,52,41,4,-46,-22
1491693933517,2,20,26,59,-79,47,-4,50,21
1491693933517,2,11,-11,-27,78,-48,-12,-32,25
1491693933517,3,-4,2,2,-55,-21,26,-19,-18
1491693933517,3,-6,-7,8,62,-30,-10,31,-25
1491693933518,0,-6,3,-28,-14,31,-81,-40,-8
1491693933518,0,-8,-7,0,-104,-30,31,-21,13
1491693933548,1,10,11,29,44,25,9,28,-16
1491693933548,1,-3,-10,-51,-128,-92,-81,-39,0
1491693933549,2,-12,-16,27,127,-63,54,81,-4
1491693933549,2,-3,2,4,2,87,-25,-33,-20
1491693933550,3,15,14,32,63,40,-51,-39,28
1491693933550,3,14,15,-20,22,33,112,27,1
1491693933580,0,-33,-46,-84,-44,-125,-123,17,-25
1491693933580,0,16,1,26,12,-1,64,25,29
1491693933581,1,5,44,94,56,91,-10,-10,2
1491693933581,1,-4,2,-22,-45,-70,4,7,10
1491693933582,2,-19,-69,-104,-99,-69,-116,-112,-32
1491693933582,2,-2,-13,-21,68,63,104,30,-10
1491693933613,3,16,33,73,63,97,62,73,13
1491693933613,3,4,28,42,101,63,38,32,9
1491693933614,0,-9,5,-6,-48,-96,58,21,-2
1491693933614,0,1,26,-12,-108,54,-1,-44,10
1491693933615,1,-6,-16,-24,-94,-128,-74,12,-23
1491693933615,1,-11,-43,-9,72,-65,-95,-50,28
1491693933645,2,-5,-26,-26,14,-39,14,12,-21
1491693933645,2,-2,5,12,-46,1,-92,-22,-1
1491693933646,3,5,25,32,8,35,126,-6,-10
1491693933646,3,-3,25,-19,84,30,-22,-1,1
1491693933647,0,7,-16,-28,44,-14,-54,96,30
1491693933647,0,-4,-7,22,-14,-23,-54,-87,-42
1491693933648,1,-12,-9,-55,-114,-27,66,-6,17
1491693933648,1,22,17,84,74,105,51,29,7
1491693933678,2,6,70,106,68,127,-31,58,39
1491693933678,2,-8,-40,-114,-54,-112,-22,-52,-37
1491693933679,3,-17,-86,-116,6,-37,15,-17,-15
1491693933679,3,-7,-18,20,-3,95,-42,-12,1
1491693933680,0,19,25,41,69,97,26,7,-4
1491693933680,0,21,52,62,-43,95,6,59,40
1491693933710,1,8,28,31,89,2,66,3,-4
1491693933710,1,-3,8,48,-27,8,-58,-15,-9
1491693933711,2,-6,-2,-51,-20,-89,109,32,-8
1491693933711,2,-10,-26,-49,-30,-71,-98,14,-18
1491693933712,3,-1,-13,-89,19,-57,46,-18,-11
1491693933712,3,-14,-22,-20,21,15,-82,-88,-12
1491693933775,0,-1,-1,8,-11,-6,-20,5,-1
1491693933775,0,-16,-17,7,-29,-20,46,44,-8
1491693933777,1,2,-5,1,-63,-72,-36,-25,5
1491693933777,1,3,14,36,-17,62,35,28,-2
1491693933777,2,-2,14,-6,7,44,63,8,-3
1491693933777,2,11,26,77,115,-26,-4,-46,10
1491693933778,3,-1,10,40,28,127,20,27,-7
1491693933778,3,-1,-16,-118,56,-128,-87,-9,2
1491693933808,0,-19,-72,-36,-38,25,-59,-104,-41
1491693933808,0,13,44,101,114,120,77,10,22
1491693933809,1,0,-1,-65,-128,-128,0,10,-2
1491693933809,1,-14,-19,-13,-92,106,-13,-32,-19
1491693933811,2,3,-4,-35,10,-128,-80,30,-4
1491693933811,2,-17,-65,-80,-35,19,35,-15,-15
1491693933812,3,2,44,65,52,32,-19,7,-1
1491693933812,3,15,26,35,-8,39,23,0,0
1491693933840,0,5,35,43,-38,7,50,18,15
1491693933840,0,-6,-24,10,60,65,19,15,-3
1491693933841,1,-2,16,-27,-46,-102,-95,-24,7
1491693933841,1,-8,-48,-23,-27,-49,127,54,9
1491693933842,2,15,53,44,-1,30,-29,-41,-22
1491693933842,2,-1,50,3,6,9,-64,48,-2
1491693933843,3,-8,3,-19,6,13,-41,-19,0
1491693933843,3,-5,-68,-2,-39,-53,-11,-18,2
1491693933873,0,-11,4,-7,-2,26,-78,-59,7
1491693933873,0,-10,18,-12,-8,-3,-77,4,-20
1491693933874,1,-7,-85,-7,22,21,13,15,1
1491693933874,1,-6,101,33,3,10,93,-5,-15
1491693933875,2,4,-53,-18,8,-8,-57,20,17
1491693933875,2,19,74,5,0,-9,-114,-13,10
1491693933876,3,-17,18,22,11,82,59,-23,-11
1491693933876,3,14,-105,-14,-30,-104,-107,29,15
1491693933905,0,8,96,-5,-9,41,33,-115,-12
1491693933905,0,-9,-45,-19,-14,-5,122,47,5
1491693933906,1,4,-21,6,11,34,-47,-59,-28
1491693933906,1,-20,4,3,6,25,105,39,-8
1491693933907,2,3,-2,-1,14,-18,-68,16,-5
1491693933907,2,9,-36,-8,-3,-37,73,-13,10
1491693933909,3,-5,17,1,-2,-4,6,25,-2
1491693933909,3,10,8,-3,-12,-4,-62,-59,1
1491693933970,0,-15,-6,8,-83,93,127,50,-6
1491693933970,0,-6,-5,1,69,-70,-38,-81,-21
1491693933972,1,10,-13,5,23,32,-19,18,17
1491693933972,1,0,40,10,-5,41,127,16,-20
1491693933973,2,9,-21,-16,-13,15,-23,-53,34
1491693933973,2,-25,-43,-22,-54,55,88,93,-3
1491693933974,3,7,2,7,-2,-75,-104,-109,-17
1491693933974,3,3,21,20,23,-51,-48,22,-16
1491693934003,0,-8,-21,21,53,72,127,30,6
1491693934003,0,-4,-29,-45,-49,1,27,-28,-14
1491693934004,1,-4,7,18,3,9,96,55,16
1491693934004,1,-2,16,-44,-89,-77,-74,82,20
1491693934005,2,-4,-11,23,26,81,109,-9,-31
1491693934005,2,15,-28,-29,-20,-128,-46,-8,15
1491693934011,3,8,3,49,69,120,84,37,8
1491693934011,3,20,38,46,-38,-8,-72,-8,-7
1491693934035,0,-8,-23,-72,90,-100,-81,-6,10
1491693934035,0,-16,-14,-1,-94,-52,-7,-56,21
1491693934037,1,-11,-8,-41,-61,-72,-32,-51,-81
1491693934037,1,17,-6,43,100,59,115,23,20
1491693934037,2,4,3,27,95,-50,7,2,6
1491693934037,2,0,13,21,0,48,98,78,-24
1491693934038,3,-11,-10,-44,-37,2,-19,-50,42
1491693934038,3,5,17,29,-41,-13,-3,28,17
1491693934068,0,-9,4,30,-68,97,64,-20,-61
1491693934068,0,18,26,37,127,-23,-93,4,33
1491693934069,1,-37,-22,-49,74,-97,-36,-5,-7
1491693934069,1,29,-10,4,-68,38,46,-72,-56
1491693934070,2,12,-20,4,43,-36,-16,60,4
1491693934070,2,-10,8,-24,-89,11,-57,-22,-40
1491693934071,3,26,17,22,-18,32,-62,-9,22
1491693934071,3,-11,10,1,107,61,68,-18,29
1491693934101,0,-9,-7,8,-42,-128,-114,22,22
1491693934101,0,-14,-1,-24,13,74,127,-5,7
1491693934102,1,3,44,97,-85,93,-30,8,-35
1491693934102,1,-22,-30,-102,16,-68,105,33,27
1491693934103,2,-9,-23,-4,-72,2,-35,-42,-18
1491693934103,2,-8,3,11,0,62,-23,11,-15
1491693934133,3,-2,-13,-16,-43,-16,-33,-62,-2
1491693934133,3,7,-8,5,6,-73,-44,30,26
1491693934135,0,-3,26,43,15,127,103,42,-8
1491693934135,0,-2,-7,-17,10,-119,16,22,-6
1491693934136,1,-3,-5,2,33,37,18,3,7
1491693934136,1,-6,13,16,-5,26,21,-43,1
1491693934165,2,1,5,-16,81,-16,2,79,17
1491693934165,2,-11,9,44,16,32,44,-42,0
1491693934198,3,32,-15,-89,-110,-74,23,41,7
1491693934198,3,-32,7,15,120,47,52,6,-32
1491693934200,0,17,-17,-16,-28,-19,-44,-33,5
1491693934200,0,6,21,14,-34,-5,-89,35,27
1491693934200,1,-17,-53,-58,56,-117,-5,-28,-11
1491693934200,1,1,-3,-48,-128,-9,-2,-38,-29
1491693934201,2,-20,-2,36,29,-18,76,23,16
1491693934201,2,-9,25,10,66,21,-80,-19,-25
1491693934230,3,30,20,86,36,106,45,45,70
1491693934230,3,-22,-19,-50,90,-109,-128,-101,-46
1491693934231,0,17,-17,-17,44,80,102,20,6
1491693934231,0,-5,-1,-12,-27,-89,-46,6,37
1491693934232,1,-3,-44,21,127,-26,-8,-38,-106
1491693934232,1,-4,26,16,25,127,89,48,51
1491693934233,2,18,16,2,-29,30,4,-5,22
1491693934233,2,0,3,-21,-26,33,61,-14,18
1491693934263,3,-4,1,-4,-85,-24,51,48,23
1491693934263,3,3,29,57,-17,51,23,66,6
1491693934264,0,-37,3,28,59,55,-17,-8,-4
1491693934264,0,34,-45,-89,-91,-74,-21,-16,-15
1491693934264,1,-19,-27,-23,-43,-21,5,-1,0
1491693934264,1,-29,-6,22,17,-50,-86,-30,-32
1491693934265,2,-1,9,27,24,58,-23,-25,-26
1491693934265,2,-2,-5,16,-25,44,100,59,4
1491693934295,3,-6,27,29,0,-2,-128,-22,1
1491693934295,3,4,-14,-39,-119,-60,-67,-40,0
1491693934296,0,-12,-7,-29,-3,-43,-31,-16,-30
1491693934296,0,-10,1,76,80,8,-7,-27,-15
1491693934297,1,23,5,-69,-41,10,-61,16,19
1491693934297,1,19,16,17,0,44,55,24,9
1491693934328,2,-27,2,-35,28,-53,41,-40,0
1491693934328,2,7,-5,69,73,119,-108,7,-14
1491693934329,3,41,12,-29,-33,-63,127,103,34
1491693934329,3,-42,-50,-61,89,72,100,-30,-35
1491693934329,0,3,-18,-42,-128,-128,-128,-50,-38
1491693934329,0,-15,4,14,36,65,58,-17,1
1491693934330,1,1,33,40,85,59,16,-14,4
1491693934330,1,4,-15,-30,-114,-6,-4,38,22
1491693934362,2,-4,-5,21,91,-17,87,-13,-9
1491693934362,2,-1,14,-17,-33,2,5,30,33
1491693934363,3,-9,-8,-4,-22,-63,-22,-40,-15
1491693934363,3,2,3,43,-29,54,3,24,5
1491693934393,0,-18,-24,-59,4,-62,-128,-7,-3
1491693934393,0,40,19,46,45,55,114,11,-15
1491693934394,1,-10,0,-5,92,25,-47,-36,-6
1491693934394,1,26,-4,35,-18,-5,-67,12,38
1491693934395,2,8,11,-16,63,-61,3,18,23
1491693934395,2,-37,-45,-34,-9,-74,8,3,-39
1491693934396,3,47,22,8,18,77,107,-4,19
1491693934396,3,-23,-10,-10,-36,-13,-97,-37,-18
1491693934425,0,12,8,6,-87,1,-58,18,22
1491693934425,0,13,-4,-34,-8,0,-23,3,8
1491693934426,1,-38,-9,21,-4,46,-2,-16,4
1491693934426,1,4,7,20,92,-49,4,28,-23
1491693934428,2,16,-9,17,10,32,41,-28,-3
1491693934428,2,-7,16,-14,50,38,22,42,4
1491693934458,3,-20,-7,-28,-90,-103,-5,29,-10
1491693934458,3,15,9,-5,28,20,11,-75,11
1491693934459,0,-20,-22,-10,-33,-28,-48,27,-25
1491693934459,0,5,16,13,-60,14,-2,-5,-4
1491693934459,1,-4,-17,-13,115,17,24,49,26
1491693934459,1,-20,-2,-14,-21,13,56,1,-10
1491693934460,2,23,6,4,19,-3,-60,23,29
1491693934460,2,-6,-14,-29,-71,-5,-31,-22,2
1491693934491,3,-16,3,10,-59,18,-7,-8,-18
1491693934491,3,23,36,33,95,77,19,-2,35
1491693934493,0,-16,-23,-6,9,-68,-6,-25,-56
1491693934493,0,-4,3,71,127,33,-69,25,16
1491693934494,1,28,0,-84,-85,-49,-65,-13,-7
1491693934494,1,6,-22,-17,-9,-5,97,36,11
1491693934523,2,5,8,3,-56,75,13,2,-9
1491693934523,2,-5,14,22,108,-48,7,-38,11
1491693934525,3,-4,4,41,44,-13,-41,-19,-15
1491693934525,3,-1,-15,17,-51,-3,35,40,-9
1491693934526,0,-8,14,-53,-114,26,-51,-28,18
1491693934526,0,1,-17,-11,-83,-36,61,-5,-29
1491693934555,1,-22,-6,-21,10,11,29,-15,-6
1491693934555,1,16,-15,-46,-24,-77,42,24,1
1491693934557,2,-4,11,37,3,55,-35,-20,0
1491693934557,2,28,6,4,36,11,-11,-27,9
1491693934558,3,-37,-6,28,-5,16,74,12,2
1491693934558,3,4,9,-38,-58,-54,-64,8,11
1491693934588,0,2,-14,-6,92,26,-2,-67,-7
1491693934588,0,-13,2,-14,-77,15,69,60,-9
1491693934590,1,-3,-10,45,89,-71,-88,-13,-10
1491693934590,1,-40,8,32,89,80,22,55,-31
1491693934591,2,20,-11,-35,-91,-89,-22,36,45
1491693934591,2,-12,-17,-21,-58,12,-54,-72,-22
1491693934594,3,-8,11,15,4,69,116,26,-3
1491693934594,3,-6,2,-4,-62,-43,-90,-44,2
1491693934621,0,-8,-17,-48,-68,-15,37,-53,-14
1491693934621,0,-15,-12,-13,-17,-68,-55,2,12
1491693934623,1,12,11,-8,-13,67,33,6,-2
1491693934623,1,8,-2,21,-1,-58,-2,-22,9
1491693934624,2,-24,-7,8,37,-3,122,38,5
1491693934624,2,2,9,-16,-10,17,0,-82,-53
1491693934653,3,13,11,17,45,12,23,66,6
1491693934653,3,14,4,19,58,-1,30,-67,30
1491693934654,0,2,0,1,-35,14,21,93,9
1491693934654,0,-5,-19,-37,-1,-25,-68,-1,-44
1491693934660,1,-28,5,5,-83,36,20,-22,7
1491693934660,1,-3,0,-3,92,13,-103,47,-2
1491693934685,2,2,2,10,-11,-49,13,-62,-27
1491693934685,2,25,3,-1,36,43,11,-26,51
1491693934686,3,-13,-9,-21,-19,15,0,33,-25
1491693934686,3,-24,-3,-13,-128,-43,-71,-45,-36
1491693934751,0,10,1,0,66,4,86,53,25
1491693934751,0,0,3,21,46,36,-41,10,-12
1491693934755,1,14,6,-4,-31,-43,-33,-106,30
1491693934755,1,-21,-14,-15,-41,7,54,24,-23
1491693934756,2,0,3,20,-58,70,-4,32,-15
1491693934756,2,9,10,2,30,-27,111,25,-2
1491693934757,3,-8,-22,-18,-17,-71,-113,-21,49
1491693934757,3,27,25,30,40,21,87,-22,-22
1491693934783,0,-10,-2,-8,28,38,23,27,19
1491693934783,0,-8,-11,-1,-9,-10,16,38,17
1491693934785,1,-11,15,31,-13,26,-47,-32,-38
1491693934785,1,7,-7,3,-56,26,-16,53,1
1491693934786,0,15,6,6,14,60,89,28,18
1491693934786,0,-14,5,-9,13,-47,-87,-39,-30
1491693934787,1,17,-1,-15,-17,49,71,36,-4
1491693934787,1,18,6,0,-26,-51,-111,-22,17
1491693934816,2,-21,-15,4,27,3,57,-1,-36
1491693934816,2,18,6,-8,-88,-44,-43,31,26
1491693934818,3,8,1,4,77,19,3,19,20
1491693934818,3,-11,-3,-7,11,72,65,2,-18
1491693934819,0,7,3,19,32,-73,-128,-23,26
1491693934819,0,-8,-2,5,-16,-2,119,-45,-8
1491693934820,1,-3,0,-8,-8,39,43,40,9
1491693934820,1,-8,-11,-27,-8,-57,-79,-6,-21
1491693934848,2,20,20,49,-44,91,1,-8,29
1491693934848,2,10,-6,-21,115,-28,10,17,31
1491693934850,3,-6,-6,-15,13,-1,-33,-51,-18
1491693934850,3,-9,-16,-15,32,-4,14,49,-5
1491693934881,0,28,19,24,-38,-2,54,5,28
1491693934881,0,-1,-12,-13,-3,-2,-82,-5,-7
1491693934884,1,-11,9,26,41,-1,66,3,-5
1491693934884,1,-5,-1,-10,11,10,-40,-17,-3
1491693934885,2,-9,14,9,-28,8,47,34,-14
1491693934885,2,-12,-19,-1,51,63,0,35,18
1491693934886,3,0,-10,-17,-87,-79,-15,-37,-19
1491693934886,3,-4,-12,-17,-18,-33,44,2,-26
1491693934915,0,-5,6,6,-35,63,-3,-17,-18
1491693934915,0,12,13,2,17,-63,7,9,33
1491693934917,1,1,-11,-17,17,-10,-37,19,20
1491693934917,1,-18,-8,40,50,20,111,5,-46
1491693934918,2,-2,2,-35,-3,-28,-112,-80,6
1491693934918,2,-12,-6,6,-103,34,92,-2,-7
1491693934919,3,-2,7,14,95,12,39,18,-24
1491693934919,3,3,2,17,25,24,26,-63,-6
1491693934946,0,-12,-12,-31,2,-108,15,23,3
1491693934946,0,12,-2,10,-2,-20,-26,-45,-8
1491693934947,1,-14,-13,-14,-44,-29,-35,-2,-34
1491693934947,1,7,-4,5,-2,45,-30,-8,4
1491693934948,2,-18,19,8,-58,44,60,15,-7
1491693934948,2,8,8,13,57,-7,-19,-6,26
1491693934979,3,8,-20,-10,-4,54,27,1,-8
1491693934979,3,0,-4,-8,-4,-58,-60,-15,6
1491693934980,0,-2,9,27,55,68,-47,-39,-25
1491693934980,0,-22,5,-7,-78,-2,92,59,-29
1491693934981,1,8,-10,-16,-40,-77,-111,3,24
1491693934981,1,17,1,-27,1,33,-31,19,24
1491693934983,2,6,-7,4,41,-5,34,29,0
1491693934983,2,0,15,29,-12,19,-87,-86,-10
1491693935011,3,29,26,1,57,58,90,68,23
1491693935011,3,-16,-10,-6,-23,-21,-26,-1,16
1491693935014,0,-9,-8,-11,6,-25,-8,3,-18
1491693935014,0,-22,-19,-9,0,12,62,6,-8
1491693935015,1,4,-14,-13,-26,-59,-90,-30,2
1491693935015,1,2,4,8,1,-24,18,-11,0
1491693935043,2,10,21,23,88,44,26,3,24
1491693935043,2,2,-14,-31,-42,-20,-14,41,-3
1491693935044,3,8,3,8,-42,-6,-23,18,15
1491693935044,3,-5,-8,-10,6,9,53,-13,-16
1491693935045,0,4,-1,29,40,49,-38,-35,6
1491693935045,0,-1,5,-3,17,36,-1,5,12
1491693935076,1,-18,2,0,-26,1,80,11,-29
1491693935076,1,21,5,17,-15,-15,-37,31,37
1491693935077,2,9,-8,-7,35,-55,-103,3,-6
1491693935077,2,6,-1,-14,-45,-29,-83,-17,1
1491693935078,3,-14,-12,-3,-14,-7,42,-78,-39
1491693935078,3,-17,-5,-12,-23,-38,23,9,27
1491693935108,0,-1,-17,-7,-19,-13,-51,-8,-16
1491693935108,0,-2,13,15,55,56,118,42,-7
1491693935110,1,-4,6,5,5,2,-46,58,40
1491693935110,1,-6,14,6,-8,9,42,-39,-54
1491693935111,2,15,0,-3,6,-44,3,13,-6
1491693935111,2,-10,-7,15,34,40,51,-16,-8
1491693935141,3,-13,14,-6,-44,10,-58,-21,-23
1491693935141,3,8,-5,-7,20,-19,-1,9,3
1491693935142,0,-33,-8,-28,8,-35,-40,-60,12
1491693935142,0,11,-5,8,-11,8,47,27,-15
1491693935143,1,8,-6,5,-10,-6,-58,-20,-5
1491693935143,1,-3,1,-2,19,57,54,-6,33
1491693935144,2,2,1,-2,22,-7,-12,48,-38
1491693935144,2,33,9,-38,-104,-61,-64,37,56
1491693935174,3,-2,-16,24,62,-5,-9,4,15
1491693935174,3,-15,8,-19,-28,8,-53,14,-6
1491693935175,0,-30,-12,3,18,25,99,-2,-32
1491693935175,0,42,0,24,42,46,17,-13,53
1491693935176,1,10,32,-8,-14,-39,-5,22,17
1491693935176,1,-12,-9,-21,-51,-17,-30,-4,-29
1491693935206,2,-3,-21,2,-19,-6,-17,-10,18
1491693935206,2,5,6,-13,1,-16,-127,-75,-42
1491693935207,3,-14,-7,36,28,34,-29,15,1
1491693935207,3,12,-6,-3,24,-50,105,44,20
1491693935208,0,-4,7,-1,-46,-25,-87,-26,33
1491693935208,0,-27,5,51,96,46,70,2,-72
1491693935239,1,6,-16,-59,-81,-14,90,-19,13
1491693935239,1,1,-21,-5,-17,-54,-105,5,-4
1491693935240,2,34,-14,-21,-57,-29,40,7,-1
1491693935240,2,-7,35,50,-10,79,64,22,24
1491693935242,3,33,26,-6,20,-10,-25,7,19
1491693935242,3,-32,-13,-1,57,101,103,14,-53
1491693935271,0,18,-16,21,-4,-51,-55,40,90
1491693935271,0,-32,-25,-51,-9,-25,-124,-50,-52
1491693935272,1,-1,21,92,127,123,127,-22,13
1491693935272,1,0,-25,-109,-128,-109,-70,-32,49
1491693935274,2,3,-16,-27,-81,17,-1,14,-37
1491693935274,2,-31,-5,7,34,-38,-82,8,-25
1491693935275,3,-20,-22,-3,-29,5,21,-8,-60
1491693935275,3,41,42,67,118,76,14,15,42
1491693935303,0,-8,39,11,9,-26,42,-59,5
1491693935303,0,10,-5,-14,-55,6,-48,44,38
1491693935307,1,-17,-10,-1,4,-43,-32,-8,-48
1491693935307,1,12,45,121,71,105,-42,-22,-39
1491693935308,2,9,-10,-79,-1,-72,14,19,62
1491693935308,2,-31,-32,-62,-81,42,111,29,-75
1491693935336,3,-6,-6,-29,-26,-1,-86,-5,9
1491693935336,3,-53,-19,-75,-122,15,56,-52,-47
1491693935337,0,60,-6,29,120,-36,-89,47,32
1491693935337,0,-31,-10,25,48,-40,-28,-68,-38
1491693935339,1,32,31,50,36,41,-28,42,71
1491693935339,1,-4,-1,-41,-31,-93,15,35,-4
1491693935368,2,-48,-29,-38,-34,62,90,-65,-84
1491693935368,2,100,77,93,103,36,-100,62,97
1491693935369,3,-38,-44,-57,-71,81,78,65,-36
1491693935369,3,-11,-25,-37,-63,-78,-88,-59,2
1491693935370,0,-7,-2,-8,-51,88,82,-18,13
1491693935370,0,-1,2,-18,-125,29,-32,18,37
1491693935401,1,16,40,52,88,75,93,51,-32
1491693935401,1,-6,-54,-49,80,-106,-128,30,22
1491693935402,2,69,1,-40,-99,-16,39,-35,-22
1491693935402,2,-6,14,113,66,91,-15,9,63
1491693935403,3,26,60,-14,-93,-76,104,34,66
1491693935403,3,-11,-28,-21,80,-40,-106,-51,15
1491693935404,0,-64,-12,-18,66,95,52,38,-57
1491693935404,0,21,-9,-19,15,-99,-46,-51,-1
1491693935440,1,1,-8,89,80,-27,-69,1,-2
1491693935440,1,-3,75,117,-26,105,44,59,-42
1491693935442,2,-37,-13,-73,-93,-108,55,35,49
1491693935442,2,-44,-55,-16,37,-42,14,-92,-104
1491693935443,3,80,6,-42,-67,-23,29,-18,41
1491693935443,3,-26,-13,53,82,0,56,-36,-31
1491693935466,0,38,53,90,85,127,-72,-28,-8
1491693935466,0,-30,-1,-70,-35,-77,104,70,50
1491693935467,1,-23,-29,58,18,43,-75,31,-38
1491693935467,1,7,0,-88,60,-47,73,-12,25
1491693935468,2,-24,16,12,-30,-43,-68,-35,-10
1491693935468,2,9,-6,-40,72,50,127,-31,-15
1491693935500,3,-30,-5,18,21,-50,-107,-11,29
1491693935500,3,22,-3,-52,37,-44,16,-6,-49
1491693935502,0,-6,-44,-6,-9,-32,16,45,77
1491693935502,0,-10,-25,-39,-92,3,-110,11,-12
1491693935504,1,-29,12,54,82,65,17,-28,19
1491693935504,1,8,51,29,-111,127,-56,56,-2
1491693935530,2,33,-54,-56,69,-120,-40,-37,17
1491693935530,2,-10,-26,5,-122,-69,-7,-33,-33
1491693935535,3,-26,-13,-88,-37,-95,-48,-73,-42
1491693935535,3,48,5,29,-36,45,8,17,35
1491693935535,0,-43,6,70,85,53,18,-7,-100
1491693935535,0,9,27,-36,4,-89,85,89,44
1491693935536,1,-37,-64,-42,76,-60,11,-36,-45
1491693935536,1,-16,0,34,-62,102,-4,-11,-10
1491693935565,2,3,20,-11,-48,-110,-54,-1,6
1491693935565,2,-3,12,35,67,125,35,36,43
1491693935567,3,-31,-18,-73,-71,-100,-30,-27,-72
1491693935567,3,0,-11,-14,-20,11,77,-62,56
1491693935568,0,29,17,27,-41,67,18,78,-32
1491693935568,0,2,13,-20,104,-75,-32,-57,-19
1491693935595,1,35,22,25,15,100,41,-7,20
1491693935595,1,-5,-46,-65,-25,-95,2,-9,-6
1491693935597,2,-47,-15,1,-77,-96,-37,36,-33
1491693935597,2,-7,-9,-3,14,-19,-86,-46,-36
1491693935598,3,6,-26,-25,24,2,-11,-16,19
1491693935598,3,-10,64,114,-59,62,9,52,-3
1491693935628,0,-6,-14,-33,66,-24,27,-61,-17
1491693935628,0,34,-23,-3,-120,-5,-50,19,16
1491693935631,1,-11,20,87,74,83,14,-19,-8
1491693935631,1,-1,13,41,-85,-66,67,67,29
1491693935632,2,-18,-32,-31,1,32,58,-19,-29
1491693935632,2,0,-6,16,73,72,22,-49,-2
1491693935660,3,66,-9,-63,-27,-97,83,40,39
1491693935660,3,-8,-1,17,-20,-2,-101,-46,21
1491693935662,0,18,12,45,127,116,109,73,20
1491693935662,0,-33,-19,-84,92,-38,74,-54,-50
1491693935663,1,-9,-8,-24,-113,-3,1,40,30
1491693935663,1,10,-1,-17,66,27,23,2,-30
1491693935664,2,-19,30,75,-128,65,2,16,25
1491693935664,2,-26,2,22,-100,14,41,-2,-47
1491693935693,3,17,34,28,50,97,63,66,10
1491693935693,3,-1,-16,-76,104,-97,-34,-5,11
1491693935694,0,-13,-58,-92,-113,-21,-78,-49,-24
1491693935694,0,-7,60,111,-33,71,127,-7,28
1491693935695,1,17,-20,-128,-3,-128,-128,-80,-7
1491693935695,1,-24,-25,58,52,89,17,-26,-67
1491693935725,2,14,31,-22,-12,-97,42,87,29
1491693935725,2,35,-18,-23,-68,12,-105,-54,-5
1491693935726,3,-36,6,37,-12,-63,77,22,-44
1491693935726,3,28,33,-15,20,37,-106,-49,45
1491693935727,0,-21,-18,-44,-25,-56,4,-62,-14
1491693935727,0,1,-8,14,92,9,16,31,-33
1491693935758,1,-17,6,-12,-69,9,107,4,32
1491693935758,1,5,3,104,85,71,117,49,11
1491693935759,2,2,15,-17,84,13,-9,-28,-24
1491693935759,2,-12,17,-66,-128,-21,-19,41,50
1491693935790,3,-26,-38,-48,58,-34,-128,-66,-51
1491693935790,3,-16,-40,29,-4,-5,-69,-52,-8
1491693935792,0,14,31,27,65,106,40,16,23
1491693935792,0,-20,14,40,8,67,39,34,1
1491693935794,1,17,-4,-18,-9,-36,-20,8,2
1491693935794,1,-18,-14,-42,-30,28,-91,-77,-62
1491693935794,2,4,16,44,-105,65,68,30,36
1491693935794,2,0,-18,-19,127,-63,-94,10,12
1491693935823,3,-3,16,48,12,83,64,-30,0
1491693935823,3,10,-15,-39,-24,-37,46,55,34
1491693935825,0,2,3,32,-70,-35,-99,-51,-5
1491693935825,0,20,1,17,46,9,72,61,22
1491693935826,1,-14,-20,-74,-90,-78,43,23,-14
1491693935826,1,9,-57,-67,-3,-97,-92,-10,-25
1491693935827,2,-2,35,42,-21,-51,65,-17,-9
1491693935827,2,14,-11,-8,58,6,56,54,-14
1491693935856,3,1,23,53,0,5,-9,6,41
1491693935856,3,2,-5,-72,-4,-70,-42,27,-14
1491693935857,0,-4,-78,-66,-74,-114,-80,14,-15
1491693935857,0,-3,40,62,-18,16,22,-31,-14
1491693935888,1,-42,2,0,-17,-10,38,-4,3
1491693935888,1,4,-49,-70,-23,-48,40,7,-2
1491693935890,2,-4,27,39,47,71,34,-38,-5
1491693935890,2,-9,-35,-80,-65,-118,-128,-58,-31
1491693935895,3,14,93,127,63,127,107,61,43
1491693935895,3,18,14,-113,49,-128,28,-13,13
1491693935896,0,-29,-73,-28,-38,46,-9,-37,-72
1491693935896,0,10,-2,35,-86,14,20,20,34
1491693935921,1,16,-42,-21,-63,10,-19,-62,-50
1491693935921,1,18,73,127,-4,127,97,8,43
1491693935928,2,7,8,5,74,-16,-49,14,17
1491693935928,2,-10,-3,-31,-15,-32,-1,-22,7
1491693935929,3,21,-27,-30,68,-12,-52,-4,-5
1491693935929,3,-28,-18,-45,-82,13,68,60,-18
1491693935930,0,12,34,67,127,-55,5,44,44
1491693935930,0,11,16,-20,-62,39,115,1,-5
1491693935954,1,-21,1,-57,-128,-10,4,-103,21
1491693935954,1,0,-64,-26,-56,8,57,68,-12
1491693935956,2,-6,-17,13,101,76,57,-3,-25
1491693935956,2,-28,14,83,125,48,-9,41,12
1491693935957,3,12,21,-36,-68,-47,8,-18,-34
1491693935957,3,-46,4,-1,18,-35,-62,-24,5
1491693935986,0,52,59,33,-88,4,-19,10,55
1491693935986,0,3,11,-29,-18,24,-64,-53,-14
1491693935987,1,-8,-46,-37,-59,83,-9,34,20
1491693935987,1,25,64,127,94,102,29,-29,3
1491693935989,2,-36,-91,-128,-122,-115,-110,-16,-69
1491693935989,2,-3,1,104,-19,110,-5,-118,-18
1491693936018,3,11,-35,24,22,19,54,20,8
1491693936018,3,-11,29,62,18,102,36,-10,-25
1491693936020,0,30,24,47,127,-3,24,-32,35
1491693936020,0,9,2,-2,55,-1,-13,87,4
1491693936021,1,16,-26,-76,-48,-91,-28,-25,-10
1491693936021,1,-10,-10,-15,45,114,96,-24,23
1491693936051,2,34,46,28,-17,-33,-55,46,13
1491693936051,2,-4,-20,-103,33,-50,-91,7,-9
1491693936057,3,-24,-20,26,36,70,13,-73,-51
1491693936057,3,16,8,73,31,-55,11,28,51
1491693936059,0,-66,-33,-127,-102,-71,-45,-37,-75
1491693936059,0,15,-2,92,8,31,0,49,52
1491693936116,1,14,66,-33,112,107,61,110,17
1491693936116,1,-21,-67,-84,-105,-128,-115,-98,-8
1491693936148,2,-9,54,47,82,127,58,4,-2
1491693936148,2,17,8,-32,-57,11,124,12,14
1491693936150,3,7,83,127,117,118,49,48,12
1491693936150,3,9,6,59,-14,25,70,5,-9
1491693936151,0,-14,2,-53,-103,-71,-76,-2,7
1491693936151,0,-9,-61,-109,-24,45,91,17,-5
1491693936153,1,-9,21,11,-33,-32,5,-2,-21
1491693936153,1,-24,-14,-30,31,-3,-74,-78,-20
1491693936213,2,4,-15,28,-8,67,122,71,36
1491693936213,2,-7,19,7,-10,50,67,-13,-3
1491693936214,0,3,-17,77,-3,127,122,27,1
1491693936214,0,-9,-13,1,-62,-92,-88,-33,-17
1491693936215,3,18,24,81,63,53,28,-9,27
1491693936215,3,4,-27,-102,41,-88,-76,33,-5
1491693936215,0,-24,12,53,4,106,76,-17,-2
1491693936215,0,19,49,87,64,105,-1,38,12
1491693936245,1,-29,-93,-128,-51,-128,-128,-84,-42
1491693936245,1,37,75,127,69,102,-9,18,52
1491693936246,2,19,24,-63,6,-60,-8,22,-12
1491693936246,2,-20,-41,2,37,-78,-17,2,-26
1491693936250,3,-3,-11,31,-41,93,26,1,3
1491693936250,3,0,13,18,10,55,48,33,-10
1491693936250,2,10,63,127,68,118,50,46,8
1491693936250,2,3,-43,-92,9,-77,56,-6,19
1491693936278,3,-15,-8,11,-31,23,49,68,-5
1491693936278,3,8,2,28,5,11,69,-6,-3
1491693936279,0,3,-14,-90,-81,-95,-115,-13,26
1491693936279,0,4,37,8,34,-5,2,-20,14
1491693936283,1,-26,4,36,6,38,0,-6,-20
1491693936283,1,38,11,-28,10,71,7,35,87
1491693936283,2,-22,-56,-23,63,23,79,42,-16
1491693936283,2,9,55,35,45,-78,-45,5,16
1491693936310,3,-10,-52,-80,18,20,5,-88,-25
1491693936310,3,-30,5,-30,-113,-42,-59,-24,-21
1491693936314,0,12,38,116,37,100,61,35,20
1491693936314,0,16,-21,-112,50,-69,24,-39,8
1491693936315,1,7,5,53,-6,63,-3,17,15
1491693936315,1,21,34,8,-5,108,45,13,25
1491693936316,2,-18,-64,-35,43,-128,-119,-57,-35
1491693936316,2,-41,-13,-1,-25,102,2,-11,-64
1491693936376,3,38,24,32,0,22,-43,13,53
1491693936376,3,-5,-2,-15,53,-63,-26,31,-3
1491693936377,0,-2,-22,-29,-56,65,84,-49,2
1491693936377,0,9,8,49,6,8,-71,10,-3
1491693936378,1,-4,5,-44,-12,-32,16,2,14
1491693936378,1,-23,29,14,-59,-21,-33,1,-29
1491693936379,2,17,1,14,-30,-40,-15,11,8
1491693936379,2,9,-12,-74,-31,29,67,4,4
1491693936408,3,-7,12,29,-30,1,-31,9,-14
1491693936408,3,-16,-20,5,-27,-45,-42,-27,-32
1491693936409,0,-5,-11,53,117,78,25,-8,-15
1491693936409,0,-16,25,14,-33,70,110,-23,-25
1491693936410,2,18,4,-4,-111,-28,-43,-12,-19
1491693936410,2,-16,-1,-56,83,7,67,6,-5
1491693936411,3,16,15,-107,17,29,43,7,-5
1491693936411,3,5,-18,-128,51,-43,-18,1,5
1491693936440,0,-17,3,-37,-30,18,-21,-57,-30
1491693936440,0,7,6,61,-55,-54,-29,89,10
1491693936442,1,-16,-34,81,59,-38,-12,-29,-41
1491693936442,1,16,-6,123,-66,-30,67,11,43
1491693936442,2,11,31,125,121,21,-45,22,26
1491693936442,2,-3,-25,95,-94,-21,-36,-11,-15
1491693936443,3,-40,2,107,51,-32,-27,-13,-5
1491693936443,3,5,3,84,-2,9,-21,-10,-26
1491693936473,0,19,10,102,77,34,-18,-5,11
1491693936473,0,0,-21,-15,-26,24,72,-4,43
1491693936474,1,-3,8,-11,-51,-4,-62,-8,-50
1491693936474,1,-5,-11,-19,-56,-81,-109,-20,13
1491693936474,2,-6,-14,-24,33,-47,-10,22,1
1491693936474,2,-5,3,8,76,101,18,-23,9
1491693936475,3,1,-6,-6,-28,-19,7,-3,1
1491693936475,3,5,-4,-44,-19,10,15,12,10
1491693936538,0,-2,12,-18,-12,58,46,17,22
1491693936538,0,-7,-15,-46,-10,-89,-106,-67,-50
1491693936571,1,-4,-1,-17,28,34,20,48,21
1491693936571,1,-31,-27,-30,20,21,19,-31,-81
1491693936603,2,15,2,-57,-67,29,-85,-11,91
1491693936603,2,-9,3,33,52,-40,31,8,-22
1491693936605,3,-11,24,-34,-42,64,61,34,-16
1491693936605,3,21,-3,31,59,-7,61,-43,2
1491693936606,0,-10,-6,-46,-17,-87,52,-4,-27
1491693936606,0,38,24,52,-25,70,7,4,55
1491693936607,1,-23,-29,2,42,-21,0,-16,-21
1491693936607,1,0,21,2,-67,-10,46,58,0
1491693936640,2,-14,0,49,-44,-79,-46,-45,-26
1491693936640,2,23,-15,-111,96,75,-2,5,15
1491693936642,1,-8,18,42,19,17,-19,-2,17
1491693936642,1,19,-5,-30,90,-25,-74,22,18
1491693936643,1,13,33,-34,-86,-7,5,27,8
1491693936643,1,-15,-14,-19,42,-56,-50,-97,7
1491693936645,2,4,7,-34,-88,47,127,17,-4
1491693936645,2,65,40,49,-60,85,39,26,53
1491693936668,3,8,9,22,-45,-41,-38,17,2
1491693936668,3,-12,-10,-55,70,4,-27,-14,-39
1491693936670,0,-4,-7,-30,112,-111,-21,-9,7
1491693936670,0,-33,1,84,61,64,-32,-71,-31
1491693936671,1,8,-15,-88,-63,-68,7,47,12
1491693936671,1,-1,-53,-15,-55,-102,-124,-60,-7
1491693936672,2,-11,23,47,-26,83,102,8,-36
1491693936672,2,-18,-38,-4,24,-36,-52,12,-9
1491693936701,3,2,56,110,77,77,13,5,-56
1491693936701,3,40,38,51,14,100,82,49,51
1491693936733,0,17,-21,-85,41,-40,10,2,-3
1491693936733,0,40,-6,26,-25,-73,-50,-25,50
1491693936734,1,-9,14,3,91,67,-83,18,21
1491693936734,1,45,5,-58,-98,-50,45,-35,-17
1491693936735,2,-9,-3,-77,-102,39,-14,25,-3
1491693936735,2,8,-11,16,99,-49,0,17,5
1491693936766,3,-39,-32,-29,-104,36,46,-8,-28
1491693936766,3,-12,38,88,71,20,69,24,30
1491693936767,0,46,-1,-8,20,-41,-91,-22,16
1491693936767,0,-75,-19,-8,48,58,56,-20,-45
1491693936768,1,42,11,-26,-26,-17,-28,12,61
1491693936768,1,-53,18,112,127,72,6,54,-59
1491693936769,2,23,-17,-89,-102,-46,-42,-62,-6
1491693936769,2,-15,-31,-102,-128,-32,74,-4,-34
1491693936798,3,1,-2,19,25,-30,-57,-27,-11
1491693936798,3,-37,-11,11,-72,-31,52,-17,-49
1491693936799,0,-29,21,56,82,-11,-17,-23,-6
1491693936799,0,31,-48,-87,18,-85,-128,0,7
1491693936800,1,11,30,1,-38,-34,39,-17,-1
1491693936800,1,12,0,-18,48,30,4,6,13
1491693936801,2,-41,0,-11,-103,-1,-91,-23,31
1491693936801,2,-28,13,40,54,-9,73,24,-66
1491693936830,3,34,13,90,78,86,-43,49,111
1491693936830,3,-13,-20,-96,-76,-70,-6,4,0
1491693936832,0,-16,-15,60,23,22,11,-38,-40
1491693936832,0,-37,-1,-51,9,21,-10,7,-28
1491693936833,1,-15,-18,15,-42,-53,29,-11,-1
1491693936833,1,-26,4,8,-26,77,1,-27,-10
1491693936834,2,29,10,8,3,2,34,10,0
1491693936834,2,5,19,-5,-27,-78,-82,16,0
1491693936863,3,-43,-33,-3,44,-7,125,-19,-54
1491693936863,3,33,-8,-11,5,2,-96,-30,49
1491693936864,0,-6,26,-11,-128,-43,20,46,51
1491693936864,0,-27,-22,-5,47,-69,5,-61,-56
1491693936866,1,-11,9,7,97,94,59,-12,-15
1491693936866,1,-2,28,-3,37,29,-67,-12,16
1491693936866,2,-9,-36,-85,-69,-4,51,1,-3
1491693936866,2,32,11,13,-106,-41,-6,8,40
1491693936895,3,-5,-18,-8,50,45,26,-34,-27
1491693936895,3,39,-6,4,-37,15,27,4,18
1491693936897,0,3,31,95,127,27,51,8,12
1491693936897,0,4,-25,-61,-80,3,3,-27,3
1491693936898,1,12,27,53,85,63,10,-40,15
1491693936898,1,19,12,40,95,-12,44,42,-1
1491693936928,2,-9,-15,-43,-95,-67,12,4,-41
1491693936928,2,-57,-44,-38,-93,-30,-50,-31,-53
1491693936929,3,0,9,18,18,57,-74,-42,8
1491693936929,3,-1,5,0,-6,69,61,19,-11
1491693936930,0,-21,-22,-27,127,-69,-74,-20,9
1491693936930,0,-27,-19,-8,21,0,3,-63,-50
1491693936960,1,17,-14,-9,-19,4,42,48,20
1491693936960,1,-5,12,27,46,20,90,44,0
1491693936961,2,15,13,13,-14,58,74,65,13
1491693936961,2,-10,20,-45,-74,-6,-69,-21,1
1491693936962,3,2,17,37,28,-1,32,49,-31
1491693936962,3,-27,-32,-40,68,-128,-72,14,-8
1491693936993,0,-10,-16,-4,-61,-15,-18,-22,-73
1491693936993,0,54,49,73,62,54,83,9,44
1491693936994,1,-19,-26,11,48,-4,-48,-24,1
1491693936994,1,6,18,8,-34,11,17,-24,22
1491693936995,2,-10,0,-46,-73,-56,-71,0,-37
1491693936995,2,-13,-33,-6,11,11,59,27,-4
1491693937025,3,14,0,-3,-19,4,-7,-32,55
1491693937025,3,-6,-5,-1,4,9,57,6,-91
1491693937027,0,-16,-7,22,30,38,20,50,-7
1491693937027,0,18,41,54,-108,-7,62,-32,32
1491693937028,1,59,7,-15,86,-9,38,-60,32
1491693937028,1,-8,1,-23,-128,-59,-27,73,76
1491693937029,2,-15,-26,1,122,-17,41,15,-45
1491693937029,2,6,6,40,47,63,-44,12,16
1491693937060,3,-13,-6,-64,25,-70,-9,-4,-18
1491693937060,3,-6,-40,-42,5,0,-69,-22,-7
1491693937061,0,10,19,6,-12,45,43,-49,25
1491693937061,0,-14,-7,26,61,8,94,22,-15
1491693937061,1,-34,-18,-2,-24,-22,-68,-9,-57
1491693937061,1,59,50,-6,-45,53,37,29,83
1491693937123,2,-19,-8,66,95,25,96,83,36
1491693937123,2,-11,-19,-75,3,-26,-107,-91,-29
1491693937125,3,47,0,-38,-80,20,-66,127,52
1491693937125,3,-42,-16,67,107,-8,-5,-92,-80
1491693937126,0,53,28,-40,-102,100,0,20,59
1491693937126,0,-34,-13,3,124,-47,24,83,-2
1491693937127,1,-1,-28,-25,-127,-117,35,-15,-21
1491693937127,1,-25,-15,-30,14,69,-9,-24,-66
1491693937157,2,46,32,23,-5,11,-32,13,41
1491693937157,2,16,-9,19,5,-42,-125,5,40
1491693937158,3,-21,36,67,-65,103,0,9,58
1491693937158,3,27,-17,-41,72,-117,-12,-38,-49
1491693937159,0,-18,-5,74,60,78,82,-31,-10
1491693937159,0,8,17,-61,-85,-72,-76,15,-38
1491693937160,1,1,-20,-41,-67,-38,-6,18,-12
1491693937160,1,-11,33,77,32,86,60,26,57
1491693937188,2,13,-9,-38,72,-113,-114,-50,12
1491693937188,2,-17,9,44,-69,30,-31,-34,-70
1491693937189,3,-28,-20,-24,127,-22,59,-85,-53
1491693937189,3,1,-29,-20,25,15,-21,66,35
1491693937191,0,-3,-22,-40,-58,31,53,33,-48
1491693937191,0,14,77,127,86,127,98,60,56
1491693937192,1,-30,-5,-96,-106,-103,45,-65,-5
1491693937192,1,32,-44,-109,-128,-116,-108,-98,29
1491693937220,2,-16,-23,36,34,-51,3,-35,15
1491693937220,2,-2,35,32,-69,115,45,25,9
1491693937222,3,29,22,77,127,-42,11,33,-33
1491693937222,3,-44,-13,37,-117,73,112,11,-16
1491693937223,0,14,15,-98,-43,-56,-103,11,18
1491693937223,0,-23,-34,-11,11,13,-37,14,-70
1491693937225,1,32,54,107,101,109,40,4,107
1491693937225,1,-5,31,-86,-13,-121,-58,18,31
1491693937253,2,-48,-37,-28,-85,-11,104,-43,-101
1491693937253,2,29,-35,-22,113,-33,-50,23,102
1491693937255,3,-24,-4,-20,-125,50,-66,7,-128
1491693937255,3,72,40,127,127,88,-6,9,99
1491693937256,0,-39,14,-55,-108,15,-12,31,-46
1491693937256,0,9,-26,-101,-85,34,58,-14,51
1491693937286,1,-44,-14,6,61,-86,-80,-47,-51
1491693937286,1,2,-18,-57,68,8,19,-21,21
1491693937288,2,-9,-26,5,127,35,-128,-29,-29
1491693937288,2,-6,0,-6,127,37,75,-8,33
1491693937289,3,5,6,-11,30,55,45,-11,-17
1491693937289,3,10,6,-83,-128,48,39,-3,-21
1491693937290,0,-15,-26,12,-59,-90,100,-9,49
1491693937290,0,10,-8,-74,5,-123,-91,-30,-60
1491693937318,1,-5,-21,30,76,98,73,48,9
1491693937318,1,-33,0,45,61,-21,-128,-81,-72
1491693937320,2,73,48,106,21,127,114,38,84
1491693937320,2,-9,32,40,-62,-120,-49,21,61
1491693937321,3,-9,-18,-80,-128,-27,88,35,-31
1491693937321,3,27,-63,-70,83,-77,65,90,23
1491693937351,0,-38,-22,-4,127,-8,-46,-102,-9
1491693937351,0,19,46,41,-53,-27,13,-21,-40
1491693937354,1,0,-54,3,72,-109,53,46,72
1491693937354,1,-82,-52,-100,-128,-100,-71,-98,-128
1491693937355,2,17,46,121,25,29,-12,55,12
1491693937355,2,7,-34,-86,48,-7,-76,43,14
1491693937383,3,12,56,91,-19,127,46,2,26
1491693937383,3,19,14,53,-7,-108,-13,35,-13
1491693937384,0,-25,-24,-68,-104,43,91,-17,-46
1491693937384,0,-6,-6,-18,90,-48,-51,-76,43
1491693937385,1,-15,-28,-87,14,27,-24,-34,-52
1491693937385,1,16,63,121,-48,112,112,62,36
1491693937415,2,-18,-28,-101,41,-92,-117,-65,-32
1491693937415,2,-32,1,54,-71,115,127,3,-39
1491693937417,3,73,25,-33,-38,-128,16,47,83
1491693937417,3,-30,3,-37,61,-57,-15,-78,-37
1491693937418,0,0,18,28,-81,-6,-48,45,2
1491693937418,0,-19,-36,-72,44,-26,-91,-63,-51
1491693937419,1,26,35,45,102,68,-11,35,62
1491693937419,1,14,-4,15,-13,96,127,19,-14
1491693937448,2,-5,-9,-25,-43,-96,-47,28,-11
1491693937448,2,58,-15,-36,36,-53,56,27,68
1491693937449,3,-23,-25,-69,-113,-114,32,-5,-47
1491693937449,3,-26,21,77,-54,98,-76,-8,5
1491693937453,0,17,-7,-34,6,-55,58,9,29
1491693937453,0,-7,4,90,-12,53,-3,-37,-8
1491693937515,1,-16,38,94,-22,99,92,45,-48
1491693937515,1,12,-46,-65,70,-128,-80,-20,40
1491693937516,2,2,5,52,-75,55,104,-21,-22
1491693937516,2,-13,-4,-25,9,-13,37,53,-15
1491693937517,3,3,-15,-94,-48,-20,-128,-62,28
1491693937517,3,-22,9,-8,8,1,55,32,-11
1491693937518,0,27,13,-48,127,34,-11,-9,35
1491693937518,0,0,23,58,-61,-21,40,42,3
1491693937545,1,3,31,37,87,35,42,6,3
1491693937545,1,-10,-42,-81,31,-124,-92,-16,-26
1491693937548,2,-28,-27,-99,-117,-57,-90,-58,-57
1491693937548,2,-9,19,49,63,127,95,-20,-5
1491693937549,3,62,49,100,98,65,61,20,34
1491693937549,3,-18,-17,-68,-33,26,72,26,36
1491693937550,0,0,-29,8,-26,-74,-107,-45,-56
1491693937550,0,-13,-2,28,54,-1,31,9,2
1491693937578,1,-28,-22,70,-35,65,35,-3,-25
1491693937578,1,13,-9,-47,12,-19,29,-2,-2
1491693937579,2,-1,57,85,1,-40,19,57,40
1491693937579,2,13,-62,-128,21,62,-33,-47,-19
1491693937580,3,-6,-34,9,14,46,74,36,28
1491693937580,3,-4,-49,-33,-81,-56,-97,-65,-38
1491693937581,0,-1,15,32,52,99,54,34,38
1491693937581,0,21,37,92,10,51,122,52,-7
1491693937610,1,-26,-4,-67,-59,-114,-128,-31,-37
1491693937610,1,-18,24,62,-102,127,-66,20,13
1491693937613,2,41,21,1,119,-7,52,51,26
1491693937613,2,-14,-79,-98,-125,-63,-74,-65,-23
1491693937615,3,16,25,65,-13,50,68,17,50
1491693937615,3,-18,-9,-42,103,-94,-22,-25,-20
1491693937616,0,11,31,15,16,127,-28,-13,-23
1491693937616,0,-12,25,5,80,-108,44,82,6
1491693937643,1,-15,-30,-7,-43,-27,-69,-65,-34
1491693937643,1,48,77,68,32,-10,127,80,65
1491693937644,2,-24,-51,-27,30,-104,-12,-59,-20
1491693937644,2,-11,44,51,-115,88,78,6,0
1491693937645,3,-37,-60,-123,77,-128,-113,-38,-39
1491693937645,3,-6,-31,66,-80,29,-67,-93,-42
1491693937675,0,-9,8,-51,-31,-98,56,118,21
1491693937675,0,-6,-7,84,-46,65,-128,-112,-21
1491693937677,1,14,15,-113,-39,-99,77,33,22
1491693937677,1,-22,13,55,127,127,68,24,4
1491693937678,2,51,51,33,-128,-44,-25,15,83
1491693937678,2,9,13,27,74,-49,-54,-7,16
1491693937679,3,-46,-66,-90,-71,-10,-54,-3,-56
1491693937679,3,-41,28,-43,-4,3,79,10,-26
1491693937708,0,84,8,64,72,99,31,40,73
1491693937708,0,4,72,19,-83,38,30,41,10
1491693937709,1,3,-17,33,40,4,-31,-12,3
1491693937709,1,-30,-54,-69,16,-36,7,-6,-17
1491693937710,2,-29,30,86,41,113,72,0,-46
1491693937710,2,-3,-50,-108,-54,-128,-62,-31,-14
1491693937740,3,12,20,-2,-59,-29,-70,-15,-24
1491693937740,3,6,9,69,-36,29,5,36,0
1491693937773,0,10,6,-22,-30,-12,76,37,2
1491693937773,0,-39,-87,-81,-50,-53,6,-56,-56
1491693937805,1,-8,36,59,24,117,11,12,19
1491693937805,1,43,52,34,111,64,36,49,39
1491693937807,2,-52,-76,-63,-25,-21,-74,-105,-56
1491693937807,2,7,31,76,73,74,9,19,-15
1491693937808,3,-6,-21,-29,-60,-90,-21,44,24
1491693937808,3,20,-3,42,-6,127,35,-9,-2
1491693937809,0,-30,-14,-32,-79,-71,61,21,-17
1491693937809,0,29,16,57,36,53,74,33,63
1491693937838,1,0,-20,-71,107,-49,-39,27,-22
1491693937838,1,-30,-30,-20,-87,-1,-87,-58,-24
1491693937839,2,-18,19,60,75,100,103,-23,-61
1491693937839,2,-6,1,-19,-17,31,-26,27,16
1491693937870,1,5,-12,-49,-67,-80,6,24,-21
1491693937870,1,-15,-19,41,-49,15,39,14,-8
1491693937872,2,1,-10,-62,19,-23,-105,-48,-14
1491693937872,2,-4,-30,10,84,26,-16,3,8
1491693937874,3,2,-1,29,-87,-4,23,-18,-1
1491693937874,3,10,29,80,18,57,-107,4,11
1491693937875,0,36,33,-10,-60,-44,23,70,37
1491693937875,0,-50,-49,-109,-96,-45,-76,-44,-109
1491693937903,1,32,28,104,127,127,86,-2,70
1491693937903,1,2,-29,-104,-30,-118,-56,-48,-35
1491693937905,2,0,37,127,120,62,8,66,40
1491693937905,2,-21,-20,-117,-60,-84,12,-28,-48
1491693937906,3,-2,-12,-10,27,103,75,-34,35
1491693937906,3,-11,-20,-62,47,-91,-86,-42,-59
1491693937907,0,4,28,11,32,127,-69,23,37
1491693937907,0,12,-34,-128,-33,18,55,-6,23
1491693937935,1,-21,60,-86,31,66,33,9,-64
1491693937935,1,72,29,-53,29,44,51,-1,94
1491693937943,2,0,-63,-29,-15,-128,38,18,2
1491693937943,2,-5,1,120,-46,-50,-97,6,-8
1491693937944,3,-3,-20,69,-51,17,60,47,-6
1491693937944,3,-1,37,80,67,112,72,13,16
1491693937945,0,-52,-47,43,-96,-58,-20,-35,-95
1491693937945,0,-2,15,77,22,94,106,75,47
1491693937968,1,-37,-36,43,-55,-99,-128,-128,-37
1491693937968,1,-2,35,22,8,32,3,20,5
1491693937970,2,3,42,108,99,127,75,19,27
1491693937970,2,7,66,109,30,77,79,30,7
1491693937971,3,-5,-84,-108,-59,-128,-128,-35,-14
1491693937971,3,-30,-12,31,-88,71,7,-3,-43
1491693937972,0,-9,1,40,-10,93,-49,-23,-6
1491693937972,0,31,-16,33,69,-15,-62,-13,18
1491693938001,1,-4,56,90,-50,96,113,36,8
1491693938001,1,-13,-21,54,65,-1,-78,-47,-4
1491693938002,2,-2,-37,-22,-10,-108,-59,-6,-23
1491693938002,2,10,-7,38,37,16,6,-5,7
1491693938005,3,0,10,-16,-55,123,30,-1,-4
1491693938005,3,-17,-40,-40,-92,-128,-53,-3,-25
1491693938065,0,-19,31,15,3,-30,-16,-17,-8
1491693938065,0,10,24,56,85,63,-21,28,31
1491693938067,1,-28,-64,-73,-91,-128,-69,-42,-25
1491693938067,1,-6,14,80,10,7,40,27,9
1491693938068,2,6,-18,-102,-69,122,104,2,59
1491693938068,2,-15,-23,-57,-3,-128,-53,7,-26
1491693938069,3,8,3,29,118,70,-16,-24,4
1491693938069,3,5,-4,-65,-74,-80,19,17,-6
1491693938098,0,-16,26,78,55,123,76,26,4
1491693938098,0,-3,-39,-128,-69,-128,7,-1,3
1491693938099,1,-19,-3,47,46,-21,-47,29,26
1491693938099,1,11,35,96,75,98,53,25,-14
1491693938101,2,20,33,-59,-31,14,10,3,21
1491693938101,2,5,-27,-39,-63,-41,42,-9,25
1491693938102,3,-12,-2,-48,80,3,23,-4,-27
1491693938102,3,32,-29,-89,-114,-64,-112,1,35
1491693938130,0,-18,-7,50,84,63,-2,-18,-9
1491693938130,0,3,53,7,87,118,65,-2,17
1491693938198,1,6,-31,-42,12,-106,-53,18,-17
1491693938198,1,12,22,56,44,107,26,-13,-2
1491693938199,2,-5,-19,-107,-49,-79,-9,2,-27
1491693938199,2,16,25,96,-108,82,10,-56,6
1491693938200,3,-16,3,33,86,60,88,34,16
1491693938200,3,-6,-18,-34,-38,-122,-67,-32,10
1491693938201,0,-26,-1,26,-93,30,-52,13,-61
1491693938201,0,30,21,79,13,37,-11,-39,17
1491693938293,1,23,-18,-79,-48,3,94,-18,9
1491693938293,1,-12,-3,74,-19,101,127,79,-7
1491693938296,2,37,7,-31,38,-103,-50,-58,31
1491693938296,2,-51,4,32,76,57,18,-17,-87
1491693938298,0,-8,-36,40,76,17,22,19,6
1491693938298,0,-14,-21,1,20,1,-55,-27,-20
1491693938300,3,30,-16,-94,-103,-94,-103,50,46
1491693938300,3,4,-10,-29,92,110,112,-29,16
1491693938326,0,7,0,-26,-44,-81,-96,-5,14
1491693938326,0,-34,-47,-81,20,-7,-20,3,-45
1491693938328,1,-9,14,37,41,85,96,-26,-37
1491693938328,1,2,19,9,14,16,-76,2,-6
1491693938329,3,10,-18,-39,-23,-100,-54,-16,-26
1491693938329,3,-40,-20,-2,7,-25,8,-22,-58
1491693938330,1,-34,-16,8,-29,-54,-120,-47,-14
1491693938330,1,4,10,49,101,-50,49,-18,1
1491693938391,2,12,-14,-65,-31,93,36,-12,-4
1491693938391,2,11,39,81,-24,83,89,4,1
1491693938393,3,-2,-23,-45,108,-73,23,-13,-1
1491693938393,3,8,11,76,56,72,9,10,27
1491693938394,0,-19,5,8,15,-67,-16,1,-13
1491693938394,0,-17,-8,-26,-112,114,6,45,0
1491693938395,1,12,18,23,58,-52,-89,5,-7
1491693938395,1,-13,-16,-18,-40,1,-65,0,56
1491693938428,2,-7,-12,54,105,-36,127,17,7
1491693938428,2,-6,-40,-67,-3,-8,45,12,-56
1491693938429,3,-23,21,38,-96,5,-128,39,21
1491693938429,3,56,39,36,94,83,75,-8,24
1491693938430,0,10,-37,-87,-48,-57,6,19,2
1491693938430,0,-17,10,67,58,19,-84,-32,-15
1491693938432,3,48,4,-16,-53,113,52,25,39
1491693938432,3,-26,13,-24,-98,-124,-33,-36,9
1491693938456,0,-3,-6,-10,53,93,-33,-5,-4
1491693938456,0,15,1,26,127,51,66,65,33
1491693938459,1,-36,-40,-108,-81,-63,5,-65,-61
1491693938459,1,17,21,19,-102,-48,-66,23,18
1491693938461,2,-10,-19,2,21,14,-71,7,-27
1491693938461,2,-1,-21,-54,28,-52,-60,-67,5
1491693938462,3,-4,-1,0,-24,-15,-44,11,26
1491693938462,3,-22,-15,-44,49,28,2,-30,-73
1491693938488,0,0,38,9,-49,-42,38,2,8
1491693938488,0,-12,8,-11,-24,-68,42,30,-38
1491693938491,1,-24,-16,-54,-17,10,-1,-72,-19
1491693938491,1,-19,-43,-90,-20,-11,-3,-1,-30
1491693938495,2,2,19,89,34,-58,39,46,35
1491693938495,2,37,7,-6,-44,50,45,6,-8
1491693938496,3,-4,-16,21,65,104,62,-13,-4
1491693938496,3,15,11,-71,-48,-108,-128,8,74
1491693938553,0,5,20,34,-45,90,-9,-40,-1
1491693938553,0,-18,-39,-98,-128,-128,-70,-12,-71
1491693938555,1,-33,-5,0,20,41,4,-5,-8
1491693938555,1,9,-7,6,88,79,23,-11,25
1491693938556,2,-25,35,45,-94,4,61,15,-51
1491693938556,2,30,-26,-64,-75,-106,-67,-35,92
1491693938557,3,-7,14,21,-20,32,11,-13,-53
1491693938557,3,7,-10,27,36,-58,107,2,8
1491693938618,0,-21,-27,-28,70,-2,-93,-39,-21
1491693938618,0,35,6,5,-5,63,24,31,85
1491693938620,1,-22,22,67,-29,9,47,64,-26
1491693938620,1,-9,-6,-65,22,-68,-98,-117,-33
1491693938621,3,23,32,0,-14,92,4,3,-25
1491693938621,3,-17,-14,-31,-110,-73,-40,9,20
1491693938621,0,-17,-8,-5,-81,71,16,-14,-31
1491693938621,0,-33,-13,-28,35,-53,-1,-38,12
1491693938650,1,28,-4,30,85,-31,-16,51,0
1491693938650,1,-11,2,4,30,52,127,30,-36
1491693938683,2,57,12,-20,-40,-116,-72,15,-4
1491693938683,2,0,9,55,-40,87,113,55,23
1491693938684,3,3,-17,-27,26,-72,-93,-31,-5
1491693938684,3,-25,12,8,-45,-8,4,-7,-1
1491693938684,2,15,-10,2,118,-62,23,-36,42
1491693938684,2,-55,-31,-61,-75,-29,12,-59,-95
1491693938685,3,-3,-10,19,-68,24,-75,-21,12
1491693938685,3,9,6,6,54,-2,71,8,-2
1491693938715,0,-2,7,-1,-24,34,-54,25,0
1491693938715,0,-22,-8,3,-11,3,-118,-54,-33
1491693938716,1,40,13,42,57,22,122,31,56
1491693938716,1,-9,11,4,-3,51,-128,-18,-43
1491693938717,2,8,-13,-25,-119,-77,119,43,16
1491693938717,2,-23,-9,-72,-19,-4,-41,-28,-18
1491693938718,0,8,-19,2,106,-4,38,-7,62
1491693938718,0,-14,7,37,54,84,34,-20,-18
1491693938748,1,-7,2,-7,13,16,98,63,25
1491693938748,1,-10,-18,-8,-99,-64,-89,31,10
1491693938749,2,-21,-12,-27,-24,49,13,-94,-82
1491693938749,2,43,34,42,47,-51,-63,34,34
1491693938749,3,-22,-4,-27,-73,38,-73,9,1
1491693938749,3,8,-24,-6,50,-97,-49,-47,10
1491693938750,0,-14,7,-25,-128,115,47,42,-88
1491693938750,0,-12,8,24,101,18,117,29,40
1491693938780,1,-16,-40,-46,-62,-80,-40,-10,-59
1491693938780,1,7,-9,-43,-88,-37,4,-28,15
1491693938781,2,-37,26,69,64,46,-21,-18,-5
1491693938781,2,69,28,-19,-77,55,127,64,36
1491693938813,3,1,35,82,127,34,-68,-61,-20
1491693938813,3,7,-3,27,66,44,-28,-28,39
1491693938814,0,-23,-26,-61,-120,-123,23,11,-28
1491693938814,0,-25,-13,29,81,54,-128,9,-48
1491693938815,1,4,-4,-40,26,-93,92,11,52
1491693938815,1,-39,-1,28,-69,91,47,-15,-90
1491693938816,2,87,77,79,52,6,-52,-24,116
1491693938816,2,-50,-54,-90,-115,-122,-50,15,-73
1491693938845,3,-3,-54,-58,-84,-7,69,31,28
1491693938845,3,-25,4,32,63,25,-3,-5,-120
1491693938846,0,44,11,-26,-38,59,91,72,72
1491693938846,0,20,76,127,52,76,4,24,30
1491693938847,1,-12,-1,-30,13,-75,38,13,-9
1491693938847,1,22,1,-49,-22,55,22,31,69
1491693938848,2,-7,-11,-3,24,-105,-109,-17,-13
1491693938848,2,-29,-31,-59,-88,-80,32,-43,-41
1491693938878,3,-12,59,127,-6,127,104,29,-39
1491693938878,3,12,18,-10,127,-111,-103,-49,20
1491693938879,0,4,-78,-87,-98,-72,-128,-33,-2
1491693938879,0,-61,-10,14,40,54,-26,-40,40
1491693938880,1,-23,-31,-38,-36,37,59,-54,-74
1491693938880,1,96,42,101,24,76,32,58,67
1491693938880,2,13,56,-19,20,-3,60,34,6
1491693938880,2,8,13,41,-7,39,-35,-21,11
1491693938910,3,-45,-43,-44,76,0,54,-20,2
1491693938910,3,-36,-7,-18,-74,-96,-48,-28,-26
1491693938911,0,-43,9,44,-38,38,90,37,-59
1491693938911,0,28,-27,-83,-45,-119,-79,-82,-6
1491693938914,1,36,17,28,-28,26,2,20,28
1491693938914,1,-7,-14,-4,88,-23,120,74,-4
1491693938915,2,3,-20,116,99,127,-20,-21,52
1491693938915,2,51,30,-64,-59,-39,99,29,20
1491693938943,3,13,12,-60,-21,-104,-8,-40,12
1491693938943,3,-31,-61,-77,-61,43,-69,-44,-49
1491693938944,0,-42,16,90,115,24,-6,-2,-8
1491693938944,0,19,29,-28,-56,-51,40,9,-29
1491693938945,1,30,-4,25,127,-6,-31,15,47
1491693938945,1,-57,-38,-29,-34,-47,-69,-26,-81
1491693938975,2,15,32,-13,81,-33,22,69,48
1491693938975,2,50,-49,-35,-49,-58,-64,-14,52
1491693938976,3,-1,21,-1,-64,91,62,-5,-33
1491693938976,3,3,84,100,41,75,127,84,97
1491693938977,0,-27,-83,-128,-128,-104,-122,-113,-108
1491693938977,0,-62,-32,37,-1,102,86,-52,-71
1491693939008,1,48,0,-20,-48,30,-58,45,92
1491693939008,1,20,62,80,31,127,36,-11,-11
1491693939009,2,-4,11,44,127,-65,50,46,-11
1491693939009,2,-9,41,47,-36,35,17,102,46
1491693939010,3,3,-53,-70,14,-119,-99,-44,32
1491693939010,3,-16,1,52,69,100,69,-25,-26
1491693939073,0,-4,10,-103,-28,-128,-70,-84,-9
1491693939073,0,-26,-64,-34,31,-49,-95,-16,-76
1491693939074,1,61,34,60,20,-22,-8,-6,80
1491693939074,1,-38,-53,-125,-125,-103,13,-26,-20
1491693939075,2,39,-4,37,-39,71,-68,3,21
1491693939075,2,-15,63,73,13,119,61,64,-18
1491693939076,3,-5,-15,18,127,-37,67,61,10
1491693939076,3,-20,-58,-71,-108,-64,-62,-96,-62
1491693939105,0,-39,0,-17,-29,25,100,-15,-53
1491693939105,0,30,8,-5,-17,-8,-10,25,98
1491693939106,1,-4,9,25,-13,-72,9,-7,-44
1491693939106,1,-22,7,100,106,-37,8,11,-31
1491693939107,2,7,-31,-89,3,32,64,46,3
1491693939107,2,14,-52,-65,-90,-118,-85,-11,-20
1491693939108,3,-47,13,15,-108,9,-34,-53,-24
1491693939108,3,9,24,49,69,43,60,52,29
1491693939138,0,-10,-4,12,18,-22,-86,-23,-25
1491693939138,0,-23,-19,-8,24,21,74,2,5
1491693939139,1,-8,-9,14,-10,-62,-105,-39,-45
1491693939139,1,39,17,-67,-128,66,-39,-13,43
1491693939140,2,2,-10,44,46,10,6,24,30
1491693939140,2,20,93,93,127,79,102,-3,33
1491693939141,3,-19,-54,-100,-28,-70,-46,104,-34
1491693939141,3,-31,-88,-80,-128,-82,-47,-84,-42
1491693939171,0,8,3,78,-38,72,10,-1,15
1491693939171,0,-21,15,80,79,58,50,7,-2
1491693939171,1,38,71,127,92,127,84,17,-6
1491693939171,1,20,55,27,-23,-66,88,63,48
1491693939172,2,-10,-79,-119,-60,-105,-89,-17,-6
1491693939172,2,-2,-12,-29,-38,36,-9,-1,-35
1491693939173,3,-11,10,12,-96,-49,40,-2,4
1491693939173,3,13,-1,71,96,-34,-62,-5,-4
1491693939203,0,3,40,-15,-34,127,127,72,51
1491693939203,0,-23,-40,-76,24,-128,-101,-12,-48
1491693939204,1,-5,-20,-76,-89,98,35,-32,-18
1491693939204,1,15,2,12,7,-6,-119,34,46
1491693939204,2,-9,20,54,25,-63,35,-50,-41
1491693939204,2,6,62,125,-12,63,46,45,30
1491693939205,3,-5,-73,-119,-8,-109,-68,-84,-9
1491693939205,3,-11,-8,47,22,121,96,-62,-5
1491693939235,0,10,45,16,86,59,45,29,-18
1491693939235,0,-6,-55,-63,-35,-36,-82,-9,-9
1491693939236,1,-6,72,51,45,95,81,25,-9
1491693939236,1,-5,-34,-124,-116,-128,-94,-40,-10
1491693939237,2,-6,-22,-8,-110,119,27,-40,-1
1491693939237,2,9,-8,32,121,-53,41,33,23
1491693939268,3,1,59,101,44,127,-15,-27,-26
1491693939268,3,10,8,-60,-24,-108,53,103,14
1491693939269,0,-38,-96,-65,-128,-51,-85,-78,-46
1491693939269,0,12,23,61,-19,97,127,-9,-1
1491693939271,1,3,-23,2,-7,4,12,3,39
1491693939271,1,19,76,127,72,127,-17,62,50
1491693939300,2,19,26,-14,88,-113,-46,30,-1
1491693939300,2,-27,-88,-128,-106,-79,-117,-96,-23
1491693939305,3,-14,22,87,70,78,-44,34,-4
1491693939305,3,10,-12,-66,46,-100,56,8,18
1491693939306,0,-26,-27,-14,-19,24,-54,-55,-29
1491693939306,0,37,46,62,-68,63,-21,-1,9
1491693939307,1,-7,-13,-98,113,-61,83,15,-21
1491693939307,1,-1,-56,-52,-97,-6,-43,-47,-36
1491693939333,2,13,24,94,71,77,112,23,26
1491693939333,2,-17,-24,-68,-96,-104,-77,-16,-21
1491693939334,3,6,27,72,-82,127,48,49,13
1491693939334,3,-12,26,45,121,69,76,13,-24
1491693939335,0,28,-9,-73,-46,-33,-7,-21,28
1491693939335,0,6,63,106,-77,108,49,36,1
1491693939365,1,-24,-86,-128,61,-128,-66,-44,-20
1491693939365,1,12,5,16,43,92,-32,-16,19
1491693939366,2,7,31,14,-73,-113,17,40,9
1491693939366,2,4,-50,-81,20,-42,-29,-30,-1
1491693939367,3,-7,50,116,-21,68,-75,-27,-24
1491693939367,3,-17,-25,-128,-1,-84,87,12,-34
1491693939398,0,-9,25,127,120,127,105,51,-11
1491693939398,0,8,43,-92,-85,-122,6,32,48
1491693939399,1,3,-82,-105,-128,-128,-76,-37,-8
1491693939399,1,-6,8,89,94,29,-35,-51,-2
1491693939400,2,-7,27,68,-107,52,25,73,22
1491693939400,2,-1,-27,-30,127,41,89,-6,-9
1491693939430,3,-12,-8,15,11,-101,-50,-14,-5
1491693939430,3,-2,14,6,-128,48,27,29,14
1491693939431,0,15,-9,-11,115,-11,-63,-25,3
1491693939431,0,4,27,70,87,99,10,-4,16
1491693939432,1,30,38,2,-15,93,88,40,30
1491693939432,1,0,-28,7,-23,-95,-29,20,15
1491693939436,2,-44,-19,-70,-1,16,24,-53,-42
1491693939436,2,39,-25,-16,43,-82,-127,3,7
1491693939463,3,-16,-7,-7,21,35,69,-13,-1
1491693939463,3,0,73,127,37,97,41,14,10
1491693939463,0,9,-48,-128,46,-115,-82,14,25
1491693939463,0,-43,-32,-12,-55,-6,49,-52,-59
1491693939464,1,-10,-8,32,1,87,81,20,-17
1491693939464,1,0,11,54,39,78,-47,-7,5
1491693939495,2,2,38,-11,2,-18,-13,5,-12
1491693939495,2,0,3,53,34,4,-14,5,7
1491693939496,3,19,-15,-88,-100,1,10,13,26
1491693939496,3,-14,-32,-56,78,-99,-67,-39,-33
1491693939497,0,10,22,71,92,109,-21,-20,-3
1491693939497,0,-12,-26,-63,-56,-70,31,0,-6
1491693939528,1,-12,61,108,46,73,34,28,-23
1491693939528,1,-1,-25,-113,-56,32,6,-27,4
1491693939529,2,-6,-24,47,-42,31,10,22,11
1491693939529,2,8,1,-33,-44,4,-76,-10,24
1491693939530,3,3,42,60,61,22,-16,-12,-37
1491693939530,3,6,-49,-97,-74,-84,-17,6,39
1491693939561,0,-3,24,94,52,73,30,-7,-17
1491693939561,0,7,-14,-84,98,-49,62,20,10
1491693939562,1,-3,-59,-9,-20,-110,-97,-27,2
1491693939562,1,10,77,92,70,41,39,44,11
1491693939562,2,-3,-77,-71,-91,-128,-101,-75,-1
1491693939562,2,-7,60,127,124,127,65,44,1
1491693939563,3,-1,-19,-115,-66,-24,-33,-8,7
1491693939563,3,-37,7,19,-7,98,60,2,-43
1491693939593,0,40,-22,-29,-112,-66,-34,-33,34
1491693939593,0,-45,-50,-73,-59,-78,-89,-12,-47
1491693939594,1,-13,54,71,94,68,67,-6,3
1491693939594,1,26,11,-66,-125,-75,18,9,11
1491693939595,2,-5,-4,50,78,66,127,22,4
1491693939595,2,-3,55,127,-20,108,-2,-9,1
1491693939626,3,-10,2,-62,-4,17,-25,-14,-10
1491693939626,3,-20,-89,37,-11,-113,40,8,-22
1491693939627,0,-2,-21,-118,-124,28,-14,-15,3
1491693939627,0,-3,-104,-69,-75,-85,15,-42,-39
1491693939628,1,22,31,92,78,84,81,49,16
1491693939628,1,13,46,-80,0,10,-45,14,8
1491693939658,2,4,-23,-35,-77,-117,-125,-20,-10
1491693939658,2,2,2,44,19,127,-5,-4,-2
1491693939659,3,12,0,-28,37,-71,-102,10,17
1491693939659,3,-5,71,62,97,57,-46,-28,-12
1491693939661,0,14,15,40,85,127,83,46,14
1491693939661,0,1,35,-74,-23,-111,-71,-14,4
1491693939690,1,4,-42,-23,-21,3,-15,-8,-7
1491693939690,1,9,21,27,13,69,39,0,3
1491693939692,2,-28,-7,-122,-63,-41,-66,-34,-43
1491693939692,2,34,-8,-76,-6,57,44,26,60
1491693939693,3,-3,-30,-111,-31,-114,-9,-10,-6
1491693939693,3,-2,-52,-43,-61,1,60,-10,12
1491693939694,0,7,22,81,2,-61,1,17,-4
1491693939694,0,6,67,95,71,52,103,10,-1
1491693939724,1,-14,-40,65,-40,-56,-95,-45,-35
1491693939724,1,-13,-37,39,-78,-62,-49,-25,-14
1491693939725,2,13,36,101,20,97,27,19,23
1491693939725,2,-9,-19,97,-12,-38,-40,6,-6
1491693939726,3,-1,20,104,43,127,90,34,23
1491693939726,3,-14,-18,43,30,-85,-83,-30,-7
1491693939755,0,-10,-20,83,-54,-39,36,-4,7
1491693939755,0,1,-6,6,-46,-55,-29,18,5
1491693939757,1,-15,23,92,35,81,96,-8,-1
1491693939757,1,-3,-10,-50,0,-58,-21,5,-15
1491693939758,2,4,4,-19,4,-14,35,20,36
1491693939758,2,-11,11,50,73,6,35,3,-33
1491693939788,3,9,10,58,-39,-65,-76,-3,26
1491693939788,3,4,-30,-65,-3,12,9,1,-6
1491693939789,0,-3,11,-18,48,32,7,1,-17
1491693939789,0,-20,4,31,11,94,7,16,1
1491693939790,1,3,-10,1,-72,-31,-53,-37,11
1491693939790,1,32,26,127,127,104,19,20,37
1491693939821,2,-16,-43,-117,-113,-117,-84,3,-24
1491693939821,2,3,-10,-9,-22,-12,-25,-56,-4
1491693939822,3,-12,42,-12,-15,20,16,46,-4
1491693939822,3,11,-12,23,-44,23,-18,-27,4
1491693939823,0,10,76,127,2,127,89,21,28
1491693939823,0,-24,-71,-94,32,-128,30,-8,-42
1491693939853,1,8,-1,-10,-58,-36,-67,-37,-11
1491693939853,1,-28,-30,49,-11,42,1,11,-40
1491693939857,2,26,32,127,48,79,-54,-14,47
1491693939857,2,14,33,44,22,45,2,12,33
1491693939858,3,-15,-38,-19,30,15,127,8,-18
1491693939858,3,-13,-34,-82,-98,-97,-73,-20,10
1491693939859,0,-12,50,108,72,80,-10,-15,-61
1491693939859,0,-15,-17,-99,31,-101,2,9,6
1491693939886,1,15,-20,-66,-30,-57,-6,-4,-7
1491693939886,1,14,22,-39,15,74,84,24,56
1491693939887,2,-16,-4,-81,18,-94,16,21,-29
1491693939887,2,36,21,62,18,127,10,24,26
1491693939889,3,-9,-6,-76,-59,-19,-4,-2,-5
1491693939889,3,-17,21,-17,120,68,17,-9,-17
1491693939918,0,13,-26,-85,-53,-102,1,16,4
1491693939918,0,-3,-2,20,-10,17,19,-14,0
1491693939920,1,5,-2,-24,50,41,32,48,26
1491693939920,1,-3,-21,-47,-62,-89,-71,-19,-13
1491693939921,2,-7,-12,-41,21,57,6,-22,-13
1491693939921,2,-10,12,63,-74,60,18,3,-13
1491693939950,3,-14,-35,30,77,-63,55,17,-11
1491693939950,3,-2,22,85,-16,-38,-65,-36,-11
1491693939951,0,-5,4,54,73,-14,61,4,3
1491693939951,0,-5,-24,-49,-49,-9,-103,-21,-5
1491693939952,1,4,43,124,-23,116,26,-3,-13
1491693939952,1,-11,-32,-64,6,-70,2,40,-33
1491693939983,2,18,-6,-34,-43,24,-49,-6,33
1491693939983,2,-10,-5,-40,-3,11,73,-9,-14
1491693939984,3,4,-32,-70,-3,-68,-95,-26,18
1491693939984,3,-6,40,53,103,24,58,13,-17
1491693939984,0,9,-4,-75,-98,127,127,11,-7
1491693939984,0,-6,-14,-87,-2,-108,-110,-42,-10
1491693939985,1,0,8,63,123,67,-46,-31,-14
1491693939985,1,-6,-50,-111,-127,117,127,-5,-20
1491693940015,2,-7,19,23,29,-101,-67,11,-14
1491693940015,2,31,72,78,-73,118,23,55,22
1491693940016,3,-10,-57,-84,20,-128,-40,-32,21
1491693940016,3,-33,-15,-13,10,127,-22,-57,-71
1491693940017,0,7,-16,14,-24,26,83,26,60
1491693940017,0,-28,-21,-56,-95,33,16,-14,-30
1491693940048,1,-8,23,7,35,0,10,28,-16
1491693940048,1,28,84,121,40,86,113,40,20
1491693940049,2,-23,-43,-128,35,-124,-128,-26,42
1491693940049,2,11,-29,23,19,3,88,-42,-23
1491693940050,3,9,44,48,-29,127,49,17,-6
1491693940050,3,2,-48,-71,-71,-128,-111,-26,-1
1491693940080,0,-2,8,59,18,-58,-113,-13,-23
1491693940080,0,10,-3,0,21,26,103,18,41
1491693940081,1,5,39,11,-128,49,24,7,30
1491693940081,1,-10,-9,-8,127,-68,5,7,-7
1491693940082,2,18,-9,-31,-47,61,86,-3,-22
1491693940082,2,-4,-25,-31,99,-80,-128,7,4
1491693940113,3,-5,27,75,60,115,127,22,1
1491693940113,3,-2,-4,-45,-32,-92,-86,-15,46
1491693940114,0,-21,-37,-64,-73,6,-60,-23,-40
1491693940114,0,6,15,-7,-22,14,62,11,15
1491693940115,1,16,-23,-2,30,2,-128,-6,-16
1491693940115,1,-10,48,81,-48,117,105,7,-8
1491693940115,2,-3,-17,-14,119,-86,-81,13,4
1491693940115,2,-9,-12,7,-27,-7,32,-40,-5
1491693940145,3,-1,24,-8,-40,16,-100,-2,-5
1491693940145,3,16,20,10,-27,-72,54,22,46
1491693940146,0,-47,-62,-67,-77,24,-12,-34,-67
1491693940146,0,-3,7,33,1,106,42,50,-13
1491693940147,1,-17,-15,-73,2,-100,21,-27,36
1491693940147,1,1,0,70,84,127,44,52,-24
1491693940178,2,19,33,3,-12,7,51,27,46
1491693940178,2,-14,-12,-5,-11,-84,-60,-23,-31
1491693940179,3,21,-17,-55,-79,-94,-31,-8,43
1491693940179,3,-23,-9,0,65,23,-46,-19,-61
1491693940180,0,26,25,61,72,68,127,14,63
1491693940180,0,-7,-16,-42,-79,-76,-64,-10,-12
1491693940210,1,30,34,26,53,58,53,8,17
1491693940210,1,1,-16,-33,36,-80,-45,4,8
1491693940211,2,-19,-22,53,11,12,11,2,-28
1491693940211,2,-7,9,2,-6,127,126,37,7
1491693940212,3,6,-26,6,-72,-79,-83,33,-4
1491693940212,3,-23,-16,-74,-113,-11,-76,-80,0
1491693940247,0,7,32,44,92,-5,-25,-30,-59
1491693940247,0,12,-6,30,77,44,24,0,13
1491693940247,1,-23,-7,-29,45,-4,59,-15,-41
1491693940247,1,7,-5,-20,-104,-69,-72,-29,-13
1491693940248,2,8,25,20,1,43,-19,6,4
1491693940248,2,11,21,35,60,-18,-16,8,27
1491693940249,3,-34,-16,-36,-68,7,66,28,-38
1491693940249,3,56,-12,33,115,4,26,30,36
1491693940275,0,17,39,-2,-23,94,58,-7,15
1491693940275,0,14,11,75,107,-61,-122,-32,-21
1491693940276,1,-38,-55,-122,-88,-69,-10,-24,-51
1491693940276,1,46,-12,38,98,31,120,68,32
1491693940308,2,2,8,-27,-29,-32,-15,-31,12
1491693940308,2,-12,7,-16,-120,109,102,16,-2
1491693940310,3,-3,13,82,127,-19,-97,-35,-13
1491693940310,3,-4,-5,-35,-60,-37,73,37,43
1491693940311,0,-7,-4,10,74,20,38,34,-21
1491693940311,0,-1,16,2,-57,-15,-38,-11,22
1491693940312,1,-11,-1,-9,91,32,38,-26,-40
1491693940312,1,-8,-8,15,53,42,-12,15,9
1491693940341,2,-14,-3,-31,-81,-60,73,-15,-22
1491693940341,2,-7,-7,-22,-99,-40,0,30,33
1491693940342,3,27,30,61,-3,76,-8,20,35
1491693940342,3,-40,-39,-72,-72,-105,8,-25,-43
1491693940343,0,4,-32,-35,-63,34,-47,-76,-24
1491693940343,0,5,8,23,84,-1,57,33,-3
1491693940373,1,13,23,64,52,83,-12,-21,25
1491693940373,1,-10,9,-3,6,46,-68,-16,-1
1491693940375,2,-36,-41,-30,-17,-128,11,22,4
1491693940375,2,2,-1,-15,-21,-37,-31,-44,-23
1491693940406,3,16,5,12,11,29,60,24,47
1491693940406,3,-25,30,74,18,85,-5,-17,-84
1491693940408,0,38,18,-34,-61,-40,-17,21,61
1491693940408,0,-29,-65,-26,83,-82,-39,-13,-50
1491693940409,1,-3,5,-16,-60,1,35,-8,44
1491693940409,1,1,7,-22,-29,21,-18,-13,-12
1491693940411,2,15,45,127,123,122,2,62,52
1491693940411,2,28,63,-86,5,-59,-93,-6,-8
1491693940438,3,-46,-98,-102,-113,-90,62,-21,-8
1491693940438,3,-3,10,47,24,93,60,-33,-19
1491693940440,0,-6,-14,29,-38,-49,-41,-11,-38
1491693940440,0,-38,-4,27,37,62,2,7,11
1491693940442,1,21,17,-2,34,36,-41,19,-4
1491693940442,1,-17,12,-13,-86,-94,18,2,17
1491693940443,2,15,9,13,114,71,12,2,16
1491693940443,2,-8,1,33,-20,-69,-60,-47,-44
1491693940471,3,13,-11,-79,-123,-75,-75,-22,19
1491693940471,3,-3,-1,55,-85,74,61,20,11
1491693940473,0,-16,11,-51,43,-36,-10,-3,-48
1491693940473,0,42,-31,-7,-6,8,20,2,58
1491693940474,1,-3,-1,32,93,0,-6,-62,-48
1491693940474,1,17,7,-14,-47,-30,-53,-8,36
1491693940503,2,-4,3,44,11,32,14,36,2
1491693940503,2,-8,34,41,14,35,50,30,0
1491693940505,3,13,12,-17,-57,-50,-25,-39,15
1491693940505,3,7,-30,-20,-33,-2,-42,-33,-20
1491693940507,0,-15,-51,-51,-34,-112,-50,-8,-31
1491693940507,0,12,13,2,-20,109,9,-18,12
1491693940508,1,-5,31,46,69,-3,38,50,-3
1491693940508,1,-24,-40,-26,-21,13,33,14,2
1491693940536,2,9,22,19,33,12,-41,-25,-24
1491693940536,2,29,9,6,-43,22,45,43,52
1491693940538,3,-14,-6,-14,-4,7,-34,-13,-18
1491693940538,3,-1,23,-2,6,6,28,14,26
1491693940539,0,-6,-17,26,13,3,65,9,51
1491693940539,0,-5,-2,-7,28,15,-126,-1,-52
1491693940568,1,13,14,21,-56,-47,53,-2,19
1491693940568,1,-10,-28,-73,108,-15,23,39,6
1491693940601,2,-10,7,52,-15,53,-27,-24,-2
1491693940601,2,-2,-17,-32,-10,-82,-51,-10,38
1491693940603,3,-5,-16,32,40,51,12,10,4
1491693940603,3,-13,16,-32,-50,-8,-40,-28,-43
1491693940604,0,17,-3,12,4,-21,88,26,73
1491693940604,0,-2,-2,-27,-24,-21,30,-17,-67
1491693940605,1,-17,-13,61,46,87,93,59,-21
1491693940605,1,6,60,42,-19,33,-20,-24,15
1491693940633,2,17,-26,-84,8,-93,-52,5,28
1491693940633,2,-27,-23,-34,-62,53,8,15,-13
1491693940635,3,7,-3,2,75,-44,-51,11,-21
1491693940635,3,-22,-18,62,69,65,-6,-11,-18
1491693940637,0,22,60,26,-72,88,50,5,13
1491693940637,0,2,-21,-56,-51,-115,44,3,6
1491693940638,1,-26,1,-16,-42,11,92,3,-16
1491693940638,1,17,-5,-5,77,-51,-128,-26,12
1491693940665,2,-27,9,28,-89,40,-13,-45,-90
1491693940665,2,-29,-7,-12,127,-1,38,38,8
1491693940667,3,16,31,31,63,1,20,-39,-40
1491693940667,3,-6,-30,-19,-44,69,70,75,-9
1491693940669,0,-12,-40,6,-29,-96,-83,2,-8
1491693940669,0,9,29,-10,-104,-7,-61,-80,-1
1491693940669,1,-34,-37,-67,33,52,36,11,-26
1491693940669,1,31,-13,-19,-26,-58,50,-2,16
1491693940698,2,33,61,64,24,111,30,-2,30
1491693940698,2,-20,5,64,37,-13,101,48,-20
1491693940699,3,49,20,-67,-87,-128,-128,-6,60
1491693940699,3,-15,-36,-10,52,-43,22,-30,3
1491693940700,0,-33,-18,-31,24,21,40,16,-21
1491693940700,0,-6,3,54,-7,46,79,11,26
1491693940730,1,-11,6,-12,14,4,-49,-40,-47
1491693940730,1,49,44,17,-80,53,101,51,-10
1491693940733,2,0,-1,8,122,-114,-119,-83,17
1491693940733,2,-5,-38,18,-41,-65,-58,3,-13
1491693940738,3,-32,-45,-71,62,101,-7,7,-11
1491693940738,3,-14,15,85,81,74,-88,-13,-12
1491693940763,0,18,36,-40,-51,120,39,26,33
1491693940763,0,14,-21,-64,-18,-67,-113,-8,-49
1491693940764,1,7,-16,-39,-116,8,32,-34,-18
1491693940764,1,5,14,-15,-37,-55,-63,24,17
1491693940769,2,-42,-18,67,121,-20,-28,-36,-39
1491693940769,2,-16,-11,-36,-51,-30,59,13,23
1491693940795,3,15,3,32,30,36,-11,12,38
1491693940795,3,-8,12,93,112,91,53,-36,-12
1491693940796,0,-36,-7,-121,-124,-45,38,33,-22
1491693940796,0,13,-30,-42,-34,-10,-68,-51,44
1491693940797,1,-5,-6,71,9,50,124,22,-29
1491693940797,1,22,49,-1,-64,-123,85,46,46
1491693940798,2,4,-71,-79,-13,-91,-93,-12,11
1491693940798,2,-30,-13,75,-29,60,-57,-52,-88
1491693940828,3,-3,-29,-90,-82,-20,-23,-10,-6
1491693940828,3,-9,-16,64,35,95,83,48,32
1491693940829,0,23,9,-87,-71,43,45,33,-25
1491693940829,0,5,4,15,115,-50,23,-20,8
1491693940830,1,4,13,89,53,60,-128,-27,53
1491693940830,1,-4,4,-32,7,-9,44,36,-27
1491693940893,2,-42,-35,-33,-32,75,31,-30,-64
1491693940893,2,21,18,45,67,51,-11,-13,78
1491693940894,3,-2,31,47,-99,-118,24,54,-41
1491693940894,3,-6,-31,-128,-128,-98,-120,-107,-47
1491693940894,0,4,17,69,-73,127,127,76,26
1491693940894,0,29,2,2,51,-82,29,60,44
1491693940895,1,-24,-47,-23,11,-64,-2,-56,-37
1491693940895,1,30,19,25,-64,27,-36,4,44
1491693940926,2,10,4,25,8,-1,21,-14,-15
1491693940926,2,20,14,-36,-72,6,122,11,15
1491693940927,3,-8,39,99,127,67,-68,33,14
1491693940927,3,-3,2,-16,-104,11,62,33,54
1491693940928,0,-2,-59,-56,127,-119,-61,-11,9
1491693940928,0,-27,-27,-44,-39,10,-27,-48,-49
1491693940930,1,12,18,25,-5,74,-26,-34,16
1491693940930,1,-5,-4,2,43,-70,-61,-12,-23
1491693940958,2,2,-7,36,-47,13,18,32,-13
1491693940958,2,-18,78,98,36,-14,-90,-29,3
1491693940960,3,0,-42,-128,-16,-128,-116,-33,-18
1491693940960,3,14,12,77,36,127,10,3,30
1491693940961,0,-5,43,49,-72,1,18,14,-5
1491693940961,0,-49,-94,-128,-1,-39,69,-27,-103
1491693940961,1,20,60,106,-128,121,86,23,10
1491693940961,1,-6,-32,-105,87,-128,-80,-48,9
1491693940990,2,-4,-38,-40,15,73,-2,-8,-9
1491693940990,2,39,101,95,105,85,47,54,49
1491693940992,3,-29,-50,-86,-125,-69,70,2,-48
1491693940992,3,30,50,69,-75,41,75,65,17
1491693940993,0,-11,-36,-53,14,-128,-128,-96,-46
1491693940993,0,-11,36,78,-2,127,77,15,14
1491693940994,1,29,1,-77,72,-128,105,42,31
1491693940994,1,-51,-79,-69,2,-93,-106,-87,-21
1491693941023,2,39,74,42,-13,35,126,92,50
1491693941023,2,-38,-93,-122,-60,-72,-100,-65,-31
1491693941030,3,9,4,66,72,58,42,29,28
1491693941030,3,-23,17,25,39,28,0,-5,-24
1491693941031,0,-7,11,54,76,43,57,29,8
1491693941031,0,26,55,105,28,68,8,62,4
1491693941088,1,-14,-50,-111,-97,-106,-97,-52,17
1491693941088,1,15,24,68,107,61,107,44,-2
1491693941089,2,-43,-68,-103,-123,-128,-110,-72,-42
1491693941089,2,5,9,16,-26,-59,94,42,-9
1491693941090,3,-16,-30,8,127,88,-20,-2,-14
1491693941090,3,-21,-10,-5,-32,-24,-88,-41,-29
1491693941121,0,30,24,-14,-22,-27,56,6,44
1491693941121,0,-20,-26,-90,-95,32,-40,-48,-11
1491693941122,1,47,85,125,37,57,127,103,36
1491693941122,1,-34,-53,-128,-128,-61,-30,-77,-35
1491693941123,2,26,115,127,-59,27,-90,42,29
1491693941123,2,-63,-128,-128,108,-36,-25,-111,-76
1491693941130,0,-1,-22,-85,-109,-69,-66,-65,-5
1491693941130,0,19,84,127,37,127,36,15,10
1491693941153,1,-20,-30,-128,117,-128,-83,12,-16
1491693941153,1,-31,-86,-57,-128,30,-39,-46,-77
1491693941154,2,19,54,119,-1,97,127,97,53
1491693941154,2,2,-32,-97,54,-97,-20,9,-4
1491693941155,3,-5,32,61,22,127,15,-54,-26
1491693941155,3,39,7,-32,13,10,58,86,67
1491693941156,0,-40,-53,-65,-46,-29,-115,-110,-73
1491693941156,0,35,32,31,-32,37,-32,51,77
1491693941185,1,-8,72,78,-2,32,71,71,-20
1491693941185,1,-19,-63,-63,49,-79,-93,-65,-24
1491693941187,2,-6,-7,17,127,125,18,7,14
1491693941187,2,-5,-62,-128,-77,-109,13,29,-10
1491693941189,3,2,61,102,24,88,64,14,6
1491693941189,3,13,23,-34,127,-85,20,91,-10
1491693941190,0,-12,-45,-108,-94,-105,-74,-86,-21
1491693941190,0,7,40,102,-44,100,73,28,36
1491693941218,1,6,-12,16,90,-128,-123,10,-25
1491693941218,1,-9,-13,17,-93,123,127,15,-30
1491693941220,2,5,37,55,88,-128,-74,-44,-27
1491693941220,2,-4,-74,-87,-72,-81,97,-63,0
1491693941222,3,-8,25,88,-26,100,21,-3,-1
1491693941222,3,-3,-36,-26,91,-5,-5,-8,6
1491693941223,0,2,12,73,91,127,127,40,9
1491693941223,0,6,63,25,-83,71,-27,-1,-17
1491693941250,1,-14,-72,-116,22,-128,-65,-71,-6
1491693941250,1,19,59,91,-25,59,40,10,-3
1491693941252,2,7,-75,-118,25,-64,127,85,29
1491693941252,2,-15,-33,-1,-85,103,-51,-10,-32
1491693941253,3,4,61,67,-92,72,49,-23,-1
1491693941253,3,-17,14,109,90,117,-91,-28,2
1491693941284,0,-12,-14,-54,-41,75,98,38,22
1491693941284,0,51,14,55,-31,-40,-89,45,35
1491693941286,1,-25,-41,-38,-128,50,-11,-41,-41
1491693941286,1,21,29,13,82,-124,37,6,32
1491693941287,2,7,76,127,109,127,84,40,42
1491693941287,2,14,-1,-108,76,-128,-97,4,12
1491693941315,3,-24,-53,-3,-11,79,15,-50,-30
1491693941315,3,32,34,-61,-65,-117,-28,32,2
1491693941317,0,-40,-82,-23,-87,-59,-81,-73,-38
1491693941317,0,8,65,116,-2,127,127,49,8
1491693941318,1,12,-27,-23,78,-128,-71,17,34
1491693941318,1,-12,78,112,-24,120,89,8,-12
1491693941320,2,4,24,29,-41,-40,-75,-26,-11
1491693941320,2,-35,-100,-58,-91,-91,-25,-48,-34
1491693941349,3,-4,32,73,-5,95,11,30,-1
1491693941349,3,-11,-29,5,-47,23,-113,-14,-18
1491693941351,0,8,16,-40,-49,-18,55,8,14
1491693941351,0,40,75,100,122,-26,36,62,52
1491693941352,1,-28,-99,-128,-60,-128,-100,-51,-15
1491693941352,1,-22,-60,21,-83,-50,-82,-4,-6
1491693941380,2,12,17,14,-1,104,-80,-88,-13
1491693941380,2,0,13,31,23,119,67,-7,-41
1491693941383,3,50,50,44,75,-34,-21,30,43
1491693941383,3,26,41,59,81,79,-14,-3,26
1491693941385,0,38,85,109,-38,51,98,80,11
1491693941385,0,-65,-89,-75,-74,-107,-126,-97,-61
1491693941413,1,-18,45,95,-13,127,84,29,-12
1491693941413,1,25,44,52,38,48,69,21,13
1491693941415,2,-26,-46,-77,-73,-91,-111,-18,-35
1491693941415,2,10,38,65,127,127,73,-3,14
1491693941416,3,19,-27,-12,-49,52,21,48,-5
1491693941416,3,-21,-36,-30,-44,42,-7,-49,1
1491693941446,0,-2,38,67,127,-9,7,14,-2
1491693941446,0,29,-3,65,86,-8,-22,47,21
1491693941447,1,-44,-54,-126,-72,-61,-1,-37,-70
1491693941447,1,-5,-27,-89,-89,-124,-41,-18,16
1491693941451,2,-37,-56,-26,13,-47,-9,2,1
1491693941451,2,-14,33,-16,-42,27,37,-12,-3
1491693941452,3,19,23,71,15,-59,2,-11,20
1491693941452,3,-16,2,-46,-31,-108,-21,-12,-18
1491693941478,0,-1,-53,-25,-34,-36,-42,-28,17
1491693941478,0,-2,27,17,-9,41,-20,8,13
1491693941480,1,2,31,14,-33,-63,-72,-7,6
1491693941480,1,-20,-36,-70,-67,-19,-8,-6,1
1491693941481,2,11,10,36,-22,71,-15,-8,-5
1491693941481,2,-10,0,7,-10,-102,-19,20,-8
1491693941511,3,-5,7,2,19,29,31,24,6
1491693941511,3,9,-16,-78,-35,43,22,0,8
1491693941513,0,-2,-1,-101,76,33,41,7,-6
1491693941513,0,2,5,-94,-97,-89,-52,-20,-29
1491693941514,1,-24,-27,-43,-72,-97,-29,-16,-8
1491693941514,1,-1,5,77,34,39,-27,-12,-1
1491693941543,2,-2,27,81,54,116,98,11,-32
1491693941543,2,-1,16,67,23,17,-46,-13,12
1491693941546,3,12,-23,52,-36,-90,-18,-10,5
1491693941546,3,-19,-21,78,19,-9,19,-9,-10
1491693941550,0,2,14,73,19,80,61,14,6
1491693941550,0,8,1,123,16,-37,-52,-7,25
1491693941575,1,10,27,-11,113,114,76,42,-2
1491693941575,1,-12,-78,-79,-103,-111,-78,-65,-47
1491693941608,2,8,-2,50,-14,59,41,6,29
1491693941608,2,-3,0,63,21,106,71,28,-14
1491693941608,3,-7,5,84,63,87,10,-21,-2
1491693941608,3,23,48,110,88,127,112,34,22
1491693941609,0,-12,-56,-84,-102,-128,-122,-1,23
1491693941609,0,-9,23,46,38,64,21,-9,-24
1491693941610,1,-12,-9,-27,-9,57,42,-1,15
1491693941610,1,-5,43,102,18,118,38,14,-19
1491693941673,2,-2,27,118,36,81,19,-12,-21
1491693941673,2,4,-93,-104,-84,-82,-24,-2,37
1491693941674,3,-11,11,67,-25,31,9,-13,-22
1491693941674,3,27,11,46,22,-52,-46,26,27
1491693941674,0,4,-12,57,30,30,2,11,41
1491693941674,0,4,77,97,124,96,45,34,-5
1491693941675,1,22,-35,-109,-35,-113,-93,-3,5
1491693941675,1,-4,-43,-40,-86,7,-59,-61,-12
1491693941706,2,1,19,64,40,71,101,10,-16
1491693941706,2,2,-11,-53,5,-62,-115,-45,-16
1491693941707,3,7,30,41,34,126,44,43,29
1491693941707,3,-9,18,60,106,63,66,31,-11
1491693941708,0,10,-12,-123,-69,-109,-128,-36,-22
1491693941708,0,3,-6,4,55,23,40,-3,43
1491693941709,2,-3,-5,50,90,111,40,-14,32
1491693941709,2,-1,-15,-69,-52,-100,-11,15,-19
1491693941740,3,-10,-5,-23,35,57,28,-32,32
1491693941740,3,7,-9,-7,-49,14,23,23,31
1491693941741,0,2,8,-34,-50,-52,-37,17,-16
1491693941741,0,0,36,60,73,127,127,50,3
1491693941742,1,7,-35,-54,32,-123,-78,-38,20
1491693941742,1,15,25,15,-12,-19,-83,-20,3
1491693941743,2,-8,58,27,-21,4,105,52,-28
1491693941743,2,-21,-105,-102,-118,-113,-102,-106,-18
1491693941771,3,-25,-13,0,-125,84,18,41,-30
1491693941771,3,6,-17,-13,100,43,49,7,15
1491693941775,0,-18,-15,6,27,24,17,-28,-32
1491693941775,0,12,57,63,16,127,67,53,40
1491693941777,1,7,-7,-114,7,-98,6,13,-2
1491693941777,1,1,5,18,-66,-14,-34,-34,-12
1491693941778,2,8,3,0,13,-42,-25,29,31
1491693941778,2,8,-8,-61,51,74,127,20,-32
1491693941803,3,9,-5,50,-27,-31,-82,-9,42
1491693941803,3,-1,39,3,-16,-4,11,29,7
1491693941804,0,2,-58,21,65,-57,45,-26,-9
1491693941804,0,0,24,73,-46,-114,-68,3,7
1491693941804,1,17,1,18,16,31,91,-6,21
1491693941804,1,-7,21,115,60,50,-1,44,-12
1491693941805,2,-17,-9,-46,17,-55,-25,-8,-42
1491693941805,2,-11,-30,-70,-118,-109,-29,1,22
1491693941835,3,-13,28,68,-54,99,51,-3,-28
1491693941835,3,5,-41,-104,38,-42,101,-4,44
1491693941836,0,1,18,-6,-21,111,-81,-2,-11
1491693941836,0,-7,20,2,8,39,57,1,-3
1491693941837,1,15,9,1,76,11,-42,15,13
1491693941837,1,-14,-14,-75,16,-57,-19,-67,-11
1491693941868,2,-24,-6,-3,-55,74,56,20,-27
1491693941868,2,30,-6,-102,-44,-92,-110,-19,40
1491693941869,3,-9,11,21,32,125,78,-15,-20
1491693941869,3,0,36,52,-71,96,69,58,-8
1491693941869,0,6,-16,-106,75,-128,-105,-38,-8
1491693941869,0,16,-24,-35,-20,67,-37,-29,30
1491693941870,1,-12,0,-22,69,10,-48,-5,-3
1491693941870,1,9,3,-5,-17,33,2,-2,24
1491693941901,2,3,21,36,-128,-76,-36,34,26
1491693941901,2,-21,36,53,-4,86,74,-9,-56
1491693941902,3,24,-39,-128,125,-72,58,-6,64
1491693941902,3,-6,-66,-75,-128,4,-43,12,-16
1491693941903,0,9,22,33,-85,95,34,11,14
1491693941903,0,-15,-15,6,57,-3,-7,-46,-41
1491693941933,1,14,51,65,-24,10,59,63,77
1491693941933,1,-1,44,43,76,97,125,28,-33
1491693941934,2,8,-38,-48,-83,-102,-91,-40,-32
1491693941934,2,-10,-38,-52,25,95,-6,-13,-12
1491693941939,3,-37,-13,-23,-123,59,-19,-51,-61
1491693941939,3,-11,-17,25,114,90,61,-63,-9
1491693941966,0,16,41,44,65,2,34,42,54
1491693941966,0,-22,7,13,-74,-89,3,34,-11
1491693941967,1,3,-16,22,68,0,10,-3,-34
1491693941967,1,2,-8,-64,-23,-85,-128,-15,60
1491693941968,2,-2,-5,-3,48,31,13,2,15
1491693941968,2,-7,32,-34,80,-64,28,53,-48
1491693941998,3,-28,-93,-102,-7,-128,-51,-54,-69
1491693941998,3,15,-3,6,-62,9,29,-8,-14
1491693942000,0,-37,-43,-35,26,53,115,-25,-58
1491693942000,0,35,39,93,-42,8,-93,25,55
1491693942002,1,20,88,114,-1,127,118,63,-1
1491693942002,1,0,-21,-56,107,-128,-45,-11,-27
1491693942004,2,2,-36,-65,-82,31,-41,-21,-23
1491693942004,2,-14,-1,90,-71,20,101,8,-22
1491693942031,3,4,-13,-87,-35,-3,-44,-9,13
1491693942031,3,-16,4,33,-22,-23,-52,-16,5
1491693942032,0,-7,12,50,89,41,-80,-25,-39
1491693942032,0,-4,29,66,127,37,88,23,-21
1491693942033,1,0,-45,-86,-30,-119,-106,-18,41
1491693942033,1,-28,-21,-37,-124,25,-31,-11,-12
1491693942063,2,8,7,18,-13,-8,45,-18,-2
1491693942063,2,15,48,91,65,127,47,39,28
1491693942065,3,1,0,-24,-43,-94,28,-30,-9
1491693942065,3,10,-36,-88,-58,-78,-70,12,-19
1491693942066,0,-12,3,-43,-44,24,51,-13,22
1491693942066,0,6,31,72,26,85,-20,-8,68
1491693942096,1,2,25,44,-64,-15,56,10,-60
1491693942096,1,-1,-1,22,-60,-11,60,27,24
1491693942097,2,-5,-22,-36,127,44,78,-20,-4
1491693942097,2,4,-23,-39,-77,-68,-36,-9,51
1491693942099,3,-11,18,26,-70,25,69,18,-48
1491693942099,3,-19,-5,-3,36,-45,-107,-59,-5
1491693942128,0,-6,16,36,-123,-49,29,-60,-7
1491693942128,0,-25,-48,-74,101,26,54,14,13
1491693942131,1,27,-10,40,-20,13,-45,60,37
1491693942131,1,-11,23,37,-11,27,110,0,-41
1491693942132,2,43,40,50,-4,71,-54,27,36
1491693942132,2,6,15,-27,89,-38,4,-3,-34
1491693942133,3,-17,-60,-65,-58,-38,-33,-30,-57
1491693942133,3,27,10,5,-84,-8,80,14,31
1491693942161,0,-7,-1,-23,37,-37,-41,3,-10
1491693942161,0,2,-12,-5,-2,41,-9,-5,2
1491693942162,1,-21,-2,24,21,76,-56,18,-2
1491693942162,1,17,43,55,51,28,56,13,-40
1491693942163,2,-13,4,14,65,47,31,55,-1
1491693942163,2,-11,-27,-51,-109,-126,-114,-80,-18
1491693942193,3,13,7,28,-15,11,78,36,29
1491693942193,3,-18,4,9,87,-50,-48,22,-5
1491693942195,0,-3,-42,-14,32,-59,66,15,40
1491693942195,0,32,7,-3,-10,91,-77,-46,-14
1491693942196,1,-14,16,85,48,29,68,-18,11
1491693942196,1,3,21,-14,-89,111,10,27,40
1491693942226,2,6,22,57,98,-24,-1,42,-5
1491693942226,2,-13,-59,-110,-77,-110,36,-41,-11
1491693942227,3,-11,11,9,-28,52,-29,-7,29
1491693942227,3,9,-25,-6,44,-41,-1,-16,-24
1491693942228,0,-12,1,-3,-35,4,13,-15,-1
1491693942228,0,-10,10,32,-5,24,-67,-14,-24
1491693942291,1,1,20,17,89,-7,-50,32,24
1491693942291,1,-23,-17,-20,21,-11,25,-44,17
1491693942293,2,41,-7,-13,-53,40,-39,46,91
1491693942293,2,-6,9,26,26,-46,-19,39,-57
1491693942294,3,13,0,-34,-28,6,-12,-89,25
1491693942294,3,-20,-5,24,-32,70,-9,29,-39
1491693942295,0,10,-2,0,60,-107,-32,26,-7
1491693942295,0,-9,-10,-32,-64,43,23,9,-7
1491693942323,1,17,12,35,70,-26,15,23,3
1491693942323,1,7,-3,-24,-34,12,54,-65,-4
1491693942325,2,-6,3,10,-80,44,-82,-53,-24
1491693942325,2,-8,-16,-88,-63,-23,118,43,-41
1491693942326,3,-4,1,10,10,-86,-128,-18,-6
1491693942326,3,-14,20,19,36,43,74,-67,-35
1491693942328,0,1,-6,3,49,21,-121,36,-20
1491693942328,0,-18,-26,38,27,-105,-14,-15,7
1491693942356,1,-1,12,-28,-39,48,-18,-20,-11
1491693942356,1,-2,6,57,22,17,-3,57,2
1491693942357,2,-20,12,-47,-35,8,40,-17,-5
1491693942357,2,21,-14,-3,-20,-58,-67,-37,38
1491693942359,3,-17,7,8,29,10,24,22,-1
1491693942359,3,-1,1,3,-106,-39,-42,32,-37
1491693942360,0,-2,21,93,43,58,95,-15,-18
1491693942360,0,-44,-7,-66,108,-67,48,57,33
1491693942395,1,17,-51,-74,-30,-62,-103,-60,6
1491693942395,1,3,-9,1,-8,20,-17,14,16
1491693942397,2,-13,-11,-23,-55,45,99,42,-32
1491693942397,2,24,38,95,0,46,-57,-9,-15
1491693942398,3,7,45,77,88,64,21,47,41
1491693942398,3,2,-39,-108,-69,-64,-12,-24,16
1491693942400,0,-16,-36,-61,-67,-117,-95,-32,-6
1491693942400,0,-3,-4,-12,-13,55,-9,-46,-17
1491693942421,1,-22,1,7,-24,-68,46,26,-61
1491693942421,1,-17,-13,12,24,-9,10,-30,-42
1491693942423,2,12,8,23,16,25,21,29,82
1491693942423,2,1,25,-17,5,10,-27,-8,-14
1491693942424,3,-26,-15,-12,14,53,27,2,9
1491693942424,3,61,4,28,41,-10,71,46,53
1491693942425,0,-13,26,-26,-39,-13,-19,-52,36
1491693942425,0,49,39,60,-114,2,59,69,47
1491693942453,1,-33,-82,-100,-2,-40,-63,-54,-43
1491693942453,1,-37,-28,-23,-15,15,-63,-83,-17
1491693942455,2,10,11,5,-8,54,30,-29,-20
1491693942455,2,7,32,109,101,127,84,62,-2
1491693942456,3,-5,56,48,90,119,-46,-67,-20
1491693942456,3,23,-15,-3,32,-99,70,127,46
1491693942485,0,-35,-25,-41,-103,-90,-87,-120,-32
1491693942485,0,25,23,9,51,22,67,-37,6
1491693942487,1,-8,28,66,-128,87,89,38,-84
1491693942487,1,10,-12,-45,97,-50,78,-6,89
1491693942489,2,2,12,-52,-81,-22,14,23,-17
1491693942489,2,-23,-45,40,71,44,-61,-48,9
1491693942518,3,-4,22,56,95,-19,88,21,3
1491693942518,3,-12,-9,-24,-37,-22,-128,-74,-19
1491693942521,0,16,-23,60,-31,-54,43,0,-31
1491693942521,0,0,-21,-108,-15,-21,-17,8,21
1491693942522,1,-4,-35,-82,-17,-37,-60,24,12
1491693942522,1,-12,28,65,108,127,49,-28,-19
1491693942523,2,-15,10,-38,112,55,116,69,-57
1491693942523,2,-54,-71,21,-40,-36,54,-79,-6
1491693942550,3,69,97,53,85,22,127,87,12
1491693942550,3,-65,-89,-103,-87,-123,-123,-83,9
1491693942552,0,8,10,12,69,127,-3,-64,9
1491693942552,0,8,34,87,-36,97,127,117,-25
1491693942554,1,-8,-13,-53,73,-118,-60,-103,-2
1491693942554,1,8,51,39,-33,127,9,64,-3
1491693942583,2,12,-28,-54,97,-112,-41,27,14
1491693942583,2,-69,-46,-78,-54,60,87,17,-26
1491693942585,3,42,-38,-21,-101,-89,-57,-16,19
1491693942585,3,31,19,50,-38,-13,-59,49,56
1491693942586,0,10,35,127,38,119,34,6,10
1491693942586,0,39,-3,-79,127,-128,-37,29,-11
1491693942648,1,-41,-21,-24,-54,-66,-77,-80,14
1491693942648,1,25,35,69,-47,-42,-21,26,-22
1491693942650,2,-9,6,30,-22,-121,-57,-3,-47
1491693942650,2,27,-10,-54,-104,65,-44,-39,26
1491693942652,3,-18,-29,-55,-58,-41,-67,-12,-9
1491693942652,3,-5,-21,-56,50,-22,77,-93,24
1491693942653,0,-10,2,18,-32,57,127,75,-7
1491693942653,0,0,27,19,2,31,16,10,-58
1491693942680,1,42,26,103,88,61,106,75,104
1491693942680,1,-20,7,-16,106,108,59,18,5
1491693942683,2,-5,-37,-120,-80,-128,-56,-11,-56
1491693942683,2,25,13,15,40,-128,44,-1,46
1491693942684,3,-12,23,27,-81,121,-41,11,-22
1491693942684,3,23,32,17,-50,-104,120,101,-21
1491693942685,0,-46,-78,-100,-12,-55,-113,-113,47
1491693942685,0,40,10,19,-128,30,58,54,-44
1491693942713,1,14,-25,-41,42,-8,127,12,33
1491693942713,1,-3,57,106,111,116,-18,-26,-62
1491693942715,2,18,8,-47,-72,-61,46,62,15
1491693942715,2,-26,5,3,99,-7,-82,-51,11
1491693942716,3,-7,-11,1,-84,-50,34,-13,-29
1491693942716,3,5,-15,-23,87,17,-50,16,-8
1491693942718,0,27,48,90,-5,15,113,48,4
1491693942718,0,-41,-65,-95,-76,-128,-103,-58,-5
1491693942750,1,-9,-15,3,55,127,41,-6,7
1491693942750,1,-8,-12,14,-6,-1,-87,-52,-13
1491693942752,2,8,23,82,104,99,107,14,7
1491693942752,2,21,49,81,30,127,-52,54,27
1491693942753,3,4,-16,-83,-50,-128,-26,41,-3
1491693942753,3,5,0,19,-91,-68,-6,-82,-16
1491693942754,0,24,3,-21,127,50,-39,5,24
1491693942754,0,-13,-27,-75,-84,-98,-94,-43,7
1491693942778,1,-10,35,115,-17,65,127,16,-26
1491693942778,1,-37,-67,-128,45,-42,-81,-31,26
1491693942780,2,31,-5,1,-69,77,-111,-5,25
1491693942780,2,-19,15,57,60,84,127,76,-9
1491693942781,3,18,37,90,85,82,-75,-8,-4
1491693942781,3,-3,31,5,-48,-7,81,15,-31
1491693942812,0,-14,-19,-25,32,-3,36,17,-7
1491693942812,0,11,-13,-50,-5,-95,-57,18,-26
1491693942814,1,-10,-42,-44,-68,-59,-63,-82,-44
1491693942814,1,22,45,28,4,119,88,67,24
1491693942820,2,-5,4,-86,82,-128,-67,-39,-24
1491693942820,2,-3,-19,-50,-50,26,56,-73,13
1491693942823,3,-12,19,79,110,53,48,52,-6
1491693942823,3,1,-28,-92,-112,-88,-15,3,2
1491693942844,0,6,15,61,19,115,76,40,-2
1491693942844,0,-4,16,60,76,-48,-48,-56,1
1491693942847,1,5,20,-67,92,-17,121,23,17
1491693942847,1,-22,-68,-22,-97,-3,-9,-27,-31
1491693942848,2,16,27,28,46,-125,-94,48,50
1491693942848,2,-12,-12,21,102,35,7,-11,-31
1491693942875,3,0,-20,-32,-75,15,-22,30,-4
1491693942875,3,-7,9,-44,26,2,3,-9,0
1491693942876,0,-15,-5,-6,-128,87,89,-16,-43
1491693942876,0,8,-17,-16,82,-53,-18,-10,31
1491693942878,1,-10,-13,-18,-59,91,96,51,38
1491693942878,1,17,39,86,72,-31,120,41,-14
1491693942908,2,-15,-20,1,-50,-30,-125,-74,-8
1491693942908,2,11,28,1,-25,93,88,-24,15
1491693942909,3,-5,86,77,23,33,47,56,-67
1491693942909,3,-29,-105,-105,-77,-64,-81,-69,2
1491693942940,0,-35,-31,68,30,122,98,-42,-42
1491693942940,0,13,2,39,-19,-20,-128,-23,35
1491693942941,1,3,25,64,15,49,62,-15,13
1491693942941,1,34,80,106,3,16,83,119,7
1491693942942,2,-27,-43,-66,44,-38,18,-47,-24
1491693942942,2,-6,-8,108,14,114,99,10,-12
1491693942943,3,20,-8,-128,73,-44,-128,-22,-2
1491693942943,3,-11,-8,20,-39,61,-34,-24,-18
1491693942980,0,-4,-17,-10,99,-58,-7,-11,20
1491693942980,0,5,37,61,64,88,108,47,6
1491693942982,1,-3,-27,-23,79,-100,-66,12,33
1491693942982,1,-11,-7,6,-52,80,-10,-9,3
1491693942983,2,19,58,72,-107,51,77,83,17
1491693942983,2,-14,-42,-119,-114,14,9,-44,-5
1491693942984,3,-4,37,95,-73,94,75,9,4
1491693942984,3,9,27,-97,88,-116,-44,35,4
1491693943005,0,-21,-68,-75,-46,-96,-104,-74,3
1491693943005,0,16,34,62,19,44,-10,35,17
1491693943007,1,2,-20,40,49,44,49,-45,-9
1491693943007,1,-1,6,3,124,-46,-74,-43,-2
1491693943008,2,11,70,127,-118,19,127,31,7
1491693943008,2,-30,-101,-128,-85,-128,-87,-53,-27
1491693943038,3,4,9,54,-62,58,88,-19,13
1491693943038,3,29,59,92,13,26,127,71,-6
1491693943040,0,-10,-32,-10,50,-33,-113,29,37
1491693943040,0,-10,33,9,-128,37,59,51,-57
1491693943041,1,-16,-56,-126,-41,-100,49,2,21
1491693943041,1,-17,5,8,69,20,20,-11,-21
1491693943070,2,-9,-15,-39,42,-43,-19,-2,0
1491693943070,2,-3,31,-1,-54,75,51,18,16
1491693943072,3,-11,-13,11,-80,-100,16,59,-14
1491693943072,3,-15,15,96,51,127,116,-15,-32
1491693943074,0,30,19,-116,57,-99,-83,4,6
1491693943074,0,-18,-51,-81,118,-111,41,-5,-22
1491693943075,1,12,36,51,3,60,29,-19,-48
1491693943075,1,4,-59,-128,-59,-128,-128,-20,40
1491693943103,2,1,10,74,43,127,74,-28,-1
1491693943103,2,19,31,14,-46,33,45,25,14
1491693943105,3,-30,-56,-84,-30,-87,-57,-70,-17
1491693943105,3,27,54,117,-56,127,87,49,-3
1491693943106,0,-11,-11,-68,33,10,21,-13,-9
1491693943106,0,12,-36,-64,-53,-117,-99,-21,-2
1491693943140,1,-11,22,11,-87,60,-55,-27,-8
1491693943140,1,1,-19,2,48,-12,-102,-37,0
1491693943142,2,1,13,29,-10,47,127,65,3
1491693943142,2,-3,29,57,13,24,-53,-37,-9
1491693943144,3,3,-17,-18,-52,-14,-7,-13,-54
1491693943144,3,5,-12,-30,-40,-99,-25,-39,38
1491693943168,0,-13,-53,-108,-98,5,98,33,-18
1491693943168,0,-11,18,58,34,-22,-99,-14,-13
1491693943170,1,-1,-20,-29,77,-44,-52,-8,31
1491693943170,1,12,70,98,6,127,127,36,-36
1491693943171,2,-13,-36,-73,-127,-95,-95,-69,2
1491693943171,2,-14,-31,-41,17,-80,42,9,11
1491693943200,3,-1,0,-23,-84,-85,-62,16,18
1491693943200,3,-14,-56,13,35,-45,21,-35,-9
1491693943204,0,29,69,73,21,103,5,2,-4
1491693943204,0,-14,-7,37,36,7,8,2,-27
1491693943205,1,8,28,66,40,46,75,-11,-6
1491693943205,1,0,-12,-25,-24,69,30,50,45
1491693943206,2,23,63,51,83,-50,-76,-9,-49
1491693943206,2,-4,-64,-80,-29,-83,115,44,33
1491693943233,3,-13,-29,-20,-84,-75,-56,-53,-2
1491693943233,3,-8,-68,12,5,70,35,3,-25
1491693943235,0,11,51,117,34,53,32,-2,19
1491693943235,0,4,24,-27,-3,19,1,44,-7
1491693943236,1,-6,-58,-56,-39,-43,-112,-48,-5
1491693943236,1,-13,18,56,6,94,39,7,-14
1491693943265,2,22,3,77,67,95,30,1,11
1491693943265,2,15,73,93,5,127,121,31,-18
1491693943268,3,0,-32,-76,61,-57,-55,23,51
1491693943268,3,-9,-10,-96,-56,-84,-66,-51,-9
1491693943269,0,-7,52,86,80,72,99,28,-20
1491693943269,0,-9,-37,-80,-116,-90,-113,-61,-2
1491693943298,1,46,16,49,28,60,79,93,59
1491693943298,1,-8,-8,-73,-65,-56,-68,-6,-3
1491693943300,2,-26,-56,-128,-76,-106,-57,-33,-7
1491693943300,2,8,61,-78,126,127,45,10,14
1491693943301,3,-25,-20,-24,-44,46,122,2,-40
1491693943301,3,4,-19,5,-12,-67,-65,-2,13
1491693943330,0,5,11,57,-26,111,30,-20,-7
1491693943330,0,-15,6,127,100,82,32,1,-18
1491693943332,1,-17,-70,36,-3,-55,122,22,-25
1491693943332,1,5,46,108,-48,-78,-49,-18,5
1491693943333,2,-14,-49,-13,-94,-47,-26,10,5
1491693943333,2,3,15,127,31,69,0,-30,-5
1491693943334,3,7,32,40,52,-6,12,30,-11
1491693943334,3,1,-15,62,23,27,43,-36,6
1491693943363,0,-16,-10,75,3,60,-12,5,-10
1491693943363,0,19,-15,14,-9,-65,-77,-6,15
1491693943364,1,3,39,82,-19,67,3,-21,-25
1491693943364,1,-5,-1,76,76,30,93,68,11
1491693943364,2,-4,-35,-81,-48,-107,-37,-42,-32
1491693943364,2,-12,0,32,-56,107,55,7,8
1491693943395,3,-8,-1,15,41,68,-58,-30,-8
1491693943395,3,8,16,-73,-63,-53,-3,3,8
1491693943396,0,-5,3,98,46,-15,38,8,0
1491693943396,0,-2,-8,-8,14,-57,-88,-7,-5
1491693943397,1,-28,-7,-80,-64,-60,-14,-55,-26
1491693943397,1,-16,-9,-27,-24,102,58,23,7
1491693943428,2,2,-20,-17,-119,-128,-120,-18,-3
1491693943428,2,-12,-22,-78,-69,17,-14,-35,0
1491693943429,3,13,63,102,120,127,15,14,20
1491693943429,3,-1,44,73,78,127,103,30,-34
1491693943429,0,-19,-42,-64,58,-68,22,-19,-18
1491693943429,0,-5,10,34,31,16,-11,15,1
1491693943460,1,-10,-26,-113,-121,-128,-56,-51,-8
1491693943460,1,-1,-27,-55,-16,-19,-34,-21,1
1491693943461,2,4,20,3,20,125,66,54,46
1491693943461,2,-12,24,90,60,29,38,-15,-25
1491693943462,3,3,-7,-29,20,39,-30,20,20
1491693943462,3,-3,-8,-17,-71,-37,-74,-57,-43
1491693943463,0,10,22,-22,75,79,109,61,26
1491693943463,0,6,-7,56,66,-66,61,0,-14
1491693943493,1,-14,-75,-83,-8,-97,-90,-81,6
1491693943493,1,1,22,18,-39,95,49,14,-24
1491693943494,2,-1,-23,-6,-4,98,29,-17,2
1491693943494,2,14,29,33,-51,-46,39,-20,-26
1491693943495,3,7,21,26,95,16,37,-2,39
1491693943495,3,1,-4,7,-21,-11,-55,48,13
1491693943525,0,-33,-42,-26,68,-31,-46,-4,-49
1491693943525,0,-4,-23,-43,-3,-95,-18,-2,29
1491693943526,1,16,51,122,38,39,11,34,-24
1491693943526,1,1,18,0,80,58,11,-6,-18
1491693943527,2,22,6,-58,46,-53,-52,31,26
1491693943527,2,15,-29,-58,46,-91,-40,28,37
1491693943560,3,3,18,74,14,123,33,-3,6
1491693943560,3,-2,-2,-62,25,-76,-2,33,3
1491693943561,0,-7,7,27,-75,75,37,-12,-20
1491693943561,0,3,-3,-26,-128,71,36,-6,-19
1491693943561,1,-8,-5,18,70,64,101,62,-13
1491693943561,1,4,13,86,0,4,-58,-47,0
1491693943590,2,2,-8,-95,-95,-67,75,12,42
1491693943590,2,7,-38,-127,61,-64,20,-5,56
1491693943591,3,-11,18,29,-12,39,16,5,-2
1491693943591,3,-9,-7,-34,-63,-11,28,23,5
1491693943592,0,12,-11,-25,-19,-54,-82,-70,15
1491693943592,0,-21,12,69,-6,93,17,18,-29
1491693943623,1,4,0,24,-89,61,118,67,27
1491693943623,1,10,26,-10,57,-36,-109,-36,13
1491693943624,2,-22,-3,69,-49,-87,-57,5,-2
1491693943624,2,32,-10,1,-84,42,76,19,22
1491693943624,3,-14,-13,-37,105,58,49,-45,-43
1491693943624,3,-7,-25,19,-105,-98,-74,7,3
1491693943625,0,8,39,127,-47,85,42,34,41
1491693943625,0,-4,-11,84,70,58,20,-16,0
1491693943656,1,-1,33,114,-45,-113,-1,54,11
1491693943656,1,-16,-46,-77,-52,-73,-10,-57,-44
1491693943656,2,2,-1,1,40,73,51,7,-17
1491693943656,2,4,25,59,-53,-4,-76,27,8
1491693943657,3,8,-25,-107,-83,21,-6,-9,-10
1491693943657,3,-8,-23,-67,127,-40,-13,-38,-34
1491693943688,0,8,58,23,-84,41,55,37,-25
1491693943688,0,9,-74,-114,44,-69,-82,-56,-7
1491693943689,1,-6,-16,-85,-106,-88,-128,-51,-63
1491693943689,1,14,10,35,6,-18,44,33,105
1491693943690,2,-32,-17,-44,49,114,58,-27,-54
1491693943690,2,1,69,59,-2,127,45,49,37
1491693943720,3,1,-27,-72,59,-79,-38,-21,21
1491693943720,3,-8,-41,-100,-39,-100,16,2,7
1491693943721,0,3,-20,-29,-49,-64,-94,-26,16
1491693943721,0,-29,37,83,108,68,42,21,-61
1491693943722,1,-3,-16,-64,-15,24,-14,-17,10
1491693943722,1,-15,13,41,9,33,42,10,5
1491693943753,2,46,4,-9,48,-1,13,7,39
1491693943753,2,15,26,-8,-70,-70,-9,7,5
1491693943754,3,-9,23,38,110,104,122,14,-36
1491693943754,3,44,-22,0,17,-24,-17,28,43
1491693943755,0,-25,-19,-56,-23,15,-128,-63,-46
1491693943755,0,-24,-37,-92,-85,-119,-37,-30,-32
1491693943756,1,4,45,83,-26,115,94,51,-17
1491693943756,1,-19,-10,-6,-35,-43,9,6,-41
1491693943786,2,10,-6,66,37,-73,50,0,31
1491693943786,2,-18,25,-19,-23,127,-96,-55,-9
1491693943787,3,17,-31,-61,-2,-128,-45,-3,38
1491693943787,3,-19,-23,-38,-35,13,-26,-15,-45
1491693943788,0,10,15,40,0,45,67,-22,-19
1491693943788,0,-3,21,23,-4,19,-18,83,44
1491693943818,1,-9,-31,-27,72,-45,-4,-37,-1
1491693943818,1,34,-1,8,-30,110,112,-21,-10
1491693943819,2,-3,6,5,109,-115,-90,-25,17
1491693943819,2,19,-5,-16,-78,10,97,11,13
1491693943820,3,14,27,34,120,28,-114,9,-12
1491693943820,3,-45,-26,-16,21,-3,127,23,-35
1491693943851,0,15,-3,3,68,75,-22,19,81
1491693943851,0,7,-21,-26,-48,-128,-58,-33,-25
1491693943852,1,-30,-9,-30,-128,20,-41,2,-21
1491693943852,1,15,35,66,60,104,56,26,84
1491693943853,2,-21,-6,-22,-28,-33,10,25,-74
1491693943853,2,5,-5,27,45,87,103,8,10
1491693943883,3,-1,-2,1,-50,-105,-118,-20,-6
1491693943883,3,37,20,5,34,20,2,4,7
1491693943885,0,-13,-13,-13,-45,1,77,3,-7
1491693943885,0,1,8,32,-6,-99,-117,-66,34
1491693943886,1,-9,-9,-33,61,89,127,12,-10
1491693943886,1,-2,53,127,-63,110,2,83,1
1491693943887,2,-12,-44,-108,10,-125,-48,8,7
1491693943887,2,-40,-61,-41,-17,-38,-13,-86,-111
1491693943916,3,17,28,96,-25,71,47,49,99
1491693943916,3,-19,11,21,-70,8,-18,-55,-71
1491693943918,0,12,26,51,64,-7,29,53,14
1491693943918,0,-8,16,-8,13,6,8,1,-5
1491693943921,1,10,-20,-17,-76,-51,8,-51,-39
1491693943921,1,8,23,16,42,65,-92,16,43
1491693943948,2,9,29,33,39,-4,99,17,-6
1491693943948,2,-23,-53,-81,85,-98,-36,-19,-3
1491693943951,3,15,15,106,-89,103,-12,-17,10
1491693943951,3,-12,-22,-128,81,-94,60,-55,-39
1491693943952,0,-15,-1,21,35,27,-21,-37,-11
1491693943952,0,-4,-8,-7,-48,-93,-87,39,43
1491693943981,1,-30,-24,-44,-33,-37,31,30,-39
1491693943981,1,-4,14,39,-19,56,45,20,-25
1491693943983,2,20,4,14,-55,60,26,-11,-4
1491693943983,2,3,34,56,63,110,39,39,47
1491693943984,3,3,-12,-35,-32,-92,-52,-3,53
1491693943984,3,5,-21,-5,27,-5,-4,-16,-52
1491693944013,0,2,-4,-1,46,29,7,19,38
1491693944013,0,22,25,47,45,10,89,-32,-4
1491693944014,1,1,-23,-90,-77,-92,-13,-27,-8
1491693944014,1,-36,-37,-44,-26,-83,-90,-7,17
1491693944016,2,17,19,39,-38,93,-10,-10,-3
1491693944016,2,-19,-8,20,31,10,33,12,-107
1491693944017,3,1,17,13,46,28,17,15,28
1491693944017,3,-24,-19,-16,33,46,106,-11,-27
1491693944046,0,41,-13,19,-45,-43,-35,9,38
1491693944046,0,9,20,-29,91,-48,-40,12,1
1491693944048,1,-13,-14,42,96,32,12,-58,-47
1491693944048,1,15,-23,-50,-28,-82,28,37,21
1491693944049,2,-35,-11,-53,71,24,-42,-31,38
1491693944049,2,6,-13,-13,-28,-38,37,3,57
1491693944078,3,-13,2,3,-37,-9,-33,-10,-35
1491693944078,3,23,20,63,50,47,2,6,24
1491693944079,0,12,27,47,-40,16,-84,-36,-21
1491693944079,0,30,26,43,58,82,120,71,20
1491693944081,1,0,25,-31,0,9,-50,26,-8
1491693944081,1,-14,-27,-28,-34,-44,50,-17,-31
1491693944110,2,-25,-16,-66,-62,-110,-101,-14,-38
1491693944110,2,-28,-39,-30,22,18,-20,-68,-23
1491693944111,3,24,13,32,22,-22,16,0,41
1491693944111,3,-13,2,-13,-11,-64,-97,-44,-38
1491693944112,0,-2,19,43,-42,40,-43,17,22
1491693944112,0,-13,-15,-20,3,50,43,-2,-66
1491693944143,1,14,4,17,-4,32,35,-9,70
1491693944143,1,-8,26,39,14,41,-20,-2,-4
1491693944144,2,-7,-2,-20,-32,-61,127,13,-82
1491693944144,2,8,-46,-58,-84,44,-41,38,61
1491693944145,3,4,1,6,28,-59,-51,12,1
1491693944145,3,-1,0,48,-19,27,-25,-16,-8
1491693944146,0,-4,7,-52,30,59,127,-6,-27
1491693944146,0,-9,13,58,31,-62,-59,-23,-8
1491693944175,1,13,-14,-70,25,-37,38,20,-6
1491693944175,1,-18,-62,-83,44,-104,-113,-80,24
1491693944176,2,-21,0,31,-5,94,86,5,3
1491693944176,2,-15,2,-36,-55,27,15,9,22
1491693944177,3,6,13,76,41,7,6,2,10
1491693944177,3,-4,22,33,7,58,6,20,8
1491693944208,0,-10,-39,14,10,37,-2,42,-34
1491693944208,0,18,60,29,-38,16,51,29,28
1491693944208,1,14,-8,-29,-21,-68,-78,-20,-13
1491693944208,1,-44,-44,-41,-87,-1,-65,-20,-75
1491693944209,2,37,19,-5,41,42,29,10,110
1491693944209,2,-22,-9,-5,-96,9,-15,-5,-79
1491693944240,3,-11,14,-29,21,68,38,23,30
1491693944240,3,22,-30,1,85,-7,120,46,25
1491693944241,0,-15,3,55,42,-43,-128,-30,-10
1491693944241,0,-4,18,50,-15,70,49,-22,-13
1491693944273,1,-11,-18,-43,-58,-73,7,-30,-30
1491693944273,1,29,56,14,-59,70,-69,18,41
1491693944274,2,-10,-3,18,0,10,-52,28,28
1491693944274,2,10,-43,-54,127,-114,-49,-52,-23
1491693944275,3,-26,-34,-27,-38,-33,0,-12,2
1491693944275,3,-16,43,90,102,88,127,15,-6
1491693944275,0,20,-6,-50,6,-128,-39,13,25
1491693944275,0,-6,-13,-70,-57,-20,-22,44,59
1491693944305,1,-22,36,127,99,108,7,0,-85
1491693944305,1,-2,-8,-97,-58,-55,-20,15,2
1491693944312,2,-44,-23,-30,3,-28,115,-1,-44
1491693944312,2,22,9,6,-48,38,14,-5,3
1491693944313,3,29,10,-1,42,-94,11,2,50
1491693944313,3,17,20,25,34,92,111,52,25
1491693944314,0,-29,-35,8,-84,-16,-82,-43,-39
1491693944314,0,73,61,55,52,118,85,54,52
1491693944338,1,-10,-6,4,54,-30,42,39,22
1491693944338,1,-20,-81,-92,-3,-121,-101,-78,11
1491693944338,2,-23,2,-24,-70,-24,-70,-34,-20
1491693944338,2,8,4,38,-13,20,66,-4,-33
1491693944339,3,0,7,34,-84,63,-62,24,32
1491693944339,3,10,21,64,34,-54,-16,-44,39
1491693944370,0,5,2,-25,-2,-66,109,50,-63
1491693944370,0,-16,-26,-32,-91,-27,-96,13,40
1491693944371,1,-2,10,-28,55,44,52,18,-65
1491693944371,1,-3,19,52,-3,13,5,28,6
1491693944372,2,10,-8,-79,-18,-56,30,-30,37
1491693944372,2,-13,-18,8,-28,-63,-61,-30,6
1491693944403,3,-22,-32,-73,-49,29,-15,-52,-65
1491693944403,3,11,25,72,-29,73,22,7,-34
1491693944404,0,34,15,12,118,27,77,47,53
1491693944404,0,-19,11,66,73,-10,64,-39,-42
1491693944405,1,-1,-36,-41,35,-65,-128,-41,25
1491693944405,1,17,30,-68,-72,-25,105,21,-15
1491693944405,2,-12,-31,46,78,38,-100,-17,39
1491693944405,2,-23,-59,-128,-80,-96,-109,-99,-51
1491693944435,3,0,45,73,40,57,69,5,26
1491693944435,3,34,37,78,10,21,80,51,12
1491693944436,0,-33,-4,49,-43,-92,-26,-3,-43
1491693944436,0,1,8,-23,99,84,17,39,2
1491693944437,1,9,-5,28,-56,-68,-38,12,22
1491693944437,1,-9,-73,-124,2,-121,22,-6,20
1491693944469,2,17,-12,5,7,18,-83,-77,23
1491693944469,2,2,27,61,80,52,83,37,54
1491693944470,3,-10,-13,-38,-106,-81,38,39,-7
1491693944470,3,19,19,124,127,127,-40,38,10
1491693944471,0,-7,-22,-117,-114,-105,74,-16,-7
1491693944471,0,14,10,29,-37,62,17,40,9
1491693944500,1,13,45,14,96,62,-49,30,2
1491693944500,1,-20,40,91,-107,52,23,29,-5
1491693944501,2,-3,-29,-52,127,-22,-55,1,-70
1491693944501,2,-21,-2,67,-70,-82,26,-21,-25
1491693944502,3,-13,-52,-115,53,-50,28,-68,-3
1491693944502,3,-10,-7,-2,-37,-3,-25,-68,-4
1491693944533,0,33,45,40,-70,37,80,44,-2
1491693944533,0,5,37,30,-69,-87,-26,0,12
1491693944534,1,-25,-14,88,91,114,127,50,-37
1491693944534,1,15,-19,-91,19,-98,-128,-34,-31
1491693944535,2,-3,-17,-56,-42,-35,-59,-71,17
1491693944535,2,-8,18,76,-93,95,19,-42,-61
1491693944565,3,15,0,49,79,83,-11,34,32
1491693944565,3,4,12,-99,-48,-87,53,71,10
1491693944567,0,1,-30,-26,-51,-8,8,18,31
1491693944567,0,7,-17,5,5,8,58,3,-16
1491693944569,1,-1,-22,-51,-31,-97,-109,-56,22
1491693944569,1,-20,-7,11,39,-3,13,-53,-16
1491693944570,2,-2,49,74,-52,76,82,40,9
1491693944570,2,-29,-49,-104,-4,-104,-75,-4,-35
1491693944598,3,41,30,-16,-116,11,0,42,31
1491693944598,3,-30,-12,37,56,52,7,-37,10
1491693944600,0,30,25,-43,-24,-58,13,-11,-35
1491693944600,0,-27,-12,-8,-19,0,-26,-50,17
1491693944602,1,18,71,53,-128,53,120,39,-30
1491693944602,1,-3,-81,-128,67,-128,-91,-33,33
1491693944631,2,-30,3,54,-28,58,-9,-77,-27
1491693944631,2,13,19,63,103,88,12,35,-24
1491693944632,3,3,19,-7,-76,-13,52,8,80
1491693944632,3,19,25,6,-89,-4,-50,59,10
1491693944633,0,2,-25,-25,8,-13,-27,-11,28
1491693944633,0,-8,17,0,-59,3,41,55,-25
1491693944663,1,-37,-66,-66,127,-49,-29,-15,-62
1491693944663,1,-1,-14,7,-3,9,-36,-42,-9
1491693944665,2,15,53,76,-78,53,57,113,0
1491693944665,2,0,-18,-66,118,-81,71,-47,4
1491693944666,3,-6,31,108,64,75,-69,10,36
1491693944666,3,8,-2,-75,-86,-128,20,14,-33
1491693944695,0,-28,-44,-13,54,70,-9,-85,-36
1491693944695,0,18,43,-30,-33,-77,18,30,34
1491693944697,1,-8,-84,-48,-79,-30,-5,-39,-14
1491693944697,1,4,68,108,82,119,89,13,-9
1491693944699,2,5,15,41,40,-52,-9,24,-15
1491693944699,2,6,42,69,88,74,127,39,2
1491693944700,3,-9,-18,-117,81,-128,-102,1,-43
1491693944700,3,-44,-101,-90,-74,-39,-128,-98,35
1491693944728,0,22,65,127,60,93,127,61,3
1491693944728,0,-32,-45,-107,-69,-128,-120,-17,-34
1491693944729,1,12,-20,-34,33,2,-69,-45,-29
1491693944729,1,11,54,121,16,37,127,31,35
1491693944731,2,-4,-35,-49,48,33,-23,18,17
1491693944731,2,9,30,73,69,124,69,13,21
1491693944761,3,5,51,48,-67,-52,-17,53,-42
1491693944761,3,2,-82,-116,21,-21,72,-49,-4
1491693944762,0,-20,17,78,10,59,-65,-14,-15
1491693944762,0,-4,-66,-128,34,-98,-80,-106,5
1491693944763,1,-11,74,124,-107,107,127,54,-6
1491693944763,1,-6,-51,-88,8,-101,40,33,18
1491693944793,2,1,-6,-6,-70,-15,32,-11,-3
1491693944793,2,32,77,103,44,93,55,61,46
1491693944794,3,-32,-91,-108,63,-70,-80,-107,-61
1491693944794,3,13,51,37,33,121,2,21,14
1491693944795,0,15,-9,-52,-11,19,8,18,11
1491693944795,0,12,-18,18,-102,59,-126,-30,-12
1491693944825,1,35,91,127,88,90,127,56,32
1491693944825,1,-27,-70,-65,-87,-63,-110,-55,-28
1491693944828,2,-31,10,26,32,66,21,-22,-49
1491693944828,2,43,-12,-21,-69,21,60,75,47
1491693944830,3,-20,-63,-97,25,-12,12,-61,9
1491693944830,3,50,96,127,58,127,68,51,23
1491693944831,0,-33,-37,-31,76,-124,-91,-24,9
1491693944831,0,-1,0,-6,-123,-2,-3,-15,-32
1491693944858,1,7,36,13,68,-21,14,47,10
1491693944858,1,-41,-83,-87,-3,-11,21,-47,-47
1491693944859,2,14,30,47,-30,-2,-37,-9,10
1491693944859,2,-2,-17,12,6,-1,27,10,10
1491693944860,3,1,-4,-10,-62,-13,-63,-8,-1
1491693944860,3,14,78,127,58,66,23,53,-6
1491693944891,0,-14,-34,-60,-49,-128,-17,1,-33
1491693944891,0,2,23,82,-13,66,19,10,20
1491693944893,1,-12,-68,-102,79,-86,-38,-62,10
1491693944893,1,-13,5,50,33,53,-75,-27,12
1491693944894,2,-3,25,25,-22,106,86,37,-29
1491693944894,2,-12,-36,26,61,63,-76,-13,10
1491693944923,3,-2,1,11,-128,-36,-17,8,6
1491693944923,3,21,48,60,84,-91,-17,1,-1
1491693944924,0,-9,-42,-97,10,11,95,9,-1
1491693944924,0,-25,38,1,24,-41,57,-33,-22
1491693944925,1,13,-38,-13,44,90,24,19,12
1491693944925,1,-15,-24,-53,-121,-123,-65,-27,-29
1491693944955,2,13,22,-7,18,89,43,25,1
1491693944955,2,11,23,35,-63,-73,-55,-2,-17
1491693944957,3,10,14,81,68,127,127,7,3
1491693944957,3,-16,-18,-91,-99,-51,-46,1,-22
1491693944958,0,-9,-23,-21,19,-112,-39,-55,-2
1491693944958,0,-6,-28,-3,90,42,32,15,34
1491693944959,1,-13,15,1,-44,-14,49,-24,-13
1491693944959,1,5,49,76,39,95,-2,19,-11
1491693944988,2,33,16,-6,19,-31,19,45,62
1491693944988,2,-23,-62,-121,-61,-128,-55,-36,-31
1491693944989,3,-9,3,51,-31,-43,-32,-15,-4
1491693944989,3,18,26,-10,24,56,54,21,10
1491693944990,0,-3,9,33,-14,40,-38,-10,-3
1491693944990,0,-1,15,70,86,33,-8,17,-7
1491693945020,1,12,-17,-24,10,-62,-2,3,20
1491693945020,1,-12,-22,-59,-123,-68,-60,-21,-2
1491693945022,2,20,20,12,-11,31,34,34,19
1491693945022,2,-25,-22,-69,17,-96,-75,-39,8
1491693945023,3,7,19,52,-17,99,29,10,-4
1491693945023,3,-11,11,42,64,55,41,11,-14
1491693945053,0,13,-33,-35,-52,3,-11,-11,14
1491693945053,0,-30,-36,-29,-18,-6,22,8,-9
1491693945054,1,31,52,-2,-28,45,-33,0,15
1491693945054,1,-2,-14,-5,16,-64,22,5,13
1491693945055,2,-4,26,34,23,-7,-11,-9,-16
1491693945055,2,11,11,26,40,91,9,11,-3
1491693945089,3,-23,-58,-92,-78,-106,-13,-42,-48
1491693945089,3,53,25,14,-22,70,46,62,38
1491693945090,0,-10,-5,-56,-16,-77,-68,-37,-6
1491693945090,0,38,14,5,78,16,39,46,33
1491693945091,1,-7,29,64,-25,71,-6,5,-14
1491693945091,1,-12,-54,-70,-23,38,39,-41,-23
1491693945093,2,1,-3,6,-31,-52,-80,-11,5
1491693945093,2,-3,-5,-48,12,1,29,2,-24
1491693945122,3,15,-41,-75,50,20,11,10,1
1491693945122,3,-6,-6,-68,-40,-84,-10,12,27
1491693945123,0,6,1,-106,51,17,29,0,7
1491693945123,0,2,16,-91,-18,-36,16,-9,5
1491693945124,1,-12,-6,7,5,6,24,18,-1
1491693945124,1,8,14,89,-23,7,-6,-2,8
1491693945150,2,13,12,85,23,-49,-2,0,9
1491693945150,2,-16,-16,51,-35,-13,-24,-3,-3
1491693945151,3,21,3,70,48,-41,-15,36,43
1491693945151,3,-27,-35,71,-59,-45,-43,-21,-28
1491693945152,0,-45,-1,54,0,104,50,-5,-35
1491693945152,0,-14,-14,22,-42,-19,-31,-42,-12
1491693945215,1,-5,31,85,-8,-1,22,15,10
1491693945215,1,4,-5,119,71,112,73,8,17
1491693945218,2,-26,-25,44,-28,-128,-52,-16,-30
1491693945218,2,-10,-30,25,-16,44,0,3,0
1491693945219,3,14,48,44,0,-12,30,-17,16
1491693945219,3,-1,14,-3,-11,-37,-46,5,-6
1491693945220,0,1,-19,20,-40,1,11,1,4
1491693945220,0,8,17,34,64,51,80,12,-10
1491693945247,1,-21,-48,-57,-117,-97,-96,-47,-21
1491693945247,1,5,17,7,46,-45,-78,-23,4
1491693945248,2,2,33,68,2,67,0,-2,-5
1491693945248,2,15,-32,-41,-46,-24,-35,5,9
1491693945249,0,-38,-12,95,57,93,39,5,-31
1491693945249,0,48,14,-80,-94,-117,-51,-4,42
1491693945252,1,-28,-11,-30,-4,16,29,-16,-19
1491693945252,1,-28,-1,16,28,108,60,20,-5
1491693945280,2,23,1,-69,-36,92,16,-3,25
1491693945280,2,-26,11,74,53,20,62,20,5
1491693945281,3,-1,64,103,72,98,42,65,21
1491693945281,3,-4,-73,-111,-89,-128,-22,-27,0
1491693945282,0,-6,-13,3,-31,34,-16,-26,-1
1491693945282,0,-8,-16,38,41,88,-12,-8,-22
1491693945283,1,-17,-28,-31,-16,-27,-11,-19,-11
1491693945283,1,-24,38,60,56,103,49,17,-24
1491693945313,2,-1,2,-3,55,32,0,26,2
1491693945313,2,5,-5,-82,-68,-107,-3,-33,-2
1491693945314,3,-17,14,40,60,100,-23,-21,-4
1491693945314,3,28,-7,-49,-96,0,8,33,0
1491693945315,0,6,-34,-94,24,25,92,-32,1
1491693945315,0,-32,15,54,-10,-6,-66,-13,-29
1491693945347,1,16,-36,-69,50,67,27,18,16
1491693945347,1,-7,-3,-27,11,17,38,-20,-23
1491693945348,2,11,45,104,90,90,19,34,23
1491693945348,2,-7,-42,-111,-85,-98,14,9,-8
1491693945350,3,6,-6,25,-88,22,-18,-15,-12
1491693945350,3,-5,7,24,59,-32,-29,-3,2
1491693945351,0,6,-5,0,-8,-14,34,35,11
1491693945351,0,15,16,40,39,-11,21,-10,11
1491693945381,1,-12,-7,-13,-23,-93,-3,-3,2
1491693945381,1,-8,11,29,14,127,31,9,-34
1491693945382,2,5,15,27,48,-85,-23,16,26
1491693945382,2,-9,22,72,106,121,14,-12,-27
1491693945383,3,-1,-34,-119,-82,-60,0,32,32
1491693945383,3,-2,21,100,1,-41,-26,-12,6
1491693945410,0,17,-74,-121,-128,-111,-48,-40,9
1491693945410,0,-16,7,110,-15,83,21,9,-11
1491693945411,1,11,10,109,82,41,54,15,-13
1491693945411,1,24,45,85,43,8,14,-9,-15
1491693945420,2,-8,22,25,-8,-40,-64,-13,15
1491693945420,2,11,10,15,6,78,47,32,22
1491693945443,3,1,-3,-58,-4,-56,-11,-29,-38
1491693945443,3,-12,-16,-77,-70,29,9,15,-3
1491693945444,0,-1,-12,-31,87,-3,67,19,-21
1491693945444,0,-15,5,-1,7,34,-44,-21,-12
1491693945445,1,-3,0,-71,-25,13,70,11,3
1491693945445,1,1,-24,-109,-78,-126,-40,-43,-13
1491693945475,2,6,30,38,-128,64,-51,-6,-20
1491693945475,2,-9,-14,-49,95,-7,36,26,29
1491693945476,3,2,-26,-50,5,-36,-128,-12,-34
1491693945476,3,13,0,-52,-10,32,76,9,38
1491693945508,0,-25,-6,-45,-63,-52,-95,-41,-48
1491693945508,0,15,71,108,46,96,86,48,21
1491693945509,1,6,-18,-57,-3,-60,3,-17,10
1491693945509,1,0,-41,-59,104,14,24,-5,4
1491693945510,2,-6,-48,-15,25,-21,120,-4,3
1491693945510,2,-9,13,-64,-39,-116,-100,-17,-33
1491693945511,3,-18,2,41,0,98,20,-34,17
1491693945511,3,-7,-2,-30,-10,-73,-7,14,-21
1491693945540,0,10,2,6,-12,42,1,37,23
1491693945540,0,2,-43,-87,29,-128,-93,-73,-1
1491693945542,1,5,57,127,13,125,115,11,2
1491693945542,1,7,-4,-59,-22,-15,-23,46,20
1491693945542,2,6,27,13,-49,1,35,-10,-8
1491693945542,2,14,13,32,17,75,96,40,-3
1491693945544,3,-8,-9,-43,-72,49,-100,-5,12
1491693945544,3,-8,-2,44,37,-13,-6,-19,38
1491693945573,0,-2,-10,15,108,-34,-20,18,-3
1491693945573,0,-13,-7,-47,-104,-68,-33,-17,-4
1491693945574,1,25,5,17,42,29,36,-6,17
1491693945574,1,-14,36,82,-67,127,-15,21,-14
1491693945575,2,8,3,-37,43,-62,63,24,-25
1491693945575,2,-34,-104,-93,53,-56,-85,-92,-2
1491693945605,3,-3,29,60,36,68,51,-15,-21
1491693945605,3,-4,-15,-52,-54,75,-42,13,2
1491693945609,0,18,28,69,67,37,44,-16,19
1491693945609,0,19,36,35,-35,-50,-51,28,8
1491693945610,1,4,-36,-57,45,-128,61,9,40
1491693945610,1,-12,5,10,-81,-48,-44,-10,-14
1491693945638,2,0,29,68,-17,57,-28,-39,24
1491693945638,2,15,0,-83,93,-31,72,64,-11
1491693945639,3,-16,-53,-86,-91,-67,19,-22,-15
1491693945639,3,-4,7,62,127,-37,49,-25,-3
1491693945642,0,-21,-37,-73,-55,-52,-57,-7,-35
1491693945642,0,26,33,32,-14,94,45,-3,24
1491693945703,1,-2,51,77,-36,30,-5,44,-3
1491693945703,1,1,-5,-18,-56,-2,-35,25,-6
1491693945705,2,12,-43,-22,55,-30,87,16,46
1491693945705,2,-27,22,22,18,-46,-58,-8,-66
1491693945706,3,21,-45,-77,57,-45,-119,-21,58
1491693945706,3,-24,6,55,15,71,112,-28,-47
1491693945708,0,-2,3,-19,-12,-99,-27,12,-2
1491693945708,0,-8,-7,-60,-128,38,44,-20,-20
1491693945735,1,-6,30,85,93,99,92,15,-19
1491693945735,1,-7,-46,-121,30,-128,-89,-13,23
1491693945738,2,-11,21,59,18,120,-30,1,-9
1491693945738,2,1,-12,-3,-32,28,32,35,19
1491693945739,3,-23,-8,-4,-101,-37,-36,-28,-83
1491693945739,3,9,-4,55,123,98,76,-10,49
1491693945740,0,13,0,-68,-33,-83,60,8,3
1491693945740,0,-1,11,104,51,40,-8,11,24
1491693945768,1,-10,-1,-58,3,-89,-120,6,-16
1491693945768,1,12,1,29,-26,54,106,15,-6
1491693945770,2,-21,-17,-67,26,-52,7,-32,-22
1491693945770,2,37,-19,9,57,109,99,8,42
1491693945772,3,-11,31,42,-29,-52,-30,-22,-33
1491693945772,3,-2,1,-23,18,-20,-35,-11,-5
1491693945773,0,9,11,45,-26,81,-18,40,10
1491693945773,0,11,-2,6,16,-39,-3,-15,-10
1491693945800,1,-11,-30,-62,-46,-5,8,10,4
1491693945800,1,25,24,28,-54,32,-60,-1,8
1491693945804,2,1,16,11,73,-85,50,6,-17
1491693945804,2,-40,-91,-101,-123,-120,-98,-59,-14
1491693945805,3,12,26,12,18,95,72,-11,14
1491693945805,3,-2,16,37,73,7,-47,-7,6
1491693945806,0,11,10,39,-89,127,112,45,13
1491693945806,0,8,39,42,63,-4,-83,15,17
1491693945833,1,-4,-7,-11,9,-24,20,-8,-9
