1490137992421,-68,-68,9,-110,-99,-12,3,-33,-54,-61,-35,-44,-69,-24,2,6
1490137992423,28,91,-30,115,102,5,2,2,47,-123,-74,-6,102,21,-4,4
1490137992424,22,110,26,-27,-86,3,11,30,3,-65,-33,78,81,11,14,15
1490137992425,-8,-83,-52,20,-51,7,-2,-19,6,35,127,-8,-17,19,2,7
1490137992471,-22,-45,-66,-35,8,6,12,-36,-8,10,83,59,93,18,7,-13
1490137992520,-13,-122,-32,64,127,-8,-1,-21,33,89,-50,-77,-49,4,-11,-2
1490137992568,-48,123,127,40,44,18,-13,-33,51,-128,-115,11,2,15,35,49
1490137992616,-41,107,25,127,127,-100,-68,-71,18,-30,15,-128,-128,-18,-15,14
1490137992618,-64,113,27,89,124,4,2,-26,108,38,4,-70,-82,34,33,94
1490137992666,20,75,-7,-128,-41,-5,-3,41,31,117,-45,95,127,-13,-22,58
1490137992715,7,-70,98,-20,23,8,5,-111,119,65,-69,-48,-49,-16,11,-126
1490137992763,44,68,-109,127,126,32,-12,30,-66,36,73,-119,-128,-43,-18,-9
1490137992812,-41,-13,22,59,57,8,-1,17,-27,-86,-36,56,71,49,27,-1
1490137992813,-25,107,-93,13,-18,-58,-20,-3,1,-128,127,37,-99,19,6,94
1490137992909,80,117,-46,43,106,36,10,-128,-20,-106,-128,18,-52,-2,5,-112
1490137992910,-8,-79,-98,102,80,96,43,-60,21,82,-6,37,92,112,63,-46
1490137992958,-12,-39,12,-56,-65,-34,-10,15,-14,-85,26,-37,104,-23,20,-31
1490137993007,79,69,52,50,112,60,-4,-127,-78,-92,125,-49,-73,-23,-8,11
1490137993055,-16,50,-40,-104,-63,21,29,8,0,-95,-108,30,41,-22,-12,-4
1490137993056,68,-100,25,115,89,37,51,81,2,45,127,-48,29,44,127,-2
1490137993105,-3,-20,116,57,61,21,-63,-112,1,-7,-112,-128,-128,54,-4,-101
1490137993154,19,15,-28,74,29,-67,-15,29,9,51,47,13,127,40,-67,-15
1490137993202,-15,8,-48,-114,-128,-72,-89,47,-13,-46,68,122,73,15,-128,-48
1490137993250,-29,-67,-117,-128,-128,-123,120,43,21,4,22,127,91,59,90,98
1490137993252,5,6,58,33,36,48,-95,-23,-10,-20,-78,-109,-128,-32,-10,27
1490137993300,32,88,47,9,108,124,46,-1,-52,-99,-21,-54,-88,-78,10,15
1490137993348,-20,-80,-1,-47,-10,67,17,-2,11,25,11,-24,19,65,5,-4
1490137993397,11,1,3,9,-10,6,-17,-4,32,25,91,86,111,127,58,0
1490137993446,-4,0,17,28,-51,-106,-39,1,8,14,4,-4,-76,37,-14,-1
1490137993494,38,12,10,-41,-53,11,32,-2,-25,-27,-21,-118,-107,-115,-8,0
1490137993497,-36,-19,-20,-109,-92,-24,2,-1,-40,3,-25,-66,-56,-21,20,0
1490137993543,-53,-51,-34,-50,-67,-30,99,-39,9,19,31,-5,-22,-78,-19,75
1490137993592,-29,-29,-24,42,48,-51,20,-112,-35,-2,-28,-16,8,81,26,-128
1490137993689,-18,25,19,34,-60,-25,73,-64,33,-12,8,110,85,-53,-2,28
1490137993690,14,-16,79,71,127,119,56,127,-25,-63,-47,87,72,-1,46,60
1490137993738,15,31,-79,-128,-115,47,-30,27,-5,18,64,7,-48,-7,-26,24
1490137993739,1,-22,-21,-54,48,21,-44,16,-25,-2,-104,-58,-33,-41,-89,4
1490137993787,11,-28,-13,-6,-58,-59,5,4,11,13,36,77,127,86,-77,-1
1490137993836,-24,-11,-63,-128,-128,-112,-94,3,29,33,81,105,73,67,-14,-1
1490137993885,14,27,-33,83,127,76,44,52,-33,4,-59,-44,-112,10,31,10
1490137993982,24,35,-52,-128,-128,-56,-39,-6,32,42,19,127,127,49,-11,21
1490137993983,-66,-96,-43,-104,-98,-61,-55,-13,-47,-52,-111,42,65,-2,-9,-28
1490137993985,10,74,127,99,101,48,-13,26,52,21,-91,-14,-19,3,-1,56
1490137994031,50,71,6,-88,103,56,104,103,8,-15,127,123,111,82,63,-59
1490137994083,58,80,85,46,55,71,45,-127,-61,76,-76,-88,-84,-48,-3,-66
1490137994128,14,114,107,-74,-78,-18,-47,40,4,-100,110,95,99,74,-75,51
1490137994176,9,-53,40,33,25,34,65,12,-106,35,99,-72,-34,-23,37,-60
1490137994178,-2,15,-21,-42,-56,7,-42,-13,39,127,82,-31,19,66,53,-33
1490137994226,-128,-7,90,72,89,-9,-31,-2,25,-103,83,-22,-59,10,-11,-29
1490137994275,10,16,-111,-106,-85,-50,-70,-33,-44,-98,4,127,92,-50,-86,28
1490137994323,-16,27,-66,53,-33,-48,-48,-19,32,-25,109,38,50,10,26,29
1490137994372,84,127,0,-3,-44,62,-30,98,29,-14,-128,-128,-61,-52,-39,62
1490137994469,-43,-21,81,53,-8,-82,-6,-55,-21,-1,-12,1,-49,-6,82,-18
1490137994471,21,41,71,127,127,26,20,-20,120,127,-84,-5,42,45,-113,125
1490137994472,-93,-128,4,-128,-109,-27,-8,9,4,71,11,-36,-71,-42,-24,-126
1490137994518,-63,-90,12,92,127,34,71,-57,46,111,7,71,85,41,15,31
1490137994567,-56,122,70,25,-32,-55,-94,-98,7,-29,-64,127,86,-52,-75,42
1490137994615,56,-72,-20,94,60,-1,-55,9,75,-46,-57,15,-101,32,49,20
1490137994616,6,-68,42,-4,-15,-10,52,-73,-26,81,-71,40,46,40,20,39
1490137994665,-77,22,78,29,104,64,14,-61,70,55,-58,-72,-62,20,-24,43
1490137994713,-3,1,65,4,-83,-33,-8,-18,-5,96,-38,127,127,-6,-7,-21
1490137994762,-17,-100,46,-86,-127,-26,10,91,-36,44,-99,-125,19,-30,-32,-128
1490137994811,-20,-32,-71,-113,-12,-29,12,-60,7,87,15,-22,-67,-23,-21,-25
1490137994859,80,-75,-6,-77,-70,-30,12,60,-22,29,57,103,52,13,29,-16
1490137994861,-46,80,-12,-46,-3,-15,5,58,90,66,-12,56,72,-2,-24,22
1490137994908,42,-128,51,127,53,-23,4,74,-101,-57,88,121,65,7,-61,-57
1490137994957,73,-42,-72,14,82,27,-3,-73,-36,95,115,104,7,25,67,47
1490137995006,-86,-128,-48,-3,48,20,-11,-2,-44,-102,45,-39,42,39,-32,-40
1490137995055,15,127,92,123,81,39,76,62,28,-87,-128,-128,-102,9,-7,16
1490137995103,-1,19,-36,-128,-128,-44,12,33,0,-83,-92,12,39,-54,-2,4
1490137995104,103,18,-1,14,-47,-16,12,43,31,-57,-82,-62,17,12,54,31
1490137995152,71,65,44,-95,-99,36,-24,33,-6,-115,-83,-38,6,-36,62,-5
1490137995201,-94,4,-128,48,127,-39,-50,-63,27,-107,106,110,94,34,-6,42
1490137995250,-38,88,-4,53,12,-32,24,36,60,-89,-79,127,127,71,1,39
1490137995298,-64,-74,-128,-94,-52,-72,-85,-73,-17,86,88,127,127,57,13,-11
1490137995300,-12,7,14,-128,-128,-76,-52,-4,39,-3,-128,-100,-95,-102,-82,-5
1490137995347,69,59,59,-52,-68,43,39,127,-23,38,11,3,28,20,-27,-77
1490137995396,8,18,-7,-4,-38,-43,3,-17,-84,103,108,-67,-88,-45,44,-17
1490137995445,-25,2,58,-104,-46,-14,-18,-31,27,29,-75,10,-29,-91,32,20
1490137995494,-74,-61,-94,-128,-128,-66,-31,-30,-23,-4,95,127,127,52,-6,-89
1490137995542,-10,-101,-91,-128,-128,-96,-103,-11,-7,1,7,113,126,34,-38,53
1490137995544,-94,-126,63,52,72,99,46,-39,66,77,49,110,127,117,53,33
1490137995591,27,18,-119,-9,73,-121,14,62,-59,-28,-17,-83,-10,-25,-26,-59
1490137995640,78,96,127,127,127,127,38,16,19,17,-128,-128,-128,-128,8,45
1490137995689,7,5,5,96,63,94,2,28,1,65,11,-66,-43,-90,-40,-14
1490137995737,43,40,-97,-128,-128,-19,78,-2,-78,-128,24,-100,-44,51,78,-62
1490137995785,11,69,91,127,127,86,-8,10,15,-98,-128,-128,-123,-128,-3,6
1490137995786,25,15,-104,26,9,43,-123,80,-20,34,127,109,82,85,-54,88
1490137995883,23,-33,-57,-128,-128,-102,109,52,-73,-90,-84,-108,-86,42,127,108
1490137995891,-65,-47,59,78,83,44,1,-128,-12,-30,62,82,21,-66,33,-81
1490137995933,-5,10,-29,-5,114,26,-42,-31,-17,4,101,-78,-74,-97,-1,-84
1490137995981,2,-53,61,-128,-94,15,82,-4,14,49,-32,-101,-121,-128,127,78
1490137995983,-14,-4,57,127,127,75,-128,-110,-9,-78,4,-121,-99,-53,-115,-128
1490137996030,21,17,-45,-102,-124,-128,13,72,21,41,24,37,103,58,-67,121
1490137996079,-18,12,43,-85,-120,-27,-61,100,-15,-39,2,43,7,-12,0,49
1490137996176,-6,-53,-76,-128,-111,55,-92,-7,-32,-15,-39,22,-30,-70,35,-38
1490137996178,8,-22,-128,45,16,-26,-15,48,-10,-2,25,-48,-9,97,-12,-18
1490137996227,25,48,60,111,70,12,49,7,61,76,47,51,-40,6,57,49
1490137996232,-24,-78,58,64,60,120,34,3,-8,2,44,-46,-76,-128,92,19
1490137996273,2,-93,48,-128,-125,-6,120,22,-34,-128,-128,74,107,-56,87,9
1490137996322,-24,2,-45,10,72,-43,-73,8,24,104,88,53,24,-43,-94,29
1490137996371,-4,112,58,127,127,34,-31,-59,22,-98,59,52,89,70,6,-37
1490137996419,-65,-98,-128,-128,-128,-121,-92,24,-26,-12,82,125,127,15,24,42
1490137996420,23,33,16,19,31,97,66,12,48,-63,1,-70,-86,-21,27,6
1490137996468,29,-34,127,92,98,85,-1,26,8,123,-9,-128,-128,-1,-5,3
1490137996517,54,-67,46,48,62,56,28,24,-53,97,-48,-128,-90,4,53,-92
1490137996566,39,33,-53,48,54,19,-17,39,0,48,2,89,120,24,14,-23
1490137996663,5,-74,63,-124,-96,-22,-39,-21,2,50,91,95,102,-85,-13,10
1490137996670,1,102,16,-62,22,40,16,48,28,-44,48,-29,-86,-3,-34,78
1490137996677,-30,-102,-106,-95,-89,-3,77,-35,0,101,-112,-69,-60,-80,-37,-2
1490137996714,-19,-82,23,-49,79,-3,-3,11,57,10,-38,6,1,-2,-67,-43
1490137996762,38,-65,127,127,127,90,66,64,13,-128,-68,-32,21,12,13,10
1490137996809,1,-100,80,-6,-102,7,44,21,53,19,17,-53,-98,-42,-40,-26
1490137996858,37,127,59,62,56,41,17,72,-2,-50,-56,41,125,91,69,-44
1490137996906,-58,75,84,28,-2,0,6,12,-36,-107,100,23,-12,-38,6,-48
1490137996907,5,-25,-128,-96,59,-21,-20,37,12,64,10,-120,-68,12,-11,24
1490137996956,-45,-113,41,46,56,11,24,26,10,65,-107,27,6,-6,10,33
1490137997005,51,72,127,10,-3,39,42,19,12,-30,-52,22,-51,-15,20,33
1490137997054,43,49,-124,-28,-7,-41,-6,-37,-12,-3,50,-34,25,-4,-33,-43
1490137997101,6,127,-36,3,-25,7,7,25,18,-124,40,62,-7,7,6,11
1490137997102,34,60,-49,-75,-112,41,56,18,29,-14,70,-15,-19,-41,-35,4
1490137997151,-36,121,-92,-1,25,-7,-11,-30,70,-90,88,127,100,36,17,86
1490137997200,-41,14,3,28,-28,-26,-66,7,86,117,-8,21,16,21,-17,-4
1490137997248,-25,76,98,72,85,2,-6,-20,-69,-21,-101,-117,-88,3,9,-40
1490137997297,-22,-117,-115,-42,34,28,22,19,0,50,115,48,15,4,-4,-10
1490137997345,5,105,-52,2,-128,0,-12,-40,-14,-88,-35,1,59,-10,27,-55
1490137997346,-9,72,127,127,-24,12,22,21,-17,-31,-15,0,47,18,17,57
1490137997395,-4,-57,70,107,83,30,33,13,16,81,-128,-128,-126,-6,-27,-29
1490137997445,25,-101,-128,-53,8,-86,4,36,-42,-20,-88,53,78,-28,-52,-46
1490137997494,-33,59,-69,-88,-85,-55,-34,-82,48,41,-5,-33,-24,-32,-26,42
1490137997542,64,-15,74,32,43,93,57,71,-88,-111,127,-95,-118,-13,24,-50
1490137997589,-26,-49,-53,-58,41,-98,-46,10,-3,55,113,61,70,1,-9,15
1490137997592,-31,36,-4,-53,-46,-71,-27,-31,-76,-96,-21,-128,-15,-91,-69,-53
1490137997686,9,-86,35,106,125,28,26,-6,37,71,-11,-96,-73,35,13,44
1490137997687,-22,-73,-66,39,122,-38,-39,-44,1,76,88,11,35,3,-5,-4
1490137997736,38,44,127,127,124,79,64,62,24,-20,-22,29,-12,82,33,3
1490137997784,25,-31,58,-82,-42,4,-1,-28,54,94,19,-116,-26,70,40,39
1490137997786,-43,-70,-128,-40,0,-48,-35,-19,11,4,37,91,47,-71,-13,-8
1490137997833,53,65,14,28,-41,-42,-16,19,-2,-84,-124,-128,-128,-21,-24,-14
1490137997882,0,29,-93,-13,2,20,40,-2,28,100,-68,47,98,103,-10,10
1490137997931,12,11,-27,25,127,34,-22,-13,28,7,30,-102,-83,-83,1,21
1490137997980,-10,88,85,127,127,15,-17,-7,38,-100,-18,-64,-28,124,32,30
1490137998028,-10,-38,-16,84,6,-69,68,-2,23,46,67,127,103,93,34,4
1490137998030,-15,-94,-94,-73,-2,2,5,-99,12,-17,35,58,97,69,8,-77
1490137998078,-10,1,44,127,87,74,-6,23,4,-26,15,-64,-47,-126,25,46
1490137998127,16,19,62,59,27,24,-29,3,-26,0,20,15,91,115,21,33
1490137998175,19,27,59,127,97,-30,47,22,17,1,1,-128,-80,83,-32,27
1490137998224,1,24,-39,-87,-97,-91,-29,22,20,18,-34,7,-48,-98,28,-4
1490137998275,10,40,110,108,97,-58,-17,13,-20,2,-55,-100,-74,-16,37,-50
1490137998277,-27,22,-33,6,-25,-22,-1,8,3,14,-45,7,21,-61,2,28
1490137998321,27,40,-24,76,82,21,-36,-92,-4,32,36,-53,-63,-24,-53,-48
1490137998369,13,3,20,26,58,127,14,-37,-23,-23,4,47,-5,-69,20,-43
1490137998418,15,36,28,2,-10,-97,25,-47,-10,49,47,127,127,127,21,-34
1490137998466,22,5,43,-117,-63,91,24,58,-4,-13,16,-67,-118,-105,-7,-4
1490137998467,18,105,105,23,71,-35,14,59,-5,16,-119,49,87,111,-29,81
1490137998516,-14,-71,-4,23,-18,-6,-42,-128,5,-52,-4,-58,78,8,59,-106
1490137998564,25,58,-37,-39,-65,37,26,78,-23,-58,26,-115,-125,-50,-63,51
1490137998613,22,51,61,-52,-13,91,2,-23,-17,-38,-128,-128,-128,-91,-30,-57
1490137998662,-4,-4,5,103,110,20,-14,12,-10,-15,109,107,-15,50,42,21
1490137998710,-5,30,0,-98,-108,-28,-61,-21,17,7,68,111,89,-7,65,-5
1490137998712,-31,-118,12,7,9,-5,13,35,-21,28,48,-7,-41,-40,-23,-37
1490137998760,-11,-60,-85,92,92,11,68,0,28,86,92,92,47,68,-17,34
1490137998808,25,21,117,93,127,83,49,66,-14,-80,-76,-128,-116,-31,1,96
1490137998858,17,30,79,88,81,-40,9,-84,18,-19,64,-33,-86,9,-13,-68
1490137998909,-44,113,-80,-113,-128,-56,-25,117,27,20,-110,39,127,81,62,127
1490137998911,52,50,21,102,127,94,34,24,79,74,50,110,127,84,10,-19
1490137998955,49,85,10,-36,19,17,72,-16,48,77,-78,127,127,51,-11,-98
1490137999003,6,50,-50,-128,-128,9,41,45,-61,-86,52,59,-83,-107,-120,106
1490137999052,2,75,-68,115,127,-10,-8,-35,7,25,-22,-128,-128,8,-13,-5
1490137999101,-23,90,36,100,78,-27,16,-22,-42,-70,-2,127,122,53,31,4
1490137999149,-14,-35,63,67,-20,-16,8,13,17,-17,-16,110,94,69,43,92
1490137999150,29,15,-128,-128,88,42,14,77,-20,3,25,-73,19,-3,-13,40
1490137999199,-20,35,-128,-48,20,-14,16,-25,-34,45,43,63,83,26,8,-25
1490137999247,62,107,-75,-67,-78,-13,23,119,-28,-128,127,124,-98,-62,-19,-18
1490137999296,-19,26,29,52,25,-37,-38,-77,35,47,-26,97,110,36,24,-75
1490137999345,-17,-24,-50,-90,-95,-17,-3,32,-22,-72,81,-119,-83,-22,6,29
1490137999395,-3,-43,30,-17,25,-16,3,51,-12,-20,-7,94,114,8,-6,44
1490137999397,-25,41,10,17,-43,-19,-18,1,-55,-52,-32,101,46,-20,-16,-36
1490137999442,54,-54,25,-93,-4,31,26,15,-16,-41,-76,-95,-115,-17,-33,-44
1490137999491,-9,127,65,-1,-33,-19,-60,-16,7,-72,-128,-115,-74,-6,8,51
1490137999539,27,-105,-101,-113,-69,-24,-6,5,77,64,85,98,15,43,21,28
1490137999587,-29,-45,35,46,-24,-10,-1,2,30,-12,50,104,87,23,5,61
1490137999589,7,20,101,-43,-93,-11,19,33,-8,53,39,65,15,-8,-12,2
1490137999637,38,46,72,127,108,24,9,35,12,104,-30,95,127,55,49,30
1490137999734,-33,-128,18,109,80,4,-15,-69,-72,11,-128,-97,-72,-23,-18,-29
1490137999737,20,82,1,99,121,35,-4,12,-36,-128,-2,-92,-82,19,30,17
1490137999785,39,-12,-74,-128,-128,-65,-27,48,-113,-74,-9,127,127,-34,-33,-79
1490137999832,56,58,-106,90,124,34,-18,56,23,-91,83,-68,-119,16,20,44
1490137999833,6,15,-78,23,71,18,21,-40,-15,-12,17,-21,10,-14,-13,34
1490137999882,72,83,91,127,-67,4,6,13,-28,-78,121,102,100,57,31,70
1490137999929,-1,-30,5,46,94,33,36,33,20,127,-62,-64,68,25,28,31
1490137999978,-30,-63,72,102,97,8,-10,-25,79,63,86,96,127,115,52,30
1490138000027,54,-66,16,-128,-12,-51,-12,-8,-89,1,-67,-81,-106,-120,-71,-50
1490138000076,47,45,-76,36,-31,-20,12,20,32,125,-122,-69,-25,-25,-33,-21
1490138000079,-4,-14,-128,-128,-128,-61,-39,-11,-66,-109,-29,-5,-26,-99,-42,-96
1490138000128,21,90,127,-87,21,61,45,42,-6,-56,-128,-128,-117,-83,-40,-17
1490138000173,30,127,44,48,83,29,8,-12,-32,-128,43,-128,-128,-6,20,3
1490138000222,-25,-25,-48,6,18,14,59,-7,4,56,-122,54,10,-13,-38,-3
1490138000270,-37,77,71,127,77,-10,-35,-52,66,-82,54,-124,-119,58,59,55
1490138000271,8,-45,-5,-128,-128,14,-4,-17,-25,29,-77,-108,-112,-112,-45,-39
1490138000319,-20,64,85,127,127,31,-6,-37,10,-37,127,50,40,59,19,3
1490138000368,-25,-63,-45,79,62,-79,-61,-28,-21,-14,-126,58,77,1,-28,-29
1490138000417,18,-116,39,58,1,-78,-20,-41,42,63,105,-120,-102,58,56,33
1490138000466,10,38,63,3,-87,26,9,8,-14,-62,-52,-101,-89,-50,-29,-44
1490138000517,-1,-3,49,37,38,58,-4,-4,-3,27,51,-62,-61,-116,-5,-29
1490138000519,18,1,-24,50,43,66,28,-10,-17,14,127,-55,-66,89,-19,-27
1490138000563,-3,-16,14,4,23,47,11,43,-23,6,-4,56,22,-109,-9,-2
1490138000612,-34,-51,-97,-82,-102,-82,-59,-17,-1,12,-7,105,101,-56,-1,-13
1490138000661,-3,-25,-2,-31,-28,25,-1,-11,-11,3,-3,25,87,127,19,-13
1490138000709,19,13,-13,23,-15,39,-25,25,-19,13,-1,-29,-86,-128,70,-2
1490138000757,-2,-9,-6,43,90,81,-26,-4,11,6,46,72,50,127,52,-26
1490138000759,-23,-18,-46,-32,10,-47,46,-39,1,29,80,1,15,72,-37,14
1490138000855,-13,-1,6,-50,-77,26,1,1,1,-9,-19,12,28,54,-19,10
1490138000856,-4,-9,8,-13,-128,-128,-57,-12,-8,11,29,88,71,110,-9,-16
1490138000906,22,27,45,127,127,86,14,34,-7,-23,-41,-127,-128,-128,-6,-22
1490138000953,7,7,39,34,46,30,7,-8,-5,-8,-22,-24,-77,12,-11,-31
1490138000954,3,-6,-29,37,38,12,-22,-48,0,1,-6,73,27,-5,9,-14
1490138001002,11,14,60,127,127,26,-27,18,-12,-16,-31,-128,-128,-66,-19,-10
1490138001051,-10,-22,-41,-88,-54,-64,-9,-21,20,13,29,104,127,16,-2,-18
1490138001099,5,14,-1,49,36,-19,-21,-2,-8,0,76,89,87,-10,-23,-22
1490138001148,13,13,88,127,57,18,47,16,-15,-19,-68,-128,-127,-29,-61,-93
1490138001196,-15,-10,-29,-128,-111,-41,-17,3,-10,-12,-25,80,102,-31,3,-3
1490138001198,-7,7,78,20,-14,70,26,-38,2,21,79,-102,-65,-56,-31,-20
1490138001246,66,-11,127,95,112,78,-20,31,12,-8,-128,-128,-121,-62,-12,-7
1490138001295,-20,37,-4,85,-82,-49,23,-9,4,8,57,119,127,77,68,36
1490138001391,8,-21,-77,-59,-56,-22,8,21,6,-57,3,-128,-128,-33,16,7
1490138001392,-35,-6,82,-68,-70,-55,-34,69,20,5,44,125,127,15,2,127
1490138001440,-26,-76,-128,-128,-128,-77,-35,-62,55,51,126,108,127,40,42,-59
1490138001441,7,-10,-12,-126,-81,39,17,-118,26,36,-77,-6,21,-4,-12,-12
1490138001489,25,-46,0,106,33,-4,2,127,-25,2,18,-128,-128,-81,-39,-4
1490138001538,44,3,-20,21,92,3,1,-72,3,34,117,121,127,86,27,-109
1490138001588,-12,-77,-86,-122,-89,-86,-32,-23,2,-128,1,115,90,17,3,-7
1490138001636,57,-22,26,-128,-128,-40,-17,-5,4,71,-128,127,29,-61,-12,-16
1490138001639,8,32,85,80,127,-20,-5,9,40,-1,-128,-128,-55,31,35,19
1490138001685,57,23,-103,101,127,68,26,29,-11,-32,127,-59,34,28,19,8
1490138001733,2,-46,8,94,127,46,25,16,2,127,58,-101,-92,-10,-5,3
1490138001782,52,24,-128,-77,-128,-36,-23,22,11,-118,92,113,116,23,23,101
1490138001831,-28,81,127,86,-112,-30,-31,10,41,127,32,70,28,15,26,55
1490138001879,72,119,42,127,64,2,-11,-1,20,-40,-73,119,104,43,7,-26
1490138001880,-35,91,-13,-109,-89,-33,-1,-32,-45,-100,79,8,-33,-31,-23,-48
1490138001928,17,-24,-73,127,127,72,28,24,-2,68,118,12,-76,29,24,4
1490138001977,68,127,105,127,110,35,21,89,61,25,-128,-38,14,78,62,37
1490138002026,-16,-58,-128,-91,-71,-61,-29,-52,-20,38,90,-3,-34,-13,-21,14
1490138002074,6,21,-92,-128,-43,23,13,25,-51,-59,95,-4,-8,14,7,-22
1490138002094,-26,30,-19,-50,23,-10,33,53,12,83,90,107,86,13,-2,-16
1490138002123,-65,37,28,74,-14,6,3,71,27,17,28,74,110,19,6,107
1490138002172,19,23,57,59,10,-10,-21,-119,4,45,14,-22,-12,11,1,-62
1490138002221,11,115,3,25,62,-30,-20,80,42,-90,-128,23,-23,7,6,79
1490138002269,26,-93,-128,-25,14,-41,-12,-32,-38,73,126,-7,-28,0,-2,2
1490138002317,-77,36,19,127,68,15,-12,-10,-49,-68,49,-102,-25,-45,-6,5
1490138002323,112,-40,-128,-128,-111,-16,-17,-9,-8,75,127,127,72,16,19,-57
1490138002367,-20,-75,47,18,-1,-6,-7,8,-47,-128,46,105,-1,-52,-48,-98
1490138002416,-24,-21,67,18,9,7,19,8,48,83,49,95,127,71,28,45
1490138002466,112,127,49,120,127,59,7,25,2,-15,-68,-128,-128,-23,5,-41
1490138002515,-65,-122,81,15,-25,-20,-9,-83,56,127,-88,12,34,18,-27,7
1490138002564,88,99,-72,127,124,-29,0,1,-18,39,127,-128,-96,14,-10,-15
1490138002567,-81,-101,-128,-128,-52,-52,-47,-22,16,108,50,41,29,-6,-6,14
1490138002611,82,67,26,127,127,79,79,6,-67,-99,-114,-103,-97,-8,-28,-92
1490138002659,-95,-52,-128,17,83,-21,-20,-69,26,74,7,83,55,44,20,56
1490138002708,32,14,-76,-108,-111,-93,-36,94,-24,62,-23,11,78,-31,-22,-105
1490138002756,-18,3,-56,-30,43,4,19,9,30,89,90,120,24,31,17,-47
1490138002757,4,35,106,127,60,48,28,26,46,13,34,95,98,94,23,13
1490138002854,-7,-83,-35,58,36,-40,-9,120,35,-19,127,127,127,57,34,123
1490138002905,-12,-90,63,82,91,-50,-42,-98,-16,58,127,77,93,53,27,-24
1490138002910,-71,-120,-44,16,35,-96,-77,-20,-3,98,75,-97,-24,34,4,83
1490138002953,-25,-6,51,33,-33,-77,-38,-25,-1,17,-105,-108,-100,11,75,-5
1490138003000,-13,33,86,-2,41,96,19,-12,-17,-32,-70,-39,2,-55,0,3
1490138003001,15,75,-12,19,53,61,8,-6,-51,-108,-99,-31,-45,-83,-47,31
1490138003049,-12,-51,-34,12,32,-15,-43,-105,-15,-5,88,113,28,-20,-15,-96
1490138003098,9,-4,-32,-69,-12,-16,-11,5,8,49,7,82,115,95,51,-6
1490138003147,-27,-128,-70,-34,18,-9,15,-6,-40,-31,-58,-16,-18,-47,-37,-18
1490138003196,5,-54,-14,-79,14,124,-21,18,-10,2,-3,26,-36,-24,-9,-6
1490138003244,43,98,122,90,95,94,36,1,-39,-74,-77,-95,-76,-48,-48,-25
1490138003247,36,33,2,-83,-71,-70,30,30,8,15,-48,-95,-71,6,29,10
1490138003294,-12,-12,2,-33,-17,37,-66,-32,18,9,0,2,49,36,-30,3
1490138003342,-9,2,-82,-94,-90,-76,7,23,-12,-38,-22,-8,28,29,-44,-40
1490138003391,17,25,-27,-36,-13,-128,-19,16,-17,21,67,84,93,121,-30,0
1490138003439,-20,-40,-64,-97,-78,-32,-41,-64,-7,30,50,9,91,15,-3,24
1490138003440,20,6,-52,-47,2,127,22,105,-11,4,32,71,10,-98,25,83
1490138003488,-3,55,-4,-82,-77,-34,-38,31,-17,-56,61,38,25,25,14,28
1490138003537,8,8,9,-88,-62,-57,3,7,-10,-12,-99,-21,-5,-34,2,5
1490138003586,-1,-35,74,-2,106,91,-3,1,11,10,77,-101,-94,22,36,2
1490138003635,-12,-24,19,112,95,-24,38,28,-6,28,-12,-119,-114,-21,-30,26
1490138003683,3,31,41,9,25,38,14,14,-5,-21,-116,-99,-78,-115,-59,-53
1490138003686,5,47,112,93,125,83,48,6,27,-10,-103,-92,-88,13,13,10
1490138003732,22,-32,-55,-93,-67,37,66,10,-49,-36,-80,-96,-98,-114,-70,-36
1490138003781,21,81,75,76,91,51,30,74,8,-2,18,-112,-119,-28,-42,127
1490138003829,-78,-71,-46,-77,-106,-128,-48,-73,41,1,-18,121,127,-28,-1,-111
1490138003878,29,83,96,18,33,87,22,-128,-61,50,117,-91,-69,-14,13,67
1490138003926,-6,-83,-111,-76,-4,-65,-16,-78,9,-34,127,102,85,52,23,-64
1490138003930,-55,-6,96,49,94,44,52,-38,47,58,64,108,38,58,2,-47
1490138003976,-69,-73,-87,61,117,-38,-39,-74,70,88,115,-102,-128,-60,8,-50
1490138004025,17,40,1,73,12,21,-9,17,31,54,-63,-128,-128,42,25,10
1490138004074,-5,4,52,4,-4,37,15,-24,-5,-29,-61,-10,10,40,15,-7
1490138004124,83,-17,-98,-3,73,45,23,84,-62,7,-32,-106,-35,44,7,-45
1490138004126,87,-50,-71,6,19,12,25,24,-62,-47,94,33,83,13,3,46
1490138004171,3,39,76,127,119,14,8,78,87,127,-3,-15,112,94,45,45
1490138004219,48,-80,76,-19,-9,-81,-26,111,-47,-93,17,127,106,-27,-42,109
1490138004268,-44,68,5,69,31,-51,-37,87,63,84,36,-38,-23,73,44,107
1490138004317,-83,22,0,-64,-5,4,-14,-128,30,46,61,70,13,-15,-8,-82
1490138004365,-42,42,-4,17,73,59,13,-45,0,-30,46,64,19,14,-2,-22
1490138004366,-83,-65,109,127,102,1,-20,-101,59,44,-121,-45,0,11,-13,15
1490138004416,17,-73,12,-69,-9,7,33,73,1,8,112,53,39,21,28,44
1490138004464,-39,9,127,-19,-27,7,2,-44,-2,30,-97,9,-4,-13,-10,-42
1490138004515,7,100,78,6,-19,33,4,-24,-51,36,30,79,-5,10,1,-22
1490138004560,-76,-2,2,9,1,-9,-8,-51,106,69,17,98,54,0,-9,39
1490138004563,48,101,103,127,127,75,24,-13,-21,-41,-109,-123,-66,20,41,32
1490138004609,27,-120,93,-1,-36,7,22,50,-4,-58,-8,-35,17,1,-4,-28
1490138004658,11,81,-31,-13,-20,2,1,37,34,-72,113,124,83,37,45,64
1490138004755,-39,-17,-17,-4,-17,-15,-33,-50,58,20,11,127,88,7,12,5
1490138004756,-42,-128,-61,-82,80,12,19,-35,8,80,127,-7,-62,8,-4,-25
1490138004804,-89,-99,-128,47,-34,-67,-70,-94,46,24,52,55,70,51,77,109
1490138004811,-67,2,1,-74,-39,1,-9,-48,5,66,36,-59,-9,-35,-29,13
1490138004854,73,-20,-12,41,127,59,30,69,5,103,10,59,54,28,39,-12
1490138004902,-19,-60,114,127,127,1,-33,-9,-28,104,4,-20,3,27,-9,-26
1490138004951,101,111,81,-53,-11,97,84,102,-87,-97,-35,-117,-128,-92,-105,-106
1490138005000,70,70,-84,-28,-95,-32,-29,39,-5,4,-44,-3,65,0,16,7
1490138005047,94,-128,4,-75,-57,24,5,21,-41,2,-27,127,94,55,12,-18
1490138005048,38,77,65,75,2,43,-7,48,96,124,2,-128,-77,-4,9,64
1490138005097,-85,-128,84,98,54,4,-8,19,-107,-4,15,-63,127,51,-27,-110
1490138005146,-19,-66,-84,13,-8,-29,-16,-59,1,68,113,101,86,72,34,-11
1490138005194,-4,20,-16,-116,-125,-75,-46,48,3,59,68,127,97,18,-45,41
1490138005243,11,127,-12,-78,-100,-59,-40,-61,43,-128,-126,-24,17,-32,16,94
1490138005246,-65,-59,-56,-87,-80,-77,-29,-39,33,62,10,43,-3,-19,-40,-47
1490138005295,1,48,35,61,110,40,-7,-17,-12,-104,-6,114,76,23,-10,12
1490138005341,-26,-45,-37,-115,-84,-13,31,1,-53,-34,-128,-111,-128,-122,-84,-43
1490138005390,-20,-7,57,12,-96,-18,-46,28,29,11,42,64,34,59,63,-3
1490138005438,-15,41,-45,21,72,43,-29,2,14,0,-16,112,76,4,24,18
1490138005486,20,13,120,45,18,14,27,33,24,71,66,-119,-18,-6,22,20
1490138005488,-20,48,25,65,80,24,9,-5,-6,4,-11,-61,35,31,-5,7
1490138005537,10,-4,-96,58,-17,-49,-47,21,-68,-83,63,-98,26,64,46,-88
1490138005584,37,17,-33,22,-8,-78,12,2,17,-33,24,-93,-11,109,10,-75
1490138005633,-4,-5,-117,-124,-5,14,-4,13,5,-63,-61,-3,6,-9,-15,66
1490138005682,-3,9,-6,-33,-20,-14,-53,2,-23,-63,-30,18,-58,-78,3,-12
1490138005730,-21,-87,-43,20,11,-26,41,-76,-3,109,69,35,5,1,-23,16
1490138005732,-23,-14,18,7,127,124,-2,48,9,61,-43,-52,-75,-29,0,15
1490138005780,-18,-16,10,-10,-81,-123,-19,57,16,12,83,74,29,49,3,7
1490138005829,27,2,39,103,127,107,-32,14,-9,13,-51,-59,-77,-84,-17,27
1490138005877,20,33,10,72,87,-6,26,14,-23,-16,-8,-9,-9,41,-56,-6
1490138005925,15,44,-12,-49,-28,95,72,-8,-5,-27,5,61,119,-1,-24,-36
1490138005927,23,62,73,54,36,-65,-21,9,-16,-45,5,34,76,65,13,-24
1490138005974,-8,-73,-38,-15,28,-14,-24,-14,-18,39,25,-51,-50,-41,-31,-34
1490138006023,7,-25,-61,-53,4,-21,5,24,-3,17,106,108,127,37,27,4
1490138006072,-18,-28,-75,-84,-128,-67,29,-2,10,7,-13,85,92,56,1,-16
1490138006121,13,33,4,9,77,58,-5,7,11,23,28,-92,-86,-44,-7,32
1490138006169,-2,-69,73,109,90,-8,16,20,0,57,-29,-114,-8,10,-3,21
1490138006171,5,39,117,70,55,44,19,9,4,29,6,-73,-99,23,7,-5
1490138006218,-18,-44,5,70,127,-14,-19,-8,21,48,-128,-128,-12,-6,10,9
1490138006267,-14,-8,-102,-128,-128,-70,-16,2,-23,-57,-28,63,82,-41,-10,-18
1490138006316,66,127,121,-89,-93,31,13,115,-39,-97,-93,-128,-128,-46,-13,112
1490138006365,0,17,-63,127,127,34,10,-98,21,42,-63,114,76,75,23,-128
1490138006412,43,-3,-103,126,114,-1,-18,-48,31,125,116,57,112,54,38,-47
1490138006414,-18,-40,27,-36,-60,2,7,-104,-25,18,31,83,83,13,15,-37
1490138006462,-5,-50,-44,-128,-120,-54,-15,-13,-31,-101,-13,80,26,-38,-29,-45
1490138006511,-12,-36,127,127,127,61,39,-94,-48,57,-108,-29,100,39,-8,-128
1490138006559,-25,22,-128,-101,-128,6,12,63,-82,0,107,95,-30,-24,-24,-61
1490138006608,28,113,71,127,52,23,9,5,-32,-88,-113,-128,-47,13,2,6
1490138006609,28,120,-109,77,127,33,11,-10,26,52,64,23,77,68,43,90
1490138006657,-2,-86,78,39,-37,-50,-36,-66,-24,95,127,70,53,43,35,-123
1490138006708,16,31,-31,64,67,-3,-5,125,80,-103,-19,127,127,41,9,127
1490138006754,22,54,16,-128,-109,-4,-2,75,-42,-18,-59,-71,-109,-21,-5,127
1490138006803,44,55,-22,-84,-83,24,20,52,-65,-27,127,127,124,36,-2,-100
1490138006851,25,14,65,-15,6,-14,-9,-99,-8,-34,-48,-127,-35,-2,-15,-82
1490138006852,-16,-128,-116,-53,38,-1,-7,16,-40,-23,8,-26,-25,-1,-24,13
1490138006901,-76,-128,21,-128,-128,-7,-11,-69,71,92,-38,2,-40,-41,-2,-4
1490138006950,-35,-81,-75,-54,-44,-36,-20,48,-47,80,2,-43,-97,-18,-3,-55
1490138006998,-84,-70,41,77,55,20,16,-54,23,84,-36,33,78,-13,-23,74
1490138007048,50,94,-112,-89,-90,10,10,12,-7,127,-54,-17,-7,8,13,-27
1490138007095,-4,60,118,-73,-85,-17,-15,21,33,-108,-4,-37,-100,-31,-9,-9
1490138007106,-78,-83,42,-9,-33,-25,-25,-44,47,127,104,127,127,32,1,10
1490138007144,39,-128,-76,73,127,24,-4,67,-88,62,-25,-99,-51,17,11,-76
1490138007193,59,-57,-57,4,30,24,39,24,-24,46,79,-63,-86,15,14,20
1490138007242,88,127,127,84,-8,-43,13,75,-60,50,84,-48,-12,-17,2,-51
1490138007290,18,-55,85,64,39,3,20,-38,-38,-53,59,39,66,51,70,-14
1490138007291,50,49,-90,50,61,74,7,80,21,-78,83,-46,65,-17,38,20
1490138007340,-3,-69,22,57,-37,53,14,36,18,98,101,-70,-39,12,30,5
1490138007388,-69,-51,32,117,100,-61,-37,-69,-17,82,15,126,127,20,-1,-40
1490138007438,94,127,-21,-75,-32,1,26,51,-77,-104,-56,29,-66,-42,-27,-71
1490138007487,36,67,-84,-126,-104,-19,31,12,54,-83,-128,-33,-79,-71,-63,-46
1490138007536,100,47,-29,-128,-92,37,-18,58,-97,-99,-55,-23,17,-41,18,-19
1490138007538,-84,44,89,97,-81,-68,-37,-37,85,116,20,114,127,56,34,52
1490138007583,5,70,-88,-110,-57,43,5,12,-33,-47,41,-104,-119,-11,8,44
1490138007632,-4,51,68,-66,-19,48,-35,-1,-24,-51,-50,-89,-84,-128,-43,-75
1490138007681,-66,-44,9,75,127,33,0,47,11,6,99,110,64,105,34,-112
1490138007729,20,54,-86,-2,-102,-77,29,-15,-23,39,63,90,1,10,-45,22
1490138007730,56,112,20,28,61,45,52,75,18,-96,-126,-69,-26,-16,0,31
1490138007778,3,-42,29,81,30,39,-31,-124,25,49,94,127,94,109,23,-23
1490138007827,1,-34,23,-81,-1,0,-36,36,-51,75,25,-60,-71,-45,-34,-4
1490138007876,31,14,58,127,127,105,87,-81,24,52,-22,-56,-87,-29,-94,-85
1490138007924,-12,38,83,14,55,111,10,87,0,-49,-16,25,-37,-65,-20,68
1490138007972,5,15,15,-6,42,122,55,20,5,52,-38,0,-14,-11,20,26
1490138007974,5,-6,40,-3,52,36,-3,20,-31,-51,-47,4,-57,-81,-33,2
1490138008022,-5,-15,-37,-25,10,20,4,22,26,92,-35,13,57,36,17,68
1490138008071,5,-41,34,96,113,97,-94,-11,-1,85,0,-115,-23,88,17,-55
1490138008119,3,48,-25,18,82,-56,-128,-38,29,-10,-2,26,74,30,92,21
1490138008168,43,112,-84,-97,-58,-4,31,5,-48,-128,73,-82,-57,-52,-28,-24
1490138008217,12,8,-113,-128,-128,-87,-19,-20,-19,-47,-32,50,127,115,-97,-37
1490138008219,-37,-112,44,-128,-110,-20,79,4,22,4,-42,107,127,-18,-15,15
1490138008266,-6,8,-42,-9,-102,-57,29,-86,-9,-42,43,-110,-100,-23,-27,7
1490138008319,8,74,127,60,49,89,24,36,10,-17,-126,15,-38,-93,-89,-31
1490138008364,2,-14,-97,127,70,-99,-39,19,-24,34,96,61,68,66,5,12
1490138008411,38,40,26,62,52,6,-22,-3,17,71,110,85,83,115,77,32
1490138008412,-41,-78,-101,-32,-60,-73,-68,-27,26,50,12,-82,-56,-6,41,36
1490138008461,11,21,86,69,127,22,61,8,-21,-10,-76,-62,-77,3,75,-18
1490138008608,-6,-122,53,-72,-128,11,-33,-14,11,28,25,104,106,36,19,21
1490138008610,13,3,-41,-128,-108,25,81,13,-6,-27,-90,-96,-88,-38,-60,-29
1490138008611,12,-73,-49,-32,-90,-47,-38,-42,16,31,12,0,39,-20,-2,32
1490138008673,14,59,61,101,113,55,-52,111,-52,71,-67,-84,-85,-1,-51,-108
1490138008674,25,28,48,127,127,-42,38,85,-2,-117,127,61,59,9,-1,120
1490138008706,-18,44,-51,-27,-29,52,68,-20,2,69,-112,-86,-55,6,8,3
1490138008754,-44,-39,-28,-99,-102,-88,-48,-75,21,127,71,127,127,29,24,-44
1490138008802,-13,42,34,41,5,46,6,-80,-40,-104,13,-128,-128,-110,-48,-17
1490138008851,7,49,-6,84,54,55,38,16,8,-67,45,28,52,1,-5,27
1490138008899,-56,-100,-70,-65,-82,-82,-63,-69,-2,-19,68,63,59,-28,-59,-53
1490138008900,38,28,107,92,109,27,13,47,-9,-10,-48,-53,-75,-4,-4,50
1490138008948,-54,37,127,127,110,36,12,-21,83,-5,54,118,127,104,42,11
1490138008997,-16,63,68,-88,-98,5,20,18,-113,-93,-128,-128,-30,-58,-27,-61
1490138009046,38,69,26,86,52,-1,-27,-13,39,127,96,127,107,41,5,64
1490138009143,-74,-73,53,-28,-42,-48,-34,32,-75,-6,23,55,87,38,-22,-101
1490138009148,-18,-49,-24,71,91,-7,9,18,5,81,127,106,-57,3,42,15
1490138009150,31,79,26,-88,-73,-39,36,-57,57,127,-31,-47,-49,-36,-21,54
1490138009193,27,52,59,127,127,29,27,40,58,127,46,-8,-3,61,29,58
1490138009241,-71,-78,65,116,101,-63,-35,-32,-8,-97,-17,25,30,-23,-35,-15
1490138009289,43,-104,25,-7,5,11,-28,23,-38,38,-102,-128,-102,8,7,-21
1490138009337,53,76,-117,33,1,-21,-15,54,-32,-9,-18,-18,0,-6,2,21
1490138009338,-26,1,-37,-61,-47,-5,-22,-82,46,127,-13,93,-1,-21,9,69
1490138009435,15,-128,43,-48,8,3,33,-1,-33,76,56,114,68,8,12,-11
1490138009436,42,-90,-30,-17,61,35,8,49,-96,-44,-14,-61,-109,-46,-47,52
1490138009485,49,80,-46,100,95,38,26,-7,14,12,-27,-91,-70,4,-18,75
1490138009534,-4,-15,15,12,-56,-4,-25,-36,29,-65,2,30,-6,1,26,-29
1490138009581,9,69,-39,-13,-82,-73,-28,-83,-35,-92,58,80,-4,-31,-10,-64
1490138009582,17,-20,63,54,30,5,-1,-24,22,34,-32,-30,-14,7,29,26
1490138009631,3,-11,53,31,16,27,28,45,31,37,-95,-88,-57,-11,-13,55
1490138009728,-46,-59,-128,-36,-34,-19,-16,-8,-25,44,94,127,50,-7,-2,-71
1490138009729,35,18,-50,67,23,8,-9,19,47,41,-43,-8,77,7,29,48
1490138009778,22,73,-92,-82,-61,6,-6,44,5,-11,9,19,-47,15,8,71
1490138009779,8,84,28,-27,29,14,0,18,-6,-17,-29,-39,-33,-2,4,20
1490138009827,-40,-104,2,-22,-4,-3,4,48,-46,-7,69,118,127,8,-36,-23
1490138009875,-6,-51,-30,46,48,21,16,-4,25,8,-104,-22,25,2,15,6
1490138009925,-23,-26,125,127,127,12,6,26,6,50,-1,-97,-109,-6,-1,-9
1490138009975,6,-73,34,-82,-83,-5,-23,-25,-28,-8,17,-44,-12,10,-16,-75
1490138010020,-5,-40,59,-33,-26,-21,1,-9,41,-104,-65,-21,11,2,-1,38
1490138010023,-21,3,-31,-57,-62,-6,-16,-15,-15,37,-39,-7,-9,0,-6,-19
1490138010069,-13,0,40,-13,-59,-99,1,7,8,68,1,-35,-40,0,19,-7
1490138010118,24,12,17,37,36,13,-47,-45,-11,67,84,20,8,-13,6,-31
1490138010215,2,-51,-59,9,4,9,-7,-5,22,88,33,61,32,12,3,16
1490138010216,7,-116,4,46,24,24,23,10,-2,41,-29,-15,-28,-27,-7,-17
1490138010264,16,127,-39,51,49,47,11,-2,-19,-128,1,6,19,27,-6,18
1490138010268,37,52,-22,0,12,-20,29,41,-22,-44,-13,28,76,3,6,35
1490138010313,-24,26,3,30,25,42,-3,-7,-36,33,58,2,-5,-2,-36,-1
1490138010362,4,25,-58,-72,-37,-28,-17,-21,4,-28,13,17,-2,25,-2,5
1490138010411,-10,80,-4,4,18,16,11,-60,16,-105,11,-1,-22,-15,-8,21
1490138010459,9,14,-31,17,42,16,4,32,12,-12,-50,-34,-77,-40,74,28
1490138010461,-39,-63,-45,-21,-26,-14,7,-11,-12,-6,25,-11,27,26,25,1
1490138010508,-1,40,-25,-21,-27,-5,-12,-17,5,-90,-28,-16,1,7,-19,-1
1490138010557,-4,77,17,-9,-20,-9,-13,-6,6,-11,7,23,27,9,22,7
1490138010606,21,22,-26,-16,-15,-9,-23,6,-18,-8,12,12,6,8,20,0
1490138010655,-7,9,28,-4,-8,-5,-4,-3,2,38,-15,-6,-6,-4,-6,0
1490138010752,-6,-8,6,-6,-4,-3,2,5,-2,8,2,2,2,-4,-3,-14
1490138010756,-13,-1,2,1,1,-1,16,-13,-18,13,0,-1,-5,-3,-16,-7
1490138010758,6,7,-1,-9,-7,-5,20,-11,11,2,13,6,24,8,16,-75
1490138010802,-16,13,14,4,-2,-7,42,-7,35,-11,-10,2,-6,8,5,20
1490138010850,37,-31,14,9,6,12,8,22,7,18,-20,-21,-15,-51,-52,-9
1490138010898,58,7,-10,-2,-2,2,11,9,-43,-3,-10,0,2,14,-2,7
1490138010901,-5,-11,12,6,1,-15,-12,-2,-3,1,10,12,8,48,22,7
1490138010947,-8,-2,-7,1,1,-4,6,-4,-10,-3,-9,1,-1,-15,-24,11
1490138010996,-18,2,4,2,-4,-13,-8,-11,6,5,-5,1,-3,-2,-4,-3
1490138011044,-3,-3,0,-3,-10,3,4,-2,-1,0,-9,-6,0,-1,-7,-5
1490138011093,-9,-10,-3,0,-2,4,-18,1,0,2,3,9,3,-9,10,3
1490138011194,-3,3,-4,-2,1,4,13,-2,-2,-4,-6,-2,-2,-1,2,-7
1490138011197,-6,-31,-28,-9,-3,-2,-13,-5,-10,11,7,0,-2,5,3,4
1490138011202,4,0,4,2,-1,5,-5,2,-4,-9,5,0,-3,-6,-18,-7
1490138011241,-33,-4,1,1,1,0,27,9,6,-1,0,0,-2,-2,9,-1
1490138011290,-10,-7,4,-2,-1,-1,-9,-5,-3,-1,1,0,1,9,13,0
1490138011337,1,2,4,3,0,-3,-5,2,-6,-3,-1,-2,3,6,26,4
