1490138494011,11,14,-16,-48,-88,-25,-27,-5,-52,-72,46,2,53,-15,-7,45
1490138494059,-45,-41,69,122,-31,-54,-28,17,87,54,54,62,-102,24,41,47
1490138494061,-128,-94,-83,-86,-38,25,-26,-75,5,-80,26,-24,-43,-33,4,45
1490138494108,-27,-6,4,-17,-29,13,16,-6,-11,53,31,-42,-53,-29,-24,17
1490138494157,52,105,99,-54,47,118,60,107,-49,5,-45,-66,-27,-18,-4,-92
1490138494206,-40,53,-88,-56,-45,-27,-35,-29,52,31,-11,-9,-49,-67,-21,50
1490138494255,-54,-17,-119,-122,-79,-73,-59,-75,-28,-49,-87,34,19,-59,-28,-14
1490138494303,9,-60,-77,-50,102,-65,-2,-11,56,-21,-59,-93,-97,-21,2,-66
1490138494305,0,61,-6,-66,-124,-56,-12,4,-108,-27,-60,94,-28,-54,-31,16
1490138494352,-27,-94,-21,0,75,-16,-13,-40,-83,-13,54,-128,-36,-30,-14,-66
1490138494401,15,-23,-80,-48,-117,-36,-20,-24,18,-2,-32,-84,17,28,18,22
1490138494450,28,39,93,127,101,107,-4,68,-30,44,3,-36,-48,-18,12,0
1490138494498,-67,-52,-42,20,39,36,27,3,-11,-32,61,30,-7,-3,-3,22
1490138494499,24,34,20,19,-39,-38,36,63,-27,-31,-128,-106,-37,-31,-28,-50
1490138494547,66,-66,35,64,61,-22,-25,16,17,80,119,35,127,51,-25,-4
1490138494596,-8,-1,23,-6,2,-102,19,-7,12,15,127,127,103,-77,27,43
1490138494645,-28,42,40,-6,-25,-17,-13,-52,16,0,28,15,9,-1,-14,-8
1490138494742,-23,-28,-67,-61,-49,-8,-20,-14,-3,-6,-16,40,3,88,-12,-10
1490138494744,18,23,41,81,-22,35,-19,3,20,65,4,-4,61,-31,28,18
1490138494745,-35,-55,-32,-95,-7,117,-15,27,24,23,-39,-56,-52,-65,-36,-24
1490138494791,-12,-17,20,85,40,34,-79,-11,-6,-2,19,53,23,8,26,-27
1490138494840,-1,34,15,38,71,44,5,-12,11,-63,18,-13,68,-12,15,18
1490138494888,-27,-3,19,-21,2,-62,-23,-22,-9,74,-30,-34,-76,117,-11,-4
1490138494937,-3,-27,-10,33,43,79,36,-39,5,-5,56,49,-39,-123,-42,5
1490138494938,34,-2,-7,30,13,-55,46,-49,-9,5,73,-17,47,112,-15,4
1490138494986,6,4,-27,16,23,12,-13,5,8,5,15,-47,34,-56,-26,27
1490138495035,17,-2,-13,17,28,11,28,33,10,-4,-66,-86,-92,83,4,-1
1490138495083,0,27,-56,-19,80,-36,-22,35,-3,31,15,16,5,44,-41,-28
1490138495132,52,7,-7,-83,-102,41,24,52,-33,6,5,-98,-90,-65,-29,-57
1490138495180,-28,-4,14,66,-18,-66,4,0,17,-22,-51,-41,-44,12,-30,-42
1490138495182,6,54,127,127,96,80,67,-15,52,-2,-99,-63,-80,52,6,21
1490138495230,-35,-7,-4,-14,90,85,-58,40,-30,-64,-35,-50,2,35,88,88
1490138495278,-43,-47,-104,-19,-97,15,-73,-76,12,-38,-11,-55,-41,-81,-6,5
1490138495327,89,45,82,88,38,90,18,29,-57,122,11,19,49,-67,-11,-17
1490138495376,14,-63,-44,-128,-128,-13,42,-65,45,-11,-60,63,58,18,-23,39
1490138495425,72,-2,-105,-15,-16,-74,-39,24,71,20,90,51,97,76,29,-102
1490138495426,31,19,-2,35,10,68,58,-48,37,19,-125,-117,-37,-110,-48,5
1490138495521,112,85,93,96,115,87,23,41,-111,-62,-115,-128,-128,-79,-44,-66
1490138495523,-48,-67,-74,21,-8,-24,33,97,52,32,78,108,61,20,-43,-90
1490138495571,26,24,1,-32,-20,52,62,52,-4,-22,-57,-110,-107,-45,-14,45
1490138495620,47,35,-24,10,-93,-51,-26,-53,57,2,-31,56,72,80,42,-9
1490138495621,-37,25,-93,-128,-101,37,24,-30,-35,-76,-94,-128,-99,-70,-30,-14
1490138495669,39,13,-28,-51,21,25,-18,36,103,73,70,40,127,79,56,67
1490138495765,-53,-42,78,69,54,46,32,-45,0,37,44,39,70,38,-3,-90
1490138495767,-67,-14,-65,97,83,-12,-11,-40,54,-33,-4,-115,-81,-11,-11,46
1490138495815,46,-5,99,98,100,33,69,99,27,16,92,4,-59,17,-14,-61
1490138495863,-119,-10,-45,-128,-128,-98,-62,-19,114,8,-10,79,100,8,52,-58
1490138495865,19,-14,97,4,2,61,41,97,-36,-10,16,100,125,33,-43,-35
1490138495912,-65,21,70,70,-79,-18,18,-40,-34,62,54,-121,-86,1,17,12
1490138495961,-73,-68,-35,-19,-113,-83,-75,-20,-58,-122,-28,35,31,-21,-9,-100
1490138496010,0,5,48,-32,-50,-18,9,-5,23,-82,-23,127,78,47,17,95
1490138496058,54,-10,-79,-100,-74,-9,37,-21,-35,-16,-39,-113,-63,-68,-59,-86
1490138496107,38,127,96,127,105,52,28,9,-26,-76,19,-39,1,25,53,34
1490138496110,-27,2,-13,61,72,29,-17,-90,43,18,81,-1,-33,22,7,5
1490138496156,59,-27,-11,27,-1,34,20,50,6,60,-40,-92,-109,-27,-43,17
1490138496205,65,-16,-71,34,55,5,13,57,-6,-35,42,-47,-37,6,-38,-74
1490138496253,-49,-17,117,47,12,-9,-30,-42,-7,5,84,127,127,34,-38,-38
1490138496301,40,18,49,77,70,23,42,2,10,21,86,-33,63,23,62,7
1490138496303,17,-128,-83,26,-55,35,-11,0,23,-58,-91,-127,-128,-58,2,12
1490138496351,-29,42,88,1,23,63,48,7,88,-54,65,-23,-113,-73,-40,52
1490138496400,-33,-5,13,-128,-128,-72,35,-79,-49,-12,10,-35,-47,-35,-60,10
1490138496496,76,-5,-22,127,127,-83,-36,5,-112,56,-61,-73,12,-47,-38,-73
1490138496498,-48,-9,-128,-128,-128,-38,-33,7,10,36,127,104,-11,59,33,42
1490138496545,-52,-27,-83,-47,-113,-3,-51,2,-23,56,99,98,122,27,39,53
1490138496546,16,52,55,-28,-77,68,100,37,19,31,83,105,74,92,-11,-37
1490138496595,32,-21,44,-128,-74,-8,34,50,16,58,4,74,28,17,-1,-24
1490138496644,2,-54,-16,-46,-33,-32,-18,73,8,10,-7,44,33,34,-30,-61
1490138496692,-49,-6,40,48,55,2,-30,-71,7,48,0,-117,-47,35,1,1
1490138496741,23,6,56,95,-18,54,24,2,-24,-40,-65,-128,-110,-128,-14,-8
1490138496789,33,-26,-65,64,126,17,4,31,-13,-20,14,-67,-128,-1,29,-24
1490138496791,28,91,94,33,-5,-7,0,62,14,-45,-9,-37,27,63,46,-5
1490138496838,7,-35,20,-54,-91,38,95,42,-9,74,-38,-120,23,56,-11,2
1490138496888,4,44,40,56,42,-32,-50,-70,-24,-15,-9,31,52,57,-64,-31
1490138496936,-25,-46,-33,-18,-34,13,24,-53,1,47,17,19,48,65,-33,15
1490138496985,-1,-54,-30,-26,-18,8,-89,-23,8,16,19,19,39,5,67,35
1490138497033,6,-11,-1,-12,-58,-27,22,12,4,-1,10,3,-22,-22,-47,11
1490138497034,15,8,-59,-92,-93,-85,127,26,-1,1,19,-10,-57,-49,6,-43
1490138497082,21,47,53,80,127,127,-50,2,7,-10,-22,-30,-75,3,-4,37
1490138497131,-15,-6,12,8,-21,-62,-12,18,14,6,-5,7,10,-18,51,54
1490138497180,-4,29,23,63,74,29,45,-15,-16,-30,9,-71,-33,31,-8,-24
1490138497228,-26,33,42,24,50,62,-40,-52,12,-12,44,98,41,6,9,3
1490138497229,-1,-3,-33,-124,-91,-60,-47,1,-26,-26,-11,20,37,-32,8,-5
1490138497277,-14,-21,-11,55,19,-72,-13,32,-22,3,27,-99,-42,22,29,-74
1490138497326,-7,0,-5,55,54,-41,52,-9,8,14,23,-49,-31,94,59,13
1490138497376,16,21,-19,-110,-98,-3,-50,-4,32,13,76,105,57,-55,-18,24
1490138497423,-18,-22,-38,80,-20,-30,-30,-22,20,26,32,5,78,92,31,-14
1490138497471,-14,-114,-101,-117,-108,-111,-46,-15,-7,24,40,127,81,-21,-15,-8
1490138497473,-8,45,-48,-9,14,47,35,6,9,40,52,103,-51,47,0,9
1490138497521,-11,22,127,-55,-107,-84,-35,-41,-34,-65,-96,-80,-1,-29,5,13
1490138497570,9,59,104,86,116,75,13,-11,14,22,16,-88,-113,58,35,7
1490138497619,-56,7,-18,-60,-97,-61,-13,-3,64,12,-66,91,24,2,31,-104
1490138497667,40,-79,-52,-61,85,93,58,127,37,104,103,35,-42,67,33,37
1490138497669,36,90,29,59,18,13,25,107,-16,-76,-89,-45,-14,-52,19,-49
1490138497716,-77,-20,-20,58,83,18,-6,-94,41,41,89,37,-53,-3,-6,65
1490138497766,65,0,80,59,-84,-55,-27,31,-12,10,-5,19,-48,13,45,-9
1490138497815,-27,-107,-112,-128,-117,-50,7,50,-66,-9,-115,-128,-128,-69,-45,-122
1490138497863,74,40,-53,-81,-39,-29,-8,-5,-9,37,-62,-77,-54,53,61,-1
1490138497910,17,-69,-65,-50,-49,8,23,98,42,39,10,59,69,-18,-5,13
1490138497911,-27,58,22,124,91,83,1,-11,44,41,-85,-18,116,71,38,66
1490138497960,-61,33,101,85,29,13,16,-118,-116,20,96,56,17,-47,-72,-56
1490138498008,-81,-40,-40,-24,-59,-13,-57,76,1,96,127,112,79,48,50,-89
1490138498057,10,6,30,-128,-128,-126,-26,-41,45,-49,-128,-31,-51,-4,66,101
1490138498106,-1,127,127,68,-79,-46,58,23,-52,-24,-120,-30,39,-8,-35,77
1490138498111,-11,-41,-54,-76,12,-24,-16,-60,-51,-36,-23,-111,-59,-34,-37,-95
1490138498156,-3,-41,-62,126,51,42,-14,37,20,0,106,-28,27,38,0,3
1490138498206,2,-12,-3,2,-16,20,49,11,-36,113,74,21,-107,-61,-24,96
1490138498252,-65,-29,-16,-35,-23,6,59,24,50,-58,-53,56,2,-43,-36,12
1490138498302,59,-15,-71,-128,-19,-37,18,68,29,-21,67,83,78,51,26,87
1490138498349,-114,76,17,-44,-54,-33,-17,-7,26,7,5,-102,-96,-26,36,-53
1490138498351,6,26,127,-102,49,28,2,-35,62,41,-64,44,88,62,52,16
1490138498399,57,-76,-73,-3,-71,-21,-2,11,-106,-21,61,-37,62,2,-7,-66
1490138498448,-65,-100,77,-63,-71,-34,21,-63,21,5,-128,-78,-77,-102,-69,58
1490138498496,61,32,-61,53,117,62,-15,85,14,-14,-54,-14,-57,21,30,2
1490138498545,51,21,-15,-1,-71,30,42,68,63,17,-43,87,119,55,37,2
1490138498593,16,-5,-81,102,114,9,3,-64,14,126,127,-58,27,15,24,-10
1490138498595,-57,-35,-90,-90,-31,15,71,-4,-64,-18,-128,-128,-128,-100,-73,36
1490138498642,6,-68,-47,-103,-87,3,-6,-5,26,37,39,107,68,1,27,19
1490138498691,60,58,-7,105,127,28,19,56,22,21,78,10,-75,44,-8,-47
1490138498740,-30,19,76,36,-26,-56,-24,-20,36,68,127,127,127,86,62,57
1490138498788,-23,-34,38,96,43,-19,-12,-2,29,-3,-115,-128,47,-1,44,20
1490138498790,-6,3,32,120,106,62,36,19,1,12,52,94,65,-30,-1,-4
1490138498838,62,6,-19,-77,-52,39,33,-15,24,21,-35,-91,-12,-20,-12,19
1490138498886,-21,-13,-27,-107,53,-22,-1,-25,0,-32,-108,-128,-128,-17,-65,13
1490138498935,-6,68,55,125,-26,-5,-13,-74,-22,2,55,23,64,-46,4,26
1490138498984,-13,-24,-47,-111,-75,-47,28,2,11,-3,-21,61,33,11,-51,-11
1490138499034,5,-25,33,17,43,-19,24,-19,4,28,12,27,87,85,6,-7
1490138499035,-4,-13,-9,-32,-44,-19,-29,-24,-3,6,-19,-36,-92,-83,76,15
1490138499082,24,3,35,116,80,54,81,76,10,-8,-16,-23,-7,18,9,5
1490138499130,4,31,41,63,115,125,-19,-12,-3,-18,-27,-67,-116,-75,60,0
1490138499178,0,2,5,21,52,16,7,-18,1,19,52,77,114,88,-42,-4
1490138499227,10,13,8,14,45,21,-1,11,-5,-12,-22,9,-61,-27,-19,12
1490138499275,7,15,15,102,96,72,2,-4,1,-5,9,-70,-64,-28,9,13
1490138499277,10,18,9,-6,-8,67,9,45,-6,-21,-17,-49,-8,-54,5,6
1490138499325,1,-5,10,50,30,9,-13,-16,-8,-36,-62,-113,-39,10,31,5
1490138499374,-10,-25,-80,-63,-59,-74,-31,2,7,6,38,71,74,33,26,-11
1490138499422,-5,-1,39,96,117,39,-6,-5,1,14,-61,-128,-128,-128,16,30
1490138499471,4,8,14,-35,-79,-25,9,1,0,0,86,90,104,112,58,-3
1490138499473,-10,-26,-104,-76,-128,-128,-102,-24,-3,13,93,99,89,0,-38,-7
1490138499521,-8,-12,-64,-90,-41,25,13,-15,11,13,77,3,36,27,-26,4
1490138499569,13,2,28,-23,22,60,16,20,-21,-64,-85,-81,-81,-102,-35,-10
1490138499617,-19,60,55,67,83,73,25,0,32,29,66,117,77,8,-43,9
1490138499666,4,-47,-49,-16,-89,-111,-39,-14,-37,-49,-38,-114,-68,-70,-7,-19
1490138499715,24,19,-7,98,-38,-16,45,11,4,-5,-82,-65,-59,-40,1,-12
1490138499717,-12,3,-30,-123,26,5,18,15,27,39,85,127,127,78,40,13
1490138499764,-7,-13,65,45,0,33,13,-43,61,83,32,98,110,94,2,9
1490138499814,-22,-17,-3,-115,-24,-24,-20,-21,36,-16,82,-20,4,-8,-27,-2
1490138499861,3,-62,-4,127,112,15,5,-12,8,17,-38,-60,31,11,5,5
1490138499910,-66,-14,53,63,-128,-66,-24,-55,-43,20,-53,-61,-28,-15,8,-10
1490138499958,-17,-26,-49,-24,-7,-44,-57,-41,45,29,61,44,49,-55,-48,53
1490138499959,-57,-52,-25,18,-12,51,39,14,30,24,81,127,127,13,-18,-40
1490138500007,-16,45,-23,58,28,13,2,43,54,1,-28,-21,-8,65,115,11
1490138500056,99,40,82,-4,3,-1,-26,34,-15,44,51,36,26,27,-11,-39
1490138500105,44,57,-52,127,120,-1,18,9,41,-70,-114,-9,-108,-39,-40,-5
1490138500153,24,4,34,-82,-110,-14,-18,27,13,3,107,-54,-107,-3,-57,-28
1490138500155,16,9,71,93,77,61,48,40,12,48,88,112,57,69,66,48
1490138500204,-32,-85,-128,-17,27,-6,-43,30,-6,40,10,-60,6,-12,-3,14
1490138500251,16,-25,77,6,35,52,114,52,-64,-70,-128,-128,-86,-98,-31,-20
1490138500300,105,-7,-52,-23,-11,15,4,-10,2,-30,-128,-85,-22,12,38,87
1490138500349,-8,-47,14,-70,-5,-4,80,-29,-47,-76,-78,-46,-84,-51,-47,-73
1490138500397,8,32,50,104,120,14,-13,-33,-21,7,-65,-109,-102,-3,-7,26
1490138500399,37,62,111,50,-20,46,-43,-94,98,29,-22,79,123,35,35,13
1490138500447,-66,-87,45,-2,-4,-33,-73,-80,9,-9,44,-35,-106,-23,-37,-3
1490138500495,2,35,-72,-55,13,7,20,47,-32,-102,-31,34,29,-31,-33,-25
1490138500544,8,-74,-71,-89,-65,-24,24,30,-52,38,56,80,53,-3,21,75
1490138500592,-30,-59,-100,-77,-81,-54,-18,-36,10,-106,73,2,-16,-5,32,34
1490138500594,64,53,82,87,70,45,-17,-9,-22,-5,-128,-128,-128,-67,-1,-21
1490138500641,-35,-123,-32,34,34,5,9,8,-67,-54,95,15,-35,21,-2,-68
1490138500695,-4,31,62,-80,-128,-10,41,45,31,-53,75,36,17,-21,-39,-37
1490138500739,9,56,-4,13,95,-15,-41,36,4,110,-94,16,-4,34,6,19
1490138500790,-22,34,9,65,5,71,102,-8,-1,65,125,112,119,46,16,21
1490138500835,49,-46,-16,-53,-91,28,6,13,29,81,87,104,101,81,55,37
1490138500839,-14,-2,-68,2,0,-5,-35,19,-45,-6,65,-128,-128,-83,-54,-11
1490138500885,-5,34,-31,13,-1,-25,4,-48,0,-67,-48,64,60,69,49,39
1490138500935,-28,62,97,5,-12,-32,-57,-49,54,-89,-128,-88,-63,-12,-3,13
1490138500982,58,4,127,50,-22,58,48,26,-42,48,-46,-11,-9,-32,-26,3
1490138501031,9,1,-128,50,69,27,-46,-40,-9,-63,-128,51,8,-62,-1,50
1490138501080,-11,18,87,36,20,-16,-21,-25,28,51,118,118,94,99,52,61
1490138501082,-26,7,31,-31,-22,-45,-36,-5,22,3,-70,-29,4,-35,13,3
1490138501129,15,9,9,-38,-20,57,2,21,-11,10,-14,-77,-2,13,-7,-45
1490138501178,6,-2,52,-107,-115,-18,-2,-5,-6,7,-1,7,-6,-47,11,-2
1490138501227,10,-7,4,-34,39,-9,7,45,-9,13,30,30,-3,108,1,-20
1490138501275,1,-2,25,13,51,35,9,-30,-5,-5,-15,-21,-56,-114,14,7
1490138501279,-6,-15,-44,-44,-6,31,5,-27,0,-2,-13,-31,36,67,4,31
1490138501325,-24,-14,-71,-68,-33,-17,1,-16,12,-3,-5,19,49,-93,-62,13
1490138501374,5,10,-3,-7,-2,7,-6,48,-5,-19,-1,36,97,103,36,-65
1490138501469,-15,-20,6,-12,-2,120,-62,-30,-5,22,22,36,-45,-119,47,-3
1490138501471,5,13,14,-4,-11,-107,-38,-10,10,31,-9,-29,57,80,43,17
1490138501519,3,0,-13,-12,31,-26,-78,3,-2,12,28,89,58,50,52,24
1490138501521,22,-2,3,33,52,50,-6,-1,-12,13,8,-33,-57,-40,-29,19
1490138501568,-9,-16,-27,-63,-66,-70,19,7,-5,23,33,63,49,32,-3,-14
1490138501616,2,6,-23,-95,-89,-19,-28,-2,-7,-7,27,0,-25,-69,17,-12
1490138501665,-6,-4,28,9,-9,3,-16,-16,8,8,8,85,21,-2,15,-8
1490138501714,0,-13,-7,-63,10,-21,-36,-27,0,-1,-32,-81,-29,-24,14,5
1490138501762,14,14,65,127,127,125,13,6,-2,-10,-29,-128,-14,-8,-24,-17
1490138501764,-12,-25,23,80,-22,14,-11,-34,25,6,24,38,-16,-47,9,16
1490138501811,-16,34,-20,-66,-44,-55,-11,10,26,-9,36,77,35,102,7,-9
1490138501860,19,-28,-37,-17,-72,-58,-7,-17,24,48,0,59,100,118,13,15
1490138501909,-46,-19,-43,127,127,99,31,-10,-44,17,100,-76,-86,18,2,-3
1490138501957,-46,-87,-88,-29,-68,-91,-21,-38,73,8,39,46,80,53,-16,33
1490138501959,-24,-31,-9,-81,-103,-67,-80,-32,5,14,-125,-3,85,10,5,13
1490138502006,-13,-20,23,32,-40,26,6,-7,-48,-38,40,42,-86,-78,-59,-40
1490138502055,56,23,-99,-56,-9,5,16,52,-82,-68,-128,-128,-128,-57,-35,-73
1490138502104,63,22,48,56,-69,29,15,28,61,43,-37,-72,-76,-13,0,17
1490138502152,-52,91,-57,-27,50,73,-8,17,87,-72,-82,-39,-65,-67,-7,54
1490138502200,-6,-19,95,68,51,-17,-22,-43,14,46,99,127,127,62,40,39
1490138502202,114,71,73,-53,-65,42,39,41,-53,-51,44,117,79,19,8,-36
1490138502250,3,-1,-15,-38,-32,19,60,18,-13,5,102,84,33,26,-39,29
1490138502299,107,54,91,36,82,4,-23,21,-82,-56,17,-68,-121,-14,19,-17
1490138502348,-18,-51,-82,-37,-34,-8,-18,-28,46,-1,12,101,127,24,8,2
1490138502396,18,30,-22,-63,32,6,29,37,50,57,94,65,-35,-21,6,62
1490138502493,-2,30,22,62,-16,28,19,75,-38,-26,0,-35,-12,0,15,-98
1490138502499,17,-2,-55,91,21,54,20,-15,56,4,67,-57,-4,63,76,47
1490138502500,-54,104,-43,-20,-53,-15,39,-13,-40,-128,38,-1,-76,-42,-18,-71
1490138502545,56,-59,-25,-73,11,15,-16,38,-50,-21,-123,59,107,21,35,37
1490138502639,-43,30,73,61,92,19,15,-1,98,63,78,-48,83,8,-6,79
1490138502640,12,107,37,81,6,-39,-4,-24,-74,-21,-36,15,-76,-23,-54,-21
1490138502641,-35,-35,9,-96,-128,-42,-14,-46,-32,-95,62,-3,0,8,-9,-10
1490138502688,61,-37,41,-26,-111,-31,36,72,-65,-128,-116,-117,-78,-69,-16,-86
1490138502737,-25,18,-81,-28,-5,-10,-12,-11,-65,-38,27,-128,-128,-84,1,-60
1490138502786,7,-90,-85,127,127,42,-23,13,15,127,127,9,-30,47,41,-1
1490138502835,-110,-108,-42,-29,81,-21,-18,-62,3,-24,114,3,-38,34,-20,-24
1490138502883,112,10,36,127,127,56,31,61,-48,-35,-99,-100,-93,-94,-39,77
1490138502932,-11,-50,85,51,70,20,57,-35,-11,7,70,-71,-125,-63,10,41
1490138502935,-31,11,115,29,58,-4,-18,22,-56,-50,-128,-101,-63,-76,-61,-53
1490138502981,39,-50,-95,-128,-128,-89,24,-21,-6,-53,88,94,108,0,-66,31
1490138503030,15,-6,28,-128,-81,1,-29,-19,18,25,46,5,-43,-9,62,19
1490138503078,-19,-76,87,-38,-128,-9,0,-37,3,56,58,127,-77,-21,-4,39
1490138503126,-6,50,62,118,127,66,37,37,48,11,11,14,46,-6,-32,25
1490138503127,48,33,17,-20,-60,-3,37,38,-105,-53,25,3,11,2,-14,-16
1490138503176,24,39,0,-44,-45,-2,15,8,0,-11,-92,35,48,-110,-35,7
1490138503225,3,-35,-81,-66,-14,-57,-53,-13,-57,-40,-59,-17,-77,-75,-36,-81
1490138503274,-17,3,-44,93,46,5,-9,-17,-18,-14,-36,-57,-125,-115,-39,-9
1490138503322,-56,-60,-81,-128,-9,-34,-7,-54,16,31,87,101,104,89,29,10
1490138503324,14,18,-12,-16,-10,63,33,46,2,-5,-40,8,-38,-45,-2,26
1490138503371,21,41,81,95,107,90,2,-6,-2,-8,-4,-51,-23,-54,2,-5
1490138503420,7,11,-31,-5,49,-19,-13,8,6,-7,40,63,62,56,-7,-4
1490138503468,11,-26,-31,-21,-78,-57,-25,11,-2,18,2,-16,-10,-39,7,-16
1490138503517,11,15,33,86,46,57,33,37,-3,-1,-35,-72,-49,-81,30,-21
1490138503565,-41,-7,-12,-40,-71,-128,-55,-17,1,-9,2,6,-35,7,-52,-28
1490138503567,-6,-2,28,26,13,-74,-43,-23,-26,-15,-35,-69,-89,-57,-26,15
1490138503615,-8,9,-14,42,110,94,7,6,-25,-7,16,17,-17,-96,-6,11
1490138503664,-9,19,19,-27,-12,-89,-3,-4,12,1,7,40,89,127,69,9
1490138503712,6,-24,-50,-35,-4,13,39,36,-19,-7,12,-2,-17,-17,14,13
1490138503760,3,-1,-7,-84,-122,-82,-17,-7,7,-10,-9,-18,-19,2,22,-4
1490138503761,14,15,42,94,127,97,-6,24,13,9,8,70,-69,10,-10,11
1490138503809,-56,-49,-109,-54,-67,-112,3,-64,22,23,67,102,123,108,3,-6
1490138503858,6,-28,-14,36,-103,-63,-23,5,-27,-7,-57,-72,-62,-94,-28,-19
1490138503907,-1,36,6,-92,-72,36,-12,-20,-19,8,29,-13,-66,-37,-7,17
1490138503957,-15,-2,-80,-128,-77,-74,-19,-4,8,-18,-83,-6,78,-7,-7,-6
1490138504004,-16,-10,-56,-91,-44,-78,-51,-12,-23,1,-72,21,23,48,2,-50
1490138504007,4,-69,-93,-128,-125,-23,-21,2,-41,0,-7,107,37,22,-16,19
1490138504053,10,36,77,111,45,-8,-15,38,1,-20,-4,-80,2,-16,-4,-9
1490138504102,19,25,-5,102,80,51,10,-25,-3,104,9,65,97,75,43,18
1490138504151,-28,10,73,-14,22,12,29,-36,20,8,-71,-7,32,66,11,19
1490138504248,0,50,-39,-5,-43,-90,-20,9,10,-12,-48,-7,-68,9,3,-8
1490138504249,-99,-128,-85,-128,-128,-128,-78,-8,9,-44,-28,12,-46,-33,-40,-26
1490138504249,-77,-30,-58,-46,-33,-56,-7,-36,25,-7,65,54,23,30,-4,20
1490138504297,16,3,-83,54,87,101,81,37,-13,36,120,127,108,60,25,25
1490138504346,-32,-34,-64,11,42,-7,-41,-50,35,15,127,127,127,61,0,53
1490138504395,-25,-2,103,-56,-82,-4,14,19,-12,-35,-44,36,-11,-12,-12,-71
1490138504443,-28,-47,-89,-47,3,-18,12,18,70,38,33,103,124,104,53,55
1490138504447,67,28,58,-12,3,17,1,29,-4,44,-82,-92,-37,-11,-2,52
1490138504540,58,18,-44,6,-28,15,10,20,-85,16,56,-107,-124,-82,-15,-64
1490138504541,27,60,111,107,59,19,10,27,7,-81,-98,-67,-29,-8,-7,-37
1490138504589,-21,-53,-39,35,46,2,15,25,36,75,111,127,89,29,23,20
1490138504638,-14,-36,-9,79,102,37,16,5,-67,-62,-42,-110,-128,-9,-20,-20
1490138504686,7,-61,95,71,-65,-32,-6,-37,4,-12,82,29,45,42,-2,7
1490138504687,-34,-55,-106,-128,-115,-26,0,-58,43,-47,-31,-91,-54,-40,-41,78
1490138504736,-20,-38,-53,-58,-96,-11,-23,19,-3,11,64,79,41,-15,-29,-22
1490138504785,-53,5,-88,-121,-107,-44,-10,-19,55,0,127,95,39,-18,-16,-10
1490138504834,10,-46,-57,-64,-101,-39,-20,7,10,31,7,18,73,-12,26,-15
1490138504883,-111,25,23,63,102,-15,-22,-56,-2,-102,-128,-128,-126,-17,-9,-64
1490138504931,-81,-98,11,-37,-80,40,40,-16,80,30,50,-43,124,17,-7,5
1490138504934,-55,-78,53,-75,24,25,64,7,16,29,-121,101,75,57,31,56
1490138504979,-26,96,12,51,28,17,-5,-18,-38,14,-112,4,28,-16,-25,-31
1490138505028,-32,97,18,49,34,-29,31,85,31,-78,126,120,-17,-20,-29,-59
1490138505077,-17,-35,66,117,14,20,15,-46,2,-55,-77,-89,-123,-117,-19,-41
1490138505125,-57,9,114,127,84,30,46,-12,44,24,-110,-126,-128,-5,24,31
1490138505126,-13,-68,-27,-75,-70,-104,-28,-10,55,31,41,77,96,51,13,37
1490138505175,69,17,-48,-25,-4,34,-3,36,-94,-128,-118,-70,-42,-52,-19,-44
1490138505224,-23,-29,-107,-68,-108,-65,-70,-92,-1,-17,4,85,78,-14,-12,36
1490138505272,48,-74,-128,88,71,51,30,35,-33,-80,-78,-128,-121,-74,-37,-46
1490138505321,-20,-13,41,60,33,-11,-24,-38,-22,44,95,110,99,113,16,-18
1490138505369,-41,-43,-35,-26,23,-51,11,-18,14,-39,-119,-128,-128,-128,-82,-20
1490138505370,-17,-29,-37,-92,-128,-95,-26,-22,-1,28,4,119,24,44,3,3
1490138505418,24,-13,-61,-87,-79,-60,-10,17,-21,-29,-76,-62,-55,-99,-45,-20
1490138505467,13,29,105,80,127,127,46,49,32,15,-7,-7,-14,54,2,12
1490138505516,20,48,-28,-19,-14,-90,-14,-24,-47,-57,47,79,99,89,-2,22
1490138505565,-7,-1,-16,-5,-28,23,-7,13,21,12,26,6,46,18,-3,-7
1490138505613,2,-17,-5,22,31,31,-39,-16,2,20,7,-57,-62,-44,23,-1
1490138505614,-25,-4,-17,-20,-3,-56,11,14,23,11,-12,-24,-57,-53,-52,12
1490138505710,-1,-6,-11,45,44,-13,-40,28,14,10,0,-13,-30,6,-64,-19
1490138505711,-29,24,0,-14,-67,-40,-73,-24,-6,-53,-5,-27,-27,0,25,4
1490138505808,22,24,17,31,77,20,8,33,-4,28,-9,21,-2,-18,3,31
1490138505808,-12,-41,-5,-10,0,1,22,-35,19,12,7,30,39,34,-40,19
1490138505809,10,37,38,24,13,28,0,37,-10,20,2,-30,-43,-34,-39,-8
1490138505857,-1,-13,-24,-13,-9,-47,9,-21,-3,24,-22,13,42,9,-13,-21
1490138505906,4,13,-5,75,51,31,31,26,-41,-2,-18,-46,-19,24,18,-39
1490138505956,-13,-38,-29,-69,-74,-89,-18,-20,4,-12,-10,89,80,9,-1,11
1490138506004,9,-22,-33,-53,-32,4,-23,-1,-29,-10,-37,-95,-95,-94,-25,-30
1490138506051,19,26,108,115,106,17,50,33,8,29,6,-72,-87,8,102,26
1490138506052,-1,3,23,122,111,126,25,14,-11,-42,-53,-128,-94,-82,-72,-20
1490138506101,4,15,83,79,-49,-56,-80,-31,15,21,-10,55,50,75,-44,21
1490138506149,-3,-7,-78,-88,73,9,-7,13,8,25,103,127,127,88,9,-1
1490138506198,45,-29,-82,-58,29,-28,6,44,2,78,74,40,15,59,54,9
1490138506295,5,48,68,4,-128,55,28,17,4,-27,-97,-128,-128,-128,-69,-30
1490138506297,20,13,-23,70,80,58,33,34,-31,-10,-6,76,28,40,14,-28
1490138506298,-21,-5,9,-6,-42,32,15,16,35,8,55,-48,36,-3,1,-9
1490138506345,2,39,10,45,1,-5,5,-43,-25,-35,-21,-51,61,37,0,20
1490138506393,17,23,-92,-44,-10,47,30,42,-4,22,120,11,61,-11,7,16
1490138506442,29,10,106,115,115,-15,-26,8,-33,-50,49,-31,-38,19,21,7
1490138506490,63,75,61,125,77,90,37,49,23,30,-29,-128,-86,-62,-19,-12
1490138506491,-35,-50,-128,-126,-128,-128,-37,-29,21,-34,53,83,60,-27,-15,-5
1490138506539,-9,19,53,-21,62,4,3,-1,17,-39,-128,7,34,29,27,21
1490138506588,-29,-19,42,-59,-59,-28,-45,-24,11,30,113,59,18,34,9,12
1490138506637,-11,-3,-88,-70,-128,23,10,-3,-36,-74,-11,-76,-99,-24,-25,-9
1490138506734,2,-21,74,3,36,-16,1,-12,-9,-6,-35,-65,-39,-10,-12,-37
1490138506739,47,-55,31,-71,-92,-38,48,37,-18,75,-90,99,28,-6,-13,-3
1490138506740,10,11,-128,-50,-82,-105,-28,57,-12,23,2,29,-15,5,25,-34
1490138506787,13,-67,-84,-77,14,34,21,12,-11,33,99,102,98,37,33,6
1490138506833,-40,-44,-62,2,-10,36,10,-39,-21,40,55,-12,-14,3,5,2
1490138506881,12,-24,29,127,127,16,17,-35,-28,-47,19,47,-36,2,-33,-22
1490138506978,41,-36,-63,-62,-58,32,43,48,-35,-110,-59,56,113,-5,-15,-79
1490138506979,104,101,-27,13,41,-25,-25,26,29,-51,16,44,17,25,57,72
1490138506979,0,41,-101,127,127,26,9,-93,-100,-70,-35,-128,-128,-115,-81,7
1490138507027,89,50,-14,2,-74,-6,14,34,-14,-61,-128,-59,40,-4,-27,-6
1490138507076,-51,-71,29,-24,-35,-26,11,2,41,127,15,106,102,-31,-25,1
1490138507125,-12,-119,-103,59,33,-36,-15,-11,-13,124,-19,81,-1,-2,10,21
1490138507173,41,69,127,97,16,15,3,27,-9,-8,-111,-86,-69,12,28,-15
1490138507222,-20,76,94,100,127,22,15,31,5,-24,24,11,-33,-15,-26,-19
1490138507224,1,-41,116,66,31,34,41,6,21,-10,-68,33,37,18,32,-2
1490138507319,-13,-77,-123,41,58,37,9,-1,-57,-18,65,14,71,-48,26,-50
1490138507320,-22,68,27,73,45,3,-12,-10,44,-74,-57,-88,-3,14,0,-15
1490138507368,-66,-24,93,-12,22,-28,-42,6,-15,71,76,127,127,47,11,5
1490138507416,31,21,47,127,109,38,15,3,-36,-21,-47,-8,-21,-49,-47,-34
1490138507417,41,-5,67,108,83,103,27,51,-6,47,21,-67,-69,-4,-5,-8
1490138507466,25,12,10,21,-63,22,24,17,7,0,56,117,97,64,24,-9
1490138507515,-18,-57,-128,-9,2,-20,-26,-31,-4,14,-27,51,77,38,-10,-17
1490138507564,24,50,89,127,127,95,88,33,-8,-55,-50,-112,-128,-39,-8,-21
1490138507660,-7,-27,-98,-123,-93,-36,-43,-21,-12,-3,3,-84,-102,-25,42,-16
1490138507661,-10,-36,-115,-128,-105,-79,-36,-13,7,18,42,39,-34,-66,-10,-1
1490138507662,-9,-3,6,44,7,-1,-9,-22,8,33,14,17,117,-14,-29,3
1490138507709,5,-4,-39,-19,-76,-89,-4,4,-12,-10,5,68,90,55,-11,-10
1490138507758,-3,11,45,56,84,58,4,-14,9,-25,-18,-27,-69,-32,-8,5
1490138507807,1,5,-22,-21,-10,-82,-15,-6,3,-12,-9,22,40,95,-2,13
1490138507860,63,-25,1,-128,-69,-50,12,55,-18,-10,-77,-118,-102,-99,-7,-13
1490138507862,-19,-21,8,-24,-78,72,13,2,11,-15,-47,-84,-61,-88,-19,-12
1490138507904,-8,26,33,56,20,-17,-30,10,5,-13,-26,-51,2,-9,-37,20
1490138507953,-12,-5,-16,-38,-50,5,-40,-34,3,0,-4,24,-14,-26,1,-13
1490138508002,-34,-19,-26,31,8,-25,-57,-30,0,24,29,51,54,7,84,2
1490138508051,-3,-18,9,79,41,39,31,-21,42,61,69,-62,30,50,1,36
1490138508099,5,7,106,95,109,100,23,20,-28,-33,-52,-94,-128,-128,-55,-24
1490138508100,-1,21,120,127,90,68,-6,-13,21,9,5,-7,41,58,4,26
1490138508149,5,34,-33,-70,96,70,27,7,-16,-47,-100,-58,-128,-122,-27,13
1490138508198,6,9,48,-25,24,65,-6,-26,5,49,34,116,98,63,16,36
1490138508249,-53,-78,-126,-119,-128,-103,-41,-66,67,70,113,51,67,65,-7,54
1490138508294,-31,10,89,110,76,-5,3,-9,29,10,25,61,60,68,12,11
1490138508297,4,-13,-116,-118,-48,8,11,40,22,-36,16,-45,-84,-32,-3,-18
1490138508343,23,29,-63,-128,-128,-79,13,21,-61,-36,-87,-54,-22,-67,-42,-60
1490138508393,-13,-41,25,-77,-29,-53,-30,-33,-7,-24,-54,90,111,11,-13,-40
1490138508441,10,62,127,127,76,37,-13,8,39,-75,-93,63,112,95,47,-9
1490138508489,5,-52,-105,-91,-95,-77,-15,-29,-27,5,95,-28,-1,-57,-39,-40
1490138508538,4,-28,-44,-100,-97,-2,24,-2,-45,-30,-20,-16,-6,9,-4,-19
1490138508539,36,12,-66,39,20,50,-2,-69,-26,19,-15,-25,-49,-37,4,0
1490138508587,78,58,92,43,16,-44,-5,46,-58,-54,-128,-48,-62,14,-4,-79
1490138508636,-2,-13,-53,86,48,48,27,71,17,40,98,18,61,1,-15,12
1490138508685,-21,-18,67,33,71,53,-6,9,17,110,68,-1,-107,-30,10,-13
1490138508733,-7,25,-7,70,74,16,20,6,15,30,86,69,1,41,-19,37
1490138508781,-14,45,-18,-115,-98,3,-9,11,-75,-120,70,-103,4,17,49,-14
1490138508782,13,0,-92,-37,52,27,34,55,26,20,100,95,9,43,2,19
1490138508831,-33,29,12,70,29,30,18,31,61,-11,-128,-83,23,-54,-57,-1
1490138508879,33,45,124,89,16,42,37,40,8,-51,-110,112,91,102,72,41
1490138508929,-29,69,-64,-104,-41,-35,-22,-60,-57,-37,66,-62,-86,-58,-22,-33
1490138508978,23,-84,-67,-32,1,-42,-2,-55,17,32,59,-45,-128,-40,-45,13
1490138508987,-36,48,-65,19,28,44,22,64,10,-52,-53,8,-80,6,46,8
1490138509026,82,70,127,27,25,50,51,64,-90,2,16,-128,-125,-40,-42,-35
1490138509074,27,-59,-63,60,-19,13,17,-46,20,27,72,70,-12,26,14,5
1490138509123,-58,9,-12,-100,-60,-92,-33,-31,31,-101,-13,127,127,-13,-13,1
1490138509172,49,-4,47,-36,-72,-99,-40,11,4,-5,-7,3,76,-24,-11,-11
1490138509220,12,-82,-95,97,79,35,2,44,-39,-10,-92,-128,-128,-111,-35,-9
1490138509221,-81,127,21,53,-100,33,30,-45,47,35,-65,-100,-40,35,56,41
1490138509270,14,-12,31,41,-13,12,42,-50,20,49,-76,127,127,80,44,44
1490138509319,127,-14,-22,-49,-23,16,-4,25,-16,9,22,-63,-95,-31,-7,-17
1490138509368,41,-6,-55,123,127,73,14,-15,13,70,-67,72,15,109,60,-9
1490138509418,-31,-65,-109,-128,-128,-121,-41,29,-4,-22,37,92,127,-58,-62,-57
1490138509420,-19,-38,49,-58,-45,31,14,4,-49,-52,-21,-45,-1,-30,-17,-12
1490138509465,16,45,44,107,52,1,18,4,18,-2,-82,-128,114,-12,-5,9
1490138509513,10,23,-96,-101,-24,-7,20,41,-13,-55,25,-127,-128,-92,-44,-96
1490138509562,-14,12,0,15,-93,-24,-29,-23,18,8,-21,-82,-110,-54,35,20
1490138509611,34,43,112,61,72,72,14,8,7,21,13,-40,-9,7,61,14
1490138509659,-9,15,73,1,-2,34,-24,0,-1,20,63,64,87,18,-24,-15
1490138509660,-12,-1,26,15,-24,5,22,15,9,14,44,25,80,46,-9,-20
1490138509757,-19,-31,0,-43,-101,-26,-33,-27,-23,-9,-12,11,-38,-122,6,-44
1490138509758,-6,12,-2,16,-7,-47,29,-57,-18,-18,-29,-32,-23,118,34,72
1490138509807,35,42,-4,-12,27,27,-38,127,7,-37,-19,-14,-29,-113,-22,3
1490138509854,24,56,40,52,48,-33,-5,2,-6,-46,-3,-3,39,25,31,-41
1490138509902,18,34,32,51,91,105,-17,-25,-13,-22,-20,-3,-46,-72,37,89
1490138509904,-24,-31,36,17,14,108,0,-57,2,10,0,8,3,-61,-9,-27
1490138509952,54,14,-11,-41,-90,-7,5,107,19,-2,-48,-2,32,-46,98,-21
1490138510049,12,43,44,52,63,42,-15,30,-12,-22,22,7,-6,-25,-51,-77
1490138510098,-3,31,10,38,21,-36,-18,-68,-2,-22,28,41,46,3,10,-11
1490138510103,-21,-27,-8,12,-50,-45,-7,2,9,-6,-13,21,91,87,-24,55
1490138510105,-8,-13,-57,-27,37,3,22,-28,12,19,92,127,127,32,-70,0
1490138510147,5,41,40,49,27,-10,9,-38,-26,10,80,127,127,127,52,4
1490138510196,27,24,60,11,47,20,29,1,12,51,84,127,123,104,7,13
1490138510248,-59,-41,-3,13,-55,27,43,58,25,68,24,58,11,33,30,-81
1490138510294,10,-6,17,44,53,25,-29,52,14,55,71,-8,27,-11,0,-23
1490138510341,-32,10,-14,-128,-128,-67,-3,-31,8,-91,-34,22,88,-23,-9,2
1490138510342,3,-80,-95,3,27,-107,-90,-23,64,98,38,0,65,112,74,21
1490138510391,-3,-59,-40,-69,-50,-40,8,19,-36,-78,-84,38,2,-69,10,-39
1490138510439,-34,80,105,92,69,44,15,-37,91,-41,65,-100,86,69,18,66
1490138510488,-35,-50,-81,-85,-81,-21,4,-70,0,26,-97,22,9,-17,-32,-1
1490138510539,18,35,124,127,127,123,59,9,0,25,41,86,17,-36,-89,42
1490138510591,-27,51,-29,-126,-128,-68,-28,-77,7,-50,2,-25,-6,-7,-3,-6
1490138510592,61,53,63,-32,-97,21,27,-11,-40,65,127,127,127,127,26,22
1490138510635,-24,-3,-106,-92,-53,-7,34,-16,-11,-83,84,127,118,66,22,47
1490138510683,77,92,16,13,-15,-2,-26,70,17,-67,-20,-128,-93,-11,20,45
1490138510733,-27,-25,-46,-91,-86,-50,-15,37,-31,-36,-58,-128,-128,-128,-33,-21
1490138510780,-27,22,3,-10,9,-37,-64,-69,22,61,-2,-114,-127,-7,51,-39
1490138510782,-40,-71,-18,12,22,-44,-38,23,-44,-50,-78,-14,-51,-30,-26,-72
1490138510830,40,54,74,-14,-24,55,25,1,19,8,46,-38,-9,-14,-1,30
1490138510880,15,87,41,-63,-11,-22,-30,-8,-43,-10,-114,-10,-7,15,-52,-38
1490138510927,-10,-24,28,21,-69,25,32,6,-18,31,-71,-35,-24,-21,13,-23
1490138510979,-31,60,-100,-12,29,-8,-47,-104,50,37,44,61,27,22,30,21
1490138511024,-22,-58,16,9,33,-8,-6,105,24,60,-26,-63,-23,16,8,-128
1490138511027,-28,-20,-66,-57,-80,-12,3,-108,9,34,77,54,50,3,8,18
1490138511073,35,-48,113,83,84,8,55,77,-25,-86,-108,81,91,61,68,-21
1490138511122,-91,30,-9,-128,-36,56,-51,-16,91,-24,-49,127,126,-6,-7,127
1490138511171,-10,-29,-128,23,86,-44,-12,-31,-70,23,96,33,40,-15,-83,-128
1490138511219,4,-45,85,37,79,-19,-26,42,-20,-88,-128,-115,-66,-45,-8,65
1490138511316,26,-23,-60,-31,-122,-39,-35,12,12,-56,-72,-109,-122,-92,-18,-48
1490138511318,15,-92,74,19,-7,-35,-34,73,36,37,-128,-107,-128,41,58,54
1490138511319,-33,-52,-100,-92,-66,-50,-34,-66,17,-20,-40,-91,-77,28,47,-66
1490138511367,20,28,-62,27,85,-13,-5,24,-53,35,39,-49,-117,-81,-46,5
1490138511414,-14,44,-82,47,-80,-80,16,-30,7,25,127,62,127,3,14,-29
1490138511462,-36,13,-35,-47,-66,-45,-22,-18,-76,-16,78,127,127,14,-28,-53
1490138511464,32,-4,-84,-120,-61,4,8,54,-6,-16,127,65,31,-14,8,-22
1490138511512,11,22,127,127,91,93,23,11,-34,-87,-128,-128,-74,-64,-22,3
1490138511561,-10,-18,-50,0,-76,-54,-41,-15,3,5,34,38,43,-45,45,-3
1490138511658,20,16,66,-67,17,-4,-37,24,11,11,47,-104,30,62,47,6
1490138511660,5,34,107,112,127,79,20,19,-2,2,-45,-128,-111,16,-11,15
1490138511708,-14,-35,-52,-128,-118,-50,-47,28,16,45,118,127,34,76,11,-18
1490138511712,14,-2,-36,-94,-103,-95,53,13,-8,9,-21,6,96,30,-38,11
1490138511756,16,-35,-9,27,69,35,-14,19,14,-18,-50,-61,14,31,-42,37
1490138511805,10,27,30,78,127,61,-25,-36,-44,-11,-21,-49,-113,-111,-25,-4
1490138511853,2,9,-45,-18,-37,64,7,15,-17,47,15,-23,-82,-46,3,32
1490138511901,-10,2,-6,-22,-18,43,-3,3,33,-5,-13,32,-11,17,-14,23
1490138511902,2,-26,0,16,39,67,-48,11,12,3,-17,14,28,59,75,-1
1490138511951,-16,19,11,34,51,25,38,6,16,-30,-25,-62,-96,-73,38,-45
1490138512000,-4,-26,-7,-21,-31,40,23,-5,1,4,-2,21,55,-85,28,29
1490138512097,18,12,-8,-4,7,-69,-83,1,-16,3,6,-10,39,40,25,-3
1490138512146,12,-13,-3,17,-42,26,45,-4,4,-21,-15,-27,-22,-8,-10,-19
1490138512194,11,-27,-57,-73,-39,1,20,13,-1,7,32,14,-35,-53,-2,-15
1490138512196,-15,-24,-47,-5,-62,-35,-1,4,2,25,-51,3,-44,-42,-34,-46
1490138512204,-20,-21,-7,14,-63,-108,-24,52,-4,71,-33,68,82,-8,-10,-2
1490138512243,-44,-16,12,71,39,-1,-36,-29,19,5,36,53,105,62,-34,5
1490138512292,27,-52,-128,-103,-39,-75,-54,37,-33,83,31,-13,-58,7,84,-28
1490138512341,2,11,1,64,127,109,-13,3,22,29,4,-6,-83,-78,19,-10
1490138512389,38,66,127,40,34,24,3,14,-30,-33,-71,-84,-38,26,8,34
1490138512390,-11,-1,23,-52,-56,-41,17,1,33,8,76,88,127,-2,-7,-4
1490138512438,-48,-14,-28,43,30,-87,19,-36,-9,26,95,-42,-55,-33,12,3
1490138512487,-26,35,10,27,55,-13,-16,76,44,2,-62,-128,-107,-1,31,-75
1490138512537,10,21,-95,-126,-36,6,8,25,27,-40,73,69,74,63,7,59
1490138512584,-99,-54,-128,10,37,-31,-12,-91,92,17,37,-63,-93,-4,35,65
1490138512587,31,-62,-89,-57,75,46,39,-6,-58,-94,-47,87,-86,-5,-32,14
1490138512633,-43,80,9,-70,-67,-29,-12,-9,29,-33,-14,-91,-70,-44,1,-47
1490138512682,-12,-27,-37,-58,-33,-20,-14,20,16,-37,105,60,67,23,41,7
1490138512731,12,-36,19,-14,-61,-39,-64,7,-13,-24,16,-64,-48,20,74,-37
1490138512779,-11,-85,104,-22,47,-8,-26,-20,-72,72,-96,-102,-31,-5,-1,-1
1490138512828,-4,18,-6,-16,-4,27,36,-6,0,-74,-10,-42,7,-4,-27,-38
1490138512830,-54,73,74,37,-2,6,25,-19,17,64,-13,69,52,9,-11,-45
1490138512877,34,90,-37,-24,-81,-19,-15,29,-22,68,127,45,9,-16,27,-63
1490138512926,-27,1,45,-87,-80,-39,-22,68,25,74,-77,10,-43,-25,2,-34
1490138512975,-37,-128,-58,32,41,-4,-44,-7,39,113,119,56,21,31,64,42
1490138513023,38,-103,-99,-61,-20,14,18,32,-55,-29,48,-15,-37,-48,-84,-18
1490138513072,-3,83,52,-60,-70,-4,7,34,17,59,127,53,1,-27,-30,-74
1490138513074,-9,1,-34,32,65,35,11,-68,-2,24,36,105,42,30,23,41
1490138513121,-66,-88,39,-128,16,2,-16,-27,60,69,46,74,98,24,5,37
1490138513170,118,-50,52,127,119,45,6,-36,-26,-66,-46,-103,62,40,30,86
1490138513219,8,13,-4,111,46,39,-22,-32,16,123,79,127,127,110,53,4
1490138513315,-98,89,-33,-128,-105,-111,-49,-54,45,-68,-20,63,124,11,-7,37
1490138513364,54,-66,-84,92,74,-5,3,34,-14,-100,-101,-96,-53,-57,-37,-28
1490138513365,10,-128,-23,24,-100,35,15,49,-36,-10,18,127,105,31,5,-42
1490138513366,-20,-4,70,-12,74,-3,12,-41,-22,-39,17,-73,-49,17,-3,-10
1490138513413,40,1,127,101,69,83,40,-118,34,57,35,106,111,58,17,16
1490138513462,-27,127,-71,-128,45,-70,-66,9,-25,-53,-74,-31,-128,-69,-41,-46
1490138513510,-29,-42,-128,-128,-128,-97,7,4,-61,-29,13,84,81,-29,-29,-25
1490138513512,-39,2,118,120,95,127,32,-39,15,-106,23,-106,-106,-70,-33,31
1490138513560,-11,8,114,118,109,30,11,-12,7,-17,-128,-128,-29,25,-1,15
1490138513610,-27,-48,-32,-27,54,3,46,-27,76,108,127,127,127,127,39,81
1490138513657,28,38,15,24,15,67,6,29,-9,-14,-64,-67,-56,-72,-3,-18
1490138513706,-10,14,-9,-19,-121,-75,-13,18,0,-20,30,81,16,29,14,31
1490138513754,0,-24,-7,-55,10,86,8,9,8,-12,-11,103,-9,-48,-9,15
1490138513755,-6,39,29,-88,0,56,-15,-20,4,-31,35,100,102,89,15,0
1490138513803,-8,16,35,102,118,2,38,1,14,13,-14,-86,-50,33,0,-4
1490138513900,15,19,11,-41,-128,-128,-2,23,5,-45,6,14,12,32,8,-2
1490138513902,-22,-17,-20,19,-34,-110,-15,-26,14,-13,-17,-86,50,68,-79,-10
1490138513950,-23,-23,22,38,99,9,-33,-18,1,29,4,-2,-16,126,9,-18
1490138513953,5,-42,-44,-78,-78,-69,0,13,-3,13,-26,-64,20,60,-16,-17
1490138513998,13,20,48,-9,96,57,-6,6,-9,0,-1,-44,-61,40,-101,-6
1490138514047,-18,-23,-49,-101,-107,-98,-6,16,-7,-3,-9,-2,4,5,25,-10
1490138514096,-2,-17,-26,-2,26,51,-9,-10,-18,3,24,79,29,-37,35,40
1490138514144,15,2,54,22,29,55,4,46,-14,-40,-18,-18,-19,23,-15,-44
1490138514193,14,-16,-7,-22,-56,-24,-11,-30,-3,17,25,50,-7,-21,2,36
1490138514194,-9,9,-24,-47,-1,-3,-42,-5,8,-47,25,33,10,24,104,18
1490138514242,-21,-37,-52,-42,-13,-17,12,-35,10,-20,-61,11,18,12,4,11
1490138514291,-39,-11,-15,-44,-30,-18,23,-4,8,26,53,100,102,69,53,-26
1490138514340,5,-38,-79,-73,-110,-92,-50,2,-33,-64,-128,-112,64,-6,-4,-9
1490138514389,5,29,54,118,111,72,45,-13,-5,8,18,21,0,37,-13,-4
1490138514437,-18,82,15,-82,-34,17,7,-19,-32,-79,-42,-128,-5,-30,-20,22
1490138514446,-3,8,66,-128,-123,33,42,49,10,37,11,-8,-34,-28,-53,-54
1490138514486,-42,-121,28,12,-27,-52,-13,-40,7,0,-20,53,102,48,0,-21
1490138514534,61,48,-63,64,11,85,-13,43,-51,17,25,-94,-128,-80,-19,-14
1490138514583,-24,-37,-60,-9,-91,-28,-3,-27,38,40,36,101,36,84,22,17
1490138514631,-3,-6,-116,-102,-41,-35,-20,-12,70,61,71,127,91,42,12,49
1490138514633,4,30,-107,68,67,10,5,17,-58,-53,-64,-128,-88,-73,-30,-35
1490138514682,49,-29,89,126,109,72,10,12,-7,127,79,125,127,87,26,37
1490138514730,25,26,19,85,50,-8,-23,-35,-25,-73,39,-49,-8,-4,26,-6
1490138514826,-16,-10,-14,13,60,-5,-5,28,24,49,5,-60,-63,0,33,-16
1490138514828,14,-5,-6,-5,105,67,4,-5,12,32,73,94,107,55,14,20
1490138514877,2,17,-5,-88,-64,-35,-12,6,-26,-50,6,-84,-94,-35,-45,-21
1490138514881,-12,103,127,-2,-66,-27,-27,-32,18,-39,-126,-38,2,9,-5,49
1490138514927,5,-31,11,-14,15,-7,20,22,-19,20,-3,36,43,15,-15,-6
1490138514973,11,-46,101,35,21,24,15,19,1,61,27,63,95,46,17,13
1490138515022,18,43,-33,11,17,10,4,-3,-1,-107,62,-24,6,2,-19,-9
1490138515119,57,66,-60,-62,61,6,4,21,-30,-75,-47,-72,-85,-20,-1,-21
1490138515121,17,31,-33,-6,1,8,9,18,31,127,19,33,-20,-15,-7,-4
1490138515123,-9,50,15,14,1,-9,-11,17,-33,4,-50,-51,5,-10,-11,-8
1490138515168,21,-128,-24,-97,-45,-10,-7,5,-17,-26,-29,52,74,11,-13,-18
1490138515217,-62,-76,54,-13,-19,-15,-14,-38,41,46,-44,3,13,-1,-10,1
1490138515266,-51,-6,44,91,64,2,-4,31,40,-72,66,1,-5,-1,7,-2
1490138515314,7,7,-38,-106,-57,-23,-9,23,-16,59,9,65,-2,-10,-11,-13
1490138515316,79,12,2,26,-11,-12,-5,46,-29,-12,3,14,-4,11,37,16
1490138515364,-19,-36,-18,-1,7,9,9,-17,-4,-10,25,-34,-19,1,12,1
1490138515412,61,-46,-28,6,-43,-12,3,14,-29,-49,-2,-41,-21,-13,9,31
1490138515461,14,9,-12,16,58,10,4,7,-5,-2,18,-54,-82,-20,-19,0
1490138515510,-38,29,24,-6,-19,-11,-8,-55,13,-76,-29,5,-2,3,-4,7
1490138515558,-10,58,40,11,-13,-32,-12,18,-22,-2,24,-15,-10,9,-7,-38
1490138515560,12,-72,48,64,2,21,3,10,26,122,-23,20,25,-3,5,14
1490138515607,-19,-30,-74,-33,-47,-20,-8,-16,23,-26,-67,-87,-31,-21,-12,-11
1490138515656,29,38,-4,-21,-15,-4,-6,-1,-15,-2,49,1,3,-9,-5,2
