1490984436637,0,-24,36,-20,36,37,14,-36,13
1490984436637,0,77,38,59,-113,28,63,-59,86
1490984436638,1,25,-22,-14,-116,-34,18,-27,7
1490984436638,1,11,-7,-9,-71,-34,13,-16,17
1490984436639,2,-19,-42,-29,-30,-52,-22,13,-25
1490984436639,2,-43,-21,-26,34,-19,-25,20,-38
1490984436685,3,15,1,-4,26,-1,-18,8,4
1490984436685,3,-43,-18,-15,15,-16,-24,14,-33
1490984436686,0,9,4,10,11,5,1,12,8
1490984436686,0,28,2,-3,22,4,-9,6,-5
1490984436686,1,-21,0,7,13,5,-2,6,-9
1490984436686,1,-13,0,2,27,10,-7,3,-8
1490984436687,2,3,-4,12,-7,8,8,-2,-8
1490984436687,2,-21,6,0,9,0,3,3,-16
1490984436733,3,15,-1,-7,18,-1,-10,1,35
1490984436733,3,8,8,4,3,10,6,-9,11
1490984436734,0,-1,7,14,-17,-1,5,-5,13
1490984436734,0,9,-14,-25,-18,-18,-18,9,-28
1490984436735,1,-47,-7,4,13,10,5,2,3
1490984436735,1,4,1,3,3,13,6,-4,-3
1490984436785,2,13,2,9,-13,-6,4,3,4
1490984436785,2,27,11,-5,6,-7,-5,6,6
1490984436786,3,-14,4,-1,-5,1,-1,-2,-10
1490984436786,3,7,8,7,-2,9,17,-5,10
1490984436787,0,11,-8,-7,-1,-2,-1,-2,-6
1490984436787,0,-42,-16,-3,12,-3,-6,0,-13
1490984436788,2,17,7,8,1,3,0,-1,4
1490984436788,2,-23,-6,-2,2,0,-3,-2,-16
1490984436831,3,-72,-8,0,9,3,-1,1,16
1490984436831,3,21,5,0,-7,-2,-3,1,6
1490984436833,0,13,0,-2,-13,-3,-6,0,-7
1490984436833,0,25,9,3,5,6,4,3,11
1490984436833,3,28,17,0,1,-4,1,1,27
1490984436833,3,19,-10,-7,-7,2,7,3,14
1490984436835,0,22,4,1,-2,-4,-1,-1,2
1490984436835,0,-6,-9,-1,8,-2,1,-1,-1
1490984436880,1,0,-4,2,1,3,0,0,-19
1490984436880,1,-9,15,3,4,3,-2,1,3
1490984436881,2,-5,-3,0,4,3,3,0,-6
1490984436881,2,14,1,-2,-4,-1,0,-3,19
1490984436882,0,-3,5,4,7,6,0,4,10
1490984436882,0,-2,5,-2,6,5,3,10,0
1490984436883,1,19,0,3,-3,-6,-2,-1,-12
1490984436883,1,1,4,-3,-10,-11,-3,-1,12
1490984436928,2,-24,-7,-1,2,-4,-5,2,-30
1490984436928,2,-17,7,-1,0,-3,0,1,25
1490984436929,3,31,-12,-15,0,3,1,0,-4
1490984436929,3,21,13,3,-6,1,-8,4,-4
1490984436932,0,17,-32,-9,-8,-2,3,-1,11
1490984436932,0,-24,7,10,12,8,5,-2,-11
1490984436932,1,-8,7,7,-3,-1,1,-2,-2
1490984436932,1,19,17,10,6,0,4,1,3
1490984436977,2,-10,-1,-9,-7,2,-1,1,-2
1490984436977,2,15,-41,-17,-15,-6,-4,-1,-6
1490984436979,3,-59,-20,-3,1,1,6,1,2
1490984436979,3,17,12,3,0,4,1,-3,-2
1490984436979,1,-23,9,8,18,-4,-2,2,-22
1490984436979,1,12,2,5,2,-1,-6,0,14
1490984436980,2,-15,22,1,-7,1,0,5,-12
1490984436980,2,-35,2,8,2,3,-4,1,13
1490984437026,3,40,-8,-7,-7,1,1,8,-13
1490984437026,3,-35,-13,-4,17,4,4,2,10
1490984437027,0,-28,6,-5,-9,-5,-7,3,-14
1490984437027,0,14,-15,-18,-5,-5,1,1,3
1490984437028,2,13,-38,-10,5,6,-3,-3,4
1490984437028,2,-15,16,14,10,-3,1,4,2
1490984437029,3,1,10,3,-2,-6,-5,-3,3
1490984437029,3,0,-30,-18,-5,-5,-7,4,-22
1490984437075,0,-8,13,5,-12,-6,0,2,3
1490984437075,0,7,17,9,0,-2,1,4,10
1490984437076,1,4,-11,-7,4,12,-1,0,-18
1490984437076,1,5,3,3,-3,-26,-4,3,42
1490984437077,3,-1,19,9,5,-6,-2,-5,20
1490984437077,3,30,9,-2,-4,4,-4,-3,-7
1490984437077,0,-51,-16,5,6,-1,4,-3,-4
1490984437077,0,-9,-18,-18,-13,-6,-15,-9,6
1490984437124,1,17,18,6,5,0,3,1,-7
1490984437124,1,52,49,17,-5,6,3,0,4
1490984437125,2,-30,-46,-32,5,-9,4,-2,-9
1490984437125,2,30,42,2,-13,5,-1,0,0
1490984437127,0,62,37,45,22,1,6,-2,23
1490984437127,0,-76,-60,-33,19,1,-5,-4,-25
1490984437128,1,52,-20,-39,-13,-17,6,0,-2
1490984437128,1,-64,1,6,-8,10,3,10,-11
1490984437172,2,59,26,5,-10,8,2,-1,7
1490984437172,2,-8,-34,14,16,9,1,0,-1
1490984437174,3,-5,25,-17,-15,-10,-6,3,25
1490984437174,3,-13,-57,-22,7,3,-3,-3,5
1490984437175,1,-44,-13,23,23,7,1,1,-9
1490984437175,1,18,-4,-15,-7,9,4,-2,-1
1490984437176,2,25,10,6,-3,6,-4,4,13
1490984437176,2,36,18,18,6,-8,-5,1,10
1490984437221,3,-41,-28,-28,-7,3,-3,-5,-25
1490984437221,3,-24,-4,-8,-22,-13,-2,0,2
1490984437223,0,-5,26,45,18,7,1,4,-15
1490984437223,0,6,33,-25,-26,1,-1,-3,9
1490984437224,2,-17,21,-29,-3,-7,-4,0,-7
1490984437224,2,-6,-7,18,-5,0,4,3,-11
1490984437225,3,56,75,47,11,6,1,2,17
1490984437225,3,13,-31,-27,-25,-1,0,0,10
1490984437270,0,-31,-29,-16,-21,-1,-2,-5,-18
1490984437270,0,43,38,-19,-6,-6,-7,1,19
1490984437272,1,-25,-30,-14,0,-1,-2,0,-18
1490984437272,1,2,-8,39,8,7,9,4,9
1490984437273,2,-4,12,1,37,7,4,-1,4
1490984437273,2,58,45,45,-59,-2,0,-1,0
1490984437274,3,-70,-107,-52,35,23,-8,-4,2
1490984437274,3,-5,73,-40,-5,-37,-7,-5,-31
1490984437318,0,42,-57,-22,-15,-3,-5,0,24
1490984437318,0,-51,-56,7,14,6,11,1,-40
1490984437321,1,23,43,59,1,15,7,0,15
1490984437321,1,23,66,23,-2,6,0,3,21
1490984437322,3,-37,5,22,-21,11,16,0,9
1490984437322,3,22,41,63,81,17,0,-1,-10
1490984437323,0,-12,19,19,18,2,-1,-4,27
1490984437323,0,-36,-5,36,44,-2,-3,5,-22
1490984437367,1,-27,1,-47,-93,-36,-10,4,-3
1490984437367,1,26,-29,13,-18,10,-1,-1,-6
1490984437369,2,25,-72,-85,-9,-17,12,4,5
1490984437369,2,-15,65,33,46,18,4,0,3
1490984437370,0,88,64,65,-30,-18,-4,-2,24
1490984437370,0,-58,-34,-6,18,-6,-7,-3,-6
1490984437371,1,-60,27,-1,8,2,-8,4,-34
1490984437371,1,-32,-69,-66,28,9,-4,-4,9
1490984437416,2,44,91,52,-87,-11,-6,2,-6
1490984437416,2,23,-71,-63,41,4,15,-1,19
1490984437418,3,24,64,68,-21,12,-17,3,-11
1490984437418,3,-23,36,5,-38,-23,-8,-1,-8
1490984437419,1,5,6,26,-26,0,-21,-2,-1
1490984437419,1,25,74,-33,-54,-17,16,-2,-1
1490984437420,2,-46,-49,16,19,-11,-8,-6,-17
1490984437420,2,47,122,51,-11,23,16,-5,27
1490984437465,3,-21,-128,10,74,21,13,3,6
1490984437465,3,-19,28,-37,11,-2,-11,-4,3
1490984437467,0,27,-18,-12,-20,-1,4,-1,11
1490984437467,0,-14,-5,58,31,10,6,1,-28
1490984437468,2,29,-49,-128,26,-6,-6,-2,-7
1490984437468,2,-44,-11,-5,-48,14,-7,-2,-2
1490984437468,3,71,57,-2,-30,-17,4,-2,23
1490984437468,3,-24,-24,-16,12,-5,5,2,-3
1490984437514,0,-43,-44,-11,-15,17,-3,-2,-6
1490984437514,0,24,40,0,-52,-11,7,3,24
1490984437514,1,-17,18,44,106,9,-6,2,1
1490984437514,1,-10,-16,-73,-31,11,5,-1,2
1490984437515,3,2,-37,-10,8,11,20,0,13
1490984437515,3,2,-1,12,-14,18,-7,1,2
1490984437516,0,-61,-29,-38,35,15,12,-1,-11
1490984437516,0,31,30,28,19,-17,-7,-3,-22
1490984437562,1,-24,-39,-75,-7,-10,-10,-3,-18
1490984437562,1,32,-31,-31,-51,-14,-3,-4,-9
1490984437564,2,-6,52,31,-53,-1,0,-2,14
1490984437564,2,-14,-36,59,25,42,-2,3,3
1490984437565,0,43,18,-31,-4,-8,-6,0,10
1490984437565,0,-93,-11,-16,-12,-13,-4,-2,-35
1490984437567,1,50,41,50,12,42,11,-2,14
1490984437567,1,26,57,47,-4,-11,-10,-4,10
1490984437611,2,-63,-80,-66,-49,-35,-13,0,-21
1490984437611,2,76,-63,38,-22,-11,-1,0,17
1490984437613,3,-31,-128,-43,-20,13,7,-2,1
1490984437613,3,21,18,115,48,12,5,3,11
1490984437614,1,-17,45,-51,-73,-18,-15,-3,-31
1490984437614,1,-15,-44,88,-36,7,-2,-1,8
1490984437615,2,1,-99,41,51,22,4,-1,22
1490984437615,2,-17,34,-2,-40,-22,-2,-5,-3
1490984437660,3,22,99,40,51,4,3,1,38
1490984437660,3,22,86,-46,37,2,-9,-4,-18
1490984437662,0,-51,-31,98,-64,4,-4,1,13
1490984437662,0,19,-61,9,101,-11,-10,2,-35
1490984437663,1,-7,-108,-127,-91,-14,2,2,-6
1490984437663,1,10,-14,43,-38,-7,-7,-2,1
1490984437664,2,6,-84,122,68,14,12,-4,11
1490984437664,2,12,92,-15,92,6,2,-2,3
1490984437708,3,-49,127,-55,-61,-41,-20,-4,-38
1490984437708,3,-32,107,18,-17,-26,4,4,-9
1490984437711,0,2,58,-6,55,48,3,-2,12
1490984437711,0,14,-77,56,12,13,5,-2,11
1490984437712,2,14,127,31,-52,21,5,-8,7
1490984437712,2,-6,52,-18,75,16,0,2,16
1490984437713,3,14,-29,-97,-49,-26,-22,-2,-11
1490984437713,3,-46,-128,-61,-72,-47,-2,-2,-35
1490984437806,0,5,-27,38,33,31,5,6,0
1490984437806,0,29,-42,69,-29,2,5,-1,16
1490984437807,1,45,-88,127,102,30,15,-1,7
1490984437807,1,-58,61,-62,28,-11,-9,-4,-17
1490984437808,3,35,49,-4,90,44,2,-3,10
1490984437808,3,20,-68,116,23,-9,7,3,23
1490984437809,0,-24,-74,-87,22,-17,4,0,-21
1490984437809,0,-16,-111,-78,-126,-5,-3,-4,-6
1490984437855,1,-16,-7,96,26,-1,-2,0,6
1490984437855,1,17,-57,66,68,42,-18,0,0
1490984437856,2,8,-9,13,13,4,8,1,-5
1490984437856,2,11,-44,-64,-59,-39,3,0,16
1490984437857,0,-16,34,100,105,9,-11,-3,-17
1490984437857,0,18,11,-59,-41,9,-14,-1,26
1490984437858,1,-7,37,41,-20,42,-3,-3,8
1490984437858,1,34,-105,-32,33,1,-1,1,-17
1490984437903,2,-17,-128,-15,-20,-42,-50,3,8
1490984437903,2,0,-81,127,100,56,29,-1,1
1490984437905,3,44,26,-30,-19,-24,22,0,4
1490984437905,3,25,-17,-48,-79,-15,-21,-3,12
1490984437905,2,29,4,44,-41,-35,-8,-1,4
1490984437905,2,-27,56,-68,53,14,11,3,-14
1490984437906,3,42,127,72,107,37,26,-3,-8
1490984437906,3,13,75,-33,117,18,-3,1,32
1490984437952,0,113,-66,-34,-75,-9,-24,5,7
1490984437952,0,12,-67,72,-92,-46,-19,-2,-17
1490984437953,1,-91,-49,41,-73,22,-30,-4,-2
1490984437953,1,-93,-47,-41,-94,-34,-51,-4,-16
1490984437954,3,67,83,44,89,17,10,-2,5
1490984437954,3,9,104,32,108,35,-14,1,-18
1490984437955,0,-21,127,12,91,35,3,0,9
1490984437955,0,-9,24,13,-87,16,-8,0,1
1490984438001,1,-19,-101,91,-126,-39,18,0,9
1490984438001,1,-30,-106,-93,-128,-82,-14,-1,-10
1490984438002,2,34,-23,-2,-52,1,-8,5,1
1490984438002,2,-2,-16,-16,70,54,1,-1,-9
1490984438003,3,13,-28,6,66,18,-14,2,14
1490984438003,3,41,28,40,83,62,12,-1,15
1490984438004,0,-8,62,104,110,11,4,-1,-6
1490984438004,0,-32,26,98,22,-39,-31,-2,8
1490984438050,1,13,16,56,-20,-3,3,0,-15
1490984438050,1,5,-16,-62,-58,-61,20,-4,0
1490984438051,2,-32,-81,-110,-103,-7,-3,-1,2
1490984438051,2,43,-69,-2,35,66,-5,1,-4
1490984438052,0,-11,85,29,-27,-3,30,-3,-6
1490984438052,0,-47,9,3,-19,-43,0,-4,-5
1490984438053,1,-7,-20,-18,7,-3,-26,-1,12
1490984438053,1,-31,-71,32,-28,64,2,-1,-6
1490984438098,2,34,-9,74,-32,-44,-42,-3,21
1490984438098,2,20,35,-22,-35,-40,-10,-4,-19
1490984438100,3,39,-12,-116,-86,12,14,-5,7
1490984438100,3,-9,-10,22,25,-10,37,-3,4
1490984438100,1,73,14,-41,42,-6,-65,-2,14
1490984438100,1,35,77,-82,-29,-1,-16,-4,-3
1490984438101,2,-61,44,-68,20,-23,1,-1,-6
1490984438101,2,-125,-2,-83,-47,-34,15,-1,-1
1490984438147,3,-67,-26,-76,-33,6,-4,2,-19
1490984438147,3,105,-56,-67,-18,-10,-33,3,0
1490984438149,0,53,86,-12,-95,-55,27,-4,-16
1490984438149,0,-28,79,20,20,16,-14,1,18
1490984438149,2,52,-16,-37,39,25,11,1,-11
1490984438149,2,45,43,-63,25,-21,-49,-1,-5
1490984438151,3,-35,78,-128,-52,-2,15,1,16
1490984438151,3,-50,29,-3,-1,-31,-34,0,-18
1490984438196,0,109,-27,-128,-40,1,-51,-3,-12
1490984438196,0,83,33,-48,-31,31,3,4,-8
1490984438198,1,-34,66,11,-36,-23,-58,-1,-17
1490984438198,1,-116,53,82,-22,-18,-90,-3,21
1490984438199,3,127,-123,-101,-4,30,9,-2,11
1490984438199,3,127,83,-105,-106,-71,73,8,-64
1490984438200,0,-113,77,-128,-127,-83,127,1,-118
1490984438200,0,-111,-40,20,-77,-46,127,-6,-104
1490984438245,1,-121,-82,124,26,-87,114,0,27
1490984438245,1,-99,-128,127,65,63,127,2,32
1490984438246,2,7,-99,127,52,-8,117,3,39
1490984438246,2,-11,14,97,47,-21,74,0,68
1490984438247,0,51,9,94,35,36,-110,-1,2
1490984438247,0,20,9,19,-17,8,-118,1,5
1490984438248,1,24,22,9,4,46,-117,-3,25
1490984438248,1,15,37,25,21,3,-118,-3,42
1490984438293,2,25,1,-1,4,22,-128,-2,23
1490984438293,2,-5,-18,-44,-31,-15,-90,-7,-22
1490984438294,3,-6,11,-22,6,64,-119,-2,-11
1490984438294,3,-5,20,-14,-2,40,-9,0,10
1490984438295,1,-8,19,-14,-1,27,10,1,-26
1490984438295,1,-14,-13,-34,-17,-30,14,0,-12
1490984438296,2,2,-32,-17,-5,36,38,3,22
1490984438296,2,13,12,-14,-3,-63,6,6,-7
1490984438342,3,-35,-3,-12,-6,49,34,1,-24
1490984438342,3,11,20,15,17,-62,2,-2,14
1490984438343,0,7,-17,-16,-6,8,-15,0,-26
1490984438343,0,7,15,-5,-10,-39,49,1,24
1490984438344,1,12,4,-14,0,-26,-16,3,-3
1490984438344,1,-3,3,3,-8,41,23,-3,13
1490984438345,2,-12,-15,-27,-19,-36,8,-1,-14
1490984438345,2,-2,-6,-2,1,12,-14,-1,-30
1490984438391,3,8,4,-7,2,6,32,1,3
1490984438391,3,-15,-5,-4,5,16,33,-4,-23
1490984438392,0,18,14,14,9,-10,-55,0,51
1490984438392,0,-19,-13,-12,-2,40,39,3,-23
1490984438393,2,-19,-15,-5,-1,35,12,-4,7
1490984438393,2,-10,-3,-13,-9,-38,-6,-4,-13
1490984438440,3,5,8,7,-3,-20,8,0,-7
1490984438440,3,6,5,0,-2,1,-12,-2,6
1490984438442,0,3,-4,7,11,13,-2,0,-7
1490984438442,0,-4,11,3,-7,-16,1,-1,-6
1490984438442,1,2,-3,-10,-16,-48,-13,-1,5
1490984438442,1,-4,-2,3,6,19,25,0,-7
1490984438443,3,7,8,4,6,8,51,-6,20
1490984438443,3,8,-1,3,7,27,-8,4,-14
1490984438488,0,-17,-11,-3,-1,15,34,-4,-3
1490984438488,0,6,10,5,3,-20,-29,1,-5
1490984438490,1,-5,-3,-2,4,7,18,-2,15
1490984438490,1,-5,-2,-6,-13,-7,-4,-2,-4
1490984438491,2,10,-2,1,5,25,18,0,-13
1490984438491,2,-18,-3,0,-1,37,-5,0,-7
1490984438492,0,8,1,-5,-12,-24,-12,-1,-6
1490984438492,0,6,8,3,-2,-3,-11,-4,13
1490984438537,1,-6,-2,4,6,27,11,-3,-33
1490984438537,1,-5,-4,-1,-2,-16,0,-5,2
1490984438538,2,-1,4,1,-3,-19,-14,-4,4
1490984438538,2,19,12,6,2,-9,12,-5,5
1490984438539,1,8,-4,-5,-9,-11,-4,-1,8
1490984438539,1,-3,-5,-6,-4,23,7,-2,-12
1490984438541,2,-1,5,11,8,19,7,1,0
1490984438541,2,-1,-8,-4,0,-24,17,-2,1
1490984438586,3,9,-3,-3,-1,6,-25,-3,8
1490984438586,3,8,17,1,-2,2,21,3,-2
1490984438588,0,5,-10,-19,-16,-20,-4,3,1
1490984438588,0,-16,-9,8,8,4,-9,1,3
1490984438589,2,16,3,-4,-8,0,22,-1,3
1490984438589,2,-8,1,-5,-4,12,-26,-1,-4
1490984438589,3,-22,-11,7,6,-5,-1,1,-12
1490984438589,3,5,13,-1,-3,-2,-14,-2,-3
1490984438635,0,-2,10,-3,-9,-12,-6,3,6
1490984438635,0,0,-39,-10,4,9,5,-1,6
1490984438636,1,2,5,2,10,20,-6,-1,-4
1490984438636,1,-2,0,0,-12,-9,17,2,-6
1490984438637,3,-5,5,-3,-6,5,-2,-7,-10
1490984438637,3,3,-12,-17,2,-1,7,-4,0
1490984438638,0,7,-10,7,7,5,5,1,19
1490984438638,0,-7,24,14,6,1,-7,3,-6
1490984438687,1,3,-43,-21,-9,-16,5,8,6
1490984438687,1,2,17,8,-9,-9,-2,-2,-10
1490984438688,2,4,-15,3,12,16,15,2,1
1490984438688,2,22,30,15,-6,-8,-12,-1,5
1490984438688,3,-9,-5,-1,15,22,5,0,-13
1490984438688,3,6,48,30,1,6,2,3,1
1490984438689,0,-7,-40,-11,8,-7,-18,-2,-2
1490984438689,0,5,20,-4,-1,1,10,-1,19
1490984438732,1,-25,-24,-28,-10,-7,1,-9,-21
1490984438732,1,-14,-24,24,1,-2,2,4,16
1490984438733,2,1,42,-16,-15,-6,-10,3,-8
1490984438733,2,-5,-13,-20,-15,-7,3,-2,-5
1490984438734,0,-1,26,10,9,-4,7,1,8
1490984438734,0,17,22,18,-10,-5,-4,1,-5
1490984438735,1,-4,13,-7,-10,-1,10,-1,12
1490984438735,1,-9,-18,-9,-5,7,-6,-2,-2
1490984438830,2,19,37,40,32,3,-13,-2,5
1490984438830,2,16,-59,-53,-10,0,4,-1,16
1490984438831,3,-19,-34,29,-13,0,3,2,-23
1490984438831,3,-13,-3,-32,-16,-3,-8,-2,2
1490984438832,1,66,72,14,3,2,-16,2,3
1490984438832,1,-13,-59,-69,-26,-13,6,-6,-10
1490984438833,2,6,16,17,-25,-9,-26,-1,4
1490984438833,2,-39,-47,-42,18,10,19,-4,-23
1490984438878,3,18,5,24,-3,2,-2,0,21
1490984438878,3,20,14,4,15,-2,-8,3,16
1490984438879,0,0,0,-14,17,12,2,-3,-17
1490984438879,0,34,26,44,-25,-12,-14,1,11
1490984438880,3,2,-39,-47,1,3,0,-1,-1
1490984438880,3,-13,15,33,8,4,-4,-2,16
1490984438888,0,37,-23,1,5,2,10,4,-2
1490984438888,0,1,-69,12,4,5,18,2,11
1490984438927,1,-3,5,41,22,1,9,2,-13
1490984438927,1,7,65,-9,-4,-1,2,-5,-15
1490984438932,2,-16,48,-9,-17,-16,-11,-4,7
1490984438932,2,11,48,26,7,5,-1,-1,-1
1490984438933,0,-11,-34,-21,-16,-13,-6,0,-7
1490984438933,0,-4,24,-27,-17,-9,-10,1,-26
1490984438934,1,-2,39,26,-19,0,-5,-1,29
1490984438934,1,-13,44,13,7,4,2,1,-8
1490984438976,2,15,-34,-50,-16,0,8,-1,5
1490984438976,2,-3,-42,9,-4,-5,17,-1,-16
1490984438977,3,-45,-1,17,48,9,5,-3,-30
1490984438977,3,-10,24,66,-12,2,6,0,16
1490984438978,1,7,37,0,-2,2,1,1,-4
1490984438978,1,9,73,1,2,-19,-4,-1,-6
1490984438979,2,9,127,28,-2,-2,-9,-3,9
1490984438979,2,-15,68,7,-7,0,-11,-1,7
1490984439025,3,56,-18,45,-16,-2,-14,-5,11
1490984439025,3,-27,-127,-76,10,2,-24,-1,-24
1490984439027,0,-13,-53,13,11,0,11,-2,1
1490984439027,0,18,7,-4,9,0,-4,0,-3
1490984439028,2,0,81,6,-33,-9,-3,0,-27
1490984439028,2,-27,127,-13,-32,2,2,-7,-20
1490984439028,3,-15,87,-7,-22,-3,7,1,-5
1490984439028,3,28,12,5,9,3,-1,0,-2
1490984439073,0,6,-48,14,51,2,8,-1,7
1490984439073,0,-9,-76,-21,55,4,-12,1,2
1490984439075,1,-10,-33,7,-50,-8,-4,1,-10
1490984439075,1,9,-98,-49,-50,-3,4,-3,7
1490984439076,2,25,9,46,-44,-3,0,0,20
1490984439076,2,-19,-103,-14,12,0,12,-1,-13
1490984439077,3,22,-87,6,106,14,26,4,20
1490984439077,3,-11,103,28,52,7,6,3,-1
1490984439122,0,30,125,-8,-36,-15,-50,3,-5
1490984439122,0,-3,127,2,-60,-12,-36,1,-4
1490984439126,1,-8,-32,-5,-65,-9,-39,-2,1
1490984439126,1,-13,-100,-37,-25,-5,7,0,-3
1490984439127,3,-5,-5,0,24,0,7,-4,25
1490984439127,3,-3,39,19,3,-2,11,-1,-26
1490984439128,0,13,-41,-4,-3,-3,10,-6,18
1490984439128,0,-3,26,4,-47,-4,-7,-3,4
1490984439171,1,9,62,-4,-40,-7,2,1,-17
1490984439171,1,-14,-62,-6,18,3,-24,-1,2
1490984439172,2,-4,-115,19,38,12,14,7,3
1490984439172,2,15,104,17,21,5,-31,-5,2
1490984439173,0,-9,-55,5,5,-3,4,-1,-12
1490984439173,0,13,-128,14,12,1,35,1,-8
1490984439174,1,2,-90,-1,23,7,15,1,35
1490984439174,1,17,-81,22,16,-1,-11,1,0
1490984439220,2,-7,-15,-16,-5,-1,0,4,3
1490984439220,2,-4,-2,-31,7,2,0,1,-5
1490984439221,3,21,58,-9,-23,2,-8,2,-11
1490984439221,3,-20,-18,19,35,11,-1,0,2
1490984439222,1,-10,76,-2,-13,-5,6,1,-19
1490984439222,1,25,-27,-5,-18,3,15,-2,11
1490984439223,2,-20,-60,-24,-14,6,-1,-4,-5
1490984439223,2,16,-54,16,25,10,6,-1,10
1490984439269,3,-7,-25,30,59,11,1,-1,-2
1490984439269,3,18,-71,5,10,6,18,-1,-1
1490984439270,0,-1,-80,16,-21,-1,30,-2,0
1490984439270,0,14,-20,-24,-33,-3,-2,3,16
1490984439271,2,19,123,5,-18,-17,-42,-1,-11
1490984439271,2,-7,-105,52,5,-12,-3,-1,10
1490984439272,3,50,-128,53,31,6,-23,-1,9
1490984439272,3,-30,-128,19,39,5,-10,0,-13
1490984439317,0,-3,-49,-17,-1,4,14,-3,0
1490984439317,0,22,-15,-25,-3,-1,25,-1,15
1490984439319,1,12,-23,-15,8,5,35,0,9
1490984439319,1,46,-41,10,-18,7,38,-1,4
1490984439319,3,10,63,-23,-2,4,16,-2,4
1490984439319,3,-16,120,-3,-12,7,25,1,-7
1490984439320,0,65,127,47,-19,-11,41,-3,10
1490984439320,0,3,42,57,-36,-18,-45,3,-17
1490984439366,1,-45,-128,39,-2,-24,-102,3,-4
1490984439366,1,0,-128,-12,-6,-24,-86,-3,20
1490984439367,2,-14,-121,-74,1,12,-9,-2,0
1490984439367,2,6,-61,-88,11,22,54,-3,-6
1490984439368,0,-54,103,59,-16,-17,2,-2,-9
1490984439368,0,-14,53,85,-5,-13,11,-4,-7
1490984439370,1,-55,-128,46,4,-1,1,-2,5
1490984439370,1,12,-128,-104,8,-2,-22,2,3
1490984439415,2,17,74,-109,-27,-7,-28,2,9
1490984439415,2,19,127,-127,-18,-12,-32,-2,-13
1490984439416,3,52,127,-88,-13,-15,-28,0,-26
1490984439416,3,-23,102,9,8,14,0,-4,-2
1490984439417,0,1,-102,56,18,17,-2,2,11
1490984439417,0,-37,-104,-50,13,50,9,1,7
1490984439417,1,-51,45,-73,-2,23,53,0,0
1490984439417,1,36,98,-62,-7,-3,17,-1,-3
1490984439463,2,18,127,-64,6,-19,-11,-2,-8
1490984439463,2,8,124,27,-13,-52,18,-1,-10
1490984439464,3,-11,-74,51,3,-47,-4,1,2
1490984439464,3,69,-110,106,0,-21,-30,1,-1
1490984439465,1,1,-123,111,17,25,-22,-3,-7
1490984439465,1,9,-119,39,32,1,2,-3,3
1490984439466,2,30,19,-26,28,17,4,-1,17
1490984439466,2,7,107,-33,-11,12,12,-2,-2
1490984439514,3,52,127,-7,-14,31,38,-1,8
1490984439514,3,-69,84,3,17,46,42,0,-15
1490984439515,0,55,-59,-8,22,30,25,5,5
1490984439515,0,19,-109,21,28,22,7,4,8
1490984439516,2,-31,108,-120,-28,-19,-13,-4,8
1490984439516,2,18,127,-107,-47,-33,-21,-2,-15
1490984439518,3,127,127,15,-62,-56,-17,-2,-13
1490984439518,3,-105,44,49,-2,-5,-58,-1,-16
1490984439561,0,-62,-102,82,10,11,-56,-1,-9
1490984439561,0,0,-105,56,5,11,-33,3,8
1490984439562,1,-13,-107,-3,16,19,60,-2,-2
1490984439562,1,61,63,-13,8,12,126,-6,-5
1490984439563,3,-106,-31,-13,9,-7,-37,1,2
1490984439563,3,-6,-41,13,-2,-21,-52,4,0
1490984439564,0,12,-38,-1,6,-2,-54,2,0
1490984439564,0,41,-50,-14,0,7,-37,-3,-10
1490984439610,1,15,1,-10,13,17,-26,2,-8
1490984439610,1,32,4,21,-15,-15,-13,-3,11
1490984439611,2,-42,-8,20,5,-14,2,0,-4
1490984439611,2,69,39,11,-3,-7,4,0,7
1490984439612,0,43,-76,-34,-2,4,8,-5,29
1490984439612,0,-21,-51,-50,12,1,9,-1,-6
1490984439613,1,41,-18,-52,8,4,-4,-4,9
1490984439613,1,8,-31,-49,-9,-6,-8,3,-5
1490984439658,2,-21,-10,-34,5,0,-1,2,-1
1490984439658,2,-44,6,-11,-16,-14,2,-7,-11
1490984439659,3,10,32,5,-14,-3,-3,-4,-17
1490984439659,3,-11,21,25,3,3,0,-2,11
1490984439660,1,-23,-15,11,4,4,0,3,5
1490984439660,1,-44,11,16,-9,-2,-6,-3,-12
1490984439661,2,24,2,-8,-12,-1,1,-1,3
1490984439661,2,16,12,16,3,9,5,0,-1
1490984439707,3,-7,-2,15,4,1,2,0,12
1490984439707,3,11,12,-2,-5,-1,-2,-3,-14
1490984439708,0,-1,4,3,-15,-5,2,-2,24
1490984439708,0,25,4,8,-5,-2,1,1,23
1490984439709,2,-45,-12,-5,10,0,-1,-3,-13
1490984439709,2,39,52,0,-17,-14,-3,0,4
1490984439710,3,-23,-58,-40,3,11,6,2,12
1490984439710,3,45,51,39,-10,6,7,-2,17
1490984439756,0,22,8,-4,-10,-3,-2,-1,-1
1490984439756,0,-41,-17,25,5,6,0,2,-16
1490984439756,1,19,7,20,3,5,-6,1,5
1490984439756,1,-11,-28,-5,26,2,0,-1,-1
1490984439757,2,19,8,7,10,-2,1,-1,3
1490984439757,2,-19,-54,-23,-28,6,4,0,-7
1490984439761,3,-7,47,8,-7,-6,-3,-2,7
1490984439761,3,57,-8,-23,-27,1,6,3,-1
1490984439804,0,-23,-7,10,-14,-5,-6,2,0
1490984439804,0,-14,26,14,23,2,-4,1,22
1490984439805,1,-46,-29,12,33,9,5,-4,-9
1490984439805,1,31,38,33,15,9,1,-2,5
1490984439806,3,-60,-21,-11,30,-5,-6,0,-8
1490984439806,3,-16,-69,-44,-23,2,1,-2,-11
1490984439807,0,14,62,38,-33,7,2,4,12
1490984439807,0,61,27,-11,26,1,-2,-2,28
1490984439853,1,-71,-21,-15,14,6,-3,0,-17
1490984439853,1,6,-67,-14,2,9,4,4,-3
1490984439854,2,-43,-16,45,50,-1,-2,0,-16
1490984439854,2,31,65,-37,-58,-8,-2,-1,13
1490984439854,0,46,-7,1,23,2,1,5,9
1490984439854,0,-36,-2,51,33,1,-2,4,-1
1490984439856,1,0,-63,-93,-22,3,-3,-3,-30
1490984439856,1,-33,21,26,-3,2,-1,-5,42
1490984439904,2,17,-1,4,12,-4,-1,-2,-14
1490984439904,2,35,-29,-26,56,-1,-7,2,-19
1490984439906,3,-30,32,16,-60,-4,2,2,-31
1490984439906,3,-15,57,12,-38,-15,1,2,11
1490984439907,1,43,73,21,18,-1,-2,-1,18
1490984439907,1,9,70,51,31,15,4,4,-3
1490984439908,2,2,-48,-3,-50,2,10,-7,13
1490984439908,2,-50,-8,-19,-20,-6,-3,2,-11
1490984439951,3,47,-51,-46,31,9,1,-1,0
1490984439951,3,-43,28,7,-28,-15,-7,5,-9
1490984439952,0,-8,-5,76,68,-5,-9,-1,8
1490984439952,0,-28,33,-45,-57,7,-2,3,-66
1490984439953,2,11,110,81,-40,16,8,0,1
1490984439953,2,10,-112,-83,104,23,16,-3,45
1490984439954,3,69,96,67,-21,-3,-7,2,-16
1490984439954,3,-5,-103,-28,1,8,9,-4,4
1490984440000,0,-18,41,37,18,37,-2,6,7
1490984440000,0,0,92,5,-2,-21,-2,0,-16
1490984440001,1,-13,-72,27,38,-18,4,0,2
1490984440001,1,11,7,-48,11,-16,-12,2,37
1490984440002,3,-31,8,-91,-20,-19,-16,-2,-23
1490984440002,3,35,70,22,-32,-25,-4,0,8
1490984440003,0,-24,-39,-30,7,-11,-11,-3,-29
1490984440003,0,-16,-54,18,-18,5,-1,-1,-26
1490984440049,1,-5,58,90,-23,12,18,0,28
1490984440049,1,6,10,71,124,60,3,-2,6
1490984440050,2,26,14,-128,50,53,0,-1,-5
1490984440050,2,-23,-59,-67,-68,-55,-7,-2,-17
1490984440051,0,-31,-80,-63,5,10,7,2,28
1490984440051,0,26,63,110,2,36,6,0,-23
1490984440052,1,16,7,2,28,32,3,3,3
1490984440052,1,6,-50,111,69,11,12,-4,56
1490984440099,2,-4,-85,-78,-18,-30,-6,-3,9
1490984440099,2,-3,96,97,5,52,-4,1,-36
1490984440100,3,-11,92,-100,-12,-15,-10,1,6
1490984440100,3,6,2,-100,-100,-71,-9,-1,12
1490984440101,0,9,23,12,43,-7,2,-6,14
1490984440101,0,28,-68,45,-2,-9,1,-4,-2
1490984440102,1,-34,-103,-1,-35,67,19,-3,7
1490984440102,1,20,-97,87,127,22,1,0,-41
1490984440146,2,14,118,-99,-107,-78,-9,-3,41
1490984440146,2,-20,56,-31,-19,-7,-15,1,18
1490984440147,3,-36,54,26,57,32,7,-5,13
1490984440147,3,3,-8,34,21,33,8,-2,-10
1490984440148,1,34,87,78,69,-4,-7,1,-10
1490984440148,1,-32,78,-116,3,-9,-7,0,-14
1490984440149,2,11,95,59,-69,-4,1,2,-17
1490984440149,2,6,120,24,77,27,-4,-1,5
1490984440244,3,10,-113,-45,-19,-13,-1,-2,-8
1490984440244,3,20,-106,-4,22,51,2,1,17
1490984440248,0,-15,94,44,16,-4,3,-1,-12
1490984440248,0,-5,69,-8,-17,0,4,-3,-8
1490984440250,2,-35,-128,-105,34,-7,-1,0,-7
1490984440250,2,13,-108,-50,-22,9,12,-3,2
1490984440252,3,9,-128,100,39,18,1,2,28
1490984440252,3,30,53,44,-16,2,-4,-5,-16
1490984440293,0,-5,84,-31,18,-26,-2,2,11
1490984440293,0,-2,103,-94,-48,-24,-7,-4,-16
1490984440294,1,-17,-16,-128,-97,-4,-5,0,-4
1490984440294,1,-7,-86,-13,7,9,7,1,17
1490984440295,0,-4,92,-88,-126,6,5,-4,16
1490984440295,0,-8,10,40,31,-3,-11,4,-8
1490984440297,1,-4,-66,-67,-40,-19,-8,-4,6
1490984440297,1,22,-65,16,1,25,7,1,-7
1490984440341,2,18,-115,127,53,46,11,4,3
1490984440341,2,-1,3,14,72,29,3,-3,1
1490984440343,3,-38,-70,-66,-4,-30,-8,1,-25
1490984440343,3,-13,-128,-109,-53,-16,1,2,13
1490984440345,1,-1,79,-27,-68,-53,-8,2,8
1490984440345,1,-17,-45,-110,-54,11,-12,-1,-4
1490984440346,2,7,-128,-18,-24,-30,6,1,-5
1490984440346,2,-10,-73,-70,82,19,3,3,4
1490984440390,3,16,38,93,-58,-7,-8,-2,11
1490984440390,3,14,31,22,41,19,3,-2,9
1490984440393,0,-14,-27,-36,-22,5,2,-3,-15
1490984440393,0,-17,-10,-6,19,-5,-4,-2,-5
1490984440394,2,-29,-3,7,-33,-2,1,1,-19
1490984440394,2,18,23,13,-6,-6,4,0,17
1490984440395,3,1,27,33,29,24,-3,0,-18
1490984440395,3,9,46,127,70,42,15,-4,1
1490984440439,0,3,-20,-98,21,3,-11,-1,-1
1490984440439,0,-17,-47,-63,-98,-63,-3,1,-5
1490984440440,1,4,-108,56,8,24,10,-2,12
1490984440440,1,-6,-97,-102,-10,-25,0,3,-4
1490984440491,3,-8,1,-79,-70,-31,-16,-1,-14
1490984440491,3,-17,-95,9,34,7,-2,4,-14
1490984440493,0,16,-126,18,44,41,11,-2,10
1490984440493,0,-11,-102,41,6,-9,2,-1,-8
1490984440494,1,12,10,12,38,-42,6,-1,16
1490984440494,1,-4,34,-24,-42,5,-13,-2,-21
1490984440495,2,-3,-9,-34,-9,-64,-4,-1,-4
1490984440495,2,25,24,18,4,48,5,0,10
1490984440536,3,-29,25,-6,-11,-5,0,4,-12
1490984440536,3,9,63,52,16,10,3,-3,14
1490984440537,0,12,58,66,35,25,10,2,9
1490984440537,0,-17,-20,-103,-66,-26,-12,-1,-9
1490984440538,1,-7,-8,-38,-49,-1,6,-2,-5
1490984440538,1,7,28,23,26,4,3,-1,5
1490984440540,0,3,4,0,-12,-48,-2,-2,1
1490984440540,0,3,25,33,88,-68,1,-2,4
1490984440587,1,6,46,-24,86,-6,-13,0,-5
1490984440587,1,-9,8,-38,-85,24,4,1,10
1490984440634,2,-6,-13,65,-70,41,4,1,-13
1490984440634,2,-6,-61,-57,-128,41,-2,-1,14
1490984440638,1,5,23,5,73,-11,-10,1,-13
1490984440638,1,1,2,-2,11,-28,0,1,-3
1490984440641,2,4,21,29,31,47,-2,-4,25
1490984440641,2,5,38,42,-5,18,9,-2,-8
1490984440643,3,-7,26,-41,-79,-12,-11,1,-9
1490984440643,3,-1,26,26,-32,-2,-16,-3,-7
1490984440682,0,-4,-13,39,62,2,4,3,-10
1490984440682,0,-1,-65,20,84,7,-3,-4,9
1490984440684,2,15,-4,-10,-85,-52,-13,1,7
1490984440684,2,-24,67,20,-60,-28,-12,-2,-19
1490984440685,3,-1,102,1,-93,-44,30,1,21
1490984440685,3,-3,75,-41,-18,-49,-21,-2,-4
1490984440686,3,-12,-18,-6,-18,14,26,1,-21
1490984440686,3,13,92,-3,-50,8,22,-6,43
1490984440731,0,-5,112,29,-16,-14,-35,2,-7
1490984440731,0,-3,101,11,26,21,6,-3,-6
1490984440732,1,1,5,68,32,64,-13,2,-2
1490984440732,1,-4,-65,-23,-3,-78,-21,3,-15
1490984440733,0,-10,-30,-52,-70,30,39,-3,-6
1490984440733,0,5,3,-58,-71,-11,-51,4,-14
1490984440734,1,0,43,8,27,-9,2,-4,27
1490984440734,1,6,53,7,32,28,10,1,-6
1490984440780,2,-5,48,42,28,-50,-3,-1,-15
1490984440780,2,-10,76,109,43,24,50,-3,13
1490984440781,3,4,14,115,19,23,-21,-2,-12
1490984440781,3,-4,-84,18,68,-25,12,-3,12
1490984440783,1,3,31,8,-82,27,-18,1,14
1490984440783,1,1,8,52,-105,32,9,-3,-14
1490984440784,2,3,-14,82,-122,13,1,2,-2
1490984440784,2,0,-10,103,-62,14,12,0,-5
1490984440829,3,-2,-8,86,27,-31,-10,-5,-3
1490984440829,3,-19,4,100,69,31,19,7,17
1490984440830,0,-7,31,-23,76,-10,-10,0,-8
1490984440830,0,2,-3,-102,18,-17,0,-1,-4
1490984440831,1,17,0,-128,30,-16,5,0,-14
1490984440831,1,10,-12,-128,2,-17,-31,-4,0
1490984440832,2,-14,13,-82,-17,50,15,1,12
1490984440832,2,-12,42,-29,-16,33,-20,-2,-2
1490984440878,3,4,103,67,-4,1,3,-2,0
1490984440878,3,5,34,114,-13,-26,0,1,7
1490984440879,0,19,-37,127,24,44,2,-7,2
1490984440879,0,0,-71,72,-11,-34,3,1,10
1490984440880,2,10,-2,-13,-25,16,-1,1,2
1490984440880,2,-9,-3,-10,-17,25,-5,1,7
1490984440881,3,0,1,-10,13,-57,-3,-2,19
1490984440881,3,8,21,-22,-8,-3,-2,0,-2
1490984440926,0,-8,-2,-18,-26,9,21,1,-18
1490984440926,0,-6,8,8,23,27,3,-6,-12
1490984440927,1,7,6,-19,-4,7,-2,1,11
1490984440927,1,-2,-8,-16,4,46,19,-4,-10
1490984440929,3,-2,-1,-2,18,20,18,-4,-2
1490984440929,3,-3,-2,-15,-3,-24,-25,-2,-6
1490984440930,0,-6,0,1,-10,-2,23,-2,5
1490984440930,0,1,6,4,-4,-11,-29,0,-11
1490984440975,1,0,-11,-14,0,4,7,0,25
1490984440975,1,-3,-3,-3,9,60,-15,-1,-18
1490984440976,2,-1,3,3,0,-28,11,6,5
1490984440976,2,0,-2,6,18,25,-3,-1,-7
1490984441024,0,-10,-2,-7,-3,20,-4,2,-14
1490984441024,0,3,3,11,3,-11,14,0,8
1490984441025,1,0,-5,-4,5,52,-13,-2,-8
1490984441025,1,-2,4,-3,-11,-83,-9,1,2
1490984441027,2,10,2,-1,1,32,22,-2,-3
1490984441027,2,-13,-6,1,-1,22,7,-4,2
1490984441028,3,-3,4,-3,-9,-39,-6,1,7
1490984441028,3,3,5,-1,-6,-7,3,2,-2
1490984441072,1,2,5,7,-10,-26,-17,-2,-10
1490984441072,1,-3,-8,-9,-4,2,15,-3,21
1490984441073,2,-1,2,-1,-4,-4,-1,1,-1
1490984441073,2,-5,-6,0,0,-2,-2,-6,1
1490984441073,3,-2,5,3,9,21,-1,2,-6
1490984441073,3,3,8,3,-2,-19,-3,-4,-9
1490984441075,2,7,13,13,9,-22,-2,0,14
1490984441075,2,-4,3,2,-5,-36,-9,-2,1
1490984441121,3,1,-4,-7,-6,-8,-11,-4,-12
1490984441121,3,1,-2,4,17,69,34,-1,5
1490984441122,0,-3,-7,-4,-6,-26,-14,-2,0
1490984441122,0,13,7,8,3,-7,-12,0,2
1490984441122,3,5,1,-1,-4,-4,7,-4,0
1490984441122,3,-8,-7,0,10,26,-13,-3,-22
1490984441123,0,6,5,-2,-8,-14,15,-2,7
1490984441123,0,-1,4,5,1,1,-9,-7,12
1490984441170,1,-5,-4,0,-3,-25,1,2,-7
1490984441170,1,2,-1,-3,1,13,3,-3,-9
1490984441171,2,-7,2,5,0,-3,-7,-4,-4
1490984441171,2,11,7,4,-1,12,15,4,-5
1490984441172,3,-6,-10,-3,15,-1,0,-4,6
1490984441172,3,-10,-9,-3,-2,0,-11,-7,-10
1490984441174,0,3,-7,-8,-8,4,-10,0,-2
1490984441174,0,0,5,3,-3,-10,10,-1,5
1490984441219,1,0,3,3,0,12,1,1,-2
1490984441219,1,11,4,-2,-10,-14,-4,-1,1
1490984441220,2,-7,-2,-4,2,13,1,-5,-11
1490984441220,2,-15,-10,-7,-1,-10,-5,2,-3
1490984441222,0,-11,-32,-23,-13,-17,5,1,-17
1490984441222,0,11,4,-2,2,9,1,1,4
1490984441234,1,2,2,5,-6,-4,5,-3,-9
1490984441234,1,10,7,15,4,-4,-8,-1,8
1490984441267,2,-7,-12,-18,-5,6,8,1,0
1490984441267,2,-23,-9,-11,-5,8,-9,-1,-8
1490984441268,3,-3,10,8,2,-24,2,-2,11
1490984441268,3,-4,4,-4,-8,-5,-5,3,-4
1490984441269,1,-2,-3,-6,-7,-9,13,-5,5
1490984441269,1,-6,14,-1,-7,-15,-2,-2,-8
1490984441274,2,-1,-10,-3,0,15,4,-4,0
1490984441274,2,-2,5,2,-11,-2,-5,6,-3
1490984441316,3,21,15,11,5,9,3,-3,-1
1490984441316,3,-40,-28,-3,10,5,6,-2,-19
1490984441317,0,19,14,-10,-4,4,-1,-6,8
1490984441317,0,-18,-10,1,-2,1,5,0,6
1490984441318,2,26,30,9,-21,-7,3,2,14
1490984441318,2,6,-39,-22,8,2,2,-3,3
1490984441318,3,-36,-14,-11,-9,-16,-2,6,-11
1490984441318,3,20,-20,-2,6,9,5,-1,-8
1490984441365,0,-16,13,22,12,2,-3,2,-1
1490984441365,0,16,11,-2,-13,-7,-1,-3,29
1490984441365,1,-13,0,3,2,5,0,2,7
1490984441365,1,18,-1,5,3,3,1,0,-7
1490984441366,3,13,-11,-3,-7,-19,11,-3,-4
1490984441366,3,-17,10,-2,-14,1,5,-1,-6
1490984441367,0,-23,-30,-11,8,1,-8,1,-26
1490984441367,0,1,-5,-12,7,0,3,-3,16
1490984441462,1,24,10,36,13,18,-5,0,19
1490984441462,1,15,29,-10,9,11,1,2,0
1490984441463,2,-9,-21,-38,-12,-14,0,-1,-25
1490984441463,2,-24,2,13,-26,-11,-4,2,-10
1490984441511,0,47,31,45,27,2,5,-4,13
1490984441511,0,-47,-54,-36,-8,-10,4,-2,0
1490984441511,1,-26,7,-1,2,7,-2,-1,-34
1490984441511,1,-26,11,20,2,7,-4,1,8
1490984441512,2,31,-3,16,-8,-5,-3,-4,29
1490984441512,2,29,36,-2,6,-4,-1,-2,-2
1490984441513,3,14,-23,-32,-10,-3,3,-3,8
1490984441513,3,-7,29,8,-27,-8,-8,2,-25
1490984441559,1,20,-2,-1,-12,-4,-11,0,-6
1490984441559,1,-27,-5,24,3,-8,-5,-3,15
1490984441657,2,1,-16,-36,0,-3,-4,-3,20
1490984441657,2,21,23,26,2,-8,1,-4,0
1490984441658,3,-34,-18,-18,-25,-4,1,-3,-8
1490984441658,3,8,-36,-27,2,2,1,-3,-10
1490984441755,2,32,25,77,-21,-11,-8,-7,-25
1490984441755,2,-9,-58,-92,22,11,11,-1,-5
1490984441756,3,-8,14,53,-5,2,5,2,9
1490984441756,3,25,-30,-32,8,9,-3,-3,9
1490984441757,0,25,-1,-3,13,-3,-1,-3,-11
1490984441757,0,-29,2,44,-12,8,-7,2,-7
1490984441758,3,2,-17,2,7,10,-7,-2,-1
1490984441758,3,-25,-25,-11,-10,-20,-8,-4,-16
1490984441804,0,-7,22,-6,6,9,-2,-4,-3
1490984441804,0,21,-32,19,-6,-8,6,5,3
1490984441806,1,-23,-20,3,-2,5,-9,-5,-6
1490984441806,1,5,-45,-11,-1,19,-9,0,11
1490984441807,2,0,-75,-4,-14,-3,4,-2,0
1490984441807,2,2,98,24,-8,0,-8,4,-12
1490984441808,3,-3,-102,-21,-15,-3,10,0,6
1490984441808,3,23,83,-9,-2,-5,10,0,3
1490984441852,0,-13,110,26,-3,-11,-9,-4,-12
1490984441852,0,14,105,26,-9,1,8,-1,-2
1490984441854,1,-23,11,24,-5,-16,-12,-1,-6
1490984441854,1,-2,-98,-1,3,-6,-11,2,1
1490984441855,0,-23,124,-9,14,4,5,-2,17
1490984441855,0,-11,90,22,15,6,-10,0,-6
1490984441856,1,46,95,35,-13,-11,-14,0,2
1490984441856,1,-28,-31,28,-1,-2,-9,-1,-7
1490984441901,2,10,-66,-3,-1,2,-10,-4,-6
1490984441901,2,8,-128,-16,3,3,9,-3,3
1490984441903,3,-22,21,-12,21,14,8,-1,-2
1490984441903,3,30,119,13,-3,8,14,0,-6
1490984441904,0,-18,57,19,-6,-5,-7,0,4
1490984441904,0,-39,-46,-14,-22,-2,-21,-2,-1
1490984441907,1,12,-86,-28,-25,-16,-9,-1,-5
1490984441907,1,16,15,-29,-4,-14,0,-1,1
1490984441950,2,-3,60,-4,-3,0,4,5,-9
1490984441950,2,-18,72,30,2,13,20,-5,-2
1490984441952,3,40,46,31,14,21,10,4,17
1490984441952,3,-8,-48,3,-5,14,3,-3,1
1490984441953,1,2,-29,-4,-5,9,5,0,-1
1490984441953,1,29,63,-33,-2,-17,-12,1,4
1490984441954,2,-3,13,-36,-2,-19,-21,-3,-6
1490984441954,2,12,-33,-35,-15,-19,-27,2,0
1490984441999,3,-20,0,-2,-4,-16,-3,0,1
1490984441999,3,11,-11,18,2,4,22,0,4
1490984442000,0,-5,6,18,-9,16,24,-3,-3
1490984442000,0,4,38,18,5,8,-8,0,0
1490984442002,2,-26,-26,15,12,9,5,-2,3
1490984442002,2,4,71,10,-3,3,8,3,-3
1490984442003,3,1,59,-2,-3,4,13,2,9
1490984442003,3,-19,-50,-6,3,2,11,-3,-4
1490984442048,0,37,-105,-24,-8,0,13,2,1
1490984442048,0,-4,-49,-23,19,-7,4,-1,-3
1490984442052,1,-14,83,-3,-8,-6,6,-2,-3
1490984442052,1,11,117,20,-6,-1,-1,1,-4
1490984442054,3,-27,-101,45,9,-8,-4,2,-7
1490984442054,3,-11,-123,-6,-4,-2,4,1,0
1490984442057,0,5,71,-77,-19,-2,-3,-1,-4
1490984442057,0,11,104,-63,-14,-2,-1,0,-1
1490984442098,1,-23,127,-16,-10,-10,-4,-3,-17
1490984442098,1,-40,-76,28,17,-8,-10,-1,-16
1490984442100,2,9,-109,21,23,-1,5,5,17
1490984442100,2,4,41,-9,-8,-8,12,0,-15
1490984442101,0,-47,-39,-3,10,52,-8,-5,-5
1490984442101,0,-10,-121,-16,3,54,-11,3,3
1490984442102,1,11,-23,-37,-10,78,-1,-4,0
1490984442102,1,8,119,-25,-9,-87,9,0,16
1490984442147,2,30,127,-11,2,-111,-17,-3,-7
1490984442147,2,-14,81,11,10,-126,-3,0,4
1490984442151,3,19,1,6,-1,-78,1,1,1
1490984442151,3,-4,8,-5,-2,14,9,-1,-5
1490984442153,1,5,-128,15,17,69,9,-4,-6
1490984442153,1,112,-100,-45,7,73,5,-1,-21
1490984442155,2,53,102,-68,-13,23,0,-2,19
1490984442155,2,-26,120,-121,-9,35,-8,-4,-1
1490984442193,3,-70,99,-106,-10,15,-8,2,-2
1490984442193,3,-45,-31,-19,10,7,-8,-4,6
1490984442194,0,-34,-82,-95,31,14,0,0,-5
1490984442194,0,-7,-65,-109,42,18,14,0,23
1490984442195,2,-5,-38,127,-92,-41,-21,2,-14
1490984442195,2,22,-3,127,-59,-60,-21,-2,-30
1490984442196,3,-16,-42,81,-14,-34,-5,2,10
1490984442196,3,-16,-47,-8,40,7,1,0,2
1490984442242,0,65,-109,-56,27,12,5,3,15
1490984442242,0,22,-124,-128,33,10,7,-1,3
1490984442243,1,-34,71,-121,-2,-3,2,-1,-14
1490984442243,1,-17,123,-128,-4,6,-5,0,42
1490984442244,2,0,35,-116,0,4,6,-2,-15
1490984442244,2,12,-95,-90,-1,1,-5,2,9
1490984442245,3,58,-113,-52,7,2,4,2,17
1490984442245,3,-52,-27,-32,-7,8,1,-3,-3
1490984442291,0,11,35,11,2,6,0,-2,-12
1490984442291,0,3,43,53,-11,-7,-9,1,-8
1490984442292,1,29,-5,33,-13,-12,-14,-4,1
1490984442292,1,-18,21,20,-4,-3,-6,5,-15
1490984442293,3,-26,-6,18,16,9,6,4,-13
1490984442293,3,25,-4,27,4,3,0,1,-3
1490984442294,0,-37,16,23,25,2,-7,-1,2
1490984442294,0,10,28,12,-15,-4,1,-3,-9
1490984442340,1,20,-12,-1,-11,-11,-5,-2,-10
1490984442340,1,-6,-1,-6,-5,5,6,1,21
1490984442341,2,-19,-13,28,-2,4,-2,0,-17
1490984442341,2,-1,28,3,12,-2,-9,3,4
1490984442342,0,23,-6,5,10,3,0,1,4
1490984442342,0,-32,6,-18,-1,0,-5,1,-13
1490984442342,1,0,-20,1,-35,-4,1,-5,33
1490984442342,1,-9,24,26,12,-1,0,0,-31
1490984442388,2,-20,-20,-23,-8,3,1,-4,10
1490984442388,2,20,13,36,-4,4,1,1,-6
1490984442389,3,90,11,2,7,-7,1,-2,9
1490984442389,3,-39,-24,11,24,4,-6,-6,9
1490984442390,1,-52,-22,-16,-39,-7,0,2,6
1490984442390,1,63,24,7,-17,-2,1,-4,-2
1490984442391,2,-9,43,66,18,4,-1,0,1
1490984442391,2,-2,-33,-33,25,6,-1,-4,-5
1490984442437,3,-7,39,-6,7,-7,-7,-4,-17
1490984442437,3,8,-25,-26,-16,-1,0,1,-4
1490984442438,0,-21,-18,-6,-31,3,2,3,10
1490984442438,0,7,13,36,22,13,11,-3,-2
1490984442439,2,16,-24,-29,-28,-8,-4,-1,-6
1490984442439,2,-21,22,67,-14,1,0,-1,4
1490984442440,3,-2,-89,-45,49,16,4,1,-34
1490984442440,3,-28,45,31,22,0,-1,2,18
1490984442486,0,29,-32,-41,-24,-5,1,2,13
1490984442486,0,62,69,-1,-61,-20,-2,2,-16
1490984442488,1,-48,-54,-10,-36,0,0,1,14
1490984442488,1,19,18,49,-5,-7,0,-6,0
1490984442489,3,20,51,22,-37,-6,1,-4,5
1490984442489,3,17,-25,17,-2,13,1,0,-1
1490984442490,0,26,21,-3,23,-1,0,-2,-2
1490984442490,0,-15,-26,10,23,-2,-2,2,28
1490984442535,1,-6,40,17,-26,-7,0,4,24
1490984442535,1,-52,-52,-72,-42,-12,-3,2,-20
1490984442536,2,46,21,20,-12,-10,-6,-6,-18
1490984442536,2,-29,-61,-5,33,19,3,-1,30
1490984442537,0,-1,71,-14,-11,-9,-10,2,-11
1490984442537,0,2,-82,-35,-31,-18,-9,-5,10
1490984442538,1,18,37,-13,-39,3,0,-1,-42
1490984442538,1,1,-52,26,42,15,5,-1,46
1490984442584,2,-16,60,75,-13,21,3,0,-22
1490984442584,2,2,-51,-24,53,-3,-1,2,7
1490984442585,3,41,73,19,-3,-4,-1,0,25
1490984442585,3,-36,-29,-72,-21,-25,3,0,-43
1490984442586,0,-16,-43,-23,-14,-4,-3,1,23
1490984442586,0,-15,61,-1,-70,-5,-5,-1,-46
1490984442587,1,52,-18,47,4,2,2,-5,10
1490984442587,1,16,32,-21,64,23,7,-3,17
1490984442633,2,-8,39,91,18,34,4,3,37
1490984442633,2,-2,-22,30,38,-12,3,1,-15
1490984442635,3,-70,-55,-69,43,-17,-1,4,-8
1490984442635,3,16,73,27,-79,-17,-8,-2,-31
1490984442637,1,-28,25,58,-2,46,7,2,30
1490984442637,1,27,-59,39,17,-22,-3,0,-13
1490984442638,2,7,-3,20,-11,-32,5,-1,2
1490984442638,2,3,63,-42,-16,-6,-1,-1,1
1490984442682,3,-6,-81,8,32,-30,-9,1,5
1490984442682,3,24,6,-94,-27,27,0,2,14
1490984442683,0,-8,107,100,13,30,9,-1,-59
1490984442683,0,13,-14,78,-45,4,5,-3,63
1490984442730,2,-32,-14,-6,90,9,0,-1,-33
1490984442730,2,-29,-23,-95,29,-4,-7,-5,29
1490984442731,3,-31,-38,25,-91,-10,6,-5,-41
1490984442731,3,23,47,40,-90,-45,-13,0,15
1490984442732,0,29,-24,-33,37,27,16,-6,21
1490984442732,0,-3,-1,103,39,53,1,-1,-30
1490984442733,1,-30,-70,-91,-34,-8,-2,-4,-1
1490984442733,1,37,84,99,-17,-25,1,-4,4
1490984442779,3,44,-14,-55,15,16,-7,-1,31
1490984442779,3,-58,-55,-26,-43,49,12,3,-34
1490984442781,0,34,85,106,85,47,-6,-1,8
1490984442781,0,-34,-4,-96,14,14,0,-1,-21
1490984442784,1,-14,-19,-21,-109,-57,-22,-1,-31
1490984442784,1,26,-99,-4,43,-8,12,2,22
1490984442791,0,5,69,-21,-57,0,-4,0,5
1490984442791,0,23,-9,-53,-47,-23,-1,-4,27
1490984442827,1,8,-123,122,66,32,18,2,30
1490984442827,1,-48,-16,-12,77,9,-3,-3,-2
1490984442830,2,44,78,-18,-84,-12,-1,-1,9
1490984442830,2,-12,93,60,76,17,-2,0,-33
1490984442832,1,-1,-34,-3,21,-34,0,0,-21
1490984442832,1,6,-128,76,18,29,18,-2,18
1490984442835,2,40,40,21,51,21,0,-1,-1
1490984442835,2,22,104,34,-31,-19,3,1,19
1490984442876,3,-24,110,17,60,-10,-14,3,1
1490984442876,3,-22,-15,-74,-76,-8,-10,0,-17
1490984442879,0,-27,-104,-4,-25,-5,11,-1,-16
1490984442879,0,14,-101,-42,-14,4,-11,-3,9
1490984442881,2,25,86,62,21,5,2,-1,-3
1490984442881,2,-56,99,-24,-29,-18,3,0,-28
1490984442884,3,29,32,-110,-2,-22,-9,-5,33
1490984442884,3,1,-73,32,-14,4,-4,-3,-6
1490984442924,0,13,-119,-14,-19,-10,8,-4,39
1490984442924,0,3,-22,127,31,22,-7,-2,-28
1490984442926,1,-3,-79,-74,14,-22,-1,2,22
1490984442926,1,-7,-109,-53,-36,-7,0,3,-1
1490984442927,2,-17,-1,-7,-70,-8,-2,1,-26
1490984442927,2,19,61,118,100,23,8,1,7
1490984442928,3,-19,87,-2,-46,30,9,0,-8
1490984442928,3,35,127,77,85,-28,-7,-5,-15
1490984442973,0,-48,-93,-128,-113,-42,-17,-2,5
1490984442973,0,29,-89,63,-9,8,12,-2,9
1490984442975,1,4,-45,106,56,48,2,2,-5
1490984442975,1,-14,-13,-128,-65,-43,-12,0,5
1490984442975,3,22,-101,127,55,54,13,1,11
1490984442975,3,15,95,-112,122,57,-1,-2,11
1490984442977,0,-56,111,-92,-66,-1,-11,-3,-39
1490984442977,0,49,76,-10,-60,-39,-4,-4,19
1490984443023,1,-15,-49,17,28,-104,1,-1,-12
1490984443023,1,-7,-128,4,-63,-32,-9,-1,2
1490984443026,2,51,-30,116,127,73,20,1,6
1490984443026,2,-45,-47,-126,-87,14,-16,8,-7
1490984443029,0,18,37,74,62,-8,8,1,19
1490984443029,0,26,43,82,48,36,13,-4,8
1490984443031,1,24,56,32,64,18,-1,-4,9
1490984443031,1,-54,-5,-128,-109,-21,-3,3,-25
1490984443072,2,5,-12,16,-35,-22,-15,2,-13
1490984443072,2,-4,-128,-66,3,-21,4,-4,6
1490984443073,3,-5,61,40,21,16,-4,0,0
1490984443073,3,9,118,-12,-39,24,3,-5,-1
1490984443074,1,-13,-97,-70,-128,-19,-13,-4,-20
1490984443074,1,6,-78,89,98,38,2,-1,2
1490984443075,2,-8,-86,-19,19,-3,12,1,-19
1490984443075,2,-28,-4,-58,-49,-9,-5,-5,-29
1490984443120,3,5,-20,-46,41,43,3,-1,16
1490984443120,3,6,21,88,29,-30,1,3,10
1490984443121,0,11,-1,-22,-6,1,-5,-1,-2
1490984443121,0,-13,40,93,85,7,3,-2,-2
1490984443123,2,-3,-36,-71,-58,27,7,3,6
1490984443123,2,0,-2,59,-38,46,3,1,1
1490984443124,3,5,31,42,17,118,7,-2,13
1490984443124,3,2,-19,-2,6,-99,-6,2,-30
1490984443168,0,18,-15,-54,9,-97,-13,-4,48
1490984443168,0,-10,21,-46,-18,-63,-20,-4,-17
1490984443169,1,-3,17,16,39,13,8,0,-3
1490984443169,1,-4,-18,58,57,87,6,-3,1
1490984443170,3,2,108,12,-69,-29,4,2,2
1490984443170,3,13,25,22,-29,77,2,0,0
1490984443171,0,0,-56,-101,-69,-63,-10,2,-5
1490984443171,0,-2,-115,-50,-33,-17,0,3,3
1490984443217,1,-10,-51,26,41,0,6,0,-5
1490984443217,1,1,-6,-4,-28,-7,3,-2,13
1490984443218,2,7,36,99,12,-2,-1,-4,-2
1490984443218,2,8,12,59,70,14,12,1,0
1490984443218,0,-3,38,52,77,42,5,-3,11
1490984443218,0,-4,15,8,83,23,14,0,-2
1490984443219,1,9,7,65,22,110,16,-4,-10
1490984443219,1,10,-7,2,-87,19,2,-3,34
1490984443266,2,-15,8,-46,-128,-69,-13,4,-13
1490984443266,2,6,-5,47,-9,-82,-6,0,-3
1490984443267,3,-2,-35,45,54,-87,-4,-3,-10
1490984443267,3,-5,-64,6,67,27,10,3,-1
1490984443268,1,1,87,-32,-47,0,-19,-1,3
1490984443268,1,-9,113,18,-1,-3,3,3,-14
1490984443268,2,7,114,17,112,30,-6,2,7
1490984443268,2,-27,-36,61,64,38,10,1,-17
1490984443315,3,9,-128,-43,-23,-27,9,1,18
1490984443315,3,3,-128,-9,-22,-29,0,-6,-13
1490984443316,0,-12,-92,-71,-62,-24,-18,0,-8
1490984443316,0,4,80,-57,-108,-22,2,-1,14
1490984443316,1,6,109,26,-16,-26,3,1,13
1490984443316,1,2,127,89,97,56,-10,-3,-7
1490984443317,2,-7,52,36,-9,24,18,-4,-8
1490984443317,2,4,-101,25,0,-13,0,-6,14
1490984443364,3,-7,-123,-18,-49,4,6,2,-8
1490984443364,3,8,-65,16,-5,-9,3,3,7
1490984443365,0,-12,95,-22,23,34,-7,-3,-19
1490984443365,0,0,127,83,-22,-29,-7,-2,-7
1490984443366,2,-5,-71,-95,-7,-23,-2,1,4
1490984443366,2,13,12,-120,-10,-2,-4,-1,-7
1490984443368,3,-16,-40,-122,-76,-78,-21,-2,-2
1490984443368,3,-25,1,-64,-91,-51,-13,-1,-26
1490984443412,0,0,28,20,42,10,10,-2,9
1490984443412,0,14,5,-38,72,55,7,-2,13
1490984443413,1,9,8,-111,68,67,0,2,2
1490984443413,1,-11,4,-121,-36,-13,-15,-3,8
1490984443414,3,17,-69,61,59,11,1,-1,19
1490984443414,3,5,-88,-37,60,59,-15,-1,-18
1490984443415,0,9,-45,-73,2,-21,14,4,1
1490984443415,0,-15,-18,-125,6,-34,-20,-2,21
1490984443510,1,-9,27,-11,-11,-14,13,1,-3
1490984443510,1,10,19,118,-4,12,15,-2,10
1490984443511,2,1,-4,127,-17,-13,24,-2,-5
1490984443511,2,13,0,122,-12,33,-20,0,-11
1490984443512,0,-1,4,35,-13,18,-20,-4,10
1490984443512,0,-2,-9,-6,-12,16,-10,1,-9
1490984443558,1,-10,-4,-20,-9,-35,6,-3,-9
1490984443558,1,12,21,-10,-4,-12,-17,3,1
1490984443559,2,4,9,-16,-12,11,9,0,-1
1490984443559,2,-10,-20,-15,-18,-7,-7,-4,-4
1490984443560,3,-9,-6,-5,20,43,-19,0,-15
1490984443560,3,2,17,-22,-12,-66,7,-1,12
1490984443561,1,-3,0,-9,14,43,-15,-1,-10
1490984443561,1,1,3,-19,5,-13,6,-1,6
1490984443607,2,-9,-7,-2,4,-21,16,2,5
1490984443607,2,7,6,1,0,-10,-8,-7,-19
1490984443608,3,6,-1,2,3,-10,-6,-3,7
1490984443608,3,-1,3,-5,1,14,0,1,-1
1490984443609,0,-6,-3,1,-1,2,8,-1,7
1490984443609,0,3,-8,1,-1,0,4,-1,-5
1490984443610,3,0,2,-1,-3,-19,12,8,31
1490984443610,3,3,3,-4,1,-11,-8,-2,-11
1490984443656,0,-16,-3,8,-3,-23,-1,-5,-1
1490984443656,0,-1,0,-3,-5,-9,5,-2,-3
1490984443659,1,4,3,-4,-3,16,2,-5,-3
1490984443659,1,7,2,7,5,38,11,-1,7
1490984443661,3,-4,2,2,2,14,1,-4,-4
1490984443661,3,-3,7,6,2,2,2,0,-14
1490984443662,0,2,-6,1,5,10,-12,-4,20
1490984443662,0,4,6,5,5,5,3,-3,4
1490984443705,1,1,-2,-9,-8,-10,-8,-3,-2
1490984443705,1,3,2,3,4,-10,5,-4,-6
1490984443706,2,1,0,-1,-9,-11,-5,0,2
1490984443706,2,-5,1,7,8,10,-4,-2,-9
1490984443707,0,-3,-7,-3,-2,12,-8,1,-11
1490984443707,0,-14,-6,-7,-4,-19,2,2,-2
1490984443709,1,8,0,9,2,19,-2,-2,-10
1490984443709,1,6,21,-1,-1,-9,8,-4,19
1490984443754,2,7,-5,10,10,9,-3,-1,-1
1490984443754,2,-5,9,3,-5,9,-1,-3,7
1490984443755,3,-1,3,1,-2,-18,-3,0,-16
1490984443755,3,13,-7,-17,-13,10,-5,0,-1
1490984443757,1,18,22,15,1,-6,4,-4,5
1490984443757,1,-26,-30,-8,18,3,4,-3,0
1490984443761,2,13,-10,-14,-14,-1,-7,-12,-9
1490984443761,2,-12,-22,-13,1,0,8,-1,-5
1490984443852,3,-4,-6,-12,-11,4,-5,-2,0
1490984443852,3,8,-2,7,-4,-5,2,-1,1
1490984443855,0,2,10,25,5,14,5,2,-12
1490984443855,0,17,3,1,14,-15,-2,7,13
1490984443857,2,9,31,14,9,-8,5,4,4
1490984443857,2,0,-9,-2,-12,3,3,-7,-20
1490984443949,3,13,13,15,14,4,-6,-3,32
1490984443949,3,-12,11,2,-5,-10,7,4,2
1490984443950,0,9,-25,-48,-24,-10,-3,-1,4
1490984443950,0,-14,11,11,-3,3,-3,-2,-9
1490984443951,1,-34,-13,-21,-2,-1,3,-2,-13
1490984443951,1,-1,-15,9,-2,11,2,-2,-1
1490984443953,3,13,-7,0,-7,-3,-9,-1,-9
1490984443953,3,15,-1,11,8,9,7,-1,13
1490984443997,0,-5,3,3,-34,-13,-5,2,21
1490984443997,0,-3,4,-25,-14,0,-6,0,-10
1490984443998,1,-34,-14,8,8,3,11,-4,-29
1490984443998,1,6,-17,-13,9,-3,-2,-5,20
1490984443999,2,17,13,4,-14,-4,-7,1,-17
1490984443999,2,-4,-30,3,11,6,8,-1,-22
1490984444000,1,6,-25,-6,13,6,2,-3,12
1490984444000,1,-30,-15,-8,-8,3,1,2,-21
1490984444095,2,10,-7,-1,-24,0,-1,1,29
1490984444095,2,-22,22,35,20,-2,10,-1,19
1490984444097,3,54,25,19,1,8,8,1,-18
1490984444097,3,-56,-37,-51,5,-9,11,-3,13
1490984444098,2,3,4,21,10,-9,8,1,-13
1490984444098,2,-38,-88,-80,-7,-6,18,1,-1
1490984444099,3,14,-19,19,-10,0,-2,0,5
1490984444099,3,11,51,-37,-9,-2,-13,-1,-9
1490984444143,0,-24,-65,-1,29,6,3,-1,-2
1490984444143,0,32,88,54,6,-4,11,1,-4
1490984444146,1,-45,-13,-68,-15,-3,10,-4,-2
1490984444146,1,19,67,37,-12,-3,8,2,18
1490984444146,3,-3,-22,11,12,15,-2,1,4
1490984444146,3,31,14,17,8,-4,-22,-5,31
1490984444147,0,22,90,12,11,-2,-20,-2,-21
1490984444147,0,17,127,-9,-14,3,-11,-3,9
1490984444192,1,-27,127,2,-23,-29,4,6,1
1490984444192,1,10,17,6,20,4,-11,-1,-7
1490984444193,2,-4,-63,1,-24,4,-12,-2,2
1490984444193,2,11,-75,-12,-8,5,-3,1,-3
1490984444193,1,47,127,3,-39,-6,-25,-6,-10
1490984444193,1,-48,60,-46,-63,-15,-12,2,-15
1490984444195,2,-28,-93,-7,-4,-2,10,0,-5
1490984444195,2,32,-98,38,30,8,7,3,12
1490984444241,3,-22,-78,17,43,9,12,-4,-11
1490984444241,3,30,-95,10,1,-7,-9,-2,37
1490984444242,0,-9,65,-20,-47,-14,-7,-2,-9
1490984444242,0,-5,101,-6,-23,3,8,-5,0
1490984444242,2,-20,1,2,-5,1,-2,-2,-1
1490984444242,2,14,-64,1,-20,-10,-12,0,-2
1490984444243,3,-52,-127,-32,-31,-1,-9,2,-5
1490984444243,3,18,-122,-3,-20,6,6,-1,-6
1490984444290,0,46,-114,8,43,7,2,3,19
1490984444290,0,-26,104,-22,12,14,-3,0,-13
1490984444291,1,6,90,-8,-38,-20,-14,-1,-4
1490984444291,1,30,127,-6,-30,-15,-11,-2,8
1490984444292,3,-18,-128,33,39,11,-5,2,7
1490984444292,3,4,-110,33,47,22,10,2,-13
1490984444292,0,39,123,5,-15,16,7,-3,15
1490984444292,0,-26,106,-6,-22,-18,4,-2,-10
1490984444338,1,6,127,-43,-37,-33,0,0,-1
1490984444338,1,16,27,-14,-22,-33,-8,-3,-22
1490984444339,2,-15,-110,34,29,2,1,3,15
1490984444339,2,-21,-128,12,21,20,9,2,-4
1490984444340,0,-37,127,11,-2,-7,0,1,-2
1490984444340,0,14,61,19,-24,-27,-10,-3,-12
1490984444341,1,-51,-128,23,26,13,10,-4,22
1490984444341,1,2,-128,-7,13,17,6,2,10
1490984444387,2,26,89,-27,-36,-8,2,-4,-8
1490984444387,2,-4,95,-57,-12,-8,-5,0,4
1490984444388,3,-16,115,-22,9,5,-3,5,-13
1490984444388,3,16,78,13,-11,6,2,-3,7
1490984444389,0,-33,-120,-12,3,12,-3,1,-4
1490984444389,0,10,-127,15,18,23,4,-4,-2
1490984444389,1,34,-99,18,1,-6,2,-2,4
1490984444389,1,-32,104,-3,-12,-20,5,-4,-5
1490984444436,2,29,117,11,-15,-37,-8,-3,-2
1490984444436,2,-25,119,-4,-14,-10,-1,0,3
1490984444437,3,20,6,6,-10,-1,8,2,12
1490984444437,3,-21,-116,-1,11,21,2,0,-7
1490984444438,1,13,72,7,0,18,-11,-5,3
1490984444438,1,7,127,-35,0,2,-8,-6,-13
1490984444439,2,-12,87,-12,-14,-3,4,2,2
1490984444439,2,27,-39,-20,-11,-12,-9,-1,1
1490984444486,3,-26,-101,-14,12,-2,-2,1,-11
1490984444486,3,-16,-128,-15,8,-2,-1,1,5
1490984444487,0,9,-66,-19,1,5,6,-2,0
1490984444487,0,24,101,23,-5,-1,1,-2,13
1490984444487,2,45,29,-20,2,16,-5,-3,4
1490984444487,2,-31,-85,-21,3,-12,3,-2,6
1490984444488,3,-33,-110,-36,5,-4,1,0,-22
1490984444488,3,-18,-128,22,19,-1,-2,-1,1
1490984444534,0,22,77,57,-14,-3,-9,2,-3
1490984444534,0,14,126,16,-28,-5,5,3,8
1490984444537,1,43,50,-21,-30,-15,-5,0,1
1490984444537,1,-39,70,55,-11,-19,-6,1,-6
1490984444539,3,7,97,-65,-34,0,-11,-1,-1
1490984444539,3,8,119,-68,-38,-7,-13,1,-4
1490984444541,0,-18,20,-4,-9,-16,-17,1,-14
1490984444541,0,-5,-117,20,21,13,-11,2,-5
1490984444582,1,4,-126,17,13,-4,7,-3,4
1490984444582,1,17,-126,-31,-6,-4,15,-4,10
1490984444584,2,-23,-120,-12,0,3,-2,-1,-8
1490984444584,2,4,17,5,4,7,10,0,5
1490984444584,0,-50,-25,3,6,23,19,2,-2
1490984444584,0,33,-83,25,2,17,18,1,7
1490984444586,1,-9,-91,31,8,2,19,-2,6
1490984444586,1,25,-37,46,-3,-13,6,0,9
1490984444631,2,-20,10,40,-1,3,-4,-3,-2
1490984444631,2,-16,23,38,-5,2,-13,-3,4
1490984444632,3,25,-11,10,5,5,-15,-5,2
1490984444632,3,-9,-48,-11,9,-2,-12,-1,-3
1490984444633,1,-3,8,-5,0,-4,-8,-1,-5
1490984444633,1,17,-2,-26,-12,-7,-9,0,-6
1490984444635,2,9,5,-37,11,-6,-7,0,-1
1490984444635,2,-26,6,-31,0,-4,7,0,-4
1490984444680,3,-46,0,-26,-3,4,3,-1,-2
1490984444680,3,-1,-1,-16,13,10,4,-2,0
1490984444681,0,33,23,-11,-17,-15,-2,0,2
1490984444681,0,-13,5,-2,22,-2,-8,-2,-2
1490984444690,2,41,20,0,-9,-3,5,3,6
1490984444690,2,-4,-8,17,1,-10,-1,-1,1
1490984444690,3,34,5,17,-3,8,7,-2,22
1490984444690,3,-34,-15,17,17,1,-2,2,-11
1490984444728,0,10,-9,-11,5,0,-5,-4,-2
1490984444728,0,24,16,-5,-26,-4,-5,1,-1
1490984444730,1,-8,-40,24,-5,3,9,0,12
1490984444730,1,-13,-10,-22,3,2,4,-5,-14
1490984444731,2,-14,19,7,-1,-3,-4,0,8
1490984444731,2,-9,-29,5,8,1,-2,-1,-8
1490984444731,3,25,49,18,17,6,-2,2,4
1490984444731,3,-27,-42,-20,-4,3,-3,-2,-13
1490984444777,0,42,18,-3,1,6,-2,-4,-17
1490984444777,0,-14,11,27,-39,-8,0,0,18
1490984444779,1,-9,-40,-36,10,0,-3,0,-2
1490984444779,1,34,47,11,3,6,5,2,5
1490984444780,3,3,8,-1,21,0,-1,2,11
1490984444780,3,6,29,-1,-7,-3,-4,0,-3
1490984444780,0,3,-17,-10,-8,7,4,0,4
1490984444780,0,46,22,26,12,6,3,1,4
1490984444827,1,-83,-16,7,16,-2,0,-2,2
1490984444827,1,-5,2,-38,11,1,2,-3,5
1490984444830,2,12,46,11,-8,2,4,-1,7
1490984444830,2,-12,-50,-14,-16,14,11,2,1
1490984444832,0,-10,-13,-58,7,-17,-7,-1,38
1490984444832,0,-13,1,-36,5,4,1,-1,-38
1490984444834,1,-38,-13,3,-41,-4,-5,3,-20
1490984444834,1,4,-4,25,5,11,8,-3,-2
1490984444875,2,49,67,60,-14,-11,-9,0,14
1490984444875,2,-47,-54,-51,38,11,0,-2,-21
1490984444875,3,72,43,5,0,1,-1,1,44
1490984444875,3,-24,-42,19,-2,2,-4,3,-22
1490984444876,1,-70,-34,-44,-15,9,5,-1,2
1490984444876,1,43,-30,9,-35,20,1,0,-6
1490984444877,2,17,78,62,17,-6,-11,-1,-21
1490984444877,2,-28,-70,-45,45,8,5,-1,12
1490984444923,3,28,9,-1,61,0,-6,3,-33
1490984444923,3,-16,11,-70,-59,-8,7,1,54
1490984444924,0,-9,15,23,-70,-14,-6,1,-20
1490984444924,0,10,-2,-7,-52,-14,-6,-2,-29
1490984444925,2,9,7,85,-2,16,11,-3,-9
1490984444925,2,-46,54,24,54,-14,-5,2,26
1490984444926,3,-12,-104,-80,21,-12,-16,-4,-58
1490984444926,3,-8,-15,-50,-58,-18,-9,-3,6
1490984444972,0,-28,-84,-86,-14,7,12,0,-20
1490984444972,0,127,115,76,-45,5,-3,-3,69
1490984444974,1,-44,-4,48,64,27,6,1,30
1490984444974,1,20,66,8,72,-15,-11,0,-23
1490984444975,3,58,27,14,-51,19,5,1,-33
1490984444975,3,-7,43,16,2,-11,-3,1,18
1490984444976,0,-23,4,13,80,-12,-8,0,4
1490984444976,0,-12,-15,-19,-81,-32,-7,0,-34
1490984445021,1,-25,-82,38,-60,-5,5,-4,28
1490984445021,1,31,17,-55,56,28,2,-1,-9
1490984445023,2,4,21,-9,14,68,3,-3,16
1490984445023,2,10,17,-4,7,-7,-9,-2,-70
1490984445024,0,-19,-40,-29,23,-11,-2,0,17
1490984445024,0,34,-101,-11,-9,34,14,3,-25
1490984445025,1,29,51,0,48,62,-2,-2,61
1490984445025,1,30,-8,44,47,-2,-3,-3,-35
1490984445069,2,-86,-30,-54,-14,-59,-16,-7,-69
1490984445069,2,-28,-48,-68,-19,-15,7,2,69
1490984445072,3,44,43,-21,-120,-24,5,3,-9
1490984445072,3,10,32,102,13,27,12,-1,10
1490984445073,0,55,-3,29,96,30,-5,-1,3
1490984445073,0,-40,-22,-47,56,-13,-6,0,9
1490984445074,1,-67,-26,40,-13,14,-2,2,-31
1490984445074,1,23,36,-12,-24,43,5,-1,18
1490984445118,2,17,33,-21,-52,-74,-11,2,4
1490984445118,2,21,-19,-8,-1,-1,8,-1,6
1490984445120,3,-32,19,37,40,-21,3,-2,0
1490984445120,3,21,-76,-22,-13,10,-10,0,-28
1490984445121,1,-19,94,46,23,-21,-9,2,7
1490984445121,1,-29,-24,-82,-5,-3,3,-3,-7
1490984445122,2,17,48,95,-17,26,11,1,24
1490984445122,2,34,-43,16,9,60,-6,-2,23
1490984445167,3,12,-38,-44,-31,-49,7,-1,-16
1490984445167,3,-49,-114,-34,-6,-77,-11,-1,-1
1490984445216,0,25,84,-20,-24,2,11,-1,6
1490984445216,0,-17,127,117,85,21,-6,0,-6
1490984445217,2,17,-13,-66,-53,0,-3,-2,3
1490984445217,2,-21,-122,109,-5,41,19,2,36
1490984445219,3,48,64,13,127,76,-3,-2,-33
1490984445219,3,-53,76,-104,-28,-45,-17,4,11
1490984445220,0,-12,37,-100,-91,-48,-5,-2,-30
1490984445220,0,-64,3,-63,7,-40,2,-1,16
1490984445265,1,76,-128,75,27,21,6,-4,-21
1490984445265,1,27,-27,58,80,47,9,-1,34
1490984445266,3,-13,23,-117,13,-15,7,-5,34
1490984445266,3,18,-75,10,-2,23,-7,-4,-22
1490984445267,0,-45,-91,87,29,-5,-3,-1,-27
1490984445267,0,25,-116,-93,-97,-49,-9,-1,32
1490984445268,0,74,-123,-57,26,-37,-1,-2,23
1490984445268,0,-23,91,18,-53,-55,-13,-4,-31
1490984445314,1,-44,93,26,-5,18,-6,-3,-18
1490984445314,1,15,127,47,25,84,27,-2,26
1490984445315,2,3,-38,-29,67,30,-2,-4,18
1490984445315,2,9,-82,-76,-30,-29,-12,1,-55
1490984445317,1,25,122,110,-10,-28,-20,0,-4
1490984445317,1,-26,-113,-60,-10,14,12,0,-22
1490984445318,2,25,-88,19,-2,43,10,-4,33
1490984445318,2,-3,-58,88,21,-23,-5,4,-41
1490984445362,3,-22,-117,-83,-55,-18,-6,1,-7
1490984445362,3,19,-30,60,80,46,-1,-2,21
1490984445364,0,-45,-36,18,-43,-44,-17,4,-20
1490984445364,0,-10,19,-2,-37,21,17,-3,-3
1490984445365,2,1,45,11,17,19,15,5,3
1490984445365,2,28,14,96,87,36,1,-1,11
1490984445366,3,-32,-27,-86,-41,-29,-15,-1,-20
1490984445366,3,0,17,78,-55,-15,-10,4,-1
1490984445411,0,0,-27,-94,82,23,2,-2,-9
1490984445411,0,-26,-63,-26,-54,-10,1,0,-1
1490984445412,1,19,21,16,-12,-16,-5,-1,-6
1490984445412,1,1,-7,70,-3,19,7,-5,14
1490984445413,2,20,12,65,49,11,-16,1,-8
1490984445413,2,-25,-30,-98,4,-6,-4,-2,-10
1490984445414,3,3,21,58,-55,-12,19,-3,8
1490984445414,3,17,2,-17,94,7,-16,0,-8
1490984445461,0,-20,4,-49,-54,9,12,-1,-3
1490984445461,0,-10,-13,-67,-9,-20,-3,-1,-13
1490984445463,1,5,12,52,22,22,-2,1,-3
1490984445463,1,-16,-20,14,-10,0,8,3,-7
1490984445464,3,-1,-17,-36,17,12,1,0,6
1490984445464,3,4,6,51,-23,8,-1,-3,2
1490984445465,0,-1,12,-23,3,-23,-10,0,-1
1490984445465,0,18,16,46,23,3,1,-3,5
1490984445509,1,-4,-25,-31,-10,-1,2,3,7
1490984445509,1,-22,-7,14,25,-8,7,0,-21
1490984445511,2,2,18,12,-12,3,2,-1,5
1490984445511,2,12,1,-19,-22,7,-9,-2,-2
1490984445512,0,-1,-14,11,-58,-1,-2,-3,11
1490984445512,0,0,-43,-17,41,-18,-10,-1,-10
1490984445512,1,-15,-124,-74,8,5,3,2,-14
1490984445512,1,11,-13,26,-5,24,-8,-2,-1
1490984445557,2,-17,93,55,-62,28,11,-2,11
1490984445557,2,-1,124,41,-6,-38,5,3,2
1490984445559,3,4,56,-66,-55,-9,-6,1,-6
1490984445559,3,-13,-107,-27,20,-11,-2,0,-2
1490984445560,1,25,-3,67,-18,13,4,-5,5
1490984445560,1,-6,-1,6,22,-13,-7,0,-4
1490984445561,2,-23,-60,-125,-82,-15,-4,1,2
1490984445561,2,-4,28,60,8,29,14,-1,-4
1490984445606,3,9,41,67,58,5,-5,2,-1
1490984445606,3,1,35,-19,-37,63,-5,1,-2
1490984445608,0,10,28,14,22,-74,0,-2,-7
1490984445608,0,-18,-55,-70,-41,-80,-9,-5,-13
1490984445609,2,-6,95,52,28,45,3,1,-6
1490984445609,2,9,104,-36,23,53,4,0,12
1490984445610,3,-4,-10,-16,72,0,-1,1,-22
1490984445610,3,-8,-98,10,70,13,4,-3,20
1490984445655,0,21,-77,35,-32,105,4,-6,-10
1490984445655,0,7,-60,-41,-93,-41,-7,-2,28
1490984445657,1,-9,26,28,-128,-92,-5,-1,-4
1490984445657,1,-10,12,-60,-126,-128,-8,-2,-12
1490984445658,3,12,31,-2,101,93,-9,-6,-2
1490984445658,3,-3,30,-9,42,30,4,-2,-9
1490984445660,0,9,-7,-9,52,97,7,-3,4
1490984445660,0,-1,-32,13,118,2,6,0,9
1490984445705,1,7,0,36,-10,-53,6,-3,-3
1490984445705,1,-7,2,36,-92,-54,-16,1,-14
1490984445706,2,-9,-27,-76,-107,-99,-6,-1,-6
1490984445706,2,0,-7,75,-27,17,2,-3,-9
1490984445707,0,-5,33,13,71,29,4,1,6
1490984445707,0,7,98,59,72,30,-5,-3,-1
1490984445708,1,-5,127,2,13,-14,17,-1,-2
1490984445708,1,1,115,13,33,-33,-1,0,-15
1490984445752,2,5,-30,-41,-11,-53,-12,-2,9
1490984445752,2,-19,-111,-58,-86,-27,14,2,-12
1490984445755,3,2,-109,35,-5,29,-14,-2,5
1490984445755,3,-10,-95,-21,-5,65,-16,-2,-14
1490984445756,0,9,-13,31,15,-37,25,1,8
1490984445756,0,7,-21,70,27,18,-15,2,4
1490984445757,1,-1,41,-98,-62,-17,-10,-2,2
1490984445757,1,-11,77,17,33,13,2,3,-13
1490984445801,2,0,68,41,1,-2,-11,-3,-3
1490984445801,2,-3,15,-3,-12,-12,2,-2,-9
1490984445803,3,-1,-25,32,46,-1,12,2,11
1490984445803,3,4,-52,-22,7,39,1,-6,-9
1490984445804,1,5,19,77,-20,11,1,0,3
1490984445804,1,1,3,8,-12,-13,17,1,-4
1490984445805,2,1,12,-33,19,-41,4,1,22
1490984445805,2,-1,59,-26,47,9,-20,2,-29
1490984445850,3,-1,106,-101,17,16,-22,0,1
1490984445850,3,-3,88,-52,-4,6,18,-2,4
1490984445851,0,4,-8,1,40,36,-4,-1,7
1490984445851,0,-5,-78,28,19,2,22,-3,4
1490984445852,2,-15,-51,-58,15,39,-22,-3,-20
1490984445852,2,6,-6,-73,27,-53,10,2,12
1490984445853,3,-5,29,-39,-32,0,20,-3,-24
1490984445853,3,4,56,-43,-93,-21,-8,0,17
1490984445898,0,3,72,25,-74,30,4,2,-4
1490984445898,0,-6,21,42,-74,33,-10,-3,-2
1490984445899,1,5,-8,98,37,-53,-5,0,4
1490984445899,1,0,-23,73,70,3,-8,4,-1
1490984445900,3,-7,0,-8,-2,-46,13,-1,-1
1490984445900,3,2,-7,-22,-21,5,-1,-1,-5
1490984445901,0,-1,-8,-9,1,-27,-7,0,22
1490984445901,0,1,12,1,-11,75,14,1,-4
1490984445947,1,-2,10,-22,-19,-66,-18,-1,1
1490984445947,1,-3,-8,-27,-17,1,1,-2,-10
1490984445948,2,-2,-9,9,-3,9,20,2,-14
1490984445948,2,1,12,0,0,-28,-15,3,16
1490984445949,0,4,3,13,-2,-28,-13,0,12
1490984445949,0,6,5,7,18,6,9,1,-3
1490984445949,1,-16,-2,-13,-11,35,-2,3,-3
1490984445949,1,3,-1,-4,5,0,-3,-1,5
1490984445996,2,-1,0,12,2,-7,-11,1,-12
1490984445996,2,-2,1,-7,9,-2,-10,3,5
1490984445998,3,3,3,2,-11,10,9,-2,4
1490984445998,3,3,-2,-13,4,-4,21,3,1
1490984445999,1,4,1,-2,-7,-18,1,1,-7
1490984445999,1,-7,-2,-4,-2,29,1,-5,1
1490984446000,2,3,-5,2,1,-35,-5,1,-3
1490984446000,2,-1,2,8,3,-13,15,-3,-4
1490984446045,3,-1,-4,-18,-10,9,-6,-2,11
1490984446045,3,0,-3,1,-7,2,11,0,-2
1490984446046,0,-1,-2,3,6,23,-5,-2,1
1490984446046,0,1,2,5,0,-27,-4,-3,-3
1490984446048,2,-2,0,1,5,20,-11,6,-5
1490984446048,2,-3,-2,-5,-16,-38,21,-2,5
1490984446048,3,2,0,5,5,11,-13,-3,4
1490984446048,3,0,-4,-10,3,2,-7,-7,3
1490984446094,0,9,5,7,-1,13,3,-7,5
1490984446094,0,-6,-7,-5,1,1,-15,-1,-5
1490984446095,1,-2,3,5,-7,-3,17,4,-8
1490984446095,1,3,0,1,1,3,-2,-3,6
1490984446096,3,4,5,-3,2,8,-2,0,2
1490984446096,3,-10,-3,0,-5,-3,-7,0,-12
1490984446097,0,1,0,0,5,17,16,3,26
1490984446097,0,3,6,14,11,17,-4,1,-6
1490984446142,1,0,-2,-10,-13,5,-2,-1,-6
1490984446142,1,-2,9,6,4,-2,-9,0,2
1490984446144,2,-4,-14,1,-3,-10,25,-3,-20
1490984446144,2,-10,2,-3,-5,18,-5,-2,17
1490984446145,3,-3,-5,-24,-3,-35,-3,0,-1
1490984446145,3,4,-11,-1,-3,3,-9,-1,11
1490984446146,0,-3,12,8,-5,-13,3,-4,0
1490984446146,0,6,2,-3,-1,-1,-6,-2,-12
1490984446191,1,2,0,9,6,22,1,0,-1
1490984446191,1,-6,5,12,6,-3,4,-4,-4
1490984446193,2,12,10,-10,-9,-22,-13,1,4
1490984446193,2,5,-11,-13,-1,29,13,13,-10
1490984446194,0,2,9,11,1,-8,-6,-4,-17
1490984446194,0,-10,-2,2,4,7,-15,-2,-14
1490984446195,1,3,4,-4,-10,3,9,1,23
1490984446195,1,3,-7,-3,6,6,10,0,2
1490984446240,2,2,0,8,2,-2,-13,-1,2
1490984446240,2,-2,7,-12,-21,-10,7,-1,4
1490984446242,3,-4,-13,14,15,18,4,-3,13
1490984446242,3,-21,-18,-16,14,-5,-2,1,16
1490984446243,1,-8,10,-5,-13,2,-5,0,-10
1490984446243,1,5,3,-1,3,3,8,-5,4
1490984446244,2,-22,-3,-10,-1,-4,-4,0,-4
1490984446244,2,18,1,3,-2,-7,-2,-2,-4
1490984446289,3,-3,10,6,11,13,1,-2,-17
1490984446289,3,-5,-4,5,-8,0,2,-5,-5
1490984446290,0,-21,3,3,9,-1,-1,0,2
1490984446290,0,19,-28,-20,-13,-16,4,-7,-5
1490984446292,2,16,16,8,12,6,3,-1,-5
1490984446292,2,6,20,23,-1,-2,-2,-2,38
1490984446293,3,-22,-24,-4,13,11,4,-4,-1
1490984446293,3,-6,8,-13,-14,-5,-13,-5,2
1490984446337,0,-18,-8,-2,-4,-1,11,-3,1
1490984446337,0,9,0,-11,-3,-4,-6,-1,-14
1490984446339,1,2,-13,-2,31,15,12,-2,3
1490984446339,1,0,13,-8,-28,-9,-11,3,0
1490984446340,3,18,8,26,3,-10,-2,-4,0
1490984446340,3,2,8,-9,5,1,-17,1,5
1490984446341,0,-16,-41,-34,-9,0,19,1,-38
1490984446341,0,38,29,12,-6,2,0,-2,14
1490984446386,1,-10,3,-7,-7,-6,-11,1,-14
1490984446386,1,-8,-13,-6,15,5,15,2,-2
1490984446388,2,30,14,46,-8,-8,-2,-2,5
1490984446388,2,19,27,-66,13,2,-5,-1,11
1490984446389,0,7,-25,1,4,4,7,-1,4
1490984446389,0,-30,1,28,-2,-8,-5,-5,-16
1490984446390,1,8,7,-33,-24,-7,-12,0,11
1490984446390,1,23,-7,6,6,9,5,-3,13
1490984446435,2,-30,8,16,14,4,-3,-3,0
1490984446435,2,-28,-22,2,-12,-6,-3,-2,9
1490984446436,3,11,28,47,15,3,5,0,-15
1490984446436,3,24,24,1,14,1,2,0,10
1490984446438,1,-10,12,10,-6,4,2,5,19
1490984446438,1,-6,-35,0,11,2,4,1,-25
1490984446439,2,8,42,27,23,9,-10,-4,31
1490984446439,2,26,-44,29,-10,-2,-1,1,30
1490984446484,3,16,5,-59,-19,-5,-2,-2,-29
1490984446484,3,-36,-12,16,10,8,8,-1,-17
1490984446486,0,17,20,3,5,0,-7,-1,-6
1490984446486,0,-20,-10,-7,14,-2,-1,1,-13
1490984446487,1,24,1,3,-29,-10,2,-4,4
1490984446487,1,13,1,-17,-11,-1,0,2,11
1490984446492,2,-30,-27,-14,1,9,9,1,8
1490984446492,2,-15,17,33,27,14,-2,2,-25
1490984446532,3,10,19,23,18,7,2,2,9
1490984446532,3,7,40,-35,-31,-16,-19,-3,11
1490984446535,0,-2,-38,-12,-11,-6,7,-1,-11
1490984446535,0,-28,21,8,-1,-1,6,0,-20
1490984446536,2,51,-12,-24,2,7,4,3,5
1490984446536,2,28,40,24,4,-2,1,0,-1
1490984446537,3,-18,-39,-7,-14,-7,7,-3,4
1490984446537,3,-11,10,-3,-3,-18,-1,-2,-14
1490984446582,0,-22,29,2,2,11,2,-6,21
1490984446582,0,0,-33,-18,-9,0,-3,-2,1
1490984446597,1,24,29,21,12,10,4,-1,-4
1490984446597,1,11,-7,4,-2,6,8,-4,3
1490984446598,3,-2,16,-1,12,10,-1,0,-14
1490984446598,3,-11,-10,89,7,14,-18,1,7
1490984446599,0,31,30,-42,10,-1,-2,2,-1
1490984446599,0,-36,43,-2,-29,-14,-6,0,11
1490984446631,1,-28,-108,-81,-12,-6,-3,-3,-12
1490984446631,1,14,31,23,-2,2,11,-1,-5
1490984446632,2,44,2,40,4,7,12,1,-8
1490984446632,2,-70,-35,-27,13,2,10,-1,3
1490984446633,0,-35,-5,1,-14,0,-3,-2,21
1490984446633,0,36,-18,6,3,-9,13,-3,2
1490984446635,1,0,12,40,-3,7,6,0,11
1490984446635,1,5,-78,-65,26,3,16,2,-7
1490984446727,2,9,38,23,-7,-2,-2,-1,-8
1490984446727,2,-3,-89,-22,16,6,-14,1,-4
1490984446730,3,-29,39,0,-17,-6,-23,-3,-7
1490984446730,3,19,13,-3,-20,3,-14,0,16
1490984446731,1,-4,-14,7,20,5,-2,4,4
1490984446731,1,29,15,11,16,-5,12,4,-10
1490984446732,2,-39,-110,-4,11,-11,7,-1,0
1490984446732,2,9,33,7,-11,-2,-2,-2,-8
1490984446776,3,-18,44,-26,-3,-1,20,3,0
1490984446776,3,-6,99,28,22,7,20,1,9
1490984446778,0,14,22,-26,22,6,-14,-2,5
1490984446778,0,8,11,17,-9,-3,-12,0,7
1490984446779,2,-11,-88,-27,-5,3,11,-2,-19
1490984446779,2,-24,-125,-17,33,10,14,-4,-18
1490984446780,3,22,104,3,4,-11,-1,0,-4
1490984446780,3,-6,84,-11,-21,2,4,-4,0
1490984446873,0,14,60,17,-41,-3,-5,-2,3
1490984446873,0,20,-78,-29,-15,-5,7,1,0
1490984446874,1,-39,-81,-7,-3,1,-3,1,-9
1490984446874,1,29,-103,18,31,6,-3,-2,0
1490984446875,3,39,115,-7,-39,-9,-13,-2,-1
1490984446875,3,-58,4,-12,-2,-2,7,-3,-4
1490984446922,0,1,-26,11,-7,-2,-2,-1,-2
1490984446922,0,12,-74,-5,8,3,1,-5,9
1490984446923,1,12,-112,14,6,3,0,4,-8
1490984446923,1,-20,-53,3,0,-3,-6,-1,6
1490984446923,2,32,95,-17,-8,-3,-2,2,4
1490984446923,2,-14,127,-20,-3,0,10,3,9
1490984446924,0,6,-69,8,-4,-6,-13,-2,41
1490984446924,0,28,-102,1,-11,-19,-9,1,-4
1490984446971,1,1,82,-5,3,6,12,-2,1
1490984446971,1,94,127,3,-34,1,14,-3,7
1490984446972,2,-121,65,21,2,0,-6,1,-22
1490984446972,2,52,-88,23,-4,8,9,0,-1
1490984446973,2,36,32,-9,-9,-12,-8,-5,-11
1490984446973,2,-32,0,-1,-3,-2,3,1,-3
1490984446973,3,15,-64,-38,-6,-14,-7,0,-7
1490984446973,3,5,30,-57,-8,-23,-2,2,-6
1490984447019,0,-4,40,-4,-2,-9,-2,-7,0
1490984447019,0,23,87,34,-8,7,3,-1,6
1490984447020,1,40,-24,28,-4,-2,-6,-1,14
1490984447020,1,-97,-67,0,16,20,4,0,-18
1490984447021,3,-5,33,3,-4,14,5,-1,-1
1490984447021,3,12,-29,10,10,-1,3,-1,7
1490984447022,0,-10,-75,-7,-3,12,2,2,-8
1490984447022,0,-8,-7,4,10,-5,-12,-3,1
1490984447068,1,22,51,26,-23,-9,9,-1,11
1490984447068,1,20,29,30,1,24,11,0,-5
1490984447069,2,-27,-91,-4,3,7,-4,-1,1
1490984447069,2,1,-66,-32,-3,-9,-7,-1,4
1490984447070,0,-4,96,13,-8,-1,4,0,5
1490984447070,0,55,12,39,8,4,-3,3,1
1490984447071,1,-53,-128,43,5,4,0,-5,-20
1490984447071,1,-44,-128,26,10,-1,-6,-1,22
1490984447117,2,31,-128,-14,4,8,-4,0,4
1490984447117,2,-3,-71,6,16,20,-3,2,-4
1490984447118,3,-6,99,-6,2,16,-2,1,-3
1490984447118,3,15,126,-2,-23,-3,2,-2,-4
1490984447121,1,-8,-44,-15,14,15,9,2,0
1490984447121,1,18,-78,-19,-9,14,5,-4,-4
1490984447121,2,-1,-94,-24,2,9,2,-2,5
1490984447121,2,61,-26,-38,-14,11,7,-2,7
1490984447166,3,-50,10,-73,15,-6,-6,0,-6
1490984447166,3,-44,-48,-73,17,-4,-6,1,5
1490984447167,0,-43,-24,-111,66,16,7,-2,-5
1490984447167,0,-32,17,-107,28,10,0,-2,0
1490984447167,2,-59,18,127,-28,-22,-14,-3,-27
1490984447167,2,-15,-61,127,5,-19,-4,-1,-16
1490984447168,3,17,-128,95,47,-2,3,1,43
1490984447168,3,-8,89,35,10,-4,0,0,-14
1490984447214,0,44,105,-63,-30,-8,-1,0,4
1490984447214,0,-23,47,-117,-24,4,-5,-3,-2
1490984447215,1,18,-89,-128,-19,6,0,-1,-7
1490984447215,1,65,-122,-111,-5,14,9,0,16
1490984447216,2,75,-88,-102,3,12,-1,1,2
1490984447216,2,-78,-22,-41,-13,8,1,-1,-3
1490984447217,3,-114,-5,-38,-14,-3,3,-1,-4
1490984447217,3,-110,4,-19,2,-7,-2,1,4
1490984447263,0,15,45,14,-7,-2,-3,0,-5
1490984447263,0,90,34,38,8,-3,-15,3,-3
1490984447264,1,61,58,9,10,2,1,-3,0
1490984447264,1,33,21,-12,13,2,5,-4,-8
1490984447264,3,1,11,-30,-6,-9,-9,2,7
1490984447264,3,-9,10,-21,6,-5,-8,-3,32
1490984447266,0,2,-16,-9,1,4,0,0,-2
1490984447266,0,-16,-10,-10,6,0,-5,-1,-7
1490984447312,1,17,30,-20,-10,-3,5,-2,-14
1490984447312,1,-45,-17,9,0,1,-1,-1,-9
1490984447313,2,23,-9,37,2,2,-1,-1,2
1490984447313,2,-12,11,9,-20,-5,2,3,10
1490984447313,0,-5,10,10,-4,-3,7,0,3
1490984447313,0,-44,-28,26,0,-1,-1,-2,1
1490984447314,1,33,3,-5,19,1,-7,4,-9
1490984447314,1,24,13,-14,-4,0,-2,1,-6
1490984447361,2,-32,-5,-10,-21,-2,-2,1,-9
1490984447361,2,19,14,-2,-13,5,6,-3,13
1490984447362,3,-45,7,19,5,5,2,-2,-14
1490984447362,3,59,31,10,14,3,-1,-2,2
1490984447363,1,7,40,-6,-23,1,-1,2,2
1490984447363,1,76,-15,-14,-8,-5,-3,-4,-3
1490984447364,2,-83,-35,4,20,0,-4,1,-1
1490984447364,2,-15,-26,-40,1,1,3,2,-3
1490984447409,3,-6,48,34,-7,-4,-7,1,-13
1490984447409,3,-51,-63,-22,20,8,11,4,-6
1490984447410,0,62,-36,-18,-9,0,-1,17,6
1490984447410,0,-36,10,20,4,-4,-6,-2,34
1490984447411,2,-21,33,14,23,6,0,-4,-5
1490984447411,2,12,-32,-4,6,4,6,3,15
1490984447412,3,1,9,5,-30,-1,-4,-2,-4
1490984447412,3,5,32,21,-12,5,5,-6,0
1490984447458,0,52,0,10,2,-5,-2,-7,0
1490984447458,0,-8,57,74,-2,4,-2,0,1
1490984447459,1,28,-36,-49,41,-5,-2,-12,-6
1490984447459,1,-95,8,-5,-18,4,-1,3,-13
1490984447460,3,37,-4,47,-20,2,10,-1,14
1490984447460,3,9,0,-22,3,-4,-4,0,21
1490984447461,0,-14,28,-24,-19,-5,1,-1,-6
1490984447461,0,-20,-54,-19,19,4,-3,1,-17
1490984447507,1,-38,13,19,24,-4,-5,7,-18
1490984447507,1,39,23,-21,-33,-11,-7,0,21
1490984447508,2,15,-4,27,2,10,10,2,32
1490984447508,2,-20,-13,-8,7,1,1,0,10
1490984447508,0,-56,-35,-21,-17,1,-5,-5,-12
1490984447508,0,46,25,-19,-36,-3,5,-1,4
1490984447509,1,-12,26,24,49,3,-6,1,25
1490984447509,1,18,-18,-5,6,7,9,10,-1
1490984447556,2,33,37,14,16,6,-7,0,15
1490984447556,2,1,-19,-40,-2,-17,-10,1,-29
1490984447557,3,-85,-50,-40,-24,18,5,1,6
1490984447557,3,48,28,35,-20,-20,-7,-4,-17
1490984447557,0,-78,-27,38,9,-6,6,-1,8
1490984447557,0,6,-17,28,-7,2,3,3,23
1490984447558,1,41,74,-28,12,-1,-3,-4,10
1490984447558,1,-14,-38,-30,-28,2,-3,-6,11
1490984447605,2,-39,-80,31,1,-7,-2,0,-23
1490984447605,2,12,-12,-80,-12,-6,-8,-6,-2
1490984447607,3,11,-72,30,-17,-10,1,3,9
1490984447607,3,18,26,63,9,11,9,4,7
1490984447608,1,91,24,-1,-9,3,3,0,2
1490984447608,1,-107,-51,-15,28,44,-4,0,-3
1490984447609,2,52,41,7,1,-11,19,3,-12
1490984447609,2,11,78,112,54,-20,-5,-5,-2
1490984447703,3,-26,-35,-73,41,-26,0,-2,0
1490984447703,3,1,-47,8,-26,-42,-13,-3,-19
1490984447705,0,22,-8,-108,-76,7,5,-4,-4
1490984447705,0,22,38,41,-35,20,2,0,-17
1490984447706,2,-35,26,51,114,-16,-7,0,-12
1490984447706,2,38,-49,-34,-10,-86,-10,0,-17
1490984447707,3,-15,-89,-52,-73,-57,-5,-2,41
1490984447707,3,-4,89,43,-72,-35,-3,-2,3
1490984447751,0,7,82,-115,-31,24,-1,-1,-15
1490984447751,0,-54,68,127,44,42,4,-1,2
1490984447753,1,63,56,72,64,27,-5,2,-5
1490984447753,1,9,-73,-27,8,46,1,-1,14
1490984447756,3,-30,-124,-72,35,-10,-12,3,-33
1490984447756,3,-8,112,-69,-72,-16,-5,-2,-6
1490984447800,0,24,98,7,-10,-11,-3,1,-6
1490984447800,0,47,116,81,27,10,-8,1,39
1490984447802,1,-27,-25,-47,-5,74,13,-2,23
1490984447802,1,64,-96,-21,-36,-82,2,-1,41
1490984447804,2,-85,-127,-23,-60,-52,-1,3,-56
1490984447804,2,45,-128,-58,6,9,-13,-1,-2
1490984447806,1,-10,-116,-67,-60,-7,6,4,4
1490984447806,1,-7,-119,63,82,29,14,1,2
1490984447849,2,53,40,-25,-19,-17,-18,-1,-13
1490984447849,2,-53,88,-4,-86,-28,1,-1,-25
1490984447852,3,6,127,42,16,-35,-7,-3,-8
1490984447852,3,-1,82,39,39,24,8,-1,-5
1490984447854,0,15,-128,-10,37,73,15,3,25
1490984447854,0,11,-105,23,86,-32,-20,1,-2
1490984447855,2,27,89,127,123,71,15,-1,-2
1490984447855,2,9,115,-90,-123,-25,3,1,13
1490984447897,3,-7,127,-2,13,-20,-8,-5,-6
1490984447897,3,-2,-6,78,27,4,-2,-3,16
1490984447899,0,-5,-93,28,18,30,7,-1,9
1490984447899,0,57,-83,-82,1,21,3,-1,31
1490984447900,2,-4,-95,68,-36,-11,-1,0,17
1490984447900,2,31,77,89,75,41,25,2,-6
1490984447901,3,-2,91,12,-78,-23,-8,-3,18
1490984447901,3,45,127,18,122,14,-6,-1,15
1490984447946,0,-54,-92,-97,-85,-55,-16,-3,-32
1490984447946,0,-33,-117,-100,14,20,13,1,12
1490984447947,1,32,-93,127,32,74,14,0,7
1490984447947,1,-4,-43,93,93,-22,3,1,-17
1490984447948,3,-63,94,50,34,-16,-8,-6,14
1490984447948,3,-16,71,-86,-36,59,4,1,-56
1490984447949,0,29,-32,76,-3,-30,-2,-2,29
1490984447949,0,-4,-128,3,32,-13,-9,1,6
1490984447995,1,24,-87,3,12,8,11,-6,5
1490984447995,1,-10,19,70,24,-4,5,0,2
1490984447996,2,-9,59,32,43,-17,0,2,-11
1490984447996,2,11,7,-39,24,-14,-11,-3,9
1490984447998,0,-23,-28,63,54,26,9,-4,-14
1490984447998,0,-29,-103,125,56,43,2,-4,-2
1490984447999,1,56,52,66,63,56,10,3,9
1490984447999,1,-37,87,-107,23,-25,-7,-4,1
1490984448046,2,8,127,21,-104,-1,-10,7,-14
1490984448046,2,11,-26,76,1,-31,15,1,33
1490984448047,3,-6,-128,-30,40,8,-8,-3,-8
1490984448047,3,0,-120,-45,-56,-27,-6,0,2
1490984448048,1,6,6,-68,-103,-19,3,1,19
1490984448048,1,-6,36,81,80,41,10,3,-8
1490984448049,2,-2,8,-92,-12,-32,0,-4,-3
1490984448049,2,13,57,92,27,10,12,1,8
1490984448092,3,18,18,56,115,-4,-1,-2,4
1490984448092,3,-12,-27,-13,-82,8,-3,3,-14
1490984448094,0,-5,-54,-92,-21,9,-10,-3,5
1490984448094,0,-42,-84,-108,-67,-49,-13,-1,-27
1490984448097,2,-14,2,-21,-2,25,-2,2,2
1490984448097,2,0,35,-34,13,-14,-6,-2,-4
1490984448098,3,-21,-17,-17,-20,-10,-2,-3,-8
1490984448098,3,4,6,0,17,18,-4,-3,-6
1490984448143,0,8,-8,33,46,-4,-9,-1,-13
1490984448143,0,-20,9,-86,-49,27,10,-1,-10
1490984448144,1,5,-19,-11,-2,-41,-6,1,-2
1490984448144,1,3,-38,14,46,-17,-5,1,9
1490984448145,3,-13,83,-79,-118,-19,-13,3,-6
1490984448145,3,-28,101,-69,-33,-52,1,-3,-22
1490984448146,0,5,25,-8,34,-12,0,0,-6
1490984448146,0,3,-66,127,120,-2,1,-1,20
1490984448190,1,18,-127,35,113,22,6,-1,-3
1490984448190,1,-8,-105,-8,-68,-17,-7,-3,12
1490984448192,2,8,19,-54,-21,36,-5,-5,-5
1490984448192,2,-3,41,-27,-34,-14,-6,1,-10
1490984448193,0,10,-6,-6,-106,46,-6,2,9
1490984448193,0,16,33,-31,-120,22,13,-3,1
1490984448194,1,-10,-28,33,-73,-90,4,-3,-5
1490984448194,1,6,-16,28,-24,-58,-9,-5,5
1490984448239,2,14,42,81,104,-65,13,1,15
1490984448239,2,-7,54,-15,57,0,-12,-1,-8
1490984448241,3,-24,-39,-78,-73,42,0,2,-20
1490984448241,3,-7,-13,86,59,32,4,-4,8
1490984448242,0,6,-3,-7,67,66,17,-4,3
1490984448242,0,12,114,127,127,118,8,4,4
1490984448243,1,20,78,-50,-44,1,-6,-2,3
1490984448243,1,-44,-13,-82,-128,-84,-3,1,-18
1490984448288,2,4,2,72,-22,-66,6,1,-1
1490984448288,2,2,-79,-76,-93,-86,0,-1,12
1490984448290,3,4,-50,-19,-71,-29,-14,0,6
1490984448290,3,-1,-32,7,44,89,6,0,-4
1490984448291,1,-4,-87,64,91,50,7,-1,23
1490984448291,1,-11,-115,-88,-50,34,-1,0,0
1490984448292,2,1,48,30,-10,-35,-5,-2,-2
1490984448292,2,-11,115,7,-61,-20,-14,-2,-9
1490984448336,3,-3,127,-14,7,-28,-13,-3,-14
1490984448336,3,5,81,57,70,16,20,1,7
1490984448338,0,-12,-51,-65,-12,-19,-9,0,-6
1490984448338,0,-3,-113,-34,-86,-15,2,-3,-10
1490984448339,2,-2,88,-68,-73,-22,-28,5,5
1490984448339,2,-1,126,28,45,1,3,-2,5
1490984448340,3,4,53,84,37,52,-6,0,-13
1490984448340,3,-5,-38,9,81,27,1,-1,-17
1490984448385,0,22,-128,47,-68,16,21,0,11
1490984448385,0,-19,-45,15,-15,8,8,3,-6
1490984448387,1,-14,74,-73,-90,-75,3,1,-9
1490984448387,1,-3,127,-80,-102,-69,-17,1,3
1490984448388,3,1,-92,77,79,-29,22,2,13
1490984448388,3,-4,-56,12,76,29,0,-3,-11
1490984448389,0,16,-50,-118,27,6,-12,0,24
1490984448389,0,-4,-6,-128,3,-19,2,-4,-12
1490984448434,1,-6,42,-81,-39,8,-9,-3,9
1490984448434,1,-4,41,50,-46,-28,5,-2,-1
1490984448436,2,-3,25,23,-9,34,-12,-2,-4
1490984448436,2,38,-16,-27,37,10,5,-3,-17
1490984448437,0,-11,-46,-128,49,10,1,-3,-5
1490984448437,0,-4,-1,-110,9,-13,9,0,-3
1490984448438,1,15,9,1,25,38,-11,-2,8
1490984448438,1,16,25,114,-20,-10,1,-2,3
1490984448482,2,-15,8,117,-1,29,13,-2,-13
1490984448482,2,7,1,127,-29,-84,-11,2,-2
1490984448485,3,2,13,119,6,14,2,0,17
1490984448485,3,5,7,58,-15,-20,1,-1,1
1490984448486,1,-13,-4,-14,-21,-3,-7,-1,-12
1490984448486,1,7,16,-14,-15,-26,3,3,11
1490984448487,2,6,5,-6,3,56,4,1,3
1490984448487,2,-13,-12,-5,1,-20,-13,-3,1
1490984448531,3,15,0,-27,-6,-14,2,0,-6
1490984448531,3,-10,1,-12,-12,-2,-5,1,-15
1490984448534,0,0,-2,-17,-1,4,-4,-3,6
1490984448534,0,-5,0,3,-3,18,2,4,5
1490984448535,2,-7,-4,-9,7,-23,13,2,-3
1490984448535,2,-1,-3,0,-4,51,18,-1,14
1490984448536,3,3,1,-2,7,-12,3,-3,-20
1490984448536,3,4,6,-7,-7,-3,-10,2,9
1490984448580,0,1,-2,-8,0,-5,5,1,-2
1490984448580,0,-3,7,11,4,-18,-11,3,6
1490984448583,1,10,-3,-8,8,51,22,2,3
1490984448583,1,-14,0,-3,11,-27,0,-1,-10
1490984448584,3,-3,-1,-2,-6,12,-8,-3,-7
1490984448584,3,15,6,4,7,37,-1,0,-2
1490984448585,0,-9,-5,3,-11,-70,11,3,-8
1490984448585,0,7,3,0,4,-3,-9,0,5
1490984448629,1,-8,-5,3,9,-24,-8,-3,-13
1490984448629,1,-2,-1,-7,-1,33,9,-2,20
1490984448631,2,5,7,5,8,22,2,1,-6
1490984448631,2,-1,-3,-6,-8,19,3,2,2
1490984448632,3,0,-2,-10,-3,-37,-2,2,7
1490984448632,3,-1,-1,4,2,11,3,2,-32
1490984448634,0,8,3,-5,-6,-18,-21,-3,15
1490984448634,0,-4,0,8,4,18,11,-4,3
1490984448677,1,-4,3,4,7,11,-5,-2,-5
1490984448677,1,7,-1,5,-9,-40,1,-6,-8
1490984448679,2,7,-9,-19,-9,-13,6,-4,3
1490984448679,2,-18,-10,-1,1,23,-6,-6,-8
1490984448681,0,9,7,6,5,2,-2,-4,2
1490984448681,0,2,-2,0,0,7,-5,-3,-5
1490984448682,1,-3,-7,-13,-7,-23,-3,-2,-7
1490984448682,1,-2,-5,-8,-6,13,-8,0,1
1490984448726,2,-6,-3,2,2,8,-5,-3,-9
1490984448726,2,4,4,1,-2,4,5,2,-4
1490984448728,3,-2,-1,5,3,-21,8,1,13
1490984448728,3,-6,-5,-13,-9,-2,2,0,-15
1490984448730,1,12,1,15,6,14,-1,-1,7
1490984448730,1,-19,-17,-28,0,3,-3,-3,-29
1490984448731,2,7,9,3,-16,-14,13,-1,5
1490984448731,2,-24,-20,-12,3,-8,-4,4,-8
1490984448775,3,9,10,11,2,11,-7,-4,-2
1490984448775,3,12,21,11,9,-7,6,1,10
1490984448777,0,-16,-9,6,9,6,-11,1,-16
1490984448777,0,14,9,-1,1,-8,13,-2,16
1490984448778,2,4,6,-1,7,11,1,-5,7
1490984448778,2,2,-8,8,18,5,-4,0,3
1490984448779,3,-11,1,6,-10,-6,13,-2,-18
1490984448779,3,14,-31,-37,-23,1,-2,-3,32
1490984448824,0,-7,5,14,1,0,3,0,-4
1490984448824,0,6,-14,3,9,1,-7,-2,-13
1490984448826,1,-3,6,6,15,9,6,-2,-5
1490984448826,1,-4,31,31,12,-1,-7,-1,15
1490984448827,3,-23,-5,-20,-14,-10,-1,2,-8
1490984448827,3,13,-5,6,7,9,2,-3,-15
1490984448828,0,-6,14,3,4,11,-1,-3,0
1490984448828,0,14,22,22,-4,-3,-2,-2,6
1490984448872,1,3,-6,3,1,0,2,0,-1
1490984448872,1,-10,-5,-17,-11,-3,2,0,9
1490984448874,2,0,-37,-34,-7,-8,1,3,-9
1490984448874,2,2,18,8,-2,6,3,1,2
1490984448876,0,-12,-3,7,-4,-7,2,2,-7
1490984448876,0,-3,-10,-47,-8,8,3,3,7
1490984448877,1,7,-5,-11,-14,-19,-13,1,2
1490984448877,1,30,16,14,5,-5,-6,4,5
1490984448922,2,-16,14,22,-5,4,0,2,-9
1490984448922,2,-18,-22,-1,-8,-6,-1,1,-13
1490984448924,3,3,-32,-21,19,17,7,3,10
1490984448924,3,5,15,6,1,2,-3,4,23
1490984448925,1,-2,19,-5,-6,-8,-8,-4,-11
1490984448925,1,-13,15,21,15,8,18,-4,-21
1490984448926,2,20,18,0,-4,-5,-13,-4,12
1490984448926,2,-8,-16,-7,-3,1,9,-1,-15
1490984448970,3,-3,2,-6,-7,-8,-8,0,10
1490984448970,3,-21,4,-8,-24,-5,1,5,-2
1490984448970,0,1,-4,-30,-4,0,3,-4,3
1490984448970,0,19,36,39,13,-3,-2,-1,5
1490984448971,1,-13,-50,-5,6,8,10,3,-15
1490984448971,1,10,-17,-15,16,-2,-5,-7,2
1490984448972,2,-28,7,-9,5,6,1,1,-8
1490984448972,2,23,29,-1,-32,-15,-12,-3,6
1490984449018,3,13,-19,-9,-7,0,3,-3,-12
1490984449018,3,-49,-19,9,0,-4,0,0,0
1490984449019,0,48,14,34,2,13,0,-2,45
1490984449019,0,-37,-20,-17,15,-7,-9,-2,-21
1490984449020,2,3,-33,-55,7,-5,-1,-2,-23
1490984449020,2,-14,-10,10,23,7,4,2,22
1490984449021,3,18,41,-3,-9,8,-1,0,-14
1490984449021,3,12,-21,-8,-13,-11,15,0,-9
1490984449067,0,-29,23,24,8,-4,-2,1,-1
1490984449067,0,12,-7,-6,-11,-4,-2,-2,-10
1490984449068,1,-43,-9,-22,2,-4,-9,1,15
1490984449068,1,-2,-3,10,1,5,-11,3,-11
1490984449068,3,-12,-6,23,-3,5,-4,0,20
1490984449068,3,36,-10,-16,7,3,-8,0,4
1490984449069,0,-35,-8,13,19,5,8,-5,-1
1490984449069,0,26,16,20,6,3,-3,-2,40
1490984449116,1,-42,-34,-5,-7,-2,5,-1,13
1490984449116,1,43,51,2,-1,-3,5,-7,-15
1490984449116,2,-33,-2,0,-14,-3,-4,-2,-15
1490984449116,2,12,-14,-14,-21,-10,12,0,29
1490984449117,0,66,0,-71,10,11,-4,3,38
1490984449117,0,-20,-22,20,-22,-10,-17,1,-3
1490984449118,1,3,36,-22,-16,-7,2,-1,-1
1490984449118,1,-14,26,-16,0,5,15,1,-12
1490984449165,2,-8,59,39,-2,0,3,2,-19
1490984449165,2,3,2,-15,13,6,-1,-4,5
1490984449165,3,52,-8,16,-1,-9,-7,1,9
1490984449165,3,-30,-30,-21,-3,2,-8,5,-7
1490984449167,1,1,94,21,4,-7,-2,-3,-4
1490984449167,1,9,69,-23,-2,11,1,-3,17
1490984449168,2,-9,56,36,-10,-1,-4,-1,-10
1490984449168,2,1,-94,-41,-9,5,1,-1,-3
1490984449213,3,0,-23,19,8,-6,-1,2,3
1490984449213,3,-22,-30,-21,6,-5,11,0,-4
1490984449214,0,27,-110,10,25,7,5,-2,-19
1490984449214,0,-45,46,24,2,-3,3,0,29
1490984449215,2,-9,127,15,-29,-5,-17,0,-23
1490984449215,2,-3,-13,-11,-42,-9,-17,-3,-13
1490984449216,3,14,-89,-21,-45,-3,-6,-2,3
1490984449216,3,3,-96,-2,-16,6,3,-4,0
1490984449262,0,2,-103,5,55,-5,10,3,3
1490984449262,0,12,107,27,80,0,18,0,-1
1490984449263,1,-9,113,19,29,4,-10,2,3
1490984449263,1,-4,56,-11,-69,-6,-15,-1,1
1490984449264,3,8,-86,24,50,10,-5,0,10
1490984449264,3,6,-128,8,70,2,-22,-1,-6
1490984449311,0,-18,-103,16,16,2,-16,-10,3
1490984449311,0,21,96,-20,-51,-9,-14,-2,-5
1490984449312,1,-15,109,-17,-41,-5,28,-8,-9
1490984449312,1,-30,78,-1,2,2,0,0,2
1490984449312,2,16,11,13,32,4,0,5,-2
1490984449312,2,10,-116,-8,18,1,-9,-2,-22
1490984449314,3,-52,-128,-7,-27,-3,9,-5,-6
1490984449314,3,38,10,-12,-4,-4,10,-1,10
1490984449359,0,-29,122,37,4,16,13,4,-1
1490984449359,0,36,102,9,-2,-6,0,-2,5
1490984449361,1,46,120,-3,-32,-10,-16,4,12
1490984449361,1,-25,34,-26,-12,-6,-6,1,-32
1490984449362,2,12,-19,-19,-17,-2,4,-2,6
1490984449362,2,-16,-105,-9,-15,3,16,3,3
1490984449363,0,25,125,-37,-15,-14,-14,1,2
1490984449363,0,24,116,8,7,4,-9,-1,-2
1490984449408,1,-18,115,-1,3,0,3,-2,-7
1490984449408,1,81,9,39,19,19,14,0,31
1490984449409,2,-86,-115,38,23,-4,-9,1,-7
1490984449409,2,0,-128,9,7,-12,1,1,0
1490984449410,1,67,68,9,14,-11,-5,2,-4
1490984449410,1,-71,-73,-2,2,-8,-4,1,-18
1490984449413,2,19,-115,-9,4,14,3,-5,19
1490984449413,2,-1,-110,-15,21,26,4,-1,-4
1490984449457,3,0,-128,0,30,17,1,1,-1
1490984449457,3,-3,87,0,-17,-5,-6,-3,8
1490984449459,0,12,127,3,-17,-20,-1,5,-13
1490984449459,0,-30,106,4,0,-3,0,-1,4
1490984449460,2,2,-128,11,-2,4,4,-4,2
1490984449460,2,-6,-6,19,11,4,-2,2,-3
1490984449461,3,-18,122,0,-19,-3,2,-1,-2
1490984449461,3,13,122,-8,0,-14,-5,2,-9
1490984449506,0,-16,-69,-10,0,0,8,-6,5
1490984449506,0,-4,-125,-36,-2,6,10,3,6
1490984449507,1,-2,-6,-9,9,15,-3,3,5
1490984449507,1,-24,79,19,-10,8,22,1,-4
1490984449508,3,-4,-78,-60,-6,-7,-3,2,-7
1490984449508,3,-34,32,-59,-4,-16,-1,0,-1
1490984449509,0,5,75,9,13,-10,-7,8,-5
1490984449509,0,18,109,31,-16,-5,0,-2,0
1490984449555,1,-35,-70,6,-10,21,8,-2,-6
1490984449555,1,24,-108,-56,-18,-5,-5,-1,20
1490984449556,2,-26,-43,-84,-12,-18,4,-4,-15
1490984449556,2,50,73,-12,-19,-14,-5,-1,0
1490984449557,0,-5,-116,-8,1,-2,-10,-5,-3
1490984449557,0,-20,21,-52,-10,-13,-1,0,-14
1490984449558,1,7,123,-39,-9,-11,13,2,-3
1490984449558,1,38,80,-15,-4,-1,5,-7,6
1490984449604,2,8,30,34,2,8,0,2,6
1490984449604,2,5,-125,52,13,6,3,-4,3
1490984449606,3,10,-123,20,11,0,1,-5,3
1490984449606,3,-1,51,-9,-8,-3,-7,0,-1
1490984449608,1,-6,35,25,-1,-2,-6,1,-4
1490984449608,1,1,-107,29,8,3,-2,-5,-2
1490984449611,2,2,-119,17,15,8,-4,2,-3
1490984449611,2,-20,-101,-14,9,-3,5,-2,10
1490984449652,3,52,70,-31,-26,-11,-1,1,-6
1490984449652,3,-31,75,-2,11,9,4,-4,4
1490984449654,0,-17,127,0,-12,4,-16,-1,-1
1490984449654,0,23,17,13,6,-2,-7,-2,-9
1490984449655,1,-8,-66,37,-5,-7,5,0,-7
1490984449655,1,-15,-96,36,0,3,-6,1,-2
1490984449661,2,13,-97,35,4,20,6,-3,-5
1490984449661,2,3,-111,22,-8,-2,-5,2,5
1490984449701,3,-35,-116,-29,0,-15,-2,-1,5
1490984449701,3,23,-128,-20,-7,-25,6,2,1
1490984449711,0,20,81,-17,-4,-8,-10,2,-4
1490984449711,0,-5,125,-46,-29,7,0,-1,0
1490984449712,2,-9,-84,15,12,4,8,-4,-7
1490984449712,2,-73,-39,44,20,6,9,1,-11
1490984449713,3,-21,7,36,-5,-1,9,-6,10
1490984449713,3,17,-18,31,1,-1,4,-1,-3
1490984449750,0,47,-40,22,-5,-5,-13,4,-23
1490984449750,0,28,-1,3,-12,-6,5,0,23
1490984449753,1,-43,-21,-17,6,-1,-1,1,0
1490984449753,1,11,-3,-22,-4,-2,3,-1,5
1490984449754,3,90,80,-4,-9,-3,-4,5,15
1490984449754,3,-37,27,-12,5,1,-2,0,-5
1490984449755,0,-42,-48,-51,-4,0,8,0,3
1490984449755,0,86,-83,-17,-2,3,1,-3,8
1490984449798,1,-95,-102,41,-7,0,5,-1,-13
1490984449798,1,26,-13,29,-22,-4,-3,2,9
1490984449803,2,3,20,5,-9,0,4,-3,13
1490984449803,2,-17,55,15,14,3,-6,1,-11
1490984449804,0,-14,7,37,-9,2,8,2,10
1490984449804,0,-11,21,-10,-3,-4,-4,0,-7
1490984449805,1,-5,-3,-70,1,-1,-4,3,1
1490984449805,1,-53,-31,-105,0,2,3,-4,-26
1490984449847,2,58,23,-72,-6,1,3,0,18
1490984449847,2,28,-10,-35,-4,0,6,-1,7
1490984449849,3,-87,-23,-30,21,5,0,-3,-6
1490984449849,3,36,14,0,-5,-3,1,2,-1
1490984449850,1,31,19,32,7,3,-5,-2,-2
1490984449850,1,22,-19,17,25,5,6,1,4
1490984449851,2,-3,10,2,0,-7,-4,0,12
1490984449851,2,2,-4,4,-19,-2,0,-3,-4
1490984449896,3,-3,-6,14,-22,-1,-2,-3,7
1490984449896,3,1,2,3,11,4,-9,0,8
1490984449898,0,11,9,40,15,0,-5,-2,-15
1490984449898,0,9,3,-29,15,-5,-5,3,-9
1490984449899,2,-3,-1,27,28,10,-4,-1,0
1490984449899,2,7,24,13,18,2,-8,1,-3
1490984449900,3,51,-54,-27,-10,-4,-7,-1,4
1490984449900,3,8,19,-1,-40,-6,0,-2,-4
1490984449946,0,10,-17,-2,-1,-2,-1,0,5
1490984449946,0,-50,-9,-1,14,0,-6,1,-10
1490984449948,1,16,46,17,2,-3,-4,-2,16
1490984449948,1,-24,-19,-7,18,7,3,2,23
1490984449949,3,-13,-35,7,33,4,6,0,-2
1490984449949,3,-17,3,-5,-1,-17,-5,-6,-10
1490984449952,0,-13,3,-6,-8,-7,-5,0,-2
1490984449952,0,20,7,-8,-3,0,14,-2,18
1490984449994,1,-27,16,14,-24,0,4,0,-9
1490984449994,1,-42,-50,-7,47,12,0,-4,-13
1490984449995,2,15,47,14,-1,-3,-1,1,42
1490984449995,2,30,-56,-31,-2,-4,-1,-6,-3
1490984449997,0,-41,-16,-15,8,7,0,-1,-2
1490984449997,0,73,50,53,-2,3,6,3,-20
1490984449998,1,-41,-2,1,5,-3,7,-1,34
1490984449998,1,91,24,0,-8,-5,-4,2,-8
1490984450042,2,-47,-5,-43,-25,1,3,-6,14
1490984450042,2,-38,-62,-10,-21,1,-4,0,-36
1490984450044,3,46,23,17,44,15,1,6,-2
1490984450044,3,-6,32,9,13,5,2,3,39
1490984450045,0,14,-72,-6,-6,-7,-1,2,-12
1490984450045,0,-26,51,-10,-39,-8,-2,0,33
1490984450046,1,48,8,-31,-28,-5,-10,-3,34
1490984450046,1,-11,-64,31,12,7,4,-6,-12
1490984450091,2,4,15,-25,20,6,2,-4,21
1490984450091,2,-47,37,22,10,7,-1,-5,-33
1490984450093,3,-2,-22,7,1,13,10,0,6
1490984450093,3,-4,-9,-43,-2,0,-2,-2,23
1490984450094,1,12,15,-24,-54,0,3,-2,-18
1490984450094,1,30,11,8,-15,-1,-2,-1,-29
1490984450095,2,15,23,21,27,4,1,-10,-21
1490984450095,2,-58,-77,-26,45,11,3,5,26
1490984450140,3,22,62,66,-12,-14,-6,0,23
1490984450140,3,-10,-5,-79,-25,-11,4,3,1
1490984450142,0,-5,-13,-12,-27,2,-2,4,-37
1490984450142,0,69,-25,29,5,26,5,-3,4
1490984450143,2,-10,-55,-15,-5,-8,-3,-2,-7
1490984450143,2,-18,-69,29,-18,-2,-1,-2,59
1490984450144,3,-36,53,26,-4,1,-10,1,-9
1490984450144,3,37,28,-26,-5,20,-4,0,-35
1490984450189,0,-13,39,2,-33,-10,-4,6,37
1490984450189,0,48,-51,-54,84,2,8,-5,-4
1490984450192,1,-35,-49,-20,-67,-20,-9,-5,-20
1490984450192,1,-32,0,63,-51,-17,-12,-2,-9
1490984450193,3,38,-53,-86,98,44,-4,6,7
1490984450193,3,-7,100,56,-4,-27,-12,-2,-40
1490984450195,0,-3,-103,-64,-16,-8,22,0,32
1490984450195,0,10,71,106,7,-13,-5,0,28
1490984450237,1,-10,2,-88,39,-3,12,1,-25
1490984450237,1,-48,-76,17,-32,29,-2,0,16
1490984450239,2,6,52,32,18,57,-3,-2,-11
1490984450239,2,-5,45,-29,64,-21,-4,1,-11
1490984450240,0,-48,-37,-86,-5,3,15,-1,-3
1490984450240,0,13,90,11,17,19,-15,-3,-11
1490984450241,1,28,1,82,57,41,20,3,27
1490984450241,1,-15,6,-33,-5,-20,0,2,-20
1490984450286,2,-7,29,51,-20,67,-19,1,-26
1490984450286,2,-38,-100,-44,25,-23,1,0,31
1490984450287,3,17,-61,-89,-32,-67,0,-1,-16
1490984450287,3,-14,28,32,-10,-45,3,1,-4
1490984450288,1,4,107,43,33,31,-2,-3,3
1490984450288,1,-35,53,-23,67,57,19,-4,10
1490984450289,2,13,127,69,30,-13,-16,2,-33
1490984450289,2,41,-85,-65,-7,23,5,1,4
1490984450384,3,-13,-61,-18,5,-47,-17,4,-15
1490984450384,3,-30,-90,-128,-90,-25,-10,1,-22
1490984450385,0,21,-3,101,-97,-28,14,-3,11
1490984450385,0,-19,-63,54,91,29,8,3,-29
1490984450386,2,-13,101,-96,-47,-49,-11,6,58
1490984450386,2,-8,127,-5,-128,-13,2,2,-43
1490984450387,3,-33,44,61,44,50,-2,-3,-15
1490984450387,3,45,-116,71,110,17,4,1,4
1490984450432,0,11,-27,51,19,-5,11,-1,13
1490984450432,0,35,-106,1,13,-26,-2,1,5
1490984450434,1,-42,56,-40,8,13,-16,3,-7
1490984450434,1,-45,95,-78,-92,-50,-11,0,-26
1490984450435,2,-24,109,-57,-78,13,-6,1,-42
1490984450435,2,-52,127,40,82,95,14,0,1
1490984450483,3,2,127,-64,32,-5,-7,-3,37
1490984450483,3,42,110,29,-33,10,-11,-1,32
1490984450485,0,-33,71,-77,112,16,11,-3,-5
1490984450485,0,3,30,-17,-127,-20,-9,-4,-26
1490984450486,1,15,-71,47,-13,-26,8,0,0
1490984450486,1,23,-116,-21,39,20,6,-2,20
1490984450487,0,-1,-66,-106,-43,-37,-10,3,-27
1490984450487,0,-16,-99,6,-31,13,2,2,11
1490984450531,1,9,-95,0,12,2,18,0,-12
1490984450531,1,2,-103,-7,13,15,1,5,8
1490984450533,2,38,-109,-9,5,16,22,-1,3
1490984450533,2,-13,87,115,102,6,-11,-1,28
1490984450534,3,59,126,-45,-29,-20,-7,0,2
1490984450534,3,-92,-1,-87,-82,-35,-12,0,-41
1490984450536,1,11,-93,114,7,-16,5,-1,7
1490984450536,1,59,-25,-96,-29,-9,-9,-6,-36
1490984450580,2,-21,-9,45,4,-3,-10,-3,8
1490984450580,2,20,10,40,-23,-1,9,-2,35
1490984450583,3,-26,38,87,127,37,-13,2,-50
1490984450583,3,17,-70,-32,-73,-13,1,-2,14
1490984450584,2,-10,127,-90,42,-8,-22,1,-22
1490984450584,2,-30,-60,-81,-50,-62,-16,2,-18
1490984450585,3,1,-125,36,-8,5,9,-4,-4
1490984450585,3,6,-111,56,55,37,3,-5,1
1490984450627,0,29,-48,32,82,44,14,-3,5
1490984450627,0,-10,15,89,22,-13,-2,-2,-21
1490984450629,1,-20,-59,-128,-128,-27,-13,0,1
1490984450629,1,22,91,127,110,28,6,1,-6
1490984450633,3,33,-14,-18,-82,-41,-4,1,9
1490984450633,3,-19,38,76,-21,28,5,-3,-3
1490984450634,0,24,6,68,-14,-35,9,2,28
1490984450634,0,34,46,52,86,61,6,1,27
1490984450724,1,4,50,51,112,23,5,4,-5
1490984450724,1,-1,-80,-53,11,-27,-14,0,-15
1490984450725,2,12,-92,-121,-119,-28,-10,0,-7
1490984450725,2,-26,33,70,38,59,14,4,-6
1490984450726,0,-2,13,-51,39,26,-1,-5,-9
1490984450726,0,4,-27,2,3,-17,-5,-2,-7
1490984450727,1,10,26,29,62,89,9,-1,11
1490984450727,1,-7,-11,-41,107,40,-8,5,-10
1490984450773,2,-54,-26,-37,-128,-99,-15,-6,-20
1490984450773,2,0,-22,-8,-64,-16,15,3,-15
1490984450774,3,16,-126,46,-17,8,0,1,19
1490984450774,3,-5,-73,89,0,8,-1,0,-12
1490984450775,0,3,89,-36,32,33,-4,-3,9
1490984450775,0,20,127,-24,40,15,-10,0,8
1490984450776,1,-7,-13,-10,-80,-47,-10,2,-7
1490984450776,1,-3,-37,-120,-70,-43,-9,-1,22
1490984450822,2,1,25,79,9,31,-3,0,-27
1490984450822,2,2,0,-4,67,72,21,-2,2
1490984450823,3,13,48,42,55,2,4,-2,41
1490984450823,3,-19,0,-14,19,1,-19,-1,-11
1490984450824,2,-1,-80,-55,-84,54,25,1,-7
1490984450824,2,-19,-76,17,-128,91,-24,0,-6
1490984450825,3,-1,-24,-25,-117,-77,7,-2,1
1490984450825,3,2,27,76,2,-95,-12,1,7
1490984450872,0,12,1,-37,26,-113,-5,2,-1
1490984450872,0,-1,15,28,48,-21,-4,-3,-15
1490984450874,1,3,20,-27,59,93,2,4,16
1490984450874,1,-20,22,-5,50,61,-1,2,-14
1490984450874,3,18,23,68,127,37,10,0,-22
1490984450874,3,1,47,106,-22,53,16,-2,-12
1490984450875,0,0,-20,-68,-80,-58,-11,0,16
1490984450875,0,-6,-28,45,-81,-94,-7,-2,-4
1490984450919,1,-8,-23,-24,-103,-85,-22,-3,-13
1490984450919,1,-9,0,-39,-39,-7,7,-3,9
1490984450920,2,-12,-57,49,120,121,-3,-3,-14
1490984450920,2,18,-126,33,69,7,-6,0,4
1490984450921,0,-18,123,31,-48,-24,3,1,-10
1490984450921,0,2,127,-49,-28,-37,2,-4,-7
1490984450922,1,-4,16,51,23,32,-18,1,-17
1490984450922,1,14,-99,34,-19,24,-8,-1,7
1490984450968,2,-1,-127,-84,-27,-16,28,-1,-11
1490984450968,2,0,-126,14,-58,-35,-10,-4,18
1490984450969,3,-18,-74,-24,-27,-59,-3,1,-17
1490984450969,3,7,-124,10,110,-17,-1,2,-6
1490984450970,1,1,111,-65,-95,-21,23,-5,9
1490984450970,1,0,127,-76,-109,-34,-2,-1,-5
1490984450971,2,-6,97,-27,-117,-98,-28,1,35
1490984450971,2,-9,-2,-22,-45,-45,12,-3,-3
1490984451017,3,-6,-42,3,25,47,-16,-1,-11
1490984451017,3,-15,-90,7,22,-32,-10,3,-28
1490984451018,0,10,-65,46,70,92,9,-1,-3
1490984451018,0,1,-32,-67,12,-46,-13,1,47
1490984451021,2,-11,33,-58,41,24,2,-1,-16
1490984451021,2,0,39,22,37,-58,0,2,-8
1490984451022,3,3,18,-25,53,-50,1,-4,-13
1490984451022,3,-4,-10,-83,-35,-28,-14,-4,8
1490984451066,0,2,12,-39,-109,77,17,-1,-2
1490984451066,0,15,11,-41,-128,21,-37,-1,4
1490984451067,1,6,-13,68,-46,-45,4,1,8
1490984451067,1,-6,-7,108,88,67,19,-4,-12
1490984451068,2,-9,11,127,65,-95,6,3,6
1490984451068,2,-4,-7,59,25,15,13,2,-14
1490984451069,3,1,8,20,3,21,-19,3,18
1490984451069,3,2,1,3,8,9,16,-2,-6
1490984451115,0,3,8,5,-6,-45,-21,-1,20
1490984451115,0,-2,3,-18,0,25,14,-1,-30
1490984451116,1,2,1,-14,-39,10,-33,1,31
1490984451116,1,3,9,4,13,-25,22,2,-13
1490984451117,3,-2,6,-4,-1,33,-2,-1,-5
1490984451117,3,0,1,-24,-25,-16,-21,-1,1
1490984451118,0,0,-3,2,11,-19,-4,3,-5
1490984451118,0,1,4,5,19,75,12,-4,8
1490984451164,1,-2,-6,-3,2,-10,2,2,-2
1490984451164,1,-9,-1,-6,0,-6,8,-1,3
1490984451165,2,15,1,6,-4,-22,-23,1,-2
1490984451165,2,-7,-1,-8,6,20,11,3,7
1490984451166,0,2,0,4,10,1,1,-3,10
1490984451166,0,-3,-8,3,-1,28,4,4,-12
1490984451167,1,-7,2,-14,-18,-73,1,-2,-6
1490984451167,1,0,-1,2,-6,-19,-6,-1,6
1490984451212,2,3,4,-1,6,24,-8,-2,-13
1490984451212,2,-8,-5,-2,2,-6,17,2,4
1490984451213,3,0,5,13,10,20,2,-2,-3
1490984451213,3,7,4,-4,2,15,-17,-2,-7
1490984451214,1,-14,-7,-5,-2,19,4,-2,-13
1490984451214,1,-5,-1,-9,-6,-2,-6,1,11
1490984451222,2,-1,-2,6,4,33,29,-1,-10
1490984451222,2,10,7,4,0,-47,-4,3,11
1490984451261,3,5,0,-3,0,35,-2,-2,-4
1490984451261,3,4,5,3,-3,4,2,1,8
1490984451263,0,-8,-6,-5,9,-20,-2,1,-13
1490984451263,0,-2,1,8,-5,7,-8,-5,-2
1490984451263,2,-11,2,7,4,-3,2,-3,-8
1490984451263,2,-3,0,-2,13,-15,-12,-1,-2
1490984451265,3,7,3,11,-3,6,-3,-5,2
1490984451265,3,-2,2,6,19,14,10,-1,-7
1490984451310,0,3,-2,-3,3,8,-7,-1,17
1490984451310,0,-9,-14,-7,-12,0,-4,0,-9
1490984451311,1,0,1,-12,-7,12,24,-6,-14
1490984451311,1,-10,-9,-9,-8,-5,0,1,4
1490984451312,3,-16,-27,-52,-18,16,-3,3,-5
1490984451312,3,4,-1,21,4,-7,-8,4,-21
1490984451313,0,-13,-5,-16,-16,15,-8,-6,0
1490984451313,0,2,-1,2,-5,-20,7,0,-3
1490984451360,1,9,4,11,-2,-9,-13,0,1
1490984451360,1,5,8,-5,13,-5,4,-1,15
1490984451363,2,5,7,24,14,-4,-5,5,-8
1490984451363,2,10,2,-21,-7,-14,-3,-1,-3
1490984451365,0,6,2,6,9,-3,-3,0,5
1490984451365,0,-28,-12,1,-15,-9,-7,-1,4
1490984451368,1,19,11,-13,-6,-12,-5,1,-11
1490984451368,1,-8,6,2,-5,7,9,3,35
1490984451407,2,11,11,51,26,12,5,-4,-19
1490984451407,2,20,0,-25,16,15,-2,-2,-4
1490984451410,3,-20,-10,3,-26,-18,-9,-2,-6
1490984451410,3,10,11,96,36,19,1,-3,1
1490984451413,1,10,-23,-72,-47,-21,8,-1,0
1490984451413,1,10,9,55,-25,-11,12,-2,9
1490984451415,2,-29,-5,33,29,34,1,-1,-4
1490984451415,2,-2,-34,31,35,-27,1,-4,16
1490984451456,3,0,12,14,21,10,-11,0,-6
1490984451456,3,-24,-5,-40,15,2,17,-4,-16
1490984451459,0,17,24,15,-50,-26,-8,0,16
1490984451459,0,-12,7,23,3,26,8,-2,-12
1490984451461,1,26,7,16,15,1,1,3,-32
1490984451461,1,2,8,-20,-11,-14,-10,-2,9
1490984451464,2,-36,-16,14,1,-3,-2,1,-3
1490984451464,2,38,54,-22,-4,2,-3,0,-4
1490984451505,3,-12,-39,-30,-9,-7,-6,-5,25
1490984451505,3,-45,1,29,17,17,3,-3,-27
1490984451507,0,27,12,-16,-11,0,-1,-4,2
1490984451507,0,8,13,43,14,15,4,-2,4
1490984451510,2,-2,-26,-11,0,-3,-2,-1,8
1490984451510,2,-40,-19,-21,-10,-1,2,0,-20
1490984451512,3,10,-8,16,11,13,4,-3,-10
1490984451512,3,13,8,11,27,16,8,2,-9
1490984451554,0,7,3,0,-28,-24,-10,-5,-19
1490984451554,0,-7,-10,13,8,23,8,1,10
1490984451556,1,-26,-16,-7,-2,0,-3,-1,-12
1490984451556,1,-6,17,-8,-10,-19,-1,-1,-14
1490984451559,3,5,13,-8,3,-30,0,-3,-2
1490984451559,3,-8,-28,-36,-21,29,5,-2,-1
1490984451562,0,7,14,5,17,-8,1,3,20
1490984451562,0,1,-18,-9,-7,-7,-6,-2,-31
1490984451604,1,-3,26,78,25,12,1,0,-19
1490984451604,1,-3,-16,-24,11,-1,-11,3,5
1490984451604,2,15,-44,-67,-13,-8,6,-2,-10
1490984451604,2,4,14,7,-15,4,2,-1,21
1490984451606,0,-5,-24,0,-12,11,3,2,37
1490984451606,0,-22,-31,-1,31,-9,-5,0,-38
1490984451607,1,15,49,-41,-48,-6,-4,2,71
1490984451607,1,-21,-50,-47,-17,-7,-6,1,-29
1490984451651,2,-26,24,19,-12,-5,-5,-2,0
1490984451651,2,14,28,21,15,11,14,-2,24
1490984451651,3,8,-34,-5,23,-8,4,-1,-7
1490984451651,3,23,6,18,5,4,-7,1,28
1490984451652,1,-34,7,11,15,10,-2,-3,-28
1490984451652,1,-6,-16,-36,-23,-12,11,0,11
1490984451653,2,17,70,57,-14,-9,2,-3,-15
1490984451653,2,23,-12,-32,15,6,-5,-1,29
1490984451748,3,-17,41,15,-7,4,-1,-1,-1
1490984451748,3,11,-48,-42,0,9,1,-4,-5
1490984451797,0,0,34,39,3,-9,4,-4,-20
1490984451797,0,30,32,9,3,1,1,-4,69
1490984451800,2,-10,-8,-47,-5,-1,-5,3,-22
1490984451800,2,-17,-2,-3,-11,-12,-12,-1,-22
1490984451801,3,17,-25,6,5,10,3,-1,-26
1490984451801,3,21,42,33,21,8,3,-1,18
1490984451802,0,43,69,4,7,4,16,-2,7
1490984451802,0,-58,-73,-27,0,-13,-2,1,-19
1490984451846,1,29,17,15,-23,-3,-15,-5,45
1490984451846,1,-18,25,-2,-32,-5,-3,-1,-63
1490984451847,3,-2,-5,1,6,-11,0,8,-1
1490984451847,3,27,43,89,6,6,-2,0,19
1490984451852,3,-30,8,62,9,-24,-10,3,-15
1490984451852,3,0,-38,-78,27,8,-15,4,-8
1490984451853,0,-43,-9,2,28,0,-9,2,-20
1490984451853,0,-3,-10,-22,-5,1,25,-2,25
1490984451895,1,-7,31,16,-2,-2,0,0,-12
1490984451895,1,39,35,34,-3,-1,-12,2,15
1490984451896,2,43,-54,-15,1,6,-15,-4,-4
1490984451896,2,-25,-32,26,-12,-18,1,0,-15
1490984451897,1,37,32,7,0,25,18,1,-8
1490984451897,1,-62,-85,-13,-7,-10,8,1,-6
1490984451898,2,19,-27,20,-2,3,-15,3,-20
1490984451898,2,11,-38,-3,9,6,5,-5,9
1490984451943,3,-13,-21,0,9,-2,-5,-3,-9
1490984451943,3,-4,4,15,-27,-16,3,0,8
1490984451944,0,14,-23,2,6,15,10,0,26
1490984451944,0,-19,27,-27,2,-1,1,1,-16
1490984451945,2,-11,-34,-22,5,-8,1,3,-13
1490984451945,2,29,-67,5,-17,11,-3,3,-2
1490984451946,3,-48,-14,0,-26,-26,-3,2,7
1490984451946,3,19,-11,13,-4,4,2,-1,-32
1490984451992,0,6,0,-15,-5,-5,5,0,35
1490984451992,0,-8,-4,2,22,18,11,0,-1
1490984451994,1,-4,-31,4,-3,-14,-9,0,1
1490984451994,1,37,-85,-1,-14,-4,0,-3,-4
1490984451995,3,10,115,0,11,-9,-6,-7,-2
1490984451995,3,24,-24,-17,-1,7,-6,0,-2
1490984451995,0,-26,-90,3,-7,-8,-15,-1,11
1490984451995,0,36,-63,-5,-24,-3,1,-2,4
1490984452042,1,-12,-49,3,-11,11,4,1,9
1490984452042,1,-13,-1,9,-7,2,-6,2,-10
1490984452048,2,15,-95,10,20,17,2,-3,4
1490984452048,2,-24,62,-1,8,-6,0,-3,-10
1490984452049,0,26,21,8,-7,-4,0,-3,-6
1490984452049,0,8,-116,-11,-5,2,-7,-1,2
1490984452050,1,-7,-85,9,7,0,4,-1,-4
1490984452050,1,-22,-43,1,-8,-1,2,0,-1
1490984452090,2,17,45,7,8,-19,-4,-2,-7
1490984452090,2,6,-76,9,15,7,-7,-2,5
1490984452091,3,40,-73,-7,20,7,15,1,13
1490984452091,3,-4,92,10,9,-2,-7,-4,-14
1490984452092,1,2,63,-6,-21,-11,-15,0,2
1490984452092,1,-25,-105,-7,-21,-6,2,-3,-1
1490984452093,2,11,-87,-18,-5,2,8,0,-1
1490984452093,2,-11,-72,13,9,-1,6,-1,2
1490984452139,3,25,-62,-8,19,16,18,1,-1
1490984452139,3,24,-95,19,30,5,-9,-4,0
1490984452141,0,-24,-77,-2,-12,-1,9,-1,0
1490984452141,0,-16,72,-14,-8,-9,-15,1,-5
1490984452142,1,23,107,-14,-18,-3,7,-2,5
1490984452142,1,9,127,15,13,5,6,-2,3
1490984452143,2,7,14,2,8,12,6,1,23
1490984452143,2,24,-77,20,6,-9,-6,-2,4
1490984452187,3,-27,-126,-14,7,-1,-11,-5,-14
1490984452187,3,-37,-102,-5,-23,-7,3,3,-1
1490984452190,0,38,-25,-7,-21,0,-6,1,-15
1490984452190,0,-24,-106,-1,-2,8,14,-1,-1
1490984452191,2,9,126,10,1,7,1,2,-5
1490984452191,2,4,125,0,-9,-15,-4,2,-7
1490984452192,3,-28,-26,16,14,14,-5,2,-10
1490984452192,3,35,-128,1,2,-14,2,2,13
1490984452236,0,-19,-117,17,21,16,2,-4,0
1490984452236,0,22,-91,-6,7,-9,-2,-1,4
1490984452238,1,-32,52,-4,-3,9,-1,0,-6
1490984452238,1,16,122,-4,-1,13,-9,-6,6
1490984452240,3,-30,-9,13,-4,-11,3,1,-5
1490984452240,3,15,-64,-4,-6,8,1,0,9
1490984452241,0,-23,-36,-7,8,4,1,-5,-21
1490984452241,0,-6,-9,-13,-2,-10,-1,1,19
1490984452284,1,26,43,-1,-9,-7,-4,-1,-3
1490984452284,1,-18,3,5,-1,-3,7,-2,-1
1490984452285,2,11,14,4,-5,-9,-10,0,-5
1490984452285,2,3,91,-12,-6,0,-3,-1,-4
1490984452286,0,11,-76,-10,4,23,-5,0,1
1490984452286,0,-6,79,-21,-14,-10,5,-10,-3
1490984452287,1,4,106,-22,-15,-19,1,-1,8
1490984452287,1,-16,85,0,-3,-3,-8,-1,-14
1490984452333,2,11,-77,10,-2,-3,5,-3,3
1490984452333,2,-18,-111,5,7,0,-4,1,2
1490984452334,3,18,-34,-22,-2,13,0,-5,1
1490984452334,3,-19,105,0,-1,-15,-7,-2,-9
1490984452334,1,34,-115,-20,-8,-7,8,0,47
1490984452334,1,-29,-89,-21,-7,8,8,0,-5
1490984452335,2,2,18,-28,-6,-17,-6,0,3
1490984452335,2,33,91,0,-4,6,-1,4,-4
1490984452382,3,-5,72,9,-2,-1,-2,0,-11
1490984452382,3,3,56,11,10,25,-8,-4,-1
1490984452383,0,2,8,5,-9,7,9,-1,5
1490984452383,0,32,-81,11,11,14,-7,-5,-3
1490984452384,2,-2,-42,5,0,-18,2,4,-6
1490984452384,2,-4,-48,1,4,0,0,-1,4
1490984452385,3,34,-54,1,-2,-11,-1,-3,1
1490984452385,3,6,-35,6,-6,-10,-6,-1,-1
1490984452431,0,-16,105,8,-10,1,0,2,-4
1490984452431,0,-19,124,26,-4,-1,3,-6,0
1490984452432,1,-10,-38,24,-6,-2,4,2,-1
1490984452432,1,8,-111,-12,0,3,-2,-1,-2
1490984452433,3,59,53,-18,-5,-3,-11,2,-3
1490984452433,3,-56,90,27,1,-7,5,4,-11
1490984452434,0,18,95,40,-1,2,-2,-3,-7
1490984452434,0,4,46,22,8,6,1,0,-4
1490984452481,1,-39,5,8,2,6,5,-2,4
1490984452481,1,51,1,1,-4,-4,5,1,11
1490984452484,2,-8,-19,-12,-19,0,3,0,-5
1490984452484,2,2,-32,-5,-4,-3,-1,3,3
1490984452486,3,-20,-15,3,-2,-1,-5,-4,-18
1490984452486,3,29,12,-20,-5,-4,3,1,12
1490984452488,0,-24,1,-1,5,8,0,-1,1
1490984452488,0,20,-38,-8,7,-6,-13,2,5
1490984452529,1,-40,-10,-9,4,6,1,1,-1
1490984452529,1,-3,27,2,-2,-2,-1,-3,-3
1490984452530,2,-60,-28,12,26,3,2,0,-18
1490984452530,2,28,2,-7,-12,-4,0,-2,-3
1490984452531,0,10,-2,6,2,-5,4,-1,2
1490984452531,0,5,7,6,-2,9,4,0,-7
1490984452532,1,15,-10,-14,4,-1,4,-3,3
1490984452532,1,8,4,8,-7,-2,6,-3,14
1490984452577,2,92,25,1,-16,-4,-7,-2,4
1490984452577,2,-79,-34,8,6,2,-1,0,-5
1490984452580,3,-24,6,-9,-11,6,8,1,-14
1490984452580,3,-19,2,-8,12,2,-1,-2,3
1490984452581,1,-9,2,9,13,4,2,3,-18
1490984452581,1,-10,-1,-17,-24,-7,-1,-6,-4
1490984452582,2,-47,-11,2,-10,-6,-5,3,1
1490984452582,2,50,9,-7,-1,-1,-4,0,12
1490984452626,3,-2,12,6,-1,-1,-3,8,-10
1490984452626,3,46,-18,2,10,-6,-8,1,2
1490984452628,0,-31,13,-21,4,-2,-2,-2,21
1490984452628,0,-37,-16,5,-6,1,0,4,-30
1490984452629,2,-41,0,9,18,-12,-5,-4,12
1490984452629,2,15,12,-9,2,-5,4,0,-2
1490984452630,3,-14,-32,1,17,5,9,1,-9
1490984452630,3,32,47,16,-4,-2,-5,0,-7
1490984452679,0,15,-24,-11,-4,6,-1,-1,-7
1490984452679,0,24,32,35,1,-3,-1,1,46
1490984452681,1,-12,-22,-24,-10,-1,-1,-1,0
1490984452681,1,6,5,-29,-14,-6,-4,1,-11
1490984452682,3,18,12,22,-17,-4,1,-1,21
1490984452682,3,21,12,50,18,-1,-1,5,27
1490984452683,0,-3,11,-19,-6,-4,3,0,1
1490984452683,0,-13,-34,-39,-5,-5,-5,-3,-35
1490984452772,1,-8,6,-11,-10,6,4,-4,-10
1490984452772,1,5,42,-2,-38,-5,0,-2,-8
1490984452775,2,17,-28,5,7,0,-7,4,11
1490984452775,2,-19,2,27,24,7,5,2,0
1490984452776,0,44,27,10,-1,0,3,-1,-8
1490984452776,0,-34,-25,1,-1,-7,-11,-2,4
1490984452777,1,-29,34,-20,20,6,7,1,32
1490984452777,1,-20,-1,27,19,9,-1,3,-46
1490984452821,2,-9,-101,-72,-1,1,-3,0,-5
1490984452821,2,15,33,-3,-28,1,1,3,-2
1490984452823,3,18,61,74,0,-13,-1,-8,17
1490984452823,3,29,-70,-11,-24,2,2,-5,16
1490984452824,1,-37,51,14,-18,8,-3,-1,-22
1490984452824,1,17,6,23,3,0,0,0,-15
1490984452825,2,30,-27,-90,-32,-13,12,3,25
1490984452825,2,-26,16,-10,-14,-1,-34,-4,-26
1490984452870,3,25,-56,-20,-8,-2,-12,4,-24
1490984452870,3,-32,40,12,12,12,36,-4,13
1490984452872,0,40,74,48,-49,4,-6,-4,13
1490984452872,0,24,28,46,23,17,3,-2,-24
1490984452873,2,4,-49,-105,5,-7,10,1,66
1490984452873,2,20,20,-31,-49,-15,-28,3,-40
1490984452874,3,-4,51,45,-13,9,4,-1,-10
1490984452874,3,50,-5,-7,-28,0,-13,-1,53
1490984452919,0,-67,13,71,34,1,7,4,-58
1490984452919,0,-6,-10,-44,-3,14,-2,-1,-7
1490984452920,1,0,46,44,-1,-22,1,1,-4
1490984452920,1,-36,-83,-89,20,-14,-5,1,15
1490984452922,3,41,-20,8,-3,-9,4,3,2
1490984452922,3,-3,-4,8,35,17,1,0,0
1490984452923,0,-22,24,-58,-60,-15,-6,-4,-29
1490984452923,0,-14,-27,23,25,2,5,3,-4
1490984452968,1,-30,40,-6,-31,-3,5,-1,-34
1490984452968,1,81,15,-17,14,16,-5,-2,19
1490984452971,2,14,87,127,19,17,10,0,55
1490984452971,2,5,-64,-45,85,0,1,3,-12
1490984452972,0,-39,-48,19,57,17,6,-2,12
1490984452972,0,-19,31,48,-29,11,8,-1,-6
1490984452973,1,46,44,63,36,20,17,-4,68
1490984452973,1,-12,88,127,24,18,-4,0,-62
1490984453016,2,4,-101,-121,55,-13,-1,1,-17
1490984453016,2,-27,50,-77,-98,-48,-7,2,-38
1490984453018,3,-44,-62,-127,56,13,-8,-2,-3
1490984453018,3,-51,87,90,-42,17,-10,1,-13
1490984453019,1,20,-15,14,20,33,9,0,-16
1490984453019,1,14,-96,23,29,-39,-15,-3,0
1490984453020,2,-41,103,-33,1,35,-9,-1,30
1490984453020,2,-63,34,-63,-6,-7,20,-1,-24
1490984453065,3,106,116,91,-42,-2,14,2,31
1490984453065,3,-62,-89,20,97,6,7,-1,4
1490984453066,0,80,72,-48,-85,-15,-17,-3,9
1490984453066,0,-36,-107,28,6,-16,-7,-2,-52
1490984453067,2,-7,39,21,39,2,-1,1,10
1490984453067,2,-4,35,31,15,55,0,2,-1
1490984453068,3,28,-79,114,75,-25,7,2,18
1490984453068,3,1,22,-38,-48,-4,-4,1,19
1490984453113,0,-11,-110,-105,-79,-67,-9,-6,-17
1490984453113,0,17,100,-20,7,27,-9,-1,13
1490984453115,1,0,60,83,78,57,25,-2,21
1490984453115,1,-12,127,-19,105,10,-11,-2,-51
1490984453116,3,-25,-128,-85,-11,-14,-3,0,-5
1490984453116,3,-36,42,-32,4,45,9,-2,6
1490984453117,0,48,114,127,58,42,10,-5,12
1490984453117,0,5,83,54,68,-57,-8,-1,14
1490984453162,1,-22,-13,-74,-102,-18,-10,-1,-26
1490984453162,1,28,-127,66,45,34,-5,8,0
1490984453211,2,-57,-83,-101,-53,-52,7,3,-23
1490984453211,2,16,-62,-30,-79,18,5,-2,-12
1490984453213,0,15,120,-4,10,9,1,1,-19
1490984453213,0,-8,127,-21,17,0,5,2,-7
1490984453214,1,-40,6,-35,-73,-11,-3,-1,-27
1490984453214,1,8,-79,17,-31,-19,4,-4,0
1490984453215,2,33,-65,94,123,46,14,-2,32
1490984453215,2,-8,-114,-66,-25,12,-2,-3,-10
1490984453260,3,-34,-76,-110,-13,-23,-17,-2,-32
1490984453260,3,5,92,-5,-75,-37,1,-1,49
1490984453261,0,3,112,-17,-6,4,-1,-1,-22
1490984453261,0,11,-20,-47,4,1,3,-4,7
1490984453263,1,13,-40,45,13,3,8,1,8
1490984453263,1,-11,-96,0,1,6,-1,-1,-1
1490984453264,1,25,78,99,18,18,-11,-2,20
1490984453264,1,15,50,34,-56,-13,27,-3,1
1490984453309,2,-2,-84,31,9,-16,2,-2,54
1490984453309,2,-17,-18,-25,29,45,-12,0,-23
1490984453310,3,-1,8,-68,-2,-12,6,-4,-22
1490984453310,3,-8,12,-52,-14,9,-1,0,-6
1490984453312,2,-19,-45,-89,-69,-69,0,-5,-26
1490984453312,2,-9,-7,13,-14,29,-8,-3,23
1490984453313,3,-12,-9,-6,89,58,-11,2,-6
1490984453313,3,11,0,-43,-37,-47,-15,2,7
1490984453357,0,-24,11,38,-56,-8,8,-1,-25
1490984453357,0,-3,17,-6,68,7,0,0,29
1490984453359,1,14,60,-42,-45,21,-1,0,2
1490984453359,1,30,-91,68,31,-20,-20,1,18
1490984453361,3,-20,117,86,63,1,5,-6,-6
1490984453361,3,18,126,57,43,28,26,2,20
1490984453362,0,5,-74,-73,-11,-7,-25,-1,-9
1490984453362,0,-29,-128,7,-81,-31,-18,2,-13
1490984453406,1,16,-64,22,17,-28,14,4,13
1490984453406,1,-15,-34,57,34,53,5,-1,-17
1490984453410,2,22,22,66,6,-21,-2,-2,7
1490984453410,2,-10,2,35,53,33,-2,-4,9
1490984453411,0,20,38,-6,-17,34,6,1,8
1490984453411,0,-4,36,57,3,-27,6,4,14
1490984453413,1,23,26,-15,49,-20,-13,1,10
1490984453413,1,-9,-5,14,-34,-32,14,-6,-25
1490984453454,2,5,57,46,44,43,-1,-2,3
1490984453454,2,4,27,-21,-8,-4,10,-3,-2
1490984453455,3,8,-3,17,44,37,3,1,7
1490984453455,3,-5,-51,-128,-109,-52,-22,-1,6
1490984453456,1,23,12,57,7,14,4,-1,-1
1490984453456,1,-42,-22,-87,-48,13,-6,0,-10
1490984453457,2,34,48,127,20,21,16,-5,9
1490984453457,2,3,-16,-59,29,-19,2,-3,4
1490984453503,3,-7,-118,4,22,-5,1,-4,-11
1490984453503,3,14,-76,-47,-17,10,-10,-1,13
1490984453504,0,-37,82,-110,-108,-68,-2,1,-2
1490984453504,0,5,127,89,92,20,-12,-4,-14
1490984453504,2,8,-128,34,31,6,-17,-1,-2
1490984453504,2,2,-105,-101,-90,21,-7,1,4
1490984453506,3,-17,-52,-26,-125,-35,-9,0,-10
1490984453506,3,14,34,68,-20,-31,-2,2,6
1490984453552,0,8,8,4,26,17,9,-1,4
1490984453552,0,-6,6,71,98,24,7,-3,1
1490984453553,1,7,9,-36,4,2,-4,-3,0
1490984453553,1,-13,12,-55,-29,-6,0,1,-7
1490984453553,2,-8,33,-41,48,-12,11,-3,-4
1490984453553,2,16,-7,58,50,65,9,-1,28
1490984453554,3,3,40,45,127,-12,-1,-2,-7
1490984453554,3,-12,1,-98,-105,-20,0,-8,0
1490984453601,0,4,-24,32,-98,-7,-12,0,9
1490984453601,0,-2,-65,-11,-128,-18,-9,-4,-22
1490984453604,1,-6,75,-22,-128,10,-2,0,16
1490984453604,1,16,124,42,13,4,-14,-3,6
1490984453605,3,-4,-99,-4,66,-9,-7,3,-1
1490984453605,3,-11,-72,18,127,-36,27,0,-8
1490984453606,0,12,-25,8,65,-13,-12,0,-1
1490984453606,0,4,23,55,-23,-58,2,1,-2
1490984453650,1,-6,16,-5,-65,5,5,3,8
1490984453650,1,1,22,-77,-94,27,-20,0,-6
1490984453652,2,8,25,44,-8,-21,4,-3,-3
1490984453652,2,-14,10,-12,15,28,12,-2,-3
1490984453653,0,-6,-58,-29,20,6,-7,-3,-8
1490984453653,0,21,-105,12,-42,-51,5,1,5
1490984453654,1,-9,-128,-25,23,-18,0,-5,-4
1490984453654,1,-4,47,19,34,-36,5,4,-4
1490984453699,2,5,101,-87,-66,3,-6,1,5
1490984453699,2,3,127,85,21,28,-9,0,-25
1490984453700,3,-10,66,-109,-115,-64,-15,0,17
1490984453700,3,-4,-81,17,-11,-4,8,5,4
1490984453701,1,0,-51,38,67,6,0,-4,-6
1490984453701,1,6,-21,-14,52,32,-9,-8,-11
1490984453702,2,1,25,-23,-48,-19,-7,-4,9
1490984453702,2,-6,67,-43,-56,-56,-3,-1,2
1490984453747,3,6,56,-60,-41,64,12,1,-16
1490984453747,3,-12,14,-30,56,50,-17,-1,1
1490984453748,0,-9,-28,-23,64,-40,15,-2,-14
1490984453748,0,0,-31,-44,53,2,-34,-6,-14
1490984453749,2,1,-11,77,-8,-6,-17,-1,-6
1490984453749,2,-8,-3,71,-21,21,32,1,16
1490984453750,3,3,7,54,-1,-41,-40,0,-20
1490984453750,3,12,-2,30,-10,12,-15,2,11
1490984453796,0,-1,3,-21,-16,47,25,3,11
1490984453796,0,1,-1,-16,-31,-42,18,2,-17
1490984453797,1,-11,-3,8,9,53,18,2,-6
1490984453797,1,6,8,3,4,-69,-34,-2,-4
1490984453798,3,2,-8,4,15,2,24,-3,-18
1490984453798,3,-3,3,-7,-18,43,9,-2,-8
1490984453799,0,6,12,-9,4,-54,5,0,19
1490984453799,0,-2,-6,12,14,7,-8,-2,-3
1490984453894,1,2,-2,-3,-7,8,-28,-2,-4
1490984453894,1,-1,-2,-13,-25,-46,24,-6,1
1490984453895,2,4,6,5,-4,21,-12,0,-1
1490984453895,2,-7,-2,-11,-4,-9,10,-1,1
1490984453896,0,1,3,-2,-4,-25,-12,-2,-13
1490984453896,0,0,0,-5,0,24,-15,0,9
1490984453897,1,-3,-4,5,-7,-5,-1,-3,7
1490984453897,1,-2,-7,-12,-2,-5,12,2,1
1490984453942,2,-7,-4,-2,1,-4,-4,1,-16
1490984453942,2,12,1,3,12,4,-1,2,6
1490984453945,3,-23,-9,-4,-4,7,2,1,-22
1490984453945,3,9,3,3,-1,29,-5,-2,34
1490984453946,0,4,-3,1,-5,-34,-10,-3,0
1490984453946,0,-3,3,-6,-10,-5,18,0,3
1490984453948,1,8,15,14,8,1,-7,3,-3
1490984453948,1,-2,-10,-8,0,-2,-3,-5,0
1490984453991,2,7,10,2,-10,12,5,1,5
1490984453991,2,-16,-29,-14,0,-9,-10,-2,-15
1490984453992,3,-20,-6,-10,1,-13,3,-4,0
1490984453992,3,11,5,-2,-3,-3,-14,-4,-10
1490984453993,2,-1,-7,-4,16,38,8,-2,-12
1490984453993,2,14,9,12,-2,-6,-14,1,15
1490984453994,3,-5,-4,5,2,0,14,-1,-21
1490984453994,3,-6,-10,2,4,-15,-9,-3,14
1490984454039,0,-3,-6,-20,-5,10,8,-3,-5
1490984454039,0,-1,-1,-19,-10,4,3,0,-3
1490984454040,1,17,12,0,-13,-18,-8,-1,0
1490984454040,1,8,7,17,13,24,2,1,0
1490984454041,3,-17,3,-3,-9,10,4,3,28
1490984454041,3,9,14,28,5,3,-1,-1,-3
1490984454042,0,11,5,3,8,-8,-5,-2,3
1490984454042,0,10,15,17,-2,9,2,-5,-17
1490984454088,1,32,2,-3,-24,-15,0,-3,39
1490984454088,1,-26,-38,-31,-1,3,2,1,-19
1490984454089,2,-4,-11,-9,7,24,-8,1,-9
1490984454089,2,-22,-16,-9,-15,-21,11,-4,-6
1490984454090,0,4,-26,-7,-11,12,-1,-1,3
1490984454090,0,-4,43,-2,-10,-5,-13,2,0
1490984454091,1,11,-5,-9,-14,-19,-1,-4,-14
1490984454091,1,-18,5,5,6,-1,2,0,-9
1490984454137,2,13,-14,-17,1,-3,0,-4,28
1490984454137,2,-28,16,45,33,25,15,1,-22
1490984454138,3,16,31,50,25,2,-3,1,-21
1490984454138,3,-16,-23,-83,-36,-13,-16,-3,19
1490984454139,1,-7,-14,1,-13,-19,-7,0,9
1490984454139,1,-5,-11,13,21,7,13,-5,-18
1490984454140,2,-22,6,9,-25,-6,-2,0,4
1490984454140,2,14,-9,-16,21,1,-20,-1,11
1490984454187,3,-12,6,49,25,3,17,-2,-28
1490984454187,3,66,29,-33,-22,0,-10,4,9
1490984454187,0,12,-31,17,-22,-6,2,3,13
1490984454187,0,-33,1,14,31,11,9,0,-11
1490984454188,2,-63,-32,-32,-9,-2,-6,-1,12
1490984454188,2,53,-7,9,-12,-14,-2,2,3
1490984454189,3,-51,-45,-34,-13,6,3,0,6
1490984454189,3,-11,52,39,29,2,-8,2,-2
1490984454235,0,25,16,3,-7,-5,5,-2,17
1490984454235,0,-10,-44,-13,-3,0,0,-1,21
1490984454236,1,18,44,-23,5,12,8,-2,-20
1490984454236,1,-36,26,48,2,-4,-9,1,-8
1490984454237,3,22,5,-58,1,-18,-4,-11,1
1490984454237,3,-37,-16,-12,-41,-8,-4,1,-13
1490984454239,0,25,37,58,7,1,6,-3,54
1490984454239,0,-22,4,-6,32,-9,-3,-1,-17
1490984454284,1,7,-30,29,-35,17,0,1,-12
1490984454284,1,20,10,-13,16,7,4,-2,35
1490984454285,2,-22,20,-9,-11,-17,-10,0,-45
1490984454285,2,-1,9,13,-21,2,5,-5,-10
1490984454332,3,28,33,8,20,3,-8,-3,13
1490984454332,3,-41,-32,31,1,8,13,-3,7
1490984454333,0,18,35,-13,8,-5,-4,4,-3
1490984454333,0,-25,-8,-53,-24,-10,-7,-2,-7
1490984454334,1,-16,-9,22,23,7,4,3,-32
1490984454334,1,33,-11,6,-29,-1,-8,-1,38
1490984454335,2,6,3,11,39,-3,2,-3,-26
1490984454335,2,-7,60,-17,0,9,3,-1,-33
1490984454381,0,-27,-31,-3,31,4,-3,0,-13
1490984454381,0,9,-6,10,4,1,3,0,-1
1490984454382,1,-14,-7,8,29,25,4,-2,63
1490984454382,1,8,-9,-47,-8,-20,-3,0,-43
1490984454384,2,45,25,6,-26,1,-7,0,16
1490984454384,2,-20,-3,17,0,-11,0,-1,9
1490984454385,1,18,49,11,13,2,-13,-4,-35
1490984454385,1,-53,-21,12,18,13,8,0,-14
1490984454430,2,26,4,-22,-17,-2,3,5,-2
1490984454430,2,-9,-9,10,-2,-4,-5,-2,19
1490984454431,3,35,5,4,-15,3,-7,1,-8
1490984454431,3,-18,55,13,23,9,8,-1,15
1490984454432,2,-42,-16,8,13,-1,11,1,5
1490984454432,2,-13,0,-39,-27,-19,13,1,-15
1490984454433,3,-2,-1,15,-1,9,-1,-5,2
1490984454433,3,48,1,-5,1,-5,-9,0,-24
1490984454479,0,-42,12,-7,11,7,-14,1,3
1490984454479,0,24,4,27,11,4,-5,0,-24
1490984454480,1,-21,-85,-53,-23,3,7,4,-27
1490984454480,1,11,-4,16,3,-5,0,1,58
1490984454481,3,-17,-70,-28,-22,-7,7,0,-17
1490984454481,3,-36,6,2,13,7,2,-3,4
1490984454482,0,59,4,34,-7,16,9,-3,40
1490984454482,0,45,16,7,20,8,-5,-6,1
1490984454527,1,-40,2,4,22,-8,-12,4,14
1490984454527,1,3,-17,-28,-36,16,11,-1,-17
1490984454529,2,-35,-22,-29,-5,-26,-16,2,-11
1490984454529,2,51,53,34,-17,7,4,-2,37
1490984454529,0,-15,-28,-31,-37,-8,-2,-4,1
1490984454529,0,-6,-18,-2,-14,4,-6,0,-10
1490984454531,1,26,19,1,5,-12,-12,-2,39
1490984454531,1,-12,-16,-11,7,10,10,1,-17
1490984454576,2,-16,28,16,-14,-18,12,-2,-20
1490984454576,2,-13,-17,4,9,4,-1,0,4
1490984454577,3,-4,-20,-13,-2,2,-13,0,-17
1490984454577,3,-46,-3,-28,-30,-23,-13,-1,-7
1490984454578,1,38,6,7,15,16,21,-2,13
1490984454578,1,0,16,3,-12,-4,-4,-6,6
1490984454579,2,-36,-13,-17,-1,-3,-13,4,-50
1490984454579,2,22,-2,12,-15,-1,9,1,11
1490984454626,3,-18,-30,-16,2,13,-3,0,13
1490984454626,3,33,-12,3,-4,-16,-7,1,-6
1490984454627,0,-8,14,33,13,1,-7,2,6
1490984454627,0,18,-1,-13,3,3,-9,0,8
1490984454628,1,-74,-17,-7,11,10,13,0,-16
1490984454628,1,96,42,1,-21,0,0,2,20
1490984454629,2,-33,21,16,19,-8,-3,-4,14
1490984454629,2,26,-3,-12,-3,11,4,-4,2
1490984454677,3,-20,-24,-14,-11,-12,-5,-2,-16
1490984454677,3,-31,-23,-3,-16,0,5,-2,12
1490984454678,0,9,-27,13,19,6,24,2,7
1490984454678,0,-3,11,19,21,0,-8,-4,-15
1490984454679,2,30,-18,-12,-30,10,1,-2,-4
1490984454679,2,-67,-23,-1,-18,-25,4,0,-4
1490984454681,3,26,11,11,-1,-4,3,2,-9
1490984454681,3,15,19,7,50,1,13,1,11
1490984454723,0,-16,44,27,31,14,9,-4,8
1490984454723,0,3,-9,8,9,5,-18,2,-4
1490984454725,1,49,-15,-29,-59,-9,-7,1,9
1490984454725,1,-53,-63,-14,-28,0,5,0,-16
1490984454726,3,-13,18,4,15,2,-2,-1,0
1490984454726,3,-1,-10,-12,-26,-2,-11,-1,5
1490984454729,0,29,-8,2,-3,0,-1,-2,1
1490984454729,0,-68,-16,0,15,13,10,-1,-4
1490984454771,1,20,13,25,8,5,4,-4,10
1490984454771,1,-12,6,7,3,6,-14,0,-12
1490984454772,2,24,-19,-30,-33,-11,-13,-2,-4
1490984454772,2,-1,17,-13,-30,-5,5,1,7
1490984454773,0,42,61,3,5,-4,-1,-3,7
1490984454773,0,-8,35,1,6,1,-12,-3,-1
1490984454774,1,-25,-56,-14,-3,-4,-6,2,-19
1490984454774,1,-4,-103,-6,-17,-5,13,-1,13
1490984454820,2,15,-33,-10,-7,-2,-2,2,0
1490984454820,2,-40,-34,-4,10,1,5,-3,-14
1490984454821,3,24,51,17,18,-1,-1,-3,-4
1490984454821,3,4,36,8,30,-4,-3,1,-3
1490984454822,1,-11,-41,-22,-14,1,-4,0,-3
1490984454822,1,6,-58,-2,3,0,1,3,-5
1490984454823,2,-34,85,12,17,-2,5,1,-3
1490984454823,2,25,64,-2,-4,-1,-10,-3,1
1490984454869,3,-12,37,13,-3,-5,-7,-1,-2
1490984454869,3,43,-14,-2,-19,-2,-4,-6,-8
1490984454870,0,-29,-128,-13,-16,-4,-9,5,26
1490984454870,0,-28,-75,-1,15,8,8,6,-21
1490984454871,2,32,-12,5,-9,2,4,1,-2
1490984454871,2,-2,-20,-2,-9,-5,-2,1,3
1490984454873,3,-20,-18,-17,-4,1,3,2,-7
1490984454873,3,-37,99,-4,1,0,-6,2,-6
1490984454917,0,30,127,0,-1,-2,3,-2,-3
1490984454917,0,19,53,1,-10,-6,-5,0,9
1490984454918,1,-12,-1,23,-1,0,0,-2,-5
1490984454918,1,1,-73,6,8,1,-6,2,-2
1490984454919,3,10,12,8,2,0,-3,0,0
1490984454919,3,-12,17,1,-7,-1,3,-1,2
1490984454920,0,12,-16,8,-2,-6,-9,-4,-6
1490984454920,0,-31,-23,3,13,7,5,-4,-5
1490984454966,1,-16,23,7,-6,3,3,1,-1
1490984454966,1,29,22,-8,-11,-11,2,0,3
1490984454968,2,-2,7,-9,-2,1,-7,1,-10
1490984454968,2,-17,3,-10,-15,-1,9,-1,13
1490984454969,3,44,27,4,-6,-10,-7,-3,3
1490984454969,3,-6,-15,7,3,6,-4,-1,-7
1490984454969,0,-29,-38,3,2,3,1,-3,1
1490984454969,0,27,7,-4,-5,-1,1,-4,-4
1490984455014,1,2,7,7,5,7,4,-2,-5
1490984455014,1,-9,-6,-6,1,-2,11,3,0
1490984455016,2,10,3,4,10,-12,4,0,-5
1490984455016,2,-14,-12,-1,-4,6,-2,-4,-6
1490984455019,0,-8,1,8,-3,5,-5,-1,-12
1490984455019,0,3,-1,-2,11,-6,-8,4,2
1490984455020,1,17,6,-3,-3,8,3,-4,3
1490984455020,1,25,-2,-3,-5,1,-7,-1,1
1490984455064,2,-71,-20,1,6,0,-1,1,-6
1490984455064,2,16,4,5,-4,-9,-7,-3,2
1490984455065,3,4,8,-4,9,-3,-2,1,0
1490984455065,3,35,-16,-21,-10,9,4,1,3
1490984455066,1,5,2,9,-11,-3,-2,1,-7
1490984455066,1,-38,0,10,-5,-6,-3,7,-3
1490984455071,2,15,6,3,8,5,2,-2,-2
1490984455071,2,30,-10,-12,-7,-6,-5,2,-13
1490984455112,3,-63,6,-5,5,6,4,-2,-10
1490984455112,3,18,7,6,-5,2,5,-1,8
1490984455114,0,47,14,1,-16,-5,-2,0,4
1490984455114,0,-30,-6,6,5,0,-4,3,-4
1490984455115,2,-26,3,1,-3,3,0,0,-1
1490984455115,2,0,-23,-1,1,1,-1,-4,-11
1490984455116,3,9,-9,-8,1,-3,4,-2,8
1490984455116,3,-35,7,7,-7,-2,-1,-2,-7
1490984455161,0,11,-3,12,22,7,-1,-3,1
1490984455161,0,13,11,1,-6,0,2,2,-10
1490984455163,1,-28,-1,-10,-9,-1,-1,5,7
1490984455163,1,29,-10,-5,5,-6,-7,0,-5
1490984455164,3,30,9,2,-12,-7,-4,3,6
1490984455164,3,11,14,1,-7,0,-1,-1,-1
1490984455166,0,-34,-40,-11,5,-5,-4,1,-8
1490984455166,0,60,47,5,-9,-2,2,0,-4
1490984455210,1,19,20,-1,-4,1,-3,-3,26
1490984455210,1,-80,-33,2,19,-1,-6,-5,-1
1490984455212,2,35,-5,-3,-10,1,-3,3,5
1490984455212,2,-21,6,2,-1,0,-1,1,-4
1490984455213,0,-40,54,15,6,4,4,-2,13
1490984455213,0,-7,-52,-18,10,3,5,-1,-12
1490984455214,1,37,14,2,2,-1,2,-2,2
1490984455214,1,-73,3,-7,10,0,1,0,-20
1490984455258,2,24,-9,-8,-10,-8,-3,2,10
1490984455258,2,30,53,34,-14,-6,-4,0,12
1490984455260,3,-10,-60,-30,-14,1,-1,-2,-17
1490984455260,3,70,47,28,8,4,6,-1,47
1490984455262,1,-58,22,45,23,4,-1,0,-29
1490984455262,1,49,-11,-44,-10,0,-1,-4,13
1490984455263,2,60,68,28,-38,0,7,-3,-4
1490984455263,2,-98,-38,-15,9,-1,-4,0,3
1490984455307,3,-3,-34,-1,10,1,4,1,-16
1490984455307,3,-18,9,63,-3,5,6,0,13
1490984455309,0,0,-23,-47,10,-8,-6,-4,-14
1490984455309,0,27,27,-3,-11,2,2,1,-8
1490984455310,1,29,-2,-13,-29,3,6,4,24
1490984455310,1,-7,14,32,-1,-1,3,0,-19
1490984455311,2,34,23,-7,17,0,-2,-1,15
1490984455311,2,-42,-46,3,-1,9,2,-1,-22
1490984455356,3,-13,15,69,24,4,0,-1,13
1490984455356,3,15,1,-38,11,2,-1,-5,-13
1490984455358,0,57,-19,-13,-15,-1,2,0,12
1490984455358,0,-71,-3,-9,4,-9,-4,-2,-26
1490984455359,2,9,5,15,4,2,0,-1,14
1490984455359,2,11,-2,-32,-7,-1,-3,-1,7
1490984455360,3,6,-32,48,17,-5,-6,-3,20
1490984455360,3,-26,21,-66,1,2,2,-2,4
1490984455405,0,-71,2,27,-10,1,8,2,-11
1490984455405,0,66,-9,-9,39,2,2,1,3
1490984455407,1,-18,-75,-76,-33,-17,-8,0,-23
1490984455407,1,17,37,4,-43,2,1,4,8
1490984455408,3,12,-2,-60,16,-15,-5,0,10
1490984455408,3,-32,-38,-29,-73,-20,-10,2,-14
1490984455411,0,15,-11,-62,-60,-6,-1,0,-9
1490984455411,0,39,42,102,-31,2,5,0,44
1490984455457,1,2,4,-5,56,13,3,-2,5
1490984455457,1,15,-46,73,53,-3,-5,2,0
1490984455458,2,-73,-46,-87,0,-11,-5,-4,-49
1490984455458,2,50,6,51,-37,-1,8,-1,37
1490984455459,0,17,-45,-51,25,5,-2,0,-3
1490984455459,0,11,12,91,-11,-1,-4,-2,13
1490984455462,1,0,28,-74,25,-6,-4,2,16
1490984455462,1,-7,0,-39,-44,-10,6,0,-12
1490984455502,2,23,35,23,-16,-7,-6,-3,29
1490984455502,2,12,-17,-15,-25,3,2,-1,8
1490984455504,3,-30,27,66,7,12,4,-1,-34
1490984455504,3,4,-61,-45,38,16,4,3,53
1490984455505,1,57,83,120,-44,-14,0,0,11
1490984455505,1,-80,-17,-25,-12,-6,4,-2,-23
1490984455506,2,83,102,46,-35,6,-3,1,-29
1490984455506,2,-3,-87,-101,-10,-8,2,-5,8
1490984455551,3,-53,18,52,20,17,0,-2,-28
1490984455551,3,50,81,29,0,12,4,-4,-7
1490984455553,0,26,8,90,127,8,2,3,39
1490984455553,0,-78,-77,-88,-12,-18,-12,-3,-63
1490984455554,2,-126,-60,-90,-91,1,-4,-1,-1
1490984455554,2,48,83,77,-57,-5,0,0,-34
1490984455562,3,-36,-107,-2,-4,-19,2,-1,10
1490984455562,3,100,56,-17,-13,8,7,2,36
1490984455600,0,13,33,50,28,14,-1,3,5
1490984455600,0,27,-38,-4,57,23,8,-2,24
1490984455601,1,-65,33,-3,16,11,0,-1,-35
1490984455601,1,6,20,52,64,7,-9,-7,-32
1490984455603,3,2,18,-128,24,8,0,2,-58
1490984455603,3,-21,48,-7,-41,-20,-12,1,8
1490984455604,0,-42,-68,50,111,34,6,2,8
1490984455604,0,86,124,82,-37,-7,-1,0,-25
1490984455648,1,-55,-73,4,27,-19,-8,2,-30
1490984455648,1,4,-6,13,-10,16,3,-3,9
1490984455650,2,35,-44,6,24,1,4,-3,-1
1490984455650,2,-16,38,-57,0,-15,-3,1,-4
1490984455651,0,99,20,33,58,13,9,0,46
1490984455651,0,-53,17,-58,55,48,8,1,-5
1490984455652,1,-26,18,-89,5,-38,-16,-3,-24
1490984455652,1,19,-121,-72,-92,-35,-10,2,24
1490984455697,2,-42,53,54,-60,0,1,-3,35
1490984455697,2,61,72,127,3,-3,2,-5,29
1490984455699,3,44,23,21,22,41,11,0,9
1490984455699,3,-8,17,47,56,30,13,-1,34
1490984455700,0,-60,-46,-10,42,-48,-19,1,-25
1490984455700,0,9,-42,-85,-56,5,-5,4,-1
1490984455701,1,-13,-7,68,-60,-8,7,-1,7
1490984455701,1,0,18,63,114,-14,-6,1,0
1490984455746,2,26,-20,-99,-42,9,-3,-3,-5
1490984455746,2,-27,48,26,-21,2,17,0,11
1490984455748,3,42,-29,-19,-9,-16,-7,1,39
1490984455748,3,19,28,79,-41,23,6,-1,-49
1490984455749,1,36,-83,-75,53,-38,-8,-2,-11
1490984455749,1,-113,-56,-51,-91,-53,-12,-3,-49
1490984455750,2,3,95,101,-30,19,8,0,-3
1490984455750,2,19,44,-95,-6,16,8,0,12
1490984455843,3,27,18,71,-56,-1,2,2,34
1490984455843,3,-5,-34,-88,72,24,-6,-1,-1
1490984455845,0,70,-59,31,5,-31,-2,-3,-25
1490984455845,0,-42,-16,17,29,28,1,5,-17
1490984455846,2,-98,-48,89,69,55,14,-2,-43
1490984455846,2,47,2,67,56,0,6,-2,20
1490984455892,3,-23,50,34,0,26,6,-1,39
1490984455892,3,106,61,107,-18,86,19,-5,-12
1490984455894,0,7,-41,-75,62,-54,-10,-1,-6
1490984455894,0,9,-19,-30,-12,-7,-16,-2,32
1490984455895,1,-53,3,-54,-97,-21,0,-1,-32
1490984455895,1,-7,2,14,-12,-7,-3,-4,5
1490984455896,0,9,37,10,-29,15,-3,2,0
1490984455896,0,-20,-22,104,-28,-20,-1,-1,9
1490984455941,1,8,25,-9,56,-8,-5,1,-1
1490984455941,1,28,-43,23,19,36,5,-1,25
1490984455943,2,-21,18,-102,-70,-63,-15,-3,10
1490984455943,2,-27,-29,94,10,-14,-12,-4,-34
1490984455944,3,47,38,38,30,65,44,2,9
1490984455944,3,-53,-68,-50,65,-37,-35,0,-22
1490984455945,1,28,16,121,82,40,6,0,8
1490984455945,1,55,55,69,127,73,27,3,24
1490984455990,2,21,-14,-66,-28,-21,-9,-1,13
1490984455990,2,-20,-73,-60,-100,-51,-21,1,-5
1490984455991,3,-34,-13,-94,-51,-21,-4,-3,-10
1490984455991,3,29,-7,-48,-87,-13,1,4,-20
1490984455993,2,7,38,10,-50,11,-13,0,5
1490984455993,2,-6,-41,-20,69,18,3,3,2
1490984455993,3,4,5,98,29,-8,-6,2,8
1490984455993,3,-23,-43,-89,-84,-22,-6,-2,-24
1490984456038,0,7,15,27,14,57,21,1,11
1490984456038,0,7,-15,-63,42,-42,2,-4,4
1490984456040,1,-7,-21,20,56,18,-2,-1,5
1490984456040,1,-20,23,-49,46,4,8,2,-24
1490984456041,2,17,-20,-19,-72,-7,-6,-2,11
1490984456041,2,-26,-79,-128,35,-36,-16,2,-36
1490984456042,3,-1,-13,21,-42,-21,-2,-4,21
1490984456042,3,15,97,127,93,111,24,-4,-22
1490984456087,0,17,22,-25,54,9,3,-2,6
1490984456087,0,-3,-24,44,-83,-18,7,0,8
1490984456089,1,35,51,-28,127,27,-12,0,9
1490984456089,1,-52,-91,-125,-128,-47,-15,-1,-14
1490984456090,3,-13,-16,4,-22,-7,-1,-5,-14
1490984456090,3,27,3,96,54,12,-1,-2,2
1490984456091,0,1,-11,-47,9,-5,-3,-1,14
1490984456091,0,-15,9,127,-74,-4,1,-1,-1
1490984456136,1,24,56,-9,94,3,3,-1,10
1490984456136,1,-69,-100,-108,-121,-84,-32,-1,-31
1490984456138,2,-16,-17,100,11,-28,4,0,-12
1490984456138,2,40,89,55,93,71,12,-4,19
1490984456139,0,-21,-73,-120,-26,7,-9,-2,-24
1490984456139,0,-8,6,-12,-39,28,-3,3,-13
1490984456140,1,29,81,107,81,9,21,3,18
1490984456140,1,-11,-16,-97,28,-9,-16,0,-4
1490984456186,2,3,29,126,-68,25,16,3,9
1490984456186,2,-3,3,65,93,-8,-12,0,-11
1490984456188,3,-8,-128,-114,-116,-66,-9,5,-3
1490984456188,3,-18,30,-18,-30,5,4,-2,0
1490984456189,1,-13,-9,-52,-37,-28,-11,1,-12
