1490986015854,0,-67,22,-62,-23,-10,-2,-64,-67
1490986015854,0,-10,-45,73,3,20,-89,103,-2
1490986015856,1,-18,-43,29,7,-9,-43,46,17
1490986015856,1,42,-18,11,4,-12,-7,7,19
1490986015857,2,13,-6,-8,6,-11,29,-6,6
1490986015857,2,24,10,-35,-5,-15,28,-50,14
1490986015902,3,61,8,-19,-5,-4,11,-29,-6
1490986015902,3,-14,-8,-15,-10,-12,3,-18,-8
1490986015904,0,27,-1,5,5,19,-4,4,16
1490986015904,0,-50,7,-13,-5,1,7,-1,-15
1490986015905,1,48,5,2,9,12,4,11,20
1490986015905,1,-31,-1,4,-4,1,0,-9,-10
1490986015906,2,-2,-5,19,4,3,-4,21,9
1490986015906,2,36,13,3,3,-6,1,-8,6
1490986015951,3,-22,-1,-8,5,4,7,-14,-3
1490986015951,3,-22,12,1,7,4,-1,29,-7
1490986015953,0,27,-23,1,-8,-3,-10,11,4
1490986015953,0,-15,-11,-15,-17,-9,8,-20,5
1490986015954,1,16,27,9,-8,-9,-11,-4,-9
1490986015954,1,7,-6,1,10,9,-6,5,2
1490986016000,2,-4,-10,16,14,4,-16,15,1
1490986016000,2,-32,4,-10,-4,-2,5,-13,-4
1490986016001,3,-8,-12,-7,-6,-1,8,-6,11
1490986016001,3,-43,-3,9,-2,5,-16,-3,-14
1490986016003,0,-12,0,1,2,0,-4,23,28
1490986016003,0,40,6,-4,10,-4,-2,1,-2
1490986016004,2,20,6,7,-4,-9,-8,-18,7
1490986016004,2,-27,-10,-7,-11,-1,3,-7,-16
1490986016049,3,10,22,3,-2,0,-8,28,10
1490986016049,3,29,5,-2,11,-3,3,23,1
1490986016050,0,-10,2,7,1,3,0,-29,-6
1490986016050,0,24,-5,-4,2,4,4,26,12
1490986016051,3,-43,-40,-17,7,7,4,7,1
1490986016051,3,47,38,18,10,4,-5,0,3
1490986016052,0,-72,-37,-6,-20,-10,-5,8,-9
1490986016052,0,25,17,-22,-16,-16,-5,-29,-13
1490986016097,1,6,-15,39,-18,1,-2,8,-6
1490986016097,1,37,-7,-26,39,11,11,23,36
1490986016099,2,-36,-5,8,-12,-5,1,-6,1
1490986016099,2,-50,1,-9,-8,9,6,9,12
1490986016100,0,96,46,-13,40,5,-2,-3,-3
1490986016100,0,6,-32,49,16,-1,2,-14,-5
1490986016101,1,-64,1,-6,-13,4,-1,-48,-15
1490986016101,1,-40,22,-28,7,-4,4,24,-15
1490986016146,2,41,7,2,-26,-13,-8,-4,5
1490986016146,2,14,12,-1,-15,0,-5,0,-14
1490986016148,3,36,-16,-48,10,6,0,15,15
1490986016148,3,-81,49,75,18,-5,-5,8,-30
1490986016149,0,-7,-1,20,7,19,5,13,51
1490986016149,0,5,9,-8,18,-1,12,0,7
1490986016150,1,34,-31,-25,19,-3,0,27,6
1490986016150,1,63,-6,-15,-81,-19,-11,-24,1
1490986016195,2,-59,-16,7,54,20,19,-7,-7
1490986016195,2,39,26,-43,-33,-19,-4,24,26
1490986016196,3,-40,-2,55,-70,-21,-9,-24,-37
1490986016196,3,-51,31,-23,8,-10,-15,-23,-42
1490986016197,1,-42,-61,-33,10,-1,1,6,-2
1490986016197,1,21,-88,23,-56,-22,-2,-8,23
1490986016200,2,32,39,26,26,-12,-13,-20,-26
1490986016200,2,-111,-47,-69,7,21,8,-11,8
1490986016244,3,111,58,52,7,4,0,19,19
1490986016244,3,-38,-34,-46,39,-2,2,-57,0
1490986016245,0,23,-26,65,-42,-3,-1,21,-11
1490986016245,0,48,5,-14,47,-7,-5,5,-49
1490986016246,2,-62,-20,-22,-17,-6,-5,4,-8
1490986016246,2,76,43,-3,-4,-7,-13,-30,-8
1490986016247,3,-53,-47,17,8,-1,-9,14,5
1490986016247,3,15,-9,-80,11,2,12,-18,-28
1490986016293,0,11,23,61,-5,4,3,8,-12
1490986016293,0,35,6,30,-39,2,4,24,0
1490986016294,1,-60,-35,5,46,2,18,-43,-8
1490986016294,1,-101,-23,30,-12,0,6,23,-29
1490986016295,3,26,106,-24,-41,-21,-15,4,58
1490986016295,3,-10,-92,47,-78,-16,-4,-2,-34
1490986016296,0,1,26,-102,1,-9,2,9,12
1490986016296,0,9,-43,59,-15,11,7,2,-27
1490986016341,1,-2,59,7,13,7,-8,5,12
1490986016341,1,-38,-31,13,106,25,-13,-10,6
1490986016343,2,-5,-26,-23,-67,-15,1,31,-2
1490986016343,2,28,-16,-15,-47,-13,21,1,35
1490986016344,0,-14,50,86,-31,6,-6,-30,-3
1490986016344,0,66,54,-42,63,5,-48,9,8
1490986016345,1,-66,-101,-56,-120,-38,-50,-10,-44
1490986016345,1,14,-46,-36,-56,-29,-19,10,31
1490986016390,2,0,20,-34,68,20,-10,-10,-63
1490986016390,2,-29,-14,67,-43,-5,-7,31,40
1490986016391,3,59,71,-50,7,-7,-23,-35,-7
1490986016391,3,12,51,7,30,25,15,0,-19
1490986016392,1,-93,-53,62,12,17,0,19,-14
1490986016392,1,78,63,-90,-103,-39,2,15,16
1490986016395,2,-86,-50,-7,-72,-26,-11,-19,-12
1490986016395,2,-72,13,21,27,1,47,20,-61
1490986016439,3,76,96,74,115,36,-4,13,66
1490986016439,3,-10,43,42,-5,-1,7,-31,-19
1490986016440,0,-11,-52,-101,11,-11,1,1,6
1490986016440,0,-87,-82,20,-84,-7,-20,4,67
1490986016441,2,-1,-58,-27,34,26,-4,9,39
1490986016441,2,5,31,55,56,7,-8,-2,-12
1490986016488,3,66,-102,-78,-36,-20,-1,-18,6
1490986016488,3,76,33,-37,-46,-27,-2,-2,-35
1490986016489,0,-2,18,-22,8,-13,33,-7,5
1490986016489,0,-40,-99,49,67,40,28,22,36
1490986016490,1,5,86,45,-6,-17,1,-5,-12
1490986016490,1,-76,-53,-5,-67,-14,3,-20,-15
1490986016491,2,36,-76,-87,-83,-21,5,20,9
1490986016491,2,6,68,-11,20,-18,-5,21,34
1490986016536,3,23,9,40,73,22,27,-15,-47
1490986016536,3,72,6,98,108,53,35,9,51
1490986016538,0,19,59,125,-4,4,7,7,-18
1490986016538,0,-94,-38,-106,5,-19,-2,-21,-14
1490986016539,1,81,-128,-74,-93,-36,-1,-4,15
1490986016539,1,-69,42,27,44,-6,24,8,24
1490986016540,3,25,123,43,62,19,-38,23,-12
1490986016540,3,5,-39,-39,26,0,-15,17,37
1490986016585,0,-9,13,-27,55,44,-35,0,22
1490986016585,0,77,-79,22,49,25,-13,-27,-4
1490986016586,1,-113,-85,11,-47,-27,4,25,-8
1490986016586,1,25,3,-66,-75,-40,-27,5,17
1490986016587,0,-50,28,-91,-102,-34,7,5,-17
1490986016587,0,-1,80,87,40,-14,-12,-7,-14
1490986016588,1,41,23,-46,100,78,16,22,71
1490986016588,1,0,127,39,22,2,-2,-32,-8
1490986016634,2,-78,-113,17,-16,-14,1,11,-15
1490986016634,2,19,65,63,37,10,8,-13,-4
1490986016635,3,58,-47,-49,-85,-24,-4,6,36
1490986016635,3,-64,-3,-20,-47,-13,-18,-7,-12
1490986016636,1,-12,7,7,-67,-35,-24,6,-19
1490986016636,1,-41,87,17,2,55,16,-4,-39
1490986016637,2,-21,-64,-47,-49,-43,-11,23,19
1490986016637,2,-23,1,-103,2,14,2,-7,16
1490986016682,3,51,-5,53,0,24,13,16,9
1490986016682,3,-45,30,-36,-10,15,0,7,19
1490986016684,0,-20,13,-9,95,3,22,-21,-19
1490986016684,0,57,8,64,-128,-17,-25,1,-10
1490986016685,2,-9,-63,-81,-76,-14,4,17,15
1490986016685,2,-31,100,13,64,53,0,-5,-7
1490986016686,3,-12,-42,-63,-82,-22,-10,-1,15
1490986016686,3,10,-8,91,111,-5,13,-2,-17
1490986016732,0,118,95,83,41,30,-3,-9,35
1490986016732,0,-128,-38,-128,-109,-37,1,-6,3
1490986016733,1,36,-8,-37,57,9,1,13,-25
1490986016733,1,23,-15,40,64,4,22,6,17
1490986016734,3,-98,-80,-45,-69,-16,-3,2,-4
1490986016734,3,-13,-95,-92,-48,-25,7,19,4
1490986016735,0,-30,71,21,53,23,-1,-22,-9
1490986016735,0,27,88,-72,-97,-34,4,-8,9
1490986016780,1,34,13,18,48,24,-17,-8,-7
1490986016780,1,-1,82,45,23,-3,1,-21,12
1490986016781,2,-77,-59,38,-35,-30,-39,-12,-38
1490986016781,2,-52,24,-7,87,32,24,37,-2
1490986016782,0,-46,-48,75,127,21,-2,-3,0
1490986016782,0,6,-43,-24,-17,5,-6,-12,8
1490986016783,1,76,79,60,80,7,2,1,7
1490986016783,1,-5,-28,25,10,29,21,18,4
1490986016829,2,11,15,-44,-102,-13,-7,-33,-1
1490986016829,2,5,-102,-57,-113,-55,-11,10,-14
1490986016830,3,-83,-99,25,-26,-5,2,32,7
1490986016830,3,67,49,3,67,3,-36,-23,-8
1490986016831,1,53,123,-39,24,7,28,-28,-2
1490986016831,1,-39,-73,-40,-112,-48,-11,3,-9
1490986016832,2,44,67,-51,104,-28,12,26,11
1490986016832,2,-27,-17,85,38,20,8,11,7
1490986016878,3,71,127,96,32,37,7,-6,-39
1490986016878,3,36,35,83,127,58,-10,-8,26
1490986016926,0,-52,-85,-128,-128,-47,-14,2,4
1490986016926,0,-51,-3,-34,-35,-86,-25,-4,-27
1490986016927,1,26,72,7,127,62,16,-26,23
1490986016927,1,-34,-35,46,66,-5,9,21,-4
1490986016930,2,50,29,-56,-25,96,27,17,18
1490986016930,2,24,-80,-97,-70,-54,-33,-2,4
1490986016931,3,-57,-128,82,-4,-49,-16,11,-19
1490986016931,3,8,46,21,33,27,11,-16,-7
1490986017024,0,-5,-53,-27,41,0,-4,13,-2
1490986017024,0,-18,43,90,25,51,39,-10,18
1490986017025,2,48,49,127,127,38,27,-17,15
1490986017025,2,15,36,84,-53,9,-25,-18,-11
1490986017026,3,0,27,-9,-23,10,55,38,7
1490986017026,3,-40,33,-10,-80,-37,44,-18,-7
1490986017027,3,-13,-1,93,-47,-15,-10,-6,-6
1490986017027,3,4,13,-128,-122,-39,-5,4,-5
1490986017072,0,5,12,52,71,-12,-29,-30,-14
1490986017072,0,-1,10,90,42,22,12,7,15
1490986017074,1,-4,24,-69,-34,-22,-24,7,-2
1490986017074,1,20,-6,57,-9,-29,-6,-7,9
1490986017075,0,-14,-7,64,80,-7,-62,-1,-1
1490986017075,0,79,17,30,6,-12,-57,-4,5
1490986017076,1,17,-4,-64,-48,-31,-31,-28,-13
1490986017076,1,-18,0,33,87,25,14,5,-3
1490986017121,2,13,0,81,84,34,37,-14,20
1490986017121,2,-19,0,-86,-128,-7,-52,-2,-3
1490986017122,3,-18,4,21,21,0,18,36,-5
1490986017122,3,24,-3,-7,37,-4,-1,-17,10
1490986017123,2,-14,-3,-24,-18,-21,-12,18,5
1490986017123,2,6,3,58,61,-12,22,-15,-23
1490986017127,3,0,0,-79,-61,13,-14,-29,27
1490986017127,3,-20,-3,-30,12,26,24,6,-16
1490986017170,0,-8,2,-34,-42,-15,-20,3,-7
1490986017170,0,-12,1,9,19,-5,1,27,4
1490986017171,1,47,1,49,11,-9,1,-6,-6
1490986017171,1,-35,-2,-16,24,15,-5,-8,4
1490986017172,3,-7,-2,-6,-42,-22,1,9,6
1490986017172,3,21,-1,-35,-10,6,-6,-12,-1
1490986017176,0,-33,0,-13,-7,-31,14,4,-5
1490986017176,0,5,14,14,-4,10,0,0,-2
1490986017219,1,0,-2,33,-7,-20,9,13,26
1490986017219,1,16,9,7,28,28,2,-10,4
1490986017220,2,12,31,5,1,-16,-12,5,0
1490986017220,2,9,15,22,19,15,-5,-12,0
1490986017221,3,-31,40,7,-5,5,11,-12,-10
1490986017221,3,22,-10,-37,3,9,10,28,7
1490986017221,0,-9,-32,-26,-37,11,-2,-5,-1
1490986017221,0,1,26,4,5,-23,-12,-2,-1
1490986017267,1,5,36,28,10,16,17,-4,0
1490986017267,1,-1,30,10,16,-6,11,-12,-1
1490986017269,2,4,-7,-30,-18,-6,-1,-24,-5
1490986017269,2,-13,1,-14,-12,6,16,2,-2
1490986017270,0,17,0,15,15,51,31,-6,6
1490986017270,0,-18,38,-32,-44,-30,-16,5,-3
1490986017270,1,2,-61,-16,-7,-20,-23,0,-8
1490986017270,1,2,-16,8,-3,-11,13,16,-6
1490986017316,2,21,7,4,2,24,-17,5,14
1490986017316,2,-17,-7,-10,11,2,4,7,-4
1490986017317,3,-11,-3,-2,1,-11,-3,-16,-11
1490986017317,3,19,-31,-30,-6,-11,3,7,-5
1490986017318,1,-13,27,-5,-3,-10,-4,-3,-1
1490986017318,1,61,27,31,26,7,10,-20,3
1490986017320,2,-69,-41,3,8,1,1,2,-10
1490986017320,2,0,-36,-29,-29,-10,1,0,4
1490986017368,3,-11,-10,-2,12,6,-12,16,-9
1490986017368,3,14,6,4,-27,-11,7,-9,10
1490986017369,0,38,60,39,19,22,31,2,6
1490986017369,0,-20,-38,-25,-3,-30,-9,-9,-7
1490986017369,2,19,64,-12,-32,-47,-19,-5,-7
1490986017369,2,-13,-65,-31,-19,10,9,13,15
1490986017370,3,40,41,50,26,6,-2,-20,2
1490986017370,3,-28,-49,-40,-46,-15,-4,1,-8
1490986017414,0,36,47,28,17,-14,-6,1,-1
1490986017414,0,-4,12,31,-10,-2,-9,-5,-10
1490986017415,1,-28,-49,-28,-2,20,18,21,2
1490986017415,1,-16,-16,-22,-9,8,7,23,7
1490986017416,3,-1,-35,-24,-39,-12,-20,-21,4
1490986017416,3,28,55,13,3,3,2,-1,-5
1490986017417,0,-39,-41,-36,7,-5,-6,26,-12
1490986017417,0,23,4,36,19,20,12,1,5
1490986017462,1,-28,30,-4,-5,-7,4,-12,-5
1490986017462,1,74,-39,-72,-9,8,-19,4,12
1490986017464,2,-64,-29,76,-12,-1,3,-26,-1
1490986017464,2,2,-21,-73,-24,-13,6,12,4
1490986017465,0,5,-24,-13,32,22,17,0,14
1490986017465,0,40,17,12,-53,-16,-26,-12,-17
1490986017465,1,-40,-3,-57,11,1,8,-9,33
1490986017465,1,-5,30,67,36,0,-10,13,18
1490986017560,2,16,-31,-45,-21,-2,-2,7,-8
1490986017560,2,-3,-41,-26,-30,-18,3,13,-2
1490986017561,3,-14,29,61,28,12,3,5,-10
1490986017561,3,-6,27,34,13,-1,5,12,19
1490986017562,1,-7,-31,-32,22,-7,-18,4,-20
1490986017562,1,-2,-25,37,-15,7,-6,7,4
1490986017563,2,-59,-14,-19,-4,-10,-13,-1,-20
1490986017563,2,6,71,25,-26,-16,-7,-10,-6
1490986017609,3,-30,-70,-20,-29,1,-1,3,11
1490986017609,3,29,36,23,66,13,15,14,-7
1490986017610,0,16,-15,-35,-17,3,-4,-3,-16
1490986017610,0,-19,-20,62,-4,0,3,-10,15
1490986017611,1,-21,-5,-34,-2,2,-9,10,-18
1490986017611,1,46,66,29,-11,0,-4,-20,14
1490986017611,2,-61,-23,39,25,10,8,4,-16
1490986017611,2,20,0,-43,25,2,17,14,5
1490986017658,3,9,61,88,44,11,-13,-9,2
1490986017658,3,26,9,-22,-61,-11,9,-8,7
1490986017659,0,-24,-25,-18,-44,-15,-16,5,-35
1490986017659,0,30,9,-14,40,16,4,-9,48
1490986017660,3,9,-53,-21,-37,-1,-2,-5,-7
1490986017660,3,-36,16,30,14,-5,11,-3,-5
1490986017661,0,62,27,36,-2,2,5,11,23
1490986017661,0,-9,10,56,20,3,6,0,13
1490986017706,1,-74,-107,-66,-12,-9,-2,17,2
1490986017706,1,-18,25,-65,10,-1,-16,-16,-1
1490986017708,2,36,-26,3,28,9,3,-8,-21
1490986017708,2,-2,18,86,-23,1,7,1,-9
1490986017709,0,5,-56,-22,-30,-2,12,-2,36
1490986017709,0,20,15,-12,9,-8,-10,-14,20
1490986017709,1,8,-74,1,39,25,18,16,0
1490986017709,1,-4,-24,-32,-75,-17,-6,16,23
1490986017755,2,7,67,7,19,1,-3,-21,-19
1490986017755,2,-76,-95,6,-23,1,3,11,-27
1490986017757,3,-13,42,-4,-5,-10,-6,0,2
1490986017757,3,52,26,26,62,27,16,-9,11
1490986017758,1,3,-16,-28,-10,12,2,-7,9
1490986017758,1,-14,5,48,14,-2,-4,8,-22
1490986017759,2,21,20,47,18,14,-1,-23,27
1490986017759,2,57,90,-72,41,6,0,-7,-21
1490986017804,3,-62,-53,47,-39,-13,-11,-9,-6
1490986017804,3,-7,-18,-67,-59,-22,4,3,-22
1490986017805,0,-7,26,-4,14,1,-11,-2,20
1490986017805,0,4,-106,11,13,1,-8,-3,37
1490986017806,2,36,-67,-11,-22,-8,-1,9,-20
1490986017806,2,-29,54,34,35,10,3,6,3
1490986017807,3,34,31,-28,2,-5,-7,-10,-8
1490986017807,3,-24,-65,18,-4,8,10,6,11
1490986017853,0,0,30,-33,-44,-27,-2,-1,4
1490986017853,0,2,70,-2,10,22,1,3,-4
1490986017854,1,-26,-29,16,21,4,1,1,-8
1490986017854,1,6,-39,39,18,1,6,-2,12
1490986017855,3,11,20,-9,-15,-9,-10,-7,-24
1490986017855,3,65,28,43,42,26,2,-5,26
1490986017856,0,-33,-9,-2,26,8,1,-6,2
1490986017856,0,42,33,-17,-44,-23,-16,6,4
1490986017901,1,20,-37,-33,-34,-15,-6,-12,-23
1490986017901,1,-59,-72,-45,-18,-14,-21,18,-23
1490986017902,2,48,56,45,38,16,-37,9,5
1490986017902,2,21,53,15,19,3,-34,-9,13
1490986017903,3,1,12,3,-10,-1,-44,10,6
1490986017903,3,-43,23,-2,3,6,-32,3,24
1490986017908,0,-6,-14,-2,-10,-5,-19,-9,-16
1490986017908,0,7,-10,-11,-7,-6,4,9,1
1490986017950,1,11,20,3,27,4,29,-4,17
1490986017950,1,16,-5,4,-9,1,20,-8,-20
1490986017951,2,49,18,-7,-5,-4,6,-3,13
1490986017951,2,-55,-96,-12,9,2,13,20,-7
1490986017952,0,-14,22,-3,-8,-7,6,-7,3
1490986017952,0,37,30,20,7,5,29,-12,-13
1490986017953,1,-60,-68,-3,15,-2,11,2,16
1490986017953,1,-18,-16,-15,-6,5,13,-1,-28
1490986017999,2,-6,10,5,-11,4,47,25,35
1490986017999,2,19,11,6,6,3,8,1,-16
1490986018000,3,68,31,28,27,12,12,-9,34
1490986018000,3,-31,-38,-3,22,-2,11,-1,-5
1490986018001,1,-8,-5,-12,-9,6,21,3,-3
1490986018001,1,3,57,20,22,-2,-5,-14,1
1490986018002,2,-3,-22,17,29,17,23,10,-4
1490986018002,2,12,3,-16,0,2,1,-11,6
1490986018047,3,-6,2,-14,-32,0,28,8,24
1490986018047,3,-27,-27,-8,-10,-8,-7,5,-8
1490986018049,0,-17,8,20,27,15,18,-1,6
1490986018049,0,-14,15,23,14,-1,-15,-5,-11
1490986018050,2,3,-16,-22,-21,-12,-23,-8,7
1490986018050,2,24,-5,-4,13,5,1,-3,1
1490986018051,3,0,-17,26,18,13,0,6,8
1490986018051,3,-3,26,-7,6,-16,-27,-21,-4
1490986018096,0,-30,-18,-9,-30,-3,-8,-13,-18
1490986018096,0,-8,-17,-12,-11,-5,-18,4,3
1490986018145,1,7,9,-4,-8,-5,-5,-1,-8
1490986018145,1,7,12,22,22,14,-1,6,10
1490986018147,3,-12,-8,-12,-10,-7,0,-3,-9
1490986018147,3,28,7,-7,-10,-3,1,2,5
1490986018148,0,-13,4,12,21,11,6,-4,-6
1490986018148,0,-13,8,18,16,7,-4,-4,-2
1490986018149,1,11,13,1,14,0,2,-1,-9
1490986018149,1,7,-11,-15,-27,-5,9,0,4
1490986018194,2,3,11,-3,-4,-2,-15,-12,3
1490986018194,2,15,24,11,11,3,11,5,-4
1490986018195,0,13,6,-1,6,0,-14,-3,-5
1490986018195,0,-38,-19,2,-1,-1,-12,-11,4
1490986018196,1,69,25,6,7,-5,-14,-3,1
1490986018196,1,12,8,2,1,5,15,-8,6
1490986018197,1,-24,-7,-5,-7,-1,-10,-9,-4
1490986018197,1,7,13,0,-1,-1,1,0,5
1490986018243,2,-9,-7,-2,4,-2,-6,5,16
1490986018243,2,30,11,4,-5,-2,-14,6,1
1490986018244,3,-19,-50,-5,1,2,6,16,-1
1490986018244,3,-12,-12,4,2,-6,-6,-15,-7
1490986018246,2,22,1,7,7,-3,-8,-9,-9
1490986018246,2,0,14,0,3,18,14,2,7
1490986018247,3,-23,14,5,9,7,7,4,-13
1490986018247,3,4,18,0,-4,-7,-18,3,13
1490986018291,0,11,18,-6,-5,0,9,0,-9
1490986018291,0,24,39,3,-3,-8,-6,-3,13
1490986018293,1,-8,11,-7,-5,-4,-3,-4,-8
1490986018293,1,27,66,-4,-8,0,-1,4,-7
1490986018294,2,-54,33,5,10,13,37,6,-5
1490986018294,2,-8,22,5,5,-1,9,7,1
1490986018295,3,-5,6,-2,-3,0,-3,-2,7
1490986018295,3,3,-24,3,8,8,26,5,8
1490986018340,0,3,-48,-8,-10,-10,-32,-16,-13
1490986018340,0,1,-70,0,-7,-7,-2,8,4
1490986018341,1,-3,-85,3,3,7,19,10,5
1490986018341,1,21,-98,1,13,5,3,-16,-1
1490986018343,3,-10,-38,-3,-4,-5,-20,11,11
1490986018343,3,8,-9,4,3,5,3,2,-2
1490986018344,0,-6,-9,6,9,1,-6,10,-1
1490986018344,0,20,24,-4,-3,-6,-27,-12,-15
1490986018389,1,18,30,7,-1,2,3,24,11
1490986018389,1,-18,-7,-8,-2,-5,-10,-1,-3
1490986018390,2,-10,12,-2,5,10,22,2,-1
1490986018390,2,43,57,4,3,1,10,-19,-4
1490986018391,0,6,35,-1,-2,0,3,8,-3
1490986018391,0,8,1,0,-2,-5,-15,23,1
1490986018392,1,-4,-11,0,-2,-2,-17,0,1
1490986018392,1,4,11,0,-4,-4,11,-3,-1
1490986018438,2,7,33,-1,4,0,9,-12,3
1490986018438,2,-17,-8,0,-5,-6,-12,-28,-1
1490986018439,3,31,-13,-9,-4,-3,5,-26,-2
1490986018439,3,-16,-33,-5,-3,-3,-8,-1,-3
1490986018440,1,24,-28,-1,2,7,12,5,0
1490986018440,1,-38,-14,-3,-9,-16,-29,10,-2
1490986018441,2,24,37,2,1,8,23,18,2
1490986018441,2,-34,31,-2,0,2,9,3,-7
1490986018486,3,52,45,-1,-1,-5,-7,27,12
1490986018486,3,-22,28,1,2,6,11,-3,3
1490986018488,0,24,23,-5,-3,-9,-11,-3,-8
1490986018488,0,-29,19,-4,-4,-5,-7,-10,-3
1490986018489,2,-15,-8,2,-7,-14,-30,5,-5
1490986018489,2,13,9,-4,5,11,36,14,2
1490986018490,3,-16,29,-3,-7,-5,-17,-7,-5
1490986018490,3,54,33,-1,-4,-6,-10,-13,2
1490986018535,0,-24,-2,-3,-1,0,1,-2,-2
1490986018535,0,28,20,2,4,2,-3,1,2
1490986018536,1,16,16,5,2,-2,-6,2,1
1490986018536,1,-74,-9,-2,-2,2,-15,0,-3
1490986018536,3,-43,-3,-4,-4,-4,-8,2,7
1490986018536,3,33,2,3,0,-6,-16,3,-7
1490986018537,0,-21,-26,-2,8,1,2,-9,0
1490986018537,0,-13,9,-9,-30,-17,-20,2,-3
1490986018584,1,6,-11,0,-5,-6,-10,-3,3
1490986018584,1,11,6,1,6,10,22,13,-1
1490986018585,2,30,-12,8,12,10,-3,-13,0
1490986018585,2,-22,-29,1,4,-6,-22,-11,0
1490986018585,0,-12,-8,-3,-2,1,-2,8,-5
1490986018585,0,26,-6,18,14,11,5,15,16
1490986018586,1,-34,-24,-9,5,7,6,2,-1
1490986018586,1,-7,30,6,-6,-6,-1,13,2
1490986018632,2,-54,-36,-19,-23,-16,-27,-26,-17
1490986018632,2,25,11,-4,2,7,7,-4,-3
1490986018634,3,23,17,8,6,9,1,13,7
1490986018634,3,8,-21,8,28,5,2,-5,4
1490986018634,0,38,31,7,-5,0,15,9,14
1490986018634,0,-72,-37,-12,-21,-8,-10,-5,-11
1490986018635,1,-6,23,-12,-14,-9,1,-24,-5
1490986018635,1,22,28,19,17,6,1,24,9
1490986018681,2,-8,-69,-6,7,8,-5,-7,2
1490986018681,2,0,48,44,12,2,6,10,-3
1490986018682,3,-77,-50,-51,-20,-13,1,0,-23
1490986018682,3,17,-38,1,-38,-13,-32,-10,9
1490986018730,1,-32,-41,41,30,9,4,3,-7
1490986018730,1,58,57,-90,-8,-3,11,-9,-5
1490986018730,2,8,117,22,-33,-11,1,1,3
1490986018730,2,-47,109,-29,23,9,-15,-4,-14
1490986018731,3,77,127,8,20,-6,-4,-8,7
1490986018731,3,-69,110,67,-7,5,27,4,-12
1490986018732,0,4,70,-42,-25,-6,-1,8,4
1490986018732,0,52,103,-40,5,-4,13,4,5
1490986018778,2,-32,-65,-23,11,11,3,-16,-19
1490986018778,2,64,-34,30,30,-5,4,-12,0
1490986018779,3,-12,-84,30,25,22,12,25,6
1490986018779,3,-27,-47,67,23,11,-9,2,-13
1490986018783,0,25,-63,-6,-11,-10,-4,8,14
1490986018783,0,-3,-79,-28,-27,-6,5,-1,4
1490986018784,3,45,14,6,9,2,-16,8,-13
1490986018784,3,-16,-64,-64,25,0,-2,11,34
1490986018827,0,23,53,24,-8,0,-15,-7,6
1490986018827,0,-50,-92,-1,41,20,20,11,21
1490986018828,1,3,29,3,24,24,-1,-10,-9
1490986018828,1,61,-7,35,-34,-34,-11,0,-11
1490986018829,0,-55,-56,34,29,11,16,-2,7
1490986018829,0,-13,-90,-13,-47,-18,-7,-25,-17
1490986018830,1,73,-17,-69,5,-17,-13,21,23
1490986018830,1,-77,6,-33,-83,-26,-22,-12,-10
1490986018876,2,0,-42,-39,-37,-13,-11,-2,-18
1490986018876,2,-57,119,86,17,24,14,5,23
1490986018877,3,-77,-94,-5,84,27,21,5,-25
1490986018877,3,73,7,-6,-28,-5,13,14,28
1490986018878,1,14,27,-6,-20,-6,-5,-11,11
1490986018878,1,-109,70,37,73,39,18,-15,-99
1490986018879,2,0,-33,-36,-64,-14,4,6,45
1490986018879,2,33,-37,-94,-84,-42,-16,-20,-33
1490986018974,3,-60,-50,12,-9,-30,-26,-8,-8
1490986018974,3,-65,62,46,52,25,6,27,43
1490986018974,0,88,-60,63,60,0,-9,-15,-5
1490986018974,0,54,122,-38,-36,16,6,-23,-15
1490986018975,2,68,35,-46,41,9,3,-5,-64
1490986018975,2,-76,-69,-33,-39,12,4,0,10
1490986018976,3,64,20,-46,-57,-7,8,-12,43
1490986018976,3,-11,38,122,-6,-32,-22,11,-57
1490986019022,0,-1,27,-52,-31,5,0,12,8
1490986019022,0,51,30,-2,59,1,-10,-1,25
1490986019023,1,-30,58,59,81,48,6,-14,-5
1490986019023,1,25,-32,9,-26,-16,20,-16,2
1490986019025,2,59,-39,-72,-74,-48,-8,-11,37
1490986019025,2,-73,-86,14,33,-20,-20,25,-8
1490986019027,3,-31,-47,-78,-114,-33,37,16,47
1490986019027,3,112,73,14,-38,6,30,-14,-31
1490986019071,0,-41,14,-28,27,8,-20,10,10
1490986019071,0,-28,-75,82,24,-4,-4,5,-43
1490986019072,1,36,80,-20,98,28,-6,-9,30
1490986019072,1,21,-102,-3,-85,-10,8,-11,17
1490986019073,0,-14,25,124,-30,9,35,-9,-23
1490986019073,0,31,70,4,107,-17,32,15,-18
1490986019074,1,27,-55,16,-128,22,11,20,58
1490986019074,1,-81,53,-14,84,-4,-10,14,-17
1490986019120,2,-26,82,78,15,25,-47,-8,-74
1490986019120,2,69,9,-105,10,10,-48,0,73
1490986019121,3,-76,-96,-54,-107,-68,-51,0,1
1490986019121,3,14,-20,-73,-26,7,-45,3,10
1490986019122,1,29,28,-118,1,-5,-1,-4,-1
1490986019122,1,-16,-49,-74,-128,-35,-18,-14,-12
1490986019123,2,-89,3,33,-3,-28,-19,1,-7
1490986019123,2,40,34,-65,123,47,17,0,-23
1490986019169,3,-3,-13,127,104,-17,3,-9,7
1490986019169,3,55,38,-98,-52,38,22,2,-4
1490986019170,0,-36,-91,-69,-54,-12,-13,-3,32
1490986019170,0,31,43,-102,-122,-45,-13,-6,-10
1490986019171,2,-84,-84,-33,9,-2,4,15,65
1490986019171,2,-11,-21,127,60,42,-1,6,0
1490986019171,3,42,99,-124,-33,-10,-7,-37,-16
1490986019171,3,16,-101,-30,-23,-37,-11,7,23
1490986019217,0,2,90,127,64,5,0,28,7
1490986019217,0,-60,-68,-71,-128,-22,2,-6,-46
1490986019219,1,27,72,-30,116,3,-14,4,8
1490986019219,1,-41,-63,-10,-34,40,-6,8,6
1490986019219,3,17,-36,35,-6,32,11,18,9
1490986019219,3,-28,123,-93,-14,-39,-8,-22,-16
1490986019220,0,88,-17,-82,-109,-22,-22,1,-29
1490986019220,0,-72,-49,-12,90,28,-7,-7,-55
1490986019266,1,56,13,93,0,13,-7,16,38
1490986019266,1,-22,89,6,10,-16,42,-10,11
1490986019268,2,78,-29,-128,-90,-5,25,0,-7
1490986019268,2,-102,80,60,88,10,34,-29,-22
1490986019269,0,39,67,81,113,41,-11,-1,-17
1490986019269,0,99,-39,-35,-128,-49,-28,-10,-1
1490986019270,1,-78,34,30,127,24,24,22,5
1490986019270,1,35,47,-25,-77,33,5,-10,10
1490986019315,2,5,-81,-56,-62,-46,-46,-11,-2
1490986019315,2,-36,97,57,105,13,-5,15,-14
1490986019316,3,-20,8,-57,-128,-13,-6,3,8
1490986019316,3,36,72,47,92,5,7,17,-39
1490986019317,0,40,116,110,101,42,5,0,47
1490986019317,0,35,-71,-20,-82,-20,6,-6,39
1490986019320,1,-65,-79,-16,-56,-25,-21,-26,-34
1490986019320,1,86,8,-64,-77,-32,-12,37,-1
1490986019364,2,-128,-80,-43,43,23,10,-1,-21
1490986019364,2,59,-51,-122,-122,-3,-3,1,29
1490986019365,3,30,24,118,20,-35,-10,-2,-4
1490986019365,3,45,47,98,49,49,-10,-14,1
1490986019366,1,12,65,38,21,0,-21,-21,-8
1490986019366,1,-109,-57,2,98,-8,-4,2,-29
1490986019367,2,39,116,-4,-84,0,-15,4,62
1490986019367,2,66,-9,-73,93,-44,-21,11,-22
1490986019412,3,-64,4,50,40,33,8,19,-23
1490986019412,3,64,-27,119,127,24,9,-6,74
1490986019414,0,-53,1,-3,-41,30,5,-20,-18
1490986019414,0,-16,-55,-82,-123,-34,-25,-16,-23
1490986019415,2,-100,-32,33,100,65,57,19,-13
1490986019415,2,-22,2,56,9,1,-21,-11,20
1490986019415,3,26,52,60,40,30,17,-10,-7
1490986019415,3,-6,-5,-22,-120,-3,22,7,12
1490986019461,0,17,29,-78,7,-30,2,-14,-37
1490986019461,0,-30,-65,-77,123,11,27,-2,-17
1490986019462,1,-63,45,-68,-69,-40,-6,-29,-3
1490986019462,1,-60,-50,-128,34,-49,-49,1,-28
1490986019463,3,-16,-51,-49,45,28,39,2,1
1490986019463,3,34,70,87,9,21,-11,-20,13
1490986019464,0,-20,-7,94,-73,-32,-17,-27,-25
1490986019464,0,-7,54,-111,-103,-30,-24,-4,6
1490986019510,1,-20,-82,-68,-74,-32,-53,21,-10
1490986019510,1,7,44,37,38,7,33,14,5
1490986019511,2,-61,-4,97,68,27,-40,-24,-23
1490986019511,2,-1,-7,-39,-43,-14,10,-6,0
1490986019512,0,-21,-108,-101,-91,-35,-6,8,-8
1490986019512,0,32,115,74,57,8,47,-10,2
1490986019513,1,-57,-22,-68,-7,-9,-5,11,-3
1490986019513,1,-10,66,51,92,28,13,1,-4
1490986019559,2,25,32,-36,-78,-9,12,22,3
1490986019559,2,-18,-69,-31,-22,-1,-25,5,9
1490986019561,3,62,-23,26,7,-10,-6,-16,11
1490986019561,3,-17,-78,100,46,30,-1,-2,-3
1490986019562,1,47,44,11,27,3,8,7,-3
1490986019562,1,-52,-75,-69,-125,-31,-25,-2,-11
1490986019563,2,-18,18,-8,35,-16,-35,-9,-20
1490986019563,2,12,-5,39,58,-1,-32,12,30
1490986019609,3,56,22,34,113,81,35,-11,22
1490986019609,3,-31,-30,14,-106,-15,31,6,-13
1490986019611,0,42,48,25,71,1,-9,-45,-1
1490986019611,0,-30,-29,-41,-97,37,21,3,-20
1490986019612,2,-21,-15,-51,-13,-17,-8,18,-12
1490986019612,2,-2,37,44,18,19,-7,-2,-3
1490986019614,3,15,35,1,1,5,5,-36,-3
1490986019614,3,0,13,39,8,13,-16,-9,9
1490986019656,0,10,4,-9,-15,-27,1,14,-5
1490986019656,0,-3,12,-26,17,21,-16,-14,9
1490986019657,1,-18,15,45,-54,-36,27,30,-14
1490986019657,1,-12,-45,-72,-64,-30,-20,2,-2
1490986019658,3,-24,-21,5,44,13,-22,10,4
1490986019658,3,13,23,-66,-49,-20,-8,-30,2
1490986019662,0,20,-7,80,4,14,-1,24,2
1490986019662,0,-13,5,-32,-13,-22,-6,22,9
1490986019705,1,3,-7,-10,-49,-22,-15,-7,-7
1490986019705,1,-1,2,-38,17,0,4,4,-1
1490986019707,2,34,6,-6,41,13,-2,-11,13
1490986019707,2,5,9,92,100,26,2,-24,-8
1490986019708,3,6,-30,-52,-49,-8,4,-5,-7
1490986019708,3,-35,-47,-68,-69,-54,-15,29,1
1490986019709,0,12,30,-16,-6,12,20,4,-3
1490986019709,0,-4,-27,8,17,-2,15,-2,-5
1490986019754,1,5,12,21,36,-3,-12,3,-6
1490986019754,1,3,18,53,23,9,6,-24,-5
1490986019755,2,-5,-2,-39,-42,22,10,24,7
1490986019755,2,-31,-33,-36,-20,-33,16,7,-13
1490986019757,0,5,12,-51,13,-9,-2,-9,3
1490986019757,0,-31,-43,30,-81,-8,1,36,4
1490986019758,1,1,-7,-23,19,-11,-5,-5,10
1490986019758,1,-11,6,0,-16,13,16,21,-13
1490986019803,2,10,24,8,45,1,-6,-21,5
1490986019803,2,27,16,-18,26,-8,-20,-14,-2
1490986019804,3,-8,-29,0,-48,0,20,25,12
1490986019804,3,-19,10,9,17,9,-11,1,-12
1490986019805,1,-12,12,-9,-7,31,3,0,-6
1490986019805,1,53,3,15,8,-13,-6,-3,18
1490986019806,2,-87,-9,11,10,8,-1,16,-13
1490986019806,2,30,45,25,14,-21,2,-31,-4
1490986019851,3,-18,-42,-43,-13,39,18,3,-1
1490986019851,3,14,18,37,18,11,4,-15,1
1490986019853,0,-6,-29,-4,-6,-14,-3,7,-6
1490986019853,0,-9,-21,-43,-24,13,1,6,5
1490986019854,2,22,34,76,15,7,-12,-16,6
1490986019854,2,-19,-33,-14,21,6,13,-21,-7
1490986019855,3,53,31,-48,-55,-21,-12,-3,12
1490986019855,3,-75,-58,2,-19,1,15,45,-33
1490986019900,0,2,-17,-32,6,-7,-4,11,-9
1490986019900,0,11,19,27,12,16,-12,17,6
1490986019901,1,4,35,37,35,5,8,-1,1
1490986019901,1,20,20,17,27,3,-6,19,14
1490986019902,3,-50,-8,14,0,2,-18,-9,-12
1490986019902,3,5,-12,10,32,14,1,9,4
1490986019903,0,-8,19,47,25,8,15,-14,-9
1490986019903,0,16,-12,-37,-48,-19,19,-18,1
1490986019949,1,-29,-12,-49,-34,2,1,-7,0
1490986019949,1,19,18,5,-1,-13,7,-4,5
1490986019950,2,35,-13,12,32,16,0,-8,13
1490986019950,2,-31,6,6,12,8,9,6,-7
1490986019951,0,-29,14,-10,-28,3,10,-5,-13
1490986019951,0,21,38,45,65,4,-4,-2,1
1490986019952,1,64,-6,-25,-19,4,-2,-12,-6
1490986019952,1,-40,24,85,-12,1,5,15,6
1490986019998,2,16,14,-16,-28,-12,2,20,11
1490986019998,2,-31,34,40,5,2,0,3,11
1490986019999,3,2,11,-30,12,-6,-15,20,-26
1490986019999,3,24,23,-33,5,6,-18,-20,-29
1490986020000,1,-42,-51,56,48,-6,1,5,30
1490986020000,1,33,40,-42,-104,-5,12,-22,-2
1490986020002,2,-22,-35,6,41,-6,-11,24,-7
1490986020002,2,2,15,-3,-14,16,3,-19,12
1490986020095,3,-30,-9,-31,13,-12,-5,12,-1
1490986020095,3,13,19,21,13,6,-10,-4,-8
1490986020096,0,-37,-99,-83,-30,-2,2,19,4
1490986020096,0,49,0,54,17,0,-14,2,7
1490986020098,1,-26,66,87,42,12,0,-10,8
1490986020098,1,-8,-18,-54,-34,-13,-2,5,-16
1490986020099,2,40,116,18,16,9,-10,-3,-42
1490986020099,2,-23,-102,-59,-35,-13,6,20,11
1490986020145,3,28,28,21,-14,2,-4,3,26
1490986020145,3,-31,-45,13,-23,-3,0,-6,-47
1490986020146,0,-34,-25,35,5,2,-5,-2,-18
1490986020146,0,50,10,-23,24,-1,2,6,10
1490986020147,2,3,-12,-29,-31,-18,-19,-6,25
1490986020147,2,2,38,51,7,-4,-1,-9,-22
1490986020148,3,11,11,10,12,5,1,-7,-22
1490986020148,3,-62,-36,-25,2,-6,-5,11,-14
1490986020193,0,41,59,15,-34,-9,-16,-8,-1
1490986020193,0,-1,-69,-36,-2,5,16,18,-35
1490986020194,1,-26,60,-51,-15,-1,-3,10,2
1490986020194,1,47,0,43,25,-10,1,10,18
1490986020195,0,-67,-16,4,-17,5,-5,8,17
1490986020195,0,14,-11,-61,-56,-9,-2,-3,-7
1490986020197,1,56,-3,23,9,-5,7,-2,18
1490986020197,1,12,-1,-4,-1,-8,-8,-6,-12
1490986020241,2,-13,-94,-38,13,8,14,-10,8
1490986020241,2,20,63,-11,4,3,-2,-3,12
1490986020242,3,-17,17,48,0,-9,-14,-20,-11
1490986020242,3,15,36,-1,31,18,12,21,9
1490986020243,1,40,-92,-3,-14,-13,-6,11,10
1490986020243,1,-55,49,7,-40,-5,-5,0,6
1490986020245,2,89,26,18,59,5,10,4,19
1490986020245,2,-107,-107,-20,-17,-3,-2,23,-16
1490986020290,3,33,29,-24,30,-3,-5,-28,-19
1490986020290,3,-84,0,26,-33,-1,-1,-8,-9
1490986020292,0,2,-2,-16,-46,-19,-10,5,-3
1490986020292,0,33,1,30,6,4,4,9,4
1490986020295,2,-47,-13,30,-24,-17,-14,-6,-2
1490986020295,2,-5,-105,-4,-1,4,-2,21,19
1490986020296,3,-9,96,26,26,2,-8,-4,10
1490986020296,3,7,-44,0,18,4,-5,-22,21
1490986020339,0,12,64,-48,-6,5,15,-1,-26
1490986020339,0,-29,19,1,5,-8,-9,2,-1
1490986020340,1,-2,32,19,-44,-9,-5,6,-28
1490986020340,1,31,35,-41,18,1,1,9,7
1490986020341,3,-43,47,-1,24,6,6,-4,-3
1490986020341,3,62,-32,-58,-46,-9,0,8,30
1490986020342,0,-90,-40,86,20,6,1,15,-1
1490986020342,0,50,91,-12,7,-5,6,-13,-8
1490986020388,1,-80,-103,12,-10,2,-14,9,-5
1490986020388,1,2,-45,-9,10,-14,-10,1,10
1490986020389,2,-12,2,-27,2,5,18,-9,-8
1490986020389,2,-11,-44,21,31,13,-1,13,27
1490986020390,3,37,33,-14,-32,-1,7,-3,-18
1490986020390,3,-15,-51,-7,-6,-6,-4,9,28
1490986020391,0,24,-4,-34,-11,-7,-22,-9,-2
1490986020391,0,-2,17,30,-3,-3,1,-1,-19
1490986020437,1,-12,12,9,25,1,-6,1,1
1490986020437,1,4,-32,26,12,7,12,-3,3
1490986020442,2,9,29,-31,-33,-14,-13,10,5
1490986020442,2,5,10,-13,4,-6,1,-10,2
1490986020443,0,26,19,21,32,6,-18,0,11
1490986020443,0,-31,3,-23,-23,-8,0,-14,-12
1490986020446,1,-43,-90,-28,-16,-3,1,12,-13
1490986020446,1,86,102,43,8,-1,-17,-17,-8
1490986020485,2,-19,-55,-21,13,4,-5,1,-9
1490986020485,2,-29,-32,-23,-5,-3,-18,15,11
1490986020486,3,26,25,16,-19,-13,0,3,14
1490986020486,3,2,-37,1,6,15,9,-3,-19
1490986020486,1,8,-22,-31,-12,-3,9,1,11
1490986020486,1,-12,-30,-1,2,-8,3,-13,-11
1490986020487,2,-30,-13,-6,-9,-1,15,15,2
1490986020487,2,0,-15,15,-3,-2,5,-6,-2
1490986020534,3,59,10,3,13,6,8,-2,17
1490986020534,3,-15,0,5,-5,0,4,2,-20
1490986020534,0,12,3,21,10,-1,-3,-18,-6
1490986020534,0,7,6,-11,-1,-12,-7,-5,-8
1490986020535,2,12,-24,-6,-52,-13,17,4,-6
1490986020535,2,33,2,-9,10,1,27,3,14
1490986020536,3,15,2,-7,21,5,36,4,7
1490986020536,3,-56,-46,1,-42,-6,10,16,-10
1490986020582,0,-22,-9,3,9,8,8,22,10
1490986020582,0,-36,-4,21,20,6,3,-3,5
1490986020583,1,-17,-54,5,16,13,-4,-16,-13
1490986020583,1,58,28,-5,-3,-5,-7,1,1
1490986020591,3,-63,-15,14,13,7,11,-15,-1
1490986020591,3,-29,-12,-9,-21,-14,-21,-11,-4
1490986020592,0,13,-11,0,14,5,4,2,-6
1490986020592,0,22,-13,-4,0,-9,-19,1,10
1490986020631,1,17,25,-8,-19,-15,-16,-13,-10
1490986020631,1,14,19,19,19,17,8,-13,4
1490986020632,2,-28,-11,-19,-15,-12,-10,-16,-14
1490986020632,2,-10,-22,-3,-5,3,6,12,-11
1490986020633,0,30,14,12,29,16,5,-1,10
1490986020633,0,-46,14,3,-7,-3,-8,-2,-4
1490986020634,1,2,6,-14,-7,-9,-20,-10,-15
1490986020634,1,-29,-1,-5,-14,-11,1,12,18
1490986020680,2,24,-19,6,7,18,-9,-17,2
1490986020680,2,-20,-2,3,-5,-3,-4,-8,-6
1490986020681,3,33,16,16,9,4,-1,0,2
1490986020681,3,-11,0,-15,6,-2,-2,6,-10
1490986020682,1,-37,-22,1,2,-1,-9,2,3
1490986020682,1,60,15,11,8,3,12,-4,-2
1490986020684,2,-4,-2,-6,1,5,4,-2,-4
1490986020684,2,38,34,0,0,-2,10,26,5
1490986020729,3,-39,-12,0,-6,4,2,2,1
1490986020729,3,-12,-25,-2,1,-4,-9,8,-5
1490986020730,0,-6,6,3,0,3,8,-4,1
1490986020730,0,26,-19,-4,-2,-1,4,-17,2
1490986020732,1,-4,1,-1,-6,-4,-3,4,1
1490986020732,1,0,5,4,5,-3,-5,-5,-8
1490986020733,2,-27,3,-8,-4,-4,6,1,1
1490986020733,2,39,26,3,6,8,-16,-7,-3
1490986020778,3,-3,18,4,3,0,10,21,2
1490986020778,3,12,10,-5,-13,0,4,-13,-7
1490986020784,0,32,31,8,11,-1,13,14,-2
1490986020784,0,7,39,-1,-6,-10,-15,-9,-6
1490986020785,2,-11,5,-4,-5,-6,-5,-29,-4
1490986020785,2,-47,13,3,0,-1,-2,-12,-2
1490986020786,3,61,11,-6,3,-4,-5,-8,2
1490986020786,3,-31,3,0,0,18,4,-14,4
1490986020875,0,-59,-74,-3,-4,-9,-11,-17,-14
1490986020875,0,69,-70,6,10,10,1,10,-6
1490986020924,1,-12,-74,-4,-4,6,24,27,14
1490986020924,1,-1,-78,2,-5,-9,-22,9,-4
1490986020925,3,10,-9,0,5,17,-10,6,-4
1490986020925,3,10,4,-2,-6,-7,-7,-2,-1
1490986020926,0,-6,-2,1,8,2,2,1,4
1490986020926,0,2,4,-3,-13,-8,0,-11,5
1490986020927,1,-3,0,-1,-6,-1,8,-22,0
1490986020927,1,51,-8,3,4,0,2,-8,0
1490986020973,2,-42,-80,0,-1,-5,-4,2,-4
1490986020973,2,-9,-22,1,7,11,19,27,-5
1490986020974,0,73,79,1,-1,0,10,11,5
1490986020974,0,-31,68,0,1,5,1,8,5
1490986020976,1,-29,4,4,10,6,6,6,1
1490986020976,1,-15,-5,-6,-2,-8,-13,-14,-1
1490986020977,2,19,0,2,5,4,15,15,-1
1490986020977,2,15,-8,6,10,5,4,-4,0
1490986021021,3,14,27,-1,-3,3,17,9,10
1490986021021,3,-12,-11,-11,-4,-6,-4,-12,-22
1490986021023,0,54,40,-5,-13,-5,-5,13,10
1490986021023,0,-51,-35,4,4,5,1,-10,-4
1490986021024,3,28,-59,-9,-5,-3,5,-19,0
1490986021024,3,-4,3,-4,1,-3,-1,17,-3
1490986021025,0,-53,-14,23,14,2,-7,0,-2
1490986021025,0,101,63,3,5,2,4,0,10
1490986021072,1,-92,-60,-21,-10,2,0,-10,-14
1490986021072,1,24,24,0,-13,-6,-7,-18,6
1490986021073,2,0,27,15,22,7,-5,22,21
1490986021073,2,-30,2,1,26,0,2,1,1
1490986021074,0,43,12,-37,-17,-5,-6,-3,-3
1490986021074,0,14,38,29,7,3,-5,-17,-7
1490986021075,1,13,70,50,48,4,-4,15,5
1490986021075,1,-34,-15,-20,3,8,21,9,12
1490986021119,2,-41,49,-35,-33,-12,-3,-10,-6
1490986021119,2,91,32,-14,-13,-7,2,0,0
1490986021120,3,-59,-34,12,13,10,2,-7,-18
1490986021120,3,38,31,-1,39,0,-6,11,2
1490986021121,0,-43,-46,57,-31,3,8,-6,0
1490986021121,0,1,-54,-50,-28,-14,3,0,-28
1490986021122,1,-28,-48,-55,-19,-13,-12,-3,5
1490986021122,1,-45,26,58,17,19,4,5,-11
1490986021168,2,73,-29,17,51,12,4,-4,10
1490986021168,2,-91,94,45,54,16,5,-1,-3
1490986021169,3,112,33,-46,-80,-27,-9,-5,48
1490986021169,3,-55,-38,-53,-72,-23,-6,-1,-64
1490986021169,1,-40,43,42,45,16,-2,27,-8
1490986021169,1,21,30,30,59,7,13,-29,37
1490986021170,2,-3,-72,-76,-45,16,0,-1,-34
1490986021170,2,77,23,53,-31,-12,-13,14,26
1490986021216,3,3,-46,-19,15,7,-1,-9,-50
1490986021216,3,-24,-62,-1,25,-12,-15,3,35
1490986021217,0,-7,-52,2,-21,-6,7,2,21
1490986021217,0,-45,-28,-12,-7,2,-8,13,-48
1490986021217,2,-36,0,-1,45,4,1,3,34
1490986021217,2,1,11,28,19,5,12,4,33
1490986021218,3,10,-17,21,-14,6,5,7,-20
1490986021218,3,-9,-9,-51,92,5,-7,-4,-7
1490986021265,0,3,46,5,-103,-32,-13,-11,-14
1490986021265,0,42,-15,-63,-39,-8,-8,-5,-20
1490986021265,1,-61,-24,47,70,9,17,9,30
1490986021265,1,24,-22,45,-12,9,4,6,37
1490986021266,3,7,1,-52,37,-5,-13,-22,-20
1490986021266,3,-7,31,-56,-107,-11,5,12,9
1490986021267,0,18,6,24,-55,-5,-7,-7,-20
1490986021267,0,-40,-103,-30,19,-4,-9,-4,-13
1490986021313,1,53,34,79,84,16,12,-4,24
1490986021313,1,22,-6,72,9,7,-11,0,-60
1490986021314,2,-94,-46,-51,23,12,-2,19,29
1490986021314,2,11,38,-86,-128,-54,-14,-25,1
1490986021315,0,44,91,46,98,19,16,-18,-13
1490986021315,0,37,9,65,56,26,14,-2,18
1490986021316,1,-123,-70,-39,16,-16,-7,11,-6
1490986021316,1,86,74,-51,-122,-11,5,-26,-9
1490986021363,2,-84,-60,-27,-19,-17,-15,11,-22
1490986021363,2,76,102,52,23,5,9,-24,37
1490986021363,3,-19,-20,-73,-125,-25,-8,13,12
1490986021363,3,-13,-33,37,82,10,7,30,9
1490986021364,1,-14,-47,-17,-70,-24,14,-22,-4
1490986021364,1,-15,42,-51,-31,-16,-17,5,54
1490986021368,2,-14,-55,-35,-93,-28,-5,12,-19
1490986021368,2,52,43,-27,53,-10,-8,-26,-30
1490986021411,3,-80,-53,65,24,16,-1,19,32
1490986021411,3,-105,-46,-35,-5,-1,-5,-27,-45
1490986021412,0,12,38,74,57,7,10,3,50
1490986021412,0,71,-55,-94,-21,1,8,29,-15
1490986021412,2,126,-32,51,71,29,18,-43,-29
1490986021412,2,-124,-42,-63,-124,-3,-9,9,24
1490986021414,3,29,5,-72,-18,-16,-9,9,-13
1490986021414,3,-25,14,4,9,-9,-11,-1,-26
1490986021460,0,-7,22,-17,83,20,20,14,26
1490986021460,0,-13,0,60,6,31,5,-22,12
1490986021460,1,30,63,16,34,-6,14,6,-13
1490986021460,1,20,4,-99,-128,-17,3,-21,53
1490986021461,2,-6,-62,15,-5,-45,-17,24,-26
1490986021461,2,-50,-5,127,62,1,27,10,-21
1490986021462,3,26,34,-44,101,66,22,15,3
1490986021462,3,0,-20,-28,57,-17,33,7,20
1490986021508,0,0,-67,-104,-83,-9,-12,0,54
1490986021508,0,-62,91,97,-14,-3,-6,-1,-33
1490986021510,1,-24,-23,-63,-17,-8,-18,-6,89
1490986021510,1,9,50,27,-59,-6,-21,-18,-54
1490986021510,3,63,30,-42,65,41,16,-12,22
1490986021510,3,-42,-128,71,-49,5,4,-4,-14
1490986021511,0,41,97,-55,49,8,20,-24,30
1490986021511,0,15,-62,-56,-115,-42,-28,-43,-30
1490986021558,1,-23,-89,-82,-8,-69,-11,9,-9
1490986021558,1,25,29,70,74,-18,-2,7,3
1490986021559,2,-58,38,67,0,23,42,22,-56
1490986021559,2,-29,-17,-26,127,58,70,6,117
1490986021560,0,-21,42,-46,-25,7,-14,-25,-11
1490986021560,0,64,0,-128,-50,-26,-38,-10,33
1490986021561,1,-62,-54,122,-38,1,20,12,-21
1490986021561,1,65,106,75,102,42,-3,13,36
1490986021606,2,5,-22,-52,-77,-47,-32,10,-51
1490986021606,2,24,-1,33,37,59,-26,17,44
1490986021608,3,-9,-28,-44,88,43,-19,-52,-50
1490986021608,3,-109,-111,-88,-70,-66,-24,6,29
1490986021609,1,35,59,120,127,39,24,37,72
1490986021609,1,60,67,-37,-26,73,23,6,17
1490986021610,2,-45,-71,-71,-128,-30,11,-23,-21
1490986021610,2,-11,-52,-104,-80,-48,-6,6,-6
1490986021658,3,12,14,60,-41,-35,-22,0,-70
1490986021658,3,4,4,-27,70,34,17,-21,1
1490986021659,0,32,54,56,2,19,2,-4,26
1490986021659,0,-93,-27,-59,-32,-13,-19,2,-51
1490986021661,2,-32,85,98,127,50,27,16,22
1490986021661,2,-19,56,40,-56,9,-11,-18,-56
1490986021662,3,41,11,-15,-20,2,10,5,54
1490986021662,3,-100,-75,-80,4,-49,-11,5,-28
1490986021704,0,24,7,-83,-60,-6,8,-1,77
1490986021704,0,-71,62,35,98,43,25,-5,-11
1490986021706,1,21,-26,-24,-128,-36,-6,-3,-14
1490986021706,1,-26,-45,-8,21,-22,5,16,-33
1490986021707,3,-71,-32,-78,-75,-76,-32,10,-61
1490986021707,3,-84,62,69,105,26,-17,-15,-27
1490986021708,0,78,45,64,51,3,-25,-5,-1
1490986021708,0,48,-54,75,32,-3,0,25,37
1490986021753,1,-3,111,58,127,78,8,-14,-15
1490986021753,1,44,-128,-128,-128,-19,9,-17,14
1490986021754,2,-17,57,98,107,-20,-22,-14,-32
1490986021754,2,44,-39,-79,-87,-27,-23,5,17
1490986021755,0,57,-86,86,6,-15,-20,7,-17
1490986021755,0,-118,-69,-53,91,25,5,-27,-57
1490986021801,1,30,115,-59,-95,-51,-5,2,12
1490986021801,1,39,39,-68,18,21,-1,-7,-13
1490986021803,2,72,-35,31,-8,44,14,-13,6
1490986021803,2,-102,-38,6,-55,-38,-30,21,7
1490986021850,3,33,-48,103,98,24,5,8,-36
1490986021850,3,-47,-64,-106,-128,-28,-21,-9,-17
1490986021852,0,-2,14,-49,17,17,37,27,-11
1490986021852,0,97,97,41,36,35,2,-27,29
1490986021853,1,-83,-64,-87,-8,-20,1,23,23
1490986021853,1,4,127,127,119,12,9,12,0
1490986021854,2,4,-26,-128,-41,-32,-25,-10,-10
1490986021854,2,-41,103,21,70,-4,-20,-11,-19
1490986021899,3,93,33,109,37,80,24,-15,30
1490986021899,3,99,8,-93,-84,-4,30,4,38
1490986021900,1,116,127,95,95,44,17,0,27
1490986021900,1,14,8,18,-1,28,20,-8,14
1490986021902,2,19,48,-24,-3,26,45,28,-10
1490986021902,2,19,41,50,-42,-37,34,13,27
1490986021903,2,14,-2,75,86,59,-56,-30,30
1490986021903,2,-76,-77,7,-45,-3,-48,30,21
1490986021948,3,41,73,19,-95,0,-11,-13,-32
1490986021948,3,-8,49,54,90,7,-8,-17,18
1490986021949,0,-51,20,120,20,24,-1,-23,21
1490986021949,0,38,19,-21,-51,7,-8,-11,0
1490986021950,3,-14,-128,-93,-46,11,14,20,0
1490986021950,3,50,45,110,22,-21,-10,-1,24
1490986021951,0,-37,16,-86,59,24,-17,-21,-1
1490986021951,0,31,17,127,-51,-32,27,3,1
1490986021996,1,58,-34,-70,46,5,-24,21,-3
1490986021996,1,-117,26,67,66,16,-10,2,-11
1490986021998,2,53,-9,-103,-117,-46,12,-11,-3
1490986021998,2,-4,2,-27,93,73,-12,-1,8
1490986021999,0,-71,-85,-51,-115,-102,-79,-18,-37
1490986021999,0,7,-106,-106,11,5,11,31,-9
1490986022000,1,24,39,122,92,9,-53,-32,11
1490986022000,1,23,5,-13,75,47,10,3,0
1490986022046,2,-48,-47,127,-30,-19,5,15,-6
1490986022046,2,-4,-55,-113,-47,-24,11,17,14
1490986022047,3,11,67,91,85,50,9,-22,2
1490986022047,3,10,-42,0,-20,3,-18,-4,-3
1490986022049,1,-27,-46,-44,-128,12,24,3,12
1490986022049,1,-30,-11,-25,-99,-75,-6,3,-4
1490986022050,2,-11,14,-12,22,58,15,20,-3
1490986022050,2,57,99,-4,17,5,-14,-11,29
1490986022094,3,29,32,47,-5,-24,-19,-22,-1
1490986022094,3,-39,-20,-45,-9,18,7,4,-23
1490986022096,0,33,-8,17,19,-24,-22,-19,9
1490986022096,0,-5,21,86,127,27,12,-1,17
1490986022097,2,19,30,-51,-39,-7,6,17,5
1490986022097,2,-9,6,50,115,25,-41,-15,-18
1490986022099,3,4,35,-6,65,10,39,3,15
1490986022099,3,3,-16,26,-19,10,-3,-1,10
1490986022143,0,1,1,78,40,2,-23,-12,-10
1490986022143,0,9,-46,-107,-113,-54,-3,6,-2
1490986022144,1,-4,27,49,56,19,14,18,-10
1490986022144,1,-17,0,-109,-23,-25,11,-4,5
1490986022146,2,26,37,108,93,0,9,-10,0
1490986022146,2,8,43,55,-5,25,16,12,-5
1490986022146,3,-16,2,-120,-62,-25,10,-12,-3
1490986022146,3,-3,-43,-49,-64,-43,-10,35,6
1490986022191,0,-31,1,-27,6,33,13,-9,4
1490986022191,0,15,3,36,25,-11,2,-27,-9
1490986022192,1,31,1,30,11,12,-7,16,-5
1490986022192,1,-15,1,28,61,15,23,-4,11
1490986022193,3,-24,-2,-17,-15,10,-9,9,-8
1490986022193,3,11,-12,25,43,21,-14,-14,0
1490986022194,0,3,-44,-36,-74,-22,-21,27,-12
1490986022194,0,1,19,-15,46,20,6,-2,15
1490986022240,1,-31,-19,34,39,-17,14,-11,-7
1490986022240,1,32,20,76,25,24,-7,-8,0
1490986022241,2,-16,-10,-16,23,10,35,-4,6
1490986022241,2,21,17,-45,-43,-4,5,9,-13
1490986022242,0,29,-11,0,35,9,-5,-9,5
1490986022242,0,-5,16,9,27,19,-1,-21,3
1490986022243,1,-26,-30,-15,-60,-40,-8,9,-12
1490986022243,1,-1,16,-23,22,23,18,-35,-3
1490986022288,2,11,-15,0,9,-7,-3,18,10
1490986022288,2,-28,-5,-2,-6,-18,-23,-23,-7
1490986022289,3,11,27,15,14,11,-1,-26,6
1490986022289,3,14,-4,-1,34,18,4,-8,-4
1490986022290,1,6,-9,-22,-26,1,-21,2,-14
1490986022290,1,-7,2,3,1,-19,11,23,17
1490986022291,2,34,32,39,45,23,1,-10,8
1490986022291,2,-9,-30,-5,21,8,18,38,0
1490986022337,3,-36,-4,-27,-39,7,-6,13,-19
1490986022337,3,6,-27,-30,-6,-23,-23,1,4
1490986022338,0,-25,-56,-40,-24,-26,19,13,-1
1490986022338,0,1,25,-5,6,51,-5,-1,-5
1490986022339,2,-13,17,-3,16,8,16,-4,0
1490986022339,2,-14,0,15,34,13,19,-23,-9
1490986022340,3,-12,17,46,1,12,-3,2,9
1490986022340,3,37,31,-15,-49,-21,-11,-11,-20
1490986022386,0,40,-44,-43,-25,-2,-16,-22,-3
1490986022386,0,-36,21,7,9,-12,3,11,-2
1490986022387,1,-11,-34,36,43,23,24,13,3
1490986022387,1,5,-5,-42,-28,-21,-17,11,13
1490986022388,3,20,-23,-5,-7,2,-7,-3,-4
1490986022388,3,-17,23,40,29,4,-1,14,0
1490986022389,0,-10,-88,-56,-14,14,4,-18,1
1490986022389,0,-13,24,21,8,-18,-14,8,15
1490986022435,1,-22,-34,5,-21,7,15,18,4
1490986022435,1,-6,19,-41,-7,-9,-11,15,-14
1490986022438,2,-11,-20,74,38,15,15,33,2
1490986022438,2,51,-5,-5,-42,-13,-2,-7,-4
1490986022439,0,-32,10,26,12,3,1,-23,-36
1490986022439,0,41,28,29,23,-6,3,13,26
1490986022439,1,22,5,-126,-41,-14,2,-6,-16
1490986022439,1,-28,-54,57,-10,13,-3,-8,7
1490986022484,2,12,50,11,21,10,2,4,-15
1490986022484,2,-4,17,-14,-29,-20,-10,0,7
1490986022485,3,-29,-10,-3,7,3,-5,14,-12
1490986022485,3,-1,-34,31,32,2,18,-3,5
1490986022485,1,42,88,33,-18,-2,-6,-6,-10
1490986022485,1,-65,-95,-49,-12,-4,0,18,-35
1490986022486,2,-28,35,7,0,1,-12,8,10
1490986022486,2,26,-37,33,37,4,4,9,8
1490986022533,3,-33,-57,-43,-34,-4,-10,-13,-11
1490986022533,3,41,64,3,-24,-5,-3,12,15
1490986022534,0,6,51,13,11,11,7,-10,-11
1490986022534,0,2,47,72,14,-2,-5,7,13
1490986022535,1,11,12,39,7,-5,-12,-5,1
1490986022535,1,-45,44,-2,-26,-1,-6,0,-10
1490986022536,2,4,-78,5,20,-5,-8,20,21
1490986022536,2,42,32,-15,22,8,0,-8,5
1490986022630,3,-58,-14,1,-23,-1,4,-4,-30
1490986022630,3,51,59,-1,-3,-5,0,-23,13
1490986022631,0,28,-10,-83,-62,-4,-6,7,-22
1490986022631,0,-82,-41,18,-22,-12,8,-3,-25
1490986022632,2,-5,0,19,23,32,22,-6,13
1490986022632,2,11,39,-24,-71,-25,-7,-15,-9
1490986022633,3,-11,-12,-66,-3,4,-2,26,1
1490986022633,3,32,24,75,31,1,-9,-9,-12
1490986022679,0,-24,-31,26,36,-6,0,-4,12
1490986022679,0,-17,-82,-56,-55,-4,3,11,18
1490986022680,1,26,31,45,19,2,12,-5,-8
1490986022680,1,29,-19,-76,-36,-4,-4,-11,-40
1490986022681,3,14,-12,-16,-30,-11,2,1,28
1490986022681,3,5,-87,44,40,4,-4,2,-16
1490986022682,0,56,26,-22,50,8,17,9,-7
1490986022682,0,-43,-10,0,-20,-18,15,8,-18
1490986022727,1,34,64,13,8,13,-3,-11,3
1490986022727,1,-81,-32,21,-17,18,5,19,25
1490986022729,2,9,18,6,9,4,-6,-4,-16
1490986022729,2,72,26,32,46,15,2,-4,-8
1490986022730,1,12,52,39,39,6,1,-4,-15
1490986022730,1,-4,24,-13,-3,-9,11,-5,9
1490986022731,2,12,10,-3,-63,-8,-1,-17,14
1490986022731,2,-9,6,-54,44,12,2,6,-45
1490986022776,3,-11,-17,4,-23,-17,3,3,-11
1490986022776,3,73,11,42,-4,-3,7,5,-5
1490986022777,0,-107,-44,14,83,20,19,9,-19
1490986022777,0,18,-34,-49,-65,-13,-13,-13,12
1490986022778,2,29,91,12,5,-4,-7,-5,-7
1490986022778,2,46,1,9,9,3,14,-2,36
1490986022779,3,-58,-114,84,43,2,5,14,-23
1490986022779,3,24,-21,-56,-59,-15,-4,0,18
1490986022825,0,19,-9,-53,11,-2,-15,-20,6
1490986022825,0,-39,8,-10,-37,-13,0,21,-11
1490986022828,1,67,30,48,14,17,12,-5,21
1490986022828,1,-8,26,21,30,4,-1,6,-36
1490986022829,3,7,-2,3,-13,-8,6,-3,-13
1490986022829,3,-31,-36,8,14,11,-9,-5,1
1490986022830,0,71,47,2,-8,-6,2,2,14
1490986022830,0,-38,-67,6,8,1,7,8,-36
1490986022874,1,5,1,-30,-28,0,0,11,35
1490986022874,1,-19,-44,-13,31,-5,-14,0,-16
1490986022876,2,-17,-15,13,-46,-1,-6,-1,4
1490986022876,2,57,88,16,-9,-5,-6,-17,17
1490986022878,3,-63,-80,-41,6,3,-27,7,-44
1490986022878,3,-21,12,4,0,2,3,11,15
1490986022879,0,-24,-10,5,7,1,-1,0,5
1490986022879,0,41,-2,26,44,23,7,-6,7
1490986022922,1,11,1,-33,-2,-9,-3,-13,5
1490986022922,1,-40,-8,-42,-53,-18,-19,-6,-11
1490986022924,2,7,-26,-3,-18,-13,4,4,-9
1490986022924,2,0,5,19,4,25,3,16,0
1490986022925,0,59,88,17,2,-2,-19,1,6
1490986022925,0,-64,-63,-35,-27,-27,-23,-19,-20
1490986022926,1,-4,1,-4,-28,5,15,19,4
1490986022926,1,49,80,37,24,-1,-5,-11,7
1490986022971,2,37,19,-20,-12,-7,9,-4,-1
1490986022971,2,-98,-62,15,7,9,-3,7,-31
1490986022973,3,44,18,-31,-21,-10,7,-2,9
1490986022973,3,8,37,13,-7,1,5,-6,0
1490986022974,1,-23,-27,-19,-29,-2,31,-18,-8
1490986022974,1,23,23,4,11,-4,18,16,6
1490986022976,2,-46,-21,-3,-1,-1,1,4,2
1490986022976,2,47,-2,36,-3,-1,9,-1,4
1490986023020,3,-21,-9,-8,15,1,0,4,0
1490986023020,3,17,17,5,-10,0,11,-3,-3
1490986023022,0,-23,-45,-29,-26,-12,-14,4,-4
1490986023022,0,-25,16,-8,-17,0,11,-13,-17
1490986023024,2,-6,-44,-17,-9,-5,-3,1,2
1490986023024,2,19,16,19,8,4,7,0,6
1490986023025,3,23,34,5,1,-5,0,-26,-4
1490986023025,3,-11,-25,-21,-12,-5,9,25,3
1490986023069,0,23,-4,7,-5,-1,-8,3,6
1490986023069,0,-50,-20,2,13,0,-16,-8,2
1490986023070,1,45,33,24,27,5,-12,-4,2
1490986023070,1,19,-4,0,13,3,7,4,3
1490986023072,3,-53,8,6,-2,-3,-1,2,-1
1490986023072,3,34,-41,-8,-3,-1,-2,-4,-3
1490986023073,0,-66,27,18,18,7,-1,16,-10
1490986023073,0,2,30,8,18,7,-3,13,17
1490986023118,1,50,-1,14,6,4,13,14,15
1490986023118,1,-19,-10,-18,-21,-12,-6,-29,-17
1490986023119,2,39,-34,-15,-16,-21,-3,0,10
1490986023119,2,-31,-5,2,7,28,3,5,-15
1490986023121,0,-4,6,3,12,9,23,-5,6
1490986023121,0,0,-7,-5,2,5,7,2,2
1490986023123,1,6,-17,-1,-5,-7,-14,-20,-7
1490986023123,1,-22,-10,-10,-6,-2,-3,1,-9
1490986023167,2,5,20,8,3,5,-5,1,1
1490986023167,2,25,-7,7,13,6,13,6,10
1490986023169,3,-50,-19,-5,0,-6,-2,-7,-2
1490986023169,3,17,-12,0,-12,-12,-7,-3,6
1490986023170,1,-1,-17,0,0,1,4,12,-1
1490986023170,1,-58,3,-3,3,7,2,-9,-1
1490986023171,2,-31,-7,-11,-4,-12,-11,11,2
1490986023171,2,1,-4,4,0,-2,4,11,4
1490986023215,3,26,29,4,5,8,6,-10,-10
1490986023215,3,9,32,2,-1,2,15,7,-1
1490986023218,0,-15,5,-4,-6,-9,-20,-16,-3
1490986023218,0,3,33,-3,3,-8,-7,-6,5
1490986023220,1,-13,28,-9,-16,-2,4,-6,11
1490986023220,1,-34,36,-5,-5,-8,0,-5,-15
1490986023222,2,35,42,1,8,6,9,4,-2
1490986023222,2,-27,-4,0,-2,2,-3,7,-1
1490986023264,3,39,-21,9,13,3,8,6,0
1490986023264,3,-1,-19,-6,-2,4,-2,16,0
1490986023266,0,12,-35,-2,-7,-7,18,16,10
1490986023266,0,-18,-52,-4,-1,-3,-7,-2,-5
1490986023268,2,-12,-113,-2,-3,-11,3,-8,-1
1490986023268,2,15,-53,6,5,15,16,-15,3
1490986023269,3,-11,-39,-1,0,-1,-5,4,-3
1490986023269,3,-3,7,-1,-4,-7,-8,-5,-2
1490986023313,0,50,36,1,-1,3,2,6,-3
1490986023313,0,-20,11,-5,-8,-7,-7,-13,-4
1490986023315,1,-21,-10,-7,-6,-10,-26,-19,-11
1490986023315,1,11,-10,-6,-3,-2,-6,-4,3
1490986023316,3,-7,-12,4,3,3,13,15,-4
1490986023316,3,9,-5,-6,-10,-16,-19,5,0
1490986023317,0,-26,-6,-2,4,27,11,0,-1
1490986023317,0,26,53,-1,0,-12,-4,-11,-13
1490986023361,1,19,39,0,1,16,15,7,21
1490986023361,1,-17,14,6,14,-1,-1,6,-1
1490986023363,2,-19,33,-6,-23,-12,-20,-15,-10
1490986023363,2,33,31,-5,-1,1,-2,-2,2
1490986023365,0,-8,29,8,9,1,-12,10,-7
1490986023365,0,19,12,2,2,-1,5,-6,2
1490986023366,1,42,10,-6,-2,-8,-9,17,17
1490986023366,1,-14,-15,-7,-14,4,9,3,9
1490986023410,2,34,-1,-4,-3,-9,-9,-18,-8
1490986023410,2,-26,-5,5,0,-4,-15,5,-6
1490986023412,3,-23,-14,1,7,6,7,1,-10
1490986023412,3,30,5,7,4,0,-13,-4,3
1490986023414,1,3,10,-10,-6,-4,3,-4,-6
1490986023414,1,-32,-3,-8,-4,-9,-14,3,-4
1490986023415,2,-30,12,2,-5,1,0,-6,-3
1490986023415,2,16,12,5,10,6,11,-10,-4
1490986023460,3,-60,-24,4,-1,-7,-12,5,0
1490986023460,3,-9,3,-8,-16,-4,-3,3,-6
1490986023461,0,-38,-57,-11,-3,-3,-7,-4,-9
1490986023461,0,29,26,5,-1,4,11,8,19
1490986023462,2,20,-20,-9,3,14,2,0,-2
1490986023462,2,15,-11,-9,-12,-14,-14,1,-5
1490986023508,3,-27,-28,-9,-13,-8,3,-13,-4
1490986023508,3,-6,5,7,-1,1,-13,8,-9
1490986023510,0,-4,41,11,19,2,3,3,5
1490986023510,0,0,-25,9,10,-3,-2,-4,-3
1490986023511,1,39,28,-7,-24,-5,-7,-5,5
1490986023511,1,-28,-9,-20,2,3,5,8,-2
1490986023512,3,-81,-64,-11,-16,-6,-8,-13,-10
1490986023512,3,25,17,12,18,8,17,4,5
1490986023556,0,5,52,14,9,4,3,0,3
1490986023556,0,-42,-43,-26,19,4,4,12,3
1490986023558,1,50,44,21,-28,-7,-4,-2,7
1490986023558,1,17,7,-18,-2,-5,-13,-12,-9
1490986023654,2,-105,-30,30,-6,2,8,12,13
1490986023654,2,37,10,-26,8,0,-8,7,0
1490986023702,3,-12,3,-8,-3,4,1,-13,-12
1490986023702,3,7,-16,21,0,3,3,10,-1
1490986023704,0,25,32,15,30,1,-14,-11,9
1490986023704,0,-16,-86,-16,-35,0,18,-1,-3
1490986023706,1,16,109,30,5,1,7,17,-12
1490986023706,1,4,-3,-28,2,1,0,-14,-3
1490986023707,0,7,-54,-28,-28,-9,1,9,2
1490986023707,0,-4,11,-9,9,5,-12,-8,-9
1490986023751,1,31,66,-6,17,-6,1,14,14
1490986023751,1,-27,-25,-7,-18,9,7,-10,-12
1490986023753,2,-2,17,9,-12,-23,-8,7,1
1490986023753,2,4,8,-26,-11,9,1,-22,-18
1490986023754,2,51,34,-22,-1,-10,11,-4,38
1490986023754,2,-59,-54,-24,-23,6,1,27,0
1490986023755,3,-41,10,-7,-51,-28,-8,12,-52
1490986023755,3,8,-14,65,101,42,9,0,48
1490986023800,0,34,-8,-117,-35,-18,8,-21,-50
1490986023800,0,-47,-4,81,-62,-4,1,-18,-7
1490986023801,1,-14,-29,-49,30,-1,-8,-15,-19
1490986023801,1,123,-1,-7,-49,-47,-18,8,-12
1490986023802,0,-54,-75,-106,58,34,5,-4,-23
1490986023802,0,11,54,-11,-14,-6,6,-2,-49
1490986023803,1,-1,-54,-63,-85,-16,5,39,120
1490986023803,1,-57,-38,36,-47,-29,-22,-20,-30
1490986023849,2,27,11,-28,-80,-2,-5,5,1
1490986023849,2,-14,76,55,102,32,14,-25,21
1490986023850,3,-95,-12,44,57,8,6,6,-63
1490986023850,3,50,-9,-84,-52,-17,-9,3,-4
1490986023851,1,-22,-29,123,69,17,17,-5,20
1490986023851,1,47,75,-7,93,10,-3,-6,4
1490986023852,2,-119,-82,39,-54,22,10,10,31
1490986023852,2,127,77,-32,-2,-48,-11,16,71
1490986023898,3,-89,24,-97,-57,43,-6,-24,-67
1490986023898,3,-1,-22,54,-51,-14,-14,32,-4
1490986023905,0,44,-6,20,84,8,17,-15,-15
1490986023905,0,-23,21,-14,-1,13,9,18,35
1490986023906,2,52,-20,90,-22,-3,5,10,14
1490986023906,2,77,59,6,-16,-18,-7,-19,-49
1490986023907,3,-54,-59,-76,4,-3,10,20,3
1490986023907,3,18,53,-55,-9,-40,-7,-22,-5
1490986023947,0,-55,-67,55,-43,21,54,5,6
1490986023947,0,66,-26,-107,65,53,35,-12,6
1490986023948,1,-58,35,112,-91,12,-7,26,-45
1490986023948,1,31,-23,65,127,41,2,-2,45
1490986023949,2,-96,-61,-114,-102,-52,-52,-22,-20
1490986023949,2,-33,81,46,-109,-46,14,-4,-21
1490986023951,3,26,-9,1,109,-3,2,6,15
1490986023951,3,5,2,62,-2,41,9,8,-18
1490986023995,0,67,127,42,75,12,-19,11,23
1490986023995,0,-124,-97,-62,52,-7,-41,-12,1
1490986023996,1,127,43,-48,-85,-46,-33,-28,30
1490986023996,1,-52,-104,-25,65,17,33,22,-14
1490986023997,3,-10,-69,-68,-49,-53,16,-28,-45
1490986023997,3,-64,72,53,27,-1,24,15,23
1490986023998,0,32,42,-37,-33,-2,18,-7,9
1490986023998,0,-3,63,19,27,36,-7,2,48
1490986024044,1,69,80,-37,18,-28,-30,-35,-35
1490986024044,1,2,-43,17,-128,-70,-36,-2,-23
1490986024048,2,-53,-35,-42,78,34,2,45,1
1490986024048,2,-20,-76,58,-8,13,-3,-16,-18
1490986024050,0,-47,-121,-81,0,-45,-21,12,-50
1490986024050,0,42,66,78,57,31,-16,-4,-14
1490986024051,1,-47,-5,-43,-3,14,-6,9,-6
1490986024051,1,127,122,72,43,24,0,2,-16
1490986024093,2,19,48,-36,59,6,10,-24,21
1490986024093,2,-20,-93,49,27,-18,-22,11,-24
1490986024096,3,10,24,117,-44,32,14,6,21
1490986024096,3,-56,29,-128,-128,-35,-5,-17,-6
1490986024097,1,-90,-65,96,-58,34,23,1,19
1490986024097,1,15,15,-37,-20,-4,0,-12,50
1490986024098,2,106,-37,-32,-128,7,-17,-10,0
1490986024098,2,-105,-19,-40,13,-15,-15,1,-50
1490986024141,3,38,-69,-94,67,3,-8,9,36
1490986024141,3,48,96,35,81,25,24,11,2
1490986024143,0,20,-21,81,44,35,88,-24,34
1490986024143,0,-54,-3,-94,-128,-70,72,5,-57
1490986024144,2,87,39,15,110,2,-82,-1,28
1490986024144,2,29,-44,6,-93,-16,-6,-9,23
1490986024145,3,-67,67,25,-52,-32,-42,-10,-14
1490986024145,3,63,68,-123,67,39,-15,-6,23
1490986024239,0,-102,125,111,-112,-40,-34,-1,-10
1490986024239,0,80,125,51,68,10,-44,4,-22
1490986024240,1,-81,-114,68,100,36,27,21,-24
1490986024240,1,-15,-44,127,50,31,12,21,28
1490986024241,3,22,-85,75,125,-28,-10,20,-27
1490986024241,3,70,-11,72,97,56,-7,-14,4
1490986024242,0,22,117,61,113,48,35,3,14
1490986024242,0,-27,-9,43,-81,15,-20,-23,-27
1490986024288,1,16,102,29,40,-52,2,-20,-7
1490986024288,1,11,-32,-73,-18,-29,11,7,-2
1490986024289,2,30,-52,-41,-79,-55,-72,-8,-55
1490986024289,2,-47,-14,49,127,76,16,14,42
1490986024290,0,15,-74,-52,-54,-27,-45,0,-21
1490986024290,0,-1,53,-30,81,4,-12,-16,-3
1490986024291,0,-26,59,73,110,23,24,9,0
1490986024291,0,125,127,113,93,77,53,-17,35
1490986024336,1,4,36,-20,-46,3,-10,-14,18
1490986024336,1,85,11,32,-105,-16,-18,-38,23
1490986024337,2,-96,-106,-96,-105,-102,-61,28,-50
1490986024337,2,-37,83,105,120,65,29,30,-10
1490986024338,1,-44,-80,-13,-4,-13,-13,-3,-32
1490986024338,1,87,127,123,102,115,32,-16,34
1490986024339,2,-34,-39,-41,-64,-32,-36,-23,-2
1490986024339,2,-10,-96,10,-51,-71,-63,48,-20
1490986024385,3,15,62,-111,69,-7,5,-2,1
1490986024385,3,-68,-41,45,-14,-32,-21,47,-17
1490986024386,0,20,-25,78,127,92,15,-10,-10
1490986024386,0,84,34,30,57,60,32,-50,33
1490986024387,2,-26,16,63,82,31,41,13,6
1490986024387,2,40,-37,9,-99,-23,-40,-48,-5
1490986024387,3,10,71,68,74,66,102,29,16
1490986024387,3,33,53,65,71,61,20,-7,15
1490986024433,0,-22,-25,-79,-128,-57,-32,4,32
1490986024433,0,-30,-62,-128,-38,-97,-45,7,-48
1490986024437,1,27,24,-14,99,41,-29,17,0
1490986024437,1,15,53,51,40,22,-40,-30,3
1490986024438,3,-17,-80,15,-19,-39,-11,44,-8
1490986024438,3,-46,11,-4,-5,-19,1,-8,0
1490986024439,0,-19,-48,3,21,12,19,7,-9
1490986024439,0,25,-24,-24,12,32,29,21,13
1490986024482,1,25,23,67,56,30,-11,-15,6
1490986024482,1,45,-9,97,-24,-39,31,-18,23
1490986024483,2,-21,-13,-13,-100,-29,2,15,-12
1490986024483,2,-71,-128,-128,-84,-52,18,29,-24
1490986024484,0,20,31,17,-51,3,24,48,9
1490986024484,0,20,29,96,69,23,1,13,22
1490986024485,1,-43,-25,32,-10,35,-22,-18,-4
1490986024485,1,3,-59,-99,-42,-25,-15,12,-8
1490986024531,2,-4,56,86,3,6,9,-11,0
1490986024531,2,-5,11,-33,18,3,26,-16,7
1490986024532,3,59,84,30,-43,-21,7,-51,13
1490986024532,3,-12,-29,-57,-128,-37,20,26,-12
1490986024533,1,-12,11,-3,45,-36,-14,-23,4
1490986024533,1,-12,-28,-12,-6,22,1,21,-4
1490986024534,2,66,55,60,75,6,-30,-46,12
1490986024534,2,-16,-43,-72,-56,-21,2,5,-3
1490986024580,3,-44,-25,-51,8,24,2,11,-18
1490986024580,3,13,3,-16,-2,2,7,-20,-9
1490986024581,0,26,24,17,33,-4,-16,-10,25
1490986024581,0,-22,-20,-2,-15,10,-7,8,5
1490986024582,2,-43,10,87,20,-13,2,-20,-17
1490986024582,2,24,8,48,33,-5,0,-23,0
1490986024583,3,19,29,19,37,32,18,-26,8
1490986024583,3,-41,-46,-96,-66,-22,-8,-4,7
1490986024629,0,21,12,-22,15,6,10,-7,-6
1490986024629,0,19,-16,18,30,3,5,-20,-9
1490986024630,1,-31,-12,-11,-22,-11,14,18,4
1490986024630,1,5,28,32,29,20,12,-1,8
1490986024631,2,2,15,35,58,22,32,13,1
1490986024631,2,6,-19,-31,-15,-42,-11,5,3
1490986024632,3,17,24,-17,-13,13,0,-22,-2
1490986024632,3,-9,-47,30,39,13,20,-7,-2
1490986024678,0,0,-15,-19,-54,-21,-16,-49,4
1490986024678,0,17,34,-35,-56,-16,6,-31,-1
1490986024679,1,-7,-19,-3,33,14,6,-1,-11
1490986024679,1,-4,15,9,3,-13,-10,23,-2
1490986024680,3,-9,3,-3,-50,-12,-13,20,0
1490986024680,3,33,-11,-14,7,-29,6,-3,8
1490986024681,0,-43,-23,-14,3,25,0,17,-39
1490986024681,0,4,8,18,24,21,8,12,5
1490986024726,1,10,15,17,2,-4,5,33,7
1490986024726,1,-6,-21,-25,-52,-17,-7,10,-3
1490986024728,2,-19,6,-54,-16,-28,-10,13,-13
1490986024728,2,27,72,37,35,26,8,22,-3
1490986024729,0,8,-38,13,1,14,6,22,14
1490986024729,0,16,6,25,19,-25,-11,1,-1
1490986024730,1,-47,-38,-61,-78,4,-7,-8,-31
1490986024730,1,23,21,77,-12,2,0,-15,11
1490986024775,2,-67,18,-7,13,-4,-8,-24,4
1490986024775,2,-8,-55,11,10,-12,-8,-7,15
1490986024777,3,33,-8,-29,48,11,3,-16,3
1490986024777,3,-18,5,-6,-12,20,5,-2,-4
1490986024778,1,-23,15,-10,-53,-13,-5,0,-25
1490986024778,1,-59,-28,-30,26,-3,-11,42,-10
1490986024779,2,67,52,98,33,2,5,-15,3
1490986024779,2,-41,-43,-106,-39,1,6,3,-10
1490986024825,3,30,-9,12,2,-5,-7,9,9
1490986024825,3,-14,-23,-1,-23,21,1,-2,-7
1490986024828,0,61,73,17,24,1,4,17,25
1490986024828,0,-82,-59,11,1,16,-2,21,-17
1490986024831,2,27,33,15,35,10,5,-7,2
1490986024831,2,-40,4,57,-31,-1,2,-14,5
1490986024833,3,25,14,13,46,-3,-4,-3,46
1490986024833,3,-18,-35,-72,-59,-9,-21,-25,-69
1490986024873,0,-2,-53,-84,-38,-16,17,20,-10
1490986024873,0,15,46,29,-4,14,-3,9,34
1490986024874,1,6,-21,20,3,3,1,13,8
1490986024874,1,-17,53,80,28,-4,-2,-15,-9
1490986024877,3,-65,72,65,74,7,-4,-21,6
1490986024877,3,41,59,13,-18,5,7,10,9
1490986024878,0,35,-104,-45,-26,-18,-1,7,-1
1490986024878,0,-95,-22,-66,-47,-11,-9,-6,2
1490986024922,1,36,9,-16,27,3,-7,31,11
1490986024922,1,69,84,96,34,10,-2,-26,7
1490986024923,2,-53,-38,37,-7,1,10,7,24
1490986024923,2,35,5,32,21,-8,0,-6,-24
1490986024924,0,67,28,-25,7,-7,12,-21,21
1490986024924,0,58,18,45,-16,27,5,20,-14
1490986024925,1,-59,57,-17,-43,-18,-2,-4,-35
1490986024925,1,72,-114,-53,-7,-11,-5,-13,3
1490986024972,2,-70,-2,-1,54,15,-10,-12,3
1490986024972,2,52,25,8,-37,-28,4,-4,-16
1490986024973,3,-14,86,-67,73,22,16,-8,-6
1490986024973,3,30,-77,81,-48,-2,0,5,31
1490986024974,0,15,-59,-1,-37,-18,3,11,5
1490986024974,0,-10,-18,-37,61,34,2,-2,-16
1490986024975,1,46,-53,-2,-52,-8,-7,8,-11
1490986024975,1,-48,16,-30,10,0,8,-2,-31
1490986025019,2,51,64,38,52,-3,-12,-5,-13
1490986025019,2,-5,33,-26,-40,-3,5,6,19
1490986025020,3,90,25,105,38,19,1,-19,26
1490986025020,3,-116,-80,-77,-43,-26,-5,2,-22
1490986025021,1,-9,-23,15,-36,-6,-15,6,28
1490986025021,1,-6,103,46,40,4,24,4,-21
1490986025022,2,-48,51,-99,-26,3,-9,-17,-31
1490986025022,2,14,0,102,-3,-28,-6,-5,-8
1490986025068,3,-2,-46,-3,-8,20,-5,19,54
1490986025068,3,33,8,-80,31,-1,-4,-1,4
1490986025069,0,11,68,58,-14,5,17,-15,-2
1490986025069,0,-45,-2,-30,7,1,-4,9,11
1490986025070,2,13,-22,38,37,22,-1,6,15
1490986025070,2,50,74,-31,8,-20,-6,-32,-4
1490986025071,3,17,57,-19,-12,-5,6,-2,-15
1490986025071,3,-69,-94,9,50,10,1,14,-9
1490986025116,0,-24,-25,26,-35,-10,-14,-7,8
1490986025116,0,-10,30,-1,-19,-2,-8,9,-8
1490986025117,1,-24,-9,16,-4,1,14,-3,16
1490986025117,1,68,35,-2,24,7,-1,-6,3
1490986025118,3,-2,-76,-41,7,-3,21,5,16
1490986025118,3,24,92,29,-17,-4,-13,-2,22
1490986025119,0,-48,-46,-7,25,-11,3,-4,-10
1490986025119,0,1,-35,-17,-13,-9,-5,7,10
1490986025165,1,2,35,35,-7,10,4,-14,-34
1490986025165,1,9,-8,2,-11,-6,-5,2,11
1490986025166,2,34,-80,-128,-21,1,7,-11,-4
1490986025166,2,-9,8,65,-14,-9,-2,3,1
1490986025167,0,69,73,13,-12,-7,-4,-9,8
1490986025167,0,-47,-128,-44,11,13,12,8,-6
1490986025214,1,-37,6,50,-4,-7,-16,6,-3
1490986025214,1,0,17,-55,-39,0,-5,-11,-36
1490986025215,2,44,46,47,14,-1,-18,3,9
1490986025215,2,-67,-5,-12,4,-4,-11,2,15
1490986025216,3,31,8,-9,9,-2,1,-7,-9
1490986025216,3,18,-22,-25,-37,-15,-1,-3,2
1490986025224,1,30,-31,-18,19,-5,-1,-2,24
1490986025224,1,-39,-42,10,-27,-10,-7,18,8
1490986025263,2,30,17,-41,-36,-6,-11,-11,-22
1490986025263,2,11,26,18,9,9,17,2,1
1490986025264,3,-3,5,-12,18,0,2,3,-8
1490986025264,3,61,4,43,26,24,0,-2,12
1490986025267,2,-91,-28,-17,5,2,-8,5,-16
1490986025267,2,-7,-10,-11,-9,-7,-18,-13,5
1490986025268,3,22,27,-29,-54,-12,12,3,-12
1490986025268,3,6,-10,2,24,11,10,12,12
1490986025311,0,-13,26,25,36,9,30,1,6
1490986025311,0,31,-8,15,8,4,23,10,41
1490986025313,1,-26,-17,-18,-17,-6,-6,-4,-14
1490986025313,1,-2,-30,-18,-8,-10,-5,1,-17
1490986025314,3,-14,-38,14,15,3,-4,16,28
1490986025314,3,14,22,2,6,1,6,-20,-13
1490986025315,0,-12,7,-14,-3,0,-7,12,-8
1490986025315,0,-7,15,-3,-11,-9,12,-5,14
1490986025360,1,-10,-38,15,29,18,34,-14,-15
1490986025360,1,55,65,4,-13,-2,35,11,11
1490986025362,2,-29,17,-17,-18,-12,3,-16,-28
1490986025362,2,3,-70,-7,-10,5,26,20,-31
1490986025363,3,-23,39,-5,-10,-12,-16,-7,-4
1490986025363,3,-4,8,30,26,17,10,7,23
1490986025364,0,51,11,1,23,3,-5,-4,5
1490986025364,0,-16,3,-18,-39,-13,4,-2,-3
1490986025409,1,36,23,-10,-7,-5,-4,-6,2
1490986025409,1,-72,-55,7,13,2,-10,3,-19
1490986025410,2,13,0,10,12,-3,-6,-4,15
1490986025410,2,-5,-6,9,14,18,-8,-14,-4
1490986025412,0,20,-7,2,-4,-4,21,9,3
1490986025412,0,-39,-19,1,2,-6,-1,-11,-6
1490986025413,1,-5,6,20,11,6,1,5,3
1490986025413,1,6,-39,-4,3,-4,7,10,12
1490986025458,2,-10,0,-14,-10,-4,-12,-7,-4
1490986025458,2,26,2,-13,-28,-11,-12,-2,-2
1490986025459,3,-21,-2,-11,13,8,14,29,9
1490986025459,3,38,15,22,7,4,7,-26,-1
1490986025460,1,27,6,-8,-23,-10,-2,2,1
1490986025460,1,-13,-16,-11,-6,-1,-8,1,-1
1490986025506,2,21,28,10,3,4,2,2,-1
1490986025506,2,16,12,4,14,1,0,-8,-6
1490986025508,3,-34,-67,-21,-38,-17,-16,-1,8
1490986025508,3,-18,-4,-7,-9,1,4,8,-2
1490986025509,0,58,13,1,0,10,20,7,14
1490986025509,0,-50,2,14,21,8,5,15,-11
1490986025510,2,2,-12,-2,-9,-4,-10,-7,1
1490986025510,2,23,45,1,-1,-5,-3,7,5
1490986025555,3,-10,15,-2,5,-9,-14,-10,0
1490986025555,3,13,34,1,-6,-3,-10,-6,-8
1490986025557,0,-31,14,-6,-3,-9,15,-3,-2
1490986025557,0,0,5,0,-3,-5,-8,-25,-2
1490986025559,1,9,33,3,8,2,5,-1,-4
1490986025559,1,33,13,4,1,5,-1,7,0
1490986025560,3,-10,16,1,-4,-5,4,-8,-5
1490986025560,3,-4,-38,-5,3,3,15,3,4
1490986025604,0,23,-16,-2,-1,1,3,9,3
1490986025604,0,3,-27,-2,-4,-3,-2,-1,-14
1490986025605,1,-48,-38,-3,2,-7,-14,-2,-1
1490986025605,1,25,-39,0,4,9,-3,-12,-2
1490986025607,0,52,-14,-3,-4,-4,-10,-12,-5
1490986025607,0,-10,12,2,-1,-3,-6,9,11
1490986025607,1,27,26,0,3,2,-6,6,4
1490986025607,1,-14,31,1,0,0,5,2,0
1490986025652,2,-46,-25,-1,0,-3,13,0,-5
1490986025652,2,33,19,-1,2,5,4,-3,-3
1490986025653,3,-14,115,6,2,2,5,15,4
1490986025653,3,7,18,-6,-6,-7,-6,5,-2
1490986025654,1,-6,-65,-4,1,4,4,0,7
1490986025654,1,-33,-2,-2,-1,3,-1,1,-1
1490986025655,2,-18,43,-1,-1,-4,-8,2,2
1490986025655,2,13,37,2,-3,-2,-1,-12,2
1490986025702,3,26,7,2,5,10,20,7,-2
1490986025702,3,-35,18,-4,3,-5,-3,-1,-3
1490986025704,0,16,19,-2,-6,-1,-6,-5,-6
1490986025704,0,-28,26,0,3,8,13,10,8
1490986025705,1,27,22,-6,1,6,6,-6,-4
1490986025705,1,-20,4,-1,-9,-8,-3,11,-8
1490986025706,2,-25,12,2,4,7,2,-1,2
1490986025706,2,9,26,-2,-6,-12,-27,7,-5
1490986025750,3,-11,1,2,5,1,13,-6,-8
1490986025750,3,77,19,-1,7,9,20,-18,-1
1490986025751,0,31,28,6,0,7,7,-6,13
1490986025751,0,-75,3,-3,-6,-3,-4,37,3
1490986025752,2,-29,-28,-2,5,2,-1,-8,-4
1490986025752,2,-2,-3,3,-2,1,11,-18,-4
1490986025752,3,-29,-5,1,-2,-6,-8,15,-2
1490986025752,3,18,15,4,-4,-4,-10,-3,4
1490986025798,0,7,22,4,3,0,4,2,-5
1490986025798,0,-26,-27,-7,-1,2,1,5,5
1490986025800,1,0,-38,-2,-3,1,-7,-6,-6
1490986025800,1,-1,4,6,4,-1,10,-17,-9
1490986025801,3,-26,-7,-13,-1,-3,0,37,-8
1490986025801,3,-10,13,-2,-8,-1,-7,-24,-12
1490986025801,0,26,34,-6,-15,-12,0,21,-8
1490986025801,0,55,25,2,8,1,-5,-35,11
1490986025847,1,-18,-2,15,12,6,4,-1,1
1490986025847,1,-4,-17,-5,10,2,5,13,7
1490986025848,2,-48,-3,-7,-11,-7,15,-1,-10
1490986025848,2,66,8,-15,-12,-11,-11,2,1
1490986025849,0,11,38,23,13,6,2,-1,3
1490986025849,0,-75,23,12,10,1,-2,4,-21
1490986025850,1,53,18,-17,-17,-11,-18,-12,-1
1490986025850,1,21,-4,-15,-23,-5,-4,3,7
1490986025896,2,-35,4,-18,-6,-2,-3,-10,-23
1490986025896,2,68,67,5,18,6,1,20,3
1490986025898,3,-44,-3,37,20,-3,-8,-7,-10
1490986025898,3,-10,8,-11,-34,-6,-3,-5,-4
1490986025900,1,-7,-21,-3,22,11,8,4,4
1490986025900,1,-19,-9,1,8,-1,-13,-11,-2
1490986025902,2,18,42,22,-7,5,-2,15,6
1490986025902,2,52,-5,-1,7,-1,11,17,16
1490986025945,3,5,16,-51,-30,-18,-5,-19,0
1490986025945,3,-13,-24,-9,-50,-11,0,10,-3
1490986025947,0,-42,-52,-2,-12,-7,-10,-7,-10
1490986025947,0,26,47,35,46,17,-2,-7,-13
1490986025949,2,-9,16,-48,-41,-7,-10,-18,19
1490986025949,2,-30,10,46,-12,-8,5,7,-11
1490986025950,3,-3,5,27,-19,1,-16,-21,-2
1490986025950,3,74,-32,-26,31,-1,12,4,-12
1490986025994,0,-56,-72,-7,-23,-13,-11,3,-12
1490986025994,0,11,-85,-49,-58,-8,0,12,-22
1490986025996,1,6,80,-2,34,6,-5,1,15
1490986025996,1,30,-80,8,26,11,-7,-6,7
1490986025997,3,85,4,10,-66,-10,6,9,23
1490986025997,3,-122,-46,9,30,-1,-10,13,42
1490986026042,0,-2,67,57,1,-1,-2,-17,-38
1490986026042,0,-57,-17,4,24,6,-7,25,-3
1490986026044,1,44,-50,-40,-12,0,-5,-10,11
1490986026044,1,77,69,22,34,6,20,-4,-9
1490986026045,2,-116,-125,9,-29,-15,6,13,35
1490986026045,2,26,-15,-36,-23,-4,-13,-20,-5
1490986026046,3,48,54,52,5,7,0,10,-16
1490986026046,3,-63,-35,26,87,15,-8,18,4
1490986026095,0,79,-22,-34,-40,-6,-1,-44,-5
1490986026095,0,-5,-60,-36,-79,-12,2,21,25
1490986026097,1,-71,-63,8,-31,-15,-2,-10,-55
1490986026097,1,-59,109,34,21,5,-3,6,57
1490986026098,0,-58,-8,24,36,11,2,19,-4
1490986026098,0,115,124,54,-20,-16,13,-18,64
1490986026099,1,-80,-112,-70,-36,-13,-1,8,-25
1490986026099,1,-23,70,34,-1,-6,-12,-19,-34
1490986026140,2,-47,-27,-26,56,35,1,26,17
1490986026140,2,47,-33,44,59,-6,-6,1,-27
1490986026141,3,-7,33,-42,-68,-4,3,-5,24
1490986026141,3,127,-10,32,-2,-11,6,-26,-38
1490986026142,1,-18,-35,-63,-26,-6,-10,-1,-12
1490986026142,1,56,10,71,69,11,13,11,58
1490986026143,2,-18,8,-63,32,18,13,-2,6
1490986026143,2,-1,-3,-64,-90,-32,-15,-12,-14
1490986026189,3,60,1,-29,-1,16,9,1,-28
1490986026189,3,-35,39,45,-2,1,12,14,4
1490986026190,0,31,11,55,-16,-9,12,-8,31
1490986026190,0,-30,27,57,32,14,-1,6,-17
1490986026191,2,106,47,-24,31,10,8,-5,22
1490986026191,2,-75,-30,-18,-128,-52,5,-1,5
1490986026237,3,-95,-67,-103,30,-1,-13,-7,15
1490986026237,3,49,-9,86,71,21,-15,8,-46
1490986026239,0,14,-14,-23,-74,-2,2,-12,-8
1490986026239,0,75,54,0,66,16,-3,-7,15
1490986026240,1,-79,51,122,33,-5,1,5,-16
1490986026240,1,17,-23,-116,15,8,4,-8,14
1490986026241,3,20,-23,-39,47,42,-5,5,60
1490986026241,3,-74,-87,15,8,-36,-23,8,-90
1490986026286,0,127,127,36,15,30,3,-1,120
1490986026286,0,-76,-100,-71,-39,-12,-4,10,-77
1490986026288,1,108,48,24,65,13,17,-4,-52
1490986026288,1,-79,-32,-77,-128,-15,-13,-5,56
1490986026289,0,10,-3,-70,-58,-49,-1,-15,-87
1490986026289,0,-12,-103,-94,-100,-16,-18,-11,-27
1490986026290,1,-32,-97,76,31,-13,16,38,20
1490986026290,1,84,127,127,106,66,43,11,46
1490986026337,2,-128,-64,-80,-90,-23,81,14,18
1490986026337,2,115,66,-53,4,-8,6,-16,-12
1490986026339,3,-98,47,80,-28,-3,14,5,40
1490986026339,3,50,57,-104,75,-13,-8,26,-10
1490986026342,1,-83,-93,-119,-30,-61,-24,32,-1
1490986026342,1,13,-9,-11,-119,-25,1,-13,28
1490986026343,2,-83,19,10,45,-21,-31,7,-29
1490986026343,2,76,1,-16,71,-7,27,17,61
1490986026384,3,-46,0,79,-28,26,0,-28,80
1490986026384,3,26,11,51,-38,13,41,20,-68
1490986026386,0,41,127,-23,80,46,20,-40,-32
1490986026386,0,-5,15,77,-110,-29,21,-8,18
1490986026388,2,21,81,-8,22,24,-22,31,-21
1490986026388,2,12,-34,127,-35,-25,-13,-19,28
1490986026389,3,85,34,35,-37,-6,2,12,12
1490986026389,3,-94,22,61,62,66,-6,1,5
1490986026433,0,90,-45,-73,-89,-36,-58,-21,-20
1490986026433,0,-118,-29,-84,53,7,-34,10,19
1490986026435,1,-70,-47,85,26,31,-32,-34,-59
1490986026435,1,0,-39,23,-20,-8,-14,19,49
1490986026436,2,-79,-56,-115,-33,-28,-2,4,-31
1490986026436,2,44,95,103,122,51,-2,46,42
1490986026437,3,3,93,-34,-128,-13,-12,-38,10
1490986026437,3,-50,-14,-101,-68,-51,-42,2,8
1490986026481,0,-117,26,59,99,11,-27,3,-26
1490986026481,0,-11,39,85,-76,15,-4,4,38
1490986026484,1,43,60,-11,-7,8,-12,0,-40
1490986026484,1,20,33,-75,87,3,14,-2,12
1490986026485,3,60,127,78,124,3,-28,-3,32
1490986026485,3,13,47,64,-20,68,38,-18,44
1490986026486,0,10,-17,-67,-57,-54,-9,-5,-32
1490986026486,0,39,81,78,119,25,-28,-14,2
1490986026530,1,89,39,34,-68,-45,16,7,9
1490986026530,1,-99,-128,-101,-86,-64,-14,-15,-59
1490986026531,2,21,127,73,119,70,10,31,46
1490986026531,2,23,81,-46,-128,-23,24,-21,9
1490986026532,0,80,82,54,85,35,24,-55,-31
1490986026532,0,-89,-13,72,74,8,-17,57,-6
1490986026533,1,84,-96,-114,-77,-21,27,-20,63
1490986026533,1,-29,-117,-115,-111,-42,-46,-7,-47
1490986026579,2,31,-67,99,107,44,8,12,12
1490986026579,2,12,24,-16,66,-10,23,8,32
1490986026580,3,68,-118,-33,-56,28,-16,19,-20
1490986026580,3,-52,-104,-122,97,10,28,12,4
1490986026581,1,-88,-76,-91,-103,-42,-12,-9,-54
1490986026581,1,45,-63,52,75,-67,-70,-11,-25
1490986026582,2,39,31,54,105,65,73,44,35
1490986026582,2,63,-63,15,78,38,27,-31,40
1490986026628,3,-40,-69,4,-42,-28,-5,-19,-76
1490986026628,3,-8,127,-29,76,-23,-19,24,83
1490986026629,0,-54,-64,50,66,-2,-28,11,-60
1490986026629,0,-71,11,-24,15,15,10,7,-22
1490986026631,2,-102,23,35,33,-62,-19,60,-17
1490986026631,2,74,38,29,51,68,37,-9,46
1490986026632,3,22,23,-105,-33,-19,19,-9,4
1490986026632,3,85,73,99,82,9,-9,8,-19
1490986026677,0,-63,-50,9,31,22,15,11,-22
1490986026677,0,-2,-15,28,-30,-50,-35,-26,-15
1490986026678,1,-46,114,56,63,69,32,-12,15
1490986026678,1,123,127,115,61,102,35,-43,48
1490986026679,3,-79,79,127,117,13,-48,27,-7
1490986026679,3,16,-5,86,90,76,24,-4,26
1490986026681,0,23,93,-14,-75,0,-60,-14,20
1490986026681,0,30,-17,-61,-18,-6,34,33,39
1490986026728,1,75,-60,12,-2,-12,17,20,14
1490986026728,1,-11,-71,-45,-28,-7,2,-1,-28
1490986026729,2,-1,33,44,1,39,18,-52,17
1490986026729,2,0,-114,-128,-128,-75,0,-17,-18
1490986026731,0,52,14,-28,-78,5,2,-16,16
1490986026731,0,-32,-13,-24,1,-61,-26,8,-3
1490986026732,1,1,80,93,92,79,-21,-38,-12
1490986026732,1,-5,-5,-101,-128,-41,-47,-15,-16
1490986026774,2,-34,27,58,127,-12,6,10,-8
1490986026774,2,-14,59,-28,-50,24,-3,-15,1
1490986026775,3,7,-47,-8,-76,-9,-14,-2,-15
1490986026775,3,32,126,82,77,55,17,1,6
1490986026776,0,-10,-14,-101,-128,-37,-37,-1,-8
1490986026776,0,9,-16,112,127,7,-16,-5,0
1490986026779,1,8,49,127,38,-21,23,28,4
1490986026779,1,10,-55,-128,-111,-76,13,0,-4
1490986026823,2,6,-67,-69,30,72,37,11,-3
1490986026823,2,38,50,127,63,26,9,-50,-1
1490986026824,3,-77,-128,-105,-54,-72,-18,50,14
1490986026824,3,-6,0,82,65,40,-3,-9,-15
1490986026825,1,-2,12,82,127,12,-23,-15,-17
1490986026825,1,3,-77,-83,-72,-33,-21,-19,-8
1490986026826,2,-24,-55,-98,-50,-1,-12,23,-10
1490986026826,2,30,1,126,82,43,-7,13,16
1490986026871,3,15,-3,-11,-12,18,11,13,9
1490986026871,3,-22,20,24,41,3,10,5,10
1490986026873,0,19,19,79,75,20,1,-18,22
1490986026873,0,-9,9,-61,-106,-38,-6,-13,-11
1490986026874,2,-53,1,-57,2,-16,-15,-31,-12
1490986026874,2,31,41,2,32,43,27,12,11
1490986026875,3,17,1,-128,-45,-44,-32,-42,5
1490986026875,3,-38,18,36,-41,2,-34,-3,-31
1490986026920,0,45,25,38,25,-23,-17,-8,16
1490986026920,0,-29,-1,-3,22,30,27,18,4
1490986026921,1,-10,16,-46,-24,-2,-24,-26,-4
1490986026921,1,-12,53,-78,-67,-53,-23,35,-4
1490986026922,3,-8,26,33,9,39,24,-14,-8
1490986026922,3,-4,-34,-53,-84,-18,0,24,2
1490986026923,0,-22,-55,22,8,5,-1,21,3
1490986026923,0,26,-2,28,0,-34,10,-16,-7
1490986026969,1,-18,-21,33,21,-8,-17,5,-1
1490986026969,1,-2,-23,27,15,4,-27,-35,4
1490986026970,2,24,1,26,0,12,37,-9,13
1490986026970,2,-10,-81,-84,-34,-21,1,-23,-8
1490986026971,0,18,-6,-2,7,8,4,-22,2
1490986026971,0,-8,-3,2,2,17,19,-36,-2
1490986026972,1,11,-12,-8,6,-26,5,0,15
1490986026972,1,4,-8,-9,5,46,15,5,5
1490986027017,2,-8,-12,4,-13,-22,14,-31,-4
1490986027017,2,-11,-21,3,26,35,-20,-18,0
1490986027019,3,52,10,-15,-28,-53,-22,-34,-7
1490986027019,3,-56,-40,-15,-1,43,56,6,-6
1490986027020,1,-5,-16,23,-4,-24,5,42,0
1490986027020,1,20,-16,11,27,22,-10,14,0
1490986027021,2,-16,-6,2,3,35,12,39,1
1490986027021,2,-10,-7,19,-1,-23,-2,24,-1
1490986027066,3,19,4,6,9,-20,-4,28,4
1490986027066,3,-32,-7,-8,-27,1,6,44,-7
1490986027068,0,-22,-38,-45,-21,0,12,33,-9
1490986027068,0,2,13,17,37,4,-24,33,5
1490986027068,2,-30,-23,-47,-24,-1,-15,19,22
1490986027068,2,-2,-54,11,-9,-11,11,-23,-5
1490986027070,3,-9,2,5,-3,11,-1,-31,-6
1490986027070,3,0,-13,-4,15,7,10,11,13
1490986027116,0,10,12,38,33,-2,31,-4,-13
1490986027116,0,10,13,13,13,-10,-17,-9,-6
1490986027117,1,9,-21,-41,-39,3,-4,20,14
1490986027117,1,-23,-14,-26,-8,-7,-5,7,-16
1490986027119,2,1,33,28,11,-6,-28,-1,4
1490986027119,2,27,-9,-16,-27,4,6,-3,-1
1490986027120,3,27,62,27,48,26,9,32,0
1490986027120,3,1,-27,19,-10,-6,-3,2,19
1490986027163,0,34,4,-56,-18,-17,0,-11,2
1490986027163,0,-29,36,15,-24,18,-9,-8,0
1490986027164,1,-12,-34,-6,-3,2,11,28,-27
1490986027164,1,49,34,3,-5,-7,6,-7,18
1490986027165,3,-19,-20,5,5,0,-12,-4,-12
1490986027165,3,24,2,-55,25,-24,1,5,10
1490986027166,0,-38,-56,79,-34,5,-8,6,-22
1490986027166,0,-8,-36,13,-37,-14,6,-8,-10
1490986027212,1,-64,-69,-51,-2,5,-2,2,-39
1490986027212,1,26,46,28,30,-2,-11,-3,21
1490986027213,2,24,77,64,30,1,-13,-12,-24
1490986027213,2,-5,-11,-38,-48,-7,9,-12,-39
1490986027214,0,-37,-67,2,-38,1,-7,27,23
1490986027214,0,18,36,19,17,-7,-6,-21,-9
1490986027215,1,25,69,57,79,15,3,2,21
1490986027215,1,-16,13,-21,-88,-34,-15,-10,26
1490986027261,2,25,26,-42,33,30,15,6,-9
1490986027261,2,4,-6,50,73,1,-11,-1,20
1490986027310,3,-31,-28,-7,-47,-11,-21,-6,26
1490986027310,3,21,17,45,9,9,34,23,-15
1490986027311,1,73,84,29,72,41,4,-10,24
1490986027311,1,7,-76,-45,-73,-13,-14,-13,-12
1490986027312,2,-30,-38,57,0,-23,-5,-7,-26
1490986027312,2,-7,46,-46,19,26,2,13,-18
1490986027312,3,-79,-42,-24,-65,-17,-1,12,-15
1490986027312,3,30,48,37,62,15,5,-5,-14
1490986027359,0,32,8,-52,-1,-7,-6,1,30
1490986027359,0,-16,-42,45,-35,-15,-14,-5,-14
1490986027360,2,-11,57,36,19,22,-1,-18,13
1490986027360,2,0,29,29,32,-5,11,6,10
1490986027361,3,2,-77,-110,-48,-7,2,-3,-11
1490986027361,3,16,48,83,-1,6,4,24,4
1490986027362,3,-32,-31,-27,43,-4,-4,11,-7
1490986027362,3,-57,-60,64,27,3,-5,2,-2
1490986027458,0,66,73,53,28,21,9,-31,-7
1490986027458,0,-19,-49,-127,-54,-14,10,26,-24
1490986027460,1,-11,-21,63,-32,-21,-1,-4,4
1490986027460,1,-5,-46,-34,-8,-1,3,7,-8
1490986027460,0,37,-19,21,-19,14,5,8,21
1490986027460,0,-13,19,-70,-13,-23,-16,-4,-20
1490986027462,1,19,-4,51,-4,-1,2,-14,13
1490986027462,1,-4,5,-5,4,-9,-11,9,10
1490986027505,2,13,70,56,82,22,2,15,-16
1490986027505,2,28,25,-54,-9,5,12,-25,-1
1490986027506,3,-33,-45,32,-48,0,-1,10,37
1490986027506,3,-20,39,-24,15,-14,10,7,-7
1490986027507,0,29,-34,20,-43,-13,-10,-2,-5
1490986027507,0,-18,12,-17,27,0,-20,-1,-9
1490986027508,1,43,24,-46,7,5,3,3,12
1490986027508,1,3,39,73,20,-22,-21,1,-8
1490986027554,2,11,18,-33,-11,33,20,-12,6
1490986027554,2,-59,-3,30,28,-5,5,12,2
1490986027555,3,17,2,-55,-60,-5,-12,0,-5
1490986027555,3,29,0,-37,-17,1,10,-13,-10
1490986027556,2,-69,-108,-84,-27,-14,-10,13,-26
1490986027556,2,28,24,23,-5,-5,-8,0,32
1490986027556,3,-99,1,-12,-19,-3,-17,15,-4
1490986027556,3,-41,34,14,1,-1,-6,-10,-45
1490986027651,0,21,44,-23,20,10,-3,1,10
1490986027651,0,39,-9,54,-13,-4,-1,-1,39
1490986027652,1,60,34,-25,5,-9,-3,-23,-19
1490986027652,1,-64,-42,-28,-1,10,-1,26,22
1490986027653,3,-2,60,24,-23,-4,8,4,-19
1490986027653,3,21,-28,-71,-15,-5,-13,-25,-9
1490986027655,0,5,-36,-2,8,-1,0,5,-1
1490986027655,0,-18,54,25,24,9,-11,11,5
1490986027700,1,42,-12,43,30,7,7,-7,-5
1490986027700,1,-69,-52,-22,-24,-21,-17,-25,17
1490986027702,2,-54,18,-30,-2,8,-11,19,-19
1490986027702,2,9,-34,-25,-44,-3,-4,13,-5
1490986027703,0,18,15,26,26,0,2,-17,21
1490986027703,0,-32,-27,-20,1,3,17,17,49
1490986027704,1,28,6,22,10,5,5,-11,-3
1490986027704,1,-8,7,7,46,11,7,9,10
1490986027749,2,42,5,57,34,14,19,-2,11
1490986027749,2,-20,-40,-69,-40,-7,9,-11,-20
1490986027750,3,-4,19,-18,-48,-13,18,12,0
1490986027750,3,-30,-8,13,8,6,29,12,2
1490986027751,2,-1,-6,5,1,-5,9,3,-6
1490986027751,2,-19,28,13,4,4,3,-2,-9
1490986027752,3,-6,-24,-9,-10,-11,-12,0,3
1490986027752,3,17,8,0,11,7,17,-5,-8
1490986027797,0,-1,-26,0,1,2,-15,-11,-6
1490986027797,0,-1,6,-9,-20,-16,-16,12,-6
1490986027798,1,53,5,3,-2,-2,-6,-17,-6
1490986027798,1,-105,-34,-14,-16,-14,-5,18,6
1490986027799,3,-57,-9,29,36,6,22,-11,-7
1490986027799,3,91,-7,-33,-31,-9,-17,12,19
1490986027800,0,-49,-24,-17,-29,-5,17,-3,-4
1490986027800,0,-1,-11,11,6,0,-10,16,-2
1490986027846,1,-17,26,20,20,8,7,-4,15
1490986027846,1,-21,-36,0,16,5,-2,-1,-13
1490986027847,2,24,-3,15,-1,-9,-8,10,4
1490986027847,2,-9,-17,-29,-11,4,15,-19,-6
1490986027848,3,-13,-1,8,-15,-23,-29,-1,3
1490986027848,3,20,5,-9,4,24,11,7,-6
1490986027849,0,1,12,6,2,-3,10,5,-3
1490986027849,0,77,23,4,18,15,0,-1,10
1490986027895,1,-80,-49,1,-11,-7,5,3,0
1490986027895,1,-8,20,-21,-16,-15,-3,-22,-9
1490986027896,2,3,60,4,7,4,6,11,1
1490986027896,2,-22,43,1,1,-1,-4,-1,-4
1490986027897,0,-1,-23,-5,4,7,28,15,7
1490986027897,0,-2,-33,7,-1,-2,-2,-7,2
1490986027897,1,-14,-17,-5,-5,-2,2,18,1
1490986027897,1,-4,6,-3,2,5,-2,-16,-10
1490986027943,2,31,21,-6,-6,-5,-17,-4,-1
1490986027943,2,-36,3,14,13,-8,-18,-6,-6
1490986027944,3,37,10,-3,-5,19,11,5,1
1490986027944,3,1,-18,-11,-6,-12,-11,5,6
1490986027945,1,4,19,8,2,-8,-15,9,6
1490986027945,1,-10,-19,-5,1,0,0,-1,2
1490986027946,2,19,-16,-2,-9,-9,-9,-15,-5
1490986027946,2,16,-22,-1,-4,2,-12,-2,0
1490986027992,3,-16,-63,-7,-3,-10,6,-7,-4
1490986027992,3,17,-66,3,5,7,6,15,8
1490986027993,0,-24,-91,6,9,4,-5,10,-6
1490986027993,0,52,-71,-5,-9,-5,4,-4,-1
1490986027995,2,-30,54,-1,7,5,-2,-8,-2
1490986027995,2,41,57,-3,-11,-3,1,-10,-2
1490986027996,3,13,74,-1,0,-4,-26,-29,-11
1490986027996,3,19,55,1,5,-3,-2,16,22
1490986028042,0,-24,6,0,-3,-5,-13,-11,1
1490986028042,0,-57,-6,-6,0,5,1,8,-8
1490986028044,1,29,-1,-2,2,-2,-11,-11,13
1490986028044,1,-18,1,-6,-6,-7,-9,-17,-13
1490986028046,3,7,15,-5,-6,-9,-4,5,-10
1490986028046,3,-8,30,7,9,14,1,3,-10
1490986028047,0,25,30,-2,-1,-15,-9,11,2
1490986028047,0,7,19,2,10,11,-4,3,-8
1490986028091,1,-16,-15,-5,-10,-1,0,6,-7
1490986028091,1,-2,-1,3,-4,-6,3,-5,8
1490986028092,2,11,25,9,7,-5,-19,-14,0
1490986028092,2,34,12,2,8,-5,-3,3,11
1490986028096,0,-14,1,-7,-3,2,-1,-3,-5
1490986028096,0,21,13,-8,-5,2,1,10,7
1490986028099,1,19,7,10,9,0,-13,20,9
1490986028099,1,30,6,-1,8,1,6,-11,-19
1490986028139,2,-42,7,11,9,9,13,-16,-3
1490986028139,2,11,-5,-5,-1,-5,7,-5,-17
1490986028141,3,-3,3,-8,-19,-3,18,11,0
1490986028141,3,-47,-22,-14,-7,1,9,6,3
1490986028143,1,-20,-7,0,1,-3,-8,3,5
1490986028143,1,-6,-18,7,2,0,-7,0,-7
1490986028146,2,-56,-29,-6,7,3,2,-7,-1
1490986028146,2,62,13,1,-11,-6,-5,9,11
1490986028187,3,16,17,-20,-5,-4,-4,-7,-3
1490986028187,3,-37,-35,7,-19,-10,-11,10,3
1490986028188,0,24,2,2,4,10,13,9,9
1490986028188,0,-19,23,-12,13,8,10,-1,-7
1490986028189,1,-19,-8,5,8,-2,-6,-10,-10
1490986028189,1,46,11,0,-4,2,9,2,16
1490986028190,2,-5,35,16,13,-1,-8,-14,-10
1490986028190,2,-45,21,-12,-13,-4,-8,7,-19
1490986028236,3,42,24,-3,-19,-2,4,1,5
1490986028236,3,-12,4,-4,32,16,7,15,5
1490986028237,0,25,41,-10,-38,-19,-12,-13,2
1490986028237,0,-7,11,25,9,-6,-11,-4,4
1490986028238,2,47,35,17,55,7,-14,-1,-22
1490986028238,2,-18,-30,-49,-28,0,1,-3,13
1490986028238,3,52,2,57,0,-6,-3,4,7
1490986028238,3,-61,-37,-8,18,-6,-5,-6,-36
1490986028285,0,22,-16,-45,-59,-4,3,18,22
1490986028285,0,18,-5,12,-13,-18,-18,-24,-9
1490986028286,1,-36,-106,-4,-7,3,3,9,-1
1490986028286,1,-19,104,9,16,4,6,11,4
1490986028286,3,-40,21,-64,-1,-1,-1,14,11
1490986028286,3,66,52,-14,-27,-10,-3,-6,-8
1490986028287,0,-36,-16,31,3,8,11,-2,1
1490986028287,0,13,25,2,-20,4,-13,-8,-2
1490986028334,1,22,32,24,80,10,-4,-19,-6
1490986028334,1,-22,-37,48,-26,-11,8,19,6
1490986028335,2,58,-17,-101,-60,-12,2,-13,0
1490986028335,2,-27,-54,21,24,0,6,16,-11
1490986028335,0,19,-24,39,-34,-9,12,-9,-23
1490986028335,0,-90,-3,-3,28,6,-10,21,40
1490986028336,1,22,-49,-23,43,9,-4,15,5
1490986028336,1,53,22,102,11,10,0,-5,27
1490986028383,2,-7,-12,-47,-43,-17,-12,-12,-28
1490986028383,2,10,-74,-12,-29,-2,-6,3,-2
1490986028384,3,-91,4,16,15,6,-7,19,-42
1490986028384,3,14,-43,-50,-31,-2,5,-10,27
1490986028386,1,-3,112,35,-108,-19,-3,-3,-10
1490986028386,1,24,14,12,39,-7,-11,2,47
1490986028387,2,-23,-16,64,81,30,12,-1,-36
1490986028387,2,48,39,-48,50,25,10,10,37
1490986028431,3,-57,-90,9,-57,-12,6,-8,12
1490986028431,3,-18,-18,-34,-14,-12,-7,-2,-18
1490986028432,0,16,4,-45,-32,-30,-4,-5,-17
1490986028432,0,26,46,47,8,10,2,5,23
1490986028436,2,12,17,-3,41,6,10,20,29
1490986028436,2,-35,-13,-38,-81,-24,-15,-8,-29
1490986028436,3,-3,-61,-14,-17,-2,2,13,-29
1490986028436,3,-41,-4,-28,61,15,3,-26,-15
1490986028480,0,-5,-36,-15,-13,-1,4,13,-12
1490986028480,0,72,32,20,-46,-7,4,-6,27
1490986028528,1,26,47,16,-12,-8,-11,1,14
1490986028528,1,27,-46,-31,22,-6,-15,14,7
1490986028529,3,-60,-25,1,-9,19,16,1,39
1490986028529,3,23,84,0,-7,2,2,2,-104
1490986028530,0,-9,-1,44,-32,-10,-1,9,46
1490986028530,0,80,84,47,94,1,-4,-19,-3
1490986028531,1,-67,-95,-101,-51,-16,-8,-16,-24
1490986028531,1,44,-59,-71,-18,-20,-1,32,6
1490986028577,2,16,7,32,-14,1,6,-12,-45
1490986028577,2,53,76,127,58,43,30,-2,40
1490986028578,3,127,37,89,74,10,-4,-11,-6
1490986028578,3,-58,-53,-66,12,0,17,18,7
1490986028579,0,-4,-7,-66,-32,-19,-15,9,-21
1490986028579,0,-1,-114,-97,-101,-29,-15,-34,5
1490986028580,0,-16,5,-6,-7,9,2,1,24
1490986028580,0,-40,41,49,101,46,10,35,-35
1490986028626,1,44,17,-22,-9,-36,-9,-27,13
1490986028626,1,7,96,54,-39,14,7,-5,10
1490986028628,2,55,-29,-69,-99,-18,3,25,40
1490986028628,2,-114,12,-59,-126,-27,-18,-7,-35
1490986028629,1,30,72,-50,109,20,7,17,-77
1490986028629,1,46,10,-25,-128,-50,-8,-30,36
1490986028630,2,47,70,0,111,65,13,30,6
1490986028630,2,-31,-43,9,99,15,3,-21,50
1490986028675,3,55,-55,-128,-128,-82,-23,-24,-25
1490986028675,3,-80,-44,-57,20,-17,-2,39,-52
1490986028676,0,-128,-37,116,64,15,-6,18,16
1490986028676,0,84,95,82,119,38,37,31,42
1490986028676,2,18,37,-29,-85,-51,-11,-14,5
1490986028676,2,4,-8,-97,-60,-3,13,23,-42
1490986028677,3,-63,-107,-38,-5,-13,-27,12,9
1490986028677,3,5,72,109,-3,1,38,-23,46
1490986028724,0,28,119,114,127,48,15,-23,35
1490986028724,0,-121,-76,-57,46,2,29,30,-24
1490986028726,1,113,79,-34,-57,-35,9,-18,-23
1490986028726,1,5,1,86,100,-4,-27,45,-18
1490986028727,3,102,-13,9,15,15,-16,-25,47
1490986028727,3,-70,32,-37,-24,-4,-10,-9,-53
1490986028728,0,-16,-91,-33,-23,11,-18,19,-28
1490986028728,0,120,-6,-16,-54,-12,-19,-27,22
1490986028772,1,-56,-71,60,-39,42,33,20,51
1490986028772,1,64,-5,-128,-128,-44,-9,-13,-27
1490986028774,2,-128,-48,-95,-53,-36,-23,20,-12
1490986028774,2,58,28,91,30,-2,-18,-15,-26
1490986028775,0,-62,-33,-101,-105,-20,26,-8,-23
1490986028775,0,-115,48,-71,2,-18,-22,-14,-9
1490986028776,1,40,22,83,-44,19,-2,22,23
1490986028776,1,70,30,-85,-77,-80,-32,-13,40
1490986028821,2,-54,-57,50,127,10,11,2,-41
1490986028821,2,25,-44,61,6,23,15,37,-12
1490986028822,3,38,76,-43,10,13,106,17,33
1490986028822,3,75,11,-9,-43,38,10,-1,36
1490986028825,1,-10,1,-122,-14,-29,-60,-8,-26
1490986028825,1,-72,31,51,-43,-40,-30,31,-26
1490986028825,2,23,-49,127,80,62,-17,14,-7
1490986028825,2,-25,-50,-66,-121,-24,7,-22,-42
1490986028870,3,-61,-87,-76,-3,-57,-47,9,-12
1490986028870,3,-49,33,-49,86,10,-4,-18,-3
1490986028870,0,-74,-92,99,91,27,11,26,-1
1490986028870,0,-24,58,-62,4,38,12,-18,-16
1490986028871,1,-24,-51,98,-106,-6,-4,-9,-15
1490986028871,1,60,-10,2,105,48,28,-13,43
1490986028874,2,40,-26,-51,-128,-78,-18,-5,-7
1490986028874,2,-14,-12,-14,102,-18,-15,11,-15
1490986028919,3,-52,-55,-71,88,26,0,24,28
1490986028919,3,-6,-6,127,126,29,5,27,-11
1490986028926,0,11,2,-41,-52,37,5,-1,10
1490986028926,0,66,68,72,57,11,-5,7,42
1490986028927,2,78,43,34,76,0,9,18,0
1490986028927,2,-45,35,27,41,5,1,15,42
1490986028928,3,19,-18,-15,-2,-21,-4,-3,-47
1490986028928,3,-23,-14,-116,86,29,-5,-11,2
1490986028967,0,-58,23,49,23,-14,33,5,-21
1490986028967,0,59,27,-54,-7,16,17,-29,23
1490986028969,1,93,127,127,127,84,100,-9,17
1490986028969,1,-128,-128,-128,-128,-99,67,-20,-53
1490986028970,3,-39,-29,72,-65,-12,-32,57,21
1490986028970,3,68,56,69,-64,16,-25,9,-24
1490986028971,0,47,6,-9,-77,14,-31,-28,14
1490986028971,0,15,-128,-63,-128,-42,4,19,13
1490986029016,1,-37,46,56,68,-7,-11,-20,-30
1490986029016,1,-8,-94,-90,-79,-5,-41,7,37
1490986029018,2,11,45,-10,-44,-32,7,42,-4
1490986029018,2,17,70,53,37,-4,-21,-1,7
1490986029019,0,112,127,65,-45,43,54,-128,52
1490986029019,0,-128,-128,-88,-128,-128,-50,78,-57
1490986029020,1,13,1,83,93,-18,14,69,-22
1490986029020,1,48,56,46,93,19,1,-17,-4
1490986029114,2,-41,54,17,118,54,-12,13,7
1490986029114,2,56,53,123,39,31,23,-25,31
1490986029115,3,28,106,72,86,27,-76,-76,21
1490986029115,3,-95,-87,-128,-114,-74,-30,56,-31
1490986029116,1,-72,-126,-128,-111,-91,-53,97,-68
1490986029116,1,-13,6,127,82,47,38,14,9
1490986029118,2,-5,-7,-2,24,14,-13,-41,-4
1490986029118,2,-4,-23,22,-4,20,-3,45,-16
1490986029212,3,18,33,29,8,37,9,-56,41
1490986029212,3,26,50,87,-34,-29,-46,-15,-6
1490986029213,0,31,-105,-116,-128,-34,28,31,1
1490986029213,0,-31,15,-2,63,17,-27,-51,-23
1490986029215,2,69,110,72,121,68,11,-35,-1
1490986029215,2,-75,-48,-39,-128,-60,-27,1,-3
1490986029216,3,33,-1,41,45,22,16,-31,28
1490986029216,3,-7,-25,15,-79,-9,-11,-9,-37
1490986029260,0,-50,-32,-77,-73,-48,7,32,-5
1490986029260,0,-12,-89,-24,-98,-16,-13,85,15
1490986029262,1,34,14,63,10,0,-14,-64,9
1490986029262,1,38,15,84,127,46,-21,-89,33
1490986029263,0,-2,-49,-66,-70,-13,-27,17,5
1490986029263,0,13,32,-8,97,-9,30,-42,0
1490986029264,0,-22,-20,-45,-38,-44,-30,-27,-7
1490986029264,0,22,15,-40,-15,9,-4,-21,2
1490986029309,1,12,21,84,32,0,11,35,2
1490986029309,1,-16,-23,-96,-73,-3,-5,39,-5
1490986029310,2,26,47,90,100,33,10,-36,1
1490986029310,2,-26,22,52,51,-47,-15,-18,-6
1490986029312,1,16,-15,-21,-13,-20,-3,-1,4
1490986029312,1,6,-20,22,15,-8,20,2,-1
1490986029313,2,-31,-21,11,18,9,-3,-14,-5
1490986029313,2,16,-23,-7,-14,21,39,-32,-17
1490986029357,3,-3,-42,-28,-18,-36,-2,-24,10
1490986029357,3,-9,-43,-44,-12,3,-16,-23,0
1490986029359,0,16,12,16,21,21,45,-25,6
1490986029359,0,-12,-57,19,19,-20,-19,-20,-15
1490986029360,2,-29,-25,18,15,-3,-25,-17,-5
1490986029360,2,42,23,27,32,43,41,19,9
1490986029361,3,-35,-29,-17,-12,-51,5,-1,-13
1490986029361,3,17,-18,-41,-30,16,-8,83,5
1490986029406,0,-11,46,55,29,9,10,18,-4
1490986029406,0,-13,-27,-35,25,20,11,26,-4
1490986029408,1,35,7,29,3,9,21,41,5
1490986029408,1,-44,-14,-47,-32,-30,-14,5,-6
1490986029409,3,12,33,10,3,-7,-5,-50,2
1490986029409,3,51,-2,-4,-13,-11,-16,-9,4
1490986029410,0,-39,-41,-16,20,27,-14,23,-7
1490986029410,0,13,-1,-18,-14,-1,-21,33,-3
1490986029504,1,2,-18,16,21,14,8,51,-9
1490986029504,1,29,29,55,31,25,18,-10,25
1490986029505,2,-21,-69,-79,-24,-26,-16,12,-11
1490986029505,2,24,8,-57,-33,-26,4,8,-3
1490986029506,0,41,52,82,83,24,22,2,21
1490986029506,0,14,8,-4,-44,-14,-24,14,31
1490986029507,1,17,-8,-62,-23,-20,0,-1,-27
1490986029507,1,-29,-3,24,11,5,-8,12,13
1490986029552,2,4,40,25,17,14,-8,-7,-19
1490986029552,2,30,41,26,40,19,20,-28,-5
1490986029554,3,3,-20,-52,-18,-22,-8,6,18
1490986029554,3,-40,-16,73,-24,2,19,-14,-25
1490986029555,1,19,3,16,24,-16,-15,12,-11
1490986029555,1,-16,-21,-66,15,17,10,31,7
1490986029556,2,-57,-18,-75,-5,-3,3,4,1
1490986029556,2,49,55,100,28,-7,-7,6,4
1490986029699,3,40,56,78,70,2,-9,4,-21
1490986029699,3,-34,-77,-91,-99,-20,2,7,15
1490986029700,0,0,-8,-31,-4,9,-12,21,20
1490986029700,0,-8,-69,1,42,14,14,-18,10
1490986029701,2,76,64,23,32,0,12,5,2
1490986029701,2,-100,-68,-80,-60,-13,6,16,-18
1490986029702,3,6,99,6,-18,12,-14,-20,-15
1490986029702,3,23,-17,-50,18,-4,-11,13,18
1490986029748,0,-43,-8,82,20,-15,-11,0,-13
1490986029748,0,64,58,24,19,17,5,-24,-9
1490986029749,1,-65,-44,-104,-65,-30,-7,3,38
1490986029749,1,17,34,-6,-57,-16,11,1,-57
1490986029750,3,-52,-56,45,-25,-1,-2,-37,-17
1490986029750,3,-4,35,32,17,2,20,-19,5
1490986029751,1,-15,66,25,57,0,-2,-3,12
1490986029751,1,-8,-49,-11,-7,-1,-3,11,17
1490986029797,2,-39,-14,13,-7,21,32,-7,-5
1490986029797,2,-21,4,-90,7,-10,1,7,-26
1490986029798,3,46,7,32,-73,-6,0,-7,-34
1490986029798,3,-92,49,10,24,13,-6,12,23
1490986029798,2,-6,9,22,-50,-33,-19,5,-17
1490986029798,2,21,79,33,52,9,-4,-32,6
1490986029799,3,65,-18,-33,31,10,12,11,15
1490986029799,3,-56,-28,-39,-83,-2,-1,-9,-12
1490986029894,0,-4,-25,-47,-21,-20,-18,4,-21
1490986029894,0,-30,-9,68,1,6,0,12,24
1490986029895,1,-25,7,14,68,-4,-13,-4,-1
1490986029895,1,106,61,36,-29,1,-5,-3,12
1490986029896,3,-105,10,16,4,0,7,23,3
1490986029896,3,109,92,19,63,2,2,-29,65
1490986029896,0,-55,-51,17,-36,-15,-15,-22,-44
1490986029896,0,-35,-67,-24,-42,1,2,12,-12
1490986029942,1,56,66,9,30,16,-1,3,7
1490986029942,1,-30,-55,-43,-10,-5,-13,-4,-8
1490986029943,2,59,28,42,10,-7,8,-15,35
1490986029943,2,-54,-90,26,14,-8,3,19,-2
1490986029943,0,26,-56,-14,27,52,10,0,3
1490986029943,0,-8,-18,-3,6,1,-10,-15,4
1490986029945,0,27,25,16,0,-11,-4,25,-2
1490986029945,0,18,18,-7,-1,15,7,-10,-5
1490986030040,1,38,-11,-10,-15,-9,-19,-6,-6
1490986030040,1,-71,8,16,39,21,19,9,3
1490986030040,2,1,-28,8,14,-2,-14,-11,4
1490986030040,2,12,-6,-20,-37,-11,-2,12,10
1490986030041,1,43,23,-4,5,-2,20,0,12
1490986030041,1,25,42,-11,-22,-8,16,-1,-4
1490986030042,2,-46,35,-8,-5,-6,-2,-11,3
1490986030042,2,1,-38,-12,-19,-6,-8,2,-24
1490986030088,3,-59,-26,-6,-12,1,-9,-3,-3
1490986030088,3,-1,-8,14,44,7,-8,4,-7
1490986030089,0,26,-5,10,-9,-21,-10,-15,9
1490986030089,0,53,30,0,24,34,3,-7,10
1490986030094,2,39,-18,-12,-7,9,12,-1,6
1490986030094,2,-28,-9,-5,-5,-9,34,15,3
1490986030095,3,23,2,-9,-29,-12,7,-4,-5
1490986030095,3,-11,-18,-19,-9,-2,-13,-14,-27
1490986030137,0,-38,-9,8,10,1,23,16,-7
1490986030137,0,5,11,6,14,-6,-14,-6,1
1490986030138,1,39,46,27,12,10,8,-2,10
1490986030138,1,-61,-54,-17,-5,-3,-11,-10,1
1490986030139,0,-1,27,12,20,1,3,-2,5
1490986030139,0,0,-18,-29,-51,-25,-1,-12,-15
1490986030140,1,-7,-13,-10,-5,-10,4,15,2
1490986030140,1,13,2,2,-3,-3,-17,-10,-7
1490986030186,2,-36,-16,9,17,8,3,-7,-3
1490986030186,2,33,-10,-6,-1,-3,-19,4,0
1490986030187,3,23,-5,2,-3,-11,-6,5,-5
1490986030187,3,-36,-13,-11,-10,5,-4,0,-19
1490986030188,1,-28,3,-9,-20,-17,-3,-7,-1
1490986030188,1,42,54,-7,-4,-1,22,3,-1
1490986030189,2,-22,7,-1,-4,-1,1,-7,-11
1490986030189,2,-35,10,-1,0,14,21,11,-3
1490986030235,3,25,9,7,18,-14,-19,-9,3
1490986030235,3,6,-4,7,-2,14,-10,-13,3
1490986030236,0,-10,-7,-8,-7,6,-5,11,0
1490986030236,0,7,-11,-2,-2,2,-2,-22,-5
1490986030237,2,9,-15,-3,-8,-2,-5,-5,-6
1490986030237,2,-2,-19,-11,-7,-3,-7,1,6
1490986030237,3,-35,-8,-4,2,4,17,-20,0
1490986030237,3,19,-11,3,-3,-3,-9,10,-2
1490986030283,0,3,-47,-3,0,-1,-11,9,12
1490986030283,0,-4,-43,2,-2,-1,6,16,-4
1490986030285,1,-8,-78,-2,-1,-2,-8,-16,5
1490986030285,1,-27,-74,5,9,1,-12,-4,-2
1490986030285,2,45,-71,-8,-14,-22,-20,-18,3
1490986030285,2,21,-23,3,0,-1,19,13,5
1490986030286,3,-42,20,-2,11,19,8,27,-6
1490986030286,3,29,61,10,8,2,8,11,0
1490986030332,0,2,61,-17,-21,-14,-10,-9,-9
1490986030332,0,-26,84,-9,-6,-16,-35,-10,2
1490986030334,1,50,50,3,-7,-1,15,-1,-3
1490986030334,1,-37,-2,-6,9,6,4,1,-3
1490986030335,3,2,14,-1,-1,-6,-7,10,1
1490986030335,3,-7,11,-1,-12,-8,11,-25,-1
1490986030336,0,-33,36,6,8,11,16,5,-4
1490986030336,0,4,35,2,2,5,-13,-27,-5
1490986030381,1,-13,0,-5,-6,-3,-14,21,6
1490986030381,1,-9,7,-5,-2,-2,28,4,-5
1490986030382,2,63,35,0,3,-1,3,-3,-2
1490986030382,2,8,28,2,3,6,2,-4,-7
1490986030383,0,-15,13,1,3,0,-7,4,5
1490986030383,0,5,19,4,2,-2,-16,-17,-10
1490986030385,1,47,20,0,2,2,1,-6,6
1490986030385,1,-24,-15,-3,0,0,4,21,-1
1490986030430,2,4,-8,-2,2,2,-7,3,2
1490986030430,2,-43,-26,1,-5,-1,15,11,-11
1490986030431,3,36,10,5,-2,4,16,9,19
1490986030431,3,-6,-6,2,3,-3,-11,-9,6
1490986030433,1,29,-6,3,4,-9,-13,-5,-2
1490986030433,1,-66,-21,-9,-4,-8,-14,0,-13
1490986030434,2,52,16,-7,-17,-5,13,-2,16
1490986030434,2,12,2,-8,-10,2,15,17,-6
1490986030478,3,-29,1,4,4,-2,-8,0,9
1490986030478,3,22,22,6,9,-2,-6,2,4
1490986030479,0,-35,21,8,13,5,3,4,-7
1490986030479,0,-16,-22,-11,-6,-6,-8,4,-11
1490986030480,2,-44,10,-1,-4,-3,5,19,-12
1490986030480,2,41,-6,-13,-17,-15,-22,-19,12
1490986030481,3,-53,-8,-10,-10,0,4,-5,-3
1490986030481,3,94,26,9,5,6,-6,15,1
1490986030527,0,8,3,8,25,9,12,-19,-9
1490986030527,0,-45,0,19,8,-2,-9,9,0
1490986030528,1,29,-20,-46,-37,-13,-1,-17,-18
1490986030528,1,-56,-47,-23,-27,-11,-7,7,-4
1490986030529,3,-10,27,23,32,11,-3,-6,3
1490986030529,3,29,36,-2,14,-6,-5,-11,-3
1490986030530,0,-37,-25,-13,-40,-16,-10,9,-3
1490986030530,0,-3,-19,-24,-22,-5,-12,-21,-4
1490986030576,1,7,28,46,24,8,1,15,-13
1490986030576,1,60,73,11,26,7,2,-5,25
1490986030577,2,-102,-82,-8,-15,4,8,7,10
1490986030577,2,11,44,-34,-9,-15,2,-19,-4
1490986030578,0,92,104,14,18,7,-1,-6,8
1490986030578,0,-79,-71,-12,-14,9,6,7,-7
1490986030579,1,89,15,-28,-25,-8,5,16,18
1490986030579,1,-128,-74,10,-11,-9,-2,-14,-29
1490986030625,2,113,37,7,-5,5,4,25,13
1490986030625,2,50,0,37,85,17,-4,-3,3
1490986030627,3,-22,64,-8,-22,0,5,-9,8
1490986030627,3,40,3,-22,-57,-21,3,12,-9
1490986030628,1,-21,-45,48,59,7,10,-33,-24
1490986030628,1,-1,-5,5,-42,18,0,1,-5
1490986030629,2,-25,3,1,9,-10,-3,8,-16
1490986030629,2,27,4,2,4,-1,-2,17,19
1490986030673,3,4,19,-11,-4,6,-12,-10,-45
1490986030673,3,-15,-55,0,59,-8,0,-4,19
1490986030674,0,30,6,-12,-92,-13,4,-20,-16
1490986030674,0,-14,-9,-9,-38,-8,3,16,4
1490986030675,1,8,3,-50,31,9,5,-2,-32
1490986030675,1,-67,-65,73,4,7,1,14,45
1490986030676,2,76,24,15,58,12,-18,-9,-47
1490986030676,2,-2,-87,-40,-45,-18,3,5,23
1490986030722,3,5,6,48,-1,-3,-11,-7,21
1490986030722,3,17,37,-13,15,8,10,18,-25
1490986030723,0,37,30,-69,45,-4,13,-4,-4
1490986030723,0,-35,-6,11,-64,1,-9,12,-23
1490986030724,2,-128,-45,-7,-45,8,9,3,-18
1490986030724,2,127,74,-42,-10,-17,-18,-3,-13
1490986030725,3,-34,-53,8,16,1,5,0,36
1490986030725,3,5,101,-40,-3,-9,4,3,-9
1490986030772,0,-22,-40,-23,-50,-1,-11,20,50
1490986030772,0,23,-8,32,28,-10,2,-20,11
1490986030772,1,99,33,46,-59,-19,-10,-22,-39
1490986030772,1,-101,-110,-3,31,9,6,18,11
1490986030773,3,-15,3,11,-15,9,26,42,29
1490986030773,3,68,2,-26,-33,-2,-5,-40,0
1490986030773,0,20,-6,15,-10,-24,17,2,11
1490986030773,0,53,-54,10,-59,-4,-11,-12,15
1490986030820,1,-80,17,52,58,2,-15,39,-56
1490986030820,1,74,-18,4,43,12,9,-17,-22
1490986030820,2,33,11,-45,9,2,-15,5,5
1490986030820,2,92,70,35,79,-13,-5,-1,26
1490986030821,0,-43,-52,39,33,10,-6,-6,-7
1490986030821,0,-45,27,73,59,27,11,7,-58
1490986030822,1,111,41,70,68,27,7,-15,12
1490986030822,1,-45,14,-110,-37,-30,0,14,33
1490986030868,2,22,-94,19,-31,13,2,-24,24
1490986030868,2,-122,-12,67,18,-1,-18,18,-23
1490986030869,3,-31,11,-55,-86,-13,-7,26,22
1490986030869,3,100,-27,9,18,3,19,8,33
1490986030869,1,32,57,-74,-22,-20,-9,-37,-6
1490986030869,1,82,51,18,-76,3,-17,-1,-37
1490986030871,2,-128,-43,34,-16,-21,-19,28,-17
1490986030871,2,18,-33,-13,-76,-5,-10,9,26
1490986030919,3,45,32,-51,110,16,27,12,22
1490986030919,3,-83,31,8,-7,10,23,9,-17
1490986030920,0,36,-58,-53,-4,-4,-1,-21,-24
1490986030920,0,-44,30,-38,-63,-25,-11,-7,-31
1490986030920,2,28,-14,127,88,27,-3,8,-10
1490986030920,2,-44,-33,-97,18,5,9,-6,-1
1490986030921,3,4,36,18,-21,-1,10,-17,11
1490986030921,3,-112,-104,-8,-58,7,-19,-16,-27
1490986030966,0,-8,3,-54,-36,6,-13,-9,-12
1490986030966,0,45,28,25,18,23,6,-12,0
1490986030967,1,-25,-2,78,127,33,8,17,2
1490986030967,1,79,93,49,-28,-40,-10,-31,38
1490986030968,3,-50,21,116,53,-24,-30,8,-62
1490986030968,3,-29,-47,-102,-72,28,-8,-14,-32
1490986030969,0,10,-60,70,-13,-33,11,-8,-10
1490986030969,0,20,105,88,13,1,2,22,20
1490986031015,1,85,44,94,76,10,-21,-19,26
1490986031015,1,-62,-54,-103,-21,18,10,6,-6
1490986031016,2,2,-75,43,18,12,28,-5,-16
1490986031016,2,-18,-71,-60,-106,-32,-29,-6,-7
1490986031017,3,13,-90,-100,-92,-12,14,12,-8
1490986031017,3,9,89,44,61,-12,-13,3,-9
1490986031017,0,88,89,40,92,4,96,-21,53
1490986031017,0,-65,-47,-28,34,18,58,22,-30
1490986031063,1,30,19,21,-18,37,41,-20,42
1490986031063,1,80,-38,-38,-42,-29,-5,-2,17
1490986031064,2,-20,32,-22,-55,-36,-57,34,-13
1490986031064,2,31,15,1,56,-21,-13,2,6
1490986031065,0,38,100,-108,67,10,11,-25,-11
1490986031065,0,27,29,33,-128,-46,2,-27,24
1490986031066,1,-49,56,-61,-22,-32,-1,44,-9
1490986031066,1,-53,-63,84,127,58,11,17,30
1490986031112,2,31,-45,20,-84,7,-31,5,7
1490986031112,2,-85,60,24,110,18,-8,6,-41
1490986031113,3,18,-16,41,-35,7,-12,-35,28
1490986031113,3,112,107,-114,-89,-65,10,-1,30
1490986031114,1,-128,-62,-19,37,-11,-5,58,3
1490986031114,1,74,41,113,45,22,-16,-19,-114
1490986031115,2,111,36,49,127,41,4,-20,15
1490986031115,2,-50,42,-128,-73,-36,14,7,-10
1490986031161,3,-1,-112,63,-7,3,-32,-21,-75
1490986031161,3,22,29,-62,77,3,17,27,78
1490986031164,0,6,77,37,61,7,-12,-39,2
1490986031164,0,92,73,117,-85,2,8,-26,36
1490986031166,2,6,-80,44,-87,-16,2,-24,11
1490986031166,2,-18,31,24,83,41,-42,17,-48
1490986031167,3,69,127,-101,-9,9,9,-56,47
1490986031167,3,-98,-32,-68,-94,-81,-17,54,-45
1490986031210,0,-38,127,56,127,37,4,0,44
1490986031210,0,41,91,-67,-56,-17,-15,-8,-5
1490986031211,1,7,-71,-63,-90,32,-18,22,18
1490986031211,1,48,12,104,101,47,9,-28,22
1490986031212,3,116,-6,105,-51,-23,-6,-41,-22
1490986031212,3,-64,-128,-105,-65,-19,-7,8,7
1490986031214,0,69,41,-39,-42,-24,-15,-4,-27
1490986031214,0,20,39,-54,-67,-23,11,42,7
1490986031259,1,4,-33,100,101,24,-10,-13,-34
1490986031259,1,61,73,88,74,64,39,-30,37
1490986031260,2,36,-73,-61,-74,-70,-19,-11,-39
1490986031260,2,-16,-20,-46,98,-9,-26,13,-32
1490986031261,0,-16,86,115,110,49,1,31,6
1490986031261,0,63,76,-91,71,80,-17,-45,-2
1490986031262,1,54,42,73,-99,-65,45,21,-30
1490986031262,1,-42,96,99,86,-6,0,2,-6
1490986031405,2,-24,-116,-128,-128,-31,9,11,16
1490986031405,2,-38,-7,-4,6,-78,-48,10,-18
1490986031407,3,18,70,95,106,114,24,3,3
1490986031407,3,34,87,83,63,18,3,-24,-8
1490986031408,1,89,71,-128,-50,-2,9,6,34
1490986031408,1,11,9,77,-64,-22,-36,1,36
1490986031409,2,-31,-37,-65,57,26,-51,-11,6
1490986031409,2,-46,-8,70,18,64,19,-31,4
1490986031454,3,-122,-97,-128,-118,-119,-37,10,-28
1490986031454,3,-42,58,-119,-89,-43,-44,6,-28
1490986031455,0,34,61,65,56,-17,-30,0,-4
1490986031455,0,119,106,95,103,67,50,18,33
1490986031502,1,68,17,3,52,63,-7,-33,26
1490986031502,1,-56,22,36,15,-6,53,-17,-12
1490986031504,3,7,47,-128,-128,35,60,-61,17
1490986031504,3,-117,-128,-128,-86,-114,-93,115,-69
1490986031551,0,52,106,127,127,79,30,37,6
1490986031551,0,-25,58,92,57,50,-11,-5,-2
1490986031553,1,17,42,-66,-74,28,-17,-7,14
1490986031553,1,52,84,17,11,55,40,-63,-2
1490986031554,0,-22,31,-48,36,-10,-27,-22,4
1490986031554,0,19,-23,-32,-77,-11,-1,-43,-16
1490986031555,1,-35,-26,40,-31,-49,-55,-1,11
1490986031555,1,-36,-52,1,49,-51,-24,20,-17
1490986031600,1,2,-2,45,127,14,-33,10,-17
1490986031600,1,-23,-50,-85,-66,-3,7,-25,1
1490986031602,2,-16,-15,-26,-10,-43,-59,-12,-3
1490986031602,2,-27,-45,-64,-25,25,50,49,8
1490986031603,3,17,30,6,44,2,-24,-35,6
1490986031603,3,14,20,59,55,31,9,-1,7
1490986031605,2,1,22,76,23,6,4,10,2
1490986031605,2,14,35,46,10,8,-25,-22,-9
1490986031648,3,11,1,-29,-51,-14,-5,4,21
1490986031648,3,-5,1,-31,4,-13,-14,3,-3
1490986031649,0,11,27,19,3,5,-10,-6,-8
1490986031649,0,-4,15,-13,-17,-9,-5,-12,4
1490986031650,3,-5,-14,24,6,22,-26,-17,-5
1490986031650,3,27,10,35,55,-16,-13,-23,6
1490986031651,0,30,12,-36,-39,11,16,-17,22
1490986031651,0,-14,12,78,10,5,-13,-16,-3
1490986031698,1,-22,-24,-48,-46,-27,24,-1,-5
1490986031698,1,21,-6,-28,-25,-7,-8,-24,4
1490986031699,2,-39,-27,13,22,-18,20,5,-19
1490986031699,2,23,22,7,40,67,23,-42,8
1490986031700,3,2,-4,29,34,24,-10,-31,-7
1490986031700,3,21,-5,15,-8,-4,8,-5,14
1490986031701,0,-17,-14,-31,-23,-32,-11,-19,-11
1490986031701,0,4,-7,-11,24,27,-4,6,1
1490986031746,1,4,4,11,5,13,8,-7,2
1490986031746,1,56,-5,-29,-33,6,-10,-8,-11
1490986031748,2,-28,-7,6,23,-18,3,-29,0
1490986031748,2,-38,-14,-8,4,-13,11,-16,-14
1490986031749,0,28,-9,-31,-13,-1,-8,39,6
1490986031749,0,4,0,-18,-24,-23,0,57,21
1490986031750,1,4,-5,4,-19,-14,4,14,2
1490986031750,1,-15,-15,13,17,0,0,0,1
1490986031844,2,18,15,7,3,13,10,46,-6
1490986031844,2,-8,2,-3,17,2,-17,9,-4
1490986031845,3,5,3,34,7,7,16,5,-6
1490986031845,3,-2,-18,-41,-32,-10,-10,21,9
1490986031846,1,-7,10,26,24,25,4,20,5
1490986031846,1,-2,10,13,13,13,35,-20,-1
1490986031847,2,-16,15,22,43,13,15,-18,-8
1490986031847,2,28,-22,-47,-71,-22,12,5,3
1490986031892,3,-48,17,-8,12,-5,-13,-4,-2
1490986031892,3,40,-20,0,4,22,-17,-1,-1
1490986031894,0,-20,21,25,7,-7,-3,14,-5
1490986031894,0,-7,9,34,12,-21,-18,-13,-12
1490986031895,3,16,4,-44,-31,1,10,1,8
1490986031895,3,38,-42,-91,59,-5,-4,-6,2
1490986031896,0,-73,-9,91,-82,4,-1,-11,-13
1490986031896,0,31,-23,-51,-25,-20,-13,35,-7
1490986031942,1,-40,-13,17,29,2,-4,4,-26
1490986031942,1,13,86,4,-9,9,17,-8,-14
1490986031943,2,1,-35,-30,27,-1,-4,-9,17
1490986031943,2,9,19,41,36,21,5,-9,-9
1490986031944,0,-57,32,64,55,8,-1,16,-7
1490986031944,0,-21,31,-77,-90,-15,-2,3,-2
1490986031945,1,65,-27,-87,-50,-28,-19,-13,-8
1490986031945,1,-87,12,114,17,-1,-2,7,-42
1490986031990,2,57,41,25,30,21,5,-19,34
1490986031990,2,29,111,57,127,18,-9,-22,18
1490986031992,3,1,1,9,-101,-3,11,39,7
1490986031992,3,-22,-51,-78,-51,-33,-18,-10,-37
1490986031993,1,24,102,64,48,20,3,-30,-7
1490986031993,1,-93,-45,-28,-25,-16,-17,21,-19
1490986031994,2,-15,-103,-54,-25,-9,-7,-5,14
1490986031994,2,69,96,0,5,2,22,-13,29
1490986032039,3,-43,12,0,-35,-3,5,21,23
1490986032039,3,-67,-32,-60,10,24,-10,7,19
1490986032040,0,-3,-7,18,-56,-32,1,3,-44
1490986032040,0,23,15,-31,22,43,7,-8,-13
1490986032041,2,1,-30,-34,5,-23,-4,-9,17
1490986032041,2,-5,21,19,-24,9,-21,0,-12
1490986032044,3,41,46,23,-2,11,15,-12,18
1490986032044,3,-57,-87,34,21,6,-7,10,-28
1490986032087,0,34,74,24,10,15,6,-26,17
1490986032087,0,-59,-4,11,-89,-44,-22,2,-60
1490986032089,1,40,36,15,2,1,-10,23,-1
1490986032089,1,-44,29,22,35,-12,1,0,3
1490986032090,2,-19,-32,-29,4,26,20,8,-27
1490986032090,2,7,-88,39,18,-3,-4,-8,37
1490986032090,3,-36,-17,-67,-9,-7,-2,14,-4
1490986032090,3,70,51,30,3,0,5,-9,15
1490986032136,0,-12,10,-49,27,21,1,-17,-13
1490986032136,0,6,11,49,-4,-3,8,-6,12
1490986032137,1,-31,-90,-44,-10,-2,-7,6,-16
1490986032137,1,11,48,7,-55,-21,11,-1,-14
1490986032138,3,-51,-107,-3,-5,-8,11,8,15
1490986032138,3,25,67,48,30,27,-12,9,23
1490986032140,0,42,99,-5,-73,-13,7,2,17
1490986032140,0,22,1,-59,23,-4,-1,26,38
1490986032185,1,-92,-69,-61,-5,-8,10,19,-88
1490986032185,1,100,72,16,26,11,8,-35,17
1490986032186,2,-50,4,33,-3,0,-8,11,27
1490986032186,2,29,65,-17,-26,-15,-11,-33,24
1490986032187,0,7,-18,-67,-2,-5,-9,3,-15
1490986032187,0,12,45,1,-33,-13,-2,-14,-4
1490986032188,1,45,25,-30,36,23,4,7,17
1490986032188,1,-71,11,27,-33,-4,-7,-14,-36
1490986032234,2,68,10,61,55,1,-3,-16,3
1490986032234,2,-113,6,-26,-35,-17,-10,7,-31
1490986032237,3,-21,-6,-32,6,9,16,-7,20
1490986032237,3,17,19,-15,-19,-7,5,33,-15
1490986032238,1,35,35,19,-3,13,-2,-40,10
1490986032238,1,0,-15,-14,17,-13,-19,-5,55
1490986032239,2,43,-34,15,2,1,-4,15,-25
1490986032239,2,-73,-49,-23,-31,3,8,37,-43
1490986032283,3,53,82,53,34,4,-6,-18,35
1490986032283,3,41,75,-34,41,4,4,-28,-39
1490986032286,0,-20,-113,-39,-64,-17,-6,27,27
1490986032286,0,-28,12,-55,-37,-7,-18,-7,-14
1490986032287,2,0,11,29,69,-13,7,-11,-21
1490986032287,2,71,19,-5,52,50,24,2,18
1490986032288,3,-54,-7,-48,-91,-17,-8,13,-12
1490986032288,3,32,-21,-16,-13,-13,-4,-8,-22
1490986032380,0,-40,41,22,14,2,11,-15,0
1490986032380,0,21,-86,44,36,2,16,29,24
1490986032382,1,-7,13,-16,-3,-22,-13,-1,13
1490986032382,1,23,5,-9,-32,7,-2,-4,-26
1490986032383,3,60,-26,18,43,13,-12,0,66
1490986032383,3,-9,46,-3,-24,-11,-27,8,-31
1490986032428,0,92,23,-2,0,6,-6,-6,-2
1490986032428,0,-25,8,17,37,30,-8,-8,12
1490986032429,1,-60,-43,-31,-16,-20,-15,1,14
1490986032429,1,-13,34,14,5,15,14,27,-16
1490986032430,2,35,7,29,6,2,28,-13,-16
1490986032430,2,5,-1,2,-5,-6,17,-6,27
1490986032431,0,4,-67,-6,-18,-3,-13,-14,-13
1490986032431,0,-10,-7,46,2,-3,21,35,18
1490986032477,0,12,11,-22,31,14,-10,2,23
1490986032477,0,-23,15,-17,-23,-6,12,-29,2
1490986032478,1,5,0,43,-1,-10,3,3,-19
1490986032478,1,-29,-2,-14,9,31,15,-4,-7
1490986032478,1,-13,-15,-18,-11,2,15,4,-3
1490986032478,1,46,-7,16,18,2,-4,5,-5
1490986032480,2,-23,4,17,5,6,16,5,57
1490986032480,2,30,10,28,35,11,3,-18,-39
1490986032526,3,27,12,-23,-19,-2,5,8,6
1490986032526,3,-60,-36,-11,-23,-8,-4,13,1
1490986032527,0,17,-6,-1,-1,-7,10,9,-8
1490986032527,0,-28,-15,-2,13,3,-12,-4,13
1490986032528,2,14,7,-21,-55,-9,12,-7,1
1490986032528,2,-8,12,-2,1,-9,-9,-12,-2
1490986032529,3,4,-15,35,2,3,4,6,-14
1490986032529,3,0,-13,-11,15,3,4,-5,-5
1490986032575,0,-47,-24,-12,3,-12,-1,2,-18
1490986032575,0,30,-28,-13,-21,-6,4,8,12
1490986032577,1,-4,-5,2,8,14,-15,2,2
1490986032577,1,2,-2,10,-1,2,2,-9,-2
1490986032578,3,-57,22,-10,-2,-3,-3,-5,-10
1490986032578,3,6,16,-4,-18,-4,21,2,1
1490986032579,0,-8,22,-3,-1,0,-4,6,-8
1490986032579,0,0,21,7,11,-1,2,0,7
1490986032625,1,-10,9,-6,-3,0,18,4,0
1490986032625,1,27,-4,6,3,11,4,-1,-4
1490986032626,2,-2,-15,0,3,2,-12,-8,-2
1490986032626,2,-35,-32,-9,-11,-17,-12,4,4
1490986032627,0,4,-21,7,11,3,1,9,2
1490986032627,0,-24,-16,8,7,4,6,13,-2
1490986032628,1,12,-10,-5,0,-3,-8,-14,2
1490986032628,1,2,20,-3,-11,-3,0,2,-1
1490986032672,2,-18,2,2,7,4,4,19,-4
1490986032672,2,10,-12,8,14,0,-13,-13,-3
1490986032673,3,23,-28,-7,-13,-13,-2,13,15
1490986032673,3,-19,-47,-7,-10,0,11,0,9
1490986032674,1,-20,-42,4,9,8,7,0,-1
1490986032674,1,37,-31,0,7,4,6,1,7
1490986032675,2,4,-26,-4,-7,2,20,1,1
1490986032675,2,-5,-24,-7,-2,13,9,4,-8
1490986032722,3,-4,14,1,4,2,-17,-8,-6
1490986032722,3,12,50,2,-5,-13,-10,0,-1
1490986032723,0,48,60,-3,2,7,15,-14,-11
1490986032723,0,-12,24,-1,0,-5,-17,0,-6
1490986032725,2,-23,96,-9,-2,-14,-9,-18,-4
1490986032725,2,29,49,-2,-12,-5,-12,-7,1
1490986032725,3,-9,-24,-11,-14,-10,-5,-9,-5
1490986032725,3,7,-59,0,1,-1,-11,18,-2
1490986032770,0,-28,-72,-2,-2,-1,-10,1,2
1490986032770,0,14,-22,1,11,3,9,-12,13
1490986032771,1,-26,10,9,10,-3,2,-7,0
1490986032771,1,22,20,-13,-8,-8,-20,-15,4
1490986032772,2,4,8,-6,-25,-5,-4,4,-9
1490986032772,2,5,28,2,-3,-14,-16,2,2
1490986032773,3,-30,21,6,8,10,9,9,-5
1490986032773,3,25,21,8,14,15,9,1,1
1490986032818,0,99,30,11,18,5,14,3,14
1490986032818,0,-73,-55,-13,-8,2,-6,2,-13
1490986032820,1,36,6,-13,-12,-5,-3,-1,2
1490986032820,1,-38,30,-2,-17,-13,-1,6,-9
1490986032823,3,32,10,13,14,4,6,18,1
1490986032823,3,16,18,5,-4,-8,-6,-12,27
1490986032824,0,-51,-36,-2,-3,0,12,26,-4
1490986032824,0,42,33,2,-5,-4,-10,-1,-2
1490986032867,1,8,-1,-10,-7,0,6,-28,-8
1490986032867,1,10,1,10,2,4,-1,-3,-10
1490986032869,2,-29,-10,3,13,-1,-6,10,10
1490986032869,2,-4,26,15,9,4,22,-3,14
1490986032870,0,-50,-12,7,-2,2,-2,9,-5
1490986032870,0,42,0,9,4,-8,-1,5,-5
1490986032871,1,46,39,12,28,33,6,3,8
1490986032871,1,-37,23,16,20,4,3,-3,-15
1490986032916,2,54,-26,-5,-10,-5,4,-3,27
1490986032916,2,-23,-17,-30,-37,-12,-3,-8,-18
1490986032917,3,5,19,-11,-12,-11,1,-10,-2
1490986032917,3,-11,8,5,13,-1,-9,14,-3
1490986032918,1,10,23,6,-13,-18,-8,-4,5
1490986032918,1,16,-31,-72,-50,-7,-4,24,7
1490986032919,2,33,12,39,3,-7,-11,-16,-3
1490986032919,2,-17,7,-11,25,3,0,14,-5
1490986032970,3,-12,3,23,-14,2,-2,-9,-15
1490986032970,3,-36,1,-36,43,9,11,3,11
1490986032971,0,10,63,3,-43,-14,3,-6,4
1490986032971,0,-7,-23,-27,-22,1,-5,0,-26
1490986032972,2,-7,-27,-81,53,1,-5,-9,7
1490986032972,2,-77,-53,-3,-70,-6,2,13,33
1490986032973,3,6,31,-11,3,-8,-3,15,-5
1490986032973,3,90,-19,-56,-17,1,-6,-28,6
1490986033014,0,-97,-78,100,44,15,6,24,10
1490986033014,0,108,86,1,38,-1,8,-21,-12
1490986033015,1,-55,-26,-30,-30,4,4,16,-1
1490986033015,1,36,-23,-19,8,-10,-12,4,3
1490986033016,3,4,11,46,37,16,-1,4,-5
1490986033016,3,-49,-22,63,55,13,5,-5,12
1490986033017,0,2,3,-43,12,14,-13,-10,3
1490986033017,0,48,-17,35,-3,-28,5,-8,-3
1490986033063,1,32,32,-2,-64,-16,-7,6,7
1490986033063,1,-48,-73,-26,-21,-12,-2,10,-14
1490986033065,2,58,87,35,23,45,12,13,26
1490986033065,2,41,5,-91,40,-3,-8,-2,17
1490986033066,0,30,-26,-50,-65,-21,-7,1,-3
1490986033066,0,117,104,-2,30,19,-7,5,-48
1490986033067,1,-97,-60,32,40,-9,2,-1,7
1490986033067,1,-45,-31,27,-67,1,7,6,-1
1490986033111,2,-2,9,-20,-1,-16,-14,-20,8
1490986033111,2,53,-37,-19,-2,-7,-5,3,9
1490986033113,3,-40,-95,26,58,19,4,-4,-28
1490986033113,3,81,92,-19,6,-11,4,-13,0
1490986033114,0,-128,-76,-19,-75,-5,-6,31,14
1490986033114,0,58,17,-19,56,-5,-13,-17,-21
1490986033115,1,48,24,59,-51,-22,-9,-3,24
1490986033115,1,17,-34,2,-50,6,8,-4,41
1490986033160,2,-68,12,-32,36,-22,0,2,-86
1490986033160,2,-17,-39,-20,1,43,4,-13,-17
1490986033161,3,13,58,47,69,8,19,8,-13
1490986033161,3,-2,52,-1,19,11,-7,8,36
1490986033163,1,23,-77,-128,16,-22,2,-16,-40
1490986033163,1,88,121,8,-29,10,6,-16,-38
1490986033164,2,-94,-86,21,48,1,3,40,14
1490986033164,2,71,-8,-34,-41,-6,3,-24,19
1490986033209,3,-31,51,-32,-43,-3,-32,12,6
1490986033209,3,1,11,58,16,-11,3,13,-26
1490986033211,0,47,77,108,125,46,20,1,15
1490986033211,0,-48,-22,15,-24,5,27,15,80
1490986033212,2,-16,49,-95,24,16,-3,25,14
1490986033212,2,-56,5,78,45,-15,-1,-23,-26
1490986033213,3,57,0,-56,-82,2,7,12,58
1490986033213,3,43,58,19,110,15,-10,12,-3
1490986033306,0,-31,-98,15,-73,10,1,-16,-60
1490986033306,0,-1,35,66,63,-2,15,29,56
1490986033308,1,7,31,-53,22,9,12,-10,-7
1490986033308,1,-50,-73,-83,-94,-41,-26,-29,-84
1490986033309,3,-50,-54,127,123,37,-4,25,44
1490986033309,3,22,70,62,41,1,14,-6,-59
1490986033310,0,-54,-49,-57,-104,-7,-24,-3,-65
1490986033310,0,40,-49,-10,98,4,-1,16,39
1490986033355,1,52,34,-35,-37,-24,0,-28,-19
1490986033355,1,-121,6,-62,-70,-9,-8,23,81
1490986033357,2,22,9,55,73,3,0,-8,-12
1490986033357,2,60,16,-5,-65,-11,-13,5,53
1490986033358,1,-128,13,-58,-77,-56,-30,-17,-42
1490986033358,1,12,-8,-35,115,44,27,21,-4
1490986033359,2,91,105,65,60,59,86,-27,1
1490986033359,2,11,45,-87,-53,-5,35,-31,-12
1490986033404,3,67,-27,58,8,5,37,-7,4
1490986033404,3,30,31,-48,-85,-22,-34,26,83
1490986033405,0,-45,-69,44,49,2,-20,-16,31
1490986033405,0,77,79,13,-45,-7,-31,-11,-85
1490986033406,2,12,-128,-128,-128,-76,-19,6,25
1490986033406,2,-128,125,85,110,37,21,8,-50
1490986033407,3,116,63,-80,51,47,22,9,85
1490986033407,3,-128,-53,109,-42,-6,30,-39,-32
1490986033453,0,55,123,-83,-57,-30,-14,21,26
1490986033453,0,52,-100,-46,71,-9,5,-19,-12
1490986033454,1,-15,53,100,35,-4,-7,18,-15
1490986033454,1,61,1,-24,127,36,6,-12,-35
1490986033455,3,21,115,5,-42,-44,-1,-21,-11
1490986033455,3,54,-108,-106,-116,-29,3,66,27
1490986033456,0,-28,-11,32,83,-57,-54,-28,-62
1490986033456,0,46,119,42,69,95,38,-12,16
1490986033501,1,-13,-118,-43,127,50,18,-13,29
1490986033501,1,25,-44,-5,-81,-60,-28,-24,27
1490986033503,2,-3,-69,-67,-32,-26,-11,-5,-100
1490986033503,2,-85,-76,-106,64,8,-10,43,13
1490986033504,3,93,0,127,-7,27,5,-10,-33
1490986033504,3,-2,80,81,46,15,-19,2,8
1490986033505,0,56,11,7,-3,3,-5,-8,38
1490986033505,0,-25,58,-33,-53,-35,-31,-31,-16
1490986033550,1,15,100,41,40,29,13,21,36
1490986033550,1,-23,108,-116,-108,-36,-6,-25,-50
1490986033552,2,34,59,-7,-18,37,-3,12,52
1490986033552,2,2,-67,48,74,-9,-24,7,-26
1490986033554,0,-9,-117,-39,9,-40,-27,44,-26
1490986033554,0,56,-93,52,33,22,7,7,22
1490986033555,1,-83,-128,-58,-125,-65,-13,26,-16
1490986033555,1,-36,-128,-9,55,17,-25,24,-32
1490986033599,2,37,-115,48,56,5,35,27,69
1490986033599,2,88,-37,115,67,36,19,-38,-13
1490986033647,3,-114,-96,-91,-57,-51,-14,17,-21
1490986033647,3,52,24,95,7,0,3,17,25
1490986033649,1,58,54,75,46,10,20,29,0
1490986033649,1,13,96,48,77,-4,-14,-39,-28
1490986033651,2,-87,-61,-62,-61,2,0,11,3
1490986033651,2,1,-41,14,-7,-6,-7,38,12
1490986033696,3,17,-63,-9,11,50,7,-38,24
1490986033696,3,13,51,102,32,24,1,-5,38
1490986033698,0,107,-22,15,-16,-40,-47,-47,1
1490986033698,0,-77,4,-85,-128,-69,20,43,-30
1490986033700,2,-69,-67,-60,-80,-47,-9,1,-27
1490986033700,2,-14,5,-104,37,-4,-43,13,-4
1490986033701,3,34,76,73,114,19,-13,-7,-2
1490986033701,3,-102,10,-71,-43,23,36,6,-24
1490986033745,3,-47,88,80,-25,-4,-12,4,17
1490986033745,3,32,-41,-123,-68,-63,-8,12,-33
1490986033747,0,23,34,116,127,9,22,32,0
1490986033747,0,62,127,127,87,111,77,-116,24
1490986033748,1,-38,-125,-128,-128,-89,-19,21,-19
1490986033748,1,-81,-37,89,70,-46,-63,105,-48
1490986033749,0,-10,-43,-128,27,-1,14,1,-27
1490986033749,0,24,-52,80,39,1,-8,2,-25
1490986033794,1,109,121,127,127,127,15,-21,32
1490986033794,1,-85,-50,-58,-41,-15,-5,-65,6
1490986033795,2,37,-112,-123,-128,-120,-37,62,-39
1490986033795,2,-79,61,36,64,15,-6,43,-12
1490986033796,1,-117,-91,-83,-70,-74,-21,6,-7
1490986033796,1,34,-18,-31,76,-36,-28,35,2
1490986033797,2,-36,6,70,72,36,-32,-56,-32
1490986033797,2,51,-22,-53,99,-30,-29,14,26
1490986033842,3,-43,10,40,-60,40,27,-1,-17
1490986033842,3,28,-31,28,42,-26,12,13,20
1490986033844,0,0,-50,14,-1,-27,-3,12,1
1490986033844,0,25,54,127,63,48,-10,-11,-3
1490986033845,1,-13,-47,-114,-112,13,-43,-52,-7
1490986033845,1,-98,36,-3,-58,-30,-22,22,-28
1490986033846,2,-42,-63,0,-30,-40,-35,4,-10
1490986033846,2,9,49,32,28,-3,53,29,12
1490986033894,3,-20,-84,-128,-110,-31,-19,9,-15
1490986033894,3,65,127,127,127,58,21,-39,7
1490986033896,0,34,127,-12,20,64,7,-35,19
1490986033896,0,-42,-27,-58,-128,-77,-9,4,-3
1490986033897,2,-7,-80,-104,-99,-58,-2,16,8
1490986033897,2,-37,-87,-21,-7,0,-30,18,-18
1490986033898,3,86,127,127,127,51,12,-51,19
1490986033898,3,67,-90,-50,-88,5,-8,-15,28
1490986033940,0,-64,-55,47,40,-26,-6,70,-18
1490986033940,0,7,56,48,-23,-2,7,16,-4
1490986033941,1,3,-14,50,102,-22,-8,14,-5
1490986033941,1,34,80,60,51,28,45,-28,1
1490986033942,3,19,40,35,65,2,21,24,2
1490986033942,3,-6,12,63,6,-34,-23,-3,11
1490986033943,0,-19,-83,-92,-83,-8,18,-6,-13
1490986033943,0,-10,9,-43,67,-13,-38,-27,-10
1490986033988,1,12,-4,-12,-36,-24,-17,-6,-2
1490986033988,1,-27,47,109,124,41,-20,14,5
1490986033989,2,22,47,6,-51,-20,16,10,5
1490986033989,2,-20,-51,-45,-46,-27,-14,-20,-10
1490986033990,0,37,93,127,127,73,30,-42,13
1490986033990,0,-15,-23,-12,-128,-19,-2,-10,3
1490986033991,1,5,18,-88,-15,-42,-8,34,-9
1490986033991,1,-59,14,-49,-24,0,-31,-21,-33
1490986034037,2,9,58,-36,-5,29,26,19,15
1490986034037,2,14,60,-27,42,10,17,17,15
1490986034038,3,2,86,-16,-55,-30,14,3,-5
1490986034038,3,1,101,-7,-1,12,12,4,6
1490986034039,1,-28,-50,-23,26,0,25,-10,0
1490986034039,1,-6,-125,-128,-128,-29,3,17,-2
1490986034040,2,-4,-80,12,30,-26,-14,-22,-13
1490986034040,2,16,-63,96,50,36,-2,-33,-12
1490986034086,3,-15,-84,-46,-44,-20,-33,42,22
1490986034086,3,9,-69,1,15,16,41,-24,-14
1490986034087,0,-25,-36,1,-34,-36,-3,-27,14
1490986034087,0,11,-39,-10,22,43,7,-23,2
1490986034088,2,45,-17,9,-22,15,7,-53,0
1490986034088,2,-35,-23,-69,-25,-35,-2,-13,1
1490986034089,3,-4,-1,-26,-7,-9,-12,-39,-8
1490986034089,3,-2,-7,6,-1,1,22,36,2
1490986034135,0,51,-16,10,51,18,10,11,5
1490986034135,0,-29,-2,-31,-31,39,-9,63,-9
1490986034136,1,11,6,-33,-30,-33,-22,38,14
1490986034136,1,-7,-9,-14,-18,-25,-19,24,0
1490986034137,3,-31,-54,-19,14,-1,-6,10,1
1490986034137,3,48,-37,17,17,36,11,18,5
1490986034138,0,-39,-68,-3,-8,-27,3,20,-12
1490986034138,0,25,-25,-13,-9,-6,33,20,26
1490986034233,1,-21,-30,12,24,27,27,-6,-4
1490986034233,1,2,-20,-19,-5,11,26,2,-9
1490986034235,2,16,-6,21,-16,9,3,19,8
1490986034235,2,-16,-61,-21,-9,-31,-38,10,0
1490986034236,3,18,39,27,17,-3,-16,-36,-14
1490986034236,3,-12,-7,13,27,12,-22,-17,15
1490986034237,0,-1,48,19,-41,-16,-16,19,13
1490986034237,0,-27,-72,-32,0,24,7,3,-15
1490986034283,1,0,16,-7,-41,-29,0,14,9
1490986034283,1,0,13,46,27,-10,-37,-6,-10
1490986034285,2,-9,-4,-16,-12,23,6,-10,-16
1490986034285,2,15,20,13,10,-22,-5,0,13
1490986034286,0,-21,5,-20,21,30,3,12,20
1490986034286,0,-23,-60,-62,-30,-15,11,4,-13
1490986034287,1,29,-29,95,10,1,18,-7,8
1490986034287,1,-3,21,-106,11,-21,-9,-12,-15
1490986034330,2,-3,-26,67,-41,-2,11,-2,16
1490986034330,2,4,11,19,3,-5,14,4,-8
1490986034331,3,23,47,-26,-15,-5,18,19,19
1490986034331,3,-49,43,40,62,35,19,-17,-7
1490986034332,2,20,41,-73,20,-10,-8,-6,5
1490986034332,2,-3,-18,42,-32,2,-4,-5,47
1490986034333,3,-31,-22,-63,-25,-21,-10,10,-19
1490986034333,3,38,86,-36,22,3,-5,-5,6
1490986034378,0,45,55,82,10,22,11,0,-1
1490986034378,0,-41,-32,-38,-32,-26,0,2,-22
1490986034427,1,-30,-70,-12,-3,13,2,18,-14
1490986034427,1,38,36,81,-6,-14,-17,-16,27
1490986034428,3,-5,-19,21,-2,-2,-1,-15,-47
1490986034428,3,14,37,37,10,22,2,-5,29
1490986034429,0,-16,-2,4,-56,-29,8,-17,-22
1490986034429,0,39,0,-75,-30,7,-7,-3,6
1490986034430,1,-82,-54,64,36,-2,-4,3,18
1490986034430,1,6,12,-47,-73,-25,-13,13,-35
1490986034476,2,0,-14,-20,100,26,2,8,9
1490986034476,2,62,53,107,-14,-13,-7,-3,49
1490986034477,0,29,52,99,33,2,-3,-13,-5
1490986034477,0,-45,61,51,77,41,23,10,-11
1490986034478,1,84,31,-14,39,4,6,1,36
1490986034478,1,2,42,-41,-128,-26,-13,-10,12
1490986034478,1,-24,75,31,27,4,-3,-1,9
1490986034478,1,2,-47,-48,19,11,-7,-7,9
1490986034525,2,50,-23,46,21,-3,8,4,-6
1490986034525,2,42,5,-30,32,-23,3,7,-4
1490986034526,3,-34,-54,-62,-82,-10,-15,-25,-47
1490986034526,3,-24,-24,23,18,-2,3,28,34
1490986034527,1,67,-78,-25,6,38,2,-26,-35
1490986034527,1,-65,33,20,-4,-22,-9,18,4
1490986034527,2,23,-35,-100,-20,0,-12,3,-22
1490986034527,2,-32,-14,7,39,12,-3,-8,-53
1490986034574,3,19,87,40,-27,-34,-6,-9,20
1490986034574,3,-21,-48,29,-59,-7,-13,1,2
1490986034575,0,-24,17,-34,28,21,-5,13,34
1490986034575,0,-15,-15,-51,-55,-48,16,-5,-21
1490986034576,2,17,66,10,-4,-7,2,4,-13
1490986034576,2,-53,-63,-3,-3,7,15,-3,5
1490986034577,3,41,-14,-40,-54,-19,-13,24,8
1490986034577,3,-7,31,-34,3,0,-3,1,4
1490986034622,0,32,-15,33,28,9,-4,-15,-2
1490986034622,0,-25,-26,-24,31,-4,4,-16,7
1490986034624,1,-8,76,26,-50,4,-2,-14,-14
1490986034624,1,-1,-100,-39,-3,-15,-2,7,-2
1490986034625,3,73,35,39,39,-19,-5,-6,-27
1490986034625,3,-95,-25,-28,-33,-4,-6,-14,0
1490986034626,0,-6,-18,-40,-11,-5,-2,-3,6
1490986034626,0,39,-27,17,-13,-5,-7,26,41
1490986034671,1,-66,-16,1,26,-24,-1,-4,-14
1490986034671,1,37,87,56,17,44,8,-14,8
1490986034672,2,2,-82,27,16,-10,10,8,-15
1490986034672,2,-7,32,-32,-9,-4,-1,1,12
1490986034673,0,-10,-2,61,23,3,1,-4,-4
1490986034673,0,29,83,0,36,14,7,9,15
1490986034675,1,-48,1,-27,-15,-5,6,1,2
1490986034675,1,38,-47,4,5,-4,-8,-20,-27
1490986034723,2,-21,0,27,30,17,-17,-2,16
1490986034723,2,7,3,-21,-2,-5,6,10,-6
1490986034724,3,-37,-76,-22,-3,0,-5,-34,-4
1490986034724,3,4,61,-1,-26,8,-7,3,9
1490986034725,1,-36,22,102,52,15,4,15,28
1490986034725,1,37,53,-36,43,-1,-15,-17,-53
1490986034727,2,-13,-37,19,-60,-17,-20,-21,-43
1490986034727,2,7,5,-46,-18,-9,-4,-2,13
1490986034769,3,-10,3,1,-10,4,7,29,5
1490986034769,3,-53,-8,20,43,5,-10,-27,3
1490986034770,0,-39,-46,-50,-26,-5,-2,6,-5
1490986034770,0,51,51,44,-3,-1,-37,-4,-7
1490986034771,2,-30,0,-33,-39,11,3,17,-3
1490986034771,2,8,-7,-7,12,12,19,-3,36
1490986034775,3,-11,22,-5,5,-10,-2,-11,-27
1490986034775,3,-37,-14,16,6,3,24,4,1
1490986034817,0,61,36,22,26,3,12,13,15
1490986034817,0,-55,-47,-18,-44,-19,4,-5,1
1490986034819,1,44,39,7,17,20,13,7,1
1490986034819,1,-32,-37,-56,-21,-21,11,-5,-4
1490986034820,3,-25,-34,-25,16,-2,25,-2,-9
1490986034820,3,-27,4,-3,-14,0,13,-1,-11
1490986034821,0,14,23,11,-9,-5,-4,1,20
1490986034821,0,-9,4,-3,11,1,8,-6,-30
1490986034866,1,12,-8,15,0,-6,-3,9,24
1490986034866,1,27,33,27,20,9,15,12,19
1490986034868,2,-8,-56,-60,-7,7,12,-12,-4
1490986034868,2,-3,-14,18,-17,-7,-10,-15,-25
1490986034869,0,6,-4,11,46,13,7,-31,0
1490986034869,0,-11,-22,-21,-31,-9,-11,-9,-3
1490986034870,1,45,-5,-34,-35,-17,-5,-6,-10
1490986034870,1,41,13,33,-2,-5,8,4,3
1490986034915,2,-35,12,5,28,19,30,3,3
1490986034915,2,0,-14,18,15,5,-8,4,-2
1490986034917,3,22,-5,-22,-28,-12,7,-2,-4
1490986034917,3,-10,13,-25,-11,-18,-30,-19,-5
1490986034918,0,-67,-29,-2,-19,-7,6,23,1
1490986034918,0,37,2,1,15,4,10,-11,1
1490986034919,1,-7,6,20,25,8,17,-4,9
1490986034919,1,53,8,12,8,18,0,17,-9
1490986034964,2,-2,-12,-12,-21,-16,-10,-12,-8
1490986034964,2,18,10,-13,11,1,-6,-5,8
1490986034965,3,-1,-43,2,3,-18,-25,6,-1
1490986034965,3,-8,-8,1,-3,18,20,3,6
1490986034966,1,21,-6,-8,-1,1,-8,-2,-2
1490986034966,1,23,-30,3,-6,-1,1,-4,5
1490986034967,2,-1,-22,-6,-4,-1,-17,-2,-6
1490986034967,2,-26,-20,5,4,6,8,-5,-1
1490986035012,3,-18,-6,-7,-2,3,1,8,-1
1490986035012,3,5,-4,6,1,7,-4,0,-2
1490986035014,0,53,53,-2,0,-1,1,-25,2
1490986035014,0,-20,-16,-14,-6,-5,0,7,-7
1490986035015,2,9,32,4,9,3,8,-7,6
1490986035015,2,13,7,24,29,6,-2,17,6
1490986035016,3,24,0,-8,1,-4,0,-31,-18
1490986035016,3,-37,-43,-14,-32,-21,-10,5,-16
1490986035061,0,3,-35,3,5,-2,5,25,16
1490986035061,0,-31,-6,-1,7,6,-6,12,4
1490986035063,1,-38,-13,6,5,7,3,-13,-9
1490986035063,1,35,-2,2,-7,-10,-4,-5,0
1490986035064,3,9,-3,-1,-4,0,-14,-15,-2
1490986035064,3,3,-14,-2,8,1,-9,5,19
1490986035065,0,-8,-7,6,1,6,8,4,-13
1490986035065,0,-28,-15,2,10,-13,-7,3,13
1490986035110,1,15,-1,-12,-21,9,14,-11,-2
1490986035110,1,2,-11,-5,-17,-14,-3,8,-5
1490986035112,2,11,-3,-10,-4,1,-9,-13,-9
1490986035112,2,-26,-2,-2,-9,3,4,-1,-5
1490986035113,0,-13,-41,-6,4,8,11,9,13
1490986035113,0,12,-32,-7,-12,-1,-2,-2,-14
1490986035114,1,-42,-23,-6,-1,-5,-4,5,3
1490986035114,1,20,2,1,5,1,-5,-2,-4
1490986035159,2,24,34,9,-5,-4,-9,4,8
1490986035159,2,13,30,-10,-4,-14,5,-5,5
1490986035161,3,-4,-10,-2,12,33,0,4,-9
1490986035161,3,22,10,4,2,-3,-1,2,6
1490986035162,1,54,33,3,-7,-11,-10,8,2
1490986035162,1,-51,15,5,23,11,20,-5,-4
1490986035165,2,10,2,2,2,10,1,-5,0
1490986035165,2,-34,3,-16,-8,4,4,1,-8
1490986035207,3,-38,22,-7,-4,-9,1,-5,1
1490986035207,3,27,29,3,-2,2,-8,1,4
1490986035208,0,-50,48,7,8,5,24,6,-4
1490986035208,0,53,107,19,29,19,11,1,9
1490986035209,2,24,42,-3,-37,-10,-8,-5,-14
1490986035209,2,-41,60,-5,6,-4,-25,-1,-12
1490986035210,3,28,116,9,11,-4,-8,2,11
1490986035210,3,58,66,18,37,11,7,-30,-3
