1491088706662,0,-68,-57,-97,-105,-111,36,-104,11
1491088706662,0,101,101,108,109,100,-114,105,-43
1491088706665,1,27,52,116,114,108,-116,115,-40
1491088706665,1,72,38,95,81,95,-57,55,-20
1491088706666,2,-26,-30,75,51,65,-20,21,-18
1491088706666,2,25,-17,-15,9,-27,-18,94,14
1491088706699,3,15,-88,-106,-93,-75,58,-97,-18
1491088706699,3,-41,-83,-76,-43,-18,13,113,5
1491088706701,0,104,64,-53,-14,-10,11,93,18
1491088706701,0,42,-36,-65,-41,-22,36,-58,11
1491088706701,1,19,22,15,8,11,20,36,23
1491088706701,1,-60,-57,-76,-60,-52,37,-53,8
1491088706702,2,78,37,16,20,14,16,-36,8
1491088706702,2,-46,-47,-35,-18,-8,23,48,13
1491088706737,3,4,-29,-48,-36,-15,2,-102,9
1491088706737,3,62,11,15,23,4,5,-80,3
1491088706738,0,-66,-12,-4,7,-16,-24,96,-11
1491088706738,0,29,13,1,13,8,-80,-53,0
1491088706739,1,38,58,27,2,16,23,6,10
1491088706739,1,-76,-25,-6,-10,-15,17,42,-10
1491088706774,2,47,24,42,19,23,23,-67,-6
1491088706774,2,-69,-41,-26,-26,-24,68,-69,-11
1491088706775,3,25,-5,2,5,-2,-13,19,6
1491088706775,3,66,46,1,17,9,-102,23,-1
1491088706776,0,20,-28,-23,-1,13,-54,-41,-3
1491088706776,0,-16,22,-14,-12,-7,20,-78,-9
1491088706777,1,47,26,-18,16,-6,-2,74,-18
1491088706777,1,-35,11,-3,-3,0,-10,-7,-41
1491088706812,2,-83,-50,-25,-29,-13,-12,-57,-49
1491088706812,2,4,-20,22,37,0,32,-23,-22
1491088706812,3,-38,14,-4,-37,-3,-7,35,-21
1491088706812,3,75,15,23,-2,0,-2,0,3
1491088706815,0,46,-20,32,26,13,-24,126,6
1491088706815,0,-41,39,-32,-43,-27,-40,-87,-18
1491088706815,1,-76,-52,10,15,7,42,70,4
1491088706815,1,25,16,2,7,-11,3,-40,4
1491088706850,2,-40,-16,19,12,16,32,114,5
1491088706850,2,19,-19,-7,-8,4,23,-89,5
1491088706851,3,1,27,29,14,-3,-59,55,6
1491088706851,3,4,7,-8,-27,-14,12,41,-7
1491088706851,0,-42,15,11,6,2,-10,-32,1
1491088706851,0,40,-35,8,4,-10,13,32,1
1491088706852,1,-5,11,-16,-15,-17,30,-31,6
1491088706852,1,26,-6,20,34,18,-4,87,14
1491088706887,2,7,38,0,-7,-5,-5,-119,-3
1491088706887,2,-100,-89,17,9,5,3,124,-8
1491088706888,3,14,-30,-12,-11,-10,-5,-128,-7
1491088706888,3,13,33,5,22,-15,-3,4,7
1491088706889,0,-5,6,-5,3,-3,-9,45,2
1491088706889,0,-12,2,-6,-16,-2,-15,-30,5
1491088706925,1,16,-7,-1,8,-8,28,11,-2
1491088706925,1,-74,-36,-11,-14,-5,14,-26,-1
1491088706926,2,4,-12,-6,0,11,-34,28,-1
1491088706926,2,11,21,10,17,11,-14,104,5
1491088706926,3,-9,3,-1,-21,-3,13,-74,-3
1491088706926,3,-9,11,-13,-11,1,17,11,1
1491088706927,0,34,2,0,1,14,14,34,3
1491088706927,0,1,19,7,8,-22,-1,-44,0
1491088706962,1,8,-26,-4,-1,1,-1,41,6
1491088706962,1,29,21,3,-7,3,-11,-22,-2
1491088706963,2,3,12,26,38,20,9,64,9
1491088706963,2,-29,7,-10,-47,2,-16,-64,-6
1491088706966,3,-71,-23,-7,17,-7,50,-39,-4
1491088706966,3,-47,-40,-5,-19,-5,20,61,-6
1491088706967,0,49,18,-12,1,-4,-29,-17,-3
1491088706967,0,75,77,15,13,12,-55,74,9
1491088707000,1,-86,-64,-29,-10,-5,-4,-4,-8
1491088707000,1,-12,-4,14,30,5,14,16,5
1491088707001,2,57,9,-7,-4,-29,-29,-100,-5
1491088707001,2,-28,6,-1,-6,3,24,35,9
1491088707002,3,79,33,3,-8,-5,-57,-27,-1
1491088707002,3,-13,-23,-5,3,10,-3,63,2
1491088707002,0,6,-6,1,1,4,-5,-75,-5
1491088707002,0,7,19,11,8,-2,2,-76,2
1491088707037,1,-24,16,4,10,-2,2,-59,0
1491088707037,1,-4,-12,-4,-2,-8,-2,-5,-3
1491088707038,2,-55,-11,-4,-14,2,45,116,-2
1491088707038,2,-11,-26,-6,-5,1,14,-63,-5
1491088707038,3,48,8,5,7,3,-39,-28,-2
1491088707038,3,-28,-6,-2,3,-1,-11,-25,-5
1491088707074,0,-18,-31,-7,-3,-15,55,20,0
1491088707074,0,-22,-26,-14,-21,-8,16,74,-4
1491088707075,1,24,20,7,16,4,-16,85,3
1491088707075,1,1,11,-3,-4,-4,3,-13,1
1491088707076,2,12,-7,-6,-3,2,-33,-10,-2
1491088707076,2,22,16,9,15,-3,23,59,0
1491088707077,3,-86,-33,-7,-6,-2,-12,126,0
1491088707077,3,23,19,-6,-36,-10,14,-88,-4
1491088707112,0,-60,-20,-3,-2,-5,23,10,-1
1491088707112,0,31,4,4,9,16,-5,72,1
1491088707113,1,8,-4,37,-18,-17,-7,-109,-12
1491088707113,1,63,48,40,19,8,-12,101,11
1491088707114,2,-37,-42,-5,-17,-8,-16,-64,-9
1491088707114,2,34,19,7,23,-2,-9,36,5
1491088707114,3,-88,-39,-44,-28,-12,-27,-34,-12
1491088707114,3,-17,-46,-21,11,-5,46,36,0
1491088707149,0,-1,44,1,1,4,-1,-61,-3
1491088707149,0,18,-23,-22,-17,-5,-13,57,-2
1491088707150,1,78,43,9,24,2,-45,-31,6
1491088707150,1,16,25,1,8,0,-35,-41,0
1491088707151,2,34,5,-23,-16,-3,12,127,2
1491088707151,2,0,-11,0,0,-7,-16,-8,-1
1491088707151,3,10,6,5,-1,4,21,71,-1
1491088707151,3,-70,-38,-26,-27,-12,13,-128,-5
1491088707187,0,-7,-13,4,0,-3,27,29,7
1491088707187,0,-27,12,-2,-6,6,2,-3,-2
1491088707188,1,35,29,-7,10,5,28,24,3
1491088707188,1,-95,-35,-8,12,2,6,0,-15
1491088707188,2,32,7,8,-2,5,-19,18,3
1491088707188,2,6,-4,-17,-20,-43,43,-69,-5
1491088707224,3,-26,-28,-13,-4,-5,-90,22,-3
1491088707224,3,14,-6,11,6,27,-24,64,-1
1491088707225,0,-38,4,4,17,-17,-128,-37,-2
1491088707225,0,7,-7,5,5,0,-3,-34,-2
1491088707225,1,26,18,8,10,0,1,-6,-1
1491088707225,1,41,6,7,6,5,12,48,6
1491088707226,2,-72,-16,4,-8,5,49,-89,-6
1491088707226,2,34,12,-8,-12,-1,35,-13,-4
1491088707261,3,-21,-10,-11,-7,-8,37,-33,-4
1491088707261,3,14,18,10,9,-3,78,-24,3
1491088707262,0,29,22,-9,-13,-1,38,-9,-2
1491088707262,0,-78,-20,1,-3,11,19,56,1
1491088707263,1,42,-10,-10,-14,-2,87,-57,-4
1491088707263,1,-45,-10,-13,-23,-10,15,31,-3
1491088707264,2,62,18,4,13,14,53,-18,3
1491088707264,2,-29,-9,9,15,0,35,63,3
1491088707300,3,-12,-12,-3,-8,-4,30,-17,-5
1491088707300,3,40,29,4,8,-3,-7,-20,-2
1491088707301,0,-56,-33,-11,-11,-1,-19,-10,-11
1491088707301,0,3,18,13,7,18,-51,49,4
1491088707301,1,1,10,14,15,14,12,85,6
1491088707301,1,-21,-25,-17,-17,-22,28,-128,-11
1491088707302,2,47,31,6,4,-2,-23,82,7
1491088707302,2,43,-8,-5,-4,3,-28,39,-3
1491088707336,3,8,-6,-17,-9,-9,-83,34,-5
1491088707336,3,73,36,16,12,7,-108,-74,-4
1491088707337,0,-19,-15,-6,8,-12,-28,44,-5
1491088707337,0,-42,-25,-8,-9,-9,7,-112,-4
1491088707338,1,67,28,7,9,5,-16,2,2
1491088707338,1,-19,-2,-10,-16,1,-56,62,-4
1491088707374,2,4,0,-3,5,4,6,41,3
1491088707374,2,13,0,3,8,3,2,28,0
1491088707375,3,-13,0,3,-3,-11,40,-35,2
1491088707375,3,-6,2,-1,6,3,-2,75,1
1491088707376,0,106,1,5,-1,-9,-2,-85,-1
1491088707376,0,-85,-21,-5,-7,-4,72,-24,-10
1491088707376,1,-77,-11,-4,6,8,24,28,3
1491088707376,1,26,-10,-7,-3,5,13,5,-1
1491088707412,2,-19,-7,7,-1,-8,8,-26,5
1491088707412,2,21,25,9,14,-6,-46,26,4
1491088707412,3,18,-4,3,2,0,-13,31,-5
1491088707412,3,-65,-10,3,-1,-15,34,-13,-1
1491088707413,0,16,8,4,8,21,-5,74,-4
1491088707413,0,3,10,-5,-13,-15,-2,-91,1
1491088707414,1,-8,5,7,16,9,3,38,8
1491088707414,1,-11,-20,-19,-16,-10,7,20,-9
1491088707449,2,-60,-18,-8,-12,-3,9,-44,0
1491088707449,2,67,18,6,15,8,-15,54,-2
1491088707450,3,-14,-7,-14,-25,-7,-13,-63,-6
1491088707450,3,55,11,5,15,7,-15,40,6
1491088707451,0,-29,-3,-4,-9,-4,9,-30,-6
1491088707451,0,31,39,9,6,6,-27,-39,1
1491088707451,1,-29,-20,-6,2,3,13,24,-1
1491088707451,1,15,13,-6,-15,-18,5,-36,2
1491088707487,2,-30,-12,8,20,5,-5,52,-11
1491088707487,2,6,-24,-12,-19,6,3,-6,-6
1491088707488,3,-27,-1,7,5,2,3,2,-3
1491088707488,3,-25,-33,-5,9,-1,2,78,1
1491088707488,0,31,19,13,11,4,-16,-97,6
1491088707488,0,29,6,-12,2,-5,18,35,-1
1491088707524,1,-7,7,7,-1,-3,-3,-57,-9
1491088707524,1,-20,2,4,2,2,0,6,2
1491088707525,2,5,12,-4,-7,-10,5,88,-1
1491088707525,2,-36,-23,0,-10,11,4,71,-1
1491088707525,3,30,8,4,-7,-10,14,-43,0
1491088707525,3,-12,14,0,8,-3,-1,66,2
1491088707526,0,24,-1,-4,-3,-3,-12,-99,-2
1491088707526,0,12,-3,-1,2,-10,4,36,0
1491088707562,1,-7,-19,-6,-9,7,-8,12,-1
1491088707562,1,37,24,1,0,0,10,-72,-1
1491088707563,2,-27,4,-9,-7,0,18,13,4
1491088707563,2,-69,-47,-18,-10,-11,0,19,-8
1491088707563,3,32,41,20,23,15,-13,21,8
1491088707563,3,3,-34,-27,-24,2,-14,-36,-10
1491088707564,0,-19,-1,1,6,-5,33,21,2
1491088707564,0,1,11,6,-1,3,-14,-77,-1
1491088707599,1,-11,-11,-8,-4,-10,-12,-24,-6
1491088707599,1,37,28,12,3,-1,-25,-69,0
1491088707600,2,-9,-5,-3,0,10,6,26,-3
1491088707600,2,32,9,20,17,5,-58,11,4
1491088707600,3,-84,-50,-8,-13,-17,-37,-11,-16
1491088707600,3,21,-10,-3,-4,6,-15,14,-2
1491088707602,0,-31,-11,5,7,3,14,-89,-4
1491088707602,0,86,24,4,8,0,26,-4,4
1491088707636,1,4,1,-12,-6,2,25,48,-5
1491088707636,1,-29,5,12,3,-8,20,-53,-3
1491088707637,2,-25,-19,-8,-9,-4,19,52,-4
1491088707637,2,-14,2,-6,-11,-9,2,-5,-3
1491088707638,3,69,30,-1,9,1,-3,-20,4
1491088707638,3,-23,-13,2,-6,7,2,3,-4
1491088707674,0,9,5,1,11,-1,-1,11,1
1491088707674,0,34,13,2,4,5,5,-25,1
1491088707675,1,-9,-17,-19,-13,-5,-3,2,0
1491088707675,1,-91,-39,6,-1,-1,80,-74,-7
1491088707676,2,7,14,-9,-13,-5,10,46,1
1491088707676,2,15,7,1,-5,0,5,-3,1
1491088707677,3,-21,3,13,10,5,14,6,4
1491088707677,3,27,15,-2,13,-1,-25,48,2
1491088707712,0,33,10,-4,-7,-1,-14,27,5
1491088707712,0,-35,-43,-25,-17,-18,4,-56,-18
1491088707713,1,37,10,19,27,13,-4,6,5
1491088707713,1,-10,14,1,3,1,-19,89,5
1491088707714,2,-44,-21,-7,-7,-7,-12,-44,-8
1491088707714,2,71,42,20,20,10,-14,31,10
1491088707715,3,-30,-13,-16,-16,-10,9,2,-7
1491088707715,3,-36,-14,-2,-8,5,18,-78,0
1491088707749,0,35,14,11,6,-10,-12,3,-1
1491088707749,0,-54,-22,-19,-20,-7,-13,-27,-5
1491088707750,1,4,-1,-11,-9,-12,18,26,1
1491088707750,1,35,23,0,-8,-4,-15,-24,-2
1491088707751,2,13,-23,-6,10,2,8,19,2
1491088707751,2,-31,0,3,-5,0,8,-16,-6
1491088707787,3,-7,15,-1,-4,-7,5,10,4
1491088707787,3,38,18,8,6,3,-9,-34,-2
1491088707788,0,-70,-47,-20,-26,-10,15,-23,-10
1491088707788,0,65,10,20,24,10,0,2,2
1491088707789,1,-43,-9,-13,-19,-9,-12,47,-10
1491088707789,1,38,2,-4,-4,-4,3,60,6
1491088707790,2,-10,11,6,-2,5,-12,-27,-3
1491088707790,2,-36,-9,-5,-2,-10,7,38,0
1491088707824,3,71,8,6,-1,8,-28,-74,3
1491088707824,3,-39,-23,-16,1,-14,-5,-11,-5
1491088707825,0,-12,-11,1,11,7,-11,76,-3
1491088707825,0,37,20,-7,-7,-4,-6,-27,3
1491088707826,1,-33,-1,13,23,7,9,17,-4
1491088707826,1,-48,-26,-10,-2,-7,-16,-25,-8
1491088707827,2,39,14,-1,0,1,8,20,2
1491088707827,2,-12,5,1,9,7,14,-22,0
1491088707862,3,6,1,3,2,-1,2,84,0
1491088707862,3,11,-10,4,-7,1,0,-24,-8
1491088707863,0,-69,-6,-12,-15,-9,-14,49,-8
1491088707863,0,4,23,2,-8,4,-3,-42,4
1491088707864,1,37,-20,-11,0,-12,-14,-52,-12
1491088707864,1,31,21,15,12,12,-10,55,6
1491088707865,2,18,5,-1,-7,1,2,14,-8
1491088707865,2,-103,-76,-26,-14,2,1,66,-14
1491088707900,3,-2,4,0,8,3,8,-33,4
1491088707900,3,16,7,-6,-6,14,9,-8,0
1491088707903,0,28,7,3,11,-4,-2,-18,3
1491088707903,0,-7,4,6,7,6,-2,-16,3
1491088707904,1,-39,-10,-1,-5,10,-1,-2,3
1491088707904,1,8,23,4,-1,-9,-18,40,-1
1491088707937,2,34,39,10,-1,1,-8,-91,9
1491088707937,2,-31,-49,-20,-10,-1,14,-72,-9
1491088707938,3,-43,-16,-1,-16,-9,12,5,-3
1491088707938,3,-31,-20,-1,6,-3,21,65,-1
1491088707939,0,16,0,-5,0,-9,-4,-9,0
1491088707939,0,-42,-12,-7,-13,-3,5,5,0
1491088707940,1,9,4,6,-5,1,-2,-29,-5
1491088707940,1,20,23,-3,-2,1,-1,-8,0
1491088707974,2,13,6,6,5,3,-5,-38,-5
1491088707974,2,25,40,14,18,-20,-14,14,-1
1491088707975,3,-77,-42,-16,-14,7,43,100,-5
1491088707975,3,26,-5,5,9,-10,-4,-123,-2
1491088707976,0,-33,1,-10,-2,-1,11,96,-10
1491088707976,0,-42,-12,7,-7,1,2,22,-3
1491088707977,1,60,20,3,-4,-18,-17,-15,6
1491088707977,1,7,-8,-4,8,-14,-15,-49,-2
1491088708012,2,18,12,11,5,-2,5,15,5
1491088708012,2,-11,-20,-18,-9,-1,-6,-13,-9
1491088708013,3,45,15,5,6,-19,10,-1,7
1491088708013,3,-25,-35,-12,-6,-4,-2,36,-4
1491088708014,0,16,-9,-3,-3,-1,0,-24,6
1491088708014,0,3,15,9,7,1,-5,38,0
1491088708015,1,48,7,3,3,11,-19,-59,2
1491088708015,1,-7,19,-1,-3,3,-10,28,0
1491088708050,2,55,21,-7,-8,-12,-1,40,-4
1491088708050,2,-18,3,-7,-11,0,0,-41,-5
1491088708050,3,-74,-52,-7,-13,-8,12,35,-4
1491088708050,3,38,13,15,18,11,4,3,3
1491088708051,0,-15,2,-10,-9,0,-15,12,-5
1491088708051,0,-9,-3,12,10,11,9,49,4
1491088708087,1,76,34,10,20,18,-30,28,2
1491088708087,1,0,-6,-3,-6,-21,9,23,-3
1491088708088,2,-38,-48,-28,-20,-6,-7,-63,-4
1491088708088,2,37,24,23,16,4,-7,77,8
1491088708089,3,5,5,5,20,8,-6,-122,-5
1491088708089,3,-48,-22,-2,-12,10,3,11,-3
1491088708090,0,22,6,-1,7,7,21,5,5
1491088708090,0,0,-1,2,3,-3,0,-12,2
1491088708124,1,-5,15,-15,-11,-10,1,65,0
1491088708124,1,21,-20,0,8,9,-26,-25,-3
1491088708125,2,-1,3,-1,2,-21,-19,-101,-5
1491088708125,2,-23,-28,-19,-6,-5,7,30,-3
1491088708126,3,69,52,28,13,23,2,-71,7
1491088708126,3,-20,-11,-31,-29,-32,-14,86,-5
1491088708127,0,-68,-30,11,0,11,20,-14,-2
1491088708127,0,52,-3,2,10,1,-15,24,3
1491088708162,1,17,29,-4,-11,-10,3,2,-1
1491088708162,1,-64,-29,-6,3,7,44,96,-1
1491088708163,2,-5,2,-1,-1,2,-8,-76,-2
1491088708163,2,-4,9,5,28,-10,-5,52,0
1491088708164,3,29,27,3,25,-1,-12,7,2
1491088708164,3,21,18,1,-1,9,-20,-77,2
1491088708164,0,-39,-47,-13,-5,2,-9,65,-9
1491088708164,0,4,18,6,-6,1,3,-29,0
1491088708199,1,-42,-39,-29,-29,-16,21,0,-5
1491088708199,1,60,27,23,14,17,15,8,5
1491088708200,2,-24,1,-8,-7,-4,-13,-41,-4
1491088708200,2,-9,-6,-2,-9,-4,-7,-41,-2
1491088708201,3,-14,11,3,-6,-1,9,13,3
1491088708201,3,44,13,-9,-3,-12,-25,-23,-6
1491088708237,0,15,4,9,4,7,28,92,8
1491088708237,0,-85,-42,-19,-29,-5,15,-65,-8
1491088708238,1,-22,-18,5,13,-1,-2,-18,-8
1491088708238,1,-2,21,8,10,5,-5,46,5
1491088708239,2,53,18,4,10,8,6,51,6
1491088708239,2,44,27,0,6,-6,-16,-32,-3
1491088708240,3,-54,-25,-11,-25,-3,12,16,0
1491088708240,3,7,-15,2,12,-4,-9,-43,-3
1491088708274,0,-12,1,6,14,-1,-16,-64,-1
1491088708274,0,-13,10,4,1,-3,12,32,-4
1491088708275,1,23,-8,7,10,4,-8,43,3
1491088708275,1,-68,-46,-13,-24,0,3,25,-4
1491088708276,2,56,33,11,-3,5,0,-58,-1
1491088708276,2,-12,-8,-9,-13,-12,-10,-69,-6
1491088708277,3,54,25,14,15,7,-17,-19,4
1491088708277,3,-56,0,-1,-9,-4,13,-1,-4
1491088708312,0,34,13,5,12,-1,0,67,3
1491088708312,0,53,25,-6,-6,2,0,-9,0
1491088708313,1,-33,-27,-5,-2,11,21,48,-2
1491088708313,1,36,39,5,1,-12,-10,3,5
1491088708314,2,-39,-48,-9,-5,-19,8,39,-6
1491088708314,2,10,-10,5,17,1,11,-83,1
1491088708315,3,10,-19,-12,-12,-2,-2,31,-2
1491088708315,3,31,24,4,-3,16,5,0,3
1491088708349,0,-12,1,-3,4,-8,-10,12,-1
1491088708349,0,-22,-12,-7,-15,7,-7,-17,-4
1491088708350,1,5,17,15,15,0,-8,50,4
1491088708350,1,22,31,4,-2,1,-4,28,1
1491088708351,2,-58,-21,0,-9,2,-19,-107,-10
1491088708351,2,7,-15,-3,-1,0,-101,127,7
1491088708387,3,-72,-25,-8,-1,-9,-67,-110,-13
1491088708387,3,25,5,-1,1,-5,-23,71,0
1491088708388,0,10,12,10,15,0,18,-23,-1
1491088708388,0,-2,7,1,-5,-6,79,73,2
1491088708389,1,-23,-7,-9,-1,-1,60,-22,-1
1491088708389,1,14,9,-10,-11,-15,22,-128,-7
1491088708390,2,-31,-17,-4,5,13,46,101,1
1491088708390,2,-12,-8,-3,-3,0,30,-63,-2
1491088708424,3,36,12,-9,-7,-11,13,3,-6
1491088708424,3,-29,-23,6,9,13,84,-7,-1
1491088708425,0,21,35,5,-6,5,2,20,6
1491088708425,0,-10,-14,-8,-1,-8,-2,31,-3
1491088708425,1,-40,-29,-2,-1,-2,-8,-51,-2
1491088708425,1,46,18,1,7,-4,8,-56,-2
1491088708426,2,20,8,-1,-2,6,-13,65,1
1491088708426,2,-75,-39,-15,-3,-5,-9,-104,-15
1491088708461,3,23,6,8,3,2,-7,123,2
1491088708461,3,17,-1,-3,4,-8,-33,2,2
1491088708462,0,-16,6,3,7,5,-13,-44,-2
1491088708462,0,15,22,8,7,7,-6,59,3
1491088708463,1,13,-4,-7,1,-12,-32,-83,0
1491088708463,1,-43,-16,0,0,0,-30,64,-3
1491088708464,2,79,25,-3,-1,5,-23,-1,-2
1491088708464,2,-74,-42,-9,-12,-3,19,0,-1
1491088708500,3,45,27,18,11,-4,11,19,3
1491088708500,3,0,14,-6,-4,0,4,-34,2
1491088708500,0,-91,-53,-4,-6,-6,6,-69,-9
1491088708500,0,82,37,-2,-12,-8,1,34,8
1491088708501,1,-68,-34,-24,-18,1,8,30,-8
1491088708501,1,2,-1,11,7,13,2,-18,0
1491088708574,2,43,23,1,1,-9,-21,-40,1
1491088708574,2,25,15,7,7,3,3,25,1
1491088708575,3,25,2,-8,-9,-6,9,43,0
1491088708575,3,-34,-11,-7,-2,-10,-2,33,-6
1491088708575,0,43,25,20,14,11,5,-50,4
1491088708575,0,-61,-12,-4,-14,-13,6,-24,-8
1491088708576,1,-37,-6,-6,-7,-6,15,-9,-5
1491088708576,1,-24,-23,-6,-4,4,-14,-38,-4
1491088708611,2,-19,-29,-23,-19,-15,4,-26,-4
1491088708611,2,50,23,21,28,14,-11,-44,-1
1491088708612,3,-30,-6,-3,-5,-1,11,-25,-3
1491088708612,3,2,3,2,5,-2,7,127,6
1491088708613,0,30,-10,-4,-4,-3,-15,-49,-5
1491088708613,0,3,4,-11,-6,-12,4,-26,-2
1491088708614,2,31,-8,6,25,-2,-5,69,5
1491088708614,2,41,-13,-12,-12,3,16,-47,3
1491088708649,3,-22,17,3,-4,4,12,25,0
1491088708649,3,-30,-18,-11,-4,-9,14,68,0
1491088708650,0,31,18,7,2,2,-1,-45,0
1491088708650,0,28,3,-16,-13,-15,-26,7,-4
1491088708650,2,18,10,6,6,-1,-12,24,2
1491088708650,2,-1,-6,3,-4,1,28,8,-3
1491088708651,3,19,7,2,-2,0,12,-2,1
1491088708651,3,-42,-14,-9,-19,-6,13,-49,-4
1491088708686,0,-24,-2,-9,-14,-9,15,82,-1
1491088708686,0,13,16,9,21,-1,-48,-36,3
1491088708687,1,37,22,15,14,13,-36,24,1
1491088708687,1,106,32,2,0,-6,1,23,10
1491088708688,2,-92,-49,-11,-13,-2,19,1,-10
1491088708688,2,-15,-20,-18,-21,-6,16,-45,-7
1491088708689,3,6,6,0,3,-3,-13,-54,2
1491088708689,3,-20,-5,-1,13,-5,-25,9,-1
1491088708724,0,40,11,-9,-23,-12,19,20,4
1491088708724,0,-28,-3,12,17,12,-8,94,-6
1491088708725,1,18,2,0,-9,6,10,-103,-2
1491088708725,1,86,37,11,22,-3,-12,29,4
1491088708725,2,-67,-35,-3,-1,-3,-12,18,-7
1491088708725,2,-59,-20,0,-6,0,8,0,-2
1491088708726,3,41,17,0,3,-4,-6,25,4
1491088708726,3,-22,4,3,2,8,11,-38,-11
1491088708761,0,-3,-9,-12,-6,-5,26,-14,-1
1491088708761,0,48,17,8,9,4,3,5,5
1491088708762,1,-27,0,-7,-7,-9,-31,-34,-3
1491088708762,1,-95,-36,-8,-5,-10,12,-27,-7
1491088708763,2,-4,-14,-19,-20,-12,-2,-50,-8
1491088708763,2,-14,-22,9,7,12,38,-2,0
1491088708764,3,22,30,2,0,-2,-3,61,2
1491088708764,3,68,3,3,14,-5,-3,1,1
1491088708799,0,43,43,17,8,18,-3,19,3
1491088708799,0,-77,-43,-25,-24,-20,0,-7,1
1491088708800,1,17,2,-8,1,-6,-12,-19,-8
1491088708800,1,-16,-18,-6,-14,0,6,15,-3
1491088708800,2,5,11,8,10,3,-16,-36,2
1491088708800,2,30,17,13,9,14,2,38,-2
1491088708802,3,-36,-16,-9,-16,-2,28,83,1
1491088708802,3,-20,-19,-3,-6,-4,-16,-89,-7
1491088708836,0,52,32,6,6,5,20,21,2
1491088708836,0,-73,-28,-18,-9,-14,-27,-94,-15
1491088708838,1,28,-43,-18,-20,-7,7,107,3
1491088708838,1,2,15,9,8,5,42,-59,3
1491088708838,2,62,8,0,-2,7,-33,8,-2
1491088708838,2,20,25,6,15,-1,-25,-50,1
1491088708839,3,0,-7,-1,10,1,-12,20,-6
1491088708839,3,-48,-10,-8,-20,4,-34,48,-6
1491088708874,0,-91,-40,-4,4,-15,16,-57,-9
1491088708874,0,51,37,17,22,11,28,107,9
1491088708875,1,-11,-31,-6,-5,-7,-8,-86,-10
1491088708875,1,20,-5,-3,4,1,5,33,7
1491088708876,2,-5,19,-1,-3,-6,-17,15,0
1491088708876,2,17,30,-2,-3,-3,-25,-22,1
1491088708877,3,2,-24,-3,-4,-8,43,13,-7
1491088708877,3,16,4,-2,3,-9,-19,-20,4
1491088708912,0,-14,-10,-3,-13,2,13,30,-5
1491088708912,0,20,-17,-16,-20,-7,6,-46,-1
1491088708913,1,3,29,12,11,14,15,45,0
1491088708913,1,-8,-6,-8,-19,-4,-19,15,-2
1491088708913,2,-32,-9,3,-3,-5,-14,-45,-1
1491088708913,2,58,9,3,-3,3,8,-26,4
1491088708949,3,-20,6,-4,-6,-1,-1,23,1
1491088708949,3,20,14,15,14,12,25,-42,-1
1491088708950,0,-7,-23,-18,-12,-7,-15,89,0
1491088708950,0,-4,0,3,1,4,-11,8,-3
1491088708951,1,-46,-8,-9,0,-2,18,-8,-4
1491088708951,1,4,12,19,21,8,-7,-2,-5
1491088708951,2,-6,8,-1,-4,-1,28,-31,1
1491088708951,2,1,-27,-24,-10,-7,-27,-63,-5
1491088708987,3,10,37,9,4,-8,-5,-9,7
1491088708987,3,-13,-29,-17,-18,-15,-20,5,-8
1491088708988,0,-9,5,21,26,13,2,29,-2
1491088708988,0,7,-9,-7,-20,-9,25,-18,-2
1491088708988,1,63,9,10,22,6,-22,21,5
1491088708988,1,-46,-14,-20,-27,-4,-21,-50,-4
1491088708989,2,-17,-17,-2,0,-5,28,-32,-13
1491088708989,2,-62,-19,4,-2,9,60,87,4
1491088709024,3,-6,-6,-13,-1,-14,33,-67,-3
1491088709024,3,52,33,15,13,2,27,-19,4
1491088709025,0,25,15,-10,-14,0,-22,26,-1
1491088709025,0,-18,-4,6,15,11,-8,62,-1
1491088709026,1,-4,-7,0,-2,-5,47,-28,-3
1491088709026,1,28,16,8,9,4,28,33,6
1491088709027,2,14,-9,-1,18,0,-21,-11,-1
1491088709027,2,-37,-3,-19,-29,-17,-27,-11,-10
1491088709062,3,1,-16,-2,9,4,-48,-12,0
1491088709062,3,-33,-7,-7,-10,6,-15,10,-10
1491088709063,0,9,22,8,11,3,-23,-7,4
1491088709063,0,30,2,-1,10,5,-4,50,-4
1491088709063,1,-5,4,-1,-7,-2,-14,-26,1
1491088709063,1,11,8,-1,11,-14,-14,-7,-3
1491088709099,2,51,-4,4,7,2,-14,-74,0
1491088709099,2,34,4,11,-4,0,-26,-44,-1
1491088709100,3,-83,-17,-3,-2,-6,19,71,-2
1491088709100,3,14,-12,1,5,5,-3,34,0
1491088709101,0,-10,-12,-11,-13,-9,13,16,1
1491088709101,0,77,55,20,29,4,-10,17,9
1491088709102,1,-38,-23,-23,-20,-14,-35,-70,-10
1491088709102,1,16,-2,3,-2,8,-6,-24,4
1491088709137,2,12,19,8,11,-5,5,1,0
1491088709137,2,-13,-7,-2,6,-6,-10,7,-2
1491088709138,3,-2,-15,0,-5,3,3,8,0
1491088709138,3,17,4,-5,0,-7,-3,49,1
1491088709138,0,-67,-13,-19,-20,-7,12,-80,-7
1491088709138,0,48,16,13,29,-3,-8,-10,0
1491088709139,1,-59,-9,-3,-7,2,-17,-36,-10
1491088709139,1,37,6,2,2,10,10,70,9
1491088709174,2,-8,-21,-8,-3,-13,-5,-34,-5
1491088709174,2,-35,-12,-3,10,6,25,-3,5
1491088709175,3,8,13,5,15,4,-12,68,3
1491088709175,3,12,7,5,9,-6,8,-47,-3
1491088709176,0,-20,-5,4,-5,3,-4,49,-2
1491088709176,0,1,-3,2,5,-12,0,63,-2
1491088709177,1,36,15,0,0,-10,-3,-30,-3
1491088709177,1,22,1,-8,-5,-10,-14,16,3
1491088709212,2,12,12,-9,-1,1,-1,-10,-3
1491088709212,2,-30,-31,-12,-18,-10,2,-1,-9
1491088709213,3,65,27,11,9,9,7,9,10
1491088709213,3,-48,-23,-13,-15,-8,-11,-90,-13
1491088709213,0,-23,-1,-8,-7,1,-14,-50,-1
1491088709213,0,21,6,1,-10,-6,-9,57,4
1491088709251,1,3,0,2,-10,3,4,-94,-4
1491088709251,1,-16,-3,4,19,0,24,6,7
1491088709252,2,20,-1,9,-1,3,-11,36,-2
1491088709252,2,21,19,0,-11,6,1,-12,4
1491088709253,3,-48,-39,-9,-8,-8,-10,-30,-10
1491088709253,3,-18,-36,-16,-14,-11,17,49,-6
1491088709254,0,53,40,15,8,7,-2,-9,8
1491088709254,0,-89,-22,-9,-11,11,-4,-5,-12
1491088709287,1,41,16,12,11,6,1,85,5
1491088709287,1,-36,-10,-17,-31,-8,-8,-94,-11
1491088709288,2,-11,1,10,22,-1,-1,-40,1
1491088709288,2,24,5,-7,-22,2,9,72,0
1491088709289,3,2,12,9,9,-11,-5,-47,-2
1491088709289,3,4,-6,3,-3,6,1,-44,0
1491088709290,0,-26,3,-5,0,-9,-10,62,-3
1491088709290,0,-51,-49,-15,-9,-7,2,-76,-8
1491088709324,1,2,1,2,9,17,1,79,-3
1491088709324,1,31,9,5,-4,-11,3,-5,6
1491088709325,2,31,26,6,5,4,-19,-17,1
1491088709325,2,-16,-11,-16,8,-9,-4,38,-6
1491088709325,3,-15,1,8,2,5,-2,-11,-2
1491088709325,3,-44,-9,-7,-7,1,-2,30,-4
1491088709326,0,-2,-34,-13,-14,0,13,11,-3
1491088709326,0,22,15,2,7,-3,4,-92,4
1491088709361,1,11,13,0,6,-7,-15,20,-1
1491088709361,1,53,16,7,1,9,-15,29,2
1491088709362,2,-22,-8,-8,-17,-11,-9,38,-4
1491088709362,2,22,27,15,15,14,-6,-55,2
1491088709363,3,-13,-31,-20,-22,-10,24,22,3
1491088709363,3,-30,3,6,4,12,11,27,-2
1491088709399,0,3,-25,-1,1,7,16,7,6
1491088709399,0,3,3,-11,-10,-18,-7,-53,-5
1491088709400,1,51,8,-3,2,1,-17,26,3
1491088709400,1,-10,5,4,16,-6,5,-32,-4
1491088709401,2,8,9,-2,-13,-1,1,46,1
1491088709401,2,54,18,14,19,12,2,18,7
1491088709402,3,-89,-32,-14,-18,-3,-1,-40,-10
1491088709402,3,33,-14,-20,-4,-9,-4,-83,-1
1491088709436,0,-46,-1,3,-8,1,13,56,-2
1491088709436,0,46,22,11,13,4,7,11,6
1491088709437,1,39,-8,-19,-24,-12,-12,-36,-7
1491088709437,1,-22,-11,4,3,-4,-1,54,-3
1491088709438,2,-16,-2,4,15,3,0,-14,-2
1491088709438,2,-34,7,3,-11,-5,-13,-20,-3
1491088709439,3,26,2,14,25,13,1,-59,1
1491088709439,3,-24,-10,2,0,3,3,-65,-4
1491088709474,0,10,7,-8,-15,-15,10,36,-1
1491088709474,0,23,18,4,8,5,2,23,2
1491088709475,1,-59,-18,-1,-22,0,16,-14,-6
1491088709475,1,2,1,2,7,8,-5,37,-3
1491088709475,2,-9,2,-2,1,-6,-18,34,-2
1491088709475,2,4,-10,-15,-18,-10,-15,-25,-4
1491088709476,3,-48,-17,-2,3,-6,10,24,-5
1491088709476,3,18,16,13,13,16,11,32,1
1491088709511,0,8,22,-10,-12,-8,5,-37,-4
1491088709511,0,-15,-15,-7,-2,-12,-15,61,-6
1491088709512,1,69,18,5,16,-3,1,-20,7
1491088709512,1,-40,-15,1,-9,6,-1,-41,-2
1491088709513,2,-19,-23,-7,9,-3,-5,12,-3
1491088709513,2,28,-1,5,6,1,-9,-10,-1
1491088709549,3,-12,7,-12,-5,-17,10,21,0
1491088709549,3,-23,-4,3,6,4,-6,-7,-1
1491088709550,0,10,8,-4,-16,-4,2,13,-9
1491088709550,0,-57,-22,0,-5,7,16,78,-2
1491088709550,1,-4,-6,-2,-11,0,-4,-78,-8
1491088709550,1,16,19,4,11,-8,-17,82,6
1491088709551,2,-27,-46,-21,-12,-3,3,-81,-9
1491088709551,2,-4,0,8,11,4,13,46,1
1491088709586,3,9,34,4,5,2,8,-22,0
1491088709586,3,56,13,12,3,2,-13,34,1
1491088709588,0,-4,-23,-1,5,-7,-4,18,-6
1491088709588,0,5,5,8,4,7,3,-128,2
1491088709590,1,48,26,2,2,2,-13,23,5
1491088709590,1,-90,-53,-23,-18,-11,24,-20,-8
1491088709591,2,28,14,19,18,14,22,48,10
1491088709591,2,-48,-20,-3,1,-4,0,-19,-10
1491088709624,3,65,23,1,0,-1,-17,21,5
1491088709624,3,-65,-33,-29,-30,-20,-4,9,-6
1491088709625,0,17,34,11,10,8,-3,8,6
1491088709625,0,-3,4,-7,-2,4,-6,47,-2
1491088709626,1,16,9,24,24,12,-3,-35,4
1491088709626,1,2,1,-24,-20,-21,-13,-67,-6
1491088709661,2,-30,-8,1,-7,-1,10,-6,-4
1491088709661,2,-37,-13,-14,-11,-3,-3,45,-5
1491088709662,3,-16,-25,4,5,7,-1,29,1
1491088709662,3,37,36,4,0,-1,-1,10,6
1491088709663,0,1,7,20,14,6,-13,-38,1
1491088709663,0,31,5,-14,-13,-7,16,75,2
1491088709664,1,-77,-16,-19,-31,-16,6,-35,-14
1491088709664,1,65,13,22,21,14,-5,-52,5
1491088709699,2,-65,-27,-17,-9,-4,-1,-5,-4
1491088709699,2,-53,-34,-6,-9,-2,6,-33,-8
1491088709700,3,45,23,11,16,0,1,-35,3
1491088709700,3,-29,-14,-24,-24,-7,14,85,-6
1491088709700,0,43,0,5,3,-3,-21,-92,2
1491088709700,0,-25,10,4,11,8,-11,-13,2
1491088709701,1,-16,5,-3,0,-11,-23,17,-2
1491088709701,1,34,23,3,9,-3,-10,-31,-4
1491088709736,2,43,12,2,5,6,10,40,0
1491088709736,2,29,-3,-3,-8,0,19,-11,-1
1491088709737,3,29,-14,-13,-2,0,15,19,5
1491088709737,3,-41,-6,24,16,15,7,59,-4
1491088709738,0,-30,8,-20,-28,-15,-1,9,-3
1491088709738,0,-60,-26,0,-4,-14,-22,-95,-5
1491088709739,1,-11,9,3,3,6,6,57,1
1491088709739,1,-29,-37,-8,-10,-1,7,-38,-5
1491088709774,2,16,14,10,16,1,17,9,4
1491088709774,2,37,26,-3,-1,-1,-5,36,-1
1491088709775,3,-4,-3,-5,-11,7,-1,44,2
1491088709775,3,28,13,4,5,4,-1,83,-1
1491088709776,0,-41,-22,-7,19,-14,-4,-12,-8
1491088709776,0,86,21,11,7,2,-2,-54,3
1491088709811,1,-87,-43,-21,-9,-12,6,37,-9
1491088709811,1,38,2,9,14,8,-12,-26,5
1491088709812,2,12,5,-5,-13,1,-9,-20,-2
1491088709812,2,60,-20,-5,-3,-7,-3,-30,2
1491088709813,3,-35,6,-8,-19,-8,20,-8,-8
1491088709813,3,-12,17,-6,2,-8,-1,-33,-3
1491088709814,0,32,-10,-7,0,-5,-14,83,1
1491088709814,0,-27,15,8,11,-4,12,-55,5
1491088709849,1,22,0,4,5,5,-6,-24,-1
1491088709849,1,-20,-24,0,3,6,-5,-7,-3
1491088709850,2,49,29,-2,3,-14,5,14,9
1491088709850,2,20,6,8,16,8,-8,-6,-5
1491088709850,3,-4,-8,-6,-13,6,12,7,3
1491088709850,3,-27,-11,6,-4,-7,-9,-13,-2
1491088709851,0,23,7,1,7,13,14,-24,-2
1491088709851,0,-16,7,-3,-8,-5,-2,61,-3
1491088709886,1,-94,-37,-13,-15,-7,6,-93,-10
1491088709886,1,20,9,6,11,8,5,60,5
1491088709887,2,15,1,8,5,-1,-13,-37,0
1491088709887,2,-33,-4,-10,-16,-6,-1,-47,1
1491088709888,3,71,18,20,28,11,-9,34,3
1491088709888,3,-10,21,-13,-27,-12,-5,-88,-7
1491088709889,0,-61,-50,-6,-12,2,9,35,-5
1491088709889,0,-9,-18,-6,7,-4,6,-46,-6
1491088709924,1,10,2,3,5,6,-3,71,4
1491088709924,1,32,13,5,2,1,0,-43,2
1491088709925,2,-10,20,-12,-11,0,-10,74,-3
1491088709925,2,-3,16,2,-2,-7,8,-18,1
1491088709926,3,51,12,6,4,1,-4,-52,0
1491088709926,3,-63,-29,-10,5,2,21,125,0
1491088709961,0,73,14,13,10,4,-6,-38,5
1491088709961,0,-38,-17,-16,-16,-3,-1,73,-3
1491088709963,1,56,26,14,21,0,-5,-7,3
1491088709963,1,37,1,-8,-2,-9,-6,24,3
1491088709963,2,26,6,3,12,4,-9,-88,-7
1491088709963,2,-37,5,7,1,-3,-1,34,-2
1491088709964,3,21,-11,-7,4,-2,-4,-50,2
1491088709964,3,-21,-25,-15,4,-14,-12,-27,-12
1491088709999,0,25,13,14,20,11,12,-24,7
1491088709999,0,4,0,-2,-1,5,1,-32,-2
1491088710000,1,52,30,7,5,8,-1,54,5
1491088710000,1,-102,-63,-27,-41,-20,16,-58,-15
1491088710000,2,-23,-10,8,8,7,6,5,0
1491088710000,2,66,22,3,3,15,5,-8,3
1491088710001,3,-58,-29,3,-13,-5,3,39,-4
1491088710001,3,15,2,-14,-15,-14,-22,56,-1
1491088710036,0,-27,12,-2,-2,-1,-12,36,-2
1491088710036,0,42,-1,-1,-8,-8,4,-15,2
1491088710074,1,17,-2,-11,-2,-1,-6,-40,-1
1491088710074,1,17,12,11,6,-1,1,-23,1
1491088710075,2,-70,-17,-16,-26,-8,15,43,-5
1491088710075,2,23,-3,5,18,-4,-20,-16,-2
1491088710076,3,45,16,-1,8,-7,-3,-13,3
1491088710076,3,-11,6,3,12,-1,-23,-18,-7
1491088710076,0,-34,-18,-9,0,-1,14,15,8
1491088710076,0,16,12,5,8,2,-4,39,0
1491088710112,1,-29,-19,-6,-15,-6,2,-16,-7
1491088710112,1,25,21,12,18,6,6,-83,8
1491088710113,2,58,14,-5,-5,0,-20,28,0
1491088710113,2,-49,-31,-9,-8,-7,2,81,-2
1491088710115,3,-16,16,6,3,3,-2,-12,4
1491088710115,3,-8,-30,-19,-10,4,3,77,-5
1491088710116,0,-63,-18,5,-5,3,-6,-105,-16
1491088710116,0,-11,-4,-4,-8,-10,23,37,-3
1491088710149,1,-3,3,5,4,2,10,25,-4
1491088710149,1,71,47,12,6,10,29,-10,7
1491088710150,2,28,-19,-16,-13,-13,-18,28,-11
1491088710150,2,-30,-16,-11,-6,-8,-12,-62,-10
1491088710151,3,-33,3,1,7,4,-7,35,-1
1491088710151,3,0,-2,9,5,9,16,25,3
1491088710151,0,-15,-5,-5,-7,-11,1,40,-2
1491088710151,0,17,15,10,-1,9,8,-56,5
1491088710188,1,42,20,8,4,3,8,89,2
1491088710188,1,-94,-50,-2,1,9,44,-76,-8
1491088710188,2,-27,-24,7,11,3,21,-6,2
1491088710188,2,-3,-3,2,-6,2,-16,-19,-4
1491088710189,3,39,27,4,-15,-2,-31,-13,1
1491088710189,3,-40,-15,-9,2,-11,-26,79,-4
1491088710190,0,17,7,-4,-13,-13,-24,-90,-4
1491088710190,0,18,28,5,7,5,-17,-32,3
1491088710224,1,23,-15,-1,12,-5,-18,-15,-6
1491088710224,1,15,-1,0,-10,3,-2,40,9
1491088710225,2,27,10,-3,4,0,-8,-4,2
1491088710225,2,-18,3,-1,-6,9,3,90,4
1491088710226,3,43,-17,-11,-6,-9,-6,-56,-1
1491088710226,3,45,41,5,3,-9,62,-86,-7
1491088710226,0,-49,-16,-5,-20,2,118,-6,-1
1491088710226,0,36,2,-9,-7,-6,85,51,3
1491088710261,1,-100,-48,-21,-23,-1,54,-23,-7
1491088710261,1,35,23,19,18,-1,-64,8,6
1491088710262,2,-8,-1,-22,-17,-20,-44,81,-8
1491088710262,2,-18,-7,16,19,5,-69,-75,-9
1491088710263,3,-50,-31,-11,0,-6,-15,69,5
1491088710263,3,21,18,13,14,-2,-42,-48,-4
1491088710264,0,104,37,11,12,6,-49,21,4
1491088710264,0,-50,-8,-7,-5,-8,-23,6,-4
1491088710299,1,-4,-13,-5,5,-1,-17,-13,-3
1491088710299,1,22,9,-6,-12,2,-10,42,-1
1491088710300,2,19,15,25,36,11,-26,17,6
1491088710300,2,-13,-18,-19,-26,-16,-17,-21,-8
1491088710301,3,-31,-21,-14,-17,-8,-13,-13,-16
1491088710301,3,1,-16,2,6,-1,10,-24,4
1491088710301,0,-26,-12,0,-7,8,8,22,-5
1491088710301,0,16,-5,12,21,5,0,-43,4
1491088710336,1,22,38,8,6,-13,2,-8,3
1491088710336,1,36,18,2,13,-7,-44,1,-5
1491088710337,2,-72,-55,-26,-17,-2,4,10,-7
1491088710337,2,15,5,2,-8,5,15,68,6
1491088710338,3,50,37,16,15,6,-18,10,2
1491088710338,3,-86,-37,-31,-40,-13,-12,-77,-20
1491088710339,0,71,42,21,19,5,-5,63,8
1491088710339,0,-69,-56,-34,-41,-10,15,-1,-11
1491088710374,1,27,13,12,19,5,-3,81,3
1491088710374,1,40,-2,-6,-17,-4,-27,-16,-1
1491088710375,2,-12,-13,1,9,-1,-3,-29,1
1491088710375,2,-5,22,11,2,-1,-20,34,2
1491088710376,3,1,-26,-7,-12,-2,-1,-116,-12
1491088710376,3,-18,16,-2,-8,6,14,81,15
1491088710377,0,29,-1,-20,-10,-1,6,-116,-11
1491088710377,0,64,32,38,48,8,7,-31,4
1491088710411,1,-120,-55,-51,-27,-17,-3,-57,-9
1491088710411,1,72,-28,-18,5,3,30,98,9
1491088710413,2,40,29,20,0,12,15,-128,-5
1491088710413,2,-61,-38,10,2,5,21,55,-7
1491088710413,3,1,24,-5,-13,21,-10,52,7
1491088710413,3,-5,29,31,25,-12,-69,-44,-15
1491088710414,0,-39,-35,-32,-48,-25,-8,-19,0
1491088710414,0,-52,0,-1,13,5,-12,51,-12
1491088710486,1,2,-37,-19,11,-28,-32,-107,3
1491088710486,1,13,80,2,2,14,-9,-21,9
1491088710488,2,48,-21,16,-14,-13,19,66,4
1491088710488,2,-7,17,20,41,4,-26,-107,-12
1491088710488,3,79,37,59,-33,34,118,127,8
1491088710488,3,-65,-54,40,-11,-7,22,-41,-5
1491088710489,0,41,-1,-110,36,-8,9,49,11
1491088710489,0,-84,-91,29,-90,-16,34,65,-23
1491088710524,1,-24,16,122,28,23,-128,49,-8
1491088710524,1,27,26,78,4,28,80,88,1
1491088710525,2,38,32,103,35,9,42,-47,8
1491088710525,2,126,-56,-128,56,-1,-120,5,2
1491088710525,3,-18,99,67,-59,-11,80,-114,-2
1491088710525,3,-95,-84,-86,-66,-58,97,34,-30
1491088710526,1,-72,-112,-62,-27,-36,-16,-105,-21
1491088710526,1,-33,20,69,34,20,-68,13,4
1491088710561,2,76,-28,-108,-6,-34,-14,-20,-3
1491088710561,2,-109,110,127,-2,5,57,-48,13
1491088710562,3,52,-9,-116,8,17,-4,127,15
1491088710562,3,2,62,-93,-32,-41,-51,-46,-4
1491088710563,0,25,-51,94,48,31,20,50,-7
1491088710563,0,22,89,47,51,-5,-26,37,10
1491088710564,1,-105,-101,-48,-57,-26,55,-59,-5
1491088710564,1,61,14,-73,52,-13,52,1,3
1491088710599,2,-63,-9,84,-52,32,-89,43,-6
1491088710599,2,7,60,39,-14,-63,93,-15,7
1491088710600,3,61,-71,-37,36,11,-63,97,10
1491088710600,3,86,80,95,-44,-2,-102,-97,5
1491088710600,0,-128,-107,33,-8,33,-3,-108,-24
1491088710600,0,28,28,20,-6,3,15,92,11
1491088710601,1,-85,-20,-113,-20,-64,-8,-104,-15
1491088710601,1,104,-3,70,-16,22,-93,11,10
1491088710636,2,14,127,107,-21,6,27,5,10
1491088710636,2,-67,-109,-28,-4,-3,-81,21,-31
1491088710638,3,63,-50,-76,46,11,-38,63,23
1491088710638,3,-83,53,88,-3,-27,96,27,-23
1491088710638,0,-3,41,-128,14,-25,72,-116,15
1491088710638,0,52,-11,6,-94,20,77,72,-6
1491088710639,1,-52,-52,110,79,28,-39,-39,-17
1491088710639,1,39,43,-112,2,0,71,-19,26
1491088710674,2,8,-73,-14,-42,-13,-113,17,-15
1491088710674,2,-37,51,47,94,11,-46,-26,10
1491088710675,3,71,42,45,-73,2,-64,-60,-12
1491088710675,3,-48,-105,-51,4,-2,-77,36,7
1491088710675,0,-97,23,38,21,6,-86,-91,-12
1491088710675,0,70,-39,-10,-41,-32,-119,25,-10
1491088710676,1,-62,24,22,-11,-8,118,2,-9
1491088710676,1,43,3,62,70,-11,93,51,12
1491088710711,2,-128,-113,-128,-126,-34,127,77,-11
1491088710711,2,65,33,95,30,26,19,32,1
1491088710713,3,32,85,81,84,11,-74,-20,-8
1491088710713,3,21,1,-80,-62,44,-128,-5,20
1491088710713,0,-5,30,127,95,-31,-70,-53,2
1491088710713,0,-113,-85,-128,-25,-63,116,-116,-10
1491088710715,1,112,-39,31,-59,29,-42,-40,-3
1491088710715,1,55,-120,63,65,-13,10,-123,5
1491088710749,2,11,116,39,-52,-2,-47,127,-1
1491088710749,2,-88,-120,42,39,61,33,-121,-5
1491088710750,3,-12,20,-112,-27,33,39,48,15
1491088710750,3,23,-53,127,14,-37,18,-48,-5
1491088710751,0,27,5,-128,59,-18,-23,-15,1
1491088710751,0,51,84,12,-15,2,-66,91,10
1491088710751,1,-75,-77,65,-43,-45,63,42,-4
1491088710751,1,57,-29,-105,-54,45,-68,-70,11
1491088710786,2,-90,-128,29,-26,-46,41,-61,-27
1491088710786,2,97,70,-2,-8,16,-18,34,6
1491088710794,3,26,77,86,36,-53,79,-74,11
1491088710794,3,-108,-81,-111,-29,-7,40,127,-14
1491088710795,0,111,-31,-45,29,32,-41,98,5
1491088710795,0,-110,-17,-34,-2,1,-87,-106,-8
1491088710796,1,58,127,64,66,30,56,-7,13
1491088710796,1,-49,-19,-128,-1,-19,31,-96,-16
1491088710824,2,95,32,118,17,30,1,63,16
1491088710824,2,-33,-31,30,13,-30,41,-59,-7
1491088710825,3,-72,14,-21,-3,-6,-2,44,-6
1491088710825,3,13,65,122,23,25,-20,-47,13
1491088710825,0,12,-10,-128,-110,0,77,86,0
1491088710825,0,24,81,127,-30,2,11,13,9
1491088710826,1,-63,-94,-113,33,10,-19,112,-3
1491088710826,1,-53,-46,-22,-55,30,-17,-26,-26
1491088710861,2,11,-2,-71,-31,-23,47,86,11
1491088710861,2,107,12,-72,-11,-1,127,-70,23
1491088710862,3,-10,32,76,-7,-8,-45,-64,-10
1491088710862,3,-105,-21,-19,22,-5,-82,121,-22
1491088710863,0,110,109,127,37,25,-94,5,9
1491088710863,0,-96,-128,-88,28,10,10,15,-10
1491088710864,1,-64,-78,37,-14,-37,-59,-90,-17
1491088710864,1,69,112,-6,-21,0,71,-19,13
1491088710899,2,22,55,24,7,-49,110,-128,-9
1491088710899,2,-26,-79,-114,-33,44,-30,-12,37
1491088710900,3,33,44,127,107,45,111,51,0
1491088710900,3,8,-34,22,-16,-34,76,-46,9
1491088710901,0,-111,-96,-119,-3,-20,42,36,-14
1491088710901,0,127,120,116,22,18,-18,65,1
1491088710902,1,-68,-128,24,-17,-21,-35,51,-35
1491088710902,1,-92,-31,-16,16,-17,-35,50,-14
1491088710936,2,-30,104,85,90,71,-64,5,0
1491088710936,2,8,65,87,2,-23,-56,28,-11
1491088710937,3,-9,-4,-128,25,-23,-68,57,9
1491088710937,3,99,6,85,97,2,-100,-6,-12
1491088710938,0,-128,-128,-58,-33,18,-117,-110,-14
1491088710938,0,-13,-68,-50,-27,15,-25,1,-29
1491088710974,1,54,25,108,23,5,-49,80,20
1491088710974,1,-47,-11,-89,-10,-4,-18,7,16
1491088710975,2,11,-16,112,73,-15,102,-48,-11
1491088710975,2,-100,-36,-109,-77,9,29,-2,-9
1491088710975,3,95,47,21,34,-51,-11,14,14
1491088710975,3,-111,4,94,-32,22,-4,-33,-34
1491088710976,0,21,8,-98,-25,-27,-124,-16,21
1491088710976,0,67,4,67,-38,-4,-72,27,38
1491088711049,1,-128,-22,28,-44,33,19,-110,-32
1491088711049,1,-1,-66,-86,-32,-40,22,60,8
1491088711050,2,85,99,53,-38,28,103,61,8
1491088711050,2,-90,-113,-21,-52,9,20,3,-5
1491088711051,3,67,-94,-26,-92,-47,-23,-50,6
1491088711051,3,-46,-7,3,16,11,1,-24,3
1491088711051,0,47,-18,59,-67,24,-15,59,20
1491088711051,0,4,-17,-128,44,2,-54,-2,5
1491088711086,1,21,90,108,-42,9,59,-2,1
1491088711086,1,-70,-119,-57,-6,-8,69,-44,-20
1491088711087,2,47,85,-111,-88,-29,35,42,-3
1491088711087,2,0,77,104,62,9,14,13,-8
1491088711088,3,-4,52,-128,-73,41,5,-36,23
1491088711088,3,100,83,125,56,-43,25,-4,-6
1491088711089,1,2,77,-128,-14,-27,4,-15,3
1491088711089,1,62,-25,51,-45,-7,4,73,15
1491088711124,2,-56,-128,-62,-100,14,-6,-10,-2
1491088711124,2,51,70,28,75,11,11,-58,-1
1491088711125,3,-55,-69,-94,15,-35,-14,68,0
1491088711125,3,-58,58,-100,-41,80,-3,-6,9
1491088711125,0,3,-69,112,69,-29,-4,-14,-5
1491088711125,0,-38,-128,39,9,-12,1,-13,-13
1491088711126,1,69,-122,-74,32,29,-12,-35,-16
1491088711126,1,2,-124,19,22,25,3,44,24
1491088711161,2,-98,37,54,105,-17,1,-8,-10
1491088711161,2,-4,64,-81,-4,-17,-1,-13,-10
1491088711162,3,125,7,127,89,31,-1,28,35
1491088711162,3,-71,56,-128,-57,-40,-4,-74,-26
1491088711163,0,-39,124,-38,0,48,-4,112,-7
1491088711163,0,42,59,-1,-52,-4,-3,4,8
1491088711164,1,-128,-9,75,-59,-50,-4,-8,-10
1491088711164,1,110,-33,-47,13,-2,0,-29,3
1491088711199,2,-13,-99,73,-5,-31,-7,-59,15
1491088711199,2,11,16,-128,-56,-9,1,-2,-14
1491088711200,3,-62,-6,50,62,21,-4,29,-5
1491088711200,3,-28,48,113,75,10,2,3,-11
1491088711200,0,-8,67,-23,24,-51,-3,-18,-5
1491088711200,0,-55,-77,-86,-52,-18,0,24,-1
1491088711201,1,25,87,-1,53,1,-2,14,1
1491088711201,1,-83,31,62,17,71,-3,-48,-5
1491088711236,2,2,112,-54,93,-14,-3,42,9
1491088711236,2,-1,103,127,-4,-17,0,18,5
1491088711237,3,-87,-55,-128,15,6,-3,-3,-14
1491088711237,3,43,17,50,-17,-4,-2,14,5
1491088711238,0,-2,-90,52,21,-52,0,-9,-7
1491088711238,0,78,19,-103,1,21,-3,13,20
1491088711239,1,-22,-35,-117,-43,-32,-3,-11,-16
1491088711239,1,22,-38,115,-15,58,-1,36,-6
1491088711274,2,99,92,89,23,25,-2,65,1
1491088711274,2,32,-22,75,23,-22,1,-7,-9
1491088711275,3,-15,-75,-70,-30,6,0,21,-5
1491088711275,3,16,-7,-128,-51,-49,-4,-35,-4
1491088711275,0,-14,15,84,-17,47,-3,-6,-1
1491088711275,0,-33,21,-108,52,-31,0,-19,-4
1491088711276,1,17,47,12,-26,67,-6,4,4
1491088711276,1,45,-13,24,2,-33,2,43,2
1491088711311,2,-22,-86,-128,1,-66,-4,-35,-1
1491088711311,2,-6,40,110,-22,15,1,45,0
1491088711312,3,35,113,127,-6,36,-5,98,-2
1491088711312,3,-82,-48,-52,1,-8,-3,83,-1
1491088711313,0,-51,-54,-88,100,-51,-4,59,-6
1491088711313,0,-128,-92,-117,89,3,-2,82,-11
1491088711314,1,-24,64,92,102,17,-1,66,7
1491088711314,1,-37,-6,65,78,-18,-4,11,-1
1491088711349,2,-90,1,-23,-69,39,-2,-66,-4
1491088711349,2,-42,-125,-88,-28,-42,1,-40,-6
1491088711350,3,-13,17,92,-74,-41,2,29,-14
1491088711350,3,71,26,82,94,1,-2,89,-6
1491088711351,0,70,20,127,-27,81,1,59,5
1491088711351,0,-57,-66,-69,-5,11,-3,-2,-12
1491088711351,1,20,-107,-128,-74,-35,-2,-121,9
1491088711351,1,-113,-105,-118,-87,-14,-2,-41,22
1491088711386,2,54,51,88,-74,19,1,-57,15
1491088711386,2,127,37,127,49,69,-5,-3,15
1491088711387,3,35,-20,53,-40,42,5,-28,1
1491088711387,3,-34,-69,-93,-77,-1,-1,15,3
1491088711388,0,-95,-54,-104,-95,-12,0,47,-12
1491088711388,0,-28,66,106,-8,19,-6,2,19
1491088711389,1,115,115,76,76,27,-3,9,-2
1491088711389,1,-55,127,-68,11,-26,2,-53,-1
1491088711424,2,10,-48,-128,-29,-35,-3,-66,-10
1491088711424,2,71,17,79,16,-38,0,-127,-3
1491088711425,3,-23,-116,-60,-34,-37,-4,19,-8
1491088711425,3,127,78,59,9,69,-3,-14,-18
1491088711425,0,10,74,64,73,-12,-6,-100,-5
1491088711425,0,45,97,-14,-54,22,7,-29,-8
1491088711426,1,-84,-68,77,127,-23,-2,-22,31
1491088711426,1,-125,-29,-78,1,-1,4,31,-10
1491088711462,2,-112,-121,-16,-18,-7,-7,-2,-18
1491088711462,2,-128,-109,-108,-89,-14,-5,-98,-7
1491088711462,3,-103,35,54,37,-46,-2,-128,32
1491088711462,3,-102,33,42,-103,-1,-2,-128,-3
1491088711463,0,-27,90,63,51,-46,1,-128,19
1491088711463,0,-80,-11,15,5,-50,-1,73,20
1491088711464,1,87,10,-128,-127,-94,-5,107,-9
1491088711464,1,90,26,-35,-56,36,-5,127,66
1491088711499,2,42,-3,60,36,-66,0,108,28
1491088711499,2,-6,-128,-50,-8,70,-6,92,9
1491088711505,3,7,-94,-73,-97,-6,-2,85,3
1491088711505,3,127,-20,127,127,19,2,127,-3
1491088711510,0,35,27,18,-46,89,-4,114,2
1491088711510,0,33,40,113,83,-56,0,-81,-7
1491088711536,1,49,-36,108,3,103,-4,-40,1
1491088711536,1,42,-106,34,-15,77,-2,-58,1
1491088711537,2,39,-54,-33,-12,30,1,-20,38
1491088711537,2,33,-27,-11,56,103,-1,77,45
1491088711538,3,15,36,-21,31,34,-2,-75,92
1491088711538,3,-5,-12,7,-7,-17,1,-74,74
1491088711539,0,29,-42,36,8,62,-1,-6,58
1491088711539,0,33,-10,-127,-71,-8,1,-4,9
1491088711574,1,-8,-38,-87,-40,50,-6,91,-49
1491088711574,1,-3,84,24,67,33,-4,-115,-38
1491088711575,2,29,51,41,-57,-94,2,-113,-97
1491088711575,2,10,91,79,75,51,-5,-98,-79
1491088711575,3,-13,-5,-43,12,-20,4,-104,-72
1491088711575,3,-1,-53,-65,-12,18,-5,76,-26
1491088711576,0,13,-128,-65,7,59,-2,99,-11
1491088711576,0,-7,-115,1,-22,-73,-6,61,-29
1491088711611,1,-6,-73,21,-36,27,3,52,-29
1491088711611,1,7,-46,-107,-57,-128,2,46,-47
1491088711612,2,4,-72,-97,-59,-4,-4,-9,-41
1491088711612,2,-2,-90,18,-23,-108,0,56,-23
1491088711613,3,20,18,-1,74,15,3,-17,-20
1491088711613,3,40,42,91,-23,-53,0,-74,-15
1491088711614,0,74,23,-38,-8,1,-2,49,-17
1491088711614,0,27,-42,-27,-12,19,0,75,-21
1491088711649,1,82,105,69,22,-46,1,-84,-12
1491088711649,1,33,-8,-12,15,-53,2,-101,-21
1491088711650,2,24,60,-22,34,-29,-5,-68,-6
1491088711650,2,13,23,-1,-26,-12,-1,53,-6
1491088711651,3,-12,69,-14,-51,-24,0,52,-7
1491088711651,3,-5,-16,-48,-43,-5,-8,-68,-2
1491088711686,0,-20,35,70,-43,-6,2,-50,-23
1491088711686,0,47,93,26,85,58,-3,12,11
1491088711687,1,-34,11,-46,-45,-17,-3,66,3
1491088711687,1,-19,45,-54,15,-13,-8,115,-7
1491088711688,2,-69,-51,-122,-34,-26,-4,78,-4
1491088711688,2,-15,-10,-90,-22,-28,1,31,-2
1491088711689,3,29,33,52,36,-1,-4,109,5
1491088711689,3,18,37,46,21,-6,5,49,-10
1491088711724,0,6,12,-3,26,-13,0,-15,6
1491088711724,0,-8,4,62,18,-8,-2,-10,-1
1491088711725,1,-4,82,45,19,29,2,-98,9
1491088711725,1,-43,-108,-112,-36,-47,1,-11,-8
1491088711726,2,1,75,52,41,80,0,24,4
1491088711726,2,14,31,-22,-18,-31,0,-3,1
1491088711727,3,-9,-46,-42,4,-32,-5,38,-3
1491088711727,3,-18,7,100,13,43,-2,62,1
1491088711762,0,11,-47,18,-5,19,0,30,4
1491088711762,0,-27,-61,24,-39,-1,-3,1,-4
1491088711763,1,-31,-24,26,-6,29,-5,18,-3
1491088711763,1,28,48,34,34,9,-3,32,2
1491088711764,2,8,50,28,8,-7,3,13,-1
1491088711764,2,17,-3,-52,-30,-74,-1,-16,2
1491088711764,3,-20,-40,-11,-15,24,-3,11,-7
1491088711764,3,-31,-34,-86,3,1,-7,19,-8
1491088711799,0,50,84,77,49,28,-3,6,9
1491088711799,0,-16,-10,49,-17,2,-6,-9,2
1491088711800,1,-43,13,23,31,-4,0,10,9
1491088711800,1,17,32,44,-6,3,1,53,7
1491088711801,2,7,-30,-18,-3,-7,-9,9,1
1491088711801,2,-9,-53,-102,-23,-1,-4,-15,3
1491088711836,3,-68,-9,-19,-22,-10,-1,-22,-9
1491088711836,3,-34,-62,-51,22,-13,0,-24,5
1491088711837,0,-28,-48,121,25,3,-1,46,-5
1491088711837,0,73,94,46,7,17,-8,43,9
1491088711838,1,26,-74,-90,-19,-11,-4,65,-6
1491088711838,1,-2,23,54,15,28,-2,13,4
1491088711839,2,-1,-64,-106,-1,-17,-1,20,0
1491088711839,2,-25,-17,38,14,7,1,107,1
1491088711874,3,-34,-42,-33,-44,-37,-4,18,-14
1491088711874,3,-28,-21,-38,22,29,4,18,-2
1491088711875,0,9,59,41,0,-16,-2,-60,11
1491088711875,0,-28,-38,-64,-16,7,0,15,-5
1491088711875,1,64,15,5,0,-12,-4,-76,2
1491088711875,1,-48,-60,-59,-34,-14,-4,-35,-8
1491088711876,2,-28,-11,-63,-16,12,-2,-40,7
1491088711876,2,43,89,12,16,-5,3,9,7
1491088711911,3,87,92,114,36,38,-3,60,2
1491088711911,3,-69,-68,35,22,-22,0,40,3
1491088711913,0,61,105,19,-16,-17,4,0,-3
1491088711913,0,-61,-5,-37,13,-21,-6,-76,-7
1491088711913,1,-28,-104,23,-8,29,1,54,1
1491088711913,1,47,54,27,-32,-11,1,-17,6
1491088711914,2,-96,-49,-57,-1,-2,-2,54,-9
1491088711914,2,33,-89,51,7,-22,4,-4,-5
1491088711949,3,-83,21,-1,24,8,-1,-53,-2
1491088711949,3,15,80,127,18,21,-9,0,18
1491088711950,0,35,5,-15,-38,-37,-5,-72,-13
1491088711950,0,9,24,-87,8,31,-3,-20,3
1491088711951,1,-75,-80,11,-13,-15,-1,15,0
1491088711951,1,12,-39,-35,-58,-22,0,22,-13
1491088711986,2,13,-61,-25,47,16,-2,100,6
1491088711986,2,47,64,88,5,-11,3,-116,10
1491088711987,3,-29,20,-15,3,8,-3,-24,2
1491088711987,3,94,102,44,5,-22,-1,-29,-2
1491088711988,0,-96,-28,-23,-32,2,3,79,-2
1491088711988,0,-59,-110,-32,-34,11,1,-34,5
1491088711989,1,28,-24,44,37,-2,3,64,-5
1491088711989,1,80,81,73,22,10,6,52,9
1491088712024,2,44,-24,-78,9,-2,0,73,1
1491088712024,2,-46,-36,-45,-34,9,1,127,1
1491088712025,3,64,53,35,-5,-19,1,-13,11
1491088712025,3,38,-15,-128,-33,9,-3,16,-13
1491088712026,0,46,-1,85,-10,1,6,-96,18
1491088712026,0,2,-12,36,19,23,0,35,-3
1491088712026,1,35,-58,48,-12,-14,-2,-42,-1
1491088712026,1,-58,77,-20,21,-5,-1,-92,-2
1491088712061,2,53,75,-12,58,19,-1,-81,15
1491088712061,2,5,9,60,24,2,-3,5,-25
1491088712063,3,75,91,-58,-21,-27,-4,-50,16
1491088712063,3,-128,-98,27,-22,-2,-4,-70,-6
1491088712063,0,-45,-128,-115,-3,-9,-3,94,-13
1491088712063,0,14,62,-51,1,6,31,-82,1
1491088712064,1,-73,-94,24,-16,-23,-43,10,-20
1491088712064,1,39,-33,42,14,6,-12,69,9
1491088712099,2,58,88,91,2,6,-26,18,14
1491088712099,2,-56,-64,-72,-55,-18,-2,36,-24
1491088712100,3,-9,31,55,31,-8,11,-6,-5
1491088712100,3,3,-6,-93,33,8,110,4,-9
1491088712101,0,-52,85,127,24,12,111,73,0
1491088712101,0,-36,-27,-36,-2,-18,-95,-102,1
1491088712136,1,33,44,-123,-6,11,-2,1,5
1491088712136,1,-15,-58,122,46,-22,-75,27,1
1491088712137,2,124,51,-122,-33,-14,-114,2,3
1491088712137,2,-83,-47,30,-79,-29,-92,-5,-1
1491088712138,3,-5,-47,29,-11,12,-117,5,-4
1491088712138,3,47,-18,-3,16,2,-109,-4,-11
1491088712139,0,39,59,127,41,3,-61,-49,20
1491088712139,0,-36,-85,-101,-33,-23,-19,49,-20
1491088712174,1,-22,-58,-53,19,9,-10,-35,5
1491088712174,1,92,102,-12,-38,-8,44,-38,5
1491088712175,2,-128,-124,-51,-30,4,70,-1,-30
1491088712175,2,46,-4,37,59,4,-1,54,15
1491088712175,3,8,21,-66,-40,13,107,-53,-8
1491088712175,3,64,43,78,4,23,-26,108,7
1491088712176,0,-30,44,-30,-9,-9,-37,-128,-13
1491088712176,0,80,23,-67,18,-20,-38,15,11
1491088712211,1,-87,-73,7,-15,-23,-118,127,-1
1491088712211,1,-77,-11,3,16,9,-86,-30,10
1491088712212,2,47,20,101,-8,24,-115,74,-1
1491088712212,2,64,78,127,34,36,1,-16,2
1491088712213,3,-38,29,-112,11,9,38,86,2
1491088712213,3,17,-126,6,-60,-23,46,-19,4
1491088712214,0,-65,3,-107,3,-7,100,52,-3
1491088712214,0,41,5,98,-18,-13,127,-2,9
1491088712249,1,96,-12,48,64,0,68,-32,16
1491088712249,1,19,3,-15,-1,-20,1,-17,-7
1491088712249,2,27,-86,-115,-50,-19,-70,47,-8
1491088712249,2,0,89,88,-5,33,-19,14,23
1491088712251,3,-21,113,65,-19,39,58,-10,-35
1491088712251,3,94,35,-18,16,-9,40,-95,10
1491088712286,0,19,-105,-85,-39,-39,60,18,-5
1491088712286,0,12,5,-52,-6,-5,-41,-68,-11
1491088712288,1,11,-58,-66,-4,22,-63,47,7
1491088712288,1,-66,-38,60,93,63,-46,108,-4
1491088712289,2,-2,74,102,120,34,-123,-121,-11
1491088712289,2,127,-34,-3,127,16,26,-9,0
1491088712290,3,-70,82,-76,2,-14,-12,13,-16
1491088712290,3,77,77,14,-13,-16,109,54,6
1491088712324,0,-43,3,76,-10,-1,76,-50,-4
1491088712324,0,73,44,72,9,-6,-22,54,-5
1491088712327,1,127,68,52,34,-11,85,4,11
1491088712327,1,-26,-84,-96,-21,-32,16,-62,-12
1491088712329,2,22,-45,-29,-15,-12,-25,30,2
1491088712329,2,-124,1,-30,-80,-8,-17,-69,-1
1491088712332,3,109,41,27,-73,-28,-97,10,0
1491088712332,3,50,-13,-29,-107,-14,-83,-51,3
1491088712362,0,-53,-85,8,-70,4,-51,73,-5
1491088712362,0,72,-34,-53,-19,18,-48,-27,-10
1491088712362,1,-63,-93,-53,-58,15,-29,-8,6
1491088712362,1,-37,52,57,-3,32,6,127,7
1491088712365,2,87,-43,0,-19,35,-45,-51,0
1491088712365,2,-22,-113,-40,-21,4,12,89,4
1491088712399,3,-2,-87,101,19,0,-21,-83,5
1491088712399,3,52,23,-39,15,-20,-38,-81,-15
1491088712401,0,80,92,85,37,-23,-16,-87,12
1491088712401,0,-88,97,-24,-25,-9,48,77,-5
1491088712402,1,87,84,-41,-9,-5,-45,-105,0
1491088712402,1,-128,-12,-57,-33,-35,-34,-87,-38
1491088712402,2,23,79,0,37,13,84,39,13
1491088712402,2,-72,-7,42,44,-1,31,-47,-5
1491088712436,3,-23,-27,-31,1,-41,21,51,-5
1491088712436,3,-10,-45,2,-6,34,-31,47,0
1491088712438,0,36,53,-28,-29,-13,-6,-62,1
1491088712438,0,-45,-119,-28,-15,-25,-23,19,-5
1491088712439,1,-23,-26,-20,5,-9,-29,-20,-4
1491088712439,1,-8,66,26,14,9,-7,65,15
1491088712440,2,61,-57,-2,35,-10,29,14,3
1491088712440,2,-62,90,-20,-37,-8,52,-7,-11
1491088712474,3,-63,-11,56,18,24,38,-73,4
1491088712474,3,78,0,63,46,16,-2,121,15
1491088712475,0,-114,-93,-58,-67,-18,30,-77,-20
1491088712475,0,35,-13,88,53,6,6,31,10
1491088712476,1,30,30,11,5,-32,15,15,4
1491088712476,1,56,-15,-79,19,-7,-29,4,2
1491088712476,2,-62,26,-1,-41,6,1,75,-4
1491088712476,2,4,-37,-107,4,10,-42,-52,-1
1491088712512,3,-128,22,113,18,49,40,127,-2
1491088712512,3,71,66,77,53,12,64,53,10
1491088712513,0,-22,-37,23,55,-5,-79,-80,7
1491088712513,0,-13,1,-38,-62,-49,-34,-71,-12
1491088712515,1,105,-48,-89,-20,13,-19,85,16
1491088712515,1,15,60,31,-23,9,-24,-90,-17
1491088712549,2,-128,-95,37,28,7,-3,43,0
1491088712549,2,57,26,-6,5,18,-50,-44,-1
1491088712550,3,-38,-15,-40,-36,-12,-45,58,-5
1491088712550,3,-75,-76,-110,-5,0,-38,-24,-1
1491088712551,0,127,127,94,-7,3,-20,5,16
1491088712551,0,-45,-115,-82,-40,13,-13,-18,-14
1491088712552,1,124,95,46,56,-1,40,54,21
1491088712552,1,-52,19,-61,-45,-24,-5,-67,-1
1491088712586,2,-107,-112,-102,-54,-22,26,-58,-26
1491088712586,2,27,118,10,20,-8,-1,22,0
1491088712587,3,70,-25,72,22,1,-53,0,-7
1491088712587,3,-102,-54,14,-28,-3,88,-115,-6
1491088712588,0,-27,-23,60,32,14,-51,-47,2
1491088712588,0,-9,-61,-41,-50,-10,79,23,-6
1491088712589,1,59,25,82,68,-14,-61,-28,-2
1491088712589,1,70,-104,-111,-13,-29,2,-75,-7
1491088712624,2,86,106,114,-22,22,-7,127,-1
1491088712624,2,-114,-43,127,73,13,68,-36,-13
1491088712626,3,76,53,7,19,16,-82,-71,11
1491088712626,3,-63,-112,-46,-35,14,32,90,-24
1491088712627,0,79,92,-128,18,-57,57,14,14
1491088712627,0,-18,-30,-32,-81,28,-81,-33,-7
1491088712628,1,-103,-2,54,-8,-44,127,-49,-11
1491088712628,1,57,87,84,100,64,-76,-55,20
1491088712661,2,-83,-109,-110,-54,-28,-7,8,-19
1491088712661,2,127,127,124,57,-25,16,-8,26
1491088712662,3,-78,-128,-128,-100,-9,27,55,-20
1491088712662,3,39,119,121,-28,12,-68,58,12
1491088712663,0,-92,-115,-82,62,30,93,-11,-9
1491088712663,0,107,101,88,-1,-18,-27,14,5
1491088712699,1,-93,-93,21,-73,-14,-100,-46,-14
1491088712699,1,-28,-56,-58,-18,-24,-71,111,3
1491088712700,2,88,117,40,19,-16,33,-66,2
1491088712700,2,-37,-92,-106,-4,29,87,127,17
1491088712701,3,96,127,86,26,-2,95,-54,-5
1491088712701,3,-96,-116,-79,4,-19,81,29,-5
1491088712701,0,-45,9,-43,-43,49,-33,46,2
1491088712701,0,35,78,24,24,-11,29,76,-5
1491088712736,1,107,30,47,19,46,-73,-107,28
1491088712736,1,-39,-60,22,-7,-14,-56,-8,-18
1491088712737,2,-36,-120,-59,-12,-11,8,-6,-11
1491088712737,2,81,44,20,-41,-10,46,-91,8
1491088712738,3,-48,88,28,40,52,81,84,-10
1491088712738,3,-5,-35,44,77,-20,74,-60,11
1491088712739,0,-79,-82,-15,-101,-61,75,-53,-55
1491088712739,0,59,9,11,31,48,-126,27,15
1491088712774,1,-2,-34,14,-29,-58,-22,-58,-17
1491088712774,1,-44,-8,-17,-33,23,-9,-16,-9
1491088712775,2,110,-63,127,-19,17,-14,44,15
1491088712775,2,-58,-54,-128,67,-24,5,127,-6
1491088712776,3,-107,-80,82,12,22,58,-44,-9
1491088712776,3,-26,4,-98,8,3,-68,39,-9
1491088712776,0,106,127,124,-41,-12,-81,-107,33
1491088712776,0,41,-109,67,63,-6,-9,-60,-17
1491088712811,1,-22,-38,-86,-40,56,-16,77,9
1491088712811,1,82,111,121,50,-30,26,-36,19
1491088712812,2,-102,-101,-50,-33,-22,92,-28,12
1491088712812,2,-17,19,127,-41,-21,-23,41,39
1491088712813,3,-8,31,-6,11,4,-49,57,29
1491088712813,3,11,-53,0,-20,8,56,-59,-9
1491088712849,0,-45,-2,127,45,21,-29,95,28
1491088712849,0,-85,-128,-99,46,3,-71,53,-11
1491088712850,1,9,59,-20,0,-58,51,30,29
1491088712850,1,-8,-50,77,-36,7,26,-21,17
1491088712850,2,-71,46,-11,-28,31,90,117,-11
1491088712850,2,-128,-111,-128,-81,-9,-37,-18,-7
1491088712851,3,22,54,41,59,-39,80,-38,-5
1491088712851,3,47,77,127,38,8,-37,-22,7
1491088712886,0,116,-72,-128,127,2,-89,35,10
1491088712886,0,53,124,95,-128,-28,80,-73,12
1491088712887,1,-70,-2,24,-81,3,34,-3,-10
1491088712887,1,16,-67,-74,-9,1,127,127,-6
1491088712888,2,54,95,93,3,-39,39,-56,8
1491088712888,2,46,106,-75,122,-2,-47,91,8
1491088712889,3,-60,-119,-81,16,4,-51,-12,-18
1491088712889,3,-21,-30,91,-118,-17,-40,-75,5
1491088712924,0,-13,-12,-90,24,4,-128,127,-14
1491088712924,0,-36,-101,42,42,16,-51,-8,-16
1491088712925,1,104,102,65,23,58,44,-91,12
1491088712925,1,-113,-1,-118,-61,-70,-23,93,-21
1491088712925,2,-35,-89,0,-63,10,115,-45,-46
1491088712925,2,4,49,-35,-20,-3,77,-128,-1
1491088712926,3,-125,-51,37,-22,-33,-10,83,-20
1491088712926,3,-60,-95,-86,30,59,-27,-5,-9
1491088712961,0,127,115,-47,29,-39,-26,81,23
1491088712961,0,-64,66,-32,-97,-35,32,-77,-50
1491088712962,1,-71,-128,-30,57,18,-32,12,-41
1491088712962,1,3,20,52,-17,-11,13,28,-39
1491088712963,2,64,81,-22,-40,3,26,-108,-24
1491088712963,2,-36,-128,48,90,54,-15,90,-43
1491088712999,3,71,-22,-74,-8,-63,-73,-24,-13
1491088712999,3,-93,21,-24,28,6,32,109,-72
1491088713000,0,-128,-118,127,7,-19,44,-109,-88
1491088713000,0,119,-32,-100,-46,63,-74,73,-53
1491088713000,1,116,73,97,27,23,-36,-33,-4
1491088713000,1,-97,-108,-6,-22,-34,-18,-47,-29
1491088713001,2,-6,49,-122,-12,38,-6,-29,-9
1491088713001,2,63,-4,127,-2,-29,46,0,24
1491088713036,3,58,-18,-34,-33,16,27,26,-2
1491088713036,3,20,11,-95,34,-55,-9,-71,25
1491088713037,0,67,127,127,29,61,-36,89,42
1491088713037,0,27,-48,11,28,-35,111,-128,39
1491088713038,1,-65,-92,-103,-22,-18,46,11,-2
1491088713038,1,104,127,127,51,-58,23,22,48
1491088713039,2,-85,-73,-64,28,25,-34,-78,10
1491088713039,2,25,-28,-23,-4,7,-26,113,31
1491088713074,3,100,21,68,42,11,-7,5,34
1491088713074,3,-38,-70,-128,-112,35,2,-5,7
1491088713076,0,19,41,127,47,25,-24,9,19
1491088713076,0,36,18,87,51,-33,-4,0,15
1491088713077,1,-39,56,-100,-23,-38,3,-43,-9
1491088713077,1,26,-48,38,5,8,-18,-41,6
1491088713078,2,-73,54,-71,18,-1,-5,71,-6
1491088713078,2,-117,-64,101,-127,-35,7,-13,-19
1491088713112,3,67,67,-92,-81,-18,-13,-22,25
1491088713112,3,99,-5,127,-39,51,-4,114,6
1491088713115,0,-4,-61,-29,-67,-22,0,-43,12
1491088713115,0,-21,54,49,-79,35,6,9,2
1491088713117,1,-128,-128,-81,92,-84,-7,-66,-11
1491088713117,1,-30,0,55,-9,12,2,74,1
1491088713150,2,47,19,82,19,14,4,27,20
1491088713150,2,47,-93,-107,31,-35,-7,-57,3
1491088713151,3,47,65,-60,-46,32,3,6,10
1491088713151,3,27,86,75,-6,26,2,1,29
1491088713153,0,-95,-128,-76,-99,-17,-1,-81,-19
1491088713153,0,27,17,127,25,23,-6,-20,-5
1491088713154,1,-29,35,-40,-3,41,2,40,-4
1491088713154,1,127,-39,-56,-45,-43,3,-7,27
1491088713186,2,-28,82,-55,59,38,-6,59,-3
1491088713186,2,11,69,-101,48,-45,2,14,6
1491088713187,3,-122,-52,98,35,-3,5,-5,-19
1491088713187,3,-68,77,67,103,2,2,-43,-16
1491088713188,0,40,39,65,1,-46,0,12,17
1491088713188,0,-23,-63,-126,-92,-3,3,-48,-26
1491088713189,1,-86,-54,43,102,-20,-4,9,-14
1491088713189,1,40,67,29,-66,45,-12,-41,6
1491088713224,2,38,-28,127,93,-23,-3,16,26
1491088713224,2,-72,-4,-90,1,-26,1,-10,-7
1491088713225,3,-24,20,127,-90,88,2,63,-5
1491088713225,3,-75,-108,8,74,3,0,-48,-3
1491088713226,0,74,-76,-98,-10,-12,-1,-1,9
1491088713226,0,-97,-38,119,-12,60,-4,54,-30
1491088713226,1,30,-128,-65,-71,1,-1,-14,-19
1491088713226,1,90,127,113,127,-32,4,16,2
1491088713261,2,-73,-60,-30,57,6,2,6,-17
1491088713261,2,-54,63,-70,-74,12,-3,-6,1
1491088713262,3,27,-71,22,-40,1,-2,-11,3
1491088713262,3,17,-57,17,-6,-25,-1,1,13
1491088713263,0,61,61,-71,-46,0,2,-11,21
1491088713263,0,2,-23,109,127,15,-2,28,24
1491088713299,1,55,50,-85,-87,-17,5,26,26
1491088713299,1,-34,-57,-40,82,-6,-1,-63,-3
1491088713309,2,-92,-55,-84,38,-44,7,-27,-13
1491088713309,2,45,77,81,-1,59,-1,16,0
1491088713309,3,54,79,15,29,-11,-4,28,2
1491088713309,3,-54,-128,-57,-57,2,1,-3,-18
1491088713310,0,4,41,-48,-118,19,-3,29,-15
1491088713310,0,-39,-65,-69,-6,-49,3,-28,2
1491088713336,1,-5,-50,18,70,-18,-3,5,-10
1491088713336,1,34,127,6,66,55,-2,-9,-4
1491088713337,2,45,-24,-8,-27,8,-2,-5,6
1491088713337,2,40,22,-76,75,-68,-5,-42,11
1491088713338,3,-56,-60,-101,-21,-24,-2,-33,-4
1491088713338,3,-6,-6,-88,33,7,-4,56,-23
1491088713339,0,-7,-58,80,127,-24,-1,46,-17
1491088713339,0,-47,-101,-60,-62,1,1,15,-16
1491088713374,1,58,36,2,-21,-45,1,64,-2
1491088713374,1,29,103,96,-81,58,4,54,8
1491088713375,2,-18,-27,54,-98,-64,-3,5,-7
1491088713375,2,-13,-10,-113,-99,97,-1,-34,12
1491088713376,3,40,-75,-27,5,-20,2,10,-2
1491088713376,3,-78,36,-79,-90,-10,3,-28,-13
1491088713411,0,38,80,72,-88,70,-4,-33,-1
1491088713411,0,6,30,67,-26,-57,0,45,4
1491088713412,1,-48,-67,-29,-41,81,3,-14,-7
1491088713412,1,4,-55,-14,-44,-7,0,17,-4
1491088713413,2,34,99,104,-45,15,1,80,-2
1491088713413,2,-6,31,14,44,14,-5,7,-14
1491088713414,3,-18,-12,46,-90,41,-4,-27,-9
1491088713414,3,5,-85,-64,-30,-60,-7,-8,-4
1491088713449,0,-27,-66,-81,-23,-25,2,-91,-6
1491088713449,0,71,32,38,-40,100,2,-93,3
1491088713450,1,-24,-26,-62,-43,-22,-4,49,-6
1491088713450,1,-57,-46,-124,-14,6,0,29,0
1491088713450,2,2,-74,13,35,21,-3,0,3
1491088713450,2,29,76,114,49,-71,-2,-9,7
1491088713451,3,35,75,9,51,-5,3,-45,9
1491088713451,3,16,-71,-47,-89,14,2,-7,-2
1491088713486,0,-3,-92,-64,-39,-4,0,31,-11
1491088713486,0,88,95,34,3,-57,-1,15,2
1491088713487,1,60,29,21,-2,23,3,-23,11
1491088713487,1,6,3,127,53,13,0,-49,1
1491088713488,2,-24,-51,-118,-69,76,2,-18,-3
1491088713488,2,-56,-128,-59,17,-66,3,11,-6
1491088713489,3,-10,-76,-58,-49,44,-3,92,-5
1491088713489,3,117,99,58,42,-60,0,41,5
1491088713524,0,12,53,44,-1,-5,-1,52,-7
1491088713524,0,-3,66,-83,-60,-29,0,95,-1
1491088713525,1,-24,4,-61,-25,-28,0,-4,-5
1491088713525,1,-19,-48,-78,-55,0,0,-40,-2
1491088713526,2,19,67,93,77,-44,-1,-37,8
1491088713526,2,-63,-16,20,82,75,-1,-98,4
1491088713561,3,-57,-49,-21,9,-112,-1,0,11
1491088713561,3,-88,-50,-93,2,-31,-2,0,-1
1491088713562,0,-64,-49,106,-5,27,1,32,4
1491088713562,0,-25,-3,-3,31,-101,0,80,3
1491088713563,1,-6,-8,127,4,73,1,51,-6
1491088713563,1,9,94,72,105,-9,-3,-65,0
1491088713564,2,-63,76,-128,-34,82,-3,-68,1
1491088713564,2,-46,-6,-85,-72,106,-2,-83,1
1491088713599,3,-36,127,-47,15,85,-1,-78,-2
1491088713599,3,46,85,-33,-48,107,3,-2,-2
1491088713600,0,6,71,-74,-37,83,-2,9,-4
1491088713600,0,86,112,127,105,86,-2,-2,9
1491088713600,1,17,-22,88,6,-112,-5,43,0
1491088713600,1,1,-56,-90,-69,-17,-3,41,-5
1491088713602,2,53,-4,105,88,-62,-1,18,2
1491088713602,2,30,-64,-22,-42,-65,-3,-7,-1
1491088713636,3,34,-67,-62,-49,-36,0,48,-8
1491088713636,3,28,-13,31,89,-118,2,-56,3
1491088713637,0,8,-47,-7,25,-10,-1,-30,3
1491088713637,0,-27,-32,-3,-32,10,-1,21,-5
1491088713638,1,4,33,48,46,1,-5,-75,-1
1491088713638,1,-35,-55,-12,-46,21,-7,-39,-6
1491088713639,2,-1,-33,-31,-13,-81,-5,-1,-7
1491088713639,2,16,5,23,0,-104,2,17,-3
1491088713674,3,7,17,0,31,-73,2,-22,-1
1491088713674,3,-2,-17,5,-12,-20,-4,-4,1
1491088713675,0,-19,-100,-21,-22,-65,3,-40,-5
1491088713675,0,0,-9,48,65,36,-1,-37,2
1491088713676,1,2,1,-8,-13,-35,2,-58,1
1491088713676,1,-19,46,4,-21,-61,-3,-58,-6
1491088713711,2,-5,4,5,-28,-14,0,1,1
1491088713711,2,12,-6,-4,14,-22,-1,-90,4
1491088713712,3,-10,40,14,21,75,-6,-12,-3
1491088713712,3,-12,26,-13,11,80,-1,-45,-5
1491088713713,0,5,48,-35,-13,-17,-1,53,-2
1491088713713,0,29,32,-49,-27,-7,-6,32,-7
1491088713714,1,-27,54,87,66,48,-6,40,1
1491088713714,1,2,15,25,3,40,2,0,-1
1491088713749,2,-3,3,-1,12,45,-2,39,-1
1491088713749,2,-22,-12,-41,-47,40,0,27,-9
1491088713750,3,-7,-13,-19,9,-56,-2,2,1
1491088713750,3,16,3,-3,20,50,4,98,1
1491088713750,0,14,21,20,8,32,0,-41,-1
1491088713750,0,-10,6,14,7,-10,-3,-7,-1
1491088713751,1,11,-4,-9,-3,14,0,84,-4
1491088713751,1,-9,-34,-18,-13,-3,3,82,-3
1491088713786,2,25,-3,6,2,-14,-3,36,-1
1491088713786,2,-49,-26,-31,-37,37,3,11,-7
1491088713787,3,9,2,35,55,14,-1,-48,3
1491088713787,3,-7,-11,5,-28,-15,-4,20,4
1491088713788,0,-10,4,-8,29,4,-5,62,-1
1491088713788,0,-13,-19,41,14,10,-5,24,-5
1491088713789,1,26,-6,-85,-5,-19,-1,-41,-1
1491088713789,1,-8,2,62,46,25,-2,-37,-4
1491088713824,2,-1,-10,5,6,-3,-2,-70,-5
1491088713824,2,7,-22,-15,-13,22,-1,82,1
1491088713826,3,9,10,-1,-13,9,-4,-7,-7
1491088713826,3,23,9,-25,-16,23,0,-81,-1
1491088713827,0,-10,-48,-20,7,-33,-3,-128,-2
1491088713827,0,31,27,-22,16,-4,-5,13,-2
1491088713861,1,4,8,10,-2,25,6,-11,-4
1491088713861,1,11,16,-9,-15,6,-2,37,-6
1491088713862,2,-33,-42,19,5,3,-1,73,1
1491088713862,2,29,27,-11,-19,-17,4,-8,-2
1491088713863,3,-41,-16,41,8,-6,-1,51,-2
1491088713863,3,18,1,41,12,-4,3,35,2
1491088713864,0,-12,-23,-22,-2,-6,3,35,-2
1491088713864,0,-35,-48,-58,-39,6,-2,-21,-15
1491088713899,1,17,19,23,20,-7,-2,8,-1
1491088713899,1,-51,-4,-20,-19,-7,-7,3,-11
1491088713900,2,20,-1,-18,0,-10,6,-66,-12
1491088713900,2,23,-4,19,13,17,-2,42,-7
1491088713900,3,-8,-33,21,-12,19,3,2,-9
1491088713900,3,36,53,-43,15,-29,-3,-9,9
1491088713901,0,97,45,12,2,-19,-3,-1,7
1491088713901,0,-93,-32,-13,-33,-6,-4,11,-2
1491088713936,1,33,-31,17,2,-3,-2,-60,6
1491088713936,1,-30,-31,-56,-4,5,1,18,-6
1491088713938,2,54,116,101,11,-6,2,71,23
1491088713938,2,-63,-19,67,40,11,5,-70,-2
1491088713938,3,36,-66,-72,-51,-3,71,91,10
1491088713938,3,22,21,-69,-31,-41,112,-68,-13
1491088713974,0,10,-41,-120,-23,-21,61,-1,5
1491088713974,0,19,55,38,9,9,56,2,5
1491088713975,1,36,32,107,67,19,-15,-42,-1
1491088713975,1,-62,18,87,17,27,-43,-7,9
1491088713975,2,-46,-114,-82,-8,-35,-2,-9,-14
1491088713975,2,56,127,-15,7,2,-36,1,7
1491088713976,3,47,-86,-96,-6,-21,-54,-12,-8
1491088713976,3,-26,-22,127,25,62,-56,3,-8
1491088714011,0,34,127,127,20,33,-57,44,12
1491088714011,0,-38,-128,-46,-16,-23,-27,67,4
1491088714013,1,-21,-35,-51,-42,-15,-9,3,-5
1491088714013,1,-33,-128,-128,-86,-55,-19,77,-3
1491088714013,2,70,91,102,55,10,9,-18,4
1491088714013,2,-20,-73,-4,53,-12,109,-27,2
1491088714014,3,86,87,16,-29,-18,-91,36,1
1491088714014,3,-34,-79,-71,-10,-20,-106,1,-9
1491088714049,0,-45,-83,-128,-16,-12,-85,8,1
1491088714049,0,115,112,116,16,-2,-36,-54,6
1491088714050,1,33,-20,-81,26,4,53,58,9
1491088714050,1,-54,-87,57,-3,-9,127,78,-7
1491088714051,2,-51,-65,-40,-34,-13,108,-99,-27
1491088714051,2,-33,-75,15,-25,-13,-12,18,0
1491088714052,3,-48,6,-27,-6,-6,-16,-113,-22
1491088714052,3,-12,51,-73,14,1,1,40,9
1491088714088,0,74,61,106,58,16,28,-5,-10
1491088714088,0,-92,-42,-68,-14,-25,-59,68,-9
1491088714090,1,22,-2,-19,-31,20,-93,-13,8
1491088714090,1,-18,-26,52,5,-11,-123,-74,-6
1491088714091,2,41,53,54,13,24,-95,83,-1
1491088714091,2,-37,-18,-38,-1,6,-59,0,-6
1491088714092,3,-26,8,24,-54,-34,-48,94,10
1491088714092,3,27,29,-11,34,7,-20,41,8
1491088714124,0,3,-4,65,3,18,-36,-58,3
1491088714124,0,75,-50,-31,-35,-15,27,-50,-6
1491088714127,1,-66,71,1,29,-19,109,-32,-11
1491088714127,1,115,30,94,11,17,25,-3,20
1491088714128,2,-42,-78,-63,-25,10,18,-13,13
1491088714128,2,9,-21,89,-7,-14,37,-45,-11
1491088714162,3,-90,-93,-91,-4,-4,-101,-128,-13
1491088714162,3,72,22,17,-52,-29,8,75,-5
1491088714163,0,-97,14,82,3,36,-5,22,9
1491088714163,0,60,60,40,37,-7,26,73,20
1491088714164,1,101,69,-43,-11,17,6,55,0
1491088714164,1,-87,-55,127,-15,-15,-36,27,-12
1491088714165,2,-27,-121,-128,-32,-6,-33,124,-13
1491088714165,2,68,55,86,23,27,6,-24,8
1491088714236,3,15,66,127,53,46,47,84,10
1491088714236,3,51,31,21,17,11,-33,-63,-2
1491088714238,0,-33,-25,-70,-44,-32,-87,-86,-22
1491088714238,0,16,36,40,10,18,-33,83,0
1491088714238,1,-32,-45,-26,-27,8,-11,20,-5
1491088714238,1,87,125,9,-52,-46,49,-128,9
1491088714239,2,-18,-26,-85,-28,-66,-41,122,-3
1491088714239,2,12,-7,23,30,-26,-128,-127,-4
1491088714274,3,-1,39,117,20,6,28,74,-7
1491088714274,3,-103,-71,59,54,33,53,109,20
1491088714277,0,-1,-72,-45,11,16,95,8,2
1491088714277,0,69,64,40,2,45,69,77,8
1491088714277,1,-128,75,61,3,15,96,-54,-13
1491088714277,1,77,-43,-91,-4,-42,106,-81,3
1491088714278,3,0,36,-49,-11,-22,5,-82,2
1491088714278,3,-95,53,12,1,-6,12,-48,-12
1491088714312,0,106,25,6,-25,-29,8,-33,15
1491088714312,0,-128,-128,-104,-32,-24,46,33,-27
1491088714313,1,26,-23,81,-4,-13,24,-9,-3
1491088714313,1,-44,-35,-128,19,43,-58,12,-13
1491088714315,2,127,127,127,56,40,-38,17,16
1491088714315,2,-79,-59,-121,-32,-9,-128,84,6
1491088714315,3,82,10,96,40,41,39,-33,4
1491088714315,3,-59,-34,-55,-33,-11,86,61,3
1491088714349,0,4,-91,-71,-42,-6,102,72,-4
1491088714349,0,8,98,33,-15,-24,37,-102,-27
1491088714350,1,15,-15,-77,6,1,25,104,5
1491088714350,1,38,-39,36,20,31,-74,9,-1
1491088714350,2,-93,23,85,38,11,-34,-96,-13
1491088714350,2,-123,-61,-38,-45,3,91,72,-9
1491088714351,3,-1,-128,-26,9,7,-76,-18,8
1491088714351,3,95,127,87,-12,-16,127,38,21
1491088714387,0,-128,-117,-78,-51,-52,112,-81,-28
1491088714387,0,58,-56,-47,-5,0,30,-47,1
1491088714388,1,71,100,7,-11,-69,20,-89,11
1491088714388,1,69,-85,90,46,11,22,62,-10
1491088714390,2,-9,99,-19,-33,13,108,35,-3
1491088714390,2,9,-47,-20,-31,17,30,-23,-1
1491088714391,3,-87,-92,-19,-15,-14,-34,47,-13
1491088714391,3,72,59,-75,24,-33,-128,-33,7
1491088714424,0,28,72,45,30,10,-35,75,13
1491088714424,0,-60,-20,23,20,-23,34,-97,-12
1491088714427,1,20,-67,-65,-14,27,-47,90,12
1491088714427,1,-41,-5,22,21,-2,-86,-20,-2
1491088714429,2,41,86,25,31,4,40,-72,14
1491088714429,2,-39,-39,-9,9,16,2,127,-19
1491088714430,3,-3,-26,11,-18,7,50,-26,-4
1491088714430,3,16,59,15,0,-4,37,55,-8
1491088714462,0,5,4,-40,10,14,-20,-50,3
1491088714462,0,62,76,27,17,22,-50,-42,15
1491088714463,1,-25,4,-10,-36,35,2,-38,-11
1491088714463,1,10,-45,-13,29,21,-55,20,3
1491088714464,2,55,-51,1,-20,-1,-23,-2,1
1491088714464,2,-45,-47,13,4,-2,14,13,-5
1491088714465,3,10,72,42,38,2,-44,-23,4
1491088714465,3,-4,-67,-38,-13,-1,5,-40,-12
1491088714499,0,15,19,23,36,0,-34,61,15
1491088714499,0,10,40,-20,13,-17,-23,43,-5
1491088714500,1,-24,-81,-22,22,-31,30,-51,-1
1491088714500,1,-80,28,-97,-25,-13,-12,45,-12
1491088714500,2,17,-15,42,-3,7,-30,98,-5
1491088714500,2,1,38,65,25,17,5,-1,8
1491088714501,3,35,49,59,4,6,-3,51,0
1491088714501,3,86,27,-20,3,-6,-21,-27,-4
1491088714536,0,9,-128,-122,-52,-5,-11,-85,14
1491088714536,0,83,-61,4,-60,-8,-98,-24,0
1491088714537,1,95,-80,80,62,19,4,29,16
1491088714537,1,-128,-89,-32,-71,-6,74,32,-19
1491088714538,2,-25,14,1,-28,3,-5,-91,-7
1491088714538,2,115,115,44,37,11,-25,-12,14
1491088714539,3,-128,42,-124,-21,18,52,-62,-14
1491088714539,3,74,127,120,36,9,37,80,19
1491088714574,0,12,118,48,22,16,-14,65,-18
1491088714574,0,-115,-30,-31,-42,-17,89,-32,-12
1491088714575,1,6,-64,-22,41,-8,-14,-8,-5
1491088714575,1,-27,-74,-45,-18,8,-18,-75,-6
1491088714576,2,71,69,55,55,5,-3,127,14
1491088714576,2,127,95,70,106,12,-17,-79,16
1491088714576,3,-128,-62,-19,-101,-18,-3,56,-20
1491088714576,3,-22,14,-90,-60,-4,78,-113,-7
1491088714611,0,32,-28,60,35,-14,-43,20,-4
1491088714611,0,-115,-68,-128,-58,3,-47,52,-30
1491088714612,1,127,127,127,30,11,-44,-108,10
1491088714612,1,-58,-109,70,38,30,13,23,-15
1491088714613,2,-5,-25,86,-24,-30,89,-86,13
1491088714613,2,-71,-94,-102,-50,-10,2,-83,-17
1491088714614,3,-46,73,-5,-33,-19,-76,89,-2
1491088714614,3,-12,-35,-72,23,-5,-101,95,-18
1491088714649,0,-48,49,43,-25,17,-34,-21,-8
1491088714649,0,122,77,127,40,8,34,-69,38
1491088714650,1,-41,-101,-30,-25,-13,99,-32,-28
1491088714650,1,66,-30,-42,11,-13,-53,-99,15
1491088714650,2,-78,-28,8,48,-5,-18,103,6
1491088714650,2,64,12,-16,-54,-48,-47,90,-21
1491088714651,3,9,85,64,-25,15,-47,68,18
1491088714651,3,93,65,115,33,-7,76,-83,8
1491088714686,0,-69,-128,-128,-69,11,17,51,-11
1491088714686,0,93,108,50,104,34,-80,-65,14
1491088714687,1,38,-30,73,10,-13,82,-27,-3
1491088714687,1,-102,-120,-48,-68,-23,23,-67,-41
1491088714688,2,113,127,20,48,37,41,-7,18
1491088714688,2,45,-128,-40,-105,-18,21,-28,-23
1491088714724,3,-62,18,-81,76,-21,-102,-59,-29
1491088714724,3,126,65,115,-82,17,-25,6,21
1491088714725,0,-2,-67,-36,16,-39,61,-53,-12
1491088714725,0,-94,-44,-76,67,27,-68,120,2
1491088714726,1,33,72,82,7,10,17,-1,32
1491088714726,1,-114,-101,-113,-68,-57,78,-66,-42
1491088714726,2,-2,-90,-79,6,-20,-64,117,6
1491088714726,2,-92,-9,41,-67,-27,51,-30,-18
1491088714761,3,-108,-5,17,72,13,71,7,2
1491088714761,3,47,-29,-38,15,5,-5,35,30
1491088714763,0,95,50,46,4,11,-67,-25,-5
1491088714763,0,-37,-22,46,54,7,32,-128,9
1491088714763,1,-72,-42,-45,-57,-64,31,76,-14
1491088714763,1,115,21,6,-46,21,-54,-92,18
1491088714764,2,-16,-29,48,9,-4,47,-63,6
1491088714764,2,63,1,28,-5,2,24,-6,-5
1491088714799,3,25,-38,-58,-87,-17,-9,94,-5
1491088714799,3,78,96,102,66,91,-81,82,46
1491088714800,0,12,21,62,11,-51,67,-40,-21
1491088714800,0,-31,-61,-39,52,41,2,54,-4
1491088714803,1,69,-19,-20,-12,-51,18,23,24
1491088714803,1,-80,1,55,62,-3,-53,-42,-6
1491088714804,2,-84,-70,84,-48,40,-110,-21,-26
1491088714804,2,27,127,-12,42,-29,35,127,39
1491088714836,3,-122,-128,17,-108,-29,-42,-128,-25
1491088714836,3,-63,-27,67,100,-19,-19,-16,31
1491088714837,0,-50,54,-33,-21,18,73,58,-21
1491088714837,0,9,27,92,-98,-16,31,-99,15
1491088714838,1,-36,-66,-48,-21,17,-12,-7,-24
1491088714838,1,-128,-35,8,-28,33,2,-46,-39
1491088714874,2,66,17,-75,21,6,-12,-85,32
1491088714874,2,35,-66,-17,13,-50,26,-5,-2
1491088714874,3,2,22,-78,-59,63,-74,-8,-42
1491088714874,3,101,111,127,-12,-10,120,-2,11
1491088714875,0,-50,-128,-42,31,-76,-62,-71,-37
1491088714875,0,-92,-30,-117,-4,18,-48,-12,-7
1491088714876,1,127,81,119,-43,36,3,26,20
1491088714876,1,-5,-52,-34,118,-43,32,-15,-5
1491088714911,2,-51,-38,-85,-29,-12,-4,-8,-7
1491088714911,2,-24,-92,24,-8,-3,-37,38,-10
1491088714912,3,-105,-128,-52,62,16,-73,-79,-22
1491088714912,3,52,87,17,-69,15,100,127,34
1491088714913,0,-48,-28,20,-25,7,14,-2,8
1491088714913,0,-46,37,32,34,-5,28,-29,-18
1491088714914,1,-3,-128,27,83,26,-23,-11,-4
1491088714914,1,102,117,-113,-78,-28,44,127,2
1491088714949,2,26,107,127,53,44,127,-97,-4
1491088714949,2,-55,-128,-128,-54,-73,60,-51,-1
1491088714950,3,30,-33,-65,64,38,-75,27,-25
1491088714950,3,42,50,-56,-42,-50,43,24,24
1491088714950,0,-63,-113,25,14,9,-56,127,12
1491088714950,0,-26,-49,6,-11,0,62,-24,-13
1491088714951,1,127,127,54,-65,-30,127,127,62
1491088714951,1,-122,-128,-128,-77,62,-81,-35,-35
1491088714986,2,3,127,70,64,10,59,13,2
1491088714986,2,-46,20,110,42,8,15,65,25
1491088714987,3,-34,-90,-69,59,-44,-44,-18,-28
1491088714987,3,80,70,119,-19,-13,69,-100,33
1491088714988,0,-87,-127,-128,-64,-34,-64,105,-19
1491088714988,0,52,31,23,-8,47,-103,-53,-27
1491088715024,1,-6,70,77,-69,5,20,-49,21
1491088715024,1,15,-126,-125,123,21,-20,38,-16
1491088715025,2,-55,26,123,-28,12,-71,-25,-19
1491088715025,2,72,28,38,66,-13,127,42,34
1491088715025,3,46,-36,-86,-10,-7,33,26,46
1491088715025,3,-114,46,116,-16,-5,93,-65,-33
1491088715026,0,63,-112,-41,-30,-2,117,48,5
1491088715026,0,-10,85,96,39,35,-44,5,-22
1491088715061,1,127,18,-65,24,17,-24,-95,22
1491088715061,1,-128,-8,127,-63,-7,4,45,-34
1491088715062,2,87,-23,-110,12,-19,31,29,-20
1491088715062,2,-63,-73,-87,-51,-14,-80,-14,-10
1491088715063,3,1,114,110,44,-42,-22,-31,11
1491088715063,3,-18,-37,5,37,32,-128,-44,2
1491088715064,0,-56,-30,-63,-9,19,-77,-3,-25
1491088715064,0,59,107,6,-39,6,0,85,32
1491088715099,1,-50,-58,92,-23,-35,48,-74,-27
1491088715099,1,0,-123,-112,-1,-26,-94,36,-30
1491088715100,2,100,127,127,-23,-1,-46,-21,52
1491088715100,2,66,-49,-80,-55,-3,-53,55,-12
1491088715100,3,-128,-49,33,59,18,-98,68,-1
1491088715100,3,83,81,117,-44,17,-99,56,3
1491088715101,0,-53,-128,-128,-23,6,-23,-67,-31
1491088715101,0,22,74,112,40,25,29,-45,6
1491088715136,1,4,-52,10,9,-31,79,29,-11
1491088715136,1,-87,-128,-113,-32,-17,31,-21,-10
1491088715137,2,60,81,95,22,-48,53,-52,-1
1491088715137,2,78,11,-97,21,41,107,113,58
1491088715138,3,-75,37,-36,-75,-44,73,23,-33
1491088715138,3,-52,-117,24,65,25,34,-37,6
1491088715174,0,-25,-34,-112,-27,-13,1,-44,31
1491088715174,0,-109,59,119,-23,-8,-17,8,-30
1491088715175,1,13,16,81,127,91,-6,-2,7
1491088715175,1,108,86,-99,-23,-72,2,-23,35
1491088715176,2,57,108,115,-18,39,1,61,27
1491088715176,2,-55,-128,-101,-39,-36,-20,-32,-19
1491088715176,3,-72,-93,-89,-34,-52,1,24,-19
1491088715176,3,75,127,92,39,-65,3,-12,-24
1491088715211,0,41,-95,113,70,-19,0,2,20
1491088715211,0,4,-113,-78,-82,11,-19,-25,-22
1491088715212,1,23,71,15,14,2,8,-31,18
1491088715212,1,-37,-57,46,-6,62,10,9,-19
1491088715213,2,-61,59,-112,-39,26,0,-12,-13
1491088715213,2,80,86,76,-36,21,-10,9,19
1491088715214,3,-71,-77,32,38,31,7,60,-2
1491088715214,3,13,109,-1,14,40,6,-9,4
1491088715249,0,-111,-101,68,30,18,1,-25,-5
1491088715249,0,23,0,-68,-75,-44,-5,-32,-24
1491088715250,1,-34,-75,-59,-63,-1,5,-27,-14
1491088715250,1,71,-13,-41,-39,28,-9,89,43
1491088715251,2,14,-75,63,0,-1,-2,-51,-24
1491088715251,2,8,-82,-82,127,24,-4,-61,-9
1491088715286,3,-48,-77,-36,-40,-64,-4,-99,-3
1491088715286,3,60,77,60,66,38,0,51,13
1491088715287,0,-85,24,-11,-55,-15,0,-7,-17
1491088715287,0,-58,-103,59,-3,43,-7,16,3
1491088715288,1,-42,-40,-3,1,17,-2,83,3
1491088715288,1,-19,-25,-29,38,-96,5,26,1
1491088715289,2,127,67,40,-41,-2,-2,-84,10
1491088715289,2,-7,-41,4,23,26,-5,8,-3
1491088715324,3,-78,-112,-123,-51,-23,3,-12,-15
1491088715324,3,-62,-56,-38,11,50,6,-5,-1
1491088715325,0,-77,-88,-11,-29,-28,0,48,-6
1491088715325,0,7,-34,127,33,-45,0,9,8
1491088715325,1,-41,-112,-128,24,18,-5,-42,10
1491088715325,1,21,-21,-44,58,-92,3,-10,8
1491088715326,2,42,93,65,-50,25,-3,42,13
1491088715326,2,-30,-83,-54,20,-1,-2,-31,-6
1491088715362,3,99,127,-11,-2,34,-3,37,3
1491088715362,3,-64,-9,88,52,28,-6,-87,-27
1491088715363,0,-18,13,-103,83,-76,4,-14,-1
1491088715363,0,-1,10,-95,-60,-29,0,-5,1
1491088715364,1,87,127,127,111,75,1,11,5
1491088715364,1,-35,-56,-128,-128,100,-2,-18,-18
1491088715365,2,-6,-61,-37,109,-85,-4,-28,-7
1491088715365,2,1,20,56,49,74,-2,17,-4
1491088715399,3,44,-9,-94,-13,-43,2,15,5
1491088715399,3,12,19,16,-92,-7,1,16,4
1491088715400,0,1,-6,83,14,45,-4,61,6
1491088715400,0,-14,111,78,-57,9,0,-20,-1
1491088715401,1,67,127,90,-66,12,-3,-108,7
1491088715401,1,-57,-1,-36,34,-13,2,-58,-20
1491088715436,2,-29,-31,-128,-128,46,1,-20,-6
1491088715436,2,-74,-105,-99,-121,-2,-1,95,-13
1491088715437,3,-1,-84,-39,-59,-78,5,-55,-5
1491088715437,3,8,-28,63,-64,-11,2,38,-10
1491088715438,0,32,1,21,27,124,1,50,4
1491088715438,0,2,0,9,0,-111,-5,-22,0
1491088715439,1,-5,-17,-2,16,55,8,104,-6
1491088715439,1,25,-9,2,127,-93,1,-10,0
1491088715474,2,-28,-14,-43,0,34,4,27,-10
1491088715474,2,-1,38,44,-57,27,-4,-79,-4
1491088715475,3,32,-1,17,-35,-17,-9,71,-9
1491088715475,3,-17,-55,-56,-128,-36,-4,-22,-6
1491088715475,0,49,45,27,125,8,-2,42,3
1491088715475,0,-3,49,-28,-59,70,-6,-33,-5
1491088715476,1,14,-16,-45,-69,-58,-1,45,-1
1491088715476,1,-42,-16,-7,-85,81,-2,67,-1
1491088715511,2,17,1,45,36,-95,0,-23,12
1491088715511,2,2,-10,-49,0,50,9,20,3
1491088715512,3,53,103,113,14,52,0,-44,2
1491088715512,3,18,-17,32,27,18,-1,-33,3
1491088715513,0,-46,-73,-101,-86,-2,1,19,-14
1491088715513,0,12,26,114,50,-47,-2,89,7
1491088715514,1,15,47,-36,-13,66,-3,57,0
1491088715514,1,55,36,55,52,-88,-2,-12,6
1491088715549,2,0,10,-54,-128,40,-1,-67,-14
1491088715549,2,-31,-92,56,27,-21,0,-42,-10
1491088715550,3,38,51,92,5,41,-5,-99,2
1491088715550,3,21,-38,-27,66,-30,-7,-107,2
1491088715551,0,34,-87,-74,-20,13,-2,99,1
1491088715551,0,54,-116,-128,-16,-72,-2,98,-4
1491088715586,1,23,-128,-128,-90,-36,2,73,0
1491088715586,1,85,97,101,101,64,-1,-20,13
1491088715587,2,85,121,-68,-37,-5,-3,-99,7
1491088715587,2,30,127,-29,49,72,4,-35,1
1491088715588,3,-12,45,-68,3,-115,1,-55,1
1491088715588,3,-40,-77,-67,-16,3,4,65,1
1491088715589,0,-72,-27,23,-53,-113,-2,-32,-5
1491088715589,0,-111,-34,-1,-51,-18,-7,-17,-8
1491088715624,1,-77,-28,-1,64,-56,0,2,-1
1491088715624,1,-98,-24,7,38,39,6,61,-2
1491088715625,2,-34,109,127,105,-23,1,15,3
1491088715625,2,-40,34,5,-6,-42,2,5,-2
1491088715625,3,-45,-68,-15,16,-22,-2,-90,-4
1491088715625,3,-76,-117,-117,-96,2,-6,13,-8
1491088715627,0,-20,-71,-35,-46,12,-2,6,2
1491088715627,0,39,54,98,113,-22,1,-27,8
1491088715661,1,6,-1,36,-25,92,3,-18,3
1491088715661,1,-8,12,-6,-37,-16,-4,1,-4
1491088715662,2,7,-16,-13,20,21,-3,-8,-1
1491088715662,2,11,-1,-3,48,-9,-1,-8,4
1491088715662,3,-1,29,43,87,27,-1,-32,1
1491088715662,3,13,25,18,-33,-12,3,-22,-1
1491088715664,0,-17,-21,-10,-48,24,-4,-4,0
1491088715664,0,36,24,1,52,26,-2,50,11
1491088715699,1,-7,3,12,-12,10,-2,-12,-6
1491088715699,1,-11,19,-3,8,-14,-4,-47,-10
1491088715699,2,3,5,3,9,19,5,-45,-2
1491088715699,2,-7,-32,-14,-16,10,3,-41,-6
1491088715701,3,17,7,14,-29,-8,-4,37,2
1491088715701,3,3,-1,-8,2,36,-8,-13,-1
1491088715736,0,23,31,35,89,-34,2,-50,2
1491088715736,0,-13,23,13,28,37,-7,111,-10
1491088715737,1,21,43,38,14,-23,2,127,5
1491088715737,1,2,5,-23,-24,-44,1,-98,-8
1491088715737,2,-6,-24,-5,18,15,-6,-60,-5
1491088715737,2,9,5,-17,-63,40,-1,-101,3
1491088715739,3,16,10,4,42,-24,-2,-126,2
1491088715739,3,21,21,2,12,15,-3,-29,4
1491088715774,0,1,-11,19,-68,9,1,-109,-9
1491088715774,0,5,-23,0,-21,-21,-3,47,-1
1491088715774,1,31,-9,-17,-38,24,-9,107,-2
1491088715774,1,3,-7,-34,-15,3,-1,105,-3
1491088715775,2,2,23,6,23,37,2,61,-3
1491088715775,2,-6,-11,-25,-56,7,-5,18,-3
1491088715776,3,0,-3,-5,-10,27,-8,-7,-2
1491088715776,3,34,36,68,92,-23,-4,68,4
1491088715811,0,-6,-26,-31,-12,37,-9,125,4
1491088715811,0,2,5,-29,-59,-37,1,18,-9
1491088715812,1,3,10,-9,-13,41,-2,125,-1
1491088715812,1,14,-28,-19,-17,-7,-4,-24,7
1491088715813,2,31,-2,-34,-38,3,-1,-42,-2
1491088715813,2,-9,-5,9,10,11,4,-91,7
1491088715814,3,22,9,16,16,29,1,22,-2
1491088715814,3,-23,-8,-26,-29,11,8,-2,1
1491088715849,0,-4,13,1,-2,-25,1,47,9
1491088715849,0,-25,-40,-54,14,-10,-1,19,-8
1491088715849,1,25,44,-7,12,9,-4,-36,13
1491088715849,1,15,23,56,28,28,5,23,-7
1491088715851,2,-30,-36,-45,-15,-19,0,-65,-8
1491088715851,2,-1,29,52,0,-3,-3,0,-8
1491088715886,3,13,7,51,47,-28,-2,-38,-2
1491088715886,3,-40,-16,-44,-22,2,-2,31,-6
1491088715887,0,26,36,12,9,-102,-3,82,2
1491088715887,0,-65,-108,-102,-32,-59,-6,0,-11
1491088715888,1,-35,-8,10,10,-34,-4,-7,-5
1491088715888,1,45,54,56,-3,-7,0,-65,-4
1491088715889,2,4,7,41,34,40,-4,-37,-1
1491088715889,2,-17,2,20,22,25,0,15,3
1491088715924,3,-96,-23,-35,-52,35,-3,56,16
1491088715924,3,26,-69,-97,-42,-9,0,-95,-11
1491088715926,0,-16,-33,-69,-81,11,-5,-28,-8
1491088715926,0,127,87,113,106,24,-3,-5,9
1491088715927,1,-10,15,94,69,47,0,-69,-15
1491088715927,1,-65,24,-6,-18,23,0,71,0
1491088715927,2,-8,-63,-86,-5,-37,-8,106,-3
1491088715927,2,-89,-101,-82,-78,-63,110,-74,0
1491088715961,3,91,58,43,-7,5,126,-12,12
1491088715961,3,-34,11,76,41,-15,-85,51,4
1491088715962,0,37,96,59,22,64,-99,-1,11
1491088715962,0,-15,-17,-54,-33,-2,-91,51,-2
1491088715963,1,-19,-124,-105,-14,-57,-40,-18,-5
1491088715963,1,101,76,92,-32,3,27,5,-2
1491088715965,2,13,34,110,39,15,21,1,-9
1491088715965,2,-30,6,-3,38,16,-8,12,-7
1491088715999,3,-25,-32,-47,-24,-23,-5,70,-7
1491088715999,3,-55,-128,-128,-47,-58,9,10,-7
1491088716000,0,-8,-46,-88,27,13,10,15,-15
1491088716000,0,81,81,63,-4,13,11,55,12
1491088716001,1,-26,68,70,13,5,-13,50,-9
1491088716001,1,-3,54,-40,-20,-2,9,-103,12
1491088716036,2,-17,-50,-7,6,-13,23,0,0
1491088716036,2,-37,-105,19,-29,-11,-4,-121,-23
1491088716037,3,-31,-78,-124,49,-45,-22,5,-10
1491088716037,3,106,103,127,76,33,3,-4,15
1491088716038,0,-125,-9,-7,-30,-8,16,-79,-16
1491088716038,0,102,13,3,19,20,-3,51,17
1491088716039,1,11,-104,-72,-52,-7,-17,4,-18
1491088716039,1,36,-10,-52,-32,-8,13,0,-2
1491088716074,2,15,-41,64,22,6,8,55,8
1491088716074,2,-73,-78,-58,-24,3,-15,-39,-18
1491088716075,3,36,84,51,24,6,0,17,13
1491088716075,3,-25,-103,-128,0,-12,6,-7,-2
1491088716076,0,86,93,102,-49,9,7,42,-4
1491088716076,0,-11,20,-43,42,1,-3,28,10
1491088716077,1,70,71,123,5,31,-7,26,12
1491088716077,1,-128,-124,2,7,41,3,31,-28
1491088716111,2,1,25,-49,-36,-57,35,-73,-6
1491088716111,2,3,-11,20,85,-24,-67,35,-5
1491088716112,3,38,-73,-128,-24,-1,-44,-66,2
1491088716112,3,-89,-26,-2,-53,-19,-90,8,-37
1491088716113,0,23,13,46,-11,23,-84,7,13
1491088716113,0,7,37,50,-9,3,-45,33,-8
1491088716149,1,-124,-75,-69,-34,-17,-19,-128,-26
1491088716149,1,80,40,1,33,5,78,58,13
1491088716150,2,-21,24,-63,37,4,99,-12,-2
1491088716150,2,92,127,127,4,2,88,-62,9
1491088716150,3,-36,-53,62,49,35,25,85,3
1491088716150,3,30,-37,-122,-63,-11,12,-9,8
1491088716151,0,34,-128,-56,-28,-23,-47,20,-14
1491088716151,0,-62,-62,-39,-3,9,-46,54,-9
1491088716186,1,-4,-76,-55,-34,-11,-46,-61,-1
1491088716186,1,-78,4,127,24,-11,-106,-47,-2
1491088716187,2,106,103,-82,-35,4,-23,81,28
1491088716187,2,-76,-39,97,-13,-18,25,63,0
1491088716188,3,-29,13,91,38,9,122,-10,4
1491088716188,3,70,41,81,98,21,98,12,34
1491088716189,0,-46,5,-19,-34,14,45,33,-14
1491088716189,0,-58,-39,-80,-32,-6,93,-28,-2
1491088716224,1,-99,-95,-95,-72,-13,-21,36,-16
1491088716224,1,113,101,80,51,8,14,118,20
1491088716225,2,52,28,-57,29,-16,-55,32,18
1491088716225,2,-24,-36,77,-15,-7,-125,-2,11
1491088716225,3,-61,-35,-84,-18,-23,-24,-44,-42
1491088716225,3,54,55,58,-20,14,-29,74,31
1491088716232,0,-74,-112,115,60,26,4,-33,-6
1491088716232,0,36,-21,-50,18,23,-20,44,9
1491088716261,1,30,30,-56,-1,2,-118,-124,3
1491088716261,1,-40,-22,-47,-9,5,-32,-59,-7
1491088716262,2,-28,49,35,27,-32,-28,85,6
1491088716262,2,34,-67,7,-23,-22,-20,-128,-8
1491088716263,3,16,-65,57,-27,-33,37,33,-1
1491088716263,3,-16,-98,-128,-29,-52,-37,29,-5
1491088716299,0,5,25,60,-1,-3,25,-51,-12
1491088716299,0,111,63,-91,24,19,45,16,11
1491088716300,1,-29,5,121,13,24,-13,62,-1
1491088716300,1,-82,-54,-58,-68,-25,20,8,-33
1491088716300,2,-16,-107,39,-11,19,-102,-36,13
1491088716300,2,54,107,103,50,10,24,125,4
1491088716301,3,20,73,20,-9,-10,95,-72,24
1491088716301,3,58,-101,-12,4,6,14,38,-6
1491088716336,0,-77,-82,-115,-10,-15,-60,93,-12
1491088716336,0,124,67,-128,-33,-20,-88,-90,17
1491088716337,1,-62,29,19,-77,-21,-11,72,-27
1491088716337,1,-55,-63,54,32,17,33,-54,-32
1491088716338,2,-11,9,-63,-34,-8,118,-54,14
1491088716338,2,-112,-19,62,15,-7,58,-80,-12
1491088716339,3,127,87,-24,55,-4,-22,-54,22
1491088716339,3,-106,-35,-93,7,12,19,-18,0
1491088716374,0,23,76,71,11,-8,49,-42,-17
1491088716374,0,-54,-39,-18,10,11,37,50,-8
1491088716375,1,103,39,27,-25,12,60,2,12
1491088716375,1,-81,-18,-31,-7,2,7,6,-4
1491088716375,2,-110,-96,2,12,-17,-15,-83,-24
1491088716375,2,-25,54,-31,-31,-37,-21,-4,-9
1491088716376,3,32,5,27,13,38,-78,76,14
1491088716376,3,109,19,-4,-2,-19,-89,-5,14
1491088716411,0,7,108,27,25,11,21,-65,8
1491088716411,0,-16,-85,-17,-82,-16,22,1,-15
1491088716412,1,-64,12,58,38,25,67,62,0
1491088716412,1,79,86,39,62,-8,-16,-12,12
1491088716413,2,-55,-65,-19,12,-13,-1,-79,-17
1491088716413,2,-56,-14,-30,-1,4,29,-39,2
1491088716450,3,-11,-17,-40,-14,-20,-45,-99,-1
1491088716450,3,-33,11,80,11,10,18,-5,-13
1491088716450,0,-1,-84,-70,-20,-9,-1,74,3
1491088716450,0,25,76,16,-18,-4,42,-5,3
1491088716451,1,-40,-13,-44,6,-1,12,-15,2
1491088716451,1,-22,0,25,-4,-15,-42,32,-1
1491088716452,2,52,-103,12,-8,-4,13,-42,-3
1491088716452,2,23,-97,-39,-4,1,-61,55,-2
1491088716486,3,56,-4,-4,23,6,-42,56,-4
1491088716486,3,-47,36,9,-10,-1,84,-12,-12
1491088716488,0,45,71,10,1,33,-36,87,6
1491088716488,0,15,42,38,10,9,-29,14,-6
1491088716488,1,54,74,34,37,-8,-32,21,15
1491088716488,1,20,24,-65,4,16,-32,-3,6
1491088716489,2,24,52,34,-39,-8,21,-77,-18
1491088716489,2,-118,-73,-17,-2,3,70,88,-10
1491088716524,3,25,4,28,8,5,11,98,8
1491088716524,3,-44,-91,-13,-30,-13,0,23,-22
1491088716525,0,83,45,-38,33,17,7,102,18
1491088716525,0,-20,-14,-4,-36,-7,-5,-56,-16
1491088716525,1,-26,-20,27,-19,-7,26,-115,2
1491088716525,1,-2,29,47,51,10,-17,-101,-5
1491088716526,2,-24,-35,-83,-22,-19,-34,95,3
1491088716526,2,-16,-26,26,22,7,-47,-30,12
1491088716561,3,75,-24,-4,19,8,-70,103,-3
1491088716561,3,-28,72,94,-16,-5,49,-39,8
1491088716562,0,19,-40,23,36,7,26,105,5
1491088716562,0,75,-51,-23,29,-4,-27,14,7
1491088716563,1,-128,-128,-104,-69,-11,-19,-12,-35
1491088716563,1,127,10,21,49,0,-17,92,27
1491088716599,2,9,39,72,0,16,-37,-18,-11
1491088716599,2,-58,21,-85,-38,12,22,56,-16
1491088716600,3,42,-1,74,0,-14,90,-112,20
1491088716600,3,-26,45,-97,-43,-25,52,58,-22
1491088716601,0,-23,-68,4,-41,-5,35,-95,6
1491088716601,0,-17,-37,85,70,9,86,-58,-11
1491088716601,1,-87,-1,35,45,15,-6,98,-7
1491088716601,1,-75,-118,-43,-44,-29,-4,-60,-43
1491088716636,2,109,25,16,19,0,-55,-7,15
1491088716636,2,-31,-5,91,-51,-3,-6,120,-17
1491088716637,3,-61,-21,-14,23,6,26,-4,-8
1491088716637,3,-79,-12,31,-20,0,12,50,-6
1491088716638,0,94,-22,-22,48,14,-22,100,34
1491088716638,0,57,67,-84,-81,-21,-64,-128,-16
1491088716639,1,-49,10,127,-23,24,41,-4,-5
1491088716639,1,127,34,78,96,37,-62,36,35
1491088716674,2,-14,-95,-98,61,-49,-65,-101,-22
1491088716674,2,106,-9,-36,-33,-19,5,51,36
1491088716676,3,21,71,29,-97,-21,-55,-72,-16
1491088716676,3,0,0,69,17,13,115,69,12
1491088716677,0,-117,-51,-22,-39,-18,23,-25,-31
1491088716677,0,75,-33,122,112,-17,-19,99,28
1491088716678,1,-12,91,-43,-14,0,-34,-110,-3
1491088716678,1,43,64,108,-2,35,59,-8,10
1491088716712,2,-94,27,127,103,26,78,94,-1
1491088716712,2,-28,-126,-128,-66,-93,-83,-79,-29
1491088716713,3,87,59,-2,-18,7,48,32,19
1491088716713,3,62,-8,44,25,23,-121,80,-6
1491088716714,0,-117,13,35,40,13,40,-22,-3
1491088716714,0,28,-64,-40,1,3,102,-115,5
1491088716749,1,-46,-77,-102,-41,-28,-109,127,3
1491088716749,1,19,22,52,-50,-12,-39,-51,7
1491088716750,2,-40,-47,-128,-86,16,67,56,-48
1491088716750,2,87,127,127,7,32,61,-61,16
1491088716751,3,30,-128,-100,75,-35,2,-74,-19
1491088716751,3,-72,-62,-128,-39,5,-69,95,32
1491088716787,0,110,102,126,-38,-28,-11,65,3
1491088716787,0,-122,-68,-41,56,-1,49,-41,-12
1491088716788,1,46,-29,-3,-8,-6,56,34,10
1491088716788,1,-19,47,72,0,10,-39,9,-3
1491088716789,2,71,-36,-13,-50,-40,26,-70,11
1491088716789,2,-15,-58,-43,1,66,-70,66,19
1491088716790,3,-19,100,23,-39,-22,105,-42,-5
1491088716790,3,63,-92,22,-14,-2,99,-34,-8
1491088716824,0,-94,-55,-23,51,9,-59,37,-12
1491088716824,0,74,127,-22,-90,-10,-61,41,-9
1491088716826,1,80,34,75,127,86,-76,63,40
1491088716826,1,11,-68,-15,-58,7,98,-102,9
1491088716827,2,-110,-73,-38,-2,-90,9,-37,-16
1491088716827,2,-37,-11,-28,-54,-19,2,-33,-22
1491088716829,3,62,96,75,70,76,22,114,5
1491088716829,3,-46,-40,20,10,-5,52,-107,-31
1491088716862,0,67,-101,-64,68,7,7,60,16
1491088716862,0,42,36,85,-50,-35,-64,-20,8
1491088716864,1,-30,71,116,4,-21,101,-90,-5
1491088716864,1,-87,-92,-82,-23,11,60,108,8
1491088716865,2,64,-47,37,-18,45,-107,-128,14
1491088716865,2,-69,-82,73,63,7,42,127,-9
1491088716866,3,87,49,13,-2,8,17,34,48
1491088716866,3,-4,-110,-128,59,-69,-27,-102,8
1491088716900,0,-75,127,-110,-128,22,-88,97,27
1491088716900,0,108,28,109,82,55,-128,77,31
1491088716902,1,-128,-102,-1,-45,1,28,20,-43
1491088716902,1,-2,-95,-72,-15,-56,-91,-95,-15
1491088716903,2,-8,-6,-76,-75,-5,59,28,-35
1491088716903,2,9,103,117,30,46,127,-79,-10
1491088716904,3,5,-97,26,89,15,69,-69,13
1491088716904,3,71,-51,106,-7,-26,1,-35,-20
1491088716936,0,65,107,-17,7,0,51,3,17
1491088716936,0,102,-46,62,20,48,-116,94,6
1491088716937,1,-60,62,44,40,0,47,26,-1
1491088716937,1,22,-48,-78,92,-27,-26,99,-10
1491088716938,2,-19,59,80,18,-9,-74,-128,-12
1491088716938,2,-18,55,-62,-49,-20,65,-47,5
1491088716939,3,127,59,-128,-59,-37,17,-16,-30
1491088716939,3,-70,4,37,-25,96,-25,84,-8
1491088716974,0,47,70,127,23,-23,59,-86,16
1491088716974,0,-128,-128,-128,91,23,-27,36,-7
1491088716975,1,-12,-27,75,-81,7,-128,19,-13
1491088716975,1,-71,16,58,64,-26,116,3,-15
1491088716976,2,76,19,-51,54,40,118,-97,21
1491088716976,2,33,-78,-94,-113,-56,-66,68,-5
1491088716977,3,-13,-128,46,50,-35,-114,-76,10
1491088716977,3,-101,117,29,-51,11,34,72,-4
1491088717011,0,-57,-128,67,-20,-1,52,84,3
1491088717011,0,-69,60,-49,-34,-48,114,5,-17
1491088717012,1,-2,21,8,-92,47,-36,127,-1
1491088717012,1,-13,-40,76,17,-2,-34,-120,3
1491088717013,2,-11,-20,-26,55,-35,-55,53,-8
1491088717013,2,-73,-82,-29,-73,47,-56,36,-23
1491088717049,3,70,39,19,81,-26,-23,59,12
1491088717049,3,100,127,-51,-45,43,-119,-75,-1
1491088717051,0,99,74,68,50,-2,72,-78,-7
1491088717051,0,-128,-128,-50,5,-22,-103,-30,-15
1491088717052,1,20,46,-40,-99,-8,91,93,-1
1491088717052,1,71,124,127,75,1,29,-61,21
1491088717053,2,-37,-79,-93,-1,-11,4,37,-26
1491088717053,2,43,91,88,3,18,-3,-29,-19
1491088717086,3,3,7,92,16,31,10,4,11
1491088717086,3,-5,1,-4,-26,-56,99,-51,4
1491088717087,0,-89,-61,-6,-119,9,-128,66,-22
1491088717087,0,127,127,127,112,39,107,-54,31
1491088717088,1,28,-128,10,2,-40,-3,-37,-3
1491088717088,1,-71,-86,-78,-51,23,-59,-35,-36
1491088717089,2,116,94,127,97,-4,5,21,32
1491088717089,2,-87,-114,-93,-31,23,-69,69,19
1491088717124,3,-105,-85,-37,55,-31,-98,-41,-27
1491088717124,3,27,83,-57,-53,-92,87,-47,12
1491088717125,0,31,-90,33,-98,47,-111,-1,20
1491088717125,0,-79,-44,102,88,-56,-59,-72,-21
1491088717126,1,-35,24,-102,-86,-10,-128,16,-10
1491088717126,1,-48,-128,105,-62,100,-128,106,-19
1491088717163,2,-13,-6,-114,-18,-16,-90,52,15
1491088717163,2,66,53,127,78,2,-36,52,9
1491088717165,3,49,10,48,44,39,-86,14,38
1491088717165,3,-107,-85,-11,-37,-69,52,-118,-43
1491088717165,0,-29,35,5,-74,0,127,127,-4
1491088717165,0,94,18,68,37,29,127,-102,15
1491088717166,1,-25,-94,-128,-6,-32,101,-50,-31
1491088717166,1,-3,127,-72,24,19,-1,127,26
1491088717199,2,41,-39,127,4,6,10,0,-3
1491088717199,2,-116,-78,-128,-29,-62,25,-79,-5
1491088717200,3,50,109,23,36,63,9,9,-10
1491088717200,3,39,-122,106,80,4,-23,-10,5
1491088717201,0,-71,49,98,45,-40,-12,38,-4
1491088717201,0,28,36,-101,-109,4,-5,47,-5
1491088717202,1,-89,-113,121,55,-4,24,-28,-15
1491088717202,1,68,57,63,41,-22,-26,2,21
1491088717236,2,-100,-83,-85,4,9,-4,-68,5
1491088717236,2,127,127,127,39,32,4,-7,11
1491088717237,3,-120,-125,-128,-40,-38,8,-6,4
1491088717237,3,-37,-86,29,-90,6,-11,67,0
1491088717237,0,58,49,-14,47,59,-16,-55,5
1491088717237,0,-128,-94,-53,4,-55,10,-24,-21
1491088717239,1,-50,-52,-68,-52,-12,8,4,-12
1491088717239,1,111,99,99,127,-26,-16,-54,12
1491088717274,2,-75,69,-88,-79,23,4,38,-21
1491088717274,2,2,-72,30,-85,24,4,19,-17
1491088717276,3,18,32,100,92,-36,7,-21,-7
1491088717276,3,-100,-93,-128,-125,-13,-16,-42,-19
1491088717276,0,-85,-128,-30,47,-3,-7,-45,-30
1491088717276,0,98,127,65,-37,42,1,63,20
1491088717311,1,43,84,56,48,16,-3,-18,23
1491088717311,1,-56,-112,-73,-116,6,-4,-41,-18
1491088717312,2,96,106,104,118,-6,-2,21,31
1491088717312,2,-57,-36,74,-26,7,-2,-2,-18
1491088717313,3,29,71,-74,-60,-30,5,-20,-16
1491088717313,3,-40,-59,-87,-41,4,-7,25,5
1491088717314,0,81,59,73,-29,12,-7,-11,-17
1491088717314,0,-5,-117,47,36,-32,-3,-23,5
1491088717349,1,73,120,113,-6,97,3,4,22
1491088717349,1,39,-43,-35,7,-2,-6,48,9
1491088717350,2,-21,-23,-40,-125,-75,4,-59,-29
1491088717350,2,61,-75,-65,78,-17,-1,1,14
1491088717350,3,-128,-48,-62,-39,6,-3,0,-29
1491088717350,3,-25,23,-39,-30,0,-8,-37,-1
1491088717351,0,-40,-115,-91,-38,-6,4,-60,-5
1491088717351,0,-24,113,-26,34,-26,-2,19,2
1491088717386,1,14,-114,114,-90,-1,2,-28,-11
1491088717386,1,-13,-37,-87,109,8,5,-24,6
1491088717387,2,-24,-33,73,-1,-36,4,27,11
1491088717387,2,-42,70,38,-66,23,9,27,-17
1491088717388,3,7,92,-128,69,24,1,-10,9
1491088717388,3,72,34,104,86,26,-5,54,4
1491088717389,0,-87,-60,-92,-66,-29,-1,-32,-15
1491088717389,0,-57,-95,-58,41,42,-4,3,-4
1491088717424,1,33,53,120,58,-67,3,5,5
1491088717424,1,33,-9,-38,12,5,1,54,6
1491088717425,2,-15,-33,126,-17,-28,-3,13,8
1491088717425,2,-9,-2,-28,-28,78,-6,-4,-6
1491088717426,3,-17,-78,-114,40,-31,-3,-37,1
1491088717426,3,-45,-50,32,-1,84,-4,-29,-7
1491088717461,0,46,10,-32,-41,-39,-5,-3,2
1491088717461,0,122,127,91,-9,-42,-5,-1,11
1491088717463,1,-84,-13,75,-82,38,1,-18,-14
1491088717463,1,-8,-13,-30,-89,-27,-3,35,-3
1491088717464,2,-28,-82,-119,73,56,-5,16,-1
1491088717464,2,-64,-128,-67,-51,32,-2,32,-5
1491088717465,3,36,56,85,-35,-31,0,71,1
1491088717465,3,16,73,-61,-46,6,-4,-62,-6
1491088717499,0,100,110,127,59,46,-4,-98,22
1491088717499,0,-52,-93,-128,-52,-34,-1,-70,-3
1491088717500,1,-56,-121,-119,-84,-3,-2,-25,-15
1491088717500,1,50,115,127,-5,-55,1,79,21
1491088717500,2,21,7,97,104,-9,3,-64,-11
1491088717500,2,-38,-49,-103,3,-27,3,-113,2
1491088717501,3,-23,-106,-74,-126,-5,0,-9,-8
1491088717501,3,-29,-105,-58,36,10,2,15,-9
1491088717536,0,30,98,52,2,7,4,43,9
1491088717536,0,51,106,118,-24,42,-1,56,4
1491088717538,1,45,43,83,28,100,1,21,3
1491088717538,1,2,127,30,121,-29,-6,32,6
1491088717539,2,-60,-106,-57,-109,17,2,17,-9
1491088717539,2,-38,31,-27,-14,-113,3,-16,-9
1491088717540,3,68,95,63,79,27,2,56,17
1491088717540,3,10,-14,1,0,-14,1,5,-9
1491088717574,0,-84,-80,-84,-58,-77,-1,61,-12
1491088717574,0,-13,17,-61,-43,13,2,-36,0
1491088717575,1,55,49,35,19,-34,-2,46,5
1491088717575,1,11,-62,-41,-85,-22,3,-80,0
1491088717576,2,-10,-17,92,41,21,3,-19,-4
1491088717576,2,16,2,-65,22,67,-3,-3,-8
1491088717611,3,50,21,-47,-52,-112,-4,0,-2
1491088717611,3,28,-8,20,1,69,-4,-43,-4
1491088717612,0,-21,-93,-88,-1,17,-5,7,-10
1491088717612,0,37,23,14,-19,-16,-2,23,0
1491088717612,1,2,1,27,50,-13,0,-10,-4
1491088717612,1,-20,-65,-107,-128,-79,-1,47,-9
1491088717614,2,4,-30,26,81,-50,-2,6,-3
1491088717614,2,-12,-67,74,-2,33,-2,70,-8
1491088717649,3,18,44,60,88,-89,6,-112,16
1491088717649,3,-16,39,-51,-105,-17,-1,58,-4
1491088717649,0,7,54,-55,-1,-45,-5,99,4
1491088717649,0,18,-33,-55,-13,-15,0,77,2
1491088717650,1,-36,-87,-101,-58,-25,-2,5,-12
1491088717650,1,28,27,88,45,44,-2,29,3
1491088717651,2,11,47,-40,-49,84,4,41,2
1491088717651,2,-35,33,7,45,-15,-6,-1,-11
1491088717686,3,29,39,56,18,13,-8,-13,12
1491088717686,3,-2,24,35,13,-5,-4,-76,-4
1491088717687,0,0,29,-23,-75,29,-2,-69,-3
1491088717687,0,-25,-54,-35,30,-22,3,90,-2
1491088717688,1,-70,-63,-56,32,25,-6,-53,-10
1491088717688,1,1,65,41,25,-2,-2,71,6
1491088717689,2,13,38,80,-3,36,-1,-20,-2
1491088717689,2,4,45,83,101,-72,-2,-92,10
1491088717724,3,-52,-31,-45,-71,28,-2,-16,-15
1491088717724,3,-8,-29,-13,-23,-4,-6,16,2
1491088717724,0,-14,-26,-84,-128,-20,-4,-5,-2
1491088717724,0,20,-1,6,41,3,-8,-20,6
1491088717725,1,0,-21,-18,-19,-21,-2,23,-4
1491088717725,1,-18,-14,1,7,13,-7,-37,-3
1491088717761,2,13,30,22,48,53,-2,-9,1
1491088717761,2,6,9,-2,-30,-52,7,-24,2
1491088717762,3,-34,-33,-60,-69,50,-1,41,-14
1491088717762,3,3,14,70,113,-38,7,-67,5
1491088717763,0,8,2,-7,18,-4,3,46,0
1491088717763,0,-13,3,-11,-43,4,2,-71,-5
1491088717764,1,-13,-3,-19,-32,59,-2,19,-1
1491088717764,1,17,19,10,-27,13,-3,-27,-6
1491088717799,2,29,26,-12,-31,29,-5,59,5
1491088717799,2,-5,-11,1,32,-14,-3,-27,2
1491088717800,3,19,-21,6,13,-18,3,-14,-3
1491088717800,3,-41,-42,-27,-31,19,-1,-76,-7
1491088717800,0,-8,-5,-6,0,21,-6,-19,-1
1491088717800,0,12,11,-4,-65,-8,-8,-68,1
1491088717801,1,5,8,18,34,-39,-2,-16,2
1491088717801,1,14,-12,-13,0,3,-3,120,-1
1491088717836,2,3,0,8,52,-29,0,-15,2
1491088717836,2,-4,1,-8,-34,57,-1,10,2
1491088717837,3,-9,-25,-22,-11,-47,-1,-105,-1
1491088717837,3,14,20,-32,-5,1,0,-7,2
1491088717838,0,12,-6,28,22,-41,-5,-107,-3
1491088717838,0,-1,3,-10,-59,29,0,66,2
1491088717839,1,-5,9,27,79,-30,-7,35,-1
1491088717839,1,3,-7,-8,8,35,-7,-101,-4
1491088717874,2,-12,-6,-32,-9,6,-2,87,0
1491088717874,2,1,-2,12,6,-23,-2,78,-2
1491088717874,3,-17,-11,-21,-25,24,2,13,-6
1491088717874,3,17,13,30,26,1,-1,60,3
1491088717875,0,16,6,12,17,-28,-1,58,-1
1491088717875,0,-10,-15,-17,-16,-2,3,89,-3
1491088717911,1,-1,-13,7,-25,0,-1,103,-1
1491088717911,1,-3,-2,3,15,4,-6,46,-4
1491088717912,2,-21,-16,-47,-27,20,6,-128,-4
1491088717912,2,63,38,37,-4,2,-8,-118,1
1491088717914,3,-14,31,49,-29,12,-6,-88,6
1491088717914,3,-6,-3,-10,-33,46,2,-124,-7
1491088717914,0,-7,2,-18,-13,-79,-1,-37,3
1491088717914,0,-41,-69,-55,-42,14,-3,-43,-3
1491088717949,1,10,-43,1,17,-16,5,-99,0
1491088717949,1,17,56,73,-8,17,-3,65,18
1491088717950,2,-7,13,19,45,41,1,56,-2
1491088717950,2,47,38,-9,28,5,-1,29,-3
1491088717950,3,-7,-45,-28,-25,11,4,110,-3
1491088717950,3,-3,-56,-91,4,-31,8,83,-3
1491088717951,0,26,48,48,21,-1,1,-32,-2
1491088717951,0,2,49,63,28,-5,0,49,13
1491088717987,1,37,6,-53,-2,18,69,-31,-6
1491088717987,1,39,6,-10,-41,8,57,-1,2
1491088717987,2,-21,-41,-22,-7,3,127,-30,0
1491088717987,2,-40,-12,50,46,5,19,-14,-6
1491088717988,3,6,32,40,-15,-9,-108,51,3
1491088717988,3,-13,-40,2,20,-15,-126,-78,-6
1491088718024,0,-21,-20,-102,-24,-13,-45,83,0
1491088718024,0,-14,-108,-48,-50,-8,-109,66,-10
1491088718025,1,-4,97,86,92,29,-33,2,0
1491088718025,1,55,106,98,92,5,-23,59,9
1491088718025,2,4,-71,4,-10,-6,-7,-53,-16
1491088718025,2,-40,-19,-83,-10,-16,50,-42,1
1491088718026,3,-108,-56,-18,-63,-21,26,41,-11
1491088718026,3,41,-101,-14,-59,-6,43,36,-5
1491088718061,0,52,106,97,23,28,1,71,0
1491088718061,0,-11,62,47,59,20,16,-29,-6
1491088718063,1,127,56,52,-1,22,6,-39,10
1491088718063,1,-106,-68,-82,-54,-17,-52,3,-7
1491088718063,2,-57,-113,-32,-11,12,-74,71,-8
1491088718063,2,-2,-29,-34,45,-67,56,-40,-20
1491088718065,3,44,84,-51,31,17,9,114,24
1491088718065,3,-35,-94,-65,-15,4,112,-128,-9
1491088718099,0,16,110,72,-39,11,-128,78,7
1491088718099,0,35,69,-55,19,22,71,-43,-7
1491088718100,1,-67,-128,-72,5,-15,56,-14,0
1491088718100,1,74,-37,23,-11,-23,42,95,-1
1491088718100,2,-20,-39,-128,-28,4,54,-63,-15
1491088718100,2,34,74,113,29,33,-29,39,13
1491088718101,3,21,-84,46,-15,4,-4,-55,-15
1491088718101,3,7,-38,-103,-28,-52,-31,76,1
1491088718136,0,-25,3,119,17,14,13,-76,-15
1491088718136,0,-47,-79,25,-1,2,-32,-11,-7
1491088718137,1,94,118,-113,-7,18,-11,29,10
1491088718137,1,-67,54,127,69,14,-12,-32,-9
1491088718139,2,35,-70,-1,-18,-8,5,80,17
1491088718139,2,-49,-34,-81,-95,-22,-6,-63,-14
1491088718174,3,-107,-128,-87,-51,-36,-3,-39,-21
1491088718174,3,95,118,68,73,-1,-11,4,10
1491088718175,0,47,-10,-41,35,7,16,-126,11
1491088718175,0,-30,4,-37,-22,31,-10,15,5
1491088718176,1,39,79,92,15,-6,-5,-44,-7
1491088718176,1,-83,-68,-109,-22,-16,-4,-94,-8
1491088718177,2,64,-20,55,-6,-29,8,30,-9
1491088718177,2,-90,-46,-2,31,20,-13,-32,-24
1491088718212,3,17,20,-69,-73,-35,-5,19,-4
1491088718212,3,-128,-81,-70,-3,23,-3,88,-4
1491088718213,0,72,114,-5,36,-6,11,47,14
1491088718213,0,60,-95,16,2,-39,-13,25,-3
1491088718214,1,-9,-29,-47,27,-9,4,63,17
1491088718214,1,50,63,-19,-22,-9,-1,17,1
1491088718215,2,34,-66,-81,-29,11,4,42,21
1491088718215,2,30,105,127,57,23,-7,32,7
1491088718249,3,-76,-108,9,31,-3,-10,-69,-11
1491088718249,3,-31,-53,-14,-17,-9,-10,12,-12
1491088718250,0,6,12,71,12,13,-5,-45,5
1491088718250,0,-21,87,-104,-38,-31,-8,-4,1
1491088718251,1,-11,23,59,-15,30,-1,-36,6
1491088718251,1,11,-8,69,5,17,5,50,10
1491088718253,2,-48,-85,22,35,-17,-62,-34,-33
1491088718253,2,104,23,-58,-55,-47,-63,8,21
1491088718287,3,-35,-31,43,32,-31,44,3,-10
1491088718287,3,40,49,-57,-29,-4,111,81,15
1491088718289,0,17,89,127,51,59,55,121,8
1491088718289,0,62,3,41,35,4,25,-21,-5
1491088718290,1,-76,-54,-94,-56,-38,-78,-127,-34
1491088718290,1,40,10,-70,-28,-30,-68,-33,-4
1491088718324,2,-70,-7,1,-30,-27,-14,-85,2
1491088718324,2,-18,-49,-92,24,2,8,-16,13
1491088718327,3,15,109,127,34,57,14,127,-10
1491088718327,3,8,60,67,35,33,20,-128,-18
1491088718328,0,40,5,-59,1,5,50,48,6
1491088718328,0,-110,-77,11,-17,-19,6,-3,-6
1491088718332,1,-49,-77,-16,-8,-13,41,54,-7
1491088718332,1,74,34,-128,-25,-14,-40,60,35
1491088718361,2,-76,-16,-1,-45,6,-54,-128,-40
1491088718361,2,78,38,35,7,2,-53,127,31
1491088718363,3,-18,-66,-10,-7,-4,-109,-92,-26
1491088718363,3,82,84,127,37,11,55,-121,4
1491088718364,0,-10,-88,-128,-21,25,99,43,0
1491088718364,0,0,-21,115,-6,15,-34,-34,8
1491088718365,1,49,84,-78,-9,-8,-55,9,5
1491088718365,1,-63,-47,61,7,-10,-106,-44,-36
1491088718399,2,-1,-76,-87,-16,-22,15,-11,15
1491088718399,2,-44,-128,-128,-20,21,-55,-50,-22
1491088718401,3,19,48,83,-20,17,36,20,2
1491088718401,3,72,87,100,25,19,-50,118,24
1491088718402,0,60,-28,-46,22,-25,23,-89,-4
1491088718402,0,-51,-30,-4,-35,-9,-20,-14,-21
1491088718403,1,16,-32,-71,8,-4,33,70,19
1491088718403,1,-128,-85,-128,-15,-6,-105,-71,-17
1491088718436,2,53,106,127,9,17,-128,96,18
1491088718436,2,31,66,107,18,9,103,-38,-12
1491088718437,3,3,-52,9,35,17,25,-38,-5
1491088718437,3,41,-126,-80,-61,-27,85,73,20
1491088718438,0,-128,-17,62,-5,29,-29,-26,-18
1491088718438,0,97,114,104,61,6,-20,28,22
1491088718474,1,76,30,26,-7,0,68,-62,-5
1491088718474,1,-104,-108,-62,-1,-11,82,63,-15
1491088718474,2,-10,-41,-115,-11,-57,-72,-18,-5
1491088718474,2,68,64,-32,-13,-2,-95,-29,2
1491088718475,3,-55,-48,-13,-9,19,-12,67,12
1491088718475,3,37,27,-16,3,6,-44,-88,12
1491088718476,0,-33,88,71,22,-31,60,98,5
1491088718476,0,69,42,54,-20,-13,117,-5,2
1491088718511,1,6,31,67,33,-12,-111,-48,8
1491088718511,1,-46,-58,-26,-18,6,-8,-52,-14
1491088718512,2,11,-45,-92,-16,-14,65,29,-21
1491088718512,2,52,62,-24,11,21,80,56,13
1491088718513,3,-57,-32,1,-26,31,31,-4,-5
1491088718513,3,-55,57,68,-3,-8,-29,127,-10
1491088718514,0,-19,-7,-14,1,-8,7,-98,-2
1491088718514,0,-48,-24,-111,-5,-9,6,32,-15
1491088718549,1,-75,-100,-20,-69,1,9,66,-7
1491088718549,1,3,37,127,103,14,-6,39,13
1491088718549,2,102,109,71,10,-13,-38,45,8
1491088718549,2,-79,-63,-36,-22,-15,-48,-54,-4
1491088718550,3,44,43,-83,10,-51,-42,-80,8
1491088718550,3,-85,-95,-33,-31,-34,45,-5,-38
1491088718551,0,71,72,20,-18,-23,54,46,-6
1491088718551,0,-35,-119,-4,31,9,-15,59,5
1491088718586,1,-7,85,-39,-43,-16,110,51,-16
1491088718586,1,30,25,20,12,19,13,39,14
1491088718587,2,21,-14,32,23,4,-11,55,10
1491088718587,2,-100,-81,-61,-4,-6,-24,-44,-13
1491088718588,3,37,3,-23,14,32,23,50,15
1491088718588,3,11,13,77,-22,-13,0,-128,-11
1491088718624,0,-21,12,59,50,24,-19,-58,1
1491088718624,0,72,-27,15,-16,11,-12,45,8
1491088718625,1,120,19,-7,33,-26,6,-75,2
1491088718625,1,-18,-28,-35,9,19,7,49,3
1491088718626,2,-23,-32,-76,-73,2,-36,-33,-9
1491088718626,2,44,-24,0,17,-4,-8,77,4
1491088718627,3,110,80,47,-13,26,23,-22,12
1491088718627,3,-60,5,33,31,7,6,-18,-13
1491088718661,0,39,31,-25,8,18,-13,-42,10
1491088718661,0,10,70,23,-6,-1,19,-108,-12
1491088718662,1,-65,-55,29,7,-15,-78,110,-8
1491088718662,1,55,28,-7,-10,-9,-21,-79,-1
1491088718662,2,4,-51,-50,16,3,14,98,12
1491088718662,2,68,-8,-15,-18,14,3,-78,-6
1491088718664,3,-8,-32,34,-15,-14,52,4,-14
1491088718664,3,-14,42,1,15,7,15,59,0
1491088718699,0,-38,-52,-17,-5,-7,47,-30,-18
1491088718699,0,111,127,14,13,-5,-50,109,21
1491088718699,1,-118,-119,-40,4,-24,9,62,-16
1491088718699,1,1,-45,-54,-21,9,0,40,0
1491088718700,2,33,55,82,2,24,-11,5,3
1491088718700,2,-64,-65,2,-10,-12,56,4,-8
1491088718701,3,-24,51,20,39,5,-46,-87,-15
1491088718701,3,7,-26,-61,-27,6,-81,42,2
1491088718736,0,-4,76,0,2,-4,-22,-108,-14
1491088718736,0,63,47,31,-28,-20,-35,76,4
1491088718737,1,-53,-86,-50,3,9,20,-48,11
1491088718737,1,98,23,34,-4,1,-4,-40,5
1491088718738,2,-26,54,44,10,-9,42,-40,-12
1491088718738,2,-70,36,60,-17,16,27,-61,-2
1491088718774,3,13,-38,-9,12,-15,-5,-9,-4
1491088718774,3,52,73,-1,22,-2,-7,-43,3
1491088718774,0,12,-128,-128,-66,-20,6,-7,3
1491088718774,0,-67,-31,77,-27,-9,32,14,-10
1491088718775,1,127,127,4,62,41,-22,-53,83
1491088718775,1,74,-47,71,-105,-18,45,91,-4
1491088718776,2,6,-86,109,104,23,-94,-6,16
1491088718776,2,40,51,-120,-45,-10,22,-51,-11
1491088718811,3,58,28,126,2,11,48,17,-9
1491088718811,3,-53,0,-79,59,-13,46,70,-13
1491088718812,0,75,7,-92,-93,3,-35,-24,-2
1491088718812,0,-87,-118,-28,-15,-13,-26,74,-1
1491088718813,1,98,127,39,57,9,21,107,12
1491088718813,1,-39,-76,-6,80,28,-33,23,7
1491088718814,2,79,-14,30,-43,-41,-1,44,-18
1491088718814,2,-124,38,61,-45,69,-39,-40,-5
1491088718849,3,77,-42,-33,3,-27,-111,27,-4
1491088718849,3,-14,-25,55,22,-31,-16,-128,-14
1491088718852,0,-34,24,49,-2,33,-69,40,4
1491088718852,0,-13,-26,-126,-33,-17,21,-43,-6
1491088718852,1,-127,-22,87,-14,-11,73,-120,-18
1491088718852,1,83,127,-51,24,6,56,49,-3
1491088718853,2,-70,-128,45,47,36,-109,127,28
1491088718853,2,127,127,26,54,-24,57,-108,2
1491088718886,3,-128,-128,-113,-54,-26,25,63,-41
1491088718886,3,35,-106,-56,-56,-13,-70,105,26
1491088718887,0,36,127,68,-60,-30,-32,28,-23
1491088718887,0,91,70,13,80,52,64,50,6
1491088718888,1,-68,-62,92,24,59,72,69,-15
1491088718888,1,-49,47,-97,38,-62,59,-128,-6
1491088718924,2,42,-95,-94,-19,-4,-48,8,16
1491088718924,2,-118,-39,59,-30,-67,-26,-48,-53
1491088718925,3,127,33,-128,-34,9,-86,-80,32
1491088718925,3,-32,-101,-25,-71,-8,-34,-9,-9
1491088718926,0,76,127,84,103,38,127,-2,35
1491088718926,0,-64,-75,-77,118,-41,81,-25,-13
1491088718927,1,-96,-79,-120,-111,-68,-106,10,-23
1491088718927,1,58,114,127,-113,56,-122,-87,-16
1491088718961,2,29,48,7,105,54,53,22,0
1491088718961,2,-5,-110,98,36,1,52,-1,23
1491088718962,3,6,-68,-32,-59,-7,-81,110,7
1491088718962,3,-88,48,71,-5,-4,12,8,-19
1491088718963,0,30,88,80,58,15,98,10,-1
1491088718963,0,-16,-13,-52,1,-2,31,13,-1
1491088718964,1,-17,-79,71,-71,-7,8,-92,-30
1491088718964,1,93,-15,-128,87,1,-98,71,3
1491088718999,2,34,63,49,5,-20,-54,17,-6
1491088718999,2,-93,-54,127,8,16,40,-24,-10
1491088719000,3,-28,-41,23,122,-3,98,-89,18
1491088719000,3,107,15,-26,-112,-13,113,72,-6
1491088719001,0,-8,-64,4,-61,-17,-88,91,-17
1491088719001,0,20,57,27,-24,15,-105,40,-3
1491088719036,1,127,51,-55,13,23,2,68,32
1491088719036,1,5,91,127,97,39,-24,40,24
1491088719037,2,-128,-128,-66,35,-51,3,-52,-32
1491088719037,2,127,91,-95,-64,1,-128,-17,14
1491088719038,3,-82,-40,121,-79,62,7,-28,-27
1491088719038,3,-61,1,100,104,-60,54,-4,-14
1491088719039,0,80,-108,-128,-50,-32,-69,-47,47
1491088719039,0,14,78,107,14,11,-3,8,-27
1491088719074,1,-37,-11,-92,127,-7,27,103,29
1491088719074,1,103,45,-119,-128,47,72,70,19
1491088719076,2,-128,-111,100,-113,2,-52,-128,-82
1491088719076,2,115,74,-116,69,0,116,28,53
1491088719077,3,51,-41,-16,-28,-49,-106,-43,8
1491088719077,3,-26,-112,93,86,15,-87,-22,6
1491088719078,0,62,127,26,26,-19,45,50,14
1491088719078,0,3,-122,79,80,1,-79,-24,0
1491088719111,1,-38,107,-18,-75,-61,104,57,-28
1491088719111,1,-22,24,48,24,51,104,74,-3
1491088719112,2,-12,-5,102,-8,-22,127,-61,-13
1491088719112,2,-110,-128,-57,-28,-27,-59,46,-29
1491088719113,3,127,127,110,-37,12,42,-107,-31
1491088719113,3,-128,-68,85,12,-76,48,-124,-34
1491088719114,0,-79,-39,-112,-12,43,1,64,3
1491088719114,0,103,1,100,-48,31,23,39,47
1491088719149,1,-124,52,62,55,27,-66,-8,-5
1491088719149,1,-54,-8,81,-122,48,-61,-69,-14
1491088719151,2,91,80,-25,89,-65,66,-5,7
1491088719151,2,-128,-84,9,2,-30,-4,-43,-18
1491088719152,3,126,97,98,22,66,63,-30,49
1491088719152,3,-83,-77,-39,31,-79,-79,-71,-43
1491088719186,0,7,-38,70,-14,25,-65,53,-18
1491088719186,0,73,34,64,-121,-32,-85,44,67
1491088719187,1,-58,-53,-46,63,2,-103,127,-39
1491088719187,1,55,50,98,-46,26,110,28,39
1491088719187,2,-12,21,22,58,-21,5,-59,-12
1491088719187,2,-4,-74,-46,13,45,100,105,-25
1491088719189,3,20,7,127,49,-41,74,-6,26
1491088719189,3,-41,-49,-128,-26,-17,-75,2,-37
1491088719224,0,59,80,69,22,7,-2,-68,73
1491088719224,0,127,95,69,44,28,85,62,15
1491088719224,1,-128,-128,-59,6,13,11,11,-81
1491088719224,1,116,40,41,38,-20,70,-71,4
1491088719225,2,-26,47,-117,-88,-18,114,-39,-7
1491088719225,2,-23,2,28,-85,14,61,50,20
1491088719226,3,44,2,36,46,36,100,28,-12
1491088719226,3,13,-32,-87,57,7,-16,-4,26
1491088719261,0,-106,3,127,-77,11,-91,-36,-46
1491088719261,0,9,28,27,-16,-54,-128,54,-6
1491088719262,1,-86,-98,-128,-1,19,-128,-39,25
1491088719262,1,127,127,127,-16,29,42,-46,20
1491088719263,2,-64,-14,34,99,36,-2,66,-8
1491088719263,2,-114,-127,-128,-60,2,-86,-9,-7
1491088719264,3,-4,47,16,-52,-88,-23,-91,-39
1491088719264,3,-3,6,31,-43,91,-126,77,17
1491088719299,0,5,-101,-128,56,-55,-82,-14,-8
1491088719299,0,-40,37,94,-29,8,-118,18,-12
1491088719300,1,25,-69,-94,4,-17,-109,-23,27
1491088719300,1,-48,-3,60,77,25,-51,10,-11
1491088719300,2,6,71,-42,-86,-25,-29,40,19
1491088719300,2,-70,-114,-68,39,1,101,-92,-24
1491088719336,3,112,91,30,-47,-10,127,-62,25
1491088719336,3,-128,-16,63,-46,-24,103,61,-21
1491088719337,0,32,-80,-61,-19,62,73,6,17
1491088719337,0,68,121,83,73,-48,23,-25,58
1491088719338,1,-12,-39,124,51,9,6,58,-4
1491088719338,1,-45,-107,-92,2,-67,-3,-23,-16
1491088719339,2,40,74,-15,-68,77,0,60,1
1491088719339,2,44,53,72,43,-15,8,26,-4
1491088719374,3,-68,-59,-60,-53,-31,-12,-57,-29
1491088719374,3,-7,-74,-114,-85,-72,-12,-26,17
1491088719375,0,-128,-128,73,-59,-21,30,-54,-47
1491088719375,0,78,72,41,51,35,-5,-11,-52
1491088719375,1,22,94,127,66,36,-15,37,74
1491088719375,1,19,-120,-128,-50,-29,-2,-19,15
1491088719376,2,-54,-72,-105,-78,10,1,24,-25
1491088719376,2,-11,40,90,10,18,-5,2,-14
1491088719411,3,38,-59,89,35,-2,-14,80,-12
1491088719411,3,-63,-25,-52,-96,-49,6,-53,44
1491088719412,0,-17,-51,-52,-22,-11,4,-33,-13
1491088719412,0,6,-128,47,53,58,-4,68,25
1491088719413,1,-66,-43,-128,-128,3,2,-77,-19
1491088719413,1,-46,16,51,127,-20,0,62,-17
1491088719414,2,47,98,127,43,21,9,-1,32
1491088719414,2,-128,-116,-128,-51,15,-4,-12,0
1491088719449,3,23,-36,10,-79,-28,-4,7,-2
1491088719449,3,-47,-71,-61,5,-47,-5,13,-23
1491088719450,0,-15,95,112,2,-24,-1,-5,-24
1491088719450,0,89,66,56,73,19,0,-45,31
1491088719451,1,-49,-30,31,-91,62,-8,26,22
1491088719451,1,-84,61,-16,74,6,-4,18,-24
1491088719486,2,112,9,98,9,-40,4,-21,23
1491088719486,2,-111,-119,-128,-6,-7,-1,-31,-50
1491088719488,3,92,127,-14,3,-41,2,25,45
1491088719488,3,5,66,-2,-13,18,-1,-11,6
1491088719489,0,43,-1,-79,77,81,2,46,10
1491088719489,0,-4,-35,-80,-128,-35,3,-4,-18
1491088719490,1,27,71,20,127,-23,-3,-14,-3
1491088719490,1,19,-96,-71,91,73,-5,-5,-20
1491088719524,2,94,6,-86,-75,-49,0,34,45
1491088719524,2,49,71,45,-55,-15,-1,-7,11
1491088719525,3,-40,-62,36,51,44,-7,34,-28
1491088719525,3,15,-16,127,-33,2,1,-5,-3
1491088719525,0,-128,-128,-104,-40,-22,-2,-38,-41
1491088719525,0,46,58,67,8,-4,-1,45,18
1491088719526,1,-75,-106,-17,18,-15,1,-57,-21
1491088719526,1,97,127,0,51,49,-5,0,23
1491088719561,2,-38,-114,-102,37,37,1,-16,-15
1491088719561,2,-15,-14,19,-62,-46,2,-12,-7
1491088719562,3,-39,-92,127,-10,10,-2,73,-10
1491088719562,3,-77,-125,-107,-61,51,2,63,-16
1491088719562,0,41,109,121,52,-55,2,15,16
1491088719562,0,88,51,-19,-52,69,-4,5,2
1491088719564,1,-53,-12,38,17,-10,-3,10,2
1491088719564,1,14,10,127,58,-1,4,-72,-5
1491088719599,2,-92,-107,-96,-44,-58,-7,-44,-7
1491088719599,2,-7,27,84,127,33,-2,22,0
1491088719600,3,103,127,42,-44,33,-4,-26,20
1491088719600,3,58,82,1,-50,60,-4,56,9
1491088719601,0,-85,-52,-8,-13,-78,0,-56,-11
1491088719601,0,-122,-128,-110,-90,-7,-3,-44,-43
1491088719636,1,-25,-38,-15,-27,-53,-2,-34,3
1491088719636,1,107,99,127,98,38,1,42,17
1491088719637,2,-6,-55,9,28,-35,1,-16,0
1491088719637,2,-128,-128,-112,-128,-61,-3,-44,-22
1491088719637,3,-61,17,29,-14,-37,5,-2,-26
1491088719637,3,88,69,117,44,50,-5,-46,28
1491088719639,0,4,-50,-10,-81,5,-1,-44,9
1491088719639,0,6,33,25,-13,-15,2,-28,2
1491088719674,1,-6,-11,-89,-24,54,2,-37,2
1491088719674,1,-36,-128,11,39,-54,-1,-55,-1
1491088719675,2,-24,-8,24,-41,57,1,33,-4
1491088719675,2,42,44,105,53,-23,-4,-48,10
1491088719675,3,45,-4,27,-97,-1,-3,39,-12
1491088719675,3,-48,-46,-112,-72,-56,0,46,-7
1491088719676,0,-57,-98,15,-76,-1,0,69,-7
1491088719676,0,-15,35,23,88,55,-2,-28,-9
1491088719711,1,72,125,77,85,36,-4,56,12
1491088719711,1,-41,-30,-113,-44,17,6,40,-9
1491088719712,2,13,-24,4,-41,-80,-4,49,3
1491088719712,2,-27,-46,-128,-21,13,-2,67,-11
1491088719713,3,14,-22,-40,-49,93,0,116,-3
1491088719713,3,-49,-62,-128,-73,-65,0,-73,-2
1491088719714,0,-47,-36,29,127,-76,-3,-52,-5
1491088719714,0,62,82,127,111,-6,-2,-61,12
1491088719749,1,56,16,-36,43,56,0,-128,11
1491088719749,1,-6,-78,25,-42,6,-9,-60,0
1491088719749,2,24,14,-46,-19,92,-2,-101,0
1491088719749,2,-40,-113,-128,-55,31,0,49,-10
1491088719750,3,-5,18,-52,-18,-128,-2,80,3
1491088719750,3,-25,-6,-41,-119,84,1,12,-21
1491088719786,0,4,77,17,7,68,-5,36,-4
1491088719786,0,25,34,83,50,-35,-2,88,15
1491088719787,1,3,-20,-92,-92,-122,-1,47,-4
1491088719787,1,4,15,102,72,16,0,-9,0
1491088719788,2,39,17,-21,-58,68,3,56,1
1491088719788,2,-72,-44,-61,-84,11,3,-109,-19
1491088719789,3,-20,-50,-21,26,-37,-5,-51,2
1491088719789,3,0,14,-2,-121,-62,-1,2,-7
1491088719824,0,49,27,124,127,-12,-6,73,6
1491088719824,0,22,24,20,2,3,-7,42,8
1491088719824,1,-44,-51,-38,-45,-21,-4,-39,-8
1491088719824,1,0,21,-32,-4,51,-5,34,-1
1491088719825,2,28,82,24,1,-10,-3,16,8
1491088719825,2,-17,-46,-41,-71,25,1,63,-4
1491088719826,3,-34,-38,-68,-25,-25,2,4,-10
1491088719826,3,4,12,7,5,17,1,22,6
1491088719861,0,21,36,17,-18,17,0,2,3
1491088719861,0,-14,-23,-31,-61,-46,-2,-61,-12
1491088719862,1,2,-7,15,103,-19,3,-57,9
1491088719862,1,27,39,47,48,-80,5,-48,0
1491088719863,2,2,28,29,10,-5,3,15,0
1491088719863,2,-24,-40,-30,-43,56,0,21,-4
1491088719899,3,7,-5,13,-5,55,-3,17,3
1491088719899,3,-12,-19,-10,-50,-71,-8,-11,-7
1491088719899,0,6,-1,8,65,70,-1,13,-2
1491088719899,0,-14,11,4,21,-64,-3,21,-2
1491088719900,1,-1,11,-10,24,-44,5,-83,-2
1491088719900,1,1,-19,-13,24,6,4,38,8
1491088719901,2,-25,-17,-33,-93,5,-5,36,-12
1491088719901,2,27,13,25,28,6,3,3,6
1491088719936,3,-15,-27,-20,7,21,8,97,-4
1491088719936,3,0,-8,28,25,-17,-4,47,0
1491088719937,0,8,-8,-7,-33,-7,1,58,1
1491088719937,0,-4,2,20,40,-9,-1,-2,0
1491088719938,1,-31,1,-16,-33,-15,-6,-100,-7
1491088719938,1,10,-32,-45,-39,0,2,-79,2
1491088719939,2,5,18,-3,-35,20,-2,-29,-2
1491088719939,2,15,28,55,74,-53,4,-124,7
1491088719974,3,-15,-16,-14,-33,61,-4,-2,-12
1491088719974,3,-27,3,-15,-24,23,-4,41,1
1491088719975,0,-1,5,-18,21,-8,-2,41,-4
1491088719975,0,-18,-6,-56,-128,40,-3,77,-14
1491088719975,1,26,34,39,98,-56,-8,119,2
1491088719975,1,25,-5,10,-19,1,-5,127,-1
1491088719976,2,-12,-18,-9,-7,-52,-6,83,-3
1491088719976,2,-6,-6,16,-4,-5,-5,37,-2
1491088720011,3,-89,13,19,-22,28,0,-44,0
1491088720011,3,-54,16,-3,50,-12,0,-51,3
1491088720012,0,-16,0,-22,5,-36,4,-87,5
1491088720012,0,2,-30,-34,15,-7,4,44,1
1491088720013,1,34,-31,10,-29,25,-5,102,-2
1491088720013,1,18,-22,10,-11,27,-2,-113,-4
1491088720049,2,27,17,60,23,-17,1,-38,9
1491088720049,2,27,23,3,37,43,-2,-85,6
1491088720050,3,30,14,-17,-10,-3,2,-98,-9
1491088720050,3,34,39,1,-18,1,-5,-41,-2
1491088720051,0,4,-17,-31,-1,12,3,-28,-3
1491088720051,0,26,4,-20,-8,-46,-6,-15,-2
1491088720052,1,-28,-67,-107,-21,20,2,-96,-2
1491088720052,1,10,29,79,51,-10,2,30,-13
1491088720086,2,5,90,60,-18,60,0,-43,15
1491088720086,2,75,39,-27,-28,-15,-7,-9,11
1491088720087,3,-50,-37,-4,39,-23,0,-40,-9
1491088720087,3,11,-42,-101,-62,-27,3,95,5
1491088720088,0,5,-31,1,24,-5,-4,-25,0
1491088720088,0,-48,-21,45,-10,-18,-4,18,-16
1491088720089,1,31,-18,-26,-31,31,-5,17,20
1491088720089,1,-3,11,-31,14,3,-3,-9,2
1491088720124,2,31,-10,82,24,7,-3,31,6
1491088720124,2,15,20,-59,3,-23,-3,114,0
1491088720126,3,-38,7,26,52,30,2,-20,-5
1491088720126,3,7,27,102,14,18,-2,59,-1
1491088720127,0,78,83,97,24,10,0,-30,6
1491088720127,0,-19,-27,-31,6,-1,2,-15,6
1491088720128,1,4,-85,-51,-57,-8,-7,-75,-12
1491088720128,1,-88,-83,-125,-28,5,108,3,-9
1491088720161,2,-25,-59,-128,-74,-34,76,-71,-5
1491088720161,2,-9,24,112,48,25,-43,-73,-8
1491088720162,3,79,127,111,46,22,-66,-41,5
1491088720162,3,0,16,94,41,5,51,-48,-8
1491088720163,0,15,-79,-127,-36,-24,-119,-32,-18
1491088720163,0,41,-16,79,2,-28,-83,-58,-13
1491088720199,1,-10,-38,53,12,-12,-117,127,5
1491088720199,1,92,120,40,31,16,-51,-127,-6
1491088720201,2,58,-8,-16,6,-19,43,79,1
1491088720201,2,-80,-88,-128,-75,-20,-16,66,17
1491088720202,3,90,46,24,-17,0,3,-73,-16
1491088720202,3,-101,-128,-109,-117,-46,-25,-19,-9
1491088720203,0,-9,100,78,19,25,21,53,-2
1491088720203,0,80,127,117,114,94,39,33,12
1491088720237,1,24,4,-94,-24,-25,57,46,28
1491088720237,1,44,-63,-92,-8,-10,-2,52,9
1491088720239,2,-75,-68,-79,-28,-31,-7,-78,-10
1491088720239,2,-1,-83,-128,-23,-10,39,-19,-16
1491088720240,3,-37,72,123,28,17,41,43,11
1491088720240,3,0,27,80,12,36,-7,-63,-2
1491088720241,0,33,-5,-81,-48,-50,-7,-44,2
1491088720241,0,-110,-117,-45,-27,-6,28,51,-26
1491088720274,1,60,70,44,10,24,103,-48,-13
1491088720274,1,48,118,-35,29,-28,-118,55,13
1491088720276,2,38,-10,109,81,59,-34,117,19
1491088720276,2,-19,76,113,11,-19,-9,10,4
1491088720277,3,-22,-128,-128,-64,-21,-23,70,-31
1491088720277,3,35,68,127,13,46,-26,-79,-4
1491088720278,0,-128,18,96,49,23,-72,22,-6
1491088720278,0,102,-54,-72,-4,-11,-71,-125,18
1491088720312,1,11,-102,-74,-78,-36,-126,-37,-9
1491088720312,1,-53,61,-3,-26,-2,-35,-9,8
1491088720314,2,6,-87,24,0,-12,29,76,-10
1491088720314,2,-77,127,4,-34,0,-51,31,-6
1491088720315,3,4,-7,82,24,1,14,96,14
1491088720315,3,-90,-128,-128,38,-30,57,23,-4
1491088720349,0,59,-13,-48,-20,-23,64,-103,-3
1491088720349,0,-110,-58,-9,-28,-4,40,50,-9
1491088720350,1,121,127,65,79,52,-82,83,0
1491088720350,1,110,105,99,28,53,63,79,2
1491088720351,2,-61,-70,-56,-10,-11,4,-18,-1
1491088720351,2,-2,-128,-125,-17,-48,63,-120,3
1491088720352,3,-101,22,16,-7,-22,-66,-93,-4
1491088720352,3,29,-57,-39,-60,-11,-2,121,19
1491088720386,0,-77,-84,-112,-42,-31,-67,-29,-36
1491088720386,0,127,127,115,72,50,127,57,21
1491088720388,1,-128,-79,-4,51,20,83,-61,-16
1491088720388,1,-32,-115,-71,-22,-30,-91,31,-9
1491088720388,2,-4,-66,-121,-66,-21,-74,-92,-19
1491088720388,2,-49,-127,-128,-47,24,-128,28,-24
1491088720389,3,-3,115,127,27,-7,-24,-92,14
1491088720389,3,13,-70,9,48,33,-16,-24,-13
1491088720424,0,106,127,29,-7,6,-44,47,48
1491088720424,0,-13,6,92,19,-20,-93,51,-7
1491088720425,1,51,-123,-128,-42,-25,-36,51,6
1491088720425,1,-97,-3,-41,0,-13,-23,-126,-6
1491088720426,2,-53,65,105,29,-2,-100,108,16
1491088720426,2,47,1,-3,-68,5,28,-128,-31
1491088720426,3,82,70,76,-2,12,92,37,16
1491088720426,3,-83,-106,-128,3,-31,4,74,11
1491088720461,0,69,113,91,32,41,127,-92,-12
1491088720461,0,-89,-72,-21,4,-23,117,62,-18
1491088720462,1,70,-96,-128,-22,12,-58,-49,2
1491088720462,1,-57,-74,127,3,38,-14,-34,-21
1491088720463,2,97,100,115,68,28,27,-91,11
1491088720463,2,106,-33,-61,-17,2,67,123,21
1491088720502,3,61,83,22,-13,-12,123,-88,-7
1491088720502,3,26,-60,-87,1,-27,-43,81,-16
1491088720504,0,-108,-114,-69,-37,-17,107,-81,-26
1491088720504,0,74,110,80,51,14,-4,-35,28
1491088720506,1,-128,-128,-32,-17,-18,-14,95,20
1491088720506,1,117,127,72,-31,-6,-44,75,13
1491088720507,2,-60,-127,-128,-46,-7,-128,-26,-15
1491088720507,2,16,17,75,31,13,-27,-2,22
1491088720537,3,63,108,92,72,7,23,30,8
1491088720537,3,48,-51,-20,-1,12,86,-66,0
1491088720539,0,-81,-51,-10,-39,-15,109,46,-17
1491088720539,0,-22,-52,-8,52,-12,-44,50,6
1491088720541,1,44,-6,-55,-8,3,-53,0,-8
1491088720541,1,2,-65,-13,-9,-51,37,-128,-2
1491088720542,2,-53,80,-127,-105,4,83,-23,-10
1491088720542,2,-95,-104,87,43,15,-101,-47,-19
1491088720574,3,50,96,105,39,17,28,-23,17
1491088720574,3,-89,21,110,68,4,52,60,-27
1491088720576,0,29,-68,-18,-1,15,-128,2,13
1491088720576,0,61,0,-113,-88,-15,-54,34,-7
1491088720577,1,-26,-31,-29,25,2,-11,-2,-11
1491088720577,1,61,59,37,32,-14,-13,-60,36
1491088720578,2,11,-76,-23,2,-17,-83,95,-42
1491088720578,2,-2,111,63,-22,-18,112,-71,-26
1491088720612,3,74,0,-112,-63,-33,19,86,2
1491088720612,3,-2,-61,-89,-57,0,4,103,-37
1491088720613,0,35,91,54,75,-12,79,127,50
1491088720613,0,124,32,-32,43,38,25,-80,22
1491088720614,1,-128,-120,104,-65,-19,73,58,-46
1491088720614,1,67,60,6,39,27,21,40,19
1491088720649,2,-25,-128,-5,-20,-15,49,-43,-23
1491088720649,2,-86,-34,-43,5,-22,-53,-10,-12
1491088720650,3,111,103,68,69,9,-8,72,28
1491088720650,3,-2,-118,-113,78,31,-70,-111,-8
1491088720651,0,120,127,127,65,16,-60,42,17
1491088720651,0,-100,-107,-97,-31,-50,102,-53,-27
1491088720652,1,-128,-128,-111,-72,-1,3,2,-28
1491088720652,1,81,60,74,-80,12,-120,-13,17
1491088720687,2,98,117,94,-31,58,113,73,-17
1491088720687,2,-18,-38,32,45,-24,-6,-58,6
1491088720690,3,-16,-75,-7,-64,-10,-5,-37,-9
1491088720690,3,-128,-107,-49,-33,-54,22,-5,-31
1491088720691,0,-27,-47,-128,-40,8,-98,-8,2
1491088720691,0,111,121,127,3,22,127,69,9
1491088720692,1,-59,-38,46,84,12,-11,43,9
1491088720692,1,93,49,-48,34,-20,1,-84,29
1491088720724,2,-74,-128,-52,-13,-59,-39,-53,-19
1491088720724,2,0,70,-128,-54,9,-128,127,28
1491088720725,3,62,115,48,26,21,-45,-128,-7
1491088720725,3,0,-35,127,24,29,127,127,5
1491088720725,0,82,-107,-4,104,-15,-10,-64,26
1491088720725,0,-111,58,9,-95,-15,6,-83,-27
1491088720726,1,109,79,63,-19,51,19,4,25
1491088720726,1,-101,-30,59,23,7,26,8,-5
1491088720761,2,-1,-26,-98,-12,-36,13,91,3
1491088720761,2,-103,-128,108,42,-8,-105,-19,-20
1491088720762,3,49,68,-128,-45,-10,74,-33,-14
1491088720762,3,15,44,90,-11,51,-65,3,1
1491088720763,0,69,111,27,52,49,107,105,35
1491088720763,0,77,-89,-82,-69,-59,-51,-31,-8
1491088720799,1,-128,-128,-128,-115,-74,19,-89,-50
1491088720799,1,127,101,19,41,-8,-19,39,11
1491088720799,2,-125,66,53,18,21,44,66,9
1491088720799,2,56,-19,127,95,93,49,78,13
1491088720800,3,44,73,46,97,-41,-14,8,39
1491088720800,3,-128,-120,-128,-128,-59,87,-39,-22
1491088720801,0,12,-55,15,-54,-10,-128,-60,-5
1491088720801,0,13,120,29,67,37,34,24,0
1491088720836,1,45,-57,100,93,47,-42,53,23
1491088720836,1,-19,-20,127,83,14,-45,62,-5
1491088720844,2,-29,108,-67,-45,-80,127,-106,-26
1491088720844,2,-128,-128,-117,-66,-10,-20,-128,-25
1491088720844,3,73,103,89,-59,9,-94,20,19
1491088720844,3,104,33,-7,88,30,26,8,30
1491088720845,0,-86,-126,74,97,6,-23,78,-21
1491088720845,0,113,42,-65,-27,-27,-28,-53,38
1491088720874,1,-99,-109,-128,-105,-33,67,37,-20
1491088720874,1,-49,11,32,-18,-30,-95,-64,-15
1491088720874,2,75,-29,127,67,42,-28,11,-1
1491088720874,2,-29,117,127,12,18,60,104,-12
1491088720876,3,-102,-57,-91,43,-12,73,-53,4
1491088720876,3,-22,-114,33,-116,-32,-83,-79,-29
1491088720911,0,5,86,78,-1,-1,127,-128,11
1491088720911,0,-42,-94,-56,49,9,-122,9,2
1491088720912,1,54,75,127,-11,38,97,108,-28
1491088720912,1,-2,11,-63,57,-5,94,50,10
1491088720913,2,56,-105,-78,-3,-5,-128,-98,27
1491088720913,2,-81,60,2,-119,-15,32,99,-19
1491088720913,3,-1,-84,-41,82,-3,-128,36,-11
1491088720913,3,10,93,-90,54,19,-22,-39,7
1491088720949,0,94,127,127,-43,-10,89,-5,30
1491088720949,0,-49,-128,-94,66,4,-28,127,1
