1491089240958,0,-101,-105,-112,-107,-73,-61,-101,30
1491089240958,0,89,96,91,107,11,103,11,-39
1491089240960,1,90,80,77,105,11,28,22,-31
1491089240960,1,-1,29,43,55,19,3,-11,-12
1491089240961,2,68,54,66,72,36,-19,63,7
1491089240961,2,-79,-66,-50,-60,-18,-41,-61,-20
1491089240995,3,-19,-31,-31,-35,-16,-23,-21,-1
1491089240995,3,-46,-17,-8,-47,-8,-14,-10,-23
1491089240996,0,30,8,3,-5,14,-1,-51,-7
1491089240996,0,-15,-29,-35,-40,2,-8,40,35
1491089240997,1,40,28,7,-9,15,8,10,5
1491089240997,1,-1,-11,-25,-23,-24,-8,-22,1
1491089240997,2,0,9,7,11,9,30,34,-4
1491089240997,2,48,32,16,10,-1,-14,28,17
1491089241033,3,-101,-76,-32,-31,-2,2,-75,-32
1491089241033,3,59,10,-10,-10,1,15,64,25
1491089241033,0,-72,-16,-6,-19,-1,1,13,-47
1491089241033,0,-4,-8,-5,-3,-9,-20,-51,-1
1491089241034,1,-1,-4,-7,0,-11,-19,-20,9
1491089241034,1,-22,1,-7,-14,2,14,-56,-2
1491089241070,2,53,35,23,37,9,18,24,12
1491089241070,2,47,9,-1,5,6,-11,-8,5
1491089241071,3,-52,-20,-8,-14,-14,-6,-21,6
1491089241071,3,16,3,8,17,12,6,83,14
1491089241071,0,-8,-5,5,-2,10,2,43,-5
1491089241071,0,-45,-19,-16,-22,-20,4,43,-19
1491089241072,1,10,6,6,31,3,-2,28,8
1491089241072,1,29,2,5,18,8,-7,-23,-10
1491089241107,2,38,29,5,-2,11,3,12,28
1491089241107,2,-29,-17,5,1,-4,12,-57,-12
1491089241108,3,14,4,-3,-12,-9,1,54,4
1491089241108,3,22,25,13,12,-8,-11,-49,1
1491089241109,0,-14,-29,-21,-18,-5,3,-51,-17
1491089241109,0,20,37,23,45,13,-1,66,18
1491089241110,1,-81,-73,-33,-42,-28,-15,-44,-37
1491089241110,1,-17,-17,-1,2,10,2,20,0
1491089241145,2,46,22,9,11,-2,2,-31,-4
1491089241145,2,14,-3,-3,3,-8,-3,45,6
1491089241146,3,21,31,6,7,6,-15,-46,4
1491089241146,3,39,10,3,15,4,-6,58,12
1491089241147,0,-14,-9,2,-20,-27,-2,-84,-19
1491089241147,0,-42,-13,-12,-8,1,-9,9,-26
1491089241147,1,-19,-10,-4,-16,22,27,59,10
1491089241147,1,23,7,8,15,-11,-3,-50,6
1491089241182,2,0,3,5,23,-6,9,79,-2
1491089241182,2,-4,6,9,1,9,-7,-43,1
1491089241183,3,32,-2,-9,-26,-11,-15,-31,-10
1491089241183,3,6,23,8,10,-3,-3,6,-1
1491089241184,0,-31,-25,-19,-33,6,8,46,2
1491089241184,0,-92,-37,-6,9,-18,-13,-22,-24
1491089241220,1,3,14,5,16,6,3,-14,5
1491089241220,1,6,-1,-12,-9,-16,-8,-98,-10
1491089241222,2,25,28,18,9,9,7,60,9
1491089241222,2,9,-10,-9,-11,-2,-6,-39,3
1491089241224,3,30,12,10,7,9,12,-9,18
1491089241224,3,-11,-11,-14,-16,-2,4,94,2
1491089241225,0,-8,21,16,35,-2,-5,-52,0
1491089241225,0,-15,-29,-25,-38,-10,10,-53,-10
1491089241257,1,-11,-16,-9,3,3,10,79,1
1491089241257,1,4,-11,-12,-26,-4,-12,-84,-1
1491089241259,2,16,-6,5,7,1,-2,32,8
1491089241259,2,26,23,13,21,6,-6,-2,9
1491089241260,3,12,31,8,-17,0,2,70,-1
1491089241260,3,-42,-22,-12,13,-5,13,-8,-2
1491089241261,0,-85,-40,7,21,-1,-5,45,-21
1491089241261,0,43,8,-8,-26,2,-11,26,4
1491089241295,1,18,4,-3,4,4,-18,6,12
1491089241295,1,-4,11,10,-19,8,-8,-2,-2
1491089241299,2,9,6,-3,27,-16,-7,-6,-13
1491089241299,2,41,9,7,14,9,18,6,13
1491089241300,3,-33,-13,-11,-6,-14,-7,-34,-15
1491089241300,3,-4,-9,-13,-30,-3,-2,17,-2
1491089241300,0,25,25,8,7,-2,12,-13,0
1491089241300,0,-36,-27,-7,-13,7,1,-42,-24
1491089241332,1,4,-15,-6,9,-8,6,2,3
1491089241332,1,-7,-1,-3,-1,-10,-7,18,-6
1491089241333,2,-2,-9,-8,-10,-1,-7,-53,8
1491089241333,2,15,18,2,2,-2,-10,13,14
1491089241370,3,7,15,7,8,-3,10,16,7
1491089241370,3,9,-14,0,17,1,6,-9,-11
1491089241371,0,-13,4,2,-8,7,-7,69,-3
1491089241371,0,-24,-15,-14,-22,-9,8,30,8
1491089241373,1,-18,-2,4,-6,-12,-1,-38,-8
1491089241373,1,-31,-17,-6,14,9,13,38,6
1491089241373,2,11,-4,-7,-10,4,9,-36,-3
1491089241373,2,7,10,16,29,12,-14,-11,-1
1491089241407,3,11,26,3,-17,-10,-5,25,3
1491089241407,3,72,23,8,19,-1,3,33,7
1491089241408,0,-43,-20,-7,-15,5,7,-21,-7
1491089241408,0,11,1,4,6,5,-3,10,-5
1491089241409,1,-41,-35,-18,-13,0,20,40,-12
1491089241409,1,33,9,0,-8,0,-14,-70,4
1491089241410,2,30,5,1,12,2,0,-6,2
1491089241410,2,15,7,1,-5,-2,-2,95,15
1491089241446,3,-4,0,9,8,0,-13,-81,-17
1491089241446,3,-81,-28,-11,-6,-6,20,-23,-24
1491089241447,0,33,25,9,5,2,-6,-3,11
1491089241447,0,-50,-31,-28,-43,-16,-1,-21,-16
1491089241448,1,23,13,0,8,5,-14,-15,8
1491089241448,1,-6,2,4,17,-10,5,29,4
1491089241449,2,-13,-24,-16,-37,-4,-13,-35,-16
1491089241449,2,63,39,22,43,4,12,55,29
1491089241482,3,-55,-19,-7,-16,-9,-30,-88,-48
1491089241482,3,1,-20,-11,-12,0,-7,31,1
1491089241483,0,-34,-13,-5,14,-1,0,30,-4
1491089241483,0,16,11,6,-7,0,-1,-20,-7
1491089241484,1,1,-22,-19,-18,-12,12,-11,20
1491089241484,1,33,41,27,23,15,-3,-2,0
1491089241485,2,-20,-33,-23,-21,-20,-5,17,-15
1491089241485,2,-29,-18,-5,12,-9,-18,-74,-25
1491089241520,3,45,31,13,7,7,1,-27,15
1491089241520,3,-24,-20,-12,-15,-7,-17,9,-15
1491089241522,0,18,8,-5,5,-6,7,-1,13
1491089241522,0,0,0,-1,-8,6,7,-15,3
1491089241522,1,23,5,6,32,-2,3,46,2
1491089241522,1,24,19,9,5,-4,0,-20,11
1491089241523,2,-42,-12,-3,-6,3,-6,-14,-20
1491089241523,2,-6,-15,-11,-12,-6,7,50,3
1491089241557,3,9,9,7,8,2,1,-25,29
1491089241557,3,48,6,2,-7,10,9,84,11
1491089241558,0,23,26,18,4,-3,-8,-73,-2
1491089241558,0,-61,-45,-29,-30,-10,12,52,-11
1491089241559,1,40,3,9,20,4,5,17,4
1491089241559,1,9,15,9,6,-6,0,22,8
1491089241560,2,16,-4,-13,-31,1,-13,-8,7
1491089241560,2,-43,-2,-4,-5,4,11,-59,-22
1491089241595,3,39,8,6,17,2,1,73,14
1491089241595,3,-56,-24,-18,-21,-8,1,-8,-19
1491089241596,0,52,27,1,-3,-1,1,-13,7
1491089241596,0,-1,15,15,13,3,-12,-4,0
1491089241597,1,24,1,-6,-3,8,16,49,8
1491089241597,1,-74,-26,-6,11,9,-15,-51,-13
1491089241598,2,10,8,12,-8,-5,2,-20,7
1491089241598,2,-5,-12,-3,-6,-8,6,-8,-3
1491089241632,3,4,21,3,-6,5,2,5,-7
1491089241632,3,53,-25,-28,-39,-21,-8,-29,9
1491089241633,0,30,2,9,23,8,22,62,10
1491089241633,0,-39,1,-7,1,-8,-22,-27,-18
1491089241634,1,-82,-27,-10,-25,5,4,-9,-18
1491089241634,1,34,28,18,26,5,9,36,14
1491089241670,2,-23,-31,-13,-4,-7,-7,-5,2
1491089241670,2,83,34,12,11,-7,-15,48,11
1491089241671,3,-18,-14,-12,-14,1,-10,-49,-5
1491089241671,3,-75,-14,-9,-23,-2,11,1,-19
1491089241672,0,61,27,12,44,17,10,58,19
1491089241672,0,-14,0,8,-15,-4,-10,-77,-22
1491089241672,1,-15,-11,-8,0,-3,5,64,3
1491089241672,1,-10,-9,-5,-15,-1,-7,-51,-17
1491089241707,2,-19,7,4,1,-14,-12,-27,-8
1491089241707,2,-5,-13,-14,-3,13,2,34,9
1491089241708,3,-2,23,12,15,-5,-7,-40,-14
1491089241708,3,-70,-54,-15,-11,-8,16,88,-5
1491089241709,0,-57,-4,-11,-17,-2,-6,-44,-16
1491089241709,0,19,1,5,12,1,-5,-72,3
1491089241710,1,48,26,0,-16,-3,-3,54,16
1491089241710,1,-12,-6,3,2,3,12,42,-2
1491089241745,2,0,6,-1,8,0,-6,-19,-4
1491089241745,2,35,18,9,1,-17,-15,-65,7
1491089241746,3,-42,-17,-13,-13,-8,-4,-7,-25
1491089241746,3,13,1,0,-14,6,1,-52,5
1491089241747,0,-32,-35,-10,-11,-3,8,32,-7
1491089241747,0,-3,-5,-2,3,0,5,20,8
1491089241748,1,-8,6,7,20,11,-22,-72,-15
1491089241748,1,8,9,-3,-6,-22,-17,-14,6
1491089241782,2,62,30,10,19,0,6,32,14
1491089241782,2,39,-8,-2,7,4,2,92,7
1491089241783,3,-26,-21,-6,-14,1,16,-47,-5
1491089241783,3,-11,-3,-2,-6,0,-9,-50,6
1491089241784,0,-24,-6,-2,-5,-7,-6,-7,-10
1491089241784,0,38,27,2,5,-3,2,-27,15
1491089241820,1,43,0,-7,-7,-2,-1,19,5
1491089241820,1,-21,10,6,25,10,-8,-15,-7
1491089241821,2,2,-6,-1,-17,-13,-6,-40,-7
1491089241821,2,-28,-20,-1,10,1,7,3,-3
1491089241822,3,49,24,14,15,13,3,1,9
1491089241822,3,-20,1,1,7,-9,7,-10,-8
1491089241823,0,-34,-11,-16,-22,0,29,55,0
1491089241823,0,13,-6,5,10,19,5,-53,-15
1491089241895,1,-22,-11,-3,2,-21,-2,45,5
1491089241895,1,78,47,13,17,11,-13,7,14
1491089241896,2,-42,-25,-13,-2,-9,-12,-86,-28
1491089241896,2,-52,-28,-8,-16,3,6,58,9
1491089241897,3,12,9,-3,-16,-3,-12,-25,-7
1491089241897,3,3,-18,-6,-5,-9,-2,21,-6
1491089241898,0,12,14,10,3,-3,-17,-42,5
1491089241898,0,-33,-23,-23,-37,-3,8,50,-6
1491089241932,1,11,7,19,44,5,5,55,6
1491089241932,1,10,13,9,5,-3,-3,3,5
1491089241933,2,22,8,4,12,7,1,-4,7
1491089241933,2,-31,3,-4,-20,-3,-1,19,2
1491089241934,3,6,-9,-9,-15,-4,5,15,-1
1491089241934,3,-9,9,11,12,6,-5,-48,1
1491089241935,1,-10,-8,-1,0,-9,2,-7,4
1491089241935,1,-24,-13,-15,-8,12,12,-12,-11
1491089241970,2,34,9,9,3,-7,-4,33,15
1491089241970,2,14,24,-4,-30,-8,6,40,-19
1491089241971,3,-102,-36,-6,-5,3,-6,16,-25
1491089241971,3,17,13,10,33,5,7,0,2
1491089241972,0,-53,-31,-14,-23,-12,-11,-71,-21
1491089241972,0,43,-2,-10,-5,3,1,-3,16
1491089241973,1,17,23,12,13,12,3,-21,4
1491089241973,1,-10,-6,-15,-26,-17,-11,-16,-6
1491089242007,2,-19,-13,2,24,10,10,23,-6
1491089242007,2,15,10,7,17,-19,-3,-21,13
1491089242008,3,-11,-10,-10,-17,2,5,6,-8
1491089242008,3,0,-4,3,3,8,4,39,7
1491089242009,0,35,27,7,7,-6,-6,-36,21
1491089242009,0,16,-13,-4,4,-1,8,97,-7
1491089242010,1,-58,-11,-5,-21,4,-14,-102,-19
1491089242010,1,55,-10,-7,-7,-3,10,103,16
1491089242045,2,16,1,0,1,-5,-2,-81,20
1491089242045,2,-58,-7,-7,-27,3,4,-5,-19
1491089242046,3,26,19,15,23,-8,2,53,17
1491089242046,3,2,-2,-5,0,-7,-6,25,-6
1491089242047,0,47,1,-2,4,-2,-11,-49,6
1491089242047,0,13,48,17,23,0,3,46,24
1491089242048,1,-46,-67,-35,-42,-5,7,-31,-32
1491089242048,1,20,17,8,-5,19,10,4,17
1491089242083,2,-26,-11,0,22,-15,-4,43,-12
1491089242083,2,-24,-14,0,-7,6,-1,-98,5
1491089242085,3,84,31,5,19,3,-5,41,12
1491089242085,3,-35,-10,-1,-11,-16,-9,-28,1
1491089242086,0,49,29,5,6,3,8,41,8
1491089242086,0,4,-10,-8,0,-4,-10,56,-2
1491089242087,1,-60,-37,-18,-26,10,19,-30,-5
1491089242087,1,-15,-16,-5,-8,-12,-1,48,-11
1491089242120,2,56,26,8,19,23,-2,16,9
1491089242120,2,-1,9,13,26,-18,-10,-33,-3
1491089242121,3,39,17,4,8,-3,18,48,18
1491089242121,3,-47,-21,-5,-4,-3,-19,-49,-43
1491089242122,0,-51,-3,-4,-16,7,16,27,0
1491089242122,0,49,33,9,9,18,-6,2,15
1491089242122,1,-66,-49,-16,4,-12,-10,10,-24
1491089242122,1,2,-4,-3,-2,2,4,-21,7
1491089242157,2,6,8,4,-6,2,0,-45,5
1491089242157,2,-17,-19,0,8,0,-3,3,-17
1491089242159,3,42,41,5,-12,0,-3,-2,13
1491089242159,3,8,2,-5,-4,5,-7,11,7
1491089242159,0,-23,-22,-7,3,-20,-4,4,-21
1491089242159,0,-33,-14,-2,3,5,2,-30,-7
1491089242160,1,6,0,1,-10,-15,-5,66,9
1491089242160,1,-8,-2,-4,-11,-8,-11,-108,-19
1491089242195,2,8,10,2,-4,12,8,75,24
1491089242195,2,26,-37,-8,6,-10,-1,10,-19
1491089242196,3,-8,4,3,14,10,-5,1,16
1491089242196,3,78,37,6,-7,-7,4,-37,8
1491089242197,0,-116,-56,-26,-34,-13,-8,-75,-49
1491089242197,0,6,6,-11,-23,-8,-2,-18,25
1491089242198,1,30,10,2,-1,19,4,65,2
1491089242198,1,-35,-5,10,31,-14,7,-10,10
1491089242232,2,50,22,8,0,-7,-5,-5,-3
1491089242232,2,-44,-7,-3,-5,11,-1,-91,-20
1491089242234,3,24,11,2,7,-7,2,40,10
1491089242234,3,32,-3,0,5,1,2,-15,-3
1491089242234,0,-24,-18,-17,-35,-2,-3,56,3
1491089242234,0,61,24,14,26,-4,-5,-56,-1
1491089242235,1,43,20,10,16,0,-8,-29,18
1491089242235,1,-88,-36,-26,-35,-9,7,-7,-25
1491089242270,2,-74,-39,-12,-32,8,10,35,-16
1491089242270,2,25,12,6,4,-4,7,10,11
1491089242271,3,19,1,-4,-9,-14,-16,-41,-16
1491089242271,3,20,26,12,35,8,-6,-38,8
1491089242272,0,35,11,-4,-5,-1,3,48,8
1491089242272,0,-48,-14,-3,-5,-7,4,-4,-13
1491089242273,1,23,4,10,33,1,2,4,9
1491089242273,1,34,3,1,-2,11,9,69,6
1491089242307,2,-20,13,1,-11,-5,5,62,10
1491089242307,2,-46,-36,-13,1,-3,1,40,-25
1491089242310,3,-32,-8,1,7,-4,-13,-37,-1
1491089242310,3,41,0,-4,-6,12,0,41,16
1491089242311,0,26,24,11,18,2,-15,23,-3
1491089242311,0,-3,-10,-17,-24,-4,4,-46,1
1491089242312,1,15,18,10,12,-11,8,-3,9
1491089242312,1,-20,-34,-23,-37,-16,-15,19,-16
1491089242345,2,1,-5,6,16,11,6,-96,-6
1491089242345,2,7,12,-4,-3,2,2,47,10
1491089242346,3,-18,-17,-5,-15,-9,14,36,-8
1491089242346,3,17,30,8,19,4,-14,-10,7
1491089242347,0,-30,-22,-11,-34,-14,-5,-85,-15
1491089242347,0,14,24,10,22,5,-1,38,4
1491089242382,1,-35,-18,-4,2,8,-4,-61,0
1491089242382,1,11,7,6,-1,-5,3,32,-1
1491089242384,2,35,-2,-6,14,5,-1,3,13
1491089242384,2,-23,-11,-1,-33,1,7,-33,-12
1491089242385,3,-48,-18,-9,-10,-8,-9,-52,-19
1491089242385,3,3,0,-1,12,7,-5,23,4
1491089242420,0,-38,-3,2,5,2,-1,-28,-8
1491089242420,0,34,27,4,-3,-9,2,10,18
1491089242421,1,-6,-9,-6,0,9,-8,-18,-19
1491089242421,1,-7,10,1,-7,-5,1,-20,2
1491089242422,2,100,32,23,37,-5,-10,19,15
1491089242422,2,-96,-50,-17,-30,2,12,53,-13
1491089242423,3,33,1,-1,-1,0,6,-11,-6
1491089242423,3,-43,2,6,6,12,8,-65,-15
1491089242457,0,21,-1,-2,7,-21,-11,-20,3
1491089242457,0,-6,0,-4,-13,-15,-17,33,-7
1491089242459,1,22,13,-2,-15,-1,-6,-1,17
1491089242459,1,45,7,1,3,-2,-5,-34,-9
1491089242460,2,-27,1,-7,-14,-1,-6,46,-13
1491089242460,2,-23,-27,-15,1,-6,4,-34,-10
1491089242461,3,-24,-18,-5,-19,-10,21,-26,3
1491089242461,3,-13,10,4,10,9,5,72,5
1491089242495,0,2,-14,-1,-3,2,-3,-49,-7
1491089242495,0,62,29,11,23,-2,-10,81,22
1491089242497,1,18,19,-1,3,-2,-11,59,-4
1491089242497,1,-92,-33,-11,-22,-7,-2,-70,-36
1491089242498,2,-7,-6,-9,-17,-3,-10,26,12
1491089242498,2,-30,-17,-10,-15,-8,58,-8,-14
1491089242498,3,41,7,5,12,9,30,-5,7
1491089242498,3,-7,-14,-3,0,-3,17,26,13
1491089242532,0,8,14,14,39,13,-5,29,-4
1491089242532,0,74,25,0,-12,-1,-27,51,27
1491089242534,1,-58,-12,3,1,-5,-26,10,-19
1491089242534,1,-9,-22,-14,-20,5,-1,29,5
1491089242535,2,-44,-20,-8,11,-3,-3,-20,-41
1491089242535,2,66,33,17,16,6,-7,29,35
1491089242535,3,23,17,-1,-3,7,-20,-76,-13
1491089242535,3,-15,10,5,-9,-13,-13,62,-9
1491089242570,0,-79,-50,-12,7,2,7,-42,-22
1491089242570,0,-36,-6,2,-1,9,-10,-69,-14
1491089242571,1,-25,-9,-13,-14,-4,1,-11,-4
1491089242571,1,-8,10,13,22,-14,-8,-20,1
1491089242571,2,104,27,-6,-22,2,5,10,27
1491089242571,2,-49,-17,-2,26,10,-10,-57,-45
1491089242572,3,22,8,3,-16,-9,2,33,37
1491089242572,3,14,-20,-5,23,3,6,66,8
1491089242607,0,-11,22,14,-12,-7,4,-59,-8
1491089242607,0,59,2,-1,9,8,-3,70,14
1491089242608,1,-51,-26,-16,-29,-6,-7,-19,-25
1491089242608,1,-28,-9,-8,-18,-5,0,-7,4
1491089242609,2,30,16,7,10,8,-5,47,19
1491089242609,2,-33,-1,9,7,20,6,37,-6
1491089242610,3,102,36,13,44,-19,-12,-74,24
1491089242610,3,0,-13,-4,-14,-5,0,-31,-14
1491089242645,0,-76,-28,-19,-29,-12,5,13,-9
1491089242645,0,9,-9,-4,-12,0,2,-39,5
1491089242646,1,-51,-12,-13,-17,1,-2,-24,-14
1491089242646,1,17,-5,-9,-10,-8,-8,-2,-12
1491089242647,2,17,26,22,33,14,3,-28,2
1491089242647,2,-16,-8,-9,-8,-19,-10,-24,2
1491089242682,3,-18,-8,-10,-17,-17,7,76,-6
1491089242682,3,26,-2,4,16,0,-59,-3,4
1491089242683,0,32,29,14,0,11,-25,127,15
1491089242683,0,-103,-74,-24,-16,0,1,-82,-23
1491089242684,1,18,16,10,13,9,37,28,10
1491089242684,1,3,0,-3,-12,-18,38,-50,0
1491089242685,2,62,28,-11,-27,0,28,76,11
1491089242685,2,-54,-17,-1,5,-13,13,-64,-29
1491089242720,3,3,-3,8,22,10,-2,40,14
1491089242720,3,-3,1,3,-8,8,-5,-14,-5
1491089242720,0,19,0,-13,11,-23,11,-24,8
1491089242720,0,73,57,11,-8,9,-2,67,46
1491089242721,1,-9,-25,-3,-11,-1,-15,-89,-25
1491089242721,1,-23,-1,-5,3,15,13,3,3
1491089242722,2,46,-32,-24,-30,7,33,24,1
1491089242722,2,-12,29,19,-1,-14,44,34,-25
1491089242757,3,-74,-13,6,2,6,29,-37,-8
1491089242757,3,48,-2,2,18,12,45,55,7
1491089242758,0,-21,4,27,19,-22,-16,-62,-5
1491089242758,0,40,8,-20,18,1,-23,36,16
1491089242759,1,16,39,11,4,2,-38,42,-13
1491089242759,1,29,-26,-16,-9,-2,-11,-113,13
1491089242760,2,-116,-7,-11,-43,-2,48,4,-34
1491089242760,2,-57,-63,-28,-20,-10,4,-35,-20
1491089242795,3,94,38,-35,5,-16,-21,-14,7
1491089242795,3,-73,5,27,-27,-5,-20,-12,-45
1491089242795,0,-56,-77,-50,43,13,-31,61,4
1491089242795,0,51,57,55,31,31,6,-36,32
1491089242796,1,41,62,21,26,6,7,37,4
1491089242796,1,53,20,-28,-8,-28,11,88,48
1491089242832,2,40,-53,36,-40,22,-35,-86,-19
1491089242832,2,-80,-29,-102,-37,-34,7,-17,-9
1491089242833,3,-10,11,25,-23,11,20,4,-6
1491089242833,3,28,55,105,9,8,18,-2,12
1491089242834,0,-33,-8,100,74,12,-9,16,-8
1491089242834,0,25,-30,-43,31,-18,-21,30,35
1491089242835,1,2,-15,19,35,-26,-24,-65,-60
1491089242835,1,32,65,-125,-56,-38,7,-27,40
1491089242870,2,-19,-21,-105,-109,-4,-3,13,5
1491089242870,2,-101,-39,-6,-8,21,-29,-44,-40
1491089242871,3,52,20,60,86,28,-19,12,-22
1491089242871,3,-9,-68,77,-16,11,40,50,-8
1491089242871,0,99,-61,-51,2,6,9,-56,13
1491089242871,0,10,25,79,20,-19,-29,23,19
1491089242872,1,-23,6,-128,-47,-35,38,1,16
1491089242872,1,-16,-21,-84,-3,-15,7,-14,-39
1491089242907,2,12,127,-52,-116,-12,12,-37,13
1491089242907,2,111,23,110,54,28,26,53,10
1491089242908,3,-98,-27,118,67,29,23,65,-2
1491089242908,3,-48,-103,-35,-30,-11,-9,-71,-15
1491089242909,0,-91,-61,-79,-8,-14,43,55,24
1491089242909,0,-48,25,-46,-56,12,6,-8,-44
1491089242945,1,66,66,102,1,20,45,7,48
1491089242945,1,-71,-5,45,127,25,-2,-8,-49
1491089242945,2,63,-89,-24,38,-19,-11,-27,2
1491089242945,2,-75,-110,28,-59,-43,-127,-39,-41
1491089242946,3,-95,-27,-128,-82,-9,-80,38,2
1491089242946,3,82,113,111,4,13,8,18,41
1491089242947,0,72,-56,-38,67,-14,-49,34,79
1491089242947,0,-29,48,72,51,1,-21,-65,-53
1491089242982,1,41,-50,57,-25,14,-62,16,-14
1491089242982,1,15,27,-17,6,-23,-27,77,53
1491089242983,2,-92,22,5,-13,18,33,-12,-40
1491089242983,2,97,-20,-112,-60,-3,33,-25,16
1491089242984,3,-102,-128,-39,-27,11,4,-26,-34
1491089242984,3,22,44,-45,8,-31,-41,-44,27
1491089242985,0,52,121,9,-12,20,85,117,32
1491089242985,0,26,-68,-42,-13,6,-11,-47,-21
1491089243020,1,-39,8,-22,-13,13,93,-22,1
1491089243020,1,-128,-58,13,43,20,-16,4,-64
1491089243020,2,78,81,43,3,-38,0,18,65
1491089243020,2,-86,-6,30,58,16,-16,2,-78
1491089243021,3,-47,24,-51,-83,-5,70,-18,62
1491089243021,3,-75,-128,-45,-27,0,-3,5,-44
1491089243022,0,51,80,67,8,-72,-25,-22,83
1491089243022,0,-59,-68,0,23,86,28,15,-38
1491089243057,1,-30,-2,-21,0,-88,12,-30,-51
1491089243057,1,23,-103,-41,-35,-28,-13,-30,-6
1491089243058,2,-18,15,27,73,38,-114,25,-47
1491089243058,2,57,38,-7,-16,-58,-90,65,34
1491089243059,3,30,-15,3,24,43,-128,49,22
1491089243059,3,21,36,10,35,-1,-120,-5,1
1491089243095,0,-72,-84,-4,-5,-71,-75,-60,-65
1491089243095,0,37,75,-21,39,16,63,-11,55
1491089243095,1,13,-55,-31,-107,31,70,24,-1
1491089243095,1,20,62,42,84,68,127,-8,4
1491089243096,2,-55,-50,-23,-43,41,105,-42,-46
1491089243096,2,-13,-98,20,51,8,110,5,41
1491089243097,3,105,94,37,20,-47,90,-27,-3
1491089243097,3,70,79,7,-13,-84,71,-16,11
1491089243132,0,-6,-73,-5,-21,22,64,-7,6
1491089243132,0,72,67,10,-40,8,69,-25,-2
1491089243133,1,-87,-128,-70,-47,-18,22,14,-28
1491089243133,1,27,110,38,43,73,30,-3,51
1491089243134,2,37,92,108,8,0,23,91,-49
1491089243134,2,95,57,-109,53,-37,31,-19,100
1491089243135,3,-51,-37,43,25,51,29,74,-14
1491089243135,3,20,8,43,-14,14,5,-105,-36
1491089243170,0,39,-1,59,87,29,15,52,21
1491089243170,0,-92,-45,-55,-127,-48,3,-89,-85
1491089243171,1,-93,-75,-76,10,-7,-1,40,-31
1491089243171,1,48,-5,22,-46,-11,120,-81,3
1491089243171,2,77,-20,-29,38,-9,115,-128,4
1491089243171,2,77,18,-50,10,-8,109,127,36
1491089243172,3,-23,-1,55,51,4,116,-1,-21
1491089243172,3,-77,-128,9,-54,-10,86,17,-30
1491089243207,0,-77,88,-81,-74,5,109,-128,-40
1491089243207,0,-89,-94,-2,-14,-25,120,75,-56
1491089243208,1,127,115,-8,8,-28,121,12,23
1491089243208,1,-38,-113,-75,-111,2,30,127,11
1491089243209,2,-80,1,102,44,41,-93,-47,-16
1491089243209,2,79,60,82,-15,24,-57,-14,36
1491089243245,3,65,-36,-41,33,-19,-89,-128,-1
1491089243245,3,-4,-6,-76,24,-18,-74,111,35
1491089243246,0,-27,-80,-95,-86,-19,43,69,-36
1491089243246,0,-108,56,48,10,-12,-11,-29,-68
1491089243247,1,11,-52,43,45,1,76,17,58
1491089243247,1,80,-8,23,54,14,23,18,47
1491089243247,2,-39,-10,-63,-31,11,86,105,21
1491089243247,2,15,-51,9,15,-3,-45,38,22
1491089243320,3,58,66,-39,-33,-23,-82,-24,0
1491089243320,3,-46,-80,-50,-48,-11,-128,-14,-56
1491089243321,0,0,47,78,62,21,-100,-15,-2
1491089243321,0,90,-117,-20,11,-30,-86,67,1
1491089243322,1,-14,37,-20,-12,20,-81,-122,-8
1491089243322,1,-128,-2,-13,0,-5,-117,74,-36
1491089243322,2,-6,-42,-4,4,-7,-124,-5,-15
1491089243322,2,31,68,18,12,45,-71,-72,10
1491089243357,3,33,-83,13,45,9,-101,107,27
1491089243357,3,17,127,36,5,-6,-32,-110,-11
1491089243358,0,-91,-49,-19,12,-8,-13,-14,-16
1491089243358,0,-47,4,-16,-15,17,12,-39,16
1491089243359,1,58,59,66,70,19,-2,82,8
1491089243359,1,68,8,-14,-19,-20,0,-50,-5
1491089243360,3,22,-6,22,-21,-17,8,-52,-15
1491089243360,3,-63,-21,-87,-54,-4,55,77,-24
1491089243395,0,-24,-94,-13,-6,-19,-31,-37,-1
1491089243395,0,14,69,18,-4,19,23,8,11
1491089243395,1,22,26,-4,-19,-8,12,120,17
1491089243395,1,43,53,31,27,3,-41,-45,-2
1491089243396,2,-17,-42,-19,-19,-28,-14,66,-48
1491089243396,2,-5,-34,-6,-3,-3,15,-39,7
1491089243397,3,-94,-66,-26,-23,0,-25,-14,-23
1491089243397,3,-12,13,-5,-20,17,32,-38,7
1491089243432,0,72,21,42,53,17,32,104,22
1491089243432,0,23,18,15,19,3,80,-26,8
1491089243433,1,-48,-29,-20,-9,-15,19,-102,-12
1491089243433,1,-12,41,8,-8,-7,10,30,-23
1491089243433,2,85,-25,-5,6,-6,-26,-41,15
1491089243433,2,-67,28,-8,-14,-12,-43,36,-11
1491089243435,3,81,31,9,22,19,-12,80,43
1491089243435,3,-61,-73,-22,-38,-8,-6,-67,-18
1491089243470,0,-12,44,-10,-9,-12,-43,-54,-3
1491089243470,0,-57,-56,-12,-28,1,-5,-24,-11
1491089243471,1,-31,32,17,16,15,-28,-15,-11
1491089243471,1,36,7,16,30,6,1,98,34
1491089243471,2,65,48,3,-5,-7,-66,68,23
1491089243471,2,-67,-43,7,39,6,-38,24,-59
1491089243472,3,7,-22,-32,-68,-10,26,100,26
1491089243472,3,119,79,22,16,10,1,-53,19
1491089243507,0,-128,-91,-24,-25,-7,50,9,-41
1491089243507,0,58,1,6,25,10,36,34,17
1491089243508,1,11,38,5,-9,-24,-6,25,-8
1491089243508,1,-61,-68,-15,5,2,15,-43,-16
1491089243509,2,36,59,13,8,-9,3,105,38
1491089243509,2,44,-11,-12,-15,-18,-35,-111,-45
1491089243510,3,-42,3,-5,-9,-8,-4,62,-7
1491089243510,3,10,-51,-28,-24,6,48,58,14
1491089243545,0,-17,47,18,17,-13,-18,52,9
1491089243545,0,-67,-53,-31,-44,-18,7,-15,0
1491089243546,1,18,13,17,31,5,-7,-49,7
1491089243546,1,41,66,32,41,0,-35,79,2
1491089243546,2,64,-24,3,17,10,-10,-9,8
1491089243546,2,7,13,13,-10,-1,-2,-18,21
1491089243547,3,-21,-64,-31,-44,9,10,-128,-11
1491089243547,3,23,-5,4,17,16,20,65,16
1491089243582,0,20,31,3,15,-28,-17,-53,-2
1491089243582,0,98,71,20,21,6,2,19,51
1491089243583,1,-31,-11,4,11,8,19,77,-17
1491089243583,1,-46,-13,7,-1,8,-10,-71,10
1491089243584,2,-20,-10,-17,-40,-13,8,-128,-10
1491089243584,2,-43,-52,-12,-27,6,44,124,1
1491089243585,3,7,36,4,-2,-7,-12,7,-7
1491089243585,3,99,29,22,42,8,-12,-12,13
1491089243620,0,-68,16,-15,-35,0,9,-8,-20
1491089243620,0,-47,-41,-15,-19,-5,27,-21,-9
1491089243621,1,50,26,12,11,6,-50,12,6
1491089243621,1,-80,-23,-9,-7,-16,-27,-53,-16
1491089243621,2,-46,-24,1,16,33,19,58,-3
1491089243621,2,67,47,22,25,-7,-10,13,7
1491089243622,3,-15,16,8,14,9,23,-35,-21
1491089243622,3,-85,-56,-21,-24,-39,-23,22,-38
1491089243657,0,-34,-20,-9,-19,5,13,-52,5
1491089243657,0,34,-2,-11,-1,5,-8,54,11
1491089243659,1,19,39,14,5,-8,4,21,13
1491089243659,1,12,9,11,32,18,-1,39,2
1491089243664,2,-35,-13,-8,-9,-11,28,6,-15
1491089243664,2,112,78,25,41,6,-43,20,61
1491089243664,3,-102,-105,-53,-50,-39,-69,-128,-80
1491089243664,3,19,-13,-8,-31,18,46,93,15
1491089243695,0,44,14,8,4,-10,1,42,0
1491089243695,0,22,23,6,16,-7,3,-86,-1
1491089243695,1,64,29,9,13,-9,0,12,26
1491089243695,1,-32,-14,2,2,-1,20,-32,-11
1491089243696,2,29,27,6,19,15,20,42,27
1491089243696,2,-116,-55,-18,-38,3,15,-26,-44
1491089243697,3,13,-8,-4,0,6,26,-10,7
1491089243697,3,11,24,14,24,2,-1,-63,-11
1491089243732,0,12,21,14,-1,-9,-1,25,13
1491089243732,0,-62,-37,-33,-41,-10,15,114,-35
1491089243733,1,18,2,0,-3,9,8,-64,7
1491089243733,1,0,4,-7,-29,-17,-3,-45,-5
1491089243733,2,49,27,24,47,38,8,-13,-3
1491089243733,2,-2,-3,-3,1,-18,-56,58,7
1491089243735,3,-31,-25,-15,-17,-21,16,-10,7
1491089243735,3,40,12,-9,-31,-2,-4,13,1
1491089243770,0,-52,-9,0,4,11,-39,-89,-17
1491089243770,0,33,-15,-12,-22,0,-13,-22,-3
1491089243771,1,30,50,40,60,20,-5,19,31
1491089243771,1,-12,-22,-5,23,-16,-12,50,9
1491089243771,2,-1,-40,-23,-27,-22,-14,33,-16
1491089243771,2,-27,7,1,-10,5,9,51,-5
1491089243772,3,29,21,6,5,3,2,18,11
1491089243772,3,-1,2,4,3,2,-16,-15,-3
1491089243807,0,65,23,11,29,0,-20,71,19
1491089243807,0,12,-39,-19,-19,-14,-14,1,-4
1491089243808,1,-96,-23,5,-11,20,92,-35,-10
1491089243808,1,21,-14,-15,-16,-13,33,-75,-16
1491089243809,2,13,28,-4,-24,-4,39,61,12
1491089243809,2,29,-9,3,21,-5,-10,-38,2
1491089243845,3,77,17,11,6,-1,-28,22,9
1491089243845,3,-117,-86,-28,-35,3,13,-11,-38
1491089243845,0,38,16,-1,-1,2,8,-64,7
1491089243845,0,-11,-2,-3,5,1,-6,-19,-8
1491089243848,1,61,56,16,35,-10,-65,13,16
1491089243848,1,-5,15,-3,-12,3,-14,69,9
1491089243849,2,-22,-27,-5,-11,-5,-3,-38,-13
1491089243849,2,-35,16,7,8,8,39,5,2
1491089243882,3,40,8,-6,-12,-10,-5,69,-9
1491089243882,3,-39,-22,-9,-11,2,-3,-89,-21
1491089243883,0,-55,-6,-5,-4,-7,2,11,-11
1491089243883,0,36,13,-4,-2,9,-58,19,7
1491089243884,1,107,65,29,44,5,-55,13,36
1491089243884,1,-53,-62,-34,-16,-5,-36,7,-27
1491089243885,2,45,7,10,3,3,20,-37,13
1491089243885,2,-21,-8,-11,-33,-9,17,-17,-12
1491089243920,3,-64,-48,-25,-29,-17,-12,-13,-30
1491089243920,3,73,64,29,35,3,16,92,35
1491089243921,0,-1,-7,-6,-9,10,15,-22,-12
1491089243921,0,6,30,18,34,-16,4,42,0
1491089243922,1,-111,-69,-36,-50,-8,30,64,-17
1491089243922,1,-19,-5,-2,9,-9,10,-106,-10
1491089243957,2,7,7,5,6,3,-5,-3,-1
1491089243957,2,31,-13,-13,0,8,29,-5,8
1491089243960,3,-109,-25,-13,-26,7,21,-1,-29
1491089243960,3,70,39,17,11,0,19,46,34
1491089243961,0,-25,-7,-15,-3,-10,-14,23,-7
1491089243961,0,82,31,20,46,-5,-10,-110,0
1491089243962,1,9,-14,0,0,3,17,-21,4
1491089243962,1,-51,-50,-15,-41,27,53,21,1
1491089243995,2,19,19,12,-2,-24,-29,-53,-12
1491089243995,2,9,-11,2,7,-5,4,20,6
1491089243996,3,48,29,9,21,15,9,17,14
1491089243996,3,44,19,4,9,-4,-18,-24,2
1491089243996,0,-54,-11,2,-1,-19,5,-46,-8
1491089243996,0,4,-5,-9,-28,6,7,0,2
1491089243997,1,42,15,10,11,-12,-11,-43,-5
1491089243997,1,-64,-23,-16,2,2,-12,10,-7
1491089244032,2,22,-9,-13,-11,6,-7,-12,2
1491089244032,2,60,10,12,5,5,3,40,20
1491089244033,3,-95,-22,-7,-29,-6,0,-88,-29
1491089244033,3,84,13,0,8,-8,-42,5,-5
1491089244033,0,-25,-9,-10,-4,-5,-18,7,-14
1491089244033,0,-32,14,-2,-12,1,0,-46,-5
1491089244035,1,-34,-17,-8,-12,-10,-2,24,6
1491089244035,1,-4,14,14,10,3,-2,-39,-7
1491089244070,2,10,13,2,7,2,0,45,3
1491089244070,2,-1,3,6,12,10,16,77,13
1491089244072,3,38,16,-3,-20,-5,-17,-90,-19
1491089244072,3,-40,-36,-7,4,-15,12,86,-2
1491089244073,0,19,-8,1,-13,1,-30,-21,-2
1491089244073,0,-101,-53,-23,-23,13,-15,10,-23
1491089244108,1,78,16,-3,5,-6,-55,54,19
1491089244108,1,43,43,16,16,-5,-71,9,19
1491089244109,2,31,12,9,29,17,-55,-40,7
1491089244109,2,-25,13,7,5,-1,-38,-111,-7
1491089244109,3,-72,-56,-10,3,-7,-12,25,-1
1491089244109,3,11,-6,-16,-17,-6,20,55,3
1491089244110,0,-16,-2,16,28,15,45,52,-3
1491089244110,0,10,23,8,14,-8,21,-73,11
1491089244145,1,30,15,2,5,11,30,97,6
1491089244145,1,39,40,16,6,-10,-15,15,20
1491089244147,2,68,13,-4,-5,18,-14,10,17
1491089244147,2,-79,-74,-35,-42,-41,-5,-83,-53
1491089244148,3,-41,-42,-12,-7,11,42,12,-13
1491089244148,3,23,-4,-1,-22,5,41,-13,-5
1491089244148,0,44,33,9,33,4,38,-22,-1
1491089244148,0,32,14,5,-5,-1,32,108,26
1491089244182,1,-88,-24,-13,-10,-9,27,-84,-20
1491089244182,1,-3,4,5,22,5,21,9,-6
1491089244183,2,44,29,11,-5,5,28,-1,4
1491089244183,2,48,13,3,7,16,41,85,29
1491089244183,3,-62,-54,-22,-5,-5,48,-27,-17
1491089244183,3,56,60,26,32,-1,-6,-30,5
1491089244185,0,-89,-70,-21,-22,-10,19,21,-25
1491089244185,0,26,7,-6,0,15,7,-57,4
1491089244220,1,102,27,8,-4,-7,2,-17,15
1491089244220,1,-43,14,0,-7,-10,-2,-64,6
1491089244221,2,-16,-22,-9,-5,-17,-7,76,-5
1491089244221,2,33,27,15,8,13,-4,19,7
1491089244222,3,-11,-23,-25,-19,-9,-17,2,-12
1491089244222,3,-45,-14,12,22,4,19,-14,-9
1491089244257,0,6,4,0,-7,-8,-10,-60,2
1491089244257,0,25,-12,-8,-14,-3,-14,-33,-2
1491089244258,1,-10,20,5,6,3,5,-14,-9
1491089244258,1,-7,-8,-2,-8,18,9,95,5
1491089244260,2,0,-11,-18,-28,-10,-5,-104,-29
1491089244260,2,-10,-1,2,22,-35,-36,8,5
1491089244261,3,18,32,20,19,2,-16,-41,-2
1491089244261,3,52,-21,-19,-15,-12,9,33,11
1491089244295,0,0,-19,-12,-17,12,6,89,3
1491089244295,0,-4,7,4,-5,2,3,21,-2
1491089244295,1,1,14,0,-1,0,-12,10,3
1491089244295,1,-26,-15,-1,-3,0,-6,-54,-17
1491089244296,2,-10,26,16,30,-6,-7,-12,8
1491089244296,2,-28,-20,-10,-4,-3,-7,-14,-25
1491089244297,3,-37,-4,-2,-14,2,-10,10,-2
1491089244297,3,-9,-30,-18,-14,0,-1,57,-6
1491089244332,0,29,10,2,-1,-1,-5,-43,14
1491089244332,0,17,9,0,-5,14,8,14,9
1491089244333,1,-64,-8,17,20,8,-3,-63,-26
1491089244333,1,-24,-19,-8,-8,-10,-5,-38,-3
1491089244334,2,-22,10,-8,-8,11,10,46,-2
1491089244334,2,28,30,18,-3,-21,-8,3,0
1491089244335,3,93,7,-17,-6,-6,2,18,24
1491089244335,3,-58,-26,-1,0,6,0,5,-11
1491089244370,0,-40,1,-6,-10,5,-2,37,-11
1491089244370,0,65,-11,0,23,-10,-3,-18,1
1491089244372,1,-73,-21,-9,-27,9,4,17,-25
1491089244372,1,-37,-10,-7,-12,-18,-4,71,3
1491089244373,2,61,21,12,11,4,2,-31,14
1491089244373,2,-34,19,5,13,5,1,0,1
1491089244407,3,42,-7,7,27,-8,16,3,9
1491089244407,3,17,18,2,-2,10,4,-28,3
1491089244409,0,-89,-32,-7,-18,-8,-4,62,-16
1491089244409,0,-14,-37,-16,-25,-6,-4,2,-1
1491089244411,1,21,20,0,2,13,-18,66,-7
1491089244411,1,36,-3,-2,-4,-11,-28,-68,2
1491089244412,2,-3,10,6,0,-9,3,77,7
1491089244412,2,-7,25,-5,3,5,-18,-103,-1
1491089244445,3,2,-17,-15,-9,-17,-11,18,12
1491089244445,3,9,9,2,8,-6,-29,-76,-33
1491089244446,0,-17,-35,-11,-20,-8,-3,92,9
1491089244446,0,26,15,12,6,13,10,4,25
1491089244446,1,-71,-23,-18,-28,-4,-3,-5,-22
1491089244446,1,88,46,28,47,6,1,-5,24
1491089244447,2,32,-10,-12,3,-5,-18,-93,7
1491089244447,2,-53,-10,3,-6,1,-4,63,-18
1491089244482,3,7,-26,-16,-31,-3,-1,-1,-4
1491089244482,3,55,13,5,10,6,3,2,9
1491089244483,0,-77,-13,-2,-6,1,7,-82,-24
1491089244483,0,3,-33,-12,-17,-1,1,112,0
1491089244484,1,54,51,10,7,-26,-18,-78,11
1491089244484,1,-41,-29,-12,0,11,8,110,-20
1491089244485,2,49,57,21,25,-13,-11,-120,7
1491089244485,2,34,-19,-5,9,10,6,-20,-7
1491089244520,3,-24,-18,3,23,-5,-9,18,3
1491089244520,3,-47,-20,-17,-51,-4,5,-40,-3
1491089244521,0,-46,-13,-8,1,6,-1,40,-8
1491089244521,0,-25,12,11,18,1,4,58,0
1491089244521,1,45,25,14,12,-5,-3,-10,8
1491089244521,1,33,10,-3,7,2,3,5,9
1491089244557,2,-7,-31,-7,12,5,3,56,-4
1491089244557,2,38,40,10,-10,-16,-19,-33,-4
1491089244559,3,-57,-43,-17,-23,5,1,16,-17
1491089244559,3,-44,-1,1,3,-3,-15,-64,-13
1491089244560,0,37,21,4,-3,-12,-2,68,11
1491089244560,0,-62,-21,-1,13,12,10,-75,-18
1491089244560,1,14,0,8,12,1,-14,51,1
1491089244560,1,-23,-13,-25,-47,-4,-13,19,-9
1491089244595,2,80,38,21,40,-12,-11,-13,11
1491089244595,2,-59,-2,-14,-25,-6,4,-7,-18
1491089244595,3,-28,-13,10,18,9,14,-16,8
1491089244595,3,-51,-38,-22,-26,2,6,-26,-8
1491089244596,0,39,-8,-1,2,3,10,11,7
1491089244596,0,-15,-5,-15,-13,-24,-16,22,-5
1491089244597,1,39,26,3,-11,-4,6,7,14
1491089244597,1,7,3,8,16,1,7,61,-9
1491089244632,2,60,25,16,18,18,1,-49,25
1491089244632,2,-69,-32,-12,-10,-12,-5,-20,-27
1491089244633,3,-70,-6,8,6,6,8,-61,-13
1491089244633,3,38,-11,-19,-16,-13,-5,-18,1
1491089244634,0,-27,-17,-9,-12,-3,3,25,-14
1491089244634,0,95,30,14,10,15,12,80,26
1491089244635,1,-4,-3,0,7,6,6,19,-19
1491089244635,1,53,34,15,-2,-4,-10,-46,23
1491089244670,2,-86,-21,-16,-17,-29,-36,-84,-40
1491089244670,2,-84,-72,-19,-16,23,20,-31,-17
1491089244671,3,42,34,2,-5,-5,0,80,8
1491089244671,3,24,24,16,29,9,21,68,27
1491089244672,0,17,-5,-8,-20,-4,-13,-27,-12
1491089244672,0,16,22,9,-3,-7,-17,-115,-4
1491089244707,1,-16,-15,-11,-16,0,-9,41,-11
1491089244707,1,19,26,22,46,-8,11,5,7
1491089244708,2,20,13,-2,2,2,16,60,16
1491089244708,2,-45,-45,-13,-6,-2,-1,-78,-40
1491089244710,3,-14,1,4,-6,2,-3,-58,24
1491089244710,3,-47,-47,-24,-22,-11,-16,15,-30
1491089244710,0,-36,-11,-7,-21,1,3,-16,-3
1491089244710,0,78,36,11,23,-7,-23,24,26
1491089244745,1,-40,-3,-2,-5,18,2,-68,-17
1491089244745,1,-1,9,11,27,-7,-8,2,-4
1491089244745,2,1,14,9,1,-13,-7,-8,6
1491089244745,2,-20,-27,-15,-11,-7,-6,-10,-13
1491089244746,3,92,35,22,31,7,0,12,33
1491089244746,3,16,23,-1,-15,9,7,-62,-4
1491089244747,0,-37,-69,-30,-26,-2,5,66,-10
1491089244747,0,26,23,16,27,10,0,99,23
1491089244782,1,0,3,-9,-15,-23,-29,51,-2
1491089244782,1,-50,-19,-5,-12,5,19,16,-3
1491089244783,2,64,39,7,-14,3,-2,-32,9
1491089244783,2,-67,-30,-10,-13,-6,-3,-40,-22
1491089244784,3,-46,-36,-6,-8,4,44,100,-7
1491089244784,3,19,29,10,5,7,17,13,24
1491089244821,0,20,12,1,11,12,32,-22,-2
1491089244821,0,-33,10,-2,-6,-14,25,8,15
1491089244822,1,97,49,17,32,-9,-10,-101,16
1491089244822,1,-46,-45,-25,-26,-17,-22,56,-40
1491089244823,2,-88,-54,-6,-6,-5,17,-76,-21
1491089244823,2,4,16,4,-16,16,81,82,-5
1491089244824,3,-44,-28,-17,-23,-11,95,-61,-11
1491089244824,3,85,37,11,8,3,47,115,18
1491089244857,0,-17,-1,8,14,-2,-17,-73,-6
1491089244857,0,78,35,18,36,-4,-50,17,22
1491089244859,1,-15,-39,-20,-8,-20,-81,-59,-36
1491089244859,1,-16,-20,-22,-30,13,-19,42,12
1491089244861,2,-45,10,7,3,0,-72,-59,-19
1491089244861,2,54,31,36,26,-6,-61,-5,14
1491089244862,3,43,31,2,13,-2,-61,4,19
1491089244862,3,10,36,23,2,4,-22,-24,8
1491089244895,0,-109,-126,-98,-44,-19,-11,3,-70
1491089244895,0,40,0,-14,-3,9,-3,29,-3
1491089244896,1,104,87,43,3,-3,-63,-13,48
1491089244896,1,-16,-25,-15,20,-23,-77,-37,-36
1491089244897,2,-5,-41,18,-61,20,41,36,41
1491089244897,2,10,54,-21,13,3,21,-18,-1
1491089244898,3,51,-31,-22,1,6,7,-28,7
1491089244898,3,-79,-31,-29,-15,-11,28,-86,-35
1491089244932,0,56,41,109,82,8,2,77,43
1491089244932,0,-58,-14,-18,39,-14,25,-20,-18
1491089244933,1,59,64,42,-11,18,74,89,32
1491089244933,1,-75,-50,-67,-89,-7,17,-128,-43
1491089244934,2,-9,-57,-35,24,7,29,91,10
1491089244934,2,-10,40,38,-12,1,28,14,17
1491089244971,3,26,-15,18,39,8,22,-17,10
1491089244971,3,45,103,94,76,-3,27,-80,-3
1491089244972,0,56,12,-16,-33,2,25,-77,-3
1491089244972,0,-98,-68,12,-2,-48,-3,47,3
1491089244973,1,-77,-81,-128,-22,-8,60,-36,-37
1491089244973,1,58,25,55,-62,24,82,81,29
1491089244973,2,126,122,122,120,30,39,-29,36
1491089244973,2,-5,-29,-49,34,11,36,82,14
1491089245008,3,-34,-128,-9,-25,-5,-17,-68,-49
1491089245008,3,-9,49,-19,15,-42,-66,44,-21
1491089245011,0,99,22,-114,-108,-1,-43,-38,20
1491089245011,0,-24,63,48,-85,32,49,47,-21
1491089245012,1,-21,25,83,55,-6,-11,-14,-21
1491089245012,1,-39,-46,14,28,11,-23,-24,21
1491089245013,2,82,-8,114,64,12,-37,41,-6
1491089245013,2,-46,-10,-128,-55,-32,-98,64,16
1491089245045,3,-70,-73,71,1,-5,-28,-48,-27
1491089245045,3,112,68,6,-56,0,-31,-79,0
1491089245046,0,27,90,89,35,2,11,52,13
1491089245046,0,-35,-119,40,57,29,-48,-61,-36
1491089245046,1,-45,70,-77,-60,-3,-27,39,-24
1491089245046,1,100,11,-61,40,-19,-2,-6,39
1491089245047,2,23,51,-61,-78,2,5,64,16
1491089245047,2,1,-22,104,4,-3,-26,-6,-59
1491089245082,3,68,35,-105,55,3,-47,18,-9
1491089245082,3,-7,14,-71,-2,1,1,105,45
1491089245083,0,-63,-63,65,27,22,-28,-101,-15
1491089245083,0,-31,27,-68,-22,-55,11,-66,1
1491089245084,1,-14,17,127,-128,-23,-37,11,-70
1491089245084,1,-83,-75,95,109,52,29,54,3
1491089245120,2,-122,56,-57,3,-9,1,41,-22
1491089245120,2,-3,-27,-18,-45,-55,-26,-102,4
1491089245121,3,54,-120,-128,-96,-34,-60,-37,21
1491089245121,3,127,78,102,65,51,39,88,51
1491089245122,0,-128,29,-47,43,-23,56,-13,-27
1491089245122,0,50,-96,-47,-81,37,-22,49,-14
1491089245125,1,44,0,29,28,-14,33,-14,39
1491089245125,1,-89,-15,-86,-91,-67,25,-39,-14
1491089245157,2,-50,-64,107,-9,-15,-68,78,-24
1491089245157,2,125,28,-109,17,56,25,-2,0
1491089245158,3,61,127,127,89,35,43,107,31
1491089245158,3,-53,-128,-74,40,-7,-30,-36,-61
1491089245160,0,9,40,-117,-125,-66,-20,41,22
1491089245160,0,-48,-35,127,45,27,82,37,8
1491089245161,1,-14,61,59,83,27,-5,-12,-12
1491089245161,1,-57,-25,127,36,27,9,36,30
1491089245195,2,110,-90,-128,-6,-30,-13,-114,27
1491089245195,2,18,126,116,-98,21,-11,-1,20
1491089245196,3,71,74,-27,83,-9,27,46,57
1491089245196,3,-56,-34,78,-110,-28,19,-59,-44
1491089245196,0,21,-22,48,106,59,18,65,6
1491089245196,0,-97,-99,-87,2,-8,-42,-61,-33
1491089245197,1,45,109,127,-23,-38,-31,22,39
1491089245197,1,-73,-54,-128,-37,21,-24,-17,-56
1491089245232,2,91,-119,26,-86,-40,-25,2,31
1491089245232,2,38,127,127,127,53,-44,-7,14
1491089245233,3,-46,-38,-35,20,25,28,105,13
1491089245233,3,-7,-50,-77,-56,-56,-51,69,3
1491089245234,0,74,46,123,-33,8,9,-105,-7
1491089245234,0,17,33,79,119,7,72,34,16
1491089245270,1,74,-124,-91,-111,-27,20,79,55
1491089245270,1,-41,-18,-7,-68,27,-57,-107,-49
1491089245270,2,-19,31,58,97,37,83,38,-40
1491089245270,2,94,-30,-85,-110,-55,-25,-128,23
1491089245271,3,-63,80,127,-36,29,-56,18,-26
1491089245271,3,25,-84,-27,31,-25,-51,87,50
1491089245272,0,-90,115,30,-94,15,36,0,-106
1491089245272,0,-84,-100,94,82,-9,-15,52,-18
1491089245307,1,-38,-10,-127,-45,-3,30,-111,-17
1491089245307,1,58,127,127,100,76,0,-76,11
1491089245309,2,-122,-105,-8,-35,-30,-17,-94,-31
1491089245309,2,-9,-57,-87,-96,-80,43,-1,29
1491089245345,3,-66,6,35,-40,-16,27,36,-75
1491089245345,3,-36,49,25,71,-23,-15,49,3
1491089245346,0,-36,-55,-89,28,18,7,59,34
1491089245346,0,67,73,-56,30,14,-20,15,16
1491089245346,1,-15,-115,23,-57,4,-26,-119,-14
1491089245346,1,63,53,-56,-62,-6,94,56,-35
1491089245347,2,-90,-11,-13,27,56,56,72,16
1491089245347,2,70,-24,-22,-88,-5,10,-68,1
1491089245382,3,81,11,-81,113,-14,-23,-62,-33
1491089245382,3,-22,127,127,66,20,-36,103,66
1491089245383,0,54,-128,-128,11,-12,38,-71,-3
1491089245383,0,15,123,127,-38,33,45,-20,-63
1491089245384,1,15,-35,-94,21,-41,-21,39,92
1491089245384,1,-128,-30,41,-115,-64,-1,-43,-41
1491089245385,2,-2,-13,8,-39,-15,-44,-53,26
1491089245385,2,84,97,105,121,46,7,126,95
1491089245420,3,-120,-78,-74,-33,-8,127,-12,-85
1491089245420,3,-61,-72,-124,25,16,-40,-11,-40
1491089245420,0,103,127,40,-42,35,-4,86,64
1491089245420,0,-116,-128,29,42,-40,-23,-68,-128
1491089245421,1,-73,-100,-70,-55,-16,85,123,81
1491089245421,1,18,14,43,-85,15,-68,-16,-5
1491089245422,2,82,119,90,97,55,5,-50,71
1491089245422,2,-116,-103,-128,-80,-91,-69,54,-95
1491089245457,3,48,-14,-7,5,20,-94,11,49
1491089245457,3,113,53,-14,15,-14,98,-52,38
1491089245459,0,80,24,127,39,-23,-92,105,-98
1491089245459,0,110,127,-93,-60,58,-29,-84,127
1491089245459,1,-128,25,127,127,11,13,92,-101
1491089245459,1,122,-77,-128,7,-14,4,-90,52
1491089245460,2,-128,15,61,-91,-14,67,77,-94
1491089245460,2,98,54,-89,88,2,0,14,67
1491089245495,3,-94,6,-63,-12,51,-21,33,-20
1491089245495,3,61,61,127,47,9,80,46,59
1491089245496,0,-54,-124,-128,-2,-88,-6,-28,-43
1491089245496,0,-9,79,-52,-117,-37,-11,35,-32
1491089245496,1,12,-63,127,98,54,-72,-78,36
1491089245496,1,-46,-3,-124,-67,-72,83,75,25
1491089245497,2,-105,2,103,-44,24,-32,0,24
1491089245497,2,-83,-127,100,97,-3,54,-37,-40
1491089245532,3,127,127,-68,-102,-36,-35,-97,46
1491089245532,3,-93,-128,-63,-19,-1,-83,-75,-106
1491089245533,0,91,115,41,87,-1,10,-44,30
1491089245533,0,-118,-128,-71,-62,-20,-64,-8,7
1491089245533,1,40,68,120,-33,25,63,46,-9
1491089245533,1,31,1,97,84,13,9,-128,-84
1491089245534,2,-59,-76,-128,-111,-32,-43,6,32
1491089245534,2,106,75,127,114,36,-82,72,13
1491089245570,3,-2,-89,-11,-31,-40,31,-100,-95
1491089245570,3,-65,-73,-108,-123,-42,-56,58,13
1491089245570,0,-32,60,106,37,52,37,-43,14
1491089245570,0,82,58,23,-17,-7,114,36,4
1491089245571,1,-78,-100,-128,-70,-12,-60,-53,-109
1491089245571,1,114,127,127,90,12,29,35,40
1491089245572,2,79,-116,4,-82,-23,-71,5,14
1491089245572,2,-128,-86,-92,90,-20,56,84,-50
1491089245607,3,-32,30,8,-15,30,-23,-13,87
1491089245607,3,46,100,59,86,65,69,53,47
1491089245608,0,97,-126,-102,15,-19,-4,-34,7
1491089245608,0,39,24,65,-16,-5,-49,19,-31
1491089245609,1,-56,-127,44,56,-21,17,-3,49
1491089245609,1,-58,-104,-84,0,24,-80,23,-4
1491089245610,2,-75,113,-33,-1,-13,-53,21,-51
1491089245610,2,-7,-74,32,-4,19,24,-15,-18
1491089245645,3,-81,-20,-109,4,-13,-5,44,-43
1491089245645,3,-43,-14,76,-79,6,-52,-68,-20
1491089245645,0,-39,-92,-117,-6,-62,-41,6,-37
1491089245645,0,-63,7,51,18,20,-97,-65,65
1491089245646,1,64,46,95,71,7,-67,-45,-22
1491089245646,1,17,-38,-92,-24,-20,-106,100,100
1491089245647,2,-37,15,34,-87,10,-128,-92,-63
1491089245647,2,-46,-42,-38,68,32,21,-22,22
1491089245682,3,73,97,127,26,13,-25,75,-34
1491089245682,3,-32,-115,-128,-33,-40,-58,-73,-8
1491089245684,0,52,127,101,-10,19,105,114,22
1491089245684,0,17,-5,-22,-51,7,90,-12,3
1491089245685,1,-31,-59,-52,29,14,107,48,-51
1491089245685,1,31,-48,-88,-6,-38,127,-46,-17
1491089245720,2,74,46,-79,19,12,111,30,13
1491089245720,2,59,-24,125,-63,36,98,4,0
1491089245721,3,-50,-11,-86,-13,-1,-12,-67,-24
1491089245721,3,25,110,76,-23,3,-14,17,18
1491089245721,0,13,-48,12,115,-3,59,15,16
1491089245721,0,-73,-4,-93,-25,-38,70,9,-17
1491089245722,1,71,-9,-92,-48,-44,120,-87,-37
1491089245722,1,-29,-14,87,20,48,66,24,45
1491089245758,2,-26,-52,-12,5,32,-29,10,-44
1491089245758,2,-3,21,82,-30,11,-81,2,-4
1491089245760,3,-80,-128,-106,-8,-34,-45,39,-23
1491089245760,3,-58,-88,-65,-64,-8,-26,-29,-65
1491089245761,0,98,70,83,100,-34,-48,37,92
1491089245761,0,-19,-28,-105,66,52,-54,22,10
1491089245762,1,-52,-71,-53,1,-23,-28,-5,21
1491089245762,1,-56,-89,87,-45,-55,-24,-56,-38
1491089245795,2,-25,-54,-128,-17,28,-23,-23,-12
1491089245795,2,93,65,65,45,24,-35,16,42
1491089245796,3,127,127,-13,37,19,-27,55,99
1491089245796,3,-65,-89,86,-61,-35,-9,2,-54
1491089245797,0,-111,-78,-61,-117,-40,-1,-32,-28
1491089245797,0,38,46,99,55,57,-18,-17,7
1491089245833,1,54,127,118,17,8,-11,4,50
1491089245833,1,-35,-24,-57,-28,-38,9,7,-13
1491089245835,2,-63,59,127,35,46,1,-31,-53
1491089245835,2,23,56,-128,-26,-53,-21,4,-6
1491089245837,3,-41,-54,72,-26,13,-7,-2,12
1491089245837,3,-49,-11,-128,-15,-71,8,1,-34
1491089245838,0,76,67,103,96,70,-3,-30,107
1491089245838,0,17,8,27,4,21,-8,-15,-8
1491089245870,1,12,-46,-32,-45,14,-3,22,0
1491089245870,1,97,127,104,108,5,2,-6,11
1491089245872,2,-120,-128,-128,-128,-66,-3,4,-37
1491089245872,2,-75,-78,-41,-66,-6,0,-27,-23
1491089245873,3,94,72,92,65,41,-4,47,31
1491089245873,3,-25,-69,-27,80,-4,-5,1,-27
1491089245875,0,23,6,-39,26,-5,-2,29,15
1491089245875,0,77,70,84,11,-15,2,-8,-46
1491089245907,1,-38,-32,-44,-63,-16,5,-19,30
1491089245907,1,119,127,-32,-52,109,-4,22,11
1491089245982,2,92,-26,127,69,-55,-4,12,56
1491089245982,2,-104,-117,-128,-128,-76,-3,-47,-60
1491089245987,3,-108,-81,-43,-4,58,-3,35,-21
1491089245987,3,127,127,127,127,61,-4,11,51
1491089245988,0,-78,-121,-120,21,-12,-3,-12,2
1491089245988,0,-76,-105,37,-76,-36,-1,38,-2
1491089245988,1,-8,107,-61,-30,-20,2,8,-10
1491089245988,1,-46,-22,-56,-22,-6,6,17,16
1491089245989,2,46,82,18,-3,68,0,5,-7
1491089245989,2,-44,-64,29,-75,-45,-4,-36,-25
1491089245989,3,67,99,50,91,-82,4,-23,18
1491089245989,3,41,-33,-2,-61,79,-2,18,-13
1491089245990,0,-57,-57,108,95,-51,0,-17,-2
1491089245990,0,61,24,-53,7,42,-1,11,30
1491089245990,1,-6,-63,-65,-56,-31,-1,-11,-6
1491089245990,1,-21,-43,-99,-15,-15,1,-17,-14
1491089245991,2,-37,-104,-111,-125,-15,1,2,-17
1491089245991,2,12,85,111,107,-4,-2,6,14
1491089245991,3,40,87,127,35,63,-2,-1,-1
1491089245991,3,-30,-57,-77,78,-82,0,-13,3
1491089246020,0,-118,-71,-52,-107,-7,1,-24,-51
1491089246020,0,-8,44,-128,62,-60,2,-37,7
1491089246020,1,47,70,100,75,62,-3,10,7
1491089246020,1,-13,-10,48,-11,23,0,28,-13
1491089246021,2,26,46,96,44,-27,4,-85,7
1491089246021,2,-9,10,93,-48,-51,-1,73,6
1491089246022,3,-43,-128,-85,-92,68,-4,-12,-18
1491089246022,3,15,92,125,91,-93,1,3,7
1491089246057,0,-11,-22,-13,-12,-9,-2,-4,-20
1491089246057,0,-10,-55,86,-3,18,-5,-23,-1
1491089246058,1,22,96,-31,116,13,-3,19,6
1491089246058,1,-2,-15,14,-74,107,-4,-37,-6
1491089246059,2,10,-4,92,-61,-89,2,-4,-2
1491089246059,2,27,4,50,-21,27,-2,-2,11
1491089246059,3,-47,-56,-57,-74,-17,-2,-46,-22
1491089246059,3,-27,-50,-86,-110,-50,-3,-4,-21
1491089246095,0,80,127,92,127,85,0,23,15
1491089246095,0,-27,-31,-111,-111,71,-5,-23,-12
1491089246095,1,3,-70,127,75,-17,2,-25,-21
1491089246095,1,-28,89,22,29,24,-3,12,7
1491089246096,2,24,48,-77,-25,28,-5,-79,-2
1491089246096,2,-4,-67,-51,-31,-49,6,73,7
1491089246132,3,16,42,65,23,44,1,44,6
1491089246132,3,-16,-115,-19,36,7,-5,-46,-16
1491089246133,0,-2,25,49,53,42,-1,88,1
1491089246133,0,7,45,-128,-84,11,0,-75,-7
1491089246134,1,-15,-87,108,36,-17,-2,14,0
1491089246134,1,17,82,44,104,20,-4,-36,2
1491089246134,2,-13,24,-82,-124,35,0,-10,-5
1491089246134,2,42,127,105,127,1,-1,13,19
1491089246170,3,-29,-84,-128,-128,-10,-1,-82,-18
1491089246170,3,-6,99,61,-33,-60,-2,29,-8
1491089246171,0,-103,-119,-128,-100,-30,0,18,-27
1491089246171,0,56,78,123,113,-18,-1,-22,4
1491089246171,1,80,111,101,62,101,-1,-44,29
1491089246171,1,6,-101,-38,3,-41,5,38,8
1491089246172,2,11,8,-51,-67,-97,-3,53,-6
1491089246172,2,-42,-80,60,-24,41,0,-6,-18
1491089246207,3,-35,-98,-83,-20,-105,0,52,1
1491089246207,3,-11,-95,-72,-55,9,1,-37,-7
1491089246208,0,-19,-92,-48,-93,-54,-2,0,-4
1491089246208,0,38,26,41,63,12,2,-5,-15
1491089246212,1,-36,-82,-34,-64,-8,3,20,8
1491089246212,1,22,-11,127,32,63,1,8,4
1491089246213,2,7,-102,72,96,8,1,-36,19
1491089246213,2,15,-72,-19,-73,-40,-2,-22,1
1491089246245,3,-25,-89,-93,-91,-40,-5,-18,-12
1491089246245,3,-66,-117,28,-128,-97,-2,24,-9
1491089246245,0,41,30,64,75,42,-4,44,6
1491089246245,0,-42,-6,-64,-34,-20,0,-45,1
1491089246246,1,39,114,93,61,-5,-3,58,-2
1491089246246,1,-35,63,-5,62,22,-6,-12,4
1491089246282,2,29,127,114,58,13,-3,-18,-3
1491089246282,2,-42,-79,-102,-6,-27,-3,-46,-4
1491089246283,3,-18,61,-18,-69,-47,-7,52,-10
1491089246283,3,39,28,-30,-5,-11,0,-8,-3
1491089246284,0,5,71,-21,31,11,-5,18,-8
1491089246284,0,-19,25,-20,-65,-16,-5,29,12
1491089246285,1,-6,69,39,82,-1,-4,-34,-8
1491089246285,1,12,-33,54,72,-1,-4,21,8
1491089246320,2,-12,-65,-48,-66,26,-8,-4,-8
1491089246320,2,16,-66,-1,-2,-9,-2,36,3
1491089246321,3,-39,-78,-21,1,-46,6,-9,-7
1491089246321,3,26,0,58,77,50,0,12,6
1491089246321,0,-18,-71,-39,-34,-33,1,-33,-15
1491089246321,0,16,-37,-19,16,5,-3,12,8
1491089246322,1,-13,-46,33,2,-38,3,20,5
1491089246322,1,-11,-11,-117,-27,13,4,-25,-5
1491089246357,2,41,57,53,-3,18,3,27,14
1491089246357,2,-8,42,8,10,15,1,12,-2
1491089246358,3,19,76,56,10,13,-1,-43,-3
1491089246358,3,-27,31,-49,-15,-9,-2,17,-7
1491089246359,0,-7,74,33,79,-5,-1,-1,-5
1491089246359,0,16,78,-16,-20,-6,-2,3,3
1491089246360,1,-18,-8,-79,-18,22,-5,11,-1
1491089246360,1,-10,24,58,30,19,1,-58,-7
1491089246395,2,23,0,-69,-15,16,-1,2,-1
1491089246395,2,12,34,26,-15,11,-6,10,1
1491089246395,3,-26,-44,-35,-30,3,-3,-8,-14
1491089246395,3,1,54,40,27,-2,0,22,7
1491089246397,0,-48,-48,-23,-6,-2,1,-13,-5
1491089246397,0,-32,-44,-128,-72,-14,-2,-23,-5
1491089246432,1,43,21,74,41,-5,-1,-7,21
1491089246432,1,73,114,99,43,46,-2,9,8
1491089246434,2,-12,-39,-51,-28,2,-3,54,20
1491089246434,2,-50,-49,78,58,28,-42,-24,-24
1491089246434,3,10,31,-44,-24,-12,89,9,11
1491089246434,3,-57,-57,-107,-81,-4,-111,-39,-26
1491089246435,0,-7,-40,12,22,2,-1,-5,7
1491089246435,0,31,39,38,34,32,105,66,-3
1491089246470,1,-15,33,46,16,33,100,12,-4
1491089246470,1,-5,-60,-75,-28,-10,127,-39,8
1491089246470,2,49,44,-44,-53,-10,121,22,-11
1491089246470,2,-42,-54,-88,-10,18,46,-106,-27
1491089246471,3,29,55,103,24,-3,32,19,28
1491089246471,3,-22,16,30,7,10,126,-2,-7
1491089246472,0,-42,-31,-16,-12,-11,101,0,-9
1491089246472,0,29,-80,-82,-62,-13,121,44,4
1491089246507,1,-10,36,33,73,-26,-45,66,3
1491089246507,1,7,-27,-22,9,22,-96,-54,-8
1491089246508,2,-19,25,104,53,2,-86,-24,-1
1491089246508,2,-1,23,24,-3,10,-80,26,3
1491089246509,3,-23,-59,-77,-87,-17,6,31,-19
1491089246509,3,-19,-63,-112,-49,-20,-105,23,-9
1491089246510,0,38,-14,110,15,-19,-78,-39,-6
1491089246510,0,-61,48,-58,17,5,-105,-8,-27
1491089246545,1,100,32,50,34,1,-59,-100,48
1491089246545,1,-11,54,24,20,-2,2,-32,-49
1491089246546,2,-35,-35,56,-3,-3,-19,37,46
1491089246546,2,5,-37,-59,-50,-23,1,37,1
1491089246547,3,-27,-20,14,-24,-1,-16,-74,-25
1491089246547,3,40,-3,30,11,20,32,73,19
1491089246582,0,-2,35,-53,5,20,-7,90,4
1491089246582,0,0,41,56,-15,9,6,-38,17
1491089246583,1,-23,-80,-128,-23,-58,-6,13,-27
1491089246583,1,91,74,63,20,9,-4,17,46
1491089246584,2,-79,-36,-2,-3,8,0,-29,-8
1491089246584,2,90,-26,-35,7,-4,2,11,-35
1491089246585,3,-45,72,72,-3,30,-14,-5,43
1491089246585,3,-13,-85,-68,-49,4,15,98,25
1491089246620,0,-53,-14,-8,-30,-43,-1,-91,-51
1491089246620,0,8,3,127,-2,28,7,20,41
1491089246621,1,-26,54,75,68,24,-20,-47,-45
1491089246621,1,13,-10,-41,45,4,0,62,17
1491089246622,2,52,-14,-25,2,-9,-4,-59,4
1491089246622,2,-98,-85,-32,-45,-61,17,-48,-36
1491089246623,3,-32,-109,-84,-47,10,-112,5,-38
1491089246623,3,41,94,127,12,-3,-53,4,17
1491089246657,0,-7,-60,-107,-18,17,70,-20,-1
1491089246657,0,17,33,-60,-22,-4,-97,127,35
1491089246659,1,-103,-114,83,-60,-24,-104,-90,-61
1491089246659,1,72,-67,-111,-7,-15,-23,59,-7
1491089246660,2,-21,85,114,80,45,37,75,8
1491089246660,2,36,92,127,127,42,79,-77,43
1491089246695,3,25,100,-73,-34,21,127,127,1
1491089246695,3,-116,-120,-109,-116,-46,50,-124,5
1491089246696,0,117,127,80,-40,17,80,97,23
1491089246696,0,36,-35,-50,-16,-10,113,-75,-16
1491089246697,1,-73,-43,20,31,-23,33,-81,-30
1491089246697,1,-10,-61,-55,-96,-4,17,11,-29
1491089246698,2,86,85,38,70,-9,-52,120,46
1491089246698,2,32,111,127,67,4,-38,-62,-2
1491089246734,3,-4,-75,-107,10,-17,9,-41,35
1491089246734,3,-1,-10,-9,-54,-3,6,28,-73
1491089246735,0,28,9,47,27,-7,23,-128,33
1491089246735,0,11,23,-51,-8,8,89,-10,-21
1491089246736,1,25,28,1,14,34,77,24,23
1491089246736,1,-128,-79,-67,3,-9,39,-80,-6
1491089246737,2,36,27,-83,-50,-30,-19,-82,-30
1491089246737,2,-123,-128,-66,12,-29,25,49,1
1491089246770,3,11,58,27,19,36,-32,-57,2
1491089246770,3,92,127,127,60,40,-123,95,56
1491089246771,0,-30,-107,35,-14,19,33,-14,7
1491089246771,0,-70,-57,-33,-54,-23,-70,-61,-23
1491089246808,1,-62,-86,56,-46,-44,87,-4,-34
1491089246808,1,78,64,-98,38,-11,82,35,2
1491089246809,2,-46,-52,26,9,14,-20,-29,-4
1491089246809,2,-64,-55,-109,-80,2,-29,54,-24
1491089246810,3,59,-121,25,14,-17,-93,-5,11
1491089246810,3,-11,125,127,105,51,55,-23,28
1491089246810,0,-110,-87,-128,-7,-42,-1,-3,-72
1491089246810,0,110,11,80,-2,40,8,126,21
1491089246845,1,11,-20,-58,-66,-17,114,-77,-61
1491089246845,1,-85,-33,47,-31,-27,117,-14,-6
1491089246845,2,-18,-67,-128,-33,-31,86,63,54
1491089246845,2,32,127,110,40,-18,117,-81,-43
1491089246846,3,-26,65,35,68,46,46,118,40
1491089246846,3,60,-96,-7,21,17,1,-65,-7
1491089246847,0,-101,-15,37,-3,-11,-121,-93,-38
1491089246847,0,-71,-128,-120,-38,-32,-89,-13,1
1491089246882,1,127,99,11,-46,-11,-30,7,-1
1491089246882,1,-73,64,108,27,5,-37,35,5
1491089246883,2,49,65,39,-19,17,-57,6,-5
1491089246883,2,-34,-44,-30,18,-21,-123,11,28
1491089246884,3,36,-61,-76,-27,-12,-13,22,17
1491089246884,3,-70,-128,-128,-74,-76,-82,52,-73
1491089246885,0,127,51,127,46,45,-30,-87,2
1491089246885,0,115,120,127,92,75,5,-32,55
1491089246920,1,38,-7,-30,41,-26,-104,91,13
1491089246920,1,25,-54,-72,-60,-21,-36,-89,24
1491089246920,2,-76,-95,-109,-53,-25,6,112,-39
1491089246920,2,11,44,9,24,-8,100,48,14
1491089246921,3,71,104,-7,-16,27,41,-52,42
1491089246921,3,13,92,7,13,-10,-30,44,14
1491089246922,0,-54,-33,25,7,-29,-111,-71,-58
1491089246922,0,16,-82,-96,-9,-18,-96,-5,15
1491089246957,1,-31,-103,-68,7,26,37,15,-14
1491089246957,1,71,69,58,-1,15,11,119,78
1491089246959,2,-16,121,60,9,27,51,8,-23
1491089246959,2,15,-59,67,-15,5,-51,-39,12
1491089246960,3,-14,-29,38,4,-17,-9,81,0
1491089246960,3,4,-9,-71,11,-6,26,-103,28
1491089246960,0,4,-55,-109,-40,-22,-15,19,-3
1491089246960,0,45,7,8,6,-8,34,68,-5
1491089246995,1,45,-33,-87,-62,-36,-63,-9,-11
1491089246995,1,-113,-126,19,-4,18,76,-107,-35
1491089246995,2,115,85,49,20,-35,20,37,25
1491089246995,2,-109,39,45,18,7,67,82,-8
1491089246996,3,-128,-102,-106,-79,-6,-2,17,-43
1491089246996,3,127,127,103,20,4,42,11,23
1491089246997,0,-86,-109,89,14,26,35,-11,12
1491089246997,0,-79,-77,-113,-44,34,34,-89,-26
1491089247032,1,35,116,127,72,2,-43,51,29
1491089247032,1,-18,-65,-81,16,-15,-51,14,-18
1491089247033,2,-85,-53,-39,11,20,-22,-84,-36
1491089247033,2,127,61,11,20,-8,-68,58,64
1491089247033,3,-53,11,-32,-23,-22,6,35,-51
1491089247033,3,-82,-92,-5,-18,-17,12,52,-26
1491089247035,0,25,43,-23,-19,16,63,-62,13
1491089247035,0,35,-4,-128,-28,-36,-38,74,-35
1491089247070,1,-67,22,47,8,40,14,-9,-24
1491089247070,1,126,58,80,90,3,-89,78,69
1491089247072,2,18,-105,6,-7,-11,3,127,16
1491089247072,2,-49,-20,27,-24,-1,46,29,-32
1491089247078,3,-73,-85,-24,16,0,36,-88,-3
1491089247078,3,35,66,-60,-13,-13,-75,-17,4
1491089247079,0,-64,-39,12,6,26,-47,109,-2
1491089247079,0,-31,-62,15,4,7,-13,-97,-6
1491089247107,1,68,76,37,-26,-9,-7,66,20
1491089247107,1,-122,-128,-13,3,5,44,-45,-70
1491089247108,2,104,55,12,-8,-11,-14,10,31
1491089247108,2,84,-19,-41,12,-8,-28,56,14
1491089247109,3,39,54,58,-27,20,-31,-35,42
1491089247109,3,-45,-23,88,48,38,56,36,15
1491089247145,0,43,71,-27,33,-11,-41,82,-27
1491089247145,0,-128,-128,-46,-72,-41,85,44,-15
1491089247146,1,12,1,-5,-3,-8,64,-128,3
1491089247146,1,122,43,76,30,10,0,-49,-17
1491089247147,2,-85,-84,-100,4,-4,21,30,12
1491089247147,2,88,127,55,-47,50,-88,-128,-19
1491089247148,3,51,31,18,43,-13,-32,127,40
1491089247148,3,-56,-27,2,-38,-14,-25,-31,-12
1491089247182,0,60,29,-16,21,-6,-4,-21,28
1491089247182,0,17,-89,-26,40,-39,-43,28,-6
1491089247183,1,-29,-104,-128,-40,16,5,60,17
1491089247183,1,30,58,102,-57,14,-36,-6,-53
1491089247183,2,41,-21,59,43,36,67,73,41
1491089247183,2,-42,-55,-50,38,16,11,-5,-37
1491089247220,3,99,82,54,3,-53,-69,-82,10
1491089247220,3,-36,-85,-53,-16,-2,19,41,41
1491089247220,0,-16,-39,-82,-69,-2,56,7,-31
1491089247220,0,17,15,19,25,10,-8,-62,33
1491089247221,1,-17,-45,57,62,-7,13,-24,-9
1491089247221,1,-107,-90,-128,-37,-21,-52,-46,-88
1491089247222,2,112,127,127,-54,24,51,-52,30
1491089247222,2,-102,-96,111,52,-4,24,-41,-11
1491089247257,3,-61,-59,-118,-7,7,21,10,-8
1491089247257,3,-3,53,67,12,-15,-51,-34,-8
1491089247258,0,-62,-128,-67,60,2,-14,-27,-11
1491089247258,0,46,127,-36,16,-8,-14,71,-2
1491089247258,1,-106,-105,-65,-88,17,16,-33,-45
1491089247258,1,73,-14,-99,-57,-6,47,127,80
1491089247259,2,-81,83,90,40,-7,-35,-60,-7
1491089247259,2,-64,-38,-20,10,-12,-10,72,-15
1491089247295,3,-8,-72,77,84,16,-70,2,-23
1491089247295,3,87,78,8,-28,13,42,-58,27
1491089247296,0,-49,-109,12,-45,-27,-21,-98,-51
1491089247296,0,-21,-53,36,-6,25,20,-57,-15
1491089247297,1,46,-49,-4,20,-41,-39,-14,17
1491089247297,1,-75,10,-65,-69,-17,-13,18,-30
1491089247297,2,127,127,93,62,43,-62,-30,67
1491089247297,2,-101,87,-57,65,57,127,116,-6
1491089247332,3,95,-7,8,69,8,-34,-52,17
1491089247332,3,-70,-126,-105,-43,-93,-29,26,-3
1491089247333,0,54,90,-23,-111,-44,-16,-77,-1
1491089247333,0,48,10,119,69,27,-70,96,23
1491089247333,1,127,-26,-103,0,1,-6,64,8
1491089247333,1,-90,57,39,-46,7,71,18,-56
1491089247334,2,-128,-128,-128,-128,-43,38,-81,-49
1491089247334,2,124,100,109,27,24,-36,-14,36
1491089247370,3,-49,127,89,-1,22,-27,84,-18
1491089247370,3,-1,-56,87,120,20,17,-15,5
1491089247371,0,-24,-122,-128,-40,-33,-69,127,-32
1491089247371,0,34,-5,72,-21,-13,29,-37,61
1491089247371,1,71,85,104,67,58,101,-29,26
1491089247371,1,-44,-97,-91,26,-37,-36,-107,-17
1491089247372,2,4,127,-83,6,-5,-23,127,-6
1491089247372,2,-53,-52,19,-72,-42,-50,-36,-28
1491089247407,3,-6,-6,34,22,18,56,47,-9
1491089247407,3,-30,57,-10,21,33,18,49,-6
1491089247408,0,-50,-65,-30,30,-13,16,-128,-52
1491089247408,0,127,27,-17,-114,8,-56,121,92
1491089247409,1,-98,-87,80,-27,-4,22,-4,-45
1491089247409,1,93,72,-40,59,5,-59,-30,-21
1491089247445,2,-68,56,127,91,13,80,127,24
1491089247445,2,-24,-71,-128,-36,-25,0,-128,-24
1491089247445,3,-120,-84,-68,-85,-70,-54,62,-22
1491089247445,3,84,43,113,1,28,61,10,18
1491089247446,0,-10,-86,96,24,6,-52,-94,11
1491089247446,0,68,30,2,21,56,55,3,77
1491089247447,1,-74,-124,18,84,23,-20,-81,21
1491089247447,1,-21,52,-109,-84,-16,39,-5,-18
1491089247482,2,97,45,-41,56,-7,-68,-109,-61
1491089247482,2,-17,15,56,17,29,72,-102,-57
1491089247483,3,124,31,-83,-102,23,76,60,84
1491089247483,3,-109,-124,-14,-12,-14,-85,8,-60
1491089247484,0,112,52,50,22,-41,-69,-53,51
1491089247484,0,-31,53,19,92,-22,-5,55,-55
1491089247484,1,13,68,-65,-36,19,33,-103,1
1491089247484,1,54,-20,68,49,-39,-53,-12,52
1491089247520,2,-55,-74,-128,-66,-5,-32,97,-29
1491089247520,2,-57,-49,48,-24,23,9,68,-6
1491089247520,3,1,-29,-3,74,7,42,-50,-32
1491089247520,3,71,55,91,50,23,7,1,27
1491089247521,0,20,-44,-64,72,-18,-24,23,65
1491089247521,0,-14,-20,-107,-18,-84,-100,-48,-29
1491089247522,1,67,127,119,-90,84,81,84,6
1491089247522,1,8,-24,43,66,36,25,-31,-22
1491089247557,2,-50,-10,-38,-106,-3,7,-65,-63
1491089247557,2,77,105,124,2,-22,-37,-97,21
1491089247558,3,-128,-128,12,83,-31,36,101,-94
1491089247558,3,14,-75,-76,-81,-29,-56,19,4
1491089247559,0,39,115,127,53,60,115,24,18
1491089247559,0,44,-59,-1,56,45,46,13,45
1491089247595,1,-90,-49,-101,0,-36,-97,-5,-28
1491089247595,1,-84,-75,3,-13,-58,-65,-11,-44
1491089247595,2,-36,-17,24,-47,35,22,-10,6
1491089247595,2,60,84,8,-76,7,-10,100,11
1491089247596,3,8,46,-56,6,-10,-27,-122,35
1491089247596,3,-127,-68,11,45,63,8,43,-10
1491089247597,0,-75,-128,16,72,-61,-128,-16,38
1491089247597,0,-1,69,-103,-87,-28,48,44,24
1491089247632,1,-52,-25,127,-24,2,32,46,-36
1491089247632,1,45,-85,-61,-128,-10,43,-128,-17
1491089247633,2,-41,7,-11,2,-22,34,79,2
1491089247633,2,-51,-128,20,59,42,-24,84,-21
1491089247634,3,127,127,37,46,-15,-28,3,-2
1491089247634,3,-83,-70,-124,75,-19,-12,-49,-13
1491089247634,0,110,-21,-38,-65,-23,54,3,22
1491089247634,0,-122,-128,57,37,5,-43,53,-82
1491089247670,1,96,81,29,-9,13,84,-5,98
1491089247670,1,-39,57,66,13,26,31,81,17
1491089247670,2,-62,-18,85,59,28,-32,-12,1
1491089247670,2,-65,-94,-108,-22,-51,82,-110,-64
1491089247671,3,54,93,-76,-41,-3,-67,23,81
1491089247671,3,-46,-36,127,123,-1,27,27,-81
1491089247707,0,40,-76,-128,-54,32,88,44,18
1491089247707,0,-108,-112,-90,-86,-41,-113,-15,-80
1491089247708,1,78,40,119,102,54,-20,-58,47
1491089247708,1,49,127,-94,-53,-29,117,81,84
1491089247709,2,64,47,122,-66,27,40,-15,-36
1491089247709,2,-63,-81,34,100,-31,14,-104,-67
1491089247710,3,-12,19,-116,-48,-43,-39,3,-61
1491089247710,3,87,70,127,-16,29,-81,82,57
1491089247745,0,-23,17,111,127,3,65,60,-9
1491089247745,0,79,-28,-77,-94,-36,-25,-93,18
1491089247746,1,-128,-128,-41,-73,-44,-92,-77,-105
1491089247746,1,119,113,82,66,30,47,29,59
1491089247746,2,-111,-81,-80,29,7,-47,-42,-88
1491089247746,2,70,123,-66,-86,14,14,28,94
1491089247747,3,38,40,51,80,-21,73,28,-24
1491089247747,3,-69,-110,-90,-108,1,-5,-14,-63
1491089247782,0,-24,87,72,112,-26,77,-106,61
1491089247782,0,68,-87,88,0,-21,-12,51,-28
1491089247783,1,75,97,57,-27,38,-63,1,90
1491089247783,1,-75,-85,-41,-38,-20,-97,73,-78
1491089247784,2,89,36,76,-23,22,-34,-15,41
1491089247784,2,-48,75,-42,37,33,16,-11,37
1491089247785,3,-5,-51,-54,-73,-71,-18,4,-14
1491089247785,3,62,63,114,-87,6,-85,45,-3
1491089247820,0,-105,-105,-7,-120,76,11,35,-38
1491089247820,0,94,25,64,115,-49,8,-57,-38
1491089247820,1,-94,-12,51,-61,32,-60,-12,-53
1491089247820,1,41,-120,35,67,27,121,-84,76
1491089247821,2,127,105,-128,-100,-1,8,63,24
1491089247821,2,-119,-4,8,34,12,25,-30,-48
1491089247857,3,2,-128,25,99,-38,0,30,-4
1491089247857,3,-41,54,-128,-2,-13,45,-6,-14
1491089247859,0,30,-72,-14,-24,-36,53,-1,54
1491089247859,0,-79,67,67,-10,13,106,31,55
1491089247861,1,90,71,-128,62,16,103,-26,19
1491089247861,1,-96,-61,-25,-33,65,18,-3,-35
1491089247862,2,-35,-45,53,127,-75,-1,39,7
1491089247862,2,73,60,38,-8,31,19,4,-3
1491089247895,3,-66,-92,-63,-20,-38,-7,-40,-36
1491089247895,3,125,115,-36,-44,16,64,36,98
1491089247896,0,-40,56,27,0,37,60,-26,-78
1491089247896,0,-11,-105,-32,38,-43,92,-5,14
1491089247896,1,-83,-26,21,-86,0,120,63,-9
1491089247896,1,-52,-13,81,119,3,2,-47,-69
1491089247897,2,-45,-47,-37,-24,-48,-110,-51,31
1491089247897,2,-42,-11,-20,-62,-25,-78,-54,-40
1491089247932,3,25,52,102,41,-9,-68,18,51
1491089247932,3,-40,-115,-128,72,51,-86,-31,-24
1491089247933,0,-13,14,-22,40,49,-65,-23,-54
1491089247933,0,66,-68,-97,-79,-47,-52,13,88
1491089247934,1,-128,-128,8,-75,-54,-62,-55,-104
1491089247934,1,80,111,127,7,8,-30,3,28
1491089247934,2,-15,-47,-39,-17,9,-29,39,14
1491089247934,2,42,56,73,-11,73,-41,9,34
1491089247970,3,-14,-78,41,-4,-16,-31,36,-3
1491089247970,3,25,117,2,127,18,-1,-3,18
1491089247971,0,-86,-128,-106,-58,-45,-17,-41,-76
1491089247971,0,1,-29,-45,-128,-17,-30,66,31
1491089247971,1,15,70,106,57,18,1,6,9
1491089247971,1,91,79,-54,83,-38,4,-25,14
1491089248007,2,-17,-98,-113,-56,2,-10,21,17
1491089248007,2,2,45,-128,-63,-42,-7,-36,-62
1491089248008,3,66,127,86,-44,56,2,30,90
1491089248008,3,-62,-128,98,45,-12,1,-10,-32
1491089248009,0,-56,-53,-93,-95,28,-7,35,-8
1491089248009,0,111,94,127,102,23,-12,30,-4
1491089248010,1,12,-22,-9,38,2,-1,-20,-16
1491089248010,1,-104,-110,25,28,-39,-13,-3,-32
1491089248045,2,127,127,53,-78,-1,0,20,113
1491089248045,2,-128,-128,-90,-38,8,-3,-68,-39
1491089248046,3,-68,-87,-69,-75,20,-11,13,-61
1491089248046,3,-33,12,82,25,-75,-3,-18,13
1491089248046,0,-69,32,107,57,13,2,-11,0
1491089248046,0,-84,-60,-81,22,-26,-9,8,-52
1491089248047,1,86,112,-128,-8,29,-5,6,50
1491089248047,1,11,-122,-49,-66,-3,5,-3,-5
1491089248082,2,-38,-53,127,-37,31,-3,9,-29
1491089248082,2,0,-35,-44,118,-58,-6,-20,0
1491089248084,3,-128,-128,-128,-74,-61,2,-43,-29
1491089248084,3,32,85,32,-78,13,1,18,11
1491089248085,0,117,120,104,127,63,1,27,17
1491089248085,0,23,-58,65,-14,58,-1,25,14
1491089248085,1,-123,-119,-115,-21,-16,4,1,-15
1491089248085,1,-99,-121,-128,-128,-44,-4,-15,-21
1491089248120,2,-27,-30,-21,-110,-25,-4,-15,-33
1491089248120,2,99,127,127,80,3,-3,22,29
1491089248121,3,114,124,106,127,45,-4,16,62
1491089248121,3,-31,-54,-61,-128,24,0,1,2
1491089248121,0,-26,-70,-109,2,-62,-1,-7,-16
1491089248121,0,-114,-114,31,-1,24,9,-48,-40
1491089248157,1,0,-54,-60,-112,-67,1,-1,-18
1491089248157,1,68,98,105,100,11,-1,28,29
1491089248158,2,43,65,98,105,80,-5,1,7
1491089248158,2,-5,-8,-66,-94,-15,-6,-21,-6
1491089248160,3,15,-31,-54,-61,-53,-1,20,-2
1491089248160,3,-37,-102,-70,4,-2,0,-31,-27
1491089248161,0,-35,-71,-121,-12,-28,-4,-31,-8
1491089248161,0,30,127,105,14,19,-2,49,18
1491089248194,1,-18,1,9,-10,40,2,-29,-3
1491089248194,1,-18,-1,-110,-55,31,-1,14,-10
1491089248196,2,37,35,55,-54,-7,0,3,0
1491089248196,2,-37,-76,22,36,-55,-6,3,-2
1491089248196,3,25,90,33,40,-32,-2,-3,0
1491089248196,3,-20,-9,127,-28,10,-3,-24,-4
1491089248197,0,-7,-30,-87,9,13,-4,8,6
1491089248197,0,-5,31,28,-84,45,-1,-10,-7
1491089248232,1,24,47,44,39,74,2,13,-12
1491089248232,1,10,-12,-49,8,-82,-5,8,14
1491089248233,2,-86,-101,-80,-119,-46,1,-58,-35
1491089248233,2,-1,59,22,49,-23,0,11,13
1491089248234,3,63,61,110,127,120,-1,-4,4
1491089248234,3,105,125,-78,-48,30,4,35,20
1491089248235,0,-78,-47,-11,30,-18,-4,17,-11
1491089248235,0,2,-26,-121,-14,-9,-1,-7,-5
1491089248270,1,-68,-108,-120,-118,-31,-2,-26,-33
1491089248270,1,28,-8,90,81,0,-1,18,16
1491089248270,2,7,4,45,40,-68,-6,-12,-2
1491089248270,2,1,-14,-37,-71,6,-1,11,-5
1491089248271,3,-10,-41,-39,8,5,0,-27,-5
1491089248271,3,-23,-59,34,-30,-13,-4,16,-6
1491089248307,0,46,104,-13,55,64,1,23,6
1491089248307,0,26,79,90,54,7,0,10,5
1491089248308,1,8,-15,9,43,-100,-4,-54,-1
1491089248308,1,-47,-49,-81,-86,-1,1,-16,-10
1491089248309,2,9,-59,-65,18,-13,-7,-5,-6
1491089248309,2,-24,-72,-128,-92,-48,-5,40,-7
1491089248309,3,33,30,83,33,57,0,-6,5
1491089248309,3,36,116,101,127,72,-3,-10,11
1491089248344,0,24,39,45,27,-7,-1,37,17
1491089248344,0,-33,-92,-124,-79,24,-3,-65,-14
1491089248345,1,-16,-22,-56,-50,-53,-7,46,-4
1491089248345,1,-11,-4,22,-18,16,-4,-5,-6
1491089248348,2,-14,-5,-64,-80,-4,3,-69,-14
1491089248348,2,-12,-17,-75,-15,6,-1,16,4
1491089248349,3,2,4,76,17,27,3,0,3
1491089248349,3,-6,4,-2,-81,25,4,-8,-10
1491089248382,0,-5,64,14,12,40,-2,28,-5
1491089248382,0,46,92,110,92,-7,1,-11,21
1491089248383,1,4,116,-45,-60,49,0,9,10
1491089248383,1,-17,40,-40,-26,3,1,-32,-18
1491089248383,2,-59,-112,-104,-125,-33,1,-35,-21
1491089248383,2,-24,-119,-108,21,-64,1,-28,-3
1491089248384,3,48,-21,66,57,43,1,30,17
1491089248384,3,21,6,90,109,35,0,21,8
1491089248420,0,24,52,14,-38,-15,-7,-8,-3
1491089248420,0,-20,1,-1,76,1,-3,30,-8
1491089248420,1,-37,-110,-14,-37,-16,-4,-66,-21
1491089248420,1,-34,-128,-128,-128,-72,1,-29,-15
1491089248421,2,32,-43,90,69,6,-1,55,11
1491089248421,2,33,8,127,91,124,0,-27,14
1491089248457,3,-3,-68,-49,-15,-11,-5,66,-1
1491089248457,3,13,-99,-78,-72,-40,2,1,-2
1491089248458,0,-49,-43,-28,-40,-35,-4,-73,-11
1491089248458,0,-21,-39,-38,-78,-3,-1,-13,-25
1491089248458,1,-8,21,-11,39,-12,3,-38,1
1491089248458,1,18,66,84,95,-21,0,60,15
1491089248459,2,-3,28,-62,-55,4,1,3,2
1491089248459,2,4,82,7,14,-2,-8,-11,8
1491089248494,3,4,116,75,49,-4,2,-41,-11
1491089248494,3,-14,66,1,49,24,-6,-66,-14
1491089248495,0,6,22,5,-25,-44,-3,65,10
1491089248495,0,-20,21,-9,11,14,3,9,-13
1491089248496,1,-2,-21,-42,-53,-19,-3,12,2
1491089248496,1,10,40,7,29,-59,-5,30,8
1491089248497,2,5,46,62,60,-8,-6,33,-7
1491089248497,2,-5,-5,16,-52,15,-1,-16,-7
1491089248532,3,-17,7,-20,-58,-53,-5,-8,-3
1491089248532,3,-24,-18,15,19,55,-2,17,-13
1491089248533,0,34,11,43,75,-32,-2,-85,3
1491089248533,0,-13,-19,-36,-98,-31,-1,100,-3
1491089248534,1,27,35,2,65,-16,-3,-36,0
1491089248534,1,-36,-9,-35,-39,-10,0,40,2
1491089248570,2,12,13,2,26,47,-5,-5,-3
1491089248570,2,6,-11,23,26,-35,-2,-22,-2
1491089248571,3,6,-99,-32,-25,-11,1,19,3
1491089248571,3,-7,-108,-40,-74,17,-3,3,-10
1491089248572,0,28,-15,36,87,-11,3,11,13
1491089248572,0,-35,-22,12,-13,5,-3,-42,-12
1491089248572,1,-14,-51,-34,-50,10,-1,40,-2
1491089248572,1,11,-59,24,80,-106,-3,22,9
1491089248607,2,-3,-35,22,0,21,4,-27,-4
1491089248607,2,9,2,9,-4,10,-1,7,6
1491089248608,3,-4,34,-30,-13,-17,-5,-7,3
1491089248608,3,0,69,1,-19,17,3,-37,-6
1491089248608,0,1,35,18,25,8,1,43,5
1491089248608,0,17,43,24,69,-5,-2,-58,4
1491089248609,1,-23,18,-33,-32,21,1,9,-8
1491089248609,1,14,43,6,21,42,-1,-32,5
1491089248644,2,-8,-3,-7,-16,-46,2,-22,-1
1491089248644,2,-1,8,1,-19,33,-1,10,-3
1491089248646,3,-1,17,7,10,-2,-1,-7,-1
1491089248646,3,0,12,-9,-12,20,-2,-19,0
1491089248647,0,-14,-4,-26,-23,10,6,-20,-6
1491089248647,0,2,-5,3,13,21,0,-10,-2
1491089248682,1,9,15,19,5,0,0,60,8
1491089248682,1,15,19,-4,-20,-14,-1,-29,-2
1491089248683,2,-36,-21,-15,-33,59,-8,26,-14
1491089248683,2,10,-6,7,36,-10,2,116,5
1491089248685,3,-8,-12,-8,-9,15,-3,113,-13
1491089248685,3,6,8,3,-23,7,0,-10,5
1491089248686,0,12,2,-17,16,7,0,-59,1
1491089248686,0,14,20,11,-21,25,2,-90,-2
1491089248720,1,-25,-20,-8,-14,-6,-2,-91,-6
1491089248720,1,5,9,28,38,40,-3,-55,1
1491089248720,2,24,9,-45,-28,38,-1,-21,4
1491089248720,2,-57,-55,-9,-19,-41,-3,7,0
1491089248721,3,0,34,3,19,15,-3,39,-18
1491089248721,3,-5,-19,-22,-31,-33,-1,-12,20
1491089248722,0,-17,-56,-57,-19,12,-4,4,-15
1491089248722,0,28,93,44,23,11,-14,2,36
1491089248757,1,69,54,68,36,-10,-10,-44,11
1491089248757,1,-35,-18,-19,0,-16,-11,-33,-31
1491089248759,2,17,9,15,8,-4,-112,64,4
1491089248759,2,-7,-25,-23,-14,-21,-119,67,-18
1491089248759,3,-45,-90,-33,-16,5,-44,35,-2
1491089248759,3,26,37,-43,-32,-6,23,52,6
1491089248760,0,25,32,23,39,-13,89,1,15
1491089248760,0,7,-61,-29,-52,-24,95,-42,-16
1491089248795,1,8,38,24,22,32,73,-79,4
1491089248795,1,-32,-31,18,9,-17,65,-15,-20
1491089248796,2,-48,-38,29,-19,-19,70,-9,-15
1491089248796,2,27,105,66,19,8,55,-103,12
1491089248796,3,14,-49,-46,-27,-19,48,45,13
1491089248796,3,-58,-30,-30,-6,4,29,9,-30
1491089248797,0,39,-15,83,-35,-12,23,31,5
1491089248797,0,17,11,-34,26,-1,28,39,17
1491089248832,1,-34,3,8,22,-7,19,-128,-29
1491089248832,1,4,-87,-106,-52,-19,1,-8,7
1491089248833,2,54,86,121,75,21,108,-3,13
1491089248833,2,4,36,-78,-8,4,127,-1,-9
1491089248834,3,-5,5,60,26,-1,127,-23,-11
1491089248834,3,47,-52,98,22,17,125,16,14
1491089248869,0,-65,35,-128,-53,-40,0,-22,-40
1491089248869,0,-71,-86,55,-13,17,-89,87,16
1491089248871,1,100,116,-19,12,-6,-128,-8,-23
1491089248871,1,-65,35,96,27,18,-36,59,20
1491089248871,2,-7,-39,-29,-10,-8,26,-84,5
1491089248871,2,-42,-102,-28,-49,-2,25,-32,-30
1491089248872,3,16,-33,38,-8,-12,-51,2,-3
1491089248872,3,-70,-30,-73,-58,-17,-48,-59,-18
1491089248907,0,93,107,116,57,30,32,43,25
1491089248907,0,-23,-31,-74,16,12,46,88,1
1491089248908,1,45,77,89,24,-7,-29,84,62
1491089248908,1,30,-29,-26,22,-11,-50,28,-14
1491089248909,2,-79,-82,-128,-85,-31,-70,10,-5
1491089248909,2,18,-57,127,36,3,-15,23,-30
1491089248910,3,-101,-128,-117,-23,-12,127,2,-15
1491089248910,3,93,104,127,23,11,118,34,29
1491089248945,0,-23,63,-44,28,-1,9,113,21
1491089248945,0,10,42,93,-2,-3,17,-128,2
1491089248945,1,64,4,-69,-41,14,-74,127,18
1491089248945,1,-89,-94,-128,-4,-7,-31,-60,-32
1491089248946,2,122,64,42,24,-14,16,44,33
1491089248946,2,49,43,55,27,16,16,-72,4
1491089248947,3,-115,-6,63,28,0,-79,-88,-41
1491089248947,3,55,61,59,19,2,-66,66,21
1491089248982,0,-126,-128,-81,-34,-29,-104,-98,-34
1491089248982,0,64,57,-27,-49,-15,-114,121,23
1491089248983,1,-30,-115,81,-8,-8,-10,-21,-4
1491089248983,1,-6,52,-66,-19,12,-107,43,-15
1491089248984,2,56,3,64,-22,-8,-82,13,3
1491089248984,2,-52,13,44,31,8,75,34,-22
1491089249019,3,-33,-88,-89,-5,9,-39,15,-9
1491089249019,3,-45,94,71,28,-23,-22,-91,9
1491089249021,0,-94,-128,8,13,-20,1,42,-30
1491089249021,0,45,78,-128,-18,32,-19,-35,13
1491089249021,1,116,104,127,-10,-3,121,-4,19
1491089249021,1,20,-60,-128,-16,-5,-35,107,-13
1491089249022,2,46,21,127,25,25,-67,-11,18
1491089249022,2,-128,-97,55,28,-22,87,-59,-58
1491089249057,3,-1,10,-128,-25,-20,13,-28,-32
1491089249057,3,23,-75,127,-5,0,-26,-29,14
1491089249058,0,19,33,-93,-49,-8,127,-5,-13
1491089249058,0,-80,-124,-45,-2,-14,-65,-94,-20
1491089249059,1,-4,127,-32,-27,-12,-86,1,10
1491089249059,1,4,-14,23,1,-6,-66,-2,11
1491089249060,2,2,-63,15,24,-11,22,-24,-44
1491089249060,2,56,-4,14,-43,22,82,73,44
1491089249095,3,-57,-41,-66,-54,-11,7,-67,-32
1491089249095,3,80,-34,39,17,-4,-64,79,12
1491089249096,0,-7,31,127,73,19,-3,-31,25
1491089249096,0,-30,10,-21,24,24,16,61,13
1491089249096,1,-101,-128,-54,-50,-20,-78,-32,21
1491089249096,1,64,127,12,-33,8,-39,71,-26
1491089249098,2,51,71,13,43,50,-91,41,72
1491089249098,2,24,-50,-10,-4,-22,-101,-45,-16
1491089249132,3,52,48,116,87,-1,-59,76,63
1491089249132,3,-84,-128,-122,-18,-10,-67,-80,-64
1491089249133,0,-55,23,5,-75,10,-35,37,2
1491089249133,0,75,-39,-98,-26,-34,-83,5,17
1491089249134,1,-36,102,-29,-64,-7,-49,15,-34
1491089249134,1,15,-73,76,87,5,70,-74,41
1491089249170,2,-20,64,45,95,10,1,92,12
1491089249170,2,89,71,-74,-6,2,-31,16,14
1491089249171,3,-72,-128,-38,-31,-4,-18,21,-73
1491089249171,3,82,119,-77,4,17,86,83,41
1491089249173,0,-27,-11,78,-3,1,25,-48,-35
1491089249173,0,101,-27,-16,54,-6,-30,-60,30
1491089249175,1,-46,-44,13,21,-12,61,-95,-40
1491089249175,1,18,-19,-40,-73,-20,16,-95,5
1491089249207,2,12,-62,-108,-72,14,75,82,37
1491089249207,2,-21,-35,65,-9,-11,9,-42,-43
1491089249208,3,16,-42,127,63,27,56,28,9
1491089249208,3,-81,-5,-54,17,12,26,-59,-12
1491089249209,0,68,40,-55,-19,-50,-46,-24,6
1491089249209,0,-72,-96,-44,29,0,46,-50,-31
1491089249209,1,83,110,-16,27,17,48,127,33
1491089249209,1,-42,23,85,-29,3,3,-50,-14
1491089249244,2,-75,-123,-63,-72,-3,75,60,-36
1491089249244,2,-11,63,-37,-71,-28,-37,76,11
1491089249246,3,-64,-13,24,1,-14,-47,-77,-33
1491089249246,3,105,-25,104,73,27,-29,15,24
1491089249246,0,79,101,21,49,43,-24,-37,36
1491089249246,0,-127,-106,59,34,-4,-29,94,-18
1491089249247,1,96,44,-79,4,3,-91,47,31
1491089249247,1,100,-10,-44,2,-65,-44,-67,24
1491089249282,2,-113,-115,-25,-88,17,-37,38,-59
1491089249282,2,95,96,83,41,20,17,19,31
1491089249283,3,-82,-72,-38,-1,4,24,104,7
1491089249283,3,-12,122,-30,-37,-2,102,50,4
1491089249284,0,12,-128,-41,22,-5,-74,-47,-18
1491089249284,0,52,127,91,43,39,48,12,16
1491089249319,1,76,10,-15,76,-2,-41,-5,23
1491089249319,1,-58,-68,-27,-57,-10,3,-56,-46
1491089249321,2,-86,-83,-88,-38,-29,-21,-30,-14
1491089249321,2,84,47,-64,-44,-6,-62,97,24
1491089249321,3,-25,-36,35,-9,2,34,-43,-13
1491089249321,3,-89,-94,-46,25,14,30,96,17
1491089249322,0,15,100,61,46,4,1,-17,-3
1491089249322,0,39,-50,8,12,-6,2,-49,52
1491089249357,1,-8,-4,-59,-47,5,124,-32,-42
1491089249357,1,40,84,100,19,18,4,83,24
1491089249358,2,35,-2,-39,48,3,-15,44,9
1491089249358,2,-6,-6,60,-53,-17,-24,1,-10
1491089249358,3,-26,22,73,-8,12,4,-21,9
1491089249358,3,4,-41,21,43,26,-30,11,0
1491089249359,0,-45,8,37,-7,-14,-2,-78,-15
1491089249359,0,18,-32,-82,31,-11,-79,-26,-4
1491089249394,1,-38,-103,-83,-64,-18,-19,-64,5
1491089249394,1,42,106,46,9,17,7,-11,-16
1491089249396,2,-44,33,27,74,-8,-29,-11,-19
1491089249396,2,-4,-106,-51,-9,21,7,15,-21
1491089249396,3,58,95,-17,-85,-8,37,-103,-5
1491089249396,3,-91,-15,52,11,-16,-23,65,-12
1491089249397,0,29,-14,-31,-13,4,39,-19,0
1491089249397,0,-34,7,-25,-1,-16,-27,-69,-18
1491089249432,1,51,23,67,57,12,-7,125,43
1491089249432,1,5,-14,-28,-22,20,7,-44,2
1491089249433,2,87,49,49,-10,-16,21,-69,13
1491089249433,2,-56,-64,8,24,-11,6,49,-2
1491089249434,3,1,58,-16,13,3,3,35,7
1491089249434,3,-7,-21,-44,-31,-29,-19,-58,-19
1491089249469,0,-63,-30,20,5,18,-5,-50,-18
1491089249469,0,-34,3,-9,-36,-5,6,-19,-33
1491089249470,1,-42,-53,-15,11,-7,-20,-3,-26
1491089249470,1,93,71,-4,-9,6,15,93,32
1491089249471,2,-16,-2,-4,-14,-2,-8,-22,-8
1491089249471,2,37,23,15,2,14,42,82,12
1491089249472,3,-66,4,27,16,-12,-8,-106,-34
1491089249472,3,-32,-51,-62,-52,-32,20,71,1
1491089249507,0,8,-49,-27,-12,6,-19,127,34
1491089249507,0,-34,79,-12,-58,5,16,-2,-44
1491089249508,1,73,10,63,44,28,-30,-29,29
1491089249508,1,-21,13,22,36,-17,-8,-10,-18
1491089249509,2,-32,-28,-20,-15,-20,6,0,-5
1491089249509,2,-53,-33,-56,-10,2,34,-111,15
1491089249509,3,-13,-26,-12,-13,-10,-10,127,27
1491089249509,3,-94,-74,-6,21,-18,-86,-128,-92
1491089249544,0,55,51,67,15,9,38,108,28
1491089249544,0,43,65,19,34,-2,-15,127,-11
1491089249545,1,96,36,-29,-36,-1,37,-85,6
1491089249545,1,-45,-44,-4,-16,1,44,79,18
1491089249546,2,-66,-56,-40,-10,-7,-37,-24,-43
1491089249546,2,59,8,4,18,-10,2,59,50
1491089249582,3,-72,-66,-10,13,-19,-67,8,-56
1491089249582,3,48,21,-52,-52,6,8,92,40
1491089249583,0,38,33,38,-5,-1,-1,-58,-17
1491089249583,0,75,52,21,15,9,-9,82,44
1491089249584,1,-14,-71,-12,21,-27,8,-46,-32
1491089249584,1,41,-52,-38,-39,3,-3,84,-6
1491089249585,2,71,81,-21,-1,14,9,37,42
1491089249585,2,-128,-107,67,-29,0,18,29,-66
1491089249619,3,94,45,68,75,17,11,36,38
1491089249619,3,-128,-105,-6,14,-16,5,-80,-38
1491089249621,0,127,18,-128,-40,0,14,-28,47
1491089249621,0,31,19,93,8,2,-56,-28,-5
1491089249621,1,14,31,-60,-58,9,24,112,11
1491089249621,1,-8,33,27,7,-14,36,-47,-5
1491089249622,2,-10,-46,-90,0,-7,-39,97,8
1491089249622,2,-3,80,82,12,17,-36,-94,-7
1491089249657,3,-39,-42,34,9,29,95,98,20
1491089249657,3,21,-33,-77,-41,-22,-53,-43,39
1491089249658,0,-23,29,127,46,-25,-28,8,-38
1491089249658,0,-85,-64,-128,-16,-4,84,-52,-9
1491089249659,1,82,116,75,-21,30,-91,20,28
1491089249659,1,-8,59,108,76,14,68,47,-23
1491089249660,2,-23,-99,-14,25,-4,-23,-17,26
1491089249660,2,-99,-100,-78,-20,-54,-20,6,-58
1491089249695,3,87,85,-22,27,1,-14,108,73
1491089249695,3,-18,101,98,-71,34,69,-36,-29
1491089249696,0,-71,-74,102,70,25,87,-85,-34
1491089249696,0,-14,29,-93,-18,-28,-57,78,4
1491089249697,1,2,-15,13,-95,-27,-32,24,-3
1491089249697,1,-15,-20,-119,5,21,-52,61,0
1491089249732,2,106,127,101,23,38,-13,74,41
1491089249732,2,25,-124,-11,73,7,36,-38,-9
1491089249733,3,-18,-115,-112,12,-57,-19,-72,-30
1491089249733,3,117,76,-49,-68,-26,-27,-60,41
1491089249735,0,-29,76,54,-80,10,34,-6,-54
1491089249735,0,21,33,14,81,32,-46,80,31
1491089249735,1,39,-86,-47,25,-55,-90,61,3
1491089249735,1,-128,-70,-24,-55,32,-53,-89,-52
1491089249770,2,-128,-128,-5,-6,-41,-8,-66,-55
1491089249770,2,127,127,-10,-19,0,107,-128,18
1491089249770,3,-128,-127,107,10,6,55,-18,-22
1491089249770,3,127,79,66,100,48,-80,25,40
1491089249771,0,-72,11,85,-2,-30,81,1,-19
1491089249771,0,-128,-126,-35,-107,-87,64,32,-44
1491089249772,1,-116,-22,-84,-58,8,-76,-48,-90
1491089249772,1,75,73,74,95,78,127,-75,29
1491089249807,2,-66,-90,-65,90,23,-21,127,42
1491089249807,2,95,-104,-26,-45,-45,-103,-128,-14
1491089249809,3,-94,101,37,-122,-42,127,27,-68
1491089249809,3,-57,-127,124,68,21,49,2,30
1491089249809,0,-20,107,-96,-47,30,35,45,-41
1491089249809,0,70,-53,-84,-75,-44,2,19,96
1491089249810,1,5,79,62,70,43,-99,-41,1
1491089249810,1,22,23,11,60,-30,58,92,-4
1491089249845,2,-58,-117,-97,25,-34,-98,-50,51
1491089249845,2,-43,127,95,-78,25,102,35,-78
1491089249846,3,76,-42,74,85,52,39,32,35
1491089249846,3,-80,-86,-79,-20,-40,-52,-51,-54
1491089249846,0,104,79,79,-107,2,-98,83,34
1491089249846,0,52,90,20,71,50,-24,105,-12
1491089249882,1,4,-25,54,86,-21,1,-100,23
1491089249882,1,-115,-128,-95,2,-40,-44,127,-79
1491089249883,2,65,-54,-58,-87,-4,-23,-54,9
1491089249883,2,-64,119,6,-45,13,46,85,-7
1491089249884,3,-49,-44,62,-36,-1,-34,-83,-48
1491089249884,3,125,86,46,75,-33,35,-51,106
1491089249885,0,-44,-101,-47,-12,-8,17,2,-43
1491089249885,0,127,127,-3,26,83,96,-22,105
1491089249920,1,9,65,-25,-49,-8,85,-33,-18
1491089249920,1,-85,-75,88,19,20,-64,-21,-12
1491089249920,2,-47,-26,-37,-60,6,-85,46,-22
1491089249920,2,19,1,127,127,28,-77,-106,-38
1491089249921,3,115,-128,-76,57,25,57,122,127
1491089249921,3,-66,-36,-65,-124,-18,34,-4,-95
1491089249922,0,-72,-56,124,95,37,49,-33,-28
1491089249922,0,-39,-97,-128,-100,-82,-93,120,-11
1491089249957,1,-124,-15,-117,-71,28,-93,-89,-38
1491089249957,1,124,127,104,87,0,110,26,78
1491089249958,2,82,-128,-128,15,-61,-46,25,27
1491089249958,2,-128,-125,31,-42,-14,-128,46,-21
1491089249958,3,127,126,77,78,38,111,35,14
1491089249958,3,-122,-128,-128,-127,15,-57,71,-63
1491089249960,0,92,73,114,44,-69,-1,-89,7
1491089249960,0,23,47,88,5,28,-99,-120,-19
1491089249994,1,-128,-113,-128,-40,-26,-23,83,-40
1491089249994,1,103,105,66,-25,-23,56,29,53
1491089249995,2,-4,-52,78,32,9,33,93,-12
1491089249995,2,28,23,38,57,43,4,43,64
1491089249996,3,27,91,54,-29,-23,92,41,10
1491089249996,3,-13,-78,-128,-47,-7,-112,-87,-53
1491089250032,0,-46,97,21,-71,-56,34,110,38
1491089250032,0,45,-13,118,93,23,-19,-68,14
1491089250033,1,-30,-7,-76,-54,61,71,-19,-37
1491089250033,1,127,-21,127,37,-37,-60,127,90
1491089250033,2,-84,-16,-128,-48,-37,101,29,-82
1491089250033,2,-2,-59,85,-2,31,-2,-26,44
1491089250034,3,80,69,102,71,-33,43,62,-17
1491089250034,3,86,6,21,24,28,-69,-40,8
1491089250070,0,-57,-17,-92,-62,25,65,-45,-28
1491089250070,0,-125,-100,-44,-62,-73,-40,-32,-37
1491089250071,1,48,54,97,67,78,-121,92,27
1491089250071,1,-67,62,102,-45,25,127,-93,-16
1491089250073,2,-22,-20,-49,80,-83,-58,-76,3
1491089250073,2,-91,-105,26,-97,23,-34,127,-45
1491089250073,3,54,28,23,12,-17,47,-106,-40
1491089250073,3,-84,-75,40,49,1,-44,127,59
1491089250107,0,127,127,44,-24,41,44,-128,5
1491089250107,0,-64,-92,-128,22,-2,-19,-64,-50
1491089250144,1,-74,-116,126,-61,17,-128,43,-3
1491089250144,1,31,67,-76,81,15,-26,-89,2
1491089250145,2,-1,40,85,-83,-14,-28,87,-12
1491089250145,2,-69,-89,-93,-44,0,-63,-38,-32
1491089250146,3,43,127,22,49,-55,123,-10,-15
1491089250146,3,-86,-128,-76,-10,17,68,-101,-1
1491089250147,0,-76,-6,110,59,11,-28,98,-17
1491089250147,0,40,127,119,1,-9,127,-50,39
1491089250182,1,-44,-128,-128,-38,8,34,79,36
1491089250182,1,-120,41,127,-128,17,71,-11,-58
1491089250183,2,17,-81,67,127,3,-77,-5,44
1491089250183,2,94,103,-89,-64,-19,121,127,16
1491089250184,3,-128,-128,70,44,-11,-128,-128,-21
1491089250184,3,-33,29,61,-22,-53,16,17,4
1491089250184,0,-66,-22,-128,-52,8,48,33,-23
1491089250184,0,87,-26,127,15,1,40,-28,11
1491089250220,1,44,-47,-112,-75,-28,-94,-12,18
1491089250220,1,10,100,20,16,17,50,5,-17
1491089250221,2,73,31,127,63,68,-35,-59,45
1491089250221,2,-96,-105,-79,-26,-4,36,35,-55
1491089250222,3,24,114,79,-110,-60,61,-26,88
1491089250222,3,-20,-127,83,61,32,-110,92,-61
1491089250223,0,-12,77,-91,30,-30,2,-128,6
1491089250223,0,37,-54,127,35,16,-39,49,-22
1491089250257,1,-41,-128,-106,-44,20,-78,-22,-50
1491089250257,1,66,61,-128,-73,-37,-41,38,50
1491089250258,2,-16,88,86,-49,37,79,-27,21
1491089250258,2,-103,-90,-32,83,3,91,-55,-28
1491089250259,3,47,124,8,-12,-17,87,-31,-5
1491089250259,3,11,-113,-43,-83,-27,-78,-30,-8
1491089250259,0,-3,-81,-83,23,-6,24,23,-60
1491089250259,0,7,-61,-24,71,-24,47,68,55
1491089250294,1,-25,31,127,-29,17,-8,-43,-13
1491089250294,1,-8,-50,-96,17,28,28,-1,-11
1491089250295,2,-20,5,27,-19,-50,23,33,7
1491089250295,2,17,49,-75,11,16,-124,-19,-9
1491089250296,3,-20,-113,22,17,-34,117,-13,-6
1491089250296,3,93,68,-52,5,-46,57,31,-27
1491089250297,0,-97,-128,-53,-58,27,28,-90,1
1491089250297,0,-75,-68,-21,-65,-7,-9,13,-96
1491089250332,1,101,127,101,45,8,-67,60,111
1491089250332,1,-72,-118,5,-42,18,-22,31,-2
1491089250333,2,-27,-102,-52,-21,-10,-57,1,-46
1491089250333,2,40,127,76,56,-7,-37,29,98
1491089250334,3,30,-17,-14,77,-15,-37,-25,-33
1491089250334,3,-20,-29,-28,21,28,-22,-18,28
1491089250334,0,27,-61,-74,-49,-38,-51,-25,-30
1491089250334,0,-28,-128,-110,-128,12,-30,-18,9
1491089250370,1,60,94,42,-89,17,-7,72,38
1491089250370,1,-69,-39,7,127,16,-21,-45,-9
1491089250371,2,8,26,31,23,65,-39,36,17
1491089250371,2,76,114,77,-70,-14,10,-2,-28
1491089250372,3,-94,-128,-108,-33,-8,-4,27,22
1491089250372,3,-100,-68,-79,-128,-27,-18,-12,-80
1491089250374,0,99,84,59,58,91,-13,29,64
1491089250374,0,89,14,71,82,-49,12,8,70
1491089250407,1,-109,-70,-122,-53,51,-3,48,-79
1491089250407,1,25,20,104,74,-29,-17,-21,-2
1491089250408,2,-15,-42,27,-22,-24,5,28,20
1491089250408,2,-53,-41,89,70,67,5,12,-66
1491089250409,3,98,24,-26,1,-6,-11,-2,44
1491089250409,3,-128,-128,-128,-128,-87,2,-40,-51
1491089250410,0,18,127,127,4,34,-6,-36,10
1491089250410,0,10,101,94,109,43,-5,13,-3
1491089250445,1,-128,-128,-128,-92,-24,-6,13,-40
1491089250445,1,112,118,16,-50,4,-2,-14,64
1491089250446,2,-14,22,60,97,-25,-3,42,-55
1491089250446,2,-40,80,-127,-35,-4,-2,-49,36
1491089250446,3,57,21,127,25,-4,2,40,-12
1491089250446,3,-17,-40,-69,127,-6,-3,-1,10
1491089250447,0,-31,6,-21,-128,-28,-4,19,-37
1491089250447,0,-17,-43,-38,-3,-15,9,-81,-2
1491089250482,1,27,-6,-66,-27,47,-2,12,14
1491089250482,1,-16,-71,-34,81,-10,3,8,-21
1491089250484,2,60,-128,-128,-110,9,-7,4,21
1491089250484,2,85,49,127,25,-4,-4,10,12
1491089250485,3,-11,-80,-31,22,-6,-9,-17,-21
1491089250485,3,-5,-13,-22,-19,-19,-5,-27,-13
1491089250486,0,28,29,70,70,15,-4,45,32
1491089250486,0,13,-112,43,-32,12,-1,3,13
1491089250519,1,-92,-81,-46,5,-26,-4,-40,-50
1491089250519,1,54,104,127,15,109,-11,67,35
1491089250521,2,117,89,-80,45,-51,-4,-6,85
1491089250521,2,-66,-110,-116,-128,33,-2,-13,-49
1491089250521,3,-81,-56,101,127,-48,-6,-6,-2
1491089250521,3,1,58,127,-21,-31,1,-20,-12
1491089250522,0,-25,-38,-27,72,14,-2,0,1
1491089250522,0,-30,-75,-68,-91,-74,6,-10,22
1491089250557,1,-39,-75,-128,-28,40,0,-18,-40
1491089250557,1,33,127,97,43,33,-2,11,-6
1491089250558,2,83,44,58,39,43,-6,71,32
1491089250558,2,-96,-128,-128,-57,17,4,-22,-24
1491089250559,3,-39,-48,-91,107,-98,-1,-31,-9
1491089250559,3,-30,72,96,-7,15,-1,13,14
1491089250594,0,16,-27,-109,-48,-7,2,-25,-35
1491089250594,0,28,23,27,-20,-15,-6,-3,4
1491089250596,1,46,127,127,-33,3,-5,31,27
1491089250596,1,100,41,-91,72,31,-4,-11,32
1491089250596,2,-88,-124,-41,-87,-42,-3,-6,-37
1491089250596,2,-53,-98,105,127,-76,-7,14,-10
1491089250597,3,-61,-78,-102,-128,-23,4,-34,-14
1491089250597,3,-2,-96,110,-44,9,-5,-11,-12
1491089250632,0,42,76,105,74,33,-3,4,39
1491089250632,0,51,-11,-74,-40,28,0,5,16
1491089250633,1,-12,-31,79,-27,-12,4,0,-1
1491089250633,1,-93,-128,-128,-66,-64,2,-8,-6
1491089250634,2,-110,-34,-111,-72,32,0,-25,-18
1491089250634,2,66,127,121,105,57,4,17,-6
1491089250635,3,127,127,127,116,55,-1,24,27
1491089250635,3,7,2,-108,-8,-37,3,8,20
1491089250670,0,-121,-128,-74,-102,-31,0,-60,-46
1491089250670,0,-16,72,-20,54,-93,-13,13,10
1491089250670,1,-26,84,97,63,21,2,-30,5
1491089250670,1,-35,-72,32,-112,-24,0,17,-26
1491089250671,2,54,121,127,127,70,-4,32,25
1491089250671,2,-46,-73,-128,-121,79,1,-75,-20
1491089250672,3,0,-76,-109,17,-68,-4,-11,7
1491089250672,3,-4,-7,58,-18,-14,-6,26,-1
1491089250707,0,-59,-124,-128,-91,-60,3,-29,-24
1491089250707,0,37,74,86,2,20,1,34,16
1491089250708,1,-96,-102,-50,-75,24,-1,-10,-31
1491089250708,1,115,113,61,97,47,-8,34,34
1491089250709,2,58,-19,32,28,59,-5,0,44
1491089250709,2,-12,-63,-64,-13,-28,-8,0,-11
1491089250745,3,-27,-73,5,4,3,-1,-34,-3
1491089250745,3,-96,-128,-128,-128,-90,-2,-19,-27
1491089250746,0,5,57,127,2,-3,-5,-4,-23
1491089250746,0,63,85,94,107,59,-3,34,21
1491089250747,1,-3,-79,-100,-59,121,-4,-17,20
1491089250747,1,56,84,88,78,-5,-1,52,22
1491089250748,2,1,24,-36,63,-63,-1,-46,-8
1491089250748,2,-86,-115,-113,-128,-65,6,-6,-17
1491089250782,3,-11,32,127,15,-78,3,-50,-25
1491089250782,3,-69,-128,-128,-124,29,3,-18,-26
1491089250783,0,41,64,73,28,-1,-3,24,15
1491089250783,0,47,93,126,127,93,-1,30,19
1491089250783,1,44,54,-98,-57,45,-6,16,13
1491089250783,1,22,5,-57,63,-14,-3,-33,9
1491089250784,2,-58,-128,-68,-128,-59,-3,-11,-33
1491089250784,2,-117,-126,-112,-128,-85,2,-1,-32
1491089250819,3,87,120,127,101,14,-1,45,35
1491089250819,3,101,127,121,102,119,-1,16,17
1491089250820,0,-4,-90,-104,-100,-2,1,42,-1
1491089250820,0,-37,-77,-83,-49,-35,2,-85,-9
1491089250821,1,9,-54,-40,-97,-20,1,7,-2
1491089250821,1,-47,2,-22,-41,-116,-2,59,8
1491089250822,2,-39,-49,-91,-71,22,5,-39,-20
1491089250822,2,6,6,35,-79,-3,-6,34,-1
1491089250857,3,93,98,58,70,84,-4,22,10
1491089250857,3,36,83,89,-3,78,-3,-14,8
1491089250858,0,-38,-70,-57,-71,-12,-4,8,-14
1491089250858,0,-41,-67,-115,-66,-111,-8,-23,-13
1491089250859,1,-65,-88,-121,-43,-78,-1,7,-21
1491089250859,1,-51,-128,-120,-52,-42,-1,-37,-17
1491089250894,2,30,11,-81,-104,62,-4,9,0
1491089250894,2,116,112,92,115,15,2,-9,30
1491089250895,3,49,93,65,60,109,1,22,24
1491089250895,3,-52,-107,-103,-103,-74,1,-43,-21
1491089250896,0,-85,-117,-123,-110,-94,5,-21,-19
1491089250896,0,-31,-50,24,-55,-25,-4,30,-6
1491089250897,1,21,16,56,76,47,-4,-46,-17
1491089250897,1,53,100,103,14,52,-1,39,18
1491089250932,2,-21,-56,-24,24,0,-5,-57,-4
1491089250932,2,37,95,126,118,-45,-1,51,22
1491089250939,3,-11,35,-20,-20,-9,0,-14,-9
1491089250939,3,-46,-116,-113,29,0,0,-30,-19
1491089250940,0,23,43,91,36,17,-2,-3,8
1491089250940,0,-14,-41,-113,3,24,-2,-8,-2
1491089250941,1,25,0,42,-109,-23,-6,31,6
1491089250941,1,-10,55,51,62,-52,-1,-29,-2
1491089250969,2,-19,-20,-20,27,13,-2,46,-3
1491089250969,2,-3,-47,67,46,52,-5,-28,-9
1491089250972,3,-25,-27,-50,-89,-47,1,14,-1
1491089250972,3,-12,-74,-66,-12,46,2,-28,-10
1491089250973,0,31,105,127,67,-18,2,-22,12
1491089250973,0,-1,11,-128,-83,23,-3,-41,-6
1491089250973,1,16,10,93,40,-11,-3,40,16
1491089250973,1,50,113,106,77,91,-8,26,15
1491089251007,2,10,1,-77,-46,36,-3,109,6
1491089251007,2,-10,-50,-74,-52,51,-1,-27,-13
1491089251008,3,-45,-83,-102,43,-93,2,-9,-12
1491089251008,3,-51,-99,-120,-128,-60,2,-13,-23
1491089251009,0,46,63,104,58,-7,-1,43,20
1491089251009,0,-8,32,13,27,14,-2,-24,-9
1491089251045,1,-15,-28,-46,-41,18,-1,3,-5
1491089251045,1,14,25,47,36,-9,-3,-4,5
1491089251046,2,11,25,15,54,1,1,-37,2
1491089251046,2,11,26,94,30,56,2,13,3
1491089251047,3,-37,-44,-88,-56,-31,4,51,-8
1491089251047,3,39,35,50,46,11,-2,-69,-3
1491089251082,0,-30,9,4,13,-67,-1,20,0
1491089251082,0,-3,-40,-53,-27,4,1,2,-2
1491089251083,1,25,3,47,13,-10,-1,8,10
1491089251083,1,-34,-25,-49,-17,-15,-1,38,-3
1491089251083,2,36,33,98,98,19,2,-32,2
1491089251083,2,-4,36,61,42,5,-3,1,2
1491089251084,3,-10,-19,-69,-22,-18,-2,-40,-6
1491089251084,3,2,-33,-58,-64,-15,-2,-3,-3
1491089251119,0,-17,-34,-68,-21,-4,-6,2,-7
1491089251119,0,8,12,-12,7,25,-3,63,2
1491089251121,1,-4,24,40,38,2,-2,-79,-9
1491089251121,1,7,-14,-7,-27,-1,3,25,8
1491089251121,2,-4,6,22,12,3,-2,-27,-4
1491089251121,2,-9,-3,-3,-13,0,-2,21,-1
1491089251122,3,-20,-34,-43,-24,10,-8,5,-6
1491089251122,3,-4,-2,-40,-6,-8,-5,-3,3
1491089251157,0,34,32,44,17,23,-1,-7,8
1491089251157,0,5,5,14,-17,-10,0,72,-3
1491089251158,1,-4,0,-12,-31,12,1,-31,-3
1491089251158,1,-8,-1,5,-6,29,-7,-19,-5
1491089251194,2,-20,-25,-22,7,-87,-3,-37,-11
1491089251194,2,-26,-18,-33,18,-6,-3,-42,7
1491089251195,3,8,15,17,-20,-7,-5,33,2
1491089251195,3,9,-11,10,-19,31,1,-23,-5
1491089251196,0,20,13,7,-8,36,1,-44,3
1491089251196,0,-11,27,18,-6,-39,-6,-58,4
1491089251197,1,-9,-22,-30,-7,-3,-2,33,-1
1491089251197,1,-16,-27,-53,-17,-16,5,9,7
1491089251232,2,-29,-27,-83,-45,-19,-5,25,-24
1491089251232,2,25,-15,82,58,8,4,-29,-11
1491089251233,3,0,25,-7,15,25,6,92,7
1491089251233,3,28,33,9,-38,-14,-5,113,1
1491089251234,0,14,37,123,1,53,2,25,11
1491089251234,0,-43,-6,-48,21,-27,-1,-15,-18
1491089251234,1,-15,-54,9,39,29,4,-90,-8
1491089251234,1,-5,12,51,8,7,-4,-74,1
1491089251269,2,-1,-47,-98,-64,-46,2,-67,1
1491089251269,2,-43,-67,-95,-65,-21,-10,-6,-19
1491089251271,3,6,6,-2,-17,0,-6,23,7
1491089251271,3,43,80,76,39,6,-30,67,5
1491089251272,0,26,68,48,52,40,-109,52,18
1491089251272,0,48,42,-24,12,-8,-127,29,12
1491089251273,1,-58,-91,-26,-6,-14,-58,-8,-18
1491089251273,1,-8,6,-34,8,15,33,-97,15
1491089251307,2,26,37,32,-18,11,80,-37,17
1491089251307,2,10,-29,-17,4,-21,127,19,-7
1491089251308,3,3,9,-8,-39,9,125,7,-9
1491089251308,3,1,-26,-65,7,-15,96,33,1
1491089251309,0,-18,10,74,47,31,-45,30,-4
1491089251309,0,10,48,13,5,8,-24,-58,2
1491089251309,1,18,17,37,42,-18,15,70,7
1491089251309,1,-51,-76,-43,-11,-7,50,31,-22
1491089251345,2,10,-40,-128,-69,-8,127,55,3
1491089251345,2,-33,-102,105,-71,-33,127,-80,-20
1491089251346,3,11,91,69,54,21,121,-128,-11
1491089251346,3,-31,99,-16,65,20,114,-9,15
1491089251347,0,40,7,88,41,34,56,79,21
1491089251347,0,5,30,-3,-31,4,38,46,10
1491089251348,1,9,-98,-128,-69,-41,-57,-58,-8
1491089251348,1,-24,-43,40,-64,-32,-89,-13,-10
1491089251382,2,-57,-9,-128,-47,-15,-58,-50,-29
1491089251382,2,18,67,84,61,57,-99,-47,22
1491089251383,3,30,82,78,91,4,-88,90,9
1491089251383,3,-46,-59,-92,-34,-29,-83,22,-28
1491089251385,0,-107,-128,-56,-65,-42,-2,-23,-28
1491089251385,0,78,85,39,11,11,-20,32,4
1491089251385,1,61,122,88,73,19,-30,-14,22
1491089251385,1,55,-74,35,70,19,-49,-28,15
1491089251420,2,-3,-52,-30,-6,-21,6,11,-19
1491089251420,2,-1,-11,-87,-77,-44,-15,16,-29
1491089251428,3,-55,-97,-128,-84,2,0,-50,10
1491089251428,3,38,123,127,63,25,2,83,-3
1491089251430,0,-49,-13,74,56,-1,9,-36,-2
1491089251430,0,79,81,-82,16,12,-24,32,45
1491089251431,1,-12,-29,-35,-41,-16,-27,91,-16
1491089251431,1,-106,-102,-127,-95,-14,10,37,-34
1491089251458,2,105,14,75,28,10,8,41,-8
1491089251458,2,-13,65,53,95,26,-11,53,23
1491089251460,3,4,-69,-3,4,9,-3,-5,11
1491089251460,3,12,-24,-16,52,-3,-12,37,-5
1491089251461,0,-36,-20,-55,5,-13,-19,-95,20
1491089251461,0,68,43,33,-17,-2,-2,8,10
1491089251462,1,-9,-34,-29,-92,-49,3,53,-8
1491089251462,1,-79,-92,-8,-59,5,13,-118,-13
1491089251495,2,-15,60,28,16,-29,-38,32,32
1491089251495,2,-38,-128,-77,-10,-13,40,117,-40
1491089251496,3,93,120,114,67,30,-14,40,47
1491089251496,3,-15,9,42,82,43,42,-42,-15
1491089251497,0,-33,-42,-81,-11,11,58,-20,-20
1491089251497,0,-128,-128,-38,-61,-43,28,-127,-27
1491089251498,1,63,51,-55,-31,-14,90,108,52
1491089251498,1,-4,-43,53,-9,12,-15,-28,-6
1491089251532,2,1,30,-39,19,22,-57,-29,-17
1491089251532,2,34,-96,-83,-32,-18,54,-45,22
1491089251534,3,-85,-128,-124,-86,-32,68,-5,-64
1491089251534,3,94,126,107,26,-1,-61,64,29
1491089251534,0,-16,28,107,38,-2,-109,69,18
1491089251534,0,9,32,-119,-20,6,-117,-53,-14
1491089251535,1,56,96,127,98,36,-119,-3,4
1491089251535,1,30,41,27,30,-3,-79,-36,51
1491089251570,2,31,-94,-41,-76,17,-39,39,-18
1491089251570,2,-4,27,-33,40,-27,83,53,3
1491089251571,3,-70,-127,31,-12,8,-19,-50,-3
1491089251571,3,-47,35,-125,-62,-50,-25,-82,-34
1491089251572,0,-9,-94,-83,-61,-8,-37,-5,-48
1491089251572,0,76,11,48,-47,4,-65,61,31
1491089251607,1,-128,-2,50,88,29,-42,-114,-23
1491089251607,1,57,29,-24,66,35,38,94,14
1491089251608,2,111,127,127,56,-9,58,-33,20
1491089251608,2,-88,-33,28,-23,-6,51,-12,22
1491089251608,3,12,-74,-104,-33,-13,7,-84,-25
1491089251608,3,-8,-128,-68,-72,-75,-83,-93,-36
1491089251609,0,1,58,-90,-36,-11,3,88,17
1491089251609,0,-5,43,96,9,28,-44,-53,-12
1491089251644,1,-97,-66,-5,-29,13,-32,76,-14
1491089251644,1,127,122,-67,6,25,74,36,80
1491089251645,2,9,53,64,71,17,-33,-33,13
1491089251645,2,-86,-63,118,92,25,14,35,-27
1491089251646,3,41,35,-54,-22,-28,-82,-99,-24
1491089251646,3,66,52,-115,-60,-18,38,94,-20
1491089251647,0,-99,-84,61,-34,-17,127,-42,-15
1491089251647,0,14,-38,-37,-1,49,33,28,15
1491089251682,1,49,72,74,66,-6,-17,31,8
1491089251682,1,-31,-64,-65,-3,-24,-2,-43,-16
1491089251683,2,90,127,34,-11,-13,-91,-20,28
1491089251683,2,-80,-121,-128,-72,-29,27,51,-33
1491089251683,3,-96,-25,9,-1,-9,19,-64,-16
1491089251683,3,98,18,112,-44,0,28,70,-6
1491089251684,0,-65,-119,-30,76,29,88,-79,16
1491089251684,0,-9,-25,-46,-23,-10,-54,88,-47
1491089251719,1,60,89,76,-19,11,55,-27,4
1491089251719,1,-87,-95,-25,5,-8,-60,67,28
1491089251720,2,-4,-56,-10,-14,-10,-64,-42,-26
1491089251720,2,72,78,50,27,-7,-39,-110,-8
1491089251721,3,16,47,-27,19,-4,-33,76,29
1491089251721,3,-78,-95,14,26,1,-63,-52,-30
1491089251757,0,-15,-35,-72,-41,30,-83,57,-22
1491089251757,0,81,27,51,-30,-5,-29,-35,14
1491089251758,1,13,-37,41,69,-9,-20,54,-9
1491089251758,1,77,-9,-37,-33,-25,98,-4,-35
1491089251758,2,-57,37,35,-15,9,90,25,-12
1491089251758,2,82,54,38,14,-3,116,75,33
1491089251759,3,9,-78,-49,8,-13,87,-81,-4
1491089251759,3,-74,15,-63,-12,26,3,-13,-19
1491089251794,0,81,77,86,15,-40,-56,-70,19
1491089251794,0,-128,-81,-64,16,-4,-51,-4,-20
1491089251795,1,-105,-105,-77,-77,-6,-50,-15,6
1491089251795,1,80,98,127,-9,10,-46,-83,9
1491089251796,2,127,-3,13,66,16,-63,99,61
1491089251796,2,-111,26,-13,10,15,-11,-70,-54
1491089251797,3,-36,-123,-128,-51,-40,-4,80,-9
1491089251797,3,51,52,17,-19,-25,-63,-85,12
1491089251832,0,-66,-29,23,2,8,58,73,-48
1491089251832,0,82,-128,-59,25,15,33,-73,38
1491089251833,1,10,-18,-32,-17,-28,-5,90,-24
1491089251833,1,7,63,103,-4,13,21,37,47
1491089251834,2,72,15,-45,-18,4,2,3,33
1491089251834,2,-16,37,71,-1,-20,-21,-38,-23
1491089251834,3,15,22,-17,40,-6,-17,-116,-12
1491089251834,3,-33,-54,-27,2,10,23,67,-1
1491089251869,0,-53,-73,-39,-28,-25,-15,-23,-10
1491089251869,0,-56,103,-122,-23,-4,-34,-15,13
1491089251870,1,120,87,91,-16,4,29,37,27
1491089251870,1,-61,-64,88,64,11,56,-89,-53
1491089251871,2,25,3,-10,12,12,58,56,16
1491089251871,2,-84,-78,-48,-32,-20,-10,80,-42
1491089251907,3,83,111,-36,-66,19,-4,-58,48
1491089251907,3,-2,11,-25,13,-7,-69,-37,4
1491089251908,0,-35,-52,34,-6,16,35,79,-19
1491089251908,0,73,24,103,44,-1,-17,-32,9
1491089251909,1,19,10,-8,19,13,2,36,-5
1491089251909,1,18,5,-25,25,-3,-1,44,27
1491089251909,2,-14,-92,-59,-14,2,-58,-13,-10
1491089251909,2,87,20,-3,-31,-3,2,12,31
1491089251944,3,-103,-16,67,33,16,39,-43,-50
1491089251944,3,-44,-28,-14,-6,-3,-13,-33,-9
1491089251945,0,-18,-5,-11,2,-21,-30,-107,-23
1491089251945,0,-48,-95,-70,-26,12,23,26,-5
1491089251946,1,110,112,28,-7,16,5,104,30
1491089251946,1,-38,57,45,-2,21,19,-64,4
1491089251947,2,-63,1,11,13,-13,-4,31,-44
1491089251947,2,29,6,28,7,-10,-5,18,26
1491089251982,3,-95,-23,-77,-36,-30,-6,-64,-28
1491089251982,3,1,-91,20,26,4,30,107,11
1491089251984,0,62,80,-20,28,2,50,8,19
1491089251984,0,-7,9,46,-4,0,-45,-56,29
1491089251985,1,-72,-78,-39,-49,-6,26,25,-20
1491089251985,1,20,-7,-30,-43,-4,12,-36,-12
1491089251985,2,15,-17,24,5,-14,-3,-96,25
1491089251985,2,16,30,-73,-40,-29,-41,127,-22
1491089252019,3,62,16,75,34,11,-16,-69,12
1491089252019,3,-54,-36,-8,22,17,14,12,-14
1491089252020,0,-10,2,-36,-36,-9,18,-50,-15
1491089252020,0,-110,-98,-23,-3,10,6,29,-53
1491089252021,1,101,-41,6,11,2,-11,-36,19
1491089252021,1,5,93,-4,6,2,7,82,-3
1491089252057,2,-5,-7,46,11,10,-58,34,-5
1491089252057,2,104,67,53,41,0,25,-71,17
1491089252058,3,-42,-61,-36,15,7,-36,29,10
1491089252058,3,-20,-87,-39,-1,-29,5,57,3
1491089252059,0,-5,17,-112,-45,7,7,-14,-10
1491089252059,0,43,-37,118,46,25,-24,-22,9
1491089252059,1,7,90,94,47,26,68,107,43
1491089252059,1,-72,-43,-20,20,-18,-7,-49,-27
1491089252094,2,-29,-38,-20,-4,11,-13,-18,-12
1491089252094,2,13,103,-32,-15,-11,44,-37,-1
1491089252095,3,-27,-78,-15,-16,-16,-37,98,13
1491089252095,3,39,-8,-12,10,-23,14,-85,-36
1491089252096,0,-1,-4,-89,-33,2,45,62,32
1491089252096,0,-15,39,57,-29,33,-29,-6,-10
1491089252097,1,98,51,-25,46,1,-25,32,10
1491089252097,1,16,-57,0,-37,6,-30,-34,19
1491089252132,2,-9,-19,70,-9,-13,87,-107,-14
1491089252132,2,-32,-26,20,-29,15,19,45,3
1491089252133,3,111,127,10,30,3,14,-35,25
1491089252133,3,10,-78,6,-78,-18,-38,55,1
1491089252133,0,0,-62,-112,43,7,-17,-16,10
1491089252133,0,-67,-99,-42,-30,15,6,102,-12
1491089252134,1,48,32,68,-31,28,26,-112,-10
1491089252134,1,-24,-3,36,89,7,38,-48,-22
1491089252169,2,111,-16,3,-8,-31,-15,50,32
1491089252169,2,-62,-105,-126,-60,-12,75,-89,-75
1491089252170,3,27,8,23,-9,-21,-110,61,3
1491089252170,3,-8,-27,111,60,47,-30,4,0
1491089252171,0,57,127,127,107,40,104,51,21
1491089252171,0,20,-15,38,127,-4,-34,-68,56
1491089252207,1,-128,-128,-121,-128,-59,107,-87,-98
1491089252207,1,93,-12,16,-92,-23,-88,94,13
1491089252208,2,-59,32,77,71,-9,-61,-68,-69
1491089252208,2,72,-3,-29,8,13,-43,-77,57
1491089252209,3,8,73,85,13,17,93,-34,8
1491089252209,3,25,82,71,43,27,13,70,36
1491089252209,0,-18,-117,-128,-124,-87,-84,-96,-59
1491089252209,0,-70,127,127,-76,-7,-32,127,-34
1491089252244,1,111,28,87,127,22,-12,-85,33
1491089252244,1,-78,-79,-128,-44,-35,16,-53,-9
1491089252245,2,-90,99,-38,-80,-28,-13,-36,-51
1491089252245,2,127,102,49,32,-6,-29,72,86
1491089252246,3,-128,-128,13,45,26,-11,-2,-58
1491089252246,3,-28,-23,-45,-47,-4,127,124,21
1491089252247,0,90,34,71,-75,36,8,44,91
1491089252247,0,-84,-128,-59,60,-56,31,-128,-89
1491089252282,1,79,6,-55,-64,-33,-92,127,15
1491089252282,1,112,109,125,58,31,79,-121,25
1491089252283,2,-128,-128,-87,45,-12,94,-4,-59
1491089252283,2,-68,-35,-56,-102,-19,-56,-31,-65
1491089252284,3,15,29,105,26,-31,-84,22,-2
1491089252284,3,45,82,23,70,89,25,104,82
1491089252320,0,-49,-20,85,44,8,-16,-21,-55
1491089252320,0,70,-75,-57,6,-44,46,-15,46
1491089252321,1,-118,-71,-128,-127,-64,-75,32,-67
1491089252321,1,-48,119,68,-19,28,-2,-60,-54
1491089252321,2,66,125,45,127,86,39,127,75
1491089252321,2,-27,2,-22,19,-17,81,107,12
1491089252322,3,-43,-100,39,5,-57,-81,-33,8
1491089252322,3,-63,13,-128,-32,-62,-107,-33,-58
1491089252357,0,111,-15,127,-75,3,-50,35,29
1491089252357,0,-59,15,85,57,84,11,20,12
1491089252358,1,-45,40,-91,-25,85,125,-75,-25
1491089252358,1,-53,-128,50,12,-33,-30,-102,17
1491089252359,2,-69,-128,-128,-37,-49,-29,-21,-18
1491089252359,2,109,37,72,-119,-15,-96,69,7
1491089252360,3,88,103,127,127,79,127,-58,79
1491089252360,3,-113,-67,-103,-69,-39,-32,15,-100
1491089252394,0,64,45,90,-31,11,-86,54,16
1491089252394,0,127,-49,114,91,-19,69,24,84
1491089252396,1,-41,53,-54,-79,-7,78,-66,-41
1491089252396,1,95,-128,-121,-61,-18,-60,44,16
1491089252396,2,-54,-26,90,-20,-33,7,-79,1
1491089252396,2,65,106,115,110,42,-18,55,-3
1491089252397,3,-36,-20,-87,14,-28,-12,-81,-59
1491089252397,3,-33,-42,24,-53,-69,-62,-25,65
1491089252432,0,10,106,54,56,63,94,114,5
1491089252432,0,56,-128,-45,-17,40,-38,-24,67
1491089252433,1,-65,-15,127,39,-42,111,67,-71
1491089252433,1,-83,-75,-95,-2,19,-10,-24,-7
1491089252434,2,94,82,74,-3,12,-30,76,35
1491089252434,2,-95,-29,-40,105,5,-15,-128,-79
1491089252470,3,0,-111,-121,-92,-9,-90,39,29
1491089252470,3,-110,15,127,-25,1,-20,0,-84
1491089252471,0,-54,-33,-125,83,-42,-16,-111,6
1491089252471,0,-2,34,-119,-128,-46,99,-40,-44
1491089252473,1,77,-1,84,91,34,-118,48,33
1491089252473,1,127,127,-78,-18,0,64,-77,40
1491089252474,2,-104,-128,105,6,60,63,-24,0
1491089252474,2,-128,47,-2,35,-29,-20,-13,-59
1491089252507,3,108,6,-116,-22,-16,-58,46,39
1491089252507,3,-13,127,95,13,1,-54,-8,3
1491089252508,0,126,103,35,-69,14,32,46,34
1491089252508,0,-113,-80,-98,11,-47,-66,89,4
1491089252509,1,-110,24,73,17,61,69,-46,-40
1491089252509,1,115,114,111,53,-47,76,101,30
1491089252510,2,-128,-109,-128,-59,-9,-38,-127,-76
1491089252510,2,-36,62,71,-53,-31,11,56,101
1491089252544,3,-74,-25,71,90,46,0,47,-15
1491089252544,3,-98,-128,-121,-19,5,-18,-21,-104
1491089252546,0,98,127,15,-104,-50,-51,-19,86
1491089252546,0,-54,83,84,54,58,67,56,6
1491089252546,1,-80,-97,-128,36,-19,-79,-106,-21
1491089252546,1,12,29,-31,-70,-2,127,103,28
1491089252547,2,30,-31,70,127,27,49,127,11
1491089252547,2,-46,-68,-111,71,26,-101,-117,-67
1491089252582,3,127,24,-19,-87,-37,-39,127,56
1491089252582,3,31,6,90,101,34,80,-98,24
1491089252583,0,-120,-128,-84,47,-36,60,-22,-93
1491089252583,0,127,127,-50,-86,-48,-26,-45,-16
1491089252584,1,25,17,127,127,46,18,-80,41
1491089252584,1,-91,-71,-13,-20,2,-128,56,-88
1491089252619,2,-55,-59,15,-39,-14,36,-52,75
1491089252619,2,-33,-123,-28,-56,78,122,1,-81
1491089252620,3,74,60,34,-23,-37,-66,44,-46
1491089252620,3,117,-53,56,-15,-1,42,-96,57
1491089252621,0,-92,-29,-60,19,39,-5,88,-56
1491089252621,0,66,35,88,-4,-59,-35,19,5
1491089252622,1,-97,-101,-119,44,27,-28,40,-56
1491089252622,1,8,33,-7,-30,-20,53,-64,113
1491089252657,2,59,53,115,-3,3,-20,83,-38
1491089252657,2,-72,-124,-128,17,-35,46,-84,-12
1491089252658,3,14,109,35,-121,34,126,91,22
1491089252658,3,-128,-101,76,54,2,-84,-55,-101
1491089252659,0,-46,6,3,-36,-17,-23,-9,-63
1491089252659,0,42,89,-52,43,-5,-11,-11,37
1491089252660,1,-32,-23,7,-78,-50,-44,-1,-37
1491089252660,1,25,10,-14,76,45,34,127,49
1491089252694,2,127,50,-72,69,-6,43,-86,3
1491089252694,2,-59,-90,127,-70,24,-46,-4,-19
1491089252696,3,-128,23,-39,57,-83,-37,9,-37
1491089252696,3,-44,21,28,2,55,8,85,-14
1491089252696,0,50,-48,-59,-27,-19,-116,-24,-22
1491089252696,0,-50,-62,-35,-49,-22,-59,22,-2
1491089252697,1,23,-128,-11,33,72,-16,-41,41
1491089252697,1,62,104,102,-44,-27,33,108,16
1491089252732,2,-110,-128,-48,30,-12,-118,-35,8
1491089252732,2,71,7,-104,-16,-38,33,32,40
1491089252733,3,-45,69,58,-15,92,6,25,-59
1491089252733,3,52,-104,-83,-8,26,68,-23,30
1491089252734,0,36,19,74,-8,-55,127,23,-29
1491089252734,0,-67,91,73,1,35,28,44,12
1491089252769,1,-72,-92,-96,7,-27,-46,-117,-24
1491089252769,1,112,123,0,74,11,33,47,72
1491089252770,2,-128,-115,-9,-32,20,74,66,-3
1491089252770,2,24,24,-75,-51,49,-27,-59,-47
1491089252771,3,18,-74,40,13,-91,14,-15,40
1491089252771,3,-120,-34,-90,1,-68,10,0,-40
1491089252772,0,20,-77,36,-45,13,-52,-35,14
1491089252772,0,85,117,101,117,54,-6,29,29
1491089252807,1,-31,-30,-19,15,-8,36,56,-2
1491089252807,1,-36,-128,-128,-86,-6,-66,-121,-78
1491089252808,2,7,30,23,-31,-1,-32,42,-32
1491089252808,2,53,73,127,15,-16,10,-40,65
1491089252808,3,-55,-99,43,16,44,32,73,6
1491089252808,3,-20,11,-83,-20,-66,-53,32,11
1491089252812,0,-93,-46,59,-50,7,-27,-61,-22
1491089252812,0,0,-69,1,95,20,-11,2,-73
1491089252844,1,127,121,-69,-128,-63,6,21,94
1491089252844,1,-98,-78,-25,-10,17,-33,-11,-54
1491089252846,2,-2,127,42,68,46,-21,-25,16
1491089252846,2,-52,-86,8,-37,-12,-5,47,-19
1491089252846,3,-71,-71,-63,-12,-30,24,-37,63
1491089252846,3,-43,-34,103,-62,14,-8,37,-44
1491089252847,0,-23,24,-35,53,20,-3,-1,12
1491089252847,0,-119,-128,127,72,-29,-1,-15,-18
1491089252882,1,-28,-64,-53,-27,-9,18,14,2
1491089252882,1,63,58,80,-17,-16,-15,-63,9
1491089252883,2,-30,-93,-27,20,-17,-12,-24,32
1491089252883,2,89,127,-107,25,30,1,45,-57
1491089252884,3,56,78,57,-82,-3,10,9,62
1491089252884,3,106,-27,49,74,11,-13,-34,24
1491089252919,0,-44,-64,84,-65,51,-6,9,-76
1491089252919,0,89,58,-60,94,-63,4,-4,81
1491089252920,1,-109,-98,-40,-55,8,19,-32,-39
1491089252920,1,21,-37,13,-22,27,-13,-15,-7
1491089252921,2,35,74,36,5,-55,-6,15,12
1491089252921,2,15,-28,-30,-38,46,-1,0,-17
1491089252922,3,27,22,125,73,23,2,-23,-9
1491089252922,3,-66,-39,-57,0,-8,-8,-1,-14
1491089252957,0,3,38,-15,-65,-88,-6,-10,35
1491089252957,0,-10,25,-42,-93,12,1,57,-13
1491089252958,1,113,127,127,118,61,7,16,9
1491089252958,1,-86,-109,-58,-20,-54,-5,-46,-55
1491089252959,2,-21,-99,-51,-35,-53,-4,35,49
1491089252959,2,-45,27,-16,-125,18,2,-31,-31
1491089252959,3,118,114,127,106,-50,1,-21,15
1491089252959,3,-36,-76,-73,-12,29,-3,-16,-7
1491089252994,0,4,-33,-128,-91,-21,-4,-27,-28
1491089252994,0,39,-79,-2,-80,-29,-2,45,38
1491089252999,1,-63,-26,20,86,26,3,-14,-30
1491089252999,1,68,93,-11,-35,35,-8,41,40
1491089253001,2,50,28,-97,83,33,-1,-14,-15
1491089253001,2,-24,-128,-92,-75,-35,-2,-32,-6
1491089253001,3,-43,5,-21,-20,-53,-1,-3,-18
1491089253001,3,54,34,11,-53,-44,1,37,9
1491089253032,0,39,-51,-53,62,83,-5,-57,24
1491089253032,0,-104,-100,-60,90,-23,2,17,7
1491089253033,1,40,73,-28,-77,13,1,-66,-3
1491089253033,1,2,102,127,26,22,-5,32,9
1491089253034,2,-47,-45,-73,42,29,3,-7,-8
1491089253034,2,15,-3,-68,-1,-49,-4,-23,44
1491089253069,3,-53,-94,-55,-105,66,7,16,-27
1491089253069,3,-94,-72,-9,127,-35,-8,-16,-11
1491089253070,0,-9,-81,43,-75,63,-4,23,20
1491089253070,0,91,127,127,127,-4,-4,6,27
1491089253071,1,-28,-118,-124,-71,30,-4,6,-19
1491089253071,1,29,-9,-128,-101,-59,-3,-4,37
1491089253072,2,-55,-23,110,127,-7,2,15,-18
1491089253072,2,17,18,66,70,61,0,-11,-14
1491089253107,3,-8,-72,-12,-23,-25,2,31,77
1491089253107,3,76,71,-110,43,67,-1,-11,10
1491089253108,0,-44,5,-51,1,-19,3,-10,-5
1491089253108,0,-64,-64,-51,-128,-19,-2,-2,-33
1491089253110,1,-64,-91,70,-41,-42,-2,-3,-40
1491089253110,1,10,68,117,122,-53,0,17,19
1491089253111,2,58,51,47,-91,124,-4,6,16
1491089253111,2,-96,-89,-82,-55,-90,1,-33,-17
1491089253144,3,73,98,28,-14,23,0,8,-7
1491089253144,3,-20,38,127,46,-27,1,22,-1
1491089253145,0,2,15,-58,10,-23,-3,-58,-23
1491089253145,0,-33,-8,35,-85,41,2,21,6
1491089253146,1,-22,-20,-67,62,-68,-3,5,2
1491089253146,1,108,113,-37,-128,73,-2,4,37
1491089253147,2,-55,-24,12,-25,-60,1,10,2
1491089253147,2,22,73,24,-2,58,4,-7,-8
1491089253182,3,-5,52,-2,6,35,-5,61,-5
1491089253182,3,-39,-52,65,36,-23,-6,-22,-12
1491089253183,0,-10,-6,-101,-124,-80,0,16,-1
1491089253183,0,63,26,91,86,57,2,-10,22
1491089253184,1,-16,0,-62,-83,-1,4,-42,-25
1491089253184,1,-80,-107,-128,8,40,-9,14,-20
1491089253219,2,14,83,79,-29,3,-4,43,-2
1491089253219,2,-34,-68,-3,46,-67,-3,-53,-5
1491089253220,3,36,21,-77,-15,32,1,-7,6
1491089253220,3,-9,10,39,4,-37,-1,5,6
1491089253221,0,7,-68,-70,27,99,-3,-7,-4
1491089253221,0,85,127,116,125,-2,-5,12,27
1491089253222,1,-52,-125,-68,-71,-35,-7,31,-6
1491089253222,1,-69,-123,-116,-101,-7,0,-61,-21
1491089253257,2,13,55,-18,-44,-53,-1,33,-3
1491089253257,2,-55,-105,-119,-50,-24,-4,14,-16
1491089253258,3,52,80,88,91,-48,-5,-39,13
1491089253258,3,31,101,127,29,100,1,-7,-4
1491089253258,0,82,92,27,121,-39,-5,-2,31
1491089253258,0,-9,-87,-125,-128,51,2,86,-4
1491089253259,1,-64,-81,-115,-5,-67,-1,-84,-31
1491089253259,1,-12,-16,-6,25,71,5,-30,-12
1491089253294,2,32,19,40,6,-123,-1,34,19
1491089253294,2,-64,-125,-111,-18,-20,-5,-48,-15
1491089253295,3,12,11,113,38,55,-2,42,-12
1491089253295,3,32,77,43,37,70,-2,95,5
1491089253296,0,15,41,-76,-80,3,2,-94,-9
1491089253296,0,26,69,127,114,-6,-3,-8,12
1491089253332,1,-18,-28,-110,-88,25,0,-19,-2
1491089253332,1,-27,-107,-128,-58,-86,-1,-13,-5
1491089253333,2,-12,-54,-85,-110,-29,1,62,5
1491089253333,2,11,54,99,3,-15,-4,-23,-8
1491089253334,3,44,78,77,127,84,2,6,20
1491089253334,3,11,-17,-22,-32,-44,2,58,16
1491089253335,0,-16,-3,-50,-19,5,-1,-42,-14
1491089253335,0,-52,-60,-125,-128,-22,4,0,-16
1491089253369,1,3,3,91,60,-1,2,-42,3
1491089253369,1,1,-44,-83,67,-84,-1,-37,-2
1491089253370,2,59,113,127,8,83,-2,14,7
1491089253370,2,-10,-55,-127,-7,-60,2,8,2
1491089253371,3,-32,-36,45,-128,94,1,24,-21
1491089253371,3,29,86,106,106,11,3,44,22
1491089253372,0,-21,-41,-46,-54,-42,-2,-42,-17
1491089253372,0,7,13,-9,-65,-2,2,19,-1
1491089253407,1,-34,-69,-128,-59,7,-7,61,-14
1491089253407,1,-11,-34,-83,-112,-26,1,-44,-5
1491089253408,2,18,70,127,81,-1,0,45,2
1491089253408,2,0,100,38,-15,64,-3,-52,-7
1491089253409,3,7,80,-30,14,-112,-1,-4,1
1491089253409,3,-1,38,0,-39,61,-5,1,-8
1491089253410,0,-11,-14,-30,23,-12,-3,0,9
1491089253410,0,-19,-62,-63,-84,-57,-5,44,-14
1491089253446,1,45,-32,20,103,-49,-5,-61,12
1491089253446,1,-21,3,112,14,38,-4,-4,-7
1491089253447,2,19,-15,53,-6,2,2,-13,6
1491089253447,2,-1,-23,-8,-18,-9,-5,9,5
1491089253448,3,-19,-61,-91,-128,25,1,-25,-12
1491089253448,3,4,-25,22,73,-79,4,-58,6
1491089253482,0,-21,-66,-46,-25,16,0,0,-10
1491089253482,0,-9,-10,40,35,-12,-6,-41,-1
1491089253483,1,18,20,-41,-44,0,-4,-31,4
1491089253483,1,0,-7,31,37,-1,2,-16,5
1491089253483,2,-9,-17,-33,29,4,-4,-28,-8
1491089253483,2,17,34,27,-22,-27,0,63,4
1491089253484,3,-19,-10,-10,26,-14,-3,41,-10
1491089253484,3,-22,-29,-15,-122,9,0,7,-8
1491089253519,0,34,85,93,108,20,0,21,17
1491089253519,0,31,16,24,-5,61,4,-39,-8
1491089253520,1,-39,-7,-16,-49,-9,2,53,7
1491089253520,1,-49,-45,-104,-72,-4,-5,-30,-33
1491089253521,2,4,7,32,38,-2,1,24,11
1491089253521,2,-8,2,13,-23,-10,-4,21,-1
1491089253522,3,17,4,-22,19,56,2,-43,-6
1491089253522,3,15,11,20,-12,-35,-5,58,12
1491089253557,0,-23,-31,-29,34,48,-2,1,0
1491089253557,0,-5,-20,-38,23,-20,0,-26,1
1491089253558,1,17,-8,50,-62,8,-12,28,6
1491089253558,1,-5,-41,-38,36,12,-6,-13,1
1491089253559,2,-17,-25,6,5,-50,-9,33,-9
1491089253559,2,-1,-32,21,-6,36,-1,-53,1
1491089253560,3,12,25,76,75,-47,-3,31,7
1491089253560,3,17,-5,42,28,-15,2,29,1
1491089253594,0,-2,7,-29,-47,59,5,29,4
1491089253594,0,-37,-17,-108,-60,-22,0,-90,-24
1491089253595,1,-20,-44,4,-9,-6,-4,-12,-7
1491089253595,1,-24,-41,-76,-29,11,-1,19,-3
1491089253596,2,2,-26,-38,0,-89,0,30,-3
1491089253596,2,34,107,103,25,102,-4,-5,1
1491089253632,3,13,72,1,82,-47,-1,-1,12
1491089253632,3,6,57,7,-4,22,-2,8,-3
1491089253633,0,-14,12,-13,-30,-26,-2,-48,-8
1491089253633,0,-7,-16,-14,-7,6,1,10,-1
1491089253633,1,12,9,32,26,25,3,9,8
1491089253633,1,-13,-33,-115,-57,-39,-1,-55,-15
1491089253634,2,-22,11,38,-21,9,-4,17,3
1491089253634,2,23,-4,24,24,2,-2,-3,6
1491089253669,3,4,27,56,19,10,4,25,16
1491089253669,3,-4,28,105,89,16,-1,-7,-14
1491089253670,0,17,-26,-54,-63,-14,-5,-27,-16
1491089253670,0,-51,-54,-57,26,24,5,-39,4
1491089253671,1,-5,16,-73,-58,-23,-5,-28,-14
1491089253671,1,25,58,29,15,71,0,-26,8
1491089253672,2,-13,-13,16,26,-12,1,26,9
1491089253672,2,-11,-20,12,3,-15,0,51,8
1491089253707,3,6,-13,-32,-7,12,1,-22,-9
1491089253707,3,-7,15,28,-33,-16,-3,18,-14
1491089253708,0,15,-18,-63,-6,31,-7,-69,9
1491089253708,0,-35,26,-1,-18,-10,-5,127,-3
1491089253709,1,4,0,63,16,15,-11,-24,-11
1491089253709,1,36,6,-16,8,-10,-24,43,11
1491089253709,2,35,-11,2,-29,30,-113,-2,5
1491089253709,2,-7,49,41,76,7,-104,-1,-20
1491089253744,3,-10,-8,-13,-36,-15,-17,7,17
1491089253744,3,-21,-71,-100,-67,8,47,58,-9
1491089253745,0,-12,-38,-101,2,10,94,-39,-27
1491089253745,0,7,27,24,11,-56,84,-18,11
1491089253746,1,1,48,20,-21,-3,67,9,-18
1491089253746,1,-30,-18,100,70,26,58,-41,14
1491089253782,2,-19,40,68,16,21,62,-72,0
1491089253782,2,22,-41,-37,-18,-11,48,14,-6
1491089253783,3,34,-82,-128,-31,-29,39,-61,-18
1491089253783,3,-103,-76,47,-78,-10,23,-17,-36
1491089253783,0,-9,64,-63,-52,-23,23,62,24
1491089253783,0,35,81,90,55,6,28,1,0
1491089253784,1,-4,33,47,-15,36,14,39,15
1491089253784,1,6,-58,-43,-5,-23,-1,-5,-36
1491089253819,2,42,3,-78,12,7,18,-1,26
1491089253819,2,-107,-111,41,-29,-12,74,-93,-39
1491089253820,3,37,-16,-64,39,-4,110,72,34
1491089253820,3,54,127,107,30,14,110,30,8
1491089253821,0,-76,34,26,-26,-4,87,-34,-21
1491089253821,0,28,-41,-60,9,5,92,37,-5
1491089253822,1,-56,-95,-76,-18,-30,87,-44,-6
1491089253822,1,14,-43,-29,-58,-12,119,29,32
1491089253857,2,32,12,93,58,23,126,-11,-8
1491089253857,2,62,114,124,79,69,127,24,7
1491089253858,3,-54,-59,40,32,-16,37,-53,3
1491089253858,3,107,88,-103,0,-31,-104,26,20
1491089253859,0,-107,-128,-14,-109,-10,-36,-52,-42
1491089253859,0,44,70,-128,-58,-39,20,94,36
1491089253860,1,-25,41,-38,31,-13,-80,-65,-31
1491089253860,1,67,84,57,82,32,-94,35,59
1491089253894,2,31,40,68,15,46,-128,-58,3
1491089253894,2,-63,-45,-67,-37,-15,-128,40,-13
1491089253895,3,-35,-97,-111,-106,-51,-117,-30,-28
1491089253895,3,-128,-107,-78,9,-22,84,-69,-66
1491089253896,0,127,88,114,87,18,56,115,102
1491089253896,0,-45,-109,-88,-2,16,-8,-99,-24
1491089253932,1,57,80,100,24,-15,-81,108,3
1491089253932,1,-14,-100,-107,-75,-7,-128,-16,-15
1491089253933,2,-99,-74,49,17,7,-63,92,-17
1491089253933,2,31,3,-94,-5,-15,-117,-96,5
1491089253934,3,70,111,127,75,11,-79,51,43
1491089253934,3,12,10,-45,-13,-15,-54,-96,-37
1491089253934,0,-56,-45,34,-58,-49,-7,127,-12
1491089253934,0,20,-38,-71,-51,-5,0,35,-4
1491089253969,1,-92,-14,-39,10,34,35,-121,-29
1491089253969,1,-13,79,126,48,49,26,33,17
1491089253971,2,-15,65,-58,-7,-43,-31,-124,-13
1491089253971,2,40,-13,67,-17,18,81,85,-4
1491089253971,3,32,-56,-102,0,19,-18,10,14
1491089253971,3,52,-128,65,29,-33,-50,-45,15
1491089253975,0,-46,27,-16,-56,10,-128,14,-51
1491089253975,0,56,-55,-17,2,6,-11,47,39
1491089254007,1,-17,6,117,-13,18,78,127,-39
1491089254007,1,-7,-22,-99,-39,-38,3,-54,46
1491089254008,2,-23,-120,-122,-22,-49,14,-19,-39
1491089254008,2,-34,127,127,67,9,-3,-78,-28
1491089254009,3,82,114,75,90,68,92,-23,50
1491089254009,3,-53,10,-58,46,36,-70,-4,-14
1491089254010,0,22,-84,-102,-21,-13,90,-10,13
1491089254010,0,-5,-103,-128,-51,-81,-56,-34,7
1491089254045,1,-128,-128,-90,-97,-57,-114,-56,-65
1491089254045,1,94,127,105,0,36,-27,97,19
1491089254082,2,51,-59,11,41,4,-38,12,24
1491089254082,2,-75,32,-34,-92,10,71,-45,-41
1491089254120,3,-50,-2,69,-13,1,16,92,0
1491089254120,3,78,18,10,50,9,17,17,-3
1491089254122,0,-22,-28,43,-70,-34,-121,-89,50
1491089254122,0,45,58,34,53,27,42,124,32
1491089254127,1,-4,61,98,20,-31,-35,-128,-41
1491089254127,1,-38,-114,-128,-7,-7,19,-2,14
1491089254129,2,38,98,124,32,37,18,-3,-6
1491089254129,2,12,44,127,89,-14,-112,-29,7
1491089254158,3,54,-56,-128,-59,-27,-78,-6,3
1491089254158,3,-31,-107,-58,-13,6,36,127,22
1491089254160,0,73,80,-41,-19,-27,119,-99,-40
1491089254160,0,-28,-83,57,-14,20,78,-87,5
1491089254161,0,39,12,-8,75,30,98,-35,3
1491089254161,0,-42,-119,-68,-36,-25,6,64,-26
1491089254162,1,-90,-128,6,-22,-39,-77,29,-6
1491089254162,1,25,117,119,-30,4,-27,-4,39
1491089254197,2,-45,13,100,38,40,33,-69,-57
1491089254197,2,-33,-96,-54,67,8,-5,118,8
1491089254199,3,44,26,-110,-43,-28,10,-106,11
1491089254199,3,1,-34,-97,-82,-34,35,60,-22
1491089254200,0,-17,9,62,7,20,28,-64,13
1491089254200,0,85,38,111,41,-9,53,112,67
1491089254201,1,-128,34,-46,-30,-2,121,-57,-55
1491089254201,1,-73,-56,-71,-1,-40,-1,-128,-64
1491089254232,2,76,32,-46,-53,-35,-19,72,13
1491089254232,2,-4,75,117,64,30,27,-39,3
1491089254233,3,-5,-117,-10,5,22,39,-69,2
1491089254233,3,79,127,48,21,-38,10,-27,19
1491089254234,0,-73,-102,-81,-74,10,-11,-2,-86
1491089254234,0,-3,-70,-48,-43,-24,-105,-17,51
1491089254235,1,82,113,18,36,28,116,127,30
1491089254235,1,-50,-70,19,-45,-4,103,-92,-46
1491089254270,2,-83,-84,-105,115,28,-4,7,34
1491089254270,2,127,30,106,-2,-13,-122,-21,22
1491089254271,3,-49,-128,39,-39,-1,-94,47,-50
1491089254271,3,91,102,46,60,37,-1,105,70
1491089254272,0,100,77,2,36,-3,-40,37,37
1491089254272,0,-88,-127,-128,-67,-12,-50,-77,-93
1491089254273,1,20,113,31,47,20,6,52,43
1491089254273,1,46,-2,-8,20,-24,-49,-49,-30
1491089254307,2,-36,67,43,48,2,29,30,1
1491089254307,2,74,22,-24,-40,22,45,114,51
1491089254310,3,-70,-128,-98,-35,-4,-56,-49,-16
1491089254310,3,4,47,-32,-17,-13,5,-89,-25
1491089254312,0,45,-30,-124,-16,-53,-64,70,47
1491089254312,0,-45,36,92,-25,24,23,-47,-24
1491089254312,1,-3,36,127,-33,-12,21,16,-30
1491089254312,1,70,41,29,-19,30,16,-3,50
1491089254344,2,-96,-97,-84,-65,-16,45,-24,-41
1491089254344,2,54,122,-57,-45,-39,-24,-124,-34
1491089254345,3,-18,-8,-88,9,-1,-89,26,-2
1491089254345,3,76,48,106,28,26,-15,24,-21
1491089254346,0,-21,-38,100,62,47,68,51,29
1491089254346,0,-119,-122,-42,81,-22,-19,65,-5
1491089254347,1,127,-107,-128,31,-2,11,-118,12
1491089254347,1,-26,-38,52,-60,5,-57,51,-15
1491089254382,2,-25,103,127,-33,-12,35,102,-7
1491089254382,2,-2,-15,-68,47,18,4,-14,-17
1491089254383,3,34,-28,-51,-37,-55,-100,24,26
1491089254383,3,56,22,-110,0,16,29,-102,46
1491089254383,0,-69,-75,2,-98,-11,-66,77,-38
1491089254383,0,127,127,109,41,25,-34,107,75
1491089254384,1,-34,-80,-91,46,-6,-42,-62,-5
1491089254384,1,-128,-128,-24,-69,-21,87,-4,-64
1491089254419,2,19,59,-88,61,6,46,-67,-36
1491089254419,2,-9,38,49,-79,-1,34,13,9
1491089254420,3,-47,4,127,83,43,66,-19,-49
1491089254420,3,-112,-8,-108,-13,-8,24,-36,6
1491089254421,0,127,119,-12,-91,-27,3,-48,46
1491089254421,0,-88,-114,93,79,30,-42,-82,-20
1491089254422,1,-41,-17,-89,-4,-26,41,92,-2
1491089254422,1,29,-86,-75,-16,10,-26,26,36
1491089254457,2,-128,37,73,-39,-47,-43,91,-71
1491089254457,2,98,127,57,101,73,0,-116,34
1491089254458,3,127,101,118,55,-7,27,66,89
1491089254458,3,-125,-103,-87,28,-75,-16,127,-30
1491089254459,0,127,-79,-77,-102,60,-57,-123,59
1491089254459,0,-57,-2,77,54,3,50,127,-76
1491089254495,1,49,124,6,-3,28,125,-121,36
1491089254495,1,32,-13,79,-18,13,74,35,-25
1491089254532,2,-20,-98,-111,102,-32,-112,-19,31
1491089254532,2,53,42,74,-98,-64,5,-128,-65
1491089254533,3,-82,-84,-110,-67,58,-58,13,33
1491089254533,3,104,127,127,127,19,77,123,16
1491089254533,0,-122,-91,-96,9,-16,68,-17,-30
1491089254533,0,16,31,-3,-40,11,42,35,31
1491089254534,1,-5,-30,-18,-77,-66,-64,1,-21
1491089254534,1,14,-70,-57,-118,-28,-105,65,11
1491089254569,2,47,50,-7,26,39,-13,10,-10
1491089254569,2,-128,25,45,13,-16,-6,113,-15
1491089254571,3,16,81,124,100,36,94,-75,3
1491089254571,3,-106,-115,-41,-48,-15,-116,-30,27
1491089254571,0,41,121,127,-8,-48,29,127,-33
1491089254571,0,-83,-99,-9,-25,0,-20,28,-5
1491089254572,1,-40,57,-57,-34,-1,56,-57,-52
1491089254572,1,81,-33,127,6,-4,-73,-105,-18
1491089254607,2,0,-128,-116,51,-12,34,18,4
1491089254607,2,-35,-55,-86,-96,-5,-118,-19,-6
1491089254608,3,55,31,125,69,57,-83,127,32
1491089254608,3,-112,-55,104,35,14,-38,-32,-46
1491089254608,1,34,78,-46,36,-38,-50,-56,59
1491089254608,1,-67,-26,3,72,-26,-112,14,-45
1491089254609,2,72,72,127,2,17,14,105,-8
1491089254609,2,-1,-123,-128,-64,-29,-10,-35,9
1491089254645,3,73,58,77,-59,34,-7,-45,-10
1491089254645,3,127,80,78,96,57,16,110,42
1491089254646,0,-128,-125,-28,92,-40,-33,-110,-14
1491089254646,0,96,102,66,-63,34,66,8,65
1491089254646,1,-84,-106,80,51,-51,78,87,0
1491089254646,1,11,-45,-79,-128,-19,-21,-73,-33
1491089254647,2,29,89,127,-30,13,61,-7,-19
1491089254647,2,-79,-98,57,102,2,-41,-86,-36
1491089254682,3,-113,-112,-98,-55,-26,-53,39,-32
1491089254682,3,79,119,39,-52,3,-39,36,46
1491089254683,0,11,89,49,68,32,-66,-36,5
1491089254683,0,88,-37,-103,110,11,20,92,33
1491089254683,1,-115,48,-51,-101,38,51,-80,-80
1491089254683,1,21,55,2,-48,-80,33,107,-53
1491089254684,2,89,-16,26,15,6,-30,-67,14
1491089254684,2,92,127,2,65,18,54,127,75
1491089254719,3,83,-128,45,39,-14,-85,-16,-9
1491089254719,3,96,127,-3,64,58,18,-96,25
1491089254720,0,-125,38,54,-89,-14,-18,65,-21
1491089254720,0,50,-120,-59,-59,24,74,-28,38
1491089254721,1,-43,107,34,-8,-6,1,127,29
1491089254721,1,-128,-106,-50,6,-26,64,-84,-38
1491089254722,2,39,37,-32,-39,-6,-75,15,50
1491089254722,2,-95,63,59,-47,-22,13,9,-50
1491089254757,3,114,-63,69,0,12,4,78,-6
1491089254757,3,53,-58,-1,36,35,70,-47,98
1491089254757,0,-128,26,20,-17,-63,8,73,-40
1491089254757,0,-128,-52,64,11,-19,2,72,-51
1491089254758,1,103,-43,-35,25,-29,-16,-110,15
1491089254758,1,25,83,27,-43,9,-42,-26,-39
1491089254759,2,-29,-128,18,-36,-18,0,-9,27
1491089254759,2,65,80,-67,42,104,-34,-41,-23
1491089254794,3,22,93,127,47,-8,-25,82,45
1491089254794,3,18,-127,-18,121,-26,84,-5,-21
1491089254795,0,-5,-40,-126,-63,-8,-18,-31,33
1491089254795,0,-103,-45,31,-66,-47,-56,2,-20
1491089254796,1,-15,37,-45,103,17,11,-103,-76
1491089254796,1,-113,-21,-77,-51,-18,44,-20,24
1491089254797,2,127,25,5,80,72,-67,80,14
1491089254797,2,44,16,95,36,-17,8,-67,-27
1491089254832,3,39,-55,-104,-69,-2,31,-8,34
1491089254832,3,-71,-24,-22,-128,-16,-71,66,-64
1491089254833,0,22,95,116,127,-65,88,84,14
1491089254833,0,-40,-38,10,23,-1,19,-46,7
1491089254833,1,-59,-42,-94,-62,-27,-31,72,-9
1491089254833,1,67,127,33,-40,27,15,-64,13
1491089254834,2,-119,-128,-5,-72,29,-55,10,0
1491089254834,2,36,116,80,46,15,25,71,-1
1491089254869,3,-77,-98,127,15,-18,99,15,18
1491089254869,3,-2,-128,-128,-6,16,-5,-12,62
1491089254870,0,-48,-49,49,-113,-19,-21,22,-108
1491089254870,0,94,69,127,31,33,-38,33,58
1491089254871,1,-128,-116,-128,21,-3,43,-65,-25
1491089254871,1,82,-57,-77,65,-18,-20,82,32
1491089254872,2,50,58,9,-75,-33,45,-49,17
1491089254872,2,27,-58,43,-25,7,-65,56,-4
1491089254907,3,-100,-100,-107,-125,-25,-90,-24,-45
1491089254907,3,94,127,-60,10,15,78,-5,19
1491089254908,0,27,-75,74,38,-6,-88,14,28
1491089254908,0,-128,-48,36,-6,-38,91,-104,-45
1491089254909,1,127,127,-109,-46,24,29,127,63
1491089254909,1,-128,-122,127,99,-23,-2,-10,0
1491089254944,2,-32,-86,-128,6,58,-46,-72,-6
1491089254944,2,42,71,17,-16,-7,69,-117,-41
1491089254945,3,-20,-123,127,-30,-7,-98,-90,-69
1491089254945,3,42,-16,34,61,30,12,127,80
1491089254946,0,-3,90,-72,-67,-5,125,21,-50
1491089254946,0,52,-39,25,83,2,-55,-44,70
1491089254947,1,-115,-62,77,0,26,51,70,-81
1491089254947,1,-49,-56,-13,-98,6,-33,-19,-46
1491089254982,2,59,-91,-100,56,-48,-67,-92,28
1491089254982,2,-115,44,-30,-89,-23,-37,100,-4
1491089254983,3,-51,-19,-29,66,35,-96,-63,15
1491089254983,3,55,103,80,-28,-6,-13,22,-4
1491089254983,0,-7,-41,-65,9,-22,65,49,39
1491089254983,0,-13,-128,-128,-128,-13,-75,-58,-13
1491089254984,1,58,56,127,97,-12,77,-40,-65
1491089254984,1,-105,-128,-98,-37,23,27,98,17
1491089255019,2,103,127,-80,8,47,12,-100,36
1491089255019,2,56,98,66,8,-90,-51,69,36
1491089255021,3,-66,-74,-128,-83,47,52,40,19
1491089255021,3,80,-36,118,57,-50,-74,6,-11
1491089255021,0,59,3,15,15,12,82,0,38
