1491695234146,0,-94,36,-112,31,65,30,-107,43
1491695234146,0,38,-5,-13,-34,25,-12,102,-112
1491695234150,1,30,-32,35,-29,-19,-8,107,-114
1491695234150,1,53,-4,41,-28,-40,2,69,-76
1491695234151,2,-20,-21,81,-13,-60,-2,80,-34
1491695234151,2,-20,-9,3,-15,-35,-5,-34,18
1491695234152,3,-9,-11,-7,-7,-7,7,17,44
1491695234152,3,25,-27,-1,-4,-1,27,0,27
1491695234243,0,38,5,6,7,4,-40,-68,7
1491695234243,0,23,7,-13,22,14,18,-13,36
1491695234244,1,30,11,-2,-9,-16,-32,-36,8
1491695234244,1,-60,-11,-27,-2,4,-11,-46,8
1491695234247,2,103,20,6,-8,-12,-5,14,10
1491695234247,2,-39,26,8,14,17,0,-43,7
1491695234248,1,-67,-18,-17,-4,0,6,-5,-9
1491695234248,1,101,33,5,7,16,7,-13,20
1491695234293,2,-19,-22,9,-8,-11,-10,11,-7
1491695234293,2,2,-13,-3,0,-10,-7,-20,0
1491695234294,3,23,18,-1,3,13,9,-2,8
1491695234294,3,-33,-8,2,2,0,-16,-38,-10
1491695234298,2,60,17,6,-4,-5,6,-13,-4
1491695234298,2,51,13,-3,-10,-1,18,26,15
1491695234341,3,-42,-1,2,9,10,-6,-7,-17
1491695234341,3,54,11,3,9,2,51,19,26
1491695234343,0,-43,-10,-2,-5,17,-22,40,-16
1491695234343,0,18,-7,-6,-7,-20,-41,-33,-16
1491695234389,1,-30,13,8,6,12,8,-12,-5
1491695234389,1,89,-10,-3,-1,7,8,24,22
1491695234390,0,32,-16,-5,-6,0,16,-12,0
1491695234390,0,-29,-10,-10,1,2,8,-6,-20
1491695234391,1,-60,4,5,5,1,4,-8,3
1491695234391,1,48,14,6,5,11,-3,-9,16
1491695234394,2,-36,6,7,0,-5,22,66,2
1491695234394,2,-5,3,-1,5,22,12,19,3
1491695234439,0,-74,31,2,-5,-13,-14,-23,3
1491695234439,0,73,-13,3,4,9,23,-3,-10
1491695234440,1,-3,0,-6,0,12,15,17,-1
1491695234440,1,-69,-3,0,-4,-10,-41,-40,-25
1491695234440,2,-6,4,-1,-2,7,9,-20,9
1491695234440,2,-51,-2,-10,-3,-10,-11,0,-14
1491695234441,1,-38,3,6,7,8,-2,-52,-25
1491695234441,1,-18,6,-1,4,11,40,61,48
1491695234487,2,-17,-7,-3,-5,-12,-14,-14,-7
1491695234487,2,31,8,0,-7,-11,-19,10,-16
1491695234488,3,-6,-1,-3,0,1,13,-1,10
1491695234488,3,127,7,-2,-4,-11,-22,0,-13
1491695234489,2,-9,3,0,-5,-7,-21,11,2
1491695234489,2,-100,-11,3,-3,-11,-18,-25,-28
1491695234489,3,-15,-7,-1,5,11,37,63,29
1491695234489,3,28,-12,-5,1,6,-12,-34,-24
1491695234536,0,68,-3,-3,-1,-7,-9,4,14
1491695234536,0,-51,-13,-5,-15,-29,-58,-93,-11
1491695234537,1,-96,-18,-6,1,22,37,30,-33
1491695234537,1,122,5,6,15,27,32,34,28
1491695234537,3,-53,-1,2,-7,-32,-31,2,11
1491695234537,3,-128,0,-7,-14,-17,1,9,-11
1491695234538,0,127,2,-6,2,4,-29,-40,18
1491695234538,0,-89,-4,-6,-9,-35,-8,44,-8
1491695234585,1,95,15,9,15,41,6,38,28
1491695234585,1,-47,-1,4,16,17,-1,-5,-25
1491695234633,2,-19,11,7,-5,15,49,-31,35
1491695234633,2,-40,-19,-12,-19,-36,-49,-28,-2
1491695234682,0,14,-1,5,25,38,-57,-2,5
1491695234682,0,-58,-11,-3,-1,-18,-57,-30,-6
1491695234683,1,-26,2,2,-3,-19,7,10,-43
1491695234683,1,44,-9,4,13,37,36,33,32
1491695234683,2,38,13,12,-2,-10,17,-58,-17
1491695234683,2,100,25,9,8,-2,21,15,14
1491695234684,3,-96,-18,-9,-15,0,-25,-18,-27
1491695234684,3,124,-6,-13,-16,-13,65,18,19
1491695234731,1,12,2,2,16,14,-25,-63,-1
1491695234731,1,-14,-3,-7,-27,-40,-46,9,-16
1491695234733,2,25,-11,-6,-10,17,34,15,13
1491695234733,2,-13,-3,-4,-1,8,16,-16,15
1491695234734,2,-44,-6,-3,3,2,-68,-25,-9
1491695234734,2,5,3,3,8,15,24,8,4
1491695234735,3,-30,-5,-5,-6,-15,27,9,1
1491695234735,3,22,8,3,-4,3,-3,13,10
1491695234780,0,51,-3,-6,-5,5,-10,2,-14
1491695234780,0,-43,3,2,-2,-6,7,16,14
1491695234781,1,-34,-7,-3,-12,-39,-37,-21,-14
1491695234781,1,-74,8,1,9,27,-30,-52,-8
1491695234784,3,84,19,0,0,10,42,19,7
1491695234784,3,-94,-16,-2,-7,-19,17,30,-17
1491695234786,0,-90,-26,-3,-17,-20,-66,-39,-19
1491695234786,0,52,-112,1,10,17,23,36,14
1491695234828,1,-10,-107,2,-5,-7,-9,-19,13
1491695234828,1,-26,-58,1,8,24,21,11,13
1491695234830,2,83,-12,4,8,-1,18,10,2
1491695234830,2,26,42,-1,-6,-14,-31,-31,-15
1491695234831,0,-126,26,3,0,-1,13,-14,-21
1491695234831,0,105,47,7,7,5,-25,-1,34
1491695234832,1,12,15,-8,-10,-22,-44,-36,-4
1491695234832,1,44,27,-2,-12,-6,-10,-9,-8
1491695234877,2,8,-1,0,8,12,42,27,-4
1491695234877,2,-23,-2,-7,-8,-10,-30,14,-7
1491695234878,3,85,116,-4,-3,-2,45,-15,4
1491695234878,3,-31,43,-4,-1,5,2,51,16
1491695234880,1,-115,-44,4,8,8,52,14,3
1491695234880,1,-11,-10,1,-1,-16,-69,-8,4
1491695234881,2,-11,-25,-9,-11,-21,-16,-6,-20
1491695234881,2,29,2,1,18,23,13,14,14
1491695234926,3,4,-27,-11,-6,-2,-6,12,-14
1491695234926,3,-11,-12,1,-1,7,22,3,20
1491695234927,0,-43,-22,-3,-2,2,7,-21,4
1491695234927,0,4,4,2,5,0,-2,11,5
1491695234928,2,4,16,6,-3,-20,-17,6,-26
1491695234928,2,64,26,7,-7,5,35,64,-34
1491695234929,3,-60,-7,-4,-7,-8,-25,-27,-36
1491695234929,3,61,8,5,7,-7,24,23,9
1491695234975,0,-36,44,-6,-1,-8,-32,-51,-5
1491695234975,0,-58,58,2,8,14,34,-9,-11
1491695234977,1,32,53,8,13,17,-55,30,3
1491695234977,1,109,27,1,-5,-12,13,-29,4
1491695234978,3,-124,-44,-7,-4,-4,-41,-62,-27
1491695234978,3,61,-21,-8,0,-3,25,62,12
1491695234979,0,28,-12,2,4,10,15,13,8
1491695234979,0,-29,4,0,-8,-8,15,-21,20
1491695235024,1,6,-12,-3,-4,-7,-30,-5,-17
1491695235024,1,-116,-16,1,2,-3,-44,-46,-15
1491695235025,2,92,0,3,0,-7,22,60,36
1491695235025,2,-83,-21,-3,-9,-2,14,-63,-39
1491695235027,0,-15,-16,-6,-5,0,18,-1,-10
1491695235027,0,-3,-6,-6,-5,-9,-19,33,-2
1491695235027,1,78,-1,1,1,8,7,-11,1
1491695235027,1,-41,-14,-6,-2,-9,-20,-35,-23
1491695235072,2,-4,0,13,13,14,5,-2,-14
1491695235072,2,-13,7,-7,-4,-6,4,0,23
1491695235074,3,9,-4,3,-5,-9,7,28,-12
1491695235074,3,40,-3,-3,-6,-1,15,28,10
1491695235075,1,0,0,-6,-3,-2,16,-8,-16
1491695235075,1,-36,-2,2,1,-4,-21,-42,-7
1491695235077,2,-12,-10,-2,-1,0,10,14,-24
1491695235077,2,1,5,-2,-5,-7,-20,19,8
1491695235121,3,8,-10,-7,2,4,3,2,5
1491695235121,3,18,-5,3,2,1,8,-13,-2
1491695235122,0,-31,3,-3,-11,-10,-37,-47,-8
1491695235122,0,-12,-39,3,4,2,27,38,15
1491695235123,1,31,-87,5,8,1,12,16,17
1491695235123,1,-35,-46,5,9,3,-6,4,16
1491695235124,2,-10,-34,-18,-17,3,12,31,-16
1491695235124,2,72,31,-8,-3,-8,-5,-70,5
1491695235170,3,33,55,2,-11,-15,-27,0,-4
1491695235170,3,-87,30,-2,-2,4,-4,-40,-2
1491695235171,0,30,46,1,1,-11,-31,-52,-1
1491695235171,0,54,24,-7,-4,8,25,7,-5
1491695235171,2,51,18,6,4,3,10,20,3
1491695235171,2,-76,-13,9,-4,-10,-22,-25,-5
1491695235172,3,20,2,-6,-6,-5,31,61,6
1491695235172,3,-69,-4,-8,-17,-20,-33,-38,-34
1491695235218,0,73,10,5,11,10,55,56,40
1491695235218,0,-26,-13,-6,0,1,-53,-15,-9
1491695235219,1,-22,-5,-2,2,4,-12,10,-8
1491695235219,1,109,12,6,0,0,5,-38,7
1491695235220,3,0,0,-6,-2,0,4,-15,-7
1491695235220,3,18,-5,-4,-11,-5,3,33,0
1491695235221,0,-1,-5,2,6,-7,-7,-34,11
1491695235221,0,-83,-7,8,0,1,12,21,-13
1491695235267,1,22,3,-10,-7,1,-5,-22,3
1491695235267,1,-31,-7,7,9,19,50,80,6
1491695235268,2,87,19,-3,-4,-3,-33,3,3
1491695235268,2,-110,-5,-10,-9,-13,16,11,-2
1491695235269,0,-64,-12,-2,-3,0,-26,-20,-3
1491695235269,0,13,-9,-10,-7,-6,-27,-42,-18
1491695235270,1,22,9,6,7,12,61,50,33
1491695235270,1,73,-5,-7,-1,3,5,-3,-3
1491695235316,2,-44,-6,-3,-4,-5,-35,-16,1
1491695235316,2,28,2,1,-6,-10,-16,-33,-4
1491695235317,3,-32,-11,-10,-4,-1,-12,-4,-20
1491695235317,3,-63,-12,-5,-1,-1,36,31,-5
1491695235317,1,5,3,-10,-14,-11,-41,-19,-8
1491695235317,1,1,0,4,4,11,15,-2,4
1491695235318,2,-69,-3,-6,2,2,20,17,0
1491695235318,2,-8,2,6,2,-3,-3,-7,-5
1491695235364,3,27,3,8,4,-3,-11,4,-3
1491695235364,3,43,2,-4,-4,-5,-16,7,-2
1491695235365,0,-31,-9,0,-3,-5,3,-13,-6
1491695235365,0,5,2,1,5,16,44,24,-7
1491695235366,2,18,10,-1,-1,0,5,-15,-3
1491695235366,2,17,-6,-6,-2,-4,-4,59,12
1491695235367,3,-12,4,6,2,1,5,-13,10
1491695235367,3,-11,-7,-2,0,-3,-16,-28,-2
1491695235413,0,80,2,0,-5,-9,3,-15,17
1491695235413,0,4,4,-1,1,4,21,5,1
1491695235414,1,9,12,4,3,-11,-50,-51,-6
1491695235414,1,12,0,-12,-6,12,45,59,13
1491695235415,3,-78,-13,-6,3,2,23,40,1
1491695235415,3,90,9,10,0,-12,-4,-40,4
1491695235416,0,-3,4,1,-3,-1,-37,-2,-11
1491695235416,0,47,5,-7,-1,2,-11,10,18
1491695235462,1,-84,-6,-7,-5,-2,15,-15,-35
1491695235462,1,-23,7,10,5,-3,-3,-38,-11
1491695235464,2,29,3,0,8,15,33,38,20
1491695235464,2,-12,-6,-2,-1,-3,-15,6,0
1491695235465,3,26,2,-1,-4,-2,7,3,8
1491695235465,3,-22,0,0,3,-1,-9,-21,-6
1491695235466,0,8,17,1,-1,-4,-7,-28,-23
1491695235466,0,-44,-3,-2,-1,-4,1,4,6
1491695235511,1,42,-78,-1,-1,5,29,40,11
1491695235511,1,15,-81,-2,-2,-8,-38,-22,6
1491695235512,2,-40,-49,0,-10,-9,-4,-12,17
1491695235512,2,-8,-19,-11,4,13,34,35,-7
1491695235512,0,-45,14,-4,-13,-9,-5,-5,-4
1491695235512,0,-31,34,-2,2,2,-3,-23,-3
1491695235515,1,61,33,-1,0,-1,3,19,5
1491695235515,1,21,20,-1,1,-4,-14,-20,-10
1491695235560,2,9,17,5,6,7,10,-19,-1
1491695235560,2,42,2,0,-2,3,23,11,15
1491695235561,3,24,-2,-6,1,1,-2,23,-7
1491695235561,3,-22,4,-3,-5,-2,-10,-20,-6
1491695235562,1,-5,-3,1,-1,-2,0,-14,-9
1491695235562,1,6,11,-1,-1,1,-5,-3,-2
1491695235563,2,2,-3,-1,-3,-6,-2,-11,-2
1491695235563,2,-46,-18,-7,-5,-5,-20,-24,-8
1491695235608,3,20,7,-7,-6,-6,-1,-7,10
1491695235608,3,-28,14,2,9,11,35,63,9
1491695235609,0,-77,-2,16,2,1,1,7,-8
1491695235609,0,-31,-11,-4,-2,-3,-10,-10,-8
1491695235610,2,-8,-8,-11,-9,-18,-22,-5,-4
1491695235610,2,-38,2,2,1,12,15,-37,-15
1491695235611,3,46,11,4,5,6,37,60,26
1491695235611,3,-16,1,-3,-3,1,-24,-20,-18
1491695235657,0,44,-13,-6,-1,0,0,11,1
1491695235657,0,74,5,6,0,-7,-18,27,-9
1491695235658,1,-62,-8,-2,-4,-5,-4,-12,-9
1491695235658,1,-18,2,1,-5,-7,-17,-30,-2
1491695235658,3,-103,-6,11,12,18,31,30,9
1491695235658,3,72,7,0,-2,1,-2,-2,-6
1491695235659,0,15,-4,-6,-13,-22,-18,-26,13
1491695235659,0,-29,3,1,6,13,13,1,-19
1491695235706,1,-4,6,-3,-10,-13,-68,-19,-10
1491695235706,1,-35,-10,-4,0,0,29,-1,15
1491695235706,2,-26,6,5,2,1,-22,-48,-11
1491695235706,2,-78,-4,-6,-8,-3,16,39,2
1491695235707,0,50,34,13,7,9,31,38,-1
1491695235707,0,90,40,5,6,3,-11,-3,11
1491695235708,1,-35,23,-6,-2,1,10,-1,-1
1491695235708,1,69,26,-5,-6,-10,-25,-3,7
1491695235754,2,-80,-32,-11,-2,1,-9,-21,-16
1491695235754,2,66,-54,8,8,1,10,-3,12
1491695235756,3,-34,-29,0,-11,-9,-37,-7,10
1491695235756,3,-51,-31,-5,-5,-5,12,8,-3
1491695235756,1,59,3,-5,5,-1,4,-22,13
1491695235756,1,-71,6,-4,-9,-11,-14,9,-10
1491695235757,2,-17,27,-3,2,3,0,-16,8
1491695235757,2,-31,30,0,-1,-4,8,25,-6
1491695235803,3,10,69,-5,0,3,13,22,-11
1491695235803,3,-21,66,4,-2,-3,-22,-44,-20
1491695235804,0,34,-19,-3,5,4,1,37,20
1491695235804,0,70,-105,4,-1,-5,-14,8,10
1491695235805,1,-52,-128,-8,-12,6,31,-3,-11
1491695235805,1,76,-63,5,11,6,10,30,20
1491695235806,2,-83,11,-9,-15,-14,-22,-44,-22
1491695235806,2,13,73,3,4,-5,-14,-4,-5
1491695235852,3,-4,43,5,0,5,13,-19,4
1491695235852,3,-27,3,-9,-1,3,8,-9,3
1491695235855,0,45,-1,8,5,5,4,32,0
1491695235855,0,-5,6,-3,-3,-3,-16,-24,-9
1491695235856,2,22,0,-2,0,-4,-20,-22,-7
1491695235856,2,3,13,-2,-6,-8,-4,-10,1
1491695235856,3,52,-6,0,1,3,4,-14,-9
1491695235856,3,1,-11,8,11,1,2,1,13
1491695235901,0,-10,-2,-8,-8,2,10,58,9
1491695235901,0,-63,-4,3,1,7,8,21,8
1491695235902,1,24,-4,-2,0,1,1,22,2
1491695235902,1,-33,-7,-4,-9,-5,4,-33,1
1491695235902,3,1,5,8,6,0,-6,-43,-6
1491695235902,3,5,-1,0,0,3,19,42,25
1491695235903,0,4,-1,0,0,10,31,14,-5
1491695235903,0,5,-10,-10,-6,-6,-20,2,0
1491695235950,1,-33,0,-3,-2,-7,-10,0,-9
1491695235950,1,-3,-17,-3,-8,-3,-14,-21,-16
1491695235951,2,36,-3,11,10,4,22,4,7
1491695235951,2,33,6,-3,-4,1,-12,-33,1
1491695235952,0,28,-7,-6,-3,-5,-3,-19,-9
1491695235952,0,3,3,3,-1,1,10,1,-5
1491695235954,1,32,6,-6,0,-7,-21,-1,0
1491695235954,1,4,2,6,4,1,-1,-35,-21
1491695235998,2,-32,-31,-16,-5,5,12,-1,-4
1491695235998,2,-2,-22,5,-2,-16,-36,-53,-7
1491695236000,3,-34,-52,11,7,15,55,78,27
1491695236000,3,34,-44,-6,-4,-2,-10,11,-5
1491695236002,1,-2,20,-6,-2,-1,-9,-22,-11
1491695236002,1,-26,31,3,2,-2,-6,21,-8
1491695236002,2,27,34,2,4,3,5,28,22
1491695236002,2,-96,24,0,-5,-1,13,23,-15
1491695236047,3,19,8,-2,-6,-9,-21,-37,4
1491695236047,3,22,13,5,9,11,31,36,-4
1491695236049,0,-10,5,1,-6,-10,-25,-12,-4
1491695236049,0,-9,-5,-7,-5,-4,2,-7,-2
1491695236050,2,-16,7,1,-5,-4,2,10,6
1491695236050,2,-39,-3,-2,9,19,45,72,-5
1491695236051,3,-5,10,1,-1,-6,-28,4,7
1491695236051,3,-35,29,-1,3,1,3,-7,-6
1491695236096,0,-78,2,9,2,-7,-30,-39,-12
1491695236096,0,104,3,-9,-9,-5,19,6,21
1491695236096,1,2,0,3,-2,-7,-19,-26,-17
1491695236096,1,-6,-4,-3,-1,6,27,61,32
1491695236097,3,51,-5,-1,-1,0,1,-5,-1
1491695236097,3,26,-7,2,-3,-7,-10,0,19
1491695236098,0,8,-8,-10,-18,1,19,27,-5
1491695236098,0,-35,-9,-1,8,1,2,6,-7
1491695236144,1,64,8,15,12,12,15,-6,8
1491695236144,1,-128,-14,3,0,-5,-12,-15,-14
1491695236145,2,75,-2,0,1,-2,-27,8,-6
1491695236145,2,0,5,-5,-8,6,7,-37,9
1491695236146,3,22,6,-7,-1,1,37,21,-10
1491695236146,3,-19,2,3,-4,-10,-41,-40,-21
1491695236147,0,3,1,-2,-6,2,12,34,27
1491695236147,0,73,3,-1,1,-16,-31,-67,4
1491695236193,1,-33,-11,-8,-7,8,35,30,-17
1491695236193,1,24,2,3,0,-3,-11,9,2
1491695236194,2,-30,-11,-3,1,-1,7,8,4
1491695236194,2,-33,3,-1,-7,-6,-30,-40,-27
1491695236195,0,-22,-3,2,7,5,4,-4,1
1491695236195,0,-82,-4,-7,-11,-2,-4,-5,-10
1491695236196,1,-23,-4,5,7,-2,0,17,3
1491695236196,1,21,-13,-5,-10,-9,-14,-20,-7
1491695236245,2,-2,-2,2,4,-1,-8,-19,0
1491695236245,2,-52,-20,3,6,9,10,24,0
1491695236246,3,45,-19,-17,-11,-7,-22,-13,-7
1491695236246,3,4,-5,3,4,-2,9,15,2
1491695236247,1,-73,28,1,0,-3,-51,-13,7
1491695236247,1,12,50,-6,2,1,15,1,3
1491695236248,2,-5,24,-5,-8,-17,-27,-10,-4
1491695236248,2,124,16,5,8,8,7,44,-1
1491695236291,3,-22,-24,-3,0,1,26,0,4
1491695236291,3,-8,-26,-5,-12,-1,15,19,-13
1491695236292,0,24,1,8,7,3,-17,-23,1
1491695236292,0,-3,-19,1,-7,-6,-15,-21,-8
1491695236300,2,-44,-25,-5,4,6,20,5,-2
1491695236300,2,41,-21,-3,-5,-12,5,29,1
1491695236301,3,1,-1,10,9,9,2,-14,-6
1491695236301,3,-73,36,-12,-13,-11,-41,-73,-34
1491695236340,0,57,16,3,4,1,21,58,23
1491695236340,0,-16,3,2,-1,1,-1,9,-4
1491695236341,1,10,70,1,3,-2,11,-22,-1
1491695236341,1,-51,38,-6,-3,-10,-19,21,8
1491695236341,3,-72,-35,-6,-14,1,30,14,-4
1491695236341,3,3,-54,0,15,8,-15,-24,-5
1491695236342,0,-15,-13,16,4,-4,16,-9,-21
1491695236342,0,-38,-17,-4,-3,2,-13,-14,15
1491695236388,1,18,-30,-7,-3,-5,-4,-14,-14
1491695236388,1,8,-15,-1,-5,1,-1,17,-10
1491695236390,2,-1,-25,-11,-3,-9,-22,-31,10
1491695236390,2,-29,4,-1,2,4,21,34,-9
1491695236390,0,0,2,2,-2,5,12,1,0
1491695236390,0,1,4,-3,-1,-2,-20,-30,0
1491695236391,1,-43,-1,-4,3,10,28,25,-18
1491695236391,1,95,-3,10,9,-2,-12,31,24
1491695236437,2,21,-6,0,-4,3,46,-12,-4
1491695236437,2,-10,15,-4,-9,-10,-34,-3,2
1491695236438,3,16,-3,-1,-1,0,-12,-6,-2
1491695236438,3,-17,-11,3,9,7,28,-21,1
1491695236439,1,-53,2,-3,-7,-9,-6,4,16
1491695236439,1,-39,-8,-6,-5,-5,-7,-27,1
1491695236440,2,37,12,0,3,14,23,43,14
1491695236440,2,-43,0,-8,-11,-5,-9,-11,-26
1491695236486,3,41,-6,0,4,-3,6,59,19
1491695236486,3,-21,-2,2,-3,1,-13,-36,-21
1491695236491,0,50,1,-5,-7,-8,16,-7,6
1491695236491,0,-67,-2,-2,-3,-6,-24,-4,16
1491695236492,2,-17,-7,1,-2,-5,-32,-31,-6
1491695236492,2,1,-1,-2,2,1,49,21,7
1491695236493,3,-12,-3,-2,-4,-11,-50,-24,0
1491695236493,3,-59,-2,1,6,8,2,19,-3
1491695236534,0,-22,2,-1,-2,-13,-28,-70,-32
1491695236534,0,-57,12,3,5,19,35,63,7
1491695236536,1,14,-8,-7,-4,0,0,-46,-2
1491695236536,1,92,-10,-7,-6,-7,5,27,1
1491695236537,2,-79,0,0,-7,-7,-35,-37,-25
1491695236537,2,77,-4,-2,-1,-10,5,-42,-7
1491695236538,3,-52,-8,-2,-5,4,-21,21,-19
1491695236538,3,95,6,-3,-3,-5,25,-11,14
1491695236583,0,-7,-8,3,12,7,-18,23,22
1491695236583,0,14,-5,-5,-11,-10,39,8,-21
1491695236585,1,-81,14,5,-1,10,-10,18,6
1491695236585,1,60,8,4,2,-1,-11,-8,-3
1491695236586,3,6,3,1,1,-7,33,-37,1
1491695236586,3,-11,-5,-7,-3,8,-6,45,14
1491695236587,0,52,-7,-1,3,-12,-10,-38,2
1491695236587,0,-39,-2,-14,-11,0,54,56,7
1491695236632,1,-29,1,3,-8,-4,47,-31,-19
1491695236632,1,-23,3,0,8,-13,-98,5,2
1491695236633,2,11,-8,-5,-5,1,-34,8,3
1491695236633,2,-8,-2,-4,0,-1,9,-6,1
1491695236634,0,68,25,4,-1,-7,-52,7,26
1491695236634,0,4,0,-3,10,17,80,16,0
1491695236635,1,0,-10,-15,-14,-13,-54,17,-10
1491695236635,1,5,11,25,4,4,35,-13,-1
1491695236681,2,80,-11,-8,-3,1,-44,-25,-7
1491695236681,2,-55,-9,0,0,9,52,9,-2
1491695236682,3,14,-2,3,9,0,-46,23,11
1491695236682,3,-18,-6,-13,-17,-15,-33,-12,1
1491695236683,1,34,-10,-9,6,9,16,45,10
1491695236683,1,-68,7,18,3,-5,-6,-69,-12
1491695236684,2,5,-19,-12,-7,3,2,47,1
1491695236684,2,16,5,-9,-1,-2,-52,-30,1
1491695236730,3,-20,2,3,5,10,21,-2,-23
1491695236730,3,87,-4,3,-4,-8,-23,-8,14
1491695236731,0,-71,6,-2,-8,-4,36,-2,-9
1491695236731,0,-37,-10,-7,-7,-8,17,-26,-18
1491695236732,2,-26,12,15,4,-6,-11,-24,-17
1491695236732,2,24,-7,1,-12,-16,-47,-57,-3
1491695236733,3,-61,-1,-8,-3,-12,-56,0,12
1491695236733,3,13,13,8,24,36,67,84,-5
1491695236778,0,67,-18,-27,-19,-13,-26,23,18
1491695236778,0,-56,-17,0,-6,-12,-31,-76,-38
1491695236780,1,46,13,30,-8,-3,88,28,-1
1491695236780,1,-9,3,-3,1,-17,-90,-31,1
1491695236781,3,60,-29,-31,-21,-21,22,-49,3
1491695236781,3,-57,7,5,6,-2,-39,-8,-21
1491695236782,0,-16,-8,-16,-12,1,45,-15,6
1491695236782,0,-88,9,15,2,-3,-64,-6,-21
1491695236827,1,-73,-5,-3,-6,-11,-24,-56,3
1491695236827,1,122,24,20,10,20,122,0,21
1491695236828,2,-94,-17,-14,5,11,-76,46,23
1491695236828,2,41,-2,-30,5,20,0,16,-4
1491695236829,0,-36,22,39,0,-14,-8,-22,12
1491695236829,0,-14,3,18,-5,-2,58,45,26
1491695236830,1,115,23,-5,12,24,15,11,8
1491695236830,1,-71,-41,-36,-7,-2,-2,41,-12
1491695236876,2,121,11,15,10,13,-1,7,3
1491695236876,2,8,7,6,4,-4,-13,9,2
1491695236877,3,-9,-5,-18,-11,-27,-10,-64,-34
1491695236877,3,-43,7,16,-21,-32,-12,-17,25
1491695236878,0,-86,-18,-20,5,23,1,66,-19
1491695236878,0,7,10,27,11,15,15,42,32
1491695236879,1,-2,-39,-36,-3,2,9,26,-23
1491695236879,1,-51,33,-15,-28,-49,-67,-62,-17
1491695236924,2,21,21,53,19,13,19,-20,-20
1491695236924,2,-91,10,-33,-2,1,49,-4,-7
1491695236927,3,21,4,40,0,3,-11,25,15
1491695236927,3,-17,-42,-15,8,12,-30,6,-11
1491695236928,1,-57,110,3,-6,-3,33,-33,-9
1491695236928,1,109,98,16,18,1,-33,32,28
1491695236928,2,27,47,-10,17,35,63,15,13
1491695236928,2,-9,-46,-19,-29,-27,-20,-73,-47
1491695236974,3,-3,-45,-21,-8,9,47,60,27
1491695236974,3,-27,-39,55,0,3,-56,-21,11
1491695236975,0,-5,-50,-19,8,-15,-42,10,-20
1491695236975,0,23,8,26,16,-19,-42,-24,-18
1491695236976,2,0,-9,-6,-9,17,89,16,17
1491695236976,2,56,-24,-3,3,3,-14,26,18
1491695236977,3,-1,22,8,6,-10,-43,-25,-8
1491695236977,3,9,27,-26,-7,0,19,31,7
1491695237022,0,-13,32,-4,-14,-41,-54,-70,-23
1491695237022,0,-23,-8,-22,-31,-23,-38,-34,2
1491695237023,1,49,-11,18,21,18,55,65,27
1491695237023,1,-32,-36,-6,-4,8,-30,-17,2
1491695237025,3,32,-28,-24,-23,-25,-8,1,3
1491695237025,3,-14,-17,-14,-6,1,25,1,-17
1491695237026,0,-12,-1,20,-16,-8,-19,23,12
1491695237026,0,12,24,29,10,12,48,25,3
1491695237071,1,16,-9,44,39,20,-75,7,6
1491695237071,1,0,-41,-31,13,3,37,26,13
1491695237102,2,3,-29,-23,-30,-17,-1,-12,-26
1491695237102,2,3,-37,-7,-21,-18,-4,-38,-3
1491695237103,0,13,26,40,29,30,-56,27,13
1491695237103,0,-16,-2,45,1,7,-10,3,-6
1491695237104,1,4,47,1,-14,-20,-83,-28,-19
1491695237104,1,22,70,-7,-3,-8,5,32,20
1491695237120,2,-11,53,-62,-32,-32,-4,-52,-11
1491695237120,2,1,92,64,11,19,118,48,18
1491695237121,3,-13,-9,-25,22,16,-104,-15,6
1491695237121,3,-10,2,53,4,17,94,11,-7
1491695237121,1,-42,-40,-91,-56,-46,12,-10,-32
1491695237121,1,33,17,33,-18,-7,-7,6,24
1491695237122,2,3,-3,4,21,19,42,-3,0
1491695237122,2,34,-36,11,36,31,65,83,10
1491695237168,3,12,-96,-2,17,26,-71,-68,-1
1491695237168,3,-42,-98,2,-20,-15,0,-12,-7
1491695237170,0,20,-123,-64,-25,-19,-12,-1,1
1491695237170,0,-21,-22,-5,-2,-14,-93,-10,23
1491695237171,2,53,95,-5,-21,89,-57,25,21
1491695237171,2,-26,-64,-35,-22,-37,14,-63,-23
1491695237171,3,59,-44,87,-23,-29,71,55,28
1491695237171,3,-12,-49,11,22,-18,-106,-29,-1
1491695237217,0,-65,21,-30,17,29,127,105,13
1491695237217,0,30,83,79,44,51,-10,-86,-3
1491695237218,1,-95,33,-9,39,102,-95,-102,-30
1491695237218,1,122,-28,-54,-53,-87,-88,118,60
1491695237218,2,-34,-35,82,12,-13,-5,-88,-42
1491695237218,2,15,-90,-77,-48,-75,60,71,25
1491695237219,3,-33,0,26,9,-38,127,-14,-11
1491695237219,3,-18,31,-17,-15,56,-95,-97,-30
1491695237266,0,14,20,22,49,6,76,66,30
1491695237266,0,-23,-12,-22,-34,-41,-128,-94,-32
1491695237267,1,-15,53,-7,6,-23,100,46,-20
1491695237267,1,-44,50,-6,46,79,50,89,22
1491695237267,3,16,-2,-33,-57,-93,-128,39,17
1491695237267,3,19,-6,2,-47,-43,-3,13,9
1491695237268,0,-17,-55,2,12,1,-6,-53,8
1491695237268,0,81,-4,5,47,5,77,76,81
1491695237314,1,4,-49,-16,8,29,-22,0,-47
1491695237314,1,45,13,29,34,75,65,-54,16
1491695237316,2,-12,-7,-13,-10,-1,-6,51,22
1491695237316,2,3,98,-10,-11,-40,-83,-24,-12
1491695237318,0,15,11,-22,-21,-15,-23,-11,-19
1491695237318,0,11,9,-12,-3,3,-6,15,8
1491695237318,1,-9,11,-48,6,3,10,1,-3
1491695237318,1,-10,51,75,-6,-15,-11,-28,-33
1491695237363,2,-13,-6,8,6,22,-9,-7,13
1491695237363,2,-19,-27,13,-12,-9,-3,18,-26
1491695237365,3,21,31,89,13,-14,2,-13,22
1491695237365,3,-4,-22,-60,4,10,-1,-24,-9
1491695237367,1,-11,-101,-52,-46,-9,-11,-16,-3
1491695237367,1,-19,-128,38,-35,0,-7,-7,-27
1491695237368,2,4,-60,-66,-12,-3,-7,-4,10
1491695237368,2,-37,-69,-58,-22,-22,-7,-8,-10
1491695237412,3,-7,-44,31,18,12,-1,-29,37
1491695237412,3,-17,-37,-38,-7,6,5,-17,-48
1491695237414,0,7,22,-21,-11,-7,-3,10,-14
1491695237414,0,-1,54,-27,0,-2,9,19,-29
1491695237415,2,-39,74,56,23,41,79,-34,-5
1491695237415,2,-20,-11,-55,16,12,-89,14,-22
1491695237416,3,51,127,15,19,-33,-21,18,25
1491695237416,3,69,15,5,-43,-22,33,63,-51
1491695237461,0,-67,33,-8,15,61,-54,26,28
1491695237461,0,-9,64,13,-17,-3,95,46,-5
1491695237462,1,14,6,-25,-21,-44,-49,-37,-20
1491695237462,1,-40,-10,17,29,-5,47,49,72
1491695237463,3,-62,4,-16,-18,52,96,52,16
1491695237463,3,-75,-36,-45,-5,-11,-58,-98,-77
1491695237464,0,109,104,64,22,-16,-47,67,47
1491695237464,0,-87,84,6,-12,-4,-28,-86,1
1491695237510,1,118,54,-4,40,-2,7,41,38
1491695237510,1,-88,-12,18,-18,1,50,-39,37
1491695237521,2,-128,-31,-13,-28,-54,-75,-64,19
1491695237521,2,118,-64,-37,6,40,75,84,-31
1491695237522,0,-24,50,-17,-5,-35,-29,7,-46
1491695237522,0,-128,16,10,-12,-13,-12,-14,-1
1491695237524,1,36,-70,-18,-5,16,-6,23,-29
1491695237524,1,-16,-76,-44,8,12,24,-13,-12
1491695237558,2,127,-40,-1,-15,-55,-62,-58,21
1491695237558,2,-68,30,25,2,17,-8,-59,-42
1491695237559,3,-99,-42,-16,-1,26,37,89,-2
1491695237559,3,29,3,1,1,2,48,35,-56
1491695237559,0,29,15,-1,-8,-20,-49,61,15
1491695237559,0,42,5,-2,-11,-15,-3,-1,-10
1491695237561,1,3,-21,15,20,16,17,-16,-7
1491695237561,1,-41,-20,4,4,14,-41,21,-6
1491695237607,2,-128,-98,-7,16,28,111,102,50
1491695237607,2,102,-48,-2,17,-11,-13,6,25
1491695237608,3,-24,-43,-11,-27,-20,-32,-45,-18
1491695237608,3,-73,-30,-10,-24,-8,-49,-7,-7
1491695237608,1,11,-27,-19,-17,-19,-5,-9,8
1491695237608,1,51,6,-3,10,2,21,40,4
1491695237609,2,-16,-3,0,-23,-13,19,-46,-10
1491695237609,2,7,-33,-6,-16,-12,-17,-12,7
1491695237656,3,53,-37,-2,24,41,18,48,8
1491695237656,3,15,-2,4,17,5,-12,3,15
1491695237656,0,-58,-27,3,1,-4,26,-14,-37
1491695237656,0,42,0,-4,0,-13,-94,-36,-3
1491695237657,2,18,11,19,9,17,50,36,7
1491695237657,2,-41,-8,-16,-7,14,1,8,11
1491695237658,3,3,-5,-10,-19,-14,-42,-61,-30
1491695237658,3,-16,-5,27,22,-14,2,5,8
1491695237704,0,-7,9,-8,-22,-12,-14,8,1
1491695237704,0,3,0,4,-8,2,27,15,7
1491695237705,1,-10,-23,-21,-11,-11,-33,-36,-10
1491695237705,1,13,-11,9,20,16,3,-70,0
1491695237706,3,23,-2,-2,-13,-3,-17,-46,-11
1491695237706,3,83,39,2,13,5,-26,33,3
1491695237707,0,8,13,7,5,2,-21,-69,-2
1491695237707,0,-52,23,11,-5,-10,-4,12,11
1491695237753,1,-35,39,1,4,-10,12,30,23
1491695237753,1,34,16,-22,-27,-8,1,16,-8
1491695237754,2,-57,1,-3,-10,10,5,10,0
1491695237754,2,4,22,-9,-1,-4,16,7,-6
1491695237755,0,15,0,-4,6,-1,21,26,13
1491695237755,0,70,11,9,1,1,7,-35,-10
1491695237756,1,-64,-13,5,-6,-2,-2,13,1
1491695237756,1,51,-20,-15,-4,2,11,30,5
1491695237802,2,20,-42,-15,-5,-11,-26,-32,-19
1491695237802,2,13,-14,14,-8,-8,-6,-37,14
1491695237803,3,-62,-32,-8,17,21,16,36,14
1491695237803,3,-18,-10,-7,-3,2,7,1,-15
1491695237804,1,8,-13,16,1,-8,-19,-25,-11
1491695237804,1,-82,-9,15,11,5,-6,20,-23
1491695237805,2,58,17,-7,-2,0,8,23,1
1491695237805,2,-3,16,-6,3,14,39,50,5
1491695237851,3,-14,19,2,-3,-5,-8,-25,-11
1491695237851,3,2,-4,-7,-11,-10,-34,-19,-10
1491695237852,0,-5,19,-6,7,8,9,16,10
1491695237852,0,26,4,13,14,-13,-4,-2,-3
1491695237853,2,5,0,-8,-9,-10,-21,-11,-9
1491695237853,2,-24,-18,-3,5,9,-9,-1,-4
1491695237853,3,-11,9,1,-16,-9,-23,-45,-14
1491695237853,3,6,-11,-12,-11,-19,16,18,27
1491695237899,0,21,14,2,15,14,13,4,16
1491695237899,0,-18,-10,-6,-26,-4,2,17,-7
1491695237900,1,33,-11,1,20,2,-7,-18,17
1491695237900,1,-20,-9,13,17,9,-39,-39,-4
1491695237901,3,22,-7,1,-5,10,16,11,-8
1491695237901,3,-68,-9,-14,-17,-1,15,28,8
1491695237902,0,86,-6,19,31,-4,-32,-30,8
1491695237902,0,-36,3,-5,-17,-15,-48,-85,-23
1491695237948,1,28,-23,-4,7,8,21,74,41
1491695237948,1,-74,-6,8,20,34,35,15,-16
1491695237949,2,-30,-23,-9,6,18,79,48,5
1491695237949,2,83,-7,12,10,-24,-83,-49,0
1491695237949,3,-88,-59,-13,-32,-15,14,-2,9
1491695237949,3,89,-54,-1,7,-24,-1,45,-19
1491695237954,0,51,-14,-8,-52,-35,-7,43,-1
1491695237954,0,-103,26,17,45,50,0,-55,-18
1491695237997,1,87,21,-7,5,16,-18,-23,-6
1491695237997,1,96,78,-17,-30,11,34,-51,-19
1491695237998,2,-128,42,16,46,13,-22,46,-15
1491695237998,2,127,13,-16,-24,-9,105,64,16
1491695237998,0,11,74,-18,-37,-64,-128,-121,-41
1491695237998,0,19,97,-6,-12,42,59,42,38
1491695237999,1,-32,70,-6,41,-36,68,23,21
1491695237999,1,-11,64,7,-51,-21,20,40,-27
1491695238046,2,-119,0,17,45,122,-56,-29,-40
1491695238046,2,-4,-35,3,38,-74,42,57,57
1491695238046,3,11,-103,-24,-91,-92,-47,-71,-43
1491695238046,3,-100,-128,-27,9,-116,-30,-10,7
1491695238047,1,-22,15,6,22,-43,-56,-63,-38
1491695238047,1,-34,41,18,13,102,105,-74,9
1491695238048,2,-44,4,16,75,-41,-86,58,22
1491695238048,2,-18,-4,-58,-98,-59,64,15,18
1491695238094,3,-21,42,-4,-26,-109,-51,-3,6
1491695238094,3,-7,-34,-27,-2,71,19,-5,-12
1491695238095,0,-68,-54,-23,4,-45,60,-30,-9
1491695238095,0,74,14,42,26,127,5,10,-7
1491695238096,2,-23,0,-38,-102,107,126,-65,-65
1491695238096,2,14,-27,-24,-33,-128,-128,50,-7
1491695238097,3,45,-60,-28,-107,12,99,10,-17
1491695238097,3,-85,-3,-2,77,99,-85,89,50
1491695238143,0,105,21,60,26,-52,120,21,24
1491695238143,0,-108,1,32,68,127,70,-48,-14
1491695238145,1,58,3,-8,27,26,-83,22,9
1491695238145,1,-42,6,-1,-39,-16,-72,59,-23
1491695238145,3,60,-41,-38,24,21,-27,-21,-12
1491695238145,3,-45,-10,7,-17,-69,-110,20,41
1491695238147,0,53,6,-11,15,22,10,60,68
1491695238147,0,-45,-27,32,20,-41,-26,-79,-39
1491695238192,1,-98,-11,-12,27,-42,73,11,-23
1491695238192,1,49,52,65,22,17,40,-47,24
1491695238193,2,4,20,12,12,102,68,108,6
1491695238193,2,-78,3,-4,84,-31,-30,-75,3
1491695238193,0,-61,-18,25,55,-1,18,35,57
1491695238193,0,64,-41,-39,33,77,-44,5,-35
1491695238194,1,-128,13,38,32,-17,-53,-38,-46
1491695238194,1,77,29,28,-7,41,20,-46,22
1491695238241,2,-81,10,-8,-3,-34,-51,3,-15
1491695238241,2,0,-29,-30,-9,-2,63,-55,1
1491695238289,3,3,23,39,70,108,65,-5,-8
1491695238289,3,-33,-42,-27,-53,-102,81,2,0
1491695238290,1,-62,12,-18,-98,-45,-2,-109,22
1491695238290,1,-37,-68,4,-18,64,-29,4,-41
1491695238291,2,11,-23,36,96,-128,41,-5,22
1491695238291,2,-29,33,-9,-22,86,-90,-27,-43
1491695238338,3,101,64,29,-2,48,127,65,46
1491695238338,3,-128,-32,-44,-41,-2,-62,-79,-40
1491695238387,0,64,5,-43,-1,-128,-97,-95,5
1491695238387,0,127,29,46,-36,53,81,111,40
1491695238389,1,17,-13,-42,127,117,-128,11,-40
1491695238389,1,-65,7,-22,-77,-128,-16,-54,-23
1491695238390,2,-48,-1,-51,-76,106,54,59,66
1491695238390,2,4,-36,33,89,-1,-94,-128,-29
1491695238391,2,-77,-2,-18,-23,-115,-24,91,-2
1491695238391,2,-9,-42,-51,-97,34,-12,72,54
1491695238436,3,32,-68,9,15,59,-50,-2,-30
1491695238436,3,-80,30,46,127,14,127,1,-10
1491695238437,3,-103,45,29,-37,27,110,70,6
1491695238437,3,84,-51,-80,6,-41,-7,-16,-3
1491695238438,0,58,2,-63,-30,-1,57,26,-14
1491695238438,0,-87,39,0,67,118,25,40,-13
1491695238439,1,98,5,-24,-48,-128,-128,-63,38
1491695238439,1,-12,18,-11,112,109,127,22,-13
1491695238533,2,-52,-37,8,51,-8,-122,26,45
1491695238533,2,117,-48,-35,-117,-61,-6,14,-4
1491695238535,3,-128,5,13,93,6,42,-36,-49
1491695238535,3,17,31,25,35,34,7,-6,58
1491695238536,1,106,-14,-50,-51,-120,-112,-104,24
1491695238536,1,-75,-18,-9,16,52,127,116,8
1491695238537,2,24,-68,121,124,-53,-36,-77,-62
1491695238537,2,-61,-32,-62,-60,23,-44,67,-40
1491695238582,3,-35,-35,-5,-27,-110,52,6,23
1491695238582,3,84,-2,-35,-125,-12,-64,-81,-25
1491695238583,0,2,117,81,95,127,67,62,-5
1491695238583,0,27,10,4,-105,-87,-37,-5,33
1491695238584,2,41,-36,14,-68,18,29,21,29
1491695238584,2,-32,-102,22,40,118,101,-86,18
1491695238585,3,100,29,39,110,118,127,79,-12
1491695238585,3,-102,11,-61,-128,-128,-15,-44,-21
1491695238631,0,-30,35,-7,-63,-47,-14,-48,53
1491695238631,0,107,-1,30,109,81,122,83,22
1491695238679,1,-102,-17,-31,-83,-100,-45,63,-41
1491695238679,1,-38,12,34,-38,-30,85,36,72
1491695238680,3,-33,-68,-79,-44,-20,-114,-26,3
1491695238680,3,79,15,44,25,109,117,-26,30
1491695238681,0,-38,-24,22,15,14,-33,1,-19
1491695238681,0,125,0,-4,-37,-65,-83,-69,-8
1491695238682,1,-38,-66,61,61,127,127,20,-7
1491695238682,1,-25,-77,-118,18,38,-107,13,13
1491695238728,2,-28,-47,7,-5,25,9,29,4
1491695238728,2,49,40,8,67,127,118,110,17
1491695238730,0,10,91,-49,4,40,105,91,47
1491695238730,0,-8,28,26,105,88,77,31,-5
1491695238731,1,-19,-70,4,-121,-94,22,-7,-23
1491695238731,1,-32,-105,34,127,127,-17,-24,-18
1491695238733,1,101,36,-92,-27,-23,-40,-12,23
1491695238733,1,-77,18,45,-62,-128,-128,57,32
1491695238777,2,68,56,111,127,92,26,62,34
1491695238777,2,41,28,87,-26,14,-72,-34,-27
1491695238778,3,-13,-47,-76,-30,48,96,80,33
1491695238778,3,-48,-35,-5,50,-31,-4,-67,-28
1491695238778,2,-89,19,-68,-74,-66,-75,-125,-112
1491695238778,2,72,26,-3,91,86,79,95,68
1491695238779,3,11,30,23,41,-43,111,57,29
1491695238779,3,5,20,23,79,64,41,-14,24
1491695238826,0,99,-19,3,3,31,76,-55,-4
1491695238826,0,-128,-26,-72,-128,-128,-76,-103,-46
1491695238826,1,24,6,19,99,80,81,38,2
1491695238826,1,64,19,-21,106,19,78,29,-37
1491695238827,3,-11,-6,43,-2,-128,-46,-64,1
1491695238827,3,-72,-49,-76,68,46,-50,-1,-18
1491695238828,0,71,8,80,24,-73,81,19,1
1491695238828,0,122,41,58,-70,-21,127,127,54
1491695238874,1,-79,11,-111,-99,-96,-128,-109,-21
1491695238874,1,-36,28,39,-34,27,46,-19,-2
1491695238875,2,-84,-16,-85,-56,-67,96,16,3
1491695238875,2,-30,26,110,31,-47,-74,9,16
1491695238876,0,25,-38,27,28,38,-1,12,20
1491695238876,0,16,8,-33,104,127,72,9,-10
1491695238877,1,-8,-94,-48,-128,-66,-86,-59,-46
1491695238877,1,-19,-13,-86,-87,-5,-53,-14,-10
1491695238923,2,32,-5,73,109,-53,-15,8,40
1491695238923,2,4,-86,-38,25,85,6,5,-12
1491695238926,3,56,4,-34,78,126,14,-2,-5
1491695238926,3,-76,-38,56,-82,-128,-15,-14,-26
1491695238927,1,-47,-7,67,86,-30,40,-15,-43
1491695238927,1,-44,-14,3,-17,47,-54,-25,-6
1491695238928,2,-123,44,-85,-93,-108,-121,-55,-83
1491695238928,2,64,-1,-83,-38,-44,59,-21,36
1491695238972,3,50,29,-7,82,-27,-15,61,38
1491695238972,3,-68,8,61,90,56,84,-63,-24
1491695238973,0,-1,-56,-33,-38,-97,-2,52,-1
1491695238973,0,-21,-6,95,-30,-97,-71,-42,-17
1491695238974,1,33,-11,16,-45,16,-50,-22,27
1491695238974,1,127,-24,-25,20,30,44,8,19
1491695238975,2,-19,59,22,127,127,-15,4,34
1491695238975,2,-14,15,-16,-90,71,31,-25,-53
1491695239069,3,-98,6,-23,-8,-41,-6,87,9
1491695239069,3,-29,-57,-2,-128,-5,-88,-80,-32
1491695239071,0,89,-22,-11,69,61,-47,-17,56
1491695239071,0,-85,-6,30,127,127,117,115,-45
1491695239071,2,48,-81,-81,-128,-128,-112,7,72
1491695239071,2,57,-128,-41,127,123,-77,-77,-28
1491695239072,3,45,-30,78,123,127,104,25,2
1491695239072,3,73,43,73,90,33,127,107,21
1491695239118,0,-68,20,71,59,73,79,-24,-32
1491695239118,0,-36,38,-83,-108,-128,-87,-40,5
1491695239119,1,-41,26,-41,-6,37,-18,9,6
1491695239119,1,15,57,-85,-15,-128,-17,-15,20
1491695239120,3,62,6,17,-59,-24,17,-100,-51
1491695239120,3,2,82,-94,-81,-86,-110,-24,-20
1491695239167,0,-84,-14,2,61,27,52,23,-20
1491695239167,0,82,45,20,48,62,7,-22,-27
1491695239168,1,-6,-27,6,-60,-56,5,-13,-6
1491695239168,1,-14,-10,-109,-98,-59,-87,30,20
1491695239169,2,-15,-14,61,-34,-14,74,41,18
1491695239169,2,-17,-26,-13,49,-61,-100,-97,-30
1491695239170,1,-61,-24,-44,14,3,-62,-77,-13
1491695239170,1,-14,21,42,36,2,-8,1,-13
1491695239216,2,18,-51,-7,9,31,38,52,7
1491695239216,2,19,3,-40,-42,-53,-17,-7,-13
1491695239217,3,-7,16,12,9,67,7,-12,14
1491695239217,3,63,9,-19,-27,-57,-29,-9,17
1491695239218,0,-49,33,58,20,-18,-13,-36,-8
1491695239218,0,30,-35,3,-37,29,35,43,13
1491695239219,2,80,35,-22,-59,-47,-78,-25,0
1491695239219,2,4,-27,7,5,-22,3,-9,6
1491695239265,3,-14,-10,10,61,86,58,31,21
1491695239265,3,44,-12,-3,2,31,25,3,-25
1491695239266,0,51,1,-7,-9,-28,-33,-43,-9
1491695239266,0,27,-5,-1,-34,-30,3,-4,9
1491695239267,3,-11,54,49,24,19,-46,-8,9
1491695239267,3,-89,48,-44,-3,-31,-22,-7,-21
1491695239268,0,-40,62,40,50,27,7,1,-3
1491695239268,0,-19,56,-6,-18,2,10,-2,-10
1491695239313,1,4,1,13,-29,-22,-25,-13,2
1491695239313,1,-54,-34,14,39,68,31,2,4
1491695239314,2,-32,18,-28,-5,-14,-11,17,-3
1491695239314,2,-71,98,0,-47,-60,-2,-1,-15
1491695239315,0,46,42,2,9,12,12,36,-9
1491695239315,0,46,-25,12,10,5,-22,-40,-2
1491695239317,1,36,-41,-7,3,-23,37,56,-10
1491695239317,1,-21,-47,-23,0,15,-72,-66,-2
1491695239362,2,-78,-45,31,-18,-9,8,64,6
1491695239362,2,43,-71,-18,-11,-25,-33,27,28
1491695239363,3,39,-29,2,26,8,-23,-51,-35
1491695239363,3,-36,-63,-7,-49,-23,36,56,13
1491695239364,0,-50,-44,-6,-20,-43,-17,-27,-11
1491695239364,0,30,-23,9,9,-13,28,10,0
1491695239366,1,-25,-22,-13,33,60,-34,-23,-5
1491695239366,1,-109,-55,5,20,16,46,3,-9
1491695239411,2,16,-40,-13,-46,-21,-30,-40,4
1491695239411,2,-52,-41,-20,-8,-45,-25,10,-7
1491695239412,3,54,-22,0,7,6,67,53,23
1491695239412,3,40,56,20,41,54,-10,-8,-2
1491695239412,1,-2,-47,-13,-117,-107,-26,-24,-12
1491695239412,1,66,-38,-28,-8,-54,-96,-50,18
1491695239413,2,81,-26,5,56,70,119,38,26
1491695239413,2,-22,-31,31,80,101,25,-11,-23
1491695239459,3,15,-40,20,48,18,66,52,29
1491695239459,3,15,1,-9,-51,-69,54,8,-20
1491695239460,0,17,16,7,-22,-14,-23,-32,0
1491695239460,0,51,68,-11,-62,-52,-10,4,15
1491695239461,2,-22,-32,-12,2,29,-128,-16,25
1491695239461,2,-32,-38,-3,-49,-85,-20,-60,-13
1491695239462,3,37,4,5,47,88,21,-16,-41
1491695239462,3,-31,54,45,61,-5,-5,83,17
1491695239508,0,89,-24,-31,-76,-61,61,-7,2
1491695239508,0,-114,18,-6,-21,-47,60,23,-45
1491695239510,1,90,21,-12,-9,60,-106,-73,16
1491695239510,1,-127,-37,13,8,-41,76,10,19
1491695239511,3,-85,14,-32,54,79,87,-34,-25
1491695239511,3,127,45,16,-61,53,28,22,-3
1491695239557,0,-57,26,4,-45,-108,34,8,42
1491695239557,0,103,-10,-6,28,-19,56,-15,15
1491695239559,1,-102,-13,29,-1,18,38,61,59
1491695239559,1,9,50,-4,58,81,-77,-128,-35
1491695239560,2,-41,48,18,7,113,127,91,-9
1491695239560,2,-53,42,1,9,-39,-98,0,-9
1491695239561,0,93,-66,-16,-56,-41,14,19,-9
1491695239561,0,49,-8,-1,62,116,77,80,51
1491695239606,1,-90,28,9,-37,67,-56,15,9
1491695239606,1,92,9,2,18,-8,17,-20,-42
1491695239607,2,12,14,19,23,-58,44,-19,-2
1491695239607,2,-21,-59,-67,-94,-95,-59,-25,-54
1491695239608,3,13,7,-17,9,-104,-57,-51,-25
1491695239608,3,-32,-32,23,19,82,30,6,5
1491695239609,1,-40,-29,-35,-33,-94,-79,33,33
1491695239609,1,-12,-45,-23,-62,35,14,35,-11
1491695239654,2,-115,-9,-9,44,-36,-93,-35,-20
1491695239654,2,-47,-21,-4,-13,-2,-43,-42,-30
1491695239655,3,94,49,7,-53,-79,49,8,3
1491695239655,3,-24,-13,6,70,59,41,63,51
1491695239656,2,-96,-38,1,49,54,-6,46,11
1491695239656,2,8,1,3,-11,1,-29,32,-23
1491695239657,3,18,29,-6,-49,-85,77,-73,-23
1491695239657,3,-10,26,-11,-18,-3,10,32,11
1491695239703,0,70,44,-12,11,-13,-104,7,29
1491695239703,0,69,116,28,29,48,84,75,66
1491695239704,1,25,23,8,-7,36,-69,-10,-50
1491695239704,1,-71,31,12,9,-38,25,37,13
1491695239704,2,-53,-18,35,16,9,-25,-56,-40
1491695239704,2,80,-51,-5,26,81,127,65,13
1491695239706,3,92,-4,-25,-66,-91,-128,-8,33
1491695239706,3,-61,-47,-27,-39,-22,-36,-28,0
1491695239752,0,107,32,-12,2,-18,2,1,39
1491695239752,0,-38,66,41,96,105,29,29,-12
1491695239753,1,91,63,-15,28,63,127,88,73
1491695239753,1,-51,-19,-33,-45,-108,-128,-78,-62
1491695239753,3,24,-30,15,39,55,50,6,-1
1491695239753,3,4,10,18,14,52,127,72,13
1491695239754,0,81,-5,2,-11,1,-119,-111,1
1491695239754,0,-59,-56,-24,-47,-101,-8,7,-7
1491695239801,1,-42,-54,-14,-27,44,-5,8,-14
1491695239801,1,-8,-22,16,-20,-26,35,-28,7
1491695239801,2,-116,-31,12,-2,26,-9,36,-8
1491695239801,2,11,32,39,17,42,37,-90,-34
1491695239802,0,-58,45,-17,-8,-28,36,16,-33
1491695239802,0,55,-31,-41,-127,-92,-33,17,1
1491695239803,1,38,-24,-21,-4,-6,9,-82,-47
1491695239803,1,21,-14,15,33,-22,-87,-11,31
1491695239850,2,24,14,2,26,64,57,9,3
1491695239850,2,-31,-9,-6,51,-46,-116,-80,-34
1491695239850,3,24,14,41,-3,95,66,70,47
1491695239850,3,-86,-63,-41,-18,-50,96,-23,-9
1491695239851,1,-38,17,32,24,-28,-48,-19,-2
1491695239851,1,-114,-18,-21,-21,-11,6,-34,-77
1491695239852,2,104,-14,-5,-27,-18,42,93,53
1491695239852,2,13,-20,1,-51,-28,-98,-54,-16
1491695239898,3,-124,-50,-24,-11,-11,76,95,15
1491695239898,3,-4,3,24,63,100,-19,30,16
1491695239899,0,23,24,-9,25,-24,-11,-65,-39
1491695239899,0,98,34,-28,-29,11,23,19,49
1491695239900,2,-96,-79,-14,-9,-24,67,0,-78
1491695239900,2,37,-12,15,-11,34,25,1,9
1491695239900,3,-61,-15,-4,16,-85,19,22,-45
1491695239900,3,127,8,2,-20,59,16,39,23
1491695239947,0,-44,20,36,37,3,-70,-105,-22
1491695239947,0,69,-19,-12,4,0,34,127,26
1491695239947,1,-114,-35,-15,-23,-58,36,-58,-41
1491695239947,1,102,18,-28,-26,-69,-111,59,28
1491695239948,3,63,18,33,6,107,-63,-50,-4
1491695239948,3,-17,-12,6,56,-46,38,15,-5
1491695239949,0,127,-8,-24,-100,27,-29,-56,30
1491695239949,0,-85,-9,-13,8,-66,39,28,-8
1491695239995,1,-14,18,-9,-3,76,-91,-21,-15
1491695239995,1,72,8,-12,-9,-92,35,-18,-13
1491695239996,2,-15,-6,3,6,63,-114,-16,49
1491695239996,2,-128,-12,15,74,34,8,12,1
1491695239997,0,-71,48,5,78,38,70,-14,-49
1491695239997,0,125,30,13,-54,-61,-56,-98,-37
1491695239998,1,11,-27,-47,-67,-99,81,-63,-16
1491695239998,1,-23,-52,-18,-42,-78,-128,-20,4
1491695240044,2,13,-49,8,-12,-66,117,127,49
1491695240044,2,-128,25,32,127,127,-60,-116,-92
1491695240045,3,-28,6,1,-28,45,-19,113,11
1491695240045,3,-97,-18,-22,-85,-79,15,48,-18
1491695240093,0,106,-4,-13,-10,71,-46,-80,4
1491695240093,0,-48,-14,-19,-42,-35,48,28,8
1491695240094,1,89,-2,34,66,46,-128,59,88
1491695240094,1,-54,3,-34,15,28,127,108,-9
1491695240095,2,93,-11,32,38,-22,41,-14,-28
1491695240095,2,-123,18,31,30,36,-58,-59,-36
1491695240095,3,-13,-3,-9,37,109,-91,-67,-9
1491695240095,3,16,6,-10,-62,-55,48,15,34
1491695240142,1,-25,18,13,-100,-128,61,95,54
1491695240142,1,-72,-17,20,93,89,-33,-90,-128
1491695240143,2,118,55,53,83,63,82,11,31
1491695240143,2,-86,3,-3,-128,-43,86,2,12
1491695240143,3,-1,25,48,127,114,-67,112,24
1491695240143,3,-85,-31,-43,-103,-64,-6,-68,-38
1491695240144,2,-128,-18,9,108,62,86,44,25
1491695240144,2,122,5,-68,-122,-95,-79,-42,-62
1491695240191,3,-128,-53,-22,-37,9,-30,23,19
1491695240191,3,103,18,44,127,10,31,-9,64
1491695240193,0,46,8,-12,15,96,97,46,9
1491695240193,0,-54,10,50,53,23,-64,-7,45
1491695240194,3,-54,-8,12,72,126,20,18,13
1491695240194,3,-23,-10,-2,66,-66,-57,-5,-10
1491695240195,0,50,10,-42,-128,-128,29,45,-28
1491695240195,0,127,19,18,112,88,100,-38,35
1491695240240,1,-104,16,8,67,43,-7,-58,-56
1491695240240,1,-123,-17,-20,-31,-20,50,50,-37
1491695240241,2,19,-20,-12,-97,-73,-128,-117,-2
1491695240241,2,-85,-70,-40,31,15,91,127,-19
1491695240242,0,-102,-90,-33,3,-106,-128,31,-18
1491695240242,0,-3,53,33,-120,-124,127,-44,-45
1491695240243,1,67,33,41,20,-57,-11,45,22
1491695240243,1,-9,24,33,99,73,-50,-57,25
1491695240288,2,-71,2,3,-1,-120,-26,57,30
1491695240288,2,-42,-23,-62,-24,67,-43,116,24
1491695240289,3,-46,-1,38,78,13,34,-78,-74
1491695240289,3,68,15,-2,-63,115,98,112,47
1491695240290,1,-57,-55,6,-70,-54,-124,-16,20
1491695240290,1,-41,-19,-31,77,64,84,106,-33
1491695240291,2,104,31,91,120,3,127,-49,18
1491695240291,2,-110,9,3,-90,-36,-117,9,45
1491695240337,3,41,-31,-27,8,52,-75,-44,-22
1491695240337,3,-68,-5,-41,8,-85,105,41,26
1491695240338,0,122,-14,19,4,74,-28,109,15
1491695240338,0,-37,-26,5,25,-16,-86,-124,-65
1491695240339,2,14,-32,-112,-14,54,108,43,-42
1491695240339,2,20,45,110,-51,-55,-57,-52,85
1491695240339,3,-73,-11,-27,26,127,-41,-68,-46
1491695240339,3,-69,6,14,26,-128,63,45,15
1491695240386,0,-14,-25,-44,-128,6,1,105,5
1491695240386,0,60,51,19,118,60,0,-69,0
1491695240387,1,58,40,51,21,35,118,-16,-20
1491695240387,1,42,33,-3,16,80,-39,-8,-51
1491695240387,2,-15,8,40,-3,-52,-93,-79,46
1491695240387,2,-30,-66,-29,38,99,127,77,-21
1491695240388,3,-85,15,-24,-8,48,40,-69,-22
1491695240388,3,54,-12,-28,-22,-105,-41,20,16
1491695240434,0,33,-2,-10,-44,-106,34,-123,-28
1491695240434,0,-80,-6,-17,-76,21,-50,-5,-14
1491695240436,1,70,11,56,120,79,66,27,14
1491695240436,1,13,-11,-15,-80,-59,23,-42,-13
1491695240437,3,-101,-60,-121,-124,-89,-97,18,24
1491695240437,3,-23,-35,0,-34,-109,-77,-122,-66
1491695240438,0,-32,-30,4,63,58,54,57,35
1491695240438,0,-23,-91,-43,-1,98,108,2,-17
1491695240483,1,-11,-5,37,-1,-58,92,91,39
1491695240483,1,69,38,-36,-10,-89,-6,-24,-44
1491695240484,2,-28,93,79,31,121,-18,12,40
1491695240484,2,-81,34,-25,45,-60,109,33,17
1491695240485,0,-29,-20,-5,-58,-89,113,8,-26
1491695240485,0,32,-53,33,-74,-62,-67,-11,16
1491695240486,1,54,-128,-62,-6,-128,-61,31,1
1491695240486,1,-40,-57,63,73,114,101,-59,-6
1491695240532,2,33,-118,42,-21,-75,48,-49,-4
1491695240532,2,-3,-44,-74,-99,-84,-99,30,10
1491695240533,3,-17,28,-34,58,86,108,-3,-18
1491695240533,3,9,109,116,-72,-4,61,-63,-30
1491695240534,1,-73,44,55,115,127,-76,-58,-54
1491695240534,1,19,-24,-47,-36,-113,-76,119,10
1491695240535,2,-27,19,3,-99,-78,33,-76,-35
1491695240535,2,31,24,63,71,75,27,49,29
1491695240581,3,32,-4,-17,-85,-86,15,-21,27
1491695240581,3,-55,-19,-15,-77,-32,-128,-66,-35
1491695240582,0,67,8,22,24,-128,32,74,32
1491695240582,0,40,61,-90,112,127,62,31,-19
1491695240582,2,-19,-12,-6,-96,-113,-104,29,15
1491695240582,2,7,-36,34,83,69,-7,-11,-25
1491695240583,3,30,-46,-91,10,103,35,12,28
1491695240583,3,-28,-19,111,63,38,8,-19,-15
1491695240629,0,-1,-84,-128,5,-4,-82,-46,8
1491695240629,0,-27,-97,-51,82,13,26,6,-8
1491695240630,1,3,37,89,48,69,-22,16,-3
1491695240630,1,22,16,-23,118,50,127,77,37
1491695240631,3,-12,-112,-61,-26,81,55,37,45
1491695240631,3,25,-82,-28,-29,-110,35,-16,-19
1491695240632,0,20,-106,40,-5,127,-12,46,33
1491695240632,0,-33,-51,-41,19,-22,22,-2,-7
1491695240680,1,5,103,92,123,79,76,-1,-8
1491695240680,1,5,127,5,-23,-54,54,14,13
1491695240681,2,-11,69,-31,17,17,-106,-46,-44
1491695240681,2,-6,107,-80,-128,-105,-34,-4,-18
1491695240681,0,63,45,84,127,-69,127,66,-30
1491695240681,0,56,6,42,-20,127,-27,-25,21
1491695240682,1,-21,3,16,-92,-128,-49,-6,-37
1491695240682,1,-42,-38,-18,-44,43,7,-27,-9
1491695240727,2,-16,26,-39,78,83,53,-15,5
1491695240727,2,12,15,91,-23,-2,39,36,-5
1491695240728,3,-33,7,-82,-128,-115,-113,0,-11
1491695240728,3,61,-2,-30,65,44,-56,-11,6
1491695240729,1,7,-25,38,42,120,67,-5,9
1491695240729,1,14,-11,-13,-106,-128,-1,-3,-5
1491695240729,2,-23,-96,-54,-9,114,-19,33,-1
1491695240729,2,-17,-114,26,9,-28,14,-16,3
1491695240776,3,108,-101,-69,83,-25,-24,-21,-26
1491695240776,3,-98,-100,76,-80,-41,9,33,8
1491695240777,0,28,-54,-11,26,16,12,-12,-1
1491695240777,0,-36,21,13,-36,-57,14,-20,11
1491695240777,1,-34,27,-24,30,35,34,10,-29
1491695240777,1,41,53,-33,7,12,-43,20,9
1491695240778,2,-69,46,-48,-77,-37,-81,-65,-6
1491695240778,2,67,26,15,37,-64,-14,10,-16
1491695240824,3,-7,56,-58,-69,-9,38,40,2
1491695240824,3,15,25,37,-10,-21,-62,-89,-12
1491695240825,0,-2,9,53,96,78,78,47,10
1491695240825,0,20,19,-38,1,30,38,8,-8
1491695240827,2,-33,-16,37,72,-56,-33,-33,-5
1491695240827,2,-34,9,-28,-51,-19,24,22,-24
1491695240828,3,42,12,12,58,41,12,13,13
1491695240828,3,-42,-9,-56,-128,-110,13,2,-4
1491695240873,0,-77,5,45,64,-1,-70,-23,3
1491695240873,0,-120,6,43,104,112,49,35,6
1491695240874,1,28,3,25,-25,-27,-5,8,25
1491695240874,1,17,-1,-33,22,-13,-55,-45,-22
1491695240875,3,-16,-5,24,-4,-80,29,23,-8
1491695240875,3,29,0,-68,-12,42,15,-14,23
1491695240876,0,1,0,-68,-128,-128,-70,-40,-11
1491695240876,0,-34,-3,8,38,25,6,21,3
1491695240922,1,-25,5,48,69,73,39,12,-8
1491695240922,1,53,0,9,98,88,27,22,20
1491695240923,2,-51,-3,16,-56,-33,23,-12,-6
1491695240923,2,55,1,0,72,112,10,17,14
1491695240923,0,65,-5,-11,-22,-86,-72,-33,-14
1491695240923,0,63,1,46,-66,-67,2,32,20
1491695240924,1,-4,2,21,106,116,-1,7,1
1491695240924,1,-24,-3,67,42,92,46,19,-31
1491695240971,2,-7,0,-34,-23,66,52,16,22
1491695240971,2,-13,1,-82,-71,-88,-51,-28,-4
1491695240971,3,56,0,-2,17,0,-9,9,6
1491695240971,3,-38,-1,30,-16,-34,-40,-17,-12
1491695240972,1,-4,-3,-23,-30,-10,-23,-9,0
1491695240972,1,-40,-1,-7,52,21,5,-6,1
1491695240973,2,103,-1,-10,-37,-10,-11,-8,18
1491695240973,2,10,-1,30,12,-19,5,18,-5
1491695241019,3,-15,1,-8,-11,70,26,-3,-7
1491695241019,3,84,-1,-18,-32,-122,-60,-43,-14
1491695241020,0,-61,97,-11,-54,-40,5,30,17
1491695241020,0,37,115,-59,25,28,15,-3,-15
1491695241020,2,13,-32,12,58,79,54,36,21
1491695241020,2,-67,10,58,49,65,29,40,-3
1491695241068,3,35,47,-32,-84,-82,-72,-36,-4
1491695241068,3,-38,109,-49,-61,-34,4,-17,4
1491695241069,0,30,127,-25,9,-20,-30,-36,14
1491695241069,0,-22,44,23,39,31,8,17,-18
1491695241069,1,10,-66,4,73,81,59,-7,-17
1491695241069,1,116,-106,-12,-72,-58,-6,19,26
1491695241070,3,-64,-109,19,1,-56,-15,-17,-30
1491695241070,3,-65,-82,-9,7,39,35,42,-6
1491695241117,0,-69,-14,17,36,38,39,-5,7
1491695241117,0,93,21,2,-2,19,49,1,1
1491695241118,1,-58,51,-2,21,74,-34,13,9
1491695241118,1,-74,-8,5,-9,-55,-3,-29,-18
1491695241119,2,-80,-1,-12,-40,-74,-78,-49,-20
1491695241119,2,-98,31,-13,-7,-69,-34,22,-15
1491695241120,3,47,24,28,67,93,62,-15,17
1491695241120,3,48,28,18,-24,-21,-59,4,6
1491695241166,0,-35,-36,-22,-37,-2,47,23,-10
1491695241166,0,-2,-92,-5,-3,-5,-16,-31,8
1491695241167,1,-52,-63,1,20,-16,17,2,6
1491695241167,1,4,-55,-13,-24,-68,-28,30,2
1491695241168,0,-19,-53,30,7,-68,17,12,-15
1491695241168,0,76,-59,-66,-23,101,47,8,26
1491695241168,1,-58,-36,27,-31,-96,-36,-42,-33
1491695241168,1,-21,-22,-4,-3,100,-31,7,12
1491695241214,2,-25,-18,5,-3,-1,43,10,-2
1491695241214,2,-18,18,5,-11,-75,-100,-63,-6
1491695241215,3,-34,4,-14,-15,-34,37,20,-1
1491695241215,3,-35,-1,2,8,-38,6,-8,4
1491695241216,1,97,-6,-30,-47,-18,5,36,-3
1491695241216,1,29,20,-2,47,0,46,-3,7
1491695241217,2,-49,-19,13,34,124,-45,-35,-33
1491695241217,2,-35,32,4,-32,-55,52,-15,-7
1491695241263,3,79,-24,-33,-46,-40,21,5,-6
1491695241263,3,-84,-35,7,15,-74,37,54,0
1491695241264,0,9,-7,15,16,14,95,9,-10
1491695241264,0,90,5,-3,1,79,-126,-48,-7
1491695241265,2,63,16,-11,38,-8,36,35,-3
1491695241265,2,-24,5,11,-32,24,-12,53,17
1491695241266,3,50,23,3,25,43,56,-28,-11
1491695241266,3,-18,-9,-4,-43,-76,-112,-75,-13
1491695241312,0,0,15,20,31,-38,-19,53,30
1491695241312,0,107,20,15,43,83,22,-65,-18
1491695241313,1,-51,35,23,-24,0,59,78,20
1491695241313,1,8,46,-4,49,34,-60,32,-12
1491695241314,3,34,4,-12,0,11,-52,-2,20
1491695241314,3,127,31,36,52,114,21,-86,-8
1491695241315,0,-60,54,13,24,49,77,65,22
1491695241315,0,90,62,7,-3,-61,29,-7,-3
1491695241361,1,-25,73,-13,-27,36,73,-1,-3
1491695241361,1,-57,24,-13,28,-36,89,53,-1
1491695241362,2,-84,-38,-59,-128,-116,-128,-101,-19
1491695241362,2,-2,-39,21,46,-61,127,16,-5
1491695241363,0,-31,-25,4,42,32,74,2,-3
1491695241363,0,-95,-20,26,23,46,60,127,17
1491695241363,1,46,7,-4,-7,-54,-111,-114,-89
1491695241363,1,-60,-55,12,10,49,56,97,67
1491695241409,2,36,11,-5,-6,-99,-61,-24,-27
1491695241409,2,14,-15,-45,-35,-7,23,-11,-19
1491695241411,3,-93,15,16,-37,-79,-78,25,37
1491695241411,3,-63,-27,-9,-16,-33,-45,-25,-33
1491695241411,1,-51,-22,20,75,127,123,74,-14
1491695241411,1,24,5,-15,-84,-107,127,-118,-43
1491695241413,2,71,15,-18,-16,-112,-90,-16,30
1491695241413,2,-86,-54,-19,-7,59,121,69,24
1491695241458,3,-40,-28,11,32,36,7,-95,-60
1491695241458,3,65,36,23,26,46,112,121,56
1491695241459,0,26,15,-4,-14,-24,-74,-39,-44
1491695241459,0,49,7,-4,-15,-17,-83,16,-4
1491695241460,1,80,52,0,11,-79,44,-27,60
1491695241460,1,-63,0,-3,31,127,-36,-19,-32
1491695241461,2,100,-18,8,-46,-117,-36,0,27
1491695241461,2,-84,58,14,-19,-110,11,-64,-56
1491695241507,3,87,6,-26,3,81,-4,97,0
1491695241507,3,-47,49,9,22,-33,-11,-68,5
1491695241508,0,-58,22,12,2,85,86,-14,-4
1491695241508,0,-9,-21,1,19,23,-61,39,-20
1491695241509,2,43,107,-3,31,120,-123,-56,-2
1491695241509,2,34,112,9,13,3,127,104,31
1491695241510,3,56,73,2,68,45,-18,-58,4
1491695241510,3,11,-32,12,75,4,1,-27,-11
1491695241604,0,-128,-69,-21,-6,5,-25,-4,-30
1491695241604,0,-24,-42,43,41,7,34,1,15
1491695241605,1,96,-78,-38,-113,-100,-51,23,33
1491695241605,1,-83,-85,-43,-79,-106,9,-21,-40
1491695241606,3,-104,-41,35,-6,-1,116,47,-32
1491695241606,3,120,-45,-3,18,99,41,3,-26
1491695241607,0,-41,-2,9,-3,-22,-54,-48,-1
1491695241607,0,-1,-31,-1,-58,-11,-33,-62,-3
1491695241653,1,-128,-30,-10,17,-23,22,-27,-33
1491695241653,1,127,-33,-35,-29,-69,-88,15,18
1491695241654,2,-3,-3,27,-17,-2,97,20,-6
1491695241654,2,-11,-25,-12,23,25,-106,23,14
1491695241655,0,106,21,-18,-7,7,121,32,-4
1491695241655,0,-74,25,-47,-60,-43,-93,-57,-20
1491695241656,1,-43,-112,-1,-10,-28,-94,-8,1
1491695241656,1,78,-75,-1,6,28,46,-8,4
1491695241702,2,50,-56,17,26,31,13,-24,-1
1491695241702,2,-83,-17,-22,22,8,-40,-28,3
1491695241703,3,121,49,13,-29,-4,18,79,40
1491695241703,3,-5,31,-5,-50,-18,-30,-39,-44
1491695241704,2,-4,50,12,58,127,32,19,-9
1491695241704,2,-40,2,4,-4,-37,-15,12,-21
1491695241705,3,-101,24,-12,-22,-10,109,-40,12
1491695241705,3,11,-7,5,19,-11,-82,4,-7
1491695241751,0,4,-19,-12,-15,-90,-18,-32,6
1491695241751,0,94,-5,34,92,55,14,-5,17
1491695241752,1,-60,-26,-6,-57,20,78,30,4
1491695241752,1,85,-23,-35,1,-45,19,60,58
1491695241753,3,-90,-18,-10,1,36,36,14,-55
1491695241753,3,17,8,5,-12,-42,93,-36,16
1491695241753,0,39,35,5,20,77,69,55,38
1491695241753,0,-65,-12,-3,-1,-34,-85,-27,-2
1491695241799,1,127,16,-15,-20,-68,-49,-44,-47
1491695241799,1,-104,1,15,13,47,-7,31,28
1491695241800,2,-39,-19,-8,2,27,96,70,-6
1491695241800,2,27,21,15,17,53,32,18,-35
1491695241801,0,9,-11,-13,-70,-99,-60,-64,5
1491695241801,0,-128,-9,1,33,51,127,103,15
1491695241802,1,21,2,-8,1,39,-114,-42,-28
1491695241802,1,-85,12,9,-5,0,15,-15,19
1491695241848,2,85,5,15,41,33,118,75,53
1491695241848,2,-9,-1,4,-46,-101,82,31,-9
1491695241849,3,-52,-3,-27,-69,76,-59,-59,40
1491695241849,3,66,37,3,64,19,-25,-39,-36
1491695241850,0,-100,-16,7,-14,10,61,86,12
1491695241850,0,85,0,-10,-29,-78,-49,-96,-29
1491695241851,1,-94,-6,27,46,-69,-16,98,-4
1491695241851,1,-75,36,51,51,68,87,2,3
1491695241897,2,100,0,-24,-8,-65,-117,-29,-32
1491695241897,2,-33,1,17,6,31,-61,27,2
1491695241898,3,-87,-8,-2,-10,68,89,-40,-21
1491695241898,3,101,-28,-53,-4,-25,-77,14,-10
1491695241899,1,-17,-27,-18,-13,-128,-113,-52,-35
1491695241899,1,42,17,41,85,126,55,87,38
1491695241900,2,42,30,32,126,-32,57,-97,-23
1491695241900,2,25,-62,-57,-98,46,-43,-100,-22
1491695241946,3,80,37,35,67,-31,77,109,45
1491695241946,3,-4,4,-5,-128,-128,10,-74,-37
1491695241947,0,-30,1,6,6,-125,-66,66,52
1491695241947,0,-101,-20,9,47,119,65,53,-41
1491695241948,2,-17,-6,15,65,114,-2,-3,-12
1491695241948,2,-110,-9,35,61,-93,20,1,-32
1491695241948,3,73,64,26,-40,37,127,47,47
1491695241948,3,-64,-9,-17,-69,-99,-74,36,-89
1491695241994,0,-25,11,-51,-25,18,-87,-77,61
1491695241994,0,-27,-16,-13,4,-79,-1,42,15
1491695241995,1,21,35,18,83,123,58,-22,4
1491695241995,1,6,-4,15,18,-128,19,13,-18
1491695241996,3,-2,-61,-55,0,30,-102,2,-54
1491695241996,3,82,77,47,75,20,63,-123,-19
1491695241997,0,-20,-30,-73,15,98,98,62,-42
1491695241997,0,113,-22,1,-128,-128,-81,-63,67
1491695242043,1,-128,-37,39,56,80,18,-59,-4
1491695242043,1,34,-38,50,127,73,-2,63,33
1491695242044,2,45,13,-34,-111,-111,-71,-78,-105
1491695242044,2,15,29,-58,-1,-128,53,27,30
1491695242045,0,44,7,46,-19,-81,127,80,15
1491695242045,0,-22,3,47,93,-1,-86,-60,-9
1491695242046,1,97,-51,-4,72,55,-44,3,0
1491695242046,1,-88,3,-36,-115,-21,73,95,38
1491695242092,2,-116,-43,9,11,-32,-76,-10,9
1491695242092,2,81,-50,-55,32,-50,19,3,-36
1491695242098,3,-84,33,14,-112,-76,85,-26,-13
1491695242098,3,106,21,24,95,72,-128,-79,26
1491695242100,1,-55,-23,12,-16,-128,-61,-62,-36
1491695242100,1,-128,-7,-49,-128,2,85,76,-63
1491695242100,2,-27,14,59,124,100,-128,-64,57
1491695242100,2,2,-18,-4,-75,-1,35,-79,-41
1491695242141,3,127,-5,-24,16,-117,41,127,66
1491695242141,3,-128,-36,18,-1,52,-69,-104,-44
1491695242189,0,127,12,32,67,98,-75,-13,-44
1491695242189,0,-45,-24,-51,-59,50,101,111,17
1491695242238,2,-128,-3,-40,60,-36,-69,-55,-10
1491695242238,2,3,-2,75,-72,107,22,26,-40
1491695242241,3,51,75,8,101,6,88,87,21
1491695242241,3,-91,-8,-57,-111,-128,-20,-58,19
1491695242242,0,-64,-18,-3,30,38,105,-10,-13
1491695242242,0,66,76,42,106,64,76,-42,67
1491695242244,1,-128,14,52,80,2,-4,-12,-36
1491695242244,1,127,-17,-38,-54,-72,22,62,17
1491695242287,2,-43,-17,-53,42,63,54,11,47
1491695242287,2,-34,32,27,-9,-128,-128,-95,-37
1491695242288,3,59,11,-47,12,127,127,46,3
1491695242288,3,-62,20,64,55,-99,-50,15,15
1491695242288,3,-35,5,54,77,115,25,58,-13
1491695242288,3,54,-43,-112,-45,-65,-96,-52,-32
1491695242290,0,23,-16,-71,-73,49,-102,-8,-40
1491695242290,0,91,12,21,42,-112,-14,-100,7
1491695242336,1,-75,-34,30,72,122,-88,4,-27
1491695242336,1,84,5,-43,-41,-43,85,23,35
1491695242337,2,77,-18,7,70,-41,48,73,46
1491695242337,2,-118,5,-4,40,123,101,-121,-65
1491695242338,1,-9,1,83,10,47,127,-84,-13
1491695242338,1,-49,26,38,78,127,3,74,22
1491695242339,2,79,37,-80,-104,-85,-88,-109,-35
1491695242339,2,-46,-111,-19,64,-77,50,64,25
1491695242384,3,24,-48,-33,31,19,64,80,33
1491695242384,3,36,-36,23,-52,-102,-79,-112,-46
1491695242385,0,1,14,-23,82,127,69,115,-33
1491695242385,0,-85,-39,-43,-94,48,35,24,30
1491695242386,2,-56,91,37,-44,-57,28,39,22
1491695242386,2,65,97,-122,-43,126,65,50,50
1491695242387,3,-7,13,-3,122,107,-31,-6,-39
1491695242387,3,61,19,-9,-80,-67,-82,24,-24
1491695242433,0,-53,-3,41,74,9,-103,-11,-27
1491695242433,0,60,12,2,-83,-40,51,21,26
1491695242434,1,-9,32,69,71,-62,-9,-31,31
1491695242434,1,31,14,20,107,69,14,-2,11
1491695242435,3,-72,38,63,29,6,-39,-51,20
1491695242435,3,23,33,-42,-17,65,37,-16,-26
1491695242436,0,59,61,24,-74,-74,50,81,30
1491695242436,0,-39,-32,-60,31,-8,-85,-92,-62
1491695242482,1,-55,-57,-32,-63,-26,-50,-26,12
1491695242482,1,-12,-128,51,62,5,-25,-2,3
1491695242483,2,-48,-107,42,43,19,86,-95,-3
1491695242483,2,58,-9,41,-128,-128,-119,15,-12
1491695242483,0,33,56,-33,-7,57,76,11,11
1491695242483,0,-48,45,127,43,-2,-7,-8,-23
1491695242484,1,-9,37,-46,-124,-116,55,33,20
1491695242484,1,2,32,-71,-109,-6,-121,-34,-9
1491695242531,2,31,32,2,44,95,-23,-11,13
1491695242531,2,-32,19,65,127,10,80,44,22
1491695242532,3,51,14,-86,-105,-89,-98,-46,-23
1491695242532,3,15,15,-7,-38,-69,-2,10,-8
1491695242533,0,20,8,-8,84,55,24,20,7
1491695242533,0,-41,6,41,121,125,95,32,-1
1491695242534,1,76,2,89,30,-51,35,-9,-60
1491695242534,1,-43,2,-122,-114,93,-103,-37,13
1491695242579,2,-1,2,-75,34,6,-35,-56,16
1491695242579,2,9,-3,92,107,127,78,-7,24
1491695242581,3,-31,0,-41,-73,-86,54,30,-8
1491695242581,3,32,1,-3,45,92,63,37,-3
1491695242582,1,70,14,11,120,67,86,47,29
1491695242582,1,-15,47,-12,-79,-128,-57,-34,-28
1491695242583,2,-17,62,-46,7,95,0,-9,11
1491695242583,2,20,42,-8,2,-48,-104,-62,-19
1491695242628,3,12,16,20,48,-46,24,24,19
1491695242628,3,-110,13,-6,86,94,23,-2,-33
1491695242630,0,38,-9,94,76,29,65,0,-20
1491695242630,0,13,12,-57,-120,4,-63,-35,-19
1491695242631,2,-1,-69,-70,12,-119,-116,-27,-2
1491695242631,2,14,52,-9,92,71,25,6,-8
1491695242632,3,31,-80,69,109,27,88,17,-5
1491695242632,3,47,35,-19,-10,36,34,22,0
1491695242677,0,53,-24,2,-114,-124,-63,0,2
1491695242677,0,-34,-75,-46,76,18,12,-19,1
1491695242726,1,-37,64,81,20,12,43,2,16
1491695242726,1,14,-49,-9,-14,-79,24,34,-19
1491695242774,3,-53,49,-11,-86,34,-41,-5,2
1491695242774,3,-53,-9,-88,-31,-35,-33,-33,-7
1491695242824,0,-17,-2,15,57,-5,-63,18,9
1491695242824,0,-35,-99,1,75,83,46,31,-2
1491695242825,1,-23,10,46,87,107,93,33,3
1491695242825,1,77,20,89,94,-5,-12,-11,12
1491695242826,2,2,1,-76,-124,-115,-94,-50,-21
1491695242826,2,26,15,-31,26,-32,-23,-8,3
1491695242826,0,-35,30,100,114,96,127,45,-6
1491695242826,0,33,8,-107,-128,-112,-114,-26,2
1491695242872,1,61,-3,-16,-117,-102,-124,-75,3
1491695242872,1,-123,-11,-98,-81,-106,-89,-4,-4
1491695242921,2,-7,2,-5,47,71,35,44,25
1491695242921,2,17,15,37,-9,12,4,-10,25
1491695242921,3,-8,-13,10,-35,-4,12,38,-12
1491695242921,3,-14,31,-15,-63,-77,-50,-46,-10
1491695242922,2,55,70,83,42,8,25,-16,4
1491695242922,2,-72,52,-39,9,13,-20,-4,-16
1491695242923,3,50,64,8,-17,-11,17,8,9
1491695242923,3,-14,-42,31,68,85,33,24,7
1491695242969,0,-34,52,-41,-117,-104,-48,-47,-18
1491695242969,0,26,77,18,127,59,25,29,-6
1491695242970,3,-23,-128,47,92,51,40,24,11
1491695242970,3,-5,-120,-58,-74,-52,-33,-42,-29
1491695242971,0,76,-86,25,56,72,24,2,7
1491695242971,0,1,-55,-38,-18,23,-1,-1,-22
1491695242972,0,-67,30,-32,-72,-51,-96,-33,-29
1491695242972,0,43,16,17,11,-10,34,26,56
1491695243018,1,-8,-3,55,7,17,-11,-7,-13
1491695243018,1,-16,10,-21,97,127,63,16,-6
1491695243019,2,85,86,-18,10,-57,10,12,19
1491695243019,2,-8,109,-23,-31,-52,-58,-49,-34
1491695243019,1,-93,41,-21,-16,-46,-24,-3,-35
1491695243019,1,0,-53,-47,-60,-97,-37,7,6
1491695243020,2,83,21,39,-5,16,4,-27,-15
1491695243020,2,79,-15,18,80,61,23,-9,10
1491695243067,3,49,-73,-11,-60,-22,3,20,-10
1491695243067,3,-7,118,-37,-40,-76,-68,-18,13
1491695243067,0,-128,40,19,53,15,-14,-23,-17
1491695243067,0,-125,-37,-2,7,9,52,40,26
1491695243068,2,11,-113,-9,10,-4,-23,-16,9
1491695243068,2,72,-47,39,14,-6,16,10,-2
1491695243069,3,-51,-44,-75,-10,-47,-50,-22,-2
1491695243069,3,-102,-61,-2,-44,-52,35,2,-17
1491695243116,0,-29,-97,36,-45,24,-36,-16,-20
1491695243116,0,-56,-128,-36,-38,-32,-78,-42,-5
1491695243117,1,127,-80,0,49,-25,95,13,27
1491695243117,1,24,18,22,29,123,22,30,-21
1491695243118,3,102,-14,-24,-64,-47,-37,-6,30
1491695243118,3,-73,-48,20,54,-21,7,21,19
1491695243119,0,-2,-69,6,-12,-3,29,-26,2
1491695243119,0,-48,14,-36,39,57,18,43,-5
1491695243164,1,58,67,20,-15,-47,25,26,18
1491695243164,1,76,-12,5,-51,23,0,-41,5
1491695243165,2,-39,-56,-6,-14,-90,-19,-5,-29
1491695243165,2,-14,-28,-50,-1,34,-8,-8,12
1491695243166,0,-94,-29,2,43,22,-17,-57,-28
1491695243166,0,120,-7,18,52,54,127,61,30
1491695243168,1,-76,102,5,-67,-44,-106,-61,-47
1491695243168,1,-20,47,-11,-51,57,-63,4,-2
1491695243213,2,3,17,-20,21,-7,-41,7,11
1491695243213,2,2,-46,-6,6,-41,21,41,42
1491695243262,3,38,-83,8,51,87,22,18,8
1491695243262,3,-61,-56,3,3,-46,41,-9,-45
1491695243263,1,52,-18,-36,-99,-96,-74,-65,11
1491695243263,1,-67,4,-15,-24,-54,-26,-15,-20
1491695243265,2,73,-9,-8,14,21,22,4,7
1491695243265,2,-79,-35,-16,23,29,69,-4,-26
1491695243266,3,-86,-15,30,111,127,-80,20,29
1491695243266,3,81,-6,13,-2,-107,86,-23,-14
1491695243312,0,-47,2,-11,-102,25,-51,-18,-26
1491695243312,0,7,-16,-24,-47,51,-16,-30,-17
1491695243313,1,92,15,0,78,26,56,74,35
1491695243313,1,-99,-25,-28,-71,-54,23,-34,-21
1491695243315,2,122,90,9,-12,-105,-45,7,57
1491695243315,2,-13,31,22,42,37,55,17,-51
1491695243315,2,-65,-53,-14,-2,70,-38,-21,2
1491695243315,2,11,-15,-13,-15,-92,-48,-3,-15
1491695243361,3,106,14,42,48,68,21,-51,-3
1491695243361,3,81,13,-6,-16,-22,-15,85,34
1491695243362,0,-65,9,-3,-1,103,9,40,-13
1491695243362,0,-2,-70,9,-20,-128,54,43,24
1491695243363,3,18,-21,-41,-83,18,96,-6,-44
1491695243363,3,21,7,2,79,127,48,-18,63
1491695243364,0,42,4,31,-5,-128,49,19,-16
1491695243364,0,-57,-61,-61,-68,-84,-38,31,30
1491695243408,1,-28,25,19,-26,28,-73,-54,-36
1491695243408,1,-4,-2,-23,-16,-29,42,61,-25
1491695243410,2,28,33,32,36,-38,-42,-90,7
1491695243410,2,82,52,7,73,127,23,45,-5
1491695243411,0,-69,-21,-45,-50,-128,-60,43,16
1491695243411,0,118,16,-13,-8,87,-78,-73,-25
1491695243412,1,-113,27,2,65,116,49,-62,-11
1491695243412,1,-128,-52,-46,-88,-128,-87,32,-21
1491695243457,2,127,-45,-2,-24,33,113,15,6
1491695243457,2,-83,30,34,50,83,45,16,3
1491695243459,3,-50,38,24,-21,-104,-92,-62,-40
1491695243459,3,68,-17,-28,14,0,64,35,38
1491695243461,1,103,7,-18,24,-71,127,32,19
1491695243461,1,-81,9,-1,-10,33,9,-18,-71
1491695243462,2,28,21,3,0,-62,-110,-50,31
1491695243462,2,82,-12,-49,-97,-101,107,-56,-14
1491695243506,3,-43,-2,-6,3,-5,-35,-84,-35
1491695243506,3,50,55,15,30,-13,99,85,54
1491695243508,0,-37,-5,7,55,127,13,18,-28
1491695243508,0,73,-11,8,66,4,-30,-121,-24
1491695243509,2,-109,33,38,10,43,43,-11,-53
1491695243509,2,-52,11,-24,-3,-33,1,20,-31
1491695243510,3,-41,-5,-22,-3,-52,127,105,12
1491695243510,3,-5,-7,35,29,87,-128,-128,-38
1491695243554,0,55,27,8,-17,-60,127,127,60
1491695243554,0,-35,-41,-46,-67,-109,104,-37,-34
1491695243555,1,81,35,29,62,71,-51,37,34
1491695243555,1,-111,14,-30,-88,-97,89,-82,-30
1491695243556,3,-84,112,24,56,72,64,24,-63
1491695243556,3,85,127,20,-3,1,-47,-7,7
1491695243557,0,-29,35,-24,-85,-70,-29,-64,-41
1491695243557,0,12,13,23,54,66,-78,22,59
1491695243603,1,127,-94,-26,-20,-2,-12,13,28
1491695243603,1,-100,-127,14,-61,-59,24,7,-24
1491695243604,2,-44,-128,-23,12,11,10,-44,-3
1491695243604,2,-36,-126,-24,-40,-114,-68,27,-23
1491695243605,3,96,-59,-5,17,127,111,65,57
1491695243605,3,-127,-67,-15,10,-128,-113,-3,-40
1491695243606,0,37,-8,27,21,11,29,-28,9
1491695243606,0,33,70,27,90,72,64,-16,-21
1491695243652,1,-83,110,-8,69,-25,-81,-25,-7
1491695243652,1,84,125,4,71,51,91,-34,29
1491695243653,2,-91,-6,-10,-3,20,-3,-2,-64
1491695243653,2,19,-27,0,-30,-47,-122,23,37
1491695243653,0,86,-52,-26,-40,-16,-116,26,31
1491695243653,0,-68,-22,12,-45,-19,64,-79,-29
1491695243654,1,32,27,-1,-14,15,52,23,-11
1491695243654,1,-6,-37,31,18,-16,-67,14,12
1491695243701,2,9,-22,-3,5,16,95,10,2
1491695243701,2,-96,-11,10,-28,8,43,49,-14
1491695243702,3,-18,14,13,21,8,-105,-82,8
1491695243702,3,36,-11,-18,-32,-8,73,10,13
1491695243703,1,-86,-14,-10,-35,-51,-18,1,-18
1491695243703,1,21,15,11,7,-9,-27,-4,-8
1491695243704,2,-17,37,18,15,16,46,4,21
1491695243704,2,-1,23,-20,19,64,74,48,16
1491695243749,3,30,-11,2,14,-7,-94,3,-11
1491695243749,3,-63,-18,3,-53,-75,2,28,-24
1491695243750,0,86,-39,-31,-31,-34,-8,47,18
1491695243750,0,74,-38,6,11,-9,17,-40,0
1491695243751,2,-100,1,-12,-10,-34,8,-55,-13
1491695243751,2,70,25,0,-3,6,62,5,10
1491695243752,3,-70,-16,-2,-9,-13,-100,-48,-31
1491695243752,3,-2,-12,-31,-2,-8,92,6,27
1491695243798,0,-95,14,5,18,47,14,90,1
1491695243798,0,39,-8,3,-12,-45,-113,-72,-27
1491695243800,1,36,8,9,-2,25,-33,-44,16
1491695243800,1,-45,5,25,23,12,33,39,-8
1491695243801,3,87,-1,-4,-36,-39,57,-10,10
1491695243801,3,24,-9,-3,4,16,36,91,27
1491695243801,0,32,-13,10,-38,37,23,-32,-28
1491695243801,0,-33,4,-14,-20,-25,-119,-1,-4
1491695243847,1,-93,-14,9,-26,-72,21,7,7
1491695243847,1,105,-9,-17,45,64,53,-49,-3
1491695243848,2,-82,24,17,40,9,-71,94,28
1491695243848,2,-23,-15,14,59,21,-1,-64,-50
1491695243849,0,123,-8,-34,-51,-102,-44,38,3
1491695243849,0,-128,5,-6,-51,-36,50,-43,-1
1491695243850,1,87,0,-20,-24,-37,-77,-63,7
1491695243850,1,-23,-2,46,41,55,27,-26,-11
1491695243896,2,39,46,31,94,112,67,3,22
1491695243896,2,60,-25,-19,-17,-41,20,94,20
1491695243897,3,-33,-40,-13,37,12,127,-67,-77
1491695243897,3,-114,0,-33,-86,-20,-128,44,-3
1491695243898,1,-12,-3,23,-3,-113,-85,26,14
1491695243898,1,85,-19,-29,17,57,18,115,9
1491695243899,2,-8,-26,5,18,53,127,-73,-4
1491695243899,2,-77,7,18,-10,13,-128,-30,-39
1491695243944,3,-53,4,15,-3,125,127,-49,-32
1491695243944,3,99,29,-21,93,-7,2,73,69
1491695243945,0,17,-25,-30,-99,-104,-77,-27,-47
1491695243945,0,-57,-12,-10,48,116,112,-50,-14
1491695243946,1,122,22,6,38,12,-2,61,110
1491695243946,1,-10,12,33,-75,-81,-61,-85,-65
1491695243947,2,92,7,12,105,68,118,55,28
1491695243947,2,-41,-18,-31,-61,-59,-128,24,-3
1491695243993,3,73,66,39,-20,83,-53,-13,41
1491695243993,3,-54,-1,-5,95,-23,104,-18,28
1491695243994,0,-81,23,-2,-109,60,-128,-53,-60
1491695243994,0,-74,-27,-8,2,-64,-48,-119,-31
1491695243995,2,-18,18,16,127,-114,-21,50,-2
1491695243995,2,54,5,7,-68,-35,53,-2,0
1491695243996,3,31,26,20,90,54,27,60,34
1491695243996,3,-101,-28,-12,40,-73,-103,-42,12
1491695244042,0,98,-7,-35,-80,-38,8,-42,14
1491695244042,0,-21,-4,-1,102,127,55,108,33
1491695244043,1,45,53,52,48,34,-60,30,50
1491695244043,1,37,-24,-11,10,-63,-38,-103,-106
1491695244043,3,-14,-8,6,-105,-81,-35,-81,-90
1491695244043,3,-4,27,-12,-45,93,127,100,20
1491695244044,0,-85,-86,-10,-4,-68,71,-48,-52
1491695244044,0,127,36,82,-16,54,38,-34,13
1491695244090,1,43,13,-2,55,-41,-63,49,27
1491695244090,1,-45,-24,-34,-87,-113,-31,14,-56
1491695244091,2,16,-26,-43,-65,48,73,65,29
1491695244091,2,-59,11,1,-28,4,8,-23,-43
1491695244092,0,36,53,40,28,60,124,7,16
1491695244092,0,-35,6,12,64,-116,-57,-94,-43
1491695244093,1,40,-28,-69,-80,127,34,42,10
1491695244093,1,-66,24,-27,-128,-18,40,46,-71
1491695244139,2,8,-23,40,48,-56,127,123,63
1491695244139,2,127,54,-14,-7,90,-39,-58,2
1491695244141,3,-92,-48,25,60,-128,32,57,-62
1491695244141,3,54,-3,14,127,127,27,32,24
1491695244142,1,-69,-32,-105,16,94,-64,-83,-39
1491695244142,1,4,-38,-40,-34,-115,-6,1,-4
1491695244143,2,82,43,91,53,127,9,-48,-10
1491695244143,2,-55,28,-29,67,-126,-11,114,66
1491695244188,3,-49,37,49,-85,-63,-6,-62,-60
1491695244188,3,-76,7,-70,-46,37,-18,94,-15
1491695244192,0,-41,-35,6,84,57,-13,-110,-26
1491695244192,0,11,14,97,58,-13,127,0,36
1491695244195,2,-55,-42,-69,53,75,45,119,-80
1491695244195,2,36,14,49,-64,52,127,85,68
1491695244196,3,-17,-3,-9,114,-38,-104,-74,-37
1491695244196,3,89,-25,4,7,26,-93,-71,-29
1491695244237,0,-128,2,-53,-116,-67,109,-1,19
1491695244237,0,127,-4,0,127,100,-96,-2,20
1491695244238,1,-89,-52,0,56,24,-21,23,11
1491695244238,1,100,-29,-7,-71,127,127,-110,5
1491695244240,3,-5,-29,-22,7,111,127,35,31
1491695244240,3,-15,-37,23,127,-34,27,-29,4
1491695244240,0,-42,-5,16,39,64,-93,-47,25
1491695244240,0,23,61,55,-18,-54,127,48,-78
1491695244335,1,-26,-21,-56,-101,-37,-63,-45,13
1491695244335,1,83,-11,-34,-77,-54,68,64,38
1491695244336,2,-24,-20,22,54,70,66,14,45
1491695244336,2,-77,-19,38,-57,9,113,58,-20
1491695244338,3,81,83,34,56,112,102,79,-3
1491695244338,3,-128,-32,-40,-126,-128,-69,-88,-77
1491695244384,0,84,-34,-77,-115,-38,42,-6,23
1491695244384,0,61,-18,18,127,127,-83,-33,44
1491695244385,1,-21,-11,86,-98,-124,127,48,13
1491695244385,1,-49,12,55,127,125,112,-15,-57
1491695244386,2,79,26,-73,-103,-115,-107,-48,-13
1491695244386,2,-16,-18,-39,-29,102,79,36,48
1491695244386,0,-128,-49,-80,-35,-101,-27,-62,-13
1491695244386,0,-12,-5,24,-52,17,-9,7,-35
1491695244432,1,68,62,63,93,-59,77,88,21
1491695244432,1,-30,6,-81,-126,-41,45,80,39
1491695244433,2,62,12,-23,75,115,-48,-44,29
1491695244433,2,-33,-2,-7,105,80,113,4,-52
1491695244433,2,-36,0,32,101,99,74,44,-35
1491695244433,2,53,-26,-16,-120,-128,-128,-94,-29
1491695244434,3,4,8,22,62,52,16,69,32
1491695244434,3,23,10,86,127,64,57,-7,-29
1491695244480,0,-123,-84,17,-89,-11,84,101,49
1491695244480,0,19,-4,-84,-123,-18,56,8,-20
1491695244481,1,44,51,11,-44,-88,-43,-78,6
1491695244481,1,-50,41,28,-69,-77,-12,-4,-5
1491695244482,3,-30,-19,-66,-21,127,-65,-34,7
1491695244482,3,53,7,92,87,83,127,41,-11
1491695244483,0,-44,-63,-87,-108,-109,1,49,-6
1491695244483,0,65,7,32,-53,-41,-97,-78,39
1491695244529,1,-31,-71,-39,-20,-62,15,6,-22
1491695244529,1,-21,-16,82,14,-55,79,59,-15
1491695244530,2,57,0,2,122,81,80,21,17
1491695244530,2,-116,-16,55,32,-8,-18,-41,-35
1491695244531,0,-8,-108,110,87,-33,86,22,-11
1491695244531,0,-6,-126,36,104,87,30,-4,-5
1491695244532,1,41,-28,87,56,-96,61,32,50
1491695244532,1,66,22,1,-66,-128,-63,-8,-17
1491695244627,2,-26,80,-88,-4,62,-119,-55,-20
1491695244627,2,32,72,-47,81,28,127,90,6
1491695244629,3,-33,50,-28,61,127,-65,-66,0
1491695244629,3,-50,58,71,-53,-3,-67,-126,-41
1491695244630,1,-22,-55,90,127,70,127,9,10
1491695244630,1,36,30,-3,-56,99,-100,21,23
1491695244631,2,10,61,-2,-50,-40,-68,-63,-14
1491695244631,2,-20,104,-29,-110,-103,-15,66,11
1491695244676,3,-44,84,-31,55,49,13,-33,-49
1491695244676,3,36,3,27,89,-70,102,50,23
1491695244677,0,-9,52,93,10,99,40,27,-3
1491695244677,0,49,47,-52,-68,-128,-76,-69,22
1491695244678,2,43,2,33,24,50,21,19,-13
1491695244678,2,-15,-12,61,-25,18,79,37,5
1491695244679,3,-54,49,-49,-59,-31,-32,-24,20
1491695244679,3,-47,0,-71,59,-30,28,-35,-14
1491695244724,0,96,51,25,36,-7,7,-27,13
1491695244724,0,-15,52,72,127,112,127,44,-8
1491695244725,1,57,55,56,-110,-88,10,43,-29
1491695244725,1,-96,-20,-62,-75,118,-128,-41,-19
1491695244726,3,-36,-29,-61,-61,46,-21,-39,7
1491695244726,3,16,14,11,6,-26,-11,1,16
1491695244727,0,-58,20,39,71,83,60,19,-30
1491695244727,0,-5,-9,36,127,35,120,37,-1
1491695244773,1,-38,-13,-100,-81,-58,-62,-17,-15
1491695244773,1,16,-11,-44,52,26,-70,-70,-12
1491695244774,2,-59,5,-7,28,47,44,3,2
1491695244774,2,41,-21,69,115,76,50,24,-9
1491695244775,0,-33,15,25,11,76,-31,-6,-12
1491695244775,0,-13,38,60,-13,-128,-80,-31,-5
1491695244775,1,-1,39,-29,-12,2,-52,-40,-31
1491695244775,1,-23,-30,-24,110,81,7,-7,17
1491695244822,2,-25,22,-4,-108,-69,-120,-47,15
1491695244822,2,-93,44,11,117,118,72,37,-14
1491695244823,3,-93,-47,-10,7,36,74,21,14
1491695244823,3,-73,-99,127,63,-3,50,43,1
1491695244823,1,-83,-59,-39,108,127,66,16,-12
1491695244823,1,60,59,39,-38,-101,13,-10,2
1491695244824,2,17,66,-73,-87,-31,-66,-10,7
1491695244824,2,41,45,-15,33,-25,10,-58,-14
1491695244870,3,19,67,-19,-110,-94,-79,32,8
1491695244870,3,-51,66,-37,121,127,32,-21,-17
1491695244871,0,101,16,-17,22,22,43,22,31
1491695244871,0,15,89,-60,-33,6,-16,26,-12
1491695244872,2,5,12,55,-70,-86,-120,-72,-41
1491695244872,2,22,37,-20,-65,-26,-122,-31,14
1491695244873,3,12,35,35,-7,7,77,8,-3
1491695244873,3,18,21,-36,-128,-128,-58,-2,16
1491695244919,0,-92,-73,-12,22,32,31,20,2
1491695244919,0,16,-1,-7,-13,11,10,11,0
1491695244921,1,12,51,68,117,95,14,-3,0
1491695244921,1,-8,16,-4,8,95,47,40,-15
1491695244923,3,35,29,-69,45,76,21,47,49
1491695244923,3,66,17,46,63,20,23,18,1
1491695244923,0,-54,10,-42,-73,-24,-15,-38,-28
1491695244923,0,-22,-13,-38,-58,-99,-55,-41,4
1491695244968,1,-32,4,43,-9,-13,45,-5,-9
1491695244968,1,54,12,-23,27,25,-19,2,9
1491695244970,2,-84,3,33,112,79,70,50,-21
1491695244970,2,72,-15,-13,-76,-52,-12,-52,27
1491695244971,0,35,-4,-21,20,-3,-28,-25,-14
1491695244971,0,71,-8,-21,71,66,36,24,27
1491695244974,1,31,5,12,-57,-128,-17,39,1
1491695244974,1,-7,-5,-26,-29,12,-62,-56,-20
1491695245017,2,89,-8,-9,6,22,43,50,17
1491695245017,2,-35,109,53,57,46,1,-38,-5
1491695245019,3,12,97,-35,-15,3,-1,22,27
1491695245019,3,-19,95,17,53,52,48,-23,-33
1491695245019,0,106,125,-6,-30,21,36,20,30
1491695245019,0,-56,107,-12,-35,-29,32,23,6
1491695245020,1,127,127,-22,-59,-76,-54,-43,-13
1491695245020,1,10,96,-30,-63,-33,32,10,18
1491695245066,2,-40,80,8,73,62,19,-23,-17
1491695245066,2,0,-45,-27,15,-21,-1,38,-27
1491695245066,3,70,-34,69,5,-2,-6,-13,-5
1491695245066,3,47,-111,1,-25,-28,-15,-8,-4
1491695245067,1,-14,-99,40,96,118,66,-34,18
1491695245067,1,85,20,-16,-39,-7,4,-14,5
1491695245068,2,26,24,-66,-92,-108,-45,-15,-11
1491695245068,2,-53,-51,-1,11,-62,-82,-12,-24
1491695245114,3,-128,-58,10,2,22,-12,-7,-13
1491695245114,3,-1,-121,-23,31,95,90,47,24
1491695245115,0,-128,-32,42,3,-6,-51,-81,-16
1491695245115,0,101,10,-39,-4,-16,56,102,68
1491695245116,2,-107,-128,-11,-88,-50,5,-9,-39
1491695245116,2,21,-104,-25,14,-49,-28,-25,-11
1491695245117,3,22,45,46,-4,69,18,2,-3
1491695245117,3,-122,-37,-37,-33,-113,-66,-11,-38
1491695245163,0,-60,-36,-10,60,98,103,82,44
1491695245163,0,-73,-35,41,-14,-9,-3,26,-4
1491695245164,1,55,-69,-14,27,16,-104,-39,-21
1491695245164,1,36,-30,9,4,54,69,3,21
1491695245164,3,-9,48,-24,-31,-56,-10,27,14
1491695245164,3,-76,67,30,28,12,71,8,-5
1491695245165,0,50,52,-16,-39,-95,-77,-60,-9
1491695245165,0,68,-10,-24,-31,-53,43,75,39
1491695245212,1,1,23,-1,61,71,65,-1,-10
1491695245212,1,-13,-9,-3,-112,-116,-93,-41,19
1491695245214,2,21,10,-2,98,81,104,13,46
1491695245214,2,-81,-15,24,25,54,21,-8,-57
1491695245214,0,-47,-2,-6,-112,-65,86,-34,-14
1491695245214,0,37,-43,-13,29,20,-87,-39,-8
1491695245215,1,0,-66,-6,14,16,-54,12,10
1491695245215,1,-69,-55,-29,-75,-86,-33,-29,-33
1491695245261,2,85,-45,9,42,94,-75,-58,-22
1491695245261,2,-105,-41,19,20,100,83,4,11
1491695245261,3,7,-46,13,-26,-43,23,19,-2
1491695245261,3,17,-18,14,37,-28,52,5,19
1491695245262,1,-79,57,22,35,-45,11,-45,-32
1491695245262,1,-115,31,17,18,127,-61,24,2
1491695245263,2,17,16,23,10,-73,112,26,-36
1491695245263,2,4,-40,-50,-56,-45,-14,72,38
1491695245310,3,-75,55,12,11,-13,-22,-110,-11
1491695245310,3,-35,17,9,74,106,-14,-34,-23
1491695245310,0,7,-51,-1,8,66,56,105,43
1491695245310,0,66,65,37,-40,-75,34,-12,-6
1491695245311,2,35,-39,-13,-17,-38,-64,-63,-32
1491695245311,2,27,11,7,46,41,-67,-8,-18
1491695245312,3,20,10,17,37,-35,-11,-8,1
1491695245312,3,-64,6,-11,-86,34,85,46,-5
1491695245358,0,-45,20,-31,-44,-114,-103,-37,-32
1491695245358,0,78,27,-10,19,82,55,24,-1
1491695245359,1,41,-11,18,47,75,12,29,11
1491695245359,1,63,-27,15,-18,-61,68,82,0
1491695245360,2,38,-23,3,-46,18,52,36,65
1491695245360,2,-80,17,-13,47,1,-44,-35,-73
1491695245361,3,-90,49,-10,-18,72,77,66,35
1491695245361,3,62,28,42,14,-3,-53,-106,-41
1491695245407,0,-24,8,-38,-2,-44,-66,40,3
1491695245407,0,43,-35,-28,-55,-48,-69,-62,34
1491695245408,1,48,-9,6,20,8,106,-47,21
1491695245408,1,-128,-16,1,52,63,72,108,-56
1491695245410,3,127,1,-1,-38,-97,-54,-31,11
1491695245410,3,0,29,4,41,29,20,-79,47
1491695245411,0,-72,15,63,126,127,11,57,2
1491695245411,0,124,-10,-16,29,16,-34,-26,30
1491695245456,1,-128,-16,-10,-128,-128,-80,51,-25
1491695245456,1,127,-79,-59,-54,-70,-101,-94,-27
1491695245457,2,62,-65,1,80,108,27,-21,-36
1491695245457,2,-27,7,21,45,56,58,94,57
1491695245457,0,-128,-48,-26,-60,-2,127,-19,-51
1491695245457,0,103,56,-11,-24,-92,-57,-112,13
1491695245458,1,-10,74,4,-6,7,76,8,-62
1491695245458,1,28,-9,-1,-10,47,22,127,47
1491695245508,2,115,64,-6,42,76,127,-62,15
1491695245508,2,-128,-7,-6,-25,-53,-73,-106,-61
1491695245510,3,22,-11,-74,-86,-79,-31,49,19
1491695245510,3,69,17,8,-6,93,-18,-7,17
1491695245511,1,12,37,-8,-21,-30,-18,-61,-14
1491695245511,1,16,7,5,-35,-75,52,55,21
1491695245512,2,37,123,-11,15,49,-91,-10,15
1491695245512,2,14,123,-10,116,-48,-57,-61,-67
1491695245553,3,-71,52,20,-26,31,93,65,37
1491695245553,3,-84,3,5,41,-30,-106,-21,-15
1491695245554,0,47,-30,6,-27,-69,-5,-2,14
1491695245554,0,30,-60,-6,-10,75,114,95,-14
1491695245555,2,-82,-33,-9,-84,-67,-9,-48,-50
1491695245555,2,-27,-45,56,-7,39,67,63,11
1491695245556,3,86,-32,16,80,78,50,-25,15
1491695245556,3,-111,-5,8,25,49,80,-31,-53
1491695245602,0,-98,74,-4,-6,-18,-104,70,36
1491695245602,0,98,32,0,-53,-57,70,72,-1
1491695245603,1,-40,-6,-14,-21,3,-42,-17,-9
1491695245603,1,-79,-11,-37,-3,-29,13,-92,-54
1491695245604,3,-23,-61,10,-21,0,-128,-2,21
1491695245604,3,-82,3,22,61,58,2,-27,-15
1491695245604,0,104,1,-35,-83,-25,75,24,-14
1491695245604,0,-41,19,-27,2,-95,-128,-40,16
1491695245650,1,86,49,-24,-10,22,41,96,53
1491695245650,1,58,-4,26,5,-20,90,-52,6
1491695245652,2,52,-30,7,-9,-19,-128,2,14
1491695245652,2,19,-38,7,-2,32,125,4,-17
1491695245652,0,-35,35,-10,10,-39,95,-5,-29
1491695245652,0,27,27,1,-35,16,-60,-2,2
1491695245653,1,-73,-34,-5,47,29,-49,-16,-29
1491695245653,1,-33,-19,18,-26,-72,-24,31,49
1491695245699,2,5,-44,-26,-12,26,57,-28,-48
1491695245699,2,-121,35,-7,-7,-19,-59,-12,10
1491695245700,3,42,18,10,16,-43,8,27,1
1491695245700,3,40,58,23,24,88,41,-7,2
1491695245701,0,60,-24,-4,12,-42,-52,28,26
1491695245701,0,32,-71,-18,-57,-54,-9,-32,-34
1491695245702,1,-70,-63,15,32,6,-8,6,17
1491695245702,1,92,-45,-16,-20,-18,10,7,4
1491695245748,2,-1,-31,6,-12,-16,-24,-28,-4
1491695245748,2,-30,1,32,43,68,62,30,12
1491695245749,3,72,-8,23,-2,45,10,-10,8
1491695245749,3,-25,-28,-25,48,-25,-18,-4,-18
1491695245750,1,71,-43,4,32,20,54,-21,-16
1491695245750,1,13,-46,12,29,29,27,1,-18
1491695245752,2,-18,-16,18,-3,-6,-31,11,18
1491695245752,2,-53,-20,8,10,20,55,9,-4
1491695245797,3,-119,13,-3,-17,-9,-30,14,-32
1491695245797,3,106,58,-5,-21,-19,-91,-47,12
1491695245799,0,-111,22,-11,-2,47,125,25,0
1491695245799,0,120,117,19,15,-31,-128,-9,22
1491695245800,2,-17,-1,8,36,5,-5,-40,-26
1491695245800,2,49,-32,-9,-11,10,30,37,33
1491695245801,3,18,-51,-25,-61,-46,-26,-63,-30
1491695245801,3,-52,-19,19,15,-61,10,36,17
1491695245846,0,-6,-38,-6,4,57,96,-12,-2
1491695245846,0,12,-17,17,31,15,-97,-38,39
1491695245846,1,121,-37,-27,1,-13,20,82,25
1491695245846,1,83,18,39,-23,44,55,-34,2
1491695245847,3,-128,41,23,-20,47,6,55,-44
1491695245847,3,-86,2,-14,6,-24,-75,-27,-41
1491695245848,0,125,45,39,-13,18,3,6,86
1491695245848,0,-111,12,4,50,20,63,-15,-9
1491695245895,1,20,-27,-8,-1,34,-15,-26,-14
1491695245895,1,-116,-44,-22,-9,-8,59,70,8
1491695245895,2,90,11,18,25,64,-10,-46,-43
1491695245895,2,66,-6,4,16,42,86,-68,-10
1491695245896,0,53,23,1,-10,-46,-47,-25,-28
1491695245896,0,23,-46,-5,41,103,82,103,12
1491695245900,1,27,5,-4,-13,-37,-56,-128,-39
1491695245900,1,60,10,10,-52,-113,-30,101,60
1491695245943,2,12,-14,-23,34,30,-46,106,-11
1491695245943,2,109,31,29,-32,-40,-10,-33,30
1491695245944,3,-90,21,43,71,6,127,84,31
1491695245944,3,24,-10,30,100,127,18,14,-30
1491695245944,1,104,-28,-32,-74,-128,-128,-67,-4
1491695245944,1,7,-2,-2,23,92,127,28,19
1491695245945,2,-80,18,44,105,81,-22,-23,-27
1491695245945,2,-86,-1,29,101,94,11,7,-16
1491695245992,3,102,-29,-32,-89,-13,36,-78,24
1491695245992,3,54,5,-29,-79,-128,-25,-39,-58
1491695245993,0,-122,-56,-32,18,-47,2,70,23
1491695245993,0,-59,11,-24,-1,-113,-96,-55,-44
1491695245993,2,41,-19,-1,10,54,87,-95,2
1491695245993,2,-28,-22,37,66,7,-113,-8,-22
1491695245994,3,37,-12,-7,47,66,104,86,11
1491695245994,3,-59,3,-42,-122,-116,-125,-100,-45
1491695246040,0,96,23,-8,-73,-25,103,115,42
1491695246040,0,-111,-19,18,0,-110,-54,-117,-43
1491695246041,1,67,31,26,118,98,29,-2,34
1491695246041,1,97,-13,9,101,108,30,33,33
1491695246042,3,-114,-9,17,95,74,92,12,-52
1491695246042,3,85,-3,3,27,-123,-97,19,10
1491695246043,0,-40,-12,10,-40,-71,19,-43,-23
1491695246043,0,86,17,-5,1,106,81,32,12
1491695246089,1,-123,7,-4,22,-7,-105,30,-6
1491695246089,1,102,31,44,59,-42,118,106,69
1491695246090,2,11,-26,-26,-46,98,-63,-85,-3
1491695246090,2,-78,-22,-36,-3,-128,-71,-66,-62
1491695246090,3,127,-6,-9,-119,-87,75,56,78
1491695246090,3,-128,-57,-18,88,93,59,-58,-64
1491695246092,0,120,73,72,-5,-110,-69,67,32
1491695246092,0,-86,48,-9,61,127,113,66,35
1491695246138,1,-98,-110,-100,34,-128,-128,-105,-68
1491695246138,1,83,38,-7,-128,-111,-86,-72,-80
1491695246139,2,20,12,57,112,106,127,-42,67
1491695246139,2,34,18,13,89,96,-81,85,37
1491695246140,0,-128,-25,-5,62,-42,18,33,-64
1491695246140,0,-38,12,33,-89,-42,71,24,36
1491695246141,1,2,14,10,58,-65,-3,25,1
1491695246141,1,-10,-6,-34,-128,-86,-78,-36,-30
1491695246187,2,18,16,65,127,115,81,99,5
1491695246187,2,-35,-51,-17,70,88,28,17,-40
1491695246188,3,36,15,-44,-73,-64,-74,89,32
1491695246188,3,-128,-21,-28,-44,-50,-11,-88,-31
1491695246188,1,40,23,91,126,-1,-76,-128,-32
1491695246188,1,127,40,53,-41,-88,120,104,82
1491695246190,2,-65,-33,-54,23,84,-112,19,29
1491695246190,2,-84,-28,-19,8,-120,-67,-63,-58
1491695246235,3,64,3,16,-59,-1,60,-46,78
1491695246235,3,-116,-23,-24,-49,-59,-62,-16,-34
1491695246237,0,86,66,116,32,45,127,41,30
1491695246237,0,-52,-13,-4,74,-49,-112,99,-26
1491695246237,2,-10,-54,-57,-109,-128,-79,80,-45
1491695246237,2,127,29,-22,-117,43,52,28,48
1491695246238,3,-128,-35,42,127,24,-41,-36,18
1491695246238,3,104,21,18,-60,69,-84,-87,-8
1491695246284,0,-128,95,-20,82,127,45,57,28
1491695246284,0,110,-1,17,-126,-128,-34,-110,-33
1491695246285,1,-48,55,34,-26,-48,-30,107,45
1491695246285,1,24,-30,13,70,86,-55,-77,-49
1491695246285,3,38,49,-52,74,127,127,103,41
1491695246285,3,-1,-24,-9,-12,-80,-97,-128,-40
1491695246287,0,-14,-21,-10,44,-26,112,86,62
1491695246287,0,-69,-22,42,32,85,55,-10,-41
1491695246333,1,83,27,13,-17,45,-79,-8,-83
1491695246333,1,69,4,49,-14,-72,25,42,75
1491695246334,2,-83,-27,6,-35,-4,69,-5,10
1491695246334,2,76,14,-24,79,17,-85,-98,35
1491695246334,0,111,31,67,-18,-68,17,29,34
1491695246334,0,-15,27,55,89,28,-12,-5,-53
1491695246335,1,-128,-30,-31,19,58,93,50,0
1491695246335,1,-63,-22,-29,-123,-107,-44,-50,-44
1491695246382,2,101,-38,-37,41,80,57,6,6
1491695246382,2,12,12,-8,52,51,108,105,66
1491695246383,3,-113,-17,22,-126,-79,-55,-119,-86
1491695246383,3,-52,3,3,37,26,127,127,112
1491695246385,1,-34,-67,-37,-2,-73,-82,-89,-52
1491695246385,1,-42,23,14,120,127,127,127,40
1491695246386,2,1,12,16,-78,-128,-23,-29,-63
1491695246386,2,-34,-10,-94,-75,-118,-42,-27,13
1491695246431,3,-50,-45,-4,-14,35,39,72,12
1491695246431,3,106,65,56,-7,90,98,-60,-48
1491695246432,0,39,-4,-29,50,-97,-79,-25,6
1491695246432,0,-81,-15,-7,-99,25,101,34,29
1491695246433,1,-28,28,-3,73,36,76,-34,14
1491695246433,1,41,1,24,82,-48,-81,-7,-48
1491695246434,2,-53,8,-47,-92,-60,69,92,45
1491695246434,2,52,-5,-73,67,79,-88,-14,12
1491695246479,3,-34,-55,-15,-72,48,-24,-47,-11
1491695246479,3,-20,-40,-25,-77,-48,24,55,39
1491695246480,0,-96,-108,97,81,-32,-11,-79,-61
1491695246480,0,14,-68,-30,18,1,-107,37,0
1491695246481,2,1,-16,-14,-70,-128,-101,-100,-38
1491695246481,2,64,55,-25,-97,85,109,57,29
1491695246482,3,-23,-57,37,51,-68,-28,53,1
1491695246482,3,-128,-94,-10,25,74,-82,-69,-33
1491695246528,0,60,-93,22,-32,-46,75,101,21
1491695246528,0,7,-40,-12,-40,-77,-82,-67,-50
1491695246529,1,69,51,65,52,57,-94,-106,-4
1491695246529,1,22,80,-30,61,-11,123,71,43
1491695246530,3,77,120,-94,-120,-100,-72,8,17
1491695246530,3,-20,33,48,-12,-62,-34,-42,-18
1491695246531,0,12,-9,-110,-55,-11,-128,-30,6
1491695246531,0,-32,22,102,6,-8,77,25,28
1491695246577,1,-11,-43,63,127,106,69,-11,-26
1491695246577,1,9,-26,-11,-60,-44,-19,45,-6
1491695246578,2,19,-67,-128,-123,-53,-15,36,-7
1491695246578,2,5,-51,8,41,-89,14,4,26
1491695246579,0,-128,17,-112,-109,-76,-101,-93,-53
1491695246579,0,53,-123,67,57,-21,15,-3,11
1491695246580,1,2,-90,64,127,119,50,4,14
1491695246580,1,-14,-128,-36,-78,-116,16,3,25
1491695246625,2,103,-20,-76,115,127,95,51,38
1491695246625,2,-47,31,-42,74,-116,-36,-5,3
1491695246626,3,31,9,-45,-128,-128,-115,-74,-38
1491695246626,3,67,53,-5,24,123,123,55,37
1491695246627,1,0,55,-24,-114,-128,-94,9,7
1491695246627,1,-17,98,-14,55,66,56,80,4
1491695246628,2,20,85,15,127,-5,16,-37,22
1491695246628,2,-75,89,71,-60,-3,14,-43,-12
1491695246674,3,-68,57,-80,-128,-128,-128,-28,-53
1491695246674,3,-41,50,-100,-128,0,-61,-55,-13
1491695246675,0,127,-77,111,120,-15,82,35,2
1491695246675,0,-62,-3,-16,-3,70,-44,-31,-10
1491695246676,2,-32,75,-85,-128,-76,-96,47,13
1491695246676,2,-2,-21,-9,-85,-73,-118,-48,0
1491695246677,3,-61,-48,-71,127,77,95,-10,-7
1491695246677,3,94,-9,30,-39,-81,-90,-24,9
1491695246723,0,-46,44,-77,-14,93,62,8,-17
1491695246723,0,46,10,67,-18,14,52,50,26
1491695246772,1,-20,60,81,106,73,80,43,-20
1491695246772,1,-11,23,-13,68,45,32,-41,7
1491695246821,3,-12,-2,-1,-33,-55,-46,-39,6
1491695246821,3,22,-58,81,110,-22,-9,-28,27
1491695246822,0,-49,-3,88,-36,106,23,2,-12
1491695246822,0,-33,-36,-38,127,43,78,29,-12
1491695246823,1,108,-72,53,-62,-46,12,36,18
1491695246823,1,37,-100,-112,-123,-128,-114,-71,-34
1491695246824,2,-45,-78,-9,118,25,6,-34,-8
1491695246824,2,108,-5,31,6,87,8,-43,-6
1491695246870,3,39,44,73,127,113,51,11,14
1491695246870,3,-53,-54,7,-69,-24,18,22,-35
1491695246871,0,30,-19,-25,-128,-72,39,17,-9
1491695246871,0,18,55,-4,43,-79,-106,-101,-14
1491695246873,1,-68,-1,-61,11,127,43,16,-1
1491695246873,1,33,12,20,58,82,79,27,-12
1491695246874,2,-63,10,103,27,-15,-64,-59,-13
1491695246874,2,40,6,-128,-114,22,30,80,7
1491695246918,3,-2,-5,-22,-36,-88,-53,-34,-1
1491695246918,3,28,12,49,65,47,8,44,19
1491695246920,0,-37,11,-41,-128,-37,-30,-37,-18
1491695246920,0,-28,-6,30,79,43,-3,9,-14
1491695246921,2,5,-19,-77,-24,11,11,-13,-7
1491695246921,2,-73,21,47,-88,-128,-79,-40,8
1491695246921,3,18,-2,3,45,56,62,34,1
1491695246921,3,39,109,26,2,57,-7,-36,11
1491695246967,0,-44,86,6,2,-41,-39,11,-5
1491695246967,0,-30,59,-40,-24,-10,11,-15,1
1491695246968,1,-44,-14,-53,48,-64,-30,-20,-49
1491695246968,1,40,-9,110,42,34,14,1,24
1491695246968,3,114,2,-15,29,-12,16,12,7
1491695246968,3,-12,-123,12,-4,31,-9,1,-6
1491695246969,0,-17,-8,-11,-3,-10,-9,-10,16
1491695246969,0,11,-33,-12,-11,-25,-32,-50,-43
1491695247016,1,-39,-64,45,30,57,48,35,20
1491695247016,1,-14,-20,-67,-78,-100,-37,-12,-16
1491695247016,2,42,-53,81,-10,-48,-17,-33,8
1491695247016,2,-36,-123,-23,-14,-1,10,30,13
1491695247017,0,74,-53,122,110,88,27,9,0
1491695247017,0,-25,-73,8,-36,-30,7,5,3
1491695247018,1,26,-78,-21,-65,-94,-29,9,-14
1491695247018,1,49,-24,-30,-23,3,8,21,30
1491695247113,2,29,84,-12,31,-6,-46,-30,-19
1491695247113,2,-92,121,10,29,25,21,-16,-16
1491695247122,3,-11,89,21,-19,-9,-6,-11,25
1491695247122,3,-41,41,-12,9,15,-5,-48,-39
1491695247123,1,-51,110,32,-2,-35,-5,-2,-9
1491695247123,1,10,105,-27,-53,-69,-66,-46,11
1491695247124,2,-128,126,13,4,-39,-13,-14,-39
1491695247124,2,92,127,-37,8,6,8,21,12
1491695247162,3,-92,126,-2,0,6,-38,-15,-18
1491695247162,3,33,105,57,34,77,64,23,9
1491695247163,0,16,22,-80,18,34,21,6,15
1491695247163,0,6,-58,61,-62,-103,-96,-54,-26
1491695247165,1,32,-124,-75,-51,-26,42,50,-6
1491695247165,1,33,-128,8,-1,-15,-8,44,15
1491695247165,2,29,-113,1,12,-28,36,2,-1
1491695247165,2,13,-78,38,-10,15,-51,9,22
1491695247211,3,-11,-122,-19,0,-65,-35,-20,-2
1491695247211,3,90,-85,32,8,73,15,33,7
1491695247212,0,-6,5,-45,-45,-66,-26,1,-9
1491695247212,0,-2,-7,15,-3,-58,-17,-5,8
1491695247213,3,3,23,-50,-45,-36,-122,-58,-3
1491695247213,3,-118,53,17,18,12,17,-14,-1
1491695247214,0,8,55,40,18,16,48,33,14
1491695247214,0,-17,77,4,30,4,43,-1,-13
1491695247259,1,45,-33,21,20,58,-19,-12,-9
1491695247259,1,-6,-25,-44,15,-10,14,-91,-30
1491695247261,2,-113,0,11,-74,31,-94,-31,-13
1491695247261,2,80,-13,-21,-21,-51,27,10,10
1491695247262,0,-31,0,12,36,-3,-37,-55,-36
1491695247262,0,16,-17,-6,-15,10,-37,-32,2
1491695247263,1,36,-18,40,-41,-50,80,48,-10
1491695247263,1,6,-40,7,-27,-128,-99,-44,-4
1491695247308,2,-7,-60,-52,-54,26,-25,-29,-26
1491695247308,2,-59,16,16,57,103,85,122,55
1491695247309,3,-19,9,12,93,40,-44,-51,-38
1491695247309,3,64,5,36,-53,-94,21,49,-9
1491695247310,1,42,-12,-4,26,5,111,125,46
1491695247310,1,-33,-37,-7,61,112,-7,-23,-24
1491695247311,2,-23,12,24,-36,-82,120,8,15
1491695247311,2,-10,27,-17,-17,-92,-104,-40,-27
1491695247357,3,12,36,5,-39,115,96,38,59
1491695247357,3,-91,18,-21,17,-98,-122,-53,-58
1491695247358,0,-57,19,-20,-34,-47,59,103,15
1491695247358,0,11,33,33,46,113,-97,-99,-27
1491695247359,2,127,12,49,66,11,-56,18,53
1491695247359,2,-50,-17,-5,-64,40,81,65,-7
1491695247360,3,-61,-66,-22,-67,-87,-100,35,-27
1491695247360,3,-72,-48,29,74,127,39,-20,12
1491695247405,0,91,-32,-28,28,1,-11,-41,-27
1491695247405,0,-55,-61,9,19,-16,127,42,33
1491695247407,1,-55,11,-17,-78,-44,-115,-52,-38
1491695247407,1,76,53,-16,-13,-18,126,35,74
1491695247407,3,27,3,6,6,32,72,38,23
1491695247407,3,-98,-51,4,-60,-60,121,50,-17
1491695247408,0,-38,2,-1,57,127,70,-3,-8
1491695247408,0,-53,65,-4,9,-106,-125,14,13
1491695247454,1,-54,11,-1,-68,-99,12,-15,-31
1491695247454,1,83,46,6,10,-20,-94,27,23
1491695247455,2,-53,36,-37,71,68,127,56,-6
1491695247455,2,-121,-58,-3,-72,-88,32,-37,-12
1491695247456,0,-75,-5,14,2,23,46,18,9
1491695247456,0,98,31,27,31,-9,-66,-78,-16
1491695247457,1,-106,-3,-11,49,127,83,64,8
1491695247457,1,127,-17,6,-11,-103,-120,-57,-45
1491695247503,2,50,17,-17,-104,-107,85,5,69
1491695247503,2,-60,-39,-38,-3,57,127,37,3
1491695247504,3,-90,-44,8,50,7,2,-26,-51
1491695247504,3,-94,-60,-16,-55,32,-70,-65,-14
1491695247505,0,-87,-16,10,17,28,-54,17,-7
1491695247505,0,89,-9,-27,-44,-48,-46,14,5
1491695247506,1,41,37,4,-3,-43,-68,-89,3
1491695247506,1,-63,61,39,32,12,127,59,-3
1491695247552,2,61,111,-23,44,-64,-128,-108,-23
1491695247552,2,79,89,-20,-8,69,23,108,60
1491695247553,3,-9,63,9,82,86,54,-15,1
1491695247553,3,127,2,1,23,-19,37,12,-1
1491695247554,1,9,-21,-12,35,71,-96,105,23
1491695247554,1,77,13,-32,-6,58,72,-42,30
1491695247555,2,-22,28,22,-23,-41,-57,-40,-25
1491695247555,2,-34,-9,43,21,20,-58,-34,-14
1491695247600,3,-96,-79,-14,-34,-16,9,-15,-12
1491695247600,3,-17,-82,-27,-9,-40,46,-38,-7
1491695247602,0,60,5,-54,-25,-68,-25,27,7
1491695247602,0,-65,53,-1,-2,-15,-47,-72,12
1491695247603,2,-22,-55,1,15,28,51,29,17
1491695247603,2,-76,-37,-16,-14,-5,-1,39,-42
1491695247603,3,-38,-37,5,9,-63,79,-45,-26
1491695247603,3,-54,0,-26,-44,-28,14,-1,32
1491695247649,0,30,-62,-17,-39,-16,-107,12,19
1491695247649,0,127,4,14,12,47,-50,-31,2
1491695247650,1,-109,-37,28,59,55,65,-22,-21
1491695247650,1,51,34,-1,-42,-46,-97,12,-21
1491695247651,3,10,-52,-34,-65,-69,25,31,3
1491695247651,3,79,23,84,16,90,42,62,47
1491695247652,0,-68,-50,2,48,44,-72,2,-33
1491695247652,0,24,-39,4,98,46,7,-13,-18
1491695247698,1,-77,-50,-65,-126,-128,28,117,65
1491695247698,1,-128,-51,-34,-61,-1,-87,-82,-94
1491695247699,2,-18,-50,-4,0,41,117,35,9
1491695247699,2,34,-21,25,23,12,27,-70,24
1491695247700,0,-22,41,29,-68,-60,73,11,-50
1491695247700,0,-99,-18,-25,35,80,-109,-47,-17
1491695247701,1,57,-25,-35,-33,-86,30,74,18
1491695247701,1,-40,10,26,9,-57,-87,-86,-34
1491695247747,2,98,-10,-13,27,52,74,52,21
1491695247747,2,91,42,2,-40,-57,-71,3,85
1491695247748,3,-45,-34,-1,-10,2,-9,19,-36
1491695247748,3,119,-25,-10,-53,-7,44,82,23
1491695247749,1,43,9,-8,6,-29,-128,-83,14
1491695247749,1,-34,-2,3,-8,-80,-62,-110,-42
1491695247750,2,-65,-64,31,32,15,-85,-75,10
1491695247750,2,-83,-47,-55,-61,-18,90,72,-34
1491695247796,3,114,50,22,39,-22,1,-74,14
1491695247796,3,-36,-8,3,-9,63,-34,-5,-35
1491695247797,0,-24,35,30,79,51,34,23,60
1491695247797,0,19,22,10,-41,-33,38,9,-41
1491695247798,2,112,44,15,19,68,43,-105,11
1491695247798,2,-60,-50,-11,-25,-13,-108,98,36
1491695247800,3,-87,22,2,34,16,90,-71,-57
1491695247800,3,-41,31,27,-6,30,-30,99,38
1491695247844,0,-128,-23,-46,-87,-128,39,-25,-46
1491695247844,0,127,38,7,14,105,31,-10,8
1491695247846,1,-31,-12,-2,-29,-21,61,-11,8
1491695247846,1,-32,-29,-11,62,-17,48,39,5
1491695247847,2,119,12,15,28,97,-47,-3,15
1491695247847,2,-100,-15,10,-29,-128,38,-58,-26
1491695247848,3,-9,3,-5,30,119,-103,-6,9
1491695247848,3,114,30,2,19,-51,117,31,55
1491695247893,0,-45,-34,-29,-115,-127,-31,86,-14
1491695247893,0,42,66,31,60,23,121,-71,-12
1491695247894,1,-56,-46,-16,0,-17,-105,-29,-9
1491695247894,1,-90,19,6,24,96,-2,5,7
1491695247895,3,48,21,-15,20,28,3,-52,-4
1491695247895,3,33,-3,2,56,102,112,56,21
1491695247896,0,-4,12,11,-30,-10,1,-126,-37
1491695247896,0,61,19,-16,58,77,-41,90,42
1491695247942,1,127,25,53,43,-23,81,48,28
1491695247942,1,-13,-9,-10,-56,-56,10,-33,-50
1491695247943,2,-128,-26,-17,33,53,-75,-70,-27
1491695247943,2,20,23,4,-86,-52,-87,-29,-2
1491695247944,0,122,33,-3,-94,-13,74,26,40
1491695247944,0,-127,-13,5,117,100,115,18,-6
1491695247945,1,-72,-5,27,-41,-91,-72,42,-38
1491695247945,1,91,8,1,-16,17,-38,5,-9
1491695247991,2,-107,-30,-109,-113,-117,-77,-49,-8
1491695247991,2,121,27,51,46,-56,88,-32,8
1491695247992,3,33,37,81,70,27,-94,98,75
1491695247992,3,46,47,60,127,101,127,44,-39
1491695247993,1,-128,-59,6,72,32,-54,-128,-43
1491695247993,1,46,34,40,94,16,88,95,115
1491695247994,2,104,43,23,59,127,114,-38,-6
1491695247994,2,10,7,-12,-79,-128,-128,95,-2
1491695248039,3,-46,-8,-21,-128,-30,72,-72,-24
1491695248039,3,-7,48,-27,-33,7,-27,-64,17
1491695248041,0,-6,4,-19,-27,-76,57,-26,-64
1491695248041,0,75,-11,21,82,83,19,81,22
1491695248042,2,-69,-7,28,-50,-128,11,-12,-17
1491695248042,2,53,-6,-23,-19,-18,64,-128,-66
1491695248043,3,-32,-62,-39,-75,-117,-76,43,41
1491695248043,3,-21,-91,-42,95,98,119,13,19
1491695248088,0,121,-17,76,33,109,-128,51,29
1491695248088,0,66,-27,-23,-68,-71,-77,-69,-19
1491695248090,1,-87,48,64,-5,62,116,13,-25
1491695248090,1,-33,20,-29,43,-62,-128,-63,-20
1491695248091,3,65,50,-26,60,20,118,114,49
1491695248091,3,-78,-55,-37,-128,-106,-86,-121,-66
1491695248092,0,-92,46,95,127,127,127,17,-40
1491695248092,0,-39,-9,-1,11,-28,-68,86,22
1491695248137,1,1,-10,-62,-128,-104,-99,31,-28
1491695248137,1,40,-44,19,-15,71,-88,-81,5
1491695248138,2,57,25,5,43,44,67,-82,5
1491695248138,2,17,22,38,97,-29,127,107,33
1491695248139,0,34,-37,-25,68,22,-128,18,31
1491695248139,0,-44,-16,40,-31,49,118,42,-14
1491695248141,1,56,16,-11,-11,-8,-38,31,-36
1491695248141,1,-50,28,12,-83,-128,81,86,60
1491695248186,2,52,24,12,-124,52,26,-98,-8
1491695248186,2,-128,-43,4,120,-52,25,70,24
1491695248187,3,-26,-18,-12,17,58,25,-62,-45
1491695248187,3,104,29,-19,1,4,91,2,32
1491695248188,0,14,1,33,-33,-79,-18,3,2
1491695248188,0,-118,-10,-45,11,37,2,-10,-36
1491695248189,1,91,8,-3,-6,-86,114,-51,65
1491695248189,1,-104,-3,103,17,124,51,40,-79
1491695248234,2,123,8,-33,127,52,77,74,60
1491695248234,2,-74,0,9,-128,-82,-116,-127,-47
1491695248235,3,-128,-38,-51,-61,-56,10,-24,-14
1491695248235,3,127,27,1,84,89,-26,-57,40
1491695248236,1,-89,-24,-56,-20,-47,-55,-15,58
1491695248236,1,99,-32,0,21,-74,-17,33,28
1491695248238,2,-63,14,23,48,93,63,55,1
1491695248238,2,61,60,24,127,-39,-28,41,-7
1491695248332,3,-20,-27,-26,-84,-75,-50,-6,-50
1491695248332,3,-37,9,-23,-35,89,86,-26,27
1491695248333,0,86,-19,30,94,-2,-120,-30,23
1491695248333,0,9,41,98,92,-1,-71,-54,-42
1491695248381,2,35,8,-12,54,69,127,54,7
1491695248381,2,68,35,35,79,-66,-26,-35,33
1491695248429,3,61,1,41,-10,71,7,7,0
1491695248429,3,-33,15,37,112,41,89,91,32
1491695248430,0,-52,-8,-49,-111,40,-118,-125,-49
1491695248430,0,20,-54,-52,-100,-44,52,118,16
1491695248431,1,-18,-8,34,-36,60,114,13,-6
1491695248431,1,-49,21,56,54,81,84,16,-23
1491695248432,3,127,10,51,127,118,127,61,26
1491695248432,3,13,29,6,31,-107,-84,-83,-43
1491695248478,0,61,-95,-95,-128,-50,-56,22,2
1491695248478,0,-84,-88,69,84,99,127,46,17
1491695248479,1,37,96,12,-14,127,100,2,17
1491695248479,1,10,127,-31,-102,-36,23,43,-6
1491695248481,2,57,53,-63,-89,-79,-14,-76,24
1491695248481,2,36,23,59,-62,68,-4,-26,-21
1491695248482,3,40,-61,-55,27,-49,-33,-49,-1
1491695248482,3,-77,-71,28,-50,-49,-26,56,-9
1491695248527,0,-6,-26,33,95,-6,76,61,33
1491695248527,0,15,-41,-11,-80,8,62,53,0
1491695248530,1,-15,-117,-42,-79,-42,-45,-31,-14
1491695248530,1,-55,-23,24,109,93,-69,-88,-16
1491695248531,2,12,-27,-92,-8,-128,58,73,2
1491695248531,2,12,11,68,-84,-33,-15,-9,3
1491695248532,3,-53,67,-11,28,-58,83,20,-3
1491695248532,3,-18,100,-128,26,58,-92,-33,-52
1491695248576,0,78,75,124,-114,-122,-128,-34,9
1491695248576,0,33,-64,-57,38,59,89,4,19
1491695248577,1,-86,-67,8,42,48,58,-19,-29
1491695248577,1,51,40,36,-118,-40,-15,10,37
1491695248578,3,-30,20,-77,5,41,15,-14,-6
1491695248578,3,22,49,18,13,-72,-22,-4,-7
1491695248579,0,-58,31,51,50,113,68,51,8
1491695248579,0,12,-26,0,96,-13,8,-6,-17
1491695248673,1,10,-18,-92,-112,-128,-88,1,-1
1491695248673,1,-28,-126,100,31,47,-31,-5,-13
1491695248675,2,-21,-93,13,42,75,-8,13,17
1491695248675,2,0,-7,98,127,117,71,-3,-28
1491695248676,0,100,40,-76,-16,54,-128,-59,-7
1491695248676,0,-82,-4,-29,103,4,-35,-56,-35
1491695248677,1,16,28,95,68,80,40,-2,15
1491695248677,1,51,-32,-55,-93,-128,-23,-3,-3
1491695248722,2,21,102,20,70,76,127,69,11
1491695248722,2,-18,14,34,87,127,-34,-12,-1
1491695248724,3,-19,-49,-90,-27,0,-41,-26,2
1491695248724,3,74,21,-54,-66,-31,-3,40,6
1491695248725,1,-28,62,127,110,114,100,26,18
1491695248725,1,81,83,9,25,-46,83,26,-11
1491695248726,2,62,-46,-72,-104,35,7,-37,27
1491695248726,2,70,42,-12,93,54,-1,-33,11
1491695248770,3,-69,16,-27,80,98,97,43,-24
1491695248770,3,66,25,127,127,127,88,54,39
1491695248772,0,-101,-21,-16,52,74,64,-11,-36
1491695248772,0,-54,-27,-5,-103,-79,-97,-68,-13
1491695248773,3,-96,4,-22,-125,-128,-45,-7,-18
1491695248773,3,37,-59,42,-84,-123,-62,-19,25
1491695248774,0,-53,-99,22,97,78,75,42,-2
1491695248774,0,-14,-30,-59,24,-67,-74,-70,-30
1491695248820,1,-52,-82,71,-61,54,-53,22,19
1491695248820,1,114,45,-33,-83,-82,13,17,33
1491695248821,2,-81,16,-41,-78,7,-2,11,-10
1491695248821,2,-9,54,25,115,-85,-38,-41,-4
1491695248822,0,-29,49,-71,-51,-61,-55,4,-24
1491695248822,0,20,15,78,72,119,64,31,9
1491695248823,1,19,36,-48,-57,-115,-22,-7,13
1491695248823,1,-77,31,41,-12,-41,4,10,-24
1491695248868,2,81,4,-77,-36,-90,-61,-20,24
1491695248868,2,-50,11,20,-56,16,-7,10,-33
1491695248870,3,6,7,41,106,92,76,9,9
1491695248870,3,15,18,-49,17,60,37,68,6
1491695248871,1,-86,10,37,-9,-25,-14,-25,-38
1491695248871,1,-11,1,32,18,-54,-35,-15,13
1491695248872,2,73,0,-7,31,2,-18,10,28
1491695248872,2,-28,-3,24,-37,28,17,-4,-1
1491695248917,3,-19,-1,-38,-8,-44,16,25,-3
1491695248917,3,-47,7,0,-5,3,-24,-9,-7
1491695248918,0,-20,-4,37,-12,-23,-1,-1,-24
1491695248918,0,-14,0,1,35,89,23,0,1
1491695248919,1,53,1,6,0,-39,6,-48,13
1491695248919,1,54,2,-9,29,21,-3,-2,-24
1491695248920,2,-5,1,-9,-22,-74,-20,16,-5
1491695248920,2,-1,-5,2,28,52,61,-5,0
1491695248966,3,-1,1,-1,-42,-76,-98,-64,-31
1491695248966,3,-35,2,18,40,59,104,71,42
1491695248968,0,-22,-3,-5,-52,-71,-81,-12,13
1491695248968,0,8,-1,-12,-12,4,33,2,-18
1491695248969,2,19,127,21,48,88,73,39,23
1491695248969,2,-89,127,-102,-59,25,-1,32,22
1491695248969,3,13,40,74,-50,-83,-11,-33,3
1491695248969,3,38,26,-44,-4,52,-11,-24,-9
1491695249014,0,-110,-53,25,-14,-48,-54,-29,-18
1491695249014,0,-26,108,1,123,74,18,20,-9
1491695249016,1,-4,41,-2,-45,-37,14,16,6
1491695249016,1,-76,114,32,27,79,85,37,10
1491695249017,3,83,-118,-45,18,-35,-41,77,16
1491695249017,3,18,-115,4,-32,-27,-49,-53,-34
1491695249018,0,-36,-106,-27,33,84,38,23,3
1491695249018,0,-28,-116,43,59,30,41,19,-24
1491695249063,1,61,-44,-35,-15,-17,-18,-27,37
1491695249063,1,0,-66,-7,-19,-51,-78,-9,0
1491695249064,2,93,-19,14,-12,-5,22,-4,-7
1491695249064,2,0,81,16,14,-19,21,-24,11
1491695249065,0,-100,-83,-14,8,48,34,-5,-29
1491695249065,0,39,-121,87,11,-21,-75,-64,-1
1491695249067,1,-60,-87,-54,-70,-8,53,82,3
1491695249067,1,36,-128,28,8,-55,-21,-18,4
1491695249112,2,7,-98,0,12,-6,12,0,-2
1491695249112,2,39,-93,-30,1,57,-1,-1,-6
1491695249113,3,56,-42,-9,54,18,-73,-15,7
1491695249113,3,-80,-61,26,30,86,61,-27,-50
1491695249114,1,-74,34,-28,-40,-23,117,49,-23
1491695249114,1,48,2,-10,59,61,48,-5,20
1491695249115,2,-19,31,-16,-40,-45,-93,-92,-35
1491695249115,2,47,36,-19,-87,-89,-62,16,6
1491695249160,3,-73,-2,2,83,52,17,-18,24
1491695249160,3,73,-4,5,-61,74,99,47,14
1491695249161,0,-52,37,-5,37,-23,26,-45,-14
1491695249161,0,-43,-35,13,53,84,16,60,-3
1491695249162,2,23,-30,11,-104,-89,68,15,-3
1491695249162,2,-25,-29,-16,2,27,90,84,39
1491695249167,3,25,91,18,94,127,69,-15,-18
1491695249167,3,-113,102,32,40,-81,-112,-65,-48
1491695249258,0,115,78,-28,-123,-50,-15,-1,25
1491695249258,0,-128,-68,-49,-62,-128,-24,-53,-35
1491695249259,1,42,-97,32,65,127,56,-3,-3
1491695249259,1,103,-91,6,20,-27,-24,63,67
1491695249307,3,-27,-73,-19,-48,-51,-59,-20,-32
1491695249307,3,-128,10,-27,-37,-68,10,-24,-51
1491695249356,0,18,109,53,127,127,42,49,36
1491695249356,0,52,-18,33,33,117,116,13,23
1491695249356,1,77,30,-13,5,-76,-104,-105,-10
1491695249356,1,-67,-8,-33,-83,-103,-101,9,14
1491695249357,2,-60,32,-16,-47,68,45,-43,-21
1491695249357,2,-48,-9,-6,40,-91,95,-51,-32
1491695249358,3,22,50,14,-25,0,-84,62,-4
1491695249358,3,47,-28,10,78,87,105,-86,-2
1491695249404,0,-3,-26,-34,-100,-128,97,127,33
1491695249404,0,46,60,-21,46,21,15,-68,-6
1491695249405,1,-4,-29,-33,-61,-128,117,24,-6
1491695249405,1,-73,-25,-15,3,56,-69,-26,6
1491695249405,2,-88,-4,10,-2,10,-30,-24,-15
1491695249405,2,42,-22,-16,-33,-25,83,-10,-29
1491695249407,3,46,10,23,51,97,-58,26,46
1491695249407,3,-76,3,-9,15,-37,-86,-35,-8
1491695249453,0,8,21,28,32,102,85,79,-8
1491695249453,0,38,-62,-39,-100,-128,-67,-10,-22
1491695249454,1,-15,-55,-36,-70,54,27,13,-21
1491695249454,1,109,-52,-18,20,61,25,-49,43
1491695249454,3,17,33,15,-51,-111,-93,-107,-50
1491695249454,3,-16,30,7,-18,59,18,5,12
1491695249455,0,-16,-22,-26,4,-11,82,-5,41
1491695249455,0,60,-20,1,14,3,-93,52,-12
1491695249502,1,-99,29,-1,1,25,-43,-31,-24
1491695249502,1,-71,51,23,-27,-115,94,35,-22
1491695249502,2,74,38,-27,-34,3,-100,-9,19
1491695249502,2,-127,36,-7,50,33,-72,8,26
1491695249503,0,-4,7,-17,26,-36,103,3,4
1491695249503,0,56,33,2,-34,-13,15,-45,-29
1491695249504,1,-8,-8,-2,33,48,-8,79,40
1491695249504,1,18,-16,-20,43,48,-6,-14,-13
1491695249550,2,-88,3,-6,14,3,56,67,3
1491695249550,2,64,69,-20,-40,-58,-110,-31,19
1491695249551,3,-5,127,-28,-51,-59,6,-41,15
1491695249551,3,112,63,-25,-19,0,120,59,4
1491695249552,1,-32,45,39,10,3,-17,-18,24
1491695249552,1,4,-2,8,9,63,117,85,27
1491695249553,2,94,-16,-11,-25,-10,-53,-3,-5
1491695249553,2,-88,18,17,-78,-21,-47,-85,-47
1491695249599,3,-84,-54,21,46,19,68,77,0
1491695249599,3,35,-45,2,3,9,-54,-62,-14
1491695249600,0,34,-64,11,20,-2,-4,14,11
1491695249600,0,-23,-105,-35,-95,-107,-95,-2,8
1491695249601,1,-26,-105,-25,-4,-9,6,-19,-9
1491695249601,1,-128,-91,-32,10,14,16,15,11
1491695249602,2,84,-14,37,49,37,112,32,15
1491695249602,2,-95,-2,32,60,98,-117,3,13
1491695249697,3,10,25,4,3,-20,55,-24,-26
1491695249697,3,-79,27,-3,-10,-5,2,7,-25
1491695249697,0,-89,31,-13,-44,-65,34,-10,10
1491695249697,0,64,45,-6,7,13,127,76,18
1491695249698,2,-104,31,5,-19,-28,10,-18,17
1491695249698,2,67,-26,-21,23,-24,-14,-56,-34
1491695249699,3,-59,11,-1,-7,21,-128,-61,-4
1491695249699,3,38,-18,7,-15,3,60,5,-4
1491695249745,0,64,35,9,5,43,-33,-2,6
1491695249745,0,29,44,13,-4,-14,6,-8,20
1491695249746,1,1,-5,-30,19,-44,-8,7,8
1491695249746,1,-9,-21,-24,-42,-62,-26,-63,-72
1491695249747,3,127,-11,20,-27,-78,-4,-14,10
1491695249747,3,93,-11,4,61,117,-16,79,69
1491695249748,0,-118,15,16,71,121,-50,-27,-42
1491695249748,0,110,65,-8,-9,-63,0,-57,43
1491695249794,1,-128,-8,-35,-94,105,4,32,-32
1491695249794,1,5,1,-3,25,-21,-128,-128,-7
1491695249795,2,-17,-24,-21,-4,-6,-8,102,-12
1491695249795,2,75,7,35,100,45,127,92,14
1491695249795,1,-45,-11,-10,120,-103,79,127,30
1491695249795,1,-89,37,20,-74,127,127,48,-31
1491695249797,2,127,-21,-27,41,-57,-128,-5,3
1491695249797,2,64,-36,-33,-81,-99,70,-14,-5
1491695249843,3,-2,3,37,7,127,127,29,20
1491695249843,3,40,-1,2,80,-52,-94,-53,-25
1491695249844,0,-83,19,-1,-15,16,113,70,-18
1491695249844,0,46,40,38,62,-1,-38,-110,-9
1491695249844,2,-69,-60,-56,-115,-66,-57,-66,-42
1491695249844,2,68,-33,-12,85,111,121,-25,-10
1491695249845,3,-68,-4,65,103,32,-118,-51,25
1491695249845,3,-93,4,-1,-82,-70,106,42,-19
1491695249892,0,28,23,18,-64,-90,-37,68,48
1491695249892,0,-98,-24,1,57,79,85,-31,-36
1491695249892,1,-65,9,30,2,-99,127,102,-24
1491695249892,1,-73,-8,-16,-60,127,77,-34,-25
1491695249893,3,-8,6,7,32,-60,-113,-128,-29
1491695249893,3,-3,32,89,109,43,100,110,34
1491695249894,0,127,67,81,97,127,-8,-34,37
1491695249894,0,-26,-24,-44,-35,-34,-69,83,-13
1491695249940,1,127,3,-99,-52,-11,73,-49,43
1491695249940,1,-50,-22,-23,43,12,-39,-13,-13
1491695249941,2,-15,9,98,127,99,127,23,-1
1491695249941,2,18,31,48,127,115,59,18,-17
1491695249942,3,102,7,-26,-128,-128,-60,-81,18
1491695249942,3,-26,6,-33,-97,-91,103,72,73
1491695249943,0,-96,-101,-104,8,-61,-73,-119,-83
1491695249943,0,-16,-5,94,80,37,127,60,1
1491695249989,1,-6,-36,7,37,92,34,-81,-59
1491695249989,1,121,-50,-6,-49,-71,-128,-5,25
1491695249991,2,-40,21,-29,-118,55,127,-61,44
1491695249991,2,98,45,-21,22,-63,-20,29,-4
1491695249991,0,96,-49,-94,-128,-11,-2,-15,-18
1491695249991,0,-89,90,11,48,120,54,60,106
1491695249992,1,-55,5,32,105,-78,-48,-42,-48
1491695249992,1,-49,5,15,-16,-85,49,-76,-60
1491695250038,2,37,20,17,-48,99,90,116,28
1491695250038,2,40,22,69,6,87,97,-104,-3
1491695250039,3,-27,-33,-45,-106,-91,-70,67,24
1491695250039,3,-100,-17,-83,-63,-93,-55,-63,-30
1491695250040,1,-26,-11,-19,-118,-76,-56,-26,-25
1491695250040,1,-54,-23,-8,-7,-25,82,64,47
1491695250042,2,63,-17,24,113,73,-70,-98,-38
1491695250042,2,-59,-36,-33,-128,-128,5,85,16
1491695250087,3,46,1,-84,-46,-73,124,94,20
1491695250087,3,-48,-39,29,60,-24,-128,-17,17
1491695250088,0,59,-3,42,115,87,127,37,8
1491695250088,0,-42,12,10,-85,-128,64,9,-16
1491695250089,2,-72,35,-3,-63,-128,-128,-104,-49
1491695250089,2,-32,-31,-4,40,-40,10,-40,11
1491695250090,3,-81,20,15,-71,71,127,124,39
1491695250090,3,-49,5,17,127,100,55,-95,-46
1491695250138,0,-31,-17,9,-58,-13,-108,-99,5
1491695250138,0,-85,54,-68,-105,-128,48,127,33
1491695250140,1,-32,81,20,-36,-6,-122,-73,-52
1491695250140,1,120,49,30,33,101,106,11,44
1491695250141,3,121,-2,30,-50,121,127,46,67
1491695250141,3,-19,28,22,100,-1,19,74,-4
1491695250142,0,8,5,-33,-128,-128,-1,-14,3
1491695250142,0,-8,-10,34,16,90,27,1,16
1491695250184,1,-48,-18,19,127,81,50,-24,-9
1491695250184,1,40,-26,-77,-128,-128,-74,-37,26
1491695250185,2,-50,-39,-47,-24,-65,19,-4,-15
1491695250185,2,69,42,54,24,58,46,23,35
1491695250189,0,-87,-27,40,127,-74,93,97,52
1491695250189,0,61,-88,-114,-13,54,-93,-61,-33
1491695250190,1,-51,-25,52,-67,12,57,120,37
1491695250190,1,22,-93,65,127,96,46,-60,-2
1491695250233,2,127,-58,-13,89,43,85,9,-4
1491695250233,2,-67,-60,-30,-109,-55,-47,32,-18
1491695250234,3,-28,-87,-57,52,85,-124,39,-6
1491695250234,3,-10,19,-13,-25,-109,34,84,4
1491695250235,1,31,90,-14,52,4,-8,-19,-2
1491695250235,1,18,112,33,-22,-56,-29,-14,-19
1491695250236,2,53,50,-51,-47,-111,-115,-60,-18
1491695250236,2,31,44,26,111,78,88,-9,54
1491695250282,3,-92,-29,21,29,-128,-80,14,-7
1491695250282,3,-37,-15,-43,-48,-63,-84,-40,-67
1491695250283,0,50,-67,-3,-50,-66,-102,-91,-5
1491695250283,0,59,-84,-10,42,69,56,24,25
1491695250284,2,-94,89,-114,61,40,-124,-66,-51
1491695250284,2,-13,70,19,86,26,-22,-69,-31
1491695250285,3,-21,68,96,-30,-70,-14,-38,3
1491695250285,3,44,-11,-75,-38,75,-27,34,12
1491695250330,0,28,-52,-2,-24,19,127,65,56
1491695250330,0,-12,-58,94,127,122,44,38,9
1491695250332,1,-34,-120,-63,78,72,-59,-110,-76
1491695250332,1,-1,-69,-67,-128,-118,33,15,-7
1491695250333,2,23,47,107,127,127,88,52,38
1491695250333,2,40,118,-28,82,-120,-108,-72,-1
1491695250334,3,-56,22,-71,-108,29,67,-4,-18
1491695250334,3,19,46,-34,43,-65,-111,-12,31
1491695250379,0,-30,34,-30,-97,-90,35,29,-6
1491695250379,0,-52,-2,100,5,8,15,18,-19
1491695250380,1,31,-60,-64,-35,53,13,0,8
1491695250380,1,55,-38,87,127,127,127,60,31
1491695250382,3,59,81,-7,-28,43,-23,-48,-6
1491695250382,3,-92,-17,-33,-103,-82,-79,-43,-21
1491695250382,0,11,-5,-12,100,8,-80,-78,-13
1491695250382,0,42,24,42,63,79,43,21,-18
1491695250428,1,-42,30,43,-60,-109,-22,82,10
1491695250428,1,93,40,-72,-79,-43,-21,19,8
1491695250429,2,-31,-10,93,79,78,17,-37,-4
1491695250429,2,-47,-54,-106,-128,-119,-128,-51,2
1491695250430,0,-7,-27,42,-104,-47,11,14,-9
1491695250430,0,-82,-49,-90,-51,-67,127,82,55
1491695250431,1,18,61,109,67,-116,-128,-128,-66
1491695250431,1,-14,2,86,127,24,89,56,-4
1491695250477,2,-6,13,-59,127,127,127,125,-2
1491695250477,2,3,-80,-52,-107,27,-35,-67,-32
1491695250478,3,-3,-34,64,-128,-128,-98,-79,57
1491695250478,3,25,-39,-43,127,127,14,-32,15
1491695250479,1,14,-7,11,96,127,110,89,2
1491695250479,1,12,-28,-14,-108,-128,-51,-27,7
1491695250480,2,20,58,-73,-128,20,-81,-14,18
1491695250480,2,-127,20,-61,3,-128,-124,-94,-33
1491695250526,3,97,3,-106,73,127,32,6,15
1491695250526,3,-2,81,113,127,117,112,74,15
1491695250574,0,66,-54,112,110,-128,74,38,2
1491695250574,0,-29,13,-12,-109,-52,-82,-23,-18
1491695250575,2,71,37,-30,-84,-108,51,23,-1
1491695250575,2,120,-76,59,127,51,13,4,19
1491695250576,3,-68,4,45,-128,-128,-56,-28,4
1491695250576,3,-20,-63,-119,-128,-88,-89,-40,-16
1491695250577,0,-66,-97,-30,36,25,-18,-31,4
1491695250577,0,0,30,98,111,55,66,34,-13
1491695250623,1,-24,-61,-44,60,62,43,41,-3
1491695250623,1,-116,-62,62,-47,30,-25,-15,-20
1491695250720,3,-57,-25,95,51,41,-1,3,-20
1491695250720,3,2,-69,-108,-22,7,-9,-12,21
1491695250722,0,-73,17,46,15,-17,-43,-50,-22
1491695250722,0,-7,-105,83,-100,-8,7,18,36
1491695250723,0,27,15,22,-6,32,-22,-36,22
1491695250723,0,-70,127,42,112,119,34,23,-23
1491695250723,1,-11,87,26,-43,28,96,51,16
1491695250723,1,69,-14,-15,75,-77,-41,-34,-18
1491695250769,2,-102,62,-40,-79,-59,-47,1,-5
1491695250769,2,-35,38,26,-26,11,46,25,-17
1491695250818,0,-42,40,29,90,99,-4,-41,-24
1491695250818,0,-12,17,-128,-95,-111,-70,20,10
1491695250867,1,-110,47,92,7,-20,-18,-5,-3
1491695250867,1,34,127,2,48,45,62,20,2
1491695250868,2,-6,-93,-97,-16,31,-8,9,8
1491695250868,2,-50,-61,120,20,-28,-48,-49,-2
1491695250869,3,44,-82,-30,3,51,62,43,12
1491695250869,3,9,-88,-21,50,59,39,-10,11
1491695250870,0,-117,-92,15,-17,-16,-13,27,2
1491695250870,0,29,-77,-23,43,4,-21,-16,-18
1491695250915,3,-6,-61,57,37,26,-26,-39,-4
1491695250915,3,6,-70,-4,43,107,81,47,6
1491695250917,0,-36,127,25,-28,1,-26,-6,1
1491695250917,0,-81,90,-36,-24,-19,-15,-3,-20
1491695250917,1,-39,-83,-20,25,34,36,12,-16
1491695250917,1,-51,83,13,76,123,112,-8,2
1491695250918,2,88,-4,-18,-99,-112,-112,5,12
1491695250918,2,-128,-42,13,-74,-29,30,-70,-27
1491695250964,3,127,-67,3,59,-1,-33,-37,5
1491695250964,3,32,-128,-33,8,5,2,52,4
1491695250965,0,-91,-46,13,68,91,57,13,13
1491695250965,0,108,-17,4,35,25,40,51,2
1491695250966,2,43,-8,-4,-40,-33,-19,32,-12
1491695250966,2,-128,-39,25,33,-15,-28,-26,-46
1491695250967,3,50,93,12,20,0,11,26,36
1491695250967,3,3,52,-29,-6,-43,-42,-56,-30
1491695251013,0,61,-1,-5,13,17,20,-9,36
1491695251013,0,-13,-74,-27,52,20,40,28,-20
1491695251014,1,26,-98,50,-4,-24,49,42,-11
1491695251014,1,-40,-105,-54,-121,-99,-113,-29,20
1491695251015,2,75,-128,-68,-41,-50,-57,-128,-56
1491695251015,2,-74,-51,2,45,12,54,22,30
1491695251015,3,59,17,52,94,75,22,26,7
1491695251015,3,54,-104,10,38,87,39,3,15
1491695251062,0,-90,-7,16,-78,-74,47,-16,-11
1491695251062,0,-39,3,-8,24,60,84,84,11
1491695251063,1,47,59,10,-49,-128,-114,-36,-27
1491695251063,1,62,68,-48,-12,113,-8,9,9
1491695251064,3,-30,22,5,28,36,96,72,3
1491695251064,3,-39,-8,9,40,-33,-60,-40,-24
1491695251064,0,-50,-107,27,94,80,68,-11,-18
1491695251064,0,33,18,-11,-83,-106,-127,23,11
1491695251110,1,-96,-13,-57,-92,-103,-56,-83,-50
1491695251110,1,-40,83,-48,19,27,32,33,-5
1491695251111,2,63,55,53,48,111,86,70,40
1491695251111,2,-71,8,24,-16,-62,-11,-115,-39
1491695251112,0,-12,-39,-23,-63,-81,-88,-41,-5
1491695251112,0,-114,-43,-46,13,53,86,49,-51
1491695251113,1,82,20,-11,-62,-128,-9,37,29
1491695251113,1,95,68,47,28,76,68,47,21
1491695251159,2,-54,1,33,93,71,119,-15,-27
1491695251159,2,121,-33,-5,-3,57,-128,-83,28
1491695251160,3,-128,-99,-87,-62,-70,-76,-128,-86
1491695251160,3,64,-15,61,-37,-43,92,73,82
1491695251160,1,-103,1,4,103,108,67,2,-18
1491695251160,1,99,-21,-2,-15,-88,-123,-48,-1
1491695251162,2,-47,-1,-23,-46,36,32,-11,5
1491695251162,2,-92,24,20,94,127,127,104,38
1491695251208,3,122,-24,-28,-27,-10,-90,-34,45
1491695251208,3,-46,-58,-37,-88,-128,35,21,-13
1491695251209,0,46,29,2,52,90,88,74,58
1491695251209,0,-61,28,23,-25,-115,-98,-13,-35
1491695251209,2,1,-49,-51,-87,-105,-91,-29,35
1491695251209,2,-65,19,34,14,83,-7,-45,-33
1491695251210,3,-38,-1,24,85,-73,-20,64,-8
1491695251210,3,-13,41,-28,-120,-88,7,-33,-8
1491695251257,0,-67,74,-23,59,122,-73,1,-7
1491695251257,0,-44,-13,-28,-3,-61,18,-2,-8
1491695251257,1,-117,5,18,-74,-29,54,-1,-23
1491695251257,1,-117,-21,23,104,120,98,38,-12
1491695251258,3,-51,-22,-27,-23,74,-68,-20,-35
1491695251258,3,-77,-96,31,39,11,-92,-55,-32
1491695251259,0,-2,-54,38,71,125,125,53,42
1491695251259,0,-66,-115,-52,37,14,-66,29,-15
1491695251306,1,-100,27,23,-22,-83,-29,-68,45
1491695251306,1,63,51,22,-96,45,-124,7,-55
1491695251307,2,27,28,-27,40,-86,63,50,-25
1491695251307,2,49,107,-17,-93,-64,-11,39,-4
1491695251308,0,80,67,-11,-80,-69,9,75,20
1491695251308,0,9,127,21,-21,-37,-11,-76,10
1491695251309,1,54,-4,5,-17,91,65,72,27
1491695251309,1,66,62,-6,17,-46,-15,-69,38
1491695251354,2,37,85,16,50,90,82,-16,-3
1491695251354,2,-48,12,-32,-4,20,7,56,-5
1491695251355,3,-59,-25,24,20,-14,-104,-83,27
1491695251355,3,57,-43,22,22,-22,115,60,-22
1491695251356,0,-128,-44,-25,-13,66,40,-50,-55
1491695251356,0,101,-37,17,17,-76,60,-40,-44
1491695251357,1,-74,-103,-64,-61,-52,-67,15,-25
1491695251357,1,92,-90,-20,-36,-48,36,28,29
1491695251403,2,6,-41,-15,-90,-57,-107,-78,-38
1491695251403,2,-5,62,76,87,127,39,-14,23
1491695251405,3,56,33,22,53,39,44,-23,-8
1491695251405,3,-125,54,19,23,13,-85,-77,-53
1491695251406,1,-32,64,4,-49,24,-39,-20,1
1491695251406,1,77,27,-29,-29,15,-5,-44,11
1491695251407,2,1,70,30,63,43,42,45,-1
1491695251407,2,-85,-39,-16,9,-23,-37,50,22
1491695251452,3,127,20,8,22,-12,87,-52,-20
1491695251452,3,-56,-48,2,29,95,18,13,15
1491695251455,0,-56,-111,-22,-59,-80,-94,-38,-12
1491695251455,0,-35,-64,28,-7,32,-40,16,-5
1491695251456,2,61,-29,-29,-76,-69,-128,-83,27
1491695251456,2,-39,-42,-6,4,-21,27,16,-18
1491695251457,3,5,-50,-10,-33,12,120,71,-2
1491695251457,3,-126,40,-2,45,-87,-73,-95,-20
1491695251501,0,38,52,1,-48,4,22,94,53
1491695251501,0,-40,8,-9,-81,53,88,57,-6
1491695251502,1,-54,32,11,-12,-68,-15,10,0
1491695251502,1,32,12,-28,56,82,82,42,37
1491695251503,3,-20,-2,3,-29,-47,-52,-6,-16
1491695251503,3,85,12,-3,-26,-36,13,51,31
1491695251504,0,61,16,7,5,-41,32,20,66
1491695251504,0,-3,-70,13,40,97,83,64,-1
1491695251549,1,-88,-11,-12,47,36,-61,-42,0
1491695251549,1,0,42,30,-55,-96,-38,-11,-37
1491695251550,2,-51,-37,-23,-79,9,53,-36,-31
1491695251550,2,70,8,-20,-16,13,50,14,38
1491695251551,0,88,66,-21,-3,73,-109,-34,-27
1491695251551,0,-77,-3,-45,-88,-118,-18,-88,-10
1491695251552,1,81,-46,-20,11,-34,75,42,-5
1491695251552,1,31,13,-11,-43,-87,-78,-70,3
1491695251598,2,-55,-47,4,43,15,13,1,-36
1491695251598,2,72,5,21,62,26,49,20,51
1491695251599,3,-75,-33,15,98,77,-7,-32,-63
1491695251599,3,-27,-35,-7,-25,-71,-39,11,44
1491695251600,1,-39,-21,-20,-39,-61,3,51,22
1491695251600,1,-66,11,38,34,31,-16,25,-32
1491695251600,2,64,30,10,21,-36,11,-114,-17
1491695251600,2,39,20,32,88,84,60,20,12
1491695251647,3,75,17,-9,25,-87,-34,2,3
1491695251647,3,-61,-26,-48,-118,-26,7,-29,-1
1491695251648,0,57,-26,5,41,4,89,23,-5
1491695251648,0,-125,-2,22,43,70,-77,-12,-58
1491695251648,2,-59,-8,-60,-92,-103,-85,-39,6
1491695251648,2,-74,-20,-41,-27,-75,74,41,8
1491695251649,3,91,33,24,-14,-98,-128,14,41
1491695251649,3,23,-48,-16,50,82,127,50,-23
1491695251696,0,-128,44,82,127,127,-59,28,-15
1491695251696,0,98,-12,9,50,-109,-26,0,-34
1491695251697,1,-58,15,-39,-127,-111,-96,-37,14
1491695251697,1,-53,-43,-54,-12,42,127,15,-16
1491695251698,3,57,-19,35,44,28,12,-111,-62
1491695251698,3,-52,-13,-13,6,62,47,-60,-21
1491695251698,0,65,6,-63,-101,-85,-45,9,-15
1491695251698,0,-74,20,-1,-62,-18,-113,-99,1
1491695251744,1,-97,-27,-17,-4,-16,46,-4,-36
1491695251744,1,-119,19,3,-13,53,-114,41,49
1491695251746,2,88,-64,-12,-6,-54,38,-70,-54
1491695251746,2,118,-36,5,-37,57,114,113,24
1491695251746,3,-41,0,-13,96,127,-60,-64,1
1491695251746,3,-59,-10,-35,-14,-128,44,-71,-14
1491695251747,0,-30,22,54,-92,-79,-24,59,38
1491695251747,0,110,32,24,100,68,85,-4,-3
1491695251793,1,-73,5,-15,35,-52,-68,58,-16
1491695251793,1,-30,9,-28,-75,-92,85,36,-12
1491695251794,2,34,-7,-39,58,81,-84,-5,38
1491695251794,2,-28,-55,-44,-5,-36,26,-94,-49
1491695251795,0,19,19,-23,-128,-86,127,31,-61
1491695251795,0,-82,-4,-83,-72,-82,-128,-1,-30
1491695251796,1,-20,-75,-65,-57,-76,127,-60,73
1491695251796,1,127,57,94,29,57,14,11,8
1491695251842,2,-34,16,36,127,127,82,71,41
1491695251842,2,-63,13,11,-51,-59,-67,12,-24
1491695251843,3,82,-11,-32,-69,27,94,-14,-2
1491695251843,3,60,14,18,-38,85,31,63,35
1491695251844,1,-24,24,37,47,68,-32,-64,-22
1491695251844,1,6,1,-15,105,73,72,100,59
1491695251845,2,85,53,68,38,46,6,-120,-50
1491695251845,2,-13,21,58,-38,112,91,74,6
1491695251890,3,-84,-44,-82,-115,-128,-110,-71,-19
1491695251890,3,68,-18,-43,-119,-128,-128,-108,-72
1491695251892,0,-38,-34,-41,69,87,71,92,33
1491695251892,0,-88,-19,62,113,86,98,55,28
1491695251893,2,5,21,72,8,-128,49,26,11
1491695251893,2,-43,20,7,120,67,-34,-110,-64
1491695251894,3,54,-13,16,-19,88,-25,106,25
1491695251894,3,-46,7,-88,-128,-112,-33,-1,7
1491695251939,0,36,-33,-45,-128,-92,-88,12,-11
1491695251939,0,59,8,23,111,127,127,66,52
1491695251940,1,-105,-4,82,105,-4,-116,23,-12
1491695251940,1,-8,-1,5,-117,-99,82,-17,-57
1491695251946,3,-51,-66,-78,-94,-71,-20,66,-95
1491695251946,3,46,36,20,-13,113,86,55,89
1491695251947,0,-128,22,38,73,88,-109,-53,-56
1491695251947,0,20,10,15,31,34,75,37,45
1491695251988,1,95,14,26,-15,-36,127,42,-41
1491695251988,1,69,24,-4,8,-80,-24,100,31
1491695251990,2,-128,-43,-64,-128,-128,-57,-96,-33
1491695251990,2,-35,28,-16,-116,-89,28,-98,-7
1491695251991,0,29,-1,1,-72,-62,-26,77,19
1491695251991,0,-63,1,-82,49,29,-40,98,8
1491695251992,1,127,16,48,59,88,118,53,91
1491695251992,1,-89,-23,-23,-41,-45,97,-29,-31
1491695252037,2,76,-65,-59,-28,-87,-111,-86,-27
1491695252037,2,-20,-3,55,7,-28,95,31,33
1491695252039,3,-35,55,-11,72,83,120,69,38
1491695252039,3,80,67,17,82,-8,-123,0,-20
1491695252040,1,30,22,85,75,100,-93,50,15
1491695252040,1,3,-37,-11,-46,-51,-102,-54,-16
1491695252041,2,1,0,14,44,30,127,22,51
1491695252041,2,86,-24,-7,39,37,6,-120,-70
1491695252086,3,-102,-120,-38,-67,-128,91,42,16
1491695252086,3,103,-96,-17,-86,-69,-64,-59,18
1491695252088,0,-107,1,72,87,85,126,48,20
1491695252088,0,127,16,-19,96,-15,-128,-26,-21
1491695252089,1,-46,41,-106,-95,-128,-88,34,7
1491695252089,1,-66,55,36,15,127,69,-73,-22
1491695252090,2,86,71,42,88,63,127,99,22
1491695252090,2,-73,76,-61,-111,-103,127,48,23
1491695252134,3,67,22,58,84,68,-56,-95,-26
1491695252134,3,-69,-26,-98,30,-128,-24,-27,-17
1491695252136,0,36,63,114,-31,57,109,92,102
1491695252136,0,-90,-14,-2,95,54,11,-40,-70
1491695252138,2,-21,-4,-46,73,84,-84,-85,-33
1491695252138,2,-49,-85,55,-74,-73,-57,-78,-37
1491695252138,3,39,6,-8,-59,-100,58,25,29
1491695252138,3,25,-10,-33,83,61,102,-101,-15
1491695252183,0,-85,1,-49,15,25,61,56,-27
1491695252183,0,-40,12,25,-66,-127,55,25,5
1491695252185,1,63,18,-44,-20,122,-112,-108,-39
1491695252185,1,-84,36,23,96,-95,-7,108,73
1491695252186,3,-53,-106,-102,-21,53,104,83,20
1491695252186,3,-68,-75,61,24,60,40,-84,-14
1491695252187,0,-128,-128,-82,-59,-100,-118,-10,-41
1491695252187,0,97,-15,-22,118,3,-32,41,23
1491695252232,1,-41,73,76,-60,-98,91,10,3
1491695252232,1,-5,-11,-36,-84,-19,58,99,-9
1491695252235,2,5,49,-25,127,126,-22,-98,-10
1491695252235,2,35,54,33,-121,-125,49,63,17
1491695252237,0,-34,36,127,-47,-128,15,-87,-28
1491695252237,0,41,78,-34,-31,-84,-128,17,11
1491695252239,1,10,90,5,25,119,47,-9,-23
1491695252239,1,2,95,-50,71,61,101,63,4
1491695252280,2,105,55,-1,-103,-70,-54,-76,-30
1491695252280,2,13,-22,34,-76,3,-7,59,15
1491695252281,3,8,-3,52,40,27,96,43,13
1491695252281,3,-13,-73,69,65,5,-26,-92,-41
1491695252282,1,-65,-128,62,107,13,-128,-79,-3
1491695252282,1,35,-56,64,-37,-86,-117,-39,10
1491695252283,2,65,-45,-50,8,-63,109,5,39
1491695252283,2,32,54,70,116,49,68,26,-34
1491695252329,3,-65,38,-93,52,112,127,96,-4
1491695252329,3,-20,81,-43,-59,-37,-114,-115,-11
1491695252331,0,-60,83,-17,-64,-64,23,11,-1
1491695252331,0,-1,81,-6,5,33,86,9,4
1491695252332,2,11,94,42,119,78,48,13,-20
1491695252332,2,29,5,-70,-120,24,-4,-21,-1
1491695252333,3,2,8,127,-22,-104,-20,-6,8
1491695252333,3,8,-13,-66,26,18,13,94,11
1491695252378,0,30,-78,19,1,124,-1,-42,-18
1491695252378,0,71,-70,-34,-25,13,-81,-46,-25
1491695252380,1,-99,-111,-103,10,-128,-60,-48,-37
1491695252380,1,24,-80,89,2,41,101,88,37
1491695252381,3,73,39,19,-20,-19,-35,-73,-17
1491695252381,3,-35,48,-128,-54,38,-80,10,2
1491695252383,0,-62,-29,-21,3,127,-48,6,-28
1491695252383,0,56,-51,72,59,-83,45,5,-10
1491695252427,1,-22,6,-21,-128,80,33,43,48
1491695252427,1,-10,-2,-36,-42,-97,8,-12,-36
1491695252428,2,-38,-1,-20,7,-103,-96,-49,-42
1491695252428,2,31,-77,-116,43,85,-6,-8,16
1491695252429,3,56,1,103,127,-23,86,27,31
1491695252429,3,22,-37,14,1,-58,127,25,-4
1491695252431,0,-109,23,-100,-128,-128,-88,-5,-18
1491695252431,0,34,0,-51,90,127,80,-14,-6
1491695252475,1,27,21,64,44,127,-50,-1,-2
1491695252475,1,-33,81,37,-1,-87,109,13,46
1491695252476,2,-12,33,-51,-116,-128,-59,-13,-2
1491695252476,2,-90,-8,66,-6,74,25,-3,-12
1491695252477,0,-32,-62,-73,-27,-14,91,50,-29
1491695252477,0,-22,-47,28,43,52,-5,-66,16
1491695252478,1,-49,-41,-64,4,39,65,14,-2
1491695252478,1,74,20,109,127,127,127,72,24
1491695252524,2,70,49,3,1,-44,14,37,4
1491695252524,2,13,-17,-77,-128,-128,-128,-75,-16
1491695252525,3,-69,62,-46,-128,-10,-13,-33,-40
1491695252525,3,-41,63,85,127,127,-34,-56,-3
1491695252526,1,-46,-128,15,-75,-128,-128,-66,0
1491695252526,1,-83,-117,-128,44,72,14,-3,-43
1491695252527,2,106,55,127,127,33,127,-19,56
1491695252527,2,39,9,-14,109,63,118,88,20
1491695252573,3,55,109,103,76,-54,66,4,-18
1491695252573,3,-119,-103,-100,-128,-128,-128,-16,-31
1491695252574,0,47,-53,-67,-55,6,-94,-44,30
1491695252574,0,-128,-22,-67,89,47,-39,-55,-24
1491695252575,2,-49,-106,-92,-83,-111,-36,8,-21
1491695252575,2,-97,-17,72,-68,-58,-126,-47,-16
1491695252575,3,-57,-128,-128,73,22,-19,6,-2
1491695252575,3,69,11,102,7,37,40,5,11
1491695252622,0,-30,-23,-36,-28,-38,-26,-8,-4
1491695252622,0,-118,-91,120,62,109,44,45,-16
1491695252623,1,46,-102,-31,71,25,15,-38,-5
1491695252623,1,64,39,26,-121,-117,-60,22,-11
