1491694958807,0,1,-46,-72,28,85,18,-106,102
1491694958807,0,-47,-104,3,-4,29,-29,70,-104
1491694958808,1,34,-47,18,-1,-33,-43,95,-114
1491694958808,1,-8,24,30,2,6,50,121,-85
1491694958809,2,58,50,35,1,-55,8,44,-55
1491694958809,2,1,19,-17,-26,-35,51,-15,1
1491694958855,3,3,4,-15,-5,-12,-57,-69,21
1491694958855,3,-91,19,-2,5,-31,3,-26,18
1491694958856,0,76,17,4,-2,7,-28,-44,4
1491694958856,0,19,-1,19,7,6,-1,-13,2
1491694958857,1,12,-15,10,-2,1,10,3,25
1491694958857,1,-19,-33,-21,-7,12,19,-11,33
1491694958858,2,16,-12,-1,-4,1,10,-63,8
1491694958858,2,1,15,-2,-9,-21,-1,32,33
1491694958904,3,27,15,-10,5,10,-33,-25,-11
1491694958904,3,-81,-19,-8,3,33,18,-62,7
1491694958906,0,3,-19,1,-7,-4,-64,59,-23
1491694958906,0,-6,10,-6,-4,-6,4,-36,16
1491694958908,1,-56,10,-7,-14,-22,-7,1,0
1491694958908,1,121,-22,-19,2,-12,2,-85,24
1491694958909,2,-58,-14,22,5,10,17,2,-36
1491694958909,2,-60,17,10,14,24,42,39,-8
1491694958953,3,-54,18,15,-14,15,46,67,12
1491694958953,3,2,-27,-13,-14,-34,-92,-83,-33
1491694958954,0,41,-6,-4,-2,-17,59,43,54
1491694958954,0,127,3,4,23,12,-89,4,41
1491694958955,2,-36,20,7,1,5,-25,-33,-51
1491694958955,2,-89,-1,-11,-6,-18,-10,-27,-7
1491694958957,3,127,13,-8,-2,-21,-25,-117,-2
1491694958957,3,-39,-25,-10,-20,-5,4,71,-2
1491694959003,0,30,-8,-5,-5,-20,-93,-13,-22
1491694959003,0,22,-5,9,4,13,50,-26,-7
1491694959004,1,52,-18,-13,-5,-1,14,-28,9
1491694959004,1,-96,-7,5,2,-37,-77,-105,-17
1491694959005,3,7,-9,-9,-31,-20,-15,4,12
1491694959005,3,-8,-9,-3,3,2,38,67,-4
1491694959006,0,3,-1,-7,-10,-34,-36,-52,9
1491694959006,0,-91,3,-4,7,4,-31,-68,-93
1491694959050,1,29,16,10,20,37,53,66,71
1491694959050,1,-39,-11,-2,-1,27,-25,-51,-33
1491694959051,2,-12,6,3,-10,-9,46,105,37
1491694959051,2,-22,-3,-16,-25,-52,-17,6,14
1491694959052,0,-128,-19,-11,2,12,56,18,3
1491694959052,0,-75,-22,1,-8,2,-68,-118,-46
1491694959054,1,49,1,4,5,9,88,74,36
1491694959054,1,-48,-30,-7,3,5,-69,-37,15
1491694959099,2,-29,-14,-2,-23,-24,-7,95,-11
1491694959099,2,-4,20,0,-17,-34,-80,-49,-62
1491694959101,3,-22,-16,1,21,30,15,22,26
1491694959101,3,52,14,11,9,27,67,-4,1
1491694959102,0,-39,1,-2,4,-18,-9,19,6
1491694959102,0,99,-11,-6,-6,16,9,60,43
1491694959103,1,2,12,9,10,6,-4,-95,-12
1491694959103,1,5,-6,6,3,-2,31,28,7
1491694959148,2,-2,-20,-5,-5,-14,-18,22,13
1491694959148,2,68,9,7,13,8,45,39,28
1491694959151,3,-111,-11,-11,-12,-19,-41,-1,-28
1491694959151,3,105,43,7,19,25,31,-6,-9
1491694959151,1,-23,-1,-11,-10,-24,-15,-12,-1
1491694959151,1,19,-16,-6,-6,14,8,60,-28
1491694959152,2,34,7,12,13,18,4,-44,-59
1491694959152,2,50,23,-1,10,8,21,32,63
1491694959196,3,-61,-13,-9,-12,-25,-64,14,-40
1491694959196,3,44,19,0,-7,-15,2,-35,3
1491694959198,0,-86,-4,-7,-8,5,-21,0,-18
1491694959198,0,-72,-10,-5,-1,0,16,-9,3
1491694959199,2,-79,-28,-12,-11,2,21,48,-4
1491694959199,2,76,7,5,-6,-6,-27,-7,23
1491694959200,3,-30,-13,3,8,13,-47,-30,-50
1491694959200,3,-73,0,-6,-14,-11,17,4,0
1491694959245,0,80,-4,-5,1,17,-16,-25,18
1491694959245,0,-74,-7,-5,-8,-20,-10,-25,-20
1491694959247,1,59,1,2,-2,6,7,43,2
1491694959247,1,39,3,-4,-5,-9,-1,-17,-1
1491694959248,3,-68,0,11,11,18,22,21,22
1491694959248,3,111,-7,-6,3,14,63,12,14
1491694959249,0,-21,-10,-9,-15,-29,-101,-34,-19
1491694959249,0,57,5,0,4,-4,0,25,17
1491694959294,1,0,-10,0,-7,4,33,1,13
1491694959294,1,-5,9,13,12,4,-7,-66,-16
1491694959295,2,-40,3,-2,0,-1,28,-17,-16
1491694959295,2,-32,-19,-10,1,14,22,40,-3
1491694959297,0,-20,-12,-10,-17,-11,24,26,-1
1491694959297,0,97,8,5,8,11,4,-21,15
1491694959298,1,-93,-9,-8,-2,2,5,-29,1
1491694959298,1,22,6,3,4,-18,-83,-41,-2
1491694959343,2,6,-1,-2,2,16,75,52,21
1491694959343,2,-23,1,-4,-4,15,-9,55,-10
1491694959344,3,0,0,2,-2,-5,28,14,4
1491694959344,3,4,-9,-11,-13,-20,-60,-23,5
1491694959346,1,-12,-11,0,2,17,-34,-12,-21
1491694959346,1,-11,-2,-2,11,32,83,86,40
1491694959346,2,11,5,-2,-7,-29,-33,6,-11
1491694959346,2,-83,-8,-8,-19,-10,-8,-3,-3
1491694959391,3,23,11,2,2,-19,-4,5,-1
1491694959391,3,-4,-2,2,-9,-4,-27,-17,-4
1491694959393,0,14,14,11,33,39,63,-87,-4
1491694959393,0,-68,-8,-2,-10,-21,-62,75,14
1491694959394,2,23,-3,0,-12,-4,4,5,9
1491694959394,2,-35,13,4,2,-12,11,-27,-16
1491694959395,3,31,0,1,9,16,6,25,14
1491694959395,3,-50,-9,3,-2,8,-3,17,-8
1491694959440,0,28,-7,-8,2,-15,-25,6,-1
1491694959440,0,3,-7,-17,-11,-29,-4,-57,-14
1491694959442,1,-20,-7,-4,-7,-6,-20,-5,1
1491694959442,1,1,-3,-5,-8,-7,23,3,1
1491694959443,2,-38,-2,0,2,11,-5,14,-11
1491694959443,2,33,29,54,18,26,-12,-6,4
1491694959444,3,-11,-23,-22,-13,-3,27,36,-32
1491694959444,3,-70,-1,3,-1,-27,-60,-32,0
1491694959489,0,56,12,-7,0,-4,13,6,20
1491694959489,0,-8,-16,-7,2,12,15,-16,-7
1491694959492,1,-4,-12,11,0,2,1,26,-3
1491694959492,1,-7,-10,-31,-13,-6,23,-10,-1
1491694959493,3,-27,9,54,1,-1,3,-6,4
1491694959493,3,16,-36,-24,-11,-12,1,8,1
1491694959495,0,-13,-45,-41,-8,-3,11,5,-6
1491694959495,0,1,7,1,6,8,-7,-23,-21
1491694959538,1,3,59,88,25,13,14,50,29
1491694959538,1,19,7,-48,-7,-7,-17,-16,0
1491694959539,2,7,-10,5,-3,-5,-13,12,-5
1491694959539,2,0,-18,-35,-5,3,25,19,-11
1491694959540,0,-1,45,-21,3,9,17,22,8
1491694959540,0,4,9,-24,-2,-2,-2,-31,9
1491694959541,1,-2,34,40,4,3,-13,-29,2
1491694959541,1,-1,1,-10,-3,9,4,-4,-5
1491694959587,2,-22,60,46,-1,0,0,-17,-11
1491694959587,2,-26,-44,-30,-17,-13,-22,-39,-28
1491694959588,3,4,-36,-55,-3,-3,-7,-1,-8
1491694959588,3,0,31,31,9,4,7,14,26
1491694959589,1,21,-19,23,-4,-1,7,8,-2
1491694959589,1,13,-38,-65,-2,-8,-4,-5,4
1491694959635,2,-11,38,74,10,2,-15,-12,3
1491694959635,2,-20,49,30,7,6,10,14,13
1491694959637,3,15,-17,-98,-27,-12,-14,-42,-14
1491694959637,3,14,62,12,3,3,9,16,4
1491694959638,0,-49,-28,-77,-14,-20,-25,-20,9
1491694959638,0,6,-6,52,6,-1,1,-22,-13
1491694959639,2,58,18,15,12,11,24,47,0
1491694959639,2,-18,3,-33,-9,-10,-20,-24,-24
1491694959684,3,-17,-56,-35,-4,-15,-17,4,-16
1491694959684,3,-27,-3,30,1,-5,-13,-10,-13
1491694959686,0,42,-1,5,4,-1,-22,-35,22
1491694959686,0,18,5,-45,-2,15,20,33,10
1491694959686,3,65,49,4,-11,-13,-21,-66,13
1491694959686,3,-36,21,13,5,4,6,22,-5
1491694959687,0,53,11,16,-2,18,45,6,13
1491694959687,0,-47,-56,-25,-4,-30,-81,-98,-22
1491694959733,1,-77,-61,-35,-21,20,28,24,12
1491694959733,1,127,118,58,34,5,0,11,54
1491694959734,2,-99,-35,-4,-9,4,20,4,-27
1491694959734,2,109,35,-30,-15,-2,16,9,29
1491694959735,0,-66,-46,-2,-9,6,-13,62,-4
1491694959735,0,-83,72,-12,7,17,84,33,17
1491694959736,1,37,-24,-14,5,-1,6,0,21
1491694959736,1,-38,-1,31,-9,7,-5,-7,-12
1491694959781,2,113,-7,8,8,-20,-49,-56,-6
1491694959781,2,-65,-7,-29,-21,-25,-41,-49,-13
1491694959783,3,-70,24,2,7,9,-15,14,-33
1491694959783,3,63,-14,-4,10,11,55,90,4
1491694959784,1,-83,0,-2,4,8,18,49,14
1491694959784,1,-65,-18,-37,0,3,-47,-39,-31
1491694959785,2,-38,-58,27,0,-20,-30,-86,-42
1491694959785,2,127,35,32,20,3,-35,-61,11
1491694959830,3,-28,36,39,-17,1,79,109,32
1491694959830,3,-69,-66,-46,-11,-10,-33,-73,-2
1491694959832,0,96,36,-41,-4,20,56,80,35
1491694959832,0,-128,-17,-17,-3,-9,-1,27,5
1491694959833,1,114,49,80,25,6,-25,-71,-6
1491694959833,1,18,-22,-83,-26,-15,-22,12,26
1491694959834,2,-128,-44,-36,6,-2,8,-61,-68
1491694959834,2,127,60,42,5,2,-17,66,29
1491694959879,3,94,-51,-94,-3,16,30,-2,-18
1491694959879,3,-14,3,32,9,20,24,45,10
1491694959880,0,-100,-53,-33,-29,-17,-18,-6,-15
1491694959880,0,-91,0,38,7,-10,3,-15,4
1491694959881,2,44,-12,-6,15,1,-26,-15,-4
1491694959881,2,-30,47,32,45,12,12,-100,-12
1491694959882,3,90,-29,-50,-54,-20,-30,83,36
1491694959882,3,-38,9,26,7,-26,-22,-97,-40
1491694959928,0,57,49,30,-23,8,22,91,-9
1491694959928,0,-19,-52,-30,-17,13,29,56,0
1491694959929,1,19,3,8,36,2,-4,-7,1
1491694959929,1,21,46,46,11,6,11,39,23
1491694959930,3,31,4,14,7,9,-19,42,52
1491694959930,3,-46,-9,7,-10,18,40,50,-41
1491694959931,0,-64,-18,-52,-6,-5,20,-55,2
1491694959931,0,21,-30,-5,-28,-6,27,96,0
1491694959976,1,-102,21,38,27,-27,-72,-109,-50
1491694959976,1,40,19,-23,-21,-6,25,6,43
1491694959979,2,89,38,12,10,8,9,4,29
1491694959979,2,-76,-35,-7,-5,20,29,36,-16
1491694959980,0,-77,-2,-14,-10,41,47,88,67
1491694959980,0,-36,39,13,-14,-16,33,-75,-23
1491694959981,1,30,16,26,43,70,79,86,48
1491694959981,1,105,3,-1,20,-9,-31,-34,-33
1491694960025,2,-116,36,1,-4,-53,-128,-84,-68
1491694960025,2,92,-21,7,-5,3,1,9,15
1491694960026,3,-50,-14,-24,-23,5,76,-3,64
1491694960026,3,127,-71,10,26,35,60,30,20
1491694960028,1,33,-38,9,-22,-37,-97,-92,20
1491694960028,1,-88,-7,-8,3,28,28,3,46
1491694960029,2,13,4,11,28,21,-4,34,42
1491694960029,2,27,-17,-7,2,-12,-26,6,36
1491694960074,3,-104,8,-10,-18,-10,20,-49,-7
1491694960074,3,70,-13,-12,4,-7,-19,23,-41
1491694960075,0,20,23,37,23,22,39,-4,-3
1491694960075,0,4,42,2,9,-5,-40,15,-36
1491694960076,2,-9,19,-19,17,-38,-62,-26,-31
1491694960076,2,-41,-25,15,5,14,37,38,-25
1491694960077,3,-17,19,12,1,-5,-26,-27,-28
1491694960077,3,-25,21,-8,-11,-5,-16,-30,8
1491694960123,0,24,-39,-33,-16,-11,-1,-60,-7
1491694960123,0,91,44,15,3,-12,-32,53,5
1491694960123,1,-91,-6,2,3,-23,10,10,-13
1491694960123,1,-16,24,7,24,2,-15,-41,-44
1491694960124,3,91,-26,-15,-15,-7,40,-16,13
1491694960124,3,-29,-14,-13,-34,-20,-51,-1,-9
1491694960125,0,-38,37,1,-3,-5,-14,-17,-6
1491694960125,0,51,-12,4,22,3,-41,-27,36
1491694960171,1,-64,-3,-13,-18,0,54,-13,-33
1491694960171,1,2,-3,-6,11,-3,1,-2,34
1491694960172,2,-41,-1,6,-14,-23,-25,37,3
1491694960172,2,5,-15,-5,-13,11,44,-81,0
1491694960173,3,-26,-9,4,6,7,-44,36,-4
1491694960173,3,15,-4,13,21,19,30,20,14
1491694960174,0,5,-7,-11,-8,12,22,-7,2
1491694960174,0,12,9,16,-4,-6,-8,8,3
1491694960220,1,-25,-21,23,-2,-7,-2,-27,-7
1491694960220,1,13,-58,-24,1,8,4,14,2
1491694960221,2,-3,54,36,2,-8,2,2,9
1491694960221,2,-12,-14,-37,-8,-4,-6,2,15
1491694960221,0,-14,-12,-40,-5,-7,1,-12,-23
1491694960221,0,14,-2,57,16,-1,6,-2,1
1491694960222,1,-10,33,24,3,4,-14,14,-9
1491694960222,1,22,10,13,14,15,13,-24,10
1491694960269,2,4,14,-4,6,-1,18,13,2
1491694960269,2,-24,-41,-60,-18,-19,-19,-16,-33
1491694960270,3,16,-6,-22,-16,-10,6,6,-3
1491694960270,3,-96,21,-22,-13,-21,-33,-10,-15
1491694960270,1,-79,-13,-19,-12,-12,-58,-70,-27
1491694960270,1,63,1,-32,-3,-21,-15,11,-19
1491694960271,2,-48,-14,-17,-12,-11,9,1,7
1491694960271,2,-66,6,-30,-10,-10,-10,4,-6
1491694960318,3,-10,43,13,14,-3,17,17,-1
1491694960318,3,36,-14,5,28,44,3,23,14
1491694960319,0,69,-32,-14,-34,-27,-16,-17,-3
1491694960319,0,-50,37,11,-12,-23,-7,1,3
1491694960319,2,-126,-23,-19,3,-8,4,-77,-15
1491694960319,2,99,-91,21,15,42,12,101,95
1491694960320,3,33,-46,0,-7,-16,-43,-43,38
1491694960320,3,-104,7,5,-18,-26,-52,-53,-48
1491694960366,0,124,-60,1,26,58,91,112,92
1491694960366,0,-58,-14,9,-18,-24,-24,-68,-75
1491694960368,1,-22,-41,-9,3,38,77,8,42
1491694960368,1,127,-38,9,-11,-21,-38,-18,-6
1491694960368,3,-32,51,-19,13,6,-12,45,-32
1491694960368,3,87,7,5,-3,9,64,76,8
1491694960369,0,-124,6,-2,-2,3,-5,-16,-55
1491694960369,0,5,9,2,23,4,-2,-18,-12
1491694960415,1,91,6,14,-9,-4,25,37,17
1491694960415,1,-98,28,0,-5,-32,-65,-72,-18
1491694960416,2,-62,5,-9,-6,-11,-22,9,8
1491694960416,2,31,-14,6,22,21,41,64,-20
1491694960417,0,-62,14,-4,-26,-11,1,24,4
1491694960417,0,-12,15,-20,-14,-21,-21,-43,-38
1491694960417,1,-89,-13,19,17,-18,-39,-42,-25
1491694960417,1,-1,-18,16,-4,7,-4,3,13
1491694960464,2,-103,32,-7,20,-14,-19,-59,-14
1491694960464,2,37,-12,-2,-10,4,18,8,-16
1491694960465,3,72,-13,-6,2,37,46,68,32
1491694960465,3,-19,-5,2,-2,18,53,28,12
1491694960465,1,-128,5,-14,-21,-35,-18,-113,-64
1491694960465,1,70,22,-2,-25,-38,-83,-4,10
1491694960466,2,-12,-10,-1,8,18,25,51,23
1491694960466,2,-68,-6,10,10,-13,-17,-48,-2
1491694960513,3,122,-9,-14,9,22,8,0,17
1491694960513,3,-118,-3,-1,6,-11,-7,2,-21
1491694960514,0,-58,-6,-13,-23,11,68,23,-9
1491694960514,0,-28,-4,15,7,-6,-30,29,7
1491694960515,1,36,-5,-11,0,-3,0,-50,-8
1491694960515,1,-97,13,-9,-19,4,41,29,-23
1491694960516,2,127,-4,-1,-5,-21,-58,-13,2
1491694960516,2,-58,9,5,3,8,46,-8,-24
1491694960610,3,-7,3,5,7,-1,-56,-39,-2
1491694960610,3,49,8,10,16,4,14,31,36
1491694960611,0,36,16,-8,-21,-38,-37,-45,-36
1491694960611,0,26,-57,0,1,14,12,42,46
1491694960611,2,-104,7,-2,-1,-5,-17,-38,-19
1491694960611,2,79,32,-2,-9,-39,-106,-95,-34
1491694960612,3,26,-17,33,22,45,88,75,55
1491694960612,3,-56,-43,-19,-13,7,37,13,17
1491694960659,0,28,21,10,16,6,15,-6,-14
1491694960659,0,-62,8,7,-7,0,-17,-34,-29
1491694960659,1,-84,-6,-7,6,-14,-29,0,-19
1491694960659,1,73,-7,-2,-4,-8,-43,-10,1
1491694960660,3,36,-25,-15,-5,7,30,10,6
1491694960660,3,-47,-14,0,2,-2,19,38,0
1491694960661,0,-4,-6,-5,-22,7,-6,33,5
1491694960661,0,32,-8,-4,6,-4,-5,-53,-13
1491694960708,1,-36,45,-15,-10,-9,1,44,11
1491694960708,1,-86,-19,-2,-7,3,4,11,-30
1491694960708,2,79,-2,6,14,-7,8,-39,-9
1491694960708,2,10,-43,6,5,24,23,72,10
1491694960709,1,-14,-5,-7,-10,0,5,38,-18
1491694960709,1,67,-1,3,0,0,-15,-10,22
1491694960710,2,-96,13,15,28,27,55,39,-17
1491694960710,2,103,10,-3,-8,-17,-49,-22,-3
1491694960756,3,-27,1,-5,-24,-29,-35,-30,-24
1491694960756,3,-21,11,-11,-10,-14,3,19,18
1491694960757,0,-37,-15,9,10,6,1,-7,-21
1491694960757,0,91,-23,-16,-5,7,31,-5,27
1491694960758,2,-24,10,0,9,-11,-13,7,24
1491694960758,2,76,-2,-3,-6,7,-3,25,3
1491694960759,3,-58,4,-5,1,16,53,22,25
1491694960759,3,6,-10,5,7,12,31,-2,15
1491694960805,0,-21,-7,-10,-9,-8,-43,-15,-20
1491694960805,0,-7,19,5,0,-15,-47,-60,-6
1491694960806,1,109,2,-3,3,-6,6,28,23
1491694960806,1,-58,-16,-12,0,2,18,13,1
1491694960806,3,-33,-28,-5,4,6,54,64,48
1491694960806,3,-89,7,5,-7,-16,-48,-73,-37
1491694960812,0,43,-12,-14,-15,-8,4,2,29
1491694960812,0,-128,-9,4,5,-1,1,-54,-46
1491694960854,1,-22,7,-13,-6,2,8,-7,-29
1491694960854,1,63,24,-3,14,-1,-31,24,20
1491694960854,2,-29,10,7,-15,-14,-47,-42,10
1491694960854,2,1,-17,-10,-14,0,50,54,19
1491694960855,3,24,-2,2,0,1,28,12,-27
1491694960855,3,23,-8,-5,-2,16,16,-11,-7
1491694960856,0,36,-1,4,22,14,-18,5,20
1491694960856,0,-25,-40,0,0,-12,20,17,-4
1491694960902,1,33,-29,-21,-27,-33,-47,18,0
1491694960902,1,90,-28,9,-1,3,-4,-43,-11
1491694960904,2,-86,21,5,13,15,48,53,-22
1491694960904,2,-64,19,-2,17,10,-55,-32,-17
1491694960905,0,77,-13,-4,4,-14,-26,-12,-7
1491694960905,0,114,7,1,-9,24,32,8,19
1491694960905,1,-115,26,24,23,1,-11,-42,2
1491694960905,1,115,5,1,4,17,-6,30,21
1491694960951,2,-122,-32,-19,-8,3,56,23,10
1491694960951,2,-69,10,12,1,-12,-26,-23,-41
1491694960952,3,75,-11,-5,-25,-18,-53,-35,-26
1491694960952,3,-38,13,0,7,2,1,-1,12
1491694960953,1,-24,-4,4,-11,10,22,-20,-7
1491694960953,1,-59,-8,-3,-8,-12,-11,32,-2
1491694960954,2,23,10,-1,-4,-10,-31,-40,-18
1491694960954,2,-43,-1,-3,5,-5,1,25,22
1491694961000,3,44,-3,2,4,6,18,-26,-27
1491694961000,3,-114,3,-4,-2,13,-17,14,11
1491694961001,0,8,-10,6,11,-12,-30,-33,-20
1491694961001,0,-57,-16,-4,-14,6,41,33,14
1491694961001,2,-50,-1,0,-7,7,40,21,-8
1491694961001,2,52,-7,-6,-5,-4,-69,-24,14
1491694961002,3,-44,22,1,26,-11,-24,-45,-16
1491694961002,3,35,-29,-7,-14,16,66,35,-7
1491694961049,0,51,23,3,-2,-7,-44,24,18
1491694961049,0,-8,1,-1,-13,-3,35,-4,-2
1491694961049,1,19,-6,-9,2,1,18,-6,10
1491694961049,1,17,-1,19,12,-11,-58,-38,-12
1491694961050,3,85,10,-7,1,-3,-11,5,-5
1491694961050,3,19,-5,-10,2,-1,-9,1,13
1491694961051,0,-70,-16,11,-12,9,58,61,14
1491694961051,0,85,-6,-15,-8,-14,-32,-7,-1
1491694961098,1,-5,-10,11,4,-10,-29,-51,-20
1491694961098,1,43,-6,-7,2,11,26,22,-27
1491694961098,2,30,-6,-11,-9,-4,-28,-39,30
1491694961098,2,-87,12,14,3,-16,-19,-50,-38
1491694961099,0,-46,3,-4,8,4,17,-13,-30
1491694961099,0,61,-2,-2,1,-4,-35,-20,20
1491694961100,1,-14,-8,-2,-17,-11,-25,-27,-15
1491694961100,1,-43,-12,-8,3,-10,-24,-13,10
1491694961146,2,84,2,-11,-13,-6,0,-5,-9
1491694961146,2,-11,27,8,6,5,39,59,-7
1491694961147,3,-77,-13,-7,-5,-5,-34,-30,-22
1491694961147,3,88,-6,6,10,-5,27,38,6
1491694961148,1,66,6,-22,-13,-5,-15,36,19
1491694961148,1,-67,18,4,2,-6,10,-19,-6
1491694961149,2,21,1,18,8,-9,-21,-37,0
1491694961149,2,-116,-22,-8,-6,-12,-26,-2,-23
1491694961195,3,15,2,0,-7,1,8,-27,10
1491694961195,3,-2,-6,-14,-2,6,-18,-13,7
1491694961196,0,-22,-37,8,16,23,45,40,-14
1491694961196,0,91,-25,-9,-27,-6,23,29,34
1491694961197,2,48,17,5,-7,1,-4,-18,-9
1491694961197,2,-18,2,2,28,7,-8,-14,-4
1491694961198,3,27,12,-13,-7,-14,12,-10,17
1491694961198,3,-63,5,7,-6,25,43,1,-17
1491694961244,0,-1,0,-1,7,-18,-38,-39,-13
1491694961244,0,-35,-17,-3,-10,15,39,68,19
1491694961245,1,-92,-16,-10,-1,-3,-6,-3,-3
1491694961245,1,-43,7,16,11,-6,-36,-7,-16
1491694961246,2,60,-11,-14,-21,-10,11,-45,-8
1491694961246,2,-4,17,15,-5,-14,-34,27,8
1491694961247,3,69,24,6,-1,11,-7,-14,22
1491694961247,3,-52,-18,-21,-13,4,63,10,-15
1491694961293,0,21,0,2,-5,-4,-32,30,5
1491694961293,0,94,10,0,-2,-2,14,3,19
1491694961294,1,-85,-12,5,9,-2,-11,4,-30
1491694961294,1,66,3,-3,-5,2,-10,-27,12
1491694961295,3,-14,2,6,2,10,9,9,0
1491694961295,3,1,9,-10,-1,-9,-6,-26,-20
1491694961296,0,-75,-1,12,2,7,4,23,-17
1491694961296,0,-27,-6,-17,0,-8,0,-59,18
1491694961341,1,22,-11,1,13,12,0,38,-22
1491694961341,1,30,-14,11,-4,-10,-19,-18,5
1491694961343,2,-93,-7,-13,-19,-6,-4,22,-14
1491694961343,2,10,0,-5,12,7,14,-16,-28
1491694961343,0,87,-9,-10,-9,31,31,85,32
1491694961343,0,-20,-9,1,0,-8,-11,-19,-1
1491694961345,1,-31,14,0,9,-10,-6,-20,-6
1491694961345,1,39,5,7,5,4,-14,5,-2
1491694961390,2,7,4,10,10,-9,-7,0,-18
1491694961390,2,-103,11,-9,-9,9,3,-15,1
1491694961391,3,54,4,-10,-8,-2,2,7,-19
1491694961391,3,65,-2,1,7,-8,-10,-4,-2
1491694961392,1,43,-11,-2,-5,-10,6,-7,7
1491694961392,1,-128,-10,-11,-19,2,30,27,-16
1491694961393,2,-18,1,-7,4,-6,-39,-7,15
1491694961393,2,121,-2,0,-1,-6,-2,-4,3
1491694961439,3,-104,6,6,-8,-11,-27,-50,-6
1491694961439,3,20,-12,-7,13,18,37,32,-2
1491694961440,0,-57,-7,-13,-10,3,14,31,12
1491694961440,0,57,-1,9,-6,-10,-20,-29,-27
1491694961441,2,-47,-4,-1,3,-8,15,-7,5
1491694961441,2,-63,-8,-1,4,-1,-12,-5,-1
1491694961442,3,36,0,-6,5,15,17,6,10
1491694961442,3,12,9,5,3,2,11,16,-10
1491694961488,0,-34,-5,-15,-6,-6,-15,-39,-16
1491694961488,0,17,-2,-9,-6,-9,5,-6,-7
1491694961489,1,-46,5,23,12,-4,0,22,8
1491694961489,1,-16,-12,-20,-19,-15,-42,3,3
1491694961490,3,81,5,-8,-12,-12,7,-22,-1
1491694961490,3,-31,0,4,10,10,-34,14,-4
1491694961490,0,57,-3,0,-16,-16,4,3,5
1491694961490,0,-26,-9,-7,-3,-3,-12,0,5
1491694961536,1,-11,7,1,10,5,17,-6,-7
1491694961536,1,-51,13,2,-14,3,10,-2,3
1491694961538,2,28,5,4,17,-4,-47,-26,4
1491694961538,2,47,0,3,-1,9,-7,21,0
1491694961538,0,-48,-5,8,14,1,6,-18,2
1491694961538,0,16,1,-7,-3,-4,16,-4,13
1491694961539,1,-41,-10,2,0,13,21,20,-19
1491694961539,1,-99,-5,-4,1,-6,-22,38,1
1491694961585,2,-52,-11,-12,-27,-1,-3,-7,-23
1491694961585,2,58,3,1,0,-12,-9,-54,-5
1491694961586,3,83,8,1,6,12,12,39,4
1491694961586,3,-21,24,9,7,-3,0,-11,-5
1491694961587,0,-2,-10,-5,4,-3,10,10,6
1491694961587,0,-51,7,3,3,7,14,-24,21
1491694961588,1,-76,-22,-9,-13,2,0,1,-25
1491694961588,1,63,-3,4,2,-6,-6,-27,-12
1491694961634,2,-91,-7,-7,0,4,31,7,-6
1491694961634,2,20,-9,-4,5,-15,-61,-6,0
1491694961635,3,69,-12,-7,-10,-13,0,8,16
1491694961635,3,-95,0,5,-19,10,1,-43,-13
1491694961636,1,-49,1,5,11,4,-8,-55,16
1491694961636,1,108,8,0,3,4,9,31,-13
1491694961637,2,-19,-3,3,-1,-4,-36,-62,1
1491694961637,2,50,-15,-14,-9,1,24,50,11
1491694961683,3,-48,21,6,-8,-14,-5,-59,-9
1491694961683,3,-93,-20,-19,-2,-6,-38,9,13
1491694961684,0,83,23,17,21,22,24,-7,1
1491694961684,0,-20,-2,-6,-5,-2,21,22,33
1491694961685,2,-81,5,-1,-22,-12,-36,-4,-24
1491694961685,2,-38,15,11,17,8,10,12,23
1491694961685,3,-21,-13,-27,-3,-3,6,-30,-22
1491694961685,3,-97,-4,22,-1,-3,10,26,8
1491694961731,0,62,3,-3,7,2,5,42,0
1491694961731,0,-36,-6,6,9,9,-6,-14,-36
1491694961733,1,85,4,-12,-9,1,-3,-4,28
1491694961733,1,-11,-20,0,9,2,14,51,2
1491694961734,3,-68,-5,-4,3,9,11,64,33
1491694961734,3,65,18,5,0,1,-17,-50,9
1491694961734,0,-41,-12,-4,-13,-10,13,28,2
1491694961734,0,43,-17,-8,5,17,11,40,-1
1491694961780,1,-69,6,14,6,-12,-36,-42,-40
1491694961780,1,98,3,-8,10,16,50,43,38
1491694961781,2,-8,-8,8,-15,-7,3,-15,-13
1491694961781,2,2,-11,-8,-1,-4,-6,13,1
1491694961781,0,-41,2,-11,11,-2,-1,14,8
1491694961781,0,-11,1,7,-6,1,-13,-11,4
1491694961782,1,52,-14,-6,5,3,-14,13,-6
1491694961782,1,-69,-15,-10,-23,-12,5,-4,-34
1491694961829,2,35,6,2,-7,3,18,10,26
1491694961829,2,-5,-13,-4,-3,-11,-19,-35,-31
1491694961830,3,-33,5,-9,-1,4,24,-1,21
1491694961830,3,76,-11,10,10,-5,-29,-6,7
1491694961830,1,-25,-16,5,2,5,-2,-20,7
1491694961830,1,15,12,2,2,1,22,24,3
1491694961831,2,64,15,22,16,12,24,-13,10
1491694961831,2,-20,12,-10,1,-11,-40,-55,-13
1491694961878,3,-15,-2,-10,-4,-4,32,54,17
1491694961878,3,-34,-8,-3,-22,-12,-22,-8,0
1491694961878,0,78,0,-5,12,9,-1,0,29
1491694961878,0,36,-10,-5,-8,-5,35,-3,5
1491694961879,2,24,-9,-3,0,-3,-1,19,-1
1491694961879,2,-18,4,9,0,5,12,-26,7
1491694961880,3,52,-5,-1,7,-4,1,-32,4
1491694961880,3,-57,-12,-12,-6,7,-2,-4,-10
1491694961926,0,-7,-2,-6,-11,-7,-7,-11,-11
1491694961926,0,-1,5,16,14,-1,-29,-50,-7
1491694961928,1,79,0,-13,-8,-3,28,59,15
1491694961928,1,-71,-29,2,-4,13,1,24,-5
1491694961929,2,18,2,-11,-12,-2,28,-41,-2
1491694961929,2,-52,-10,3,10,3,-27,17,7
1491694961929,3,61,14,2,0,-4,-2,-44,-17
1491694961929,3,-24,7,-5,-9,-16,-29,-15,-7
1491694961975,0,61,3,2,6,5,21,64,22
1491694961975,0,-128,2,-2,-17,-4,13,22,-25
1491694961976,1,-53,-14,-10,-8,-11,-22,-37,-2
1491694961976,1,17,-9,3,16,13,8,2,5
1491694961978,3,-18,-25,-2,-7,-3,15,10,-2
1491694961978,3,58,18,19,9,-3,-28,-20,-15
1491694961978,0,-15,-6,5,17,11,16,14,10
1491694961978,0,3,-12,-17,-10,-3,25,-12,8
1491694962024,1,-11,25,8,-7,-1,-27,-5,-7
1491694962024,1,19,0,-11,1,-1,35,19,16
1491694962025,2,-50,-16,-8,-4,-14,-61,-59,-32
1491694962025,2,18,-2,10,17,17,23,57,16
1491694962026,0,3,-6,-9,-17,-12,0,22,11
1491694962026,0,-105,0,4,1,11,16,12,-17
1491694962027,1,-15,-7,-5,-3,3,4,-7,4
1491694962027,1,-58,-7,-12,-11,-10,-18,-46,-30
1491694962073,2,2,3,14,0,-3,-27,-15,-2
1491694962073,2,46,11,7,9,-4,6,3,18
1491694962074,3,11,-13,6,5,17,10,19,-2
1491694962074,3,-47,4,-4,-2,9,29,26,4
1491694962075,1,-72,-12,-3,-11,-1,10,27,-14
1491694962075,1,-6,12,3,13,-1,-9,-3,-5
1491694962076,2,-123,-9,-5,-18,2,4,23,12
1491694962076,2,-59,-21,-4,3,5,18,-4,-25
1491694962121,3,57,-6,-7,1,-4,-23,-26,1
1491694962121,3,-35,-4,3,-5,-25,-22,-38,-5
1491694962170,0,86,12,-4,-13,1,21,29,16
1491694962170,0,98,-8,-15,-11,-16,-24,-9,-26
1491694962220,2,5,-15,-10,-1,-3,-19,-40,-20
1491694962220,2,-3,5,6,4,-6,7,25,29
1491694962220,3,7,1,-5,8,6,-19,10,-1
1491694962220,3,28,-2,-8,-13,-2,5,-3,-25
1491694962222,0,-88,-7,8,-1,-3,0,-21,11
1491694962222,0,2,-2,-6,-12,-1,1,0,12
1491694962223,1,-28,10,-1,0,-19,-42,-45,-10
1491694962223,1,52,-18,-5,5,24,60,41,23
1491694962268,3,21,-1,19,-3,-4,-19,-2,1
1491694962268,3,-97,-2,-15,-3,-26,-32,-59,5
1491694962269,0,-8,-8,-8,4,7,-8,11,13
1491694962269,0,55,-4,2,-12,-4,1,5,-10
1491694962271,0,-46,-14,2,8,5,13,8,-16
1491694962271,0,28,0,-9,-9,-13,-28,-30,-9
1491694962272,1,8,2,0,-1,3,16,10,-16
1491694962272,1,-41,-9,-3,1,8,1,33,25
1491694962316,2,33,3,4,-3,1,9,-23,-26
1491694962316,2,-63,-10,5,16,5,-2,0,1
1491694962318,3,13,2,-8,-6,-13,-6,0,-2
1491694962318,3,42,-11,-10,-24,-2,3,-38,-14
1491694962319,1,-31,-17,-5,1,-4,5,19,-6
1491694962319,1,-27,1,4,6,-4,-1,3,0
1491694962320,2,-16,-20,-9,-17,-8,-1,-25,5
1491694962320,2,-16,1,2,5,2,11,1,-13
1491694962365,3,0,9,-2,7,4,10,8,-4
1491694962365,3,72,7,10,13,10,-22,14,2
1491694962366,0,22,-1,4,-2,-5,7,-15,-11
1491694962366,0,-87,-11,-15,-14,-6,4,21,-3
1491694962367,2,86,11,-1,3,-11,-16,-16,12
1491694962367,2,18,-2,3,-1,6,-1,-6,9
1491694962369,3,-56,-1,-5,-2,8,11,4,-9
1491694962369,3,1,20,3,3,-2,-6,-22,-3
1491694962414,0,-30,-3,-7,-3,-5,-14,-20,-8
1491694962414,0,30,-13,-4,-10,-10,2,-4,33
1491694962415,1,44,-12,-5,-6,-3,-1,3,-9
1491694962415,1,30,6,-1,2,3,11,41,10
1491694962416,3,-8,15,14,10,-3,0,-23,11
1491694962416,3,3,-12,-8,-7,-11,-19,-5,-21
1491694962417,0,-33,5,1,-3,3,31,47,16
1491694962417,0,-15,-5,2,2,4,4,-5,0
1491694962463,1,30,-18,-10,-8,-10,-16,-42,0
1491694962463,1,-27,-5,-3,-1,-2,16,68,6
1491694962466,2,48,-1,9,15,-1,-15,-31,-25
1491694962466,2,69,1,-13,-19,-4,14,19,-4
1491694962467,0,-42,-8,5,10,17,-6,15,2
1491694962467,0,57,-18,1,0,11,23,8,-16
1491694962468,1,-55,16,15,0,-17,-10,32,17
1491694962468,1,92,0,-1,6,-17,14,-18,-14
1491694962512,2,-20,14,-16,-4,31,-68,-80,-3
1491694962512,2,-53,48,20,4,28,51,39,-27
1491694962514,3,78,-52,-25,-28,-38,-15,40,5
1491694962514,3,-29,-23,-9,-14,-11,-55,-97,13
1491694962515,1,54,91,13,40,13,72,86,44
1491694962515,1,-56,20,13,11,37,12,13,-8
1491694962516,2,-2,-50,-33,-53,-44,6,-15,-1
1491694962516,2,67,-31,15,3,-57,-20,-18,-19
1491694962560,3,-46,-44,10,26,91,8,-64,-9
1491694962560,3,-32,-43,-13,-6,51,-69,14,-1
1491694962562,0,69,5,-9,12,24,79,82,-1
1491694962562,0,-83,-20,-10,-31,-74,-53,-1,-12
1491694962563,2,58,5,-14,20,73,45,-27,-31
1491694962563,2,88,-32,0,19,-82,1,56,45
1491694962564,3,-94,-32,-24,-47,-91,-4,29,-12
1491694962564,3,67,-3,2,12,52,-65,-35,15
1491694962609,0,-5,19,15,15,53,-5,-22,38
1491694962609,0,-73,-31,-26,3,87,31,-59,-54
1491694962612,1,117,-9,24,4,-83,-40,-22,-5
1491694962612,1,-14,5,-28,-28,61,63,83,36
1491694962613,3,65,20,43,113,127,30,57,5
1491694962613,3,-34,-12,-19,-55,-128,-70,29,13
1491694962614,0,-9,25,-4,-54,-26,33,13,-32
1491694962614,0,-113,11,-6,-3,-112,-101,-57,14
1491694962660,1,34,22,-17,20,127,23,19,-19
1491694962660,1,19,-5,5,-6,-99,78,30,20
1491694962661,2,-80,-5,6,-50,-15,-53,22,20
1491694962661,2,77,-20,-4,42,-19,127,41,9
1491694962661,3,-110,11,20,92,127,-72,16,4
1491694962661,3,126,19,3,-9,-35,-97,-55,-39
1491694962662,0,-56,-11,-14,-32,-90,28,29,-15
1491694962662,0,61,12,-35,-127,-85,18,-41,-18
1491694962706,1,-121,-3,23,-16,-107,-89,-61,26
1491694962706,1,82,-18,-9,103,90,87,-9,26
1491694962707,2,-128,-3,20,-10,-92,-53,20,8
1491694962707,2,89,-22,10,26,106,83,74,30
1491694962708,0,-9,-3,-38,33,-14,-112,-123,21
1491694962708,0,-4,-34,-59,-117,-101,-65,-56,-32
1491694962709,1,-91,-34,-27,-92,8,77,55,33
1491694962709,1,93,2,33,105,-89,76,-37,29
1491694962756,2,-106,8,30,103,127,-10,-32,-48
1491694962756,2,2,-2,11,26,-2,-40,115,42
1491694962758,3,84,-35,-30,-122,-107,-72,-78,-49
1491694962758,3,-76,6,-3,41,57,63,0,-21
1491694962759,1,-48,23,-4,54,-27,-124,90,68
1491694962759,1,11,-21,-24,-70,-49,41,-101,-59
1491694962761,2,-27,6,-19,7,-120,30,26,10
1491694962761,2,58,-11,34,-54,126,11,87,-13
1491694962804,3,7,-50,-39,8,-95,58,-36,9
1491694962804,3,-29,-4,-7,-12,69,64,79,31
1491694962810,0,10,-7,9,79,-68,-94,-40,7
1491694962810,0,-110,7,26,15,83,116,-49,-27
1491694962811,2,110,37,8,48,119,127,-16,46
1491694962811,2,-128,-19,12,103,61,-95,86,34
1491694962812,3,-26,20,-16,1,-43,2,-128,-17
1491694962812,3,-13,-45,-21,-73,-16,-76,-83,-60
1491694962858,0,52,-27,-24,26,-24,-75,38,25
1491694962858,0,10,-21,4,-41,-28,25,55,37
1491694962860,1,-119,15,63,75,119,127,69,17
1491694962860,1,107,-9,1,34,-19,-124,-87,-18
1491694962861,3,97,-9,-7,-123,-128,-100,79,0
1491694962861,3,9,63,-4,12,-26,127,34,33
1491694962861,0,-86,-9,-16,42,-11,-85,-73,1
1491694962861,0,-75,-40,-35,-112,-81,-100,-66,-30
1491694962901,1,65,9,19,92,127,127,101,2
1491694962901,1,-71,5,11,-43,-128,-128,-7,55
1491694962903,2,11,60,16,59,122,109,-82,-33
1491694962903,2,-49,32,9,11,46,45,-78,-35
1491694962904,0,52,82,-11,-19,-128,45,62,17
1491694962904,0,-106,-48,3,-5,92,-128,-124,-19
1491694962907,1,122,32,-11,49,41,116,34,-22
1491694962907,1,-108,-83,-33,-49,-92,86,-60,-10
1491694962950,2,-32,-49,7,38,-86,-45,66,-14
1491694962950,2,31,-6,-1,45,37,127,102,16
1491694962951,3,-66,32,45,24,52,-128,-114,33
1491694962951,3,-75,7,-15,-62,-92,84,86,-8
1491694962952,1,-109,-26,-10,2,109,17,-55,6
1491694962952,1,127,67,40,52,-68,-17,74,-8
1491694962952,2,-71,-40,3,-79,77,94,-13,26
1491694962952,2,51,5,-36,63,50,-103,-79,-61
1491694962999,3,-83,3,-50,-108,-105,110,-66,-12
1491694962999,3,-15,61,9,20,109,-83,38,46
1491694963000,0,98,-51,34,76,68,92,127,36
1491694963000,0,-103,-44,-3,-9,-100,-119,-61,-46
1491694963000,1,116,49,13,-5,26,127,92,-22
1491694963000,1,-11,-90,-8,0,96,-128,-71,-29
1491694963001,2,8,16,-24,-67,-90,83,-49,14
1491694963001,2,73,28,6,75,91,106,69,25
1491694963047,3,121,-113,-43,-98,-128,-128,-86,-31
1491694963047,3,-45,20,39,81,62,127,31,13
1491694963048,0,-82,16,43,47,64,41,33,44
1491694963048,0,37,56,9,-29,-16,-44,31,9
1491694963049,2,16,-30,-11,-22,-83,-76,21,-26
1491694963049,2,-37,-4,-45,-79,-115,121,66,31
1491694963050,3,-11,32,55,27,-11,-58,-27,-35
1491694963050,3,-34,-5,-1,36,23,-109,-54,-67
1491694963096,0,0,4,-12,-71,-60,-10,-35,32
1491694963096,0,68,-51,-1,52,108,-48,51,1
1491694963097,1,-115,0,5,36,80,127,26,-19
1491694963097,1,-3,27,-31,82,-103,125,100,60
1491694963098,3,-41,-25,11,87,99,110,4,20
1491694963098,3,71,-7,14,-73,-77,-102,-63,16
1491694963099,0,71,14,-35,51,127,50,23,-31
1491694963099,0,-49,-20,-34,-128,-128,-97,-118,-24
1491694963146,1,29,-49,-28,54,127,76,-44,19
1491694963146,1,17,-3,75,97,19,127,74,46
1491694963148,2,11,-8,6,-128,-128,-116,45,-10
1491694963148,2,41,19,9,61,62,66,10,-3
1491694963149,0,-46,-8,-34,-3,-47,127,44,22
1491694963149,0,-91,3,17,50,117,8,-98,42
1491694963150,1,61,42,33,45,-24,5,102,-18
1491694963150,1,5,30,14,50,-20,1,-31,61
1491694963194,2,-68,-18,46,-44,-53,-89,0,-15
1491694963194,2,-32,-23,-56,-13,64,26,102,-12
1491694963195,3,106,-22,4,29,22,56,-26,18
1491694963195,3,-15,3,-43,-75,-21,1,10,17
1491694963196,1,-59,12,-57,-128,-106,-50,-31,5
1491694963196,1,-3,-8,-18,14,-36,87,12,-17
1491694963197,2,16,4,32,59,107,119,51,7
1491694963197,2,6,7,-28,-19,-89,-65,-19,-17
1491694963243,3,-7,-13,-13,-34,1,-54,-39,-5
1491694963243,3,-3,-15,86,5,80,-19,-18,16
1491694963244,0,53,8,17,49,39,56,22,-1
1491694963244,0,-91,14,-8,79,96,62,32,0
1491694963245,2,33,7,-9,-36,9,88,25,47
1491694963245,2,-1,12,-29,-17,-101,30,17,-30
1491694963245,3,43,10,64,34,-32,35,16,26
1491694963245,3,-12,-5,-83,38,51,28,-2,14
1491694963291,0,-44,34,77,20,114,-50,-28,5
1491694963291,0,12,33,-30,-38,-25,-63,19,-24
1491694963292,1,4,-16,-21,-39,-117,-51,-81,-28
1491694963292,1,-26,-21,-25,-89,-77,-40,26,-7
1491694963293,3,-72,-31,58,7,37,-28,8,13
1491694963293,3,45,-3,-60,11,85,28,-13,-14
1491694963294,0,4,-7,-18,-7,-93,57,-26,2
1491694963294,0,-57,-18,65,38,82,-36,-11,-9
1491694963340,1,6,30,18,-31,-99,88,64,-25
1491694963340,1,-66,-13,-26,-117,-128,30,-46,28
1491694963341,2,-23,27,-72,-38,-73,-74,-37,-3
1491694963341,2,-6,0,-9,19,-85,30,8,17
1491694963342,3,14,-15,-7,127,127,50,23,-13
1491694963342,3,-23,-30,50,-45,98,127,38,-24
1491694963343,0,-19,-25,57,56,-79,-30,-51,-16
1491694963343,0,58,22,7,-58,21,-1,7,-8
1491694963389,1,-87,-20,-51,-22,-20,-95,-34,3
1491694963389,1,93,-6,46,7,-22,44,40,-3
1491694963390,2,-15,-22,-69,-116,47,-88,-67,25
1491694963390,2,-59,-32,-17,67,-28,18,-6,28
1491694963391,0,-20,-14,-47,-43,-99,41,74,-32
1491694963391,0,-33,-5,7,-5,112,-21,-10,-12
1491694963392,1,32,5,-23,-92,-48,33,19,-15
1491694963392,1,-29,0,16,81,-122,30,-22,1
1491694963437,2,30,0,-1,-110,19,-91,-77,13
1491694963437,2,-36,8,-12,-7,-84,-74,-5,7
1491694963438,3,27,-8,13,96,108,68,35,13
1491694963438,3,67,-41,-3,52,-5,-16,-1,-26
1491694963439,1,-24,23,-4,-128,10,27,-11,-14
1491694963439,1,-25,25,-69,-91,-94,-120,-91,51
1491694963440,2,22,-8,12,127,97,69,107,-25
1491694963440,2,2,-20,-26,-128,-56,-8,-13,-22
1491694963486,3,8,6,57,32,-19,-20,5,30
1491694963486,3,-8,-38,70,88,127,127,106,-42
1491694963487,0,-43,-31,-46,-93,59,-90,-58,14
1491694963487,0,75,2,-60,-27,-59,-49,-44,26
1491694963488,2,-85,51,56,99,111,46,-6,22
1491694963488,2,45,8,46,77,66,118,69,-38
1491694963489,3,-19,-24,-109,-127,92,-72,1,58
1491694963489,3,-42,12,10,-15,-73,-62,-57,-42
1491694963535,0,12,18,-20,-56,-93,18,15,32
1491694963535,0,-29,-27,4,79,83,94,-22,-2
1491694963537,1,44,-18,17,-36,-109,98,83,13
1491694963537,1,-33,-27,-44,-98,12,1,-11,-54
1491694963537,3,-29,-4,24,-14,102,-34,76,27
1491694963537,3,-38,18,-11,90,58,-78,-93,-25
1491694963538,0,-31,-11,18,-66,-12,-68,21,-52
1491694963538,0,24,1,-37,-69,-115,-75,50,26
1491694963584,1,5,7,4,127,97,50,-91,3
1491694963584,1,5,4,13,-31,56,124,28,12
1491694963585,2,-67,-25,12,71,38,17,2,37
1491694963585,2,-4,-6,19,-94,42,38,26,-59
1491694963586,0,41,14,9,5,-128,68,-72,11
1491694963586,0,-51,8,43,61,127,43,22,-26
1491694963586,1,14,26,-5,-21,-115,-7,-41,12
1491694963586,1,-3,-6,4,86,104,82,80,-10
1491694963635,2,-36,-18,-29,-89,80,-52,-5,-35
1491694963635,2,-4,4,-15,-32,-125,-39,18,-34
1491694963636,3,3,36,-32,-16,-8,-73,-39,5
1491694963636,3,18,-28,-26,104,127,-62,-17,20
1491694963636,1,25,-1,42,52,8,-72,-36,-43
1491694963636,1,10,15,12,6,80,1,24,45
1491694963637,2,-24,-14,25,127,-30,94,49,-50
1491694963637,2,-33,-1,-53,-70,-41,-123,-26,-30
1491694963681,3,44,32,4,88,-74,-44,-23,38
1491694963681,3,-23,-5,-35,43,4,13,-75,10
1491694963682,0,60,29,45,80,115,35,15,31
1491694963682,0,-60,-47,47,72,56,56,16,4
1491694963683,1,-77,-23,8,6,90,-12,3,-66
1491694963683,1,0,17,-47,-124,-125,-73,23,15
1491694963684,2,22,23,-33,-80,-102,-57,-17,16
1491694963684,2,-6,-11,4,57,51,8,-20,11
1491694963730,3,61,0,-13,21,21,59,5,-15
1491694963730,3,-90,-16,86,47,71,45,34,-14
1491694963731,0,27,0,-12,0,32,23,15,-11
1491694963731,0,-19,3,-13,-70,-79,-8,-22,13
1491694963732,2,2,22,-3,19,51,84,7,-5
1491694963732,2,41,-15,-7,17,50,19,4,27
1491694963732,3,-28,-28,39,24,-20,16,-37,-27
1491694963732,3,-46,-26,-34,-90,-93,-34,-30,-46
1491694963779,0,26,1,12,50,-3,5,16,17
1491694963779,0,-47,10,20,22,43,-9,-8,-19
1491694963780,1,92,-9,-26,-3,44,29,21,18
1491694963780,1,-6,5,47,-56,-83,-102,-32,16
1491694963781,3,-48,-24,-1,-22,-24,-7,0,-12
1491694963781,3,-17,13,17,73,64,-13,1,0
1491694963782,0,-23,-12,-6,40,49,28,1,-8
1491694963782,0,10,25,-1,-121,-119,-38,-12,3
1491694963828,1,13,30,-16,-66,-45,1,-21,12
1491694963828,1,29,29,-24,41,19,33,-2,-17
1491694963829,2,-62,23,54,-34,-63,-45,-16,-12
1491694963829,2,32,5,-30,37,123,-5,7,7
1491694963830,0,-5,-50,-14,-28,-39,-44,-39,-24
1491694963830,0,-29,17,0,16,41,25,2,-7
1491694963831,1,-36,-22,-26,27,42,21,6,13
1491694963831,1,-118,-18,8,-29,36,11,29,-24
1491694963876,2,26,9,-14,22,-40,-3,-37,19
1491694963876,2,-17,11,29,22,4,-41,17,-1
1491694963878,3,99,25,-28,-102,-13,-48,-47,-20
1491694963878,3,57,6,-12,10,-31,-33,-8,22
1491694963879,1,-26,18,-5,15,24,13,42,16
1491694963879,1,27,47,13,36,48,28,14,-15
1491694963880,2,-33,39,10,-2,-12,9,34,22
1491694963880,2,-46,5,-7,-35,-8,20,-33,-15
1491694963925,3,-83,-29,-2,4,24,-88,47,-15
1491694963925,3,-13,-42,-7,-26,-33,16,-12,5
1491694963927,0,-108,-27,-10,17,-25,-15,10,-26
1491694963927,0,61,-38,2,13,19,-32,-1,9
1491694963928,2,77,-8,-13,60,61,14,-5,-15
1491694963928,2,-85,-19,-11,-22,-62,45,9,-1
1491694963929,3,54,-3,24,78,73,24,-4,-10
1491694963929,3,71,-11,-10,-94,-102,5,1,14
1491694963976,0,-22,-16,-33,-55,-77,-37,3,20
1491694963976,0,31,25,14,45,52,-20,-17,5
1491694963979,1,11,6,7,64,102,127,50,-13
1491694963979,1,-18,7,26,74,-23,-41,-9,15
1491694963981,3,-38,-1,-28,-28,-112,-103,-10,30
1491694963981,3,-8,-10,24,58,56,20,-76,-38
1491694963983,0,73,-8,1,9,-13,34,32,23
1491694963983,0,-50,-34,-6,-22,6,-22,20,-7
1491694964023,1,-6,11,21,5,32,84,14,-24
1491694964023,1,-75,7,-33,-42,36,-128,-3,4
1491694964025,2,5,-10,6,18,-57,-17,2,4
1491694964025,2,28,31,12,-27,-77,103,93,3
1491694964026,0,-58,-15,-17,-5,-17,-20,-49,-16
1491694964026,0,80,12,17,31,-32,-74,33,64
1491694964027,1,-75,5,-6,7,25,36,-16,-52
1491694964027,1,-107,-21,-6,-45,-106,-10,31,-28
1491694964072,2,93,3,-16,-40,-10,-73,-54,38
1491694964072,2,-88,-5,-3,21,12,-6,-20,-6
1491694964074,3,-33,-5,8,-1,-19,79,-36,-10
1491694964074,3,34,12,11,62,90,-14,55,22
1491694964075,0,5,-9,-17,-13,62,-41,-16,-1
1491694964075,0,-49,-27,-20,-27,-34,37,-16,-26
1491694964076,1,127,19,51,21,-23,-67,-44,12
1491694964076,1,-80,12,16,20,-32,102,70,-13
1491694964120,2,97,43,-10,-41,19,-69,13,3
1491694964120,2,-71,10,10,84,90,-22,-61,-7
1491694964122,3,3,-24,-13,-54,-35,88,51,25
1491694964122,3,-14,12,-9,-56,-128,-107,-44,-11
1491694964123,1,-83,-21,-27,-83,-92,-124,-19,-24
1491694964123,1,48,-14,-27,-55,-25,-20,-29,8
1491694964124,2,-91,-15,25,80,75,127,-2,-55
1491694964124,2,72,-7,-4,-16,66,-128,3,64
1491694964169,3,96,7,-3,33,-64,69,13,9
1491694964169,3,-48,-5,27,38,127,49,-26,-25
1491694964171,0,-128,-34,-23,-73,-116,-81,-21,28
1491694964171,0,39,-9,11,13,-98,74,-35,-53
1491694964172,2,-128,24,18,51,51,117,69,-19
1491694964172,2,127,11,-8,-41,29,-81,33,74
1491694964176,3,-100,-25,-20,18,23,-51,-1,-18
1491694964176,3,-35,-40,-18,-42,-94,-86,-34,14
1491694964218,0,-73,-39,-18,19,50,117,-11,1
1491694964218,0,-2,-8,4,4,-33,56,28,-6
1491694964219,1,12,15,22,-18,10,-14,-21,-15
1491694964219,1,14,8,-2,47,3,3,11,21
1491694964220,3,85,-13,-32,-50,-50,-39,-21,-11
1491694964220,3,-108,-4,8,-4,-25,81,-85,-63
1491694964221,0,127,16,-7,31,-10,42,106,55
1491694964221,0,-115,20,6,-39,51,-15,8,-40
1491694964266,1,57,-5,5,25,-11,-26,-97,-14
1491694964266,1,107,-10,-29,-35,-4,-97,35,40
1491694964268,2,-74,-22,12,36,95,78,51,46
1491694964268,2,75,0,12,0,-89,-33,-32,-19
1491694964269,0,36,11,4,31,101,-45,39,32
1491694964269,0,46,-2,-14,-10,-41,-78,-65,-91
1491694964270,1,-128,-4,-5,-17,-2,42,97,29
1491694964270,1,116,8,8,4,20,127,-20,5
1491694964315,2,54,-18,-4,14,7,-33,-49,-29
1491694964315,2,-64,3,10,-7,-6,-106,18,21
1491694964317,3,-55,21,3,28,24,-69,-27,5
1491694964317,3,41,7,12,11,36,127,113,45
1491694964318,1,-125,-21,-22,-91,-65,-107,-49,-52
1491694964318,1,27,67,5,13,-29,-128,22,30
1491694964319,2,42,97,-5,4,-13,127,53,6
1491694964319,2,-98,14,20,17,26,-121,-73,-19
1491694964364,3,24,9,10,57,68,127,125,31
1491694964364,3,-88,-25,-1,-6,74,40,0,-36
1491694964366,0,45,-16,3,-15,-85,9,-13,9
1491694964366,0,-25,-44,-19,-35,-19,-23,-40,-24
1491694964367,2,22,-8,10,33,32,18,-22,-16
1491694964367,2,-62,-1,-15,-57,-94,37,37,-23
1491694964368,3,109,0,-15,-10,21,-20,35,62
1491694964368,3,-78,-45,-15,-11,-71,-28,-63,-24
1491694964413,0,-63,-4,23,15,36,19,-20,-34
1491694964413,0,43,-23,-2,26,49,91,17,21
1491694964414,1,28,-21,-7,3,39,26,-10,-30
1491694964414,1,123,49,-4,-6,-24,-43,39,32
1491694964415,2,-70,-10,-1,-40,-91,-40,15,-5
1491694964415,2,-85,-37,-5,-7,-34,-72,-44,-15
1491694964416,3,-35,3,25,56,107,39,22,17
1491694964416,3,-3,10,0,25,25,74,-33,24
1491694964461,0,-103,-11,-10,-32,-40,-87,17,-32
1491694964461,0,89,-52,-11,-11,1,62,-22,12
1491694964463,1,3,14,2,-5,-24,51,15,-12
1491694964463,1,55,-12,8,13,-6,-17,8,4
1491694964464,3,-17,-29,-2,-9,-40,-51,-56,-36
1491694964464,3,-64,-13,20,3,22,44,-33,-35
1491694964465,0,-47,-1,-3,-8,-12,8,-9,49
1491694964465,0,22,1,6,14,13,-22,-17,13
1491694964510,1,14,3,1,1,7,7,20,16
1491694964510,1,-75,-10,-15,-7,-6,49,17,-4
1491694964512,2,-30,4,-1,-16,-31,-89,-101,-55
1491694964512,2,-77,-22,-7,-3,11,34,84,24
1491694964513,0,-56,-44,-11,-16,5,73,36,11
1491694964513,0,24,10,0,2,20,33,9,24
1491694964514,1,9,17,-5,3,-27,-99,-30,2
1491694964514,1,-30,16,11,13,36,73,23,-28
1491694964560,2,124,8,-12,-18,-25,-74,-59,-10
1491694964560,2,-128,-7,-4,-26,-14,31,17,-23
1491694964562,3,42,-33,-7,12,13,54,55,8
1491694964562,3,-76,-6,7,25,49,-21,-21,-4
1491694964563,1,-16,-26,-21,-26,-76,-55,3,25
1491694964563,1,-6,-21,5,-18,-26,-12,8,3
1491694964563,2,-80,-16,8,50,112,44,27,-19
1491694964563,2,-78,33,18,-17,-62,7,-14,12
1491694964608,3,-56,12,-9,10,79,-9,2,-34
1491694964608,3,22,-52,-14,0,-84,60,123,29
1491694964610,0,-81,-2,-8,-47,-40,-12,-50,-35
1491694964610,0,127,26,17,51,52,-23,43,61
1491694964611,2,127,-17,7,25,3,27,127,25
1491694964611,2,-123,-19,-24,-43,-49,73,-47,-48
1491694964611,3,12,1,0,28,39,-108,-8,43
1491694964611,3,119,-7,15,7,-31,13,27,39
1491694964656,0,-88,45,-8,7,28,-33,-99,-35
1491694964656,0,87,12,-21,-20,-52,4,93,-10
1491694964657,1,11,-39,-21,-77,-40,11,-62,17
1491694964657,1,68,-9,-18,-15,11,33,-29,12
1491694964658,3,0,-8,26,23,-23,52,0,-2
1491694964658,3,-50,36,-10,-14,66,89,-24,-33
1491694964659,0,87,-24,-33,-42,-76,-30,-2,-17
1491694964659,0,-58,-38,-4,20,127,8,-82,-21
1491694964705,1,93,-3,35,-23,-88,-45,35,27
1491694964705,1,-115,-22,-11,-19,-58,22,-91,22
1491694964706,2,-3,7,31,73,-93,27,71,56
1491694964706,2,-32,-27,1,33,97,49,-16,-45
1491694964707,0,46,-79,4,39,-106,22,27,7
1491694964707,0,-18,30,-7,-77,-34,-13,-27,-29
1491694964707,1,-39,3,3,24,-18,60,66,18
1491694964707,1,82,39,18,-10,-128,-117,127,-46
1491694964754,2,-28,-7,0,66,126,24,-62,-8
1491694964754,2,-83,23,-1,-67,-103,-50,23,-22
1491694964754,3,88,68,-4,108,127,124,-74,-12
1491694964754,3,-114,-78,19,-39,-128,-61,121,65
1491694964760,0,84,21,43,24,-42,-41,-29,3
1491694964760,0,-97,53,6,14,-12,68,79,-56
1491694964761,1,-90,18,-30,-77,-15,-126,-128,-64
1491694964761,1,-19,-51,9,17,-21,77,-92,28
1491694964802,2,-11,56,-4,29,111,105,43,18
1491694964802,2,51,-26,15,4,34,-92,1,24
1491694964804,3,-122,-25,-35,-30,-71,-22,-58,-76
1491694964804,3,-64,-16,-28,-8,127,74,-35,2
1491694964804,1,-15,47,28,127,126,-64,57,3
1491694964804,1,76,104,33,-88,-128,34,22,8
1491694964805,2,-80,-1,-65,-34,91,-50,-2,-58
1491694964805,2,94,-36,-7,-24,-84,59,-88,68
1491694964851,3,-22,-65,0,62,112,18,67,17
1491694964851,3,-73,-54,19,58,-54,15,83,-16
1491694964852,0,-97,59,27,-61,117,16,24,-29
1491694964852,0,100,41,-55,-59,-74,-77,127,-36
1491694964853,2,15,106,20,-8,73,127,7,45
1491694964853,2,-73,-73,2,43,-39,-127,-68,-1
1491694964854,3,84,31,5,-60,42,127,94,46
1491694964854,3,11,24,-4,64,-18,-88,19,39
1491694964900,0,-18,-50,-24,-16,51,-127,-94,-63
1491694964900,0,-101,43,32,26,68,73,1,26
1491694964901,1,127,13,22,85,2,-29,-3,33
1491694964901,1,-75,-16,-33,-100,-39,-69,-2,-28
1491694964902,3,33,-16,45,59,-50,78,48,46
1491694964902,3,-38,73,47,81,127,127,-93,-60
1491694964902,0,33,-26,-27,-102,-128,-128,83,3
1491694964902,0,7,-6,-55,-34,-27,75,48,2
1491694964949,1,-57,12,-10,9,32,43,75,-5
1491694964949,1,10,-48,10,16,-25,-91,-102,-48
1491694964950,2,-87,-6,5,-81,-96,57,100,-2
1491694964950,2,106,62,30,25,71,52,69,-5
1491694964951,0,73,14,-8,75,127,78,73,-4
1491694964951,0,-13,60,67,-7,-128,-128,-69,28
1491694964952,1,-8,-39,-35,-37,65,6,-45,23
1491694964952,1,-58,60,-12,-28,-42,-39,-54,-47
1491694964997,2,96,-28,25,34,31,57,26,70
1491694964997,2,-64,-7,-7,44,92,79,65,-48
1491694964998,3,32,14,26,-121,-54,8,-14,2
1491694964998,3,-128,-39,-53,90,10,107,17,13
1491694964999,1,6,5,37,38,64,32,-65,-40
1491694964999,1,36,-55,-34,-65,-77,-73,127,16
1491694965000,2,23,17,-11,26,124,127,11,6
1491694965000,2,44,4,6,3,-64,-116,-68,20
1491694965046,3,-108,-11,-26,-45,60,-78,62,9
1491694965046,3,-64,-28,7,36,-43,-63,-60,-19
1491694965047,0,102,37,10,44,90,75,97,26
1491694965047,0,-128,-56,-7,40,-101,-58,7,-26
1491694965048,2,-60,-23,31,54,-42,-128,-87,-36
1491694965048,2,-70,-51,-30,-117,-37,116,-59,-19
1491694965049,3,-41,21,10,98,65,-89,40,20
1491694965049,3,31,32,19,-48,-97,54,127,67
1491694965095,0,-114,-7,-2,20,90,61,-43,-29
1491694965095,0,-49,20,-22,56,-30,-8,-21,-30
1491694965096,1,45,2,32,-45,-128,65,37,40
1491694965096,1,11,-10,-16,-70,127,-48,2,-66
1491694965096,2,82,-80,-15,-39,-106,-69,-68,14
1491694965096,2,75,42,16,105,127,57,65,15
1491694965097,3,-23,-55,-22,45,43,-68,46,-27
1491694965097,3,-85,-27,-30,-105,-57,-32,-49,-23
1491694965144,0,-26,53,-51,-24,37,124,69,22
1491694965144,0,-22,-70,4,40,69,-79,69,30
1491694965146,1,-58,-79,12,-18,-52,-47,-47,-45
1491694965146,1,127,-12,101,127,127,89,32,28
1491694965147,3,16,68,47,107,127,120,16,4
1491694965147,3,-13,49,-23,8,16,53,51,-3
1491694965149,0,-50,-94,15,-54,-84,-106,-85,5
1491694965149,0,-5,-16,-63,-26,47,102,54,41
1491694965193,1,59,-12,-88,-41,-87,62,25,-71
1491694965193,1,-128,57,81,6,-119,7,-53,-6
1491694965194,2,100,40,52,127,125,14,2,23
1491694965194,2,20,22,-57,-116,-89,-33,-49,7
1491694965194,0,-23,31,8,18,-70,-3,19,17
1491694965194,0,-20,-2,38,56,88,-6,-61,-14
1491694965195,1,24,22,-20,-122,-107,-6,0,19
1491694965195,1,-20,-8,-22,4,-128,-99,-2,-26
1491694965241,2,-35,-28,-34,-128,-118,-84,-1,0
1491694965241,2,12,-2,46,125,121,45,-30,29
1491694965242,3,-37,16,60,107,88,80,-56,-16
1491694965242,3,43,0,24,30,-16,114,32,-3
1491694965290,1,82,14,-11,-18,-76,35,28,24
1491694965290,1,-60,1,-50,-45,-111,-102,-19,-15
1491694965292,2,-54,39,18,24,27,61,22,-27
1491694965292,2,21,28,119,98,101,63,53,29
1491694965293,3,73,7,-47,30,-91,10,-38,7
1491694965293,3,45,-38,1,-91,1,-25,7,3
1491694965294,0,-3,1,-88,9,-108,-4,-49,27
1491694965294,0,-89,13,43,15,57,-36,46,-9
1491694965339,2,-33,23,-2,-69,-86,60,15,-17
1491694965339,2,42,0,-33,-76,46,-31,-15,8
1491694965340,3,-11,-20,41,-23,-11,-12,-12,6
1491694965340,3,-48,-20,-56,-73,-128,-50,30,22
1491694965341,0,56,6,27,34,34,-52,-107,-47
1491694965341,0,-40,5,-5,76,19,90,39,-8
1491694965342,3,19,2,3,-46,39,-43,-16,-1
1491694965342,3,-47,-13,-35,-18,-68,-16,-39,14
1491694965387,0,54,-2,-4,59,17,-14,12,-10
1491694965387,0,15,19,45,36,39,51,45,2
1491694965388,1,-37,-15,-19,-23,-30,-20,-23,10
1491694965388,1,14,-10,28,92,127,67,24,-22
1491694965389,0,-95,-11,78,127,74,44,5,-11
1491694965389,0,-34,-3,-4,-26,-55,3,-1,9
1491694965390,1,47,2,10,49,100,-10,0,-20
1491694965390,1,-36,1,-48,-72,-62,-18,-1,-13
1491694965436,2,30,-15,-33,-15,-44,18,29,10
1491694965436,2,-13,-11,38,-16,-94,-7,-7,-18
1491694965437,3,-29,5,20,23,58,-12,-11,-11
1491694965437,3,36,-7,23,52,-74,37,22,-2
1491694965439,1,-3,-6,-51,-93,-128,-49,-15,26
1491694965439,1,-7,-9,30,127,99,-32,-31,9
1491694965439,2,-9,-9,-11,58,85,45,35,-21
1491694965439,2,36,-9,38,-57,28,19,11,5
1491694965485,3,-30,-16,9,17,-95,-13,0,-16
1491694965485,3,-15,36,-17,-29,72,37,22,-2
1491694965486,0,-7,-11,-3,-24,-128,-15,-30,17
1491694965486,0,-101,-7,-29,30,3,-30,10,8
1491694965486,1,95,-1,27,76,65,28,-10,-7
1491694965486,1,-42,27,15,-88,-128,-13,-17,-3
1491694965487,2,76,42,-21,-55,-45,-12,10,15
1491694965487,2,-9,-18,15,86,67,24,1,18
1491694965534,3,-38,-1,-21,-36,-100,-41,3,0
1491694965534,3,2,-28,25,117,127,22,-10,-14
1491694965535,0,25,-4,25,33,127,82,32,-7
1491694965535,0,-25,-5,-41,-122,-103,-38,43,4
1491694965536,2,-22,33,13,-93,-45,-90,-13,31
1491694965536,2,72,10,25,127,120,107,95,8
1491694965536,3,-17,26,10,-53,-5,-80,-56,9
1491694965536,3,-38,9,-6,46,27,3,-12,-30
1491694965583,0,-4,-11,-8,-3,-83,7,-7,-17
1491694965583,0,40,-3,-12,3,-54,-8,6,-17
1491694965584,1,-43,-17,20,40,108,106,41,-25
1491694965584,1,40,-11,-43,-128,-128,-80,-39,42
1491694965584,3,-39,1,-3,32,38,-50,-6,30
1491694965584,3,35,-7,12,-13,-88,54,-3,-24
1491694965586,0,-50,8,-20,-65,-63,-52,-3,-1
1491694965586,0,-64,-11,1,103,59,32,16,-24
1491694965631,1,83,31,19,-89,-99,30,11,14
1491694965631,1,-106,0,33,122,86,39,55,-14
1491694965633,2,13,-6,38,2,-37,-11,-59,-21
1491694965633,2,0,-20,-55,-120,-84,-2,21,30
1491694965634,0,55,-4,15,96,80,89,18,-13
1491694965634,0,-12,6,31,55,116,0,-20,-13
1491694965634,1,-102,-38,23,50,98,108,57,-24
1491694965634,1,-23,-1,33,22,99,36,29,-19
1491694965729,2,-98,-1,-30,-87,-46,-33,-32,-23
1491694965729,2,47,-4,-32,-91,-113,-102,-45,-4
1491694965730,3,-14,-14,-32,-23,-60,-27,29,12
1491694965730,3,74,9,-4,14,-27,-44,-15,11
1491694965730,1,13,-10,-18,-47,-75,-4,38,15
1491694965730,1,36,14,-17,-3,0,-39,-30,-3
1491694965731,2,41,15,5,7,36,51,23,17
1491694965731,2,12,0,-20,45,77,37,-11,-4
1491694965778,3,-49,4,2,-49,-61,-76,-26,-3
1491694965778,3,19,0,-2,5,-13,38,25,-23
1491694965779,0,1,23,6,-11,-13,-33,-10,-6
1491694965779,0,15,-14,5,64,120,46,30,5
1491694965779,2,-41,7,-17,4,-40,-77,-45,2
1491694965779,2,-65,-5,-8,4,-44,-36,-36,-24
1491694965780,3,-32,-8,-4,4,54,47,3,3
1491694965780,3,18,-24,-39,-53,-82,-10,-6,-6
1491694965826,0,19,-3,23,8,-78,-66,-6,11
1491694965826,0,127,7,2,22,73,-22,7,7
1491694965827,1,-10,-48,-28,3,83,23,2,0
1491694965827,1,-43,19,76,81,62,66,18,14
1491694965828,3,-27,27,5,43,-47,83,15,-24
1491694965828,3,1,-28,-10,17,104,37,20,18
1491694965829,0,-52,-24,-36,-90,-124,-74,-69,-16
1491694965829,0,99,10,32,1,-83,-36,52,34
1491694965875,1,-15,4,13,20,-23,38,-8,-23
1491694965875,1,21,8,9,56,98,100,57,2
1491694965878,2,-8,0,-20,-17,-17,-72,-24,13
1491694965878,2,-77,-22,-5,-7,-29,80,19,-22
1491694965881,0,56,4,-30,17,-52,13,11,25
1491694965881,0,-75,-4,-25,9,108,11,-9,-16
1491694965884,1,3,-12,-4,8,41,98,54,32
1491694965884,1,37,21,81,-3,-80,-75,-23,11
1491694965924,2,-87,7,9,-25,84,12,-21,-26
1491694965924,2,73,19,-12,24,-49,-10,-3,16
1491694965925,3,-16,-21,-17,0,36,27,9,5
1491694965925,3,42,-5,-33,-11,48,-13,-32,-16
1491694965926,1,4,-20,-1,8,73,38,-17,-13
1491694965926,1,81,-19,-41,-72,-99,37,-43,-4
1491694965927,2,-86,-26,-12,-37,-94,-77,-62,-27
1491694965927,2,45,10,6,41,52,110,82,18
1491694965973,3,-14,8,15,6,14,74,43,26
1491694965973,3,-19,-6,-1,28,36,-70,-41,-19
1491694965974,0,27,0,-10,-44,13,73,25,-35
1491694965974,0,-36,27,16,23,9,-28,12,17
1491694965975,2,-40,48,8,47,9,83,5,9
1491694965975,2,-6,-19,-8,-75,-113,-113,-27,-25
1491694965976,3,74,6,9,40,44,117,59,15
1491694965976,3,16,-22,-13,-49,-33,115,-45,19
1491694966022,0,35,-32,11,59,40,-41,-19,-3
1491694966022,0,-101,-51,0,-23,-60,69,103,25
1491694966023,1,83,5,17,-1,12,-103,-85,-59
1491694966023,1,-32,-6,-28,32,38,-64,0,26
1491694966024,3,-128,5,-1,-26,-128,-59,-44,-50
1491694966024,3,40,3,1,2,-8,-38,38,35
1491694966025,0,-128,-6,1,26,125,29,0,-23
1491694966025,0,47,12,-1,-5,21,27,67,29
1491694966071,1,-54,12,-6,-15,-2,-41,-87,-32
1491694966071,1,82,-10,4,-25,-84,-37,6,-17
1491694966072,2,-21,-17,-7,17,57,53,59,73
1491694966072,2,-43,-38,-3,38,-49,-32,-62,-33
1491694966073,0,-59,-61,-18,-35,-63,64,-72,3
1491694966073,0,-74,-56,4,19,73,-113,-68,-53
1491694966074,1,88,-4,-5,3,-41,-40,23,74
1491694966074,1,-55,22,1,8,61,102,82,-10
1491694966119,2,-5,54,11,12,-23,-96,-7,-13
1491694966119,2,-102,19,-8,-37,35,127,7,-30
1491694966121,3,5,7,-6,3,-57,-128,-34,30
1491694966121,3,-37,20,3,9,7,82,-27,-52
1491694966122,1,84,-3,-3,-38,33,28,35,22
1491694966122,1,-86,-6,-27,-45,-64,-43,-23,-6
1491694966123,2,75,-13,-14,43,75,-63,-26,-7
1491694966123,2,-71,30,13,-41,5,-12,-72,-21
1491694966169,3,23,12,1,6,-103,0,45,0
1491694966169,3,118,5,13,24,103,82,-25,22
1491694966170,0,-104,-15,-7,3,-37,-88,39,-23
1491694966170,0,72,10,-1,-16,0,-16,-25,-11
1491694966171,1,42,-17,-6,-1,20,76,-13,1
1491694966171,1,-104,-7,6,33,56,78,45,14
1491694966172,2,59,29,12,-17,-102,33,11,0
1491694966172,2,-39,21,5,24,127,47,53,10
1491694966216,3,-128,-19,-26,-83,-128,-119,-76,-20
1491694966216,3,-8,-16,-13,2,-36,5,-55,-11
1491694966218,0,-35,-12,2,1,6,-16,-19,24
1491694966218,0,-19,0,0,49,-3,29,62,7
1491694966219,2,44,-18,-1,-70,15,50,-8,-19
1491694966219,2,-87,-16,-14,41,9,58,16,-29
1491694966220,3,62,-16,-3,-12,20,47,-3,27
1491694966220,3,-33,-16,-11,5,9,-48,-49,14
1491694966265,0,32,14,24,42,69,51,88,9
1491694966265,0,-55,-19,-17,-41,-63,-74,-34,-23
1491694966267,1,47,22,8,-19,-36,41,-23,-7
1491694966267,1,-45,69,-11,-6,-31,-75,-22,16
1491694966268,3,-113,-20,-7,42,46,59,38,24
1491694966268,3,62,-34,29,-6,17,-31,62,-19
1491694966269,0,-32,-36,-5,19,11,-28,-126,13
1491694966269,0,44,-66,-4,4,16,41,104,54
1491694966314,1,29,-58,-16,-35,-55,-30,2,-90
1491694966314,1,-26,-50,-35,-37,6,12,42,18
1491694966315,2,-128,-40,2,16,-13,-32,-50,-22
1491694966315,2,127,22,28,15,-40,-29,-40,-30
1491694966317,0,-107,-50,-17,-5,3,-41,13,-40
1491694966317,0,85,-38,-16,1,-36,-35,35,8
1491694966318,1,-128,32,0,-4,-32,-50,-9,16
1491694966318,1,48,31,32,50,56,-25,-25,-28
1491694966363,2,-79,74,0,-9,11,64,13,-4
1491694966363,2,30,34,4,-24,-62,-25,-37,10
1491694966364,3,79,1,-1,21,107,108,103,10
1491694966364,3,-8,-46,-12,-36,-100,3,-1,30
1491694966365,1,-27,-20,-5,-14,-27,-42,1,11
1491694966365,1,65,1,7,-1,11,20,-10,-20
1491694966366,2,-5,-24,-9,-7,-6,-77,5,-7
1491694966366,2,28,42,17,2,-4,19,7,15
1491694966411,3,-105,-46,-7,5,-32,-20,-27,-34
1491694966411,3,46,-17,6,8,58,54,58,-50
1491694966413,0,34,13,21,3,-9,101,-36,23
1491694966413,0,-67,-10,-25,-25,-24,-120,-65,-41
1491694966414,2,93,11,-5,5,-5,-2,-61,-6
1491694966414,2,-81,-9,-12,-17,1,47,64,-41
1491694966415,3,-12,26,12,4,-19,10,-18,35
1491694966415,3,-69,-17,-22,-35,-40,-77,-73,5
1491694966460,0,11,-6,8,6,-5,22,55,76
1491694966460,0,-33,-34,-17,-2,39,9,-51,2
1491694966463,1,97,-19,-14,-8,-13,-21,1,1
1491694966463,1,-65,52,12,0,-5,21,-12,11
1491694966464,3,88,22,16,15,-5,-8,14,-23
1491694966464,3,85,11,-2,1,31,15,18,-8
1491694966465,0,-70,-22,-11,-7,-6,18,30,-25
1491694966465,0,-7,-1,7,0,-10,-9,-13,-4
1491694966509,1,-40,21,-4,31,31,56,39,6
1491694966509,1,-9,-10,14,10,-10,-86,-85,-12
1491694966511,2,-90,11,4,-9,-27,-9,10,-15
1491694966511,2,75,10,-3,5,-9,2,17,51
1491694966512,3,-128,-42,2,-11,13,-24,-42,-15
1491694966512,3,6,5,4,14,12,64,56,1
1491694966513,0,33,-11,9,16,17,20,56,-2
1491694966513,0,-29,2,-1,-26,-46,-22,-34,17
1491694966558,1,63,16,0,13,38,-29,-21,-20
1491694966558,1,-59,-32,-12,-8,-26,-10,38,6
1491694966560,2,-50,17,-13,-29,-25,6,10,-21
1491694966560,2,51,-32,-9,11,17,-1,-36,0
1491694966561,0,-64,-35,-32,-26,-17,13,64,24
1491694966561,0,-30,5,5,-7,-6,20,-57,-28
1491694966564,1,126,-5,27,-2,-1,60,67,49
1491694966564,1,-102,-6,-22,-41,-118,-121,-105,-14
1491694966606,2,-73,-74,2,32,122,100,97,7
1491694966606,2,74,44,2,-6,-52,-58,-49,-6
1491694966608,3,-54,-23,-21,-32,-18,-39,-95,-81
1491694966608,3,36,-5,1,38,3,93,69,11
1491694966609,1,-47,5,-11,18,-39,51,-7,26
1491694966609,1,53,-27,0,-46,-65,34,93,22
1491694966611,2,-77,-1,-21,43,87,-16,-72,-48
1491694966611,2,97,-32,26,10,11,-64,38,-36
1491694966655,3,-46,47,-9,-38,3,-36,-8,25
1491694966655,3,-71,-21,-19,-5,-4,-15,-77,10
1491694966657,0,127,0,-9,-45,-55,-17,-92,10
1491694966657,0,-128,20,4,41,-1,63,80,29
1491694966658,2,-47,-18,9,27,-102,-81,12,16
1491694966658,2,55,-15,0,39,112,14,-27,-39
1491694966660,3,21,60,18,20,-58,43,-56,-29
1491694966660,3,-17,-45,-40,-87,-63,-12,46,40
1491694966704,0,127,36,19,6,13,-20,-24,9
1491694966704,0,91,-3,-8,22,-30,-16,50,69
1491694966705,1,-81,-59,3,40,127,88,46,-67
1491694966705,1,122,105,20,37,-66,-49,-24,12
1491694966706,3,-47,-14,-15,-43,-59,-6,-10,-3
1491694966706,3,-103,72,19,-37,69,104,-33,-8
1491694966707,0,13,29,-9,62,-3,105,-56,-35
1491694966707,0,-73,-9,-15,-50,-70,-66,61,-45
1491694966753,1,-61,-39,20,-3,83,74,30,25
1491694966753,1,57,-13,3,70,76,-88,-57,-33
1491694966754,2,47,46,25,35,-78,63,74,36
1491694966754,2,-128,-32,-21,-95,-31,-36,-3,-60
1491694966755,0,43,-10,3,-48,-60,-103,-75,-13
1491694966755,0,-9,28,2,48,113,127,91,5
1491694966756,1,79,36,9,13,-102,-74,58,23
1491694966756,1,-68,-41,-38,-94,-55,-60,-61,-12
1491694966801,2,-30,22,-6,33,-11,81,-15,-18
1491694966801,2,-68,44,-24,52,32,-36,-128,-20
1491694966809,3,-106,-53,-29,-47,-59,-71,53,30
1491694966809,3,101,-41,5,-18,-35,90,-51,-9
1491694966810,1,-65,46,-8,40,127,-25,-60,-87
1491694966810,1,45,-26,-43,-52,-128,-4,21,-3
1491694966811,2,-47,-94,-23,-106,41,-128,-12,2
1491694966811,2,-41,50,18,74,67,127,58,33
1491694966850,3,127,46,40,98,-41,-128,-35,46
1491694966850,3,-128,78,7,-35,87,68,111,-74
1491694966851,0,-80,5,7,-64,-62,-66,-53,-27
1491694966851,0,58,-77,-39,-77,25,28,119,26
1491694966852,2,6,114,46,119,127,127,108,19
1491694966852,2,-85,-16,-22,-85,-128,-105,-87,-60
1491694966853,3,-29,-36,-27,-128,-99,44,-4,6
1491694966853,3,127,48,17,127,127,64,85,70
1491694966899,0,-81,-23,7,55,90,72,-91,-12
1491694966899,0,84,20,24,-84,-96,-69,91,-30
1491694966901,1,-17,-6,-13,-48,-84,127,-39,10
1491694966901,1,68,-33,11,64,35,-89,-113,-24
1491694966902,2,-83,-9,-35,51,-111,-96,22,9
1491694966902,2,127,-68,-14,-23,-29,87,47,4
1491694966903,3,-44,13,21,61,95,5,-15,21
1491694966903,3,-71,34,3,-12,-113,103,106,-9
1491694966948,0,-56,-28,0,-97,-102,-106,-95,-21
1491694966948,0,65,38,-22,127,127,109,50,11
1491694966949,1,-47,-58,7,-128,-128,-124,-43,-44
1491694966949,1,103,-25,-32,15,52,-6,-47,103
1491694966951,3,-32,66,31,35,40,70,38,-22
1491694966951,3,-23,62,-9,27,-9,24,31,-6
1491694966951,0,99,-69,-58,-128,-89,-25,15,42
1491694966951,0,-10,-115,-32,12,-56,-10,-83,45
1491694966996,1,52,11,23,68,12,119,102,60
1491694966996,1,-87,24,89,100,70,68,-9,-41
1491694966998,2,11,58,36,65,-125,-85,49,91
1491694966998,2,-49,4,-33,-69,127,94,-92,-110
1491694966999,0,-18,24,39,70,127,127,53,-40
1491694966999,0,-75,-5,34,34,-113,-113,-53,48
1491694967000,1,50,-27,-26,-60,111,-79,-72,-61
1491694967000,1,-59,-83,-35,-1,-54,-24,65,8
1491694967045,2,-8,23,33,-87,-128,77,-49,-17
1491694967045,2,83,61,43,127,91,-31,55,11
1491694967046,3,12,7,9,-78,-78,127,-26,3
1491694967046,3,-57,-34,-38,-62,-77,-128,3,21
1491694967048,1,-71,-85,-24,-45,-87,-84,-64,-63
1491694967048,1,3,-25,-20,-32,127,98,0,3
1491694967048,2,106,67,13,55,-116,116,120,41
1491694967048,2,-77,12,8,-82,-92,-102,-78,-3
1491694967094,3,59,48,47,96,83,104,90,29
1491694967094,3,-81,27,27,46,-32,28,-51,-45
1491694967095,0,78,-58,0,-23,127,49,84,32
1491694967095,0,-35,-86,-20,38,34,-29,-101,-46
1491694967097,2,-73,22,-23,-28,-47,16,-89,-36
1491694967097,2,117,-25,7,-2,63,53,106,98
1491694967098,3,-123,35,5,127,127,-7,-128,-17
1491694967098,3,-40,48,57,-85,-60,48,79,-45
1491694967144,0,-88,35,-70,-105,-72,-53,-5,-13
1491694967144,0,-19,2,43,63,5,-86,2,19
1491694967146,1,36,30,-25,42,64,82,42,6
1491694967146,1,91,38,47,102,127,6,3,32
1491694967147,3,-39,-5,34,-23,3,12,93,30
1491694967147,3,-88,-22,-10,46,18,4,-93,-25
1491694967148,0,86,-29,0,88,127,-32,-1,-25
1491694967148,0,61,-20,-24,-49,-86,-73,-29,18
1491694967195,1,-19,-21,28,80,76,62,51,-16
1491694967195,1,15,-16,-2,-75,-128,-14,1,-12
1491694967197,2,-43,-10,-16,-10,-76,-20,-20,-6
1491694967197,2,-40,11,-12,110,112,54,35,6
1491694967198,0,20,19,56,5,74,37,25,21
1491694967198,0,-27,22,55,-55,50,-34,7,-75
1491694967199,1,-68,-15,-66,-66,22,-76,-83,42
1491694967199,1,93,18,-37,9,-51,74,18,13
1491694967240,2,-4,16,9,-68,-73,-94,-62,28
1491694967240,2,25,18,-22,115,98,46,-70,-9
1491694967241,3,6,25,2,-60,-128,-18,12,-49
1491694967241,3,9,-20,43,-50,-59,-19,-1,9
1491694967242,0,-36,-11,56,117,12,38,2,23
1491694967242,0,22,-14,32,51,58,83,20,-10
1491694967243,1,17,32,45,46,-12,-28,21,1
1491694967243,1,-27,-25,-25,-111,89,-117,-37,-47
1491694967289,2,-17,-52,-65,-54,-108,-98,-83,36
1491694967289,2,-16,10,-33,50,64,22,14,31
1491694967291,3,64,20,8,29,-4,126,59,-12
1491694967291,3,-49,-16,24,11,4,-10,10,-8
1491694967292,1,69,29,21,-16,50,-11,12,-6
1491694967292,1,-25,22,44,5,-108,-15,15,26
1491694967293,2,29,10,-67,-47,33,-47,-2,-14
1491694967293,2,28,-8,-1,44,-53,-65,-18,17
1491694967339,3,-74,-15,2,-59,-98,-14,7,-37
1491694967339,3,8,36,-6,29,124,-15,-33,6
1491694967341,0,25,24,-25,16,4,100,83,29
1491694967341,0,2,12,121,75,91,115,64,-39
1491694967342,2,-4,1,-7,115,93,107,-36,38
1491694967342,2,-19,8,29,13,54,59,37,15
1491694967342,3,20,1,99,92,127,105,47,-8
1491694967342,3,-9,-13,31,-14,17,72,46,-18
1491694967387,0,-47,21,-16,-48,33,-17,11,-38
1491694967387,0,0,-28,-67,-92,-128,-54,-7,-7
1491694967390,1,22,31,58,-30,-104,-51,-33,32
1491694967390,1,23,-49,-20,63,105,3,-11,-1
1491694967392,3,-41,-10,-63,-52,-125,-104,-52,3
1491694967392,3,-53,10,5,95,56,59,38,3
1491694967393,0,-25,-79,20,-40,-34,5,1,-42
1491694967393,0,31,10,33,-48,-48,44,15,-16
1491694967435,1,-30,-16,-28,52,-3,1,-15,15
1491694967435,1,38,22,18,11,59,65,13,-11
1491694967436,2,22,-9,-24,-46,-87,-59,11,26
1491694967436,2,16,-11,-71,-12,-37,-81,-35,-27
1491694967437,0,-36,32,63,115,-54,67,34,-17
1491694967437,0,57,-9,-84,-128,-128,-128,-38,9
1491694967438,1,15,31,-94,127,-19,-41,-25,68
1491694967438,1,14,-5,57,48,21,67,12,-45
1491694967484,2,-22,14,14,-38,127,16,10,-7
1491694967484,2,-58,3,24,72,105,13,-5,16
1491694967485,3,10,-25,32,-89,32,61,42,-7
1491694967485,3,-68,46,-22,16,-85,-17,-21,-9
1491694967486,1,-2,17,-47,-115,-32,-77,-7,28
1491694967486,1,-22,-21,84,22,-31,81,17,35
1491694967488,2,6,-25,-45,-37,-45,-2,-3,5
1491694967488,2,-4,-128,18,47,52,-16,-31,42
1491694967581,3,-100,60,-16,8,-26,-14,32,-41
1491694967581,3,90,100,-32,-86,-42,3,23,-7
1491694967583,0,-45,89,89,122,66,100,37,-28
1491694967583,0,17,127,-10,-69,33,-88,-8,-10
1491694967584,2,103,-12,-111,26,38,-67,-25,56
1491694967584,2,-14,-1,37,-54,-76,5,-1,4
1491694967585,3,-11,-98,42,127,25,96,62,-40
1491694967585,3,-37,-20,-53,-128,-128,-128,-98,8
1491694967630,0,-22,-54,-15,114,36,25,58,28
1491694967630,0,51,-56,56,58,80,35,-12,18
1491694967632,1,-43,-59,-40,-42,62,10,-1,-3
1491694967632,1,39,-90,-26,102,116,34,6,-16
1491694967633,2,-93,-68,1,-100,-94,-15,-36,-38
1491694967633,2,79,65,-4,-56,-54,-37,-17,15
1491694967634,3,-65,-36,18,34,31,35,35,-31
1491694967634,3,86,-28,31,-74,-79,-23,-5,20
1491694967679,0,-22,-12,11,-64,-62,14,0,-18
1491694967679,0,5,-21,14,48,80,47,12,2
1491694967680,1,14,20,-3,-36,-41,-41,-47,14
1491694967680,1,-44,-8,-88,-20,-47,-20,-26,0
1491694967681,0,18,-10,-4,6,5,-22,-25,1
1491694967681,0,-6,-19,28,-18,-69,-7,16,22
1491694967682,1,43,-26,-10,37,66,1,3,-11
1491694967682,1,-30,-2,10,-7,-22,-4,24,17
1491694967727,2,-16,-33,-45,-26,42,-21,0,-33
1491694967727,2,47,-31,-1,-15,-119,-63,-46,29
1491694967729,3,-18,-73,10,15,14,4,3,-35
1491694967729,3,-46,-50,7,-45,-27,-29,-25,18
1491694967730,1,-6,8,25,23,35,4,12,-1
1491694967730,1,-33,7,-11,0,-35,26,39,-6
1491694967731,2,-42,10,-26,-7,48,-17,-36,-15
1491694967731,2,9,20,-15,-8,-20,8,-20,9
1491694967776,3,16,91,-7,-13,76,-17,11,15
1491694967776,3,34,88,-22,-53,-121,-8,-24,-24
1491694967778,0,39,76,31,24,47,-24,8,10
1491694967778,0,3,20,6,41,30,11,10,9
1491694967779,2,-35,-17,14,55,44,35,18,-23
1491694967779,2,-19,26,-27,-85,-14,10,-7,-8
1491694967780,3,118,-14,-23,-40,0,14,4,15
1491694967780,3,28,8,10,20,-34,-82,-11,-6
1491694967825,0,10,24,-26,-45,-100,-54,-10,-33
1491694967825,0,-40,3,-21,2,2,4,10,6
1491694967826,1,-4,-19,6,6,-29,14,-1,7
1491694967826,1,20,-17,13,2,41,41,-9,11
1491694967827,3,-97,22,29,-18,-59,-30,-43,-23
1491694967827,3,-64,2,-25,29,34,52,39,-21
1491694967828,0,-92,11,18,-26,1,-36,-17,19
1491694967828,0,13,-23,-19,15,29,39,27,-12
1491694967874,1,-32,9,19,-32,-77,-71,-60,-5
1491694967874,1,63,-13,-18,-23,-45,4,18,-10
1491694967875,2,34,12,-14,6,-21,12,-2,-4
1491694967875,2,15,-13,21,35,58,55,35,-17
1491694967876,0,0,25,5,-65,-56,19,-3,-32
1491694967876,0,34,3,-11,1,-3,14,18,5
1491694967877,1,23,-19,21,49,-7,43,-7,-6
1491694967877,1,-19,-14,-27,-33,111,45,1,-5
1491694967923,2,21,32,-10,-48,-86,-52,-7,21
1491694967923,2,-1,11,5,46,-2,-77,-91,9
1491694967924,3,-9,-5,6,0,-12,60,96,1
1491694967924,3,-9,-13,8,38,72,59,6,13
1491694967925,0,2,-2,18,10,-8,-4,5,12
1491694967925,0,-90,0,-17,-41,-86,24,7,-38
1491694967925,1,43,6,-8,-28,-27,-59,-25,-8
1491694967925,1,-2,-17,0,6,30,18,-12,7
1491694967971,2,5,-8,-10,31,71,32,23,-10
1491694967971,2,14,-19,28,15,7,17,-9,6
1491694967973,3,-5,-9,-11,-61,-46,-81,-23,10
1491694967973,3,6,6,9,-29,-95,63,20,-5
1491694967974,1,-31,-6,-2,20,-27,-7,3,-11
1491694967974,1,86,51,9,3,-26,28,-11,0
1491694967974,2,-88,-48,10,61,71,127,9,13
1491694967974,2,23,-2,-17,-75,-56,-58,-5,-19
1491694968020,3,-33,54,3,12,49,-40,-100,-16
1491694968020,3,-29,28,-11,36,33,-9,61,-19
1491694968022,0,5,8,13,-45,-127,61,6,-30
1491694968022,0,41,-29,-2,-29,-19,71,40,40
1491694968023,2,35,37,11,24,-35,-125,-42,-6
1491694968023,2,-60,-16,-3,12,67,118,35,-21
1491694968023,3,21,-14,34,16,-10,-19,54,22
1491694968023,3,11,22,20,59,127,104,50,-2
1491694968070,0,11,-15,1,-12,51,-101,-48,-21
1491694968070,0,-1,33,-17,-50,-128,-16,-53,26
1491694968072,1,-29,-2,-20,-26,-45,90,88,-56
1491694968072,1,-125,-59,0,-65,-75,38,38,-11
1491694968074,3,64,-11,-32,-26,-68,-33,5,66
1491694968074,3,-101,-32,-26,-69,-19,-11,-87,-32
1491694968075,0,-47,-10,-3,-16,-47,21,21,9
1491694968075,0,22,-5,5,39,-23,115,12,15
1491694968119,1,12,-1,13,30,22,-33,25,-8
1491694968119,1,-48,13,7,-14,69,-15,19,-13
1491694968121,2,-119,-19,7,93,41,-56,-91,-41
1491694968121,2,22,-47,-12,-71,-95,-125,47,-22
1491694968123,0,34,25,-2,58,97,87,73,32
1491694968123,0,-36,37,58,47,83,127,13,-14
1491694968124,1,-89,-11,47,69,37,26,-48,1
1491694968124,1,98,6,15,-11,92,17,66,41
1491694968166,2,-49,9,-11,-72,-107,90,21,-28
1491694968166,2,-24,-42,-29,9,-31,-95,-13,-4
1491694968168,3,96,23,14,30,90,-45,-44,-29
1491694968168,3,-37,-18,17,-26,-127,41,-66,-2
1491694968169,1,4,15,-11,-11,127,-50,62,29
1491694968169,1,-35,36,-13,21,-95,-22,-61,33
1491694968170,2,-64,-16,-13,-46,-12,107,13,-9
1491694968170,2,44,18,15,74,110,54,-28,28
1491694968215,3,-105,-79,19,67,-21,127,49,-26
1491694968215,3,77,-20,47,17,103,84,32,-40
1491694968216,0,-18,-34,10,0,-14,-110,13,43
1491694968216,0,-11,-26,-21,7,50,26,39,-34
1491694968218,2,-105,7,-18,-10,-128,-56,71,87
1491694968218,2,66,27,14,30,127,2,-88,-101
1491694968218,3,49,39,-4,-20,-38,48,62,-37
1491694968218,3,-104,-17,-19,-38,-39,-46,-25,20
1491694968264,0,82,-9,-13,31,68,-26,60,17
1491694968264,0,-58,13,7,-7,-56,12,11,55
1491694968265,1,-8,-5,-13,-33,-32,54,-49,-22
1491694968265,1,13,-6,-18,4,-48,-128,-45,-23
1491694968266,3,-73,-8,5,9,23,88,84,-29
1491694968266,3,30,47,1,25,126,19,-46,50
1491694968267,0,-86,19,-5,-24,-110,-88,2,-70
1491694968267,0,-55,9,-31,-63,-30,37,64,-19
1491694968313,1,127,83,4,26,-12,-98,-70,43
1491694968313,1,-128,-24,-14,5,-42,29,25,-31
1491694968314,2,123,-30,9,-14,51,-67,-57,-11
1491694968314,2,-76,-47,-10,-4,-19,30,19,-4
1491694968315,3,65,-9,-2,7,-5,-21,22,35
1491694968315,3,-49,49,16,41,52,86,-18,22
1491694968316,0,6,100,19,19,64,9,-30,-29
1491694968316,0,1,46,-12,-24,-62,-58,2,-22
1491694968361,1,6,35,-20,-32,-30,-106,-15,-2
1491694968361,1,72,16,-1,-26,-61,13,18,32
1491694968363,2,-55,-25,0,12,40,-43,-76,-42
1491694968363,2,57,-83,-19,6,-51,-9,88,35
1491694968364,0,127,76,5,-32,-65,67,-26,31
1491694968364,0,-128,-52,7,2,18,-5,-37,-10
1491694968365,1,-117,-100,16,16,45,-5,18,-21
1491694968365,1,100,-45,16,21,61,20,-44,-47
1491694968410,2,32,-13,-17,-20,8,-22,95,38
1491694968410,2,44,-42,-24,-70,-107,-73,-31,-11
1491694968412,3,2,-78,-1,-14,-3,2,20,29
1491694968412,3,-64,-90,11,43,51,11,-75,-49
1491694968413,1,-5,21,-28,-44,-73,-6,24,2
1491694968413,1,-49,31,17,-5,58,7,88,-1
1491694968413,2,-59,-5,-17,-7,-54,-15,-117,5
1491694968413,2,125,25,39,36,57,126,119,11
1491694968459,3,-29,7,-13,-21,-30,-84,-88,-31
1491694968459,3,-61,14,-6,-2,-31,-5,54,32
1491694968460,0,87,-26,-3,4,6,-36,-28,13
1491694968460,0,33,56,-8,8,17,33,19,31
1491694968461,2,25,17,9,-1,2,36,17,1
1491694968461,2,-103,-14,0,-2,-9,-92,-99,-13
1491694968462,3,127,64,-14,7,38,52,-13,10
1491694968462,3,27,27,2,-5,-47,-36,55,-20
1491694968508,0,-71,-25,-2,-14,-2,29,-13,3
1491694968508,0,-2,-42,-10,6,26,17,-9,-37
1491694968509,1,-14,-22,6,0,-2,4,39,12
1491694968509,1,-98,-2,0,0,-2,-60,-57,6
1491694968510,3,-13,-32,-11,-27,-16,-39,-25,0
1491694968510,3,51,-76,-4,-13,-31,12,-11,19
1491694968511,0,-2,2,0,13,14,48,-27,10
1491694968511,0,89,9,-3,8,11,-127,-87,-4
1491694968556,1,-66,-23,-1,-7,19,115,83,19
1491694968556,1,82,9,27,20,18,-30,-16,-17
1491694968558,2,-118,-11,-10,-9,-1,47,25,-28
1491694968558,2,103,23,-12,-24,-21,-73,75,25
1491694968559,0,25,-37,13,11,4,28,10,-4
1491694968559,0,-18,50,14,-7,-59,75,-11,-4
1491694968560,1,-76,-4,-11,18,121,8,-32,-14
1491694968560,1,61,7,-10,-3,-101,36,23,4
1491694968605,2,-108,-18,-17,-39,-46,-22,-46,-10
1491694968605,2,-70,25,-9,-16,-17,32,38,-36
1491694968606,3,127,-6,11,15,-38,42,-28,28
1491694968606,3,-61,-5,-6,24,100,4,-10,-29
1491694968608,1,15,-27,-28,-28,-39,70,-11,-13
1491694968608,1,-59,-2,19,18,5,29,14,15
1491694968610,2,42,-3,3,21,57,17,4,-27
1491694968610,2,-86,18,4,7,27,39,-52,-25
1491694968657,3,-75,15,3,12,-75,-111,72,-9
1491694968657,3,111,-17,-32,-31,23,57,-7,52
1491694968658,0,4,43,10,-34,-107,4,70,31
1491694968658,0,-25,-54,3,39,127,-58,-42,-55
1491694968660,1,-35,-33,-10,-28,-63,44,-23,2
1491694968660,1,-112,25,-24,-8,-18,-66,-12,2
1491694968661,2,-123,-36,-28,-19,-101,-54,-75,-31
1491694968661,2,127,47,-3,-33,2,62,4,-10
1491694968706,3,-15,-34,8,47,81,-87,14,20
1491694968706,3,86,1,34,19,-52,30,-62,26
1491694968707,0,82,19,7,-3,35,82,-34,-1
1491694968707,0,-121,-6,-34,16,45,-82,60,28
1491694968709,2,88,-32,-3,54,37,57,51,-6
1491694968709,2,72,3,47,13,46,-63,-43,19
1491694968710,3,-45,-1,-26,-8,-76,117,43,-7
1491694968710,3,30,32,2,-10,11,-128,-10,-23
1491694968753,0,-46,-19,-13,-49,73,49,-32,1
1491694968753,0,-33,-29,7,37,-128,55,79,4
1491694968755,1,98,6,-8,-9,127,-101,-37,0
1491694968755,1,-19,21,4,14,-6,54,-8,-8
1491694968756,3,70,-21,-24,-4,-69,13,32,-21
1491694968756,3,92,90,-40,-119,-61,113,9,-24
1491694968757,0,-64,36,7,61,-1,-128,-14,26
1491694968757,0,-113,13,28,78,53,-12,2,52
1491694968800,1,93,-12,-4,-38,-35,127,64,-50
1491694968800,1,-44,-43,28,26,-30,-96,-98,-6
1491694968802,2,54,15,3,31,103,95,10,-2
1491694968802,2,68,-38,-10,0,-128,-14,0,-47
1491694968803,0,56,-29,5,-6,70,18,-32,51
1491694968803,0,7,12,6,117,113,67,-69,1
1491694968804,1,8,39,23,-21,-43,-92,22,-6
1491694968804,1,-1,-43,-21,-58,-69,32,-49,-5
1491694968849,2,-128,-7,-6,37,7,-26,97,8
1491694968849,2,127,-16,-7,-81,-76,77,22,22
1491694968851,3,-79,43,16,40,-37,10,-23,-3
1491694968851,3,-6,5,-9,-87,-60,-54,48,14
1491694968852,1,55,66,59,75,70,50,16,22
1491694968852,1,-79,-30,-7,55,-9,-35,4,-11
1491694968853,2,95,33,-36,-118,-81,111,113,-44
1491694968853,2,56,-2,29,-59,-108,-107,-79,9
1491694968897,3,65,-5,-23,103,81,-49,-57,75
1491694968897,3,-95,-51,-2,16,16,114,101,55
1491694968899,0,-91,18,45,6,26,75,-32,-58
1491694968899,0,-15,12,4,54,23,-55,32,-4
1491694968900,2,30,-8,-18,63,45,-94,4,59
1491694968900,2,-71,-14,8,-11,-37,-17,-50,-45
1491694968901,3,40,17,11,21,3,88,59,55
1491694968901,3,-21,30,21,29,27,-50,-49,-43
1491694968946,0,-29,25,20,-118,-86,127,52,31
1491694968946,0,-58,-2,18,77,127,-119,67,15
1491694968948,1,-85,0,-50,-18,-128,-122,51,32
1491694968948,1,26,-53,-11,-55,-75,28,-114,-117
1491694968949,3,-91,-24,-19,27,65,127,-64,-88
1491694968949,3,-6,31,39,15,-35,-48,32,104
1491694968950,0,-39,23,14,118,62,-35,21,24
1491694968950,0,-7,-30,-78,-128,-128,62,-24,-76
1491694968995,1,-17,-55,-24,-81,-55,80,-81,10
1491694968995,1,8,-17,-32,123,127,-85,-54,-16
1491694968997,2,12,10,104,90,25,82,45,37
1491694968997,2,-31,-13,-14,63,104,-10,8,71
1491694968999,3,48,29,28,-66,9,-104,-10,-111
1491694968999,3,-74,19,-13,-14,61,127,44,42
1491694969001,0,-17,-25,-49,-4,-49,-128,3,46
1491694969001,0,64,-4,3,-9,-39,57,-1,7
1491694969044,1,51,18,-29,-39,-91,9,47,-17
1491694969044,1,-17,-21,16,-58,40,124,127,23
1491694969046,2,84,-89,36,73,126,46,44,4
1491694969046,2,-81,-13,-6,-8,-4,-75,47,-60
1491694969047,0,91,10,-67,-85,-128,-112,-128,31
1491694969047,0,-77,19,79,86,118,127,15,23
1491694969048,1,57,12,42,59,-22,-25,-3,0
1491694969048,1,-45,-41,-18,-84,-94,-87,74,-47
1491694969093,2,7,7,-61,-3,78,95,-71,-1
1491694969093,2,-36,-7,52,27,28,29,-75,11
1491694969094,3,-24,51,47,88,127,96,69,4
1491694969094,3,13,-7,-3,-15,-86,-71,-128,-46
1491694969095,1,39,18,75,68,-83,-8,77,82
1491694969095,1,119,-21,35,-46,-9,-54,-90,-56
1491694969096,2,-70,46,-38,51,57,-128,-33,7
1491694969096,2,20,-36,-38,-118,16,41,-87,-95
1491694969141,3,-42,-128,-51,-20,-67,17,5,69
1491694969141,3,-53,-98,-16,-35,113,51,79,45
1491694969143,0,64,-73,71,44,51,82,-102,-40
1491694969143,0,68,8,5,-4,55,64,62,-14
1491694969144,2,-82,85,52,66,78,76,51,-22
1491694969144,2,84,61,-23,56,18,-112,-14,-8
1491694969145,3,-31,60,-33,-88,-85,-20,65,-56
1491694969145,3,127,86,-15,68,-25,-46,-75,62
1491694969190,0,-102,49,-48,-76,-8,55,91,-25
1491694969190,0,-6,92,8,-51,-128,-9,101,45
1491694969192,1,-39,-11,22,71,127,-124,-67,-93
1491694969192,1,-29,20,74,127,64,114,81,1
1491694969192,3,-32,-9,-27,23,-16,-33,-24,73
1491694969192,3,-71,8,116,125,-34,-68,-53,-20
1491694969195,0,84,19,-33,-86,85,-14,-117,-60
1491694969195,0,-48,-24,-19,-42,-96,-3,98,56
1491694969239,1,-75,-19,-21,20,79,-76,-118,-21
1491694969239,1,25,11,-54,-28,13,116,26,-11
1491694969240,2,-29,-11,-7,-74,-128,-75,127,55
1491694969240,2,53,-15,59,73,-40,-48,-128,-42
1491694969241,0,-75,-22,5,1,-72,-4,-40,5
1491694969241,0,64,21,22,43,78,115,33,6
1491694969242,1,-16,61,-40,22,-44,124,82,-15
1491694969242,1,43,45,8,-62,48,4,-15,-18
1491694969288,2,-23,21,44,72,39,-74,-17,-5
1491694969288,2,35,29,-24,-128,104,9,26,28
1491694969289,3,-15,-33,-15,65,30,15,-17,28
1491694969289,3,38,27,-45,-39,-73,-5,-3,35
1491694969290,1,40,11,19,-11,29,42,51,-7
1491694969290,1,-15,38,1,-104,-103,47,33,-13
1491694969291,2,52,18,15,56,-104,-36,17,-15
1491694969291,2,-51,10,-98,11,125,-43,10,-19
1491694969336,3,-25,21,62,-82,-125,-12,-2,23
1491694969336,3,2,-22,-19,97,32,-9,-22,25
1491694969338,0,1,-1,41,62,65,87,11,14
1491694969338,0,22,-24,-14,-77,-123,-22,-12,-26
1491694969339,1,-38,-22,-79,-84,-128,-125,-22,9
1491694969339,1,-97,2,7,127,65,32,-40,-55
1491694969340,2,11,23,9,72,117,94,88,36
1491694969340,2,-48,20,62,14,99,23,-31,-18
1491694969385,3,-34,-43,-7,20,-24,13,3,21
1491694969385,3,7,14,89,25,4,-9,-17,-15
1491694969386,0,31,-16,-109,-90,-128,2,-24,-1
1491694969386,0,-14,-26,23,127,43,95,38,-2
1491694969388,2,4,-7,26,99,53,7,-32,7
1491694969388,2,15,-24,56,55,-19,66,49,1
1491694969389,3,29,-33,-44,-25,127,-3,4,-21
1491694969389,3,42,40,6,-10,-65,-33,-12,35
1491694969482,0,-5,-7,20,-21,9,20,24,-11
1491694969482,0,-57,-17,-25,10,42,58,28,3
1491694969483,1,4,-13,44,127,4,127,43,-36
1491694969483,1,19,-30,-18,-89,79,-33,6,-5
1491694969484,3,-84,-7,-84,-62,-128,-98,-44,10
1491694969484,3,80,46,101,127,122,122,5,4
1491694969485,0,-32,-35,-44,-124,66,1,42,-2
1491694969485,0,33,2,-23,21,-85,-87,-94,-8
1491694969581,1,-33,44,-45,45,96,67,71,-17
1491694969581,1,-7,4,94,93,83,21,-13,-5
1491694969584,2,56,-46,48,-6,-115,-8,-4,-6
1491694969584,2,71,-1,-13,-36,-18,-57,-10,61
1491694969586,0,0,21,55,23,-86,-65,-26,17
1491694969586,0,-70,-42,30,65,33,17,-5,-25
1491694969587,1,95,36,13,116,8,77,34,3
1491694969587,1,23,91,-1,-91,-15,-103,-52,2
1491694969629,2,-90,4,-11,-3,-24,0,-14,14
1491694969629,2,-25,52,-9,90,-15,35,1,-3
1491694969631,3,103,110,28,-70,-54,-20,-28,19
1491694969631,3,-102,82,17,53,6,1,44,-18
1491694969632,3,0,-78,12,49,67,23,8,-3
1491694969632,3,10,41,-2,-94,-107,-28,-11,-14
1491694969634,0,-46,-35,-34,-70,-116,-64,-7,-4
1491694969634,0,-8,-46,-44,18,103,13,4,-6
1491694969678,1,66,10,14,-37,-95,-39,-50,21
1491694969678,1,25,-27,27,70,47,30,27,-37
1491694969679,2,-17,10,26,-12,-26,6,-9,1
1491694969679,2,30,42,15,32,9,-8,13,2
1491694969680,0,13,14,-20,-27,-53,-33,-13,3
1491694969680,0,10,-2,-4,30,7,-10,-7,-1
1491694969726,1,-72,-27,24,72,127,29,15,-26
1491694969726,1,65,0,1,-83,-107,-17,-9,2
1491694969775,2,-29,-31,-47,-13,-36,-32,9,4
1491694969775,2,-3,-10,49,68,56,69,7,4
1491694969777,3,-19,29,-13,-10,-16,-76,1,5
1491694969777,3,-4,0,15,-20,-25,13,-9,6
1491694969778,0,2,92,-25,-31,13,5,-1,-10
1491694969778,0,-31,30,-9,-56,-79,-60,-30,-9
1491694969779,1,-16,2,35,36,21,32,19,-11
1491694969779,1,-6,20,-46,1,24,37,6,24
1491694969824,2,39,3,54,57,25,-16,-12,-10
1491694969824,2,11,12,-37,-69,7,-6,8,-11
1491694969825,1,-10,-17,-38,-62,-85,-54,-19,16
1491694969825,1,-21,21,10,1,-1,20,-22,-26
1491694969827,2,-11,3,10,26,-23,-22,34,-11
1491694969827,2,-67,-11,4,10,87,4,-32,26
1491694969828,2,-4,-20,-29,-2,-45,-9,-12,-23
1491694969828,2,89,-28,35,20,-35,-42,-20,13
1491694969873,3,95,-32,-17,38,35,27,23,8
1491694969873,3,24,3,14,52,50,44,12,-35
1491694969874,0,10,18,-26,-28,64,-9,26,-5
1491694969874,0,-5,27,26,-21,-76,30,-3,-20
1491694969876,3,31,-11,24,14,13,66,35,19
1491694969876,3,54,-9,0,13,-27,5,2,2
1491694969877,0,-97,-2,-6,-21,-8,-45,-23,-38
1491694969877,0,29,118,5,-57,-88,-38,-22,2
1491694969921,1,-54,100,-27,10,58,9,9,-12
1491694969921,1,-24,127,33,85,76,29,72,4
1491694969923,2,42,121,36,49,103,81,-13,15
1491694969923,2,52,12,-34,-98,-103,-48,-2,11
1491694969924,0,5,-94,2,-3,-98,-71,-36,-27
1491694969924,0,43,-109,0,21,15,127,35,29
1491694969925,1,35,-65,11,-25,47,-96,-65,-15
1491694969925,1,58,-63,3,16,-48,75,21,28
1491694969971,2,-52,-45,7,-35,-34,-20,-42,-26
1491694969971,2,118,-7,-8,24,77,38,16,6
1491694969973,3,-88,13,-6,-1,37,77,9,-45
1491694969973,3,24,31,11,-24,-87,-128,-29,10
1491694969973,1,51,-25,-3,59,20,16,-6,19
1491694969973,1,78,-2,9,24,15,-74,7,20
1491694969974,2,-62,-16,27,79,85,127,5,-10
1491694969974,2,44,1,11,7,-76,-37,-25,-38
1491694970019,3,22,-21,53,40,127,89,50,3
1491694970019,3,-56,43,-15,-64,-128,1,48,-32
1491694970021,0,-21,62,-22,2,10,-90,-10,-9
1491694970021,0,-41,36,-8,35,-43,-24,30,26
1491694970022,2,27,-114,2,1,7,82,59,54
1491694970022,2,24,-22,29,26,85,88,40,-57
1491694970023,3,27,-41,0,61,38,-2,-4,29
1491694970023,3,98,-7,-3,-43,3,5,30,23
1491694970068,0,-72,-5,-23,-5,-36,73,-23,-53
1491694970068,0,106,7,13,11,-29,-29,10,26
1491694970069,1,-61,39,9,-9,5,-23,-73,-14
1491694970069,1,-101,2,-23,26,76,-4,42,10
1491694970070,2,127,12,13,27,-56,15,-12,48
1491694970070,2,35,20,-17,-100,-29,30,36,-46
1491694970071,3,-91,-23,-29,-20,-80,46,-57,-11
1491694970071,3,109,-15,4,-1,-27,-34,-11,17
1491694970116,0,-51,53,21,-3,66,-56,-51,-31
1491694970116,0,-23,-15,0,58,-14,-33,10,39
1491694970117,1,-81,-15,14,9,31,95,-37,-50
1491694970117,1,2,-66,2,13,-3,-44,5,-4
1491694970118,3,-116,86,-2,-38,-76,16,74,-11
1491694970118,3,98,53,-2,22,29,41,6,9
1491694970127,0,-29,31,-1,-82,-61,82,54,25
1491694970127,0,-128,4,5,43,20,-128,-65,-14
1491694970165,1,123,-11,-21,29,-106,-51,-40,-5
1491694970165,1,-113,-28,-7,-54,96,19,-58,-38
1491694970166,2,127,17,26,66,10,15,24,14
1491694970166,2,-106,-21,-2,-22,-64,127,-56,-6
1491694970167,0,89,-30,-26,-23,-3,-44,-31,24
1491694970167,0,-33,-16,-12,29,12,-82,28,-22
1491694970167,1,-4,27,5,-23,46,40,22,13
1491694970167,1,11,-93,28,17,83,121,5,19
1491694970214,2,-75,-58,-13,34,-79,-108,-4,-32
1491694970214,2,116,-31,-24,-74,-21,-34,-42,18
1491694970215,3,71,40,10,41,44,-30,37,-6
1491694970215,3,13,49,-18,-65,-118,-17,43,-18
1491694970215,1,-121,-128,-22,-43,-45,-128,-66,-18
1491694970215,1,30,17,0,45,20,49,41,29
1491694970216,2,-51,26,-3,-15,-18,126,64,-10
1491694970216,2,-35,124,12,-2,73,22,3,3
1491694970262,3,-53,118,-21,2,-70,-2,-4,9
1491694970262,3,-7,98,-3,-64,-32,-6,15,12
1491694970264,0,-71,101,-7,50,22,-99,45,18
1491694970264,0,-103,100,0,7,2,93,16,-66
1491694970264,2,55,-47,-12,-57,60,28,-5,-20
1491694970264,2,-16,-120,-11,38,-17,39,3,29
1491694970265,3,57,-71,24,-15,-28,68,-9,-1
1491694970265,3,-2,-80,-2,7,38,-18,-37,0
1491694970312,0,-14,-78,15,19,23,-7,-3,-4
1491694970312,0,7,-88,-9,-18,-31,-95,-63,5
1491694970313,1,-91,-74,-30,-5,-7,78,87,21
1491694970313,1,41,-7,-1,-15,17,74,-35,-61
1491694970314,3,-77,12,-17,-41,-5,-51,-13,37
1491694970314,3,59,101,-9,-7,-64,21,-4,-40
1491694970314,0,42,47,1,-9,-18,90,43,21
1491694970314,0,3,77,-24,-60,-61,-70,-29,12
1491694970360,1,24,63,3,46,5,-47,-15,21
1491694970360,1,-34,-3,10,50,90,61,-28,-8
1491694970361,2,-17,-27,-3,-22,-4,-15,-34,-6
1491694970361,2,-4,-89,-7,-15,-51,-49,-23,-2
1491694970362,0,-52,-47,5,34,50,80,31,-4
1491694970362,0,45,-55,-17,-41,-3,-5,11,-9
1491694970363,1,-17,-19,-5,-18,-7,23,8,-15
1491694970363,1,-6,82,-4,-5,-29,-22,-37,28
1491694970410,2,34,103,3,-6,2,-21,13,-14
1491694970410,2,3,60,20,21,19,-21,-9,-3
1491694970413,3,-12,-85,5,-5,40,33,26,-10
1491694970413,3,-100,50,-46,-18,-35,-40,-5,-32
1491694970415,0,71,91,8,-1,16,96,32,22
1491694970415,0,-114,-43,24,-7,15,-58,41,-13
1491694970417,1,-23,-93,-8,9,-12,-29,1,1
1491694970417,1,-128,-128,-11,-36,-34,-11,-33,0
1491694970459,2,52,-96,-18,11,-15,-45,1,-9
1491694970459,2,74,7,6,22,-6,75,40,27
1491694970461,3,-28,24,3,-3,22,23,14,14
1491694970461,3,-67,-19,4,8,12,-57,7,-43
1491694970462,1,60,52,-35,-81,-26,6,-15,-9
1491694970462,1,109,-12,2,5,-3,42,55,8
1491694970463,2,-28,-26,-6,-15,-18,-30,0,-1
1491694970463,2,21,0,-13,16,8,-31,-80,-3
1491694970507,3,-53,45,19,38,16,13,-29,-25
1491694970507,3,95,-2,8,-12,3,45,21,23
1491694970509,0,-63,-40,1,-11,27,30,6,-24
1491694970509,0,-128,-1,8,14,38,-35,-35,-20
1491694970510,2,-128,-24,-15,-1,-9,93,-12,-35
1491694970510,2,96,38,-11,25,84,83,16,26
1491694970511,3,36,-85,36,-15,-3,-85,53,11
1491694970511,3,-128,-26,-1,-3,-45,87,34,3
1491694970555,0,11,17,-33,-18,-10,-30,-50,17
1491694970555,0,21,-34,-5,-12,-49,48,8,33
1491694970557,1,60,27,3,-9,34,-35,-35,26
1491694970557,1,-29,-15,-5,52,42,22,-6,-24
1491694970558,3,22,22,6,29,53,39,57,-1
1491694970558,3,-48,-52,14,9,-3,1,6,23
1491694970559,0,123,22,2,13,-14,35,16,30
1491694970559,0,-96,2,23,42,46,-84,-128,-19
1491694970604,1,66,-5,-3,-1,53,14,-5,16
1491694970604,1,-124,-66,-35,-47,-88,49,33,-91
1491694970606,2,96,26,24,9,49,-92,-76,0
1491694970606,2,-44,-20,-10,-1,-15,21,127,51
1491694970612,0,-49,12,8,5,87,49,-40,-37
1491694970612,0,-14,-15,-10,-3,-88,35,51,-16
1491694970614,1,-24,-4,-12,-66,-56,-48,32,-44
1491694970614,1,-5,-5,-7,15,1,-96,-34,31
1491694970701,2,-116,-19,11,39,53,117,45,35
1491694970701,2,89,28,20,51,12,-34,-66,-20
1491694970702,3,-125,-1,43,89,-42,72,31,-29
1491694970702,3,28,27,-5,-2,100,-101,1,-12
1491694970750,1,65,-43,-42,25,-101,59,14,-3
1491694970750,1,17,45,5,-72,-100,-39,-62,-17
1491694970799,2,24,-42,-15,66,105,96,38,32
1491694970799,2,-7,-32,-2,11,-29,-63,-41,-12
1491694970800,3,21,39,35,-52,105,60,4,33
1491694970800,3,-43,43,-2,42,20,127,18,-45
1491694970801,0,5,-68,-9,-15,-123,-128,-6,9
1491694970801,0,8,30,18,13,81,97,-40,-4
1491694970802,2,61,24,6,92,103,-63,12,-4
1491694970802,2,-67,-70,-14,-104,-128,-100,91,-1
1491694970848,2,-66,-99,-40,-65,63,35,-23,-54
1491694970848,2,107,-39,-26,-60,-122,-94,56,67
1491694970849,3,118,-9,5,-43,-91,33,65,24
1491694970849,3,-88,-39,-10,103,127,5,-83,6
1491694970850,0,127,19,41,127,10,55,62,49
1491694970850,0,-38,112,-19,-66,9,17,-57,-64
1491694970851,1,28,64,-35,27,127,-86,-63,8
1491694970851,1,-80,53,-72,-67,-128,-128,-106,-81
1491694970896,2,20,-12,33,98,32,47,44,62
1491694970896,2,41,-42,19,1,-6,123,-11,-1
1491694970898,3,87,71,54,62,104,39,-54,37
1491694970898,3,47,23,26,75,-101,-9,53,-26
1491694970898,1,-68,-44,-6,31,-128,-106,3,48
1491694970898,1,121,-14,1,-128,-48,127,76,25
1491694970900,2,-61,-14,-20,74,35,0,-25,15
1491694970900,2,121,-11,53,102,127,35,108,-9
1491694970945,3,-128,-15,-48,-60,-56,26,-23,-71
1491694970945,3,81,-51,-45,-120,-103,-85,-75,-13
1491694970946,0,24,16,8,11,20,95,5,63
1491694970946,0,6,26,57,124,95,-3,30,49
1491694970947,2,106,-6,-47,37,-1,53,13,-40
1491694970947,2,-62,-34,-87,-31,-45,-62,-108,-30
1491694970948,3,59,-2,37,-47,-81,74,41,34
1491694970948,3,5,57,8,54,98,84,-106,-36
1491694970994,0,-89,40,53,49,-115,-127,31,2
1491694970994,0,98,-25,-60,-53,-39,120,-21,48
1491694970997,1,-128,-38,48,87,97,-54,35,-88
1491694970997,1,26,-2,-55,-104,-99,-110,-59,81
1491694970999,3,-18,-28,47,14,64,-112,-71,14
1491694970999,3,-95,25,15,51,14,127,101,24
1491694971001,0,72,43,30,-4,23,44,-36,-24
1491694971001,0,-53,-6,-38,-87,-85,-61,1,-9
1491694971042,1,7,20,4,70,-25,55,-83,37
1491694971042,1,80,-5,-5,26,127,56,-1,-10
1491694971043,2,-51,17,-24,-124,-128,-128,-62,-82
1491694971043,2,27,-48,92,-21,-8,127,104,82
1491694971046,0,-52,-56,-64,-107,-128,94,-62,-48
1491694971046,0,127,-69,43,112,105,125,10,89
1491694971047,1,-22,-128,-53,4,15,-101,3,-36
1491694971047,1,38,-32,-16,-63,37,91,-43,-5
1491694971091,2,26,28,26,103,11,-69,-23,29
1491694971091,2,34,31,-5,-55,60,-128,-8,-21
1491694971092,3,33,55,16,-12,1,64,77,67
1491694971092,3,-104,37,-38,51,74,41,34,-58
1491694971093,1,-107,-64,-37,-13,-121,-63,-106,-33
1491694971093,1,1,-128,21,-87,-74,115,-63,-36
1491694971094,2,-14,-63,-2,86,-28,-60,-65,26
1491694971094,2,-45,38,-7,80,-87,35,34,-12
1491694971140,3,-11,57,-66,-103,127,52,52,-33
1491694971140,3,31,80,-15,-29,-82,-13,12,55
1491694971141,0,54,52,63,61,-22,127,41,-20
1491694971141,0,-9,73,0,-61,-47,-116,-89,-22
1491694971141,1,16,70,-5,1,13,-13,68,63
1491694971141,1,43,32,48,115,93,69,-4,23
1491694971142,2,-51,24,53,-128,-78,86,79,-13
1491694971142,2,51,42,-48,11,-22,43,-43,-10
1491694971189,3,85,18,-18,38,48,-14,36,-22
1491694971189,3,-116,3,-30,41,-128,13,-5,5
1491694971189,0,102,0,38,-41,60,-14,31,70
1491694971189,0,-96,21,15,124,33,106,80,-36
1491694971190,2,6,5,50,127,127,116,11,29
1491694971190,2,0,6,18,-48,-128,67,-88,-29
1491694971191,3,12,-1,18,-52,-85,-46,74,-90
1491694971191,3,-76,1,-62,66,-42,-31,127,30
1491694971237,0,-5,-3,-29,-36,-110,-84,-126,-15
1491694971237,0,37,26,-27,31,127,-11,29,43
1491694971238,1,90,-7,69,115,117,73,-29,32
1491694971238,1,-73,31,77,-25,-27,41,-44,-89
1491694971239,3,-74,15,60,61,-77,58,62,47
1491694971239,3,10,25,74,108,127,-67,-96,-46
1491694971240,0,0,12,8,75,127,75,35,-20
1491694971240,0,22,18,-38,-89,-26,-87,-47,24
1491694971286,1,-70,24,-22,73,-128,107,37,-29
1491694971286,1,40,28,1,-98,-99,-100,19,-14
1491694971287,2,-19,8,-18,-13,-86,94,-7,7
1491694971287,2,-34,-7,21,-28,69,-128,15,19
1491694971287,0,-57,36,-7,44,99,29,3,42
1491694971287,0,-28,-4,9,11,-124,-44,56,-16
1491694971288,1,104,-22,-58,-73,-118,-10,-15,37
1491694971288,1,13,3,37,93,-72,-63,-18,-69
1491694971335,2,11,-14,-16,-102,73,12,21,-35
1491694971335,2,-33,-48,-49,-22,-114,34,-13,94
1491694971336,3,41,-17,17,94,71,27,20,-19
1491694971336,3,-32,-55,8,-3,-3,45,30,5
1491694971337,1,-78,-44,68,-48,-109,31,5,-67
1491694971337,1,-2,18,-128,-77,-49,-66,-78,58
1491694971337,2,-27,103,4,127,-69,-47,-63,54
1491694971337,2,22,29,31,52,53,85,16,-31
1491694971384,3,-50,17,48,28,-46,48,10,-19
1491694971384,3,40,1,-61,-48,-33,34,45,17
1491694971385,0,12,-70,78,53,68,-65,-17,-43
1491694971385,0,-85,9,-105,-128,-128,-128,-89,5
1491694971385,2,17,60,-56,-120,-128,-124,-32,-11
1491694971385,2,75,117,23,20,-30,-42,-24,33
1491694971386,3,21,43,-20,35,39,57,-12,-10
1491694971386,3,29,-34,-81,-86,-107,-125,-99,-1
1491694971432,0,28,20,50,51,17,117,70,8
1491694971432,0,22,-76,18,78,123,126,24,-69
1491694971433,1,-88,-1,69,-17,-8,3,11,23
1491694971433,1,33,-94,-60,48,77,85,31,3
1491694971434,3,0,-47,-31,-44,40,-84,-11,-28
1491694971434,3,-33,-5,-53,30,86,21,30,13
1491694971435,0,-21,38,79,78,32,40,-42,6
1491694971435,0,-30,49,-89,-78,-83,21,57,-7
1491694971481,1,-41,103,-32,-43,-70,-108,-77,27
1491694971481,1,62,127,31,34,0,37,15,-9
1491694971482,2,-29,95,-108,-46,69,-14,-8,8
1491694971482,2,57,25,117,127,127,67,0,-7
1491694971486,3,-92,-69,-38,11,-8,46,37,-39
1491694971486,3,-42,-18,40,-83,-36,-28,-3,20
1491694971489,0,-10,-71,-64,71,-20,-21,-11,-9
1491694971489,0,-22,-43,12,-79,94,61,13,-54
1491694971580,1,46,16,-40,-128,-128,-128,-83,49
1491694971580,1,-48,-11,-24,54,107,66,38,26
1491694971583,2,-42,-71,-8,27,-18,-15,1,-36
1491694971583,2,10,-47,13,26,-18,47,17,-11
1491694971584,0,62,-33,5,-33,-75,3,-7,13
1491694971584,0,37,105,2,125,64,6,-5,35
1491694971584,1,-45,114,8,11,33,38,40,-31
1491694971584,1,-22,25,111,127,127,81,20,-43
1491694971676,2,27,24,-75,-103,-60,-2,13,-6
1491694971676,2,15,108,-23,-40,-60,-98,-24,41
1491694971677,3,-39,82,-107,-89,-77,-3,-62,-44
1491694971677,3,56,64,99,118,106,65,60,-4
1491694971678,1,-73,-82,-100,119,81,38,20,37
1491694971678,1,-20,-70,16,16,-18,-14,-41,-1
1491694971679,2,50,26,9,35,77,12,30,45
1491694971679,2,-45,-53,-31,-41,-48,-61,-58,-40
1491694971725,3,24,-19,-52,-128,-101,-88,-91,-75
1491694971725,3,20,32,25,-8,-61,27,62,27
1491694971726,0,-14,29,79,64,93,-1,-15,-15
1491694971726,0,22,-17,19,28,57,107,70,43
1491694971727,0,-49,74,-23,-36,-26,-31,-37,-28
1491694971727,0,41,120,-36,-67,-36,-48,-18,3
1491694971728,1,-42,99,-3,1,-42,-33,-5,-10
1491694971728,1,-101,6,-9,6,-26,-6,13,-7
1491694971779,2,14,39,14,59,90,4,-16,-19
1491694971779,2,-128,7,11,28,26,33,33,-14
1491694971780,3,-82,30,17,-71,-57,4,-52,-5
1491694971780,3,-43,-54,-91,-10,-26,-90,-22,11
1491694971784,1,75,13,26,80,37,12,28,18
1491694971784,1,71,29,-19,27,39,54,-3,-6
1491694971785,2,127,11,-24,-48,-62,-33,15,8
1491694971785,2,127,-84,-3,-1,-52,-39,-26,-5
1491694971822,3,46,-51,-4,-34,-71,0,18,4
1491694971822,3,-44,-2,16,64,100,44,-15,37
1491694971824,0,99,61,-19,15,-24,-14,0,10
1491694971824,0,17,127,39,27,8,77,10,-42
1491694971826,1,98,116,-12,-1,75,-100,-10,52
1491694971826,1,-64,90,-4,-29,-16,-9,18,-23
1491694971827,2,-24,18,-31,11,-49,23,22,7
1491694971827,2,-11,-1,-17,-60,-31,17,12,-12
1491694971872,3,-14,-60,-31,-49,-31,31,5,14
1491694971872,3,16,-15,54,72,62,13,-10,-3
1491694971872,0,-8,-45,-14,15,-24,-40,-17,-15
1491694971872,0,-37,-9,-5,0,-16,-21,1,-31
1491694971873,2,-11,-117,-13,2,60,127,29,0
1491694971873,2,14,-89,11,20,40,-108,-57,30
1491694971874,3,-37,-63,-29,-22,-59,-15,-2,-13
1491694971874,3,-37,-4,18,1,10,54,18,-22
1491694971920,0,61,24,-8,-41,12,-37,13,48
1491694971920,0,5,28,-16,-26,-65,-18,0,-22
1491694971922,1,-107,2,29,59,67,48,-57,-36
1491694971922,1,17,-2,4,83,28,8,15,-2
1491694971923,3,-13,38,-9,69,40,13,-36,-45
1491694971923,3,70,24,32,-12,-68,7,15,5
1491694971924,0,10,11,19,52,118,16,-20,-5
1491694971924,0,19,11,-24,-9,-50,-6,23,-1
1491694971969,1,45,-50,8,8,35,27,5,19
1491694971969,1,-35,-95,-21,-71,-17,39,-31,14
1491694971971,2,42,-41,-2,18,5,52,-22,-20
1491694971971,2,-124,18,18,27,7,24,-52,-1
1491694971972,0,-92,1,-32,-57,-88,102,36,-17
1491694971972,0,22,111,32,12,-30,-76,-53,31
1491694971973,1,78,101,-12,3,47,121,71,-2
1491694971973,1,44,120,12,-19,-85,-128,-57,1
1491694972018,2,-4,74,-16,44,-16,34,26,-13
1491694972018,2,10,-45,17,39,81,-47,24,-39
1491694972020,3,-122,-120,15,-5,-53,-68,49,41
1491694972020,3,102,-112,-11,7,61,70,15,-4
1491694972021,1,-60,-75,4,46,106,100,46,16
1491694972021,1,-72,-82,-4,-41,-68,34,34,-10
1491694972022,2,-30,-65,7,28,-6,-63,-76,-6
1491694972022,2,52,-72,3,-14,-19,127,127,-3
1491694972066,3,44,-58,-34,-82,-99,-128,-128,-50
1491694972066,3,-47,-31,-13,0,-50,-42,-19,1
1491694972068,0,15,65,33,16,85,35,31,2
1491694972068,0,-4,54,-25,61,53,-83,-6,7
1491694972069,2,-83,42,10,7,-71,52,-50,-70
1491694972069,2,34,31,-42,-34,118,11,9,-29
1491694972070,3,86,32,-12,-72,-128,-16,32,-35
1491694972070,3,-6,-47,-6,5,74,-14,-8,25
1491694972115,0,-128,-99,7,28,62,47,-81,38
1491694972115,0,90,28,24,66,-42,-23,-52,-46
1491694972116,1,-26,-3,-28,-75,-81,-56,47,9
1491694972116,1,5,87,31,16,-35,127,-85,-83
1491694972117,3,96,26,45,64,127,124,7,7
1491694972117,3,-17,-65,-10,-25,-128,-105,-37,-33
1491694972118,0,-7,14,-41,-84,-91,-23,-18,-15
1491694972118,0,-67,3,16,15,99,55,-22,2
1491694972164,1,-19,6,-9,-5,-128,68,39,49
1491694972164,1,-19,0,26,56,64,78,0,20
1491694972165,2,13,-23,-19,3,-121,-128,-41,-60
1491694972165,2,-44,-1,17,-78,-73,110,21,54
1491694972165,3,-128,-28,-1,19,30,39,39,-71
1491694972165,3,-43,8,-21,10,20,-10,-25,-45
1491694972166,0,127,2,33,48,41,110,28,48
1491694972166,0,-112,26,-12,5,10,-79,36,35
1491694972212,1,-44,-23,-2,36,86,-19,-94,-9
1491694972212,1,20,19,-19,-22,-76,63,22,-70
1491694972213,2,21,35,13,-46,-49,-128,11,75
1491694972213,2,-70,1,-23,1,31,82,-32,-47
1491694972214,0,-65,-18,-15,28,127,-22,-41,-47
1491694972214,0,109,-2,19,-39,-1,127,95,11
1491694972215,1,0,-48,-28,-45,-98,-128,-87,-6
1491694972215,1,-102,-23,3,3,-40,-56,24,34
1491694972261,2,-111,13,-13,-34,8,63,6,-11
1491694972261,2,39,-36,-5,-6,-2,69,-4,4
1491694972262,3,68,-40,22,32,-41,-73,56,47
1491694972262,3,92,-9,26,-30,-53,-68,-77,30
1491694972263,1,-37,86,44,-43,-15,-1,19,-29
1491694972263,1,52,8,-24,-9,44,41,32,54
1491694972264,2,28,70,46,12,-27,52,-41,-24
1491694972264,2,-128,-7,-17,-15,-17,69,13,-66
1491694972311,3,104,15,-18,30,61,98,41,48
1491694972311,3,-67,19,-11,-5,-20,-111,1,-28
1491694972312,0,-21,15,-25,-57,-41,59,31,-43
1491694972312,0,95,6,-11,-23,-35,-81,-26,60
1491694972313,2,127,37,2,54,43,-8,41,-10
1491694972313,2,-48,62,59,46,22,-71,28,0
1491694972314,3,12,13,-39,-42,-44,-37,-54,15
1491694972314,3,3,100,11,-17,72,79,45,-14
1491694972359,0,-86,-10,6,19,-83,-9,-103,-4
1491694972359,0,-56,13,-17,-31,-62,83,74,-4
1491694972360,1,-11,107,-6,-4,-11,-29,-52,-37
1491694972360,1,63,54,-37,1,25,104,62,11
1491694972361,3,57,-17,-11,-15,40,-30,-17,-20
1491694972361,3,-92,10,4,-11,-50,-99,-25,9
1491694972361,0,8,-14,9,12,43,-59,57,2
1491694972361,0,-27,-56,25,9,-9,21,-30,-5
1491694972407,1,91,-60,9,5,0,-9,-22,35
1491694972407,1,-12,-43,43,39,67,52,20,-34
1491694972408,2,-53,-109,-16,-25,51,54,94,-30
1491694972408,2,85,-50,-20,-37,-71,-14,16,29
1491694972409,0,60,-6,-7,21,6,38,-45,29
1491694972409,0,96,-39,-14,-21,27,-9,49,6
1491694972410,1,-31,-12,-17,-9,35,-4,3,-1
1491694972410,1,31,-64,-38,-30,-72,-28,-22,7
1491694972456,2,-99,-17,45,11,13,-22,-32,-13
1491694972456,2,46,55,14,-10,-7,-77,1,23
1491694972457,3,7,-14,20,39,49,87,8,16
1491694972457,3,41,-3,-19,-25,-20,-28,5,-14
1491694972457,1,-13,11,15,4,41,27,9,-34
1491694972457,1,-17,26,0,0,-2,63,22,-13
1491694972458,2,33,9,12,11,59,-8,-23,21
1491694972458,2,108,-9,1,13,28,-16,-51,6
1491694972505,3,-13,-20,6,14,16,-1,55,-9
1491694972505,3,-49,-5,-24,-33,-20,2,-28,-28
1491694972506,0,64,22,-3,-28,-41,-1,-10,14
1491694972506,0,-24,30,5,17,-4,-19,-10,13
1491694972506,2,74,-12,-10,5,-22,-73,-34,23
1491694972506,2,-31,-10,7,1,-1,44,2,-30
1491694972507,3,-54,-15,-14,0,6,-42,-27,9
1491694972507,3,7,35,-23,-3,-72,-77,-14,-2
1491694972554,0,16,23,-1,-4,47,99,38,-26
1491694972554,0,107,21,18,6,-34,-65,-63,-21
1491694972554,1,-128,-12,-16,-2,10,47,65,-2
1491694972554,1,77,-53,-3,-21,-17,-108,-79,-5
1491694972555,2,-37,-15,-9,16,-4,73,93,2
1491694972555,2,8,-6,-50,-70,-91,-36,5,17
1491694972556,3,-86,-12,25,7,13,55,-15,-51
1491694972556,3,-2,5,15,24,-53,54,27,38
1491694972602,0,69,35,7,87,120,-40,-41,-1
1491694972602,0,-20,-37,-24,-37,-78,6,38,64
1491694972603,1,39,-21,1,-77,-76,45,59,-26
1491694972603,1,-82,-14,-2,57,113,93,29,-8
1491694972604,3,40,10,9,19,1,12,25,35
1491694972604,3,68,-24,4,-5,-36,-78,-29,-24
1491694972605,0,1,17,-9,6,61,57,-30,-30
1491694972605,0,-93,1,-8,-48,-46,99,57,-13
1491694972651,1,106,8,-15,-69,-6,-123,-23,39
1491694972651,1,-104,-56,-35,23,6,-61,-52,21
1491694972652,2,-79,-11,-2,11,-13,38,2,-7
1491694972652,2,64,-52,-5,44,99,75,-2,-12
1491694972652,0,-81,3,-7,-40,-121,-39,-21,-48
1491694972652,0,13,-27,-10,-34,-83,63,127,31
1491694972653,1,-21,-1,4,68,103,127,17,-36
1491694972653,1,21,18,-19,53,-74,-121,-8,-10
1491694972700,2,45,-7,-47,-128,-125,-46,-56,34
1491694972700,2,-33,7,44,91,121,10,-91,-36
1491694972701,3,-63,-16,13,93,45,48,-8,34
1491694972701,3,81,11,19,-60,-49,127,101,-15
1491694972701,1,-89,1,3,-6,10,-128,-67,43
1491694972701,1,66,36,30,77,90,127,64,-21
1491694972702,2,-33,-48,11,-26,104,-53,-55,-43
1491694972702,2,-70,5,-9,27,-77,85,-28,-1
1491694972749,3,-99,4,-18,-46,-69,1,-49,-37
1491694972749,3,48,9,-8,-31,65,49,95,38
1491694972750,0,34,-9,-10,10,116,14,47,69
1491694972750,0,-17,33,39,62,-44,-97,-68,-15
1491694972750,2,36,-40,-4,-94,-80,13,-24,-71
1491694972750,2,20,20,25,116,127,76,69,34
1491694972751,3,60,4,55,52,-128,-91,6,11
1491694972751,3,109,22,-12,-51,28,82,-90,-20
1491694972797,0,-90,23,2,7,-78,-21,-70,-21
1491694972797,0,-99,-18,-1,-46,-13,121,98,-5
1491694972798,1,39,12,11,69,-49,15,42,-17
1491694972798,1,21,-25,-50,-13,3,-128,-42,2
1491694972799,3,10,22,22,101,118,-58,4,-48
1491694972799,3,-87,-3,-16,-76,-40,52,-37,-76
1491694972800,0,-8,-15,-52,-8,-61,-26,-50,34
1491694972800,0,105,5,24,45,26,-12,19,33
1491694972846,1,97,-31,12,-88,-117,-38,40,69
1491694972846,1,-110,-38,-2,-13,34,-65,-25,-14
1491694972847,2,61,34,35,38,1,127,-3,22
1491694972847,2,-128,38,9,34,120,-128,-128,-46
1491694972847,0,104,-1,40,127,127,127,88,21
1491694972847,0,17,-29,-52,60,-128,-128,-113,64
1491694972848,1,72,-7,-17,-120,-23,106,2,-22
1491694972848,1,74,19,3,44,66,87,-51,-62
1491694972895,2,48,24,49,-30,28,34,95,57
1491694972895,2,-78,-6,5,-4,103,127,38,-123
1491694972896,3,92,-1,-15,53,-128,-27,33,80
1491694972896,3,-78,-51,-5,-14,-47,-76,-10,21
1491694972896,0,59,26,-1,-3,-33,85,48,5
1491694972896,0,-65,11,-11,-72,7,10,-55,1
1491694972897,1,13,-3,1,-47,-36,6,-21,40
1491694972897,1,-38,-24,10,127,127,127,89,41
1491694972944,2,-95,-33,46,111,-94,-110,11,-85
1491694972944,2,106,25,-69,-128,22,-41,-50,-23
1491694972945,3,-128,-16,-6,-104,-69,-65,-14,-14
1491694972945,3,91,12,-3,110,104,111,-107,29
1491694972945,1,-68,-76,-99,44,-8,-125,-57,-6
1491694972945,1,-66,96,79,-93,-49,62,38,-37
1491694972946,2,-41,-36,-47,21,127,16,17,8
1491694972946,2,23,-4,56,127,-55,62,79,54
1491694972992,3,49,41,10,4,69,59,-8,-20
1491694972992,3,82,-92,-49,-71,-128,-128,-42,-21
1491694972993,0,-119,-49,-91,-108,46,23,-88,-128
1491694972993,0,127,83,81,36,-45,48,92,96
1491694972994,2,-56,-37,-5,-16,-1,8,-32,-21
1491694972994,2,-128,-48,-57,-59,-86,-110,-11,36
1491694972995,3,11,50,106,127,127,98,69,34
1491694972995,3,71,38,84,114,-16,90,19,52
1491694973043,0,-42,-56,-89,-127,-107,75,-79,-70
1491694973043,0,-66,-31,-10,-110,-114,-107,-30,-48
1491694973044,1,89,44,7,58,80,127,-22,45
1491694973044,1,-118,-13,-51,-88,-93,-128,-74,17
1491694973045,3,-66,2,-95,-128,-128,35,28,-43
1491694973045,3,75,36,62,127,117,104,-6,84
1491694973046,0,-31,17,54,63,94,-10,83,16
1491694973046,0,2,29,71,63,40,-60,30,65
1491694973090,1,25,-14,-5,-101,-88,-40,38,-108
1491694973090,1,-96,-13,-39,-60,49,-111,-36,54
1491694973092,2,127,21,-11,95,25,56,46,27
1491694973092,2,-94,-46,-54,59,102,90,-16,-49
1491694973093,0,-62,1,26,56,-21,52,-60,-19
1491694973093,0,-60,-51,-87,-128,30,-73,127,-44
1491694973094,1,0,-18,26,66,-71,7,-128,8
1491694973094,1,-92,-8,15,111,113,95,78,8
1491694973139,2,127,15,-11,-71,98,54,40,49
1491694973139,2,48,-106,53,70,-128,71,-81,49
1491694973140,3,-94,-128,-96,-104,-99,-79,7,-97
1491694973140,3,88,-128,-31,37,60,-62,24,24
1491694973141,1,65,102,-43,-40,-55,-46,114,53
1491694973141,1,-79,127,-78,67,112,127,111,-7
1491694973141,2,-93,108,13,-3,63,42,-64,-124
1491694973141,2,101,101,86,-25,-41,-15,7,91
1491694973187,3,-20,80,3,-20,-60,-26,-18,-16
1491694973187,3,83,73,25,25,45,22,14,62
1491694973188,0,-13,46,40,63,-100,22,34,-15
1491694973188,0,-100,44,2,-17,107,-6,65,-83
1491694973190,2,12,8,1,-65,-128,-128,-76,23
1491694973190,2,-20,13,52,127,96,56,100,-54
1491694973191,3,44,8,35,41,115,30,63,-13
1491694973191,3,-21,51,87,-112,-128,23,-12,-7
1491694973236,0,19,45,-57,116,126,28,-5,-4
1491694973236,0,10,1,-97,-128,-128,1,-17,6
1491694973237,1,-128,-14,-57,43,-57,-85,-61,8
1491694973237,1,-46,-110,-71,10,-17,-20,-119,-128
1491694973238,2,82,-16,65,14,87,69,81,47
1491694973238,2,4,11,78,-21,126,55,18,-17
1491694973239,3,82,-2,-56,-50,-13,-2,42,4
1491694973239,3,52,10,20,-98,-100,-5,10,-1
1491694973285,0,-14,67,-11,-41,-3,-107,-53,18
1491694973285,0,-10,21,-23,120,122,41,10,-27
1491694973286,1,46,32,56,-14,-40,28,22,-7
1491694973286,1,40,85,-66,-26,-128,-58,0,10
1491694973287,3,-88,-63,37,127,95,109,43,-16
1491694973287,3,55,-34,43,21,30,-6,19,-18
1491694973288,0,-5,-102,-28,42,24,0,2,-1
1491694973288,0,-48,-23,-42,-24,-101,-38,-45,-24
1491694973334,1,-83,22,93,84,42,12,24,-39
1491694973334,1,-18,-15,-29,-30,27,18,23,-27
1491694973335,2,58,9,45,42,-19,54,-2,58
1491694973335,2,-18,40,-48,11,55,31,10,-43
1491694973336,0,-54,-44,-42,35,-26,-46,-25,-23
1491694973336,0,-4,-47,-22,-28,59,35,34,-18
1491694973337,1,29,-39,25,98,37,99,16,49
1491694973337,1,-85,-56,20,-70,-105,-50,-56,-44
1491694973383,2,110,-27,-117,-128,-128,-125,-34,19
1491694973383,2,-75,-33,-42,105,55,40,23,-2
1491694973384,3,-15,63,104,127,127,24,-38,40
1491694973384,3,-36,4,-13,-67,35,55,73,-20
1491694973385,1,31,-120,-22,21,54,61,41,-47
1491694973385,1,-25,-18,-20,-62,-100,-100,-83,39
1491694973387,2,-23,-24,-95,3,49,-33,-13,33
1491694973387,2,89,-40,-24,26,-97,-38,-27,8
1491694973431,3,-119,57,66,48,79,64,10,-24
1491694973431,3,127,-104,91,127,114,117,41,-16
1491694973432,0,-18,57,22,10,-90,-75,7,21
1491694973432,0,33,-30,-37,-45,48,42,1,-14
1491694973433,2,-25,84,70,-59,-121,17,-13,-16
1491694973433,2,84,113,0,-56,-64,-86,-35,50
1491694973434,3,-4,-30,-13,59,-40,40,-2,-61
1491694973434,3,99,127,52,-26,47,-33,3,36
1491694973480,0,-60,-7,-23,-32,-65,69,10,-16
1491694973480,0,80,88,-16,-24,1,15,48,25
1491694973481,1,4,-13,-21,25,19,-27,-25,18
1491694973481,1,-42,42,-57,-58,-91,-38,-5,-30
1491694973482,3,-22,107,-64,-128,-45,-118,-52,-16
1491694973482,3,-3,-9,-47,-47,-66,-44,-41,61
1491694973483,0,-4,-47,42,40,73,39,1,4
1491694973483,0,-59,-20,11,53,51,28,1,-38
1491694973529,1,-21,-31,-6,-59,-62,62,23,-4
1491694973529,1,-34,-34,49,85,93,-1,-6,-38
1491694973530,2,-10,-102,-72,-128,-128,4,18,2
1491694973530,2,57,-43,-45,19,-42,-113,-61,12
1491694973531,0,-47,-36,51,122,109,27,3,11
1491694973531,0,14,-34,-81,50,42,32,3,2
1491694973532,1,-25,-74,44,-107,-11,3,-1,-50
1491694973532,1,-106,-128,22,39,92,98,91,4
1491694973626,2,25,-5,-27,-104,-85,-40,-18,-19
1491694973626,2,90,66,-77,9,68,-35,-22,12
1491694973628,3,-73,76,-9,3,-13,60,30,-39
1491694973628,3,109,125,20,-40,-79,-74,-60,27
1491694973675,0,11,-41,27,91,58,-8,-1,23
1491694973675,0,-70,-31,-42,-3,89,53,17,-24
1491694973676,1,15,90,3,46,67,7,-27,27
1491694973676,1,-1,80,2,18,-37,85,84,-16
1491694973677,2,-11,50,54,-12,64,8,11,-32
1491694973677,2,-34,126,-13,-73,-128,-118,-57,7
1491694973678,3,57,-100,14,118,-15,-70,-5,39
1491694973678,3,1,-122,10,52,22,17,-13,-29
1491694973724,1,-6,-40,-44,-128,-78,-57,-2,7
1491694973724,1,-54,-6,-10,-15,-47,-24,0,-8
1491694973725,2,-1,24,34,-38,-16,-3,11,11
1491694973725,2,-59,-15,-58,-43,-46,-8,-6,-11
1491694973726,3,53,-22,57,51,51,-11,-29,-3
1491694973726,3,-28,2,45,-4,-4,17,-3,29
1491694973727,3,-52,96,-36,-33,3,-18,-3,-4
1491694973727,3,37,46,8,7,0,-6,2,-5
1491694973772,0,58,60,29,36,-8,9,-21,-17
1491694973772,0,113,-82,-64,-54,1,-14,4,-6
1491694973774,1,37,-128,37,32,0,-6,-13,8
1491694973774,1,35,-102,-12,-86,-70,-22,-20,6
1491694973775,0,-27,-36,-19,-23,-26,-12,8,1
1491694973775,0,85,42,32,26,35,29,7,-15
1491694973782,1,98,-2,-29,2,12,3,17,31
1491694973782,1,-31,106,14,-17,-20,-2,9,1
1491694973821,2,9,-13,-32,-29,4,5,-7,-5
1491694973821,2,-71,55,20,41,-1,9,10,13
1491694973823,3,-76,-55,-5,-43,-54,-26,-37,-25
1491694973823,3,-9,-92,-13,34,34,-11,33,-1
1491694973824,1,60,40,-1,12,-16,9,-15,-18
1491694973824,1,-33,-121,-24,-14,11,-6,-8,7
1491694973825,2,9,64,22,20,-5,8,8,2
1491694973825,2,-62,26,-12,5,0,1,-7,-34
1491694973870,3,17,48,0,-5,35,49,51,9
1491694973870,3,52,127,23,5,-38,-68,-25,4
1491694973872,0,-49,106,34,7,6,-18,-5,-18
1491694973872,0,-13,87,-21,-17,-14,20,-13,10
1491694973873,2,19,-18,-1,-24,-35,1,8,7
1491694973873,2,-10,10,3,7,54,-17,-29,-17
1491694973874,3,1,41,-28,-61,-77,-73,9,-1
1491694973874,3,63,26,15,-17,-33,1,-15,-2
1491694973919,0,12,29,2,45,-13,18,18,2
1491694973919,0,-60,7,-23,20,50,24,31,-21
1491694973921,1,102,120,33,19,37,23,11,1
1491694973921,1,-66,70,13,-13,-1,-5,-27,-11
1491694973922,3,9,58,12,52,125,57,-39,0
1491694973922,3,63,127,-26,-55,-106,22,5,2
1491694973923,0,6,104,12,20,79,0,-31,-19
1491694973923,0,34,15,-18,-37,-39,-71,-5,25
1491694973968,1,-82,-37,-16,-43,-89,-46,-2,36
1491694973968,1,-5,-111,27,44,57,10,13,-47
1491694973969,2,-15,-128,-31,-1,66,19,14,-13
1491694973969,2,-70,-128,10,-17,-102,-49,-25,-8
1491694973971,3,-11,-69,8,7,71,-38,21,4
1491694973971,3,37,-92,-25,16,-98,12,-11,10
1491694973972,0,17,-14,13,-7,91,76,23,-37
1491694973972,0,127,8,20,46,64,31,-16,29
1491694974017,1,-17,8,4,24,-31,-44,3,-11
1491694974017,1,-102,-89,-33,-68,14,48,-43,-29
1491694974019,2,-2,-94,-14,-50,-128,50,38,-11
1491694974019,2,31,-30,5,-31,0,-50,-44,30
1491694974020,0,35,-2,-4,-26,-6,-30,22,34
1491694974020,0,-94,-17,5,7,-14,127,-38,-58
1491694974021,1,74,59,-6,29,-39,-40,92,43
1491694974021,1,24,64,-8,-42,15,-34,-13,13
1491694974065,2,-5,-50,-12,-35,-45,11,2,6
1491694974065,2,38,-25,-6,50,-17,-46,18,21
1491694974067,3,-24,-37,9,-33,10,54,-3,-35
1491694974067,3,72,-6,10,79,34,64,-18,8
1491694974069,1,2,-20,-40,1,-13,35,2,22
1491694974069,1,3,-73,21,-7,-47,13,5,-20
1491694974070,2,-36,4,7,85,104,113,73,2
1491694974070,2,-122,37,31,6,-69,-85,-22,-51
1491694974115,3,90,23,-8,-22,113,-32,-11,-9
1491694974115,3,-89,66,-19,-100,-116,-53,53,13
1491694974116,0,119,94,7,9,-45,-40,-68,32
1491694974116,0,-86,4,11,79,106,127,112,13
1491694974117,2,-87,-45,-10,-91,-119,5,-21,-12
1491694974117,2,127,11,6,17,46,-34,29,64
1491694974117,3,-128,-8,9,60,68,65,-111,-90
1491694974117,3,105,79,11,34,47,-71,24,19
1491694974162,0,69,24,-12,-24,-4,32,32,-9
1491694974162,0,-44,6,-8,-20,-44,51,8,28
1491694974163,1,55,-97,-10,-20,5,-35,-26,5
1491694974163,1,-6,-24,-17,46,39,103,5,1
1491694974164,3,73,7,1,27,29,6,-18,-17
1491694974164,3,-92,51,23,-44,-46,-12,-51,2
1491694974165,0,72,43,-7,31,47,5,53,2
1491694974165,0,-128,-5,-10,-29,-35,-32,-19,-24
1491694974211,1,78,2,-10,4,-92,-40,-61,35
1491694974211,1,-88,25,-21,-14,-18,38,60,-38
1491694974212,2,34,-28,-19,-14,-66,33,-17,-30
1491694974212,2,20,-83,-3,3,37,29,30,44
1491694974212,0,34,127,5,3,-95,-98,66,71
1491694974212,0,-50,127,-24,35,6,27,-89,-32
1491694974214,1,-38,112,-1,-7,52,96,0,13
1491694974214,1,-50,43,-7,-50,-76,86,81,-25
1491694974260,2,53,33,-23,-16,-41,-32,-42,-16
1491694974260,2,-44,87,-2,-10,-10,-39,-35,-21
1491694974261,3,-97,2,4,-10,10,-2,2,26
1491694974261,3,37,109,33,56,73,22,2,23
1491694974262,1,-84,105,13,-44,-117,-55,-79,-60
1491694974262,1,127,-114,-20,-2,28,44,99,47
1491694974262,2,-32,-102,-14,19,57,-53,2,8
1491694974262,2,98,-83,-16,24,-35,-55,-29,-20
1491694974309,3,-87,-128,-28,-1,4,15,59,-28
1491694974309,3,127,-90,-14,31,-22,39,-23,61
1491694974310,0,-96,-28,54,60,0,6,-72,-22
1491694974310,0,70,10,11,6,117,1,86,7
1491694974310,1,38,-67,-25,-52,-94,-22,33,0
1491694974310,1,-110,79,25,-6,-19,-82,-69,25
1491694974311,2,-68,66,-18,36,52,75,29,26
1491694974311,2,-48,67,28,-49,-57,-23,-45,-24
1491694974357,3,32,127,15,3,16,62,-23,15
1491694974357,3,65,-9,-23,6,74,-20,10,-17
1491694974358,0,-31,-90,-13,-39,-24,-7,-19,-39
1491694974358,0,18,-98,-9,-25,-82,-43,-52,24
1491694974360,2,102,18,51,26,4,70,2,40
1491694974360,2,2,-102,-1,4,71,28,-57,-45
1491694974361,3,44,-128,-18,-11,-22,-47,15,6
1491694974361,3,-31,1,8,-61,-34,-35,-25,27
1491694974406,0,55,-47,17,-47,-27,-54,4,19
1491694974406,0,-44,-116,-16,-19,-57,-49,-51,-28
1491694974407,1,-28,-128,3,-32,11,104,59,68
1491694974407,1,1,-83,-9,14,36,4,41,27
1491694974408,3,29,99,4,6,-8,9,-40,-3
1491694974408,3,-82,52,-36,-17,-19,-75,-26,2
1491694974409,0,-112,-47,-8,6,25,7,13,-5
1491694974409,0,95,23,14,32,12,1,-7,-7
1491694974455,1,57,-5,33,-3,-83,25,88,5
1491694974455,1,-46,42,-13,12,81,-30,-37,-36
1491694974456,2,-99,-106,-50,-14,-77,-21,-30,-48
1491694974456,2,-26,60,-13,-35,-41,47,35,42
1491694974457,0,21,63,-27,-14,-42,-53,4,-43
1491694974457,0,-58,-10,-19,-49,-66,-12,45,16
1491694974457,1,79,92,-23,-12,14,67,-37,38
1491694974457,1,-41,17,-18,32,-1,-59,-2,-33
1491694974504,2,-23,49,47,51,103,75,4,19
1491694974504,2,-16,-9,4,-26,-10,1,-17,-32
1491694974504,3,-5,90,-1,-22,0,-67,-16,4
1491694974504,3,-44,-6,10,27,-29,-37,-41,-34
1491694974505,1,-43,-25,-2,18,48,-59,-87,-37
1491694974505,1,127,45,-19,-13,-46,17,13,27
1491694974506,2,-3,50,31,9,-1,51,38,20
1491694974506,2,16,-43,-15,8,10,-27,22,-10
1491694974552,3,-94,-19,-3,8,18,-21,-21,-62
1491694974552,3,88,45,27,-27,-31,58,10,46
1491694974554,0,-8,38,-9,1,-17,21,-65,-23
1491694974554,0,-84,-17,-11,40,81,-34,43,-14
1491694974555,2,44,31,-22,0,-54,39,54,28
1491694974555,2,60,-14,-4,4,-1,-24,-85,26
1491694974556,3,-59,-17,-8,25,-26,-15,43,9
1491694974556,3,40,-2,36,4,21,4,4,-8
1491694974601,0,11,-115,-19,-26,1,-33,13,15
1491694974601,0,-41,-56,1,2,-32,-45,-90,1
1491694974603,1,39,-102,-2,10,55,29,27,4
1491694974603,1,79,-61,2,-1,-55,0,27,-7
1491694974605,3,-102,-6,-3,14,27,41,-1,-11
1491694974605,3,-42,14,1,29,18,-22,-3,13
1491694974606,0,27,34,29,46,50,6,-13,-49
1491694974606,0,-120,78,-8,-4,-10,-19,-3,-25
1491694974650,1,88,49,-7,7,73,-21,21,-26
1491694974650,1,-59,-25,-16,-82,-128,69,47,35
1491694974652,2,-81,-36,-10,-12,48,-113,-37,-18
1491694974652,2,9,-44,15,25,-43,58,-16,26
1491694974656,3,-76,13,3,41,98,4,-27,-4
1491694974656,3,75,-20,24,26,-79,-58,-56,11
1491694974657,0,-46,7,-3,1,46,41,-9,-32
1491694974657,0,-3,18,-8,43,99,46,66,29
1491694974699,1,-23,17,-5,-110,-126,-87,-34,-49
1491694974699,1,-56,27,-11,-38,-38,70,21,-14
1491694974701,2,-10,-33,-19,16,-26,-96,-62,19
1491694974701,2,77,49,28,12,-68,-1,35,-38
1491694974702,0,-58,-3,-26,-45,-128,-58,38,-20
1491694974702,0,-21,-38,2,21,15,108,17,4
1491694974703,1,-4,36,8,57,55,56,70,43
1491694974703,1,-40,-65,1,-17,-44,-54,28,3
1491694974747,2,-30,-5,-22,-35,-48,8,-46,-63
1491694974747,2,83,1,33,6,-128,-128,-20,30
1491694974748,3,19,-50,-15,29,3,127,59,-22
1491694974748,3,-72,87,37,89,-33,13,0,-6
1491694974749,1,127,37,19,82,-98,-32,-75,28
1491694974749,1,-128,35,-7,-59,127,23,62,-62
1491694974750,2,58,-31,1,45,-79,-54,-80,0
1491694974750,2,28,-8,-6,-105,-12,62,-28,1
1491694974796,3,68,25,-7,10,15,49,83,106
1491694974796,3,58,-69,-34,13,-101,-79,-101,-45
1491694974797,0,54,85,16,16,-44,127,122,55
1491694974797,0,13,-11,-25,-53,127,19,-38,-32
1491694974797,2,16,51,17,9,-41,23,47,17
1491694974797,2,-66,-32,-14,19,-104,-67,-105,-38
1491694974799,3,49,-48,-40,-51,-20,16,37,42
1491694974799,3,70,-1,12,-18,52,3,44,1
1491694974845,0,16,-10,24,95,114,-19,-79,-25
1491694974845,0,-31,76,26,40,-52,31,127,-3
1491694974846,1,-114,-20,-15,-110,35,39,32,-8
1491694974846,1,46,-60,-8,27,-106,-109,-50,-9
1491694974846,3,13,40,25,-68,-68,-128,-57,-52
1491694974846,3,16,-14,-7,43,-69,127,68,70
1491694974847,0,-96,-80,-14,-104,34,-45,-40,-5
1491694974847,0,102,56,11,16,-1,48,66,14
1491694974894,1,-97,23,18,126,52,29,-53,-111
1491694974894,1,61,70,10,-116,-31,-11,29,-4
1491694974894,2,-46,-27,-45,-40,-27,-34,-126,38
1491694974894,2,-35,-55,45,106,56,127,127,-4
1491694974895,0,96,-5,11,44,97,-128,46,58
1491694974895,0,-66,56,-42,-12,-41,-47,91,16
1491694974896,1,127,-45,-49,-106,-128,-100,-65,21
1491694974896,1,-19,39,6,77,115,96,40,-13
1491694974944,2,87,40,93,104,67,78,-16,45
1491694974944,2,-81,43,-36,-99,-85,-66,-70,-90
1491694974945,3,-38,-27,-30,-37,64,125,-30,48
1491694974945,3,48,-79,8,65,47,-88,-49,21
1491694974946,1,96,31,-10,-122,-128,-33,-77,5
1491694974946,1,47,-73,-42,53,127,85,-41,46
1491694974947,2,-84,-128,32,105,-128,-60,-70,19
1491694974947,2,95,-128,58,-82,10,-21,-21,81
1491694974991,3,29,-82,-41,31,14,-4,122,-54
1491694974991,3,-59,-128,-13,-128,-128,-89,-54,-37
1491694974993,0,89,-55,-11,54,24,120,33,6
1491694974993,0,-96,-29,-8,110,-3,89,45,-4
1491694974994,2,-23,-48,-29,-17,12,-79,4,-11
1491694974994,2,-36,-58,21,84,107,68,-35,62
1491694974995,3,21,6,64,63,-14,24,9,3
1491694974995,3,-90,-69,-6,-101,-125,24,-14,-59
1491694975040,0,38,63,-58,-22,31,24,23,-43
1491694975040,0,111,-67,-4,-37,-81,122,-44,47
1491694975041,1,-83,-77,-10,-49,36,-42,102,-19
1491694975041,1,-79,61,28,69,-40,-125,-100,38
1491694975042,2,73,-23,-36,-71,-128,-28,10,25
1491694975042,2,25,43,65,73,127,105,24,18
1491694975043,3,100,81,13,114,97,-75,-23,5
1491694975043,3,-64,7,-53,-105,-54,-86,9,-4
1491694975089,0,-127,-65,-50,-87,-62,69,22,-25
1491694975089,0,55,-32,-14,51,9,-69,-123,-32
1491694975090,1,78,-26,27,65,-82,-74,1,18
1491694975090,1,-93,35,-20,6,22,5,117,8
1491694975091,3,66,43,12,56,127,37,116,-9
1491694975091,3,40,16,-30,-33,-49,10,-31,-13
1491694975091,0,35,28,-8,-56,22,58,25,-13
1491694975091,0,-23,-71,13,54,11,-120,71,95
1491694975137,1,-92,-65,-31,-22,-49,102,-84,-77
1491694975137,1,-28,0,18,43,94,28,47,49
1491694975138,2,-20,-54,-10,-2,-128,-106,-42,13
1491694975138,2,19,48,35,-2,-58,93,51,-29
1491694975141,0,-44,-9,14,-8,-17,104,41,-9
1491694975141,0,51,70,78,86,59,39,32,24
1491694975142,1,8,-6,18,43,-28,-85,-37,-24
1491694975142,1,-73,-20,-14,-8,11,110,86,-10
1491694975186,2,-75,-2,-42,94,127,35,-21,-9
1491694975186,2,85,-8,31,2,-60,-128,-128,-45
1491694975187,3,-74,13,24,73,-17,127,127,57
1491694975187,3,33,-34,-9,38,25,-25,-104,-38
1491694975188,1,-43,-45,-6,34,127,-112,-106,35
1491694975188,1,36,-122,23,127,122,58,-51,3
1491694975189,2,-47,-122,61,-128,-119,11,33,-15
1491694975189,2,-106,-128,-2,20,19,87,70,9
1491694975235,3,127,-35,2,-7,29,-38,17,-15
1491694975235,3,-81,37,-26,-103,-91,36,-41,26
1491694975236,0,28,127,-18,12,-40,-18,-54,35
1491694975236,0,29,127,54,34,-51,93,57,-7
1491694975238,2,34,12,5,-2,-91,-92,-83,14
1491694975238,2,-60,3,-92,26,29,-7,35,-107
1491694975239,3,-82,12,31,-93,-128,73,-9,-8
1491694975239,3,76,40,-47,-87,31,33,60,41
1491694975333,0,47,69,28,87,103,94,42,16
1491694975333,0,27,52,-19,-30,47,-21,-52,10
1491694975334,1,3,84,-21,44,120,27,-7,11
1491694975334,1,-39,75,127,31,-112,-118,-17,-28
1491694975335,3,-35,-9,73,-58,-39,67,20,-3
1491694975335,3,36,-22,-79,-86,117,-9,30,16
1491694975336,0,11,4,79,-13,-28,74,52,3
1491694975336,0,-45,-20,-37,-50,-36,-100,-37,-45
1491694975381,1,78,-49,-116,-67,-119,-81,-41,10
1491694975381,1,-85,1,41,127,-43,36,0,32
1491694975382,2,20,27,80,14,19,102,94,25
1491694975382,2,64,29,-73,-14,25,-9,-80,50
1491694975383,0,-46,-34,-48,-13,127,71,67,9
1491694975383,0,30,-31,90,42,-43,-7,-4,-2
1491694975384,0,-5,74,-38,-20,43,-36,-18,-31
1491694975384,0,2,3,-28,-105,-56,-75,-12,-43
1491694975430,1,25,-75,-33,62,102,-40,-3,-15
1491694975430,1,-73,-107,15,-7,-98,-13,-11,45
1491694975431,2,79,-44,35,47,9,6,-19,15
1491694975431,2,-13,-43,34,82,25,127,20,-5
1491694975432,1,74,1,127,105,55,71,-24,33
1491694975432,1,-54,-7,54,-36,72,37,44,-12
1491694975433,2,-1,-6,-103,-128,-113,-70,-54,5
1491694975433,2,26,27,-18,51,-35,-128,-11,46
1491694975479,3,-56,6,-23,63,109,-37,-59,1
1491694975479,3,2,-1,41,57,25,32,2,-58
1491694975480,0,19,-5,60,-1,-104,38,19,-35
1491694975480,0,6,-10,5,-39,-39,43,30,19
1491694975481,2,63,1,-38,-128,-94,57,8,-29
1491694975481,2,-16,25,-62,-23,127,-97,-83,-6
1491694975481,3,-17,6,-40,57,-12,72,43,-24
1491694975481,3,-29,-4,-14,-78,35,-40,-6,7
1491694975527,0,33,-33,-14,108,100,55,-15,45
1491694975527,0,51,26,51,24,-43,111,62,-24
1491694975528,1,38,-57,-101,-108,-77,-73,-34,-33
1491694975528,1,72,-3,23,78,17,-26,-28,27
1491694975535,3,-67,-71,30,-90,-106,-12,-14,29
1491694975535,3,12,-50,-33,-20,-106,37,-30,-7
1491694975536,0,-62,-21,59,90,15,-18,16,-17
1491694975536,0,-90,69,42,-28,-32,77,57,-24
1491694975576,1,-2,85,-8,-89,-96,-34,17,-4
1491694975576,1,-33,33,-12,77,103,-55,-38,-13
1491694975577,2,-12,31,-60,-47,-54,-58,-29,34
1491694975577,2,-48,94,24,-22,-10,-14,-9,-5
1491694975578,0,33,98,-4,-13,35,-7,9,0
1491694975578,0,-85,-10,55,-50,54,-52,-32,8
1491694975579,1,-33,12,-30,-64,-90,19,-3,14
1491694975579,1,42,-33,-48,-20,-43,-18,-8,32
1491694975625,2,-42,-112,-50,34,58,4,13,-49
1491694975625,2,109,-11,-23,-104,-128,-26,-11,-1
1491694975626,3,-12,42,106,127,127,22,2,-36
1491694975626,3,19,49,-99,-93,9,28,-6,54
1491694975627,1,-47,-28,-70,-56,-28,38,62,-10
1491694975627,1,-46,54,-78,-63,-28,-43,-65,-6
1491694975628,2,22,88,56,62,74,-86,-32,30
1491694975628,2,-65,-89,-20,8,-15,99,28,-17
1491694975674,3,45,61,-20,-55,-125,-107,-60,15
1491694975674,3,45,-9,-20,71,107,35,39,-2
1491694975675,0,73,78,57,-59,-128,16,-28,9
1491694975675,0,2,-98,-24,21,69,26,24,-2
1491694975676,2,-41,-12,9,63,62,15,24,-29
1491694975676,2,20,54,50,-47,-92,-5,17,19
1491694975677,3,-21,-57,46,-11,-4,-3,-47,-17
1491694975677,3,9,25,30,24,7,1,20,8
1491694975722,0,-93,-42,-39,-76,-60,1,9,-49
1491694975722,0,-28,-61,-51,-18,-53,-17,-14,21
1491694975724,1,46,0,12,117,86,2,-27,37
1491694975724,1,-25,54,19,-97,-49,0,4,-15
1491694975725,2,-29,-4,-29,-14,-9,35,11,21
1491694975725,2,70,26,24,33,-31,-42,-31,8
1491694975725,3,59,8,27,80,46,45,20,0
1491694975725,3,-4,-35,17,-38,-4,1,15,-1
1491694975771,0,-22,-25,-32,-26,-4,-24,-21,1
1491694975771,0,-40,37,-5,22,6,-19,-27,-9
1491694975772,1,-26,-51,43,19,-13,14,13,15
1491694975772,1,-83,-4,-6,37,5,-9,15,5
1491694975773,3,-21,-19,-46,17,-5,-5,5,1
1491694975773,3,7,-32,26,-24,-29,-6,9,-10
1491694975774,0,50,-69,32,8,-11,-7,9,45
1491694975774,0,1,-9,-11,38,35,-12,-15,-39
1491694975820,1,49,21,7,-30,-11,9,-19,2
1491694975820,1,-51,-54,-6,44,31,21,23,6
1491694975821,2,55,32,-44,-58,-25,-6,-14,-6
1491694975821,2,64,19,61,-3,0,8,26,9
1491694975822,0,-44,1,1,-65,-14,-6,15,15
1491694975822,0,27,-14,-42,70,18,3,17,-32
1491694975823,1,-28,-15,-7,-84,-22,-2,-18,29
1491694975823,1,74,30,15,2,-25,13,11,17
1491694975869,2,19,-16,26,32,-13,0,-9,2
1491694975869,2,-29,-13,-46,-2,30,4,4,5
1491694975870,3,-67,8,25,11,8,-18,-6,-18
1491694975870,3,-4,-33,-7,-15,-27,-8,-2,-20
1491694975871,1,-32,37,-20,14,34,-13,13,0
1491694975871,1,-21,3,24,-22,-22,15,-2,-21
1491694975872,2,78,-61,0,-6,-16,0,-24,-11
1491694975872,2,80,5,-15,-15,14,8,1,7
1491694975917,3,102,-78,18,-1,-55,-13,15,23
1491694975917,3,27,111,-3,60,118,14,-9,-20
1491694975919,0,51,124,20,-43,-47,-25,-22,4
1491694975919,0,-4,22,-37,-33,-51,-20,-13,5
1491694975920,2,-5,-91,-17,15,62,15,42,-6
1491694975920,2,-12,113,11,2,1,-3,-29,-14
1491694975921,3,48,90,-16,-18,-37,-33,-11,-13
1491694975921,3,-7,10,0,5,-13,25,2,-14
1491694975966,0,15,120,-25,-12,6,-23,-8,-9
1491694975966,0,-27,57,67,40,50,37,20,14
1491694975968,1,-43,-25,-9,17,69,43,39,-6
1491694975968,1,35,-12,-19,-39,-57,-50,-45,10
1491694975969,3,6,10,-7,27,14,-2,-24,-14
1491694975969,3,-49,-75,55,24,51,16,31,4
1491694975969,0,89,-55,-4,16,8,16,3,32
1491694975969,0,39,-21,-45,5,60,58,24,-4
1491694976015,1,-34,12,-9,-9,-76,-78,-54,-24
1491694976015,1,-8,-97,-3,-77,-74,51,83,17
1491694976016,2,37,-35,22,24,-24,-9,-19,38
1491694976016,2,-25,-47,-7,37,-10,22,-25,-17
1491694976017,0,-44,23,-12,-63,-60,-54,4,27
1491694976017,0,-9,-58,-14,-16,-18,-2,-8,-8
1491694976018,1,-110,-63,27,53,79,63,13,20
1491694976018,1,32,-30,36,79,44,36,-22,-31
1491694976064,2,-2,-41,15,-48,-32,-8,57,-29
1491694976064,2,-78,12,-36,-60,21,-33,-73,18
1491694976065,3,71,58,-2,-2,-71,46,23,3
1491694976065,3,-102,45,-25,-65,-93,-66,6,-6
1491694976066,0,53,40,30,53,124,-6,-13,-13
1491694976066,0,-34,-13,10,37,35,-12,-5,8
1491694976067,1,-15,17,-13,-38,-34,31,57,26
1491694976067,1,83,35,7,40,47,75,-22,18
1491694976112,2,37,37,-2,8,-8,-10,-28,14
1491694976112,2,-22,-18,6,-41,-128,-36,40,-64
1491694976114,3,70,-28,4,44,127,9,11,9
1491694976114,3,-58,-29,-16,-37,-117,-23,-26,-28
1491694976115,1,71,-14,-9,12,-6,14,-34,14
1491694976115,1,-17,-3,10,20,-65,-109,-22,-41
1491694976116,2,-10,-1,10,29,127,121,53,-5
1491694976116,2,-27,46,-17,-14,-59,-19,-58,-19
1491694976162,3,-6,-38,-14,-92,-3,11,22,3
1491694976162,3,33,-38,-21,27,88,52,-20,36
1491694976163,0,36,-64,14,46,26,-49,15,-1
1491694976163,0,68,22,35,56,0,54,22,-9
1491694976164,2,-81,-75,-29,-21,-69,13,-2,6
1491694976164,2,62,-88,13,69,96,78,21,31
1491694976171,3,-35,56,64,104,65,3,-22,-49
1491694976171,3,59,41,-13,-34,95,98,38,-14
1491694976210,0,-85,92,-33,-63,-128,-48,-3,-6
1491694976210,0,17,72,-37,-87,-111,-77,-52,-22
1491694976212,1,-24,49,15,25,66,14,0,17
1491694976212,1,-16,25,17,43,16,-8,-5,25
1491694976213,3,61,-70,-13,7,57,45,-78,-27
1491694976213,3,-111,-43,-22,-29,-114,-54,66,11
1491694976214,0,110,-5,5,2,53,-3,-12,46
1491694976214,0,-7,-22,0,76,28,32,12,-24
1491694976259,1,4,-33,-2,-76,-128,-38,-48,-34
1491694976259,1,46,-10,17,54,-32,1,13,-40
1491694976260,2,30,53,-1,7,22,-71,27,-44
1491694976260,2,48,84,14,4,-51,32,75,25
1491694976261,0,127,-10,-22,-8,-13,4,-26,71
1491694976261,0,7,-53,-25,15,94,30,-46,1
1491694976262,1,17,-45,-21,40,32,-72,37,41
1491694976262,1,82,-12,-31,19,0,108,53,21
1491694976307,2,-63,0,46,-15,-22,-111,-43,-99
1491694976307,2,-102,8,16,50,127,99,-27,-24
1491694976309,3,104,-49,-17,-72,-128,-50,-2,8
1491694976309,3,9,-38,-24,-76,-23,-72,-40,6
1491694976310,1,-76,90,17,41,-58,-24,-4,-20
1491694976310,1,34,41,11,46,-40,-63,-49,-45
1491694976310,2,-80,15,-13,-8,76,105,-10,8
1491694976310,2,-114,-40,44,-36,-91,-111,-37,33
1491694976356,3,62,-68,-60,-46,-76,-14,17,-33
1491694976356,3,67,-88,17,-27,125,85,68,45
1491694976358,0,7,-31,10,43,16,-10,-14,32
1491694976358,0,-82,-2,2,29,76,-112,29,-23
1491694976359,2,118,127,3,24,3,95,-92,8
1491694976359,2,-2,15,-10,19,-13,-2,81,42
1491694976360,3,-19,-1,7,-23,-35,-84,-56,-22
1491694976360,3,27,49,-4,-1,17,18,-60,-43
1491694976405,0,-73,94,26,25,-5,7,33,-4
1491694976405,0,127,122,7,-4,-84,6,-12,24
1491694976407,1,-111,99,-12,-55,96,74,-18,-34
1491694976407,1,87,-7,0,10,-32,-115,-38,21
1491694976408,3,-73,-127,4,28,53,-53,-14,20
1491694976408,3,24,-18,-11,44,49,23,-11,-41
1491694976409,0,11,17,66,25,-49,-24,53,-11
1491694976409,0,-83,-65,-57,-60,71,22,-96,-36
1491694976454,1,76,-11,-18,-72,-70,26,69,52
1491694976454,1,-80,-28,-23,-67,-65,-111,-25,-4
1491694976455,2,101,-44,-24,-32,-82,-7,-28,-23
1491694976455,2,-35,108,3,-27,-2,27,71,4
1491694976457,3,127,70,16,69,5,8,-37,8
1491694976457,3,-120,18,32,35,104,29,15,-6
1491694976458,0,-70,-4,1,-39,-65,-20,-8,-42
1491694976458,0,15,-30,32,9,-11,-42,-24,21
1491694976502,1,2,-31,-44,10,-6,77,-16,-44
1491694976502,1,-7,-24,10,45,30,49,40,20
1491694976513,2,-69,-27,-11,6,28,-101,-64,-24
1491694976513,2,112,-68,-15,-3,-38,73,45,29
1491694976514,0,69,-17,-28,-41,-1,5,26,20
1491694976514,0,-34,-36,-9,-25,-38,-6,-18,16
1491694976514,1,-126,-59,12,12,68,-72,-45,-32
1491694976514,1,120,-40,11,40,23,32,66,31
1491694976551,2,4,-27,-29,-51,-71,-55,-3,13
1491694976551,2,36,-49,22,-6,-64,35,-24,-36
1491694976553,3,2,-31,18,16,28,-69,1,27
1491694976553,3,-30,-20,-28,-28,26,22,-54,-22
1491694976554,1,44,-17,-29,-31,-26,26,12,32
1491694976554,1,-46,6,20,35,50,-4,23,-49
1491694976555,2,16,-28,-15,-28,4,80,-16,-33
1491694976555,2,-26,16,-27,-44,-57,-126,-77,-8
1491694976600,3,-2,16,30,13,23,99,78,41
1491694976600,3,-128,-18,-15,8,-39,-56,-54,-68
1491694976601,0,127,24,-3,18,20,47,-3,19
1491694976601,0,-95,-19,-2,-5,-31,-62,1,-27
1491694976602,2,-68,31,48,62,33,3,-12,-63
1491694976602,2,-23,-26,-20,-43,-11,40,31,-31
1491694976603,3,89,20,12,-9,-50,-88,-37,47
