1491692974592,0,31,-50,-28,-39,-49,33,36,24
1491692974592,0,-32,-4,-13,-24,29,93,23,13
1491692974595,1,-56,-9,3,107,53,23,-43,-33
1491692974595,1,37,34,12,-90,-66,-17,28,49
1491692974596,2,-7,22,27,119,101,-5,-15,7
1491692974596,2,21,-14,-29,-90,-128,-74,-27,-78
1491692974640,3,18,0,17,-30,83,64,71,32
1491692974640,3,-21,-2,7,43,98,13,-58,-32
1491692974641,0,-23,-9,-33,-97,-114,-64,-40,-31
1491692974641,0,22,-5,22,117,112,-12,59,75
1491692974642,1,-3,0,-25,57,-81,-44,-18,5
1491692974642,1,-2,0,19,-45,-26,26,5,-22
1491692974643,2,11,21,39,-47,-15,-51,-23,5
1491692974643,2,-20,-6,-12,110,82,10,-12,15
1491692974689,3,-11,6,5,-128,-103,21,-47,-58
1491692974689,3,12,15,22,-15,-48,78,51,-38
1491692974690,0,-9,-20,-45,-13,33,-10,84,56
1491692974690,0,-18,-13,-18,-12,-13,20,-56,-75
1491692974691,1,18,-10,11,54,16,-48,-84,57
1491692974691,1,-21,-11,-9,60,-48,-112,-2,-44
1491692974738,2,4,16,-11,-56,-5,81,52,6
1491692974738,2,16,18,-2,-128,-85,33,78,-9
1491692974739,3,4,-7,3,98,78,0,-32,-18
1491692974739,3,-7,-14,-9,-24,-103,-112,-69,16
1491692974739,0,16,32,54,84,127,105,-48,15
1491692974739,0,-1,8,24,-3,-11,-113,-61,3
1491692974740,2,-17,-24,-32,30,-6,-96,-64,-41
1491692974740,2,-10,9,-3,51,-59,95,82,12
1491692974787,3,4,17,25,-53,-42,66,-77,10
1491692974787,3,17,21,23,-104,127,8,-10,40
1491692974788,0,-15,-15,29,86,4,-49,-62,-51
1491692974788,0,8,-7,-2,-87,-39,-96,-38,-29
1491692974788,3,8,-10,-24,45,77,60,45,22
1491692974788,3,-22,-35,-68,-22,31,-68,-119,-17
1491692974789,0,8,5,16,43,6,-29,32,-17
1491692974789,0,-25,4,23,49,-16,29,-3,25
1491692974835,1,-3,30,67,-80,-87,-14,49,-26
1491692974835,1,-32,-9,0,127,28,40,-7,1
1491692974836,2,-5,-30,-51,-21,-14,-33,100,-21
1491692974836,2,3,-7,-34,-30,75,41,-53,-4
1491692974837,0,-12,1,4,34,53,76,-107,42
1491692974837,0,2,-11,-3,52,19,29,-42,8
1491692974838,1,-16,15,55,45,-14,-28,25,-23
1491692974838,1,9,9,-11,-91,-48,-93,-15,-12
1491692974884,2,1,-8,-38,-81,-40,-20,8,2
1491692974884,2,5,-5,-9,49,46,38,15,24
1491692974885,3,-7,-1,11,42,-35,-50,-45,-35
1491692974885,3,11,17,55,-29,14,70,45,44
1491692974886,0,0,13,44,55,30,61,-34,-22
1491692974886,0,4,-17,-69,-102,-104,-52,-2,37
1491692974886,1,-1,-28,-50,31,84,-104,23,-32
1491692974886,1,8,11,-1,-9,-6,17,23,36
1491692974933,2,-6,5,20,-104,10,-58,-16,-10
1491692974933,2,-2,12,58,95,-10,80,-13,-18
1491692974935,3,-1,-4,15,6,-45,-98,-47,-10
1491692974935,3,-2,9,-21,-1,-56,41,-23,-20
1491692974936,1,-9,-20,-56,-111,-44,116,24,51
1491692974936,1,2,13,63,22,32,-86,-13,-38
1491692974936,2,-6,14,32,6,-122,-100,-31,-13
1491692974936,2,22,-9,32,-54,88,105,91,72
1491692974982,3,1,7,19,59,-49,-27,37,-20
1491692974982,3,-16,-13,-59,-39,56,-52,21,9
1491692974983,0,-19,-36,-34,-10,-128,37,27,-44
1491692974983,0,5,-3,19,-95,36,14,-12,-12
1491692974985,2,-13,-58,-19,-82,70,97,-3,1
1491692974985,2,-23,-17,-50,-53,-61,-81,63,28
1491692974985,3,6,39,-7,-50,-28,-6,-29,-69
1491692974985,3,20,110,34,-52,-79,-96,-112,25
1491692975030,0,7,-12,7,71,127,80,66,10
1491692975030,0,-17,-105,47,76,-77,4,-83,4
1491692975079,1,21,82,15,4,127,-67,4,-8
1491692975079,1,12,-74,-39,37,87,-76,-12,1
1491692975081,3,-10,57,46,49,-30,27,46,-7
1491692975081,3,22,-7,48,35,-68,120,76,9
1491692975082,0,-4,-15,-32,18,127,-84,-72,-11
1491692975082,0,25,112,94,81,30,95,-102,-25
1491692975083,1,-38,-128,-33,-69,-91,-84,-70,-48
1491692975083,1,-23,30,-40,-28,79,113,54,36
1491692975128,2,25,-77,14,-6,77,-38,-77,-1
1491692975128,2,28,106,-18,-65,72,-128,8,-2
1491692975130,0,-46,-50,-13,-63,-128,97,56,-41
1491692975130,0,23,79,30,87,114,-103,-75,-5
1491692975131,1,-13,-100,-87,-54,-62,69,-45,40
1491692975131,1,-21,-110,-98,-110,-112,-103,-25,-7
1491692975131,1,-22,-93,-20,30,125,11,11,8
1491692975131,1,-3,59,50,-61,-79,93,-14,-24
1491692975177,2,0,88,56,79,68,44,86,31
1491692975177,2,8,-12,17,87,127,-86,-48,-17
1491692975179,3,-25,-11,-59,-99,-103,-10,-48,-37
1491692975179,3,9,-6,-90,-80,45,-67,3,21
1491692975180,2,-9,-65,-38,-118,25,17,-11,55
1491692975180,2,4,-42,77,45,79,-80,101,24
1491692975181,3,22,127,124,67,-51,13,44,30
1491692975181,3,21,21,4,-79,-6,49,-81,-7
1491692975225,0,-17,-82,-43,127,-85,-123,-75,-27
1491692975225,0,-26,-33,-26,-98,-126,127,45,14
1491692975228,1,-4,11,-86,-51,-66,-71,-28,-32
1491692975228,1,-17,-64,-44,127,-12,8,-87,-6
1491692975229,2,-7,115,79,-117,-98,-128,-72,-19
1491692975229,2,5,-22,-75,96,-75,-7,-39,-16
1491692975230,3,10,-31,-38,-115,-34,96,64,4
1491692975230,3,-7,-4,10,121,-22,-21,14,-27
1491692975274,0,12,5,56,63,-60,78,-38,22
1491692975274,0,17,86,62,-75,-24,-99,-10,43
1491692975276,1,20,17,42,-69,-6,9,79,-13
1491692975276,1,-9,-79,-100,51,-6,-63,-51,26
1491692975277,3,0,54,27,-36,-36,76,20,40
1491692975277,3,-18,-39,15,-93,-104,11,113,-12
1491692975278,0,43,33,-9,-44,-29,-128,-42,3
1491692975278,0,-11,2,-90,48,43,-4,40,25
1491692975323,1,20,11,64,-62,1,-50,53,19
1491692975323,1,-7,-26,40,93,127,97,-7,-14
1491692975325,2,-49,-96,-109,-94,94,-106,-88,-44
1491692975325,2,11,-41,-3,-29,127,5,-86,22
1491692975327,0,5,30,108,-57,-104,60,97,4
1491692975327,0,-33,-82,-89,86,-128,71,2,-50
1491692975327,1,6,-39,-101,-90,-128,14,-128,1
1491692975327,1,30,-4,30,-31,-103,108,-50,77
1491692975372,2,-18,-26,-66,-66,-87,-37,-10,-60
1491692975372,2,10,13,-84,16,-128,64,-55,-15
1491692975373,3,-1,19,-128,-27,-56,-114,-22,35
1491692975373,3,0,38,-83,-11,85,122,-53,-8
1491692975374,1,-13,-33,-80,-4,37,9,-3,-32
1491692975374,1,-25,-36,19,31,37,-24,-96,-49
1491692975375,2,-9,-49,82,92,75,69,127,37
1491692975375,2,11,85,95,-93,-64,21,-57,-34
1491692975421,3,-15,15,102,127,-18,15,-78,-13
1491692975421,3,-5,-37,72,-112,43,-74,74,-42
1491692975422,0,4,10,71,52,66,59,-69,-15
1491692975422,0,-13,-20,58,60,-8,-95,43,-4
1491692975423,2,-7,-3,25,-48,-79,-113,-100,-41
1491692975423,2,0,-5,26,53,127,-8,-23,37
1491692975424,3,6,-32,27,-95,-39,-88,-8,-10
1491692975424,3,5,-61,8,118,15,-54,19,3
1491692975469,0,0,-9,10,-39,-8,99,-1,12
1491692975469,0,-4,91,8,-10,-29,37,34,17
1491692975471,1,-3,35,9,99,110,49,66,-7
1491692975471,1,-4,41,57,-128,-46,45,70,-8
1491692975472,3,-6,3,-9,-64,109,-12,-45,-7
1491692975472,3,-23,-95,-19,-63,107,-65,54,-12
1491692975473,0,24,15,68,-18,-62,-12,-6,23
1491692975473,0,-5,-3,81,-5,31,23,47,0
1491692975518,1,-3,22,93,98,-28,50,13,-6
1491692975518,1,-14,-49,-41,-20,-96,-96,-9,-15
1491692975520,2,32,55,-1,9,93,-76,57,9
1491692975520,2,13,13,40,-53,-1,-19,50,-14
1491692975521,0,-12,9,110,-2,108,-91,1,-15
1491692975521,0,-24,-41,90,-32,117,-26,29,-3
1491692975522,1,34,25,-52,20,127,-101,101,53
1491692975522,1,-1,27,-116,16,127,18,-29,13
1491692975568,2,-3,-6,-128,-5,42,68,-62,11
1491692975568,2,-18,2,-127,-48,-85,-29,49,-33
1491692975569,3,-19,-1,-117,-43,-128,-25,109,-35
1491692975569,3,2,-23,-128,63,-127,86,-39,21
1491692975570,0,-12,10,-127,98,-125,-69,37,-36
1491692975570,0,32,-7,-128,-28,-113,127,-128,76
1491692975571,1,-8,-21,-128,-9,-125,-93,-48,29
1491692975571,1,-16,36,-126,-115,-120,22,17,-47
1491692975615,2,-3,19,-91,-57,-127,-47,30,73
1491692975615,2,-4,4,-90,87,-128,-63,70,4
1491692975617,3,1,-31,-122,-64,-95,90,57,-5
1491692975617,3,17,29,-18,101,22,-49,-53,-41
1491692975618,1,-13,19,9,22,127,2,69,15
1491692975618,1,-3,27,-14,-1,127,75,33,24
1491692975619,2,-27,-12,74,56,97,92,0,-121
1491692975619,2,80,62,39,-60,10,118,-98,93
1491692975664,3,-34,5,-23,-48,-29,-28,81,-70
1491692975664,3,17,-2,-18,-40,-105,79,60,80
1491692975666,0,12,29,55,82,-123,2,113,85
1491692975666,0,12,18,10,-128,-82,53,64,61
1491692975667,2,-30,-10,-2,-128,-80,-4,5,-41
1491692975667,2,0,-3,-72,-21,-47,-110,-70,5
1491692975668,3,-12,-31,3,-85,-30,-33,-49,-6
1491692975668,3,-16,-27,-32,-68,-30,-88,80,56
1491692975713,0,16,0,-37,127,-24,-13,18,14
1491692975713,0,-6,-3,32,-55,-41,87,76,-26
1491692975715,1,19,9,17,41,-95,-45,67,37
1491692975715,1,17,27,66,41,-120,-7,-115,42
1491692975716,3,-5,3,23,101,101,94,-76,-7
1491692975716,3,-42,7,34,45,-18,-35,-28,-34
1491692975717,0,-5,-22,-58,-55,-83,67,20,8
1491692975717,0,11,-45,-88,-53,38,-127,-28,-10
1491692975762,1,19,10,30,-128,-62,52,22,-3
1491692975762,1,33,21,32,57,32,81,41,37
1491692975763,2,-18,-45,-30,3,110,-85,-95,-107
1491692975763,2,29,42,16,1,100,-60,-46,50
1491692975764,0,-23,32,47,0,35,57,33,57
1491692975764,0,-2,-12,51,0,107,-72,-56,-20
1491692975765,1,-15,-17,-50,8,-4,57,42,-11
1491692975765,1,7,3,29,59,69,44,45,14
1491692975810,2,-17,-11,-40,-112,-72,-7,-32,-48
1491692975810,2,-52,-45,-84,68,95,-87,-33,-42
1491692975813,3,5,11,61,-15,-117,-19,-65,-67
1491692975813,3,31,-10,-30,-92,34,78,61,6
1491692975814,1,-18,-25,-24,35,127,-37,-128,4
1491692975814,1,9,31,28,-38,-107,-13,65,-21
1491692975815,2,12,-4,35,-74,-6,-88,-107,5
1491692975815,2,-9,21,2,-86,10,108,34,6
1491692975859,3,-21,18,90,80,62,1,-40,14
1491692975859,3,16,-5,-109,-108,-2,-43,-77,-17
1491692975957,0,3,-31,-41,127,111,-108,-95,57
1491692975957,0,-3,-22,13,-87,-81,16,67,-77
1491692975958,2,-12,3,26,116,102,-99,-33,5
1491692975958,2,-23,-22,-19,-18,-69,4,-61,-39
1491692975960,3,-2,1,-24,-104,-33,91,-40,57
1491692975960,3,-16,-4,38,88,-43,-78,84,55
1491692975960,0,8,40,-14,-128,-1,127,98,-10
1491692975960,0,11,-4,39,114,-14,-102,-71,52
1491692976005,1,-17,-16,-83,-73,-95,-106,-2,-59
1491692976005,1,-16,-25,-19,127,18,18,-4,11
1491692976007,3,4,-12,20,-55,29,-70,8,22
1491692976007,3,-27,-36,-15,15,88,23,-4,0
1491692976008,0,-8,-18,101,76,-113,89,55,-1
1491692976008,0,8,25,-27,-110,108,-77,-38,-47
1491692976009,1,-18,-116,-90,5,97,67,-47,-11
1491692976009,1,-16,-65,-52,-92,-44,4,-2,32
1491692976054,2,-5,-20,-37,19,127,-4,-29,-40
1491692976054,2,12,19,92,69,50,60,38,7
1491692976056,3,1,29,59,-111,44,-12,61,-3
1491692976056,3,-13,-21,-44,124,-49,-69,-112,-31
1491692976057,1,-5,-22,-6,-38,101,-73,84,54
1491692976057,1,0,38,77,23,-80,-13,8,-11
1491692976058,2,-1,82,10,-59,-3,-128,-74,9
1491692976058,2,-4,20,-36,57,63,101,-92,-1
1491692976103,3,19,-6,10,66,-63,127,115,-24
1491692976103,3,11,-51,-51,-46,-25,17,26,20
1491692976106,0,-2,-20,-19,103,-58,-91,98,-14
1491692976106,0,-6,51,68,-30,-128,42,-10,8
1491692976106,2,-12,-5,-11,-29,55,-32,-10,-21
1491692976106,2,-5,-4,-8,2,-82,3,-55,40
1491692976107,3,20,21,74,21,75,115,24,-16
1491692976107,3,13,32,43,-119,-63,-85,-118,-51
1491692976152,0,6,6,-24,-33,127,-75,26,42
1491692976152,0,-15,-29,-43,108,91,8,116,-54
1491692976153,1,-6,-20,-30,-33,-33,-19,-32,6
1491692976153,1,0,45,18,-52,-99,32,2,5
1491692976200,3,-29,-12,-68,-5,11,-7,21,1
1491692976200,3,21,-48,-71,-47,97,76,3,-31
1491692976202,0,14,-21,-11,-34,60,86,13,16
1491692976202,0,6,7,24,-21,-17,-4,-59,8
1491692976203,1,-16,13,93,102,-76,-14,-24,-19
1491692976203,1,-16,21,2,-53,93,-128,20,5
1491692976204,2,-13,3,-12,78,35,56,-32,19
1491692976204,2,5,-35,-77,-128,35,38,127,16
1491692976249,0,5,22,48,-45,-25,45,20,-14
1491692976249,0,-11,-1,7,38,110,-32,57,-10
1491692976251,1,-20,7,-27,-54,84,-38,1,-9
1491692976251,1,21,-17,-2,17,127,-18,-2,9
1491692976252,1,34,-8,-7,2,-114,-2,-6,-2
1491692976252,1,-40,-13,-9,-58,-128,-6,-3,-25
1491692976253,2,2,-14,82,33,-128,-37,-9,0
1491692976253,2,1,8,-29,32,-76,18,-58,-15
1491692976298,3,7,-16,-20,-95,-112,35,58,8
1491692976298,3,-6,23,56,127,-115,74,72,-4
1491692976347,0,2,-16,-57,-113,-67,-31,-51,5
1491692976347,0,-3,-16,-37,-21,-53,-77,-22,-1
1491692976348,1,-14,-12,29,57,-53,-80,39,17
1491692976348,1,-17,-4,-13,-44,-54,-91,-47,-28
1491692976349,2,-14,7,27,12,-7,79,-39,15
1491692976349,2,44,5,-3,35,-9,26,29,4
1491692976350,3,0,-24,-61,-68,-27,-7,-52,-16
1491692976350,3,-7,11,29,-39,-6,126,5,7
1491692976444,0,-14,-2,-6,119,-7,-117,-60,10
1491692976444,0,-3,2,14,-33,-10,-75,-51,11
1491692976446,2,-18,-22,-64,-59,-4,-17,-52,-35
1491692976446,2,13,14,31,-5,-6,80,27,-2
1491692976447,3,2,24,50,-21,1,-10,-58,-1
1491692976447,3,-22,-2,-18,4,-6,-14,27,-17
1491692976447,3,26,8,19,34,54,65,-86,-3
1491692976447,3,16,3,-15,38,79,95,-95,15
1491692976493,0,-24,5,5,-70,-73,-29,-10,-16
1491692976493,0,-1,23,89,77,28,-37,5,16
1491692976494,1,-27,-26,-43,-45,-128,21,127,-37
1491692976494,1,-7,0,-27,-10,-14,-38,48,20
1491692976496,0,-20,-6,-11,-83,-104,-101,89,-17
1491692976496,0,12,-6,-11,3,-14,76,-50,-10
1491692976497,1,13,77,68,74,21,-8,-34,19
1491692976497,1,1,9,12,-91,-78,-59,11,-15
1491692976542,2,-12,-64,-36,97,-25,-59,-14,-5
1491692976542,2,-21,-9,-40,-63,28,-104,71,4
1491692976543,3,15,69,51,20,93,-82,-48,-1
1491692976543,3,-7,37,9,0,41,3,95,0
1491692976544,2,20,-38,-13,-48,80,-69,-13,5
1491692976544,2,-17,-2,14,39,-8,9,-9,-19
1491692976545,3,-8,-4,-2,-25,-60,-2,-47,7
1491692976545,3,-4,23,-11,-50,-128,1,-5,-9
1491692976590,0,-9,-1,14,74,-93,2,3,-5
1491692976590,0,-1,-84,6,-96,21,-1,-24,-8
1491692976591,1,9,93,15,103,-14,-11,30,6
1491692976591,1,4,16,84,50,-71,-15,-33,-24
1491692976592,3,-8,-94,-32,-58,25,26,38,22
1491692976592,3,-11,-13,-12,-55,-54,-82,22,-4
1491692976593,0,10,38,68,87,-45,52,-61,-15
1491692976593,0,-16,21,56,-24,47,-71,-31,24
1491692976639,1,-3,-32,-89,-39,49,-24,-11,16
1491692976639,1,10,-7,-26,-54,-28,33,54,-37
1491692976688,2,35,15,44,8,-46,19,-15,16
1491692976688,2,10,20,-30,-24,-76,-11,-30,-12
1491692976689,3,0,-1,100,118,19,8,-111,-17
1491692976689,3,-29,-29,-26,-60,-35,-128,-113,-6
1491692976690,0,-21,-8,-77,24,-13,95,122,4
1491692976690,0,13,9,-29,-57,7,54,-82,33
1491692976691,1,18,-7,30,-78,-14,-45,2,7
1491692976691,1,0,-9,10,0,2,115,31,33
1491692976737,2,-25,-12,14,-10,-108,-35,-92,-41
1491692976737,2,-15,10,-12,20,127,-67,32,22
1491692976738,0,7,1,-20,10,3,-9,23,33
1491692976738,0,-4,33,59,117,-73,96,62,-16
1491692976740,1,19,-1,44,-100,11,-94,-42,28
1491692976740,1,-8,-36,-69,127,7,6,22,-2
1491692976740,1,-1,-1,-40,-25,-72,10,9,-29
1491692976740,1,11,5,29,23,-128,-75,-15,70
1491692976785,2,-15,-6,63,14,-28,51,-69,-26
1491692976785,2,6,6,-43,-18,-128,5,42,-39
1491692976787,3,-16,-24,-43,-2,120,113,68,1
1491692976787,3,-5,-16,-86,-117,-9,-50,63,15
1491692976788,2,-20,-7,14,68,127,20,-58,44
1491692976788,2,38,2,-32,-23,25,47,19,-9
1491692976834,3,-3,-28,-76,-39,76,-16,-88,30
1491692976834,3,0,24,44,-74,-54,20,6,15
1491692976836,0,0,18,44,-5,-26,-4,25,-25
1491692976836,0,-26,-8,16,33,-128,-24,-99,-42
1491692976837,1,-5,12,73,12,-13,-79,94,12
1491692976837,1,28,18,56,-99,-61,13,-25,28
1491692976837,3,18,-35,-55,15,127,23,-45,-9
1491692976837,3,-23,9,-11,114,-67,-56,-83,-9
1491692976883,0,9,35,73,-98,-128,-75,-3,-22
1491692976883,0,24,15,17,-36,-23,93,-79,58
1491692976885,1,-23,-20,-12,117,-70,-45,-10,-36
1491692976885,1,-27,-20,-2,-66,-7,57,95,-50
1491692976886,0,-21,-30,-44,-79,102,26,-71,12
1491692976886,0,-21,-22,15,127,-63,87,54,-83
1491692976890,1,41,15,15,-111,79,-14,50,48
1491692976890,1,-9,13,-8,-36,10,-44,68,11
1491692976932,2,-4,17,69,-12,-96,-74,-52,-42
1491692976932,2,-14,12,8,-102,127,94,-96,8
1491692976934,3,-43,-32,-40,127,83,-39,3,-52
1491692976934,3,-26,-53,-66,-68,85,-71,97,19
1491692976980,1,-9,10,-14,-96,-20,-32,27,-13
1491692976980,1,7,1,25,-13,14,-35,-119,-21
1491692976981,2,-9,2,54,60,-13,72,-109,-15
1491692976981,2,-7,14,20,-19,-95,-87,112,25
1491692976982,3,-11,-17,-101,42,91,-23,-89,-18
1491692976982,3,-14,-38,-68,-46,87,20,-97,-13
1491692976983,0,-4,-18,67,74,4,49,73,12
1491692976983,0,-24,-14,-32,-75,41,65,-24,-10
1491692977029,1,-22,23,6,-128,-93,38,30,-20
1491692977029,1,30,-8,7,101,44,55,-46,-18
1491692977030,2,43,6,-62,-1,56,84,88,15
1491692977030,2,3,-2,48,58,-30,102,-93,10
1491692977031,2,18,12,-29,-128,36,4,-128,63
1491692977031,2,8,46,98,109,-128,39,-2,-13
1491692977032,3,8,28,75,-4,-128,6,-32,2
1491692977032,3,11,15,85,-70,-54,-77,100,14
1491692977127,0,-40,-19,-14,32,-65,-55,-10,-45
1491692977127,0,24,5,12,82,87,101,-29,35
1491692977134,1,11,-13,-49,-22,54,78,-28,-5
1491692977134,1,-21,8,22,-22,86,-15,-68,-45
1491692977135,3,21,13,47,26,43,-68,65,-35
1491692977135,3,22,-16,-68,103,43,127,83,67
1491692977136,0,-15,-35,-77,-104,41,-30,22,4
1491692977136,0,-2,1,34,1,76,-90,-12,9
1491692977176,1,-1,38,34,-68,-31,-66,-73,-3
1491692977176,1,-17,18,60,57,30,3,-47,-55
1491692977177,2,4,-20,-24,45,31,-67,26,42
1491692977177,2,-2,14,-18,-59,18,-45,86,-8
1491692977179,0,-7,18,52,109,19,31,-63,-29
1491692977179,0,-20,-45,-80,-128,-3,-2,127,0
1491692977180,1,-6,-31,-42,83,104,51,-84,42
1491692977180,1,19,20,40,-10,95,97,24,-15
1491692977224,2,-3,8,34,26,127,-44,-46,-40
1491692977224,2,-1,10,55,34,39,-46,-10,12
1491692977226,3,6,6,-29,-92,-30,14,69,5
1491692977226,3,-15,-28,-41,106,100,-66,-26,-6
1491692977227,2,21,24,15,-62,-99,-28,84,25
1491692977227,2,-11,-18,-13,-34,-11,-38,-87,-45
1491692977228,3,-7,-1,50,12,-87,9,78,88
1491692977228,3,14,12,-44,-89,14,38,-73,-18
1491692977273,0,-25,-18,-38,-12,-12,-49,-41,-31
1491692977273,0,-7,-13,-37,51,-33,94,-6,12
1491692977275,1,8,-15,0,50,-42,-12,26,-28
1491692977275,1,8,1,68,-21,-91,52,63,10
1491692977276,3,-24,-54,-6,127,127,-48,-15,-26
1491692977276,3,-23,-69,-56,-127,-103,-51,-79,18
1491692977276,0,-6,-6,54,1,-15,-31,-56,-81
1491692977276,0,1,-18,-17,-128,-17,20,102,82
1491692977322,1,17,108,31,58,-128,45,-59,-17
1491692977322,1,8,-13,48,-4,-88,-89,12,-8
1491692977324,2,-15,-93,-31,19,-5,121,50,21
1491692977324,2,-8,-36,-56,77,127,11,-128,-41
1491692977325,0,-8,68,21,53,-55,24,50,-14
1491692977325,0,-1,-96,68,-73,-48,82,-19,1
1491692977326,1,-10,-67,-105,-76,16,-46,-33,14
1491692977326,1,-1,-9,-21,39,64,70,-71,-57
1491692977370,2,16,39,87,-43,-123,-1,98,74
1491692977370,2,16,116,22,-1,127,97,-36,-5
1491692977371,3,-26,-50,-5,-85,-25,45,31,-32
1491692977371,3,-27,-128,-62,-85,-89,31,-36,-64
1491692977372,0,-17,-43,-60,-13,127,-48,42,68
1491692977372,0,4,-72,23,118,-78,21,-13,-9
1491692977373,1,18,96,88,74,60,43,-40,-22
1491692977373,1,17,19,-10,-68,105,53,-76,-1
1491692977419,2,-9,-61,-26,-22,-17,-80,44,-45
1491692977419,2,0,-26,-14,-55,-56,-74,27,49
1491692977420,3,-1,-29,-7,-23,-48,26,43,-1
1491692977420,3,35,111,127,127,66,45,76,45
1491692977421,1,-31,-128,-97,-96,64,0,-37,-28
1491692977421,1,16,102,15,66,-12,-2,20,-1
1491692977421,2,19,51,39,-78,2,61,29,50
1491692977421,2,1,79,100,-89,-87,-119,-23,-12
1491692977517,3,-5,-28,7,95,-44,80,80,-45
1491692977517,3,1,-72,2,-85,-20,-128,-50,2
1491692977520,0,-5,-37,-32,21,45,64,-58,-61
1491692977520,0,2,61,37,28,-74,42,72,46
1491692977521,2,-10,-31,-49,127,100,108,-128,-9
1491692977521,2,13,-6,-39,-125,127,43,-18,-24
1491692977522,3,19,30,36,-17,-71,-7,1,53
1491692977522,3,-19,-27,-25,65,-52,-22,-17,-18
1491692977565,0,-22,-27,31,-50,-109,-56,-23,-17
1491692977565,0,12,30,54,32,3,-118,56,-16
1491692977566,1,5,20,89,102,-13,-3,34,-1
1491692977566,1,19,24,-10,-105,-22,32,0,56
1491692977567,0,5,52,-67,-128,127,-52,108,44
1491692977567,0,-19,-49,-40,-12,46,-5,21,-26
1491692977569,1,15,65,24,52,-110,-110,-60,7
1491692977569,1,22,41,57,-128,-128,106,38,-29
1491692977614,2,-7,-101,28,-25,127,16,-123,36
1491692977614,2,-58,-51,-37,67,82,-97,-27,-87
1491692977616,3,36,0,-27,-128,15,127,-10,74
1491692977616,3,54,108,28,-26,-30,15,33,27
1491692977617,1,-107,-121,-51,127,33,-111,-128,-77
1491692977617,1,3,108,21,0,127,-26,55,-67
1491692977618,2,59,-19,112,66,-4,66,9,47
1491692977618,2,-18,-72,-8,-96,-128,-10,-51,8
1491692977663,3,12,-64,-95,0,-29,103,56,13
1491692977663,3,-64,-128,-114,22,109,4,-91,-25
1491692977666,0,-23,5,-26,31,0,-8,60,-59
1491692977666,0,45,117,45,-42,-77,4,-2,-53
1491692977667,2,-17,-7,24,54,9,22,-128,-32
1491692977667,2,39,84,18,119,98,-71,45,31
1491692977669,3,20,61,-11,-128,88,-53,70,20
1491692977669,3,7,-14,1,127,-102,-22,-5,26
1491692977712,0,-29,-63,-89,-91,80,-88,28,-66
1491692977712,0,1,-44,-10,13,-12,92,-83,73
1491692977712,1,-18,107,36,-5,-77,81,47,-34
1491692977712,1,1,8,98,36,-61,-128,-122,-40
1491692977713,2,-24,19,-48,-69,-128,35,-1,3
1491692977713,2,26,-6,-65,-104,78,62,-27,22
1491692977714,3,12,-29,7,102,127,-19,42,10
1491692977714,3,1,53,53,-43,-95,110,62,23
1491692977760,0,14,38,127,127,47,-86,-55,-3
1491692977760,0,-55,-22,-92,-110,-99,-91,-70,-38
1491692977761,1,-6,-39,-91,-61,-23,-72,-81,-40
1491692977761,1,1,23,-27,77,-52,28,72,55
1491692977762,3,-28,56,29,-115,-128,61,-3,-20
1491692977762,3,20,38,-59,-111,89,-96,-61,-8
1491692977763,0,20,-11,-42,65,61,75,127,56
1491692977763,0,38,-50,-17,-52,7,103,127,76
1491692977809,1,-42,52,-27,-56,-48,60,-128,-73
1491692977809,1,14,20,4,-128,-16,-57,-111,-84
1491692977810,2,-26,26,78,55,63,58,44,111
1491692977810,2,-18,58,36,-17,29,-38,-16,-78
1491692977810,0,-13,-1,-24,-45,57,47,27,2
1491692977810,0,2,42,28,37,16,-74,-17,13
1491692977858,1,-33,67,82,21,-86,-122,47,-13
1491692977858,1,-88,-16,50,-7,-1,127,116,-6
1491692977859,2,97,89,-5,-119,45,-83,-95,-13
1491692977859,2,28,62,107,118,-14,127,75,-5
1491692977859,3,34,2,-45,-44,117,-80,-90,24
1491692977859,3,-4,-67,-62,-15,20,-37,-38,-17
1491692977860,1,11,-23,17,-71,-23,-16,-118,-49
1491692977860,1,-25,-93,-72,127,57,98,96,80
1491692977907,2,-21,-83,-76,-79,-34,-52,-22,-16
1491692977907,2,65,-12,30,60,61,127,-31,17
1491692977908,3,26,-1,84,58,-128,-47,85,13
1491692977908,3,-16,38,8,-22,55,40,16,14
1491692977909,0,-46,21,-8,-64,-97,116,-94,-39
1491692977909,0,-5,-41,-28,45,-3,-125,77,-33
1491692977910,2,31,17,-14,-30,-14,-7,86,29
1491692977910,2,-33,-12,-90,-128,18,52,12,-45
1491692977956,3,-21,5,103,79,69,87,-63,30
1491692977956,3,1,-3,16,-8,-26,-78,20,5
1491692977957,0,-41,-43,-53,100,-35,-91,-35,-61
1491692977957,0,17,-10,-77,-122,41,-8,53,16
1491692977958,3,-9,-39,-101,29,104,12,71,-37
1491692977958,3,-4,-3,-33,-79,45,-56,-97,7
1491692977960,0,6,-7,-29,-17,-28,47,102,-18
1491692977960,0,24,13,-29,-98,-91,6,10,23
1491692978004,1,2,34,114,93,-122,-24,5,20
1491692978004,1,-36,14,42,-113,-123,-63,-128,-69
1491692978006,2,-51,-24,-66,48,5,-13,80,-11
1491692978006,2,80,-14,5,1,104,79,9,47
1491692978008,0,-24,-19,-38,-128,122,-27,14,9
1491692978008,0,-46,-43,-74,127,80,-17,-3,-95
1491692978009,1,26,-1,-26,-106,-128,-12,-10,-5
1491692978009,1,7,-20,-26,-25,5,22,-75,2
1491692978053,2,-3,62,64,97,-78,-8,17,-13
1491692978053,2,-9,-2,18,18,-128,-46,15,18
1491692978054,3,-3,-3,34,-25,88,43,-15,-13
1491692978054,3,18,9,-31,-71,-13,-38,25,33
1491692978055,0,-7,9,31,-11,-42,-36,-58,-34
1491692978055,0,-32,-22,-45,-81,-14,-90,12,-48
1491692978056,1,-16,-18,2,104,-49,100,-31,72
1491692978056,1,7,-3,21,-116,-5,-61,13,5
1491692978102,2,46,6,13,117,44,-20,-78,13
1491692978102,2,-36,-5,-11,-30,-61,-15,-30,16
1491692978103,3,10,-19,-94,-7,105,-116,97,-56
1491692978103,3,19,-1,15,63,45,127,-43,14
1491692978104,1,-25,48,25,-53,-51,-99,-20,-42
1491692978104,1,-25,6,-17,22,10,85,86,14
1491692978105,2,17,24,72,12,-52,-16,-73,-2
1491692978105,2,-15,3,10,-94,21,8,-48,-17
1491692978153,3,-20,-38,-45,82,101,-97,31,32
1491692978153,3,-24,-11,-7,-33,121,-36,12,0
1491692978154,0,1,-7,53,24,60,33,-25,-14
1491692978154,0,-31,8,-10,61,69,65,29,12
1491692978155,2,-56,-30,-52,-54,124,43,55,18
1491692978155,2,103,-5,-8,10,9,-46,-91,12
1491692978157,3,-34,21,56,0,-128,-70,-56,-44
1491692978157,3,12,19,33,-121,-88,121,3,-29
1491692978199,0,-53,-24,-50,75,-16,-56,-8,45
1491692978199,0,-33,-24,-57,28,22,54,127,14
1491692978200,1,-3,-9,-6,-89,18,38,-31,20
1491692978200,1,-10,12,8,-39,-104,57,-14,-27
1491692978201,3,11,7,55,-7,21,84,32,3
1491692978201,3,-11,-3,10,74,77,15,-6,4
1491692978203,0,5,-21,-60,83,-14,-31,-74,-77
1491692978203,0,-25,-22,-60,-128,3,81,73,36
1491692978248,1,12,8,17,40,-88,28,-24,-42
1491692978248,1,-9,20,22,114,115,51,-45,86
1491692978249,2,50,-4,9,10,52,5,43,-65
1491692978249,2,-36,-4,-32,-1,-92,-1,-128,-21
1491692978251,0,35,10,21,-87,67,27,31,75
1491692978251,0,-26,1,56,115,-30,23,6,-65
1491692978252,1,31,4,-56,-71,107,-27,2,-35
1491692978252,1,-8,-19,-14,119,65,41,106,62
1491692978297,2,-8,1,-4,-90,-119,-43,-124,30
1491692978297,2,20,-1,-15,-50,-71,41,120,2
1491692978298,3,-12,17,34,3,-5,34,-121,10
1491692978298,3,9,-19,-64,13,-111,2,81,-89
1491692978299,1,-9,-1,8,-27,39,-84,44,41
1491692978299,1,25,-19,-87,21,127,37,-55,-7
1491692978300,2,-54,-18,-33,-47,15,8,48,-6
1491692978300,2,8,10,61,50,-73,47,0,22
1491692978346,3,46,11,30,-21,-124,-13,-34,13
1491692978346,3,-22,18,27,-17,19,-21,-38,-4
1491692978348,0,26,-14,-67,68,106,-35,21,-24
1491692978348,0,-87,-14,-23,-44,12,1,14,-10
1491692978351,2,-50,10,31,73,27,-25,-94,-33
1491692978351,2,-4,-7,30,-45,127,23,100,-45
1491692978353,3,-18,-5,-117,-25,-38,-46,1,107
1491692978353,3,-9,-4,38,-24,-37,-51,6,-40
1491692978395,0,-26,19,18,10,6,-13,24,6
1491692978395,0,-22,-2,35,-5,8,-6,-61,7
1491692978399,1,-4,-20,-13,18,26,-51,15,-27
1491692978399,1,-7,-9,-28,-106,-77,-31,-27,-9
1491692978401,2,-8,2,34,62,45,34,40,31
1491692978401,2,-3,-6,-21,42,86,30,-78,-4
1491692978403,3,-39,-14,-9,33,127,3,-7,-38
1491692978403,3,9,-1,25,102,127,42,-20,-1
1491692978443,0,38,22,-34,-128,-128,14,22,23
1491692978443,0,20,-2,17,-45,30,-83,-41,-10
1491692978444,1,-19,0,27,91,-27,25,-18,38
1491692978444,1,-21,-16,-21,25,103,11,87,-2
1491692978445,3,-27,10,-4,-38,-57,48,74,22
1491692978445,3,2,8,53,-107,-113,-42,61,23
1491692978446,0,-10,-14,2,106,-111,27,-31,-23
1491692978446,0,26,-4,-45,-79,-86,-91,-23,29
1491692978540,1,-13,6,12,90,-62,-16,-10,-29
1491692978540,1,-25,-8,-12,-101,-90,-63,-39,-24
1491692978541,2,-18,23,106,106,-45,17,59,9
1491692978541,2,47,5,16,-87,-69,-40,-14,44
1491692978542,0,14,-14,-127,-128,-35,-21,-78,-59
1491692978542,0,25,16,127,127,-28,-2,-97,-21
1491692978543,1,2,-46,-51,-109,-5,35,35,17
1491692978543,1,-65,-40,16,127,-107,10,-3,-94
1491692978589,2,16,-37,-115,-128,-101,-28,92,39
1491692978589,2,-21,28,-22,-39,-3,-30,-4,-95
1491692978590,3,73,20,39,64,-19,-58,-12,85
1491692978590,3,-59,15,-10,-106,-85,-44,-33,-41
1491692978591,2,-89,24,125,44,-27,11,-65,-49
1491692978591,2,-59,-8,-44,-4,91,-8,50,14
1491692978592,3,72,1,-75,-62,83,78,99,75
1491692978592,3,73,-78,-128,-94,6,-5,-13,78
1491692978638,0,45,48,44,127,-65,8,86,11
1491692978638,0,-103,7,38,-118,-79,-56,-117,3
1491692978639,1,-29,67,90,-16,-22,61,100,35
1491692978639,1,22,-22,-43,28,39,-60,-106,-93
1491692978640,3,-12,55,101,-4,71,-7,-51,-58
1491692978640,3,8,42,48,42,-24,-38,-24,59
1491692978641,0,-2,-64,-75,-54,17,67,-65,-15
1491692978641,0,-21,-47,-92,-7,34,-85,64,-14
1491692978687,1,-46,-48,-74,-128,-3,63,-46,-85
1491692978687,1,-2,60,69,21,-32,-22,95,-19
1491692978736,2,120,13,-20,107,50,-128,-93,-10
1491692978736,2,-44,-50,14,-6,37,127,127,17
1491692978784,0,-46,-4,-18,50,39,37,51,-13
1491692978784,0,-74,-65,-53,-56,-8,-41,-128,-109
1491692978786,1,9,61,40,9,-15,-126,105,105
1491692978786,1,51,-8,-55,12,27,8,24,40
1491692978787,2,-31,10,-16,-69,-10,91,8,-32
1491692978787,2,106,-27,40,127,-24,91,-47,2
1491692978788,3,-17,-33,-105,-99,16,-109,-64,-51
1491692978788,3,-10,3,-7,-53,54,127,1,73
1491692978833,1,-43,-47,-92,-123,-53,81,-39,2
1491692978833,1,13,-8,13,127,-103,15,40,-49
1491692978834,1,31,-73,-29,127,112,-128,-27,-25
1491692978834,1,-75,-48,-128,-128,-33,-9,-3,-95
1491692978835,2,111,36,-77,-7,94,82,-77,48
1491692978835,2,-4,-9,-87,127,-49,-77,-42,-63
1491692978835,3,-48,66,127,83,-128,82,2,-17
1491692978835,3,22,58,8,31,-51,-84,-69,21
1491692978882,0,18,-53,-87,-78,98,65,127,84
1491692978882,0,-64,-81,-128,-81,-80,76,-5,11
1491692978884,1,20,-12,54,103,118,-127,-70,-29
1491692978884,1,-20,52,29,-119,-68,11,-15,20
1491692978885,3,-22,10,-5,50,-114,58,-32,-14
1491692978885,3,-18,25,61,-57,-26,30,53,-21
1491692978885,0,14,12,-18,60,-8,-94,-128,-61
1491692978885,0,-85,-49,-79,60,5,-77,83,-4
1491692978931,1,47,0,11,-99,-21,-84,-55,38
1491692978931,1,-17,8,-80,109,56,60,42,11
1491692978933,2,-26,-12,-12,-128,18,-66,-106,6
1491692978933,2,2,80,98,73,-56,79,-28,26
1491692978934,0,27,33,117,80,-128,-44,11,39
1491692978934,0,-70,-4,-17,-80,70,-82,-78,-51
1491692978935,1,-58,-31,-12,-84,-40,124,56,1
1491692978935,1,68,61,9,-128,35,40,65,80
1491692978979,2,-10,-33,27,117,90,63,14,-4
1491692978979,2,3,96,127,-110,-77,127,21,-28
1491692978981,3,19,-6,-93,-60,-91,-57,-59,-66
1491692978981,3,-106,-92,-38,56,113,-22,86,42
1491692978982,1,-29,-109,-128,8,100,-60,3,-34
1491692978982,1,-10,47,-30,-104,-57,-44,-51,-51
1491692978992,2,26,50,93,-85,-128,82,42,61
1491692978992,2,69,52,-9,-110,95,67,-50,5
1491692979028,3,-48,-103,-28,110,63,40,-4,-6
1491692979028,3,-44,63,111,56,-37,77,-90,11
1491692979030,0,-16,42,93,-82,-27,67,52,34
1491692979030,0,26,-58,-125,-122,28,-47,12,-20
1491692979031,2,-1,25,43,29,-82,-128,-72,-4
1491692979031,2,13,12,63,-28,36,77,37,24
1491692979032,3,-30,97,127,-56,-128,101,77,63
1491692979032,3,-65,-128,-94,101,127,-81,-52,-35
1491692979077,0,-58,0,-53,32,94,-18,-123,-60
1491692979077,0,66,-24,80,-15,-69,10,-56,59
1491692979079,1,-6,-14,-30,-37,34,-3,94,-21
1491692979079,1,6,127,99,-83,0,112,95,57
1491692979080,3,120,71,95,-93,-103,127,98,50
1491692979080,3,-63,-43,-76,105,62,-104,7,4
1491692979081,0,49,-50,18,-105,61,15,-15,-59
1491692979081,0,78,-7,82,127,-47,-61,26,39
1491692979126,1,-29,-22,-43,-77,-32,-32,-117,-77
1491692979126,1,57,-2,-44,104,-92,-73,-43,0
1491692979175,2,-55,68,-61,-75,18,92,9,11
1491692979175,2,0,29,-87,-28,-21,-15,-20,-56
1491692979177,3,-8,21,76,8,-102,1,-21,42
1491692979177,3,42,-73,69,-70,-128,12,73,19
1491692979178,0,-28,0,-95,3,-95,8,-94,-14
1491692979178,0,-59,-40,-101,-22,-128,18,125,72
1491692979179,1,87,93,98,-22,-52,-5,-101,-18
1491692979179,1,5,-31,-58,87,-94,94,-128,-20
1491692979223,2,-37,-50,-71,-76,91,-79,41,35
1491692979223,2,-12,11,-94,-97,54,103,-52,-6
1491692979225,0,-1,23,9,67,-67,-22,46,8
1491692979225,0,10,-76,-81,-38,-45,-70,-4,-8
1491692979226,1,-94,-86,-105,59,127,-45,-44,-11
1491692979226,1,25,44,12,-9,64,81,40,-13
1491692979228,1,-2,-65,-88,-36,-125,-55,25,24
1491692979228,1,6,98,28,50,-103,4,-27,-21
1491692979272,2,-17,-120,89,12,-128,113,21,-9
1491692979272,2,9,18,11,49,-17,-15,-60,23
1491692979274,3,35,-50,-67,2,118,118,57,26
1491692979274,3,15,66,99,57,127,117,36,11
1491692979275,2,-1,6,-86,-55,71,-59,4,50
1491692979275,2,6,53,21,-104,80,-24,-26,-61
1491692979276,3,15,56,37,115,64,61,-41,11
1491692979276,3,9,43,39,-16,23,-71,52,-24
1491692979321,0,29,29,56,127,41,-26,35,-37
1491692979321,0,-1,66,53,-68,36,94,86,93
1491692979322,1,12,21,-62,107,6,-51,-128,-49
1491692979322,1,-19,-61,-84,-128,7,127,104,7
1491692979323,3,2,36,-56,39,-54,-34,85,20
1491692979323,3,-3,-15,-128,-25,-14,-5,-65,-23
1491692979324,0,-2,32,23,-128,-1,43,70,-23
1491692979324,0,-34,-118,64,-65,-9,-111,-90,-48
1491692979369,1,9,125,126,1,24,32,24,44
1491692979369,1,21,36,102,-4,19,-40,-6,17
1491692979467,2,-4,-33,-75,-41,-35,20,10,-5
1491692979467,2,-2,-1,75,-93,-11,83,16,18
1491692979469,0,-5,15,127,127,127,127,-32,69
1491692979469,0,15,-111,-128,-31,-31,-59,41,51
1491692979470,1,-5,-67,-30,-100,-55,-66,20,20
1491692979470,1,-4,7,75,-95,61,127,-22,-55
1491692979471,2,-15,27,-40,53,-35,-66,-54,5
1491692979471,2,-39,47,-8,-38,-31,-3,82,3
1491692979515,3,-14,-74,16,40,22,-61,-117,-4
1491692979515,3,31,-20,57,-90,57,95,67,31
1491692979516,1,9,88,12,-20,-46,63,80,96
1491692979516,1,-30,-28,-41,127,34,64,-31,-6
1491692979517,1,-59,-41,-3,-25,127,34,64,4
1491692979517,1,35,62,41,13,-10,-109,-69,-39
1491692979518,2,-9,47,-63,127,45,-45,73,39
1491692979518,2,-1,27,60,127,-44,-33,57,25
1491692979564,3,-19,-30,28,-15,-128,-99,-24,4
1491692979564,3,80,-21,106,-64,-98,-18,37,14
1491692979565,0,18,45,41,-112,-128,-34,-28,12
1491692979565,0,-27,-111,21,-73,-70,4,-24,32
1491692979566,3,11,-128,-24,-55,-25,40,25,-3
1491692979566,3,-30,-88,-4,-42,-121,-23,38,13
1491692979567,0,-17,88,13,-27,-104,54,-19,-16
1491692979567,0,-66,127,30,-10,-60,106,-13,-23
1491692979710,1,26,9,-88,-32,-128,-1,-12,19
1491692979710,1,-35,115,-35,-6,-91,51,39,31
1491692979711,2,-3,38,17,-13,-61,-25,-45,-52
1491692979711,2,12,118,-17,5,-46,36,12,11
1491692979713,0,11,-55,-6,0,-1,-25,-61,-4
1491692979713,0,-77,-104,-23,1,6,27,7,8
1491692979714,1,9,-40,7,-6,-53,6,-17,2
1491692979714,1,-14,-77,-1,-32,34,70,14,-10
1491692979759,2,-12,-56,15,-108,-4,20,-28,40
1491692979759,2,82,-59,-6,-97,34,16,29,-5
1491692979760,3,1,-8,13,-128,81,13,4,29
1491692979760,3,-13,-29,-38,95,-63,-4,-25,2
1491692979761,1,-33,17,-14,-7,-25,13,-31,-16
1491692979761,1,6,-4,33,-34,85,99,38,14
1491692979762,3,4,40,5,-2,-12,11,-61,-11
1491692979762,3,29,61,60,41,22,-13,26,43
1491692979808,0,4,-8,-27,41,10,-13,21,-32
1491692979808,0,-8,-49,-15,69,-34,-99,-29,-77
1491692979809,1,8,-24,-21,-40,14,33,45,32
1491692979809,1,42,-4,39,118,22,13,-7,-81
1491692979811,3,-34,-14,-3,44,86,77,-39,-33
1491692979811,3,67,21,-21,12,-49,-11,-4,22
1491692979813,0,-39,-29,-12,9,-21,5,36,35
1491692979813,0,18,53,12,-24,8,-88,-19,67
1491692979857,1,-7,-43,25,75,60,17,-43,-53
1491692979857,1,33,0,-19,-104,21,89,40,-15
1491692979858,2,-24,16,39,122,49,34,20,-9
1491692979858,2,-3,-2,29,10,17,87,-10,-10
1491692979859,0,77,33,93,21,91,80,16,-42
1491692979859,0,9,-10,-1,-57,-12,61,32,7
1491692979860,1,-19,-51,-41,76,77,49,4,45
1491692979860,1,-5,-5,-80,-82,-97,-98,12,-33
1491692979905,2,33,-21,-11,52,-39,9,-7,-14
1491692979905,2,4,9,109,-17,127,86,45,45
1491692979907,3,8,-4,-45,56,-128,-106,-43,-2
1491692979907,3,-87,-6,-89,-25,-89,17,3,80
1491692979908,1,24,30,82,-23,39,-16,-29,-45
1491692979908,1,13,42,102,57,99,81,38,-15
1491692979909,2,-66,-55,-98,-23,-47,-94,-57,42
1491692979909,2,0,-7,-80,10,3,69,41,-47
1491692979956,3,-49,-2,-20,-22,-69,-42,-15,-11
1491692979956,3,-11,-23,-33,-59,-8,16,-41,-43
1491692980004,0,85,53,19,-81,-23,5,-12,13
1491692980004,0,-1,-11,-28,67,-38,47,-24,60
1491692980005,2,-56,22,67,82,43,-35,-6,-10
1491692980005,2,32,14,16,-35,-14,-2,28,63
1491692980006,3,27,-17,29,51,-11,0,-1,-29
1491692980006,3,-79,6,-41,-45,38,-103,-40,23
1491692980007,0,10,-46,-114,65,-119,41,-90,-15
1491692980007,0,49,-12,-20,-79,-26,-92,5,36
1491692980052,1,-4,27,67,-33,62,93,81,13
1491692980052,1,25,-49,-99,-73,-76,-88,-44,14
1491692980053,3,127,-28,-4,-80,30,24,7,-47
1491692980053,3,-20,79,88,122,64,21,48,27
1491692980055,0,-23,6,-44,-126,-16,3,16,28
1491692980055,0,-18,-36,79,127,58,60,-18,35
1491692980056,0,-50,-58,-46,-109,39,-24,110,-39
1491692980056,0,25,40,-28,4,5,-21,-81,-6
1491692980101,1,-16,-12,-73,26,-2,-50,-9,13
1491692980101,1,52,40,44,30,-11,31,23,-48
1491692980104,2,-18,8,62,-33,-43,10,-16,50
1491692980104,2,18,-21,-8,26,-49,82,-28,-112
1491692980106,1,-35,4,-5,-58,19,29,-7,14
1491692980106,1,-27,-62,-83,107,-59,-8,-16,-7
1491692980108,2,-31,-54,-49,-128,-40,109,20,-9
1491692980108,2,-17,78,94,122,29,0,-13,49
1491692980150,3,108,-10,-61,-7,18,-18,3,-9
1491692980150,3,4,-9,0,-71,30,-76,-27,21
1491692980151,0,-69,-11,42,19,-9,36,-69,-11
1491692980151,0,53,-33,-6,33,-38,-21,66,11
1491692980152,2,30,48,3,52,-6,-14,-56,-43
1491692980152,2,-33,-20,6,-93,32,5,30,79
1491692980158,3,70,-5,-26,9,-29,9,-6,-70
1491692980158,3,11,-14,-14,-109,-6,68,36,-14
1491692980198,0,-65,14,52,-18,-79,62,-27,-4
1491692980198,0,-120,-43,-21,75,79,-23,-31,-27
1491692980200,1,81,-35,-42,-88,-123,-19,-93,49
1491692980200,1,-80,32,-75,-36,-8,4,36,10
1491692980202,2,32,39,-4,-96,-21,14,8,14
1491692980202,2,-37,29,45,52,6,-12,15,-46
1491692980202,3,-106,-44,49,62,55,-18,-52,24
1491692980202,3,73,-43,-22,11,38,36,-14,49
1491692980248,0,1,35,51,21,42,-36,56,73
1491692980248,0,53,5,25,-26,-3,-7,-31,-56
1491692980249,1,-16,25,-36,-91,-100,54,55,-36
1491692980249,1,-66,-31,1,127,110,-115,-22,79
1491692980251,3,92,49,100,7,109,108,68,33
1491692980251,3,-48,8,84,109,-123,75,32,-76
1491692980252,0,12,-56,-69,-47,42,-106,-45,11
1491692980252,0,-81,3,-74,-107,-41,55,-6,-34
1491692980295,1,-7,-11,-12,-14,12,-13,18,-56
1491692980295,1,7,25,53,18,47,52,37,-8
1491692980297,2,55,102,121,127,97,-42,-36,-44
1491692980297,2,15,-47,-115,12,-128,-88,-56,17
1491692980298,0,-50,35,17,81,33,127,80,16
1491692980298,0,56,-4,9,-19,-64,44,-72,-51
1491692980299,1,23,9,-28,19,98,-59,45,51
1491692980299,1,-38,-25,-70,-102,-52,-27,-19,-119
1491692980345,2,54,-4,20,-10,-11,-28,-63,127
1491692980345,2,56,47,127,48,98,127,9,-15
1491692980347,3,-72,-12,67,127,-92,23,66,45
1491692980347,3,-110,-33,-71,-104,2,23,-38,-16
1491692980348,1,7,27,21,-114,-54,-35,-128,-8
1491692980348,1,-20,-6,114,104,27,-2,83,-31
1491692980350,2,-21,-9,16,127,-53,-5,-45,-5
1491692980350,2,18,-33,19,-84,10,-72,127,14
1491692980393,3,-87,2,0,89,72,-58,6,9
1491692980393,3,48,26,-3,21,34,67,-83,-5
1491692980394,0,70,-29,-74,-40,-43,11,51,72
1491692980394,0,-64,36,-63,88,-34,-116,-56,-3
1491692980396,2,-47,-6,44,-59,-57,61,-53,-46
1491692980396,2,76,19,67,-128,-83,117,127,14
1491692980397,3,-103,-38,-19,113,73,-114,-128,-33
1491692980397,3,11,-4,7,7,15,51,88,93
1491692980442,0,52,17,69,-15,-74,0,27,19
1491692980442,0,-106,22,89,75,102,42,-75,-13
1491692980443,1,56,-17,-25,-108,-92,-70,-52,97
1491692980443,1,-41,-8,-95,14,20,11,-25,-12
1491692980445,3,66,29,59,98,80,76,39,-18
1491692980445,3,-88,12,37,-121,-125,-62,-105,-65
1491692980446,0,47,-3,0,36,-72,-72,28,26
1491692980446,0,-115,-51,-101,-23,115,49,-6,-38
1491692980490,1,-26,-31,-88,108,57,-11,39,43
1491692980490,1,85,11,13,-48,95,-68,-100,-18
1491692980492,2,-83,-17,-95,-44,127,28,-31,-128
1491692980492,2,36,-68,-19,11,115,-96,-75,-23
1491692980493,0,-128,-2,-45,113,108,-26,94,-87
1491692980493,0,0,-46,-103,-50,-58,-81,-43,94
1491692980495,1,-20,8,79,-128,-127,36,-61,-10
1491692980495,1,-53,4,127,-9,-128,-79,-66,1
1491692980539,2,-2,-5,54,-50,-111,37,-32,4
1491692980539,2,68,17,60,94,-128,79,-82,-30
1491692980541,3,-14,-42,38,-12,-118,-53,58,-69
1491692980541,3,24,9,-52,-19,-96,30,28,80
1491692980542,0,-25,28,93,-35,-83,18,-45,-44
1491692980542,0,-32,21,40,-8,-85,-1,70,98
1491692980543,1,99,-5,-27,67,-35,74,60,29
1491692980543,1,-57,-22,-63,76,-35,22,-35,-77
1491692980588,2,-51,-30,-36,-107,-36,-49,-64,29
1491692980588,2,66,-8,3,78,-24,-52,11,64
1491692980590,3,-42,21,113,60,-5,21,55,12
1491692980590,3,92,44,38,-74,-21,-87,-26,19
1491692980591,1,-83,-28,-120,-107,-2,-5,14,-65
1491692980591,1,104,29,89,33,-12,63,71,39
1491692980592,2,30,36,127,43,3,55,-14,-20
1491692980592,2,-100,-20,-41,-42,0,0,-45,-88
1491692980637,3,-11,5,-35,28,-3,-31,46,1
1491692980637,3,45,19,-3,33,-3,77,-33,-3
1491692980638,0,8,-14,-7,-21,1,71,104,65
1491692980638,0,-63,22,-25,-32,-6,90,-16,-23
1491692980640,2,-22,17,-109,-107,-1,-25,-87,-45
1491692980640,2,110,8,19,108,-5,-18,66,-40
1491692980641,3,4,29,49,-29,2,98,-64,59
1491692980641,3,29,1,56,-53,12,-104,-39,0
1491692980685,0,16,-66,-105,127,8,-63,-4,-28
1491692980685,0,-32,-38,1,-128,4,-73,-7,33
1491692980687,1,-24,51,63,-70,16,-42,-52,20
1491692980687,1,2,-13,-4,-15,-10,-46,-3,-11
1491692980688,3,50,-22,-61,62,-119,-30,-53,-31
1491692980688,3,-113,-43,-39,-10,-10,-8,-63,72
1491692980689,0,37,9,22,-14,101,51,19,36
1491692980689,0,-15,-12,-17,-16,-1,38,110,-50
1491692980734,1,41,-9,-13,-110,-29,-96,-20,-66
1491692980734,1,13,20,4,14,-125,34,-23,11
1491692980736,2,-44,-33,18,-3,49,-11,-7,27
1491692980736,2,-62,7,71,48,-72,-28,-89,-57
1491692980737,0,127,49,-25,61,17,-50,19,28
1491692980737,0,-93,-31,-29,-56,-67,56,-61,-28
1491692980738,1,-83,32,45,-29,-124,-53,-127,47
1491692980738,1,101,6,34,34,101,117,89,26
1491692980783,2,-31,25,41,23,-18,5,-92,19
1491692980783,2,-25,12,-19,-36,6,15,-36,40
1491692980785,3,-38,-14,-66,-86,-120,-20,108,-34
1491692980785,3,-75,-26,61,46,120,23,-41,7
1491692980786,1,22,-11,-58,40,51,-26,103,45
1491692980786,1,82,2,-113,-128,19,-95,-16,-25
1491692980787,2,29,15,83,16,36,26,-8,40
1491692980787,2,12,18,59,29,-60,54,4,9
1491692980832,3,60,-4,93,75,6,-25,-36,17
1491692980832,3,-17,-13,29,-56,-85,-88,-66,-21
1491692980833,0,-78,-32,-73,39,21,55,2,-4
1491692980833,0,5,26,-113,-17,66,34,67,-23
1491692980835,2,23,45,127,-70,-128,-60,-51,-21
1491692980835,2,-33,-31,45,-28,92,-6,90,59
1491692980835,3,7,-43,47,113,88,51,-28,-19
1491692980835,3,67,-20,62,-60,26,-27,26,-40
1491692980880,0,-10,-5,-52,-47,-81,0,-62,60
1491692980880,0,71,16,-20,5,-8,10,99,31
1491692980882,1,-79,2,-116,-128,-72,-36,-59,34
1491692980882,1,-23,-3,-62,32,-14,47,-36,-14
1491692980883,2,16,-37,-28,-50,-26,-27,23,-34
1491692980883,2,-22,50,-1,48,39,-53,-128,34
1491692980884,3,42,66,65,90,-37,79,88,-41
1491692980884,3,-36,18,16,-39,-34,-47,-31,17
1491692980929,0,10,-14,-64,-21,40,110,92,-26
1491692980929,0,-81,-48,-14,-128,17,-102,-98,-71
1491692980931,1,107,18,3,95,127,80,-48,-41
1491692980931,1,-60,10,-105,-89,-111,47,64,11
1491692980932,3,-56,-12,35,-128,40,15,-86,-48
1491692980932,3,0,-36,-35,77,-12,-89,51,30
1491692980933,0,-41,11,-52,-95,-71,52,-110,27
1491692980933,0,71,3,8,127,-36,-41,58,26
1491692980978,1,18,26,21,-104,53,3,11,16
1491692980978,1,-77,16,83,-26,-105,76,53,21
1491692980980,2,57,-3,-33,-65,64,-128,-70,6
1491692980980,2,1,-49,-106,89,116,40,98,-39
1491692980981,0,-128,-77,-46,54,97,32,47,-62
1491692980981,0,7,40,34,56,2,-68,-63,20
1491692980982,1,-76,-29,-128,60,-95,-36,86,-67
1491692980982,1,-53,9,-44,-80,35,-9,-95,82
1491692981027,2,7,7,50,-3,-128,-17,0,30
1491692981027,2,-21,59,-58,-125,10,-108,-85,23
1491692981028,3,-10,-51,60,50,-78,47,69,-34
1491692981028,3,-4,85,127,111,127,127,-105,-35
1491692981032,1,78,37,87,96,-100,65,81,60
1491692981032,1,-74,-40,-84,-59,76,-72,-74,-53
1491692981032,2,76,12,33,125,61,118,28,43
1491692981032,2,-62,-19,72,64,31,-3,8,-40
1491692981075,3,-49,-38,-64,-103,-63,-83,-108,-43
1491692981075,3,63,33,50,58,-98,-77,61,96
1491692981077,0,10,22,43,-35,83,-69,-78,-95
1491692981077,0,-51,43,94,-128,-41,105,89,73
1491692981078,2,-57,-5,-15,109,-57,99,100,-34
1491692981078,2,-7,-44,-76,-39,-128,-64,-47,-52
1491692981124,3,20,33,-11,-114,-91,-79,-91,-61
1491692981124,3,61,-7,-107,75,-49,113,127,91
1491692981126,0,37,59,127,-84,-128,42,-106,-10
1491692981126,0,-25,-54,-62,42,69,-46,-84,41
1491692981173,1,-91,2,-93,-58,-88,55,54,-45
1491692981173,1,74,-78,9,6,54,-95,-19,-26
1491692981222,3,-35,-100,-87,127,127,-88,-90,-11
1491692981222,3,0,31,-11,-82,76,4,36,-33
1491692981223,0,27,33,49,44,-126,-10,64,32
1491692981223,0,-17,-19,-17,-72,-58,80,-73,-54
1491692981224,1,-36,20,123,-121,71,26,-39,68
1491692981224,1,-92,-36,-45,-4,85,-48,-47,-30
1491692981225,2,100,-41,-73,-8,-27,-34,59,17
1491692981225,2,14,-11,-29,127,73,103,75,41
1491692981270,0,-36,25,108,-27,-100,-7,-71,-15
1491692981270,0,24,64,-23,-83,92,-87,-71,-92
1491692981272,0,-54,-45,-35,72,87,108,109,71
1491692981272,0,-45,27,83,-33,-76,61,-50,-26
1491692981273,1,7,-64,-31,93,7,-63,-64,11
1491692981273,1,-32,-44,-95,7,127,-40,68,-8
1491692981274,2,-73,-43,-86,-15,-1,-120,-65,-1
1491692981274,2,48,-9,41,-108,-128,49,-12,56
1491692981319,3,-17,14,127,-128,-128,76,30,-7
1491692981319,3,6,12,-77,127,127,10,-37,-34
1491692981321,0,10,13,-100,49,81,-35,-51,3
1491692981321,0,-68,17,-17,-69,-51,29,19,-59
1491692981322,2,-48,-32,-31,-128,92,-22,-8,-44
1491692981322,2,-12,-32,-19,-75,-71,3,-8,28
1491692981323,3,-123,-66,-101,38,101,-82,22,91
1491692981323,3,57,-38,21,-79,112,-80,-57,-22
1491692981368,0,87,36,-22,14,-115,2,34,59
1491692981368,0,-92,8,-7,-10,121,-128,-23,10
1491692981371,1,121,50,42,12,-120,95,54,-46
1491692981371,1,-48,-28,69,-45,55,100,-14,-14
1491692981373,3,-126,-78,-102,-46,90,-36,50,-57
1491692981373,3,69,-27,0,-16,25,16,9,-9
1491692981375,0,-32,-22,62,-58,-66,51,-6,-60
1491692981375,0,9,100,127,114,-96,67,-29,93
1491692981417,1,27,27,102,-94,-119,-17,35,63
1491692981417,1,-116,-28,-84,80,58,9,-1,-87
1491692981419,2,35,-27,-41,-126,100,-70,-71,56
1491692981419,2,61,24,74,127,-34,20,94,-82
1491692981420,0,-34,-109,-128,-114,98,37,-10,-39
1491692981420,0,85,41,20,38,55,37,-26,5
1491692981420,1,1,-32,43,-45,8,9,35,-32
1491692981420,1,-45,126,110,-13,-122,18,41,1
1491692981465,2,-49,22,-16,53,-39,69,-36,-37
1491692981465,2,-9,-64,-64,-128,62,-73,43,43
1491692981466,3,-21,-64,-104,83,93,-40,-2,-31
1491692981466,3,61,27,-47,-89,-106,-41,-104,4
1491692981467,1,-13,18,-36,127,114,-72,-39,-4
1491692981467,1,-50,-65,-31,-122,-76,-22,-24,-38
1491692981468,2,-22,87,94,-89,-128,73,27,91
1491692981468,2,77,-80,-18,2,103,-89,24,11
1491692981514,3,-23,-25,-3,-113,-68,49,-14,-37
1491692981514,3,-12,41,50,59,-71,-13,-56,67
1491692981515,0,-17,66,97,56,-128,37,-53,-40
1491692981515,0,-6,-71,-111,-42,-46,12,101,-7
1491692981515,2,31,-58,-5,89,-78,-88,14,15
1491692981515,2,-28,33,96,29,97,-72,-91,-62
1491692981516,3,36,108,73,-1,-128,123,66,34
1491692981516,3,-4,-14,41,-50,9,28,24,-23
1491692981563,0,-84,-48,-25,50,52,-12,-38,-47
1491692981563,0,-16,-81,-104,5,-124,-32,-123,3
1491692981564,1,7,59,-89,71,81,43,76,60
1491692981564,1,19,53,-17,-54,-76,5,94,15
1491692981565,3,-28,52,-64,-92,-13,7,-108,-60
1491692981565,3,37,8,-27,-87,28,47,40,69
1491692981565,0,1,-51,53,-7,67,7,-35,15
1491692981565,0,-68,-6,68,-36,36,-49,-4,-58
1491692981615,1,19,50,96,-9,-26,42,11,-15
1491692981615,1,23,35,81,71,31,-28,42,38
1491692981616,2,14,-17,40,-20,24,-8,49,13
1491692981616,2,-5,70,107,-11,11,97,-20,40
1491692981617,3,67,-33,127,-64,-18,4,57,1
1491692981617,3,12,-51,55,4,11,17,-7,5
1491692981617,0,-73,-102,-42,-128,13,-113,-105,-54
1491692981617,0,-34,-3,-61,-73,1,52,36,26
1491692981660,1,12,8,-48,-76,-6,14,-42,-63
1491692981660,1,57,-17,-38,54,100,12,-26,37
1491692981661,2,-76,-8,-74,88,117,-76,107,36
1491692981661,2,-4,-25,-128,-102,127,-35,-40,-48
1491692981662,0,26,92,46,55,-91,47,5,11
1491692981662,0,89,81,-111,-30,25,-31,25,29
1491692981663,1,-39,-29,-73,84,11,-111,-54,21
1491692981663,1,-26,1,17,-48,11,64,23,2
1491692981709,2,-9,-7,-88,-22,-49,12,-1,-8
1491692981709,2,-42,-57,-64,71,-126,11,-8,17
1491692981711,3,-21,50,118,1,-128,-3,0,8
1491692981711,3,38,-68,-111,-84,-126,-111,-85,-2
1491692981712,1,-57,50,1,81,16,46,11,21
1491692981712,1,0,39,34,-16,47,-83,-51,-66
1491692981713,2,75,-6,73,25,84,61,7,-16
1491692981713,2,-10,-26,32,21,81,-5,48,29
1491692981758,3,1,-28,-98,-76,58,99,57,4
1491692981758,3,-88,-22,99,127,55,-101,80,-23
1491692981759,0,65,-14,-128,-128,65,-46,-12,12
1491692981759,0,-16,4,40,-1,51,-35,-56,13
1491692981760,2,49,-9,-2,-13,36,42,-13,2
1491692981760,2,12,-22,0,5,14,32,61,7
1491692981761,3,38,79,86,54,-9,-34,-61,4
1491692981761,3,16,-13,-83,-63,1,21,0,-2
1491692981807,0,-60,127,-26,24,18,-69,27,-13
1491692981807,0,8,-67,-70,-18,8,32,0,-32
1491692981808,1,11,-9,0,45,-8,-13,5,-20
1491692981808,1,-3,71,89,62,1,83,30,60
1491692981809,3,1,-25,-101,-27,-4,-39,-44,44
1491692981809,3,-23,19,-32,119,-5,25,65,23
1491692981810,0,25,-54,84,50,1,17,-6,-11
1491692981810,0,-66,-98,36,37,1,33,-32,24
1491692981855,1,-37,-90,-73,-128,-3,28,-28,-32
1491692981855,1,26,20,-27,-84,-2,-58,-33,-32
1491692981857,2,3,-93,-57,33,2,-20,41,32
1491692981857,2,-19,26,5,60,1,25,-28,43
1491692981858,0,-32,39,127,68,2,101,-53,-27
1491692981858,0,83,-51,-107,-53,62,-128,62,3
1491692981859,1,-61,15,-92,125,-18,17,10,27
1491692981859,1,29,-8,110,10,29,43,-13,13
1491692981904,2,6,82,5,16,36,-7,-29,-15
1491692981904,2,-73,-25,-58,53,-90,-35,-13,-25
1491692981906,3,38,-46,-43,-128,5,-13,-28,-43
1491692981906,3,20,-5,-35,-70,-7,-18,55,-5
1491692981906,1,1,-97,-128,127,-102,-67,74,24
1491692981906,1,11,-37,-37,-101,-43,-7,-90,40
1491692981907,2,15,-19,77,-128,71,17,-23,-21
1491692981907,2,-24,45,94,6,37,109,26,-13
1491692981953,3,-24,19,79,91,15,-66,-18,-24
1491692981953,3,4,32,-63,-47,-55,-22,-96,15
1491692981953,0,95,-61,-14,6,42,-12,85,62
1491692981953,0,-12,72,-26,-21,26,16,-11,-20
1491692981954,1,-21,96,1,53,63,-49,-71,35
1491692981954,1,-31,1,53,53,-63,2,31,16
1491692981955,2,-100,7,-101,-128,23,59,41,-34
1491692981955,2,102,46,84,-77,-32,85,-1,-22
1491692982001,3,-59,-28,-42,-123,106,98,17,2
1491692982001,3,85,-41,37,90,-56,40,-62,-85
1491692982002,0,30,76,-60,-60,-115,1,-67,29
1491692982002,0,-51,-66,-23,44,-53,46,12,39
1491692982003,2,127,-59,-88,-53,-17,77,118,71
1491692982003,2,-12,-59,-83,25,-128,-114,-31,-2
1491692982004,3,-16,-30,105,68,-11,15,-7,-21
1491692982004,3,2,-22,52,-14,51,13,20,15
1491692982050,0,-45,56,-81,-84,-128,-128,-126,-36
1491692982050,0,54,-100,7,32,45,19,59,9
1491692982051,1,51,24,47,-51,13,-85,20,12
1491692982051,1,33,-40,57,-41,-23,-68,15,62
1491692982052,3,-38,21,-56,-113,1,60,50,-24
1491692982052,3,44,-90,73,27,98,32,30,-3
1491692982053,0,-83,-25,-62,78,-91,-59,-120,40
1491692982053,0,34,64,-36,-26,5,102,94,-32
1491692982099,1,122,108,76,-125,22,52,2,37
1491692982099,1,-65,127,-66,69,19,-20,-26,-13
1491692982100,2,-21,57,89,-41,-1,30,-9,-37
1491692982100,2,-46,79,-17,90,26,7,-35,-17
1491692982101,0,-19,-8,7,1,-32,-125,-32,-37
1491692982101,0,-17,81,33,-6,87,-15,39,11
1491692982110,1,0,-118,61,9,-81,-96,3,-47
1491692982110,1,38,-105,-75,-41,18,-39,-35,13
1491692982148,2,56,74,65,0,-76,15,43,-45
1491692982148,2,-32,-48,-63,-53,57,-92,-17,26
1491692982149,3,-59,-74,-5,-1,-64,-28,-13,-91
1491692982149,3,26,-66,-4,-10,24,-58,51,6
1491692982150,1,11,-59,-18,45,-26,-70,-26,21
1491692982150,1,-68,43,-33,-31,-28,29,-46,-24
1491692982150,2,111,38,22,-118,15,59,46,25
1491692982150,2,-19,-36,-2,105,-47,-110,-46,-7
1491692982197,3,-49,-51,45,0,-25,-6,-3,-9
1491692982197,3,13,-68,-85,-118,-35,-60,-28,-3
1491692982198,0,18,-46,60,127,-34,-128,-47,-58
1491692982198,0,-66,4,-44,-96,-36,-76,79,-8
1491692982198,2,-21,-24,37,14,63,42,40,-13
1491692982198,2,21,-47,3,29,-46,43,-31,-8
1491692982199,3,-44,-5,4,107,-3,59,-75,-1
1491692982199,3,2,19,-120,-58,-7,47,30,-10
1491692982246,0,37,59,-30,-22,12,92,33,35
1491692982246,0,-6,-86,1,-82,33,14,-26,24
1491692982247,1,34,49,70,-25,127,103,-32,14
1491692982247,1,6,6,16,127,-116,-108,41,39
1491692982248,3,-6,-69,-21,-128,36,23,-26,23
1491692982248,3,-33,-106,18,122,56,82,63,-20
1491692982249,0,-1,-83,-37,40,43,107,36,39
1491692982249,0,93,12,25,29,-42,-41,-43,8
1491692982294,1,-45,-118,52,-67,93,96,-39,-38
1491692982294,1,-3,-74,-64,70,0,47,-38,-15
1491692982296,2,-52,-56,11,-99,7,68,49,1
1491692982296,2,2,-128,-49,98,3,60,-44,16
1491692982297,3,-13,-3,16,-9,-17,24,31,38
1491692982297,3,37,89,80,-9,54,121,36,-74
1491692982298,0,57,93,14,102,-80,-100,-18,12
1491692982298,0,-7,64,-23,-97,65,102,-21,-8
1491692982343,1,9,-22,-102,-23,-12,-119,25,-2
1491692982343,1,-30,54,1,-45,36,20,-44,17
1491692982344,2,-4,121,39,-25,-5,-21,-25,-16
1491692982344,2,-36,127,55,13,17,110,60,13
1491692982345,0,100,-16,-49,120,-68,-128,-76,25
1491692982345,0,-6,-91,50,-98,-6,64,24,-67
1491692982348,1,36,-40,-97,-71,-87,28,-17,48
1491692982348,1,25,-24,56,98,26,-3,-17,11
1491692982392,2,-60,115,115,52,99,59,29,-12
1491692982392,2,33,62,-128,-57,-68,-14,-4,-19
1491692982393,3,-42,-9,46,127,21,113,29,-34
1491692982393,3,-17,1,-64,-128,-54,-24,-95,-23
1491692982394,1,-23,58,65,10,86,3,51,-57
1491692982394,1,45,10,24,39,-64,-78,-102,29
1491692982395,2,-89,-20,55,-106,108,127,46,-14
1491692982395,2,14,-2,6,103,10,-34,-64,89
1491692982440,3,33,31,42,-54,6,-48,-4,12
1491692982440,3,51,-48,9,100,45,97,3,-8
1491692982442,0,-42,10,-27,67,2,-68,-29,-44
1491692982442,0,23,29,55,8,-21,-49,-46,32
1491692982443,2,-50,3,32,-71,16,127,49,-18
1491692982443,2,31,12,-1,49,34,-39,-18,-24
1491692982444,3,73,38,-5,-10,-73,-7,-27,7
1491692982444,3,-58,-55,-11,-128,45,-30,33,-26
1491692982489,0,83,-3,-54,127,-79,-67,8,78
1491692982489,0,-81,-14,18,-128,6,94,31,-16
1491692982490,1,17,22,97,57,71,127,-33,29
1491692982490,1,-83,-23,-19,-128,-18,-84,-15,-71
1491692982491,3,-3,-46,-97,-85,-9,94,-6,-4
1491692982491,3,-16,-2,-2,127,100,-11,-17,86
1491692982492,0,28,-63,7,-128,-2,-32,0,57
1491692982492,0,-15,27,-32,54,-103,-58,-17,-72
1491692982538,1,-64,21,60,-58,44,-87,-36,20
1491692982538,1,74,13,12,78,33,29,25,24
1491692982539,2,6,19,7,-25,-56,79,-2,-26
1491692982539,2,-21,-32,-14,11,45,-110,-2,45
1491692982547,0,4,29,8,-49,-9,17,19,-26
1491692982547,0,-14,-13,-74,0,-107,54,49,-10
1491692982548,1,-6,-68,-128,-50,-30,-34,-80,-37
1491692982548,1,-76,4,-39,-128,-128,-20,25,21
1491692982588,2,55,-8,20,69,-59,-11,-20,-23
1491692982588,2,-50,18,37,-74,115,26,-79,-18
1491692982590,3,24,13,63,127,51,9,55,50
1491692982590,3,4,-23,-5,-128,-63,-17,-72,-92
1491692982591,1,19,8,61,89,112,-63,-4,20
1491692982591,1,-18,-8,36,41,127,91,-47,-56
1491692982592,2,-75,-6,28,77,126,-101,-11,2
1491692982592,2,37,-33,26,110,127,127,-23,31
1491692982635,3,-78,-17,23,-59,-27,-54,32,-18
1491692982635,3,38,23,-28,-51,-88,94,34,55
1491692982637,0,-77,-45,-89,-128,-103,-80,34,-91
1491692982637,0,70,10,9,87,-128,19,9,-27
1491692982638,1,50,34,-96,-67,-122,40,-14,-4
1491692982638,1,55,-9,-52,119,-103,-60,23,-48
1491692982639,2,56,36,37,-44,-69,65,-57,36
1491692982639,2,-50,30,88,84,-80,-25,8,3
1491692982684,3,-5,20,-12,-97,-89,73,36,-1
1491692982684,3,-35,-41,17,65,-40,-42,-32,11
1491692982685,0,-29,31,-53,-1,-26,-11,-29,-15
1491692982685,0,-15,-17,-33,6,-48,24,78,6
1491692982687,2,40,-17,48,127,0,-3,-115,15
1491692982687,2,-57,5,-128,-128,-21,-50,-33,-89
1491692982688,3,-16,-1,-76,-76,-11,3,41,65
1491692982688,3,99,47,41,3,4,32,6,-35
1491692982733,0,-56,-12,44,-52,-4,17,-57,-11
1491692982733,0,63,2,39,91,-8,-78,21,-2
1491692982734,1,-65,-22,18,12,-7,-128,-77,41
1491692982734,1,-118,15,30,84,-3,7,13,-86
1491692982735,3,9,-52,-61,-6,-4,20,-27,-31
1491692982735,3,-37,77,69,77,-2,105,-25,-12
1491692982736,0,-36,-45,-128,-87,3,-59,-35,0
1491692982736,0,-7,-34,-58,-128,-2,-55,-95,-15
1491692982782,1,105,-9,-8,37,-8,29,17,14
1491692982782,1,41,14,41,-21,1,95,93,22
1491692982784,2,-37,24,22,-44,2,6,-12,-84
1491692982784,2,-25,-4,-2,121,-6,8,21,44
1491692982785,0,66,6,101,32,1,82,36,-19
1491692982785,0,54,35,7,-56,-50,-77,0,47
1491692982786,1,-50,45,40,127,-5,64,51,-54
1491692982786,1,-15,-16,-86,-109,-32,-111,-96,11
1491692982830,2,94,-18,52,-97,-32,37,-10,34
1491692982830,2,-111,10,-66,-113,-52,-8,11,0
1491692982832,3,-58,-82,-42,101,-9,-93,-51,-78
1491692982832,3,99,31,-32,16,87,92,105,44
1491692982833,1,-103,-28,46,-104,-82,67,-51,4
1491692982833,1,-14,-26,17,13,39,-96,-38,-5
1491692982835,2,16,25,22,-38,-49,-119,86,10
1491692982835,2,2,-52,-17,-95,68,124,102,-28
1491692982879,3,124,36,6,103,75,-62,3,91
1491692982879,3,-5,-6,-6,-17,-18,8,-18,-48
1491692982880,0,-25,11,11,87,95,-19,-75,73
1491692982880,0,-62,7,27,-60,10,5,-56,9
1491692982881,2,66,47,80,76,-17,112,-19,-5
1491692982881,2,-33,-39,-78,43,14,23,52,-22
1491692982882,3,-64,-63,-86,-52,127,10,-37,4
1491692982882,3,13,1,-41,-61,-51,-108,-52,-5
1491692982928,0,-128,-13,-27,3,-34,7,-75,-59
1491692982928,0,111,55,103,6,-71,33,3,113
1491692982930,1,-24,55,113,35,-60,16,73,-66
1491692982930,1,30,-8,-10,13,-128,23,28,-4
1491692982977,3,61,1,40,-99,-85,77,92,86
1491692982977,3,-55,-27,33,99,74,-91,-64,11
1491692982979,0,112,-24,-68,-115,-17,-12,-15,16
1491692982979,0,-119,-72,-128,115,-22,-55,-2,-36
1491692982980,1,-73,1,15,35,84,58,-33,12
1491692982980,1,84,6,96,-18,-39,13,31,-17
1491692982981,2,57,50,5,-29,-12,17,33,45
1491692982981,2,-41,-20,60,91,68,-2,-125,-66
1491692983074,0,4,35,66,27,-88,-80,15,-63
1491692983074,0,80,29,73,5,-9,-1,-90,100
1491692983075,1,-83,2,-75,93,77,90,15,-67
1491692983075,1,-23,8,-56,-109,-36,-68,-102,93
1491692983076,2,32,-23,5,-93,-48,58,68,-39
1491692983076,2,-35,10,10,32,94,-26,-26,-20
1491692983077,0,49,0,-9,127,43,71,28,-16
1491692983077,0,-17,-16,62,-26,61,0,-9,34
1491692983123,1,3,-25,-44,-66,5,31,-78,-9
1491692983123,1,-128,-23,2,62,-57,-46,-44,-104
1491692983124,2,37,23,83,7,-78,-12,44,27
1491692983124,2,123,48,-27,-100,-4,30,-35,-13
1491692983125,1,127,26,76,-77,-121,52,-24,36
1491692983125,1,21,31,-59,-59,80,-22,20,45
1491692983126,2,-26,43,79,-107,-75,54,-106,-75
1491692983126,2,-108,-54,-85,75,3,-88,55,-25
1491692983171,3,93,-29,-106,-83,127,69,-46,30
1491692983171,3,-8,-30,2,18,54,24,69,-12
1491692983172,0,2,40,45,-38,-84,12,7,9
1491692983172,0,-2,40,126,-56,-85,39,35,33
1491692983173,3,68,13,-6,-76,-91,-29,-18,-16
1491692983173,3,-50,-66,-85,49,-72,11,-86,14
1491692983174,0,-51,-10,-81,-6,17,-16,56,68
1491692983174,0,-4,9,-38,-21,-46,-34,-128,-128
1491692983220,1,67,19,35,63,87,3,83,86
1491692983220,1,76,-3,-36,-80,-57,-18,49,60
1491692983221,2,22,12,-9,44,110,-18,-115,13
1491692983221,2,-39,-43,-113,-124,33,-5,-39,-85
1491692983222,0,-14,-6,14,127,127,54,-119,1
1491692983222,0,71,-18,-10,-36,-14,30,-12,11
1491692983223,1,-116,-12,-89,-73,-76,-36,35,-42
1491692983223,1,40,-32,-46,102,127,-31,-32,-46
1491692983269,2,74,17,-47,-128,-6,-27,55,78
1491692983269,2,-70,-5,51,121,21,-108,-128,-62
1491692983271,3,-36,-32,-18,-99,-55,42,32,26
1491692983271,3,-47,44,67,-46,-11,19,-4,-42
1491692983272,1,-16,6,-84,87,-48,-25,-7,-55
1491692983272,1,-51,6,-24,-115,29,-36,3,-45
1491692983273,2,70,25,35,127,28,-31,-8,46
1491692983273,2,-27,18,47,-128,25,60,-25,43
1491692983318,3,41,-22,-7,57,70,-73,-111,-56
1491692983318,3,-74,18,1,23,77,85,85,-29
1491692983319,0,94,-5,2,-66,-63,0,4,-35
1491692983319,0,-88,-32,-14,119,2,18,-58,25
1491692983320,2,21,26,-13,19,-3,-5,-40,-12
1491692983320,2,92,39,41,-27,-30,-11,16,-1
1491692983321,3,-85,22,127,120,-42,38,-19,63
1491692983321,3,29,2,27,-103,-128,-14,-70,-23
1491692983367,0,-89,-38,-9,109,58,-11,-72,-93
1491692983367,0,43,25,-31,-83,-38,57,89,31
1491692983368,1,-44,-21,-41,31,32,-93,31,27
1491692983368,1,9,-2,-5,75,31,64,-50,47
1491692983372,2,-82,-16,22,-124,-21,32,36,10
1491692983372,2,49,-6,-45,66,10,-60,24,-8
1491692983373,3,-68,-2,81,-107,33,117,-37,-84
1491692983373,3,101,26,-14,-87,-111,-45,34,75
1491692983416,0,-86,-60,-54,127,115,-14,27,-87
1491692983416,0,-39,-28,-47,-128,43,-70,-71,-11
1491692983417,1,22,6,73,-28,12,36,42,16
1491692983417,1,-4,-6,-79,-2,-68,-71,25,-3
1491692983418,3,8,-25,12,-52,-69,5,-53,78
1491692983418,3,9,-12,-20,-37,86,-86,83,19
1491692983420,0,3,-32,-68,32,-42,59,125,81
1491692983420,0,44,6,-26,-128,-82,-78,30,4
1491692983471,1,-20,17,85,110,127,-8,-87,-43
1491692983471,1,-31,13,91,-53,-24,-23,-93,49
1491692983472,2,-71,-24,-50,74,59,111,20,-46
1491692983472,2,-53,-67,-128,6,90,-27,-3,-114
1491692983473,0,-21,6,8,-104,-120,-99,-82,-20
1491692983473,0,69,2,-16,61,-76,40,43,14
1491692983474,1,42,12,-30,79,88,71,-5,19
1491692983474,1,-70,-19,-23,-60,-87,-22,-30,-96
1491692983513,2,27,3,37,38,26,-80,-75,4
1491692983513,2,-51,45,58,-64,-90,72,-22,2
1491692983514,3,1,-20,-75,70,-27,-128,-2,21
1491692983514,3,-46,-47,-93,0,103,100,60,-24
1491692983515,1,0,45,92,-88,-109,-72,-55,-9
1491692983515,1,-24,0,48,127,79,-80,-63,-53
1491692983517,2,72,-15,-8,-25,91,19,6,17
1491692983517,2,8,28,-12,-85,-10,58,84,11
1491692983561,3,-2,-15,-21,42,-59,-63,-3,-9
1491692983561,3,-88,3,-9,-83,-90,-55,12,18
1491692983562,0,39,-19,-4,1,-120,-37,-128,-57
1491692983562,0,-22,8,37,-2,43,-66,72,59
1491692983563,2,-104,-33,-33,47,85,127,50,48
1491692983563,2,52,-13,-57,-80,-7,-67,-99,87
1491692983564,3,-24,-14,45,43,102,106,127,-90
1491692983564,3,7,2,-75,6,-92,73,-77,127
1491692983610,0,-13,-1,-48,62,-11,-87,-16,-72
1491692983610,0,-58,31,-16,46,116,-35,-49,-2
1491692983611,1,13,-17,11,-68,92,-12,-85,-74
1491692983611,1,-78,-8,-8,-3,-69,-23,9,-73
1491692983612,3,-35,-9,-125,-128,18,-85,97,6
1491692983612,3,48,-14,32,-56,-31,-38,-21,27
1491692983613,0,-98,9,48,-53,23,113,-47,-1
1491692983613,0,-48,-37,-67,18,13,-120,31,-21
1491692983659,1,82,41,11,-128,-122,125,-73,13
1491692983659,1,-56,-45,2,127,103,-92,-86,-67
1491692983660,2,-17,26,42,-128,21,115,127,120
1491692983660,2,107,5,55,69,58,20,53,24
1491692983708,0,32,-1,-37,-33,49,-5,-45,9
1491692983708,0,-47,-6,-81,-92,-60,-2,-26,-23
1491692983709,1,45,35,-71,-102,0,-6,37,65
1491692983709,1,-8,44,108,-58,-44,127,10,10
1491692983710,2,-48,27,-24,127,105,-100,-37,-78
1491692983710,2,25,-73,-95,-117,72,-11,-22,-64
1491692983710,3,-29,-1,8,-25,88,-15,28,57
1491692983710,3,38,10,44,-47,90,127,-26,60
1491692983805,0,-5,66,127,93,-128,55,11,-26
1491692983805,0,2,-10,-74,31,37,90,-64,-8
1491692983806,1,-57,-48,-114,-14,29,63,27,-6
1491692983806,1,12,-6,-11,95,122,83,-30,-15
1491692983806,2,92,-16,29,-78,-128,-3,20,74
1491692983806,2,-44,104,127,127,-15,77,12,-102
1491692983808,1,-22,102,117,-27,-49,-37,-67,-24
1491692983808,1,58,31,33,112,-128,57,43,-61
1491692983854,2,-4,-1,-57,-95,127,-128,-25,30
1491692983854,2,-41,-70,-83,48,122,88,33,-4
1491692983855,3,-2,1,78,99,-116,73,-3,-51
1491692983855,3,22,-22,-65,18,127,2,-126,-53
1491692983855,3,-54,18,37,44,-80,127,59,33
1491692983855,3,-16,30,21,-11,78,1,18,-39
1491692983856,0,-14,-89,-53,115,77,-49,-74,-86
1491692983856,0,-32,0,13,-96,-76,-21,-24,-10
1491692983903,1,18,69,49,14,8,57,66,19
1491692983903,1,4,-30,17,-16,-105,-77,-45,53
1491692983904,2,76,-23,-67,78,127,-4,10,7
1491692983904,2,8,12,40,-102,-79,-32,-128,-69
1491692983905,0,27,17,9,-112,81,3,-43,-36
1491692983905,0,46,-40,-86,85,127,-80,-72,2
1491692983906,1,15,24,107,50,-128,92,52,74
1491692983906,1,-35,-1,-24,-88,-47,9,73,-11
1491692983952,2,-43,-36,88,110,63,-27,-50,-39
1491692983952,2,-21,-80,-71,-52,40,-78,-102,-64
1491692983953,3,-10,51,3,-128,10,-27,-24,82
1491692983953,3,4,69,20,6,-104,41,-41,-15
1491692983953,1,71,-35,-110,-126,86,-128,-61,-14
1491692983953,1,-57,-51,12,-19,-22,-11,20,-3
1491692983954,2,-2,37,55,45,39,19,-75,-37
1491692983954,2,-34,3,-39,-6,-128,21,127,45
1491692984000,3,-18,19,52,-31,-75,-55,-122,-36
1491692984000,3,20,36,67,42,-113,113,76,58
1491692984001,0,12,-77,-119,71,-57,-23,-27,48
1491692984001,0,8,-12,24,-69,-4,-68,-39,-69
1491692984002,2,-22,35,56,-61,-26,46,57,28
1491692984002,2,-18,52,33,-18,3,127,14,55
1491692984049,3,40,16,42,-110,-12,-50,5,-18
1491692984049,3,-46,-11,-5,111,96,-72,-79,-70
1491692984050,0,-44,-26,9,-25,5,-49,65,-2
1491692984050,0,47,46,41,51,-5,85,17,12
1491692984051,1,-32,1,-18,-42,37,3,6,-45
1491692984051,1,20,-50,-124,-78,41,29,43,34
1491692984052,2,-24,-81,-88,44,-8,-121,-127,-7
1491692984052,2,-11,4,82,-27,4,59,17,-81
1491692984098,3,40,61,6,8,5,113,125,81
1491692984098,3,-62,-79,-55,36,25,-81,-34,4
1491692984099,0,86,70,-36,-87,-18,106,-59,49
1491692984099,0,-44,-63,-10,67,11,8,-9,30
1491692984100,1,33,7,90,85,-7,126,71,-31
1491692984100,1,6,85,45,38,6,14,-32,-25
1491692984101,3,52,-27,-98,29,-8,-27,-34,5
1491692984101,3,22,-26,-98,-5,10,63,-15,31
1491692984147,0,-39,23,-128,-111,-3,-79,-32,-25
1491692984147,0,-1,63,70,-64,-4,49,-33,-28
1491692984148,1,-55,13,50,127,-9,-111,-3,-62
1491692984148,1,-51,-48,-73,-119,14,-61,30,55
1491692984148,0,-99,100,3,80,46,-41,7,-8
1491692984148,0,49,5,-33,29,-128,-6,5,1
1491692984150,1,-70,-43,-113,-85,-96,29,-20,-22
1491692984150,1,60,20,116,85,-11,127,49,19
1491692984195,2,-12,-40,78,-125,-113,60,-45,-30
1491692984195,2,-44,29,-70,109,127,-100,-23,14
1491692984196,3,-42,51,84,7,54,127,47,37
1491692984196,3,-94,5,-68,-32,-28,-73,-12,-7
1491692984197,1,-29,1,27,1,-128,17,-49,-16
1491692984197,1,43,18,52,101,-80,-76,-71,-9
1491692984198,2,-15,21,74,-63,-38,72,98,31
1491692984198,2,8,-12,-109,-23,1,4,-6,-12
1491692984244,3,20,9,72,-35,102,-4,-11,29
1491692984244,3,-25,37,-56,-113,127,55,-33,-25
1491692984245,0,53,9,75,90,89,-83,42,9
1491692984245,0,-45,-66,-43,-29,58,13,13,-20
1491692984246,2,-40,-1,3,73,38,-67,-18,53
1491692984246,2,45,6,46,0,45,-80,-24,-9
1491692984247,3,-66,-54,18,-84,29,-26,21,34
1491692984247,3,69,4,23,-21,26,39,54,47
1491692984293,0,45,77,60,-4,28,127,32,6
1491692984293,0,12,9,-9,-53,8,-79,-47,-35
1491692984294,1,-59,-115,-128,-62,4,-84,-51,-46
1491692984294,1,-62,32,113,-21,13,42,9,-2
1491692984295,3,20,-27,-78,125,-7,-79,-14,-38
1491692984295,3,-19,-32,-21,35,17,18,26,-1
1491692984296,0,-15,-31,34,-128,1,16,18,27
1491692984296,0,-18,-31,4,127,-11,-55,-38,-21
1491692984342,1,25,29,13,-118,3,59,17,1
1491692984342,1,-24,5,-32,-11,8,-101,-67,-8
1491692984343,2,-27,-52,-23,-40,-2,20,57,-60
1491692984343,2,26,20,127,44,-7,80,35,71
1491692984344,0,-27,-13,0,-128,-4,86,12,-45
1491692984344,0,-41,17,-35,-79,0,75,-38,15
1491692984345,1,56,50,127,59,-2,-33,35,33
1491692984345,1,74,8,49,10,-1,-19,-2,-8
1491692984390,2,-27,-38,-99,-10,1,-67,-61,35
1491692984390,2,-21,-25,-29,-82,-77,98,84,-38
1491692984391,3,30,-21,-69,-28,-62,-44,-107,-34
1491692984391,3,1,89,82,127,71,102,30,1
1491692984392,1,-107,11,62,38,103,100,30,-19
1491692984392,1,34,-21,1,-54,41,-46,-24,3
1491692984393,2,-29,24,63,47,127,29,27,25
1491692984393,2,-5,-15,-5,-22,15,-40,-26,-20
1491692984439,3,-38,-36,-31,85,70,40,51,-26
1491692984439,3,-27,-25,-23,-25,75,33,-12,-16
1491692984440,0,-11,-18,-104,-72,-63,6,-13,-25
1491692984440,0,-13,-37,18,-49,74,-124,-25,-9
1491692984441,1,19,82,23,-87,-70,-3,-18,44
1491692984441,1,16,-4,59,47,80,117,6,-42
1491692984442,2,32,75,-13,39,16,-35,23,7
1491692984442,2,-42,-44,-128,-58,-103,-104,-48,-24
1491692984488,3,-66,11,35,-55,43,115,105,-4
1491692984488,3,-44,30,72,20,16,72,8,51
1491692984489,0,34,1,-104,127,-69,88,-20,-29
1491692984489,0,-69,-78,-65,-46,-20,127,-19,-16
1491692984490,2,-23,-3,111,-127,108,17,-16,-46
1491692984490,2,22,127,-2,111,34,98,13,-9
1491692984491,3,66,-81,-37,54,-63,-34,1,27
1491692984491,3,48,-33,-57,-30,-67,-37,7,69
1491692984540,0,-74,54,23,75,-76,-64,-67,13
1491692984540,0,-9,-49,-21,-15,26,-60,86,4
1491692984541,1,-28,32,120,-68,-24,-56,-13,-56
1491692984541,1,50,-33,36,30,90,-47,19,-5
1491692984542,3,21,-38,48,-34,106,117,-4,7
1491692984542,3,-75,33,-68,28,-128,-94,-37,-57
1491692984543,0,74,60,-14,-40,-36,-72,-46,38
1491692984543,0,-21,-53,82,92,-7,-19,-55,36
1491692984585,1,-16,-24,-35,-79,-113,-69,52,-10
1491692984585,1,59,-5,-6,9,-28,-12,0,-30
1491692984587,2,-37,-67,-19,-25,34,86,29,-38
1491692984587,2,-11,52,70,-36,52,-23,-28,1
1491692984588,0,40,-43,26,44,-81,2,46,-26
1491692984588,0,75,-10,7,-70,-12,-15,-14,-15
1491692984589,1,9,46,-37,14,-11,-47,-58,4
1491692984589,1,-56,-8,32,-88,-53,-117,26,-27
1491692984634,2,5,55,74,7,98,23,-14,24
1491692984634,2,6,7,11,28,-45,-93,-5,18
1491692984640,3,-34,-35,40,52,69,-26,-21,-24
1491692984640,3,26,17,-38,45,3,47,43,15
1491692984641,1,-5,-38,-65,-1,-28,-42,44,1
1491692984641,1,-21,-17,57,-13,43,-22,-70,-87
1491692984642,2,-39,21,-3,5,50,36,41,-23
1491692984642,2,70,-10,-7,0,-6,43,37,36
1491692984684,3,35,-23,27,46,40,1,-6,12
1491692984684,3,-8,18,-73,-123,-67,-3,-32,-53
1491692984685,0,-39,-25,19,106,-35,-57,-42,-3
1491692984685,0,-13,-67,-50,-54,-10,-75,2,2
1491692984686,2,45,-7,-19,-15,14,-78,45,48
1491692984686,2,-22,-33,-7,-26,14,3,-7,9
1491692984687,3,18,-47,-48,-27,5,32,50,44
1491692984687,3,-68,16,38,29,12,16,-36,-29
1491692984732,0,32,16,-1,-20,42,20,-42,15
1491692984732,0,6,69,25,98,54,23,26,17
1491692984733,1,23,-13,-24,-121,-16,8,-11,-24
1491692984733,1,2,2,-16,89,-39,-87,-42,-27
1491692984734,3,-4,-4,-29,27,-14,-77,16,-6
1491692984734,3,-34,-8,-12,-96,-25,-9,20,10
1491692984780,0,-3,-14,26,98,90,102,-55,-43
1491692984780,0,28,-84,-30,39,-49,-10,31,22
1491692984782,1,32,20,-18,44,-3,127,-28,-11
1491692984782,1,-1,-68,33,-53,94,127,43,4
1491692984783,2,-47,54,-19,27,-67,77,-45,-20
1491692984783,2,41,60,112,96,106,127,26,7
1491692984784,3,-28,0,-103,-48,-85,-69,1,-18
1491692984784,3,7,-16,-68,-52,-76,-30,-34,7
1491692984829,0,-7,20,92,-76,108,65,66,-8
1491692984829,0,-9,-39,-78,-22,-3,25,-7,-33
1491692984832,1,55,19,-2,68,-22,54,-53,51
1491692984832,1,-28,42,-3,-122,127,54,51,9
1491692984833,0,-7,-83,-66,-62,27,36,-14,32
1491692984833,0,-23,42,25,3,15,-106,23,48
1491692984834,1,-44,38,-98,27,-73,22,-6,-85
1491692984834,1,47,-34,-15,47,-27,37,-29,-13
1491692984878,2,37,10,-27,-49,1,-115,2,-12
1491692984878,2,48,52,63,35,60,85,-16,30
1491692984881,3,-14,32,37,-43,55,39,87,62
1491692984881,3,-55,67,-15,-26,14,17,-40,-4
1491692984882,1,-19,-4,-7,127,-86,-29,-1,-26
1491692984882,1,3,37,-14,54,-5,-38,-40,5
1491692984883,2,-38,54,45,91,20,5,24,-8
1491692984883,2,-9,-8,-67,-128,-34,40,-40,29
1491692984927,3,39,14,82,-5,28,127,-5,17
1491692984927,3,-20,4,-92,-10,-6,10,72,34
1491692984928,0,70,19,-25,-128,-26,-124,-101,9
1491692984928,0,62,12,-6,-37,-10,-21,26,-3
1491692984929,2,-31,-28,-4,-57,76,32,15,-1
1491692984929,2,-64,-35,-68,-42,-50,-122,-35,-10
1491692984940,3,-7,-40,4,-46,30,-48,-48,2
1491692984940,3,22,38,80,-117,22,91,71,9
1491692984976,0,-37,3,85,95,28,-61,34,-12
1491692984976,0,19,-10,-85,-79,-90,-61,-69,13
1491692984977,1,-73,-14,-29,-20,-44,-11,17,-16
1491692984977,1,22,31,96,35,75,14,20,2
1491692984979,3,70,-12,-54,3,17,-89,-36,-46
1491692984979,3,30,-1,50,62,-81,-30,-105,31
1491692984980,0,-28,51,80,-128,72,59,90,48
1491692984980,0,-114,5,-25,127,-23,-121,-19,15
1491692985024,1,44,-34,-128,-105,-89,24,-28,-5
1491692985024,1,14,-30,-33,-88,3,-40,-59,-52
1491692985026,2,-61,54,73,89,51,109,55,-48
1491692985026,2,-27,27,-7,-128,31,-42,-72,-14
1491692985027,0,57,-18,-4,-53,-86,15,-51,34
1491692985027,0,67,29,127,84,16,100,63,-1
1491692985028,1,-96,20,127,-54,-47,-55,-16,-52
1491692985028,1,26,-6,19,41,117,-108,-79,8
1491692985073,2,5,-35,-124,-35,86,83,39,-9
1491692985073,2,-18,-6,-28,24,127,-18,38,25
1491692985074,3,20,19,-52,49,124,27,-29,3
1491692985074,3,34,57,107,11,4,112,9,-49
1491692985075,1,-37,4,-54,-68,-78,96,-38,-32
1491692985075,1,-28,14,72,81,-75,70,41,55
1491692985076,2,39,48,101,-94,-115,57,-23,-50
1491692985076,2,-81,-21,-69,61,-92,-34,-42,10
1491692985122,3,72,-15,-70,-64,-42,40,-64,22
1491692985122,3,-31,-48,-31,-97,-42,-100,-25,-6
1491692985123,0,36,-2,42,-10,-85,32,35,21
1491692985123,0,-77,59,127,-128,-34,69,51,-38
1491692985172,1,18,3,48,109,-8,-81,-40,5
1491692985172,1,-33,12,-15,58,-25,49,10,-44
1491692985174,2,-62,-15,53,41,-25,-128,-87,-44
1491692985174,2,45,44,113,-103,-3,127,71,1
1491692985175,3,84,-35,-45,80,4,-103,21,127
1491692985175,3,17,-27,-128,-128,-4,-10,13,49
1491692985176,0,-65,-29,-110,13,-10,-98,-123,-128
1491692985176,0,12,28,15,-128,-2,66,29,65
1491692985219,2,45,38,10,-45,-7,47,24,18
1491692985219,2,-90,-11,43,14,-9,78,-61,18
1491692985220,3,59,41,42,64,-94,-22,-65,43
1491692985220,3,15,-1,55,112,-115,59,113,-15
1491692985220,0,79,15,8,-42,-128,-62,-18,38
1491692985220,0,-63,-8,-85,-69,-128,-37,-12,-101
1491692985221,3,-73,-14,-64,27,80,-21,9,-9
1491692985221,3,-103,-33,-80,-104,5,60,-3,55
1491692985268,0,32,-26,-35,-111,58,58,-68,-9
1491692985268,0,3,13,61,105,42,-6,-115,-61
1491692985269,1,47,46,127,-28,71,21,39,-11
1491692985269,1,34,-2,-41,-72,117,-81,60,79
1491692985269,0,106,35,-53,-120,-5,-34,32,55
1491692985269,0,-47,-76,-49,112,122,95,-4,-57
1491692985270,1,-100,0,29,-118,45,32,-29,13
1491692985270,1,2,-28,41,5,-57,-75,-51,-128
1491692985316,2,-2,56,56,127,113,-34,46,91
1491692985316,2,24,-23,-18,-128,45,55,-81,22
1491692985317,3,91,21,-107,-20,98,48,98,-3
1491692985317,3,-35,31,5,90,-65,9,-100,-15
1491692985318,1,-66,11,-59,-128,-113,-11,79,41
1491692985318,1,88,-4,-32,35,60,-90,-10,-2
1491692985319,2,-7,-31,8,82,90,76,23,-50
1491692985319,2,-41,15,18,108,-17,-101,91,16
1491692985365,3,18,-9,41,-107,-128,56,-79,9
1491692985365,3,-78,87,127,-72,-128,36,78,-18
1491692985366,0,107,-8,-81,46,104,-86,-37,76
1491692985366,0,-45,-96,-128,-96,100,-74,49,-80
1491692985370,2,-66,-16,-19,-128,-128,20,-55,-16
1491692985370,2,11,-21,-79,68,81,-84,63,84
1491692985371,3,-41,-4,1,-19,-35,-84,-75,-20
1491692985371,3,52,-14,-66,-92,58,95,67,-111
1491692985414,0,-9,19,25,-88,-37,-56,-86,54
1491692985414,0,8,2,36,-32,-2,47,62,83
1491692985415,1,-43,-3,-8,127,-89,17,-80,3
1491692985415,1,-71,4,25,-128,-86,48,-25,-31
1491692985415,3,-17,-26,-4,-29,9,49,20,56
1491692985415,3,64,29,64,69,-45,3,-45,55
1491692985416,0,-11,29,65,62,13,9,-35,-79
1491692985416,0,-38,-16,-54,16,-1,-49,-71,3
1491692985463,1,-3,-37,-63,-19,77,-89,-52,-62
1491692985463,1,-8,-17,-84,-6,40,-56,17,40
1491692985464,2,-39,-17,19,70,70,127,104,-14
1491692985464,2,20,42,34,-97,-41,-24,-128,-14
1491692985464,3,76,-1,55,-60,-71,96,108,-49
1491692985464,3,-40,0,15,82,90,-1,-77,37
1491692985465,0,-26,-13,37,-122,-126,-74,53,-53
1491692985465,0,87,25,-16,127,17,-11,-30,112
1491692985512,1,-84,1,110,-54,66,49,-53,-9
1491692985512,1,90,-23,-78,47,51,-105,-54,-12
1491692985512,2,-28,-22,-50,-98,22,-28,-41,-1
1491692985512,2,-95,-26,-59,-40,40,84,-58,-88
1491692985513,0,37,6,-58,-73,37,-76,46,127
1491692985513,0,-54,-8,17,-80,-96,75,98,-10
1491692985514,1,-59,16,-45,118,-81,39,-118,-78
1491692985514,1,24,14,-20,-22,95,108,127,78
1491692985560,2,-38,-24,-17,40,13,79,52,35
1491692985560,2,113,57,7,-75,-79,50,94,47
1491692985561,3,-30,-26,-62,116,-57,-12,-24,36
1491692985561,3,-92,-64,-111,22,13,14,-128,-55
1491692985562,1,-50,34,28,-83,-123,28,34,-53
1491692985562,1,70,7,19,28,82,-45,113,84
1491692985609,2,-44,-33,-73,-86,-63,-94,-53,-10
1491692985609,2,-57,-40,57,127,-3,-59,-77,-50
1491692985610,3,13,10,0,-119,-54,82,116,-43
1491692985610,3,57,2,83,8,-15,3,20,43
1491692985610,0,-93,59,127,29,-71,124,-54,-28
1491692985610,0,124,-29,-109,-7,15,-128,83,74
1491692985611,2,-63,48,93,121,-88,87,-38,-37
1491692985611,2,-29,27,-41,-101,67,-63,-38,-9
1491692985658,3,127,-24,-39,37,113,40,102,83
1491692985658,3,-42,-7,0,-15,-61,-93,-79,-20
1491692985658,0,-56,-54,-78,-57,-11,-32,53,-31
1491692985658,0,-38,27,31,-128,-128,-26,26,19
1491692985660,3,-23,64,65,-125,-107,11,-80,8
1491692985660,3,-46,14,127,54,1,73,34,94
1491692985660,0,-15,9,-30,-48,60,-25,-56,-72
1491692985660,0,-24,-83,-102,85,127,116,-81,4
1491692985706,1,16,12,53,-84,-95,-11,-84,37
1491692985706,1,-43,7,-52,69,-2,15,50,-57
1491692985707,2,111,9,74,-36,-55,21,10,44
1491692985707,2,-8,94,65,-11,-66,84,51,24
1491692985708,0,4,-30,-23,53,64,25,-5,-21
1491692985708,0,-43,-79,-36,-32,30,-96,-46,6
1491692985709,1,49,58,127,-83,-100,97,25,-50
1491692985709,1,90,-6,-109,-9,109,-96,16,110
1491692985755,2,10,-15,-40,110,45,-5,78,-42
1491692985755,2,55,4,25,-96,-107,25,-128,-4
1491692985757,3,-128,-41,-128,127,34,82,89,-75
1491692985757,3,77,16,75,-128,62,-94,-55,41
1491692985758,1,114,28,64,-27,-127,52,73,-73
1491692985758,1,-43,3,-122,15,31,5,-43,27
1491692985759,2,-51,-68,-112,12,69,-91,-89,4
1491692985759,2,-82,-16,106,-36,-77,19,-46,20
1491692985804,3,50,46,65,-106,-101,76,66,104
1491692985804,3,74,2,13,64,18,-94,-57,-39
1491692985806,0,-35,-35,-52,93,83,45,-77,-57
1491692985806,0,31,30,6,-76,-71,61,127,48
1491692985807,1,-41,-90,-122,98,127,-118,-128,9
1491692985807,1,-28,-9,101,-110,-25,95,57,-47
1491692985809,2,48,40,60,-128,-71,-98,-29,19
1491692985809,2,-95,-54,27,84,26,53,-88,-79
1491692985853,3,-66,74,66,-75,-11,58,85,40
1491692985853,3,68,33,32,-63,-113,75,-30,-70
1491692985855,0,-4,-37,-26,127,35,55,-48,31
1491692985855,0,-43,-63,-36,-73,72,54,-54,24
1491692985902,2,127,107,127,-128,-72,69,-59,27
1491692985902,2,63,53,78,-41,-34,63,119,59
1491692985904,3,-48,-39,-128,77,127,-92,-128,-68
1491692985904,3,-108,-19,55,-115,21,-33,33,-36
1491692985905,0,98,-8,-19,20,12,-37,87,33
1491692985905,0,-49,-33,-128,46,-11,-73,4,43
1491692985906,1,-54,47,-21,-83,-128,-30,-82,-36
1491692985906,1,50,34,54,127,67,72,101,45
1491692985950,3,42,-35,-102,-74,122,80,91,63
1491692985950,3,-6,-41,-128,-128,-83,1,-128,5
1491692985952,0,29,-29,-8,81,-59,-27,-62,-12
1491692985952,0,-23,16,100,-28,4,127,96,-21
1491692985954,1,-45,23,54,27,-30,-29,-26,-66
1491692985954,1,-1,26,68,-38,-22,122,2,62
1491692985955,0,30,61,9,-128,-128,-123,-46,22
1491692985955,0,-23,-39,-40,87,114,-68,-52,-7
1491692985999,1,-74,-15,36,28,-28,117,45,-46
1491692985999,1,48,108,78,-92,-128,-12,-54,71
1491692986001,2,-66,-104,-123,127,127,-61,56,-46
1491692986001,2,5,24,-12,-128,-97,-93,90,14
1491692986003,1,-17,-43,-97,61,127,5,43,-55
1491692986003,1,-61,-8,68,33,-78,103,43,-40
1491692986004,2,23,83,53,-83,-106,70,53,45
1491692986004,2,36,20,34,49,-128,127,-28,-5
1491692986048,3,2,45,-3,-41,-68,-118,-28,34
1491692986048,3,-1,-128,-128,125,127,-118,-111,-19
1491692986049,0,-23,51,96,-124,-61,127,127,34
1491692986049,0,8,10,-36,105,112,-99,8,-39
1491692986050,2,24,1,25,-1,95,-12,-13,12
1491692986050,2,42,100,127,-128,55,127,24,16
1491692986051,3,-25,-9,-23,104,77,-104,11,7
1491692986051,3,8,-124,-122,12,106,-98,-21,41
1491692986096,0,-66,-16,89,92,-76,92,-33,-75
1491692986096,0,33,-14,-127,-128,-36,-49,24,21
1491692986098,1,-48,37,-65,-14,7,37,-14,6
1491692986098,1,77,111,-39,-113,96,74,36,15
1491692986099,3,44,-24,92,84,-125,-43,18,4
1491692986099,3,-43,8,115,-53,-128,-29,-7,-22
1491692986100,0,-39,-10,50,-74,-108,17,-4,13
1491692986100,0,-22,-23,110,81,-128,1,-14,-27
1491692986145,1,41,-38,30,-99,-96,-82,-70,5
1491692986145,1,-55,15,-28,121,-128,51,-74,-24
1491692986146,2,55,29,90,45,-121,77,69,17
1491692986146,2,-5,-27,-128,68,-112,-99,-15,-42
1491692986147,0,-77,9,25,-105,106,59,20,-23
1491692986147,0,105,101,84,-128,127,75,26,16
1491692986148,1,-57,21,25,59,127,-43,23,0
1491692986148,1,34,-7,103,-44,91,-5,-18,-20
1491692986194,2,-26,-83,-128,56,109,-69,-30,20
1491692986194,2,-14,-24,67,21,89,-55,-10,-3
1491692986195,3,-2,5,-32,-60,117,89,0,33
1491692986195,3,-3,18,75,86,-22,-116,13,5
1491692986196,0,-32,0,-65,35,-48,-51,-50,-21
1491692986196,0,-17,27,16,-81,48,66,0,-52
1491692986197,1,-36,-58,-114,107,-106,-20,11,5
1491692986197,1,57,57,98,16,92,109,33,17
1491692986243,2,9,-48,-105,-49,-124,-75,-8,7
1491692986243,2,-49,-61,-43,-41,29,-69,-128,-8
1491692986244,3,37,6,33,-64,112,85,54,-31
1491692986244,3,-36,7,68,-54,96,-4,36,-18
1491692986245,1,-44,-95,-59,-90,-81,-71,-61,6
1491692986245,1,-29,-39,17,-63,32,10,-18,14
1491692986246,2,16,5,0,-100,94,57,-27,-17
1491692986246,2,-7,19,79,7,69,-60,-24,-27
1491692986292,3,29,122,127,-90,127,127,61,-13
1491692986292,3,-30,-62,-128,127,-128,-119,-33,24
1491692986293,0,-19,-106,-98,12,-96,-95,-112,-32
1491692986293,0,60,46,74,-51,51,127,122,45
1491692986293,2,-4,-22,-34,28,85,37,24,19
1491692986293,2,7,-17,51,60,-33,-11,-88,-26
1491692986295,3,-23,16,-16,35,11,58,-79,-23
1491692986295,3,30,-61,56,30,37,127,93,19
1491692986341,0,5,76,52,58,-7,109,41,33
1491692986341,0,-22,25,-42,15,8,122,20,-20
1491692986342,1,-27,44,100,-83,58,-18,-61,-58
1491692986342,1,-4,-86,-102,127,-112,-41,-72,55
1491692986343,3,-54,7,18,124,-104,-35,24,-7
1491692986343,3,-3,-39,-6,-35,-7,-36,-84,-53
1491692986344,0,58,12,23,-31,-4,-93,25,-6
1491692986344,0,-90,99,54,108,25,30,-14,19
1491692986389,1,19,46,-5,-128,-68,-117,2,56
1491692986389,1,54,-14,-18,29,-82,-65,61,-11
1491692986391,2,26,14,65,47,-9,14,11,19
1491692986391,2,-11,24,38,-62,-48,-88,-52,-16
1491692986392,0,36,80,127,-108,55,-57,36,-46
1491692986392,0,34,-19,-128,49,-63,-88,-91,-9
1491692986393,1,-7,20,-38,78,26,-22,102,31
1491692986393,1,-95,-16,42,-128,-56,-27,-19,-70
1491692986438,2,21,34,-19,26,-25,-6,27,21
1491692986438,2,-13,-34,61,97,11,-23,-20,-6
1491692986440,3,36,-43,-88,-92,28,-81,-47,-13
1491692986440,3,-21,29,59,102,27,24,13,-7
1491692986441,1,15,23,35,-73,-107,25,-26,43
1491692986441,1,-2,37,63,87,71,26,32,-10
1491692986442,2,0,-54,-36,-117,-95,-29,-2,1
1491692986442,2,-21,80,116,67,54,-20,22,23
1491692986487,3,59,-37,-86,-35,36,-27,4,-17
1491692986487,3,-16,38,-2,-98,46,-79,-40,-5
1491692986488,0,-39,-77,-65,20,-24,36,-4,-61
1491692986488,0,-1,-56,-71,16,-125,-41,55,22
1491692986490,2,2,-56,-71,-106,-78,-70,-68,-86
1491692986490,2,63,74,48,-76,113,80,35,43
1491692986491,3,-40,-33,-77,102,-104,-26,-7,-19
1491692986491,3,23,19,-9,-49,8,59,-1,-8
1491692986535,0,-2,12,117,127,123,25,20,38
1491692986535,0,-35,-41,-88,42,-64,-9,-21,-33
1491692986537,1,8,12,-42,-77,-89,33,-48,-11
1491692986537,1,-29,-21,-10,-65,-59,-30,65,-24
1491692986538,2,39,-25,82,81,74,79,2,28
1491692986538,2,-4,25,-66,-110,-40,-81,-40,5
1491692986539,3,44,-25,-9,-57,-35,-22,37,47
1491692986539,3,1,-56,-45,68,-12,8,-33,-23
1491692986584,0,-59,-3,-5,-128,-70,46,74,19
1491692986584,0,12,0,126,79,127,97,51,-1
1491692986587,1,52,-8,66,23,-43,-93,-43,-18
1491692986587,1,-47,-50,-82,36,-77,-17,-14,51
1491692986588,3,-10,33,82,-9,112,57,16,20
1491692986588,3,62,1,-87,83,-108,53,27,-4
1491692986589,0,-38,-10,-128,-68,-128,-118,-33,20
1491692986589,0,-22,-40,100,55,108,72,-50,-53
1491692986633,1,-35,36,-15,-48,63,-65,55,-17
1491692986633,1,42,26,-39,4,77,-3,43,16
1491692986634,2,-23,38,73,91,114,46,48,-24
1491692986634,2,0,68,-117,34,-47,116,25,35
1491692986636,0,-34,-36,-128,87,-128,-100,-60,9
1491692986636,0,-11,-15,-1,-29,67,81,-6,18
1491692986637,1,14,41,47,41,97,14,4,-16
1491692986637,1,25,3,45,-83,39,51,-9,8
1491692986730,2,17,33,115,-10,84,-11,-58,-43
1491692986730,2,-23,20,48,15,51,31,32,40
1491692986733,3,-33,-38,-6,-57,70,99,14,-16
1491692986733,3,32,20,-28,45,-104,2,-13,-11
1491692986733,1,-42,-28,-79,115,-102,-101,-70,-14
1491692986733,1,11,-33,-12,-100,119,-37,-31,59
1491692986734,2,-17,-7,24,-95,104,1,74,54
1491692986734,2,24,-19,-79,-34,31,-2,-11,-13
1491692986779,3,7,86,126,77,28,4,24,25
1491692986779,3,-24,-14,25,-128,75,-12,-18,-68
1491692986780,0,-2,11,-90,127,-115,-22,0,8
1491692986780,0,16,-4,122,-70,36,-4,-14,-6
1491692986780,2,-20,24,101,-128,-28,92,80,-7
1491692986780,2,-3,-22,9,71,-100,-59,40,12
1491692986781,3,-71,9,127,106,80,84,-3,-30
1491692986781,3,-12,-28,-56,-19,-47,23,-13,-6
1491692986828,0,47,-27,-122,-128,-78,-87,-19,9
1491692986828,0,24,-2,43,114,-31,-59,-39,8
1491692986828,1,-7,-16,5,-84,48,-9,23,-6
1491692986828,1,-83,44,91,71,-8,114,27,-27
1491692986831,0,8,10,44,-90,49,127,48,-1
1491692986831,0,-29,-32,-30,79,-46,-128,-10,-25
1491692986831,1,46,35,71,72,89,9,-54,-15
1491692986831,1,-58,-6,-72,-29,-69,23,1,-21
1491692986876,2,-10,-31,-27,21,17,3,-18,-6
1491692986876,2,19,-13,-32,-15,-62,22,9,56
1491692986878,3,-24,-19,-44,-1,-6,-36,4,-32
1491692986878,3,9,9,77,92,13,-29,-4,-5
1491692986878,0,26,24,64,8,67,10,14,38
1491692986878,0,-9,4,-54,-48,-94,-21,-39,-32
1491692986879,1,7,-6,10,11,2,-31,75,23
1491692986879,1,28,25,92,73,98,58,-39,5
1491692986925,2,-29,-24,-97,-97,-85,48,11,-67
1491692986925,2,-42,-63,-113,7,-99,-128,-36,4
1491692986927,3,7,-3,26,25,49,93,68,26
1491692986927,3,32,0,56,-46,39,27,-33,5
1491692986928,1,18,-21,-56,-56,-78,31,-40,-29
1491692986928,1,15,-18,55,73,6,-1,30,-16
1491692986929,2,-18,49,61,-90,127,37,-17,-28
1491692986929,2,14,2,-3,100,-107,-26,9,-20
1491692986974,3,37,-22,-11,92,25,-102,-73,70
1491692986974,3,-42,3,-42,-114,-19,9,57,-6
1491692986975,0,-28,-33,-103,118,-110,11,-105,-38
1491692986975,0,3,6,-10,-95,70,8,92,64
1491692986976,2,38,20,39,-105,23,-38,34,69
1491692986976,2,-24,-8,6,-17,-41,18,-99,-62
1491692986976,3,-3,-20,-50,-61,-37,-96,-3,-31
1491692986976,3,10,-13,-128,-77,-17,85,34,-40
1491692987023,0,-37,22,69,41,65,-101,10,43
1491692987023,0,-18,11,45,73,20,16,-25,-11
1491692987025,1,54,50,114,-24,32,29,-24,33
1491692987025,1,-22,-2,-128,99,-101,-76,26,-13
1491692987026,3,-106,18,93,73,19,63,-73,-25
1491692987026,3,-1,19,34,-104,6,-21,-38,21
1491692987027,0,50,-29,-42,-57,-99,20,41,14
1491692987027,0,-12,25,51,-88,39,68,-17,23
1491692987072,1,-1,28,6,49,-86,-83,66,20
1491692987072,1,56,-12,-47,108,-43,53,1,-1
1491692987074,2,-54,-26,-38,-80,108,-84,37,19
1491692987074,2,-15,-16,24,-100,9,81,-68,-52
1491692987075,0,-20,-4,25,127,5,-73,-38,-40
1491692987075,0,-38,6,-74,-111,3,51,77,40
1491692987079,1,-20,-13,31,67,7,70,-10,-41
1491692987079,1,29,-26,34,-8,33,-99,-53,20
1491692987121,2,-25,18,-7,-99,-76,97,-74,32
1491692987121,2,85,13,49,-22,10,-20,96,11
1491692987123,3,40,23,49,-84,35,125,-22,27
1491692987123,3,-35,-11,-65,98,71,-127,-18,25
1491692987124,1,-32,-36,-128,65,-45,-46,-29,-10
1491692987124,1,37,16,127,-50,-62,70,42,-33
1491692987125,2,-7,29,26,-71,22,-13,-58,-33
1491692987125,2,-19,-24,-56,46,48,-96,-31,5
1491692987178,3,-15,9,-35,-69,-71,-49,50,18
1491692987178,3,-52,5,113,34,27,6,-98,-63
1491692987179,0,17,17,-39,-35,26,2,73,2
1491692987179,0,-54,-42,-48,-23,-128,-4,-10,-46
1491692987180,2,101,-14,-27,22,2,8,-19,-39
1491692987180,2,-26,10,22,94,38,69,54,21
1491692987181,3,-10,51,74,-128,77,21,-108,9
1491692987181,3,-6,-50,-106,127,-50,-114,54,32
1491692987218,0,28,10,-33,-122,-31,77,112,27
1491692987218,0,-11,31,68,85,113,59,71,-36
1491692987220,1,26,13,25,22,-98,110,53,43
1491692987220,1,-48,-1,-64,-64,24,31,-49,-27
1491692987221,3,-26,-29,-66,-82,-82,77,17,-49
1491692987221,3,29,0,31,-1,-78,45,46,81
1491692987222,0,23,32,92,124,3,23,-54,3
1491692987222,0,-32,-62,-108,-103,-128,93,-71,-111
1491692987267,1,-86,14,93,111,127,-81,107,78
1491692987267,1,53,-1,-26,-128,108,20,11,-36
1491692987268,2,-11,-5,127,127,112,-81,-54,-65
1491692987268,2,-46,31,127,41,-44,105,44,-41
1491692987270,3,10,-28,17,50,-65,-122,-51,63
1491692987270,3,15,-10,39,-18,-128,78,44,-19
1491692987271,0,18,-7,86,106,-75,-14,33,26
1491692987271,0,-15,36,-5,-34,-70,-91,-49,9
1491692987316,1,-74,-12,-119,-110,-122,44,-105,-120
1491692987316,1,5,15,-55,-18,-38,67,28,-6
1491692987364,2,6,-18,-92,62,-44,-63,-27,-14
1491692987364,2,-14,-25,-122,-98,-54,75,-123,-56
1491692987366,0,25,34,-58,-127,-60,69,-84,31
1491692987366,0,-78,-12,52,100,71,-54,23,-70
1491692987367,1,35,7,15,-81,127,62,-16,52
1491692987367,1,14,7,101,-24,73,81,44,-9
1491692987368,2,3,7,-118,32,-20,-118,-5,-51
1491692987368,2,-61,58,-36,10,-105,-61,-108,20
1491692987413,3,45,32,12,-58,25,127,69,-3
1491692987413,3,-24,-92,-105,25,120,-88,-70,4
1491692987414,1,-29,16,77,82,-85,44,-5,-32
1491692987414,1,-15,40,95,-8,-9,79,123,-14
1491692987415,2,-76,-6,15,79,101,-61,-65,-11
1491692987415,2,119,-3,-57,-77,127,-81,-49,1
1491692987416,2,-97,-10,32,83,26,-14,-83,-52
1491692987416,2,40,17,72,-128,-56,26,41,25
1491692987462,3,7,3,-44,62,-13,-59,30,42
1491692987462,3,-4,-9,-112,-128,-75,-80,-93,-118
1491692987463,0,50,19,39,61,37,98,78,57
1491692987463,0,9,-20,4,127,82,-30,82,-21
1491692987465,3,-45,-32,-42,32,122,-23,2,29
1491692987465,3,-17,-28,-124,80,19,49,85,16
1491692987466,0,61,35,44,-39,-90,92,0,41
1491692987466,0,-56,1,74,65,23,-43,70,56
1491692987511,1,12,-2,-48,-70,7,32,34,-20
1491692987511,1,-122,-26,-41,-61,-84,-102,-128,-128
1491692987512,2,-19,-48,-110,35,85,-35,-16,42
1491692987512,2,17,40,91,-79,-128,95,18,64
1491692987513,0,-12,-7,-116,-128,-91,6,6,-14
1491692987513,0,-64,-26,29,97,97,67,-11,-44
1491692987514,1,68,-26,-80,49,-91,-24,33,-42
1491692987514,1,-71,-18,-128,-126,19,51,44,12
1491692987559,2,75,-31,-23,-38,59,-37,21,8
1491692987559,2,-105,34,59,67,-83,-14,-116,-55
1491692987568,3,84,4,67,-39,-54,-103,-54,-65
1491692987568,3,-11,25,-29,7,-69,-32,38,52
1491692987569,1,66,32,127,127,83,81,-35,63
1491692987569,1,63,32,-8,123,38,-19,-41,-58
1491692987570,2,-87,-68,-105,-63,119,-39,32,-88
1491692987570,2,126,4,-128,-103,-35,-49,20,65
1491692987608,3,-128,-15,0,110,82,115,9,-86
1491692987608,3,51,24,109,-46,-93,105,52,62
1491692987610,0,-53,-3,77,-40,93,-119,-11,-14
1491692987610,0,75,-1,76,92,49,106,24,36
1491692987611,1,-24,38,79,-104,-38,-48,21,96
1491692987611,1,-19,-20,47,49,127,-34,-72,-84
1491692987612,2,-90,41,127,-1,-128,123,-128,27
1491692987612,2,-103,-47,-84,-28,67,14,108,25
1491692987656,3,113,-41,-95,-18,116,-84,27,-42
1491692987656,3,-28,31,112,-52,-77,86,-21,-15
1491692987657,0,-47,-15,-10,-64,-48,-85,-94,-3
1491692987657,0,58,5,-63,15,58,2,-10,0
1491692987658,2,75,6,-50,-33,33,32,-38,-53
1491692987658,2,-11,7,-53,60,127,-128,-83,36
1491692987659,3,-100,-44,-95,-29,84,-32,-38,-20
1491692987659,3,106,9,91,28,-11,-56,-50,64
1491692987705,0,-59,10,-31,20,-105,-6,36,-25
1491692987705,0,-42,-33,-51,61,-47,51,116,-84
1491692987706,1,63,31,88,63,-19,60,-62,-36
1491692987706,1,-95,48,43,-72,-122,-84,-24,25
1491692987707,3,-102,-43,-74,-68,-64,-57,-68,-107
1491692987707,3,-66,-29,0,30,-64,54,-43,-49
1491692987708,0,97,50,26,-81,-113,53,34,63
1491692987708,0,6,39,127,102,-88,127,-33,-31
1491692987754,1,-78,12,-1,-53,106,-79,94,57
1491692987754,1,71,12,-31,-103,-7,49,-97,15
1491692987755,2,-118,-37,-79,-74,22,-68,108,-86
1491692987755,2,-46,58,87,-54,-89,87,-86,-1
1491692987756,0,-3,-14,44,-48,-30,1,2,8
1491692987756,0,-8,62,120,-15,-97,13,47,-25
1491692987756,1,-16,-4,20,80,-87,68,-23,-45
1491692987756,1,43,-3,38,13,-109,7,-45,-29
1491692987803,2,11,-7,-97,12,119,-65,-112,37
1491692987803,2,-102,-51,-30,37,106,-3,77,12
1491692987804,3,-22,80,96,-128,-128,114,-87,-45
1491692987804,3,5,-9,-102,-52,127,-65,52,111
1491692987805,1,41,-27,63,-51,60,44,93,-9
1491692987805,1,79,55,60,-30,-97,-29,-69,-76
1491692987806,2,-43,-32,-55,-83,92,43,-29,20
1491692987806,2,127,48,44,10,-50,20,-16,57
1491692987853,3,-63,4,60,127,96,3,3,-15
1491692987853,3,-8,-1,-75,-85,-37,72,-56,21
1491692987855,0,21,-1,-41,-50,44,-104,-10,-11
1491692987855,0,13,-81,-78,69,72,-95,-57,-9
1491692987855,2,11,56,120,127,119,-40,-125,-73
1491692987855,2,24,42,103,-51,-128,96,127,-53
1491692987856,3,-29,6,-61,-18,82,-102,-128,-26
1491692987856,3,-39,-61,-95,-69,-20,-87,108,-8
1491692987901,0,18,-4,-33,65,-29,127,-25,14
1491692987901,0,28,12,-35,-128,-90,-84,-42,-54
1491692987902,1,-51,-16,26,125,59,-31,-100,-12
1491692987902,1,-6,-17,-1,-84,-45,-128,-34,31
1491692987905,3,115,100,79,-116,-128,75,107,73
1491692987905,3,-60,-28,37,127,127,61,19,18
1491692987905,0,-87,-24,-83,-100,39,-106,-100,14
1491692987905,0,63,-15,-25,3,62,47,60,-37
1491692987950,1,-88,-96,-41,74,81,-72,-42,-4
1491692987950,1,18,21,-36,48,-52,3,15,-51
1491692987951,2,-36,16,112,23,0,84,92,1
1491692987951,2,-26,28,42,-28,-111,-53,-36,31
1491692987952,3,51,-12,-44,-28,75,2,92,48
1491692987952,3,49,17,74,-42,-108,31,46,-123
1491692987953,0,58,20,76,101,-91,-91,-22,23
1491692987953,0,-95,5,-84,-67,127,4,28,-14
1491692988046,1,34,-55,-20,45,34,4,-24,-38
1491692988046,1,-19,10,49,39,-52,4,-20,51
1491692988048,2,32,-32,2,8,-127,66,46,-12
1491692988048,2,-20,28,-12,-56,-103,74,9,53
1491692988048,0,12,29,-24,-128,-120,-58,-74,10
1491692988048,0,-57,-22,27,98,19,-128,-30,16
1491692988049,1,15,2,-76,-128,-128,127,25,-33
1491692988049,1,51,-10,-8,105,6,-82,3,20
1491692988095,2,-17,24,10,-55,0,19,43,-2
1491692988095,2,-48,-75,-25,106,69,13,79,47
1491692988096,3,-83,-48,-41,-115,37,-65,-62,-81
1491692988096,3,21,6,-44,-90,37,53,74,31
1491692988097,1,17,-5,-50,24,29,-42,-15,42
1491692988097,1,-61,-35,-128,-21,38,-70,-128,-106
1491692988098,2,19,-27,35,45,5,119,-36,-35
1491692988098,2,-13,31,-10,-110,-3,-18,70,2
1491692988144,3,42,41,69,21,4,52,69,-14
1491692988144,3,-49,-39,-47,64,8,-82,-32,23
1491692988145,0,-71,-8,58,61,-7,37,-20,-15
1491692988145,0,39,45,-39,-98,3,42,3,24
1491692988146,3,44,38,70,-49,-19,127,77,-5
1491692988146,3,-24,2,25,86,-6,-2,-19,6
1491692988147,0,62,30,52,31,-19,-37,12,14
1491692988147,0,-53,-20,-73,-14,5,-80,-9,-88
1491692988242,1,-10,-33,-112,-58,0,-37,-18,-19
1491692988242,1,81,102,127,1,-6,127,54,35
1491692988243,2,-46,1,-120,56,10,-97,-41,-5
1491692988243,2,-41,-91,-128,-67,33,10,-48,-77
1491692988246,0,2,66,105,77,-9,54,-6,-9
1491692988246,0,28,-25,-83,82,-97,-92,-101,27
1491692988248,1,-8,-27,-101,-92,-128,46,18,-41
1491692988248,1,53,4,71,37,-128,-66,8,66
1491692988292,2,-26,2,84,-48,-103,50,-33,-46
1491692988292,2,5,24,127,-127,-122,89,26,22
1491692988294,3,16,8,19,87,-128,-6,-82,9
1491692988294,3,13,26,-4,31,-116,-50,33,-33
1491692988295,1,-20,-10,-40,-117,-128,127,96,-12
1491692988295,1,21,-24,-84,-39,-128,-92,-78,-27
1491692988296,2,-18,-4,-25,-26,-119,20,-23,27
1491692988296,2,-7,-11,64,103,13,37,-3,-4
1491692988341,3,32,6,-62,-109,102,-34,14,40
1491692988341,3,-45,45,-1,99,127,-17,-26,-59
1491692988343,0,-4,-4,37,68,127,0,10,13
1491692988343,0,-14,-49,-68,-84,122,-15,-21,-25
1491692988344,2,-4,-1,-71,-17,127,-24,95,-72
1491692988344,2,-33,-11,-46,67,119,-8,-48,31
1491692988345,3,-3,8,-39,-128,65,-22,-80,3
1491692988345,3,-27,-10,-38,-37,87,13,4,-25
1491692988388,0,31,-13,7,84,107,-46,-11,-33
1491692988388,0,0,69,58,-128,81,113,47,-3
1491692988389,1,32,-22,-17,81,-37,18,-30,-4
1491692988389,1,-12,12,-58,61,-71,-24,65,-22
1491692988389,3,12,-39,-71,101,-27,-91,-37,5
1491692988389,3,39,21,52,-63,-64,-10,-46,5
1491692988390,0,31,15,-81,-116,-6,10,27,43
1491692988390,0,19,-12,27,-18,33,4,7,-27
1491692988485,1,-50,60,127,41,84,127,23,-10
1491692988485,1,32,28,52,18,27,-9,71,3
1491692988488,2,-24,-49,-128,-103,-89,33,18,-16
1491692988488,2,-13,14,62,48,47,-30,-120,-19
1491692988489,0,9,-7,-36,-94,29,49,-35,-13
1491692988489,0,-18,-52,-118,-44,-107,-108,-2,-14
1491692988490,1,-25,17,70,22,74,127,29,-29
1491692988490,1,34,19,41,-5,-19,-21,-60,13
1491692988534,2,-17,12,83,88,64,83,37,-5
1491692988534,2,-2,9,-44,12,-36,-51,-27,2
1491692988535,3,-20,-28,-62,42,-29,-39,47,-18
1491692988535,3,-10,-84,6,13,19,83,42,-27
1491692988535,1,23,61,21,-93,30,30,63,22
1491692988535,1,-46,-42,-39,46,-124,-47,-79,-28
1491692988536,2,-17,-33,-81,-55,13,-41,-23,-65
1491692988536,2,17,0,65,73,-26,43,-6,25
1491692988583,3,-37,-7,61,-91,102,38,-8,0
1491692988583,3,28,21,-87,-60,-106,-45,-40,19
1491692988584,0,-31,-22,-18,55,-76,-73,-23,16
1491692988584,0,23,26,69,106,75,105,31,-45
1491692988584,3,24,35,57,19,-13,64,-2,-7
1491692988584,3,-3,-34,18,37,126,103,23,-10
1491692988585,0,23,73,-82,-73,-108,-76,-8,-38
1491692988585,0,18,-45,-34,-43,-11,-86,0,44
1491692988632,1,7,45,8,54,13,7,13,60
1491692988632,1,13,12,50,-128,54,-35,69,4
1491692988632,2,-33,-11,5,127,-16,-15,-85,-37
1491692988632,2,28,18,-63,-38,4,-48,69,25
1491692988633,0,-27,-38,14,-10,88,30,29,-39
1491692988633,0,-27,45,64,-67,13,-1,-38,26
1491692988634,1,123,1,8,71,-16,4,0,66
1491692988634,1,9,35,-9,-35,-48,-27,-10,0
1491692988680,2,-66,11,96,46,99,82,-13,-38
1491692988680,2,32,-85,-108,41,-98,-95,8,18
1491692988681,3,-101,-69,15,-59,-59,-30,-25,-82
1491692988681,3,34,-6,9,7,-12,-30,-6,38
1491692988682,0,-23,-70,-8,-18,-59,-43,26,-21
1491692988682,0,-39,13,69,37,43,66,21,-20
1491692988683,1,-46,-14,-19,-19,-3,-10,-10,-30
1491692988683,1,92,5,-5,34,-42,-32,-36,-19
1491692988735,2,-35,-22,-7,-26,-29,-58,35,47
1491692988735,2,19,-7,49,8,-26,14,21,-24
1491692988736,3,-3,-29,-83,-26,-48,15,-5,4
1491692988736,3,-38,-31,71,48,-17,29,-8,-2
1491692988737,1,0,30,102,29,112,1,33,13
1491692988737,1,-67,-41,-109,28,-108,-69,-43,-27
1491692988737,2,34,16,-15,12,-8,0,23,-6
1491692988737,2,-30,-8,-39,-67,43,2,-35,-20
1491692988778,3,40,3,116,-14,79,86,5,3
1491692988778,3,-5,47,-70,-38,84,15,16,-7
1491692988827,0,-26,-36,-29,-40,3,-25,59,-23
1491692988827,0,20,-13,9,47,0,26,-4,38
1491692988828,2,16,7,-46,-28,-25,-21,-65,-23
1491692988828,2,-28,42,25,18,42,57,-28,-28
1491692988829,3,6,-2,-72,99,-7,-57,2,0
1491692988829,3,-2,-24,-79,-95,-89,-30,-4,46
1491692988830,0,4,-18,12,-38,9,40,-8,9
1491692988830,0,-47,3,58,27,-59,-59,-31,-40
1491692988875,1,99,26,14,12,24,86,29,41
1491692988875,1,-14,34,52,7,27,-13,13,-12
1491692988877,3,-24,16,-39,102,18,29,55,2
1491692988877,3,-11,-27,12,-76,-17,13,-5,-7
1491692988878,0,-30,10,0,-51,20,3,-4,26
1491692988878,0,19,-6,-7,-25,10,6,-25,-2
1491692988879,0,54,32,18,6,-6,-41,-4,2
1491692988879,0,-18,-27,-51,13,-24,15,-19,7
1491692988924,1,-23,11,-32,-109,-72,-124,40,4
1491692988924,1,-13,14,83,74,93,1,-14,-52
1491692988925,2,22,-30,-62,-4,-82,37,58,39
1491692988925,2,-24,-13,-26,-4,-34,8,-38,-8
1491692988926,1,-24,-21,7,-106,5,77,44,49
1491692988926,1,22,43,-61,111,-25,11,-9,13
1491692988927,2,5,6,19,-22,25,56,-29,-7
1491692988927,2,-6,-5,16,-13,44,27,8,1
1491692988973,3,39,4,-57,-11,14,79,-33,-49
1491692988973,3,4,-36,36,-70,14,84,22,51
1491692988974,0,-32,7,10,6,7,43,21,-5
1491692988974,0,17,0,19,28,68,21,-10,-37
1491692988975,2,-56,-20,-88,40,-120,-40,-108,-9
1491692988975,2,20,0,41,-67,33,35,-59,-15
1491692988976,3,48,38,-24,8,57,39,36,22
1491692988976,3,-6,39,90,-7,76,37,19,-3
1491692989022,0,-10,-1,40,93,58,35,27,96
1491692989022,0,-24,-71,-38,66,-35,-4,-11,-15
1491692989023,1,5,-31,-56,-105,-59,-103,-35,-53
1491692989023,1,13,-2,-15,26,73,10,-17,13
1491692989024,2,4,73,14,-122,-81,-40,7,-38
1491692989024,2,-24,42,44,-11,108,89,31,71
1491692989025,3,1,-21,-94,127,-128,-15,-66,-10
1491692989025,3,38,31,83,-16,-15,-31,16,-30
1491692989070,0,-62,-41,-96,53,91,76,10,-15
1491692989070,0,28,43,82,51,40,-39,-20,-5
1491692989071,1,3,-5,0,-56,17,75,-40,5
1491692989071,1,28,-20,-85,-100,-73,36,-64,32
1491692989072,3,-6,44,84,31,94,-45,-7,65
1491692989072,3,-63,45,43,80,-32,42,-48,-14
1491692989073,0,69,-11,-19,-128,19,24,24,-51
1491692989073,0,2,-1,-81,64,-101,-11,-4,14
1491692989119,1,12,2,91,43,-42,-128,-11,-14
1491692989119,1,-32,-13,-28,-47,68,19,3,33
1491692989120,2,14,1,-28,-92,-4,-46,-31,-21
1491692989120,2,-21,-33,-26,54,7,105,61,-20
1491692989121,0,-16,25,85,-7,31,78,12,-13
1491692989121,0,105,-16,-48,63,-64,-115,2,29
1491692989121,1,-67,-76,-101,-84,-128,109,-9,-46
1491692989121,1,-50,-16,44,-56,54,-103,-18,-46
1491692989168,2,56,0,-72,41,30,-8,17,9
1491692989168,2,16,34,-40,-87,11,49,12,-9
1491692989169,3,-25,19,44,10,-50,-128,19,7
1491692989169,3,-23,-5,43,51,68,90,-55,-7
1491692989169,1,-9,-7,-8,-128,18,37,24,50
1491692989169,1,27,-14,-33,52,-35,32,7,-9
1491692989170,2,-24,-10,124,112,118,-55,-62,17
1491692989170,2,-3,19,67,-76,-67,109,16,-14
1491692989216,3,-7,-26,-100,52,14,-119,-40,-32
1491692989216,3,-8,-4,4,-50,-14,85,-11,-31
1491692989217,0,5,-15,-30,-19,-72,18,21,18
1491692989217,0,-56,25,127,-2,127,15,-35,7
1491692989218,2,26,-6,63,44,-110,65,-67,-17
1491692989218,2,-90,-33,-89,62,-38,-91,-75,28
1491692989219,3,35,0,37,-62,-19,48,3,-15
1491692989219,3,-11,9,31,-60,-32,-32,-41,58
1491692989315,0,10,-19,-90,4,91,-21,-21,1
1491692989315,0,26,22,-24,-92,-49,73,53,1
1491692989316,1,-86,-18,32,-55,66,50,-7,3
1491692989316,1,73,7,7,50,-128,-20,26,-22
1491692989317,3,96,41,44,20,123,-47,109,14
1491692989317,3,-31,-65,-81,-33,-87,-75,-105,-27
1491692989363,0,3,42,127,-114,22,6,96,32
1491692989363,0,-43,-65,-128,91,74,-128,7,-32
1491692989365,1,-53,-23,124,19,-113,41,-53,-31
1491692989365,1,82,58,99,109,127,79,46,-8
1491692989366,2,-6,-20,-11,-62,-37,-47,-20,-64
1491692989366,2,6,36,107,-128,-101,46,-13,58
1491692989367,0,10,-2,-43,100,-51,-43,-37,4
1491692989367,0,69,-1,-102,-32,-58,-7,-46,-37
1491692989417,1,43,29,39,-128,-70,-3,29,77
1491692989417,1,-5,12,-84,48,-27,-91,13,-62
1491692989418,2,-118,-54,-123,118,-38,16,-25,-34
1491692989418,2,-2,2,-26,-110,-117,59,-7,-13
1491692989419,1,-38,2,47,-30,127,48,26,0
1491692989419,1,79,-3,-128,-44,57,-40,-114,-15
1491692989420,2,-25,-19,-51,55,101,-32,81,69
1491692989420,2,11,4,62,-86,127,45,-69,20
1491692989509,3,12,23,29,26,31,13,50,-56
1491692989509,3,-108,-43,-35,-128,99,62,41,-3
1491692989558,0,29,21,67,-31,47,-1,-5,77
1491692989558,0,-14,-1,-78,-65,-79,11,-49,-48
1491692989559,2,-61,-50,-109,53,104,103,-33,-50
1491692989559,2,-37,-36,-38,-12,99,-126,-39,2
1491692989561,3,-10,-23,-45,-1,-51,57,-19,81
1491692989561,3,8,28,46,-81,99,96,79,-65
1491692989561,0,31,28,66,97,-50,83,14,91
1491692989561,0,-46,7,34,-79,-62,-49,21,-71
1491692989607,1,-71,-6,-38,-116,-1,-48,-7,-57
1491692989607,1,13,-6,56,53,-37,-56,-41,33
1491692989608,3,32,-33,-128,-57,-38,-116,-40,-8
1491692989608,3,-40,43,91,108,68,70,-21,4
1491692989608,0,-68,-6,20,-81,-104,-46,-73,15
1491692989608,0,40,45,75,121,-97,1,11,-10
1491692989609,1,12,-7,55,118,29,-62,-96,25
1491692989609,1,67,2,23,-38,-96,31,-73,-20
1491692989655,2,-14,8,82,-53,-21,60,102,-70
1491692989655,2,18,8,0,72,-71,-74,-42,6
1491692989656,3,-79,-44,-55,16,82,7,-14,2
1491692989656,3,86,46,16,57,-42,-95,15,-52
1491692989656,2,65,3,-39,-128,-50,53,111,-20
1491692989656,2,-25,3,-19,-111,29,33,-22,3
1491692989657,3,-10,1,52,-24,-24,-23,-46,9
1491692989657,3,-23,-26,-39,22,82,40,39,4
1491692989704,0,-8,16,41,9,-128,-96,-20,-23
1491692989704,0,-53,28,44,127,73,67,-17,-5
1491692989705,1,89,16,9,-32,-59,59,-10,31
1491692989705,1,-52,-18,-44,-97,-50,-34,79,19
1491692989706,2,-61,-38,-127,-119,22,-37,15,-25
1491692989706,2,76,18,38,127,-38,40,29,-1
1491692989707,3,5,28,66,42,-63,-56,-58,-77
1491692989707,3,14,-21,-86,-30,110,25,36,59
1491692989753,0,-120,-31,-61,83,0,-55,-97,-23
1491692989753,0,50,47,85,-128,-128,64,38,60
1491692989754,1,50,-17,-89,68,107,23,13,-41
1491692989754,1,-49,-74,-126,-72,75,-70,-67,-54
1491692989802,3,-24,33,26,-31,3,-72,22,16
1491692989802,3,-43,-8,68,105,-24,24,-11,34
1491692989810,0,45,-21,-23,-80,14,-24,-40,29
1491692989810,0,8,14,67,95,-55,-77,55,-23
1491692989812,1,-51,22,11,-101,-22,-85,43,19
1491692989812,1,-13,-23,-22,35,-32,-36,-20,-27
1491692989812,2,44,5,48,56,43,-21,-89,41
1491692989812,2,-15,-20,-15,-56,-82,52,5,-114
1491692989851,0,10,-22,-40,106,111,18,31,-22
1491692989851,0,20,-57,-75,98,89,-114,-127,50
1491692989852,1,-121,-25,-46,-73,-82,6,80,-88
1491692989852,1,-45,27,17,-128,-103,39,-115,-84
1491692989853,2,80,42,114,26,-128,85,103,71
1491692989853,2,6,-4,48,51,8,-15,-8,-20
1491692989854,1,34,-35,-32,80,99,84,52,73
1491692989854,1,-34,-15,13,16,28,-81,-6,-31
1491692989899,2,32,40,105,122,58,68,-20,-10
1491692989899,2,-18,9,-28,-128,-52,-59,17,29
1491692989901,3,-49,-21,-64,-17,37,56,63,-38
1491692989901,3,14,-3,-50,-66,89,65,95,42
1491692989902,2,1,-1,-48,-128,-44,-55,50,92
1491692989902,2,44,2,27,17,-104,28,-82,-82
1491692989903,3,-73,-15,-6,-71,-34,-36,-80,-71
1491692989903,3,45,30,72,62,-40,-17,74,-11
1491692989948,0,34,-30,-120,75,90,-3,-1,51
1491692989948,0,76,-13,-77,-76,68,11,-22,3
1491692989949,1,-29,39,117,-54,-70,-87,-60,17
1491692989949,1,-50,30,108,29,-118,51,-57,-20
1491692989950,3,70,20,22,-13,-112,34,-62,-19
1491692989950,3,-3,8,-68,-128,-92,46,-18,51
1491692989951,0,8,22,104,62,45,-112,-17,-9
1491692989951,0,-15,-2,11,15,110,127,81,101
1491692989997,1,35,-4,-1,-75,127,-115,-88,-88
1491692989997,1,70,11,-84,-102,50,-74,65,46
1491692989998,2,-35,-72,-128,-54,-27,-12,-31,-37
1491692989998,2,-57,36,127,22,-128,-47,-75,0
1491692989999,0,38,-7,13,89,95,-97,6,22
1491692989999,0,-19,2,-28,-128,-123,105,-79,-62
1491692990000,1,-2,17,-9,127,44,-51,102,62
1491692990000,1,16,-58,-95,96,7,91,-83,-82
1491692990046,2,1,3,-15,-128,-64,29,-103,13
1491692990046,2,-19,30,51,-16,-25,109,99,5
1491692990047,3,28,-9,-67,-119,42,80,16,114
1491692990047,3,-122,-34,-17,127,96,-23,-106,-38
1491692990048,1,-100,9,116,5,-128,11,-19,-94
1491692990048,1,80,24,12,-62,127,-10,68,57
1491692990049,2,38,19,49,-75,-3,26,-12,17
1491692990049,2,-93,-72,-102,36,119,-128,-121,-31
1491692990095,3,-31,-28,-21,-68,97,57,1,-111
1491692990095,3,-10,8,70,-63,127,-2,79,103
1491692990097,0,79,43,56,-128,-114,127,-8,-33
1491692990097,0,32,-10,-47,97,75,-118,-17,-52
1491692990099,1,-69,-51,-128,-34,32,66,-128,-2
1491692990099,1,11,-14,-57,-36,41,56,54,62
1491692990101,2,-61,24,84,22,-115,99,105,-38
1491692990101,2,121,53,102,61,-117,-22,39,4
1491692990144,3,26,35,63,-14,-128,-1,-70,-17
1491692990144,3,-57,9,74,-121,-115,-25,11,-41
1491692990148,0,-51,-63,-108,112,112,-118,-49,-44
1491692990148,0,-38,-73,-111,-128,118,28,-3,-44
1491692990150,2,-10,-34,-84,-14,64,29,-2,-14
1491692990150,2,-24,12,51,-91,56,3,18,99
1491692990151,3,20,-34,-65,55,9,-9,-92,-39
1491692990151,3,25,-5,-36,22,73,80,112,37
1491692990191,0,25,55,56,-90,-16,10,60,-6
1491692990191,0,-23,-41,-33,72,-92,55,-51,-53
1491692990192,1,-18,10,18,-34,31,-49,112,87
1491692990192,1,36,4,12,-35,78,-93,-82,-11
1491692990193,3,66,24,18,8,-43,-53,33,3
1491692990193,3,-98,-7,42,78,-128,-24,-61,-57
1491692990194,0,-16,24,27,-98,-50,35,-24,17
1491692990194,0,49,-30,-22,69,76,-6,103,18
1491692990240,1,0,22,-26,-4,-65,-9,-36,22
1491692990240,1,-9,47,56,-110,27,-32,-20,-25
1491692990242,2,95,-50,54,105,51,125,101,-43
1491692990242,2,-26,-28,-92,-128,109,-42,-107,102
1491692990243,0,-89,-19,-53,-78,94,32,73,-84
1491692990243,0,79,50,56,33,-53,89,25,70
1491692990243,1,-12,-17,-14,-57,-4,49,56,52
1491692990243,1,-63,-2,3,126,41,-55,-99,-10
1491692990289,2,14,-8,-5,-106,-65,-99,-8,-34
1491692990289,2,-7,50,-59,-70,14,-5,79,-13
1491692990290,3,72,33,82,-14,-107,11,-28,-16
1491692990290,3,-58,-27,34,1,-73,52,-6,-46
1491692990291,1,-70,-107,-98,82,110,-128,14,-111
1491692990291,1,2,15,-20,-10,1,78,28,-5
1491692990292,2,32,57,63,-52,-46,-9,-19,39
1491692990292,2,36,-11,-47,49,33,-15,42,-7
1491692990338,3,32,-8,-26,22,-34,77,26,28
1491692990338,3,-50,-37,-2,-93,-52,-35,55,-81
1491692990339,0,64,93,127,72,-98,81,-69,-51
1491692990339,0,-26,-2,-20,-30,39,21,43,7
1491692990340,2,53,66,42,-80,-128,-34,-63,17
1491692990340,2,76,57,75,-111,-125,88,4,-6
1491692990341,3,-93,-33,-55,127,125,-33,-57,-48
1491692990341,3,19,-38,-86,-34,55,-52,-35,8
1491692990386,0,-58,-11,28,-29,-10,4,6,97
1491692990386,0,28,44,89,112,-64,60,32,-21
1491692990388,1,74,21,-32,14,-90,-36,58,15
1491692990388,1,-79,-79,-100,-85,55,34,86,70
1491692990389,3,52,90,127,-88,-128,59,-31,18
1491692990389,3,55,32,-54,104,76,-100,45,0
1491692990389,0,-79,-23,24,54,4,64,86,60
1491692990389,0,-17,-13,7,-45,-61,11,16,-12
1491692990435,1,-44,-87,-81,-3,84,-75,-91,4
1491692990435,1,71,-42,-97,-87,13,-62,-114,5
1491692990436,2,-26,4,42,-41,56,-46,54,21
1491692990436,2,5,7,59,19,-96,-24,-52,59
1491692990437,3,-45,57,106,-99,89,60,105,-57
1491692990437,3,-2,-6,-12,-89,-63,93,-11,5
1491692990438,0,-85,-63,-108,60,52,-69,-31,-11
1491692990438,0,12,-59,-39,-20,45,-29,-88,-72
1491692990484,1,60,19,-5,12,-77,85,10,51
1491692990484,1,17,60,127,24,-23,32,-20,-28
1491692990485,2,26,127,101,47,-72,111,73,-21
1491692990485,2,31,-90,-128,46,107,-82,5,15
1491692990488,0,-36,12,42,23,-92,47,68,-68
1491692990488,0,-53,76,127,-23,-20,-80,65,-7
1491692990489,1,-39,17,56,98,-122,127,-82,-9
1491692990489,1,2,-36,-107,17,67,-107,-88,-34
1491692990533,2,-15,-128,-128,-88,127,9,50,41
1491692990533,2,7,9,65,50,-67,10,40,-58
1491692990534,3,27,59,54,-75,-1,79,11,38
1491692990534,3,-54,52,57,-74,-41,-93,24,17
1491692990535,1,-13,0,-3,-77,-41,-71,-7,-19
1491692990535,1,-28,48,100,51,-106,40,-73,-24
1491692990536,2,36,56,114,-36,-121,61,82,-2
1491692990536,2,-40,-22,-128,69,55,-56,-68,30
1491692990581,3,21,-52,-37,-40,-52,23,-63,-61
1491692990581,3,-25,-5,-52,-45,-96,-9,22,-10
1491692990589,0,19,11,83,30,91,-3,-19,-26
1491692990589,0,-2,35,28,-128,-101,113,103,62
1491692990590,2,-33,-35,-78,-123,118,-108,-32,-101
1491692990590,2,87,-5,18,9,22,-45,-24,43
1491692990591,3,23,116,127,-51,-102,93,108,54
1491692990591,3,-37,18,-28,127,112,-80,-49,-6
1491692990630,0,-63,-17,-71,-88,-74,-32,-81,-42
1491692990630,0,23,28,9,56,104,59,-33,25
1491692990632,1,-7,27,75,-30,-54,73,50,0
1491692990632,1,54,-81,-20,54,127,-74,-117,-9
1491692990633,3,25,-24,-19,101,26,-18,12,81
1491692990633,3,-69,-5,7,100,52,60,24,-12
1491692990633,0,45,-68,-9,-53,-35,-72,-92,59
1491692990633,0,-1,-24,-1,-111,-122,72,68,29
1491692990679,1,-45,63,127,18,-83,44,48,29
1491692990679,1,20,32,127,10,-98,107,59,60
1491692990680,2,107,-21,-81,-10,-77,-117,-3,12
1491692990680,2,-43,44,16,102,-125,81,-20,-10
1491692990681,0,-26,37,71,-83,84,46,-2,48
1491692990681,0,6,-27,-25,65,84,-88,-105,-3
1491692990682,1,-7,29,72,24,-76,56,88,17
1491692990682,1,45,10,53,34,-9,-101,47,-10
1491692990728,2,-12,55,48,-11,-128,71,14,-24
1491692990728,2,-79,-106,-114,-7,111,-124,20,-73
1491692990729,3,30,-13,19,42,127,22,-29,35
1491692990729,3,117,86,100,-101,-116,94,42,80
1491692990729,1,-1,29,42,-76,-100,103,-5,-60
1491692990729,1,66,4,-74,63,89,-82,-18,63
1491692990730,2,-41,-31,-69,63,52,55,82,-59
1491692990730,2,17,14,-70,-96,67,-91,13,27
1491692990776,3,-41,-12,61,2,2,11,-30,-31
1491692990776,3,3,33,83,-58,-19,86,18,21
1491692990777,0,-45,43,23,-27,-117,75,-99,-100
1491692990777,0,18,6,103,-12,19,-55,-2,37
1491692990778,1,32,-34,-114,-52,49,37,60,31
1491692990778,1,-31,-122,-128,-84,121,-128,-110,-25
1491692990779,2,3,-63,32,19,-51,71,16,97
1491692990779,2,-43,109,127,14,-128,127,-92,-16
1491692990825,3,43,67,17,21,-118,-31,-38,-77
1491692990825,3,-14,14,-7,-88,-102,38,89,49
1491692990826,0,23,-29,95,115,127,-72,-25,10
1491692990826,0,-45,16,-71,21,49,37,-20,-57
1491692990826,2,-10,52,126,-19,-128,88,6,-25
1491692990826,2,105,-66,-71,75,-128,-56,32,42
1491692990828,3,-106,-17,-55,-71,-75,76,-5,-43
1491692990828,3,5,39,107,-128,-120,88,101,43
1491692990874,0,22,18,-85,33,-86,-125,56,16
1491692990874,0,-3,-28,-75,60,-85,-60,-38,-12
1491692990875,1,61,16,-26,-95,-46,73,86,28
1491692990875,1,-25,-66,-47,63,-62,-7,-42,-53
1491692990875,3,-12,-39,-56,-99,-32,-70,-43,33
1491692990875,3,-3,64,127,-21,-13,34,-55,-29
1491692990876,0,-34,-60,33,-73,-1,-89,4,-13
1491692990876,0,51,71,127,-111,-31,127,92,0
1491692990923,1,7,-31,-24,127,-2,-47,-8,-6
1491692990923,1,-29,-61,-113,46,-1,124,-41,8
1491692990923,2,-27,-28,-21,-51,-109,-128,-110,3
1491692990923,2,22,9,85,-128,-128,85,93,29
1491692990924,0,-13,-53,-128,127,-127,-48,-28,1
1491692990924,0,-10,-11,35,10,-45,79,-13,-16
1491692990925,1,-14,22,65,-37,86,62,-5,-29
1491692990925,1,67,79,66,18,110,-49,44,43
1491692990971,2,7,-14,47,-53,127,91,12,24
1491692990971,2,-5,-11,-74,-59,120,-31,-18,11
1491692990972,3,-29,28,74,74,121,1,-72,-42
1491692990972,3,-24,-17,-59,-40,30,-3,22,-18
1491692990973,1,27,-27,-89,-41,31,36,0,-40
1491692990973,1,37,30,-3,-124,63,26,35,8
1491692990976,2,7,-33,-34,72,47,23,2,-34
1491692990976,2,-39,-19,23,48,90,-56,-58,-6
1491692991020,3,-21,15,-1,-54,127,3,-30,15
1491692991020,3,49,34,56,-42,34,-36,19,10
1491692991021,0,-17,-13,-15,-92,7,-16,-40,-6
1491692991021,0,7,19,-77,18,2,-2,-14,-1
1491692991022,2,-12,-5,-11,-57,102,15,22,30
1491692991022,2,-1,5,19,12,-58,36,2,-19
1491692991023,3,45,90,96,34,107,63,-42,-14
1491692991023,3,-61,-71,-109,127,-108,-128,32,-2
1491692991069,0,20,-21,20,-114,-56,-8,-95,11
1491692991069,0,-20,-15,74,-56,84,75,50,-1
1491692991070,1,-27,-48,-98,-56,51,-22,-3,5
1491692991070,1,-22,55,106,5,50,29,-16,-14
1491692991071,3,-18,13,27,70,-52,-50,-55,-16
1491692991071,3,0,-5,-72,-41,-31,-10,34,-31
1491692991072,0,-22,-11,49,21,6,-22,55,54
1491692991072,0,-12,-23,-88,-14,42,-1,25,-5
1491692991118,1,0,13,13,-97,-18,-8,4,-14
1491692991118,1,-65,-75,-11,-70,-13,-33,-3,-8
1491692991119,2,22,-15,60,97,-24,20,-16,-44
1491692991119,2,22,125,17,-39,12,11,-13,31
1491692991120,3,15,54,71,108,55,58,20,0
1491692991120,3,21,-62,-99,-82,-17,-40,-87,-31
1491692991123,0,-71,31,-23,-102,-22,62,39,38
1491692991123,0,92,-59,21,42,-37,41,8,7
1491692991167,1,-60,47,35,-3,6,63,-28,-20
1491692991167,1,56,66,-9,24,67,93,15,22
1491692991168,2,4,61,41,-5,30,36,-76,-39
1491692991168,2,-70,-106,-101,23,-17,62,68,-43
1491692991170,0,51,-16,-105,-85,15,-61,39,-6
1491692991170,0,-4,3,14,92,-108,-101,-81,7
1491692991170,1,-26,11,-51,-1,-1,19,19,-62
1491692991170,1,-123,-107,10,40,-34,-53,-88,-24
1491692991216,2,89,113,98,-79,-37,-13,78,-47
1491692991216,2,-11,-6,89,-15,98,-6,12,79
1491692991217,3,-30,93,-100,-36,-128,-109,-13,-13
1491692991217,3,-36,-68,17,-11,-20,-65,-30,-30
1491692991218,1,-20,-58,7,6,-11,-50,-1,27
1491692991218,1,-37,68,-72,-96,-2,7,8,-5
1491692991227,2,-21,29,70,50,35,24,0,-66
1491692991227,2,-15,-5,-8,8,-46,-78,-29,-7
1491692991264,3,35,-33,26,-71,-13,33,4,21
1491692991264,3,-3,7,8,34,-51,-23,-40,-5
1491692991313,0,-24,-60,-101,18,3,23,24,10
1491692991313,0,9,30,42,-2,-33,-17,-16,-6
1491692991315,2,-5,-37,-2,63,-98,-97,-56,14
1491692991315,2,-30,12,-15,-19,38,45,-9,-68
1491692991316,3,-48,-14,41,0,-23,-45,-33,25
1491692991316,3,80,39,-2,-60,38,19,20,6
1491692991317,0,-9,-20,96,-24,34,25,-15,-12
1491692991317,0,2,9,-51,-38,-22,-36,-22,-17
1491692991362,1,-16,32,-32,-107,-32,-49,46,23
1491692991362,1,5,10,110,64,40,34,47,4
1491692991363,3,24,7,-30,-13,12,-18,-10,-37
1491692991363,3,-25,-46,-10,8,-46,20,-29,31
1491692991369,0,-11,73,21,30,47,35,38,-12
1491692991369,0,-25,-15,-68,-79,-4,68,8,-8
1491692991371,0,-37,8,113,92,51,12,8,1
1491692991371,0,-22,-44,-57,-43,-24,-106,-62,-12
1491692991410,1,14,-39,-72,-60,-22,-23,66,24
1491692991410,1,-2,13,-19,-43,21,27,10,-32
1491692991411,2,-12,11,-21,-59,-94,-114,-9,5
1491692991411,2,6,23,21,47,46,37,-17,5
1491692991412,1,81,10,21,44,-10,19,8,-1
1491692991412,1,-68,-29,-79,-76,14,-97,-21,0
1491692991414,2,6,10,47,-1,55,-4,-9,17
1491692991414,2,54,-26,23,53,-56,-32,-22,-4
1491692991459,3,-25,-40,-48,-84,-25,16,18,-17
1491692991459,3,18,1,18,-77,-32,-108,37,-3
1491692991460,0,-61,-73,52,-1,112,29,-28,-24
1491692991460,0,63,-30,-97,92,-3,3,0,13
1491692991461,2,3,36,22,45,-13,-22,26,-13
1491692991461,2,-39,48,-16,-55,45,17,28,-6
1491692991463,3,36,35,34,-10,36,13,-26,35
1491692991463,3,-19,17,-35,-34,-37,44,0,34
1491692991508,0,4,28,52,82,-17,91,9,-5
1491692991508,0,-21,22,26,43,-27,60,-34,67
1491692991509,1,-9,-107,-69,20,42,65,20,-39
1491692991509,1,46,-35,-4,80,80,98,-29,-6
1491692991510,2,39,21,-59,-28,-61,-3,14,-2
1491692991510,2,-48,4,24,-85,-15,27,-3,-61
1491692991511,3,-66,67,25,20,2,62,-33,4
1491692991511,3,59,66,51,-17,33,-50,-10,-14
1491692991556,0,35,-22,52,79,81,101,33,36
1491692991556,0,-6,53,-41,-95,70,10,30,-30
1491692991558,1,-40,-20,63,-72,-65,54,10,25
1491692991558,1,-45,11,-80,127,-53,48,-69,-1
1491692991559,3,6,5,-14,-96,73,-5,-19,-29
1491692991559,3,-35,18,23,69,-111,68,-8,17
1491692991560,0,-37,52,49,-120,14,-100,80,-17
1491692991560,0,4,-59,-87,78,22,105,-48,11
1491692991605,1,-63,25,-14,-15,13,-9,28,-29
1491692991605,1,54,31,77,26,27,-46,66,18
1491692991606,2,22,-96,-124,55,-96,-75,-16,23
1491692991606,2,-19,-44,2,-120,102,-3,-44,21
1491692991607,0,28,0,52,26,-7,63,34,32
1491692991607,0,-21,-2,-4,-29,-40,-97,-39,-19
1491692991608,1,-7,-29,-15,-66,-128,-73,-47,-17
1491692991608,1,-47,-21,-30,-107,-54,23,47,32
1491692991654,2,98,4,12,-124,54,41,-17,7
1491692991654,2,-30,-1,4,82,-24,-65,35,24
1491692991655,3,-10,-58,-11,0,8,110,-82,-24
1491692991655,3,21,-28,104,-12,38,85,9,-13
1491692991656,1,-30,22,-62,-83,50,76,124,54
1491692991656,1,-118,-97,-128,-58,-128,-128,-110,-80
1491692991657,2,2,30,18,-11,-10,33,37,22
1491692991657,2,101,18,-15,-128,78,-14,-72,2
1491692991703,3,-31,52,88,127,83,45,68,15
1491692991703,3,-50,2,-48,-52,-55,14,6,-2
1491692991752,0,-54,-37,-75,-128,-50,-128,-76,-46
1491692991752,0,-48,61,127,2,83,45,58,5
1491692991753,2,-35,45,-11,102,16,28,-23,-82
1491692991753,2,-42,-23,12,-49,-54,22,-20,67
1491692991754,3,65,32,69,75,102,-68,-16,-31
1491692991754,3,-37,21,61,-31,-20,90,-73,-8
1491692991756,0,47,7,32,-74,38,37,23,9
1491692991756,0,-90,-63,-102,64,-96,23,17,-70
1491692991800,1,79,18,33,-63,0,87,28,83
1491692991800,1,-28,15,-15,-41,-74,-104,-24,45
1491692991801,3,56,-73,-97,115,-48,-128,-56,-76
1491692991801,3,77,-25,-65,-50,19,40,-32,116
1491692991802,0,66,-13,25,-6,-12,45,102,-50
1491692991802,0,-38,7,-13,91,67,-72,-62,-75
1491692991802,1,-36,25,-7,-128,-128,83,-47,-29
1491692991802,1,44,22,83,127,127,26,78,81
1491692991849,2,-54,-7,-75,-45,-73,39,13,-45
1491692991849,2,9,-76,-128,29,-115,-36,-78,21
1491692991850,3,-72,-39,38,-80,-108,92,-65,-45
1491692991850,3,56,69,37,81,67,24,55,34
1491692991850,0,-23,-8,50,-124,-20,-38,50,93
1491692991850,0,-17,59,40,-43,118,-64,35,-38
1491692991851,1,40,-21,68,79,19,-92,-49,50
1491692991851,1,-55,-32,-82,-114,-113,8,-8,12
1491692991898,2,36,-47,-10,127,-29,-110,-103,1
1491692991898,2,-64,-38,-128,-128,-128,78,-5,45
1491692991899,3,-6,15,28,50,105,-89,5,-40
1491692991899,3,42,34,114,54,115,113,-9,-52
1491692991899,1,66,-58,-60,23,-112,20,-1,-62
1491692991899,1,-123,-3,10,-43,-119,6,31,-78
1491692991900,2,22,-20,-70,74,35,-64,5,-76
1491692991900,2,-6,-12,17,-27,-27,37,-45,36
1491692991946,3,78,21,20,19,88,-75,34,81
1491692991946,3,-55,15,-13,38,-72,-56,-71,-58
1491692991947,0,-12,-8,89,104,127,-53,51,55
1491692991947,0,99,-13,-36,-116,-6,-9,-3,-57
1491692991948,2,-109,-29,-33,86,-5,-29,-27,-50
1491692991948,2,39,-4,119,-55,-76,14,-23,-88
1491692991949,3,43,-32,-128,39,52,-108,59,51
1491692991949,3,-82,-35,-55,-91,-54,19,-47,-13
1491692991995,0,109,31,48,-51,-21,102,89,30
1491692991995,0,-64,16,86,69,68,-36,-67,5
1491692991996,1,-47,14,52,-93,-121,127,11,29
1491692991996,1,-29,33,47,94,71,-76,107,29
1491692991997,3,-72,-3,-22,-78,-19,92,-95,-20
1491692991997,3,-93,-72,12,122,80,-75,24,8
1491692991998,0,-128,-52,-57,-128,-30,-58,-107,-44
1491692991998,0,127,29,4,40,64,1,90,62
1491692992044,1,-47,28,92,-128,-71,53,72,43
1491692992044,1,-85,-12,-68,48,80,-33,-78,-58
1491692992045,2,8,7,99,-68,112,11,108,55
1491692992045,2,100,18,19,66,123,31,-10,39
1491692992046,0,18,5,-8,47,126,87,20,-38
1491692992046,0,-58,-17,10,26,105,-86,2,15
1491692992047,1,-53,-22,21,-18,43,-70,-15,13
1491692992047,1,100,-11,-42,97,-88,50,-128,-98
1491692992101,2,11,57,78,-89,-128,48,7,63
1491692992101,2,83,-1,-128,41,-125,0,122,-43
1491692992106,3,-17,-22,-77,4,-99,-89,-80,-11
1491692992106,3,103,4,0,-128,-102,98,12,-18
1491692992107,1,-1,2,0,-3,-39,-74,78,73
1491692992107,1,5,-17,-35,-62,-64,-18,-65,-35
1491692992108,2,-43,50,64,-68,-33,81,-46,-91
1491692992108,2,-59,-31,9,-7,-29,-128,-49,38
1491692992141,3,-20,-76,-128,48,-25,104,-30,22
1491692992141,3,-6,19,122,-29,-11,119,63,-40
1491692992143,0,-13,10,-70,-39,-15,-31,-21,120
1491692992143,0,52,12,-56,-111,-12,6,80,54
1491692992144,2,-9,-11,-58,110,-9,-39,58,-68
1491692992144,2,-38,-56,-83,-93,-14,41,-115,-49
1491692992145,3,3,27,35,110,11,-20,18,54
1491692992145,3,-18,27,96,-71,-1,94,46,-55
1491692992195,0,16,-7,-74,27,-15,-122,-47,-47
1491692992195,0,-1,8,55,10,-3,122,-25,-9
1491692992196,1,48,4,-74,24,6,-3,55,-20
1491692992196,1,-69,-78,-89,-19,-11,-27,-114,-17
1491692992197,2,17,5,-13,-63,-31,91,21,-16
1491692992197,2,27,19,18,-76,6,-103,52,-22
1491692992198,3,-41,12,80,55,24,60,-56,8
1491692992198,3,38,29,20,-7,-2,-13,67,28
1491692992239,0,29,0,-18,61,13,5,45,31
1491692992239,0,-50,-5,6,47,-32,-25,-128,-57
1491692992240,1,23,28,125,-9,-64,69,33,-41
1491692992240,1,-111,-7,-49,-94,-108,-57,-68,91
1491692992241,3,91,-3,-22,90,-48,58,5,-10
1491692992241,3,-53,-38,-64,-39,-42,-78,-39,-87
1491692992242,0,4,31,37,-128,45,7,-87,54
1491692992242,0,37,10,27,127,85,68,32,5
1491692992288,1,6,9,-20,-128,-62,-100,44,64
1491692992288,1,50,27,69,127,83,111,25,-4
1491692992289,2,38,4,16,-104,-108,-9,-9,17
1491692992289,2,-94,-24,-105,97,116,-107,-104,-47
1491692992336,0,-85,-38,-19,65,40,121,1,2
1491692992336,0,22,6,49,-68,41,-20,52,91
1491692992337,1,20,21,62,83,-29,-18,-63,4
1491692992337,1,-86,-22,44,107,47,-68,-81,-35
1491692992385,2,86,29,-23,-108,-26,26,40,24
1491692992385,2,-23,-30,-12,85,-80,-51,-103,-54
1491692992386,3,-51,-16,-109,-91,-63,-45,-65,11
1491692992386,3,25,9,46,70,-57,52,56,4
1491692992387,1,-13,37,90,-108,-52,46,4,-29
1491692992387,1,89,-4,-109,105,101,61,-84,-96
1491692992388,2,2,-59,-75,-59,-48,-70,100,5
1491692992388,2,-117,-29,-34,-95,-48,-3,-76,-116
1491692992484,3,72,8,60,32,47,74,6,40
1491692992484,3,-71,92,124,-128,21,-19,127,119
1491692992487,2,15,-10,-64,-117,29,-116,-107,-94
1491692992487,2,49,-16,28,90,-128,-3,14,38
1491692992489,3,-19,24,-3,127,79,102,64,-43
1491692992489,3,-118,-20,-51,-128,-128,0,-115,-35
1491692992490,0,104,-28,-45,127,83,54,80,47
1491692992490,0,-38,-12,-36,-101,-67,0,19,-67
1491692992532,1,6,-22,8,-40,-38,-25,-107,-57
1491692992532,1,-35,9,82,-68,65,-78,75,82
1491692992533,2,-6,64,45,22,-66,55,-12,77
1491692992533,2,-102,-21,-48,-47,32,-21,-42,-62
1491692992534,0,-20,6,-10,-34,-56,-45,-128,-17
1491692992534,0,17,7,23,89,-56,34,86,110
1491692992535,1,52,16,9,-31,-63,-24,-15,-24
1491692992535,1,-4,-25,-27,33,-47,-41,-21,6
1491692992580,2,-35,15,-1,-113,51,-7,54,1
1491692992580,2,35,-15,-13,-98,31,-18,-29,53
1491692992588,3,-6,7,54,81,-29,54,-71,-43
1491692992588,3,-42,-4,-103,-79,-84,-76,85,63
1491692992589,1,-31,-66,-118,123,-62,33,-60,-49
1491692992589,1,8,2,-3,-90,-69,90,-13,-15
1491692992591,2,50,1,49,-19,39,-114,-96,-23
1491692992591,2,-53,27,59,7,-20,14,23,-27
1491692992629,3,25,-11,23,-128,-104,-32,64,29
1491692992629,3,-77,-24,-128,-10,-14,16,-122,-45
1491692992630,0,-64,-9,-2,-36,-14,-56,44,-84
1491692992630,0,47,43,115,-59,-48,74,64,55
1491692992631,2,-35,-42,-128,-93,18,-73,15,-73
1491692992631,2,-25,-15,10,89,2,75,-128,0
1491692992632,3,-17,-12,-33,-111,-128,87,122,61
1491692992632,3,49,5,67,94,127,36,106,15
1491692992678,0,-23,-4,-38,-128,-18,106,-44,-39
1491692992678,0,-106,8,14,-88,-3,-123,33,-4
1491692992679,1,28,-8,50,49,70,-81,-126,-70
1491692992679,1,103,7,-41,-60,127,6,76,14
1491692992679,3,-28,1,-96,78,62,12,6,-7
1491692992679,3,-71,-82,-74,-55,-21,-103,-67,32
1491692992680,0,23,4,-4,11,27,58,36,-31
1491692992680,0,31,-15,4,127,46,15,63,-7
1491692992726,1,-70,10,25,-128,123,25,-11,4
1491692992726,1,40,40,127,77,5,48,-17,9
1491692992727,2,-102,-14,-71,-81,124,-10,-29,-17
1491692992727,2,53,-41,-10,73,38,-2,-87,-58
1491692992728,0,-16,28,-73,-128,-97,16,-35,-88
1491692992728,0,35,5,25,6,18,-3,-62,3
1491692992729,1,-2,39,53,26,54,-35,-79,-88
1491692992729,1,-53,1,-38,-128,75,-21,11,46
1491692992775,2,41,-26,-57,127,17,23,-50,-7
1491692992775,2,-20,-45,-94,-72,-18,-96,-26,-22
1491692992776,3,-31,27,68,127,-70,16,24,57
1491692992776,3,83,98,127,-48,-128,55,59,-10
1491692992778,1,17,0,22,-83,-104,-23,-41,-30
1491692992778,1,42,12,-18,41,-116,88,0,-46
1491692992779,2,-14,32,79,-128,-128,-20,20,26
1491692992779,2,-110,8,54,127,93,-30,-72,8
1491692992824,3,61,-35,-93,-53,127,-7,90,67
1491692992824,3,-36,-7,-3,-128,-69,72,-25,-48
1491692992825,0,-29,20,-16,24,74,-23,-26,37
1491692992825,0,71,23,11,-3,0,-56,-100,1
1491692992826,2,-4,4,59,35,-58,71,39,41
1491692992826,2,-24,26,-2,-41,-92,6,-12,-34
1491692992827,3,-43,-17,-5,46,127,-71,6,-13
1491692992827,3,49,9,-12,-99,62,-92,-58,68
1491692992873,0,61,37,126,-58,-115,-53,-45,-39
1491692992873,0,-13,-8,-36,49,109,-52,94,2
1491692992874,1,-87,-97,-102,-51,31,69,88,23
1491692992874,1,28,-16,-57,-41,-26,-112,-98,-34
1491692992874,3,2,-15,-100,-70,-88,-78,45,38
1491692992874,3,-124,-54,9,127,127,31,-80,-33
1491692992875,0,63,-87,-100,-78,73,65,-41,3
1491692992875,0,-55,8,0,-3,-55,-70,21,2
1491692992921,1,-89,112,106,-28,-128,111,9,31
1491692992921,1,58,-18,-46,98,107,-77,23,49
1491692992922,2,-38,9,126,2,-53,-34,-90,-16
1491692992922,2,-88,-4,-93,15,127,32,120,-35
1491692992923,3,89,-44,-19,-49,-42,-9,-76,71
1491692992923,3,49,61,127,117,74,56,115,33
1491692992924,0,-55,-50,-128,-76,-19,-63,-64,-73
1491692992924,0,38,9,-17,-80,51,11,93,74
1491692992970,1,-44,95,125,-37,-100,82,-78,-23
1491692992970,1,-30,-98,-101,22,60,50,-50,-92
