1491692915703,0,-25,-74,49,31,100,15,38,41
1491692915703,0,30,-12,103,-10,60,22,-3,1
1491692915705,1,-1,-52,-31,58,-66,-28,-12,-2
1491692915705,1,-14,-54,-88,-91,-82,-91,-45,-25
1491692915706,2,12,15,-36,-61,26,47,-1,3
1491692915706,2,3,31,28,-87,39,5,18,4
1491692915751,3,-5,41,55,76,46,-33,-23,-2
1491692915751,3,-3,88,37,86,40,36,19,-11
1491692915753,0,0,23,-15,-15,-38,-19,-9,-14
1491692915753,0,-4,28,-2,-6,-9,-11,4,1
1491692915754,1,4,11,-35,-90,-12,6,-9,-4
1491692915754,1,-1,0,16,22,20,38,24,9
1491692915755,2,6,34,60,72,55,9,-10,-8
1491692915755,2,-5,60,25,46,-6,-2,-53,-15
1491692915800,3,13,64,-56,-68,-60,-7,61,16
1491692915800,3,4,55,-73,-47,-28,-34,-7,12
1491692915801,0,-7,12,-30,-67,-60,-24,-7,-8
1491692915801,0,-26,-23,-20,68,9,-15,-16,-14
1491692915802,1,-9,37,2,-29,-2,-9,-14,-7
1491692915802,1,-16,105,39,9,51,7,-11,-6
1491692915807,2,-15,127,41,5,4,14,-6,-4
1491692915807,2,-21,-89,-37,20,-23,-3,12,7
1491692915849,3,-11,-96,21,29,45,25,-14,-13
1491692915849,3,19,-128,-1,-15,-17,9,-1,9
1491692915850,0,49,-127,-49,-15,-28,-21,-8,-3
1491692915850,0,-26,-70,29,-6,-14,-4,15,-2
1491692915851,2,5,88,-25,11,-29,-17,6,-2
1491692915851,2,3,81,-52,-16,2,-5,-6,-6
1491692915852,3,-6,-3,32,-12,12,23,8,-3
1491692915852,3,15,-52,41,18,13,3,3,3
1491692915899,0,36,-68,-13,1,-1,-12,13,5
1491692915899,0,-46,-125,-5,-19,-18,-1,5,0
1491692915900,1,-20,-95,7,2,1,-7,-9,-6
1491692915900,1,-5,-72,3,10,6,12,1,-3
1491692915900,3,4,-106,-8,2,-7,-1,4,0
1491692915900,3,4,35,3,1,10,4,-2,1
1491692915901,0,-3,47,33,10,3,2,-4,-3
1491692915901,0,13,57,-36,-10,-15,-9,0,-2
1491692915946,1,6,59,10,-6,6,-3,-3,3
1491692915946,1,-11,27,10,3,8,2,-2,-3
1491692915995,2,-16,52,-10,-2,-8,-4,-5,-5
1491692915995,2,23,29,-8,5,0,5,3,3
1491692915997,0,-9,44,16,9,1,-4,-6,0
1491692915997,0,-14,35,-15,-6,1,-3,-1,-5
1491692916002,1,-5,40,-2,-2,2,7,2,1
1491692916002,1,1,52,14,4,0,5,18,1
1491692916003,2,-14,13,-14,-4,-2,-13,-5,-3
1491692916003,2,16,34,-9,-6,-9,-6,-8,0
1491692916044,3,6,33,5,-1,9,7,23,-1
1491692916044,3,1,55,6,-1,-2,-10,-34,-6
1491692916045,0,-11,3,-5,-5,-2,10,11,3
1491692916045,0,-10,27,-10,-7,-8,-26,-9,4
1491692916045,1,-2,24,-5,1,-9,11,2,7
1491692916045,1,-8,-5,-5,-1,4,5,-5,-12
1491692916046,1,-4,-16,-9,-4,1,-23,-16,-4
1491692916046,1,-8,-19,-6,-4,-7,5,2,-21
1491692916092,2,1,-6,6,6,3,14,27,1
1491692916092,2,-2,-3,0,5,1,-2,-61,-11
1491692916093,3,0,-9,3,1,-2,-9,2,-11
1491692916093,3,-1,-16,0,-2,-1,-21,-42,23
1491692916094,2,2,31,11,1,-3,-32,-117,-6
1491692916094,2,16,29,-12,-9,8,31,126,43
1491692916095,3,2,1,7,25,10,11,-116,11
1491692916095,3,-2,-26,-6,-22,-9,-19,75,-83
1491692916141,0,-17,-58,-12,-8,-2,26,-20,8
1491692916141,0,38,-48,25,4,-6,-3,64,61
1491692916146,1,-6,-8,37,8,1,-20,-88,-48
1491692916146,1,9,26,-25,18,6,-11,23,61
1491692916147,3,-3,8,-66,-40,-29,-19,7,7
1491692916147,3,-11,-20,12,-41,-19,-17,-86,-51
1491692916148,0,-34,3,56,24,-39,-65,-104,-60
1491692916148,0,3,-117,49,57,56,60,98,78
1491692916190,1,34,-40,-49,34,15,34,29,2
1491692916190,1,-32,-14,52,0,-19,-34,-38,-78
1491692916192,2,41,-41,-128,-120,-49,-16,-56,90
1491692916192,2,34,15,87,57,-44,42,-35,58
1491692916193,0,16,21,-30,-90,-28,-32,32,66
1491692916193,0,-8,12,-25,-5,-37,-90,-108,-70
1491692916193,1,-19,62,-8,-36,8,68,12,24
1491692916193,1,4,98,36,-25,94,78,19,26
1491692916287,2,36,88,91,112,15,31,-15,-26
1491692916287,2,-28,45,36,-80,68,8,59,-57
1491692916290,3,-22,38,-32,30,-47,-19,-31,-33
1491692916290,3,-21,3,-55,-2,-15,-7,-17,30
1491692916295,1,23,-7,127,121,-23,-24,-60,64
1491692916295,1,-27,-70,-107,-121,-68,-18,71,47
1491692916336,2,-26,55,-79,-12,25,-2,-28,-28
1491692916336,2,4,56,80,-68,44,-22,-45,-3
1491692916337,3,9,19,-13,49,-36,-15,-5,-55
1491692916337,3,3,12,71,108,21,14,-45,4
1491692916338,0,14,-28,127,-81,-61,-85,-33,-70
1491692916338,0,-35,-37,-128,57,42,3,-118,6
1491692916341,2,-29,-96,60,127,49,-56,-56,-41
1491692916341,2,-34,-57,-84,39,7,20,16,-17
1491692916385,2,93,28,-102,-68,12,18,-11,92
1491692916385,2,5,43,88,73,89,23,-15,-27
1491692916387,3,-32,68,-100,-38,-27,-7,11,17
1491692916387,3,-32,-22,-9,41,-11,44,-1,-31
1491692916389,3,14,12,76,99,99,-12,-50,-69
1491692916389,3,-3,-4,-56,-86,-57,6,80,41
1491692916390,0,40,97,110,51,-63,63,45,-28
1491692916390,0,-109,5,27,52,127,-3,-31,12
1491692916433,1,79,-50,-90,-88,-89,50,91,33
1491692916433,1,28,21,-52,66,-120,-68,-117,37
1491692916435,2,-31,-16,23,-103,-1,-9,-31,-40
1491692916435,2,-94,4,10,-42,-24,5,34,-20
1491692916435,0,6,-26,-24,25,-15,-65,68,-20
1491692916435,0,3,23,-28,-24,53,27,7,-17
1491692916436,1,-38,-35,7,-55,91,28,61,5
1491692916436,1,38,100,44,-39,-54,-26,-26,-15
1491692916482,2,-24,-1,-59,-26,49,1,-66,14
1491692916482,2,-68,-86,-98,-56,-128,-86,19,-31
1491692916483,3,59,-19,38,-30,27,-2,14,35
1491692916483,3,9,-85,58,60,38,12,-8,-3
1491692916484,1,9,-26,-20,81,-14,-34,-4,-7
1491692916484,1,-62,-126,-43,-52,7,-19,-31,-17
1491692916485,2,-6,-94,-28,-40,-46,-33,-15,-16
1491692916485,2,64,4,19,30,-6,9,-13,3
1491692916531,3,-37,39,49,-28,27,19,-44,-14
1491692916531,3,7,19,-7,5,-38,-7,88,19
1491692916532,0,15,54,-11,3,15,31,1,-8
1491692916532,0,34,-14,3,50,8,-10,-5,7
1491692916532,2,-17,11,-16,-9,-22,30,-28,-10
1491692916532,2,16,31,-37,5,-72,-52,22,3
1491692916533,3,-6,9,-31,-46,51,102,11,-5
1491692916533,3,1,16,25,-11,12,-6,-5,3
1491692916629,0,-2,63,49,13,-74,-86,39,3
1491692916629,0,19,31,-27,-25,34,84,-34,-22
1491692916630,1,-19,24,-28,-26,2,-45,-11,10
1491692916630,1,-25,-16,-37,28,18,78,5,0
1491692916630,3,2,-11,31,-39,-13,37,29,7
1491692916630,3,-10,-21,-13,-27,8,-30,-30,-24
1491692916631,0,-6,-59,-8,25,31,12,-25,6
1491692916631,0,19,-31,-2,-1,-18,-39,-29,-10
1491692916677,1,-52,-15,2,-13,-41,-30,-84,3
1491692916677,1,3,3,20,7,21,3,120,6
1491692916678,2,2,-36,-1,-1,-5,64,-56,-19
1491692916678,2,6,6,5,4,36,5,84,24
1491692916678,0,-7,-59,-15,-54,-6,-46,-21,16
1491692916678,0,13,-94,-9,50,11,46,7,4
1491692916680,0,11,70,-5,13,24,94,97,-15
1491692916680,0,-16,107,1,10,-2,3,-17,-16
1491692916726,1,-10,58,-8,-9,-27,-16,27,-5
1491692916726,1,-4,41,-6,-10,-4,-9,5,-7
1491692916727,2,5,-31,-4,17,-16,-20,-36,1
1491692916727,2,26,8,-11,-7,-14,-37,-29,-10
1491692916728,1,2,27,-4,-9,-19,-12,31,13
1491692916728,1,4,-14,17,7,7,9,-21,8
1491692916729,2,-14,-31,-16,-5,-6,-3,-4,-15
1491692916729,2,-2,27,1,-2,22,30,51,4
1491692916775,3,-20,-30,-3,4,-2,7,-34,4
1491692916775,3,17,96,-5,-3,0,-30,-14,-17
1491692916776,0,13,50,4,-1,-10,9,4,-7
1491692916776,0,-8,-34,-4,1,-16,-11,-30,18
1491692916777,2,2,-111,-1,4,-10,-43,-31,2
1491692916777,2,-7,-49,6,8,-5,-4,-23,-2
1491692916778,3,-4,-11,-3,-6,-8,-17,4,0
1491692916778,3,-7,-3,-13,-1,10,10,-8,4
1491692916824,0,16,-1,-15,-4,-4,-22,-13,-26
1491692916824,0,-4,-46,-47,-3,14,33,26,14
1491692916825,1,-39,21,-25,0,8,-23,-28,-2
1491692916825,1,11,-16,-9,-7,-7,-24,-20,-11
1491692916826,3,0,-17,15,0,-4,14,-15,-37
1491692916826,3,2,-12,18,0,7,11,-23,0
1491692916827,0,5,-31,-4,-14,-6,8,-1,-6
1491692916827,0,1,13,13,-5,1,-19,38,7
1491692916872,1,-6,14,7,-8,3,28,23,18
1491692916872,1,-23,24,15,1,13,37,-15,-7
1491692916874,2,-5,25,13,11,30,-77,-29,-31
1491692916874,2,-2,-13,2,-5,-7,28,-79,51
1491692916876,0,2,37,13,10,12,31,52,-46
1491692916876,0,3,72,2,1,7,-5,-54,80
1491692916877,1,48,-34,6,0,0,-20,12,77
1491692916877,1,19,-113,-8,-4,-3,0,81,9
1491692916921,2,-6,-128,-13,-10,-17,-51,-69,-66
1491692916921,2,-18,-72,2,1,4,17,80,-68
1491692916922,3,5,-37,-6,0,-8,6,115,29
1491692916922,3,15,24,10,16,24,39,-50,11
1491692916923,1,-24,57,7,3,-18,-71,-128,-76
1491692916923,1,11,59,10,-10,8,34,81,38
1491692916924,2,22,29,5,10,-20,9,-9,39
1491692916924,2,13,55,-43,-29,-12,-10,8,-40
1491692916970,3,12,69,7,16,5,-21,-72,-18
1491692916970,3,-29,22,32,9,-35,-104,-128,-107
1491692916971,0,14,17,-12,-9,9,86,95,118
1491692916971,0,-11,-109,-23,-32,-66,-84,-90,-34
1491692916973,2,-35,-77,43,27,37,38,-4,21
1491692916973,2,-8,-105,70,31,2,3,-18,1
1491692916973,3,-36,-79,-6,-15,-34,-48,-93,-69
1491692916973,3,-21,-48,19,15,-53,-91,-128,-61
1491692917020,0,9,-60,-93,-9,-43,-35,-15,-1
1491692917020,0,-3,-12,-58,-29,-22,-58,-97,14
1491692917021,1,47,-10,-4,16,71,67,68,22
1491692917021,1,-13,11,17,3,-40,-15,3,-33
1491692917022,3,-14,-2,29,61,-66,-101,64,-29
1491692917022,3,16,43,-6,-25,112,123,127,-1
1491692917023,0,-21,43,42,-50,19,13,-128,-57
1491692917023,0,-23,88,-57,-10,27,-40,-55,39
1491692917067,1,-11,35,-45,81,63,62,-33,7
1491692917067,1,-13,23,0,-76,-115,-97,-40,2
1491692917069,2,21,71,-37,28,-43,-102,20,-2
1491692917069,2,-12,125,-19,-59,55,86,-61,-43
1491692917070,3,53,46,92,-10,-128,-78,-56,37
1491692917070,3,-29,33,-110,-65,-22,11,-36,-8
1491692917070,0,-16,6,-37,-103,-117,-15,-58,21
1491692917070,0,44,-41,16,37,85,105,55,-14
1491692917116,1,-39,-52,66,-26,-75,-87,-65,51
1491692917116,1,10,7,52,9,101,109,-28,-59
1491692917117,2,-26,-8,5,85,-11,-80,-12,19
1491692917117,2,-22,-20,9,-3,-41,13,94,-68
1491692917118,0,-7,2,70,-85,-6,-65,32,7
1491692917118,0,-5,-16,-9,92,21,-1,-94,-22
1491692917119,1,-50,-34,-82,27,20,112,112,-27
1491692917119,1,-5,14,90,-63,-70,-128,-78,27
1491692917165,2,-6,15,60,-23,28,-28,69,3
1491692917165,2,61,32,-56,40,27,53,11,62
1491692917166,3,-48,-11,64,-128,-56,-96,-93,-71
1491692917166,3,-59,-4,-76,127,74,54,-15,-34
1491692917167,1,24,-9,-128,-11,19,-14,-59,-8
1491692917167,1,15,23,64,-128,-104,-24,17,-32
1491692917168,2,-54,-4,34,123,86,63,-128,74
1491692917168,2,-68,-1,-88,-128,-81,49,56,-39
1491692917214,3,95,1,43,55,42,61,-43,27
1491692917214,3,-11,-5,-39,-67,68,48,28,24
1491692917215,0,9,-38,60,84,21,-83,-81,-44
1491692917215,0,1,-33,-12,73,-17,-36,-10,1
1491692917216,2,12,4,30,39,-74,39,-68,56
1491692917216,2,5,-8,-8,-58,-1,-112,-66,49
1491692917217,3,-29,29,47,116,-60,-30,-72,-58
1491692917217,3,12,55,97,-91,16,-30,-62,-35
1491692917262,0,1,94,-108,127,-7,88,91,4
1491692917262,0,-1,34,-21,-97,4,58,-111,-17
1491692917263,1,-31,-52,11,-4,23,25,23,49
1491692917263,1,-1,-128,-128,127,-44,-30,52,5
1491692917265,3,-33,13,-81,-118,127,127,44,-21
1491692917265,3,-27,-36,26,-4,-42,-62,27,-38
1491692917265,0,62,103,27,-128,-112,-28,-75,-15
1491692917265,0,-41,72,73,62,48,8,12,1
1491692917311,1,24,121,36,112,99,64,127,68
1491692917311,1,-21,-32,-93,-82,-15,-103,-128,-70
1491692917312,2,-37,-57,-128,32,-66,-33,44,-6
1491692917312,2,7,-113,31,-51,-15,-19,-78,-1
1491692917313,0,-12,-128,-50,127,31,-17,-64,-38
1491692917313,0,2,-105,95,-128,10,72,-61,-24
1491692917314,1,-24,-126,-116,119,16,-64,107,27
1491692917314,1,46,-25,31,-102,-25,16,9,15
1491692917360,2,-62,-54,-61,-23,62,-51,-64,-60
1491692917360,2,-46,-71,-120,-120,-118,-35,66,-36
1491692917361,3,62,-20,65,49,-91,91,102,83
1491692917361,3,41,57,100,-70,-64,-26,-6,-13
1491692917362,1,-60,36,-119,30,-1,-110,-67,-90
1491692917362,1,-20,62,-52,44,22,-32,-48,-29
1491692917363,2,33,127,26,-114,91,-6,19,-14
1491692917363,2,8,114,54,39,5,31,-8,32
1491692917409,3,36,50,19,-128,-19,83,35,15
1491692917409,3,-5,74,65,127,29,52,-21,19
1491692917410,0,-5,53,83,-2,76,91,17,42
1491692917410,0,11,7,-72,66,-76,-81,-12,-84
1491692917411,1,-33,-21,-96,-27,59,-45,-102,-29
1491692917411,1,-23,-29,-3,8,118,85,11,0
1491692917412,2,14,-3,68,56,107,64,127,36
1491692917412,2,91,96,127,-12,68,72,90,105
1491692917457,3,-2,97,86,127,-37,-38,-128,-23
1491692917457,3,-27,32,-116,34,-77,-124,-67,-4
1491692917458,0,-20,-33,-100,-68,-128,-9,8,-20
1491692917458,0,-20,3,-57,32,-113,15,-7,-18
1491692917460,2,-30,-97,-128,25,42,-41,93,-8
1491692917460,2,-20,-77,-39,-100,105,-27,-101,19
1491692917460,3,-20,0,90,8,-38,22,99,-8
1491692917460,3,31,71,127,37,-128,13,-98,56
1491692917506,0,40,13,-89,70,-65,-73,92,-28
1491692917506,0,-22,-23,-80,127,127,113,-60,12
1491692917507,1,-34,23,57,-128,-77,36,12,-54
1491692917507,1,16,43,91,127,-98,-90,-78,20
1491692917508,3,-1,13,-105,-97,-53,-50,105,76
1491692917508,3,1,-21,-68,86,29,66,8,33
1491692917509,0,10,69,121,-128,-128,-54,-13,37
1491692917509,0,10,39,-44,-25,-68,35,-37,-26
1491692917555,1,-51,91,-97,63,59,-100,-35,-19
1491692917555,1,-21,45,32,-128,83,17,-94,-19
1491692917556,2,67,25,61,41,89,5,40,26
1491692917556,2,15,-5,115,56,24,-79,54,76
1491692917556,0,12,-28,-27,-74,-56,-26,-99,-10
1491692917556,0,3,120,61,47,-62,-31,98,1
1491692917557,1,59,52,104,-55,11,-114,36,40
1491692917557,1,3,-35,11,58,55,94,18,-58
1491692917603,2,-52,-114,-79,-21,18,-51,23,-29
1491692917603,2,-6,-68,44,-126,-16,73,-5,10
1491692917604,3,19,-59,67,20,56,-9,63,19
1491692917604,3,16,-46,29,-105,12,24,71,13
1491692917605,1,-2,-52,-12,-128,25,118,-119,-41
1491692917605,1,23,20,127,10,-8,69,-13,76
1491692917606,2,1,8,9,-57,3,-44,-46,24
1491692917606,2,-10,22,45,28,13,-109,-13,-23
1491692917652,3,-6,-32,48,11,0,80,24,-52
1491692917652,3,-2,22,75,39,-11,-39,-88,-3
1491692917653,0,-7,30,113,91,17,-51,51,0
1491692917653,0,9,-25,127,-56,-6,-61,64,66
1491692917655,2,-38,-11,-9,49,6,-21,-23,5
1491692917655,2,-4,16,-64,29,-11,4,5,-23
1491692917656,3,44,11,-128,-70,-1,33,-18,25
1491692917656,3,-1,-7,-128,74,6,-61,76,-12
1491692917701,0,8,35,-106,-89,-2,35,-8,-55
1491692917701,0,-13,-21,-120,14,-10,-3,-33,-44
1491692917702,1,-2,-3,-119,60,119,18,-41,-32
1491692917702,1,-5,-10,-94,-7,119,-54,-111,-58
1491692917703,3,-40,-31,-54,67,-7,-126,3,-3
1491692917703,3,57,17,-42,-100,-106,91,-27,21
1491692917704,0,-7,-31,-41,-92,-125,68,-41,4
1491692917704,0,-29,18,-16,-121,-128,-37,-82,-33
1491692917750,1,12,31,-7,123,-125,29,127,23
1491692917750,1,-19,-41,-28,-41,-118,-63,62,-23
1491692917751,2,-34,-42,-13,-90,-128,-6,-60,-9
1491692917751,2,15,26,7,75,-121,127,24,-11
1491692917751,3,-12,-11,-23,-73,-112,-62,53,-13
1491692917751,3,19,67,-6,100,-128,45,-90,102
1491692917752,0,18,7,-24,-22,-34,127,121,-26
1491692917752,0,-21,-31,12,78,-112,-115,-20,7
1491692917799,1,12,19,9,-128,-128,25,-87,-13
1491692917799,1,-13,31,-6,87,-114,56,-76,-126
1491692917800,2,17,-7,26,-44,-26,56,83,-83
1491692917800,2,-3,9,-7,-47,80,20,74,93
1491692917801,0,-9,-15,-11,127,116,-90,1,0
1491692917801,0,-17,-1,-5,-128,109,81,-14,-128
1491692917801,1,21,2,-2,59,104,44,-90,103
1491692917801,1,-23,-34,-9,118,107,-35,107,-34
1491692917847,2,-16,-40,-6,70,64,-57,63,61
1491692917847,2,14,20,-1,-88,57,38,-48,-28
1491692917848,3,-7,-71,7,-50,46,-38,77,26
1491692917848,3,-13,3,-10,-107,45,114,111,-65
1491692917849,1,-23,-39,-7,-115,9,-53,-1,-53
1491692917849,1,31,39,-7,-27,18,27,46,7
1491692917850,2,-11,-56,1,-68,4,-50,-11,-68
1491692917850,2,35,28,0,16,-1,36,50,-16
1491692917896,3,11,6,-6,-6,103,75,38,-83
1491692917896,3,-21,4,-5,-17,74,108,-77,-59
1491692917897,0,1,13,4,35,127,-54,-43,80
1491692917897,0,-13,-12,-2,2,127,-41,13,10
1491692917897,2,-8,-117,-3,16,-128,43,-42,-8
1491692917897,2,3,70,-2,8,-128,-82,-16,23
1491692917898,3,-4,-8,-1,-19,-126,-44,12,50
1491692917898,3,13,-85,-3,12,-106,-128,15,98
1491692917945,0,8,-99,-2,15,-128,-17,-15,-8
1491692917945,0,-9,-113,-1,38,-115,52,-7,-36
1491692917946,1,-30,93,1,-99,-106,-41,-14,-15
1491692917946,1,12,65,-3,85,-80,36,95,49
1491692917946,3,-10,127,-2,-11,-50,99,47,41
1491692917946,3,-23,-52,-2,-50,-26,28,28,-24
1491692917947,0,6,-71,-1,21,-18,25,-108,-62
1491692917947,0,22,-111,-1,-26,-23,-15,125,88
1491692917993,1,-5,-128,-2,116,-25,110,-9,10
1491692917993,1,-17,-128,-2,-114,-86,-128,-59,36
1491692917995,2,5,-81,0,75,-119,-45,-47,71
1491692917995,2,3,-52,-1,-35,-128,53,60,-6
1491692917995,0,24,-106,-1,-24,-84,-26,49,95
1491692917995,0,-20,-107,-1,-112,-14,-65,-74,10
1491692917996,1,2,-14,-1,97,44,7,98,27
1491692917996,1,-1,105,-2,9,127,46,-75,24
1491692918042,2,-25,34,-1,-114,98,91,-74,-11
1491692918042,2,9,78,-1,127,4,59,76,20
1491692918043,3,-25,101,-1,-51,-54,-37,-87,-89
1491692918043,3,7,94,-2,-42,-22,-22,-31,16
1491692918045,1,0,114,-1,127,-43,127,-31,-37
1491692918045,1,-25,93,-1,-92,-39,-56,29,1
1491692918045,2,14,127,-1,91,-2,-52,16,-36
1491692918045,2,-2,38,-1,-84,15,-31,70,31
1491692918092,3,9,26,-1,-83,-30,35,80,60
1491692918092,3,-14,22,-2,47,-20,-36,-8,20
1491692918095,0,-1,3,-1,-13,19,29,-54,13
1491692918095,0,-11,1,-1,61,16,59,-74,-71
1491692918096,1,5,-30,-1,-6,-35,-109,-105,-37
1491692918096,1,-13,-58,-30,-54,-2,40,115,-28
1491692918096,2,-10,-13,-67,-70,16,0,78,-61
1491692918096,2,-35,-16,-33,10,-1,19,-52,-50
1491692918140,3,8,-23,-24,59,-20,58,82,-63
1491692918140,3,40,-10,26,-44,1,122,127,7
1491692918141,0,4,-75,-18,85,8,-78,-88,1
1491692918141,0,-1,65,28,20,0,-85,41,61
1491692918142,2,18,5,82,-31,20,41,92,31
1491692918142,2,11,-4,-81,-120,73,5,-21,-6
1491692918143,3,-43,-57,-73,127,50,1,-11,-13
1491692918143,3,5,12,10,2,28,-9,-2,-15
1491692918189,0,-7,11,8,-128,-90,127,90,-1
1491692918189,0,56,-6,43,-31,-15,-53,71,-10
1491692918190,1,21,47,86,64,33,-104,-27,44
1491692918190,1,-11,-62,-102,-80,127,-87,-53,-3
1491692918191,3,-34,-3,-74,-115,66,44,-41,26
1491692918191,3,-12,-48,31,74,-51,-78,-57,-39
1491692918192,0,96,32,4,-114,-91,-60,66,42
1491692918192,0,5,-18,-9,-70,-113,127,-28,-41
1491692918237,1,-11,-35,-53,80,-128,-44,-65,35
1491692918237,1,-99,-57,-98,116,-128,-34,-31,-27
1491692918239,2,11,-29,-32,-79,53,80,90,33
1491692918239,2,64,42,101,127,127,-1,23,36
1491692918240,0,-75,-11,-128,21,105,48,31,-31
1491692918240,0,-46,26,-128,4,127,-43,13,33
1491692918241,1,27,91,-84,-128,85,30,-7,-29
1491692918241,1,33,37,81,60,65,-35,19,-17
1491692918286,2,3,56,126,24,90,34,-11,31
1491692918286,2,-60,-126,118,-94,80,-115,-55,-99
1491692918287,3,-8,-128,127,127,21,20,60,36
1491692918287,3,105,-78,126,-42,23,46,-53,19
1491692918288,1,-73,-107,-77,49,83,-110,-58,-89
1491692918288,1,-34,-71,-11,-101,125,66,127,-33
1491692918289,2,-3,0,75,12,115,-106,7,55
1491692918289,2,37,13,8,-42,-16,14,-118,-1
1491692918335,3,13,27,32,-111,-76,-17,19,-35
1491692918335,3,-23,2,-1,-12,-92,15,-56,-9
1491692918336,0,-52,-19,-29,90,-94,-128,-109,-64
1491692918336,0,23,-21,-123,-128,-74,47,127,-5
1491692918337,2,-24,15,-17,32,-64,43,-4,-39
1491692918337,2,-22,-17,-82,89,-40,-82,-28,43
1491692918338,3,10,-1,31,61,-28,11,-3,-34
1491692918338,3,8,-15,-128,-96,-36,-12,-27,-14
1491692918384,0,-6,-6,-28,-110,-14,-62,56,-49
1491692918384,0,-31,-39,-111,127,-10,21,-92,-13
1491692918385,1,15,-19,-58,-128,-21,-13,115,27
1491692918385,1,-3,25,41,73,-14,23,-32,26
1491692918386,3,0,16,2,-85,-14,49,-37,9
1491692918386,3,0,-7,11,-40,-4,33,97,19
1491692918386,0,18,-40,-128,49,0,45,-51,8
1491692918386,0,-27,-3,2,24,-1,14,13,-20
1491692918432,1,-23,10,22,-60,-2,-5,-24,-48
1491692918432,1,-7,-5,98,90,-1,11,-44,7
1491692918433,2,36,-13,-128,10,0,-33,80,19
1491692918433,2,-35,-14,17,-69,3,-74,-29,2
1491692918434,0,-23,-13,58,88,-9,-2,-12,54
1491692918434,0,13,17,65,-44,1,47,0,11
1491692918435,1,-5,-17,-105,-110,-5,16,21,-44
1491692918435,1,11,7,-1,127,3,-28,12,-4
1491692918481,2,54,10,-90,-128,-1,75,-15,0
1491692918481,2,-26,-16,15,-62,5,111,46,9
1491692918482,3,-17,-42,35,52,-7,26,-103,-52
1491692918482,3,39,7,-22,-2,-7,-26,-97,39
1491692918483,0,-26,-17,-22,63,0,38,89,-15
1491692918483,0,61,44,77,54,2,-87,-79,34
1491692918484,1,-9,24,-23,-82,-1,49,29,13
1491692918484,1,-46,-30,-34,116,-3,-8,-53,-59
1491692918530,2,-28,6,8,-33,0,-101,-55,12
1491692918530,2,-5,-12,-23,71,-8,26,52,-33
1491692918531,3,46,40,76,-13,-2,8,-38,44
1491692918531,3,21,31,49,-58,1,-35,60,31
1491692918533,1,-2,16,-10,106,5,25,43,-32
1491692918533,1,29,17,-128,7,2,89,98,-3
1491692918534,2,-2,-17,-115,34,-2,-20,-51,-47
1491692918534,2,16,29,30,-35,4,64,-34,58
1491692918581,3,-22,-25,-52,-24,-1,-97,64,15
1491692918581,3,-27,-12,9,-115,-2,-128,-17,-17
1491692918582,0,40,10,19,34,0,74,-51,16
1491692918582,0,-40,-32,-2,-13,3,74,115,-8
1491692918583,2,-41,-25,102,62,0,-8,-85,-43
1491692918583,2,3,20,77,-128,-3,-28,-28,48
1491692918584,3,-19,-21,-19,-60,2,-66,-61,24
1491692918584,3,-34,-28,-104,57,-6,105,84,-63
1491692918627,0,37,32,68,-128,3,65,43,18
1491692918627,0,29,-13,-31,127,0,73,59,-7
1491692918628,1,-2,4,-8,-128,3,-53,-47,4
1491692918628,1,-31,-11,23,8,-5,-18,39,-19
1491692918629,3,-2,19,-25,-35,-10,51,36,9
1491692918629,3,-16,-9,-94,127,-1,62,-121,18
1491692918634,0,-37,-34,-128,-128,-1,-99,2,-42
1491692918634,0,-15,-10,-72,-103,-8,5,-80,-37
1491692918679,1,11,17,72,127,-1,47,49,17
1491692918679,1,3,14,-39,-128,1,-29,-2,16
1491692918680,2,-14,-7,-108,85,-8,56,77,5
1491692918680,2,12,-7,-56,-28,-3,-36,-53,-29
1491692918681,0,14,-4,-14,-39,-1,63,-9,34
1491692918681,0,-13,-24,-128,-128,5,22,-87,-33
1491692918681,1,-28,-15,1,127,2,13,7,-8
1491692918681,1,12,9,74,64,-6,14,8,44
1491692918725,2,24,23,55,-62,-2,73,63,3
1491692918725,2,-34,-17,20,102,1,30,-17,-7
1491692918726,3,5,-13,16,-25,-5,125,-2,7
1491692918726,3,-6,-15,73,-45,1,-56,-128,-46
1491692918727,1,-1,0,77,122,2,-56,-81,-4
1491692918727,1,-27,-32,54,79,-3,40,71,50
1491692918728,2,-21,-13,6,38,-5,-26,-35,-21
1491692918728,2,-20,-2,-38,-86,-3,-89,-13,-19
1491692918822,3,-4,-4,-2,15,-5,27,79,14
1491692918822,3,64,26,26,-111,-5,-53,-7,7
1491692918823,0,-12,4,127,114,0,61,41,-20
1491692918823,0,14,8,127,-14,-3,-87,-79,1
1491692918824,2,7,-16,-61,-2,4,-36,-49,0
1491692918824,2,-43,1,-47,-61,-1,116,22,-53
1491692918825,3,51,20,2,-6,-2,52,60,58
1491692918825,3,26,8,-90,-128,2,-54,32,17
1491692918871,0,-17,-19,-90,85,1,-23,-81,-4
1491692918871,0,-20,-3,-53,-8,-5,-60,-6,-30
1491692918872,1,-40,-6,-60,14,0,-111,-45,4
1491692918872,1,38,3,-1,-10,-6,54,3,-17
1491692918873,3,-30,-24,-99,-58,-5,68,85,-32
1491692918873,3,-20,4,-38,41,30,-77,-62,-5
1491692918874,0,-6,12,12,-35,27,-23,-31,-16
1491692918874,0,20,33,57,22,13,-92,-65,43
1491692918920,1,21,-15,-10,41,9,-20,16,-21
1491692918920,1,-39,-20,31,4,-68,-106,34,-40
1491692918969,2,-8,35,67,-59,-115,48,-24,47
1491692918969,2,6,15,7,-40,-115,100,-94,-18
1491692918971,0,-39,-37,-80,-54,94,39,-10,4
1491692918971,0,17,-17,-29,-48,86,-21,-94,-15
1491692918972,1,-24,-8,-8,22,55,46,95,-27
1491692918972,1,25,6,-15,57,58,95,66,11
1491692918973,2,-24,5,4,24,63,5,-18,-8
1491692918973,2,-2,-13,-3,41,52,33,6,27
1491692919018,3,17,8,-18,-7,26,-51,-31,-30
1491692919018,3,1,-5,-48,-39,44,19,-27,56
1491692919019,1,1,15,14,31,127,-62,-128,21
1491692919019,1,-12,-11,-59,20,96,100,24,-23
1491692919020,2,-17,-9,-12,-90,-96,-1,6,21
1491692919020,2,-19,-9,-2,-32,-116,-62,9,-12
1491692919022,2,7,23,52,67,106,86,42,-23
1491692919022,2,-9,5,54,127,97,-92,-55,80
1491692919066,3,-2,-2,-24,-95,39,78,47,25
1491692919066,3,9,6,-16,-6,-5,-106,8,27
1491692919068,0,-2,-10,32,9,39,-43,42,24
1491692919068,0,1,1,-41,-68,-45,84,55,32
1491692919070,3,17,-1,15,-112,-61,37,-26,0
1491692919070,3,-6,-2,24,-6,-86,41,-41,-13
1491692919070,0,17,18,-27,-128,-109,-89,-39,1
1491692919070,0,-28,-24,-38,127,-72,30,40,-16
1491692919115,1,6,-17,-34,-42,-31,-90,21,3
1491692919115,1,-7,-19,-24,-53,-44,70,-12,18
1491692919117,2,-4,16,34,0,-67,-3,-85,17
1491692919117,2,1,42,57,-106,-20,-16,3,-8
1491692919119,0,13,-4,25,-14,-41,-102,-59,-11
1491692919119,0,-7,-18,-20,71,-1,39,-57,-21
1491692919120,1,0,14,17,4,12,-57,21,-10
1491692919120,1,4,-3,15,59,-68,-60,-20,-14
1491692919164,2,2,-49,-39,-74,26,-35,124,17
1491692919164,2,6,26,11,31,11,2,-106,-8
1491692919166,3,21,60,89,88,-88,86,103,36
1491692919166,3,1,17,3,-80,-56,49,-16,-13
1491692919167,0,-14,1,23,87,-113,31,20,6
1491692919167,0,-32,-65,-7,-25,-47,-84,52,-39
1491692919168,1,3,-11,-40,-120,8,37,6,42
1491692919168,1,20,8,5,52,1,-82,-27,-13
1491692919213,2,12,10,29,27,-83,63,-41,14
1491692919213,2,19,20,0,123,83,2,-47,-8
1491692919215,3,-18,-29,-47,-99,42,35,-11,19
1491692919215,3,-4,-8,-8,-13,-47,27,49,-16
1491692919216,1,-19,5,-18,-95,35,-30,27,-18
1491692919216,1,-1,-16,-15,78,33,-41,13,29
1491692919217,2,-31,-10,-56,8,69,49,-6,-34
1491692919217,2,7,11,-21,-128,-33,16,27,4
1491692919261,3,-25,-12,5,109,60,-42,-38,-29
1491692919261,3,-24,-1,9,-80,19,-60,-45,-2
1491692919264,0,43,7,16,-30,-70,85,107,25
1491692919264,0,17,8,21,-35,-31,10,-40,13
1491692919265,2,-11,11,2,23,-41,41,14,55
1491692919265,2,-13,-17,6,-63,59,-2,14,-29
1491692919266,3,37,-2,9,124,62,-49,16,64
1491692919266,3,34,11,-1,105,125,-52,-13,-1
1491692919310,0,-39,-28,-9,-95,127,-13,-112,-55
1491692919310,0,0,10,25,-34,54,-37,-40,-10
1491692919313,1,-7,-20,-49,-46,109,41,41,-20
1491692919313,1,-4,-7,28,51,-109,17,68,10
1491692919314,3,14,3,26,63,-46,-10,61,75
1491692919314,3,29,9,-32,-122,-64,119,127,-9
1491692919315,0,15,-10,-18,19,-122,-83,-88,-26
1491692919315,0,1,6,16,25,-110,91,29,23
1491692919359,1,18,13,28,-70,-128,-101,-128,-67
1491692919359,1,-42,-5,7,30,100,27,75,27
1491692919362,2,8,6,10,-5,-103,-12,9,-22
1491692919362,2,-2,-12,-78,-76,126,-31,95,59
1491692919363,0,-16,2,-19,-59,106,-10,-25,-17
1491692919363,0,-3,-14,46,55,-5,63,64,51
1491692919364,1,-25,-17,-42,-21,1,-13,-6,-61
1491692919364,1,23,3,-27,-32,-70,-2,-4,29
1491692919407,2,36,6,5,74,-34,-93,-82,-4
1491692919407,2,25,-5,17,-62,-55,-21,93,46
1491692919409,3,-29,-12,-28,-28,4,69,-36,-21
1491692919409,3,-19,7,41,24,-44,-74,-83,-48
1491692919412,1,-21,-7,-8,-66,16,-14,15,-12
1491692919412,1,3,10,23,32,-26,-46,24,-10
1491692919413,2,20,14,-11,-95,-11,106,127,41
1491692919413,2,-19,-10,3,98,-8,-66,-116,-46
1491692919456,3,-10,-12,-11,-120,15,67,-22,-30
1491692919456,3,-15,-5,-13,-34,-21,43,-10,67
1491692919457,0,17,5,19,-2,-1,-93,-17,2
1491692919457,0,-35,18,16,-22,-4,-3,-81,-17
1491692919458,2,19,-2,9,-9,0,46,26,10
1491692919458,2,24,1,-19,-103,-4,7,33,-18
1491692919458,3,-20,7,53,89,6,-14,-98,-7
1491692919458,3,-3,-7,-11,-68,-8,-34,53,5
1491692919505,0,-6,-12,-3,60,0,-53,-26,9
1491692919505,0,25,18,26,28,-6,46,69,44
1491692919506,1,5,16,12,-13,6,-16,8,9
1491692919506,1,-9,6,-16,-4,-6,29,-58,24
1491692919506,2,-28,-8,-7,23,-2,-32,-62,-48
1491692919506,2,23,14,38,-26,-1,65,71,8
1491692919507,3,-30,-11,-24,32,5,-19,-14,-17
1491692919507,3,56,-6,-6,52,-5,62,-35,-11
1491692919553,0,-20,-5,-17,-45,-2,21,-11,7
1491692919553,0,48,5,25,31,-2,-75,-17,81
1491692919603,1,-9,3,-6,-13,3,38,57,18
1491692919603,1,-26,-2,-3,-96,-5,-109,-33,-46
1491692919604,3,26,5,-6,-35,1,65,-77,-15
1491692919604,3,5,-4,15,-67,-3,-9,75,57
1491692919605,0,10,26,52,-23,-1,32,-53,-14
1491692919605,0,-15,-21,12,105,-2,-13,28,-1
1491692919606,1,-28,-11,-47,-46,1,-6,-5,-7
1491692919606,1,29,10,-4,-1,-3,0,-57,-44
1491692919651,2,-20,2,-15,35,-1,-49,4,-4
1491692919651,2,17,14,39,-57,-2,59,-22,-40
1491692919653,0,-14,-28,-72,-34,-1,16,127,-15
1491692919653,0,-21,-9,-50,-15,-1,32,-52,-27
1491692919654,1,43,17,63,-10,0,48,-9,25
1491692919654,1,3,20,52,42,-2,-87,2,29
1491692919655,1,-8,20,58,62,-1,20,66,33
1491692919655,1,-19,-3,44,-13,-1,-13,-78,5
1491692919700,2,-4,-31,-62,4,-1,-16,20,-75
1491692919700,2,10,9,12,-10,-1,-48,48,101
1491692919702,3,37,-1,-35,-89,-1,-30,8,17
1491692919702,3,-5,12,50,29,-2,11,22,-5
1491692919703,2,25,-5,-28,-23,-1,-8,23,8
1491692919703,2,-5,14,20,-2,-20,59,-12,7
1491692919704,3,27,28,101,-64,3,-30,-128,40
1491692919704,3,-7,-105,-31,78,-26,1,56,14
1491692919749,0,-26,-111,-110,-98,-65,34,-66,-27
1491692919749,0,-6,-54,-41,-28,19,79,-11,-40
1491692919750,1,-6,15,-20,7,66,74,53,-21
1491692919750,1,-35,64,27,-93,3,-109,-101,-9
1491692919752,3,-31,16,-33,13,6,-22,-59,-90
1491692919752,3,52,45,-58,-80,24,50,13,82
1491692919753,0,11,34,17,6,-41,66,78,52
1491692919753,0,-5,28,49,-17,-20,93,9,-35
1491692919797,1,-2,11,36,1,-27,-37,-67,-1
1491692919797,1,-17,-34,-94,121,84,-58,48,-69
1491692919799,2,-31,-45,-128,-128,20,36,-47,-19
1491692919799,2,7,2,21,-11,46,-17,21,25
1491692919800,0,-7,22,-31,61,-110,70,-26,-4
1491692919800,0,57,-25,-90,2,-127,-75,-34,21
1491692919801,1,-25,-11,7,-114,-62,1,31,-16
1491692919801,1,-29,34,91,-35,31,94,44,20
1491692919846,2,20,-17,2,-87,127,-24,-24,-32
1491692919846,2,-37,-58,-98,60,127,-101,-73,-21
1491692919847,3,14,-13,-96,-34,127,11,-73,82
1491692919847,3,-8,26,83,77,109,96,80,15
1491692919848,1,12,-39,-88,-87,111,-91,26,-17
1491692919848,1,-13,-13,-79,-89,45,86,-42,16
1491692919849,2,-14,35,78,127,44,-44,38,52
1491692919849,2,17,45,-69,26,49,31,15,-53
1491692919895,3,19,-31,-125,-86,57,-12,92,53
1491692919895,3,-10,-44,-128,65,9,-83,-62,-62
1491692919896,0,46,31,-20,49,3,6,20,71
1491692919896,0,-82,55,127,-128,23,-87,-57,-8
1491692919897,1,-61,-57,24,127,127,90,74,-83
1491692919897,1,47,-45,22,44,93,65,6,-13
1491692919898,2,91,-22,53,-91,123,0,-12,68
1491692919898,2,0,52,100,-56,24,127,83,-57
1491692919944,3,4,46,127,112,-48,11,-128,88
1491692919944,3,-60,-21,0,-109,-107,63,41,-83
1491692919946,0,-86,-73,-8,-96,-86,-118,-78,42
1491692919946,0,67,-7,82,69,-60,10,-31,104
1491692919947,2,-99,-15,-125,-81,-62,64,90,-2
1491692919947,2,-44,14,91,33,-45,-26,-10,33
1491692919948,3,61,117,43,-120,-30,17,28,53
1491692919948,3,27,27,47,108,-39,-30,-128,65
1491692919993,0,4,-26,18,73,-29,-3,42,-77
1491692919993,0,-67,-47,-23,-77,-6,86,82,-1
1491692919995,1,62,-40,85,-102,-11,25,66,68
1491692919995,1,-34,-9,-76,-32,-12,-41,-66,44
1491692919996,3,-73,19,60,89,-7,52,65,-76
1491692919996,3,99,-53,-69,-73,-12,50,-9,79
1491692919997,0,41,-47,-97,-34,-10,-95,-46,-108
1491692919997,0,1,49,61,38,-3,11,-106,106
1491692920041,1,-26,1,-74,53,0,-81,-128,-70
1491692920041,1,-90,-1,-42,-97,-10,-105,112,-73
1491692920044,2,-42,-44,-111,-108,-3,-59,-53,4
1491692920044,2,122,-74,-128,87,-1,-65,0,39
1491692920045,0,24,14,-24,-103,-4,-45,70,41
1491692920045,0,-108,-42,14,-11,0,-114,-89,-63
1491692920046,1,-57,-39,15,83,3,65,-34,10
1491692920046,1,13,-1,76,-128,-4,-80,23,-40
1491692920090,2,24,65,2,-55,-6,50,-11,5
1491692920090,2,13,69,54,31,1,33,117,19
1491692920093,3,-6,-45,-128,17,12,-56,-62,-15
1491692920093,3,-64,-31,-16,-39,-4,75,-7,4
1491692920094,1,39,-53,-42,-46,-6,-107,-93,-3
1491692920094,1,-1,-7,34,69,4,-77,98,30
1491692920095,2,0,25,72,127,1,127,1,14
1491692920095,2,2,10,-70,-128,-2,-47,21,47
1491692920139,3,21,27,55,107,-1,109,69,55
1491692920139,3,61,-26,-105,-102,-2,97,37,6
1491692920142,0,-71,-63,-51,127,0,-121,-128,-78
1491692920142,0,25,42,24,-71,1,127,127,74
1491692920143,2,-56,-1,-6,65,0,-15,-58,3
1491692920143,2,76,14,-59,-28,-6,-62,-5,-5
1491692920144,3,-11,-38,1,109,-5,28,-44,46
1491692920144,3,34,66,118,-102,0,-94,-128,-32
1491692920193,0,-84,-57,-77,39,-4,59,72,-87
1491692920193,0,-49,-99,-117,-55,-5,28,9,13
1491692920194,1,84,4,-12,-128,-2,47,115,27
1491692920194,1,3,32,121,104,-2,36,-31,-35
1491692920196,3,-16,12,32,59,-85,39,-35,-29
1491692920196,3,-9,-42,-51,-40,-122,51,61,-77
1491692920197,0,13,31,46,-118,-128,-33,35,2
1491692920197,0,19,76,97,127,-49,55,38,-19
1491692920236,1,53,-13,-128,-106,37,-33,-91,9
1491692920236,1,-88,-62,-122,-8,77,15,-102,-19
1491692920238,2,66,-19,52,34,94,88,61,-1
1491692920238,2,-61,56,-31,-91,80,24,-8,-36
1491692920238,3,50,-11,8,119,72,52,-16,-7
1491692920238,3,-17,76,-81,-83,68,-69,-22,41
1491692920239,0,-41,-89,-128,-76,60,6,-42,-39
1491692920239,0,110,-22,62,14,41,107,-21,-15
1491692920382,1,-56,5,-47,-40,35,-27,28,16
1491692920382,1,42,-55,-128,127,26,-59,14,-13
1491692920384,2,-44,3,66,-81,86,-4,-24,49
1491692920384,2,0,44,37,75,115,-31,-29,1
1491692920385,0,56,42,-103,-94,-18,-54,-31,-12
1491692920385,0,-22,-65,-128,5,-108,-38,-40,-48
1491692920385,1,-13,10,-39,25,-128,63,111,-51
1491692920385,1,-73,-14,124,122,-128,-26,-43,62
1491692920431,2,19,24,127,-46,-115,83,67,-10
1491692920431,2,45,-17,115,11,-120,51,-54,-38
1491692920434,3,-38,-57,105,106,-128,-69,47,-33
1491692920434,3,-63,11,117,-67,-120,101,3,6
1491692920435,1,-59,-20,33,-122,-67,-34,-81,-37
1491692920435,1,32,82,65,-59,-122,21,7,-10
1491692920436,3,45,46,-8,-14,42,-37,59,0
1491692920436,3,-12,-3,3,-26,39,-6,11,32
1491692920529,0,41,42,3,34,20,8,24,2
1491692920529,0,-29,26,0,-2,33,-30,30,-59
1491692920531,1,-26,-1,-5,-91,5,-24,0,37
1491692920531,1,57,-6,0,-44,11,13,8,38
1491692920532,0,37,12,-114,-12,1,16,7,-37
1491692920532,0,-30,-2,-128,-11,3,-22,-3,-23
1491692920533,1,57,109,-128,82,105,-8,3,-17
1491692920533,1,-22,112,-118,-14,-94,18,1,4
1491692920578,2,7,127,-122,-38,102,-2,-8,-18
1491692920578,2,4,127,-128,28,94,-90,4,22
1491692920580,3,-9,-9,-60,-42,120,9,-2,-12
1491692920580,3,-49,-112,-54,127,1,-124,3,-25
1491692920581,1,-50,-122,-80,30,-74,-128,4,8
1491692920581,1,-15,-123,-46,-4,127,-22,-5,0
1491692920582,1,24,-42,-21,-26,-128,116,-3,-9
1491692920582,1,-1,-29,-2,-4,-97,-66,0,-16
1491692920626,2,-3,-4,-2,-34,-56,112,1,18
1491692920626,2,6,-15,-2,-16,-115,-24,-2,13
1491692920628,3,-35,-20,-8,-17,-67,44,0,2
1491692920628,3,21,1,-4,19,-5,-9,-1,95
1491692920630,2,-10,3,0,-17,-31,-55,-2,34
1491692920630,2,-13,-6,1,-6,3,-13,-1,25
1491692920631,3,-1,-2,-7,56,-9,50,0,10
1491692920631,3,55,-1,-1,33,3,47,-2,9
1491692920724,0,-37,-2,2,-8,1,75,-1,-12
1491692920724,0,23,-1,-1,1,7,63,0,61
1491692920725,1,-10,-3,-5,-88,6,81,-3,-28
1491692920725,1,-47,-2,-1,104,-102,113,-1,4
1491692920726,3,-4,-3,-4,103,22,-128,-1,-9
1491692920726,3,-5,-2,0,16,20,-74,-1,41
1491692920727,0,10,2,-1,2,59,67,-1,-19
1491692920727,0,-1,-2,-1,65,-128,-76,110,28
1491692920772,1,5,-4,-3,-113,126,34,124,-60
1491692920772,1,-10,0,-2,95,-57,59,125,-14
1491692920773,2,62,0,-1,74,-16,41,86,74
1491692920773,2,40,-2,-23,-29,36,-5,-58,0
1491692920774,1,-30,2,-57,-68,-77,41,-7,47
1491692920774,1,53,13,37,27,37,-106,-17,14
1491692920775,2,-42,-65,-118,-47,-128,-15,-47,-37
1491692920775,2,-31,43,127,-96,-45,97,-8,-30
1491692920821,3,58,-43,-79,114,-67,14,-1,-58
1491692920821,3,-4,-9,3,-98,80,32,-52,61
1491692920824,0,-43,-38,-21,96,106,79,10,-34
1491692920824,0,-29,-29,-97,-128,127,-112,-36,14
1491692920825,2,-9,-13,-52,-21,-69,-77,42,2
1491692920825,2,-6,40,33,-128,83,26,1,10
1491692920826,3,-10,104,55,64,-21,-84,0,58
1491692920826,3,-38,-7,-97,-73,100,-90,-77,-65
1491692920870,0,56,14,13,50,122,24,126,61
1491692920870,0,34,-27,92,-46,127,65,30,5
1491692920872,1,12,-31,105,56,1,107,98,-9
1491692920872,1,-12,-67,-114,55,-128,-83,-70,-97
1491692920873,3,-16,2,-67,-107,-103,-10,47,26
1491692920873,3,-75,22,-126,-97,-128,31,44,4
1491692920874,0,9,-8,-73,47,-63,-38,-27,7
1491692920874,0,47,28,31,127,-68,22,-71,-33
1491692920919,1,28,31,-4,-4,-80,52,-28,-1
1491692920919,1,15,-14,-17,101,-65,-50,-43,-66
1491692920922,2,-41,-48,103,-128,-15,49,-51,5
1491692920922,2,-30,-33,108,113,-36,-41,9,-86
1491692920923,3,14,-55,127,-96,-23,-69,-63,81
1491692920923,3,-32,-14,8,-128,-5,127,-117,-13
1491692920924,0,-28,41,127,127,-11,9,83,-39
1491692920924,0,-17,18,83,-61,-71,38,70,16
1491692920968,1,70,-19,25,-17,50,122,-92,19
1491692920968,1,-11,-45,92,-62,-110,41,36,15
1491692920970,2,29,7,127,-60,-87,109,67,6
1491692920970,2,-21,-39,-105,43,61,-57,10,49
1491692920971,0,7,20,-101,-12,-44,60,-47,13
1491692920971,0,14,42,7,-44,118,-66,91,53
1491692920972,1,26,10,20,-42,81,-57,50,5
1491692920972,1,-55,-4,-21,127,126,-5,-48,-74
1491692921016,2,52,9,-38,-16,111,-34,108,77
1491692921016,2,10,-10,-67,-47,-78,-47,-128,-21
1491692921018,3,-13,-31,-32,-46,12,-34,55,8
1491692921018,3,-10,-24,-63,-116,-124,-40,16,-27
1491692921020,1,81,-18,-95,16,-122,-14,-27,75
1491692921020,1,0,9,-32,60,-76,39,20,-69
1491692921021,2,-25,34,93,7,61,52,7,-8
1491692921021,2,-30,-20,-101,119,127,-26,-70,-41
1491692921065,3,-128,1,28,15,66,-40,-28,-44
1491692921065,3,104,7,35,-72,104,81,33,-33
1491692921067,0,-45,6,-28,-58,102,41,-21,-24
1491692921067,0,32,-23,-32,50,92,71,-7,-32
1491692921079,2,96,-43,60,38,72,-105,-15,-41
1491692921079,2,-85,-18,101,-88,15,88,15,-14
1491692921080,3,7,-6,-34,105,15,-43,15,-44
1491692921080,3,-111,-6,-16,-11,33,-83,-26,-51
1491692921114,0,127,21,-127,23,5,93,-35,32
1491692921114,0,-50,-1,-128,-128,13,3,-28,9
1491692921116,1,-39,11,-47,127,5,-8,-50,34
1491692921116,1,-7,-6,-98,-108,10,66,64,-7
1491692921117,3,-53,67,110,74,9,34,68,-16
1491692921117,3,-43,-21,42,98,-8,-125,14,-21
1491692921118,0,25,12,25,-128,0,122,30,-27
1491692921118,0,-56,30,127,127,7,-9,-19,-4
1491692921163,1,-48,-52,19,26,-8,-36,22,-74
1491692921163,1,30,-4,57,-63,0,-57,-85,88
1491692921164,2,-16,3,44,-12,2,-25,17,-74
1491692921164,2,11,45,127,60,2,16,99,27
1491692921165,0,-62,4,26,-65,5,80,-60,106
1491692921165,0,61,27,55,-68,-4,68,10,-6
1491692921166,1,18,66,118,-8,-3,38,13,-44
1491692921166,1,41,-5,-89,-46,2,34,28,108
1491692921211,2,-18,-91,-95,34,-3,-128,-80,-73
1491692921211,2,68,-27,-38,-90,0,-54,-77,-37
1491692921214,3,85,4,42,55,-1,27,86,111
1491692921214,3,-91,33,57,-51,1,55,-110,-77
1491692921215,1,39,-22,-82,-114,0,-68,-86,36
1491692921215,1,53,18,36,33,-3,72,103,101
1491692921216,2,-57,21,114,86,-1,67,-50,-128
1491692921216,2,-61,6,-25,-61,1,-27,-112,28
1491692921260,3,30,-60,-107,59,36,-79,43,73
1491692921260,3,48,-37,-80,-101,36,44,-9,14
1491692921262,0,15,-11,-65,-96,40,9,113,-24
1491692921262,0,14,57,104,54,115,11,79,38
1491692921309,2,-33,-45,-101,-103,27,-29,19,25
1491692921309,2,-63,2,-29,-67,9,-98,-128,-68
1491692921311,3,57,26,70,34,38,48,127,64
1491692921311,3,15,40,83,-47,100,67,3,-34
1491692921313,0,8,19,55,64,45,39,-109,57
1491692921313,0,-38,-58,-96,-45,124,98,37,-30
1491692921314,1,34,-19,-18,111,-3,6,-12,-81
1491692921314,1,-24,18,52,-52,-60,25,-54,88
1491692921357,2,2,30,25,-90,-78,103,35,12
1491692921357,2,16,31,-5,127,-119,-90,-101,47
1491692921358,3,52,-6,-98,-128,-68,66,47,-58
1491692921358,3,32,-12,-42,-67,-82,-4,86,-18
1491692921359,0,-33,11,9,-74,-50,-15,-98,40
1491692921359,0,-10,-3,5,-27,-69,-52,-27,21
1491692921360,3,-75,8,22,112,-16,-48,-98,22
1491692921360,3,19,9,-79,-102,-33,-15,-57,-39
1491692921407,0,28,6,-11,-8,-1,-92,-17,-4
1491692921407,0,-28,-48,-87,89,-12,-16,5,-66
1491692921408,1,-81,-44,-14,-4,-9,-4,53,-3
1491692921408,1,87,40,83,6,-2,106,68,57
1491692921409,0,28,-11,2,42,-3,83,11,38
1491692921409,0,39,1,15,-74,-8,-9,-2,-35
1491692921409,1,66,14,-60,-113,-6,-115,-97,-36
1491692921409,1,-57,-15,7,-7,-3,-12,-29,-20
1491692921503,2,-34,-29,-58,3,-2,-1,-100,-126
1491692921503,2,-22,29,115,-91,-10,12,70,-35
1491692921508,3,94,2,0,80,3,-5,59,127
1491692921508,3,7,-25,-36,-128,-4,-50,-128,-117
1491692921508,1,108,44,25,-24,4,-13,-48,-77
1491692921508,1,1,-32,-24,84,-3,27,64,8
1491692921509,2,-38,10,6,-74,-1,-29,-96,80
1491692921509,2,-90,3,127,35,-4,-5,10,-27
1491692921552,3,-48,-6,36,117,3,-9,15,-1
1491692921552,3,14,16,41,45,-1,4,-46,-41
1491692921553,0,-4,-29,-69,5,-5,-117,-28,-75
1491692921553,0,-17,20,-53,5,6,22,96,77
1491692921554,2,-3,21,42,52,6,70,-28,55
1491692921554,2,47,-1,57,-58,-3,39,-36,-70
1491692921555,3,-42,6,-59,55,-1,-52,-24,-20
1491692921555,3,-5,-18,-94,-101,3,-4,-3,-1
1491692921601,0,-82,21,17,93,5,74,115,-42
1491692921601,0,79,23,97,63,-8,-50,-14,82
1491692921602,1,10,48,38,-55,1,-36,3,-37
1491692921602,1,-68,26,12,-128,-6,-35,-56,37
1491692921602,0,91,47,2,-128,6,-7,47,-30
1491692921602,0,-65,14,-74,26,1,2,-60,28
1491692921603,1,39,10,6,79,1,72,23,30
1491692921603,1,-101,17,15,-10,1,-42,-89,43
1491692921650,2,77,3,-28,-42,4,69,57,-31
1491692921650,2,-35,14,-40,61,0,-121,9,-65
1491692921650,3,67,-20,-96,57,-3,127,37,107
1491692921650,3,49,-16,-48,31,1,-105,-11,-22
1491692921651,0,-115,-6,71,-56,0,-38,-10,-30
1491692921651,0,100,23,31,7,-8,-27,41,57
1491692921652,1,-26,49,115,23,-11,127,16,-15
1491692921652,1,-22,-15,-74,-10,-1,-121,-86,-51
1491692921698,2,-51,-80,-128,-112,-5,-53,-128,-3
1491692921698,2,32,40,77,51,16,105,93,7
1491692921699,3,52,3,-17,3,-4,-85,24,95
1491692921699,3,-60,-52,127,35,1,31,-59,-97
1491692921700,1,47,20,54,-128,-6,61,32,106
1491692921700,1,77,14,77,53,-7,-61,-19,-4
1491692921701,2,5,2,-37,-53,10,107,52,67
1491692921701,2,-5,18,114,65,-6,9,-80,52
1491692921749,3,-85,-4,-127,13,1,-128,-25,-128
1491692921749,3,12,-29,-94,-108,-7,19,-53,37
1491692921750,0,-17,61,0,-5,-12,-64,25,-72
1491692921750,0,-42,76,-40,-128,-16,-74,5,-31
1491692921751,2,38,-33,-128,7,-98,-86,114,-30
1491692921751,2,5,-30,-91,-128,9,-26,-7,-9
1491692921845,3,-45,-30,13,25,1,-25,-50,-48
1491692921845,3,5,3,77,100,37,67,-7,-24
1491692921893,0,84,61,49,-1,43,-43,-49,83
1491692921893,0,-92,-68,-62,73,40,-76,-85,-98
1491692921991,1,50,61,91,-98,75,92,59,107
1491692921991,1,7,-94,-103,-61,74,-58,-58,-64
1491692921993,3,82,-31,-128,-7,36,-128,-33,42
1491692921993,3,-74,-24,-45,-66,32,43,39,-51
1491692922001,0,-7,8,-21,127,33,75,-42,16
1491692922001,0,38,-36,-104,-87,15,-112,-1,-50
1491692922002,1,-64,-64,-40,-37,-3,24,-108,-52
1491692922002,1,52,63,116,-58,15,87,51,8
1491692922040,1,-37,52,127,70,-123,117,28,8
1491692922040,1,50,-38,-128,-51,-104,-123,-44,47
1491692922042,2,-1,-17,-47,16,-73,-80,-104,5
1491692922042,2,22,-52,-55,7,-52,-20,-2,-4
1491692922088,2,-21,-47,9,11,-17,-48,-67,-23
1491692922088,2,-5,-21,114,-44,-5,31,-23,-20
1491692922089,3,13,22,25,-94,-2,79,66,28
1491692922089,3,6,12,110,127,4,11,-8,6
1491692922090,0,-4,-71,-68,-82,-5,-46,-82,-13
1491692922090,0,-55,-38,37,-44,-77,-41,23,-9
1491692922091,1,12,19,120,93,-114,-26,-10,-37
1491692922091,1,-3,83,66,2,-118,72,85,18
1491692922138,0,17,5,-43,-112,127,-91,29,55
1491692922138,0,-50,-67,-121,127,127,-19,-71,-14
1491692922139,1,-25,-73,48,-93,127,113,-3,-31
1491692922139,1,22,5,-65,-17,126,41,23,19
1491692922140,2,30,6,127,123,120,33,43,17
1491692922140,2,-15,-50,18,-100,99,5,-40,-19
1491692922141,1,4,-24,-100,80,-4,-82,-82,-31
1491692922141,1,-20,20,-36,-115,19,13,21,-17
1491692922186,2,-3,25,-1,90,-33,-36,-53,16
1491692922186,2,22,56,-17,-90,24,107,-25,-59
1491692922188,3,-29,98,66,-34,79,70,59,35
1491692922188,3,78,-96,-99,-43,-48,-78,-36,40
1491692922189,2,10,2,-29,-42,-13,-22,-60,-8
1491692922189,2,-42,-47,-128,-11,61,13,36,6
1491692922190,3,20,-30,-75,-34,-63,11,-62,-41
1491692922190,3,-3,5,-46,98,105,-127,-60,-24
1491692922235,0,16,9,43,-54,127,115,109,77
1491692922235,0,-67,-33,-29,-65,-15,-99,-113,-79
1491692922236,1,44,24,127,-80,127,52,-12,-15
1491692922236,1,-35,-5,-10,80,18,34,81,-72
1491692922333,3,15,46,55,-119,62,127,-2,31
1491692922333,3,-48,-38,-50,50,-117,-12,-73,-21
1491692922334,0,41,33,46,7,-9,127,-6,49
1491692922334,0,-40,42,80,40,-60,-14,-18,24
1491692922335,1,-5,29,-74,-101,-101,7,-28,-38
1491692922335,1,24,-85,-72,97,-88,-106,-35,46
1491692922337,2,48,79,61,121,12,51,110,66
1491692922337,2,-21,9,64,-108,-8,24,-2,-14
1491692922381,0,33,-37,-126,115,-128,-128,-11,-91
1491692922381,0,54,15,38,-113,-36,-65,-46,-58
1491692922383,1,9,13,82,14,55,-3,114,66
1491692922383,1,-12,-6,-122,-128,-128,62,-1,-21
1491692922384,2,-45,25,53,54,-24,25,-51,-14
1491692922384,2,8,-14,35,50,-9,50,58,9
1491692922385,1,12,25,-26,-114,127,2,17,7
1491692922385,1,-8,0,-107,56,-62,-55,-11,-34
1491692922430,2,-34,-27,-5,42,56,5,-74,-29
1491692922430,2,30,67,71,-16,58,14,-6,31
1491692922431,3,36,46,50,52,-40,-35,-50,74
1491692922431,3,-52,4,-48,-45,-63,50,50,-19
1491692922432,2,-9,-36,12,127,-116,-64,-12,9
1491692922432,2,-50,-17,-52,-90,89,71,45,-10
1491692922433,3,-30,55,44,-88,-21,-75,-93,-7
1491692922433,3,6,-6,124,107,77,6,62,97
1491692922478,0,-30,2,-90,-26,12,-13,5,-97
1491692922478,0,19,87,-54,-66,-101,-1,14,-56
1491692922480,1,-41,24,3,-108,13,127,79,-6
1491692922480,1,27,47,72,-6,-91,-126,-107,-30
1491692922481,3,-23,-116,-127,79,-102,-27,7,-83
1491692922481,3,17,-9,46,-71,118,92,-22,12
1491692922482,0,15,-29,36,112,79,25,-52,-28
1491692922482,0,-5,-56,32,11,116,-128,-45,-34
1491692922580,1,-5,3,-47,-59,51,-59,7,-29
1491692922580,1,-37,-57,65,-35,118,91,-15,-65
1491692922673,2,26,6,38,3,91,60,56,60
1491692922673,2,-45,-53,-59,95,118,92,-31,-29
1491692922674,0,-7,4,32,-128,-89,-35,105,36
1491692922674,0,42,8,82,27,-103,-26,12,-18
1491692922722,1,6,17,121,-124,-128,-13,-44,61
1491692922722,1,-42,11,-66,6,-121,79,97,-5
1491692922771,2,69,-26,-128,-24,-127,-44,-47,28
1491692922771,2,76,0,-65,53,-128,-44,72,5
1491692922772,3,-16,-17,-13,-33,-92,28,-10,-2
1491692922772,3,40,26,18,97,-103,-90,3,15
1491692922772,1,-32,-17,-64,-47,-39,-70,-11,38
1491692922772,1,-35,-7,-45,127,-54,-90,76,67
1491692922773,3,98,11,125,106,-32,84,-59,40
1491692922773,3,-6,-23,-28,26,127,-119,32,-42
1491692922820,3,-10,-8,-75,-121,-81,-57,20,-32
1491692922820,3,-34,-37,-74,-128,-128,73,37,60
1491692922821,0,-59,8,11,-107,-117,-94,-35,59
1491692922821,0,20,21,25,98,-128,-33,2,39
1491692922821,1,-73,-16,-43,127,119,43,-54,-9
1491692922821,1,58,24,10,-8,-90,99,93,80
1491692922830,2,35,5,-54,-107,-72,2,58,61
1491692922830,2,7,-5,28,90,-84,-26,-63,21
1491692922868,3,-11,45,72,-113,-54,-54,67,-64
1491692922868,3,-89,-8,-2,-4,-65,-16,-77,-55
1491692922869,0,17,-50,-89,127,127,-40,-16,-85
1491692922869,0,77,-8,11,-128,81,15,95,70
1491692922870,2,-48,-35,-69,112,41,-63,-4,-49
1491692922870,2,-42,0,88,24,51,32,46,107
1491692922871,3,84,2,-40,-128,-32,87,-18,11
1491692922871,3,-79,2,-32,121,-6,-74,-95,-57
1491692922917,0,-34,35,93,75,-28,19,8,-1
1491692922917,0,-47,-41,-111,-89,103,42,47,-46
1491692922918,1,60,-7,38,-94,100,-36,-28,111
1491692922918,1,47,47,7,59,42,1,103,51
1491692922919,3,-6,8,13,-57,-7,99,45,36
1491692922919,3,107,-31,-125,-128,50,-52,-73,44
1491692922920,0,-44,-2,-4,-24,20,83,57,24
1491692922920,0,-32,26,91,73,-45,127,-87,-82
1491692922966,1,-68,-1,49,-25,39,-124,76,-115
1491692922966,1,19,-39,-53,-45,44,81,30,62
1491692922967,2,72,19,-33,-37,4,-73,-44,-9
1491692922967,2,-29,-15,-128,-128,41,-50,0,-18
1491692922969,0,36,-9,-64,-63,-39,-1,-51,109
1491692922969,0,-79,-57,-89,52,31,-35,-39,-89
1491692922970,1,88,11,16,17,-29,-66,-17,16
1491692922970,1,24,17,113,-4,-25,-23,37,-79
1491692923015,2,-5,19,102,64,-68,127,97,25
1491692923015,2,-48,47,90,14,-27,-128,-125,42
1491692923015,3,17,-30,-124,32,50,127,113,58
1491692923015,3,27,-8,-54,13,-12,-26,-35,-76
1491692923016,1,6,7,57,72,5,-13,-32,-41
1491692923016,1,-64,45,123,-52,17,82,20,102
1491692923017,2,18,-55,-107,25,27,-51,-33,-40
1491692923017,2,57,9,3,56,-39,122,35,58
1491692923063,3,-26,11,40,-97,-7,-68,1,58
1491692923063,3,10,-63,-111,127,36,-127,-29,23
1491692923065,0,22,17,105,-128,7,55,-15,24
1491692923065,0,127,21,-17,24,-55,37,-41,92
1491692923113,1,-8,47,61,-4,15,33,36,-4
1491692923113,1,-58,-31,-87,105,20,-88,-55,-8
1491692923114,2,-37,-66,-86,-125,-25,-12,-1,28
1491692923114,2,-49,22,117,32,-32,-22,-85,-35
1491692923115,3,-7,38,56,-64,15,-75,-46,-31
1491692923115,3,75,-7,-48,24,0,13,22,88
1491692923117,0,-10,-5,-102,-43,-4,66,-32,36
1491692923117,0,63,10,46,95,-4,73,21,-21
1491692923161,2,57,-17,-23,38,0,-128,-99,-67
1491692923161,2,-36,10,27,-79,-11,82,76,50
1491692923163,3,-27,-46,-64,64,-2,27,31,-34
1491692923163,3,-33,-42,-128,-121,3,-78,-73,-93
1491692923164,3,83,-2,-71,-39,3,-45,120,5
1491692923164,3,57,-29,-21,108,1,19,-20,-4
1491692923166,0,-46,50,105,-85,-1,-22,-31,22
1491692923166,0,-28,-17,-66,9,-5,-62,38,-62
1491692923356,1,-43,-56,-94,70,3,-78,-73,93
1491692923356,1,52,-3,-22,-112,-2,-86,67,-103
1491692923357,2,49,19,63,2,0,62,26,50
1491692923357,2,99,1,53,-21,21,-97,-113,-20
1491692923357,0,63,35,107,127,-5,-35,-67,-76
1491692923357,0,-15,0,-31,-82,-17,-52,95,73
1491692923358,1,-38,-64,-105,-65,6,-59,-128,-76
1491692923358,1,-122,20,71,62,5,94,77,-62
1491692923405,2,-7,-25,-128,-47,-7,89,53,-44
1491692923405,2,53,37,127,-33,-1,35,-6,77
1491692923406,3,-19,-3,58,71,6,-98,-24,6
1491692923406,3,-31,-7,37,-73,1,64,-94,127
1491692923406,2,38,34,-128,-128,0,44,45,125
1491692923406,2,-6,27,-15,-119,-4,24,50,15
1491692923407,3,44,-4,86,90,29,-51,-114,-8
1491692923407,3,-21,76,31,-102,-102,70,63,-21
1491692923453,0,17,20,-14,2,20,-18,-73,-28
1491692923453,0,-11,22,41,99,-25,32,62,68
1491692923454,1,-50,-34,-116,-24,28,-78,-16,-46
1491692923454,1,0,-65,-80,-71,-8,-127,-117,-34
1491692923455,0,-41,-61,-118,57,37,-67,-76,-95
1491692923455,0,40,5,65,-26,13,112,-30,32
1491692923456,1,-23,7,-57,26,23,-3,51,-17
1491692923456,1,-66,-88,-68,-38,127,-102,-118,-40
1491692923502,2,53,12,56,-57,-40,79,115,72
1491692923502,2,-39,-28,-5,96,127,3,-23,-68
1491692923503,3,-51,-9,-52,-128,110,58,-68,5
1491692923503,3,80,112,120,127,102,-42,15,49
1491692923504,1,-32,-55,-90,-101,-109,92,94,-15
1491692923504,1,-69,-27,68,-74,-128,59,-54,-81
1491692923505,2,-46,-59,57,127,-118,-104,-65,-40
1491692923505,2,37,-74,-128,-65,-90,-34,88,-18
1491692923551,3,-6,-36,-47,-26,-123,7,-37,15
1491692923551,3,65,-29,86,-6,-128,75,60,35
1491692923552,0,9,50,108,24,-110,63,-7,9
1491692923552,0,-21,-26,27,-68,-93,63,-103,-16
1491692923552,2,3,52,68,20,-52,2,-7,7
1491692923552,2,36,41,51,51,-36,62,70,44
1491692923553,3,-61,-82,-98,98,-25,-106,-54,-69
1491692923553,3,31,-55,44,-86,-23,57,-77,-21
1491692923600,0,36,34,31,-128,-18,-5,0,37
1491692923600,0,-25,18,86,127,-5,-71,84,7
1491692923601,1,44,80,127,80,-3,20,-53,60
1491692923601,1,-10,20,127,21,-13,14,96,-17
1491692923601,3,62,51,73,-28,1,50,26,31
1491692923601,3,7,18,46,127,-8,67,-18,26
1491692923602,0,-7,-45,-82,-27,0,-34,87,45
1491692923602,0,-76,-17,-68,-5,6,-84,-27,-34
1491692923648,1,15,22,-47,-128,-1,3,-15,13
1491692923648,1,-16,24,50,39,-5,-1,17,-20
1491692923649,2,24,0,-22,37,0,-19,29,-23
1491692923649,2,-14,-63,-128,11,1,-44,-12,1
1491692923650,0,-45,-15,-51,70,-1,-76,-50,-31
1491692923650,0,83,-29,36,-52,0,53,-20,19
1491692923651,1,23,-35,89,-97,0,-39,7,-31
1491692923651,1,-33,40,79,4,-1,58,-14,83
1491692923697,2,-38,34,127,-106,-1,127,35,-18
1491692923697,2,-20,-78,127,83,0,-39,6,-15
1491692923698,3,10,72,127,30,-73,-6,-57,-26
1491692923698,3,-23,-43,-128,-114,-115,-22,10,65
1491692923699,1,-14,-60,-123,-79,16,-57,-22,-49
1491692923699,1,13,43,120,46,105,58,2,-15
1491692923700,2,0,110,-57,0,127,41,62,26
1491692923700,2,-47,-103,-128,112,127,-48,-82,-18
1491692923795,3,-9,-34,32,-103,121,-128,-69,-24
1491692923795,3,8,25,85,-36,119,79,62,-23
1491692923796,0,7,-13,90,-61,127,106,20,4
1491692923796,0,15,-49,-43,68,109,17,-10,36
1491692923796,1,-50,-6,-128,21,82,9,-35,10
1491692923796,1,61,-30,16,2,65,-41,33,-50
1491692923797,2,11,42,117,125,52,-101,-24,3
1491692923797,2,75,57,-76,-128,44,-7,30,40
1491692923843,3,-33,-105,40,126,33,20,-48,-70
1491692923843,3,-15,-33,38,44,24,-15,8,45
1491692923844,0,3,-9,-101,-53,12,35,-9,-22
1491692923844,0,-44,93,114,-128,55,-89,46,10
1491692923845,2,-19,-6,2,-91,-2,75,79,-12
1491692923845,2,39,79,108,-91,-2,56,44,18
1491692923846,3,-6,8,3,77,54,-29,-22,14
1491692923846,3,-25,1,-128,-128,-78,-67,-27,13
1491692923941,0,-32,-24,-58,-98,-46,-69,-36,28
1491692923941,0,31,-87,40,45,58,33,32,-23
1491692923942,1,5,80,56,116,54,84,14,73
1491692923942,1,-37,8,-102,-128,-67,-118,-26,-9
1491692923943,0,48,-15,-119,-80,-14,-34,-43,7
1491692923943,0,-31,59,78,57,91,22,-15,-15
1491692923944,1,2,16,-109,-10,-35,127,-4,0
1491692923944,1,-38,-16,-107,-96,-88,-77,-79,-19
1491692923990,2,-32,18,7,16,-67,-61,121,13
1491692923990,2,-9,14,-34,-55,15,32,-22,12
1491692923991,3,26,-47,-117,-113,-106,2,33,17
1491692923991,3,9,21,48,-87,79,127,-35,-55
1491692923992,1,-15,2,-29,-115,28,-4,35,24
1491692923992,1,77,27,18,10,-13,6,46,36
1491692923993,2,15,78,109,-34,111,73,-23,32
1491692923993,2,-17,-14,-22,127,-9,94,-49,-24
1491692924039,3,-22,-46,-97,-128,-128,-109,-94,38
1491692924039,3,-27,3,-18,-68,-22,73,95,-19
1491692924043,0,81,-4,76,114,92,78,-8,41
1491692924043,0,-46,35,127,-17,77,44,20,21
1491692924045,3,-101,-4,124,-16,67,74,-58,-48
1491692924045,3,15,-24,-87,-128,-72,-117,32,29
1491692924047,0,0,-7,46,94,24,-41,-5,21
1491692924047,0,19,21,-4,-128,40,-23,-32,-31
1491692924087,1,-8,-39,-21,92,-97,-29,41,2
1491692924087,1,-26,-31,-24,-15,8,79,-13,-46
1491692924088,2,38,74,12,-128,44,96,-85,103
1491692924088,2,35,-17,-112,69,-128,-41,42,7
1491692924088,0,-54,-76,-5,-12,-23,-68,0,-73
1491692924088,0,19,60,127,-6,116,-2,-69,29
1491692924090,1,15,-8,-35,56,-27,-8,66,15
1491692924090,1,-8,-30,-52,10,-73,76,-45,39
1491692924136,2,-61,-44,-7,47,-114,-55,31,-22
1491692924136,2,80,-6,14,24,-101,-16,34,0
1491692924138,3,-11,64,77,-42,-92,-21,26,-4
1491692924138,3,28,-67,-46,109,-88,-51,-68,-4
1491692924139,0,47,-2,-77,-124,-103,52,-46,-27
1491692924139,0,-46,-62,-128,-58,8,21,-83,-31
1491692924140,1,-3,19,127,61,127,127,60,-19
1491692924140,1,27,102,127,13,127,111,20,-8
1491692924185,2,-25,8,-28,127,53,-65,78,55
1491692924185,2,-28,-40,-94,-18,27,-128,-42,30
1491692924186,3,-46,32,-54,-128,13,37,-28,-76
1491692924186,3,48,32,60,-58,-14,-33,21,-13
1491692924187,1,-80,-44,-97,56,-50,14,-71,5
1491692924187,1,-2,8,-87,-27,-2,-128,-17,66
1491692924188,2,78,-30,-67,-17,-14,54,66,1
1491692924188,2,-32,15,-90,-91,-28,91,-27,46
1491692924233,3,51,20,-75,-77,-38,6,-43,25
1491692924233,3,-97,-58,-128,106,-123,-79,61,-33
1491692924235,0,10,-48,-74,-121,-128,115,43,-15
1491692924235,0,44,26,127,78,-103,15,8,45
1491692924235,2,-14,-36,0,4,-66,25,-83,-41
1491692924235,2,-11,-9,70,36,-81,-34,-11,-88
1491692924236,3,-26,59,101,84,-32,127,115,45
1491692924236,3,104,-21,76,30,4,-36,64,33
1491692924282,0,-44,-65,29,-13,-51,41,-106,-26
1491692924282,0,0,-6,19,17,-50,59,-22,-4
1491692924331,1,13,-5,62,-59,-53,82,22,-51
1491692924331,1,-4,19,36,127,67,-31,-26,15
1491692924380,3,-44,-34,18,39,-14,83,-11,-20
1491692924380,3,105,13,28,-107,90,12,50,79
1491692924381,0,-56,7,15,-74,-47,-57,1,-96
1491692924381,0,-38,-27,-21,-12,53,-87,11,30
1491692924382,1,-48,-18,0,-26,120,-23,13,5
1491692924382,1,33,19,37,79,88,25,-33,3
1491692924383,2,32,24,99,5,-57,-50,-43,16
1491692924383,2,16,10,15,-128,-35,-8,46,-13
1491692924428,0,4,-25,-128,18,103,-109,16,105
1491692924428,0,67,-1,70,127,36,109,-3,-76
1491692924429,1,74,9,70,92,94,116,-10,-47
1491692924429,1,-7,3,-4,-36,-8,-43,106,37
1491692924430,2,11,5,-112,-39,-96,32,1,0
1491692924430,2,-49,-30,-120,-75,-113,-52,0,7
1491692924431,3,79,-9,18,-121,54,-51,-36,16
1491692924431,3,16,25,42,37,-65,41,-124,-128
1491692924477,0,-109,43,-13,31,-60,83,55,0
1491692924477,0,107,4,-60,86,84,-34,2,75
1491692924478,1,-73,-19,37,25,66,3,63,-75
1491692924478,1,44,-51,-128,-128,17,-86,-120,-41
1491692924479,2,-52,-17,10,-58,9,33,35,57
1491692924479,2,17,45,101,14,-128,65,47,4
1491692924480,3,15,44,35,46,-116,-51,-2,-8
1491692924480,3,47,6,101,127,120,60,-6,29
1491692924526,0,-64,-17,109,-5,57,-109,-69,-3
1491692924526,0,-17,2,62,-54,-61,-56,29,2
1491692924527,1,57,32,81,9,-44,50,-55,52
1491692924527,1,-28,36,45,79,-1,41,106,-20
1491692924527,3,-74,-32,-128,-111,-103,-103,-63,-43
1491692924527,3,-16,-3,-128,-128,17,5,76,93
1491692924528,0,15,-18,47,116,85,-59,-108,-64
1491692924528,0,-17,25,0,-51,47,-37,11,-52
1491692924575,1,-51,-9,6,-88,-52,-11,88,11
1491692924575,1,-75,-42,-69,23,56,-84,-28,-19
1491692924575,2,5,11,11,-26,-81,33,51,-23
1491692924575,2,-22,-16,81,77,-67,-26,-66,-62
1491692924576,0,-75,-10,20,-17,30,90,50,-29
1491692924576,0,-8,-3,-9,83,-4,-58,-111,-13
1491692924577,1,-43,36,72,-55,1,127,109,32
1491692924577,1,-14,5,44,-128,-80,-85,-79,-20
1491692924623,2,-1,-43,-121,94,96,-60,6,24
1491692924623,2,-110,-36,-44,-128,99,-21,-56,-44
1491692924624,3,28,-3,39,127,-8,37,76,113
1491692924624,3,25,33,39,0,-51,-33,-31,26
1491692924625,1,-111,-28,-85,-93,106,-98,41,-101
1491692924625,1,67,35,20,87,-127,120,89,-42
1491692924672,2,3,8,0,82,108,-65,31,45
1491692924672,2,-2,-23,-79,-28,-17,5,-77,-20
1491692924673,3,-2,0,-92,-52,-21,-88,-90,-83
1491692924673,3,-6,-7,-51,-41,-38,-17,-100,-17
1491692924674,0,-77,-34,-128,15,88,43,120,24
1491692924674,0,9,42,75,-85,-48,122,74,-17
1491692924675,2,112,26,106,-83,-82,77,-77,68
1491692924675,2,88,-22,-111,127,127,-128,7,-25
1491692924721,3,-15,4,-92,-99,21,127,106,64
1491692924721,3,-2,-7,96,79,-63,-24,-37,30
1491692924722,0,-12,27,109,-108,-86,110,41,17
1491692924722,0,-1,5,127,19,-28,38,10,-88
1491692924723,1,47,-38,96,-30,32,-62,-128,-60
1491692924723,1,-11,-27,-102,-30,104,-8,31,-4
1491692924724,3,-85,12,39,67,66,-39,-94,85
1491692924724,3,17,19,-8,-88,-96,-39,53,-55
1491692924770,0,-24,-51,-87,127,75,-4,-91,-36
1491692924770,0,42,-30,-74,-41,44,-1,82,73
1491692924771,1,48,13,-34,-75,74,47,105,-53
1491692924771,1,1,28,52,15,-100,-1,-17,28
1491692924771,0,-6,25,32,-13,-42,12,-18,-88
1491692924771,0,-25,37,78,-46,58,52,-12,28
1491692924772,1,-84,-23,107,92,9,-58,-103,-55
1491692924772,1,32,-39,-27,-86,-81,-84,17,-43
1491692924818,2,-49,-11,115,68,100,-20,-4,88
1491692924818,2,-32,-5,-29,-60,61,-69,-49,-27
1491692924819,3,98,1,-47,-95,33,15,64,43
1491692924819,3,-100,35,127,-43,-23,78,-97,-2
1491692924820,0,111,6,-28,-73,-128,46,80,38
1491692924820,0,10,-21,-11,106,34,-74,-30,27
1491692924821,1,9,-5,67,-47,81,57,-8,-6
1491692924821,1,-36,-30,13,50,-5,-49,-81,20
1491692924867,2,-46,-3,-16,21,-39,7,110,-9
1491692924867,2,-11,55,-13,-34,-128,34,1,7
1491692924868,3,19,28,-35,-16,-47,50,-28,42
1491692924868,3,45,28,-3,4,-49,-8,-2,-74
1491692924868,1,-6,-18,23,81,74,-27,-66,-96
1491692924868,1,75,-7,62,-128,-59,-15,35,57
1491692924869,2,-95,6,-12,127,-103,-84,31,-25
1491692924869,2,100,16,19,-61,-128,-84,-47,115
1491692924916,3,-128,54,75,73,-128,42,75,-59
1491692924916,3,-87,-48,-128,-21,23,-98,-41,-123
1491692924917,0,63,-18,108,-122,45,36,-92,-34
1491692924917,0,-59,0,-28,-94,-34,-52,-22,-12
1491692924917,2,-51,-4,103,-98,-92,-76,89,1
1491692924917,2,-36,18,126,-65,26,18,-107,-118
1491692924918,3,70,-2,53,-112,-128,-44,31,-22
1491692924918,3,-77,-41,-50,91,127,-30,10,8
1491692924965,0,71,41,11,-128,-79,112,-95,120
1491692924965,0,-65,-89,-72,127,127,-64,56,13
1491692924965,1,-27,-45,-128,-32,-109,-27,-92,22
1491692924965,1,-53,4,-118,26,99,-78,-40,-42
1491692924966,3,-116,-21,-122,-89,118,-19,-109,24
1491692924966,3,-22,7,11,-57,-128,82,39,-35
1491692924967,0,-128,-58,-117,114,127,-50,-102,-72
1491692924967,0,-34,38,-98,-32,48,-1,-14,20
1491692925013,1,40,21,0,32,-98,115,-5,60
1491692925013,1,69,56,125,1,-41,127,53,-25
1491692925014,2,3,-18,83,-18,106,-59,16,-27
1491692925014,2,7,-45,36,79,-65,-15,-31,26
1491692925015,0,-60,25,23,-94,-22,20,-12,15
1491692925015,0,-114,-119,-33,22,127,30,-97,-81
1491692925016,1,18,23,-6,-98,-128,-77,33,19
1491692925016,1,-75,-6,79,78,127,-86,-78,56
1491692925062,2,55,-13,-69,-128,-23,99,116,-38
1491692925062,2,51,35,74,-80,-36,-61,-97,54
1491692925063,3,-62,6,46,12,-86,34,40,4
1491692925063,3,71,7,-117,-4,94,-84,16,-23
1491692925063,1,127,22,57,-33,101,-12,-40,-3
1491692925063,1,-77,-23,-41,-71,-122,10,79,-34
1491692925064,2,-76,-52,25,71,100,-75,-113,-33
1491692925064,2,28,-19,53,-17,-77,118,98,-73
1491692925111,3,39,20,-9,94,109,-100,34,51
1491692925111,3,-65,-6,53,-69,94,75,-125,-32
1491692925112,0,24,19,-9,-92,-68,-10,20,23
1491692925112,0,-63,-34,-13,20,-36,-66,-128,-44
1491692925113,2,-58,53,98,74,-128,21,-44,1
1491692925113,2,29,108,-4,-57,-53,-98,49,52
1491692925114,3,79,24,-18,-23,-128,52,-41,-60
1491692925114,3,-44,-65,34,80,49,-55,27,-41
1491692925160,0,-25,23,-13,-117,-105,86,16,63
1491692925160,0,22,-38,-44,127,127,-56,55,23
1491692925162,1,-66,-93,-62,-99,-47,-89,-100,-63
1491692925162,1,22,-34,-123,14,-97,18,85,102
1491692925163,2,-25,-54,-21,7,40,-39,-65,-98
1491692925163,2,11,73,50,61,116,56,22,-69
1491692925164,3,-37,32,86,90,-91,81,101,108
1491692925164,3,34,90,127,-86,-105,14,-46,-39
1491692925208,0,36,-15,-67,81,93,-14,62,-5
1491692925208,0,-87,-86,-77,-128,121,-110,-128,6
1491692925210,1,13,-5,23,36,91,25,87,-34
1491692925210,1,-13,-34,-55,67,107,71,-29,-24
1491692925211,3,-5,-10,-99,-42,-3,16,-87,-20
1491692925211,3,-102,-44,-7,45,-116,-28,-85,37
1491692925212,0,63,36,95,-68,-122,-55,54,31
1491692925212,0,-45,-1,-51,-9,-128,-21,-88,-76
1491692925261,1,15,-40,-54,-33,-128,51,73,116
1491692925261,1,23,11,-14,6,-98,-40,51,4
1491692925264,2,-21,11,6,54,-86,93,4,-73
1491692925264,2,31,54,80,-128,-128,-79,63,125
1491692925265,0,57,21,63,61,-88,28,27,-24
1491692925265,0,37,-3,-98,-79,4,-16,45,-10
1491692925266,1,-57,15,94,127,-44,25,-55,-48
1491692925266,1,-13,-49,-74,-108,91,-53,-80,-2
1491692925307,2,-34,-19,-38,-56,-55,-95,-75,-19
1491692925307,2,46,6,8,-86,-97,52,81,25
1491692925310,3,36,83,86,116,-48,69,8,62
1491692925310,3,4,48,-61,-66,-114,-8,0,-61
1491692925311,1,-9,-76,-64,100,127,-46,102,-2
1491692925311,1,30,78,127,-128,76,4,-14,22
1491692925311,2,-14,-15,12,-103,94,40,54,8
1491692925311,2,-16,-35,-9,34,44,-32,-50,-29
1491692925354,3,17,62,127,-4,-48,92,42,3
1491692925354,3,24,-55,-112,-43,-60,-3,-69,7
1491692925355,0,-48,-39,-116,-80,-27,-128,-77,-16
1491692925355,0,76,-61,-99,39,-26,127,-11,-75
1491692925359,2,-44,-43,-15,-64,-128,-91,-117,-47
1491692925359,2,-17,-7,64,-72,-128,-38,21,14
1491692925360,3,23,31,70,-14,-121,44,-44,2
1491692925360,3,63,76,127,-38,-18,20,82,28
1491692925404,0,-23,6,127,-35,62,22,-18,24
1491692925404,0,23,-38,127,55,125,-18,8,33
1491692925405,1,-22,-66,127,-128,127,-69,-97,-49
1491692925405,1,-18,-50,17,66,118,-9,-3,-23
1491692925406,3,42,89,-128,56,107,59,30,-28
1491692925406,3,8,-30,-128,-55,65,-29,-87,24
1491692925452,0,-56,-46,-110,-97,62,50,50,-24
1491692925452,0,35,64,-96,-47,60,119,53,-5
1491692925453,1,12,-14,-128,96,37,-84,25,-12
1491692925453,1,8,8,-68,77,25,-39,-20,-19
1491692925453,2,70,78,-40,31,29,43,-46,12
1491692925453,2,-81,-73,-53,92,15,-89,32,15
1491692925454,0,14,31,0,-70,35,-53,-85,-14
1491692925454,0,-42,-42,-26,127,-16,31,47,-16
1491692925501,1,26,-89,-99,-128,5,-128,-6,94
1491692925501,1,-21,10,84,-128,10,81,-13,25
1491692925502,2,-13,-70,38,127,-22,38,6,40
1491692925502,2,52,22,34,-27,109,30,-52,-10
1491692925503,1,-67,-24,-73,-88,63,-12,13,-45
1491692925503,1,0,41,69,-23,50,107,-40,4
1491692925504,2,35,-20,-80,127,58,-11,91,19
1491692925504,2,-20,70,-91,-24,60,81,-3,-9
1491692925550,3,19,25,104,-92,52,-20,-23,24
1491692925550,3,0,-25,-128,7,-67,-86,-77,-16
1491692925551,0,-58,-106,30,-44,-14,56,42,-19
1491692925551,0,43,89,-26,-6,-99,-128,-108,2
1491692925552,1,67,-36,-50,-30,-28,124,127,78
1491692925552,1,15,67,113,31,127,81,-32,-7
1491692925552,2,-11,-19,-102,74,-128,73,-4,-43
1491692925552,2,-4,-86,0,-83,-114,-72,34,-46
1491692925598,3,31,105,107,-34,125,79,-43,13
1491692925598,3,-15,-53,-128,41,-128,-97,-27,5
1491692925599,0,-5,6,68,-71,120,84,36,-24
1491692925599,0,17,-1,15,-10,84,-36,61,118
1491692925600,2,-8,6,56,-66,-128,-128,-50,26
1491692925600,2,10,-64,-38,6,-61,-26,-9,-45
1491692925601,3,21,-6,35,-52,-128,1,80,11
1491692925601,3,45,-23,-16,-46,-56,95,22,2
1491692925647,0,9,82,85,-128,7,-51,-26,-3
1491692925647,0,6,-17,44,-52,-20,127,43,-71
1491692925648,1,50,-62,-91,127,-128,-128,-84,5
1491692925648,1,-79,47,-16,-21,-123,11,22,-28
1491692925649,3,-54,-41,29,24,-74,-70,-58,-29
1491692925649,3,-37,-16,80,31,-30,2,3,-41
1491692925650,0,38,40,90,-45,27,14,15,9
1491692925650,0,26,47,127,127,68,63,5,40
1491692925696,1,-32,28,20,-73,-55,-9,-16,-23
1491692925696,1,16,-40,-80,59,-90,-25,17,36
1491692925697,2,-16,-63,-128,-27,-128,-95,-56,-68
1491692925697,2,-24,39,113,-65,127,111,-46,-36
1491692925698,0,34,10,-24,-27,17,35,93,23
1491692925698,0,47,2,-62,88,-12,1,45,13
1491692925698,1,-89,4,-29,-55,-49,39,-46,-87
1491692925698,1,-40,-17,5,71,68,52,-4,0
1491692925745,2,93,6,60,92,-16,-38,-111,23
1491692925745,2,-26,70,68,-66,94,56,120,40
1491692925746,3,-51,-64,-67,16,-54,-64,-102,-34
1491692925746,3,-25,1,1,-8,90,-49,17,16
1491692925746,1,53,67,96,127,127,98,-17,25
1491692925746,1,87,6,-100,-14,-128,-63,94,-20
1491692925747,2,-42,0,41,-38,98,81,-12,36
1491692925747,2,-37,-11,17,2,-107,-18,9,-39
1491692925795,3,10,-57,-94,13,-2,109,1,-22
1491692925795,3,19,-6,120,115,127,3,-35,40
1491692925798,0,40,11,-65,13,18,4,24,71
1491692925798,0,-58,-65,-128,-21,-52,-38,-128,-97
1491692925842,2,30,45,121,-39,94,103,33,-39
1491692925842,2,-54,-35,-86,114,-95,-83,-55,-8
1491692925844,3,-3,-3,-128,-116,-86,51,-40,10
1491692925844,3,79,36,21,-128,67,-60,-39,-34
1491692925849,0,-65,-48,-23,118,-106,-92,43,58
1491692925849,0,3,-7,-40,-128,34,68,-32,72
1491692925850,1,35,69,67,-63,52,-79,-29,-31
1491692925850,1,0,87,97,-33,76,99,38,30
1491692925891,3,45,-17,39,-48,-25,-83,15,-4
1491692925891,3,8,-13,24,-128,68,91,23,25
1491692925892,0,51,55,78,-117,88,78,10,-34
1491692925892,0,-55,11,67,26,6,17,-5,2
1491692925893,1,-28,44,90,-7,127,35,109,37
1491692925893,1,24,-64,-83,127,-128,-11,-61,-8
1491692925894,3,-30,-22,-64,-128,-36,-11,19,-3
1491692925894,3,-20,15,97,102,48,-42,-28,13
1491692925940,0,10,-32,-128,71,-128,4,-30,-95
1491692925940,0,48,32,66,27,-27,2,30,-1
1491692925988,1,-6,19,54,-47,-61,127,-2,26
1491692925988,1,-31,-36,-72,-97,-82,-49,9,32
1491692925989,0,-75,-2,20,90,-23,-102,-33,-52
1491692925989,0,-1,-37,-105,-88,-40,3,30,25
1491692925990,1,-10,0,-106,34,-8,19,-18,-49
1491692925990,1,22,35,-4,-57,105,127,64,38
1491692925991,2,-26,-28,-125,-127,100,67,-30,24
1491692925991,2,-81,-41,-99,48,96,-105,-41,32
1491692926037,3,-67,-15,-9,27,127,-98,-30,5
1491692926037,3,11,38,29,11,67,62,10,-128
1491692926038,1,9,-6,98,127,93,108,-6,-44
1491692926038,1,-37,-25,43,-26,-59,-38,-29,-52
1491692926039,2,39,8,72,22,-61,-30,-25,23
1491692926039,2,-15,62,112,-91,-74,3,89,31
1491692926040,2,53,46,36,86,-75,-96,-49,44
1491692926040,2,98,-11,18,-26,-47,82,113,-40
1491692926086,3,69,-26,-7,-73,-27,-40,-58,-7
1491692926086,3,-39,-9,11,77,-55,116,-27,-7
1491692926087,0,22,-3,4,-110,-41,-68,-116,-39
1491692926087,0,69,21,7,-38,19,12,83,-11
1491692926088,3,52,18,4,43,-5,-27,50,42
1491692926088,3,-41,15,-6,-81,-22,1,73,2
1491692926089,0,34,-12,3,0,6,76,48,58
1491692926089,0,60,-37,13,124,9,-43,-63,13
1491692926135,1,-37,-16,-7,-75,-82,45,-20,52
1491692926135,1,118,11,-7,39,22,-46,-23,68
1491692926136,2,-59,-14,74,-2,-28,4,46,-75
1491692926136,2,-60,33,113,23,-111,48,-51,-31
1491692926137,0,6,-22,-44,-128,46,-5,-68,-1
1491692926137,0,-33,-12,-12,127,89,2,87,66
1491692926138,1,26,27,26,-128,-71,-22,-54,-48
1491692926138,1,37,-25,-82,20,26,38,20,-35
1491692926183,2,-5,33,80,-32,-11,-30,3,2
1491692926183,2,-75,-9,-58,-66,35,37,-28,-63
1491692926186,3,-6,-56,-79,43,103,-83,-79,-49
1491692926186,3,27,-23,-72,-88,-46,57,93,27
1491692926191,1,0,14,35,-101,-56,57,91,3
1491692926191,1,-12,2,-46,-70,13,-84,-104,-31
1491692926193,2,-15,-44,-128,56,67,65,13,50
1491692926193,2,8,-7,-71,-85,-22,-8,-38,-15
1491692926233,3,-75,30,-9,-37,-33,2,34,-46
1491692926233,3,34,-13,79,108,66,24,-53,36
1491692926236,0,15,35,112,-89,-11,1,103,-79
1491692926236,0,4,-2,59,88,-23,-57,-70,28
1491692926236,1,-36,-6,-56,99,-22,74,-128,-41
1491692926236,1,-14,1,-70,-93,9,-59,91,45
1491692926237,2,19,4,13,61,-84,44,-65,-108
1491692926237,2,57,-31,-53,-119,-24,-44,5,72
1491692926281,3,-49,-4,73,88,80,-6,-10,-11
1491692926281,3,-34,-25,-40,-21,-63,56,63,8
1491692926282,0,58,-6,14,-14,61,-79,-40,22
1491692926282,0,27,-19,-42,-47,37,83,75,44
1491692926283,2,-23,-12,-49,-45,60,-78,-56,82
1491692926283,2,-64,10,-65,-112,-88,65,86,12
1491692926330,3,107,-5,-77,76,127,6,-18,-28
1491692926330,3,-67,-26,-23,127,63,18,-66,-49
1491692926330,0,24,21,36,-34,-122,65,103,12
1491692926330,0,-49,9,34,65,34,16,-128,-39
1491692926331,1,-71,15,-90,-128,-80,-14,96,-30
1491692926331,1,72,-1,-65,52,-72,104,4,33
1491692926332,3,-50,1,19,-128,-128,110,98,50
1491692926332,3,32,38,14,57,73,-9,-32,-30
1491692926378,0,-35,-23,-111,-59,43,85,68,-28
1491692926378,0,-3,20,3,-26,-76,91,-50,-50
1491692926380,1,11,-27,-17,104,127,-112,-56,73
1491692926380,1,28,10,-26,-128,47,-59,-27,26
1491692926389,0,-9,-27,-57,-55,-50,-100,-89,-17
1491692926389,0,7,-5,39,80,65,51,127,47
1491692926391,1,-7,-36,-26,-45,-5,25,-30,19
1491692926391,1,-50,5,-4,-125,-70,-116,9,-34
1491692926432,2,22,-15,-6,90,36,-37,-75,27
1491692926432,2,-44,-49,-62,-79,123,-9,-11,-95
1491692926433,3,-21,22,88,-66,-32,6,-22,-12
1491692926433,3,71,36,29,-107,-119,40,-80,20
1491692926434,1,-57,-32,-96,-42,-38,-69,-65,-20
1491692926434,1,75,-7,4,-43,-18,30,-83,-77
1491692926434,2,-40,34,84,48,-128,18,78,-50
1491692926434,2,-20,12,-24,-9,-95,-6,86,32
1491692926476,3,6,-23,72,105,127,42,-83,-63
1491692926476,3,-80,17,-28,-112,-90,-64,48,20
1491692926479,0,0,-26,-74,127,-8,84,3,-31
1491692926479,0,25,15,47,45,-128,54,21,-64
1491692926480,2,-121,-25,-51,-114,51,78,75,-24
1491692926480,2,52,12,-14,53,-52,-44,-11,-54
1491692926480,3,127,21,20,86,-41,-18,-8,50
1491692926480,3,-117,-4,-3,-59,-11,97,-31,42
1491692926525,0,5,-31,-42,91,55,-13,16,16
1491692926525,0,-26,15,105,79,88,-13,-37,36
1491692926525,1,-24,-16,-75,-86,-43,17,-14,45
1491692926525,1,12,5,-28,127,56,-15,19,-55
1491692926527,3,8,18,60,-63,-80,-35,-31,-21
1491692926527,3,-15,-22,-85,-96,61,-37,119,127
1491692926530,0,-33,8,-11,80,43,-54,-97,-106
1491692926530,0,42,-13,33,-77,-46,-11,-38,9
1491692926622,1,48,50,39,-38,-14,20,59,52
1491692926622,1,11,-13,-26,-81,-114,-57,-1,-105
1491692926624,2,-31,-34,17,54,37,89,19,5
1491692926624,2,-73,-2,10,36,25,-16,-75,-44
1491692926625,3,-2,-14,-64,56,41,4,18,-52
1491692926625,3,16,8,-27,-70,30,44,68,6
1491692926626,0,18,20,25,-70,-128,106,-55,-18
1491692926626,0,-86,-4,27,-14,10,-107,-21,41
1491692926674,1,-30,-11,19,106,126,59,9,36
1491692926674,1,11,-16,44,127,-79,90,-22,-13
1491692926675,2,-6,-3,-1,-93,80,-32,-5,-28
1491692926675,2,31,2,-50,-20,44,107,-27,50
1491692926675,0,-28,11,70,118,-10,-31,-71,2
1491692926675,0,30,1,10,-128,-38,-43,-63,-25
1491692926676,1,53,68,127,91,-128,24,-7,-7
1491692926676,1,30,-9,-39,-93,91,-3,26,42
1491692926720,2,-63,-3,-70,100,35,-6,-23,-124
1491692926720,2,124,21,69,-86,-46,7,40,83
1491692926721,3,-72,-37,-119,31,80,-78,-26,-27
1491692926721,3,-56,-18,4,34,-67,-103,97,-21
1491692926721,2,-77,-4,16,43,-48,76,20,-9
1491692926721,2,-62,-27,-41,127,107,-128,-100,-73
1491692926723,3,54,-19,-13,-125,-75,127,76,93
1491692926723,3,-21,-11,20,32,35,47,-61,-30
1491692926768,0,-79,24,52,-128,-128,-17,-24,-13
1491692926768,0,97,-5,-42,127,7,86,56,48
1491692926769,1,-12,-1,-30,-128,-113,39,-5,10
1491692926769,1,-29,1,-55,108,49,8,45,-48
1491692926770,3,-25,-20,-11,91,34,-8,-128,-56
1491692926770,3,43,20,34,-96,-128,-42,-11,46
1491692926771,0,-31,10,98,108,-82,45,-14,34
1491692926771,0,11,18,-119,-91,-105,10,-101,-59
1491692926817,1,16,-61,-58,127,127,-62,66,29
1491692926817,1,-75,-4,36,-128,-79,-51,-46,-41
1491692926818,2,-15,-18,-41,-31,-19,54,8,38
1491692926818,2,52,-11,-16,-32,-78,42,10,-43
1491692926866,0,87,14,-4,-48,72,-53,-1,21
1491692926866,0,-28,0,54,-49,85,55,6,96
1491692926870,1,3,10,-4,97,39,30,-12,-24
1491692926870,1,46,-5,53,-19,-128,-6,-43,63
1491692926871,2,-47,-3,30,-44,16,-128,15,-56
1491692926871,2,15,12,26,19,127,65,97,41
1491692926872,3,-2,-8,-7,-128,-50,1,-66,9
1491692926872,3,-53,25,88,115,-43,68,-41,-49
1491692926915,1,44,-77,-94,39,103,-128,-113,-74
1491692926915,1,-76,19,-43,-35,127,102,-69,-51
1491692926916,2,50,36,-3,9,-91,124,123,40
1491692926916,2,-45,6,-1,-67,-100,48,9,-5
1491692926917,3,-43,34,-33,-76,83,-54,53,-33
1491692926917,3,-44,-28,-128,-128,43,-81,-53,65
1491692926917,2,-57,-47,-29,57,-81,-32,-108,-10
1491692926917,2,-19,-55,-123,-40,127,-101,-48,-39
1491692926963,3,86,24,16,-120,-24,96,98,95
1491692926963,3,17,1,13,14,-24,25,-29,23
1491692926965,0,-43,2,39,-110,117,13,-68,-82
1491692926965,0,72,-22,-66,41,-45,-18,93,9
1491692926966,2,54,4,53,106,-42,-9,34,-69
1491692926966,2,-57,50,71,-106,-81,40,-75,-22
1491692926966,3,-8,-32,-18,51,9,-79,-41,80
1491692926966,3,21,0,79,76,-12,-15,42,-11
1491692927012,0,-55,6,65,22,16,-15,-99,62
1491692927012,0,19,16,69,-2,4,48,50,-23
1491692927013,1,74,5,-65,-113,-128,35,78,-27
1491692927013,1,-45,-46,-42,127,41,-66,23,-21
1491692927014,3,37,47,-88,0,37,-71,-14,-76
1491692927014,3,40,-74,-80,-69,13,-62,-19,-3
1491692927014,0,10,-30,33,-102,-32,37,-80,-16
1491692927014,0,-10,-52,-23,-50,79,31,32,100
1491692927061,1,-75,25,112,79,87,89,20,7
1491692927061,1,57,-3,-56,-117,-69,-67,66,83
1491692927062,2,-17,-84,-128,123,127,27,36,-43
1491692927062,2,-9,-16,27,-77,-94,-12,-54,-20
1491692927063,0,-63,-4,-54,96,59,17,68,3
1491692927063,0,74,-38,-54,-73,96,-73,18,13
1491692927063,1,-63,-46,-1,-8,44,-4,-64,-32
1491692927063,1,-91,12,68,-25,-124,30,-116,-63
1491692927110,2,73,61,-13,-105,-16,-21,127,94
1491692927110,2,13,-39,-93,1,-81,-83,-35,-21
1491692927110,3,-58,24,-67,7,127,-83,-32,23
1491692927110,3,-8,-14,4,93,76,44,26,-63
1491692927111,1,123,30,107,-108,-17,26,-74,73
1491692927111,1,-21,20,-122,-77,33,59,76,61
1491692927112,2,-69,-91,-76,-2,76,-120,-88,-64
1491692927112,2,-14,-11,120,24,-107,16,25,26
1491692927159,3,-45,6,72,59,-95,-33,25,-65
1491692927159,3,97,22,63,-100,34,127,-8,46
1491692927160,0,-18,-12,-3,-47,46,-44,-24,-34
1491692927160,0,-27,-36,-19,88,-13,-30,7,-9
1491692927161,2,39,116,127,17,-128,127,100,3
1491692927161,2,39,-67,-109,55,127,-128,-97,-38
1491692927161,3,-22,-61,-120,-128,69,-3,-21,56
1491692927161,3,-50,-14,100,76,-18,-11,79,64
1491692927207,0,65,-18,15,14,118,93,38,32
1491692927207,0,-6,29,127,-128,-128,13,-61,-33
1491692927208,1,-29,81,2,125,-78,11,124,-11
1491692927208,1,-18,-7,-69,98,1,-70,-128,-38
1491692927208,3,-5,-56,-30,-57,-30,-56,-108,-83
1491692927208,3,-3,32,8,-13,99,-10,21,-29
1491692927209,0,-36,-49,-102,-35,-67,-100,-54,-6
1491692927209,0,-15,68,88,74,-76,31,-3,-29
1491692927256,1,-17,-20,48,-17,-31,18,-96,-20
1491692927256,1,22,15,-28,-78,-76,-55,108,36
1491692927257,2,47,-2,-29,45,-81,79,34,4
1491692927257,2,-27,15,28,99,-85,-22,-77,4
1491692927257,0,-34,-88,-128,49,-27,-114,-23,28
1491692927257,0,20,-58,-64,-118,86,-66,-37,1
1491692927258,1,-3,65,98,-48,-49,30,66,-30
1491692927258,1,26,53,60,-11,28,109,18,-42
1491692927305,2,-24,32,0,48,22,-94,-80,-38
1491692927305,2,-28,-59,-101,10,108,22,20,-33
1491692927305,3,-34,-14,-21,99,127,55,-55,-17
1491692927305,3,19,41,62,-24,111,52,65,29
1491692927306,0,-47,8,68,-37,106,66,-3,48
1491692927306,0,31,17,29,24,103,40,12,-34
1491692927307,1,50,10,45,65,127,-55,41,1
1491692927307,1,-33,-92,-12,-27,72,-20,-82,-47
1491692927353,2,-4,-32,127,14,-40,-44,54,19
1491692927353,2,15,-10,-78,43,-121,-126,33,-8
1491692927354,3,-18,13,-31,-128,-128,61,14,63
1491692927354,3,30,9,-30,127,-128,-81,-9,-22
1491692927355,1,10,-8,-123,63,-98,25,50,-18
1491692927355,1,-30,18,-105,-56,-128,52,-35,-2
1491692927356,2,8,51,-102,38,-103,36,-67,9
1491692927356,2,54,26,-45,-38,-109,-73,24,-1
1491692927402,3,-79,-109,-115,70,81,67,-7,-48
1491692927402,3,-39,-33,41,-79,-56,32,-12,-51
1491692927403,0,31,22,105,-101,-76,67,54,19
1491692927403,0,4,57,127,0,8,76,9,9
1491692927404,2,-79,-50,7,-128,22,-66,-56,-28
1491692927404,2,-15,-24,-18,28,-43,21,-51,-5
1491692927404,3,53,20,-93,-17,-82,4,8,0
1491692927404,3,32,52,-89,89,-44,18,8,26
1491692927451,0,-48,-4,-108,16,-59,54,6,-73
1491692927451,0,-12,6,-85,-81,-93,-3,-126,27
1491692927451,1,-8,26,-57,-2,-128,97,52,16
1491692927451,1,47,59,-67,-128,-92,57,110,56
1491692927452,3,-35,-120,-12,-128,108,-100,-36,-73
1491692927452,3,-28,21,-32,76,122,103,-15,-24
1491692927453,0,40,37,-47,-35,127,-48,32,36
1491692927453,0,14,84,11,-128,127,45,93,-25
1491692927500,1,22,8,5,96,61,-25,-73,87
1491692927500,1,-12,-7,-26,125,86,56,14,-44
1491692927500,2,61,51,-16,-106,81,76,90,13
1491692927500,2,-40,-88,10,126,42,-77,-51,-13
1491692927501,0,5,21,-7,82,26,22,29,74
1491692927501,0,38,39,6,1,11,127,91,11
1491692927502,1,-11,5,-3,-31,7,40,64,-4
1491692927502,1,-8,-29,0,79,16,106,-109,-22
1491692927548,2,24,77,-5,-10,-1,-58,62,1
1491692927548,2,-28,-63,-107,106,5,-127,-67,-3
1491692927551,3,-7,-32,21,-23,1,-50,-94,-35
1491692927551,3,13,18,93,35,-1,113,99,-1
1491692927552,1,4,2,-22,-128,-4,85,-25,-6
1491692927552,1,5,-42,-29,-93,-1,-128,-21,-2
1491692927557,2,14,6,-2,33,4,92,-61,-4
1491692927557,2,11,44,-4,-24,3,127,90,10
1491692927599,3,-15,-16,-109,-2,-8,-65,15,-26
1491692927599,3,16,25,37,59,1,72,87,31
1491692927600,0,39,13,75,-22,88,-26,-11,6
1491692927600,0,-14,-7,-72,-103,-75,-55,-5,-27
1491692927601,2,4,5,20,-71,97,-61,-73,-25
1491692927601,2,27,76,127,127,127,117,75,14
1491692927743,3,11,39,-104,-118,-74,-109,-36,4
1491692927743,3,-30,-8,-38,52,38,-103,-87,6
1491692927744,0,-25,5,67,92,36,78,-9,-26
1491692927744,0,8,-29,-113,-60,-73,-95,41,30
1491692927745,1,11,19,-24,26,125,122,-13,44
1491692927745,1,-3,-2,-65,-50,-105,-91,-1,21
1491692927746,2,12,-23,0,-55,64,67,-3,12
1491692927746,2,56,59,3,97,-44,50,7,44
1491692927792,3,-43,-65,-53,-94,-104,-113,-75,-96
1491692927792,3,12,-7,53,-34,111,127,69,-2
1491692927793,0,-11,-29,30,-28,56,48,-10,-26
1491692927793,0,-21,-13,84,-9,1,-67,-6,14
1491692927794,1,34,127,127,127,57,-44,38,30
1491692927794,1,-29,-37,-128,106,0,57,2,-23
1491692927794,1,3,-10,53,-76,14,61,-2,-17
1491692927794,1,14,-6,15,-125,20,64,38,15
1491692927841,2,2,9,97,-109,99,-60,36,23
1491692927841,2,-38,13,59,101,-21,88,12,-2
1491692927842,3,-12,-1,18,10,61,51,7,7
1491692927842,3,-3,8,-15,93,3,-57,48,13
1491692927843,2,30,-17,-6,32,-123,-128,-43,-27
1491692927843,2,-7,-23,-69,-62,21,88,-81,-19
1491692927844,3,18,48,127,-48,110,111,21,32
1491692927844,3,42,66,127,67,127,127,23,30
1491692927890,0,-21,-45,-127,-21,23,44,84,-18
1491692927890,0,-39,-53,-65,7,-95,-121,-108,-32
1491692927891,1,-5,0,11,-39,84,6,0,-22
1491692927891,1,9,-13,23,4,65,-116,-2,13
1491692927891,3,-6,-26,-128,20,-2,-123,75,-13
1491692927891,3,16,-25,-65,-111,-121,-62,-69,18
1491692927892,0,6,22,60,127,116,127,-14,-23
1491692927892,0,-2,18,-18,-83,27,30,42,26
1491692927938,1,1,21,97,110,42,89,-38,21
1491692927938,1,-19,-59,-91,-128,-74,127,70,-8
1491692927939,2,-12,-85,61,-11,23,-81,-108,4
1491692927939,2,26,97,-68,81,-88,-79,1,-32
1491692927940,0,-26,-50,-85,-87,-17,68,-5,-18
1491692927940,0,0,-40,91,79,68,-8,-83,-4
1491692927941,1,4,-43,10,-128,-62,49,8,-3
1491692927941,1,-2,22,9,127,124,17,127,45
1491692927987,2,16,77,-20,-62,-70,-125,-110,-13
1491692927987,2,-41,-39,-114,-128,-68,113,71,-32
1491692927988,3,-9,-36,-8,94,-128,-128,51,8
1491692927988,3,-27,-62,88,33,72,88,-92,-13
1491692927989,0,-7,52,-74,127,-41,113,84,9
1491692927989,0,-14,30,-24,-72,-27,-34,89,2
1491692927990,1,-15,-93,18,22,-35,-78,-58,-14
1491692927990,1,4,22,53,-37,2,2,-93,-67
1491692928036,2,64,-7,127,-5,127,62,93,71
1491692928036,2,7,88,-7,84,-17,114,100,29
1491692928037,3,-50,-67,-128,-104,-128,127,-122,-42
1491692928037,3,-26,78,5,-100,-96,-33,19,-36
1491692928039,1,42,127,127,-23,98,127,127,34
1491692928039,1,-44,-126,-102,113,-102,44,57,55
1491692928040,2,-10,-10,-99,-114,-50,127,-73,-53
1491692928040,2,3,-48,62,-83,105,70,-66,-86
1491692928133,3,37,71,69,100,104,6,-82,68
1491692928133,3,80,-19,127,-128,127,120,49,25
1491692928135,0,61,106,-101,127,18,-128,39,-1
1491692928135,0,-20,-128,-91,-49,92,74,-110,-18
1491692928136,2,-14,-122,-55,127,13,-102,80,-36
1491692928136,2,22,20,44,-21,91,-1,-110,18
1491692928137,3,-20,48,-88,-101,-19,41,-23,-38
1491692928137,3,1,9,-33,41,116,-28,77,57
1491692928182,0,3,45,127,98,59,63,-16,14
1491692928182,0,-11,-94,-128,43,48,-128,12,-39
1491692928184,1,-9,-24,-54,-44,60,99,21,33
1491692928184,1,15,-14,29,54,74,-75,34,-50
1491692928185,3,4,37,91,105,-53,47,-41,12
1491692928185,3,-30,-27,-128,-47,-108,6,-83,-84
1491692928186,0,10,52,-33,-39,-67,-39,27,-19
1491692928186,0,10,22,46,52,-26,58,75,6
1491692928231,1,-9,8,54,7,-35,-70,-65,-23
1491692928231,1,-56,-30,-110,31,-44,-24,81,4
1491692928232,2,9,17,74,118,-21,86,-66,10
1491692928232,2,12,36,-77,-120,4,-82,-117,47
1491692928234,1,-2,8,-16,-128,-18,-100,-42,2
1491692928234,1,-27,-57,-98,56,-9,-95,-31,-26
1491692928234,2,-56,-75,-65,-122,1,15,127,-23
1491692928234,2,51,-6,60,-76,-1,29,-69,-12
1491692928280,3,-22,-18,90,50,-8,-128,-95,-72
1491692928280,3,31,65,21,-128,-3,-26,43,20
1491692928281,0,-2,-25,-15,101,2,36,33,26
1491692928281,0,35,40,97,80,-4,104,-20,-15
1491692928282,2,-64,-26,-67,-65,-5,-45,-120,-70
1491692928282,2,-4,-18,-6,-64,1,63,88,83
1491692928283,3,45,32,69,94,-2,54,-55,67
1491692928283,3,12,22,77,8,-6,72,40,46
1491692928329,0,-33,30,63,-61,-2,2,0,4
1491692928329,0,-14,-29,-77,116,2,-111,72,66
1491692928377,1,49,-20,-50,-99,-2,102,-8,6
1491692928377,1,40,-3,-61,96,-6,94,94,31
1491692928426,3,-78,-99,-128,13,-5,-40,104,-39
1491692928426,3,31,-3,64,-67,-3,-62,77,21
1491692928428,0,-90,40,58,-78,0,77,-82,8
1491692928428,0,-10,-42,-35,60,-1,-53,-118,-88
1491692928430,1,91,23,22,-43,-3,29,16,75
1491692928430,1,28,-30,12,-82,-2,66,-88,-56
1491692928431,2,-36,-26,-5,40,-1,-79,85,-6
1491692928431,2,-128,20,11,-104,-1,-58,-39,24
1491692928475,3,-12,5,5,-12,-2,-14,-1,-37
1491692928475,3,-5,-4,56,118,-1,-1,-6,-60
1491692928477,0,13,-22,-128,-33,92,-46,-23,-8
1491692928477,0,13,-13,80,2,-44,-18,96,37
1491692928478,1,35,28,69,77,-76,41,-115,27
1491692928478,1,23,35,49,-25,86,-13,14,19
1491692928479,2,-82,15,54,39,-110,-21,-88,-29
1491692928479,2,88,-8,-52,22,127,-73,1,-9
1491692928525,3,20,-32,-75,-96,-42,-56,16,11
1491692928525,3,-25,-23,-40,-40,79,43,-27,-19
1491692928528,0,-12,-8,4,-28,-66,79,26,-59
1491692928528,0,-29,61,108,-48,103,-53,-91,47
1491692928530,2,-60,10,-33,-50,-2,-56,-8,20
1491692928530,2,49,-45,-111,68,63,21,50,-28
1491692928532,3,-127,-10,-11,-127,-9,1,0,-103
1491692928532,3,43,42,66,-40,-36,4,62,86
1491692928572,0,76,1,-29,59,16,-76,-53,-53
1491692928572,0,39,11,76,-81,-59,27,75,45
1491692928573,1,-27,-63,-56,-19,113,29,-26,3
1491692928573,1,-43,71,53,-128,-128,11,8,-25
1491692928574,3,-5,21,37,-34,-31,59,18,-13
1491692928574,3,-45,-9,63,127,95,-128,-58,-7
1491692928574,0,2,-18,-1,-128,-108,75,18,8
1491692928574,0,-87,-2,-25,2,33,25,51,39
1491692928621,1,15,-22,-38,-11,-56,-27,71,-1
1491692928621,1,-13,37,60,-54,-128,104,-37,-23
1491692928622,2,-2,-22,-30,127,127,-95,36,19
1491692928622,2,-20,-27,5,-40,-16,126,-82,-21
1491692928622,0,-7,1,55,-120,-32,19,3,-33
1491692928622,0,96,14,31,32,-128,20,-29,-5
1491692928630,1,-91,11,-2,-22,21,-10,-41,48
1491692928630,1,0,-7,-31,-86,26,-47,22,-47
1491692928670,2,-5,-1,29,127,16,17,-38,48
1491692928670,2,58,10,20,80,22,-26,56,-20
1491692928671,3,-17,-28,-30,-68,121,4,-5,-1
1491692928671,3,-44,-41,-17,35,-93,6,11,-42
1491692928672,1,56,4,-36,127,104,-71,37,-90
1491692928672,1,-99,-32,-60,-49,-18,73,-18,21
1491692928672,2,107,24,20,-83,-128,24,36,114
1491692928672,2,-13,18,52,85,-106,39,30,-4
1491692928718,3,-12,16,96,54,71,31,-21,-43
1491692928718,3,28,0,-11,-95,-1,62,-7,7
1491692928720,0,-106,-37,1,127,56,30,-68,-7
1491692928720,0,-6,-11,-58,-128,-27,-111,7,-27
1491692928720,1,82,2,16,44,-89,-6,53,68
1491692928720,1,2,5,-43,35,104,-29,-60,-77
1491692928721,2,-64,-9,9,58,-117,72,100,17
1491692928721,2,-24,-10,-13,22,41,19,-91,29
1491692928767,3,-26,-16,-9,-104,61,-45,-53,21
1491692928767,3,66,4,-16,-55,24,0,49,24
1491692928768,0,100,27,47,49,-50,-7,-6,-29
1491692928768,0,-58,10,4,-100,-128,60,16,-20
1491692928771,2,0,10,50,87,127,-58,109,23
1491692928771,2,107,43,127,41,-127,15,-11,46
1491692928772,3,-28,-28,-81,-82,82,-52,-78,-21
1491692928772,3,-86,-29,-42,-22,79,23,52,-8
1491692928816,0,78,21,3,21,-113,61,26,18
1491692928816,0,25,4,-8,-42,123,-95,-14,1
1491692928818,1,-12,13,35,120,-128,-64,-75,-29
1491692928818,1,-99,-6,-31,1,100,75,91,71
1491692928819,3,15,-15,-20,60,-23,77,-12,23
1491692928819,3,110,3,20,61,25,5,35,7
1491692928820,0,-52,-13,49,-92,-95,-30,-81,-41
1491692928820,0,-8,-5,23,38,117,7,-27,0
1491692928865,1,9,12,13,-18,-31,77,8,-45
1491692928865,1,-71,-4,5,3,90,-128,-82,-56
1491692928867,2,34,-1,8,-32,97,39,127,21
1491692928867,2,-127,-15,27,35,-128,-66,-128,-128
1491692928869,0,-10,-26,6,-1,-81,23,-38,-21
1491692928869,0,-11,9,-36,-6,-5,9,38,37
1491692928871,1,28,-27,23,34,-7,90,30,-6
1491692928871,1,-12,7,33,14,-85,-33,-16,7
1491692928913,2,-101,4,-3,-84,94,-73,26,-55
1491692928913,2,-23,11,36,-43,-124,91,1,54
1491692928914,3,-45,7,-75,15,-11,-71,-6,14
1491692928914,3,71,-18,38,65,11,-45,-100,-24
1491692928915,1,-17,20,-15,-89,94,-57,-5,1
1491692928915,1,31,14,6,86,-59,96,17,10
1491692928916,2,78,14,48,-42,-78,-41,-85,6
1491692928916,2,-14,-7,-36,44,-82,-52,97,-9
1491692928962,3,-48,-2,42,39,32,100,24,62
1491692928962,3,32,-12,-70,-48,21,-23,-54,37
1491692928963,0,-100,-19,-40,63,127,-14,65,-37
1491692928963,0,101,12,75,107,59,31,-20,26
1491692928963,2,-90,-46,-127,66,80,25,12,24
1491692928963,2,-8,-18,-36,-71,55,-40,-28,-67
1491692928975,3,93,-3,61,12,-128,-11,57,-15
1491692928975,3,-22,2,54,23,-10,38,19,27
1491692929011,0,53,0,-52,-128,12,-32,-95,-56
1491692929011,0,-47,-5,1,47,53,83,45,14
1491692929011,1,-12,-19,-14,69,-1,-63,-63,-65
1491692929011,1,54,39,38,0,25,58,31,17
1491692929012,3,-16,10,1,-128,-48,24,-108,-67
1491692929012,3,-50,-25,-71,-85,105,-91,111,-33
1491692929016,0,112,-48,-41,125,42,-1,28,27
1491692929016,0,-8,10,-74,-116,-114,-69,-116,-78
1491692929060,1,-114,-14,-15,-14,12,20,47,70
1491692929060,1,51,0,34,64,-101,28,-7,-90
1491692929061,2,-47,32,19,-17,18,11,-108,60
1491692929061,2,47,-23,-54,63,-92,21,74,-8
1491692929062,3,127,16,-40,-39,91,-23,49,17
1491692929062,3,-56,9,125,95,-110,-25,-108,8
1491692929063,0,-67,9,-42,-70,18,-72,-25,-19
1491692929063,0,34,-20,-76,-104,91,-100,-48,-44
1491692929108,1,-37,-1,-49,65,96,33,96,51
1491692929108,1,49,6,0,-98,-81,43,-38,-12
1491692929109,2,-88,24,62,-29,-2,7,-2,-77
1491692929109,2,-75,-30,12,100,65,32,-19,-8
1491692929111,0,-19,20,-40,-74,-73,-79,-94,1
1491692929111,0,58,24,72,85,-43,127,97,55
1491692929112,1,31,30,-16,-119,-14,-94,8,-17
1491692929112,1,34,-15,19,115,119,63,-99,-31
1491692929157,2,-4,-22,19,-86,-12,21,28,17
1491692929157,2,35,1,7,70,-8,14,24,11
1491692929158,3,-72,4,79,-61,-128,68,17,-67
1491692929158,3,19,5,-84,-121,28,16,-10,70
1491692929159,1,-48,-5,-48,-4,8,3,-12,-94
1491692929159,1,10,-32,-27,-20,20,-30,34,79
1491692929160,2,35,5,-6,-117,-74,17,5,77
1491692929160,2,119,7,-8,61,-24,-60,-41,-9
1491692929206,3,-61,27,83,54,43,37,52,-10
1491692929206,3,-25,10,33,-90,-33,-9,22,-10
1491692929207,0,79,8,4,115,67,52,-4,-35
1491692929207,0,-112,-20,-36,34,-60,-61,-109,33
1491692929207,2,-19,10,47,2,-19,28,-18,-36
1491692929207,2,-61,13,-2,-128,-108,49,5,-31
1491692929208,3,43,20,-11,111,57,-86,-66,-1
1491692929208,3,-20,-25,-80,-72,113,45,100,36
1491692929255,0,93,11,21,25,-83,-12,-89,3
1491692929255,0,-6,-5,6,79,99,-70,10,75
1491692929256,1,69,-18,-83,-20,73,10,-12,-76
1491692929256,1,15,11,-3,81,-82,-36,-126,18
1491692929257,3,-22,-62,-77,5,-62,-75,-1,42
1491692929257,3,-39,39,110,37,7,39,-41,-79
1491692929258,0,-73,-17,-59,-13,56,106,-3,-17
1491692929258,0,58,1,-15,-93,39,-128,-24,49
1491692929303,1,-17,-1,27,-82,-53,23,-23,11
1491692929303,1,58,-31,-97,127,-77,-28,-25,-27
1491692929305,2,44,28,43,-128,-111,-124,90,62
1491692929305,2,-44,-37,-81,93,98,27,42,-105
1491692929306,0,-23,9,-122,-125,122,-29,-51,-54
1491692929306,0,33,40,100,57,-128,4,76,28
1491692929307,1,-127,2,12,127,15,-42,-26,-83
1491692929307,1,88,-47,-15,-100,116,-8,15,48
1491692929353,2,-56,-6,50,23,18,25,63,1
1491692929353,2,-59,34,106,-84,16,81,-10,48
1491692929355,3,97,-1,-34,-82,-103,59,-128,-26
1491692929355,3,-57,-10,8,98,70,-128,-47,23
1491692929356,1,-19,103,127,-92,-128,-70,127,123
1491692929356,1,74,-39,-110,84,98,59,-118,-128
1491692929372,2,-105,-93,-83,-123,99,20,90,85
1491692929372,2,64,7,-5,-45,-55,-71,-90,-81
1491692929401,3,121,19,33,-111,-57,21,-32,85
1491692929401,3,-109,68,100,-128,-128,28,2,-37
1491692929450,0,-4,55,51,127,-71,-127,-45,-27
1491692929450,0,70,-17,-5,-49,-82,23,-26,20
1491692929452,1,-107,-7,10,119,35,-51,-56,-83
1491692929452,1,99,22,18,-99,-40,-31,17,62
1491692929453,2,-7,-31,-16,-128,-128,81,-18,-21
1491692929453,2,-57,-57,-94,91,127,6,-61,12
1491692929454,3,-23,-10,50,-69,-77,-77,30,-95
1491692929454,3,-128,-33,-28,-95,66,30,30,83
1491692929499,0,127,17,-23,115,-78,-41,-77,13
1491692929499,0,-56,32,-9,-116,-27,15,93,-18
1491692929500,2,10,54,86,-128,-47,-89,58,-45
1491692929500,2,16,-28,-16,91,-35,-83,-81,34
1491692929502,3,16,2,22,127,97,12,-121,-107
1491692929502,3,-122,-65,-100,-68,94,-31,-8,-48
1491692929503,0,67,-22,3,-73,55,-58,-7,20
1491692929503,0,-33,53,41,-128,-39,35,68,22
1491692929548,1,91,13,46,53,52,-61,-124,12
1491692929548,1,-34,43,105,127,-95,66,45,-27
1491692929551,2,-80,-15,8,-30,-45,13,14,7
1491692929551,2,33,16,33,-108,-21,-78,42,-29
1491692929596,0,13,17,1,-79,-27,63,102,58
1491692929596,0,75,27,38,-121,-19,52,26,69
1491692929597,1,-31,-32,45,67,53,-62,-16,-8
1491692929597,1,-62,-12,-37,-61,-126,-42,-14,-57
1491692929598,2,-22,-33,-53,117,86,-73,-70,-16
1491692929598,2,-24,17,30,-88,42,127,71,59
1491692929599,3,104,57,113,77,-128,-9,27,63
1491692929599,3,-20,24,-96,51,119,-55,-36,-1
1491692929645,1,59,21,15,-3,-67,119,35,-59
1491692929645,1,-42,-2,-28,-66,-128,-2,-107,-54
1491692929645,2,13,8,-8,124,103,92,89,-80
1491692929645,2,65,-17,-25,-43,-47,46,12,40
1491692929646,3,-77,-8,-87,45,91,-75,30,-45
1491692929646,3,110,33,37,-106,-8,-50,-47,84
1491692929647,2,-55,-9,10,81,-69,73,18,37
1491692929647,2,-69,0,40,99,73,126,61,-3
1491692929693,3,-7,49,-20,-128,-128,24,-55,4
1491692929693,3,-6,-78,-43,127,127,47,40,8
1491692929694,0,-51,4,-10,-128,100,-106,-128,-61
1491692929694,0,61,23,-25,75,-42,76,75,29
1491692929695,3,59,-34,-96,51,127,-49,63,50
1491692929695,3,13,40,68,-65,-111,-26,-39,-1
1491692929696,0,-33,15,40,76,-50,-22,60,108
1491692929696,0,2,106,127,-2,-111,63,-88,-15
1491692929742,1,-41,-71,-32,117,52,-64,-30,-11
1491692929742,1,26,-50,-91,-41,85,37,107,61
1491692929743,2,9,-22,38,-128,-100,59,-87,-39
1491692929743,2,4,-53,-42,42,6,-64,-66,15
1491692929744,0,28,-58,-99,-118,42,30,34,35
1491692929744,0,-20,27,108,127,-17,76,62,-16
1491692929745,1,-10,-40,-128,-128,-14,-65,-57,-15
1491692929745,1,-19,0,-24,59,127,-79,-111,-33
1491692929792,2,-7,37,92,120,41,113,86,61
1491692929792,2,7,-26,-17,127,127,-68,-3,-75
1491692929797,3,46,-25,32,-103,32,64,14,20
1491692929797,3,-19,40,79,-52,-128,19,-14,-12
1491692929800,0,8,28,5,58,-127,-85,-69,-27
1491692929800,0,-74,40,82,-98,-112,48,-23,-4
1491692929802,1,35,16,-9,-81,11,-3,127,40
1491692929802,1,-65,-98,-106,113,78,9,-89,-78
1491692929840,2,20,-55,21,57,-7,59,49,-69
1491692929840,2,17,-23,14,-118,-75,3,5,22
1491692929841,3,46,109,127,17,-128,32,10,10
1491692929841,3,40,69,76,-63,-100,102,10,21
1491692929842,1,-10,-28,-18,-52,-12,7,22,58
1491692929842,1,5,52,110,51,-80,119,-8,-49
1491692929843,2,47,90,127,55,46,15,56,18
1491692929843,2,-10,-28,-36,-19,93,-128,-128,59
1491692929888,3,-85,-57,95,-1,127,43,-23,-104
1491692929888,3,72,14,-27,-36,-61,23,102,97
1491692929890,0,28,5,16,-19,-1,127,-3,22
1491692929890,0,-6,-29,-128,47,9,-20,66,-23
1491692929892,2,1,2,-22,-34,-26,48,6,-3
1491692929892,2,2,75,55,-104,-83,24,-47,58
1491692929893,3,44,36,-39,110,-128,32,93,34
1491692929893,3,-9,-30,-128,-11,-82,-128,-14,-23
1491692929937,0,26,-45,-20,-128,-128,-2,15,15
1491692929937,0,25,18,-20,51,-128,21,-10,-37
1491692929938,1,-28,21,107,16,-128,-47,-28,-21
1491692929938,1,13,-43,127,40,-57,-48,-40,38
1491692929939,3,0,4,-83,-93,127,-53,52,27
1491692929939,3,-41,-30,-106,-31,127,-89,-8,-56
1491692929940,0,3,-27,-120,44,68,-59,-67,-32
1491692929940,0,-18,-93,-100,-76,95,10,-61,-14
1491692929986,1,-4,-23,-95,-102,70,8,-14,-20
1491692929986,1,-15,38,-36,59,81,53,15,45
1491692929987,2,35,79,-95,-18,32,75,68,0
1491692929987,2,59,24,-37,72,38,-54,-6,56
1491692929988,0,-39,-7,-46,-44,22,-2,-13,-21
1491692929988,0,100,-21,-20,-20,10,-73,-10,-4
1491692929989,1,88,52,-3,34,-4,-36,30,7
1491692929989,1,15,-47,-15,-128,24,-59,31,39
1491692930035,2,-7,-26,-33,78,-3,-55,-62,-8
1491692930035,2,-128,-36,10,-63,-3,-38,43,-39
1491692930036,3,-62,18,-7,-112,-4,22,30,70
1491692930036,3,13,31,0,43,12,85,-42,-39
1491692930037,1,6,14,-2,108,4,89,49,55
1491692930037,1,-61,-26,-95,-33,8,-85,-83,-86
1491692930038,2,-33,-13,-83,-27,-8,107,-21,48
1491692930038,2,90,-19,-104,-37,0,35,29,-21
1491692930083,3,-25,58,88,-128,-2,-75,-33,9
1491692930083,3,30,-22,-93,127,2,104,54,21
1491692930084,0,-95,-57,6,-128,-5,28,-28,4
1491692930084,0,-71,-25,-106,-47,-1,-41,3,22
1491692930132,2,-62,27,118,-91,-1,87,117,-96
1491692930132,2,-77,-75,-75,106,-2,-96,-71,-38
1491692930133,3,-45,-52,66,14,-4,37,-19,-28
1491692930133,3,20,-1,104,-5,65,52,10,-48
1491692930134,0,54,84,102,-128,112,-22,-52,41
1491692930134,0,56,75,18,127,74,32,102,23
1491692930135,1,-51,-94,-128,-9,17,-18,-86,-16
1491692930135,1,-30,72,87,-8,91,54,-54,-43
1491692930181,2,118,-23,-49,49,-18,-119,-9,106
1491692930181,2,-15,-6,-4,-7,3,34,-42,-103
1491692930182,3,-51,2,-62,-4,26,76,14,-13
1491692930182,3,-124,-112,-128,-5,-128,-67,-18,-73
1491692930183,0,-14,73,79,-44,127,127,9,-5
1491692930183,0,18,88,127,97,79,77,-35,63
1491692930230,3,74,3,76,-38,60,43,-5,-29
1491692930230,3,-18,-81,-81,-128,-43,-76,-20,41
1491692930231,0,127,29,6,114,-21,91,13,-48
1491692930231,0,83,20,109,-78,68,104,31,16
1491692930232,1,10,-62,8,20,-56,-64,15,-7
1491692930232,1,-59,14,41,-29,-26,60,1,-53
1491692930278,0,-22,-60,-64,-9,-98,-94,4,5
1491692930278,0,-48,47,127,-128,127,25,-17,-15
1491692930280,1,27,-38,-59,127,-41,35,1,0
1491692930280,1,-7,21,25,127,39,5,-3,-11
1491692930281,2,-36,-4,-84,-92,-76,23,-63,15
1491692930281,2,-12,-16,45,92,-117,-117,46,25
1491692930282,3,-19,-58,24,59,-54,-12,-9,-50
1491692930282,3,15,53,23,2,100,7,34,14
1491692930376,1,-56,9,-51,97,-114,-29,71,108
1491692930376,1,72,51,16,-30,83,8,-7,-41
1491692930377,2,-42,-18,-68,39,6,31,0,-19
1491692930377,2,-70,-22,-128,-115,-14,-96,-76,-40
1491692930379,3,56,6,127,71,114,70,24,16
1491692930379,3,-5,-33,6,87,-86,91,42,2
1491692930379,2,8,-1,46,86,60,-18,16,-9
1491692930379,2,47,24,49,-57,-35,59,-6,-42
1491692930425,3,-47,-45,-63,83,-32,22,11,59
1491692930425,3,46,49,80,-128,47,-20,-20,-18
1491692930426,0,-49,0,8,120,24,-94,82,5
1491692930426,0,96,-21,-38,-22,-5,32,11,32
1491692930427,3,51,56,75,-54,57,17,17,40
1491692930427,3,-15,-77,-105,52,-87,50,-6,62
1491692930428,0,74,-19,-5,127,-60,-102,2,27
1491692930428,0,23,-38,-37,41,11,127,28,44
1491692930473,1,-30,23,-88,-102,-113,-19,-60,-60
1491692930473,1,-10,-12,44,-39,36,25,1,-53
1491692930475,2,41,21,9,-113,13,127,10,19
1491692930475,2,-7,-4,-21,119,-46,-128,-12,86
1491692930476,0,-69,-34,-73,32,-66,32,75,44
1491692930476,0,-19,-21,22,-66,43,87,33,-27
1491692930476,1,111,-7,-15,17,-75,-128,-21,26
1491692930476,1,69,8,59,-86,59,51,-36,-1
1491692930522,2,8,43,127,-81,127,-32,15,12
1491692930522,2,73,-2,-119,97,-67,-101,20,-30
1491692930525,3,-2,-23,-56,-128,-33,92,-14,30
1491692930525,3,-24,-6,86,127,51,-32,-16,0
1491692930526,1,11,15,-18,-122,-74,-27,38,69
1491692930526,1,-43,3,37,96,-128,22,64,-16
1491692930527,2,-40,-35,-93,91,-90,-15,-33,4
1491692930527,2,95,-19,67,-126,53,127,67,-78
1491692930571,3,64,-17,0,127,63,48,-64,2
1491692930571,3,51,26,-109,-128,95,-14,56,79
1491692930610,0,35,-22,-67,64,20,-30,-108,-26
1491692930610,0,-27,-24,-95,8,20,73,38,-50
1491692930611,2,83,38,-83,-128,59,31,13,14
1491692930611,2,-113,-5,-49,100,-104,-91,-4,-11
1491692930612,3,64,-17,14,-25,83,61,49,36
1491692930612,3,100,-24,63,42,78,-28,-102,-30
1491692930620,0,5,-6,92,55,127,51,57,-23
1491692930620,0,43,37,94,-115,127,-22,27,117
1491692930621,1,-116,-41,50,95,-91,-57,-107,-72
1491692930621,1,-46,2,14,-121,65,-81,70,38
1491692930621,3,-115,41,37,127,-91,-6,-40,-60
1491692930621,3,-13,-70,-24,-104,-106,21,-81,12
1491692930622,0,34,19,48,40,49,21,-21,-54
1491692930622,0,-36,14,59,-91,123,72,86,-21
1491692930668,1,-27,-24,-13,-3,18,-91,-29,2
1491692930668,1,-56,-45,5,-78,-128,-19,-17,-31
1491692930669,2,-18,35,33,63,-123,24,-10,45
1491692930669,2,123,31,22,21,-102,-2,-25,-7
1491692930670,0,-114,14,14,-13,-102,117,-13,-45
1491692930670,0,-37,-14,-1,-66,-63,-128,-41,90
1491692930672,1,16,-22,-1,-8,-61,-6,-47,43
1491692930672,1,-15,7,-3,56,-35,73,65,-75
1491692930717,2,-23,-29,-3,27,-43,98,-36,-66
1491692930717,2,27,55,15,-31,-52,-36,-34,23
1491692930718,3,-6,-9,2,119,9,-26,26,-1
1491692930718,3,-14,-38,-8,-37,-14,-43,-96,-22
1491692930719,1,-12,2,-29,9,11,-85,42,27
1491692930719,1,-37,-16,-38,-4,-5,-102,-65,-43
1491692930719,2,-14,11,-16,-128,-26,-22,49,21
1491692930719,2,-51,-30,40,127,6,-70,-67,-20
1491692930766,3,77,42,96,5,11,115,99,73
1491692930766,3,-114,-14,42,92,-17,-57,-96,-64
1491692930767,0,57,-13,66,7,-4,14,-3,66
1491692930767,0,-4,-1,-120,-119,2,-26,-52,-35
1491692930767,2,-48,-8,17,-11,-5,-58,-16,-14
1491692930767,2,-59,-34,-41,-17,1,-13,45,1
1491692930769,3,4,-33,-52,-15,-2,-111,-128,-57
1491692930769,3,93,13,-70,-68,1,-41,84,77
1491692930815,0,51,-3,9,-111,-3,-44,-105,-86
1491692930815,0,35,28,122,113,-7,127,51,-30
1491692930863,1,22,8,56,79,5,-79,-74,1
1491692930863,1,47,-22,-72,-50,-1,-44,-39,-51
1491692930864,2,-69,-8,-33,-17,-8,22,82,-2
1491692930864,2,9,-16,-5,7,0,85,-101,2
1491692930865,3,-61,32,51,-47,2,38,27,-95
1491692930865,3,62,22,7,37,-2,-69,39,60
1491692930866,0,46,-23,-56,88,-6,34,72,96
1491692930866,0,-53,-30,41,-10,1,-34,-31,-1
1491692930912,1,-75,16,9,-64,2,11,-25,26
1491692930912,1,14,23,-43,-74,-5,56,44,0
1491692930913,3,-22,29,91,62,-2,71,50,-50
1491692930913,3,-112,7,-57,127,-1,-67,-17,-51
1491692930914,0,21,-24,-110,-128,-2,-10,9,-23
1491692930914,0,-27,-31,0,8,-1,27,-19,26
1491692930914,0,-34,7,39,-96,-2,-71,-82,19
1491692930914,0,-49,19,24,-96,-1,36,-49,-45
1491692930961,1,-76,-30,-79,-82,0,-75,-128,40
1491692930961,1,42,-28,21,81,-2,48,98,-81
1491692930963,2,52,29,56,114,-3,71,58,10
1491692930963,2,-59,-9,-39,-17,-1,-24,-29,-38
1491692930964,1,77,29,68,4,-1,-37,-19,22
1491692930964,1,-22,-30,-69,-128,-1,-21,-126,15
1491692930965,2,-125,-2,-6,-40,-1,9,-20,-17
1491692930965,2,80,-11,-128,-116,-1,-26,56,-14
1491692931010,3,-55,-22,-101,111,-1,-74,-10,-10
1491692931010,3,-8,3,-30,-26,-1,113,-3,7
1491692931011,0,77,40,52,42,-1,-78,-54,-54
1491692931011,0,-11,15,-92,-128,-2,98,74,44
1491692931013,2,-88,-26,7,45,-1,-84,-128,-57
1491692931013,2,61,45,118,53,-1,-17,72,89
1491692931014,3,127,34,-80,-90,-1,49,114,71
1491692931014,3,-103,-74,-101,60,-1,-62,-102,20
1491692931058,0,-6,-39,-18,96,-2,-44,31,-60
1491692931058,0,4,-6,29,54,-1,-29,-59,-31
1491692931060,1,-53,16,39,-67,-1,103,77,48
1491692931060,1,127,60,59,-67,-1,-26,110,34
1491692931061,3,43,-7,-49,-40,-1,3,20,-59
1491692931061,3,107,50,124,-38,-24,96,-9,94
1491692931062,0,-63,-14,-49,-7,47,-23,9,1
1491692931062,0,-18,-47,-86,-9,18,-93,-111,-34
1491692931107,1,-128,-29,61,-60,6,-54,-69,-4
1491692931107,1,-7,0,-12,-72,11,-23,-23,49
1491692931110,2,127,34,33,-11,-20,127,37,-41
1491692931110,2,-33,33,89,30,-17,-82,-45,-28
1491692931111,0,37,18,-7,-105,-12,8,30,68
1491692931111,0,-60,-21,-81,54,0,-50,70,-32
1491692931112,1,28,39,112,-44,-31,-45,-43,0
1491692931112,1,-94,-40,-42,53,7,-108,-124,-54
1491692931156,2,-18,-36,-46,2,-7,9,-65,-20
1491692931156,2,87,39,19,-94,-3,110,93,66
1491692931157,3,50,-16,-23,80,-2,-6,-84,88
1491692931157,3,-45,8,-36,-66,-1,-9,-3,-11
1491692931158,1,-5,-17,-32,5,-1,36,93,0
1491692931158,1,48,3,56,-28,15,-15,61,-77
1491692931159,2,-49,-10,-5,35,-50,-58,11,42
1491692931159,2,62,-6,-44,-76,29,-19,-128,-67
1491692931205,3,20,-3,-27,45,21,127,99,-2
1491692931205,3,19,-16,-44,-72,-1,-56,-43,-20
1491692931206,0,-70,-7,-19,42,3,19,74,67
1491692931206,0,-57,23,94,20,-11,-1,-83,-37
1491692931207,1,-51,-2,-52,-16,-8,-41,-92,-88
1491692931207,1,-29,-17,9,13,5,-57,9,2
1491692931208,2,92,3,93,36,-2,112,103,85
1491692931208,2,-54,-11,-41,-93,-8,-57,10,102
1491692931253,3,8,4,60,-44,-67,-108,-30,-53
1491692931253,3,13,26,33,-4,-49,54,-43,50
1491692931255,0,-41,-21,-15,81,73,61,-58,-85
1491692931255,0,-40,-49,-73,55,61,-17,88,-16
1491692931256,2,-15,40,19,-42,-34,-9,-34,-35
1491692931256,2,-25,17,40,3,-14,17,-43,-62
1491692931256,3,-29,-20,-91,-42,8,-6,94,32
1491692931256,3,-28,-9,46,127,-96,50,-4,-16
1491692931302,0,-18,5,-56,-117,4,-102,-12,-26
1491692931302,0,40,13,23,114,-5,-43,-21,44
1491692931303,1,-39,35,39,-47,73,35,14,65
1491692931303,1,25,-6,-4,127,7,80,46,-71
1491692931304,3,100,18,46,95,-62,-37,35,-25
1491692931304,3,15,4,-45,-122,112,4,-69,76
1491692931305,0,6,-34,-43,98,-75,-54,59,-2
1491692931305,0,76,14,-18,-115,35,104,-79,-62
1491692931351,1,38,0,33,-67,0,-25,-42,-28
1491692931351,1,-5,-4,-56,-78,-84,-28,13,1
1491692931352,2,-36,16,80,38,-81,11,51,-31
1491692931352,2,65,-23,14,127,73,-25,-124,52
1491692931360,0,-40,-5,20,-128,51,-68,-98,86
1491692931360,0,-65,-3,51,58,-125,-1,121,-33
1491692931361,1,-54,-22,-10,-34,20,27,-18,38
1491692931361,1,96,18,-38,-112,-17,-85,-74,-108
1491692931400,2,-30,-12,-17,121,74,69,127,38
1491692931400,2,3,12,103,50,-57,78,-55,30
1491692931402,3,-73,3,-54,96,70,89,30,-10
1491692931402,3,-33,-2,11,-3,99,-109,-43,-101
1491692931403,1,-63,-19,-46,-95,28,-81,22,-36
1491692931403,1,17,30,40,58,-73,127,72,-17
1491692931404,2,-59,24,55,69,-33,19,40,-93
1491692931404,2,76,-15,-74,-56,3,-6,42,43
1491692931449,3,-79,-31,-4,127,48,-120,-115,-55
1491692931449,3,-39,-18,-52,-39,-78,-55,-73,-16
1491692931450,0,52,-3,30,76,127,67,125,26
1491692931450,0,-19,3,-85,-93,-128,-24,-30,-90
1491692931451,2,-54,8,103,75,54,18,24,14
1491692931451,2,13,19,127,127,-29,4,53,-36
1491692931452,3,127,71,127,-98,94,98,16,-32
1491692931452,3,-34,-46,-66,36,67,-30,36,59
1491692931497,0,46,-50,-128,-107,105,-82,-96,-62
1491692931497,0,-55,-29,58,3,127,-18,-73,-16
1491692931499,1,-23,1,127,17,-2,-59,21,-5
1491692931499,1,-42,28,127,71,-32,44,17,102
1491692931501,3,-68,-16,79,108,-12,47,6,-109
1491692931501,3,-35,56,60,-8,4,97,94,41
1491692931501,0,92,58,89,-117,-79,77,57,33
1491692931501,0,58,49,27,-71,-128,84,-39,-12
1491692931546,1,-55,-70,-128,-36,111,-115,-115,127
1491692931546,1,-42,-88,-106,-85,92,18,-96,-127
1491692931549,2,-44,-20,-36,101,-102,103,89,-57
1491692931549,2,94,74,60,-115,-92,12,34,41
1491692931550,3,87,14,-69,94,-128,10,58,-58
1491692931550,3,-62,-15,-75,74,20,-33,-28,24
1491692931551,0,-3,-18,-30,-13,9,9,-96,59
1491692931551,0,-52,-37,-52,13,41,-123,-68,-65
1491692931595,1,19,5,-61,-91,-77,-46,85,42
1491692931595,1,-3,-8,-21,-65,1,109,69,117
1491692931597,2,-68,9,11,-26,20,-114,-60,-57
1491692931597,2,50,-16,-80,84,10,-61,119,69
1491692931601,0,-25,-37,-65,38,54,-26,34,19
1491692931601,0,9,-18,31,-54,85,-26,-79,-70
1491692931602,1,-21,25,51,97,-115,65,43,10
1491692931602,1,117,-5,-59,12,106,29,64,39
1491692931643,2,-106,-44,-84,-128,63,-60,-87,-75
1491692931643,2,-120,-17,-80,-94,-80,-128,-62,9
1491692931644,3,14,-8,5,5,38,-53,13,17
1491692931644,3,3,34,120,127,-115,109,115,63
1491692931645,1,29,-34,1,-128,-128,-3,-106,-74
1491692931645,1,-47,18,85,82,-72,-11,-30,57
1491692931646,2,-2,-25,-83,-36,127,-104,18,68
1491692931646,2,13,-26,-45,-32,56,-33,-73,20
1491692931692,3,31,17,83,127,7,29,13,42
1491692931692,3,-24,38,24,-77,-25,-27,-28,-128
1491692931693,0,53,-10,-41,86,30,3,-4,52
1491692931693,0,-23,-4,-5,-67,92,39,61,-44
1491692931694,2,94,60,-29,-128,-128,122,94,127
1491692931694,2,-37,52,94,-40,-57,31,37,29
1491692931694,3,-57,-27,-107,-32,91,-67,-14,-32
1491692931694,3,-9,-80,-51,-2,58,-31,-128,-61
1491692931741,0,-20,60,119,-99,-123,86,34,-19
1491692931741,0,-44,-88,-128,106,127,-46,3,1
1491692931742,1,-14,-28,-96,-12,-12,78,-70,-57
1491692931742,1,50,52,77,-66,-93,-105,66,99
1491692931742,3,37,33,-37,106,90,-66,112,27
1491692931742,3,-128,-62,-128,-114,-52,26,-47,-103
1491692931743,0,83,-28,-53,103,127,57,88,8
1491692931743,0,-24,-50,-33,-61,14,-17,-77,89
1491692931790,1,54,69,63,-83,-111,-98,23,-3
1491692931790,1,2,-36,-112,-78,122,-22,-26,27
1491692931791,2,-71,20,10,-128,-128,55,-47,-16
1491692931791,2,62,20,36,127,58,-99,-41,-44
1491692931792,0,-121,-26,-33,86,127,-128,-85,-36
1491692931792,0,-58,37,83,25,121,-26,-76,74
1491692931792,1,52,58,127,-56,-128,36,38,-33
1491692931792,1,-11,-9,-23,114,74,-70,-18,-13
1491692931838,2,-15,10,66,-107,-44,43,87,-3
1491692931838,2,-49,-34,-35,40,41,-60,56,3
1491692931839,3,-32,-48,-95,-128,126,-72,-74,28
1491692931839,3,36,2,-11,43,-100,39,-38,-96
1491692931840,1,-8,87,121,-100,-128,127,91,5
1491692931840,1,-38,-91,-128,82,127,-111,-50,-28
1491692931842,2,-88,-31,-36,-97,30,8,-60,-6
1491692931842,2,70,26,70,34,-128,82,52,-24
1491692931887,3,-3,42,-79,116,-81,-9,-71,-3
1491692931887,3,-25,64,127,-16,-93,109,47,30
1491692931888,0,45,35,23,-74,-11,-122,-84,4
1491692931888,0,-120,-105,69,-1,104,-90,21,-76
1491692931889,1,54,34,127,10,-87,5,15,30
1491692931889,1,-54,-33,17,-77,6,-40,-57,18
1491692931889,2,80,-10,-4,-72,-17,-45,63,5
1491692931889,2,56,30,32,41,71,127,-9,39
1491692931936,3,-72,-26,75,-37,77,81,-72,-26
1491692931936,3,80,-11,-82,-61,121,-53,-78,18
1491692931937,0,-54,-48,-85,-49,52,127,90,13
1491692931937,0,-14,13,-19,47,-95,-39,-53,-37
1491692931938,2,16,-53,-43,119,75,-111,-48,22
1491692931938,2,-14,-76,-128,-128,127,-27,-61,18
1491692931939,3,-8,5,10,-64,-93,17,11,-4
1491692931939,3,48,47,115,121,-117,22,82,39
1491692931985,0,63,56,61,24,-110,75,29,5
1491692931985,0,-52,70,48,-128,-87,-34,77,-33
1491692931987,1,47,-76,-127,27,55,-66,-84,25
1491692931987,1,-34,-98,-128,-81,90,-72,0,-34
1491692931988,3,17,76,121,88,66,98,22,-4
1491692931988,3,35,23,34,-24,-51,-70,55,40
1491692931989,0,-67,-51,45,-114,100,-67,-5,-58
1491692931989,0,25,35,42,52,-128,79,46,42
1491692932033,1,-5,-44,44,35,117,-75,-37,14
1491692932033,1,-69,-13,108,-128,116,37,15,-43
1491692932035,2,-35,-11,-29,113,-4,77,-76,-63
1491692932035,2,45,18,61,-58,-76,-13,-13,52
1491692932036,0,67,87,127,16,-128,71,76,32
1491692932036,0,-30,32,61,127,-54,7,-10,-33
1491692932037,1,2,-86,127,85,-47,-33,8,1
1491692932037,1,16,52,127,-27,57,46,-37,-16
1491692932082,2,34,12,93,-97,56,-55,-45,6
1491692932082,2,-53,3,-41,59,57,119,22,8
1491692932084,3,23,-2,-103,-128,60,39,57,17
1491692932084,3,-17,-74,-128,127,65,-118,26,-32
1491692932085,1,-55,-47,-128,11,29,-118,-76,11
1491692932085,1,-13,-1,-126,-64,25,127,79,57
1491692932085,2,79,-10,-83,-91,-9,-48,-100,14
1491692932085,2,-43,19,-108,-22,32,5,72,38
1491692932131,3,-14,51,-96,76,10,127,-21,-100
1491692932131,3,-7,-41,-46,84,-7,-65,-1,7
1491692932229,0,27,-30,-38,-74,3,30,-4,-7
1491692932229,0,-14,-91,-64,48,20,-4,-56,-62
1491692932231,2,-43,-11,-23,127,0,-110,-91,0
1491692932231,2,-20,-32,-25,-89,11,-44,31,19
1491692932232,3,-48,69,4,15,-11,30,44,-4
1491692932232,3,16,-6,-4,-128,3,70,13,-13
1491692932233,0,40,-10,-16,45,-1,46,56,49
1491692932233,0,39,39,-28,14,-2,-51,19,-14
1491692932326,1,-50,-109,-106,-53,0,-84,-111,-10
1491692932326,1,-29,17,89,-50,3,68,-60,-82
1491692932328,3,83,4,-98,-78,-1,0,45,18
1491692932328,3,15,-71,-128,-16,0,-108,-33,-17
1491692932329,0,35,40,7,-128,-6,103,-27,-5
1491692932329,0,1,-91,-128,84,4,-82,-13,-2
1491692932330,0,-62,-31,52,-45,7,2,14,-79
1491692932330,0,-69,2,73,-104,127,16,-25,28
1491692932375,1,18,32,71,127,-32,-46,12,50
1491692932375,1,50,-46,-74,4,-74,13,-17,-82
1491692932423,2,-101,-26,-128,-97,-119,-110,-3,0
1491692932423,2,-42,-23,4,-121,-24,16,0,-4
1491692932472,1,-44,-45,-39,-91,-51,75,46,-61
1491692932472,1,39,62,75,95,58,35,2,61
1491692932474,2,56,-11,36,49,-4,-1,-17,-8
1491692932474,2,-37,41,34,-109,127,127,22,-43
1491692932475,3,-82,4,103,126,-94,-118,-59,14
1491692932475,3,8,8,29,8,12,98,20,50
1491692932476,0,-72,-25,6,118,-25,-69,15,17
1491692932476,0,44,-32,-81,-22,-69,-31,-29,-28
1491692932521,3,10,-14,-13,0,-50,-49,-41,31
1491692932521,3,-21,50,68,94,72,58,73,25
1491692932522,0,-13,-12,-38,-29,88,79,-4,45
1491692932522,0,8,-27,-48,-116,38,103,12,-11
1491692932523,1,12,40,96,127,34,34,62,-10
1491692932523,1,61,7,47,-79,42,42,-64,45
1491692932524,2,-18,-40,-84,31,-47,46,-23,4
1491692932524,2,21,-45,-87,-65,-69,-26,24,11
1491692932570,3,-4,2,82,-59,109,118,5,-5
1491692932570,3,40,-28,-90,-84,-68,-71,-22,6
1491692932572,0,5,38,43,27,-4,-41,78,-16
1491692932572,0,84,75,86,-15,83,126,-18,56
1491692932573,2,43,-12,3,65,75,42,35,-19
1491692932573,2,9,31,-18,-27,-43,-15,4,-74
1491692932574,3,-32,28,102,100,60,119,-108,21
1491692932574,3,-30,40,22,-98,-20,-71,52,-25
1491692932619,0,34,-71,31,124,14,-88,9,97
1491692932619,0,50,33,-72,-2,45,-1,14,-67
1491692932621,1,113,25,-29,-17,-33,-1,28,77
1491692932621,1,-25,27,99,-40,45,88,-65,-29
1491692932622,2,-67,6,-96,120,-115,-126,-43,-60
1491692932622,2,35,1,127,-128,82,118,4,53
1491692932623,3,-109,-79,-108,-117,-69,49,-23,-37
1491692932623,3,38,4,-82,-39,-41,24,-34,-14
1491692932667,0,-20,32,127,-18,35,-2,80,22
1491692932667,0,-116,-38,19,48,20,37,-17,-2
1491692932669,1,-128,11,0,-69,-61,-74,-71,-68
1491692932669,1,-61,-8,-43,127,2,-68,21,55
1491692932671,3,60,14,103,30,42,-15,20,-59
1491692932671,3,-25,-23,-111,-112,-128,42,-55,-25
1491692932672,0,-74,-46,-67,66,-126,-62,-3,-13
1491692932672,0,60,-14,15,-107,-116,74,16,-39
1491692932716,1,72,17,78,92,43,-36,12,71
1491692932716,1,33,-11,126,85,16,21,57,40
1491692932718,2,-21,-6,-74,-27,39,-85,-38,-47
1491692932718,2,35,-38,-94,-2,25,21,-46,-3
1491692932719,0,19,-22,-19,2,118,50,-21,63
1491692932719,0,-62,-8,-79,-90,103,-42,66,-32
1491692932720,1,35,-19,-128,-46,33,-14,-12,0
1491692932720,1,-60,-8,-49,-31,115,-15,-20,-46
1491692932765,2,73,44,-57,30,-99,120,-19,8
1491692932765,2,-20,-4,-128,-43,-62,-118,2,0
1491692932767,3,33,16,-122,114,104,-6,37,-5
1491692932767,3,-27,-42,-77,81,-54,-53,-84,-5
1491692932768,1,-72,-2,13,-94,-76,106,21,-7
1491692932768,1,-24,-34,60,-99,107,-103,-96,-43
1491692932769,2,96,43,103,-80,-128,73,66,56
1491692932769,2,-80,-24,80,127,60,27,1,-10
1491692932814,3,-69,-17,68,-13,59,123,3,-11
1491692932814,3,69,35,4,-83,86,-107,21,30
1491692932816,0,-53,-38,17,6,6,83,-94,-32
1491692932816,0,73,9,46,-64,24,-86,-22,-41
1491692932817,2,27,11,48,42,-62,5,74,39
1491692932817,2,-25,-15,-37,27,-128,-8,-4,25
1491692932818,3,111,7,44,12,-97,-29,-18,-4
1491692932818,3,-73,10,6,2,-100,-36,-53,20
1491692932862,0,-128,-7,93,-128,-44,14,-14,-75
1491692932862,0,101,14,7,73,-90,3,87,32
1491692932864,1,76,14,-65,-78,-54,77,48,23
1491692932864,1,-88,-15,-50,71,-41,-4,-15,16
1491692932865,3,55,23,77,-19,4,-23,109,31
1491692932865,3,127,41,120,127,-30,7,86,120
1491692932866,0,-67,11,-111,-128,-2,-102,-44,-41
1491692932866,0,-44,-59,-43,-58,-9,71,6,-63
1491692932912,1,-53,-11,-82,-114,7,7,-14,18
1491692932912,1,48,-7,94,96,-19,102,34,-28
1491692932913,2,28,28,89,-99,-3,84,17,92
1491692932913,2,-3,6,13,51,-2,-48,-53,31
1491692932914,0,7,13,-41,-1,10,4,21,62
1491692932914,0,27,-20,-56,1,-9,126,41,-6
1491692932915,1,-6,9,-5,-93,0,-53,-24,-30
1491692932915,1,-6,6,7,127,-4,-78,-20,12
1491692932960,2,42,28,90,32,5,46,-18,18
1491692932960,2,-30,17,-56,-78,-7,-92,-17,68
1491692932961,3,-128,-61,-91,127,-2,66,-18,-80
1491692932961,3,37,-28,-111,-128,-2,25,21,-87
1491692932962,0,84,12,47,90,-1,62,23,82
1491692932962,0,-17,32,127,7,-7,88,-16,-29
1491692932963,1,-14,12,38,-11,3,-22,-58,48
1491692932963,1,-109,-42,-100,31,-5,34,28,-51
1491692933008,2,-56,-35,-92,-97,0,-112,-44,-30
1491692933008,2,-3,32,113,43,-2,30,97,4
1491692933009,3,15,28,16,-37,1,-10,91,-4
1491692933009,3,-120,-45,-34,63,-5,115,-83,-31
1491692933014,1,65,0,1,17,-2,46,-5,102
1491692933014,1,-26,46,63,-127,-4,-81,2,-4
1491692933015,2,75,-27,-53,97,1,-32,-4,-128
1491692933015,2,-128,-47,-96,-45,-3,-39,-63,86
1491692933060,3,98,-3,49,24,-1,7,56,-9
1491692933060,3,15,49,83,61,-2,79,-10,-7
1491692933061,0,-53,-20,-45,-46,1,19,-31,14
1491692933061,0,127,67,116,-83,-3,-51,68,58
1491692933062,2,-18,16,5,-128,-1,-84,41,39
1491692933062,2,-34,-22,13,127,-3,127,58,-10
1491692933062,3,8,44,56,-76,0,-18,-4,16
1491692933062,3,-108,-21,25,82,-2,48,18,-28
1491692933106,0,97,15,-8,-103,-1,-14,-89,-44
1491692933106,0,-23,-2,27,48,-1,53,7,9
1491692933107,1,-118,21,-30,-128,-1,62,84,10
1491692933107,1,79,-11,-60,-61,-2,71,43,29
1491692933155,3,13,-14,55,87,-1,-42,1,-26
1491692933155,3,91,-8,-73,-87,-2,-56,21,52
1491692933156,0,-77,25,79,36,-1,40,45,24
1491692933156,0,26,7,-10,-57,-1,-68,-50,-15
1491692933157,1,-64,11,1,42,-1,29,-68,-38
1491692933157,1,-7,-12,26,-18,-1,-8,-62,-39
1491692933158,2,-8,15,59,13,-107,14,71,9
1491692933158,2,-19,-24,-31,59,102,-61,-75,51
1491692933203,0,-62,-41,-28,116,14,13,21,24
1491692933203,0,77,3,30,-128,-41,73,52,79
1491692933205,1,-25,4,33,-25,-21,6,46,-35
1491692933205,1,-38,1,-58,68,-7,-37,-69,-13
1491692933206,2,-83,19,127,-2,-58,29,-100,10
1491692933206,2,15,-5,-128,-30,74,-93,2,-18
1491692933207,1,-40,-2,-8,-64,-3,-119,-126,-65
1491692933207,1,34,4,-79,30,-58,4,19,61
1491692933256,2,96,18,91,72,18,97,90,83
1491692933256,2,-41,34,28,-128,-68,14,47,-34
1491692933257,3,-76,-34,-111,127,11,-128,-43,-86
1491692933257,3,-5,-29,-1,-114,71,115,4,6
1491692933258,2,74,15,12,-36,-95,-51,-65,-118
1491692933258,2,-27,-55,5,127,-128,103,59,-79
1491692933259,3,22,-14,-23,-3,29,-128,-118,-11
1491692933259,3,3,2,11,5,11,94,82,9
1491692933349,0,55,-3,-2,-113,-45,-26,18,54
1491692933349,0,-67,13,70,94,-66,-40,-64,-61
1491692933352,1,9,11,-27,-48,89,-41,-16,23
1491692933352,1,-13,-45,-60,-86,103,-30,-86,-22
1491692933353,2,25,-17,-10,-66,21,-37,32,-48
1491692933353,2,17,5,0,-35,-12,69,-7,48
1491692933353,3,-55,4,109,127,-110,3,-17,-15
1491692933353,3,51,32,10,-41,43,-51,48,-10
1491692933398,0,-128,4,-22,23,-16,60,51,-35
1491692933398,0,93,-10,14,-8,127,-79,-57,10
1491692933399,1,-91,11,66,-16,75,36,5,-83
1491692933399,1,88,17,37,82,65,73,47,-32
1491692933401,3,15,-8,-62,-128,-58,39,63,-10
1491692933401,3,-72,-21,43,120,-75,-30,-35,-19
1491692933401,0,-14,-47,-41,-108,-79,27,-1,-46
1491692933401,0,-77,70,13,39,91,-92,119,60
1491692933447,1,7,-1,123,127,18,54,-85,-5
1491692933447,1,-76,3,-3,57,-20,-125,75,-50
1491692933448,2,-16,-34,-128,-93,105,67,-53,-34
1491692933448,2,62,18,60,-128,-128,116,55,34
1491692933449,1,49,105,113,-10,-7,-25,-32,45
1491692933449,1,-22,25,57,5,-39,-2,50,37
1491692933450,2,23,-39,-44,120,127,28,-9,-68
1491692933450,2,6,-5,-44,-128,36,27,-49,-20
1491692933496,3,-24,17,88,86,-21,96,77,63
1491692933496,3,43,28,-42,-94,58,-90,5,21
1491692933497,0,8,-57,-88,-72,90,-118,-72,-90
1491692933497,0,-124,-7,-37,-6,112,-98,-103,44
1491692933498,2,104,12,118,117,-2,91,127,127
1491692933498,2,-89,-75,-118,-126,5,-26,-128,-128
1491692933498,3,12,-30,-128,81,117,-37,29,85
1491692933498,3,5,-3,68,-35,64,55,100,16
1491692933593,0,81,97,75,50,-81,-51,49,15
1491692933593,0,-72,-7,-67,-52,12,13,-10,41
1491692933595,1,96,68,90,-114,-128,104,-87,-69
1491692933595,1,12,-78,-128,90,101,-61,6,-32
1491692933595,3,-42,-16,34,11,-70,17,-52,-112
1491692933595,3,31,48,69,-90,-123,-52,-36,24
1491692933597,0,58,34,62,-74,-121,-45,75,64
1491692933597,0,-73,-5,-21,127,86,-25,-128,4
1491692933642,1,63,-71,-123,-128,68,-22,113,-102
1491692933642,1,-70,-37,38,127,85,18,75,43
1491692933643,2,45,42,77,104,13,104,-20,-40
1491692933643,2,-10,57,124,-5,-122,34,-22,-28
1491692933644,0,-9,28,-45,1,-4,45,-14,32
1491692933644,0,-13,25,121,32,-23,-24,-68,-17
1491692933645,0,-65,-31,-86,-39,-73,-38,-16,-52
1491692933645,0,47,-15,-109,37,61,-128,87,35
1491692933691,1,-58,-8,87,76,-9,68,-128,-34
1491692933691,1,127,16,29,-34,-54,127,73,52
1491692933692,2,-120,68,62,-14,-111,74,5,-22
1491692933692,2,-49,-23,-61,20,42,-26,9,-62
1491692933692,1,2,-54,-23,127,109,-27,-113,-62
1491692933692,1,25,-40,-15,-128,58,-11,-2,93
1491692933693,2,98,9,72,33,-51,42,99,-51
1491692933693,2,60,75,119,-48,-53,66,-128,87
1491692933740,3,-111,15,37,38,23,54,127,-28
1491692933740,3,80,14,-44,-128,40,6,-73,34
1491692933742,0,-56,-44,-102,-41,32,-4,33,53
1491692933742,0,43,-1,72,106,89,-36,-1,-21
1491692933743,2,-1,-83,-36,127,127,-76,-93,8
1491692933743,2,-32,-4,83,-92,-89,116,127,28
1491692933744,3,75,-24,-42,-64,-19,-128,-128,-18
1491692933744,3,-91,-1,67,-50,71,-12,102,-77
1491692933798,0,27,82,127,-108,-117,8,2,13
1491692933798,0,-62,-59,-128,63,127,-22,-37,110
1491692933801,1,-78,-18,0,-112,-117,54,-84,-48
1491692933801,1,44,40,47,-77,49,-47,28,-34
1491692933802,3,127,95,7,-128,27,94,123,81
1491692933802,3,-126,-48,-54,127,-109,-46,-128,-61
1491692933803,0,-16,36,92,-11,21,61,-44,-28
1491692933803,0,-3,35,12,-88,72,5,-96,-11
1491692933837,1,92,-38,-51,-14,77,-108,106,0
1491692933837,1,-17,84,127,87,-128,97,47,61
1491692933839,2,60,-23,-115,14,127,3,-76,-72
1491692933839,2,-112,-110,-104,78,5,-2,-45,-68
1491692933886,0,-6,-7,127,-99,-128,127,-36,95
1491692933886,0,-14,95,31,6,11,21,58,-7
1491692933887,1,-5,-31,3,-43,94,68,74,-29
1491692933887,1,-27,-36,-116,93,-46,4,66,5
1491692933888,2,-7,8,-69,-68,13,29,56,-17
1491692933888,2,-35,-69,-67,-128,-4,-128,-121,-89
1491692933889,3,-106,3,29,82,-128,70,42,-71
1491692933889,3,112,36,-18,-2,29,84,-24,68
1491692933935,1,29,54,-33,-47,-40,-18,-63,-26
1491692933935,1,-5,28,41,-22,-45,-114,-127,-76
1491692933936,2,11,-25,-75,-33,26,-51,2,49
1491692933936,2,68,-28,-68,81,99,-47,34,17
1491692933937,3,-29,-77,-113,-92,-57,-22,-83,103
1491692933937,3,-1,-40,28,62,66,15,8,1
1491692933938,2,-55,-68,-69,117,93,-110,-12,-24
1491692933938,2,24,60,127,-90,-4,61,53,15
1491692933983,3,-56,-15,17,-32,-41,4,-76,11
1491692933983,3,9,25,38,-104,-70,-36,-89,-38
1491692933984,0,66,42,126,64,-44,126,30,53
1491692933984,0,-46,-17,-128,78,-22,-127,-128,-79
1491692933985,3,-44,-20,-44,114,55,76,10,-17
1491692933985,3,37,31,70,0,-52,64,-21,-2
1491692933986,0,-50,-114,-102,127,116,-128,-63,-31
1491692933986,0,-3,8,70,-103,48,76,67,19
1491692934032,1,-17,-76,35,-116,97,36,-68,-18
1491692934032,1,-52,81,-31,-108,127,-38,26,31
1491692934033,2,-2,-9,-61,78,-16,91,-88,33
1491692934033,2,49,-52,117,-85,-128,37,98,33
1491692934034,3,14,59,65,127,-121,-128,0,-2
1491692934034,3,6,-59,127,-7,-107,127,93,16
1491692934035,0,57,127,85,44,-128,-72,11,32
1491692934035,0,-28,-88,-42,112,-109,-68,-110,29
1491692934081,1,-18,38,-113,-33,-16,81,17,-19
1491692934081,1,-42,-55,-128,-66,34,-6,27,21
1491692934082,2,2,-63,-116,-38,57,-67,-67,-52
1491692934082,2,5,6,-50,-21,58,127,4,-4
1491692934083,0,-36,-50,-43,82,52,-46,33,-35
1491692934083,0,1,72,-16,-107,33,-120,-96,-1
1491692934083,1,8,-80,-66,-67,14,3,121,38
1491692934083,1,-33,-33,-66,127,25,59,-22,-18
1491692934130,2,57,30,6,7,21,18,38,11
1491692934130,2,13,89,3,81,7,7,-11,13
1491692934132,3,-47,-22,-45,-117,3,-98,-38,-117
1491692934132,3,57,-35,-15,34,9,-90,-14,64
1491692934133,1,-6,62,-22,-117,3,108,63,-14
1491692934133,1,-35,-36,0,120,3,-16,30,-22
1491692934140,2,16,32,9,-64,0,127,5,44
1491692934140,2,22,-20,-103,70,1,-85,-70,-71
1491692934178,3,-32,-101,-117,-121,-1,-128,-30,15
1491692934178,3,-19,-53,76,-34,-1,53,-6,18
1491692934179,0,-22,53,92,30,0,61,-43,-4
1491692934179,0,38,82,37,18,0,36,76,56
1491692934180,2,15,-23,13,4,2,7,81,43
1491692934180,2,-20,11,-80,-122,0,100,76,-12
1491692934182,3,-4,-17,57,67,-3,-18,21,5
1491692934182,3,53,-18,-98,-63,0,-24,-83,75
1491692934227,0,-54,38,-73,-128,1,64,-2,-43
1491692934227,0,-7,30,29,28,-2,46,1,-36
1491692934228,1,42,-63,-66,-72,-2,19,-21,-5
1491692934228,1,-64,112,-76,127,0,41,1,4
1491692934228,3,-82,-20,-108,-128,-76,83,-128,-59
1491692934228,3,-65,-59,36,-113,-78,-90,42,69
1491692934229,0,71,68,45,25,65,86,10,40
1491692934229,0,-27,33,127,58,102,86,-75,2
1491692934276,1,65,101,-20,-31,-14,69,-55,-1
1491692934276,1,-54,-22,-107,86,31,87,5,-79
1491692934277,2,-84,28,-110,-83,-128,-105,-53,40
1491692934277,2,3,-25,7,-128,-78,-56,-16,0
1491692934277,0,14,39,-3,-84,69,-71,116,-66
1491692934277,0,-6,-10,82,85,127,95,1,41
1491692934278,1,36,7,67,-11,54,-60,43,57
1491692934278,1,-22,0,36,47,-84,-55,83,19
1491692934324,2,8,-26,30,-49,38,-39,-67,-59
1491692934324,2,-56,-100,-128,28,-128,-82,-54,-47
1491692934325,3,-10,62,2,62,39,-6,-24,16
1491692934325,3,93,21,127,-6,127,72,36,-44
1491692934326,1,-30,-10,11,11,112,-41,24,67
1491692934326,1,42,38,-29,-43,-91,-127,-11,-20
1491692934327,2,9,-22,-5,-85,-26,-12,7,66
1491692934327,2,-60,-101,-59,64,-111,-85,-64,-100
1491692934373,3,-29,-59,32,-76,45,13,113,78
1491692934373,3,-5,69,17,83,-128,24,12,-39
1491692934374,0,-43,-24,4,-59,53,127,29,23
1491692934374,0,33,79,99,-101,-86,-88,12,18
1491692934375,1,-13,-78,72,-128,10,72,-128,-63
1491692934375,1,-15,108,15,47,17,59,105,9
1491692934376,2,63,-7,-107,-20,-121,77,-9,33
1491692934376,2,-52,-12,49,-100,-64,92,10,-34
1491692934422,3,-30,-48,-105,-26,-108,-44,-39,-87
1491692934422,3,-13,-14,44,-56,-24,70,-26,-42
1491692934423,0,-8,10,-38,127,-126,-16,-17,-11
1491692934423,0,36,11,25,-74,-38,-20,80,29
1491692934423,2,-4,40,65,-39,85,-20,-19,-29
1491692934423,2,55,18,-31,68,7,87,20,13
1491692934424,3,-16,10,1,-90,-66,107,115,51
1491692934424,3,7,7,54,-11,71,-57,-27,42
1491692934471,0,-59,-51,-80,-100,-112,-5,-39,-54
1491692934471,0,39,41,11,-24,-22,-62,-86,21
1491692934472,1,87,27,84,-21,57,39,38,-5
1491692934472,1,-31,1,-24,32,-32,47,-17,11
1491692934472,3,-12,12,-64,-96,-28,-90,35,31
1491692934472,3,26,-9,-5,-96,52,-128,26,38
1491692934473,0,-10,40,127,37,127,82,15,-17
1491692934473,0,-8,-6,-57,106,40,-35,-76,13
1491692934520,1,3,20,67,-34,82,0,-40,-13
1491692934520,1,-7,-60,-111,-89,-61,-28,97,-24
1491692934522,2,-55,-14,-52,7,-40,-60,-14,22
1491692934522,2,14,15,0,-65,36,127,-6,-21
1491692934522,0,18,-15,43,67,80,67,11,29
1491692934522,0,65,-12,-36,-48,26,-30,43,-7
1491692934523,1,-24,25,-121,108,-31,47,27,-28
1491692934523,1,-2,-53,115,-25,116,46,-47,66
1491692934568,2,-18,29,83,68,68,7,-8,-34
1491692934568,2,-78,-6,-21,46,55,-17,-5,60
1491692934569,3,-21,-27,-43,-101,-127,-44,-86,-61
1491692934569,3,28,-16,-118,29,-63,-15,15,3
1491692934570,1,37,44,55,-103,89,127,45,29
1491692934570,1,17,1,65,63,-10,-125,-128,-22
1491692934572,2,20,4,74,65,104,62,104,59
1491692934572,2,3,-31,-104,-72,-128,-98,61,-47
1491692934617,3,-108,-21,1,107,14,61,-32,17
1491692934617,3,-39,4,105,-4,127,127,-41,10
1491692934618,0,-16,-10,-102,-31,-12,7,-80,62
1491692934618,0,46,-26,-70,-128,-84,-63,-76,-61
1491692934619,2,36,-26,14,100,-28,-114,-84,-57
1491692934619,2,-61,34,115,127,127,89,30,43
1491692934620,3,114,-23,-109,-104,-128,-34,10,22
1491692934620,3,-30,-29,21,118,40,55,35,-13
1491692934666,0,-71,1,-35,-66,-34,32,-5,-73
1491692934666,0,0,9,-27,-64,-19,-43,-116,-53
1491692934667,1,17,-30,37,84,-38,36,40,30
1491692934667,1,49,24,-32,-128,-86,-89,58,126
1491692934668,3,-13,12,-26,-20,-63,46,-60,-70
1491692934668,3,41,-14,-69,-98,-106,-126,-100,-51
1491692934669,0,42,-48,-3,21,-72,-7,52,64
1491692934669,0,-41,40,124,4,98,127,53,9
1491692934715,1,-7,24,-58,19,13,-128,-6,41
