1491088114356,0,-8,111,-94,-97,-38,-63,-27,42
1491088114356,0,56,-96,62,110,-70,-49,-15,-44
1491088114357,1,-8,-60,45,121,14,-3,37,-71
1491088114357,1,-29,-119,-18,52,46,59,-55,-78
1491088114358,2,-6,-71,16,-25,-19,15,91,-46
1491088114358,2,-16,-17,-7,-42,0,-30,-42,34
1491088114393,3,-47,-25,-30,-42,-53,-56,-54,2
1491088114393,3,3,-64,10,-17,42,81,52,-42
1491088114394,0,-4,-32,15,-62,-12,-4,3,51
1491088114394,0,19,6,-25,17,18,-12,21,-43
1491088114394,1,-5,-13,39,8,48,11,-85,-22
1491088114394,1,-13,31,-12,29,-51,-35,68,34
1491088114395,2,-4,-60,0,2,-3,-27,-58,-19
1491088114395,2,-48,-7,-1,-50,-9,12,-38,-25
1491088114431,3,-4,32,-7,31,17,43,86,10
1491088114431,3,93,1,-15,-31,-30,-69,-3,62
1491088114432,0,27,-11,23,28,-8,51,48,-2
1491088114432,0,-26,-3,-16,-20,2,-22,-57,-22
1491088114433,1,-5,-22,1,-13,23,33,-26,11
1491088114433,1,-36,31,9,-24,-15,-30,-98,-15
1491088114468,2,62,7,52,64,5,-18,91,56
1491088114468,2,-26,-11,-33,6,25,93,12,-9
1491088114469,3,-7,-25,-21,-73,5,-14,37,4
1491088114469,3,42,-1,1,-13,-36,1,-10,2
1491088114469,0,-44,26,5,10,7,-78,-128,-49
1491088114469,0,-20,30,-8,-4,-12,14,81,-2
1491088114470,1,39,-45,-30,-29,-35,-71,25,12
1491088114470,1,-37,-6,17,63,46,84,-3,5
1491088114505,2,8,-54,4,-20,-15,7,-16,-33
1491088114505,2,6,23,-4,-18,23,-87,20,21
1491088114506,3,-34,-27,-9,16,-20,19,-41,-42
1491088114506,3,8,-12,17,1,26,-44,55,34
1491088114507,0,-8,21,-6,22,19,76,-14,-31
1491088114507,0,-7,29,13,-31,8,15,4,-5
1491088114508,1,39,20,3,-38,-78,-18,3,27
1491088114508,1,-6,23,-53,23,45,0,-49,18
1491088114543,2,-30,-53,-4,-3,-10,4,75,41
1491088114543,2,32,-17,-4,12,-42,-38,-7,3
1491088114544,3,-18,22,11,26,25,8,-23,9
1491088114544,3,2,46,9,-54,-34,-10,-16,-51
1491088114544,0,-16,-47,-2,57,47,-30,-29,3
1491088114544,0,-11,-33,3,-3,20,92,13,-5
1491088114545,1,-47,16,-3,8,-7,-37,22,5
1491088114545,1,30,-51,0,-76,-16,-39,-6,-14
1491088114581,2,27,-17,4,24,4,-24,-19,-18
1491088114581,2,-36,-32,7,-2,-21,-1,-61,12
1491088114583,3,49,2,-14,-41,36,60,60,-22
1491088114583,3,-40,-3,-8,19,-9,-36,51,42
1491088114583,0,-8,17,-6,10,-9,34,-37,-23
1491088114583,0,21,-4,-1,10,20,-38,35,24
1491088114618,1,-9,34,9,0,-36,36,-26,5
1491088114618,1,-20,15,-6,-34,-32,-36,-34,-19
1491088114619,2,24,24,11,37,64,48,71,24
1491088114619,2,-39,4,-18,-31,-23,-43,-103,-19
1491088114620,3,24,-41,-19,-14,14,9,53,2
1491088114620,3,21,-47,27,16,-2,7,22,8
1491088114620,0,-28,-11,3,-5,10,34,47,18
1491088114620,0,74,7,4,-26,-15,-37,16,3
1491088114655,1,-22,37,8,19,-38,34,-57,-7
1491088114655,1,-29,34,-19,59,54,-82,-115,-55
1491088114656,2,-22,19,-36,-23,-51,-54,-52,-46
1491088114656,2,14,-63,-6,-12,38,56,111,77
1491088114693,3,28,-66,-9,-8,-2,-26,4,19
1491088114693,3,10,11,26,3,-38,-6,-6,-11
1491088114694,0,-31,45,12,1,34,10,-40,-41
1491088114694,0,17,29,3,19,-21,-36,-31,16
1491088114695,1,1,-18,-7,-11,25,-5,-12,-12
1491088114695,1,0,-7,8,0,-32,32,9,20
1491088114696,2,21,-2,1,11,-17,-87,-40,-9
1491088114696,2,-6,49,-2,-14,-8,83,-105,-42
1491088114731,3,4,-4,-6,-18,29,40,98,77
1491088114731,3,-13,-25,-26,-19,-14,23,-89,-34
1491088114733,0,-7,-35,-2,-8,-18,39,77,32
1491088114733,0,-11,-15,33,60,38,21,66,-31
1491088114734,1,11,29,0,-19,-37,-33,-54,20
1491088114734,1,-7,37,-8,-18,42,7,-8,4
1491088114735,2,5,-47,4,42,-35,-43,-128,-25
1491088114735,2,-7,-12,-20,-8,-12,-30,101,21
1491088114768,3,-10,-38,40,43,38,29,-53,-19
1491088114768,3,7,5,5,-15,-9,16,66,2
1491088114806,0,-7,9,-16,-56,-16,-1,-56,-22
1491088114806,0,-29,24,-1,14,11,-54,-38,-9
1491088114807,1,21,18,13,38,2,-38,-68,-42
1491088114807,1,8,53,-23,-20,18,8,99,-4
1491088114807,2,17,5,6,-11,1,43,20,23
1491088114807,2,-19,-12,31,38,-18,0,-11,-25
1491088114808,3,12,-3,-52,-44,-2,-24,-2,55
1491088114808,3,-39,-76,9,49,-18,-24,-6,-9
1491088114844,0,13,19,-6,-4,-23,14,62,20
1491088114844,0,-25,-17,-8,11,51,42,-115,-54
1491088114845,1,-3,36,7,4,3,-48,75,24
1491088114845,1,5,-24,14,-6,-4,75,11,11
1491088114846,2,7,-15,-25,-32,-27,-71,-17,-2
1491088114846,2,-11,-23,-4,-26,5,-20,-14,-4
1491088114847,0,-10,17,14,0,6,-53,-69,-29
1491088114847,0,-2,-41,-14,-58,6,41,18,-12
1491088114881,1,-39,-32,-33,2,-31,0,-34,-10
1491088114881,1,3,-4,-22,26,-26,-64,-40,0
1491088114883,2,-21,-13,3,9,22,9,40,-5
1491088114883,2,42,35,4,0,-33,-15,-66,19
1491088114884,0,32,0,1,24,24,78,7,38
1491088114884,0,-22,-14,-14,-8,-3,4,8,-15
1491088114885,1,20,20,4,27,-39,-39,-77,-20
1491088114885,1,6,16,2,-24,-1,70,59,14
1491088114918,2,4,-12,-8,-26,54,48,12,33
1491088114918,2,24,-38,-12,10,-50,-70,-10,-24
1491088114920,3,-8,-45,5,0,3,26,-22,-3
1491088114920,3,0,14,11,9,-7,-42,-8,7
1491088114921,0,-21,7,-14,-26,-19,28,52,-28
1491088114921,0,14,27,25,24,-22,-59,-21,33
1491088114922,1,25,-9,-14,-5,1,4,15,-46
1491088114922,1,-19,-7,-9,-20,16,7,-42,-21
1491088114956,2,4,-33,14,-14,12,15,68,4
1491088114956,2,-23,26,-9,23,-31,-24,-55,-4
1491088114957,3,-16,-13,5,-9,7,38,-85,-22
1491088114957,3,11,-30,-32,-3,-10,3,83,15
1491088114957,0,1,-40,-8,-43,-43,-72,-41,-22
1491088114957,0,7,-52,9,23,28,-7,16,22
1491088114958,1,2,8,-3,-10,5,18,-36,-4
1491088114958,1,-19,-42,8,-26,22,-36,10,-21
1491088114993,2,-9,28,-18,29,0,-45,-79,5
1491088114993,2,5,2,-10,-19,11,58,106,10
1491088115031,3,-3,29,20,11,7,-17,18,-4
1491088115031,3,-5,54,13,-9,-59,-15,-82,-27
1491088115032,0,-15,34,1,31,-12,-15,13,-20
1491088115032,0,-15,9,-37,-15,1,-15,-8,5
1491088115033,1,10,-12,24,-6,32,27,28,-12
1491088115033,1,-16,-18,-15,-20,9,56,1,0
1491088115033,2,11,26,-20,-42,-28,-7,21,8
1491088115033,2,-19,15,31,44,-30,-45,-79,-18
1491088115069,3,16,29,-36,4,23,32,-41,-6
1491088115069,3,10,12,13,-14,-2,-9,70,53
1491088115070,0,7,-57,8,4,19,91,-4,17
1491088115070,0,20,60,-8,7,1,39,105,1
1491088115071,1,-27,-29,13,-23,-17,-42,52,-1
1491088115071,1,15,-3,18,52,-18,6,-58,-1
1491088115072,2,21,17,2,-24,31,-2,-20,-6
1491088115072,2,-12,-25,-36,-10,-25,-23,-67,-18
1491088115106,3,-10,-15,-3,20,-6,-46,-11,6
1491088115106,3,-28,46,-6,31,-5,-48,-32,-16
1491088115107,0,12,-17,9,-24,20,72,61,22
1491088115107,0,1,3,27,-48,11,-60,-43,-27
1491088115108,2,-19,-53,0,40,1,21,54,21
1491088115108,2,-2,-9,10,-1,7,-8,-19,10
1491088115108,3,-7,43,5,-16,-34,-110,-1,-4
1491088115108,3,-3,-9,-9,-21,23,2,-27,-8
1491088115143,0,-2,24,-7,24,-13,-20,-44,-16
1491088115143,0,8,-47,8,-29,35,127,89,29
1491088115146,1,-25,35,-14,9,-8,-29,-50,-30
1491088115146,1,19,0,-5,12,5,-17,-11,9
1491088115147,2,-23,12,4,5,11,-16,40,-9
1491088115147,2,41,-21,4,-7,-8,-5,57,24
1491088115149,3,-10,12,1,9,4,20,-35,-15
1491088115149,3,1,-7,-5,6,-16,63,8,12
1491088115180,0,-24,-23,-4,14,19,17,-50,-8
1491088115180,0,0,34,-15,-65,-57,-6,40,8
1491088115181,1,-5,-41,20,25,4,48,54,22
1491088115181,1,-7,4,9,18,68,21,-25,-29
1491088115182,2,29,20,-40,-15,-29,2,-5,-13
1491088115182,2,-38,-9,25,19,17,25,-77,10
1491088115183,3,18,-51,-1,-20,-11,0,89,13
1491088115183,3,51,-4,5,-21,-20,16,1,6
1491088115218,0,-20,95,33,20,-11,-47,-43,-27
1491088115218,0,-24,-53,-41,10,36,-3,-27,-16
1491088115219,1,-15,-19,-28,5,-2,0,10,17
1491088115219,1,56,-33,27,17,16,16,29,24
1491088115220,2,-8,-20,9,-2,-19,-50,2,3
1491088115220,2,7,51,1,-30,-1,-14,21,33
1491088115221,3,-33,28,12,50,67,1,-78,-55
1491088115221,3,-14,39,-6,18,2,-44,12,11
1491088115255,0,12,-55,-26,-32,-30,68,82,-5
1491088115255,0,14,-4,-6,7,0,20,-32,-12
1491088115256,1,-11,-23,-11,-47,-37,-73,-52,-22
1491088115256,1,-14,2,12,21,12,68,51,23
1491088115257,2,29,-21,22,12,0,10,-108,-9
1491088115257,2,7,16,-25,34,-11,-33,42,-15
1491088115258,3,-1,-14,-29,-53,-10,7,-4,17
1491088115258,3,-48,2,17,32,-25,-19,-11,-24
1491088115293,0,-28,-31,-14,-43,32,-7,-10,15
1491088115293,0,33,-23,13,18,10,33,52,36
1491088115294,1,28,13,23,-3,-22,-52,-46,-34
1491088115294,1,1,27,-29,26,-14,8,-82,-1
1491088115294,2,-7,-15,7,-22,18,48,97,53
1491088115294,2,-4,9,0,2,33,-56,-25,-22
1491088115295,3,8,2,16,-6,-44,39,31,5
1491088115295,3,-15,-34,7,-1,18,9,-56,12
1491088115330,0,14,38,-8,48,-17,-2,51,-22
1491088115330,0,-29,-35,-15,-63,-15,-22,-87,-23
1491088115331,1,12,-22,-34,-30,-30,-49,127,62
1491088115331,1,-12,-53,-5,-46,47,87,-19,-34
1491088115332,2,20,42,16,48,-29,-29,-12,4
1491088115332,2,-42,-38,19,46,10,21,-19,0
1491088115333,3,35,43,61,65,55,-18,18,-13
1491088115333,3,5,40,-53,-54,-38,-58,-57,1
1491088115368,0,-41,-41,-17,-22,-4,2,5,-30
1491088115368,0,10,5,16,-12,10,44,54,14
1491088115369,1,-10,20,-14,14,-8,-28,-76,-33
1491088115369,1,28,5,28,11,-67,60,84,57
1491088115370,2,-25,-21,-16,-3,66,-3,-2,18
1491088115370,2,19,-6,-62,-20,25,40,71,20
1491088115371,3,-14,-18,37,-6,-21,-6,-20,-4
1491088115371,3,20,18,17,24,17,-93,-21,-12
1491088115443,0,28,36,6,-16,-28,-17,-80,-20
1491088115443,0,-7,11,11,48,8,36,42,10
1491088115444,1,1,-14,-44,-5,-5,-17,-100,-15
1491088115444,1,-37,-3,1,-4,-24,3,-6,6
1491088115444,2,31,26,32,-14,12,-73,55,29
1491088115444,2,-18,-24,-1,4,49,50,-1,-28
1491088115445,3,-24,-73,-1,-29,-23,23,104,36
1491088115445,3,33,50,-55,-49,11,-19,31,-16
1491088115481,0,28,-53,-7,-15,-5,-14,-39,28
1491088115481,0,-28,15,27,30,-29,-59,-82,-31
1491088115482,1,11,58,-9,8,62,67,-47,14
1491088115482,1,27,7,-14,-62,-65,-83,117,13
1491088115483,2,-37,19,1,32,-29,25,-29,-33
1491088115483,2,-37,-61,-10,-26,-14,30,-69,-16
1491088115485,3,5,17,2,19,-7,-10,-44,-23
1491088115485,3,-37,-18,27,43,61,23,77,16
1491088115518,0,35,18,0,-17,11,-10,-66,2
1491088115518,0,-38,0,-4,22,-34,-35,11,3
1491088115519,1,-7,-20,-13,12,-11,-27,-35,-34
1491088115519,1,33,3,-13,-3,-10,-62,-16,65
1491088115556,3,-77,19,-13,25,28,26,-7,-7
1491088115556,3,45,4,5,-40,-53,-45,18,-3
1491088115557,0,-3,1,9,-10,86,95,-18,21
1491088115557,0,36,25,20,81,24,-11,50,-3
1491088115558,1,-8,-3,-36,-51,-77,-66,20,38
1491088115558,1,-94,-95,4,83,11,19,-75,-64
1491088115559,2,28,17,16,47,2,-25,-44,-12
1491088115559,2,21,15,-24,-86,19,-13,127,56
1491088115593,3,93,-35,34,-11,15,48,-8,1
1491088115593,3,-56,-2,-11,-18,-18,-8,-17,18
1491088115594,0,-44,-21,2,38,15,-4,-16,-41
1491088115594,0,5,74,-6,-48,-35,-20,-102,-51
1491088115595,1,-25,22,-4,-14,-30,-8,72,14
1491088115595,1,-8,-54,1,19,41,54,13,31
1491088115596,3,-14,43,7,-83,-33,-27,79,53
1491088115596,3,-29,44,3,73,39,12,-128,-103
1491088115630,0,-62,-73,-20,-35,-50,-25,94,2
1491088115630,0,-26,-43,-27,7,-1,6,33,25
1491088115631,1,103,-23,16,5,-20,19,-42,26
1491088115631,1,-7,68,29,-30,28,21,-72,-34
1491088115632,2,37,43,-30,-24,-49,-45,-87,31
1491088115632,2,-13,7,21,-27,6,44,84,11
1491088115633,3,-46,-63,-2,53,83,127,73,-17
1491088115633,3,60,40,-2,-42,-9,-84,4,16
1491088115668,0,-31,-17,-17,17,-35,-76,-95,-17
1491088115668,0,-50,-20,-2,-1,-43,-70,-30,-25
1491088115669,1,-3,-8,33,68,61,62,-61,-7
1491088115669,1,45,-58,-8,-73,20,56,104,-8
1491088115672,2,23,74,-33,-87,-100,-111,-107,-23
1491088115672,2,-39,7,8,87,46,38,83,21
1491088115673,3,21,-91,-35,-18,-35,7,61,7
1491088115673,3,-39,-53,0,-104,-10,15,17,-42
1491088115706,0,25,17,24,104,90,16,36,66
1491088115706,0,-21,43,5,35,5,39,-128,-56
1491088115707,1,-5,23,24,-39,27,-21,-4,1
1491088115707,1,21,-13,-34,44,-107,-77,-56,-6
1491088115707,2,-36,-55,8,-73,36,47,95,16
1491088115707,2,43,52,-12,-107,-3,-20,-93,0
1491088115708,3,-82,36,-11,103,38,40,-55,-31
1491088115708,3,94,-28,-11,-79,7,79,127,18
1491088115743,0,-54,28,50,68,35,29,-98,-45
1491088115743,0,24,33,16,35,-62,-22,66,30
1491088115744,1,3,-37,-20,-13,57,-55,-19,-14
1491088115744,1,-29,-18,-20,35,-61,-23,-8,12
1491088115744,2,-7,16,4,58,-88,-63,-47,-60
1491088115744,2,4,-64,2,61,89,-26,50,35
1491088115745,3,-6,55,-2,-42,-98,5,-77,-39
1491088115745,3,-30,61,11,118,123,-70,78,52
1491088115780,0,66,-102,-52,8,-86,-67,-50,-2
1491088115780,0,-8,99,-2,-76,-25,-79,3,-34
1491088115781,1,-21,-77,15,-15,66,75,-25,-20
1491088115781,1,-15,77,37,-94,-48,99,-46,9
1491088115782,2,-5,-80,2,-5,29,26,73,6
1491088115782,2,13,-128,-29,-71,-86,11,92,10
1491088115783,3,11,-103,-35,67,52,-69,-86,-55
1491088115783,3,10,-14,3,48,17,-16,81,37
1491088115818,0,-36,88,26,-128,44,39,1,20
1491088115818,0,-31,84,-5,127,-3,-37,-19,-30
1491088115819,1,42,127,-13,-4,-20,-81,64,-1
1491088115819,1,0,-93,-13,-86,-63,-17,-128,-26
1491088115819,2,-15,-86,-42,127,-38,7,50,-24
1491088115819,2,-5,-128,44,105,87,61,68,33
1491088115820,3,22,78,16,31,-50,-78,-57,7
1491088115820,3,1,-107,28,53,-19,109,29,-3
1491088115856,0,16,-8,0,0,88,83,120,41
1491088115856,0,4,6,-33,-37,-26,-67,-43,-6
1491088115857,1,12,23,9,31,101,127,-53,42
1491088115857,1,-37,68,1,-65,-21,-65,-124,-80
1491088115858,2,11,69,-25,75,-86,-41,12,-20
1491088115858,2,-6,29,-4,97,-17,-26,14,29
1491088115859,3,23,32,0,-81,-10,16,127,5
1491088115859,3,18,25,23,35,35,63,-82,41
1491088115893,0,-7,26,41,-39,127,64,-1,3
1491088115893,0,-49,40,-13,-99,-78,-127,-111,-73
1491088115894,1,20,-13,-29,-20,-1,-45,-40,13
1491088115894,1,5,2,4,44,-22,14,-33,-48
1491088115895,2,9,28,-2,-128,-79,53,-3,54
1491088115895,2,-7,10,-11,50,-16,73,55,-42
1491088115930,3,-72,-17,-15,79,18,-75,-49,23
1491088115930,3,-35,-4,-36,31,-2,14,103,-50
1491088115931,0,66,24,36,31,-2,-38,-92,32
1491088115931,0,28,-2,-2,-54,3,-25,-15,2
1491088115932,1,-31,-19,12,-14,-49,21,-23,-21
1491088115932,1,13,13,-20,16,13,48,85,50
1491088115933,2,-60,6,38,86,39,-42,-74,-46
1491088115933,2,24,-4,10,-128,123,92,56,43
1491088116005,3,31,-5,-74,17,-100,-128,1,-36
1491088116005,3,-17,3,-14,23,37,18,-49,6
1491088116006,0,10,4,21,28,71,33,40,-32
1491088116006,0,-5,-4,23,5,-60,104,-96,-5
1491088116007,1,-57,-1,-3,-97,-58,-111,-68,-31
1491088116007,1,72,-1,-14,25,73,59,84,47
1491088116043,2,-40,1,7,-16,-37,-54,-58,-56
1491088116043,2,38,38,-35,54,-6,-55,50,50
1491088116044,3,19,90,65,-15,65,60,127,33
1491088116044,3,3,117,12,65,-28,0,-91,-6
1491088116045,0,-51,127,-54,-103,-29,-55,3,-31
1491088116045,0,55,38,8,38,1,20,-93,5
1491088116045,0,37,2,-27,11,-26,1,33,1
1491088116045,0,-36,-11,-26,-93,51,83,53,-11
1491088116156,1,-34,-20,-42,-19,-48,-49,-44,-35
1491088116156,1,-34,7,-25,-5,-46,-28,-55,-27
1491088116157,2,26,8,14,-120,-15,23,106,69
1491088116157,2,-9,-9,32,87,30,20,-42,-21
1491088116157,3,-9,-30,10,67,-12,-25,-8,-1
1491088116157,3,-5,101,-30,6,8,-39,-128,-25
1491088116158,0,-11,105,19,-23,-31,-71,57,37
1491088116158,0,38,38,4,-26,62,61,-2,-9
1491088116193,1,8,18,9,-61,-23,-40,-37,-32
1491088116193,1,-4,-65,16,26,44,78,36,24
1491088116194,2,3,94,16,77,29,23,-48,-12
1491088116194,2,-1,80,-54,-44,-83,-40,-36,-11
1491088116195,3,-31,-8,-1,-39,23,25,69,30
1491088116195,3,1,-21,31,38,37,62,-54,-20
1491088116196,0,-18,-54,-38,-10,-11,-128,-104,-9
1491088116196,0,-35,-21,14,-32,0,8,38,-19
1491088116230,1,62,-13,13,69,-13,61,44,33
1491088116230,1,-22,-34,-63,-90,-39,-85,-28,-26
1491088116232,2,19,-22,16,-63,-31,52,-72,-1
1491088116232,2,-24,18,12,25,32,-13,40,9
1491088116232,3,12,49,61,101,81,115,4,-9
1491088116232,3,-20,4,-24,41,17,-12,-40,-29
1491088116233,0,-19,6,-70,-103,-98,-20,-68,-66
1491088116233,0,51,26,10,-11,-18,30,117,96
1491088116268,1,3,-4,-21,53,55,49,-43,10
1491088116268,1,14,0,20,19,46,45,-47,0
1491088116269,2,24,53,51,-9,-13,-79,14,10
1491088116269,2,-40,36,-24,16,1,-28,31,-1
1491088116270,3,9,50,-22,-33,-82,-128,-6,-34
1491088116270,3,32,-3,36,44,54,76,54,-16
1491088116271,0,-30,-18,-8,-53,-22,26,-33,2
1491088116271,0,-17,27,-49,-57,-32,-55,-17,-35
1491088116305,1,-3,3,-11,39,56,56,-5,-23
1491088116305,1,-57,-28,-4,39,90,60,-1,43
1491088116306,2,70,10,49,92,22,100,98,87
1491088116306,2,80,7,17,12,25,-52,-81,-17
1491088116307,3,-24,-9,-56,-121,-86,40,-89,-24
1491088116307,3,0,-13,-4,-11,-34,-11,76,53
1491088116308,0,-76,-2,17,66,41,64,-28,-5
1491088116308,0,5,20,48,2,-2,25,14,-19
1491088116343,1,14,38,-4,-50,79,-66,-128,-54
1491088116343,1,-8,2,40,25,1,72,59,-11
1491088116344,2,-55,-22,-66,-31,-91,-128,-2,-18
1491088116344,2,68,-41,-23,65,-2,96,-64,11
1491088116344,3,-90,-34,-4,1,-69,-112,-45,-26
1491088116344,3,-1,66,2,27,16,24,-25,34
1491088116345,0,-4,14,21,-56,50,-5,-18,-8
1491088116345,0,32,31,20,-79,-68,-37,34,-10
1491088116380,1,9,-63,-1,71,75,92,110,25
1491088116380,1,12,-51,40,39,-97,-39,-89,-28
1491088116381,2,-32,-92,-62,-24,86,-91,-78,-62
1491088116381,2,-6,-102,-36,58,57,86,85,66
1491088116382,3,39,14,40,-18,17,24,36,23
1491088116382,3,-21,2,-36,-59,-73,-33,-102,-49
1491088116383,0,-14,81,48,31,-13,79,83,16
1491088116383,0,-53,34,29,4,25,-60,-9,-43
1491088116418,1,23,56,-24,14,-52,7,91,69
1491088116418,1,27,19,4,-86,-50,-75,-95,-73
1491088116420,2,90,52,-7,90,56,13,56,100
1491088116420,2,-109,-48,3,1,37,75,-81,-23
1491088116420,3,15,43,-29,-59,-65,-7,44,-19
1491088116420,3,-74,-91,-21,81,25,90,21,29
1491088116421,0,56,-27,26,42,-20,-23,-24,4
1491088116421,0,12,44,11,-31,12,-71,-3,-8
1491088116455,1,-15,12,52,-32,-27,-41,-128,-48
1491088116455,1,103,35,-54,-106,22,-31,102,-14
1491088116456,2,3,11,7,-19,-11,-2,-76,18
1491088116456,2,-31,-1,-9,51,-22,-3,88,39
1491088116457,3,-36,24,-13,-25,-87,-126,-58,-30
1491088116457,3,-40,7,1,-67,60,69,-105,22
1491088116493,0,4,-42,-26,-10,-6,14,70,17
1491088116493,0,-4,12,0,-10,-16,43,-74,-7
1491088116494,1,-45,5,45,100,99,85,35,29
1491088116494,1,70,6,2,-59,-3,-20,18,64
1491088116495,2,21,-7,-26,-81,-44,-21,30,-82
1491088116495,2,-43,-14,-31,-8,-42,-40,-69,16
1491088116496,3,55,2,4,32,4,111,104,47
1491088116496,3,-15,16,18,80,48,-46,-90,-60
1491088116530,0,-48,28,34,20,-9,62,-21,-12
1491088116530,0,0,21,-10,-73,15,-88,61,26
1491088116531,1,11,-5,-35,-36,-78,19,-38,40
1491088116531,1,-70,0,-8,30,48,-54,30,-24
1491088116532,2,53,-44,-5,54,47,-47,-25,63
1491088116532,2,-80,23,12,-56,6,-4,-17,-54
1491088116533,3,58,-4,-19,101,-41,-53,-10,-11
1491088116533,3,57,30,42,11,-105,-8,77,-11
1491088116568,0,-83,-33,-58,6,58,99,-111,9
1491088116568,0,26,-33,-17,-16,-6,-2,81,0
1491088116569,1,43,-20,29,-46,34,9,-50,-20
1491088116569,1,22,23,-41,-83,-98,-60,64,7
1491088116570,2,-56,-28,-14,16,69,21,-22,-75
1491088116570,2,20,-11,9,86,39,-25,-16,52
1491088116570,3,-25,-10,4,-97,44,101,21,9
1491088116570,3,5,-1,18,117,-17,-6,-73,-6
1491088116605,0,26,25,28,41,-43,-80,51,12
1491088116605,0,7,-1,-18,-128,15,45,-53,-57
1491088116606,1,-36,-19,-39,48,-37,-128,-102,-83
1491088116606,1,-54,-24,63,7,54,118,127,92
1491088116607,2,103,7,-34,-50,-66,-17,-114,-29
1491088116607,2,-36,2,-16,33,-27,-19,70,42
1491088116643,3,39,-12,0,-24,20,-3,-7,-20
1491088116643,3,-13,-9,-4,-3,94,45,78,-34
1491088116644,0,9,-6,29,-33,-22,86,43,29
1491088116644,0,13,15,40,31,8,68,-56,-29
1491088116644,1,22,4,6,28,52,-29,75,72
1491088116644,1,-21,2,1,2,-50,-53,-128,-77
1491088116645,2,6,13,4,81,-35,-35,101,37
1491088116645,2,22,-13,3,-49,-94,-69,-53,-19
1491088116680,3,-43,-10,-67,22,-9,-104,-29,-19
1491088116680,3,-33,-11,-19,-23,20,114,-58,7
1491088116681,0,27,25,25,-93,-8,-69,-18,0
1491088116681,0,59,-16,-4,91,52,38,43,14
1491088116682,1,-57,-22,32,28,12,-76,24,6
1491088116682,1,80,15,-3,-9,34,-64,36,12
1491088116683,2,-47,-8,-4,-28,-64,-2,-80,-53
1491088116683,2,-44,40,-4,28,11,52,-54,-41
1491088116718,3,63,0,25,-106,-14,-38,54,21
1491088116718,3,-44,-27,-33,79,27,37,-3,7
1491088116719,0,-47,-33,-10,-71,-28,5,4,-7
1491088116719,0,67,-22,1,45,-37,-108,-128,-69
1491088116719,1,55,35,24,-17,7,97,-8,36
1491088116719,1,-52,20,-9,-1,-21,-79,-7,3
1491088116720,2,24,5,-9,-17,20,-5,-102,-6
1491088116720,2,-45,-14,3,57,16,-30,127,50
1491088116755,3,-34,-12,-13,-39,34,56,-14,-13
1491088116755,3,71,-13,9,-67,-13,-15,-15,-7
1491088116756,0,-24,17,31,33,48,97,45,7
1491088116756,0,-1,12,-10,17,-42,-43,-25,-8
1491088116757,1,-35,-30,-46,-11,-17,12,12,-10
1491088116757,1,-61,-7,13,75,17,-6,-79,-47
1491088116793,2,46,9,-11,-46,-37,-49,127,40
1491088116793,2,21,20,49,-77,45,41,-27,17
1491088116794,3,15,-3,-15,103,60,8,-21,-10
1491088116794,3,-1,-38,-27,-61,11,66,77,61
1491088116794,0,-52,1,-1,25,-16,-41,-128,-57
1491088116794,0,54,6,-18,-33,-71,-53,67,-2
1491088116795,1,-51,-1,29,18,-5,38,12,-12
1491088116795,1,-13,-3,15,-60,11,17,30,-21
1491088116830,2,19,-35,-24,20,10,22,0,53
1491088116830,2,-84,3,3,-12,-22,-6,-9,-33
1491088116832,3,27,22,49,62,25,2,-94,8
1491088116832,3,71,68,7,12,-52,-82,-30,-10
1491088116832,0,20,-16,-26,-59,48,23,97,51
1491088116832,0,-38,-26,-15,14,-19,55,-101,-60
1491088116833,1,9,-13,-23,-90,-41,2,36,32
1491088116833,1,-28,-16,41,95,9,-18,-95,-74
1491088116868,2,-5,22,13,-54,71,91,31,39
1491088116868,2,26,-17,-32,41,15,-43,-11,14
1491088116869,3,-13,-56,6,5,-9,47,-23,-10
1491088116869,3,-26,-30,9,3,-29,-22,54,40
1491088116905,0,-2,6,10,-8,-112,-74,57,-35
1491088116905,0,74,-16,-30,-16,43,21,-31,21
1491088116906,1,-55,17,-39,-76,-13,-18,-66,-37
1491088116906,1,75,37,14,98,-3,-41,33,13
1491088116907,2,-63,-1,-19,-3,45,22,-25,-11
1491088116907,2,2,40,74,59,50,127,44,-35
1491088116908,3,13,-1,-45,2,-42,-117,7,2
1491088116908,3,-61,-7,-32,-10,-14,117,10,-5
1491088116943,0,71,2,-27,20,25,33,-94,-27
1491088116943,0,-4,8,66,-6,-33,94,114,42
1491088116944,1,-52,3,10,7,55,-23,-108,-7
1491088116944,1,97,3,-8,-36,-63,-30,104,55
1491088116944,2,-47,-6,3,2,-44,-45,-15,-25
1491088116944,2,29,-21,-48,-61,-2,-65,-75,0
1491088116947,3,-121,25,-16,41,-19,12,-50,-64
1491088116947,3,48,-9,13,-40,44,-11,38,78
1491088116980,0,1,-4,-7,26,-18,62,14,-13
1491088116980,0,-6,16,-1,50,-16,-47,-25,-26
1491088116981,1,-7,-2,18,-69,-14,-26,-12,3
1491088116981,1,-18,-12,-28,35,25,16,34,4
1491088116982,2,-6,4,26,-17,2,26,90,29
1491088116982,2,-11,-21,-27,-21,-9,-7,-2,-46
1491088116983,3,30,10,-11,74,-11,-25,-51,36
1491088116983,3,-43,-3,-27,-73,0,-99,-41,-47
1491088117018,0,-42,-3,26,87,-84,16,-32,-31
1491088117018,0,57,0,-6,-102,97,20,68,54
1491088117019,1,2,10,8,74,-25,14,40,16
1491088117019,1,16,-9,8,-29,36,119,-88,-26
1491088117019,2,-7,-9,-8,-8,-63,-75,54,30
1491088117019,2,-42,-3,-21,-5,-15,-52,-58,-15
1491088117020,3,29,-19,9,-16,1,83,36,27
1491088117020,3,-30,14,19,-13,4,-42,-86,12
1491088117055,0,31,23,28,-13,33,3,-58,-70
1491088117055,0,1,-9,-30,62,1,-2,9,-11
1491088117056,1,-77,-48,-43,-84,-12,-5,106,43
1491088117056,1,78,-16,-21,10,4,-25,10,-45
1491088117057,2,16,21,20,-22,-61,-17,-122,-7
1491088117057,2,-24,16,25,24,35,73,90,17
1491088117058,3,3,-1,2,39,54,-11,-26,-20
1491088117058,3,-36,-17,-21,-104,-61,77,-38,12
1491088117093,0,1,-16,-19,114,14,-110,-18,-15
1491088117093,0,14,11,14,-18,-68,22,-19,-19
1491088117094,1,0,38,35,-12,-5,-15,-7,12
1491088117094,1,35,-14,-15,-12,90,64,69,18
1491088117094,2,-23,-35,-6,-12,43,-14,4,17
1491088117094,2,-22,-13,17,-42,-61,-81,-79,-11
1491088117095,3,21,4,-27,6,-70,-52,52,-2
1491088117095,3,-12,14,-6,-15,-23,-20,-93,-67
1491088117130,0,-44,10,10,-36,73,31,24,45
1491088117130,0,54,-44,-26,-24,30,87,-11,-40
1491088117132,1,16,-32,5,-2,-42,-76,-50,-30
1491088117132,1,-47,-2,4,45,-44,-74,-65,-14
1491088117132,2,1,7,-18,17,31,85,29,-50
1491088117132,2,-35,14,-1,-87,-50,-43,32,23
1491088117133,3,120,27,25,66,47,53,7,3
1491088117133,3,-37,13,18,2,-11,-19,76,2
1491088117168,0,-65,9,-2,-20,-50,-125,-60,-30
1491088117168,0,-19,2,-24,33,42,99,-55,21
1491088117169,1,-27,-51,20,11,-27,66,90,-20
1491088117169,1,16,-3,-19,10,27,-27,70,21
1491088117169,2,18,-7,-1,51,12,-25,2,-21
1491088117169,2,-23,24,-6,-3,-24,-128,-29,-1
1491088117170,3,22,19,31,-5,54,121,4,11
1491088117170,3,-52,-108,43,39,-41,-34,-77,-7
1491088117205,0,99,-120,-79,-95,-20,12,125,58
1491088117205,0,-13,-43,-38,-5,-20,-32,-29,23
1491088117206,1,-51,57,21,7,26,56,-36,-11
1491088117206,1,91,127,6,-50,-58,50,-14,0
1491088117207,2,-37,58,18,49,87,127,11,29
1491088117207,2,-46,98,-12,5,-14,-12,-26,-5
1491088117243,3,5,105,5,0,27,-33,46,31
1491088117243,3,23,127,24,65,9,-23,50,-20
1491088117244,0,-29,-31,13,4,-14,-25,-86,-40
1491088117244,0,38,-114,-14,50,23,-16,31,49
1491088117245,1,-85,-128,3,-51,-44,-4,-22,-28
1491088117245,1,9,-128,-47,9,6,-46,-19,-36
1491088117246,2,11,-93,28,8,40,36,-55,35
1491088117246,2,-25,-1,32,-55,8,16,6,-47
1491088117280,3,-19,-77,-27,-53,-75,-30,8,16
1491088117280,3,-16,14,4,23,-35,11,18,17
1491088117282,0,71,100,9,62,2,-41,81,20
1491088117282,0,-56,-26,11,5,-12,94,-5,-7
1491088117286,1,50,125,-4,17,29,-71,-66,-52
1491088117286,1,-24,-27,5,-32,66,127,88,16
1491088117287,2,3,7,-13,-25,-52,-64,-40,-21
1491088117287,2,-17,-22,3,18,37,55,6,18
1491088117318,3,-5,22,-32,44,-13,-113,5,-29
1491088117318,3,-36,-18,3,-121,-52,-10,-39,0
1491088117319,0,-30,31,-20,87,32,-47,-107,-32
1491088117319,0,92,-42,-25,-13,-33,-105,125,43
1491088117320,1,-90,-22,-35,-72,-1,1,-81,-13
1491088117320,1,111,27,51,93,89,39,29,36
1491088117355,2,-91,111,4,-67,70,80,-75,-52
1491088117355,2,-22,-12,16,83,-80,52,-82,-61
1491088117357,3,43,-94,-93,8,17,-69,109,70
1491088117357,3,-38,-36,6,13,3,-112,-14,-33
1491088117358,0,-51,-61,-25,-61,-57,20,-57,-34
1491088117358,0,52,107,31,13,75,63,68,52
1491088117359,1,38,52,37,40,24,47,11,-2
1491088117359,1,-56,-64,-21,58,-6,-28,-52,-22
1491088117431,2,51,-37,16,10,-13,-57,-25,-7
1491088117431,2,-89,72,20,-74,-48,-34,50,-22
1491088117432,3,115,-40,12,70,-15,35,-54,-5
1491088117432,3,46,-48,-65,-69,65,-50,-91,-42
1491088117433,0,-34,-14,48,32,-12,-1,103,118
1491088117433,0,19,-4,-32,-18,-85,-21,-128,-62
1491088117433,1,-6,33,31,-43,92,107,99,9
1491088117433,1,-53,44,-26,-7,-60,-25,-39,-52
1491088117505,2,18,-1,24,-77,43,79,-36,-50
1491088117505,2,0,-61,-17,112,-6,-85,-5,33
1491088117507,3,-20,-52,-4,8,-101,-33,65,-37
1491088117507,3,-12,25,-8,4,40,3,-31,27
1491088117507,0,2,16,31,-5,-15,-2,17,1
1491088117507,0,10,29,70,17,107,49,28,61
1491088117508,2,48,32,-21,13,-65,-95,-51,-22
1491088117508,2,-49,-40,-6,8,72,55,68,66
1491088117543,3,45,7,24,-80,2,43,-48,-43
1491088117543,3,13,-17,-2,44,-18,51,-3,28
1491088117544,0,-45,-61,-22,3,15,14,-68,-94
1491088117544,0,40,25,-4,35,16,-22,-18,63
1491088117545,1,-94,-11,22,-86,-4,18,-73,-32
1491088117545,1,36,90,13,96,-45,-43,17,49
1491088117546,1,108,48,38,52,56,-17,74,8
1491088117546,1,-20,-69,-8,-14,-29,-60,-43,-53
1491088117580,2,-4,-11,-13,47,-66,22,88,39
1491088117580,2,-31,15,-22,-128,-52,-92,-17,-24
1491088117582,3,-30,-79,15,78,111,53,-128,-67
1491088117582,3,-13,-6,11,-4,2,3,127,110
1491088117582,1,-61,25,-32,-38,-62,-52,-6,-12
1491088117582,1,21,41,23,52,-57,-76,-22,-31
1491088117583,2,-19,28,12,-53,87,91,-7,21
1491088117583,2,78,-81,4,-16,-26,3,-17,-25
1491088117618,3,-63,30,44,41,-31,-80,90,36
1491088117618,3,78,-18,-17,-9,57,48,5,15
1491088117620,0,-46,37,43,-56,61,58,50,-5
1491088117620,0,-8,-42,-53,10,-52,-70,-83,-45
1491088117621,1,29,44,51,26,-16,118,-1,40
1491088117621,1,-87,-13,-46,54,12,-70,-94,-52
1491088117622,2,-34,-91,-24,34,21,65,79,42
1491088117622,2,50,-39,-28,-22,26,29,114,76
1491088117655,3,11,74,21,55,-19,-50,-17,-47
1491088117655,3,34,70,37,-46,-13,-42,-63,-17
1491088117656,0,36,46,-16,8,-63,-62,-104,-26
1491088117656,0,-7,-3,15,15,43,70,42,30
1491088117657,1,-14,-87,-8,-9,-5,36,43,44
1491088117657,1,-44,65,-44,-12,1,-25,-79,-32
1491088117658,2,-8,56,31,10,-14,-15,-5,-34
1491088117658,2,-17,-58,18,-17,66,69,-47,-13
1491088117693,3,23,-117,-47,-25,-47,-10,99,37
1491088117693,3,-45,-128,3,-30,40,114,37,1
1491088117696,0,57,-60,16,-76,-104,-64,-99,-29
1491088117696,0,-53,-79,-4,94,-5,-15,15,11
1491088117696,1,-5,-79,-32,-5,64,52,-94,55
1491088117696,1,-7,-28,39,-28,-20,30,91,-7
1491088117697,2,1,19,-1,33,-24,-29,11,-18
1491088117697,2,4,2,4,-37,4,42,4,-46
1491088117731,3,14,4,20,-43,-3,-30,-60,-19
1491088117731,3,-62,37,-6,101,-8,32,92,54
1491088117732,0,56,-21,-8,-57,-10,-60,-94,-42
1491088117732,0,-15,14,20,24,-59,-8,57,-1
1491088117733,1,-40,-8,-44,64,85,-59,-110,-40
1491088117733,1,20,-37,-8,-32,-55,-19,64,-2
1491088117734,2,-8,-43,10,-6,49,85,91,67
1491088117734,2,36,31,30,32,52,-14,5,33
1491088117769,3,19,22,-4,-56,-50,-23,21,-22
1491088117769,3,-18,17,-19,-48,11,32,-128,-39
1491088117771,0,-44,-40,3,50,38,52,110,69
1491088117771,0,13,0,-23,-21,-30,-55,-25,-60
1491088117772,1,21,-11,33,9,33,21,-34,-39
1491088117772,1,34,52,-36,-4,-4,-95,-58,33
1491088117774,2,8,-35,7,-13,-12,62,97,42
1491088117774,2,27,5,19,-34,29,-25,-8,-24
1491088117805,3,-30,39,13,-23,-100,-38,-53,-9
1491088117805,3,-24,-26,-53,-64,59,22,-47,-46
1491088117806,0,-14,-76,-3,34,35,49,42,29
1491088117806,0,-36,18,14,-9,-12,-50,-64,26
1491088117807,1,34,27,34,4,0,60,-51,-21
1491088117807,1,20,-60,-22,-32,-83,-94,24,-16
1491088117808,2,-44,-17,-20,31,25,31,-100,-11
1491088117808,2,-47,12,-21,-35,-36,-56,-31,-38
1491088117843,3,91,-20,-4,-24,24,126,112,28
1491088117843,3,-12,-21,37,-14,31,79,60,13
1491088117844,0,-23,67,7,-66,-34,-49,-34,-18
1491088117844,0,39,-50,-19,81,-30,-3,-89,0
1491088117844,1,4,12,-17,10,27,12,-2,-6
1491088117844,1,-23,21,9,36,-16,8,9,-23
1491088117845,2,25,29,13,11,-78,-39,-40,-39
1491088117845,2,-1,58,-24,22,87,61,42,19
1491088117880,3,-18,-82,-23,-13,16,-54,22,52
1491088117880,3,22,-60,23,-10,-7,9,99,21
1491088117881,0,-8,-9,6,2,10,7,-86,-56
1491088117881,0,2,46,-8,-59,-36,-7,-55,-26
1491088117882,1,13,18,-17,34,97,69,64,10
1491088117882,1,-105,10,20,-27,-87,-39,31,-44
1491088117883,2,80,-16,-18,71,22,-33,-113,-11
1491088117883,2,53,-79,19,-45,-42,-6,127,72
1491088117918,3,-48,18,-46,-26,-51,-91,-61,-18
1491088117918,3,-38,11,-3,-97,3,50,-32,-12
1491088117955,0,56,2,-12,96,86,-23,-43,-35
1491088117955,0,5,8,23,34,0,34,85,90
1491088117956,1,-7,-23,-36,-25,-13,-61,-39,-13
1491088117956,1,-19,-8,66,103,21,26,-46,29
1491088117957,2,17,23,-18,-102,-28,-48,-1,-43
1491088117957,2,-53,7,-5,23,61,46,-128,-30
1491088117958,3,20,21,3,-77,-62,-48,69,81
1491088117958,3,52,-62,3,81,17,99,18,40
1491088117993,0,-33,-63,-17,-2,36,-102,-36,-34
1491088117993,0,-2,54,-3,7,-69,-30,-76,-34
1491088117994,1,-77,-11,1,-47,39,79,-12,-3
1491088117994,1,122,-30,37,64,-19,-26,-89,-36
1491088117994,2,-72,103,-26,-49,63,34,108,31
1491088117994,2,-26,-98,-8,20,11,26,27,-66
1491088117997,3,10,-17,-15,2,-50,-25,20,27
1491088117997,3,-32,12,5,5,12,0,2,-27
1491088118030,0,-5,39,44,-17,-74,-59,-15,46
1491088118030,0,-20,7,-17,-37,15,22,68,-15
1491088118031,1,35,-7,17,48,42,24,0,-7
1491088118031,1,4,-13,-18,-48,-17,-64,-46,-29
1491088118032,2,26,41,3,33,-25,54,103,-15
1491088118032,2,-53,-79,-22,-86,54,46,-42,13
1491088118033,3,65,9,44,69,-58,-35,49,1
1491088118033,3,-73,45,-26,-11,5,-20,-80,-42
1491088118068,0,79,-75,-11,-64,-50,19,80,4
1491088118068,0,25,17,-1,57,76,1,25,0
1491088118070,1,-56,-26,0,23,-10,40,-59,-33
1491088118070,1,-3,10,33,33,17,-15,-39,2
1491088118071,2,-70,15,-22,13,-12,-10,69,37
1491088118071,2,87,51,-4,-123,-101,10,39,-27
1491088118071,3,4,20,1,84,28,-71,-72,9
1491088118071,3,-9,6,17,-68,59,55,5,-26
1491088118106,0,-40,16,-29,11,-50,12,-58,31
1491088118106,0,11,-68,-47,-51,-36,-27,-120,4
1491088118107,1,-25,51,-2,43,-7,-11,-33,-41
1491088118107,1,14,-6,23,16,-5,21,127,127
1491088118108,2,-37,-11,6,-45,82,63,-21,-3
1491088118108,2,55,11,27,83,35,5,43,51
1491088118109,3,14,-19,11,-61,-33,-32,-49,-47
1491088118109,3,-1,-5,-11,-44,-47,-62,-33,-3
1491088118143,0,-31,51,-16,51,31,28,-23,5
1491088118143,0,2,5,-7,47,-81,-30,-31,-34
1491088118144,1,33,-55,2,0,45,70,87,50
1491088118144,1,21,-33,-4,10,-15,-60,-20,25
1491088118145,2,-23,55,2,32,-10,34,-79,-10
1491088118145,2,-20,-26,20,-43,12,17,67,17
1491088118145,3,40,-33,2,32,-53,16,-3,-30
1491088118145,3,-78,35,-25,-38,40,-24,-14,-20
1491088118180,0,89,-64,18,19,12,-124,-38,-21
1491088118180,0,-84,22,-28,-83,10,67,-94,-44
1491088118182,1,-2,-39,21,35,30,-17,86,75
1491088118182,1,17,31,-48,69,-39,-69,-47,-47
1491088118182,2,44,-19,2,-96,-33,-31,56,62
1491088118182,2,-26,-51,5,39,20,51,-47,-9
1491088118183,3,-15,5,10,-24,15,4,-25,-25
1491088118183,3,37,36,-4,49,6,-39,-60,24
1491088118218,0,-66,-23,12,-34,18,46,-12,-64
1491088118218,0,85,16,-35,-59,-42,-42,21,42
1491088118219,1,-62,-14,23,11,46,11,44,-17
1491088118219,1,-40,-30,-8,10,-30,-47,-40,14
1491088118255,2,69,15,8,21,-45,15,-50,-44
1491088118255,2,-57,47,48,34,26,-27,-28,26
1491088118256,3,-56,-21,-59,4,-17,-8,59,1
1491088118256,3,65,-28,23,-107,-5,-36,-66,-50
1491088118257,0,-4,-53,-5,38,37,10,4,71
1491088118257,0,-12,1,7,35,-7,-45,-73,-51
1491088118258,1,-38,23,-3,-28,-15,-34,-88,-52
1491088118258,1,-1,10,10,-15,37,117,127,49
1491088118293,2,6,12,30,-15,-42,37,-81,-46
1491088118293,2,16,1,0,25,22,-76,90,20
1491088118294,3,-43,-5,-64,-60,-22,-56,-67,1
1491088118294,3,42,3,-44,4,29,76,-10,-23
1491088118294,0,-12,1,21,-16,-20,-9,8,6
1491088118294,0,30,46,37,56,-79,-71,-7,-25
1491088118295,1,-10,-14,5,21,58,117,25,51
1491088118295,1,-59,-73,-9,63,-6,-17,-38,-10
1491088118331,2,71,-35,-15,20,38,49,-84,-1
1491088118331,2,-48,-19,17,13,3,59,112,49
1491088118368,3,13,38,29,-60,-12,16,-85,-19
1491088118368,3,31,18,-15,-33,-17,-20,43,44
1491088118369,0,-78,-21,23,-5,42,-6,-5,-52
1491088118369,0,-7,36,-7,52,-5,-71,-61,-33
1491088118369,1,43,-14,-21,-7,-32,-41,-11,1
1491088118369,1,21,-31,31,-26,26,33,12,32
1491088118370,2,17,-12,-41,-20,-59,-75,20,31
1491088118370,2,-56,-52,0,-31,1,68,6,-7
1491088118405,3,77,9,-5,15,-38,-31,-4,43
1491088118405,3,1,34,52,40,27,2,-64,-43
1491088118407,0,-58,-25,-12,18,25,48,87,30
1491088118407,0,30,47,-7,35,57,66,-73,30
1491088118407,3,18,32,-3,-1,-2,36,-75,-54
1491088118407,3,21,-28,-16,-12,-25,12,31,24
1491088118443,0,-104,-35,-14,34,-34,-41,32,29
1491088118443,0,67,-28,-28,-9,-18,-34,-11,-11
1491088118444,1,-38,2,56,9,66,56,55,-12
1491088118444,1,29,93,-33,-55,-38,-26,2,1
1491088118444,2,14,20,25,85,29,-40,-2,34
1491088118444,2,-14,-42,-19,-77,-6,4,-12,21
1491088118445,3,58,-31,18,-33,41,-8,-16,5
1491088118445,3,-21,3,-17,47,-4,55,-9,-33
1491088118480,0,-21,19,-11,-39,-18,46,-56,-32
1491088118480,0,7,18,14,-76,-8,-12,31,-29
1491088118481,1,-54,-9,-39,4,-90,12,-31,7
1491088118481,1,-32,-15,-13,12,49,-12,42,-33
1491088118482,2,69,-11,-27,-8,-24,-1,-56,12
1491088118482,2,-39,26,29,43,66,-33,-47,-76
1491088118483,3,14,39,15,11,-6,38,44,31
1491088118483,3,-16,-27,-8,-21,-26,-25,-49,-35
1491088118518,0,-46,44,-28,15,-20,-93,-31,-40
1491088118518,0,38,-78,12,-33,24,102,84,21
1491088118519,1,6,16,32,8,39,-41,57,31
1491088118519,1,24,-6,-3,-8,-31,-80,-50,-6
1491088118521,2,-69,17,27,29,-15,60,47,-2
1491088118521,2,8,46,7,20,-25,-21,-23,39
1491088118521,3,12,-92,-45,-83,40,69,-23,-61
1491088118521,3,-62,-3,-32,68,-3,-29,-49,44
1491088118557,0,47,3,-6,-46,-3,4,-73,-7
1491088118557,0,70,-49,-1,39,-50,3,-21,42
1491088118558,1,1,-5,1,11,30,19,52,31
1491088118558,1,-31,-15,33,1,34,26,35,-19
1491088118559,2,-43,30,9,1,-10,-82,-77,-41
1491088118559,2,29,19,-4,-69,-16,52,-47,-46
1491088118560,3,14,-43,-57,-41,32,-85,-53,0
1491088118560,3,36,1,-6,-29,-16,32,-17,52
1491088118593,0,17,-25,13,-31,-53,29,114,33
1491088118593,0,-39,-6,19,28,19,31,-93,-44
1491088118594,1,5,50,-31,23,-5,10,54,24
1491088118594,1,-36,-23,21,-3,-13,42,7,15
1491088118595,2,-9,4,-15,-83,41,-12,11,7
1491088118595,2,13,-23,36,121,39,11,12,-86
1491088118596,3,-52,22,-11,-37,-99,-70,-23,34
1491088118596,3,16,39,13,-27,0,53,-67,-47
1491088118630,0,82,-22,-44,85,52,13,-39,-23
1491088118630,0,-64,-33,-7,20,15,15,83,56
1491088118631,1,-1,-3,-12,37,12,-74,-66,-11
1491088118631,1,-83,-40,10,-19,-7,48,-18,-34
1491088118632,2,24,8,5,-46,-53,-37,16,-36
1491088118632,2,24,28,1,-120,-38,-55,-35,32
1491088118633,3,-26,-12,-42,72,0,22,-55,-46
1491088118633,3,39,-23,33,24,43,-10,127,96
1491088118668,0,58,-19,10,-23,18,-15,-7,1
1491088118668,0,-43,45,-44,6,39,64,39,50
1491088118669,1,-19,-20,20,-17,-16,22,-49,-17
1491088118669,1,-9,28,6,27,-54,-35,-48,-48
1491088118669,2,31,-41,-4,25,19,19,97,71
1491088118669,2,47,-19,3,-86,-4,-59,78,33
1491088118670,3,-37,34,5,55,-10,49,-8,-25
1491088118670,3,-29,30,-15,-4,1,-24,-67,-90
1491088118743,0,-107,-15,-5,7,-42,-84,15,13
1491088118743,0,54,-42,-9,23,21,31,-45,-21
1491088118744,1,-53,-17,3,-14,-14,-71,-78,-25
1491088118744,1,46,4,-11,17,-25,-2,16,-18
1491088118744,2,-19,22,13,39,32,73,18,13
1491088118744,2,6,-97,-29,-66,18,7,3,-27
1491088118745,3,-47,27,45,16,11,65,-24,6
1491088118745,3,91,1,-1,-55,-20,4,-26,80
1491088118780,0,-25,15,0,25,47,-12,36,-38
1491088118780,0,-11,1,-17,30,-31,-62,-98,-16
1491088118781,1,11,8,25,-59,-13,67,56,5
1491088118781,1,3,-1,-7,43,-51,-53,-102,-66
1491088118782,2,-11,-7,9,7,49,59,79,47
1491088118782,2,-66,-34,2,-8,5,-15,10,-14
1491088118783,1,34,38,-20,8,98,93,13,24
1491088118783,1,-63,-40,-13,-63,-36,31,-27,0
1491088118818,2,-32,-2,57,46,-58,-66,-66,-68
1491088118818,2,16,95,-62,-34,8,-35,-112,31
1491088118893,3,-53,-53,-11,7,-66,-58,31,-33
1491088118893,3,9,7,2,-8,37,35,124,21
1491088118894,0,63,-18,-28,21,-17,-73,-48,10
1491088118894,0,-103,-30,17,-12,-51,-38,-105,-64
1491088118930,1,95,-7,-34,-12,39,20,45,28
1491088118930,1,-31,-11,18,33,3,31,-35,-21
1491088118931,2,38,32,74,-51,-2,68,80,66
1491088118931,2,20,-26,-39,48,86,73,42,2
1491088118932,3,-62,-57,-11,-18,2,-16,13,-22
1491088118932,3,-72,-51,-25,-9,37,-28,1,-25
1491088118933,0,54,16,32,-27,-36,-2,12,-16
1491088118933,0,-21,98,-49,51,-76,-58,21,20
1491088118968,1,46,-1,-18,-57,-57,-14,-34,-6
1491088118968,1,-28,-41,41,-12,29,5,-113,-44
1491088119005,0,8,-1,9,0,-15,26,-54,1
1491088119005,0,-61,61,62,21,-32,-71,5,-32
1491088119043,1,52,77,-21,127,120,50,-61,-53
1491088119043,1,-11,-54,-8,-67,-105,-36,-6,43
1491088119044,3,77,-89,46,-20,38,32,50,35
1491088119044,3,-40,73,47,82,25,63,108,-11
1491088119045,0,5,47,9,-32,39,-75,-77,-43
1491088119045,0,6,52,-3,-21,-42,-10,-7,40
1491088119045,1,-85,-45,-69,-90,-35,-42,61,46
1491088119045,1,59,-62,-8,-2,0,59,-36,-16
1491088119080,3,-39,64,28,4,-20,-66,-44,-47
1491088119080,3,-31,31,-29,7,32,-17,-56,-2
1491088119082,3,-101,-15,10,-78,71,82,97,47
1491088119082,3,-40,-39,-37,-65,-25,63,-33,39
1491088119082,3,115,-32,-30,66,-45,-36,-3,-113
1491088119082,3,64,-94,63,22,58,73,29,39
1491088119083,0,54,63,70,23,114,40,117,-17
1491088119083,0,-6,-81,-27,16,-59,14,20,33
1491088119118,1,-120,-99,-95,-76,-128,-100,31,-51
1491088119118,1,62,-92,16,90,22,77,-78,-14
1491088119118,2,-1,21,38,127,122,-66,101,49
1491088119118,2,-26,-88,69,-41,7,-51,84,12
1491088119119,3,16,-58,-22,-24,-11,-127,-128,13
1491088119119,3,-52,-4,-122,-89,-128,10,-70,-93
1491088119120,0,-44,26,-4,-90,9,100,93,85
1491088119120,0,96,122,97,127,52,-33,-83,-51
1491088119155,1,-31,125,127,37,6,91,-49,5
1491088119155,1,8,127,-52,-128,-2,-128,-64,-70
1491088119156,2,-36,16,-31,122,20,-6,28,18
1491088119156,2,44,77,96,-128,-99,57,-13,-42
1491088119157,3,59,84,75,127,119,66,62,66
1491088119157,3,-70,74,-27,79,-81,-104,-2,-45
1491088119158,0,-128,-19,-45,127,-47,-106,-30,52
1491088119158,0,-33,4,-80,-100,3,54,-10,-90
1491088119193,1,127,61,20,82,56,81,30,81
1491088119193,1,-63,24,89,-111,-8,-81,-59,18
1491088119194,2,15,-49,-46,-39,-81,77,-7,-86
1491088119194,2,-15,15,-30,-54,-82,-102,-12,79
1491088119194,3,-123,25,13,70,-113,-111,-28,-91
1491088119194,3,-101,10,64,120,46,67,-28,7
1491088119195,0,74,-31,-48,-128,38,26,-30,-104
1491088119195,0,-13,12,5,127,0,6,85,113
1491088119230,1,-72,17,-50,7,0,-32,-18,14
1491088119230,1,109,-4,93,-35,-84,-63,127,-37
1491088119231,2,-55,-12,-51,16,101,69,-54,-5
1491088119231,2,115,4,-64,-42,-27,-56,-128,-125
1491088119234,3,-91,4,-109,87,104,-44,118,74
1491088119234,3,37,8,-21,-72,-78,-12,-73,15
1491088119234,0,35,-15,75,-64,107,86,52,88
1491088119234,0,-72,1,91,21,93,120,-14,-17
1491088119268,1,-42,6,-68,-86,-128,-128,-128,-119
1491088119268,1,93,6,96,109,73,36,127,127
1491088119269,2,-112,-11,7,-93,-84,-128,-78,-125
1491088119269,2,-4,-4,-12,-62,90,124,-29,107
1491088119270,3,-52,10,2,41,86,-87,47,7
1491088119270,3,42,3,74,-97,-19,78,-43,-41
1491088119271,0,-25,-13,-128,97,39,-128,67,88
1491088119271,0,21,2,5,-109,-92,-118,-54,-80
1491088119305,1,-36,4,117,36,-84,127,73,27
1491088119305,1,4,1,-125,-82,37,-62,-84,-59
1491088119317,2,88,-8,1,126,-128,-99,19,119
1491088119317,2,18,2,100,89,72,127,50,-75
1491088119318,3,127,3,-102,-90,26,-108,75,-14
1491088119318,3,-123,-2,60,2,-4,102,52,28
1491088119318,0,5,-3,115,44,-115,-2,-111,35
1491088119318,0,-11,0,36,-31,127,-78,4,-3
1491088119343,1,116,-1,-46,71,-128,-107,-4,19
1491088119343,1,-32,1,-117,57,75,86,-19,-18
1491088119344,2,-87,-4,20,-56,-9,70,-126,-1
1491088119344,2,127,-1,-34,99,-65,-16,127,127
1491088119345,3,-128,1,127,28,29,-53,-128,-75
1491088119345,3,-86,1,40,-114,-32,-104,29,57
1491088119380,0,16,-3,-110,127,-32,77,-38,56
1491088119380,0,-72,-2,-51,-101,-82,-60,91,-94
1491088119381,1,62,2,-92,38,-98,-26,42,75
1491088119381,1,-18,0,-9,53,58,91,-93,13
1491088119382,2,-36,-3,49,-98,-102,13,46,36
1491088119382,2,-5,0,-31,118,73,66,34,89
1491088119383,3,-77,0,-3,-61,3,127,13,-128
1491088119383,3,-11,0,-48,37,52,37,37,108
1491088119418,0,-36,-2,-4,-34,-21,73,-87,-49
1491088119418,0,25,-1,37,-45,63,-42,-127,16
1491088119419,1,-82,0,48,-128,-77,101,16,-73
1491088119419,1,-4,-1,75,127,104,34,-15,-28
1491088119419,2,-49,-1,-78,-63,44,-128,-92,-107
1491088119419,2,-67,-1,24,-44,-69,10,-55,-41
1491088119420,3,-44,-1,8,60,127,54,37,60
1491088119420,3,-9,-1,-16,25,-128,-39,111,-49
1491088119455,0,90,77,-48,-99,48,-128,-80,36
1491088119455,0,-49,-3,-82,127,-128,106,41,-25
1491088119493,1,-103,14,126,66,67,60,-28,-52
1491088119493,1,127,103,-110,8,10,-128,24,60
1491088119494,2,-126,0,8,94,-118,127,6,-28
1491088119494,2,127,96,70,-86,56,-68,117,60
1491088119530,3,-4,16,26,-76,-28,70,-12,-48
1491088119530,3,-119,-61,3,127,127,13,-29,-109
1491088119532,0,127,-30,-18,-92,-53,-51,54,28
1491088119532,0,-56,-1,-3,-30,-75,72,31,-29
1491088119532,1,127,-20,-69,78,91,-68,-96,30
1491088119532,1,-50,-19,127,-11,-9,0,-85,6
1491088119605,2,-43,-3,33,45,-64,-128,-67,23
1491088119605,2,-84,-38,-49,100,32,-89,98,-4
1491088119607,3,69,-17,2,17,27,93,89,-3
1491088119607,3,77,7,52,62,-22,-37,70,52
1491088119607,0,60,-38,-1,127,127,127,-18,28
1491088119607,0,-73,-3,-11,-128,-83,-103,11,51
1491088119608,1,24,-33,-42,73,65,63,-24,-26
1491088119608,1,-96,-28,-111,-122,-95,4,97,60
1491088119643,3,40,-11,-128,27,-6,-54,53,70
1491088119643,3,48,66,127,114,-112,127,-42,-28
1491088119644,0,-9,-3,-62,-116,-49,-39,127,-43
1491088119644,0,70,-27,-64,57,68,62,-91,-48
1491088119644,3,-53,50,127,11,1,107,83,55
1491088119644,3,-11,-4,-128,-69,104,-128,2,-9
1491088119645,3,-21,9,-84,-44,22,-128,28,115
1491088119645,3,20,-22,-14,53,-25,57,-10,-59
1491088119680,0,-84,-2,3,6,58,-85,-30,53
1491088119680,0,11,4,65,8,-69,66,-128,-58
1491088119682,1,33,52,91,-61,-60,43,79,70
1491088119682,1,-11,-54,-107,127,96,-79,-41,-24
1491088119682,2,32,30,5,-102,-17,25,121,-45
1491088119682,2,-128,10,-23,-91,-114,-94,-70,-51
1491088119683,3,-28,-29,-60,68,48,-42,-23,-71
1491088119683,3,16,16,-47,-128,-84,37,47,4
1491088119718,0,95,10,-34,89,79,-33,-68,48
1491088119718,0,-77,13,46,10,-18,3,26,-10
1491088119719,1,19,37,69,-128,-15,-84,41,43
1491088119719,1,-128,-97,-29,55,-86,24,-99,-13
1491088119719,2,90,15,-53,-119,42,-40,23,72
1491088119719,2,-8,-125,-18,127,21,-31,93,-38
1491088119720,3,-11,44,100,-77,-128,127,3,-79
1491088119720,3,-19,15,12,-105,121,-100,-81,41
1491088119755,0,-128,-89,-71,-89,-9,110,68,41
1491088119755,0,68,10,34,-20,57,34,33,-78
1491088119756,1,-27,-12,32,-36,-64,-21,5,-1
1491088119756,1,60,63,103,54,-13,17,-44,4
1491088119757,2,-85,-9,-81,81,17,11,-101,-45
1491088119757,2,53,-30,-72,107,-75,101,-127,27
1491088119758,3,-69,-49,-78,-54,-116,21,-128,-9
1491088119758,3,123,-63,-56,18,7,102,-76,-15
1491088119793,0,-11,35,44,20,51,107,-21,-55
1491088119793,0,-82,15,31,6,30,34,29,51
1491088119794,1,116,103,-121,-28,62,67,40,21
1491088119794,1,14,109,-128,-90,33,106,124,58
1491088119796,2,-46,45,-30,78,64,86,104,-42
1491088119796,2,3,22,54,-87,25,93,38,40
1491088119796,3,-46,-69,63,83,127,22,55,-55
1491088119796,3,-72,-42,87,-76,72,47,102,46
1491088119830,0,36,-17,127,47,-30,23,39,7
1491088119830,0,24,122,58,100,127,12,9,28
1491088119832,1,73,-48,62,-7,127,-8,-2,39
1491088119832,1,17,70,22,22,85,10,42,-57
1491088119832,2,1,5,79,15,127,-109,2,-55
1491088119832,2,-30,-52,18,25,-11,-68,-11,0
1491088119833,3,-61,-104,-13,109,-26,87,7,11
1491088119833,3,24,19,38,72,-128,-32,20,2
1491088119868,0,3,19,35,44,-89,79,9,9
1491088119868,0,1,-97,-2,-24,20,-98,0,-25
1491088119869,1,-94,-98,13,-6,40,-18,-6,-1
1491088119869,1,40,-118,13,-2,13,-46,15,-83
1491088119870,2,33,-45,26,-21,76,-39,-4,48
1491088119870,2,52,-87,-21,-57,-41,41,-7,-29
1491088119905,3,-33,-64,3,33,-47,-109,-10,-7
1491088119905,3,-43,-29,5,-53,43,-120,7,5
1491088119906,0,-65,-66,-2,-59,92,-32,5,-18
1491088119906,0,-24,-96,1,-9,117,29,-8,10
1491088119907,1,-43,8,-3,-15,18,-2,-2,-44
1491088119907,1,-69,27,2,-47,-79,-32,11,-65
1491088119908,2,91,52,13,-23,-127,-25,-1,26
1491088119908,2,-60,127,-3,-28,-114,-17,-5,85
1491088119943,3,-13,84,1,-26,-113,-48,-6,-75
1491088119943,3,-15,68,-6,31,-103,-17,5,-2
1491088119944,0,-56,109,8,-66,-90,-17,-3,-25
1491088119944,0,51,127,-4,-18,-58,-12,-5,-17
1491088119944,1,22,127,-10,-15,-91,-30,100,101
1491088119944,1,-7,32,4,-1,-35,-22,-35,-56
1491088119945,2,-15,-99,4,-36,-15,7,-68,-17
1491088119945,2,-51,-116,-4,1,-45,-9,-54,8
1491088120018,3,-45,-118,0,-16,-34,-16,-34,51
1491088120018,3,-32,-128,1,14,3,-37,14,-13
1491088120019,0,-2,-122,4,-5,-7,-94,17,70
1491088120019,0,-128,97,-7,11,-24,99,3,-25
1491088120019,1,-65,116,0,-12,-12,-103,-22,-82
1491088120019,1,-9,-98,0,19,15,63,15,115
1491088120020,2,3,121,-1,-1,-14,-103,-2,-65
1491088120020,2,127,32,0,-6,-8,-94,38,58
1491088120055,3,127,93,60,-8,4,-43,-54,-12
1491088120055,3,65,127,39,16,-1,96,-24,-13
1491088120056,0,47,98,-24,-7,-5,-37,3,-74
1491088120056,0,119,59,-13,-1,-1,80,4,-84
1491088120093,0,-5,-94,-10,-6,3,-65,75,68
1491088120093,0,37,-87,85,2,-5,68,9,45
1491088120094,1,9,-68,44,-3,-4,-55,-29,46
1491088120094,1,9,-29,17,3,2,79,110,-37
1491088120094,2,-10,-17,-7,-1,0,127,66,-73
1491088120094,2,-17,-46,4,2,-5,66,-74,-59
1491088120095,3,-31,-115,-60,-3,-40,-13,101,-23
1491088120095,3,-73,-95,51,4,48,-6,-12,36
1491088120130,0,-115,-128,-128,-1,-106,13,-71,5
1491088120130,0,-92,-52,-18,-3,118,101,-59,89
1491088120131,1,-110,31,7,-3,1,68,42,-76
1491088120131,1,-17,58,-83,3,-61,-128,-49,-16
1491088120132,2,-69,55,-22,-3,-46,108,97,33
1491088120132,2,-52,11,-8,-1,-21,8,-86,-29
1491088120133,3,-20,54,32,13,88,97,8,56
1491088120133,3,-128,69,4,7,-64,-101,-67,-58
1491088120168,0,-86,64,-24,-35,-71,111,45,51
1491088120168,0,-70,47,-4,60,16,13,102,13
1491088120169,1,-6,33,15,-115,-47,119,74,14
1491088120169,1,11,48,127,20,121,127,21,-18
1491088120169,3,-70,5,-95,42,-39,-91,50,-14
1491088120169,3,-80,9,-88,-128,-117,-22,3,-18
1491088120170,0,-44,4,4,3,42,-19,-54,-94
1491088120170,0,91,104,56,-109,-55,-33,-76,42
1491088120205,1,57,117,-108,65,-21,-68,-55,-25
1491088120205,1,82,91,40,88,37,-51,48,37
1491088120207,2,108,-5,-61,-100,12,-95,-74,-11
1491088120207,2,46,-126,19,-60,-49,7,127,-103
1491088120207,3,8,-128,-77,55,-105,-93,-128,24
1491088120207,3,12,-33,59,89,90,72,-20,91
1491088120208,0,64,87,39,-52,112,-60,-50,5
1491088120208,0,33,117,71,1,92,51,22,-89
1491088120243,1,17,127,5,27,31,-37,-38,66
1491088120243,1,16,-3,-72,-90,-99,-36,-29,2
1491088120244,2,2,-65,-16,2,-25,127,99,-36
1491088120244,2,59,-10,45,56,37,-9,-43,-27
1491088120244,3,54,-7,-10,17,-114,-25,-55,17
1491088120244,3,-43,-39,-71,-68,-83,-82,13,-7
1491088120245,0,40,-61,98,127,127,126,49,65
1491088120245,0,-17,-103,-128,-40,12,-21,-15,45
1491088120280,1,-6,-92,108,12,-2,12,127,-94
1491088120280,1,53,-67,75,-70,-52,-57,38,-13
1491088120281,2,-97,-52,-111,97,-33,-103,-120,-52
1491088120281,2,100,-49,108,127,110,109,127,127
1491088120282,3,-35,-40,-113,-99,-54,110,-37,32
1491088120282,3,-102,-19,-45,45,-48,-11,-77,20
1491088120283,0,102,-12,121,-41,51,84,10,-55
1491088120283,0,-128,-10,-4,74,56,17,-49,49
1491088120355,1,127,-18,13,-101,127,107,75,-61
1491088120355,1,-41,-8,-85,112,106,7,-47,33
1491088120356,2,-110,13,9,105,23,40,-20,-57
1491088120356,2,71,0,45,58,19,49,-73,30
1491088120357,3,94,-37,-92,-65,-106,-36,-65,-96
1491088120357,3,84,1,-11,127,110,-4,111,64
1491088120358,0,-43,-63,44,-77,31,95,69,90
1491088120358,0,78,-16,45,-128,26,43,26,-51
1491088120393,1,-122,-122,20,92,1,59,12,3
1491088120393,1,96,20,29,96,108,127,50,-36
1491088120393,2,-58,-35,-33,-78,-115,-128,13,-3
1491088120393,2,-85,-24,-82,83,8,60,-74,21
1491088120394,1,-103,26,-8,-7,-12,-34,-101,77
1491088120394,1,-67,14,108,-128,-52,45,-15,-104
1491088120395,2,94,-32,-37,-28,-28,-75,113,6
1491088120395,2,-41,-52,-80,-102,-128,-12,-69,56
1491088120430,3,77,37,47,74,-17,-122,-121,65
1491088120430,3,-21,22,64,-44,42,121,19,-7
1491088120432,0,14,49,100,79,99,-48,60,0
1491088120432,0,-120,-4,-37,-101,-120,37,-93,-128
1491088120433,1,54,-50,-68,67,60,-37,-39,25
1491088120433,1,20,35,37,-33,52,39,-80,64
1491088120433,2,121,24,67,-8,-66,-8,-74,-4
1491088120433,2,-16,19,-97,-28,46,-67,127,-34
1491088120468,3,-23,30,100,121,127,127,119,-20
1491088120468,3,-80,-13,21,-128,-128,-19,21,-108
1491088120469,0,-10,-28,-123,125,115,-70,-120,94
1491088120469,0,81,3,7,34,37,63,58,7
1491088120470,1,-89,20,30,-128,-16,-22,-83,-20
1491088120470,1,28,21,84,123,-28,-124,94,-61
1491088120471,2,46,-45,-103,-119,70,47,-105,50
1491088120471,2,-66,-2,-44,47,-44,23,34,29
1491088120505,3,10,14,69,32,105,92,-17,17
1491088120505,3,-94,26,11,-48,-44,88,-120,-44
1491088120507,0,-97,-1,-28,-128,-114,-81,38,-17
1491088120507,0,108,-2,-46,86,100,39,-84,42
1491088120507,1,-13,23,39,-33,-71,-93,-58,4
1491088120507,1,-56,-30,-10,74,30,108,34,-18
1491088120508,2,-13,-35,-82,-35,-5,-41,89,64
1491088120508,2,21,66,109,46,-6,24,92,-31
1491088120543,3,-118,-9,29,-95,-102,119,34,24
1491088120543,3,108,-24,-3,127,105,63,-3,-89
1491088120544,0,-80,101,7,36,31,123,127,68
1491088120544,0,-73,49,127,76,-43,-39,17,60
1491088120545,1,31,-58,-120,99,19,-64,-71,5
1491088120545,1,-38,-20,41,54,-68,19,-55,14
1491088120546,2,-50,-50,-35,-17,-8,-3,62,-127
1491088120546,2,-29,7,109,-121,-128,87,-128,-41
1491088120580,3,21,74,65,111,-77,-70,4,-44
1491088120580,3,80,-74,-128,-86,66,-23,69,125
1491088120582,0,-96,-28,60,55,83,102,-117,-49
1491088120582,0,7,-3,2,-83,-98,-20,67,-15
1491088120583,1,80,23,-80,-128,90,33,23,-72
1491088120583,1,75,-1,60,76,78,-71,-69,45
1491088120583,2,-32,-13,-29,103,-9,70,25,16
1491088120583,2,7,-4,-32,-42,7,-128,17,37
1491088120618,3,-52,6,42,-77,-67,28,-53,-48
1491088120618,3,57,1,-54,-31,62,-22,51,55
1491088120619,0,33,32,-6,-128,-85,42,84,37
1491088120619,0,8,-71,-77,127,96,15,-128,-12
1491088120620,1,16,54,38,-73,-26,-56,127,18
1491088120620,1,-60,11,49,51,-39,7,-128,9
1491088120620,2,7,28,-4,31,48,-126,-56,-11
1491088120620,2,-71,0,-95,-104,-84,96,127,25
1491088120655,3,-55,-4,97,127,63,127,-7,-72
1491088120655,3,-24,1,-106,-59,86,11,-44,72
1491088120656,0,-47,-56,12,-14,-53,-86,-31,-19
1491088120656,0,74,21,42,79,70,43,-128,-1
1491088120657,1,33,19,-10,2,4,127,122,-18
1491088120657,1,-69,-25,-44,-50,-86,-36,-65,-79
1491088120658,2,-59,-4,-24,33,16,127,57,70
1491088120658,2,105,1,89,-24,-57,66,-7,-38
1491088120693,3,-43,-27,-91,81,8,-83,37,43
1491088120693,3,3,29,4,81,-64,88,-3,-53
1491088120694,0,32,22,66,-87,-80,107,-52,-57
1491088120694,0,-104,-55,-48,37,-10,-56,-106,-76
1491088120695,1,108,16,18,-86,-27,70,127,76
1491088120695,1,116,76,75,-37,-128,-128,88,127
1491088120695,2,-79,-11,-35,127,2,75,-128,-58
1491088120695,2,-14,-6,-18,-15,-50,13,31,-116
1491088120730,3,-128,-43,-2,-37,45,34,-128,-9
1491088120730,3,58,-20,-23,44,53,-20,117,30
1491088120732,0,101,14,-5,32,-32,-54,-24,72
1491088120732,0,-102,76,4,-104,16,-38,96,52
1491088120733,1,24,-11,-9,107,-12,-115,-42,37
1491088120733,1,-67,-27,-67,-32,73,66,30,27
1491088120768,2,97,38,127,-11,-17,127,49,38
1491088120768,2,16,1,-87,91,71,-128,-86,52
1491088120769,3,11,-7,-13,-53,7,-37,39,113
1491088120769,3,-50,12,37,-41,45,127,26,-128
1491088120770,0,69,-67,-29,-91,-12,53,7,31
1491088120770,0,47,57,91,92,-24,21,-52,-24
1491088120771,1,7,8,-19,-3,107,124,72,1
1491088120771,1,-52,-15,-42,-17,-126,18,16,117
1491088120805,2,73,52,28,-81,127,-126,30,36
1491088120805,2,11,-67,-61,90,6,12,-55,83
1491088120806,3,-96,-44,14,-36,-48,116,-52,-83
1491088120806,3,2,67,13,27,51,-66,-128,-8
1491088120807,0,-63,-28,10,122,29,68,91,-9
1491088120807,0,87,48,25,-109,127,-63,-30,-63
1491088120880,1,56,-56,-26,109,-79,-110,-27,-12
1491088120880,1,1,8,74,88,-50,95,45,-72
1491088120882,2,37,58,14,-95,-68,-112,-96,-28
1491088120882,2,-19,-7,-29,96,-28,-19,-35,16
1491088120882,3,-36,-54,-124,-69,-102,117,-8,72
1491088120882,3,125,15,122,89,98,56,-111,-86
1491088120883,0,18,49,-81,-21,82,81,31,42
1491088120883,0,64,-47,-52,-128,-118,-67,127,-24
1491088120918,1,127,-15,-61,90,127,-43,-103,12
1491088120918,1,-57,-7,30,60,-64,-16,-82,0
1491088120919,2,-8,46,-1,-70,-14,-88,-27,12
1491088120919,2,-79,-68,-84,-61,-90,22,20,-17
1491088120919,3,55,8,17,59,-22,-39,-80,-1
1491088120919,3,-79,-4,16,-128,-128,63,76,32
1491088120920,2,7,62,107,-104,-97,25,-28,-30
1491088120920,2,-101,-50,-65,81,5,-94,-109,26
1491088120955,3,59,16,-2,-40,22,123,102,-29
1491088120955,3,61,5,30,-68,55,37,102,32
1491088120956,0,-128,-72,-71,-46,-122,68,-117,-128
1491088120956,0,127,-19,-54,-12,-42,-49,127,114
1491088120957,2,127,-24,4,124,96,124,-41,-98
1491088120957,2,-128,4,5,81,36,-1,-84,-64
1491088120958,3,19,55,97,-100,-6,19,11,57
1491088120958,3,-69,-52,-128,90,-27,-102,-36,-5
1491088120993,0,23,-2,-15,66,41,-102,88,91
1491088120993,0,-57,47,100,-7,58,36,106,78
1491088120994,1,-28,23,-29,-78,65,-41,-43,-89
1491088120994,1,-15,-36,-13,88,-43,-95,31,50
1491088120994,2,-73,-37,-6,-108,29,-72,-127,-24
1491088120994,2,-110,11,-10,105,113,127,-64,-42
1491088120995,3,66,29,-6,-111,-64,-76,-35,117
1491088120995,3,96,5,-62,-109,-39,71,27,-21
1491088121030,0,-16,-106,-26,127,32,127,-87,-55
1491088121030,0,34,110,127,-75,79,52,28,38
1491088121031,1,17,-33,-80,121,83,45,32,-8
1491088121031,1,-75,-29,-28,-97,-86,-122,-128,-72
1491088121032,2,-14,48,81,38,-97,-98,127,49
1491088121032,2,99,-13,-55,-47,127,99,67,24
1491088121033,3,-61,-5,26,122,-128,47,127,54
1491088121033,3,99,-25,71,33,-83,79,-98,-108
1491088121068,0,-43,60,86,6,-29,-128,-69,-50
1491088121068,0,-28,17,-73,-46,-53,48,-81,79
1491088121069,1,-5,-72,38,100,-58,51,90,-64
1491088121069,1,32,90,58,30,-14,41,-6,33
1491088121070,2,-103,-42,-80,-6,66,-19,57,34
1491088121070,2,121,-20,17,93,-128,-19,35,-84
1491088121070,3,-30,55,48,-75,21,-128,28,90
1491088121070,3,-22,30,61,-2,74,7,70,26
1491088121105,0,55,-50,-113,-128,-89,120,106,42
1491088121105,0,26,-14,46,63,-25,-120,-2,-88
1491088121106,1,-41,36,27,-107,9,6,-78,9
1491088121106,1,-90,12,30,99,42,23,88,-46
1491088121107,2,-59,28,-30,-116,-62,-12,-90,32
1491088121107,2,76,-73,-102,71,82,-78,0,-39
1491088121108,3,-74,-17,127,127,-50,-121,-128,3
1491088121108,3,-43,70,28,41,17,86,-10,-24
1491088121143,0,20,-84,-122,74,87,86,-128,-70
1491088121143,0,-30,-25,72,127,-32,-16,-52,-36
1491088121144,1,98,56,26,-127,-10,-32,127,-96
1491088121144,1,-41,-25,-104,-101,-78,-12,33,110
1491088121144,2,60,-45,36,114,63,113,-21,64
1491088121144,2,61,3,39,11,-17,37,57,82
1491088121145,3,-46,59,-41,13,41,127,57,91
1491088121145,3,-63,-30,-28,-68,88,-128,-128,8
1491088121180,0,63,-47,-20,23,-128,-29,86,-27
1491088121180,0,-13,43,78,-100,58,-28,56,-17
1491088121189,1,58,-34,-117,-53,-35,84,-94,-64
1491088121189,1,8,-8,54,-33,-107,119,44,10
1491088121189,2,-76,59,37,126,127,8,-93,-43
1491088121189,2,-21,-26,-26,-16,-128,-60,79,10
1491088121190,3,50,37,92,-125,-35,114,-76,-51
1491088121190,3,-122,-47,-94,-62,-14,-110,-84,-22
1491088121218,0,90,8,94,46,75,3,105,-64
1491088121218,0,-86,-11,-37,-29,-51,-48,-128,87
1491088121219,1,-54,21,53,-27,-71,87,59,52
1491088121219,1,-1,8,-96,82,-35,-114,-124,-15
1491088121220,2,-10,-11,23,18,-12,-6,127,119
1491088121220,2,6,66,-81,-106,121,57,-87,-76
1491088121255,3,-116,-91,-124,113,8,48,-16,3
1491088121255,3,9,44,127,-49,-17,-99,-123,-83
1491088121256,0,74,-9,-110,29,3,-45,24,51
1491088121256,0,56,51,127,31,-121,13,-45,72
1491088121257,1,76,35,-26,58,127,19,33,-125
1491088121257,1,54,-73,-90,127,14,-94,69,-13
1491088121258,2,-98,-14,21,-128,-11,127,-113,-128
1491088121258,2,-39,-12,-20,91,20,-5,88,-4
1491088121293,3,22,3,48,8,-27,-13,-42,-25
1491088121293,3,122,35,80,84,85,127,127,32
1491088121294,0,15,39,10,-1,61,15,-40,3
1491088121294,0,-69,23,90,-12,-66,127,-29,-94
1491088121294,1,-84,-69,-128,21,88,-128,-128,8
1491088121294,1,50,-63,-51,-67,-51,13,54,36
1491088121295,2,88,25,79,4,-107,-128,-33,26
1491088121295,2,19,101,55,-119,-98,112,71,-41
1491088121330,3,-84,-71,-76,127,40,-87,-42,48
1491088121330,3,21,-39,5,-128,0,16,2,24
1491088121331,0,55,6,-21,93,-49,-94,-16,-7
1491088121331,0,-78,-20,-22,-125,-78,-36,3,-2
1491088121332,1,-24,111,127,62,82,81,13,72
1491088121332,1,91,-84,-127,14,-8,12,-69,-95
1491088121333,2,16,25,-61,3,-128,-85,-90,5
1491088121333,2,101,57,107,83,41,51,84,45
1491088121368,3,51,18,28,-122,-88,-8,29,-59
1491088121368,3,-128,-49,-65,116,106,-61,-128,-72
1491088121369,0,-2,-50,-48,-92,-113,92,127,15
1491088121369,0,-32,-11,-24,-76,-29,-128,-45,53
1491088121370,1,3,-4,6,72,-55,70,111,46
1491088121370,1,-45,26,109,-89,-69,-50,-5,22
1491088121405,2,8,-71,-94,53,37,93,-74,-33
1491088121405,2,-47,-66,-69,68,37,-74,16,-4
1491088121406,3,127,72,55,-93,66,-106,-37,6
1491088121406,3,-115,-21,64,-35,-61,114,-22,-39
1491088121407,0,-64,8,-9,-115,9,-82,61,25
1491088121407,0,-14,-101,-53,65,121,20,-128,-22
1491088121408,1,5,48,-49,-56,-93,13,67,40
1491088121408,1,106,63,62,109,1,59,90,-13
1491088121443,2,-107,-9,-38,2,-74,-13,-88,24
1491088121443,2,27,-44,-10,-43,47,127,114,49
1491088121444,3,25,15,-53,-105,-10,21,41,2
1491088121444,3,-89,31,77,115,79,61,-55,-4
1491088121444,0,46,30,-35,-87,59,-15,127,20
1491088121444,0,-56,-40,69,97,-52,-73,-108,-100
1491088121445,1,-9,-35,42,-26,-112,127,64,37
1491088121445,1,17,66,-1,-122,127,34,-50,-26
1491088121518,2,40,-53,24,4,-62,34,49,-1
1491088121518,2,-87,42,7,-128,-51,-103,-32,-11
1491088121519,3,83,-23,-80,114,-12,-124,2,57
1491088121519,3,-21,58,-15,-111,-128,127,-63,-112
1491088121520,0,-127,-62,-48,93,67,38,-128,-16
1491088121520,0,47,7,-52,2,-49,-8,83,44
1491088121521,1,-114,-74,18,-50,5,86,-86,-25
1491088121521,1,32,-27,39,96,-26,8,-34,17
1491088121555,2,22,77,85,8,81,127,57,-30
1491088121555,2,67,0,-87,-38,-54,82,77,-5
1491088121556,3,-30,3,37,28,-99,72,21,6
1491088121556,3,-39,17,53,-34,-59,-126,-49,-16
1491088121557,0,-9,27,97,-3,-115,92,105,7
1491088121557,0,-41,-98,-99,122,97,-89,-122,-58
1491088121558,1,74,-41,38,-1,-81,-45,-10,-22
1491088121558,1,-99,-11,-19,-52,-25,-46,17,23
1491088121593,2,-23,12,39,82,-107,-65,-102,6
1491088121593,2,101,95,96,67,-44,110,-19,-45
1491088121594,3,-82,34,-79,10,77,-101,1,-36
1491088121594,3,78,-33,-67,-118,60,94,115,65
1491088121594,1,48,0,31,-6,110,97,-39,-14
1491088121594,1,-9,36,3,-32,127,-33,88,45
1491088121595,2,-76,38,-30,16,7,-67,-73,5
1491088121595,2,-119,-83,-36,12,-128,18,4,-22
1491088121630,3,-17,81,61,19,-112,43,-46,-4
1491088121630,3,127,5,65,21,72,24,111,25
1491088121632,0,38,-42,-62,100,127,31,-58,36
1491088121632,0,-5,-33,-20,23,55,-108,-110,-12
1491088121633,1,-94,-57,38,-105,0,-3,-24,-46
1491088121633,1,96,-10,-124,127,32,-13,54,-25
1491088121634,2,-16,25,-32,-109,-128,-10,59,67
1491088121634,2,-100,58,97,21,-78,-56,-103,-45
1491088121705,3,71,16,55,84,66,52,61,32
1491088121705,3,-128,22,-64,-58,-116,-56,-84,36
1491088121706,0,127,24,73,-10,-11,59,102,44
1491088121706,0,-55,41,-76,-70,-31,72,-71,2
1491088121707,1,-82,-27,99,127,107,-102,-85,-41
1491088121707,1,-58,17,-85,-77,-55,22,105,-22
1491088121708,2,-125,-68,-55,1,9,-17,-27,-43
1491088121708,2,25,9,84,-98,-43,40,4,-1
1491088121743,3,47,52,-76,114,111,35,-10,11
1491088121743,3,68,-100,-94,60,29,-106,-118,67
1491088121744,0,-106,-80,-77,-24,-120,-8,-49,-48
1491088121744,0,67,-7,123,-9,35,48,46,-26
1491088121747,1,-89,50,-128,-79,20,-2,8,5
1491088121747,1,-16,37,127,77,83,125,5,-69
1491088121748,0,-76,-71,102,19,127,99,-25,-60
1491088121748,0,9,107,121,84,37,26,-64,-74
1491088121780,1,-79,-32,23,-9,-61,-21,81,19
1491088121780,1,-20,15,-20,34,-87,32,-126,40
1491088121781,2,95,25,127,48,127,93,127,45
1491088121781,2,27,-99,-128,82,71,107,40,20
1491088121782,0,-19,93,1,44,-4,-4,-35,-45
1491088121782,0,16,60,-8,127,38,88,6,91
1491088121783,1,110,55,127,103,109,127,-34,-30
1491088121783,1,-75,-67,-7,70,43,100,-35,-4
1491088121855,2,69,25,-101,-31,44,-68,-25,-96
1491088121855,2,-21,40,-87,67,-61,-104,4,-8
1491088121856,3,-35,-66,-127,30,-106,-128,-94,-66
1491088121856,3,-108,-5,93,-86,91,-25,101,117
1491088121857,0,20,55,89,-96,-40,-72,-39,-31
1491088121857,0,8,18,41,-128,81,24,25,10
1491088121858,1,-11,-51,-64,-128,-88,-110,-73,-22
1491088121858,1,-69,-59,-23,-82,56,-128,-105,-30
1491088121893,2,-124,18,14,-102,18,-128,-128,51
1491088121893,2,33,93,127,-125,115,-128,65,73
1491088121895,3,-67,-66,-113,-49,12,-119,-18,-34
1491088121895,3,127,91,0,-79,-52,55,-29,-116
1491088121896,0,-126,67,-128,-24,-73,124,6,28
1491088121896,0,99,9,-100,-58,-99,127,-128,-109
1491088121897,3,62,-19,63,-20,-3,-74,-12,24
1491088121897,3,-43,-56,32,-7,-40,-128,83,-83
1491088121930,0,15,-53,34,22,-95,-109,108,13
1491088121930,0,-128,-109,25,-23,-70,-114,20,-2
1491088121932,1,103,30,53,-4,-12,-16,71,-10
1491088121932,1,-6,-23,93,-4,-46,-59,34,-51
1491088121933,3,-82,66,125,-5,13,-25,80,7
1491088121933,3,-100,-73,-26,7,-40,-75,2,21
1491088121937,0,90,23,61,-1,5,-16,88,-13
1491088121937,0,-79,-42,51,-9,-50,-26,-22,-19
1491088121968,1,-51,-38,-10,4,-58,-101,-38,-2
1491088121968,1,-41,53,-34,-101,51,75,32,35
1491088121969,2,14,-94,38,-108,-4,-48,82,-41
1491088121969,2,70,50,13,-128,124,31,63,-5
1491088121969,3,76,45,-10,-118,-103,20,13,19
1491088121969,3,0,78,24,-97,87,27,-42,8
1491088121970,0,-59,-77,-128,-116,-24,-98,7,-14
1491088121970,0,63,17,-80,43,-116,54,114,3
1491088122005,1,-9,-64,16,-89,127,27,18,3
1491088122005,1,1,-16,-27,-12,-70,-48,24,16
1491088122006,2,-39,18,69,-54,1,91,18,40
1491088122006,2,-125,-85,49,-105,118,-77,-37,-17
1491088122007,3,88,-19,-4,109,37,-43,22,15
1491088122007,3,-44,-4,-89,95,-109,-85,-10,8
1491088122008,0,92,15,37,-96,85,-96,-48,-4
1491088122008,0,-94,-128,-72,123,-108,-121,-46,16
1491088122080,1,109,-110,28,89,-11,-54,44,48
1491088122080,1,-33,-32,-1,-109,22,22,-47,-71
1491088122081,2,47,24,-40,98,-68,17,-71,-40
1491088122081,2,58,72,72,-33,41,-41,-92,13
1491088122082,3,-66,98,-110,85,-106,74,99,4
1491088122082,3,-17,110,104,127,45,-128,-82,81
1491088122083,0,-33,91,-13,127,-112,127,-13,8
1491088122083,0,-75,-27,-50,-15,100,127,-49,-26
1491088122118,1,67,-90,-48,36,-2,17,0,2
1491088122118,1,60,-115,59,19,76,-12,1,6
1491088122119,2,-64,-99,-91,63,-87,-86,-33,-20
1491088122119,2,3,-4,-94,-30,55,-32,-77,31
1491088122119,3,-64,-6,59,25,79,9,-43,-6
1491088122119,3,124,52,-14,45,84,113,94,58
1491088122120,1,23,36,103,51,85,67,-65,11
1491088122120,1,-59,-4,-45,-113,-88,-87,-4,12
1491088122155,2,27,-59,-17,112,-23,1,38,18
1491088122155,2,-34,-30,-22,54,-50,30,-87,48
1491088122156,3,-128,76,116,7,72,-21,-88,-90
1491088122156,3,44,-63,-97,-45,-128,-11,86,77
1491088122157,1,18,-48,17,32,5,58,-50,-78
1491088122157,1,32,104,101,80,78,-77,22,-17
1491088122158,2,18,69,-47,-45,127,74,126,55
1491088122158,2,-23,-57,-28,-32,-40,-57,84,-24
1491088122193,3,-46,58,67,-14,38,66,71,-32
1491088122193,3,-24,-59,-128,117,-128,35,-92,-10
1491088122194,0,-70,28,66,101,89,92,81,34
1491088122194,0,36,53,-56,-20,-82,105,-77,59
1491088122194,1,76,-15,-84,-100,-50,-128,-54,40
1491088122194,1,-113,18,78,-46,72,119,-17,-109
1491088122195,2,23,8,44,-35,-68,96,60,-20
1491088122195,2,90,91,93,68,118,-30,65,-35
1491088122230,3,-100,11,-100,-128,-103,3,-3,10
1491088122230,3,59,-75,-79,107,-49,109,-101,-55
1491088122231,0,-88,14,80,40,93,-68,-128,85
1491088122231,0,52,18,-80,-95,-118,8,-59,-48
1491088122232,1,127,-14,29,-104,-48,127,102,50
1491088122232,1,15,34,-18,72,108,7,-17,44
1491088122233,2,1,-25,43,-37,3,74,7,-19
1491088122233,2,-76,2,97,-51,1,28,-22,-62
1491088122268,3,-9,-30,-30,-33,51,-39,21,2
1491088122268,3,9,64,-88,-84,35,37,-39,47
1491088122269,0,-74,-53,-80,91,-103,-122,-126,48
1491088122269,0,-14,-22,-73,-18,-1,-13,-69,2
1491088122269,1,3,7,-49,-58,18,102,67,-44
1491088122269,1,76,18,2,-128,-56,-125,60,-33
1491088122270,2,81,29,59,-35,0,101,-12,14
1491088122270,2,-33,27,82,64,12,103,-72,89
1491088122305,3,-93,-63,44,94,43,-64,-57,-69
1491088122305,3,116,54,88,-54,-45,127,31,-82
1491088122306,0,72,-94,-128,98,27,-128,-11,19
1491088122306,0,-99,-110,7,1,-68,-56,-61,28
1491088122307,1,107,105,95,-55,10,127,-27,56
1491088122307,1,20,44,95,7,-86,24,33,25
1491088122308,2,-81,36,-63,-120,0,42,-52,-62
1491088122308,2,101,-41,-32,103,80,90,120,-3
1491088122343,3,-62,37,-14,-79,43,-40,-26,19
1491088122343,3,91,42,77,101,22,44,66,60
1491088122344,0,-59,-17,-114,-124,10,71,-10,-28
1491088122344,0,-50,-64,-51,86,17,-95,-28,-41
1491088122344,1,10,61,74,-9,7,61,-50,90
1491088122344,1,16,-5,44,31,-100,6,-100,-23
1491088122345,2,5,0,0,119,39,-46,85,22
1491088122345,2,113,7,40,-80,43,67,110,42
1491088122380,3,78,-48,-115,-32,17,-128,-128,-31
1491088122380,3,-105,-30,9,71,109,-54,21,28
1491088122381,0,-48,50,25,-99,-43,80,-24,-120
1491088122381,0,-107,-35,-44,70,-55,-122,55,-3
1491088122382,1,-82,-9,-7,112,-42,127,-10,63
1491088122382,1,-100,-43,-86,-60,88,-77,40,28
1491088122383,2,-89,-6,89,-66,-59,79,-57,-75
1491088122383,2,103,5,-11,-86,-6,39,-72,25
1491088122418,3,84,-30,-10,72,14,127,-83,-80
1491088122418,3,20,-32,-50,-92,-128,-100,55,16
1491088122419,0,91,-32,-27,-53,109,103,-33,-33
1491088122419,0,113,118,104,26,-55,-22,80,50
1491088122419,1,-40,-79,-111,-49,56,58,18,-33
1491088122419,1,-65,22,38,-29,-33,-35,-128,-68
1491088122420,2,111,11,10,9,14,127,127,125
1491088122420,2,-8,52,-57,-56,70,84,-128,-21
1491088122455,3,-84,39,26,-80,-117,0,-19,5
1491088122455,3,-35,-10,26,6,116,-15,-73,-52
1491088122457,0,-13,-37,111,123,-81,42,30,-31
1491088122457,0,-93,32,25,-106,55,-40,42,9
1491088122458,1,40,-29,-68,100,-111,79,127,-31
1491088122458,1,10,31,70,-128,-18,-17,-89,-74
1491088122459,2,108,-16,-72,127,-7,-104,-128,85
1491088122459,2,-65,-12,-19,-44,127,106,127,-6
1491088122493,3,51,-10,-33,73,-85,-103,-80,-78
1491088122493,3,46,25,100,-2,-98,96,87,120
1491088122494,0,94,16,-93,84,92,4,-84,-47
1491088122494,0,-98,-19,29,70,-19,-49,-101,-42
1491088122495,1,6,8,86,-118,-35,-14,56,13
1491088122495,1,80,-6,-44,127,67,127,97,-57
1491088122496,2,-112,-18,119,82,36,-54,-23,30
1491088122496,2,121,16,-58,-128,-124,-20,-106,31
1491088122530,3,-127,-52,-74,104,-68,-127,63,-60
1491088122530,3,15,-3,15,70,24,84,68,72
1491088122531,0,-72,42,76,-78,-35,-41,2,-61
1491088122531,0,42,8,122,12,127,-61,-7,19
1491088122532,1,124,-41,-60,-83,26,-52,-106,11
1491088122532,1,-69,1,42,-9,-26,110,-77,47
1491088122568,2,65,52,-22,-98,-39,56,68,52
1491088122568,2,-94,67,99,12,-100,127,10,-7
1491088122569,3,-84,48,127,82,37,-52,2,42
1491088122569,3,5,-94,-128,-52,80,-97,44,-78
1491088122570,0,-24,-40,-48,48,-100,-29,-106,-34
1491088122570,0,-2,-31,-47,32,-28,77,42,12
1491088122571,1,1,52,99,-82,-92,-17,59,77
1491088122571,1,-21,-29,-28,90,68,102,-128,-7
1491088122605,2,87,-18,-74,-14,103,-86,-43,21
1491088122605,2,-35,12,-40,115,-57,59,127,-6
1491088122606,3,58,12,0,-82,42,60,-114,-27
1491088122606,3,-102,-16,14,101,41,-78,62,26
1491088122607,0,76,58,127,-22,-119,111,23,-69
1491088122607,0,-52,-39,-124,111,76,-128,-100,21
1491088122608,1,-69,-1,-46,-15,-54,-55,-37,82
1491088122608,1,77,8,74,7,-52,26,66,-55
1491088122643,2,-47,14,75,-5,30,-128,74,22
1491088122643,2,95,71,76,57,90,127,-13,-41
1491088122644,3,-52,-25,-60,13,-53,119,91,5
1491088122644,3,19,5,31,-86,-73,-56,-32,47
1491088122644,0,9,-21,-107,85,-11,23,62,-34
1491088122644,0,127,-36,-31,-25,-4,41,-54,-106
1491088122645,1,-9,-39,-78,-64,54,11,-84,47
1491088122645,1,14,-11,-24,103,23,-77,-72,70
1491088122680,2,-128,60,127,-107,92,127,28,-82
1491088122680,2,89,87,66,-128,75,-128,107,-52
1491088122681,3,-81,-54,50,46,-74,113,-52,42
1491088122681,3,12,-2,-92,39,47,-5,-98,-39
1491088122682,0,0,-75,-37,-108,-38,15,-51,13
1491088122682,0,-95,-87,28,89,8,-26,95,79
1491088122718,1,69,110,28,-53,-24,55,4,-126
1491088122718,1,16,-16,23,70,19,122,89,-4
1491088122755,2,-20,-5,-128,33,68,-104,-59,63
1491088122755,2,-126,-6,94,-92,-128,-25,-28,-53
1491088122756,3,127,28,96,-37,-11,32,75,-76
1491088122756,3,19,-46,-63,35,62,-34,-74,-11
1491088122756,0,-112,-72,-16,-27,-128,81,-49,-10
1491088122756,0,-98,14,16,72,17,59,-93,-35
1491088122758,1,62,52,-13,-35,3,6,50,-49
1491088122758,1,-52,42,96,-18,-55,127,-5,-53
1491088122830,2,-105,-57,-64,10,58,-70,-98,-20
1491088122830,2,-12,-39,59,85,61,101,80,113
1491088122831,3,-84,-38,-67,-14,54,10,-9,-75
1491088122831,3,108,20,-78,-109,-65,39,33,127
1491088122832,0,-27,18,21,48,-128,94,-50,-26
1491088122832,0,-59,21,90,-57,-1,127,19,-1
1491088122833,1,47,-30,-107,127,127,-98,-94,63
1491088122833,1,-112,-76,-102,-29,-128,-123,-64,-16
1491088122868,2,20,43,76,17,127,83,127,76
1491088122868,2,95,-33,-18,-77,-38,35,-111,13
1491088122868,3,1,108,127,75,124,-74,118,1
1491088122868,3,-50,20,-91,-89,49,-101,-76,0
1491088122869,1,8,35,56,20,122,114,78,126
1491088122869,1,51,96,127,-61,-37,26,119,-62
1491088122870,0,-61,6,82,-121,-85,116,-67,-10
1491088122870,0,-67,-26,-128,-68,-5,-45,-45,21
1491088122905,1,-85,-64,-84,51,-77,-68,31,-60
1491088122905,1,-7,12,82,-60,-36,127,97,32
1491088122906,2,126,42,-21,45,127,53,58,47
1491088122906,2,-88,17,-24,101,-128,-70,-128,-35
1491088122907,0,84,43,127,41,74,87,92,17
1491088122907,0,56,-26,-48,40,77,66,-10,-97
1491088122908,1,-128,-1,-128,-78,-39,-127,-93,58
1491088122908,1,-14,17,127,-117,-128,127,8,-116
1491088122943,2,121,30,-60,91,59,-104,25,74
1491088122943,2,-46,-12,-17,71,-34,20,-73,-86
1491088122943,3,52,-46,73,0,15,46,62,-27
1491088122943,3,-29,9,30,-25,80,-56,-119,36
1491088122944,0,102,59,-39,-12,81,63,115,-21
1491088122944,0,120,-47,-102,-64,-55,-27,-52,32
1491088122945,1,-29,22,44,41,-105,52,-2,41
1491088122945,1,48,18,-87,-90,78,-104,-15,-25
1491088122980,2,-123,-37,28,-26,-43,117,-111,-77
1491088122980,2,112,41,10,54,43,-17,127,44
1491088122981,3,-109,-43,12,-16,-32,127,-30,25
1491088122981,3,127,-17,-8,2,28,-56,-7,74
1491088122981,0,-83,46,77,-108,-48,56,24,17
1491088122981,0,8,-26,-102,-36,34,-128,-110,27
1491088122983,1,-59,26,124,-51,-100,-18,4,-45
1491088122983,1,-38,-39,-110,127,127,61,11,-30
1491088123018,2,-93,-50,-125,-109,19,-15,-31,52
1491088123018,2,-39,19,127,4,-128,127,23,-3
1491088123019,3,-12,-2,80,38,37,-82,-19,27
1491088123019,3,-127,-2,-24,40,32,127,95,-45
1491088123019,0,97,-12,31,34,-53,-128,-73,-47
1491088123019,0,-128,0,-24,-122,-46,-21,105,-6
1491088123020,1,73,24,7,106,69,110,27,-99
1491088123020,1,-76,11,28,-91,-107,-5,76,-83
1491088123055,2,40,-4,-43,52,78,102,86,64
1491088123055,2,12,14,-41,-74,127,-7,27,-4
1491088123057,3,6,-84,-128,18,-90,-128,-76,-1
1491088123057,3,16,-14,107,32,-128,127,62,-13
1491088123058,0,90,46,20,74,89,10,-12,-37
1491088123058,0,22,63,30,86,-99,-57,-48,35
1491088123059,1,45,62,20,-126,17,42,15,48
1491088123059,1,50,-78,-123,97,57,-105,-128,-20
1491088123093,2,-12,-44,124,45,-128,75,12,-50
1491088123093,2,30,-14,-30,-6,127,-91,2,83
1491088123094,3,-58,-44,-101,127,5,8,-69,51
1491088123094,3,-101,63,105,-128,-23,-72,-125,-55
1491088123095,0,75,14,-6,74,-53,-58,64,25
1491088123095,0,-99,-57,-61,-26,-60,-14,47,-50
1491088123096,1,58,-10,-44,-67,-40,85,-2,11
1491088123096,1,62,42,12,127,82,-99,67,51
1491088123130,2,-56,3,29,51,-78,63,-92,-89
1491088123130,2,48,43,-24,-71,10,-96,-123,-67
1491088123132,3,25,-6,-53,79,4,43,127,87
1491088123132,3,53,-44,-61,-124,44,127,-25,11
1491088123132,0,-101,-14,-76,25,4,-40,-93,-47
1491088123132,0,73,-4,53,-78,32,127,115,56
1491088123133,1,-61,-39,14,91,127,-128,15,-53
1491088123133,1,-73,-7,-35,-24,-65,0,-123,-23
1491088123168,2,-100,-31,-28,-69,-36,9,-50,63
1491088123168,2,42,37,-52,-75,-110,127,17,-83
1491088123169,3,-1,60,79,-41,-47,127,3,-15
1491088123169,3,-94,-36,-93,92,-16,-81,-29,-64
1491088123170,0,75,-39,-63,-123,-107,-65,93,57
1491088123170,0,-35,-14,92,127,93,42,-7,2
1491088123171,1,-31,89,64,-123,25,106,18,39
1491088123171,1,30,-64,-66,78,69,13,-60,-17
1491088123205,2,-117,26,42,32,-36,-79,-81,-9
1491088123205,2,-14,-29,45,116,-57,57,-14,20
1491088123206,3,-22,5,-41,-93,91,51,50,-89
1491088123206,3,4,19,33,49,-6,-70,-30,88
1491088123207,0,48,-69,-75,-52,-31,106,-49,-22
1491088123207,0,11,22,109,35,-2,100,99,-15
1491088123208,1,99,-55,-108,-99,-70,21,-65,-29
1491088123208,1,64,89,8,-128,-128,73,37,46
1491088123243,2,76,0,87,100,120,-79,127,-30
1491088123243,2,55,9,-5,-23,27,41,-70,40
1491088123244,3,-46,-20,-109,48,62,-96,-81,-78
1491088123244,3,20,-40,73,85,-128,127,127,59
1491088123245,0,-40,71,52,-128,49,-67,44,-73
1491088123245,0,-90,-16,-29,114,-79,10,-41,-26
1491088123280,1,81,0,60,29,-30,-86,-101,20
1491088123280,1,-33,-33,-24,10,-98,-27,25,38
1491088123281,2,-12,61,0,-5,-128,-82,1,38
1491088123281,2,-71,-40,46,23,-18,-56,-11,-13
1491088123282,3,25,-28,-74,107,17,35,3,-22
1491088123282,3,-92,13,80,-56,61,-14,-43,7
1491088123283,0,-55,7,107,44,100,-48,-18,6
1491088123283,0,19,-31,-128,74,74,-13,-9,-17
1491088123318,1,-14,-14,-24,52,53,-57,-67,72
1491088123318,1,85,-28,-45,26,127,118,70,40
1491088123319,2,-4,-26,-69,53,124,118,-4,6
1491088123319,2,109,64,28,-41,127,31,-35,-32
1491088123319,3,-19,-20,-56,-23,121,-50,-18,-41
1491088123319,3,72,34,28,24,105,-13,38,37
1491088123320,0,-79,-105,-124,-89,57,-95,-77,-44
1491088123320,0,8,74,86,53,-59,-4,40,-29
1491088123355,1,78,-9,127,-25,-61,117,67,45
1491088123355,1,-50,-1,-65,4,-94,-64,-79,-84
1491088123356,2,36,-13,-106,-25,-85,104,109,96
1491088123356,2,-43,-88,-23,16,-69,-13,-82,-6
1491088123356,3,-20,10,40,-52,-69,11,-29,41
1491088123356,3,36,94,103,-26,1,70,9,43
1491088123358,0,-17,-15,124,-1,23,73,-77,-94
1491088123358,0,35,25,-123,-122,-33,-104,-45,45
1491088123393,1,38,-40,-45,6,-21,15,84,20
1491088123393,1,-90,-89,-18,-19,-10,16,-49,-11
1491088123394,2,127,49,55,63,-18,18,-30,-31
1491088123394,2,-14,100,8,-18,40,6,-20,44
1491088123394,3,-1,6,-17,35,35,26,54,-42
1491088123394,3,-11,34,-103,-125,2,-18,-61,-11
1491088123430,0,-15,6,31,103,-81,-57,34,45
1491088123430,0,58,-24,43,16,-20,-95,-94,1
1491088123431,1,-96,-104,6,81,-5,36,79,11
1491088123431,1,58,-6,-8,5,59,32,-6,54
1491088123432,2,-128,52,-74,-29,-29,-31,-68,-34
1491088123432,2,119,90,59,-24,11,102,69,58
1491088123433,3,-91,-17,36,78,-61,-123,-116,-22
1491088123433,3,98,3,-51,8,-56,-8,-112,-27
1491088123468,0,-6,-44,70,1,72,110,109,39
1491088123468,0,-40,59,66,-84,98,99,79,12
1491088123470,1,26,37,-33,-8,-74,-81,-95,-37
1491088123470,1,-91,-94,-47,92,-67,-27,74,-4
1491088123471,2,-85,-31,-128,-23,-45,-94,-128,-26
1491088123471,2,56,25,-11,31,40,35,39,62
1491088123472,3,-25,-11,10,19,71,10,-25,-9
1491088123472,3,-24,26,79,66,-31,-2,79,-14
1491088123505,0,31,-68,-65,-41,-10,98,12,-30
1491088123505,0,-105,-69,-14,-61,37,114,27,-49
1491088123506,1,45,82,32,107,1,42,-104,2
1491088123506,1,-111,71,-62,-70,14,39,77,39
1491088123507,2,127,97,-34,-109,54,119,44,10
1491088123507,2,-76,12,28,-57,-70,-30,-72,-47
1491088123508,3,-40,-27,63,10,-7,73,83,28
1491088123508,3,-36,32,-32,-70,21,57,-53,-22
1491088123580,0,108,-20,27,52,-11,57,-38,-5
1491088123580,0,-48,4,-72,-19,-83,-109,-70,-29
1491088123730,1,-86,-23,67,55,82,-2,70,27
1491088123730,1,86,-7,-10,46,-84,-50,-81,-51
1491088123731,2,-38,46,11,79,-43,-73,-35,-7
1491088123731,2,43,-25,-84,77,31,-111,-85,59
1491088123732,3,-92,-54,-22,-8,-26,-126,23,-58
1491088123732,3,127,96,119,-71,127,106,120,10
1491088123733,0,-24,81,-50,-39,65,-13,32,0
1491088123733,0,-84,-20,-79,83,-118,0,-70,-45
1491088123769,1,-89,51,-32,-9,23,-16,-19,43
1491088123769,1,59,-77,62,25,67,80,10,-18
1491088123770,2,120,-84,-75,-74,-108,-128,-44,23
1491088123770,2,-37,-50,-18,-10,-2,33,78,-3
1491088123771,3,19,121,-26,-48,-14,53,-50,-21
1491088123771,3,11,-1,97,18,70,-31,-18,-42
1491088123805,2,-50,49,104,-92,-34,7,-37,31
1491088123805,2,12,-17,-66,-128,92,127,-61,-28
1491088123806,3,26,-18,71,127,6,-25,-110,43
1491088123806,3,34,14,-89,47,-89,56,47,-90
1491088123806,0,76,-7,-27,-24,-6,-68,30,43
1491088123806,0,98,78,127,38,127,83,65,-41
1491088123808,2,49,36,-53,68,-128,117,33,-43
1491088123808,2,71,-53,-95,-13,-56,-128,-27,68
1491088123843,3,-43,54,127,-41,52,127,102,-22
1491088123843,3,-66,-40,-128,72,10,-62,-19,24
1491088123844,0,-11,-100,-57,36,-3,-50,-59,-21
1491088123844,0,14,18,127,-101,-12,102,103,13
1491088123845,2,51,104,41,-59,53,-47,20,63
1491088123845,2,-90,0,-69,116,-88,-67,28,14
1491088123846,3,-33,42,20,46,127,107,-64,29
1491088123846,3,-21,-17,-57,-108,-85,-47,3,-10
1491088123880,0,-36,-28,-66,65,-19,3,-21,-41
1491088123880,0,18,67,105,-93,15,56,-41,-11
1491088123881,1,-67,-27,-88,57,-10,22,106,14
1491088123881,1,104,-31,-16,97,87,15,-44,-49
1491088123881,2,-49,75,119,45,89,127,-45,48
1491088123881,2,-59,-5,-113,-9,-80,-18,44,-23
1491088123883,3,1,-62,-75,-5,-41,67,-19,-119
1491088123883,3,124,33,11,-51,13,41,21,5
1491088123918,0,88,15,2,-56,95,97,100,24
1491088123918,0,-60,-50,-41,95,-116,16,-86,-24
1491088123918,1,-37,-3,97,-48,89,79,-1,8
1491088123918,1,-122,-22,-77,102,-21,-128,-92,-15
1491088123919,2,-8,1,28,-64,44,72,66,28
1491088123919,2,-21,30,-50,110,0,9,-41,45
1491088123920,3,77,-14,-7,76,-63,73,18,-42
1491088123920,3,-35,-35,-87,-76,-71,-116,-75,-4
1491088123955,0,33,-1,-43,-29,-128,71,62,-62
1491088123955,0,-14,-13,67,-128,98,97,-24,27
1491088123956,1,-55,22,-37,121,42,-115,-6,39
1491088123956,1,31,-21,65,-128,-109,19,-52,-74
1491088123957,2,-78,-27,-36,113,70,-38,-128,-102
1491088123957,2,-16,-3,38,-87,53,80,127,31
1491088123958,3,50,27,-37,55,61,-81,-109,13
1491088123958,3,10,21,-4,-97,-13,127,78,76
1491088123993,0,12,-77,-107,28,-61,-41,-89,-9
1491088123993,0,-39,19,-28,3,100,-23,83,-5
1491088123994,1,55,27,30,-128,30,-43,-88,1
1491088123994,1,-43,55,73,126,79,47,95,-18
1491088123995,2,-97,-46,-12,95,31,75,-59,25
1491088123995,2,82,-30,27,78,86,70,7,-56
1491088123996,3,32,21,38,-65,23,110,91,10
1491088123996,3,-34,-72,-128,-10,-128,-61,-102,52
1491088124030,0,-86,41,127,59,-1,66,32,-19
1491088124030,0,37,-64,-100,122,44,26,-34,6
1491088124031,1,56,1,16,-26,-55,-102,-89,-97
1491088124031,1,127,22,73,-60,-11,71,18,37
1491088124032,2,-3,-16,-52,74,-21,24,-5,83
1491088124032,2,23,55,127,-128,-93,21,-90,-45
1491088124033,3,-55,-58,-128,106,-18,-112,-36,-21
1491088124033,3,-43,-18,63,127,54,105,109,-78
1491088124068,0,69,24,-28,-88,127,96,-43,-2
1491088124068,0,-20,-20,-74,122,-68,-128,-33,10
1491088124069,1,-128,-9,4,3,-55,-5,104,78
1491088124069,1,75,-2,71,-77,56,-18,-17,66
1491088124069,2,-111,-12,56,32,-65,-63,22,-33
1491088124069,2,37,-52,-76,104,19,17,-58,-64
1491088124070,3,28,-21,39,6,-66,-60,14,-17
1491088124070,3,60,98,48,68,101,-31,-83,29
1491088124105,0,-42,15,20,-90,-66,50,-5,19
1491088124105,0,40,45,9,-45,-37,73,-11,-23
1491088124106,1,95,38,99,47,33,108,-23,45
1491088124106,1,45,36,-90,-38,88,-54,108,-3
1491088124107,2,-21,-84,-98,115,-57,-53,-60,31
1491088124107,2,-70,-9,-31,30,-76,-26,48,35
1491088124143,3,122,16,-11,-119,61,127,-56,18
1491088124143,3,-67,42,127,16,32,127,-3,-57
1491088124143,0,-14,63,-69,34,91,-128,63,-38
1491088124143,0,-87,-87,-93,72,28,68,0,46
1491088124145,1,14,28,65,-19,-111,66,5,6
1491088124145,1,-87,-64,-45,-36,80,40,-33,-59
1491088124145,2,127,7,-62,52,-128,73,127,96
1491088124145,2,19,57,127,-65,127,72,-77,-30
1491088124180,3,-49,-32,0,110,-15,20,-23,86
1491088124180,3,44,41,-87,-112,-30,18,-78,-29
1491088124255,0,-105,-39,-44,-122,-103,-44,90,-29
1491088124255,0,58,-31,-35,5,-88,18,-37,-7
1491088124257,1,57,95,84,-124,-45,-47,99,-27
1491088124257,1,-105,-1,8,-25,-75,-21,-106,52
1491088124257,2,4,-21,118,56,100,91,-69,-69
1491088124257,2,55,68,16,46,71,34,92,0
1491088124258,3,49,-100,-123,-124,-83,-101,-71,74
1491088124258,3,-45,-20,112,87,-109,103,113,41
1491088124293,0,-47,83,-66,-54,72,-128,-113,12
1491088124293,0,-128,2,25,-16,-106,38,-118,-104
1491088124296,1,-124,-19,22,81,97,127,101,-71
1491088124296,1,101,3,4,-11,-84,72,23,-5
1491088124296,2,-96,-83,-25,66,-108,-23,44,-10
1491088124296,2,92,71,124,-26,-31,43,111,-53
1491088124330,2,106,-12,27,127,-4,127,69,10
1491088124330,2,6,49,47,-110,5,-127,-103,-17
1491088124331,3,41,20,-37,66,-73,108,123,5
1491088124331,3,54,0,30,37,-8,-128,57,82
1491088124332,0,72,22,102,82,54,73,-26,-44
1491088124332,0,69,-44,-76,-36,-20,-6,-8,117
1491088124333,2,127,78,102,-91,-24,31,-41,-84
1491088124333,2,-111,-27,44,7,74,95,100,-29
1491088124368,3,51,-21,-96,105,31,-111,-68,-46
1491088124368,3,16,10,-59,43,-49,114,57,-3
1491088124371,0,-76,14,20,11,8,12,11,127
1491088124371,0,95,47,-24,91,51,-80,-2,-50
1491088124371,1,-128,-71,-60,-76,-104,69,-76,-105
1491088124371,1,-32,20,101,-13,-3,-128,77,-18
1491088124372,2,98,-68,-119,28,44,-71,-74,85
1491088124372,2,-105,18,98,1,-78,-54,48,105
1491088124405,3,-42,67,127,-112,14,32,-95,-48
1491088124405,3,-44,41,-19,127,122,39,43,20
1491088124406,0,69,30,47,-128,-128,16,-13,23
1491088124406,0,-115,-58,-84,112,6,43,-44,-7
1491088124407,2,-90,2,47,27,38,49,24,-18
1491088124407,2,-59,43,54,-56,-12,127,31,-5
1491088124408,3,-88,-65,-111,-68,-5,-128,42,-66
1491088124408,3,64,42,50,-128,-97,127,-77,58
1491088124443,0,53,20,69,111,-14,-26,-97,-16
1491088124443,0,12,-100,-108,-81,56,28,-27,-49
1491088124444,1,89,15,-48,-27,67,-85,-64,96
1491088124444,1,-85,29,49,23,-65,23,-17,33
1491088124445,2,32,26,-104,-83,42,78,103,-56
1491088124445,2,-99,36,127,-88,-114,37,12,-14
1491088124480,3,127,5,30,91,-47,-76,83,-4
1491088124480,3,-28,30,-107,127,118,90,-51,-7
1491088124518,0,-128,-86,-62,-124,-106,53,-93,110
1491088124518,0,103,15,37,69,95,-70,84,23
1491088124519,1,-128,106,120,63,127,127,-75,-30
1491088124519,1,26,-5,-117,50,-41,-35,2,123
1491088124520,2,59,-23,26,113,40,114,108,-16
1491088124520,2,89,1,-98,-68,78,-110,-61,-96
1491088124520,3,-67,-90,-39,127,-93,100,127,107
1491088124520,3,-124,-10,100,10,127,18,4,-20
1491088124555,0,81,72,-80,-6,-10,-53,54,-37
1491088124555,0,-98,38,67,-56,-14,116,-7,61
1491088124556,1,-33,-31,-87,41,33,-126,-86,21
1491088124556,1,-128,-128,-74,-60,-49,47,69,-118
1491088124557,2,-70,-19,1,-117,-92,23,-112,-117
1491088124557,2,-15,46,112,127,6,83,102,93
1491088124558,1,-56,-23,113,-111,-46,94,127,21
1491088124558,1,-1,5,-65,-49,-119,-116,-104,-32
1491088124593,2,-17,-31,-75,127,127,99,-74,-59
1491088124593,2,-128,-61,-95,-44,-128,-121,-128,19
1491088124594,3,79,13,52,98,-14,-8,26,-41
1491088124594,3,86,113,102,-128,-49,123,127,96
1491088124594,0,-78,-43,68,71,-90,-128,-101,-35
1491088124594,0,81,-56,-128,122,61,69,-117,-52
1491088124595,1,-63,-17,-23,-71,7,60,29,29
1491088124595,1,-111,27,77,47,-35,-110,49,15
1491088124630,2,95,92,26,-128,44,32,127,-45
1491088124630,2,-54,-85,-99,111,-117,11,-67,-87
1491088124631,3,127,-85,-85,102,-49,7,46,19
1491088124631,3,-29,22,-26,-15,31,-41,-67,67
1491088124632,0,-119,74,65,-105,72,127,127,125
1491088124632,0,10,-63,-40,23,-59,-22,127,-35
1491088124633,1,-97,34,-81,-21,73,-82,-128,-25
1491088124633,1,-81,-58,15,127,71,114,60,80
1491088124668,2,-64,76,40,-70,23,76,-118,-105
1491088124668,2,68,-45,-58,-116,-49,-24,30,-23
1491088124669,3,-115,-14,-90,-73,-105,76,-67,48
1491088124669,3,127,29,26,74,39,67,-107,-69
1491088124671,0,-86,34,-94,122,80,-128,-65,23
1491088124671,0,59,-41,-39,-86,-45,0,127,37
1491088124671,1,19,71,121,-93,-41,75,94,-114
1491088124671,1,4,-41,-128,31,26,-92,-69,-24
1491088124705,2,-41,-84,88,96,-128,85,-48,-37
1491088124705,2,35,48,-50,-89,-5,-93,-37,-55
1491088124706,3,6,25,-4,127,20,53,-82,116
1491088124706,3,23,43,71,-109,107,127,-27,18
1491088124707,0,118,-75,-119,68,17,-46,27,-8
1491088124707,0,-41,50,127,-108,-61,49,-87,-50
1491088124708,1,-27,-18,-25,53,127,10,-48,39
1491088124708,1,-7,-7,48,-100,-19,-102,93,-112
1491088124743,2,60,14,-128,97,-98,-128,-110,96
1491088124743,2,-108,11,127,-22,-46,127,-6,10
1491088124744,3,126,41,-52,87,112,-8,107,-97
1491088124744,3,-128,-56,-128,-116,10,49,8,-20
1491088124744,0,78,9,127,32,-89,62,8,-66
1491088124744,0,104,71,91,-102,67,100,126,88
1491088124745,1,-73,-38,26,7,52,-128,-75,-16
1491088124745,1,-14,46,12,80,-14,104,-44,0
1491088124780,2,-85,-31,-107,-128,127,65,127,74
1491088124780,2,-128,-44,82,127,-49,127,-128,-59
1491088124781,3,100,56,-29,8,83,-73,123,12
1491088124781,3,-45,-62,-95,76,-128,-59,-22,-78
1491088124782,0,-76,69,116,-128,-46,79,-71,56
1491088124782,0,105,-25,-81,127,49,-108,57,1
1491088124783,1,-84,61,32,-72,-28,-74,60,-24
1491088124783,1,-76,-60,-57,72,47,40,21,-1
1491088124818,2,-23,13,60,-40,-128,-46,80,109
1491088124818,2,68,22,-86,-82,61,-40,-95,-32
1491088124819,3,-7,-56,-15,80,-62,-29,-128,-93
1491088124819,3,127,51,-24,-110,-73,-94,105,81
1491088124821,0,-125,-83,64,35,48,25,36,39
1491088124821,0,20,119,105,-87,-2,115,84,-38
1491088124822,1,55,12,-91,-20,114,4,45,-82
1491088124822,1,93,-34,41,74,-128,22,-128,-4
1491088124855,2,90,-21,-55,-50,8,90,127,-14
1491088124855,2,-6,35,54,14,-81,-94,-7,-19
1491088124856,3,-16,-96,3,-61,8,93,45,95
1491088124856,3,-111,29,127,94,-55,-38,-95,-82
1491088124857,0,92,54,-79,-65,115,53,98,20
1491088124857,0,-108,-76,-75,-48,-2,127,76,114
1491088124858,1,-48,-60,0,56,28,-37,-120,-63
1491088124858,1,90,92,44,-87,41,78,35,116
1491088124893,2,-18,-63,-124,-39,-89,30,-23,-49
1491088124893,2,0,48,101,22,61,-49,20,39
1491088124894,3,-88,15,29,46,52,126,-60,-55
1491088124894,3,74,-51,-128,-102,-46,-94,37,63
1491088124894,0,10,68,127,-43,-101,104,-61,-42
1491088124894,0,-88,-40,-128,127,107,-128,89,77
1491088124895,1,-74,-7,95,-128,-114,38,-62,-105
1491088124895,1,22,-12,-62,119,127,55,82,53
1491088124930,2,-57,-72,-113,-48,-123,-75,-89,2
1491088124930,2,-40,-4,59,71,78,-87,-128,-62
1491088124968,3,107,67,84,122,16,43,38,107
1491088124968,3,-93,40,-66,-128,-71,-29,87,-82
1491088124969,0,23,-23,116,65,94,25,-14,-16
1491088124969,0,-87,-60,-128,-73,58,19,-32,-21
1491088124969,1,-88,-10,68,55,-122,-28,-72,62
1491088124969,1,-28,-60,33,-52,-29,-15,-102,-93
1491088124970,2,98,102,-18,59,81,-52,113,33
1491088124970,2,-36,-7,64,-125,-50,86,-126,-6
1491088125005,3,-17,10,8,-110,-69,-69,1,61
1491088125005,3,55,23,-22,96,125,79,110,54
1491088125006,0,-108,-31,7,83,-39,-44,-41,-6
1491088125006,0,127,22,62,-68,87,113,-34,-29
1491088125007,1,-88,-74,-83,43,-113,-69,22,38
1491088125007,1,27,-7,80,41,-128,112,-102,18
1491088125008,2,1,10,-127,-36,30,-128,-63,-19
1491088125008,2,-21,-48,-23,124,-82,95,-19,-15
1491088125043,3,-4,-16,-82,-100,36,127,23,-21
1491088125043,3,-76,22,58,73,67,35,-111,-30
1491088125044,0,56,8,127,-89,56,-15,48,-75
1491088125044,0,-22,30,-119,9,-48,-128,84,81
1491088125044,1,103,43,88,-62,-39,127,26,7
1491088125044,1,97,28,-50,26,51,-37,25,28
1491088125045,2,-95,-58,-11,12,-121,-61,-37,-43
1491088125045,2,14,7,-6,-100,-128,-36,-39,22
1491088125080,3,-28,-20,48,127,-100,40,-47,10
1491088125080,3,2,-27,-4,-55,-128,12,-66,-22
1491088125082,0,47,44,66,-61,-35,117,70,31
1491088125082,0,-25,-47,-128,127,45,-91,-28,-11
1491088125082,1,-52,-5,-31,-11,80,47,90,35
1491088125082,1,50,44,27,19,112,-16,91,-89
1491088125084,2,27,88,78,127,103,127,0,27
1491088125084,2,57,14,-65,53,80,-83,0,-67
1491088125118,3,-69,-76,-73,41,98,-85,-36,39
1491088125118,3,-128,-19,47,7,49,7,-6,-8
1491088125120,0,-85,-105,-7,102,57,25,-28,-5
1491088125120,0,65,127,127,4,112,127,69,8
1491088125121,1,127,39,68,50,107,86,37,-76
1491088125121,1,-117,-102,-128,-3,-44,-118,-121,1
1491088125122,2,-38,62,38,19,-8,-27,-80,-14
1491088125122,2,56,-92,-59,-56,-15,101,74,34
1491088125155,3,-37,-4,-33,-35,0,-61,-88,-29
1491088125155,3,127,107,15,5,21,60,127,75
1491088125156,0,91,-48,-19,-26,-92,16,26,-17
1491088125156,0,111,58,120,-29,41,83,-13,-57
1491088125157,1,-57,-56,-75,88,-106,-101,-65,-30
1491088125157,1,-28,-58,52,-105,-38,92,71,65
1491088125158,2,49,-27,-109,35,91,9,6,0
1491088125158,2,-101,83,127,-13,80,-47,-53,-37
1491088125193,3,127,26,127,-25,83,120,40,17
1491088125193,3,-114,-28,-108,20,0,-46,-57,-58
1491088125194,0,-95,8,-13,32,83,38,-22,-40
1491088125194,0,-128,-128,-61,-9,-101,-33,-21,38
1491088125194,1,88,127,127,103,119,92,67,17
1491088125194,1,-41,-52,-100,-98,-124,-99,-75,-64
1491088125195,2,116,12,-53,-101,-27,-63,-101,-11
1491088125195,2,70,-45,-126,17,-56,18,5,50
1491088125230,3,-25,-80,-109,-111,36,-20,-44,-9
1491088125230,3,-60,-30,58,121,127,127,13,12
1491088125231,0,-37,81,90,30,-58,-116,-41,49
1491088125231,0,-1,67,-39,13,-27,-17,-108,15
1491088125231,1,-13,45,78,38,-8,93,127,31
1491088125231,1,116,122,-50,-31,120,116,10,14
1491088125233,2,-72,-52,67,28,21,76,-31,14
1491088125233,2,67,-35,-24,127,-46,38,66,-50
1491088125305,3,-102,-11,-26,-30,5,16,-115,5
1491088125305,3,-37,-23,69,39,-12,-71,-44,25
1491088125343,0,81,56,10,115,-103,-51,64,-35
1491088125343,0,-55,-73,-67,-3,19,47,40,27
1491088125344,1,-108,52,31,-13,10,-40,-107,-42
1491088125344,1,10,-116,-21,7,49,61,74,24
1491088125344,2,38,75,85,-92,29,25,10,31
1491088125344,2,-87,19,28,-68,18,51,-23,-16
1491088125345,3,127,-4,23,-85,-90,104,-12,-77
1491088125345,3,-70,24,127,-108,82,107,8,91
1491088125380,0,-47,-38,-128,-51,-75,-87,-10,8
1491088125380,0,-38,76,34,-69,21,-78,-88,18
1491088125455,1,-63,-128,8,-81,-40,-128,19,13
1491088125455,1,127,127,103,-47,43,-30,-9,-18
1491088125456,3,85,-3,-58,-44,2,-38,-41,20
1491088125456,3,58,-12,-65,-1,-32,-74,77,-45
1491088125530,3,-128,50,71,-6,-31,108,73,3
1491088125530,3,-128,94,-90,6,-85,-4,-128,-52
1491088125531,0,124,6,-14,-6,29,78,62,-53
1491088125531,0,127,-59,-12,3,30,116,119,47
1491088125532,1,-27,11,-34,-1,-79,60,-47,-24
1491088125532,1,-59,-29,-22,-17,-9,-76,-91,-24
1491088125533,3,22,-4,-11,-128,-52,-100,-69,18
1491088125533,3,-54,-98,99,75,-10,33,-7,17
1491088125568,0,70,14,48,-46,86,4,4,23
1491088125568,0,-18,-70,39,-33,-61,-6,15,60
1491088125568,2,8,-128,127,-20,127,117,78,14
1491088125568,2,79,-24,-16,59,-51,-116,-58,-36
1491088125569,3,50,-31,-128,-8,-45,100,76,-7
1491088125569,3,-109,67,86,-86,55,-5,-62,-103
1491088125570,2,65,-33,-117,-44,-113,-128,-99,47
1491088125570,2,-4,55,119,36,127,-1,104,-28
1491088125605,3,-95,-3,66,127,-20,11,-34,-8
1491088125605,3,-41,-91,-79,75,-21,95,22,-56
1491088125606,0,59,-33,-16,125,-75,-32,-39,68
1491088125606,0,-21,67,84,-37,7,-5,73,-9
1491088125607,1,79,78,7,127,54,13,-17,12
1491088125607,1,50,44,37,71,-29,82,12,26
1491088125608,2,-100,-2,-32,91,-18,42,-41,28
1491088125608,2,-23,-22,-93,-13,8,81,-94,-35
1491088125680,3,23,-10,-22,-115,-22,-94,108,-39
1491088125680,3,77,-38,52,-128,-23,27,-111,-14
1491088125681,0,-95,-106,-100,82,1,-11,127,105
1491088125681,0,9,68,127,-106,-13,-79,-95,-49
1491088125682,1,-46,5,38,-35,74,70,-29,-30
1491088125682,1,97,-65,-128,106,28,-30,14,15
1491088125683,2,14,13,48,41,-117,66,-73,31
1491088125683,2,-36,62,34,60,-39,-32,73,-11
1491088125718,3,-1,-32,-123,-77,-128,27,-128,-5
1491088125718,3,-31,0,71,49,-71,-47,-24,-8
1491088125719,0,-37,117,83,13,127,-3,27,-28
1491088125719,0,-96,-4,112,83,127,127,27,-66
1491088125719,1,-49,8,57,35,2,45,-1,40
1491088125719,1,-68,29,7,-78,-51,-29,60,-10
1491088125720,2,94,24,-2,-84,43,127,-4,-101
1491088125720,2,-99,-30,-26,91,-121,-106,-65,-14
1491088125755,3,46,-31,-98,-65,22,-103,-5,73
1491088125755,3,-32,-11,-13,82,122,-46,-68,-19
1491088125756,0,127,42,88,21,110,5,111,-9
1491088125756,0,-22,27,44,6,11,-49,76,-64
1491088125757,1,-65,22,-61,127,114,86,-117,-22
1491088125757,1,-24,-38,-35,-56,-108,-121,101,111
1491088125758,2,-99,-39,25,-27,-25,90,-128,37
1491088125758,2,83,-43,-55,-20,60,81,17,21
1491088125793,3,-123,29,63,118,-6,-42,-52,-75
1491088125793,3,-83,8,44,-11,3,49,-100,-45
1491088125794,0,-48,20,43,6,-47,95,50,-8
1491088125794,0,17,-28,-81,84,10,-74,-78,-32
1491088125794,1,76,-43,-63,-25,-35,-88,72,53
1491088125794,1,-27,26,56,45,-43,127,-7,5
1491088125795,2,78,85,12,87,38,-98,102,65
1491088125795,2,51,3,75,-128,-23,110,3,-58
1491088125905,3,68,-15,-128,91,13,-48,-108,-126
1491088125905,3,9,-82,30,77,-80,63,116,61
1491088125906,0,75,73,25,-86,-92,-89,-126,30
1491088125906,0,-96,12,61,85,-87,100,87,36
1491088125907,1,-67,15,-65,9,92,64,-30,10
1491088125907,1,-48,14,75,-39,-58,116,6,8
1491088125908,2,-83,-55,-128,83,87,-104,-54,-66
1491088125908,2,37,-46,-107,-24,-34,-26,-55,74
1491088125980,3,-75,-17,123,57,5,70,63,84
1491088125980,3,27,94,52,-93,-42,34,-128,-58
1491088126018,0,40,-38,-124,-24,-82,-6,-2,56
1491088126018,0,80,-7,-20,-84,-74,51,-41,24
1491088126019,1,-13,2,-3,-110,71,94,-8,10
1491088126019,1,114,-23,-30,26,110,-6,64,40
1491088126019,3,32,42,35,76,-79,15,5,39
1491088126019,3,45,24,-29,-23,22,93,-38,-98
1491088126020,0,-110,-14,65,-43,69,-29,13,30
1491088126020,0,-33,9,18,54,97,59,127,69
1491088126055,1,-67,-70,-93,48,-22,-76,-119,22
1491088126055,1,96,90,114,108,80,109,56,14
1491088126056,3,-25,-32,96,-69,-21,37,90,46
1491088126056,3,-12,71,47,-128,-76,47,74,-8
1491088126057,2,5,44,47,-128,-84,124,-30,8
1491088126057,2,-28,-46,-58,119,15,126,-5,-90
1491088126059,2,91,-57,48,-109,115,124,-10,31
1491088126059,2,23,79,-76,82,-26,-128,-78,-49
1491088126093,3,-75,-19,21,23,-87,-3,-111,73
1491088126093,3,-12,21,16,-125,39,74,39,-92
1491088126094,0,-114,-15,32,118,-82,127,70,-30
1491088126094,0,-18,18,63,-22,113,-28,-1,-44
1491088126094,2,59,4,-78,12,69,-3,-128,13
1491088126094,2,4,-46,-60,88,23,71,-22,-14
1491088126095,3,-6,31,119,27,63,19,16,-4
1491088126095,3,-77,-71,-105,80,-45,-75,-96,-41
1491088126130,0,42,38,127,-49,-55,-125,127,42
1491088126130,0,93,57,44,-128,-54,81,-46,-4
1491088126131,1,-40,-45,102,108,-18,91,54,-9
1491088126131,1,-76,-63,-51,-111,-40,60,118,33
1491088126132,2,64,-14,19,-58,-119,-109,-128,-57
1491088126132,2,-89,10,65,43,-29,-41,109,49
1491088126133,3,69,109,127,37,31,-40,9,0
1491088126133,3,-81,44,86,43,23,78,-38,-17
1491088126168,0,-75,-128,-128,73,24,67,32,9
1491088126168,0,-37,-21,-49,-43,-88,-55,-53,16
1491088126169,1,-60,57,52,-128,-117,98,62,0
1491088126169,1,-81,-63,54,127,30,19,-18,-94
1491088126169,2,-43,75,-17,71,74,-4,-106,127
1491088126169,2,33,-27,73,61,-6,87,54,-40
1491088126170,3,-7,-1,-65,-29,-6,29,68,2
1491088126170,3,127,38,20,-128,-107,87,-128,-128
1491088126205,0,37,-82,-23,126,-86,-35,126,2
1491088126205,0,126,-70,50,112,68,83,51,-1
1491088126219,1,84,23,-94,-128,-70,-45,27,4
1491088126219,1,127,64,41,-113,-21,-24,7,-10
1491088126220,2,32,-40,-99,75,39,-38,26,69
1491088126220,2,-120,9,-53,-55,-12,-120,96,19
1491088126220,3,44,20,92,-38,-106,-26,-128,27
1491088126220,3,69,33,-114,-31,50,-38,-61,-39
1491088126243,0,-41,-54,-92,-66,-30,97,38,-128
1491088126243,0,-31,-29,-6,35,-20,59,-42,77
1491088126243,1,-22,9,127,124,127,55,-92,-54
1491088126243,1,-19,-18,-122,-25,-6,55,-71,-3
1491088126244,2,39,50,107,-50,7,-31,-16,71
1491088126244,2,-105,-80,-94,-44,-60,119,47,-62
1491088126245,3,97,93,57,77,60,87,127,-7
1491088126245,3,-127,-25,-88,71,97,31,-89,-11
1491088126280,0,2,-49,-60,-92,-74,13,83,0
1491088126280,0,22,19,86,33,78,99,-67,17
1491088126281,1,-96,-72,-128,-71,-104,-40,5,-66
1491088126281,1,127,-67,-75,119,21,-128,-54,2
1491088126281,2,-115,89,127,-56,-119,-19,-28,75
1491088126281,2,87,13,-128,44,109,-128,102,-87
1491088126283,3,-128,-34,-13,-18,-28,126,-118,9
1491088126283,3,35,16,127,-48,-118,107,111,42
1491088126318,0,72,55,72,115,127,127,45,12
1491088126318,0,14,-9,-63,-17,-82,57,-37,-31
1491088126318,1,-85,-43,-98,-56,-42,-75,-106,-75
1491088126318,1,-62,-70,-68,105,95,-112,127,56
1491088126319,2,91,-26,-21,-41,68,-52,-77,36
1491088126319,2,-65,83,127,-2,-90,-1,-77,-32
1491088126320,3,76,-40,-12,35,124,127,127,72
1491088126320,3,-76,17,-40,72,-15,-116,-74,91
1491088126355,0,-76,4,-48,-128,-117,64,-98,-128
1491088126355,0,-18,3,8,-54,67,-34,-50,9
1491088126393,1,-76,-51,-109,101,-47,2,33,86
1491088126393,1,79,37,70,-108,-115,-7,127,53
1491088126394,2,-58,12,98,-21,31,111,-114,-116
1491088126394,2,41,-32,-111,38,16,-79,-17,70
1491088126394,3,43,35,127,-17,-115,113,-128,-44
1491088126394,3,0,27,-3,-85,96,-14,119,-58
1491088126395,0,-68,-64,-76,127,44,127,-70,-28
1491088126395,0,49,-13,78,-56,-62,97,-53,28
1491088126430,1,36,68,54,-63,16,-121,-36,-46
1491088126430,1,-36,13,2,127,-17,127,49,90
1491088126431,2,-5,7,119,-99,-70,58,42,-118
1491088126431,2,-128,-46,-101,127,15,-112,-68,20
1491088126468,3,36,-49,18,-40,40,-29,17,37
1491088126468,3,-83,-44,-13,35,4,-8,76,28
1491088126469,0,-21,101,72,-37,-63,-28,-59,27
1491088126469,0,-78,-40,-83,68,-44,120,-58,18
1491088126470,1,-43,-10,-20,-26,69,98,-89,-78
1491088126470,1,18,11,-80,-31,-21,-85,-59,55
1491088126471,2,-34,-20,34,14,-27,27,83,56
1491088126471,2,-14,117,127,29,-74,110,-35,-58
1491088126543,3,101,18,-78,-77,62,-75,97,-2
1491088126543,3,-87,-64,-29,112,51,22,-68,-22
1491088126543,0,98,-22,-101,102,7,62,127,127
1491088126543,0,12,67,27,-128,-72,92,56,-25
1491088126544,1,37,-17,86,-32,-7,14,40,-55
1491088126544,1,-61,-1,17,86,83,-16,-55,-62
1491088126545,3,61,17,82,127,-53,127,-8,21
1491088126545,3,-11,-1,2,-110,88,-72,45,17
1491088126580,0,22,36,127,85,13,40,-128,-3
1491088126580,0,29,60,-33,-65,47,114,105,-51
1491088126581,1,-32,-85,-128,127,97,-27,-111,42
1491088126581,1,39,50,127,-7,0,127,28,45
1491088126618,3,-128,25,45,116,-101,-99,-13,-36
1491088126618,3,87,-4,-15,-79,90,127,50,-36
1491088126693,3,-33,26,91,7,-29,39,46,47
1491088126693,3,34,73,-4,-101,79,16,-97,-116
1491088126694,0,-100,-108,-119,127,-20,-53,-3,50
1491088126694,0,-16,10,-48,-55,-88,-44,-13,23
1491088126694,1,8,18,69,0,36,44,12,38
1491088126694,1,-35,49,66,-93,-128,-5,-29,-118
1491088126695,2,102,127,127,63,-64,102,91,-66
1491088126695,2,47,-97,-118,-71,14,32,-42,-11
1491088126730,3,13,-86,-75,-91,-104,-128,-79,87
1491088126730,3,44,-51,-128,-80,-107,50,68,73
1491088126731,0,-5,22,118,-67,-127,126,-2,-4
1491088126731,0,127,16,79,-127,-48,-86,-28,-31
1491088126732,2,113,-43,-96,76,124,-128,5,73
1491088126732,2,-30,26,54,76,54,2,-33,-53
1491088126733,1,21,66,101,0,34,-16,-116,-54
1491088126733,1,-90,6,20,21,14,39,86,21
1491088126805,2,104,-57,71,55,101,117,62,18
1491088126805,2,7,106,-5,-128,-21,127,2,-82
1491088126807,3,-89,-117,-101,111,-77,-23,-53,13
1491088126807,3,-76,-37,-16,1,-61,-76,-128,16
1491088126808,1,61,53,106,12,44,74,127,5
1491088126808,1,62,29,12,-81,109,75,31,18
1491088126809,2,-116,36,17,83,-118,-86,-128,-53
1491088126809,2,63,-77,-46,56,30,70,127,98
1491088126843,3,-91,64,21,-128,-10,43,-117,-35
1491088126843,3,19,-64,98,119,25,33,-21,18
1491088126880,0,93,122,-28,-128,-66,-14,-44,-9
1491088126880,0,-21,-54,47,116,30,-92,-69,33
1491088126881,1,-67,-20,23,-44,-63,-92,76,-36
1491088126881,1,-116,-1,-17,-17,-24,-50,23,18
1491088126882,1,63,-29,-128,-75,-42,42,-103,1
1491088126882,1,18,29,-13,123,-104,31,62,-1
1491088126883,2,-121,-82,-80,111,-47,-83,-91,24
1491088126883,2,37,-75,50,38,40,83,110,45
1491088126918,3,97,-11,-34,10,82,103,72,-21
1491088126918,3,-3,77,52,-97,-24,28,-9,66
1491088126919,0,-51,44,-77,-32,-35,-65,-14,52
1491088126919,0,-116,22,106,-22,-35,14,-112,43
1491088126955,1,-44,11,-71,50,36,-28,-38,-41
1491088126955,1,-33,-122,41,49,-45,43,79,-106
1491088126956,0,-81,-44,15,38,-9,73,80,-31
1491088126956,0,85,27,-56,15,90,82,14,10
1491088126957,1,36,55,127,12,75,64,-31,57
1491088126957,1,103,54,-29,-38,89,70,-64,20
1491088126957,2,127,-51,83,-80,50,79,60,-5
1491088126957,2,-128,-35,-70,-46,-72,-88,-45,-66
1491088126993,0,-49,-4,-98,-23,-106,9,-55,26
1491088126993,0,-65,-36,7,-65,52,33,16,24
1491088126993,1,-36,10,44,-5,39,34,-49,91
1491088126993,1,-128,-9,45,-22,97,-96,-57,56
1491088126994,2,127,34,-57,-46,-36,9,78,-8
1491088126994,2,98,94,67,-10,68,22,71,-56
1491088126995,0,126,68,113,-16,93,-58,79,24
1491088126995,0,-109,-35,-74,-2,-128,-3,-7,-115
1491088127030,1,23,-2,83,21,-19,-101,3,100
1491088127030,1,57,81,82,-17,82,96,127,54
1491088127031,2,-97,4,99,1,27,74,-92,-18
1491088127031,2,-55,-4,-11,5,90,70,10,-60
1491088127032,3,127,9,-70,-4,-66,-33,0,-28
1491088127032,3,-35,-22,42,-1,-33,-12,-62,25
1491088127033,0,-80,-56,-41,-5,57,42,-12,21
1491088127033,0,-31,-36,-96,-99,-36,41,33,43
1491088127068,1,92,18,72,-91,105,98,70,46
1491088127068,1,-20,24,50,90,-128,-76,0,-101
1491088127069,2,24,-19,-54,15,-47,-90,-79,-86
1491088127069,2,37,54,127,-22,126,29,53,70
1491088127069,3,-9,-94,-128,-44,-128,-25,-39,-69
1491088127069,3,59,-14,53,39,80,-109,71,69
1491088127070,0,-40,72,127,-31,25,56,-29,-58
1491088127070,0,-72,-128,-115,66,-110,-128,-128,66
1491088127143,1,62,51,127,-72,22,35,104,-22
1491088127143,1,66,103,98,-62,113,127,89,-79
1491088127143,2,54,-104,-126,63,-128,15,-31,74
1491088127143,2,55,8,127,-71,127,54,9,1
1491088127144,3,8,17,8,127,-98,69,-30,-17
1491088127144,3,-84,-41,-85,-10,38,65,24,-18
1491088127145,0,-55,93,103,-81,79,66,12,61
1491088127145,0,10,4,96,57,-36,-4,-8,-15
1491088127180,1,-128,4,97,60,127,105,-23,3
1491088127180,1,47,38,120,111,90,-59,-75,-54
1491088127181,2,-126,-32,-100,-82,-101,-128,-13,19
1491088127181,2,83,-67,-92,-70,63,-106,-97,34
1491088127182,3,86,66,127,9,101,93,127,74
1491088127182,3,-128,-20,-128,40,-128,-109,-128,65
1491088127183,2,120,-36,-98,86,0,27,-32,63
1491088127183,2,-67,-1,55,-37,-128,108,72,-10
1491088127218,3,37,-30,-42,121,53,-112,-22,76
1491088127218,3,58,-15,-15,-73,-103,81,30,-12
1491088127219,0,-26,-43,101,77,73,-93,30,68
1491088127219,0,23,5,-70,127,-78,61,-99,-27
1491088127219,2,-53,-3,34,-37,108,29,-50,-51
1491088127219,2,-80,-9,27,29,19,26,52,12
1491088127220,3,42,26,1,-12,-45,51,-66,-1
1491088127220,3,127,-11,-56,-90,11,61,-42,-60
1491088127255,0,-71,-50,-71,65,-128,109,-80,-23
1491088127255,0,19,54,41,49,64,16,12,-33
1491088127257,1,-57,-92,-128,-84,-128,78,-128,-49
1491088127257,1,66,18,84,61,127,-55,127,121
1491088127257,2,-97,103,122,-51,67,12,20,-43
1491088127257,2,111,-16,-1,-45,-10,45,-70,-7
1491088127258,3,-128,-81,-56,-78,-104,-112,-38,-76
1491088127258,3,71,-55,-37,8,-44,-52,-46,79
1491088127293,0,-67,21,4,106,-89,27,107,12
1491088127293,0,50,22,41,65,-35,-128,48,-13
1491088127294,1,-104,29,97,-74,-81,111,54,-32
1491088127294,1,34,42,7,106,-14,96,9,-58
1491088127295,2,111,-41,-108,-58,9,-128,-125,17
1491088127295,2,-101,2,22,-121,-47,127,118,-93
1491088127295,3,-19,-3,0,127,20,-72,101,22
1491088127295,3,-74,12,23,-73,127,-58,-74,-12
1491088127330,0,-78,-17,-42,96,40,127,-96,70
1491088127330,0,-29,-15,29,3,119,46,-62,-44
1491088127331,1,80,21,92,45,5,-44,117,93
1491088127331,1,28,11,-97,-116,-65,-43,32,36
1491088127332,2,-16,23,53,42,11,14,-28,-4
1491088127332,2,-31,-70,-9,64,35,81,13,-39
1491088127333,3,51,93,96,6,-17,-18,-4,-56
1491088127333,3,54,15,36,-92,-83,96,53,7
1491088127405,0,22,-50,-128,49,58,-20,89,-26
1491088127405,0,-123,-44,-75,15,-20,-29,-125,41
1491088127406,1,17,16,84,-75,-40,109,71,-60
1491088127406,1,-25,-2,41,-29,84,-38,-60,-8
1491088127407,2,120,-21,-27,18,-72,36,-46,-95
1491088127407,2,105,104,85,88,19,-97,52,0
1491088127407,3,-39,-49,-128,-45,-9,75,-128,51
1491088127407,3,-62,-111,-116,-43,5,-32,122,20
1491088127480,0,103,103,127,-116,-42,64,104,-61
1491088127480,0,-99,-62,-31,127,121,-46,-111,-13
1491088127481,1,-58,-33,-87,21,27,71,91,40
1491088127481,1,42,46,82,-33,-28,-9,-32,-52
1491088127483,2,59,-56,-107,70,-18,-7,5,-67
1491088127483,2,127,-5,25,-1,8,99,108,74
1491088127483,1,-92,-11,-37,84,-50,-74,-47,68
1491088127483,1,39,61,80,-74,-109,78,63,39
1491088127518,2,-14,-44,-32,100,104,-95,-80,-63
1491088127518,2,12,-34,-48,50,12,55,-90,-6
1491088127520,3,39,20,33,-116,-30,-57,-128,53
1491088127520,3,-19,-38,27,16,-12,105,77,11
1491088127521,0,-75,-14,88,-46,-37,-51,-118,73
1491088127521,0,-52,-11,-22,53,-95,14,11,1
1491088127522,1,24,-49,-112,-74,-57,-30,-6,33
1491088127522,1,89,-26,-128,60,20,-19,4,21
1491088127556,2,22,10,17,-45,-25,69,68,23
1491088127556,2,9,99,127,42,22,-124,-128,64
1491088127558,3,127,35,86,111,58,69,127,9
1491088127558,3,-128,-33,13,-90,-30,-50,-128,-104
1491088127559,0,19,-115,-96,107,38,-74,-14,77
1491088127559,0,-96,84,110,-127,-108,-128,127,-1
1491088127560,1,59,28,-128,127,79,98,41,20
1491088127560,1,-18,-14,-3,126,-13,0,-128,34
1491088127593,2,-33,-30,32,-86,58,127,61,-78
1491088127593,2,48,-76,-56,31,40,41,45,109
1491088127595,3,-33,20,15,68,65,-23,-87,-41
1491088127595,3,18,84,98,16,-113,127,13,-123
1491088127596,0,-34,20,-84,75,59,-128,-1,-36
1491088127596,0,-122,-118,-128,87,40,10,-112,69
1491088127597,1,88,5,127,34,-48,127,127,-23
1491088127597,1,77,33,-27,1,-23,63,68,-4
1491088127630,2,27,57,15,-98,2,-10,79,-59
1491088127630,2,-40,76,127,-115,-89,-103,-101,-128
1491088127631,3,91,-128,-128,110,127,-128,85,39
1491088127631,3,-128,-68,-87,-128,-83,-71,-96,53
1491088127632,0,127,113,100,47,-107,-31,127,58
1491088127632,0,-61,-17,-76,-2,-7,116,-31,-20
1491088127668,1,-2,-9,91,11,16,103,-25,17
1491088127668,1,-86,82,60,0,-17,-116,127,31
1491088127669,2,-104,-78,-101,59,-41,5,-92,17
1491088127669,2,8,47,58,3,-7,87,74,-77
1491088127669,3,-128,-3,109,-74,-114,-65,103,-62
1491088127669,3,0,-79,-82,127,122,-70,-109,12
1491088127670,0,9,93,80,-102,-92,127,88,-22
1491088127670,0,-61,-116,-111,82,125,-128,62,-49
1491088127705,1,57,30,-128,-128,-96,-74,1,69
1491088127705,1,88,6,118,-10,-60,84,78,10
1491088127707,2,33,16,-50,-73,88,52,-36,-56
1491088127707,2,28,40,-63,34,-82,40,65,-8
1491088127708,3,-122,-40,-97,-29,-26,-72,-42,84
1491088127708,3,-82,-56,59,48,-79,47,-64,28
1491088127709,0,42,37,-38,5,102,72,4,-2
1491088127709,0,78,35,50,-31,-60,26,-127,-37
1491088127743,1,-98,-59,-128,99,127,-82,-128,-90
1491088127743,1,-47,66,111,-128,-110,72,100,67
1491088127744,2,-45,-66,91,127,94,120,-128,38
1491088127744,2,75,35,80,-16,42,-104,91,-60
1491088127744,3,68,-13,-50,-1,24,-53,47,86
1491088127744,3,-51,8,75,127,109,112,-25,41
1491088127745,0,-54,-28,-40,-63,-128,50,66,60
1491088127745,0,104,31,21,59,62,51,-20,-12
1491088127780,1,17,61,34,34,90,127,88,-24
1491088127780,1,-71,-70,-46,112,47,-11,-128,-57
1491088127818,2,-15,65,-14,-65,-50,-58,79,52
1491088127818,2,-119,-55,-113,-128,-24,93,-30,-22
1491088127819,3,97,-1,113,-53,-128,100,66,22
1491088127819,3,106,-27,-128,82,127,-111,-63,0
1491088127819,0,-43,17,84,96,7,28,-128,67
1491088127819,0,7,-37,-96,-128,-123,54,77,-70
1491088127820,1,-126,-3,48,-88,55,21,-128,-14
1491088127820,1,81,104,84,-33,7,67,127,56
1491088127855,2,-93,-54,12,127,-15,-128,-128,-67
1491088127855,2,100,-40,-16,-79,21,127,9,116
1491088127856,3,-35,25,-70,36,27,-35,49,-38
1491088127856,3,4,-44,-6,7,-22,-112,-103,17
1491088127856,2,60,-76,-123,12,-80,-30,-40,0
1491088127856,2,-74,2,22,-126,-96,104,1,127
1491088127858,3,-54,-34,70,-43,-128,86,-111,-70
1491088127858,3,109,123,127,60,119,-103,93,-17
1491088127893,0,-92,-87,-99,-50,26,-43,-85,-56
1491088127893,0,-84,-64,-96,68,-45,-75,124,89
1491088127894,1,-39,17,-6,10,-72,40,7,1
1491088127894,1,34,8,104,47,-87,117,-31,-102
1491088127896,2,-9,71,39,-85,45,46,-62,-128
1491088127896,2,83,44,121,49,9,-1,-101,-20
1491088127897,3,-85,-93,-105,127,127,-80,-9,80
1491088127897,3,113,-63,-52,-47,-32,127,60,89
1491088127968,0,68,48,116,127,17,85,116,45
1491088127968,0,79,55,46,-83,-29,18,27,-55
1491088127970,1,-46,-3,-45,94,21,-85,-48,20
1491088127970,1,68,-82,16,15,-20,29,-97,-48
1491088127971,2,-11,-43,-64,-46,-4,-106,59,59
1491088127971,2,-14,78,122,83,113,21,-25,4
1491088127972,3,127,50,46,-128,-113,56,80,-85
1491088127972,3,-128,-99,-122,-91,-8,-72,-25,69
1491088128005,0,-44,-12,10,127,38,38,-56,-24
1491088128005,0,86,-3,-112,-110,-69,13,25,-26
1491088128007,1,58,-12,-9,108,89,-35,-96,-80
1491088128007,1,-59,53,112,-94,-45,115,-77,21
1491088128008,1,-83,28,99,90,39,127,127,97
1491088128008,1,-2,6,-78,-86,-81,-27,-46,-95
1491088128009,2,127,-21,-33,-96,-128,-76,-95,103
1491088128009,2,99,61,85,89,123,127,-25,32
1491088128043,3,61,-10,-19,33,67,41,57,65
1491088128043,3,0,-45,-91,-58,73,-120,-67,-70
1491088128044,0,6,11,5,120,-7,-79,-34,68
1491088128044,0,-128,-116,-128,-122,-113,38,-5,4
1491088128044,1,85,100,127,-68,-72,90,35,-31
1491088128044,1,-49,25,8,-98,23,-93,-35,-53
1491088128045,2,124,3,-43,58,82,33,97,27
1491088128045,2,-67,6,48,-14,2,-111,29,53
1491088128080,3,-102,20,63,79,52,19,26,-27
1491088128080,3,66,74,116,-2,-77,127,-73,24
1491088128081,0,-56,48,-50,-106,-71,-112,44,-105
1491088128081,0,-59,-106,-89,7,110,-69,-50,34
1491088128082,1,-3,31,34,-128,-122,82,64,16
1491088128082,1,-63,16,-7,80,68,-13,-108,-13
1491088128083,2,33,-13,51,66,-33,92,-20,-12
1491088128083,2,-34,-19,-5,106,53,-38,-23,-127
1491088128118,3,-92,-45,-125,45,-8,-128,-17,62
1491088128118,3,-37,97,100,55,-30,15,31,15
1491088128119,0,-74,7,-121,-38,78,-23,-32,-36
1491088128119,0,37,-40,-38,-75,-112,39,67,52
1491088128120,1,-128,-27,56,-30,-66,31,-87,-23
1491088128120,1,-77,53,-6,50,-44,-23,127,-8
1491088128121,2,-128,-80,-41,83,63,104,-115,36
1491088128121,2,38,10,99,31,-93,127,79,69
1491088128156,3,111,-29,48,-50,-7,2,-88,-40
1491088128156,3,127,23,3,-34,0,-10,2,12
1491088128157,0,112,31,36,-69,-50,92,62,-3
1491088128157,0,72,47,0,-47,41,58,-55,-95
1491088128158,1,-66,-18,-96,39,-57,-34,-85,103
1491088128158,1,70,-97,-49,-34,-9,-8,57,30
1491088128160,2,-94,28,27,31,-59,37,-24,35
1491088128160,2,-91,0,-3,-12,49,-45,-54,-33
1491088128193,3,-64,-51,-32,-66,-40,-49,109,-2
1491088128193,3,-110,-2,-31,-76,87,-96,-43,-37
1491088128195,0,-48,-20,47,-8,40,-25,74,14
1491088128195,0,67,113,127,16,-101,127,-72,-24
1491088128197,1,-106,-13,-31,-128,1,-104,-71,-79
1491088128197,1,74,-17,-77,-128,-89,71,17,127
1491088128197,2,-59,-91,-65,73,-92,100,-60,-43
1491088128197,2,91,67,-65,41,-65,-108,96,77
1491088128230,3,80,-23,-75,104,-90,86,-21,-53
1491088128230,3,71,32,108,-6,-107,127,83,51
1491088128231,0,2,-2,-18,-119,30,-102,-80,-79
1491088128231,0,-74,-90,-128,103,77,-108,-16,78
1491088128232,1,86,1,74,104,123,95,-4,85
1491088128232,1,-86,10,46,97,77,1,13,-62
1491088128233,2,59,5,52,32,64,53,-62,-56
1491088128233,2,103,19,103,3,76,-18,19,-112
1491088128268,3,41,-11,-93,1,52,-108,97,-44
1491088128268,3,26,0,-69,32,72,-69,-74,-59
1491088128269,0,41,-23,40,38,22,7,-45,-19
1491088128269,0,-45,33,48,26,3,6,10,-3
1491088128269,1,117,124,127,64,66,10,41,-6
1491088128269,1,-12,70,92,-63,108,91,51,-93
1491088128270,2,-43,-75,-120,73,100,-128,-67,93
1491088128270,2,-109,-98,-72,84,73,2,107,79
1491088128305,3,-64,11,65,4,92,122,-111,-22
1491088128305,3,-15,-41,46,82,86,29,15,66
1491088128306,0,99,107,127,-48,41,98,-48,-17
1491088128306,0,-20,-38,8,48,44,43,-116,-65
1491088128307,1,-71,5,18,4,36,39,97,-5
1491088128307,1,77,27,-45,38,-20,-36,-19,0
1491088128343,2,-76,47,4,3,-27,59,-29,-17
1491088128343,2,99,-35,-97,21,27,113,12,93
1491088128344,3,-76,-42,-22,-102,8,-86,-24,-39
1491088128344,3,-25,-110,-92,-12,-73,-96,-54,-1
1491088128345,0,101,82,49,7,-31,-4,62,28
1491088128345,0,-92,12,5,-55,-30,3,31,15
1491088128346,1,2,87,-35,-67,6,89,-44,-17
1491088128346,1,-104,-29,4,127,94,25,-108,-45
1491088128380,2,-32,-108,-128,-128,-121,-43,126,72
1491088128380,2,-43,-30,-45,-46,-5,-73,-80,-8
1491088128381,3,97,27,34,-57,-13,20,33,-10
1491088128381,3,-27,48,-4,-73,19,47,-21,21
1491088128382,0,27,45,51,25,47,127,94,-31
1491088128382,0,-58,44,41,19,-58,-23,-17,38
1491088128383,1,-9,-92,-46,13,-68,-33,-2,13
1491088128383,1,-128,-87,-112,-39,-56,-102,-78,-31
1491088128418,2,104,4,94,82,11,41,41,2
1491088128418,2,45,-18,106,-103,34,96,55,-50
1491088128419,3,-108,20,-110,-45,-23,-102,-88,30
1491088128419,3,93,28,10,9,-36,3,5,-31
1491088128419,0,-121,51,70,2,35,26,32,47
1491088128419,0,8,2,51,27,19,-39,-37,-12
1491088128420,1,86,101,96,69,89,127,-86,-21
1491088128420,1,-48,-60,-2,-19,-42,-9,59,55
1491088128455,2,-30,-101,-70,-69,-69,-92,75,49
1491088128455,2,22,90,-69,-17,-40,74,31,-20
1491088128456,3,74,-36,89,101,-34,-19,-23,20
1491088128456,3,-102,-8,-29,109,-11,117,-19,-6
1491088128457,0,7,-44,-83,-40,-11,-31,-128,-7
1491088128457,0,76,31,64,19,-113,116,79,98
1491088128493,1,-41,-34,-78,-7,-118,-1,23,62
1491088128493,1,61,35,110,13,-22,114,69,2
1491088128494,2,18,14,-74,34,-2,82,-15,-20
1491088128494,2,-89,-14,-17,75,-61,-101,-89,-97
1491088128494,3,83,17,-20,-47,45,39,35,-40
1491088128494,3,2,-49,-20,47,42,-117,-31,13
1491088128495,0,12,98,45,-9,127,96,55,-66
1491088128495,0,-25,-13,59,8,25,36,-72,-67
1491088128530,1,-34,-1,19,34,-114,-88,51,-4
1491088128530,1,11,-35,-44,-32,-21,-115,14,-5
1491088128531,2,80,-1,26,-27,59,37,-50,15
1491088128531,2,-78,-14,-68,116,18,19,-27,45
1491088128532,3,56,-43,-67,75,8,37,-28,-13
1491088128532,3,-26,127,-4,-35,-8,99,38,-31
1491088128533,0,42,56,81,-8,-27,45,-11,-34
1491088128533,0,-9,7,37,-83,37,-51,34,-23
1491088128605,1,17,-6,-29,15,25,56,-96,-14
1491088128605,1,58,-2,-18,-36,18,34,67,122
1491088128606,2,-128,-25,28,-16,-15,49,-80,17
1491088128606,2,127,8,38,6,-33,-58,90,35
1491088128607,3,-54,-25,111,-5,127,12,68,79
1491088128607,3,1,-42,-99,-40,-106,76,-27,-29
1491088128608,0,-23,-56,35,3,53,39,27,1
1491088128608,0,14,-20,27,-21,17,-15,-85,-19
1491088128643,1,-128,-8,107,-108,-15,37,1,-36
1491088128643,1,90,-28,-59,76,-100,-118,-26,-52
1491088128643,2,-64,-49,44,-33,45,33,50,-19
1491088128643,2,-27,-21,57,0,33,-50,-9,-12
1491088128644,3,9,-47,-45,27,-46,29,-39,22
1491088128644,3,61,102,127,-71,127,-46,95,20
1491088128645,0,78,-104,-128,125,-128,-96,-94,-5
1491088128645,0,-46,-60,-128,-71,-48,-100,25,14
1491088128681,1,-43,-2,0,-119,9,-76,26,-11
1491088128681,1,-52,-19,65,-48,100,71,-19,-26
1491088128682,2,8,45,46,-46,-16,-55,-13,-82
1491088128682,2,73,92,4,-101,126,116,17,-2
1491088128683,0,75,-24,-119,-86,-128,-126,42,44
1491088128683,0,-30,-128,84,-71,108,127,24,-66
1491088128684,1,-28,-105,17,22,-39,-56,-74,54
1491088128684,1,4,-105,68,55,-16,-11,-2,27
1491088128718,2,-34,-92,-46,-62,-63,99,-3,-32
1491088128718,2,-32,80,-44,28,-82,-61,-41,42
1491088128719,3,-28,97,65,51,122,83,70,16
1491088128719,3,69,103,43,-90,8,80,-76,-84
1491088128721,0,-64,127,70,50,127,50,79,87
1491088128721,0,110,54,-115,97,-128,14,46,-69
1491088128722,1,-78,-30,24,30,127,-53,-72,12
1491088128722,1,47,1,-26,-85,-11,84,27,-42
1491088128755,2,-62,59,114,73,100,-7,27,36
1491088128755,2,-128,8,-32,-31,-69,-67,-52,4
1491088128756,3,-8,61,41,-65,25,-58,-12,-77
1491088128756,3,21,37,-32,-10,37,7,-2,53
1491088128757,0,-81,-22,-99,-41,-22,-75,-41,-16
1491088128757,0,26,6,-41,104,-36,-48,16,12
1491088128758,1,127,6,-58,71,-83,127,127,86
1491088128758,1,-128,-67,-60,-4,-128,-14,-63,-81
1491088128793,2,127,52,-39,45,83,127,-41,42
1491088128793,2,-116,43,127,-18,127,127,26,-23
1491088128793,3,120,-36,-128,79,8,24,-38,-82
1491088128793,3,-88,-36,-119,77,-47,-118,-2,24
1491088128794,0,19,38,125,65,19,66,79,-17
1491088128794,0,-20,6,26,-15,-66,-107,-3,28
1491088128795,1,83,60,127,-128,127,118,2,-19
1491088128795,1,-13,-39,-122,72,-107,99,-37,-35
1491088128868,2,-65,-90,-14,89,26,-128,-95,42
1491088128868,2,-18,29,98,63,127,106,94,77
1491088128869,3,81,-42,-98,87,-104,87,-108,-62
1491088128869,3,-45,-59,-12,74,106,-36,26,97
1491088128870,0,10,18,-47,-98,-65,-67,1,4
1491088128870,0,-44,19,44,93,92,81,-14,1
1491088128871,1,-123,41,127,-49,114,21,6,-32
1491088128871,1,-46,1,-58,-80,-62,19,-39,-27
1491088128905,2,-4,-78,-74,114,-111,-98,-15,-3
1491088128905,2,114,47,68,-128,-74,77,5,-89
1491088128906,3,-51,-86,-128,115,60,10,26,32
1491088128906,3,-85,40,127,96,127,75,78,101
1491088128907,0,-26,-1,-49,-88,-85,80,-25,1
1491088128907,0,-104,-29,-64,-41,37,25,-75,-11
1491088128907,2,78,94,104,51,108,127,125,-11
1491088128907,2,106,-71,-38,94,13,127,10,-24
1491088128943,3,30,-66,-71,33,-115,-65,-7,43
1491088128943,3,28,18,36,-108,-31,-48,-112,-90
1491088128944,0,-85,30,52,71,-114,-61,-123,-31
1491088128944,0,-113,49,40,-75,22,12,90,30
1491088128944,2,94,-46,-18,70,66,-34,-38,-36
1491088128944,2,-31,-56,-106,-69,-87,-102,-60,35
1491088128945,3,93,4,29,30,80,60,-15,-21
1491088128945,3,-46,38,40,127,70,54,56,42
1491088128980,0,101,106,127,-128,-26,120,113,-31
1491088128980,0,49,-83,-124,44,-33,-116,-70,76
1491088128981,1,124,65,57,19,-3,87,58,-30
1491088128981,1,-70,-36,-21,0,50,-89,-118,-78
1491088128981,2,-22,-11,51,-85,-68,-33,0,19
1491088128981,2,-7,-69,-95,-81,-49,30,-39,-24
1491088128982,3,-4,19,47,-30,70,-9,-51,34
1491088128982,3,-29,1,7,71,16,-6,-43,-19
1491088129018,0,-109,-64,-112,34,94,50,88,6
1491088129018,0,-29,39,92,-20,82,127,-44,-46
1491088129018,1,-34,4,19,-25,-69,65,-7,-8
1491088129018,1,-25,-15,-35,43,5,54,23,-48
1491088129020,2,-13,-34,-81,-80,48,-71,-22,-28
1491088129020,2,-56,37,57,71,-66,-127,89,21
1491088129020,3,-1,53,127,81,88,107,7,-57
1491088129020,3,75,108,-37,-63,-53,9,52,109
1491088129055,0,-101,-97,-128,-94,32,-108,-128,5
1491088129055,0,-89,-65,19,103,32,-42,51,4
1491088129056,1,1,13,82,-6,-73,48,-1,10
1491088129056,1,57,-21,59,23,74,-125,2,-59
1491088129057,2,53,104,127,25,62,127,94,21
1491088129057,2,105,20,27,58,-5,66,-128,-36
1491088129057,3,-13,-12,-128,-67,-23,-117,91,-14
1491088129057,3,-75,-24,-107,23,-49,-121,58,13
1491088129093,0,-68,-62,75,-39,-108,41,-53,-41
1491088129093,0,127,24,16,34,56,-92,87,-4
1491088129093,1,-110,41,-35,92,84,-26,59,65
1491088129093,1,8,-3,41,-71,-57,127,-39,-83
1491088129094,2,28,1,-59,6,-14,-22,127,41
1491088129094,2,16,48,81,-118,-66,127,-110,-45
1491088129130,3,90,-19,-80,25,-93,-101,-105,-8
1491088129130,3,60,-50,-80,-97,-32,75,93,18
1491088129131,0,-54,-17,-63,108,38,-62,46,81
1491088129131,0,54,12,-33,-12,1,127,23,47
1491088129131,1,-128,13,53,26,-14,-25,34,-19
1491088129131,1,52,53,127,-2,116,127,-11,-10
1491088129132,2,-9,11,126,17,-80,79,-58,-17
1491088129132,2,89,-46,-128,80,-12,-128,89,26
1491088129167,3,94,0,67,87,84,117,-41,22
1491088129167,3,60,-14,-68,-91,-91,-58,40,42
1491088129168,0,-78,-36,-58,-86,42,-43,-89,1
1491088129168,0,-16,42,82,70,73,-79,97,61
1491088129169,1,-19,-9,-3,-89,51,112,-39,12
1491088129169,1,50,64,127,127,-74,74,-16,-13
1491088129170,2,-13,31,14,-44,48,61,0,-94
1491088129170,2,-128,-94,-122,-70,-38,-32,-128,1
1491088129243,3,-95,-25,-30,-81,-53,-67,116,7
1491088129243,3,-128,-31,-1,58,-11,-37,-128,30
1491088129244,0,-29,49,90,-66,-101,-8,112,-4
1491088129244,0,127,-3,-50,127,-41,119,-108,-128
1491088129244,1,-123,-57,-94,-6,-32,-119,60,53
1491088129244,1,49,32,80,-57,-94,-128,53,127
1491088129245,2,111,-13,-15,63,62,117,-52,-80
1491088129245,2,-128,-30,-59,28,98,-84,-85,55
1491088129280,3,27,34,-4,17,-41,-22,31,34
1491088129280,3,13,-32,17,-50,-16,93,59,-46
1491088129281,0,53,27,10,127,39,-69,-74,2
1491088129281,0,-71,25,19,-128,-9,25,17,-16
1491088129282,0,59,-30,-31,80,-12,25,72,32
1491088129282,0,-59,41,5,24,16,-19,78,-1
1491088129283,1,99,87,122,16,-14,127,-75,34
1491088129283,1,-128,-70,-97,102,40,35,66,52
1491088129317,2,102,35,9,-66,12,-98,24,6
1491088129317,2,-124,-48,-40,-128,-119,-2,-37,-15
1491088129319,3,4,35,38,-115,-54,-128,-82,88
1491088129319,3,66,4,-48,-64,-6,119,55,-61
1491088129319,0,-30,-2,9,120,57,-21,-128,95
1491088129319,0,-28,17,122,-78,-4,44,84,-66
1491088129320,1,29,18,-100,-128,-71,29,-26,-26
1491088129320,1,-77,-33,58,127,65,-79,-128,-33
1491088129355,2,9,-2,-125,35,14,-44,-18,-81
1491088129355,2,52,-32,12,106,104,-58,96,-15
1491088129356,3,-26,17,61,127,15,-32,62,38
1491088129356,3,122,-20,-36,-128,-72,109,97,10
1491088129357,0,-61,28,96,84,-51,127,-96,-88
1491088129357,0,127,67,-106,70,127,-115,-128,111
1491088129358,1,-70,-82,-67,-3,64,0,127,60
1491088129358,1,-4,-12,8,69,50,46,-96,13
1491088129393,2,-128,-18,80,-8,-50,0,56,28
1491088129393,2,49,-16,18,16,-55,127,-35,-49
1491088129394,3,36,70,-16,-80,-71,-50,-55,46
1491088129394,3,-128,-48,-64,-4,17,-121,-7,-128
1491088129394,0,123,-4,3,-92,-28,-18,-94,23
1491088129394,0,-108,15,2,-8,-61,-69,119,-16
1491088129395,1,50,86,127,122,127,120,28,31
1491088129395,1,76,-10,-119,-49,72,-56,-34,34
1491088129430,2,-115,-78,-128,-22,-31,-71,25,-53
1491088129430,2,-66,-69,-10,-2,-3,110,91,71
1491088129431,3,72,-47,87,-91,-28,90,-58,18
1491088129431,3,77,113,105,66,15,-55,106,55
1491088129432,0,-102,-27,-56,-32,26,-58,-80,2
1491088129432,0,11,38,13,13,-18,-50,-31,-6
1491088129433,1,14,-12,9,-88,-40,-4,-6,48
1491088129433,1,-104,-12,127,77,-12,20,-69,-79
1491088129468,2,126,26,-69,-89,7,-31,75,4
1491088129468,2,-128,-105,-83,28,-6,-81,-26,9
1491088129470,3,34,8,-34,-31,-127,11,-33,-85
1491088129470,3,-58,-2,46,49,95,-37,29,-5
1491088129471,0,94,76,76,106,-15,125,-39,12
1491088129471,0,-43,27,-17,-36,82,-29,46,49
1491088129472,1,-32,-64,-52,59,-56,-66,85,4
1491088129472,1,-40,-26,-74,52,-12,29,-49,127
1491088129506,2,25,-18,-13,-74,-11,86,-90,-34
1491088129506,2,-22,59,9,-39,-85,110,18,-15
1491088129507,3,30,-6,6,-97,-24,-99,-23,-51
1491088129507,3,42,25,21,2,-48,103,-20,-15
1491088129508,0,61,103,98,-70,-73,6,-19,-19
1491088129508,0,23,-99,-1,116,58,127,-97,-36
1491088129543,1,-57,38,-96,19,49,-128,91,-59
1491088129543,1,-34,-99,-128,-111,-128,13,-127,8
1491088129544,2,-63,14,68,-55,-109,94,116,37
1491088129544,2,-61,13,112,50,27,-31,-97,-124
1491088129544,3,13,57,82,127,127,-36,62,53
1491088129544,3,127,9,-43,-95,88,78,77,-6
1491088129545,0,-128,-48,-105,-55,-52,93,37,71
1491088129545,0,60,33,-40,-28,-15,52,-26,-17
1491088129618,1,46,-55,41,-120,-103,-38,-120,59
1491088129618,1,-69,70,26,88,34,-6,50,-75
1491088129619,2,-17,-8,57,127,11,-7,-91,-100
1491088129619,2,44,27,-20,-128,-88,23,65,-56
1491088129620,3,49,-43,-114,84,120,127,-56,-6
1491088129620,3,-25,-31,67,25,-102,-128,115,41
1491088129621,0,39,-36,57,26,100,83,-96,-10
1491088129621,0,38,61,77,127,-66,-44,123,115
1491088129655,1,-7,-2,-71,-113,-76,119,-73,-93
1491088129655,1,-121,-50,-14,127,121,-59,-128,64
1491088129657,2,-37,-43,-42,-52,-30,-46,127,33
1491088129657,2,46,7,71,-96,40,-128,-128,71
1491088129658,3,-48,7,7,-103,37,74,127,-54
