1491086960382,0,-20,13,-16,-5,-46,-27,-42,-3
1491086960382,0,-8,32,13,-1,-6,-6,3,0
1491086960384,1,1,14,5,0,-1,1,7,-7
1491086960384,1,11,4,5,1,9,6,-5,5
1491086960385,2,-8,-24,-3,-1,12,4,-10,-22
1491086960385,2,8,-15,-11,-4,1,-2,-16,13
1491086960419,3,6,-22,-5,-6,-6,-6,22,-2
1491086960419,3,0,-4,0,2,-2,4,4,-22
1491086960420,0,-13,-12,-1,-3,6,0,-3,-21
1491086960420,0,2,-11,-6,-5,-2,-1,13,-3
1491086960420,1,-5,-1,0,-1,5,0,-30,-9
1491086960420,1,-3,-9,-9,-3,-4,-5,2,4
1491086960421,2,9,5,4,3,8,4,3,9
1491086960421,2,0,-2,3,0,4,-2,-6,-2
1491086960456,3,-11,-10,-10,-2,-3,-4,-3,3
1491086960456,3,1,-2,-8,-5,-5,-7,-41,-10
1491086960457,0,-10,-1,0,5,3,8,65,12
1491086960457,0,-8,-7,-8,-4,-6,-3,-1,5
1491086960458,1,17,8,1,-3,-5,3,12,13
1491086960458,1,8,9,-1,-3,-4,-9,-8,8
1491086960495,2,8,7,5,-1,6,2,-4,1
1491086960495,2,-4,-7,-1,12,2,-2,0,-10
1491086960497,3,-15,0,-1,-17,-11,-5,-11,-9
1491086960497,3,0,3,4,2,3,0,5,0
1491086960498,0,5,-5,-1,4,5,0,-8,-6
1491086960498,0,0,1,-5,-4,-9,-3,7,-1
1491086960499,1,-4,0,-4,5,0,-1,-10,-2
1491086960499,1,-11,-10,1,-12,-3,3,4,0
1491086960532,2,4,-2,-2,-7,5,-2,-6,1
1491086960532,2,0,0,-1,-4,-15,-3,-10,-4
1491086960533,3,-5,0,-5,-5,-3,-12,-8,-11
1491086960533,3,7,-4,-3,-3,8,16,-2,2
1491086960534,0,-2,-3,0,1,5,1,54,10
1491086960534,0,-13,0,9,14,17,5,-45,3
1491086960534,1,-10,-6,3,12,-5,24,18,-2
1491086960534,1,-9,-2,-12,-2,-13,-9,0,-5
1491086960569,2,36,9,1,-19,15,-4,-82,-22
1491086960569,2,27,7,10,19,15,-13,69,19
1491086960570,3,-13,0,1,-3,-10,8,50,28
1491086960570,3,-44,0,1,14,-27,-9,42,-7
1491086960570,0,22,0,-4,-11,-4,52,-7,-17
1491086960570,0,-30,-6,-4,-63,-33,-68,-63,-24
1491086960572,1,103,6,4,35,78,15,85,49
1491086960572,1,2,-12,1,-20,-12,72,-79,-2
1491086960606,2,-48,-11,0,43,36,-42,41,-8
1491086960606,2,55,-4,2,-11,-78,9,-105,-16
1491086960607,3,-49,-4,-19,-83,-35,-29,57,-40
1491086960607,3,34,12,-10,71,15,-25,-18,22
1491086960608,0,11,5,-9,-28,43,7,77,34
1491086960608,0,-31,-16,-24,-24,0,-36,-60,-30
1491086960645,1,-14,1,-11,21,-43,-12,-81,-16
1491086960645,1,-2,-19,-12,-6,21,-69,60,29
1491086960646,2,-26,10,8,-6,-63,83,-56,-11
1491086960646,2,17,-10,1,58,75,58,127,-2
1491086960647,3,-20,3,19,-25,2,-23,-128,-21
1491086960647,3,6,10,1,-67,-14,-30,13,-6
1491086960649,0,18,15,9,35,7,-50,-90,-11
1491086960649,0,-23,1,-1,23,15,60,53,0
1491086960682,1,22,-11,-3,-27,26,-17,30,20
1491086960682,1,-11,-1,0,-3,-87,4,-24,-26
1491086960683,2,-17,-7,-6,-59,18,-55,28,23
1491086960683,2,-13,6,8,37,2,-3,4,5
1491086960684,3,7,-7,4,63,46,109,62,2
1491086960684,3,12,15,18,-2,-4,-81,25,16
1491086960685,0,14,-5,-7,-39,-25,45,-101,-31
1491086960685,0,-46,-4,-16,22,-13,8,68,21
1491086960719,1,-46,-15,14,83,66,-6,-6,-26
1491086960719,1,-58,1,19,-67,-33,67,-13,-42
1491086960720,2,65,-9,-33,7,-2,51,8,42
1491086960720,2,13,-2,-15,-60,-65,-90,-41,1
1491086960721,3,-9,-3,-12,15,-44,8,8,-3
1491086960721,3,-30,-15,-5,25,108,-58,-43,-16
1491086960721,0,8,5,18,-7,-37,7,-25,-16
1491086960721,0,27,18,35,41,13,79,33,26
1491086960757,1,18,10,11,35,58,12,-85,-4
1491086960757,1,-14,1,-15,42,11,-74,0,-23
1491086960758,2,-11,-7,-10,-58,-92,46,127,25
1491086960758,2,-19,-14,-30,-89,-70,-42,-78,-25
1491086960759,3,-5,4,-1,0,-26,-24,-42,4
1491086960759,3,12,9,16,-69,85,84,-20,-11
1491086960794,0,-27,-6,-5,-16,-59,-74,-37,-21
1491086960794,0,-37,-14,-24,-11,74,-41,79,-21
1491086960795,1,-20,1,-12,-62,-100,-77,-80,3
1491086960795,1,59,1,-4,51,-15,5,-41,28
1491086960795,2,12,7,32,0,99,79,53,-7
1491086960795,2,17,13,29,78,-68,55,-45,-9
1491086960796,3,17,-6,-12,-85,-15,-86,45,20
1491086960796,3,-31,-19,-31,-45,-20,-13,87,-17
1491086960831,0,-21,2,29,83,-6,-45,-78,16
1491086960831,0,21,15,-2,-80,127,53,31,6
1491086960833,1,-18,-17,-29,127,-53,110,-6,-38
1491086960833,1,4,-13,-7,-15,-42,-57,-86,5
1491086960834,2,-43,-6,-17,44,49,38,35,-21
1491086960834,2,59,19,50,21,57,95,12,-1
1491086960835,3,0,18,16,-61,-109,109,-11,1
1491086960835,3,5,-7,-42,-31,-22,-55,-20,-35
1491086960869,0,-25,-14,-33,-105,-77,0,73,48
1491086960869,0,1,-13,-14,14,-14,13,-65,-6
1491086960870,1,4,14,44,25,66,84,60,14
1491086960870,1,25,30,69,43,31,75,-32,19
1491086960871,2,2,-21,-47,-38,-69,-79,-45,-30
1491086960871,2,-20,-16,-21,-124,-27,-111,13,13
1491086960872,3,-5,-17,87,40,53,8,-25,-9
1491086960872,3,4,12,122,23,53,-25,82,34
1491086960906,0,11,0,127,92,13,-23,-56,-16
1491086960906,0,-30,-21,122,12,-15,78,23,-13
1491086960907,1,42,7,76,28,6,-20,-16,18
1491086960907,1,0,4,-30,21,40,42,89,29
1491086960908,2,-20,4,-100,107,20,90,-28,-29
1491086960908,2,13,-9,-128,-86,-31,30,-105,-1
1491086960945,3,-14,-10,-128,-108,-97,-123,62,9
1491086960945,3,-14,-10,-117,60,-15,23,18,-17
1491086960947,0,-11,5,-128,-64,49,-102,-26,14
1491086960947,0,19,4,-123,83,54,-5,57,38
1491086960948,1,-4,-3,-128,-74,-67,22,10,-38
1491086960948,1,43,9,-76,71,57,87,-8,39
1491086960949,2,10,2,-62,42,-19,-82,20,-2
1491086960949,2,-24,-12,-64,-7,18,-16,-85,-17
1491086960981,3,-13,-10,-54,37,62,10,6,-11
1491086960981,3,-18,-2,-34,-13,-35,-71,42,12
1491086960982,0,28,6,-4,-104,11,24,-88,11
1491086960982,0,-10,4,43,92,-68,-21,24,-6
1491086960983,1,-2,2,15,-6,10,-93,-16,-5
1491086960983,1,-15,-17,-1,13,78,57,31,-8
1491086960984,2,-18,-15,46,1,110,127,-65,-54
1491086960984,2,-17,18,47,35,-93,-53,18,-8
1491086961020,3,0,3,30,-5,-23,-56,-34,21
1491086961020,3,-8,-2,71,29,-59,127,25,-28
1491086961021,0,23,6,36,7,77,-16,76,50
1491086961021,0,-11,-4,33,25,43,92,60,-15
1491086961022,1,6,5,28,-7,27,-66,-100,-15
1491086961022,1,4,-9,10,-58,-111,-49,-48,-1
1491086961022,2,-10,5,43,15,27,49,76,22
1491086961022,2,15,-12,0,-86,-65,-69,6,-11
1491086961056,3,0,8,18,89,54,108,46,5
1491086961056,3,23,3,31,-33,43,45,64,1
1491086961057,0,-37,-19,-9,27,-17,24,25,-8
1491086961057,0,20,20,19,-14,22,-88,-24,38
1491086961058,1,-3,-12,2,-9,-39,77,36,-11
1491086961058,1,-6,-3,-17,-42,4,-41,-79,-10
1491086961094,2,6,4,23,-12,-36,30,80,33
1491086961094,2,-13,16,35,23,-34,-35,-105,-49
1491086961095,3,-7,-10,0,-68,10,83,84,5
1491086961095,3,-4,-6,19,119,-22,62,20,-4
1491086961095,0,10,-2,-15,-93,-107,-107,-26,-22
1491086961095,0,-10,-28,-41,-24,-4,15,46,24
1491086961096,1,0,8,31,78,86,-54,-98,-24
1491086961096,1,22,9,-4,-35,-67,96,-18,29
1491086961131,2,-9,-4,0,-8,27,41,44,-9
1491086961131,2,-5,-12,-3,-18,-15,74,2,-24
1491086961133,3,-12,-1,-11,79,104,-45,-19,7
1491086961133,3,5,-3,1,-55,-6,-16,-17,1
1491086961134,0,6,-2,-9,-2,-70,-22,-99,-34
1491086961134,0,2,-7,4,0,46,64,77,35
1491086961135,1,10,14,29,-15,-70,-90,-48,6
1491086961135,1,-5,-9,-33,-26,12,31,44,-4
1491086961169,2,-11,-6,5,45,-4,-18,-58,-20
1491086961169,2,57,7,-4,27,109,82,78,40
1491086961170,3,46,16,20,-9,-25,-67,-27,26
1491086961170,3,7,3,1,-36,31,35,-78,-4
1491086961171,0,-4,-3,9,43,-36,-68,-6,1
1491086961171,0,-40,-10,-5,24,42,21,-5,-23
1491086961172,1,-4,3,-10,-32,-14,10,-67,-17
1491086961172,1,-6,0,-9,-75,9,66,50,-3
1491086961206,2,10,5,24,97,120,-62,-44,19
1491086961206,2,-24,-2,-5,-98,-128,-75,-128,-40
1491086961207,3,-31,-34,-40,-49,-15,81,107,3
1491086961207,3,-37,-9,-6,-1,31,-98,-35,-30
1491086961208,0,34,12,5,-73,-9,60,-41,3
1491086961208,0,-47,13,3,65,14,-34,62,18
1491086961244,1,32,29,13,-13,-5,32,113,34
1491086961244,1,-41,-20,-10,42,-17,12,-25,-7
1491086961245,2,3,0,0,-11,-6,10,-42,-2
1491086961245,2,34,13,10,65,41,22,66,8
1491086961246,3,-35,-26,-22,-68,-62,-73,-93,-61
1491086961246,3,14,3,12,5,-3,-8,114,54
1491086961247,0,-12,13,8,3,44,82,29,-35
1491086961247,0,-6,-1,10,-14,-57,-77,-18,-14
1491086961281,1,19,-6,-11,25,55,48,-39,8
1491086961281,1,-20,-5,-10,-15,-10,-19,7,-32
1491086961282,2,-24,-23,-26,-49,-80,70,112,5
1491086961282,2,11,1,3,25,69,-57,-10,10
1491086961283,3,-4,-6,-23,-38,-51,-75,-27,-1
1491086961283,3,-9,7,22,85,67,-44,-29,-16
1491086961284,0,24,-4,-2,-8,-76,43,54,29
1491086961284,0,-5,-5,-8,-89,-12,127,15,-13
1491086961356,1,-30,-26,-28,15,-17,-104,-126,-32
1491086961356,1,5,-3,0,-10,-68,16,-87,-5
1491086961358,2,-21,-14,-10,50,42,2,30,-2
1491086961358,2,-2,10,15,4,13,83,-48,-15
1491086961359,3,-5,-7,4,20,10,12,33,-24
1491086961359,3,-4,8,-5,-2,33,-26,26,14
1491086961360,0,6,6,4,-42,-66,-89,-88,-23
1491086961360,0,2,-8,-8,61,24,59,-20,5
1491086961394,1,2,7,-2,-95,-13,4,61,-11
1491086961394,1,-1,-1,4,1,-65,-60,-128,-11
1491086961394,2,-4,2,-12,-37,14,44,63,55
1491086961394,2,0,1,5,58,16,-23,-17,0
1491086961395,0,16,7,18,75,89,100,28,8
1491086961395,0,7,-6,-9,-28,-54,-116,-54,10
1491086961396,1,-25,3,15,22,46,58,72,-6
1491086961396,1,16,4,-9,59,-9,-109,-51,-23
1491086961431,2,-9,-20,-24,11,-6,42,25,-11
1491086961431,2,-4,-11,-7,-7,26,26,18,-17
1491086961433,3,8,6,20,57,-47,61,3,17
1491086961433,3,12,-1,-8,-51,30,14,-23,-23
1491086961434,0,-6,-2,1,1,-11,-25,-6,2
1491086961434,0,-6,-4,-5,-52,-20,-45,-38,5
1491086961434,1,20,-3,-2,13,12,53,4,23
1491086961434,1,-22,-1,4,-29,-52,27,87,3
1491086961469,2,23,10,12,46,-50,-29,10,11
1491086961469,2,9,-1,1,34,74,-3,-12,7
1491086961470,3,14,9,-7,-62,-27,-12,51,46
1491086961470,3,-32,-12,-8,-2,26,126,-4,-16
1491086961471,0,1,13,8,-19,-1,2,33,11
1491086961471,0,-17,-8,0,26,-41,-66,-57,-29
1491086961472,1,-17,-7,10,96,94,94,-45,-34
1491086961472,1,27,10,11,14,48,48,90,38
1491086961506,2,-38,-9,-14,-113,-103,18,-27,-23
1491086961506,2,3,-5,-20,-32,-45,-21,-17,-10
1491086961507,3,-12,-11,-8,27,17,-78,-10,-1
1491086961507,3,-9,0,7,4,-9,15,-2,-12
1491086961509,0,4,14,14,40,71,23,-17,-9
1491086961509,0,14,-9,-2,-9,10,79,-51,-16
1491086961510,1,-16,1,-2,-14,-62,-66,-4,2
1491086961510,1,-13,-5,-6,-9,22,-48,8,7
1491086961544,2,-11,7,10,30,44,1,56,5
1491086961544,2,28,9,-1,-20,-21,-57,-64,11
1491086961545,3,-25,-1,-7,-20,-7,72,65,-2
1491086961545,3,19,11,17,-5,-56,33,5,8
1491086961545,0,18,0,-6,19,53,-108,-47,-6
1491086961545,0,-46,-18,-19,-50,-42,126,79,-25
1491086961546,1,39,-2,16,73,47,-21,-57,33
1491086961546,1,-18,-7,-21,-77,-48,-103,2,-13
1491086961581,2,-39,-23,-19,-54,-38,-23,-47,-52
1491086961581,2,1,19,28,56,45,-3,-19,34
1491086961583,3,1,-7,-16,-10,-14,88,-5,-16
1491086961583,3,33,8,15,34,20,51,58,14
1491086961584,0,10,-9,-5,45,58,-55,-43,-8
1491086961584,0,-28,-9,-2,3,-37,-11,55,-5
1491086961584,1,-16,-7,-13,-100,-86,-43,-31,-13
1491086961584,1,3,-4,-4,45,-17,-3,-73,-2
1491086961619,2,10,11,11,11,-3,-12,48,12
1491086961619,2,34,4,-10,-33,9,3,56,28
1491086961620,3,-25,-12,-10,-23,11,16,-44,7
1491086961620,3,-21,-1,7,-27,-11,109,75,4
1491086961620,0,23,8,11,59,5,-52,-81,-22
1491086961620,0,-10,2,5,56,79,11,33,30
1491086961621,1,-2,2,6,-47,-45,-2,52,7
1491086961621,1,-16,0,-20,-71,26,6,-25,-4
1491086961656,2,-7,-10,-24,-98,-108,55,-80,7
1491086961656,2,31,9,20,47,-24,-123,12,-6
1491086961657,3,-16,-13,-11,9,54,78,-70,-18
1491086961657,3,25,11,20,67,-31,-24,90,44
1491086961658,0,22,-6,-18,-44,26,-17,110,-10
1491086961658,0,-10,-2,-3,-46,-42,-41,-96,-11
1491086961659,1,6,13,18,56,1,72,53,-19
1491086961659,1,-12,-12,14,38,73,-27,-128,-53
1491086961693,2,-15,-7,-16,45,49,20,50,44
1491086961693,2,3,-21,-35,-58,-49,32,127,1
1491086961694,3,19,13,16,67,88,-12,-58,-4
1491086961694,3,15,4,-11,-18,-17,19,-16,19
1491086961695,0,1,5,10,-79,-95,27,-73,-7
1491086961695,0,-21,-6,9,21,68,-86,-29,-38
1491086961696,1,11,3,12,57,26,-28,23,18
1491086961696,1,-4,-21,-41,-50,9,11,28,1
1491086961731,2,-37,2,-8,-69,-81,42,-33,-34
1491086961731,2,1,4,15,30,34,37,-72,7
1491086961732,3,-4,10,-12,-128,-127,27,5,-1
1491086961732,3,24,-1,-1,19,82,-107,-35,11
1491086961733,0,-7,-7,13,126,127,44,31,-9
1491086961733,0,12,-1,-23,-128,-102,-5,2,33
1491086961733,1,-17,3,-21,-27,-49,-6,-18,-13
1491086961733,1,15,8,10,51,90,-93,4,18
1491086961769,2,28,-8,-5,63,-73,69,19,3
1491086961769,2,-15,-2,21,108,120,-47,-88,-25
1491086961770,3,-2,-10,-22,-44,-25,-122,-2,-14
1491086961770,3,-52,-12,-2,-128,-128,115,-6,-49
1491086961771,0,-3,1,-1,109,70,63,123,32
1491086961771,0,6,7,7,-3,-16,-24,-30,-32
1491086961806,1,30,-10,-13,-31,-16,17,-58,3
1491086961806,1,-36,7,15,22,-22,-45,-24,-3
1491086961807,2,14,3,34,61,6,37,-92,7
1491086961807,2,-18,-6,-47,-106,-118,-15,-31,-17
1491086961807,3,-23,-14,4,-34,-35,68,-99,-38
1491086961807,3,36,7,-40,-25,-73,99,73,25
1491086961808,0,-23,-3,0,-22,76,-87,-26,-20
1491086961808,0,9,14,14,-40,-44,83,29,24
1491086961843,1,-4,1,14,105,127,-14,64,4
1491086961843,1,-7,-7,14,28,-40,50,-72,-72
1491086961881,2,-8,-3,8,63,23,27,43,45
1491086961881,2,-29,-1,-17,-91,0,93,-25,-52
1491086961918,3,43,15,-9,-17,-1,-112,62,73
1491086961918,3,-43,-8,-1,-21,-104,-50,-127,-17
1491086961920,0,12,-11,-21,-62,63,-128,-25,-37
1491086961920,0,-30,1,25,127,51,62,-2,-4
1491086961920,1,40,23,6,-105,-115,53,-66,13
1491086961920,1,-12,-3,-3,127,127,-14,46,57
1491086961921,2,1,-2,-5,-124,-96,-7,-19,-6
1491086961921,2,-1,-7,12,127,102,127,63,39
1491086961956,3,-3,6,2,-71,-67,-50,30,20
1491086961956,3,9,-9,-8,10,-80,-48,-66,13
1491086961957,1,1,-16,3,79,78,50,-67,-85
1491086961957,1,-24,4,25,70,-48,51,12,1
1491086961957,2,-29,-8,-10,13,39,-19,-35,22
1491086961957,2,93,18,31,73,3,77,-108,7
1491086961958,0,0,12,6,-8,-74,9,-40,1
1491086961958,0,0,-7,6,-6,18,-97,10,-19
1491086961993,1,10,-3,33,127,9,55,5,23
1491086961993,1,12,-1,-20,-104,-56,7,-58,-29
1491086961994,2,-10,-17,-21,-17,-44,5,-7,-7
1491086961994,2,-21,6,10,-39,-50,76,84,28
1491086961995,0,26,5,9,0,-6,-119,-99,-1
1491086961995,0,-12,18,11,-46,-25,78,101,3
1491086961996,1,-6,-23,-9,62,20,-10,-73,-48
1491086961996,1,23,11,4,14,-45,-29,119,55
1491086962031,2,8,0,-6,-37,1,33,-83,-35
1491086962031,2,-28,-16,-31,-122,-27,-20,52,-5
1491086962032,3,-17,-12,-27,20,79,-32,62,5
1491086962032,3,20,9,12,86,88,-14,54,23
1491086962032,0,8,20,33,49,-62,30,100,42
1491086962032,0,-17,-3,12,-11,35,31,-128,-15
1491086962033,1,17,13,-2,-17,3,-47,-13,10
1491086962033,1,-15,-19,-35,-85,-128,-22,-4,-9
1491086962068,2,-3,-13,-3,104,75,32,-99,-9
1491086962068,2,-20,16,19,-71,-24,-76,62,47
1491086962070,3,3,-9,-38,-118,-51,81,48,20
1491086962070,3,-10,12,52,99,59,127,-58,-55
1491086962071,0,14,-5,-4,57,82,54,33,52
1491086962071,0,-3,9,-1,96,-54,-92,-122,21
1491086962071,1,-20,-6,7,-51,-32,127,115,0
1491086962071,1,-11,14,15,40,87,-87,52,-14
1491086962106,2,14,-7,-18,-128,-64,-34,-39,20
1491086962106,2,8,-25,-50,-15,-15,31,77,-10
1491086962107,3,-8,8,7,-15,-23,89,65,51
1491086962107,3,8,-1,2,5,23,85,-84,-33
1491086962108,0,7,23,35,-6,-27,-60,7,45
1491086962108,0,-35,-13,-9,31,-74,44,9,-63
1491086962108,1,6,-16,7,15,57,-47,-45,-29
1491086962108,1,4,1,-18,-47,-122,125,127,74
1491086962144,2,-17,-20,-35,-38,63,-74,-51,-67
1491086962144,2,32,24,50,53,21,32,-128,-4
1491086962145,3,4,-1,-6,-2,37,127,102,46
1491086962145,3,12,0,-6,-44,-118,-128,-114,-40
1491086962145,0,-28,-15,-13,-19,20,39,-20,-24
1491086962145,0,6,-6,-10,36,50,-22,-22,-9
1491086962146,1,-7,13,23,-31,65,77,-11,-4
1491086962146,1,0,-11,-14,98,29,-105,-45,-31
1491086962181,2,1,5,-8,-61,-97,-90,-19,35
1491086962181,2,5,-9,-16,-12,52,52,86,14
1491086962182,3,-5,2,1,37,25,56,-73,-19
1491086962182,3,-15,-7,11,-26,20,-90,32,-14
1491086962182,0,-9,5,6,-31,-70,85,19,-65
1491086962182,0,-14,-15,-35,-39,-34,-110,53,10
1491086962183,1,-29,-22,-28,-93,-76,-128,-25,30
1491086962183,1,28,-3,-12,21,58,49,-1,30
1491086962218,2,-22,1,8,36,-8,31,35,-102
1491086962218,2,-8,-23,-16,6,2,-31,-120,16
1491086962220,3,-1,36,33,14,-14,55,29,-64
1491086962220,3,-10,-27,-40,-31,3,-84,-108,-24
1491086962220,0,15,8,29,12,-1,-47,85,122
1491086962220,0,-8,-8,-22,-13,-17,74,-20,-12
1491086962221,1,-15,-2,24,22,-4,68,55,-3
1491086962221,1,8,34,26,9,9,-49,0,43
1491086962256,2,0,7,30,-32,-66,80,86,-22
1491086962256,2,-3,-16,-50,50,68,-6,8,-9
1491086962257,3,-11,-25,31,-28,-74,-128,-78,-6
1491086962257,3,2,-7,-73,-35,-3,103,48,11
1491086962257,0,-5,-3,-33,13,-23,42,26,8
1491086962257,0,6,-7,37,3,19,76,44,-12
1491086962258,1,-1,11,41,48,-4,75,-74,-19
1491086962258,1,-3,-5,-44,-68,-38,-32,-13,-8
1491086962293,2,1,-11,-24,40,36,122,-14,31
1491086962293,2,14,9,25,-35,14,-12,86,27
1491086962294,3,7,-4,-23,81,73,26,-25,5
1491086962294,3,0,12,77,-7,-10,127,127,48
1491086962295,0,-10,-16,-45,-76,-16,-116,-120,-41
1491086962295,0,-7,7,19,2,-44,32,66,-20
1491086962296,1,-5,-12,-25,-38,-14,-112,33,-33
1491086962296,1,13,31,53,88,47,11,-20,6
1491086962331,2,0,6,1,-23,40,51,-18,-23
1491086962331,2,9,-10,-19,-77,-125,-73,-120,-32
1491086962332,3,-27,-11,-43,-50,-36,6,-16,-45
1491086962332,3,4,-1,-13,-88,-111,37,65,20
1491086962333,0,-6,19,46,112,94,11,-62,-73
1491086962333,0,18,12,23,-61,-48,15,69,40
1491086962368,1,-1,-3,-24,21,35,-93,-110,48
1491086962368,1,-7,-15,-2,-63,-32,75,94,4
1491086962370,2,6,9,6,-12,-9,-86,-12,1
1491086962370,2,-15,-15,-37,-35,55,3,-73,-56
1491086962370,3,22,0,0,73,19,60,127,56
1491086962370,3,-22,12,23,-9,88,-5,-59,-65
1491086962371,0,-5,-13,-10,22,86,-48,-30,34
1491086962371,0,-1,-5,-4,-14,9,28,1,-22
1491086962406,1,34,19,3,25,-44,-93,-51,92
1491086962406,1,-14,7,57,127,91,32,36,14
1491086962407,2,-11,11,-11,-56,-55,62,62,32
1491086962407,2,-39,-2,-15,-38,-46,-1,-94,-70
1491086962407,3,24,-11,-1,-14,-4,61,-99,-111
1491086962407,3,39,-16,-39,-60,-54,1,83,93
1491086962408,0,-8,-9,-1,36,-21,103,7,26
1491086962408,0,6,6,13,17,57,127,-1,4
1491086962443,1,-29,0,-2,36,9,-90,20,-63
1491086962443,1,1,-19,-13,-45,-104,5,-128,-63
1491086962445,2,8,-16,-22,-42,38,-78,-47,22
1491086962445,2,-4,-2,17,20,19,51,41,-26
1491086962445,3,5,4,2,-35,-10,-51,34,37
1491086962445,3,-13,-3,-2,-21,48,121,34,5
1491086962446,0,5,5,16,81,-24,-53,34,39
1491086962446,0,10,16,15,60,55,-62,-27,12
1491086962481,1,-1,-3,5,-69,-64,17,-78,28
1491086962481,1,-7,-19,-33,-44,-5,73,88,20
1491086962482,2,-2,-10,-9,-35,-36,3,-28,-27
1491086962482,2,40,13,10,47,32,88,53,48
1491086962483,3,-33,2,2,9,-15,127,127,4
1491086962483,3,5,-7,-10,20,19,7,-122,-35
1491086962518,0,2,13,28,-7,-39,46,35,-7
1491086962518,0,12,-12,-7,17,-19,74,4,25
1491086962520,1,6,1,-11,-11,14,126,63,27
1491086962520,1,25,16,4,-48,-96,1,-72,-6
1491086962520,2,-15,-18,-27,2,112,16,15,-29
1491086962520,2,-15,-3,2,-6,-7,6,47,11
1491086962521,3,13,0,17,-24,-25,-25,-38,-11
1491086962521,3,-29,-26,-45,-37,-5,-57,-38,-59
1491086962556,0,46,21,34,69,-17,-38,-96,-9
1491086962556,0,-2,-9,-22,-65,-40,13,46,49
1491086962557,1,-18,5,2,-19,21,28,-58,-40
1491086962557,1,-2,-11,4,41,11,-31,60,19
1491086962557,2,13,-7,-6,7,-22,29,23,6
1491086962557,2,-1,1,3,37,41,-26,23,-8
1491086962558,3,-11,11,8,17,41,46,-5,-7
1491086962558,3,20,23,6,26,-10,-49,-2,10
1491086962593,0,-29,-28,-37,-48,-66,114,35,-20
1491086962593,0,-17,5,-2,-53,-6,-128,-86,-23
1491086962595,1,21,-2,-6,34,37,-40,-10,-12
1491086962595,1,-33,-10,-6,43,70,-7,66,24
1491086962595,2,24,16,11,11,-20,28,77,54
1491086962595,2,-13,-1,9,41,-1,-81,-128,-67
1491086962596,3,-13,-17,-14,-23,-37,-24,63,52
1491086962596,3,1,1,32,118,127,82,47,-7
1491086962631,0,-20,-18,-35,-118,-123,-97,-46,-39
1491086962631,0,10,-7,-15,-72,-72,26,-4,37
1491086962632,1,-3,6,7,52,38,-36,5,3
1491086962632,1,16,10,3,-39,-32,-4,-128,-18
1491086962633,2,-1,8,19,-15,55,127,118,18
1491086962633,2,6,-2,-15,-4,3,-113,-79,-40
1491086962668,3,-15,3,4,-82,-85,37,68,-5
1491086962668,3,-31,-12,6,71,89,9,8,11
1491086962670,0,75,-4,-20,39,67,61,71,32
1491086962670,0,-45,7,29,-51,-95,-42,-52,-30
1491086962670,1,-23,-15,-26,-16,-48,-88,-79,10
1491086962670,1,27,11,1,-41,34,93,85,1
1491086962671,2,-37,-1,5,37,17,-112,-92,-17
1491086962671,2,10,2,14,63,73,68,92,26
1491086962706,3,15,-9,-22,-51,-77,114,-100,-35
1491086962706,3,14,-5,18,9,-68,18,19,-10
1491086962707,0,-20,23,5,24,64,-106,1,16
1491086962707,0,4,-12,-2,-43,46,86,-14,3
1491086962707,1,-49,-11,-22,-44,-43,41,-2,-22
1491086962707,1,42,12,-10,-48,-22,-87,-51,25
1491086962708,2,-8,6,15,35,40,41,34,0
1491086962708,2,16,2,4,57,16,8,-24,15
1491086962744,3,9,-5,-5,42,122,55,33,3
1491086962744,3,-57,-9,-12,-111,-127,-106,-31,-43
1491086962745,0,53,10,33,81,65,127,-42,13
1491086962745,0,2,12,11,72,52,-91,-12,3
1491086962745,1,13,-13,-14,-14,31,-53,-63,-17
1491086962745,1,-6,9,16,17,-25,83,24,11
1491086962749,2,-3,-13,-23,-128,-128,-102,-40,-25
1491086962749,2,-58,-2,-31,-19,69,89,111,-9
1491086962781,3,45,-2,0,28,-10,-24,-49,6
1491086962781,3,-33,-2,-6,8,65,1,-29,-4
1491086962782,0,3,5,-5,16,-2,73,29,-12
1491086962782,0,24,2,14,23,-82,42,43,39
1491086962783,1,12,24,10,7,24,-75,60,2
1491086962783,1,-13,-9,-16,1,32,60,-56,-29
1491086962818,2,4,9,1,-3,-25,-98,-5,31
1491086962818,2,-13,-17,-14,-28,-44,56,-9,-13
1491086962820,3,17,6,27,78,97,115,32,48
1491086962820,3,12,15,14,-13,-116,-58,2,14
1491086962820,0,-41,-30,-43,-75,-24,11,-36,-36
1491086962820,0,0,5,1,-29,-2,9,-5,1
1491086962821,1,-26,-1,23,63,58,59,28,-16
1491086962821,1,29,-3,-10,-23,-9,1,-62,-7
1491086962856,2,-22,1,-18,4,-24,-2,127,22
1491086962856,2,11,-7,0,-20,7,-103,-32,4
1491086962857,3,-13,-5,-11,-23,-37,25,18,-6
1491086962857,3,5,-1,16,69,74,58,-14,-5
1491086962857,0,-14,5,4,26,56,-20,-57,-14
1491086962857,0,-2,6,11,40,35,29,24,6
1491086962858,1,19,11,6,-38,-44,-112,26,26
1491086962858,1,1,-15,1,-36,17,-1,-36,10
1491086962931,2,-31,-11,-15,-9,-91,20,-46,-20
1491086962931,2,43,-6,-15,-40,-11,0,81,2
1491086962932,3,2,1,-8,-39,-34,-14,-56,-1
1491086962932,3,17,18,12,-11,-27,7,-10,10
1491086962968,0,-33,-4,20,98,127,40,14,7
1491086962968,0,30,3,-5,33,25,25,30,7
1491086962970,1,-14,-10,-10,-19,-7,79,-10,-38
1491086962970,1,-14,-3,0,-23,-23,-127,-53,-21
1491086962970,2,-23,-5,2,25,70,37,32,-3
1491086962970,2,11,-4,16,69,-4,53,5,10
1491086963006,3,-21,-15,-26,-97,-90,-24,-32,-6
1491086963006,3,11,-4,-12,-41,-23,-41,29,3
1491086963007,0,13,21,28,46,67,104,-49,-9
1491086963007,0,-39,-25,-28,-23,-103,-128,-98,-33
1491086963008,1,-29,-18,-21,-48,63,63,-21,-37
1491086963008,1,-24,-24,-20,37,-5,76,70,-2
1491086963009,2,12,6,12,-22,28,-83,-103,11
1491086963009,2,-5,1,14,43,42,69,-15,-21
1491086963043,1,19,4,-1,53,108,-18,-37,28
1491086963043,1,-22,-3,-6,-94,61,46,79,-29
1491086963044,2,37,-4,-9,13,-110,-39,-4,4
1491086963044,2,-16,-3,-9,15,42,-42,-32,-4
1491086963045,3,-4,0,10,-11,-2,28,-50,-9
1491086963045,3,18,-9,-14,-5,-26,56,102,36
1491086963046,1,21,-4,-31,-54,-46,-70,17,16
1491086963046,1,-49,-9,20,93,33,111,-27,-20
1491086963081,2,51,-7,-24,-128,-126,-95,-45,-3
1491086963081,2,-60,6,-12,8,53,-34,44,-5
1491086963082,3,52,17,31,27,-65,-9,-115,-24
1491086963082,3,-8,-7,-28,63,70,-48,61,35
1491086963082,1,-7,-5,-4,-26,-60,-24,27,-8
1491086963082,1,-9,4,17,28,84,69,33,-11
1491086963083,2,16,1,7,11,-83,-88,-27,23
1491086963083,2,-9,-6,-9,-82,-24,41,24,3
1491086963119,3,39,4,7,57,68,49,-61,2
1491086963119,3,18,3,-2,-7,-64,64,14,-11
1491086963120,0,-2,10,10,57,127,-41,103,4
1491086963120,0,-41,9,24,81,26,-42,-77,-15
1491086963121,1,-25,-8,1,-42,7,-36,127,37
1491086963121,1,28,1,-9,-83,-63,-41,-120,-16
1491086963121,2,-17,-5,-20,4,72,77,-1,-4
1491086963121,2,8,-1,-7,-9,-81,-81,-55,-13
1491086963156,3,-29,5,-1,21,46,55,3,-1
1491086963156,3,-27,-7,1,-35,-109,-66,2,-2
1491086963157,0,9,7,2,34,95,65,59,16
1491086963157,0,50,-5,4,64,104,-5,-58,-5
1491086963158,1,-41,-15,-10,8,26,105,62,8
1491086963158,1,-1,-14,-14,-9,-40,-128,-61,-28
1491086963159,2,-27,-10,-13,-49,-44,127,-45,-28
1491086963159,2,9,-2,6,10,39,47,94,12
1491086963194,3,-3,8,10,-10,-68,-32,-73,15
1491086963194,3,11,1,4,14,15,73,47,-15
1491086963195,0,-48,-26,-24,-1,-25,-26,-78,-18
1491086963195,0,4,4,-2,-74,-69,127,-65,-12
1491086963196,1,34,-1,-11,22,10,-118,38,19
1491086963196,1,-12,13,7,-6,37,27,-80,10
1491086963197,2,14,4,18,57,17,37,-15,-16
1491086963197,2,-1,-3,13,-14,-5,-14,83,32
1491086963231,3,-18,4,-7,-39,-28,22,-43,-62
1491086963231,3,-4,-13,-10,13,-25,-107,-76,5
1491086963233,0,61,-5,-5,-3,38,68,37,17
1491086963233,0,-13,0,3,22,-24,-51,32,12
1491086963234,1,-21,-12,-6,-13,-5,67,-23,3
1491086963234,1,24,13,3,5,-24,23,-94,-4
1491086963235,2,-29,-13,-16,-30,-34,-40,74,2
1491086963235,2,14,2,-9,-7,26,-7,-28,-5
1491086963269,3,7,-1,-4,7,-31,31,35,8
1491086963269,3,-38,5,17,6,36,-13,-56,-29
1491086963270,0,24,3,9,4,44,-2,69,34
1491086963270,0,-22,-12,-18,2,-9,2,-21,-21
1491086963270,1,-31,-8,4,-15,-12,35,1,-13
1491086963270,1,10,1,-2,21,-2,-94,32,25
1491086963271,2,41,-1,0,31,13,-2,-34,8
1491086963271,2,-11,14,25,-53,-41,-42,49,42
1491086963306,3,-11,-23,-23,9,-8,38,-13,-52
1491086963306,3,1,2,3,12,30,-33,-90,-1
1491086963307,0,-5,-1,10,-34,-3,35,70,28
1491086963307,0,0,-2,-5,22,-41,-12,55,-11
1491086963308,1,14,14,5,-7,-28,41,29,18
1491086963308,1,-10,-14,-12,-12,3,47,-15,18
1491086963309,2,-51,-11,-2,-14,-54,-29,-47,-28
1491086963309,2,42,15,-1,15,49,25,21,9
1491086963344,3,-22,11,23,46,35,-64,40,-13
1491086963344,3,19,-2,-11,5,49,21,38,10
1491086963345,0,-20,18,13,23,-23,3,-11,21
1491086963345,0,-15,-4,7,21,8,79,11,-21
1491086963346,1,29,2,-2,-54,-16,-128,-48,21
1491086963346,1,-12,-7,-17,-57,-55,101,33,-27
1491086963381,2,9,-3,-13,-24,-37,14,-60,6
1491086963381,2,-8,2,5,-17,-26,-48,7,-22
1491086963383,3,6,-3,-8,11,46,-24,8,26
1491086963383,3,27,3,6,-68,-53,23,80,17
1491086963384,0,-19,-3,-5,73,-16,-53,-35,-24
1491086963384,0,-30,-13,-11,-41,-4,69,-48,-18
1491086963385,1,-3,-3,0,-9,-36,40,-34,-26
1491086963385,1,-19,5,6,70,93,-69,10,8
1491086963418,2,49,7,4,-35,-25,-58,-16,13
1491086963418,2,8,-2,-13,0,2,72,91,31
1491086963419,3,-11,-6,-2,11,50,-4,-55,-10
1491086963419,3,-11,2,2,49,2,-47,-6,-11
1491086963420,0,-3,4,2,-74,-47,46,58,-1
1491086963420,0,-7,-6,-17,-14,21,-17,-55,-26
1491086963421,1,-2,-1,2,25,45,38,55,11
1491086963421,1,11,-2,-1,14,20,6,-30,9
1491086963456,2,-4,5,7,30,-26,-3,46,0
1491086963456,2,13,-2,-2,-25,-9,19,-47,10
1491086963457,3,-8,2,-4,-24,-41,-30,55,9
1491086963457,3,8,-2,13,72,66,50,9,3
1491086963458,0,-46,0,-5,-2,-19,-55,-102,-27
1491086963458,0,-20,-15,-15,-35,-24,50,36,12
1491086963459,1,9,2,6,58,23,-54,-50,-4
1491086963459,1,18,-1,-16,-68,-15,22,64,6
1491086963494,2,-4,3,11,-32,-11,-20,-27,1
1491086963494,2,-9,-8,0,68,55,50,-24,-30
1491086963495,3,22,10,9,-39,-57,-96,-48,23
1491086963495,3,-26,-8,-6,21,-28,18,32,-36
1491086963496,0,3,-2,-12,-12,5,4,-38,-8
1491086963496,0,14,-1,8,24,-9,-19,37,38
1491086963531,1,6,13,18,67,84,118,127,20
1491086963531,1,-17,2,-19,-92,-76,-56,-47,-3
1491086963532,2,-3,-9,-15,-52,-36,14,-55,-8
1491086963532,2,-13,-7,2,98,64,44,-28,-21
1491086963533,3,-6,-12,-17,-58,-55,-69,-56,-24
1491086963533,3,25,5,-8,-7,37,95,22,10
1491086963534,0,-14,-14,-9,-16,-38,-45,-27,-12
1491086963534,0,8,13,18,46,33,-3,-12,1
1491086963569,1,-4,-4,-1,3,-88,110,65,-9
1491086963569,1,-6,-5,-7,17,27,-84,-107,-48
1491086963570,2,1,-17,-18,-34,15,74,112,63
1491086963570,2,16,3,4,-22,15,-99,-33,9
1491086963571,3,-49,2,5,1,17,122,17,-20
1491086963571,3,4,-10,-7,21,24,44,30,10
1491086963572,0,21,6,17,-14,-9,-81,2,-7
1491086963572,0,32,3,-18,-35,-17,50,-4,27
1491086963606,1,0,1,4,-8,-55,-54,-71,3
1491086963606,1,17,2,18,11,22,19,44,24
1491086963607,2,-32,-7,-9,-25,27,83,2,-47
1491086963607,2,-5,-3,-6,-32,-55,-95,-4,13
1491086963609,3,27,-21,-19,-34,1,-28,-21,-6
1491086963609,3,-13,8,26,103,-31,86,-34,-7
1491086963644,0,23,0,-3,-40,-13,-66,-4,2
1491086963644,0,-12,-5,-8,-28,7,-5,-40,0
1491086963645,1,-16,8,3,-11,-16,-26,38,-17
1491086963645,1,-14,-9,0,40,93,44,-28,11
1491086963681,2,-7,6,24,42,-5,64,114,28
1491086963681,2,16,0,12,72,-8,8,-62,-20
1491086963720,3,-29,-14,-26,-71,64,-68,-9,2
1491086963720,3,24,-8,-19,-101,-122,-21,-15,0
1491086963721,0,-13,-2,8,86,59,3,-55,-36
1491086963721,0,16,4,-12,-46,16,-20,-37,-3
1491086963722,1,7,2,11,39,-13,52,69,23
1491086963722,1,34,13,25,-6,38,10,23,30
1491086963723,2,12,-4,-3,57,51,29,9,-2
1491086963723,2,-22,5,8,42,-27,-63,-46,-18
1491086963756,3,-8,-12,-7,28,90,59,7,26
1491086963756,3,-12,-1,-23,28,18,-88,40,-51
1491086963757,0,-61,1,-1,-63,-80,96,-75,-36
1491086963757,0,63,-9,-11,66,106,-59,94,38
1491086963794,0,-31,3,-4,3,-11,-93,-51,-9
1491086963794,0,-2,7,4,-125,-72,58,-80,-12
1491086963795,1,18,3,7,127,74,-81,-46,-20
1491086963795,1,56,17,34,-39,-49,84,85,53
1491086963796,2,-18,-8,-21,-106,-85,-111,-22,-8
1491086963796,2,-24,-37,-43,-69,-1,93,23,-20
1491086963797,3,33,-1,-4,-55,-41,46,-14,-17
1491086963797,3,-65,-13,-4,4,39,-16,-127,-39
1491086963831,0,6,7,18,118,48,-22,101,51
1491086963831,0,34,11,20,2,-34,117,-21,-16
1491086963832,1,-11,-2,-6,3,35,-87,-127,-80
1491086963832,1,-24,-14,-18,-26,-30,-35,78,60
1491086963833,2,34,-19,-17,7,-2,42,24,7
1491086963833,2,-53,11,15,26,38,37,21,-16
1491086963834,3,68,6,-4,-14,-10,-15,10,61
1491086963834,3,-11,-7,-15,-26,-4,-8,-99,-51
1491086963869,0,20,11,7,-7,-26,21,25,43
1491086963869,0,-17,3,12,71,31,-12,9,0
1491086963906,1,-11,-2,1,12,101,-17,-27,14
1491086963906,1,-43,-8,-18,-18,-17,-49,25,-30
1491086963907,3,-23,-7,2,-3,-65,73,-12,4
1491086963907,3,24,1,1,-19,-36,6,14,2
1491086963908,0,18,-6,-3,1,63,66,-73,-39
1491086963908,0,-51,-4,7,16,-14,11,109,27
1491086963909,1,-1,4,4,-2,-36,14,-20,-25
1491086963909,1,10,7,11,-3,90,-3,-43,-4
1491086963944,2,-3,1,20,12,47,-17,67,22
1491086963944,2,14,3,-25,-20,-67,-28,-8,3
1491086963945,3,-39,-10,-14,-33,-66,-46,-5,-18
1491086963945,3,4,-5,5,44,43,32,-2,16
1491086963946,0,2,7,-11,29,36,-50,-53,-11
1491086963946,0,9,-6,26,37,23,50,37,-9
1491086963947,3,-12,-9,-3,15,-31,112,81,9
1491086963947,3,9,8,4,-27,101,14,61,49
1491086963981,0,1,-9,-11,-46,-71,-4,-117,-22
1491086963981,0,-3,-9,-21,29,10,-33,-25,-16
1491086963982,1,15,13,18,-28,-4,-30,57,0
1491086963982,1,-10,-8,-21,-10,-68,-53,-32,-16
1491086963983,2,26,9,10,4,28,67,59,25
1491086963983,2,-17,13,16,1,10,-10,20,3
1491086963984,3,-6,-7,3,64,-43,-80,-56,-21
1491086963984,3,7,-16,-19,-104,-51,64,32,-40
1491086964020,0,-2,-10,-34,-9,8,-46,-26,-1
1491086964020,0,-34,-18,-4,1,2,125,82,3
1491086964021,1,46,24,1,48,74,-62,-69,0
1491086964021,1,-28,-4,10,51,-42,39,12,-5
1491086964022,2,-20,-15,-7,-15,50,43,-57,-31
1491086964022,2,54,10,6,-52,-58,21,56,23
1491086964023,3,-7,1,-5,26,-33,-38,52,56
1491086964023,3,2,16,17,20,-10,-23,-35,-9
1491086964056,0,18,-3,2,-44,31,-21,44,38
1491086964056,0,-14,-19,-26,-19,-63,6,-3,-28
1491086964057,1,18,-2,0,-28,-13,20,-53,-24
1491086964057,1,-12,2,-2,13,7,-8,-26,-4
1491086964058,2,-9,-9,3,17,-22,-24,119,13
1491086964058,2,11,1,10,15,91,55,-50,-2
1491086964059,3,16,13,12,43,35,54,35,27
1491086964059,3,-32,-16,-12,-27,8,-32,27,-5
1491086964093,0,-3,3,2,15,-5,-34,-49,-12
1491086964093,0,0,-2,-2,-25,-63,-46,-62,-16
1491086964094,1,-21,-15,-14,-56,-39,1,9,-21
1491086964094,1,12,7,3,27,37,10,-8,47
1491086964095,2,37,1,-6,9,-33,-17,-55,-32
1491086964095,2,-17,-7,-2,1,34,-11,-67,-18
1491086964096,3,-7,-3,1,29,22,127,-37,-44
1491086964096,3,-11,15,19,13,-18,-115,16,30
1491086964131,0,-9,8,5,0,73,56,28,21
1491086964131,0,18,-5,-22,-4,-3,-58,-102,-49
1491086964132,1,-34,-9,-2,-58,-81,37,114,58
1491086964132,1,43,-9,-12,-7,-25,10,-56,-12
1491086964133,2,6,-3,-18,27,-29,-43,-32,18
1491086964133,2,-27,9,17,-51,1,-14,1,-17
1491086964134,3,8,-9,-11,23,37,-34,38,-8
1491086964134,3,26,9,14,80,60,53,52,7
1491086964168,0,6,5,1,-29,-50,-29,35,17
1491086964168,0,-44,-15,-19,15,25,-3,-107,-19
1491086964169,1,-20,-7,2,-5,14,-53,52,-11
1491086964169,1,28,1,-8,-9,-12,31,-13,-7
1491086964170,2,-4,20,15,-19,-59,-73,-14,8
1491086964170,2,14,1,4,56,92,42,60,25
1491086964171,3,0,-10,-2,11,6,35,50,9
1491086964171,3,-45,-11,-10,-20,11,116,-25,-32
1491086964206,0,24,3,7,16,-33,-90,16,9
1491086964206,0,14,11,6,30,67,39,47,48
1491086964207,1,-18,-9,-2,-96,-88,20,-68,-36
1491086964207,1,-1,-1,-14,45,6,-71,-96,-31
1491086964208,2,-28,-20,-19,-53,-71,75,103,15
1491086964208,2,15,6,4,16,9,-63,-82,15
1491086964209,3,18,-1,-4,42,73,21,-63,-42
1491086964209,3,-29,6,16,-4,-33,-46,69,15
1491086964243,0,7,-11,-18,-65,79,12,-83,-3
1491086964243,0,-10,0,-1,-21,-86,-9,25,-27
1491086964244,1,26,0,-2,-3,22,-42,8,36
1491086964244,1,12,-7,-4,-4,-16,38,26,10
1491086964245,2,-7,4,12,56,17,-42,-19,-15
1491086964245,2,0,-16,-16,-21,-5,77,-61,-6
1491086964246,3,9,5,-2,-16,-18,-61,48,-1
1491086964246,3,-19,-10,-12,-11,-16,-20,-65,5
1491086964319,0,-13,-3,2,12,19,82,45,3
1491086964319,0,4,12,13,1,45,-9,-90,-44
1491086964320,1,26,13,10,12,-56,14,90,73
1491086964320,1,-24,-10,15,41,23,-2,-21,-21
1491086964321,2,32,-6,-13,-16,42,-3,-18,6
1491086964321,2,-30,-3,-20,-43,-43,-5,-19,-14
1491086964321,3,-1,0,20,49,-6,-49,-86,-11
1491086964321,3,6,1,1,-86,19,54,46,-28
1491086964356,0,-29,-13,-11,26,6,-30,-43,-6
1491086964356,0,14,7,7,8,-20,18,11,17
1491086964357,1,27,13,0,62,127,-14,21,27
1491086964357,1,-17,-4,-10,-51,-127,41,85,35
1491086964357,2,17,15,8,-31,-32,-26,-5,-4
1491086964357,2,9,-4,17,12,-4,-42,-59,-33
1491086964358,0,-8,-8,-8,-2,-29,37,45,-9
1491086964358,0,-36,-8,0,-25,-19,-17,41,-14
1491086964393,1,29,-1,1,28,-29,46,-7,4
1491086964393,1,9,0,-5,-31,21,-83,-16,-11
1491086964394,2,-5,-14,-12,12,-42,5,14,9
1491086964394,2,8,-2,0,13,47,8,5,-9
1491086964397,3,-72,-15,-10,-39,16,-16,-123,-56
1491086964397,3,48,-4,-11,7,-17,-29,70,63
1491086964397,0,3,0,13,7,-7,127,-17,-43
1491086964397,0,-23,-4,6,42,49,-97,127,41
1491086964431,1,-43,-4,-12,-51,-95,1,-78,-63
1491086964431,1,-29,-1,-4,25,31,-24,-46,-13
1491086964432,2,24,3,-3,-21,1,26,25,49
1491086964432,2,1,18,5,7,-29,-57,-17,12
1491086964433,3,71,11,19,24,58,52,9,17
1491086964433,3,0,-2,6,-62,-44,-32,-50,-7
1491086964433,0,-73,-9,-5,-16,-34,19,24,-23
1491086964433,0,30,3,-10,-51,-29,33,-100,-23
1491086964468,1,-24,-10,2,32,1,-8,101,15
1491086964468,1,-22,0,14,43,39,28,2,-12
1491086964470,2,9,10,1,-7,-22,0,-104,-15
1491086964470,2,24,-1,0,43,96,47,98,40
1491086964470,3,-42,-6,17,74,84,-14,-10,-18
1491086964470,3,39,5,-12,-38,-5,21,-24,9
1491086964471,0,-50,-9,-14,-19,-60,-22,32,-18
1491086964471,0,-3,-6,-8,-53,-78,-11,-27,-14
1491086964506,1,15,-8,-7,-1,15,-43,-6,11
1491086964506,1,-9,10,14,63,49,46,-98,-59
1491086964507,2,2,4,8,-10,-17,-31,66,55
1491086964507,2,53,-7,-6,19,-8,-5,7,25
1491086964507,3,-19,-7,-6,-58,-44,44,-20,-7
1491086964507,3,3,5,-8,27,-1,-37,-56,-26
1491086964508,0,10,-2,3,-13,-3,-69,-43,-7
1491086964508,0,-15,-9,1,21,31,53,45,-11
1491086964543,1,-16,-12,-8,-9,-23,-11,47,27
1491086964543,1,13,0,-3,-30,-15,-4,-99,-30
1491086964544,2,14,11,7,37,50,14,101,44
1491086964544,2,-15,-5,-6,29,8,22,-58,-12
1491086964546,3,12,10,2,-19,-14,17,-51,-23
1491086964546,3,11,-7,-12,-38,19,-4,72,35
1491086964547,0,-27,-16,8,47,32,-45,-61,-36
1491086964547,0,-10,-6,-13,-101,-92,-56,-53,-23
1491086964581,1,-9,-6,-12,-9,-10,44,-11,6
1491086964581,1,-2,11,13,21,-13,-32,23,1
1491086964582,2,35,1,-4,5,61,14,-78,3
1491086964582,2,8,15,24,29,-14,-57,31,-15
1491086964583,3,-2,1,1,0,-22,-13,20,21
1491086964583,3,-38,-20,-21,-29,-21,2,38,13
1491086964583,0,-8,-16,-6,-34,-9,61,-23,-9
1491086964583,0,14,13,-2,20,2,-18,20,9
1491086964618,1,-3,2,15,51,64,-15,-30,-13
1491086964618,1,34,7,11,-2,-23,40,14,8
1491086964619,2,-29,-13,-14,11,1,-49,-113,-70
1491086964619,2,-10,-18,-21,-29,-23,12,44,50
1491086964620,3,-7,7,3,-12,-7,-35,10,-15
1491086964620,3,-19,-1,-2,1,-16,34,-22,10
1491086964621,0,14,-3,10,20,47,-18,-27,-29
1491086964621,0,-10,1,1,15,12,62,71,20
1491086964656,1,48,-5,-10,-2,-18,-28,-76,2
1491086964656,1,-25,-5,-1,7,-3,-23,-2,2
1491086964657,2,13,7,20,-11,-18,28,70,7
1491086964657,2,-5,-10,-11,-12,1,-1,-26,10
1491086964658,3,-2,-5,0,-35,12,9,-22,2
1491086964658,3,-12,-4,-24,-13,-24,-13,9,-24
1491086964658,0,7,0,-1,5,0,19,114,5
1491086964658,0,-8,7,12,7,-8,2,-100,-18
1491086964693,1,-15,-7,9,-3,8,-25,53,3
1491086964693,1,0,-1,2,36,38,19,3,-21
1491086964694,2,12,20,12,16,18,-22,-118,-7
1491086964694,2,40,1,-9,-14,-40,-15,61,43
1491086964695,3,-48,-12,-7,0,15,65,-15,-34
1491086964695,3,33,9,8,-9,28,-37,64,36
1491086964697,0,-18,-12,-10,1,-10,39,-27,3
1491086964697,0,-19,2,16,-22,-3,-66,58,-5
1491086964731,1,37,-1,3,13,11,81,-15,-11
1491086964731,1,-7,-1,-12,-5,-46,-58,24,19
1491086964732,2,7,-5,-12,11,7,9,60,22
1491086964732,2,-21,-8,-7,-13,-34,46,-80,-49
1491086964732,3,-13,4,-10,-7,21,-47,92,36
1491086964732,3,35,16,38,41,39,53,-77,-19
1491086964733,0,-33,-12,-22,-38,-53,-9,58,12
1491086964733,0,42,3,10,17,20,-2,-50,-10
1491086964768,1,-2,18,5,2,-14,-23,-29,-11
1491086964768,1,1,-1,4,-15,-40,9,8,9
1491086964769,2,25,3,-5,2,22,-82,-56,2
1491086964769,2,-15,-15,-7,-11,2,50,26,-17
1491086964770,3,12,-6,-15,-13,-8,15,49,31
1491086964770,3,7,-1,1,6,-11,-43,-78,-36
1491086964771,0,-24,-7,7,54,30,63,47,0
1491086964771,0,2,9,0,29,62,45,-2,29
1491086964806,1,-13,-2,-11,-53,-19,-60,-73,-20
1491086964806,1,22,-2,-9,13,-13,-45,-50,-23
1491086964807,2,38,4,-6,-22,-48,18,70,46
1491086964807,2,-13,9,-5,-9,-8,42,-82,-49
1491086964808,3,6,10,26,40,24,33,54,69
1491086964808,3,-31,-18,-23,-21,21,28,37,-4
1491086964843,0,34,5,8,-15,1,2,-33,-4
1491086964843,0,4,5,0,-3,-27,-47,-14,-6
1491086964844,1,-4,0,3,22,5,34,-19,-25
1491086964844,1,-7,-9,2,-7,-4,-4,11,9
1491086964845,2,-19,0,-5,-11,-11,-16,-7,1
1491086964845,2,-30,-12,-2,20,24,-9,-22,-25
1491086964846,3,24,12,-1,60,13,-33,-10,-32
1491086964846,3,2,-20,-19,-70,-33,25,10,38
1491086964881,0,-69,-2,-12,7,7,-60,-128,-113
1491086964881,0,8,2,3,-2,-29,28,116,92
1491086964882,1,61,-2,6,1,44,-27,-30,-24
1491086964882,1,12,6,-9,71,95,41,69,44
1491086964882,2,9,-4,1,-54,-82,-13,-1,-8
1491086964882,2,-43,-8,-4,-6,-9,-37,-19,-9
1491086964883,3,-21,7,-4,-5,9,90,-8,-6
1491086964883,3,9,10,4,-43,-36,-95,-40,2
1491086964918,0,21,-8,-6,-11,13,23,-14,9
1491086964918,0,5,5,-4,16,16,-3,42,3
1491086964919,1,-21,-3,8,-6,-9,0,-38,-16
1491086964919,1,-12,-8,-1,16,0,40,7,3
1491086964920,2,-10,10,2,24,9,50,73,31
1491086964920,2,-3,-9,-9,-42,-57,-125,-128,-53
1491086964921,3,-13,-19,-21,-21,-19,-15,35,8
1491086964921,3,-44,1,16,2,31,17,-3,-23
1491086964956,0,14,-1,5,58,16,15,-27,-3
1491086964956,0,-6,20,2,-23,-24,0,-65,-5
1491086964957,1,-37,-21,-7,-42,-37,2,-16,-22
1491086964957,1,9,5,-24,-18,-30,-41,-2,-7
1491086964958,2,-3,3,10,-41,-17,48,-86,3
1491086964958,2,6,-6,-2,26,93,-27,94,32
1491086964993,3,-28,3,-1,4,-85,8,-20,-33
1491086964993,3,99,16,15,20,17,8,112,101
1491086964994,0,9,3,9,-64,19,37,-49,-28
1491086964994,0,-43,0,-10,-15,-103,-29,-69,-57
1491086964995,1,-5,-30,-44,-56,25,-55,34,31
1491086964995,1,-28,29,18,-71,-30,52,13,-17
1491086964996,2,-16,-13,8,94,71,-77,-78,-14
1491086964996,2,20,-8,41,47,30,102,119,-1
1491086965031,3,-24,-33,-54,-74,-74,-51,-56,2
1491086965031,3,79,0,-13,6,12,76,-113,-73
1491086965032,0,-71,-12,0,-12,-49,-123,26,56
1491086965032,0,23,4,8,24,99,97,-21,67
1491086965033,1,-45,24,22,-18,11,89,-59,-60
1491086965033,1,7,-6,2,-9,-39,52,14,3
1491086965033,2,11,-5,-13,-49,-17,-19,-78,-14
1491086965033,2,3,-5,-12,-98,-128,37,-28,-26
1491086965068,3,15,-17,13,63,108,102,-17,-47
1491086965068,3,-11,24,14,36,40,-54,55,43
1491086965069,0,42,17,22,36,-23,44,96,29
1491086965069,0,-41,-22,-35,6,-120,-128,-111,-83
1491086965070,1,27,16,25,67,122,41,71,101
1491086965070,1,-82,-23,9,-53,-122,-78,-1,-23
1491086965071,2,71,9,-12,-25,-54,67,-34,-57
1491086965071,2,-16,-26,-18,18,57,-19,108,75
1491086965107,3,21,17,21,17,-45,-69,-74,-17
1491086965107,3,8,3,45,52,48,82,-7,11
1491086965107,0,-1,-18,-48,-52,9,-107,127,36
1491086965107,0,-29,7,3,-5,14,-39,-98,-48
1491086965108,1,-94,-15,-17,25,37,30,-27,-76
1491086965108,1,-51,-45,-4,44,-87,-107,71,22
1491086965143,2,30,40,6,-18,47,94,-85,-2
1491086965143,2,83,10,4,-94,-44,100,119,101
1491086965144,3,-73,-39,-27,-62,-118,-105,-93,-74
1491086965144,3,75,1,32,35,58,86,-3,20
1491086965145,0,-76,27,7,-68,-93,103,75,-6
1491086965145,0,-75,-53,-58,-37,-33,-101,-48,-40
1491086965146,1,68,24,-3,-108,-12,127,-59,17
1491086965146,1,42,17,-18,-64,-87,-48,-5,-8
1491086965181,2,33,-10,34,71,80,62,127,54
1491086965181,2,17,8,1,18,-56,-57,-90,-48
1491086965183,3,8,-15,-22,-126,-58,38,108,26
1491086965183,3,-39,-14,-33,61,7,-67,-128,-87
1491086965184,0,-32,33,56,113,125,89,82,41
1491086965184,0,98,22,24,76,34,-96,-69,55
1491086965185,1,-53,-28,-61,12,-73,-31,52,1
1491086965185,1,61,1,-20,52,127,111,22,-26
1491086965218,2,-10,-9,10,51,30,58,66,26
1491086965218,2,-94,22,56,-34,5,-46,-79,-39
1491086965219,3,115,14,21,122,55,86,-15,44
1491086965219,3,-96,-27,-41,-128,29,-104,-89,-13
1491086965256,0,-35,-24,-8,52,-15,36,24,-77
1491086965256,0,45,24,29,-39,75,112,111,28
1491086965257,1,-15,-3,14,109,-119,-24,-101,-29
1491086965257,1,-84,9,-2,-122,-128,95,71,-7
1491086965257,2,94,-26,-1,100,52,14,-51,35
1491086965257,2,-53,10,27,72,124,15,-64,-103
1491086965258,3,42,-4,-47,25,-116,54,84,64
1491086965258,3,54,18,-14,108,127,0,41,36
1491086965293,0,-113,-21,-36,17,-128,51,-31,-75
1491086965293,0,59,-23,-7,50,-21,-34,20,47
1491086965294,1,-25,27,46,109,127,-5,18,-24
1491086965294,1,-24,-18,-29,-52,-16,105,51,-28
1491086965295,2,30,-9,14,-117,39,-128,-83,48
1491086965295,2,-128,-40,-110,-99,-72,117,104,-96
1491086965296,3,46,56,95,-52,-91,-128,31,6
1491086965296,3,99,3,11,-47,-1,91,110,88
1491086965331,0,-48,-19,-15,-75,23,-102,-102,-110
1491086965331,0,-4,11,36,31,23,127,125,77
1491086965339,1,-21,18,-17,-128,54,112,48,-23
1491086965339,1,-11,-15,11,-26,-128,-61,-26,-30
1491086965340,2,24,-3,-48,-74,37,-101,-82,51
1491086965340,2,-61,-32,-29,-106,-76,-72,-100,-72
1491086965340,3,40,-7,11,54,82,123,95,53
1491086965340,3,-88,10,63,36,50,-104,-128,-47
1491086965369,0,54,12,-16,-93,-59,16,74,70
1491086965369,0,-26,-11,-10,70,107,127,39,-27
1491086965370,1,20,25,12,-87,-27,-38,-78,30
1491086965370,1,-57,-29,12,127,77,-8,-9,-39
1491086965370,2,-30,4,-43,-97,-97,-91,76,8
1491086965370,2,127,7,-29,13,62,10,-13,60
1491086965372,3,18,-17,26,-13,10,-15,-27,-54
1491086965372,3,-24,27,-25,-79,-40,38,-25,54
1491086965406,0,-36,5,4,-5,-67,14,65,-51
1491086965406,0,94,-1,10,-6,-13,6,-56,85
1491086965407,1,-62,-12,22,88,116,-63,-92,-53
1491086965407,1,-38,-22,-36,-113,-42,-62,6,7
1491086965407,2,28,-11,-1,42,79,87,-52,-17
1491086965407,2,28,23,33,-38,-110,127,16,-9
1491086965408,3,-10,-19,-56,44,21,-26,-4,6
1491086965408,3,59,17,16,-26,7,-53,13,23
1491086965443,0,25,13,36,-63,-102,67,72,63
1491086965443,0,-37,-8,17,49,127,-90,-57,11
1491086965444,1,50,11,-37,-109,-55,-56,127,45
1491086965444,1,-24,-25,-48,-46,-37,-4,-77,-68
1491086965445,2,37,11,55,96,29,102,37,9
1491086965445,2,-38,8,20,11,79,99,46,4
1491086965446,3,2,-7,33,80,77,21,78,-15
1491086965446,3,74,4,-61,-81,-90,33,-4,41
1491086965481,0,-34,-30,-41,-48,26,31,-99,-53
1491086965481,0,19,23,13,103,48,-25,48,21
1491086965482,1,-19,-11,33,85,-25,43,2,-20
1491086965482,1,-67,-18,3,-16,-9,7,-65,-45
1491086965482,2,1,-6,-70,-4,-8,26,5,1
1491086965482,2,-17,26,53,9,-98,44,15,1
1491086965483,3,-11,-4,-50,-110,4,-92,-106,17
1491086965483,3,-21,9,42,7,24,93,101,14
1491086965518,0,3,-23,-29,-21,-105,-103,-115,-22
1491086965518,0,-63,-21,-3,11,-59,97,-103,-125
1491086965519,1,91,44,48,43,51,46,55,106
1491086965519,1,-82,-4,5,-9,90,52,-46,-76
1491086965556,2,3,10,8,-67,-39,-37,-86,32
1491086965556,2,24,-5,7,-69,-12,39,51,4
1491086965557,3,-71,-25,-42,-105,-128,-31,-96,-26
1491086965557,3,16,0,10,101,61,98,74,8
1491086965557,0,15,20,26,60,59,-32,87,17
1491086965557,0,68,-2,25,60,7,69,-64,30
1491086965558,1,-77,-6,-25,-128,-63,96,-26,-50
1491086965558,1,66,11,-20,-97,-66,-84,85,61
1491086965593,2,-22,-3,10,-14,50,127,37,-16
1491086965593,2,17,-12,-35,-84,-4,-128,-44,4
1491086965594,3,-42,-7,-43,-27,-49,-61,77,-37
1491086965594,3,26,11,10,45,-33,100,-28,27
1491086965595,0,40,3,5,-2,102,-26,-68,9
1491086965595,0,-48,-22,-11,7,-65,-23,18,-50
1491086965596,1,12,22,-5,35,-48,26,-21,-10
1491086965596,1,32,4,1,69,53,-38,-57,18
1491086965631,2,-17,11,57,63,-71,97,113,60
1491086965631,2,-33,-20,-55,-23,-61,-80,44,-17
1491086965632,3,8,-17,-7,37,-39,-39,76,16
1491086965632,3,27,-7,21,53,-95,101,10,-17
1491086965632,0,-11,-3,-46,42,101,-20,-43,-20
1491086965632,0,-36,6,2,12,0,-24,-42,-4
1491086965633,1,9,-21,3,27,-23,-67,-47,1
1491086965633,1,22,25,10,31,97,86,41,19
1491086965668,2,-15,-11,-25,4,-41,53,-87,-39
1491086965668,2,-45,-8,0,6,-48,25,-15,-6
1491086965669,3,-37,-22,2,21,20,86,39,0
1491086965669,3,25,10,1,24,-8,24,-29,-16
1491086965670,0,-26,-1,41,53,67,-55,-90,-49
1491086965670,0,14,15,-64,-47,30,84,96,49
1491086965671,1,2,-20,7,31,-40,-72,-128,-73
1491086965671,1,-54,-26,38,50,34,107,28,-23
1491086965706,2,23,4,-45,-6,-66,12,75,9
1491086965706,2,11,11,54,87,75,0,27,3
1491086965707,3,38,16,0,-7,44,28,-6,25
1491086965707,3,-26,-14,-3,-64,-92,-114,-80,-28
1491086965707,0,-4,17,50,28,-36,66,50,0
1491086965707,0,28,1,-83,-128,72,-109,-35,5
1491086965708,1,22,8,-9,-29,-17,-39,-10,52
1491086965708,1,-38,1,9,45,13,44,73,14
1491086965743,2,30,-11,49,92,56,-78,-15,14
1491086965743,2,10,-3,-2,-66,51,-78,-16,2
1491086965744,3,-53,-12,2,-27,-5,11,49,-31
1491086965744,3,2,1,8,-3,-40,-2,-111,-7
1491086965745,0,-23,0,-8,19,33,6,-32,-23
1491086965745,0,-7,5,56,38,9,40,62,20
1491086965746,1,20,12,-11,-15,50,29,-32,0
1491086965746,1,14,-1,-13,8,-29,-46,40,31
1491086965781,2,-6,-11,-3,9,23,13,15,11
1491086965781,2,-46,-23,-36,-82,-115,-53,-94,-61
1491086965781,3,63,26,59,83,80,60,82,53
1491086965781,3,19,29,-14,-47,-34,-28,-4,-9
1491086965782,0,12,3,26,42,18,70,-49,-25
1491086965782,0,4,-4,23,46,76,127,77,49
1491086965784,1,8,7,-5,-29,-43,-38,-112,-68
1491086965784,1,11,-19,-43,20,59,-12,21,11
1491086965818,2,-15,-3,5,-67,-27,-93,-103,-35
1491086965818,2,22,20,-30,-26,-14,63,12,26
1491086965819,3,-54,1,58,108,44,87,12,-20
1491086965819,3,27,2,-30,-55,59,53,-32,-1
1491086965820,0,-68,-18,-36,-128,-124,-86,2,-59
1491086965820,0,37,-3,14,57,-13,-93,-41,28
1491086965856,1,-15,-27,-24,-11,41,-6,8,4
1491086965856,1,-20,-9,70,116,106,47,1,-52
1491086965857,2,-25,-33,-21,36,-36,114,72,96
1491086965857,2,54,-13,-51,-95,-40,-44,-38,-29
1491086965857,3,-15,-4,79,87,96,92,-85,-92
1491086965857,3,-15,-14,-90,-105,-72,-128,-61,30
1491086965858,0,5,0,-43,-46,-30,55,-18,-32
1491086965858,0,-18,17,87,127,89,105,112,-2
1491086965893,1,-11,13,-54,-128,-113,-58,36,36
1491086965893,1,-3,13,39,26,83,51,60,-4
1491086965894,2,5,5,-22,-10,55,46,24,19
1491086965894,2,9,7,-4,11,11,-78,8,15
1491086965931,3,-1,18,16,-24,43,-3,-12,11
1491086965931,3,-11,-17,50,89,68,37,68,4
1491086965932,0,19,22,-13,-32,13,-16,-24,0
1491086965932,0,-17,-65,-33,-29,-58,127,108,14
1491086965932,1,-27,-44,-71,-91,-104,-79,-99,6
1491086965932,1,16,-41,27,31,7,16,90,-17
1491086965933,2,-1,-11,-20,-69,-16,40,64,22
1491086965933,2,4,33,-3,46,-38,51,-107,-71
1491086965968,3,21,29,-4,-39,-9,33,127,75
1491086965968,3,-29,34,-8,0,-1,-3,-81,-26
1491086965969,0,31,46,-3,27,51,2,54,-5
1491086965969,0,-12,30,22,-6,-76,-54,-61,12
1491086965970,1,-58,-36,-15,1,-26,69,67,11
1491086965970,1,4,5,-65,4,-31,-66,-71,-3
1491086965971,2,-29,-19,84,18,-71,-39,-4,-43
1491086965971,2,11,19,-32,-93,-54,-52,-39,43
1491086966043,3,26,23,-15,13,-14,-7,20,1
1491086966043,3,10,-10,-10,-16,-37,4,-2,36
1491086966044,0,-99,23,-3,-7,-54,-7,-14,-13
1491086966044,0,69,36,-42,42,36,5,8,52
1491086966045,1,9,11,66,82,89,98,-9,-38
1491086966045,1,-34,0,-80,-109,-75,27,-29,-3
1491086966046,2,33,-116,-23,-25,-13,114,99,23
1491086966046,2,-33,-64,48,25,-10,46,85,-22
1491086966081,3,46,-26,-13,11,20,35,-80,-1
1491086966081,3,-15,3,18,15,-12,32,-19,-21
1491086966082,0,-11,17,21,46,15,29,6,-13
1491086966082,0,-52,-4,8,-59,6,41,9,-15
1491086966083,1,-11,6,-17,33,24,29,27,34
1491086966083,1,-17,-8,65,59,-27,-54,16,-5
1491086966083,0,20,30,18,64,85,-29,-19,37
1491086966083,0,-24,-5,-9,-25,42,-79,15,7
1491086966119,1,-19,-18,5,9,56,-19,63,3
1491086966119,1,83,6,-3,43,115,58,70,50
1491086966120,2,-29,-1,-8,-43,-57,-6,-83,-38
1491086966120,2,5,-19,52,65,39,-89,-66,19
1491086966121,0,5,-36,-18,-8,-17,110,121,-1
1491086966121,0,-1,-13,54,25,29,-16,-72,-25
1491086966122,1,26,15,3,46,11,23,-27,-4
1491086966122,1,-1,23,28,67,98,72,15,15
1491086966193,2,23,58,14,95,-21,-10,0,11
1491086966193,2,-11,36,-44,-54,-55,-39,28,5
1491086966194,3,23,49,12,-10,44,49,127,43
1491086966194,3,-20,41,9,7,-36,-122,-125,-44
1491086966231,0,23,36,40,19,57,49,15,29
1491086966231,0,-9,-2,-39,-21,-45,-30,-6,-24
1491086966232,1,-17,-34,-80,-119,-89,-4,26,29
1491086966232,1,15,-24,111,117,104,41,59,8
1491086966233,2,22,-11,-15,-109,67,110,20,30
1491086966233,2,0,88,-52,-102,-113,2,-71,-48
1491086966234,3,17,92,-27,-56,-74,-57,-68,-11
1491086966234,3,-5,35,0,40,17,94,50,51
1491086966268,0,18,-33,22,113,30,56,71,37
1491086966268,0,-6,-128,5,38,47,127,100,1
1491086966269,3,7,87,48,127,11,-20,-1,35
1491086966269,3,-12,89,-73,-128,-89,54,66,-49
1491086966270,2,-7,37,33,-9,86,79,68,0
1491086966270,2,-2,-7,-32,-75,57,-92,-48,-26
1491086966271,3,-5,-22,-8,18,-19,69,-54,-17
1491086966271,3,-19,-30,29,10,52,-22,64,-11
1491086966306,0,-6,-79,-80,-87,-95,-46,6,8
1491086966306,0,25,-39,40,42,23,-18,-93,18
1491086966307,1,-13,-34,-21,-128,-84,117,110,-34
1491086966307,1,-17,-8,31,75,-27,-69,-100,-81
1491086966308,2,-3,10,-13,-59,59,-61,-47,-6
1491086966308,2,0,-38,-15,32,64,-111,22,4
1491086966308,3,13,-61,53,123,-26,107,22,37
1491086966308,3,-20,-13,-107,-107,-65,-71,-99,-8
1491086966343,0,-7,7,-8,10,-96,41,-21,-23
1491086966343,0,-11,4,1,19,-73,-38,-35,11
1491086966344,1,-5,18,74,95,127,64,35,25
1491086966344,1,4,36,35,-25,44,127,47,8
1491086966345,2,15,30,-1,-99,-63,-59,28,54
1491086966345,2,-26,-22,-54,-83,-44,-23,-67,-54
1491086966346,3,-23,1,-14,-14,0,55,71,28
1491086966346,3,-46,5,22,85,17,41,52,-47
1491086966381,0,74,11,61,127,60,-20,-8,49
1491086966381,0,26,-9,-61,-69,-15,-9,122,25
1491086966382,1,-24,-16,-30,7,35,-128,-63,8
1491086966382,1,13,15,66,18,75,127,111,13
1491086966383,2,-7,-15,-69,-81,-108,-36,65,-8
1491086966383,2,19,-8,50,85,85,127,-28,23
1491086966383,3,-7,3,-14,-7,44,-128,-124,-35
1491086966383,3,-12,-25,-27,-102,57,-19,-3,-27
1491086966419,0,-57,-23,44,24,-22,127,66,-12
1491086966419,0,-7,-1,-15,-52,-23,-65,-93,-8
1491086966420,1,11,1,7,-10,37,-82,106,4
1491086966420,1,14,-7,4,-40,1,85,-95,-41
1491086966421,2,44,13,32,100,127,-66,-79,11
1491086966421,2,28,-5,-40,-40,-11,123,86,28
1491086966422,3,-44,-14,-19,-54,-64,-10,-45,-30
1491086966422,3,31,-1,-2,92,85,7,-9,65
1491086966456,0,-41,-50,-61,-123,-82,-17,44,-35
1491086966456,0,-20,34,67,96,116,127,-10,-17
1491086966457,1,8,-1,-10,-53,-22,16,31,-15
1491086966457,1,-3,7,13,30,-29,-65,-24,1
1491086966458,2,79,27,13,14,85,127,63,25
1491086966458,2,-6,-25,-13,-34,-128,-47,105,23
1491086966459,3,0,-13,-7,-65,-109,107,-29,-59
1491086966459,3,17,8,15,80,72,57,9,33
1491086966493,0,-58,-20,-33,-14,-82,-43,63,0
1491086966493,0,17,7,23,-36,50,-32,32,23
1491086966494,1,14,1,-42,13,73,-35,-8,2
1491086966494,1,38,-19,14,0,-23,-10,14,32
1491086966495,2,-51,9,41,27,12,-25,-17,-31
1491086966495,2,7,-18,-21,-89,-40,25,-1,-14
1491086966496,3,-11,16,24,52,43,3,-1,11
1491086966496,3,-52,-23,-47,-124,-128,-51,-17,-15
1491086966531,0,66,-5,-9,51,-2,85,-82,-2
1491086966531,0,-82,-22,11,94,71,-21,54,-51
1491086966568,1,37,7,-22,-124,-8,93,80,27
1491086966568,1,-21,18,70,59,-77,-84,-42,-21
1491086966570,2,79,10,-60,-65,-1,0,-75,18
1491086966570,2,-43,-18,3,-45,-128,-29,-81,-34
1491086966570,3,89,5,10,87,79,127,-20,45
1491086966570,3,-14,0,-54,-128,-87,-104,22,39
1491086966571,0,-36,1,35,91,21,65,13,-26
1491086966571,0,48,-8,36,110,105,16,-89,6
1491086966606,1,-97,-5,0,-108,-65,-67,41,-71
1491086966606,1,65,18,-38,-35,0,7,-75,37
1491086966607,2,-25,-2,33,60,51,-54,64,38
1491086966607,2,11,17,-16,42,91,122,58,22
1491086966607,3,-41,-32,-5,14,-36,42,-22,-47
1491086966607,3,-34,4,-24,101,89,-82,78,26
1491086966608,0,-79,-4,-25,-128,-73,-8,-128,-102
1491086966608,0,24,7,49,89,14,99,98,46
1491086966644,1,74,19,12,-8,25,-98,22,7
1491086966644,1,-51,-12,-66,-105,5,-23,12,-22
1491086966645,2,-9,1,27,117,127,53,54,29
1491086966645,2,-34,1,11,-45,-128,7,30,-23
1491086966646,0,-18,-5,-31,-84,-79,-82,66,7
1491086966646,0,-9,7,18,-57,-120,-38,25,9
1491086966647,1,66,20,2,49,-32,88,-5,42
1491086966647,1,-100,-45,6,49,22,97,54,-42
1491086966681,2,72,13,10,64,-17,30,-10,13
1491086966681,2,2,0,4,-2,-34,26,-54,-23
1491086966683,3,15,-8,-42,-51,-35,-128,99,59
1491086966683,3,21,9,18,2,113,127,-33,-22
1491086966684,0,4,-27,-69,-128,-123,-5,12,-1
1491086966684,0,16,9,3,-23,-14,-128,-33,16
1491086966685,1,-58,-8,6,97,87,127,-8,-27
1491086966685,1,84,-2,6,10,-7,32,-41,-11
1491086966718,2,-7,22,39,124,127,80,30,-8
1491086966718,2,42,-16,-29,-71,54,-87,-115,-3
1491086966719,3,-42,12,30,95,12,103,84,25
1491086966719,3,-54,5,11,-94,-6,-71,-124,-101
1491086966720,0,25,-12,-40,33,74,-10,42,31
1491086966720,0,-6,-28,-48,-51,-41,123,127,7
1491086966721,1,49,39,44,33,14,6,12,57
1491086966721,1,-34,-5,42,121,90,-33,102,4
1491086966756,2,-31,15,24,-75,-103,-36,-102,-31
1491086966756,2,-96,-35,-74,-104,-75,23,-82,-82
1491086966757,3,64,-5,-3,-25,-92,-78,-78,29
1491086966757,3,-2,9,40,50,-21,108,52,-8
1491086966757,0,6,-26,-49,-66,37,-76,-14,14
1491086966757,0,4,38,63,5,-14,75,-53,14
1491086966793,1,-77,-25,-50,37,45,-86,-100,-47
1491086966793,1,23,25,-18,-105,-109,-33,63,87
1491086966795,2,12,12,34,56,25,-16,25,-5
1491086966795,2,93,18,10,80,97,112,127,91
1491086966796,3,-59,-14,-28,-128,-104,6,-39,-78
1491086966796,3,75,-32,-68,101,52,-128,-59,19
1491086966797,0,-96,-12,32,29,-32,127,25,29
1491086966797,0,35,29,27,16,-11,13,49,5
1491086966831,1,-13,-23,12,114,4,118,127,19
1491086966831,1,37,41,26,-101,-103,-30,-91,45
1491086966833,2,-76,-42,-58,-128,-95,-1,-59,-48
1491086966833,2,99,22,62,111,-28,-88,-6,49
1491086966835,3,-23,6,-40,-128,-110,16,-80,-2
1491086966835,3,17,8,-66,-107,-128,26,43,-6
1491086966836,0,-28,2,20,5,-19,50,-2,-41
1491086966836,0,-95,-44,0,23,27,89,19,-22
1491086966868,1,8,35,42,97,-15,-50,-43,-7
1491086966868,1,2,9,22,-1,39,23,61,36
1491086966870,2,50,12,-12,-51,14,29,18,-12
1491086966870,2,-38,21,-1,45,22,-45,-76,-44
1491086966871,3,0,-21,29,22,50,79,13,-2
1491086966871,3,-45,-2,-14,-64,123,40,104,34
1491086966872,0,54,1,-3,-38,17,-45,-73,0
1491086966872,0,37,-9,34,-21,21,-3,-43,12
1491086966943,1,-91,-7,-34,-14,127,-1,-22,-32
1491086966943,1,6,9,21,-17,-56,-47,28,-4
1491086966944,2,4,-29,15,115,16,-52,53,36
1491086966944,2,-70,-11,-18,-98,-10,1,-52,-22
1491086966945,3,118,-7,-4,26,2,3,35,52
1491086966945,3,-53,-15,7,14,15,36,-10,-29
1491086966946,0,-92,-10,-49,-48,-48,72,90,-21
1491086966946,0,18,-17,5,49,-74,-69,-57,-36
1491086966981,1,11,8,34,-55,-65,109,60,8
1491086966981,1,-16,-19,-68,-64,75,-48,-113,-44
1491086966982,2,-30,5,57,127,120,127,4,7
1491086966982,2,111,26,-81,39,127,-70,39,103
1491086966982,3,-79,-3,-11,10,-38,72,-31,-105
1491086966982,3,55,-6,60,99,-128,-10,-23,20
1491086966983,2,115,49,127,107,-66,-80,-121,17
1491086966983,2,-77,-35,-80,-123,-87,35,21,-32
1491086967018,3,8,5,-9,103,2,-9,39,34
1491086967018,3,-14,-7,5,-27,42,-14,-103,-30
1491086967019,0,-31,13,-3,-22,-105,-16,-32,21
1491086967019,0,38,8,-48,-37,18,-79,-68,-32
1491086967020,1,-27,0,62,84,-36,60,97,8
1491086967020,1,-81,-22,-65,-121,80,-80,-2,16
1491086967021,2,94,31,25,58,18,111,127,71
1491086967021,2,4,19,92,-38,-50,-68,-24,-21
1491086967056,3,-56,-21,-67,-105,-30,-9,-94,-7
1491086967056,3,53,0,-6,-39,-103,48,-95,-3
1491086967057,0,-50,-22,10,33,127,22,-125,-42
1491086967057,0,-73,-23,-79,-69,-113,25,47,-26
1491086967057,1,108,27,-2,-94,-33,47,63,98
1491086967057,1,24,-1,-10,-24,2,26,14,10
1491086967131,2,-82,-24,-50,-98,-54,-30,19,-77
1491086967131,2,21,-7,50,127,34,127,23,30
1491086967132,3,-56,1,42,-62,-54,-89,58,-25
1491086967132,3,-58,-1,-8,55,-20,-84,-90,-30
1491086967132,0,13,1,-14,14,55,90,97,-14
1491086967132,0,-27,-26,2,-74,-32,75,75,-4
1491086967133,1,-17,9,-19,-8,26,-89,-59,-27
1491086967133,1,11,-13,36,32,31,8,103,53
1491086967168,2,-9,6,34,96,39,90,45,10
1491086967168,2,-18,29,57,5,52,-36,95,31
1491086967169,3,-39,5,-40,-11,79,-85,-119,-56
1491086967169,3,-106,-51,-17,0,-63,127,56,-62
1491086967170,0,33,18,69,5,-80,-68,-59,-6
1491086967170,0,66,27,-29,-18,56,26,61,36
1491086967171,0,83,-36,-91,-128,-128,-128,-114,-4
1491086967171,0,27,25,-8,94,10,-67,-85,-60
1491086967206,1,-11,17,65,6,53,31,28,31
1491086967206,1,-42,-17,-29,65,-70,2,106,34
1491086967281,2,-45,26,-35,-121,-86,44,26,-61
1491086967281,2,-53,-48,-1,-9,108,73,-72,-28
1491086967282,0,-84,-16,-8,48,120,-65,-79,19
1491086967282,0,33,-4,7,103,-58,70,57,-76
1491086967283,1,-72,-2,-20,24,101,127,-1,-5
1491086967283,1,61,10,13,-100,-122,-18,10,54
1491086967284,2,-62,-12,74,90,58,40,60,-26
1491086967284,2,41,29,-45,-42,53,-62,-63,9
1491086967319,3,-81,-17,-34,58,77,14,42,-46
1491086967319,3,-20,-13,-11,-54,-64,-44,109,30
1491086967320,0,49,7,-8,-83,0,-15,-120,16
1491086967320,0,-22,4,36,112,61,13,31,39
1491086967320,1,70,15,-10,-77,-37,122,-50,-8
1491086967320,1,-55,-33,-69,57,60,-74,-128,-64
1491086967321,3,-7,-3,-11,-40,-37,122,42,-37
1491086967321,3,-38,-2,42,62,-1,-67,-93,-34
1491086967393,0,107,11,-71,-128,-85,71,106,97
1491086967393,0,-31,-10,40,127,60,-89,-57,-54
1491086967394,1,55,22,47,27,62,32,36,46
1491086967394,1,-23,-20,-45,-122,-113,-3,-35,-18
1491086967395,3,-24,-15,-18,-18,-80,-19,-26,0
1491086967395,3,78,31,65,119,34,127,53,14
1491086967396,0,-30,-21,-32,9,66,-105,-1,-40
1491086967396,0,-34,-4,-52,-84,-87,-83,-70,-4
1491086967431,1,12,4,12,-128,-98,76,7,-20
1491086967431,1,-12,20,-1,127,97,107,115,24
1491086967432,2,37,1,36,-64,-32,-72,-126,24
1491086967432,2,-36,-13,-12,66,6,112,120,-1
1491086967433,3,-7,-25,-81,-107,51,-90,-61,-30
1491086967433,3,29,27,78,-37,14,-10,27,50
1491086967434,2,-61,-1,43,28,127,102,-39,-46
1491086967434,2,14,-18,-48,-50,-37,-29,-46,41
1491086967468,3,-64,-2,-33,-52,-83,38,46,-72
1491086967468,3,8,19,49,25,-21,33,-98,-18
1491086967469,0,-30,-9,-38,1,65,41,47,-21
1491086967469,0,14,7,46,27,31,-29,-60,37
1491086967470,2,-20,-22,-12,-5,-59,-24,11,-2
1491086967470,2,-7,-8,-14,-91,-14,-24,-53,-85
1491086967506,3,42,23,-1,-128,-73,36,13,65
1491086967506,3,-68,-7,56,100,54,45,-35,-50
1491086967507,0,48,9,-24,-92,-49,-57,58,51
1491086967507,0,19,1,12,-99,22,-51,18,5
1491086967507,1,-51,-42,-47,-44,-66,23,-17,-6
1491086967507,1,47,25,-81,6,-90,-24,47,-2
1491086967508,2,12,22,57,25,-17,-7,-69,26
1491086967508,2,-22,10,59,71,-25,124,70,11
1491086967544,3,-14,-8,-34,44,-35,-65,-57,7
1491086967544,3,-23,-15,21,42,-46,1,10,-57
1491086967545,0,32,-1,10,49,89,46,19,-6
1491086967545,0,3,-5,-54,29,-128,-90,28,30
1491086967546,2,42,-4,47,13,-106,-81,4,37
1491086967546,2,-11,0,-17,20,127,5,-42,-37
1491086967551,3,34,15,-22,-8,-33,-40,1,26
1491086967551,3,-59,-7,35,-4,90,-51,-4,-23
1491086967581,0,-1,16,-14,3,-52,12,2,-18
1491086967581,0,66,11,29,13,-38,102,85,42
1491086967582,1,6,-6,-37,2,15,-59,-85,-20
1491086967582,1,21,-9,-25,-13,-128,-39,51,-10
1491086967582,2,-53,-1,10,13,-35,108,2,-4
1491086967582,2,23,0,-59,26,95,73,-17,3
1491086967583,3,4,13,9,-11,-128,2,-26,3
1491086967583,3,-3,0,42,24,-56,127,4,35
1491086967618,0,2,-5,-19,-12,-81,87,39,9
1491086967618,0,-11,-5,67,89,-51,-99,0,-9
1491086967619,1,-8,16,18,106,127,-102,-26,8
1491086967619,1,29,1,-62,-95,27,-114,-11,-7
1491086967619,2,3,7,10,61,66,-94,-21,-11
1491086967619,2,-17,-11,24,6,42,-16,-39,-3
1491086967621,3,-5,6,20,26,115,26,47,1
1491086967621,3,-5,-18,-18,28,8,-111,-25,-3
1491086967656,0,-18,1,-9,21,24,85,-60,-16
1491086967656,0,21,3,11,-36,5,29,2,-18
1491086967657,1,-4,-11,9,-39,26,-30,-52,-19
1491086967657,1,-16,-5,-36,14,37,23,85,21
1491086967693,2,42,6,20,-79,8,-48,40,0
1491086967693,2,-4,37,87,108,80,101,10,35
1491086967694,3,-22,-8,-93,-119,-75,-53,41,-19
1491086967694,3,-9,8,16,23,-47,-43,-52,-10
1491086967768,0,-34,-30,-46,99,90,-38,-6,-5
1491086967768,0,5,-7,-12,-26,-19,6,12,-28
1491086967769,1,20,-10,42,22,16,52,17,18
1491086967769,1,-21,17,32,72,67,91,67,-1
1491086967770,2,-4,-3,-17,-79,-43,-8,-53,-3
1491086967770,2,-14,-9,-24,-32,-89,-64,97,-6
1491086967771,3,21,10,13,-2,8,-89,-77,20
1491086967771,3,-18,-14,-14,-49,-32,47,15,-24
1491086967806,0,-3,-5,16,32,13,3,-33,-11
1491086967806,0,8,-10,15,-14,-56,-19,-15,3
1491086967807,1,4,37,10,13,89,127,89,20
1491086967807,1,15,-10,-36,-87,-102,32,-65,3
1491086967807,0,15,0,-8,-19,23,59,87,21
1491086967807,0,-15,54,-11,-38,-64,-114,-33,9
1491086967808,0,-6,-43,5,-29,-42,73,11,6
1491086967808,0,-11,-90,-19,-20,-22,31,-13,0
1491086967843,1,1,-86,-25,-11,7,15,29,20
1491086967843,1,5,-76,5,-56,18,-11,-14,-15
1491086967844,2,-5,-28,12,47,56,-7,31,8
1491086967844,2,2,-14,38,61,71,51,25,13
1491086967845,0,10,-8,40,25,95,29,34,6
1491086967845,0,5,36,24,34,70,45,49,-14
1491086967846,1,27,49,54,82,91,-13,9,28
1491086967846,1,-4,41,-63,-63,-23,-19,-43,23
1491086967881,2,9,64,-11,-50,-84,-47,87,42
1491086967881,2,3,32,-13,22,-52,36,-47,-51
1491086967882,3,-16,14,-28,26,20,-34,-6,-21
1491086967882,3,15,54,69,116,119,88,60,91
1491086967882,0,-3,20,-11,1,113,-74,-96,-42
1491086967882,0,-58,26,-17,-53,-125,-100,30,-12
1491086967883,1,-37,27,-6,-51,24,125,45,-6
1491086967883,1,-6,0,-18,-17,-10,72,42,-22
1491086967918,2,13,3,10,24,54,51,-31,4
1491086967918,2,39,14,32,91,78,16,14,23
1491086967919,3,41,15,-71,-128,-104,1,-61,-7
1491086967919,3,19,-5,35,31,48,-19,-3,-4
1491086967920,0,13,-8,-18,-4,-86,-3,36,7
1491086967920,0,-9,-24,-73,-124,-55,-110,-61,-19
1491086967921,1,4,-30,14,42,0,36,44,14
1491086967921,1,17,-36,11,81,100,102,33,-21
1491086967956,2,-22,-5,17,-37,-18,-34,-18,-15
1491086967956,2,-23,-26,17,58,120,117,79,-15
1491086967957,3,-36,-30,-37,-119,-52,14,-7,37
1491086967957,3,-9,0,-26,-36,-105,-105,-76,-69
1491086967958,0,-43,-12,51,70,127,120,22,18
1491086967958,0,-42,-7,5,-92,-94,-40,-12,-7
1491086967959,1,-10,-14,74,110,61,119,38,26
1491086967959,1,-14,-35,-34,-82,-102,1,24,-20
1491086967993,2,-3,-3,-43,-39,-43,-34,48,0
1491086967993,2,41,-19,-41,75,91,-1,-83,-3
1491086967994,3,1,-17,-5,-14,-74,-61,5,10
1491086967994,3,22,-8,14,-2,61,19,21,9
1491086967995,0,-2,-4,-30,37,-14,-3,-59,-25
1491086967995,0,36,-19,30,43,37,16,35,24
1491086967996,1,17,-23,-7,-59,-12,-12,2,-29
1491086967996,1,-8,-56,21,111,92,112,113,44
1491086968031,2,30,-35,-44,-116,-108,-93,-92,-18
1491086968031,2,-8,-4,-64,-96,-107,-66,-111,-64
1491086968032,3,-27,-24,14,85,88,64,56,-6
1491086968032,3,-8,-17,37,89,85,78,18,12
1491086968032,0,-19,-32,-8,-29,2,31,58,26
1491086968032,0,-78,-29,-5,-45,-11,-3,19,-3
1491086968033,1,65,50,1,-66,-63,-40,-39,19
1491086968033,1,-54,58,-12,-12,-4,-23,-4,5
1491086968068,2,28,58,24,44,24,-18,-26,-4
1491086968068,2,-47,58,20,4,-11,0,-3,-10
1491086968069,3,34,57,-17,-23,4,-27,-25,-6
1491086968069,3,10,46,35,-50,31,36,-74,-10
1491086968070,0,15,57,35,62,72,-30,-30,1
1491086968070,0,2,32,-23,-48,-100,-103,-23,-11
1491086968071,1,17,22,51,117,97,101,64,5
1491086968071,1,5,11,-44,-128,-75,-92,-80,-11
1491086968106,2,11,-19,-24,-18,48,30,23,-8
1491086968106,2,7,6,3,-42,-23,5,1,-8
1491086968106,3,-3,1,28,97,104,54,-18,-9
1491086968106,3,5,2,-25,0,-29,-4,16,23
1491086968107,0,22,-12,27,29,21,56,69,24
1491086968107,0,4,-38,-21,23,23,-4,24,46
1491086968181,1,60,36,-9,-82,-128,-128,-52,-12
1491086968181,1,10,-27,28,62,70,50,-26,-3
1491086968181,2,-33,-53,47,113,53,101,77,-41
1491086968181,2,16,5,-71,-81,-68,-11,-83,12
1491086968182,3,-65,-52,17,77,56,60,10,-15
1491086968182,3,-73,18,-25,-22,49,-63,-26,-49
1491086968183,0,90,41,19,45,65,127,24,51
1491086968183,0,9,11,-1,-15,91,-40,28,20
1491086968218,1,-97,-39,-26,-70,62,54,-31,-49
1491086968218,1,-17,-30,18,126,49,37,45,15
1491086968219,2,-36,-31,-20,-67,-111,-7,34,-28
1491086968219,2,-45,-6,5,-40,-40,5,-13,-4
1491086968256,3,2,12,-19,-85,-128,6,-17,11
1491086968256,3,76,-2,-11,-68,-98,11,-21,21
1491086968257,1,34,0,-3,-40,-10,-119,-128,4
1491086968257,1,-44,-7,-30,-57,-114,76,-9,-30
1491086968258,2,17,-20,33,113,30,127,25,19
1491086968258,2,44,10,-9,-12,26,-66,-12,22
1491086968258,3,-6,-31,27,68,81,75,127,4
1491086968258,3,127,18,5,84,31,-33,-53,43
1491086968293,1,4,0,39,95,48,68,36,44
1491086968293,1,-49,14,-45,-18,45,-74,5,-2
1491086968294,2,-60,-8,0,-21,-22,-37,-28,-35
1491086968294,2,23,-3,89,127,106,127,85,7
1491086968331,3,-16,-24,-88,-128,-113,-111,-128,-46
1491086968331,3,-75,-14,34,73,15,90,-30,-78
1491086968332,0,19,-11,-27,-18,48,-16,104,49
1491086968332,0,52,-35,-56,-25,5,80,3,8
1491086968333,1,-84,9,12,88,95,35,-91,-81
1491086968333,1,54,-4,52,20,61,66,124,53
1491086968333,2,17,47,-68,-128,-63,-54,-6,6
1491086968333,2,-2,-26,33,90,79,111,-1,-19
1491086968368,0,-16,-25,12,-50,38,127,82,57
1491086968368,0,28,21,-11,60,21,-13,107,5
1491086968369,1,29,21,65,52,19,25,-38,1
1491086968369,1,-90,-12,6,-28,-96,127,57,-20
1491086968370,2,111,34,-44,-46,-54,-51,38,85
1491086968370,2,-75,-28,-23,-128,-128,9,-94,-70
1491086968371,0,-81,10,28,-82,-101,-65,-103,-111
1491086968371,0,-22,-25,24,-14,27,-25,86,67
1491086968406,1,31,-21,-123,-128,19,-61,-44,-47
1491086968406,1,-46,1,86,94,-14,86,44,-19
1491086968407,2,61,6,-27,-73,16,-112,-54,68
1491086968407,2,-26,2,41,25,-74,125,-112,-66
1491086968407,0,34,5,92,127,127,127,25,19
1491086968407,0,-10,0,-54,-107,-59,-123,-70,-22
1491086968408,1,-8,12,-15,-109,-128,-26,56,42
1491086968408,1,33,-10,4,53,-45,55,-4,27
1491086968443,2,24,-4,-45,-26,-17,-76,-99,-94
1491086968443,2,-27,20,40,39,113,127,-28,31
1491086968444,3,-10,-19,-13,10,-33,111,38,-33
1491086968444,3,26,26,-4,-105,-81,-44,-14,31
1491086968445,0,-23,-18,29,110,65,-43,-63,-22
1491086968445,0,113,18,2,6,-22,21,50,44
1491086968446,1,-73,-12,-31,-128,-68,-9,-15,9
1491086968446,1,-48,-9,-4,26,-38,60,-40,-62
1491086968481,2,64,2,1,-8,-50,72,49,28
1491086968481,2,-10,-6,-65,-79,-99,-124,-77,1
1491086968481,3,24,27,127,127,92,127,72,42
1491086968481,3,54,-1,-101,-128,-40,-12,49,21
1491086968482,0,48,60,12,-62,-14,58,-46,21
1491086968482,0,-24,-15,44,126,104,-78,-66,-13
1491086968483,1,-40,-26,-48,-91,13,37,83,-73
1491086968483,1,56,35,67,94,67,-31,-15,53
1491086968518,2,-37,-27,-7,28,91,94,89,7
1491086968518,2,20,23,-43,-121,-128,-71,-71,2
1491086968519,3,-38,22,31,114,77,106,90,-15
1491086968519,3,38,-33,20,40,-55,39,-73,-24
1491086968520,0,-91,-39,-93,-92,-102,4,99,-20
1491086968520,0,59,47,113,-9,-35,-50,-31,34
1491086968556,1,22,-8,-41,32,106,-123,-60,54
1491086968556,1,-14,-5,-8,-46,-68,17,17,-67
1491086968556,2,26,19,43,101,61,-104,53,67
1491086968556,2,-79,-35,-65,-118,48,25,73,-26
1491086968557,3,44,-3,-6,-8,-62,71,-57,0
1491086968557,3,-43,8,29,-91,-42,-127,-50,3
1491086968558,0,10,-35,-85,-94,-45,1,-127,-14
1491086968558,0,4,4,69,101,117,127,127,-48
1491086968593,1,-20,10,-36,-102,-98,-128,-116,-14
1491086968593,1,-40,-24,-8,30,34,83,51,0
1491086968595,2,-21,19,49,76,86,-7,-101,-42
1491086968595,2,18,-12,-11,-75,-53,90,105,-22
1491086968595,3,95,44,32,84,41,127,10,119
1491086968595,3,-59,-20,18,38,86,92,9,-20
1491086968596,0,-22,4,-41,-92,-128,64,-24,-33
1491086968596,0,22,4,42,-25,-83,-11,-76,-18
1491086968631,1,-4,-45,-44,6,58,2,1,51
1491086968631,1,69,58,41,86,46,47,55,-47
1491086968631,2,-31,-7,26,-53,-33,-5,-54,19
1491086968631,2,10,-12,-4,86,91,88,100,28
1491086968632,3,35,17,29,-82,-62,-128,-81,-45
1491086968632,3,-60,-58,-55,77,20,-72,-45,16
1491086968633,0,-1,11,57,11,103,127,127,4
1491086968633,0,22,7,-71,-55,-128,-94,-51,47
1491086968668,1,-39,-26,-51,-128,-42,74,109,-44
1491086968668,1,-104,6,30,60,-5,-7,-68,-5
1491086968706,2,86,-11,-45,48,34,76,-44,-46
1491086968706,2,-34,5,51,-36,-71,23,-12,35
1491086968707,3,69,7,-5,34,126,12,34,50
1491086968707,3,-20,-17,-42,-100,-93,19,-103,-35
1491086968707,0,-92,-21,-6,-24,27,64,115,-13
1491086968707,0,27,5,-6,27,7,-65,-52,-16
1491086968708,1,-71,-30,-20,-34,-97,75,19,-46
1491086968708,1,-42,-5,7,-118,43,-52,-75,-12
1491086968743,2,92,76,101,99,-81,47,70,120
1491086968743,2,-74,-15,-47,127,127,1,-80,-69
1491086968744,3,-17,53,7,-99,-128,-66,40,11
1491086968744,3,-2,2,45,73,120,-80,91,43
1491086968745,0,-10,-17,-37,-76,-91,-43,-93,-25
1491086968745,0,-101,-13,-29,-120,62,-13,-32,-2
1491086968746,1,121,14,78,123,-4,25,-70,-37
1491086968746,1,110,55,-60,-26,63,25,92,72
1491086968781,2,-92,-32,-24,-118,35,-1,-115,-79
1491086968781,2,-7,-14,2,1,-127,116,106,-13
1491086968782,3,-83,-6,68,30,98,93,76,51
1491086968782,3,52,-13,-65,-128,-128,-40,-41,53
1491086968783,1,18,15,-7,123,79,61,35,13
1491086968783,1,0,2,62,72,2,-76,-74,-30
1491086968784,2,9,-23,7,83,59,39,71,-4
1491086968784,2,-42,-3,-45,-49,109,-111,-128,-53
1491086968818,3,13,4,0,-89,-128,-50,-15,-32
1491086968818,3,-14,-13,-24,65,39,127,-16,12
1491086968819,0,66,22,49,-72,115,-128,9,25
1491086968819,0,53,5,-23,127,92,127,127,35
1491086968820,1,-59,-17,12,13,28,-68,-102,-34
1491086968820,1,44,16,-7,-35,17,20,42,-21
1491086968821,2,-82,-13,71,127,92,127,83,20
1491086968821,2,93,1,42,-105,-67,-10,35,43
1491086968856,3,9,33,-41,-104,59,79,76,27
1491086968856,3,-53,-33,-2,65,-113,94,18,-29
1491086968857,0,-30,3,-2,-13,-6,35,-31,-29
1491086968857,0,-27,5,33,-32,-65,79,90,25
1491086968857,1,21,-1,15,-37,-51,92,38,-55
1491086968857,1,22,11,7,22,101,43,15,16
1491086968858,2,-38,-22,-82,-64,-128,-128,8,-50
1491086968858,2,-11,6,-13,-57,-68,10,28,-25
1491086968893,3,-26,10,9,8,21,-102,-102,4
1491086968893,3,-31,-18,-13,15,-49,-15,-84,-25
1491086968894,0,38,21,-70,82,127,-41,-8,-13
1491086968894,0,10,4,27,32,-45,-115,-119,-55
1491086968895,1,-8,-11,-25,-58,-121,57,105,-6
1491086968895,1,-29,-15,17,-79,50,75,-46,-18
1491086968896,2,8,5,29,68,64,38,17,46
1491086968896,2,24,5,-52,-82,109,14,48,-20
1491086968931,3,-25,-11,-10,-12,-89,61,86,37
1491086968931,3,-43,-12,-27,39,-31,-128,-89,-52
1491086968932,0,18,3,-15,18,-48,120,58,6
1491086968932,0,-6,-20,52,36,-69,-90,-83,28
1491086968933,1,-39,-40,-94,-75,-94,27,11,-13
1491086968933,1,6,23,45,-128,-100,127,25,9
1491086968933,2,-64,-25,-43,67,27,-60,42,-7
1491086968933,2,-11,5,87,81,29,111,36,17
1491086968968,3,24,-1,-5,114,105,51,-56,-7
1491086968968,3,-29,-23,-85,-128,-128,-84,-12,-3
1491086968970,0,-11,4,56,-96,-82,-101,-128,-13
1491086968970,0,72,2,-37,-46,100,88,112,78
1491086968970,1,-110,16,41,70,-47,-97,-102,-93
1491086968970,1,21,12,17,-7,28,127,127,72
1491086968971,2,-30,-23,33,27,42,71,81,27
1491086968971,2,-30,10,-100,-14,-66,-79,-68,-4
1491086969006,3,72,-13,-10,-79,48,24,-38,-49
1491086969006,3,-29,25,78,109,28,69,8,40
1491086969007,0,-33,-50,-68,-118,-85,94,-86,-50
1491086969007,0,-70,13,79,111,-12,-9,31,-32
1491086969007,1,40,-13,45,63,27,70,12,44
1491086969007,1,-16,-11,-61,-13,1,-67,-2,-9
1491086969008,2,74,4,-26,-19,-9,29,-11,-10
1491086969008,2,34,-1,64,57,70,67,104,32
1491086969043,3,34,37,-53,-89,-67,-34,119,98
1491086969043,3,32,17,15,-90,50,12,-20,-41
1491086969044,0,27,35,79,104,-82,25,-13,56
1491086969044,0,-22,-35,-84,-128,-55,-13,-110,-26
1491086969045,1,1,-21,38,-24,17,-57,-78,-31
1491086969045,1,-57,-8,-68,-1,-66,-93,-25,-16
1491086969046,2,22,11,35,-120,-117,21,84,50
1491086969046,2,13,-2,-27,122,65,15,-18,14
1491086969081,3,-6,-2,64,-10,-13,-51,17,11
1491086969081,3,-84,-42,-25,3,90,88,37,-57
1491086969082,0,36,29,-39,-128,-97,61,90,45
1491086969082,0,3,2,-53,-128,-62,7,-30,-59
1491086969118,1,2,-14,28,127,75,111,80,37
1491086969118,1,-8,7,32,33,103,4,-19,-41
1491086969119,2,19,-11,-60,-17,-53,17,9,33
1491086969119,2,19,44,127,126,116,-7,54,59
1491086969120,3,-25,-16,-128,-128,-88,-37,22,4
1491086969120,3,-24,-13,-6,-62,-128,-83,-22,-14
1491086969121,0,19,-10,49,109,117,127,-60,-51
1491086969121,0,-21,-20,10,71,-35,93,-86,-41
1491086969156,1,0,1,-16,-54,1,-92,-66,-4
1491086969156,1,23,22,32,86,-23,127,114,14
1491086969157,2,-9,1,11,12,81,-128,-88,-28
1491086969157,2,-28,-22,-71,-90,-101,127,95,-22
1491086969157,3,-19,-19,17,-30,-78,-80,-51,-26
1491086969157,3,15,-13,-29,-59,76,8,-36,3
1491086969158,0,53,86,28,59,13,-128,2,69
1491086969158,0,-27,-22,37,106,69,108,95,-16
1491086969193,1,3,15,-38,-44,51,-30,-64,5
1491086969193,1,42,13,-14,-124,-128,16,30,12
1491086969194,2,-47,-49,-3,-76,-86,80,-55,-77
1491086969194,2,18,32,50,49,52,-32,-24,9
1491086969195,3,-27,-37,-86,87,37,103,30,11
1491086969195,3,-27,13,65,-28,-45,-128,-86,-59
1491086969196,0,-3,3,52,84,8,127,92,7
1491086969196,0,-15,-35,-128,-87,-17,-111,-27,42
1491086969231,1,-56,-12,127,31,92,127,19,-65
1491086969231,1,93,29,-51,127,103,-99,-75,78
1491086969232,2,-41,-9,-39,-50,-8,101,77,-11
1491086969232,2,39,12,40,46,2,68,38,-8
1491086969233,3,-16,2,-8,18,47,-25,1,2
1491086969233,3,-5,-10,71,33,-13,127,24,25
1491086969234,0,-51,0,-17,13,25,-128,-65,-9
1491086969234,0,31,-15,-39,7,-10,81,-61,-61
1491086969268,1,54,37,7,-35,-93,91,19,41
1491086969268,1,1,4,7,-41,-90,-1,15,2
1491086969269,2,27,-8,13,45,-38,108,-26,5
1491086969269,2,1,-8,-11,-120,-26,-52,19,49
1491086969270,3,-15,-4,39,81,-3,-100,-43,-10
1491086969270,3,47,19,9,61,91,87,56,0
1491086969271,0,-21,-5,-50,-115,-61,-105,-54,-7
1491086969271,0,27,11,83,81,34,96,-21,4
1491086969306,1,-29,-24,-96,-72,-14,-24,43,-1
1491086969306,1,14,19,29,64,111,-32,7,-20
1491086969307,2,-9,-11,4,-5,48,92,21,14
1491086969307,2,-57,-11,-88,-128,-55,-61,46,9
1491086969307,3,43,25,102,-89,-108,-19,-54,-12
1491086969307,3,-87,-49,-66,62,27,24,28,-32
1491086969308,0,44,14,18,51,65,-10,18,-6
1491086969308,0,-27,-13,-29,-112,-116,-128,29,14
1491086969343,1,18,9,-59,-61,-61,112,-42,-34
1491086969343,1,-3,-9,-1,-80,-75,-14,49,2
1491086969344,2,-88,-11,64,56,46,1,3,-9
1491086969344,2,73,25,56,0,-80,92,50,53
1491086969345,3,-42,2,-6,-15,-67,-115,-42,-14
1491086969345,3,13,4,-17,-7,69,45,-41,41
1491086969346,0,22,-15,-36,44,-17,-109,-111,-41
1491086969346,0,-40,-1,78,127,99,95,-68,-40
1491086969381,1,-20,-27,-51,-44,-54,-66,70,2
1491086969381,1,4,13,55,62,48,92,43,-4
1491086969382,2,-3,-6,-39,10,91,35,-5,22
1491086969382,2,-46,0,-21,-31,-76,-63,39,-6
1491086969382,3,48,18,55,127,28,14,-85,-27
1491086969382,3,-25,-13,-33,37,35,4,118,49
1491086969383,0,9,-6,-33,-62,-64,-46,-6,-23
1491086969383,0,27,3,35,59,52,-2,-13,-1
1491086969418,1,-30,-16,-74,-47,18,32,-4,0
1491086969418,1,22,-12,0,-3,-67,83,19,4
1491086969419,2,-16,6,39,33,50,-1,-31,-20
1491086969419,2,-9,7,-37,-41,-54,54,7,-11
1491086969423,3,-17,-1,70,88,-23,127,6,13
1491086969423,3,12,-2,10,26,-30,7,-79,-25
1491086969456,0,32,-1,-104,-119,-100,-70,-43,18
1491086969456,0,-13,-13,37,30,-39,-89,30,9
1491086969457,1,63,-8,-21,55,113,-48,64,31
1491086969457,1,-23,0,14,23,-30,-92,-14,-3
1491086969459,2,7,34,30,-14,58,64,68,23
1491086969459,2,2,-10,-56,-32,-63,-81,-52,-1
1491086969459,3,-3,3,-5,-40,55,3,-71,-16
1491086969459,3,15,13,-16,-53,-32,58,-43,-14
1491086969493,0,-14,-28,-30,-9,-1,-38,40,1
1491086969493,0,-34,0,31,-11,-13,26,-14,-24
1491086969494,1,28,12,33,53,49,32,36,17
1491086969494,1,-2,-2,-9,-1,28,-57,47,-5
1491086969495,2,-1,9,27,-47,-17,1,35,-10
1491086969495,2,7,2,97,96,24,2,-4,28
1491086969496,3,-35,-30,127,-83,84,-19,-39,-2
1491086969496,3,-19,-24,125,-74,-89,-128,-107,-50
1491086969531,0,-42,-4,127,68,4,93,71,6
1491086969531,0,19,29,8,70,82,28,-49,-5
1491086969533,1,4,18,-54,-71,-61,-44,56,-10
1491086969533,1,-49,-16,-115,-97,-82,-77,-24,-4
1491086969534,2,60,13,-119,-11,83,25,39,20
1491086969534,2,15,-15,-125,5,73,22,-44,-15
1491086969534,3,-43,-15,-95,40,29,43,-11,-41
1491086969534,3,22,24,-107,-2,27,26,50,17
1491086969568,0,-34,-20,-67,-4,-36,76,-12,-31
1491086969568,0,23,-5,-77,80,61,-11,74,-13
1491086969569,1,12,15,-60,-83,-97,-91,-30,36
1491086969569,1,1,-25,-42,12,-45,88,-17,-34
1491086969570,2,8,-13,-21,21,-30,83,33,17
1491086969570,2,-8,-2,-35,4,49,65,-26,1
1491086969606,3,17,-30,-18,127,-1,122,77,7
1491086969606,3,27,28,-8,-76,-81,-106,-70,-4
1491086969607,0,-43,-9,-3,-66,-117,-86,-96,-40
1491086969607,0,-6,-27,-20,1,22,47,7,1
1491086969607,1,16,-29,0,127,113,29,63,10
1491086969607,1,-10,19,-3,127,127,95,10,12
1491086969608,2,-25,36,-6,-93,33,3,31,10
1491086969608,2,-54,22,-9,-128,-128,-126,-88,-22
1491086969643,3,0,97,2,46,38,49,-28,16
1491086969643,3,-67,-3,-3,-1,68,83,63,-32
1491086969645,0,101,43,-1,-59,-39,-98,-23,60
1491086969645,0,40,7,-56,37,-2,114,25,6
1491086969646,1,-34,-63,-109,-16,29,24,-47,-10
1491086969646,1,43,-4,-119,21,-10,-14,-43,-32
1491086969647,2,-41,-34,-128,-68,46,98,84,7
1491086969647,2,-31,-27,-124,-66,-78,-96,34,9
1491086969681,3,0,-15,-88,82,27,25,0,3
1491086969681,3,-14,-14,-91,26,45,11,16,10
1491086969683,0,20,-18,-80,-14,114,29,13,31
1491086969683,0,55,-14,-83,73,-110,-51,-4,-42
1491086969718,1,-84,-3,61,9,-40,-15,20,-31
1491086969718,1,0,14,30,19,79,60,32,56
1491086969720,2,-34,-8,127,-9,-125,-100,-96,-29
1491086969720,2,60,15,96,49,127,103,85,21
1491086969721,3,21,1,-72,-104,-2,59,-8,-2
1491086969721,3,28,-1,36,0,-56,-6,8,30
1491086969722,0,-37,-2,70,103,27,56,36,-27
1491086969722,0,-2,0,52,-128,-81,-26,-95,2
1491086969756,1,-21,4,97,9,24,23,6,-16
1491086969756,1,89,8,37,-33,15,56,4,52
1491086969758,2,-19,-9,49,127,82,61,58,-2
1491086969758,2,-23,19,10,-90,-77,-126,6,-17
1491086969759,3,-10,2,70,26,-9,66,64,6
1491086969759,3,-29,-27,7,-68,21,-29,-47,-8
1491086969793,0,-25,-19,25,-27,-99,-32,7,-2
1491086969793,0,-31,-2,78,60,43,-6,-61,-30
1491086969795,1,21,-10,62,14,-37,7,35,29
1491086969795,1,6,-14,82,76,-1,76,110,12
1491086969796,2,12,-10,36,38,21,-25,-113,-47
1491086969796,2,43,-6,17,-87,0,-40,-44,7
1491086969796,3,29,0,67,41,61,65,0,28
1491086969796,3,-43,-18,52,-79,-119,-25,-72,-41
1491086969831,0,20,-23,101,121,74,127,59,-7
1491086969831,0,-9,0,-101,-107,-62,-35,3,22
1491086969837,1,-35,-13,-25,-91,-80,-93,-73,-12
1491086969837,1,66,-9,55,67,105,41,57,26
1491086969838,2,50,19,-32,20,-107,-99,-44,18
1491086969838,2,-32,-7,92,127,127,122,52,3
1491086969839,3,-11,-2,-25,-48,-33,1,-14,-6
1491086969839,3,27,9,-29,-97,-43,-52,-74,-2
1491086969868,0,-29,-12,56,54,44,116,-6,-17
1491086969868,0,-21,-42,-58,-69,-56,100,76,8
1491086969870,1,-33,-3,5,6,-17,36,-41,-34
1491086969870,1,-4,-18,18,100,46,42,57,30
1491086969872,2,-37,-7,-53,-42,-11,27,-67,-13
1491086969872,2,13,4,127,127,127,31,71,30
1491086969873,3,-13,24,-64,-119,-121,55,9,-22
1491086969873,3,-81,9,0,66,54,-15,-14,-44
1491086969906,0,50,53,-35,19,-64,27,37,37
1491086969906,0,-64,7,83,108,50,113,-24,-19
1491086969908,1,-27,-8,-49,-101,99,77,77,23
1491086969908,1,22,1,-80,-87,-119,-128,-90,-8
1491086969909,2,-6,10,76,64,84,127,48,8
1491086969909,2,-24,15,-88,-128,-91,31,-65,-35
1491086969910,3,0,20,51,127,23,-116,-103,8
1491086969910,3,-48,1,31,-17,91,127,121,-5
1491086969943,0,6,-17,-92,-97,-77,-84,-85,-47
1491086969943,0,-36,19,53,80,23,108,100,17
1491086969944,1,79,43,35,104,58,-86,-1,98
1491086969944,1,-4,7,-89,-92,-107,-98,-110,-51
1491086969945,2,-27,-31,-9,12,-29,-12,29,16
1491086969945,2,-18,-24,21,-16,-79,3,3,-14
1491086969946,3,44,15,-56,-60,-100,-23,10,-14
1491086969946,3,-24,12,80,127,127,110,-3,6
1491086969981,0,39,17,-23,-52,-98,-65,11,39
1491086969981,0,-5,-26,2,57,124,127,58,19
1491086969983,1,67,-1,12,-70,-76,-17,-46,12
1491086969983,1,-4,-12,12,44,-8,-58,-59,1
1491086969984,2,27,-7,19,14,69,105,55,-32
1491086969984,2,-3,14,-21,71,74,0,13,21
1491086969985,3,-49,8,-43,-63,-76,1,-52,-30
1491086969985,3,7,26,-14,-33,-50,52,40,-18
1491086970018,0,-117,-14,23,-19,-69,34,-100,-27
1491086970018,0,93,29,31,96,94,25,63,26
1491086970019,1,13,-18,30,2,-80,56,25,-5
1491086970019,1,-21,-29,-61,-74,48,-12,-54,-21
1491086970020,2,-9,-12,16,-77,12,-37,-43,-6
1491086970020,2,-30,-15,-51,-102,-6,-24,-59,-42
1491086970021,3,10,-6,-24,-45,-40,-41,109,-2
1491086970021,3,-27,17,71,80,21,127,90,1
1491086970056,0,-4,-5,-44,-103,42,72,11,-14
1491086970056,0,19,18,-43,-38,-97,46,24,15
1491086970056,1,14,17,90,127,64,-62,-90,-42
1491086970056,1,-20,-4,22,-28,-41,92,-36,23
1491086970057,2,-2,-5,-90,12,127,-123,48,4
1491086970057,2,-66,2,9,-47,19,-47,-53,-27
1491086970058,3,69,24,11,30,9,127,71,29
1491086970058,3,-62,-37,-18,-87,-88,75,60,10
1491086970093,0,55,18,35,127,-15,-9,-16,40
1491086970093,0,-76,-18,4,-33,25,74,-19,-37
1491086970094,1,27,-11,-3,111,127,-42,6,4
1491086970094,1,25,-25,-33,-50,-83,-42,-10,-3
1491086970095,2,-18,-11,-85,-128,-128,-110,-21,-44
1491086970095,2,43,10,20,46,-68,42,-68,-16
1491086970131,3,-33,-18,48,85,55,127,76,30
1491086970131,3,1,-4,-7,42,19,120,-5,-27
1491086970132,0,-29,-31,-19,20,33,46,-21,12
1491086970132,0,1,29,11,-75,-128,21,-47,-45
1491086970132,1,-57,-16,-66,-128,7,-36,-52,-44
1491086970132,1,-23,-17,33,111,44,97,49,-1
1491086970133,2,14,5,93,60,-10,-67,89,42
1491086970133,2,82,31,-63,-85,-24,-93,-78,-25
1491086970168,3,-36,-29,66,88,16,75,52,26
1491086970168,3,2,7,-65,-114,-24,-128,-78,-45
1491086970169,0,-14,32,12,-60,-50,2,92,1
1491086970169,0,12,-33,30,92,90,-35,-51,-2
1491086970169,1,-71,-30,-57,-128,-93,-69,30,-57
1491086970169,1,111,71,70,21,-119,27,63,87
1491086970171,2,58,-3,44,100,43,127,42,36
1491086970171,2,-11,11,-70,-123,-17,-128,-59,37
1491086970206,3,-37,5,48,34,-10,127,-121,-73
1491086970206,3,65,-5,-15,34,86,31,83,86
1491086970207,0,-21,2,-15,23,-6,19,-96,-100
1491086970207,0,52,27,66,122,35,113,111,72
1491086970207,1,-5,-17,-26,4,31,-20,-24,8
1491086970207,1,42,-16,-19,-89,-61,-78,66,13
1491086970208,2,-56,-23,-17,-15,7,-6,-78,-42
1491086970208,2,37,-17,-11,16,-2,-2,9,23
1491086970243,3,-23,-23,5,112,113,35,83,19
1491086970243,3,-12,16,72,127,96,-13,-42,-79
1491086970244,0,27,12,-46,-128,-95,22,74,68
1491086970244,0,-6,-23,-77,-110,-77,43,58,-16
1491086970244,1,7,-12,-18,-3,-128,-16,-49,-35
1491086970244,1,23,30,44,-23,-50,53,5,-15
1491086970246,2,17,-2,24,127,127,52,-3,-6
1491086970246,2,-21,-6,-18,-98,-35,71,88,30
1491086970281,3,81,40,-3,-70,-17,-112,-111,25
1491086970281,3,-72,-44,9,72,90,-14,-75,-24
1491086970282,0,-41,0,-53,-88,-126,-66,-64,-79
1491086970282,0,59,6,25,85,57,13,-17,29
1491086970283,1,-79,-25,-96,-3,19,110,-3,-5
1491086970283,1,34,17,63,-32,-73,-115,-1,-9
1491086970318,2,-35,12,123,101,62,127,33,45
1491086970318,2,-30,-57,-100,-109,7,-34,-32,-32
1491086970319,3,-2,49,41,-50,-124,-96,-70,-36
1491086970319,3,29,13,14,34,48,120,84,80
1491086970320,0,-37,-31,-31,17,-29,21,-1,-45
1491086970320,0,-28,-3,8,105,40,-99,-128,-29
1491086970321,1,16,-8,84,107,127,76,123,17
1491086970321,1,-47,-33,-106,-113,-128,-15,-79,-48
1491086970356,2,72,40,3,-125,-5,-64,-41,59
1491086970356,2,-92,-12,35,40,-58,108,16,-57
1491086970363,3,18,-42,-38,47,127,-84,51,30
1491086970363,3,10,61,14,-16,-35,-14,-60,15
1491086970368,0,-37,-30,1,77,-24,21,-13,-28
1491086970368,0,1,3,50,-59,-15,62,101,20
1491086970368,1,-61,-13,-55,13,52,-67,29,-28
1491086970368,1,50,6,-9,-25,-3,122,-31,-2
1491086970393,2,7,-12,-42,87,123,-74,-16,-20
1491086970393,2,11,31,16,19,-11,43,11,-6
1491086970394,3,63,5,14,-41,1,127,3,46
1491086970394,3,-44,-42,-74,-91,28,-83,-46,1
1491086970395,0,26,12,12,-98,-88,75,22,-9
1491086970395,0,69,5,-17,52,60,58,-30,36
1491086970396,1,-38,7,15,54,27,39,32,-5
1491086970396,1,62,16,32,-48,-53,-20,83,23
1491086970431,2,0,-8,24,25,-54,-42,-45,12
1491086970431,2,-32,-37,-65,-103,-115,-112,-127,-51
1491086970432,3,-48,26,32,-26,47,127,63,9
1491086970432,3,7,-4,12,127,91,34,23,9
1491086970433,0,-54,-52,-54,-49,-85,71,30,19
1491086970433,0,-41,40,16,-21,41,-74,15,48
1491086970469,1,-6,-15,26,-47,-116,86,-122,-74
1491086970469,1,-53,-31,-17,80,104,100,74,-31
1491086970469,2,18,-10,-53,-77,-47,-26,11,-2
1491086970469,2,8,-17,59,90,88,28,41,17
1491086970470,3,-11,1,-22,-95,-98,-88,-102,-26
1491086970470,3,-50,-7,16,-17,22,20,22,-12
1491086970506,0,9,17,26,75,86,62,-49,-44
1491086970506,0,85,-6,-23,-54,-128,-27,0,74
1491086970507,1,-42,-12,23,62,73,-80,67,-28
1491086970507,1,10,7,-55,-119,55,-66,-77,-33
1491086970507,2,-29,16,-43,3,-14,-38,96,24
1491086970507,2,-29,6,17,-14,-1,-50,-22,-22
1491086970508,3,52,-25,13,-5,8,113,26,-4
1491086970508,3,-27,-1,-49,26,-104,-66,-105,-52
1491086970543,0,0,6,37,-84,-28,-38,43,34
1491086970543,0,21,-4,26,11,9,19,25,-58
1491086970544,1,49,8,-20,-17,-34,117,-5,89
1491086970544,1,-70,-42,-19,-7,-101,-91,26,-29
1491086970545,2,94,52,67,83,111,117,25,37
1491086970545,2,-88,-14,-30,-19,1,36,37,-81
1491086970546,3,19,-17,-56,-55,7,-47,-7,37
1491086970546,3,27,50,88,97,-37,16,87,23
1491086970581,0,36,4,9,-53,86,91,-22,32
1491086970581,0,-14,-22,-16,-68,-61,-70,-53,10
1491086970583,1,-60,-24,-40,-41,-19,42,108,-46
1491086970583,1,29,43,-9,-23,-27,14,-86,41
1491086970583,2,-44,-16,63,-47,-120,23,5,26
1491086970583,2,-29,-8,13,54,106,67,79,-38
1491086970584,3,92,81,-15,-92,55,-1,98,67
1491086970584,3,-30,-22,-24,-12,-5,107,-37,14
1491086970619,0,17,-12,38,107,68,-54,47,-31
1491086970619,0,64,22,4,52,-44,22,-56,75
1491086970619,1,-106,-32,-11,-69,-8,-128,-60,-51
1491086970619,1,-52,-31,-65,30,68,127,-29,12
1491086970620,2,76,58,-35,-51,-54,90,20,43
1491086970620,2,-56,-27,-38,-85,-119,-88,-50,-46
1491086970621,3,121,46,110,127,48,120,-36,74
1491086970621,3,-96,-18,39,-128,125,-117,127,11
1491086970656,0,-12,-11,20,-61,-86,34,-120,-76
1491086970656,0,59,19,-38,-20,-40,127,117,55
1491086970657,1,22,-12,38,49,-48,48,83,73
1491086970657,1,-20,-49,-13,-47,-115,-29,-51,-6
1491086970657,2,-17,-20,-90,-56,-39,-23,-31,-58
1491086970657,2,1,26,79,79,63,-38,15,56
1491086970658,3,-20,-8,-30,-32,-49,127,-112,-9
1491086970658,3,-38,-12,22,-1,1,-59,-52,-65
1491086970693,0,-36,-40,-45,58,105,37,-7,-46
1491086970693,0,74,34,-6,-120,2,23,-84,13
1491086970694,1,-20,-13,-15,10,13,9,48,2
1491086970694,1,23,18,30,86,60,99,21,-16
1491086970695,2,-109,-1,-29,-47,59,-66,46,39
1491086970695,2,-15,-12,1,13,-43,-52,-69,-10
1491086970696,3,74,16,-37,-104,-75,36,12,-19
1491086970696,3,25,8,3,-128,-118,68,71,9
1491086970731,0,6,-2,36,127,120,70,-62,-26
1491086970731,0,-99,-38,-3,-75,-64,16,-31,-13
1491086970732,1,9,10,-33,-49,-66,9,-36,-22
1491086970732,1,32,6,-55,-13,-9,-23,65,31
1491086970732,2,79,24,70,79,87,71,-34,62
1491086970732,2,-83,17,-11,-67,-63,123,120,-79
1491086970768,3,-53,-36,-5,-87,-80,-107,20,-21
1491086970768,3,97,30,70,115,53,127,71,34
1491086970769,0,-59,-23,-51,-100,-14,-104,80,26
1491086970769,0,-25,-13,-82,56,-5,-107,-45,-66
1491086970770,1,-20,22,36,35,-90,20,56,14
1491086970770,1,16,-14,0,92,102,38,86,-3
1491086970771,2,87,9,12,-69,-95,90,115,89
1491086970771,2,20,-16,-46,-52,-53,-51,50,22
1491086970806,3,-101,0,-22,-38,76,88,-81,-110
1491086970806,3,96,13,63,114,101,-128,-128,76
1491086970807,0,-62,-10,-1,-27,-81,127,25,-57
1491086970807,0,52,7,-46,-76,-55,12,-81,-14
1491086970807,1,-61,-16,-18,40,34,-37,-62,-20
1491086970807,1,-41,-21,-21,22,25,-30,-24,-31
1491086970808,2,-19,35,21,-63,-60,-116,-35,-15
1491086970808,2,72,-15,70,103,127,127,9,60
1491086970843,3,34,-45,-102,5,-36,64,20,-30
1491086970843,3,-128,23,78,-5,6,48,-112,-56
1491086970844,0,90,-6,-18,96,-46,-128,69,39
1491086970844,0,0,10,-20,-56,-6,-36,36,-17
1491086970845,1,-73,-19,83,127,126,110,-72,-65
1491086970845,1,30,6,-22,-128,-128,115,108,83
1491086970881,2,-6,-28,-78,-81,-42,-42,-42,13
1491086970881,2,23,24,125,45,1,93,-20,-35
1491086970884,3,59,-8,28,113,13,25,127,68
1491086970884,3,-9,11,-61,-114,-66,5,-8,-89
1491086970885,0,-65,-15,31,-65,-63,-1,-122,-19
1491086970885,0,-63,-51,-76,10,113,26,23,1
1491086970886,1,89,41,61,-36,-107,-102,-25,25
1491086970886,1,47,-45,-33,-16,-52,-7,-78,27
1491086970919,2,-91,6,-52,-49,-45,-81,27,-74
1491086970919,2,-38,8,84,127,103,2,41,8
1491086970921,3,70,8,4,-128,-95,51,-78,0
1491086970921,3,-84,-38,-106,-41,-63,-103,98,-14
1491086970922,0,-2,34,99,119,118,57,-63,4
1491086970922,0,-51,0,-19,82,17,-119,42,14
1491086970923,1,5,-3,3,51,95,70,127,-28
1491086970923,1,72,15,21,-38,-45,-82,-125,-9
1491086970956,2,-74,-14,13,29,21,4,-10,-59
1491086970956,2,21,8,9,-84,-49,99,42,44
1491086970958,3,-4,-4,-31,32,36,-21,-5,81
1491086970958,3,-36,-21,2,38,-30,-63,-58,-34
1491086970959,0,-4,13,-19,13,23,89,0,-72
1491086970959,0,11,23,6,-81,-128,118,-28,-15
1491086970960,1,-38,-3,-17,-47,48,-125,-77,-20
1491086970960,1,-41,2,-7,63,54,112,22,31
1491086970993,2,119,-4,33,107,102,9,-34,42
1491086970993,2,-88,-13,-35,-49,-98,35,48,-15
1491086970994,3,-64,-10,-17,-89,-92,-92,-4,-8
1491086970994,3,-15,72,57,50,43,26,-55,50
1491086970995,0,-75,-40,-20,-28,-15,19,-29,3
1491086970995,0,101,-5,-35,46,91,55,-106,-15
1491086971031,1,-42,4,-23,9,56,-11,88,5
1491086971031,1,15,-5,-26,-77,-80,-50,-66,-59
1491086971032,2,14,-7,-19,28,43,95,58,35
1491086971032,2,-36,-16,37,55,40,48,-35,-8
1491086971033,3,33,25,66,-51,35,-83,44,49
1491086971033,3,12,-9,-42,50,37,127,121,0
1491086971034,0,109,17,-50,-121,-105,-98,-8,65
1491086971034,0,-119,-33,46,-29,-79,-18,-90,-46
1491086971068,1,55,-2,-53,8,2,-43,-128,-72
1491086971068,1,-60,13,55,56,47,79,111,27
1491086971069,2,-42,-6,-6,-27,-6,-127,-58,-8
1491086971069,2,57,-2,6,-59,81,127,75,31
1491086971070,3,-16,-20,-6,32,-42,65,28,-25
1491086971070,3,79,56,-27,-77,0,7,32,56
1491086971071,0,-18,-3,7,36,29,107,11,-14
1491086971071,0,-3,-6,68,-29,-36,-99,44,1
1491086971106,1,-26,4,-6,29,3,-72,-14,19
1491086971106,1,40,-33,-29,-1,21,119,46,-1
1491086971106,2,-7,27,-37,-90,-119,-55,-41,-65
1491086971106,2,-6,6,-11,20,48,52,10,11
1491086971107,3,-53,-12,18,-55,-128,30,79,30
1491086971107,3,37,5,-19,-46,-8,93,91,45
1491086971108,0,-33,-1,95,56,111,0,-70,-63
1491086971108,0,-20,-16,-127,29,13,-128,-118,-8
1491086971143,1,96,11,12,-69,56,91,69,6
1491086971143,1,-111,-4,31,-22,-21,-10,-21,-34
1491086971144,2,-68,-41,-85,-40,26,-55,64,-18
1491086971144,2,111,50,37,-44,-57,25,-6,13
1491086971145,3,-53,-3,14,15,-2,51,-33,9
1491086971145,3,49,-10,54,70,-39,-115,5,11
1491086971181,0,-23,22,-42,-104,70,0,26,28
1491086971181,0,-2,-5,26,46,51,0,43,10
1491086971181,1,-11,-8,-4,77,-57,11,-62,-57
1491086971181,1,-34,-27,-88,-106,-74,-116,-120,-78
1491086971182,2,29,21,100,127,14,87,127,74
1491086971182,2,-12,-8,-43,39,41,31,47,-3
1491086971183,3,48,15,-32,-63,75,127,34,66
1491086971183,3,-51,-11,101,47,-38,-40,-119,-85
1491086971218,0,93,7,-70,28,30,-1,-8,38
1491086971218,0,-56,25,1,-33,-62,-38,8,14
1491086971219,1,-27,-11,52,96,-33,76,14,-21
1491086971219,1,-8,-12,-72,-2,7,-41,18,16
1491086971220,2,10,-5,44,14,-33,22,23,25
1491086971220,2,-13,-9,44,106,32,-10,28,-13
1491086971221,3,12,16,-16,99,-4,-128,-68,-18
1491086971221,3,-5,-13,-34,-27,40,-34,-8,-5
1491086971256,0,-12,7,20,14,-26,86,-45,-8
1491086971256,0,32,14,30,59,-56,112,33,22
1491086971257,1,-35,-10,-4,6,53,107,-44,-11
1491086971257,1,4,-11,7,38,60,127,9,4
1491086971257,2,-17,-6,-40,-52,-128,-12,-85,-26
1491086971257,2,-25,-18,-3,-39,-58,-56,32,-20
1491086971258,3,6,8,-21,-32,4,-128,-27,-3
1491086971258,3,14,10,62,106,66,-27,18,12
1491086971293,0,-51,-13,-8,-46,-16,-20,-13,2
1491086971293,0,-16,-9,-22,-21,27,-66,16,3
1491086971294,1,49,-7,-15,-84,33,-45,-22,-16
1491086971294,1,12,24,-34,-24,-42,41,18,20
1491086971295,2,-4,-10,8,7,-14,28,86,17
1491086971295,2,7,3,43,25,61,73,60,8
1491086971331,3,-17,-15,2,63,39,112,29,27
1491086971331,3,11,5,-5,-91,-115,-128,-21,29
1491086971332,0,-23,-13,-53,-38,-22,13,-25,-26
1491086971332,0,4,5,-49,-97,-22,-8,-67,-35
1491086971332,1,-29,8,-25,-35,-29,69,24,-14
1491086971332,1,19,-3,29,72,73,62,9,15
1491086971333,2,28,5,74,97,34,56,58,40
1491086971333,2,-33,-6,-18,0,15,-66,-72,-34
1491086971368,3,46,10,-12,-10,-13,-52,4,1
1491086971368,3,-75,-24,48,105,38,121,53,-6
1491086971369,0,44,-11,-48,-75,59,-76,74,20
1491086971369,0,-6,-4,-33,-60,-73,15,-71,-25
1491086971370,1,-29,6,51,56,8,-36,63,-5
1491086971370,1,27,8,55,77,-42,44,16,13
1491086971371,2,-37,-20,-96,-64,-72,3,-1,-59
1491086971371,2,1,-8,51,122,12,-62,-34,4
1491086971406,3,14,-4,16,74,31,2,-105,-8
1491086971406,3,-2,-9,-2,-14,92,70,71,-4
1491086971407,0,-22,-1,48,101,127,73,19,20
1491086971407,0,18,8,-14,-17,-39,-11,-10,12
1491086971407,1,-9,3,-16,-93,-46,-44,-15,-25
1491086971407,1,-14,-14,5,60,107,-24,-16,-1
1491086971408,2,14,39,33,-69,-44,38,-22,0
1491086971408,2,-15,-18,-73,-3,-82,-71,47,20
1491086971443,3,-53,12,6,-54,-33,-62,-37,-19
1491086971443,3,-1,-6,-77,-14,55,-14,-33,-19
1491086971444,0,-23,-2,42,17,-22,4,-12,-19
1491086971444,0,38,-3,62,97,127,115,48,34
1491086971445,1,-18,-16,-34,-33,0,29,2,4
1491086971445,1,-33,-3,-15,-54,-111,-71,64,-2
1491086971481,2,31,14,90,127,127,118,-2,-25
1491086971481,2,34,-8,-58,-121,-71,-94,-23,7
1491086971482,3,36,-7,-65,-35,-89,45,66,94
1491086971482,3,0,31,44,32,-46,67,-68,-71
1491086971482,0,-32,-5,83,124,94,97,112,13
1491086971482,0,3,38,16,-75,-77,9,3,8
1491086971483,1,4,19,-8,-48,-35,11,50,8
1491086971483,1,6,16,59,47,70,17,26,17
1491086971556,2,7,24,-61,-105,-128,-128,-86,-11
1491086971556,2,78,18,19,41,28,24,-26,9
1491086971557,3,-3,-12,80,127,118,78,74,25
1491086971557,3,9,12,-57,-128,-128,-17,41,3
1491086971557,0,-10,-14,-52,-54,-80,-67,-41,-18
1491086971557,0,-22,-23,18,57,81,26,-100,-39
1491086971558,1,-63,-4,30,53,48,-36,-11,15
1491086971558,1,64,-16,-3,1,110,116,96,34
1491086971593,2,-23,17,-111,-71,-116,-72,-91,-39
1491086971593,2,-13,-20,-93,-77,-27,106,28,-13
1491086971594,3,-51,-60,11,94,77,105,-27,-47
1491086971594,3,99,19,-85,38,110,111,26,35
1491086971595,2,-24,-33,-22,20,73,102,100,20
1491086971595,2,51,8,50,7,3,-35,11,27
1491086971596,3,-16,-35,14,-21,-47,39,42,-28
1491086971596,3,7,-9,14,31,13,-126,-56,-12
1491086971631,0,64,4,47,-11,-56,-76,-7,2
1491086971631,0,-80,-47,19,-11,96,74,-3,-12
1491086971632,1,78,40,-24,-52,-128,7,40,48
1491086971632,1,-66,-19,67,30,9,20,-43,-27
1491086971632,2,-14,-10,68,127,8,-60,-51,10
1491086971632,2,-13,0,-60,-83,-12,26,-11,4
1491086971633,3,18,-29,-37,-49,-47,-11,34,16
1491086971633,3,-22,-39,46,82,72,90,29,-18
1491086971668,0,31,-18,9,-46,-68,34,15,15
1491086971668,0,58,1,33,41,1,-7,29,11
1491086971669,1,-32,-32,-53,-66,42,-37,-72,-24
1491086971669,1,42,7,-42,-61,-128,-123,-74,-12
1491086971670,2,14,-2,16,-29,98,99,15,2
1491086971670,2,-3,13,65,102,92,-2,9,-2
1491086971671,3,24,1,5,70,91,106,94,5
1491086971671,3,-39,-31,-36,-79,-72,-76,-66,-8
1491086971706,0,-54,-24,-39,27,44,44,20,-52
1491086971706,0,36,-26,-3,99,43,88,51,-2
1491086971706,1,-30,17,5,-44,-61,-63,-52,-38
1491086971706,1,-41,-8,-3,-37,-6,-70,-111,20
1491086971707,2,-55,15,48,99,67,82,61,28
1491086971707,2,-30,-8,6,-56,41,51,-8,-30
1491086971708,3,-14,15,64,76,-49,112,-16,7
1491086971708,3,-30,25,0,40,71,-71,36,7
1491086971743,0,6,-6,-103,-128,-7,-40,-81,-47
1491086971743,0,-73,12,60,119,-85,-57,-18,22
1491086971818,1,-19,12,-108,-128,-57,-49,-128,-55
1491086971818,1,100,82,-48,-31,-38,127,110,87
1491086971856,2,-45,-4,127,127,72,127,108,-6
1491086971856,2,2,6,-91,-73,-31,61,-69,-35
1491086971857,3,-30,36,32,71,-119,-128,-2,-48
1491086971857,3,-37,-34,-48,-81,-109,60,-50,-36
1491086971857,0,24,8,-2,-32,67,79,37,6
1491086971857,0,34,-1,9,-13,-96,49,54,18
1491086971858,1,26,28,18,26,-1,-20,-2,16
1491086971858,1,6,-45,51,105,66,36,-34,-39
1491086971893,2,78,25,-104,-104,-94,-5,37,15
1491086971893,2,4,26,52,41,-35,-78,-35,-29
1491086971931,0,14,10,-4,-46,-42,-96,-81,0
1491086971931,0,-2,-5,-35,46,93,102,41,31
1491086971932,3,73,21,22,0,-8,87,-79,12
1491086971932,3,-13,-32,37,32,47,78,72,1
1491086971932,0,45,-7,-76,-63,-19,14,-87,10
1491086971932,0,-45,-2,50,23,-12,-75,23,-37
1491086971933,1,-22,7,-11,20,73,43,57,-6
1491086971933,1,-12,2,82,25,9,70,20,-16
1491086971969,2,-24,2,-62,-34,-34,-60,-95,-41
1491086971969,2,-21,25,18,84,57,-62,22,16
1491086971971,3,56,9,-15,19,-32,28,20,38
1491086971971,3,-23,18,77,57,-77,-33,37,20
1491086971972,0,-22,-20,25,63,9,127,1,36
1491086971972,0,13,-16,-51,-110,-9,-97,-80,0
1491086971974,3,-43,-36,-49,-102,-50,-63,76,12
1491086971974,3,59,40,3,36,38,-6,-104,-2
1491086972006,0,11,-23,-4,47,79,-90,-20,11
1491086972006,0,-64,-22,-73,-82,-108,-20,-4,-58
1491086972007,1,-15,42,96,104,127,95,88,38
1491086972007,1,21,-18,-97,-83,-64,-128,11,13
1491086972007,3,-28,-22,29,70,46,14,-53,-47
1491086972007,3,9,22,-54,-125,-108,1,59,6
1491086972008,0,62,-3,7,-20,-35,57,-8,19
1491086972008,0,-60,-27,-72,-119,-95,17,-52,-99
1491086972043,1,9,5,17,47,-14,-83,13,-10
1491086972043,1,65,6,-6,40,72,-55,-20,9
1491086972081,2,-82,-13,-32,-83,-51,-44,-57,-61
1491086972081,2,-26,-15,31,82,26,118,44,-22
1491086972082,3,20,14,13,-7,80,38,-35,18
1491086972082,3,-75,-2,21,-21,-122,-10,-93,-16
1491086972082,0,78,15,7,36,40,-3,62,33
1491086972082,0,-8,14,60,43,-17,34,65,18
1491086972083,1,-53,-41,48,64,43,110,76,-17
1491086972083,1,32,-13,-118,-48,-4,-51,66,-18
1491086972156,2,-107,9,-38,-25,14,70,-77,-33
1491086972156,2,63,17,31,5,19,63,81,36
1491086972157,3,-15,2,-16,80,72,-5,-66,24
1491086972157,3,-28,-25,-6,-103,-49,-37,-37,-19
1491086972158,2,10,-16,29,29,64,-63,59,54
1491086972158,2,-5,6,-11,-100,-56,-115,-100,-24
1491086972159,3,59,-3,-36,-70,-113,58,46,26
1491086972159,3,-56,2,-44,-52,66,-81,-107,-22
1491086972193,0,-5,22,14,-49,-89,80,55,24
1491086972193,0,-87,-12,5,68,57,127,103,22
1491086972195,1,64,42,17,16,-3,35,3,50
1491086972195,1,-34,-13,53,52,-3,42,-7,-10
1491086972195,2,-63,0,-9,0,80,35,32,-33
1491086972195,2,24,-11,25,11,-31,-20,-84,11
1491086972196,1,-10,-29,-11,3,-11,-42,12,-9
1491086972196,1,4,25,-7,-28,34,94,8,-12
1491086972231,2,-3,7,48,100,-24,77,-10,16
1491086972231,2,0,-9,45,25,32,41,74,24
1491086972232,3,-13,-23,-29,-92,-48,-26,-88,-65
1491086972232,3,-18,-4,-37,-10,-25,-99,-39,-3
1491086972233,1,-86,-13,-87,-98,-64,-123,-48,-14
1491086972233,1,85,9,41,-26,-112,127,-7,-7
1491086972234,2,-9,4,5,9,-21,-128,51,71
1491086972234,2,45,23,-38,-43,-36,84,-62,-43
1491086972268,3,-22,0,-4,-28,-36,106,65,22
1491086972268,3,-17,-26,31,48,-13,69,93,-24
1491086972270,0,-2,20,3,53,114,-50,-49,2
1491086972270,0,-32,-24,-49,75,69,-7,-23,-12
1491086972270,1,-30,22,32,-71,-128,29,-25,-35
1491086972270,1,82,-1,13,55,119,-94,35,50
1491086972271,2,-28,-11,39,29,10,53,37,18
1491086972271,2,-128,-68,-82,-81,10,-46,14,-26
1491086972306,3,111,98,107,83,76,47,-56,48
1491086972306,3,-6,8,-91,-25,80,-103,-88,-16
1491086972307,0,21,-31,-72,-66,22,60,85,-28
1491086972307,0,-50,-9,49,64,80,-108,-98,-50
1491086972307,1,74,0,-11,-47,3,106,126,63
1491086972307,1,-89,-18,-10,39,-8,-64,-128,-57
1491086972308,2,54,28,77,123,2,73,64,50
1491086972308,2,-13,-30,-38,-101,0,18,-48,-41
1491086972343,3,-95,-25,-21,-65,-117,-100,-65,-64
1491086972343,3,59,34,67,17,-60,88,29,31
1491086972344,0,-45,-29,-86,-128,-10,-128,-128,-37
1491086972344,0,20,20,4,-52,36,127,63,44
1491086972345,1,-30,-44,8,42,-45,-76,21,-19
1491086972345,1,24,-2,-17,26,69,69,73,38
1491086972346,2,-120,-27,-44,-29,-60,-61,6,-75
1491086972346,2,62,51,119,-11,-24,127,38,35
1491086972381,3,-103,-50,-91,-51,41,-128,-78,-69
1491086972381,3,58,71,90,29,-2,47,-57,22
1491086972382,0,4,-11,49,127,102,127,111,59
1491086972382,0,3,-9,-32,-80,-99,-38,64,42
1491086972382,1,70,18,-14,-26,-97,-54,75,-12
1491086972382,1,1,-12,21,72,52,91,93,-18
1491086972383,2,33,10,-78,-2,108,91,49,36
1491086972383,2,-53,14,75,-9,-93,-27,-92,-88
1491086972419,3,-42,-2,30,108,94,-20,-31,3
1491086972419,3,-16,-38,-23,-24,41,4,21,35
1491086972420,0,24,30,59,-70,-128,-64,-60,-26
1491086972420,0,-18,-30,-110,-64,-67,-78,-34,13
1491086972422,1,57,-9,-2,107,-50,45,32,7
1491086972422,1,-91,24,3,-61,-109,6,-124,-80
1491086972422,2,10,-13,-30,55,37,-2,42,30
1491086972422,2,34,52,123,123,84,-61,57,47
1491086972456,3,31,-17,-88,-128,-98,-18,-128,-12
1491086972456,3,-90,-42,-111,-59,18,-108,-65,-91
1491086972457,0,50,-11,54,99,32,28,13,30
1491086972457,0,22,43,0,67,76,-51,-59,39
1491086972457,1,-19,-18,9,86,-24,44,-15,23
1491086972457,1,34,-50,3,-11,-46,90,127,32
1491086972458,2,-18,26,27,-124,-23,-67,-65,-67
1491086972458,2,32,-30,23,80,2,78,-104,1
1491086972493,3,-65,5,-48,-99,-21,-24,40,-12
1491086972493,3,15,15,12,61,-31,76,67,24
1491086972494,0,18,22,-6,-50,-67,-69,-128,19
1491086972494,0,9,-27,-20,58,-51,30,10,-38
1491086972495,1,28,30,-10,15,127,36,-23,33
1491086972495,1,-117,-35,-38,-71,-17,57,78,29
1491086972496,2,48,44,69,109,68,37,-93,-44
1491086972496,2,-15,14,-35,-122,-39,-38,105,13
1491086972531,3,42,-8,-7,8,-12,42,-11,25
1491086972531,3,-28,31,81,82,126,-28,93,-6
1491086972533,0,-31,-13,-47,-89,-125,-26,-29,-37
1491086972533,0,16,-6,-85,-81,96,102,32,17
1491086972534,1,-19,-45,115,119,120,13,71,-45
1491086972534,1,90,45,-3,-128,-103,16,40,93
1491086972535,2,3,-2,-4,124,76,49,79,40
1491086972535,2,-45,-37,-74,-87,-128,7,-119,-71
1491086972569,3,-15,25,67,-2,47,-25,26,-52
1491086972569,3,5,-34,-64,-89,-98,-128,-128,-57
1491086972571,0,-32,20,10,-8,-27,12,-53,-66
1491086972571,0,20,-7,11,111,-64,90,20,70
1491086972572,1,-68,-15,-42,-89,3,-56,40,9
1491086972572,1,47,15,39,77,38,14,-108,-2
1491086972573,2,-87,-58,0,40,68,86,50,-62
1491086972573,2,25,27,-12,-96,-78,74,-43,-15
1491086972606,3,7,36,99,-8,-60,92,70,89
1491086972606,3,10,-24,-79,28,-58,-128,-105,-56
1491086972607,0,-43,-2,-17,9,47,67,127,-7
1491086972607,0,22,9,114,45,-13,43,30,32
1491086972608,1,108,0,-113,-128,-128,-54,-3,-5
1491086972608,1,-25,9,-16,-26,11,-93,-84,1
1491086972644,2,98,9,53,73,17,73,-2,47
1491086972644,2,-107,-29,63,104,127,60,5,-57
1491086972646,3,-8,-32,-73,-66,67,-27,-26,-32
1491086972646,3,-57,9,11,-99,-24,-1,-62,-34
1491086972647,0,25,-21,-49,-26,41,2,-57,33
1491086972647,0,9,-15,64,41,12,75,104,-4
1491086972648,1,30,46,-6,82,115,-32,-75,46
1491086972648,1,-72,-19,-80,-7,41,101,82,-18
1491086972681,2,-54,-13,48,57,33,77,72,-31
1491086972681,2,59,24,-14,-96,-2,-41,85,72
1491086972683,3,-76,-15,-38,-79,-25,-21,-127,-104
1491086972683,3,98,4,26,-61,-72,109,127,98
1491086972684,0,-101,-13,9,30,30,-122,-41,-31
1491086972684,0,8,23,12,-21,127,-69,28,30
1491086972685,1,11,17,67,68,-52,127,127,13
1491086972685,1,-34,-26,-82,-120,-53,-81,-87,-40
1491086972718,2,-42,28,-13,-58,35,-52,39,22
1491086972718,2,-24,-14,36,101,82,2,69,39
1491086972719,3,9,-11,-64,-87,-68,-17,-16,7
1491086972719,3,-20,-9,94,127,127,28,-21,-36
1491086972720,0,95,31,-12,-128,-128,29,-40,-21
1491086972720,0,-40,-22,17,109,77,-57,-7,-52
1491086972756,1,6,7,-59,-62,-73,9,124,33
1491086972756,1,8,-5,30,-36,-35,7,-31,-5
1491086972756,2,-22,-37,-2,31,-128,12,91,45
1491086972756,2,-24,15,35,35,7,-82,-106,-79
1491086972757,3,69,6,-12,105,126,5,-46,117
1491086972757,3,-6,-3,0,-71,-61,85,3,-67
1491086972758,0,-28,-7,-24,-107,-18,-32,36,-57
1491086972758,0,-83,-22,28,-6,-128,125,-19,-82
1491086972793,1,-59,-32,42,103,112,57,36,-15
1491086972793,1,50,23,-36,73,112,-9,-52,9
1491086972796,2,-40,-5,-46,-67,-69,-95,-76,-42
1491086972796,2,11,20,-44,-21,65,60,99,34
1491086972796,3,14,19,55,-35,-89,-23,-89,-56
1491086972796,3,-65,2,22,53,70,101,30,38
1491086972797,0,95,-17,-26,-95,-38,20,65,47
1491086972797,0,88,-2,-38,52,61,-98,-128,-4
1491086972831,1,-113,3,37,47,59,112,73,-3
1491086972831,1,-11,-16,20,-33,-43,88,101,-22
1491086972831,2,-30,-11,-58,-55,-56,-76,-97,-32
1491086972831,2,-38,-75,-83,-20,-11,-40,18,-16
1491086972832,3,10,16,59,-72,-90,-28,-94,14
1491086972832,3,-2,-4,36,68,116,22,110,35
1491086972833,0,37,45,62,-14,-39,38,-22,52
1491086972833,0,-9,-11,-97,-128,-128,47,-57,18
1491086972869,1,35,-11,-32,95,96,73,-77,-18
1491086972869,1,-79,-2,27,-7,-65,-4,41,-35
1491086972870,2,72,6,60,74,83,87,28,65
1491086972870,2,-47,-3,-25,62,39,-12,109,34
1491086972872,3,-3,13,26,-26,43,-102,-57,-45
1491086972872,3,38,18,-48,-114,-41,12,-69,-18
1491086972906,0,-14,-7,-6,10,52,-37,-19,29
1491086972906,0,19,35,-30,-128,-128,-124,-42,-24
1491086972907,1,14,1,43,69,6,127,108,-31
1491086972907,1,30,13,6,95,97,-100,-45,62
1491086972908,2,-32,-10,35,38,-3,76,10,-12
1491086972908,2,-6,19,-6,54,50,12,-70,-32
1491086972909,3,-10,6,-11,-108,-128,-87,72,9
1491086972909,3,-7,-8,-18,-90,-105,44,54,24
1491086972944,0,-46,-11,-11,22,-32,69,-33,8
1491086972944,0,-33,-37,25,85,74,29,6,14
1491086972945,1,57,22,26,-62,-69,67,45,24
1491086972945,1,-22,-25,20,-14,-28,45,48,-26
1491086972947,2,19,1,-75,56,103,-73,-95,-16
1491086972947,2,11,16,69,28,-14,123,98,13
1491086972948,3,-49,-19,3,-50,-57,76,45,-5
1491086972948,3,47,-1,-93,-128,-128,-87,-63,33
1491086972981,0,4,18,62,93,64,-30,5,-37
1491086972981,0,24,2,-38,-122,-103,82,33,37
1491086972983,1,-64,-7,42,100,77,-17,1,-44
1491086972983,1,51,0,27,93,26,16,-31,68
1491086972984,2,-6,-16,-75,-53,-23,-28,81,-20
1491086972984,2,-58,-4,57,82,-110,44,17,-94
1491086972985,3,-2,-1,-76,-50,-33,-82,22,45
1491086972985,3,17,27,-7,3,16,15,24,38
1491086973019,0,-5,-12,37,76,-79,109,-6,-10
1491086973019,0,5,5,-26,0,113,-107,-62,0
1491086973020,1,-25,-21,54,14,2,60,-54,-15
1491086973020,1,5,-6,-74,-46,-60,-128,-34,-63
1491086973022,2,-11,-6,-45,-84,-23,-34,-17,5
1491086973022,2,-2,1,91,-16,-122,115,42,20
1491086973056,3,20,19,-11,127,127,-123,-41,-19
1491086973056,3,13,-9,59,127,127,69,31,5
1491086973057,0,-26,3,-5,-19,-94,89,-76,-13
1491086973057,0,-25,-14,-66,-103,12,-18,49,33
1491086973058,1,-1,-24,-3,1,12,-117,-74,-34
1491086973058,1,-6,14,-4,-23,-128,-60,-50,13
1491086973094,2,20,-5,18,57,6,39,12,-5
1491086973094,2,-1,-17,-32,73,75,-25,43,31
1491086973096,3,19,12,-4,10,-60,42,7,17
1491086973096,3,-16,2,66,46,-34,111,75,-15
1491086973097,0,16,14,-13,30,11,103,43,37
1491086973097,0,5,7,-12,-120,-3,79,-62,-24
1491086973099,1,34,15,-43,66,11,127,26,28
1491086973099,1,-39,2,26,-46,-45,16,-60,-50
1491086973131,2,36,13,94,100,97,93,79,10
1491086973131,2,-7,-11,-85,-104,64,-111,-58,12
1491086973132,3,-3,16,-37,-95,-98,-40,34,-12
1491086973132,3,-4,5,92,127,47,35,-34,-9
1491086973133,0,-10,-18,-32,40,-5,-68,0,-10
1491086973133,0,8,1,62,120,43,-47,-98,-31
1491086973134,1,-25,-16,14,8,12,-57,3,18
1491086973134,1,10,3,-43,-8,21,-61,-73,-31
1491086973168,2,-7,-22,5,-64,-2,-44,47,27
1491086973168,2,13,8,-7,2,-41,-8,16,-16
1491086973206,3,-14,-9,-40,-61,-10,48,-27,-17
1491086973206,3,2,-15,-3,-23,-34,-76,23,-6
1491086973244,0,1,-2,-22,-55,26,63,-37,-2
1491086973244,0,22,-2,18,19,-99,20,4,26
1491086973246,1,-37,-31,-9,-21,58,33,-12,-23
1491086973246,1,29,-2,-39,-76,-63,-64,33,30
1491086973247,2,-12,-9,-51,-34,9,9,-10,-31
1491086973247,2,-10,21,64,65,50,0,20,3
1491086973248,3,71,6,31,25,114,75,40,40
1491086973248,3,-15,10,-26,-46,-68,34,-16,-17
1491086973281,0,7,27,4,6,8,-126,-16,-6
1491086973281,0,30,4,-76,-87,-22,32,0,18
1491086973283,1,-9,-5,40,53,1,-28,-35,-21
1491086973283,1,-28,-17,33,67,127,83,33,51
1491086973284,2,-14,-19,-37,-61,-125,7,-14,-16
1491086973284,2,-36,-12,17,32,-55,-21,3,-18
1491086973285,2,11,16,-94,-107,-72,-106,-97,-3
1491086973285,2,-47,4,104,113,27,96,50,-42
1491086973319,3,42,-16,-72,-24,-57,-58,-35,-8
1491086973319,3,-34,-30,107,127,39,120,20,-3
1491086973319,0,47,-16,-68,-79,-62,-111,-51,6
1491086973319,0,-13,-36,-27,-9,50,9,4,-2
1491086973320,2,-63,-15,26,-89,-87,-53,5,-8
1491086973320,2,71,-2,-7,21,-22,-8,1,-11
1491086973321,3,-38,32,7,-24,22,48,-11,-17
1491086973321,3,81,11,-38,-48,-4,-1,36,27
1491086973356,0,55,22,8,21,126,54,35,11
1491086973356,0,78,72,7,37,-45,15,-36,5
1491086973357,1,91,-22,14,-65,32,21,-19,-23
1491086973357,1,61,28,-127,-128,-128,-124,51,-23
1491086973357,2,97,34,127,126,73,95,85,58
1491086973357,2,-6,6,-85,-127,3,-58,-84,-8
1491086973358,3,-66,-19,-81,-17,-94,40,73,12
1491086973358,3,-26,2,31,-8,-24,-3,-29,-13
1491086973393,0,-48,-67,-33,51,66,69,-58,-24
1491086973393,0,-103,-31,94,117,114,31,58,1
1491086973394,1,-14,30,3,-51,-25,-24,7,66
1491086973394,1,-128,-35,-116,-91,-24,16,-6,-41
1491086973394,2,-61,2,64,95,51,29,24,17
1491086973394,2,-45,-53,60,60,110,67,-12,0
1491086973396,3,-54,-30,-21,-46,-42,-104,-86,-50
1491086973396,3,62,-10,-35,-54,-105,111,127,56
1491086973431,0,15,7,-33,-93,-101,-123,-127,-55
1491086973431,0,42,-13,-4,27,59,65,98,21
1491086973432,1,5,-21,66,98,107,57,-63,-7
1491086973432,1,23,-12,42,74,-15,17,26,-10
1491086973432,2,5,-19,-34,-14,-1,60,13,5
1491086973432,2,-1,-17,-42,-10,-61,-28,-42,-4
1491086973433,3,38,-13,62,109,105,48,-18,-17
1491086973433,3,-72,20,-21,-66,-54,-11,53,10
1491086973468,0,69,20,10,70,3,-4,61,46
1491086973468,0,-51,-12,-53,-114,-73,-47,-59,-40
1491086973469,1,36,45,-22,-62,-70,-59,-24,25
1491086973469,1,-44,-2,84,123,127,75,10,-11
1491086973506,2,-26,-7,-31,-44,-26,65,14,-8
1491086973506,2,11,-18,44,127,97,94,54,29
1491086973506,3,-45,-4,18,-76,-100,-94,-63,-54
1491086973506,3,-19,-33,-24,-46,54,-2,-72,-4
1491086973507,0,-51,-26,-43,7,84,102,-6,-33
1491086973507,0,-57,-16,71,-6,16,68,20,-13
1491086973508,1,28,-4,31,112,-47,84,127,74
1491086973508,1,-27,1,-107,-122,-118,-99,-128,-52
1491086973543,2,30,-9,95,106,108,80,-3,-9
1491086973543,2,6,28,-114,-128,-63,34,52,39
1491086973544,3,-32,11,17,111,66,65,80,4
1491086973544,3,7,30,-14,-45,69,37,63,-3
1491086973581,0,-13,15,-22,43,-128,-84,-59,-40
1491086973581,0,56,33,62,9,12,37,42,11
1491086973581,1,43,15,-12,16,30,-6,-81,-5
1491086973581,1,56,26,37,116,92,62,57,21
1491086973618,2,-34,-5,-3,-68,75,-9,-36,15
1491086973618,2,-16,17,28,93,-20,-115,6,-25
1491086973619,3,-42,16,-120,-121,-107,-18,6,-34
1491086973619,3,95,13,45,127,53,-41,-60,33
1491086973620,0,-46,10,-68,-128,-16,28,24,-18
1491086973620,0,17,3,45,62,-27,-56,-76,5
1491086973621,1,-85,-18,-10,-71,8,-29,43,17
1491086973621,1,34,6,-28,-26,-4,34,-26,-26
1491086973656,0,-30,-5,2,-30,-86,-61,-70,-11
1491086973656,0,12,-2,55,95,75,75,-16,2
1491086973656,1,41,-14,-78,-92,-73,-15,-40,-2
1491086973656,1,-41,-24,-50,-99,-118,-12,3,-42
1491086973657,3,37,31,77,-13,32,-7,-73,-17
1491086973657,3,-22,-19,102,120,88,112,11,7
1491086973658,0,-38,-10,-118,-126,-112,-102,-52,-35
1491086973658,0,-4,-8,-36,-68,-114,-48,24,11
1491086973693,1,76,-20,41,95,78,127,89,-26
1491086973693,1,25,43,-7,-75,-128,-110,37,30
1491086973694,2,-41,-3,-23,-22,18,0,-29,-6
1491086973694,2,82,34,47,12,55,68,-22,35
1491086973694,3,-14,-14,-5,17,50,69,13,-5
1491086973694,3,-2,-19,12,86,75,-10,-85,-26
1491086973696,0,-32,-45,-53,-42,-59,20,-23,-3
1491086973696,0,24,5,-83,-61,10,-103,-124,-47
1491086973731,1,-5,1,25,101,106,26,16,18
1491086973731,1,25,-13,23,34,9,12,59,4
1491086973732,2,-10,-25,29,18,13,37,56,18
1491086973732,2,-25,-1,26,45,48,-32,-67,-11
1491086973732,3,-4,3,-14,-13,88,109,98,-1
1491086973732,3,9,45,-39,-112,-69,-106,-102,10
1491086973733,0,-32,-2,46,-9,-32,120,-15,-83
1491086973733,0,-25,-5,-33,5,54,106,105,13
1491086973768,1,36,10,28,79,-112,-128,-69,20
1491086973768,1,-32,-5,74,107,112,127,8,-17
1491086973769,2,-45,-9,-82,-72,-64,-27,35,-4
1491086973769,2,-6,21,-28,-1,-21,5,-23,26
1491086973769,3,34,9,19,35,-62,38,14,41
1491086973769,3,-22,-10,-33,-35,-36,-87,29,-30
1491086973770,0,-30,-13,71,86,68,127,26,-2
1491086973770,0,28,11,72,70,111,-52,23,5
1491086973806,1,-15,-20,-47,-128,-94,-83,-48,15
1491086973806,1,27,29,-56,-115,-81,-79,-63,38
1491086973806,2,-14,1,71,112,127,73,55,-20
1491086973806,2,31,-48,-35,-51,-128,-35,64,39
1491086973807,3,-98,-16,-81,-79,68,-91,-93,-27
1491086973807,3,96,33,43,32,-80,127,-71,-39
1491086973808,0,-65,-3,61,80,106,78,126,-32
1491086973808,0,9,12,-6,-42,28,105,5,23
1491086973843,1,-14,-8,67,127,-12,-52,22,25
1491086973843,1,-37,-34,-105,-128,4,-23,2,10
1491086973844,2,41,18,-66,-23,33,-13,-78,5
1491086973844,2,-17,18,85,89,26,95,37,-2
1491086973844,3,5,-19,1,57,38,122,65,-6
1491086973844,3,-28,6,-15,85,73,10,49,-4
1491086973845,0,79,12,43,95,1,32,66,50
1491086973845,0,-17,9,12,-81,-103,6,35,3
1491086973881,1,44,-3,-36,-10,87,-28,-46,31
1491086973881,1,-15,11,-22,-28,-34,32,-8,-10
1491086973882,2,25,12,2,-10,-12,-83,68,24
1491086973882,2,-4,-30,-92,-103,-103,-128,-27,-14
1491086973882,3,-38,5,44,86,0,63,-19,-27
1491086973882,3,89,14,39,61,83,-84,16,10
1491086973883,0,5,-1,-18,20,-4,-45,-49,-7
1491086973883,0,-71,-11,1,-41,26,15,6,-9
1491086973918,1,60,37,4,-45,-15,-87,-39,-15
1491086973918,1,-40,-32,20,80,103,86,23,-9
1491086973919,2,5,-8,-45,-128,-128,-54,-22,33
1491086973919,2,62,29,6,26,21,101,-26,-25
1491086973919,3,-68,-17,18,-63,43,102,-1,-18
1491086973919,3,-25,9,9,108,79,-66,26,1
1491086973920,0,18,-2,20,-31,-18,-44,-36,30
1491086973920,0,48,-26,-9,27,40,13,-23,0
1491086973956,1,-48,1,-55,-76,-105,66,35,-46
1491086973956,1,-1,-13,59,65,63,89,6,12
1491086973957,2,-47,-10,-53,-75,-63,-21,-1,11
1491086973957,2,58,36,-47,-91,-97,-49,-120,9
1491086973957,3,-28,-3,38,67,20,127,61,8
1491086973957,3,-4,-25,0,0,-5,-18,37,-12
1491086973958,0,30,54,96,127,127,84,-29,9
1491086973958,0,-72,-37,-55,-48,41,25,8,-58
1491086974031,1,1,19,-30,-81,-79,-118,-46,-22
1491086974031,1,4,-28,53,9,0,127,39,31
1491086974031,2,60,15,6,-62,-38,78,29,21
1491086974031,2,-88,-5,-38,111,80,-71,-34,-47
1491086974032,3,-28,-20,-11,0,-92,-81,40,9
1491086974032,3,-6,-5,-2,-92,-86,10,-51,-31
1491086974033,0,32,19,6,15,7,-19,86,59
1491086974033,0,-26,-14,69,87,-21,127,88,9
1491086974068,1,28,-20,10,69,126,52,-108,-48
1491086974068,1,-92,2,16,2,-30,82,56,25
1491086974069,2,5,-25,-64,-61,-1,-39,-96,-33
1491086974069,2,84,17,21,-25,-6,-25,0,36
1491086974106,3,-45,-5,59,110,101,44,110,35
1491086974106,3,-18,-17,-62,-123,-14,-6,-70,6
1491086974107,0,-33,-17,-32,13,33,-6,-17,-83
1491086974107,0,-18,37,-24,-33,16,0,-30,14
1491086974107,1,19,-19,5,76,103,7,-33,-39
1491086974107,1,-14,13,-21,-108,-102,-50,92,25
1491086974108,2,-5,-23,8,-63,-106,-20,-28,-23
1491086974108,2,2,-42,9,20,-8,-8,-77,-26
1491086974143,0,45,5,-63,-58,-67,-89,-112,-71
1491086974143,0,-95,-24,46,110,90,97,118,5
1491086974144,1,40,-20,11,-128,-128,118,-54,-21
1491086974144,1,6,16,-78,121,106,-126,-55,4
1491086974144,2,-5,-23,49,100,127,127,17,24
1491086974144,2,85,25,-24,-87,-119,-94,-71,-15
1491086974145,0,-18,19,64,65,61,93,-26,6
1491086974145,0,-1,-29,11,48,122,68,38,39
1491086974181,1,-42,14,-21,-101,-110,-110,0,5
1491086974181,1,10,-16,-19,-45,-52,2,0,-6
1491086974182,2,-49,-30,-7,9,-29,112,12,-9
1491086974182,2,111,22,-74,-112,-86,-84,46,91
1491086974182,0,42,1,-9,-16,-56,-52,14,19
1491086974182,0,-113,-32,50,101,30,127,-70,-95
1491086974183,1,79,9,-26,1,58,-98,39,70
1491086974183,1,30,34,15,37,59,59,40,12
1491086974218,2,-69,14,45,28,-64,-10,116,34
1491086974218,2,-32,-19,-52,-128,-31,41,17,-12
1491086974219,3,22,34,-13,12,70,-88,68,9
1491086974219,3,-46,-49,23,78,66,36,-65,-61
1491086974220,0,-10,4,-26,-78,13,26,-90,20
1491086974220,0,-70,-18,-11,2,-6,74,20,-73
1491086974221,1,59,39,10,-96,-120,-66,47,63
1491086974221,1,-72,-13,8,47,78,89,12,14
1491086974256,2,-41,-11,50,51,-54,73,120,-24
1491086974256,2,42,10,-42,-36,-70,-7,54,2
1491086974256,3,-44,-34,-75,-45,42,22,-100,-94
1491086974256,3,116,10,41,30,6,-124,0,63
1491086974257,0,45,30,-53,-83,-59,-55,77,21
1491086974257,0,6,2,78,-14,-4,88,56,2
1491086974258,1,-38,-1,-49,39,34,-101,-27,-4
1491086974258,1,-18,16,73,10,45,127,-28,-22
1491086974293,2,-34,-10,-25,8,-6,-52,72,0
1491086974293,2,-36,-1,-51,-95,-85,-102,-24,37
1491086974294,3,-18,-43,15,9,71,127,-30,-56
1491086974294,3,50,18,44,34,-77,-45,41,-25
1491086974295,0,-18,-27,-55,29,127,-63,12,-4
1491086974295,0,4,18,-28,-65,-79,-57,-128,-32
1491086974295,1,59,-1,52,66,-6,120,29,5
1491086974295,1,57,-1,-38,-67,-119,-94,29,62
1491086974330,2,49,-20,48,-52,-68,120,-75,-44
1491086974330,2,41,40,-61,-71,2,-40,-35,27
1491086974332,3,-88,-12,27,46,2,63,-21,-11
1491086974332,3,11,-19,8,44,-11,80,61,16
1491086974332,0,-44,10,89,121,54,5,-125,-38
1491086974332,0,-12,-20,-9,-10,-10,96,119,95
1491086974333,1,102,36,-70,65,60,-66,103,17
1491086974333,1,-67,16,69,-6,31,96,5,-27
1491086974368,2,15,-35,-35,65,88,76,3,14
1491086974368,2,-86,13,-48,-30,35,-77,-6,-21
1491086974369,3,68,-7,-38,-35,-127,63,123,25
1491086974369,3,-59,1,31,-3,76,53,-4,-33
1491086974369,0,16,-2,-30,-3,-26,-59,-23,-20
1491086974369,0,22,-4,78,70,-28,17,36,26
1491086974370,1,-38,-42,-90,5,45,-71,-44,-13
1491086974370,1,81,19,38,-95,-119,58,-128,-52
1491086974406,2,-89,-32,-85,-98,-5,-40,-82,-39
1491086974406,2,-34,31,-4,-19,-68,-80,-41,-79
1491086974407,3,-66,14,101,35,22,87,-22,69
1491086974407,3,-2,-30,-55,-2,-71,-25,-40,-23
1491086974407,0,57,29,56,-12,-23,115,55,66
1491086974407,0,-24,-28,-25,39,-5,-119,-128,-23
1491086974408,1,-26,5,29,-52,-68,-12,63,-37
1491086974408,1,2,4,-52,-128,-122,36,-65,12
1491086974443,2,6,-2,-29,58,44,87,83,24
1491086974443,2,34,43,21,52,1,-41,98,50
1491086974444,3,-48,-6,56,-44,-9,124,-15,4
1491086974444,3,42,2,-49,90,97,-128,47,12
1491086974445,0,-16,8,18,-120,-128,66,-44,-4
1491086974445,0,-28,-40,18,101,127,-5,24,-17
1491086974445,1,-92,-27,-22,-23,27,-62,-94,-74
1491086974445,1,19,31,-33,-54,-124,-88,-14,33
1491086974481,2,-62,-8,-30,-18,-13,-65,25,-16
1491086974481,2,22,-25,68,-24,-74,121,-26,-32
1491086974482,3,15,-4,-116,-128,-100,51,103,17
1491086974482,3,-95,-41,52,60,122,-13,-76,-98
1491086974482,0,127,76,119,8,51,78,-4,66
1491086974482,0,-90,-24,-69,-70,-121,-106,60,-5
1491086974518,1,68,27,-30,-85,-85,127,-4,3
1491086974518,1,-36,-20,50,68,48,127,3,-16
1491086974519,2,-90,-31,-91,-97,-64,-126,-31,-25
1491086974519,2,31,0,127,88,127,127,19,-34
1491086974520,3,85,10,-35,29,-23,-53,-84,41
1491086974520,3,-114,-17,-128,-128,-103,-5,127,30
1491086974556,0,-18,-7,38,101,-27,-14,-103,-64
1491086974556,0,61,6,-7,123,111,106,73,34
1491086974556,1,-31,10,119,-4,12,73,-23,-23
1491086974556,1,69,-11,6,54,59,106,121,76
1491086974557,2,-88,-18,-95,-46,-54,-99,-52,-68
1491086974557,2,5,-41,-70,-57,-112,-27,-126,-72
1491086974558,3,16,-15,121,127,127,67,8,0
1491086974558,3,-64,-3,-86,-128,-128,-79,46,43
1491086974593,0,70,32,-12,-52,104,36,74,17
1491086974593,0,-9,23,39,102,97,77,-53,26
1491086974594,1,-86,-52,-67,-17,-8,-88,12,-36
1491086974594,1,93,41,86,86,64,-21,-84,-8
1491086974594,2,29,-3,-67,-26,-49,-17,30,49
1491086974594,2,-52,0,10,-23,-17,-72,-74,-33
1491086974595,3,89,-3,21,114,-83,40,108,71
1491086974595,3,-90,-45,-67,-57,123,-50,-45,-63
1491086974630,0,27,18,104,127,116,103,35,21
1491086974630,0,-58,11,-53,-128,-101,-74,-60,-51
1491086974631,1,9,-9,-35,-109,-102,29,-31,24
1491086974631,1,34,-12,28,108,21,35,-7,20
1491086974632,2,11,9,-29,-103,-128,-59,18,4
1491086974632,2,50,20,19,-48,1,63,17,21
1491086974633,3,0,5,93,96,47,40,79,43
1491086974633,3,-10,32,-42,-71,5,-59,64,-28
1491086974668,0,-3,-24,-74,-42,37,-66,41,13
1491086974668,0,-8,-4,79,91,-1,101,3,44
1491086974671,1,-38,-13,-40,-19,-79,22,-70,-45
1491086974671,1,36,29,72,96,87,127,55,29
1491086974672,2,46,-11,79,127,93,-14,127,52
1491086974672,2,-58,-4,-98,-104,-70,-128,-74,-57
1491086974673,3,85,26,-49,-116,-83,-30,-43,12
1491086974673,3,-23,-38,38,90,23,125,18,7
1491086974706,0,-43,5,62,92,3,47,20,-8
1491086974706,0,40,7,39,4,-33,7,10,23
1491086974706,1,-81,14,-17,-55,-74,-22,34,-10
1491086974706,1,4,-26,-58,-128,-128,-67,-46,-15
1491086974707,2,5,-2,2,56,69,127,18,-4
1491086974707,2,27,0,27,-53,-33,-35,-51,-11
1491086974708,3,-44,-14,-1,49,55,13,95,44
1491086974708,3,-3,53,3,87,17,-43,75,6
1491086974743,0,13,-17,32,70,-34,-59,-14,42
1491086974743,0,33,-13,-35,-34,-16,5,-35,-16
1491086974744,1,-32,-16,17,-44,-45,22,10,-19
1491086974744,1,-21,-22,-91,-128,-97,-128,-115,-66
1491086974745,2,4,0,8,49,36,28,57,11
1491086974745,2,47,12,24,87,108,121,127,56
1491086974781,3,-20,26,-37,-76,-84,-128,-128,-60
1491086974781,3,88,-7,82,127,117,127,83,108
1491086974781,0,-56,-2,-77,-128,-128,4,-28,-29
1491086974781,0,-70,-7,-42,10,37,-79,-79,-49
1491086974782,1,116,34,26,127,119,60,72,52
1491086974782,1,-42,-21,2,-103,-110,-50,-116,-45
1491086974783,2,-68,-19,-18,-24,32,61,-46,-33
1491086974783,2,35,6,54,90,40,29,41,71
1491086974818,3,-34,-20,32,60,19,18,-42,-13
1491086974818,3,30,-3,-103,-102,-50,-113,-18,17
1491086974819,0,16,-1,-51,-99,-128,-10,-99,-42
1491086974819,0,5,0,55,65,85,65,65,20
1491086974819,1,-11,-3,-68,-98,-53,-6,-44,-16
1491086974819,1,-27,-13,62,89,105,-1,73,1
1491086974821,2,48,5,-15,-122,-55,-60,-69,-43
1491086974821,2,-2,18,-15,61,-31,15,6,4
1491086974856,3,-48,-19,-4,-56,9,51,10,-9
1491086974856,3,24,0,-48,-57,24,2,-6,57
1491086974856,0,3,23,60,53,-8,26,-17,-29
1491086974856,0,-47,-11,-37,-48,-49,57,52,-26
1491086974857,1,68,41,127,80,80,105,48,28
1491086974857,1,-41,-25,-112,-115,-45,-57,-100,-44
1491086974858,2,-27,5,39,-18,-14,-74,14,-8
1491086974858,2,-28,-27,68,52,12,94,36,-49
1491086974893,3,12,-14,-102,-94,-101,-107,-93,-19
1491086974893,3,14,22,72,66,71,54,100,51
1491086974894,0,30,8,34,127,91,84,-46,27
1491086974894,0,-15,-5,-51,-10,1,54,26,5
1491086974895,1,9,10,31,127,87,-31,-15,15
1491086974895,1,1,-4,-22,35,59,108,23,-18
1491086974931,2,-42,-13,-31,-55,-92,-88,4,-10
1491086974931,2,65,9,56,2,-65,-13,21,30
1491086974931,3,-32,6,-96,-83,103,-94,-31,0
1491086974931,3,18,17,62,-22,-128,71,6,-19
1491086974932,0,-15,-20,-62,23,30,-3,-41,-24
1491086974932,0,24,12,9,33,32,111,35,-13
1491086974933,1,-38,15,40,22,-91,-69,-68,-10
1491086974933,1,30,-14,-30,34,34,127,-33,-1
1491086974968,2,-20,-7,61,101,82,127,44,-7
1491086974968,2,-21,-24,-68,-115,-31,-66,-108,-25
1491086975006,3,23,11,22,-41,-8,-39,72,-10
1491086975006,3,-26,2,63,45,-27,-63,-48,-10
1491086975006,0,-1,-10,-34,-54,16,-56,55,31
1491086975006,0,5,-19,-38,8,12,-73,21,9
1491086975007,1,-38,-2,25,36,36,-9,17,-3
1491086975007,1,-8,6,9,-43,-43,-75,-45,-24
1491086975008,2,0,-2,-13,-11,-2,-42,10,9
1491086975008,2,53,15,-7,-3,0,3,4,31
