1491090410683,0,-66,-104,-103,-105,-107,0,-112,-66
1491090410683,0,94,109,-56,111,4,-85,41,47
1491090410686,1,47,110,42,114,22,-30,99,6
1491090410686,1,43,97,77,123,36,-20,41,6
1491090410686,2,-22,79,107,91,53,29,71,-14
1491090410686,2,32,-53,17,-10,-10,-14,-18,-16
1491090410732,3,14,-39,-16,-53,-15,-26,-25,-16
1491090410732,3,5,-53,2,-13,3,10,-19,-11
1491090410733,0,21,-38,-9,12,29,-3,-6,13
1491090410733,0,-29,-34,-10,-64,-52,-13,-40,-9
1491090410733,1,-22,-34,-13,-22,15,18,19,6
1491090410733,1,-100,-18,-21,-39,-14,-15,-42,-25
1491090410734,2,78,-7,-8,-11,30,-4,7,34
1491090410734,2,-45,-30,-7,-16,18,14,36,-9
1491090410780,3,-14,-7,-5,-4,-10,13,-33,-12
1491090410780,3,-29,-12,-21,-30,-11,6,13,-6
1491090410782,0,-43,54,4,18,-17,-45,7,-1
1491090410782,0,-9,18,16,-19,2,1,-24,-11
1491090410784,1,-43,-28,-16,-6,4,22,11,3
1491090410784,1,63,-15,-17,-4,-8,-22,-44,-4
1491090410829,2,5,17,-4,4,-8,-19,21,5
1491090410829,2,63,7,10,-14,-5,28,24,9
1491090410830,3,-58,-13,-12,-2,-5,8,-40,-10
1491090410830,3,61,8,5,3,4,-32,29,11
1491090410831,0,0,-7,7,5,25,41,50,14
1491090410831,0,5,2,3,14,9,-10,-19,-10
1491090410832,2,-27,32,16,12,14,44,24,10
1491090410832,2,58,-50,-12,-11,6,17,20,2
1491090410878,3,4,14,-2,5,0,2,25,-1
1491090410878,3,13,-18,-15,-9,-8,-21,-9,6
1491090410879,0,-85,-18,-7,-6,-7,-19,-23,-7
1491090410879,0,-11,-11,5,3,-5,2,1,-6
1491090410881,3,-15,4,1,-6,-5,-9,-38,4
1491090410881,3,45,-18,-6,-3,5,33,21,7
1491090410881,0,-1,-8,-1,-10,-8,-28,-9,10
1491090410881,0,-43,5,6,5,7,7,0,-8
1491090410927,1,20,17,5,5,-8,-31,-50,-9
1491090410927,1,-21,-19,7,10,16,8,28,16
1491090410928,2,-68,-15,-8,2,15,71,15,10
1491090410928,2,27,-15,-1,0,-7,-57,-23,-2
1491090410929,0,71,-9,-6,-6,-26,-38,-4,-13
1491090410929,0,-73,30,7,11,7,5,-22,-4
1491090410929,1,9,-12,-3,-3,12,32,66,17
1491090410929,1,-33,0,6,-8,4,10,-16,-5
1491090410976,2,65,12,-7,-8,-17,-1,-34,-9
1491090410976,2,75,2,2,-3,-12,-39,19,-3
1491090411025,3,-88,-2,4,3,-5,-5,-14,4
1491090411025,3,61,-16,-4,8,12,31,34,5
1491090411026,0,35,-6,-2,11,11,-32,-8,-8
1491090411026,0,-50,17,-5,-9,-13,17,-5,1
1491090411027,1,11,-7,4,-2,0,30,9,3
1491090411027,1,3,-20,2,13,0,-53,-72,-5
1491090411027,2,-29,-29,-13,-10,5,17,40,16
1491090411027,2,-7,-6,-2,0,-8,-9,-14,-3
1491090411073,3,72,9,1,15,12,-21,-14,-14
1491090411073,3,-34,0,-9,-23,-6,7,-15,9
1491090411074,1,25,3,10,4,0,41,53,-1
1491090411074,1,-21,-12,-1,14,7,-16,12,-4
1491090411075,2,71,-4,-3,1,3,-27,-68,-5
1491090411075,2,-60,8,-5,-8,-5,23,63,4
1491090411076,2,46,-16,-11,5,19,-8,-21,6
1491090411076,2,-6,-8,-1,-15,-11,3,-5,-16
1491090411122,3,13,27,11,2,-1,-15,1,6
1491090411122,3,-39,33,-5,-13,-10,60,16,3
1491090411123,0,96,-28,-7,-5,-2,-62,36,5
1491090411123,0,-22,11,3,1,0,-18,-71,-1
1491090411123,3,11,2,-7,6,-7,-37,-40,-3
1491090411123,3,6,3,-2,-9,-1,3,7,-2
1491090411124,0,-20,-3,-7,-5,-3,19,7,-6
1491090411124,0,27,-7,-1,18,3,-25,-9,5
1491090411171,1,-39,13,18,6,-1,16,19,-4
1491090411171,1,10,-10,-11,4,-3,-19,6,-4
1491090411172,2,-29,2,-9,-14,-3,4,-9,-10
1491090411172,2,-10,-10,2,0,8,17,27,-4
1491090411172,0,64,8,-11,-23,-24,25,-9,-2
1491090411172,0,11,2,-7,-11,6,-10,26,13
1491090411173,1,-65,-15,-8,-5,2,11,6,-7
1491090411173,1,67,11,11,11,3,-17,-9,2
1491090411219,2,-61,0,8,11,4,9,-5,2
1491090411219,2,28,-4,-5,5,4,10,42,2
1491090411220,3,11,-4,2,-14,-13,-28,-1,1
1491090411220,3,-29,40,-5,-7,-5,43,53,5
1491090411221,1,3,-30,-9,-5,-3,-27,-15,-1
1491090411221,1,49,1,5,3,-3,10,38,10
1491090411222,2,-79,-3,-6,-16,-12,5,-9,-8
1491090411222,2,28,0,13,18,11,-42,-43,1
1491090411268,3,10,-5,-12,-2,13,36,74,6
1491090411268,3,-11,-34,-7,-5,-16,6,-2,2
1491090411269,0,-23,3,-5,-7,-17,-17,-4,-9
1491090411269,0,-15,-5,2,2,-1,16,-3,-4
1491090411270,2,-20,4,3,10,-7,-11,-7,0
1491090411270,2,-7,-13,-7,-17,-18,15,7,-7
1491090411271,3,-44,-17,-7,0,5,-4,-65,-2
1491090411271,3,-13,-6,0,4,3,15,37,-3
1491090411317,0,-6,-26,-8,-11,3,-6,3,-1
1491090411317,0,-3,11,0,3,-6,-23,-13,-5
1491090411318,1,2,-87,-3,-9,-4,6,-28,-3
1491090411318,1,-67,-30,-1,4,4,-21,-23,-19
1491090411319,2,23,3,11,5,-1,-16,3,11
1491090411319,2,-18,41,-7,-18,-15,34,54,24
1491090411319,3,-12,26,-2,8,4,34,71,0
1491090411319,3,0,-9,-7,-3,11,-35,-75,2
1491090411366,0,-48,-4,-3,9,15,14,14,-9
1491090411366,0,57,5,8,-8,-8,-3,-11,-6
1491090411367,1,33,33,2,-1,-19,-9,-8,-1
1491090411367,1,-29,13,6,-3,-8,-2,12,4
1491090411367,3,2,-2,1,2,2,0,45,3
1491090411367,3,21,0,-3,6,-3,12,36,1
1491090411368,0,54,16,-2,-14,-7,-20,-38,7
1491090411368,0,-58,-33,-10,15,0,18,0,-15
1491090411414,1,-12,15,3,-11,8,27,40,14
1491090411414,1,-21,-11,-13,-7,-3,-15,-23,-16
1491090411415,2,13,12,15,23,-12,-5,16,-5
1491090411415,2,-51,-23,-12,-12,15,3,21,7
1491090411416,0,104,-9,-6,-4,-7,32,39,13
1491090411416,0,-67,-15,-3,-2,-3,-26,-54,-6
1491090411417,1,25,-9,3,-1,-6,-16,-14,0
1491090411417,1,-27,-1,-10,0,-2,5,4,-10
1491090411463,2,-59,-8,9,12,-2,-6,-61,-17
1491090411463,2,94,-4,-11,-24,-2,-11,17,14
1491090411464,3,-5,-2,9,9,3,25,37,-2
1491090411464,3,23,-2,4,9,0,-5,-38,1
1491090411465,1,-60,-5,-5,1,9,-9,-18,2
1491090411465,1,26,13,0,3,-12,-31,-11,-3
1491090411466,2,-21,-23,-3,-4,1,25,12,6
1491090411466,2,-22,15,1,-2,-3,-23,-13,-15
1491090411512,3,34,13,2,-2,-9,1,-42,7
1491090411512,3,-67,-17,-3,-5,12,21,17,3
1491090411513,0,36,-13,-2,9,8,-14,16,-6
1491090411513,0,-29,8,-1,3,-7,7,8,-1
1491090411514,2,53,5,-6,-13,-8,-1,32,8
1491090411514,2,-23,9,9,27,11,17,6,0
1491090411515,3,21,4,-8,-17,-12,-30,-31,-2
1491090411515,3,-10,-11,-5,-11,-13,3,17,0
1491090411561,0,-5,102,-7,7,8,-10,-18,4
1491090411561,0,32,94,3,-5,-9,-2,8,-8
1491090411562,1,-8,56,-3,6,1,-4,-1,1
1491090411562,1,-3,-4,8,3,0,3,27,3
1491090411562,3,25,-39,0,2,-1,-5,-3,-2
1491090411562,3,28,31,-6,-14,-5,-16,-1,-6
1491090411563,0,-5,50,5,10,19,3,24,-1
1491090411563,0,27,31,2,11,-9,-11,-22,7
1491090411610,1,10,-33,-6,-12,-4,28,48,-5
1491090411610,1,-10,-37,2,-6,-7,-11,-22,5
1491090411611,2,12,-32,0,-6,-15,-31,-16,0
1491090411611,2,-2,-54,4,7,23,49,5,4
1491090411612,0,-50,-31,-10,-17,-10,-20,-40,-11
1491090411612,0,12,-27,-6,-13,-7,-1,7,-1
1491090411619,1,26,-2,-3,-2,0,-4,12,2
1491090411619,1,48,14,6,1,-4,-9,-42,-6
1491090411658,2,-52,-12,7,11,-1,28,34,7
1491090411658,2,56,-29,-3,8,7,-28,12,-2
1491090411659,3,-14,8,0,-6,6,30,9,5
1491090411659,3,-12,-5,-7,-3,-4,0,24,-4
1491090411660,1,-17,8,13,4,-2,-19,-12,3
1491090411660,1,-36,-6,-7,9,5,20,26,3
1491090411661,2,45,-24,-6,9,6,14,24,3
1491090411661,2,-27,-6,-6,-16,-14,-10,-19,-11
1491090411707,3,30,11,9,-2,-3,-11,5,-2
1491090411707,3,-33,1,-2,-7,-4,16,-18,-5
1491090411708,0,-62,-5,-4,1,9,8,41,-6
1491090411708,0,27,-6,6,9,-3,-18,-28,9
1491090411709,1,24,-17,-12,-1,0,-15,6,-6
1491090411709,1,28,9,-1,-6,0,26,29,8
1491090411710,2,1,-16,-17,-24,-24,-15,-15,-6
1491090411710,2,-1,-1,5,-4,-4,0,-1,-7
1491090411756,3,-41,4,2,16,12,2,-19,-1
1491090411756,3,-6,-6,13,2,-3,-26,-15,0
1491090411757,0,-22,7,5,2,-6,-12,8,-12
1491090411757,0,15,-11,0,2,20,50,35,13
1491090411804,2,-24,-9,3,-3,-9,15,-5,-1
1491090411804,2,10,-25,8,1,1,-34,-14,-3
1491090411805,3,11,-23,-3,7,-2,4,-20,-4
1491090411805,3,24,-1,-1,-5,7,18,21,5
1491090411854,0,-5,-16,-2,7,-5,-25,-26,-15
1491090411854,0,-47,3,1,-10,6,33,61,17
1491090411855,1,-12,-17,-21,-12,-15,-10,7,-5
1491090411855,1,-61,-1,-9,-4,-4,-24,-34,-5
1491090411856,3,5,20,5,4,-13,-19,10,3
1491090411856,3,-24,7,0,7,0,18,13,1
1491090411856,0,34,-15,-16,-33,-6,9,23,5
1491090411856,0,-39,0,-3,1,-3,-43,-62,-14
1491090411902,1,18,7,6,2,7,28,20,8
1491090411902,1,27,14,-4,-6,-3,-15,-20,-8
1491090411903,0,-7,-11,-10,-15,5,37,2,9
1491090411903,0,-17,12,1,-8,0,-25,13,0
1491090411903,1,4,0,16,15,-5,10,-7,-10
1491090411903,1,45,-16,-9,-6,-1,-16,16,9
1491090411904,1,15,-25,-13,-20,-4,14,20,-5
1491090411904,1,-86,-11,1,3,-7,1,-20,-9
1491090411951,2,36,-13,1,2,-5,-3,22,-3
1491090411951,2,-8,-4,4,4,9,42,-7,-8
1491090411951,3,9,-106,-6,-7,-6,-33,-7,11
1491090411951,3,9,-101,-4,-2,6,1,21,6
1491090411952,2,20,69,-4,7,11,-20,-17,-7
1491090411952,2,-46,49,5,5,1,22,0,5
1491090411953,3,77,73,8,-6,-15,-8,-37,-2
1491090411953,3,-56,1,-5,-1,17,-1,35,-6
1491090411999,0,-32,6,2,7,-3,-5,-9,1
1491090411999,0,58,0,-1,2,5,-18,20,4
1491090412000,1,-14,7,-15,-16,-20,11,-4,4
1491090412000,1,-8,8,-3,-2,-8,12,6,-4
1491090412001,3,-17,1,4,3,4,9,12,-7
1491090412001,3,-21,10,-9,-16,-41,-60,-39,0
1491090412002,0,-37,-24,-8,-3,20,63,31,0
1491090412002,0,-19,-31,-11,3,-7,-20,0,-4
1491090412048,1,-4,38,13,25,12,0,40,10
1491090412048,1,-8,-6,-5,-38,-2,-37,-54,-15
1491090412049,2,-5,-15,-10,10,-2,44,32,-1
1491090412049,2,-23,-26,-12,-46,-24,-37,-2,5
1491090412050,3,46,-38,-3,23,22,38,-1,-3
1491090412050,3,29,23,14,13,12,-8,29,4
1491090412051,0,-8,49,-5,15,-21,-36,-52,-3
1491090412051,0,-22,56,-9,-38,-27,40,29,-5
1491090412097,1,-41,-42,-4,9,28,-27,-14,-3
1491090412097,1,22,-34,10,23,-21,18,-7,0
1491090412098,2,54,-24,0,-25,2,-45,-8,3
1491090412098,2,-50,-18,2,16,-1,53,-10,1
1491090412099,0,16,-4,11,8,8,-10,32,-1
1491090412099,0,44,-17,-8,9,31,37,-17,1
1491090412099,1,-17,6,-10,-18,-28,10,-9,-6
1491090412099,1,43,-11,1,3,33,-1,0,1
1491090412146,2,-40,2,-9,4,-9,-4,-24,1
1491090412146,2,54,5,7,-19,-32,-44,2,0
1491090412147,3,-61,-16,10,25,39,40,-14,-8
1491090412147,3,30,16,-1,5,-15,-10,-1,15
1491090412148,1,2,-33,-21,-8,-17,-11,21,1
1491090412148,1,16,13,-9,-16,-12,-93,-25,-9
1491090412149,2,-9,-45,-17,-1,19,-82,40,-1
1491090412149,2,23,-5,2,19,-10,-42,-48,-4
1491090412195,3,-24,19,8,-4,-17,-20,-16,-1
1491090412195,3,-17,-20,2,12,22,33,18,0
1491090412196,0,87,16,-4,3,-5,51,-10,3
1491090412196,0,-14,31,-10,-5,-11,-2,9,-5
1491090412197,2,-15,-13,5,-8,6,42,-2,0
1491090412197,2,-23,-37,8,12,3,-7,10,-4
1491090412197,3,73,9,-1,-5,-1,0,7,5
1491090412197,3,-60,15,-6,0,-15,-10,-35,-11
1491090412243,0,-45,-19,-6,-17,-4,25,32,-1
1491090412243,0,49,-19,-15,-18,3,14,1,4
1491090412244,1,-60,-11,-6,-2,-5,-27,2,-9
1491090412244,1,0,24,0,0,-1,-2,10,0
1491090412244,3,13,-1,9,-1,-7,-28,-13,-5
1491090412244,3,-35,4,-1,-5,12,23,29,3
1491090412245,0,-5,9,-12,3,-6,-34,-47,-4
1491090412245,0,-49,-1,-9,-22,-16,10,4,-5
1491090412292,1,5,-6,0,-11,-26,-6,4,-10
1491090412292,1,-6,-18,-3,15,9,-2,-35,-3
1491090412292,2,-26,11,21,38,9,20,29,5
1491090412292,2,16,-3,3,0,8,-10,-4,-3
1491090412293,0,-16,-11,-3,3,9,-16,-25,-4
1491090412293,0,40,8,-10,-15,-24,-7,-9,2
1491090412294,1,-3,-39,3,10,6,30,27,12
1491090412294,1,32,-11,-2,2,6,2,0,3
1491090412340,2,0,11,4,17,-2,11,-5,8
1491090412340,2,-19,9,9,13,2,-12,2,-11
1491090412341,3,-52,23,-5,-2,-9,-14,-37,-4
1491090412341,3,-14,17,4,-21,-8,9,36,2
1491090412342,1,-26,-4,-9,-11,14,14,11,3
1491090412342,1,12,-14,10,-5,3,5,18,-3
1491090412343,2,-4,-12,4,14,29,-11,-12,-7
1491090412343,2,-5,-16,0,-8,-17,40,36,1
1491090412389,3,17,-29,-24,-21,-16,-15,-11,1
1491090412389,3,-47,-57,-30,-17,-12,-29,-25,-10
1491090412390,0,29,-28,-11,-7,-3,7,12,-3
1491090412390,0,-37,-1,10,20,21,-5,-31,-2
1491090412391,1,21,19,15,18,10,-8,-2,1
1491090412391,1,-23,24,4,-12,-8,5,-3,-6
1491090412392,2,0,-15,-1,-2,0,23,9,8
1491090412392,2,6,-1,-20,-10,0,-9,-20,-5
1491090412438,3,-14,2,2,-6,-6,34,25,3
1491090412438,3,-5,-5,8,7,3,-44,-52,-17
1491090412439,0,-8,26,4,-9,-4,-9,6,-8
1491090412439,0,-57,-10,8,4,9,34,-28,3
1491090412439,2,-42,0,5,-1,-4,-46,26,-1
1491090412439,2,4,26,-1,2,-1,-1,-17,4
1491090412440,3,68,14,2,10,9,3,-58,-14
1491090412440,3,-45,7,16,-6,-8,29,73,14
1491090412487,0,13,-31,-22,-12,30,15,16,-8
1491090412487,0,-29,3,-29,-21,-30,-18,-11,-11
1491090412487,1,-74,-42,-5,-29,-37,-57,-6,-5
1491090412487,1,44,-15,-12,18,20,58,55,16
1491090412488,3,-12,-51,-26,1,-67,50,-13,3
1491090412488,3,-11,-36,-20,-34,-4,6,60,5
1491090412489,0,-28,-89,-25,-21,-30,-23,-18,-7
1491090412489,0,31,-8,36,82,98,0,-48,-10
1491090412535,1,-6,89,35,52,7,-41,-13,7
1491090412535,1,-19,16,-23,-59,-73,-15,-28,-24
1491090412584,2,-80,18,24,1,-40,-59,2,2
1491090412584,2,-15,-86,-24,12,46,76,41,-10
1491090412585,0,-63,54,-23,-51,94,41,32,-12
1491090412585,0,-29,-69,-59,-99,-128,5,-36,-23
1491090412586,1,-10,30,31,82,69,25,45,2
1491090412586,1,74,71,90,103,127,63,-66,6
1491090412587,2,76,42,10,-43,-121,-88,-6,8
1491090412587,2,-118,105,-3,-46,-59,14,59,15
1491090412633,3,85,-46,-33,-99,-10,35,50,0
1491090412633,3,-69,17,41,97,54,-8,4,-11
1491090412634,1,-41,-46,-71,-17,-102,-26,43,-19
1491090412634,1,-42,-128,-65,-77,-23,-12,-13,5
1491090412634,2,6,-24,36,127,127,127,27,-1
1491090412634,2,-39,28,61,39,-51,-29,-15,8
1491090412635,2,64,-17,-11,15,-63,0,-4,2
1491090412635,2,-36,-33,-2,-38,77,68,92,13
1491090412682,3,0,45,66,88,3,-14,16,18
1491090412682,3,-38,20,-35,-112,-48,-99,-58,-23
1491090412683,0,-11,4,-34,-2,-65,43,102,-5
1491090412683,0,39,-58,-33,-14,-14,16,-122,-24
1491090412683,3,-54,-2,-47,-128,-86,-109,-79,8
1491090412683,3,46,9,19,33,111,-42,19,6
1491090412684,0,28,-1,-13,-1,-45,6,-39,-6
1491090412684,0,5,4,3,-24,28,-55,30,10
1491090412730,1,54,-17,23,60,26,52,-12,-4
1491090412730,1,-64,-19,-2,-28,-49,54,-21,-19
1491090412732,2,82,8,-24,-52,33,-92,-24,-4
1491090412732,2,-8,-92,-55,-69,-128,-41,-24,-14
1491090412732,3,-99,38,16,55,9,66,51,23
1491090412732,3,11,-30,-5,-10,7,-36,12,-6
1491090412733,0,-59,-5,24,59,78,127,-20,9
1491090412733,0,-63,119,69,50,72,87,38,7
1491090412779,1,41,-125,-60,-118,-52,-128,-38,-38
1491090412779,1,-92,47,-18,64,31,127,64,-25
1491090412781,2,-18,38,33,-34,-46,-36,-110,31
1491090412781,2,115,-74,-33,51,127,-66,40,-4
1491090412781,0,-35,-55,-12,56,-47,-4,12,-14
1491090412781,0,-11,-24,-2,-97,-128,-37,19,-11
1491090412782,1,23,37,16,81,82,73,-31,6
1491090412782,1,57,10,12,49,36,-114,-81,-7
1491090412828,2,-18,42,-11,-71,19,40,-17,-10
1491090412828,2,28,77,-2,-5,-46,26,86,10
1491090412829,3,51,90,-16,-63,-13,-78,124,16
1491090412829,3,2,-27,18,38,77,48,-61,-14
1491090412830,1,-50,-29,35,34,120,78,-81,-12
1491090412830,1,58,69,-19,20,-99,0,127,63
1491090412830,2,10,-12,-36,-86,-15,-47,57,-37
1491090412830,2,66,-13,20,26,34,19,27,46
1491090412877,3,8,-116,3,46,100,26,0,-5
1491090412877,3,-10,-128,-30,-30,-96,-77,-116,-25
1491090412878,0,-76,-65,35,12,6,80,-17,-8
1491090412878,0,-18,-23,17,38,90,76,-36,5
1491090412879,2,-76,-58,14,42,-93,-102,52,25
1491090412879,2,-45,41,12,-105,55,97,51,2
1491090412879,3,36,85,13,62,107,32,-3,7
1491090412879,3,-39,124,-11,0,-14,-59,-17,7
1491090412925,0,32,85,13,0,127,-10,26,-29
1491090412925,0,-4,-56,-39,-22,-128,-70,48,3
1491090412926,1,-45,-128,-4,-61,38,11,-36,-26
1491090412926,1,54,-47,17,60,-39,33,11,41
1491090412927,3,42,98,-15,-38,-128,3,89,7
1491090412927,3,-79,73,36,43,54,-15,-52,-19
1491090412928,0,-18,54,5,115,123,21,20,30
1491090412928,0,-83,82,-17,-51,-58,48,41,21
1491090412974,1,76,5,-60,-84,-85,-128,-52,-14
1491090412974,1,-52,8,-13,72,-90,37,-34,-14
1491090412975,2,89,61,3,-42,-90,103,64,32
1491090412975,2,59,61,18,33,127,-26,-92,-17
1491090412976,0,11,-45,-41,-126,-97,-124,-42,-6
1491090412976,0,49,-17,-19,65,-63,125,83,19
1491090412977,1,-6,48,56,27,46,63,10,-21
1491090412977,1,38,30,17,0,-49,-83,-23,-9
1491090413023,2,30,-33,-28,-44,-83,2,-74,-1
1491090413023,2,-14,-8,-32,9,-18,31,84,-26
1491090413024,3,-1,8,37,46,-101,24,-52,8
1491090413024,3,5,-5,-18,-80,117,-41,-78,3
1491090413025,1,-35,-15,5,16,32,121,-56,9
1491090413025,1,-20,22,12,-18,-7,-56,25,7
1491090413025,2,0,-47,-23,-23,-16,-32,13,-18
1491090413025,2,46,-33,-27,-29,-101,60,-17,-1
1491090413072,3,-103,-21,27,111,127,26,61,12
1491090413072,3,-64,65,70,41,7,127,110,26
1491090413073,0,-31,-10,-54,-87,-2,-74,-67,-27
1491090413073,0,-3,-45,-69,-62,-81,-67,24,-16
1491090413073,2,106,-10,-10,-39,-58,27,-46,-31
1491090413073,2,-47,18,11,104,88,47,8,25
1491090413074,3,127,-37,-22,33,47,-8,-15,-13
1491090413074,3,-27,-14,-5,-21,1,-32,-61,-7
1491090413120,0,-1,21,48,31,-66,127,107,16
1491090413120,0,75,-19,-23,-128,-31,-128,-128,-30
1491090413122,1,-28,-64,-59,21,57,32,115,-10
1491090413122,1,23,-11,18,46,18,50,-94,-15
1491090413122,2,-43,50,67,112,123,104,101,30
1491090413122,2,-34,-1,6,-54,-71,-30,17,11
1491090413123,3,47,18,-39,-25,-43,70,-18,25
1491090413123,3,33,8,-6,60,53,6,47,16
1491090413169,0,-48,8,-31,-42,-56,24,-103,-3
1491090413169,0,2,0,30,59,-54,53,-25,-2
1491090413218,1,-53,37,63,36,48,-58,-58,-4
1491090413218,1,-18,-41,-41,-128,-128,-64,20,1
1491090413219,3,-90,25,26,10,47,5,88,2
1491090413219,3,61,-17,-35,-81,-100,54,16,6
1491090413219,0,-28,-9,10,26,14,-90,-47,-30
1491090413219,0,20,17,22,-18,-125,96,11,28
1491090413220,1,53,-14,-29,-51,-82,-128,-107,-11
1491090413220,1,-77,19,31,105,127,113,127,7
1491090413269,2,21,-5,-24,-27,34,32,-19,-6
1491090413269,2,1,-50,-53,-35,-76,-90,-64,-22
1491090413269,0,-93,11,18,72,60,79,83,34
1491090413269,0,-62,-19,-5,-26,68,2,17,-29
1491090413315,1,40,-8,-15,60,8,-75,2,0
1491090413315,1,-13,-6,15,-34,-58,103,7,5
1491090413317,2,13,19,38,34,29,-30,31,-2
1491090413317,2,-19,7,5,40,-17,94,-48,20
1491090413317,3,7,-23,-11,-59,125,-59,-77,-46
1491090413317,3,-43,58,39,-22,53,99,70,36
1491090413318,0,-37,-49,-61,-107,-128,-128,11,-16
1491090413318,0,49,-8,-42,-18,-2,-102,-88,-27
1491090413364,2,72,-15,-18,-14,-64,-17,-19,14
1491090413364,2,-24,30,62,57,-52,40,67,-7
1491090413366,3,50,-16,-66,-128,-117,-69,19,11
1491090413366,3,36,-32,-49,8,-75,-26,39,6
1491090413366,0,-55,30,55,118,116,73,45,2
1491090413366,0,-65,13,-9,-30,-34,17,113,15
1491090413367,3,3,16,34,21,-18,122,45,-8
1491090413367,3,83,-3,-16,26,29,-125,50,-25
1491090413413,0,-55,-34,-19,-57,-4,127,-26,14
1491090413413,0,48,-16,6,75,127,-114,95,4
1491090413462,1,-59,23,1,-107,-116,75,23,6
1491090413462,1,22,-48,-52,-46,67,-11,-70,-22
1491090413463,0,29,-30,-47,-72,-2,7,63,-7
1491090413463,0,-26,-20,-16,90,-71,-43,-128,20
1491090413463,1,-39,-23,36,62,18,58,57,-7
1491090413463,1,14,25,9,-70,-55,-52,7,4
1491090413464,2,29,-48,-36,-25,-62,-49,-18,2
1491090413464,2,-40,46,60,64,127,127,44,1
1491090413510,3,10,10,-25,-50,-114,-107,14,-7
1491090413510,3,-12,-1,-10,52,23,7,-1,1
1491090413512,0,-3,26,44,36,-54,54,-61,-4
1491090413512,0,50,-51,-78,-86,-128,-47,-45,-19
1491090413512,1,-54,-18,-9,35,103,83,-28,-25
1491090413512,1,-40,44,63,86,44,122,74,31
1491090413513,1,2,0,-23,-107,-128,19,-22,-4
1491090413513,1,46,-30,-4,104,76,-80,-47,-8
1491090413559,2,22,23,21,-66,-67,77,26,-8
1491090413559,2,-53,-13,-7,-5,-108,11,-4,47
1491090413560,3,13,7,28,90,71,-48,-16,-27
1491090413560,3,13,35,17,-111,-72,127,21,49
1491090413561,2,1,-23,-47,3,123,73,24,-30
1491090413561,2,13,40,60,127,57,47,33,30
1491090413562,3,-97,-9,4,-96,-46,-83,-64,-18
1491090413562,3,66,-4,30,63,52,62,-35,-2
1491090413608,0,-63,5,19,-12,-30,11,46,-21
1491090413608,0,-14,17,19,-1,-31,21,-77,-2
1491090413609,1,51,-12,-44,-88,-76,73,105,20
1491090413609,1,32,-24,-36,50,-4,-93,-39,-23
1491090413610,3,9,28,18,-33,-107,-87,-128,-23
1491090413610,3,-21,27,23,-5,42,104,86,23
1491090413610,0,45,43,-35,-42,-44,-99,-31,-46
1491090413610,0,-40,10,0,-1,-57,-10,-58,39
1491090413658,1,61,-9,-21,35,90,-37,-12,1
1491090413658,1,0,-59,-59,-87,-92,-71,-21,-39
1491090413659,2,122,-48,-7,-15,21,-40,-118,-3
1491090413659,2,-2,-1,23,70,-29,-35,62,23
1491090413660,0,16,-24,-13,-92,41,-56,-101,-38
1491090413660,0,-23,-30,-95,-101,-18,-45,105,-8
1491090413661,1,30,-1,19,92,40,-43,16,-15
1491090413661,1,-7,12,-2,6,61,91,-14,16
1491090413706,2,-18,13,27,50,-62,47,79,46
1491090413706,2,57,32,40,-51,-5,-72,-16,-36
1491090413707,3,-128,-19,20,113,79,122,69,13
1491090413707,3,-7,28,-5,-115,30,-8,-38,15
1491090413708,1,3,10,27,14,-41,107,9,32
1491090413708,1,-31,34,27,36,54,-128,23,-18
1491090413709,2,-94,57,70,37,-79,127,-24,28
1491090413709,2,-31,-27,-45,-108,121,-106,20,-22
1491090413754,3,78,-48,-77,-86,-108,-90,-112,-38
1491090413754,3,-28,-13,6,55,-22,94,106,15
1491090413755,0,-16,-36,-33,20,84,-91,-84,-9
1491090413755,0,-48,19,43,47,66,80,39,5
1491090413756,2,49,-10,-25,-32,-86,-19,-7,-5
1491090413756,2,-32,5,6,-25,67,64,-22,4
1491090413757,3,76,-28,-40,-42,72,36,79,11
1491090413757,3,22,-4,-27,55,38,-46,-86,-41
1491090413803,0,-44,20,25,47,-59,127,111,42
1491090413803,0,57,31,23,-34,-26,-4,25,10
1491090413803,1,-95,-11,1,-11,-80,-32,-81,-46
1491090413803,1,20,-10,0,-4,86,87,-69,19
1491090413804,2,40,7,23,42,84,-9,80,-46
1491090413804,2,13,-22,-4,-33,-92,-50,-83,44
1491090413805,3,-43,5,-10,-9,-67,57,79,10
1491090413805,3,56,-23,-23,-15,-16,-94,-62,0
1491090413852,0,61,-4,-18,13,12,20,-24,-16
1491090413852,0,-76,-17,14,-1,-19,112,92,33
1491090413852,1,56,51,41,51,-14,-84,-90,-12
1491090413852,1,6,-7,-18,-64,-71,21,15,13
1491090413853,3,-39,-25,-30,-6,20,-77,-43,-6
1491090413853,3,0,-14,-1,-11,-3,111,-97,-17
1491090413854,0,-5,-26,-35,-64,-29,-128,-86,-12
1491090413854,0,47,18,5,87,-121,-59,8,-24
1491090413949,1,-54,-52,-15,-41,71,77,-76,-14
1491090413949,1,27,-19,-42,-59,-47,19,20,-11
1491090413950,2,27,47,31,18,19,-5,-33,30
1491090413950,2,-6,-1,14,46,-36,-20,-55,4
1491090413951,0,27,-17,-10,37,40,94,-21,6
1491090413951,0,-57,-45,-46,-27,35,6,-11,-25
1491090413952,1,46,31,-2,-64,-34,31,-6,-5
1491090413952,1,44,-23,-30,-29,-124,-10,-73,6
1491090413998,2,-128,8,28,21,61,-5,32,-9
1491090413998,2,127,1,5,37,21,-47,75,19
1491090413999,3,-59,-55,-43,-18,-20,-83,-79,7
1491090413999,3,-34,46,28,1,-57,80,127,16
1491090414000,1,52,25,16,-77,-83,-3,113,1
1491090414000,1,-10,2,-20,44,127,-81,12,2
1491090414001,2,60,4,-44,-66,-61,-38,29,0
1491090414001,2,71,-24,-15,-28,-43,-32,-19,14
1491090414047,3,-79,9,20,108,122,56,103,7
1491090414047,3,72,9,28,-21,20,20,-10,-7
1491090414048,0,-120,-18,-39,-46,-77,46,34,7
1491090414048,0,99,26,18,62,46,0,42,-3
1491090414048,3,12,-1,16,49,-69,81,-75,-7
1491090414048,3,-21,-5,-8,-1,56,71,47,21
1491090414049,0,45,-4,-25,-21,-37,-49,26,-11
1491090414049,0,-29,22,26,114,-31,61,-93,3
1491090414095,1,58,-2,-15,-118,22,-41,-112,-27
1491090414095,1,40,-25,-30,-7,-119,-34,-11,17
1491090414096,2,6,13,57,81,-68,70,-4,17
1491090414096,2,-25,58,7,-52,88,-86,-7,-22
1491090414097,0,96,-8,-1,51,40,-99,-49,-24
1491090414097,0,-95,-14,15,6,14,22,84,31
1491090414098,1,-11,22,25,15,78,85,25,29
1491090414098,1,-55,22,12,10,-90,-89,90,-6
1491090414144,2,-9,-80,-62,-66,-41,-95,-49,-20
1491090414144,2,-17,-23,-34,-113,-112,-40,-69,-18
1491090414145,3,13,13,15,115,123,-16,46,15
1491090414145,3,23,-26,-21,-36,-75,-18,-103,-45
1491090414146,0,-54,16,28,48,102,28,-9,40
1491090414146,0,37,-10,-7,13,67,-90,-65,-14
1491090414147,1,-9,-5,-31,-79,-73,73,91,56
1491090414147,1,116,9,-23,3,-33,18,-113,-26
1491090414193,2,-15,17,12,-20,-97,-60,-32,-27
1491090414193,2,-55,-1,28,115,77,77,66,24
1491090414194,3,-28,49,79,127,127,66,-75,-1
1491090414194,3,-70,1,3,-102,-88,-62,-26,-4
1491090414194,1,-53,-10,6,1,-39,-88,-37,-28
1491090414194,1,-128,16,63,60,53,97,53,5
1491090414195,2,18,-5,5,-18,-14,-68,-10,20
1491090414195,2,47,24,25,-5,65,94,35,-20
1491090414242,3,-27,-27,-41,-28,-109,-99,57,16
1491090414242,3,54,28,31,29,-35,43,-110,-25
1491090414242,0,-100,-50,-75,-98,-99,-15,127,23
1491090414242,0,14,-31,-56,-58,-53,-28,-69,-45
1491090414243,2,18,20,22,-9,-54,-21,-39,0
1491090414243,2,-31,-1,37,23,41,83,-60,23
1491090414244,3,-14,-14,-18,-11,-52,-4,-3,-14
1491090414244,3,-12,-47,-41,-48,1,28,-79,-9
1491090414290,0,52,-22,-13,19,-21,-16,-97,-8
1491090414290,0,-12,17,33,22,31,127,123,1
1491090414291,1,-1,1,-21,-50,53,-39,-13,-10
1491090414291,1,79,2,-2,43,-49,52,63,33
1491090414292,3,-7,-25,4,51,35,127,-1,-9
1491090414292,3,-43,-2,-14,-27,-110,-122,-19,-22
1491090414293,0,43,5,-12,-67,-23,-5,11,1
1491090414293,0,-12,-6,8,66,18,-3,-15,-10
1491090414339,1,-26,42,49,27,-70,24,90,17
1491090414339,1,-60,-13,1,-19,96,97,82,21
1491090414340,2,75,-16,-12,42,-28,-36,-58,-27
1491090414340,2,-62,1,1,-51,-85,92,103,16
1491090414340,0,-71,4,16,24,64,127,-64,48
1491090414340,0,-1,-30,-14,5,-128,-103,-25,-25
1491090414342,1,-6,-4,-24,-106,53,107,-27,-5
1491090414342,1,74,-46,-34,35,-16,-50,-21,-31
1491090414388,2,38,28,40,90,122,-49,-34,-3
1491090414388,2,-57,6,10,-5,-7,28,20,32
1491090414389,3,-48,46,52,12,-10,95,49,6
1491090414389,3,44,-33,-46,-64,-38,-115,-54,-2
1491090414390,1,15,-62,-48,-77,-116,-106,-71,-23
1491090414390,1,96,3,-22,-45,31,11,23,1
1491090414390,2,-97,0,5,39,-27,98,107,7
1491090414390,2,77,-11,-19,-14,87,-124,-55,-1
1491090414437,3,-101,1,20,21,-54,111,30,16
1491090414437,3,83,5,-2,-30,-77,22,0,-17
1491090414439,0,-5,11,12,23,10,-82,30,-2
1491090414439,0,-1,-30,-5,-3,58,-4,29,-9
1491090414440,2,-11,62,31,-77,6,127,84,1
1491090414440,2,62,-8,-25,-62,-128,-106,-46,-22
1491090414441,3,-13,-20,18,127,127,23,12,-35
1491090414441,3,36,44,42,-24,-39,-2,-43,18
1491090414485,0,-30,-22,-35,-32,-51,-23,72,-16
1491090414485,0,79,13,16,26,38,109,-61,18
1491090414486,1,103,-6,-45,-69,-95,-25,-42,-4
1491090414486,1,-119,-23,-7,50,109,25,12,14
1491090414487,3,83,-13,-24,-3,-106,55,-88,-14
1491090414487,3,-54,-23,-2,53,120,-7,-4,9
1491090414488,0,1,-2,18,25,8,-50,-46,-17
1491090414488,0,-128,16,23,34,-35,32,93,42
1491090414534,1,25,11,-7,-39,127,-46,12,-7
1491090414534,1,30,-22,-60,-85,-128,-111,-63,-20
1491090414535,2,-25,27,32,77,83,96,-33,6
1491090414535,2,-30,-1,4,8,6,24,46,5
1491090414536,3,-75,25,33,49,5,-63,19,-11
1491090414536,3,-53,23,23,-72,-53,100,64,-6
1491090414537,0,38,-35,-60,-59,0,-7,-66,0
1491090414537,0,83,-32,-34,22,46,-123,-52,-40
1491090414583,1,-28,-17,5,25,-80,107,84,-11
1491090414583,1,25,44,45,104,127,-105,-108,8
1491090414584,2,-24,17,25,-1,-128,103,109,17
1491090414584,2,-16,17,-6,-108,-111,91,-3,6
1491090414584,0,11,-5,17,-6,-17,-49,-64,3
1491090414584,0,-48,47,61,127,123,73,-49,15
1491090414585,1,82,-12,-40,-122,-23,-57,-17,-1
1491090414585,1,-93,-8,-17,0,-83,127,-8,6
1491090414680,2,127,1,17,27,50,-128,-35,-19
1491090414680,2,-27,-11,-58,-105,-128,-8,2,-10
1491090414681,3,-51,-10,19,54,95,100,45,8
1491090414681,3,37,-19,3,83,60,-121,-112,10
1491090414682,1,-23,-9,-5,6,51,-128,-24,44
1491090414682,1,55,-14,10,71,6,72,43,2
1491090414683,2,-18,10,-1,-29,-64,-29,-75,4
1491090414683,2,-6,-19,-34,-72,-93,15,1,15
1491090414729,3,-32,-8,-16,33,-56,84,-116,-25
1491090414729,3,39,13,15,9,-2,-42,57,-14
1491090414730,0,52,-37,-9,7,18,26,-36,28
1491090414730,0,-1,18,19,45,11,71,-8,-41
1491090414731,2,-26,14,-3,-19,5,61,59,-9
1491090414731,2,-18,-34,-49,-58,-28,17,-26,8
1491090414732,3,30,13,14,21,-34,79,-94,-4
1491090414732,3,12,28,59,100,93,41,-31,48
1491090414778,0,-51,7,-32,-82,-125,89,104,22
1491090414778,0,42,-17,-17,-31,47,-77,-41,-30
1491090414779,1,-29,1,28,74,30,82,41,-3
1491090414779,1,-33,8,-2,-58,-125,13,92,22
1491090414779,0,-54,37,55,59,54,-11,4,7
1491090414779,0,-70,-20,-11,-21,0,-93,-9,-11
1491090414780,1,-4,-8,0,-19,-31,82,44,-8
1491090414780,1,30,-19,-33,5,-55,-111,-83,-47
1491090414827,2,-3,-7,9,36,64,122,6,-19
1491090414827,2,-49,34,31,25,-5,106,66,11
1491090414828,3,66,-16,-46,-82,-1,-34,-69,-2
1491090414828,3,-73,-20,4,32,6,24,108,-10
1491090414829,1,61,9,35,53,-43,24,-16,20
1491090414829,1,-128,14,5,8,80,127,60,14
1491090414876,2,90,-37,-5,-42,-128,-50,-4,-39
1491090414876,2,39,-19,-23,50,88,-30,-32,22
1491090414876,3,-54,0,-5,-20,-56,44,42,-16
1491090414876,3,-18,51,41,35,48,14,23,28
1491090414877,0,23,3,-6,-27,-116,2,-97,-21
1491090414877,0,-77,12,-3,33,77,47,84,8
1491090414878,1,-2,-14,13,-27,11,25,47,-17
1491090414878,1,25,-34,-46,-44,-39,-85,-113,-27
1491090414924,2,-84,12,0,35,-76,63,127,25
1491090414924,2,-60,22,32,-1,67,103,39,-8
1491090414925,3,73,5,-9,82,112,-107,-128,-17
1491090414925,3,26,-11,-21,-113,-118,68,47,1
1491090414926,0,0,-9,-28,-96,-1,-57,-5,2
1491090414926,0,-6,-23,-18,75,-30,-4,-109,-35
1491090414927,2,-4,4,12,30,-48,108,-7,9
1491090414927,2,-92,8,33,50,72,1,21,14
1491090414973,3,67,-11,-25,-76,-43,-56,-78,-20
1491090414973,3,33,-20,-35,-46,-106,-33,-93,-16
1491090414974,0,-84,-20,3,80,123,113,4,7
1491090414974,0,92,17,11,-31,-100,-69,-42,-45
1491090414974,3,54,-5,-20,-40,-98,-95,-6,21
1491090414974,3,-13,1,-29,-73,-86,-38,-36,-10
1491090414975,0,17,30,52,112,18,85,-24,2
1491090414975,0,-34,-31,-10,-55,-120,-90,40,52
1491090415022,1,34,-27,-60,-78,-128,-57,-15,-20
1491090415022,1,29,12,25,48,111,10,-66,1
1491090415023,2,35,-32,-21,24,82,-104,1,-4
1491090415023,2,-53,1,32,45,-27,97,50,3
1491090415024,0,-15,-33,-59,-9,-47,43,-71,0
1491090415024,0,-3,36,73,93,80,127,-35,64
1491090415025,1,27,15,20,1,16,-94,6,-45
1491090415025,1,-69,-13,-27,-41,-58,56,-9,12
1491090415070,2,39,-2,8,-15,74,69,69,2
1491090415070,2,78,-29,-47,-15,31,-113,-45,-23
1491090415072,3,7,22,11,49,64,106,5,23
1491090415072,3,-60,24,19,27,94,108,24,0
1491090415072,1,-26,-5,9,25,-28,-23,-48,-21
1491090415072,1,60,-10,-35,-88,-128,-91,87,-9
1491090415073,2,-21,-19,-28,51,24,-12,6,6
1491090415073,2,26,32,46,42,75,59,28,3
1491090415120,3,-18,32,38,77,66,-28,82,-10
1491090415120,3,-23,11,19,0,-44,69,-15,9
1491090415120,0,-50,8,-7,-52,-40,55,47,14
1491090415120,0,127,-41,-59,-92,-117,-118,-90,-71
1491090415121,2,35,2,13,-64,-128,-128,-91,-25
1491090415121,2,-57,-4,-6,-20,12,56,27,0
1491090415122,3,-128,-19,20,22,46,92,26,-30
1491090415122,3,100,14,-26,-27,-64,-118,-64,6
1491090415168,0,47,-12,8,13,16,27,25,-24
1491090415168,0,-86,8,13,63,68,107,41,20
1491090415169,1,67,-9,-17,-79,-116,-128,-40,3
1491090415169,1,-24,-10,-17,-44,-77,-5,63,-16
1491090415170,3,14,-12,-8,10,71,91,-17,4
1491090415170,3,-49,1,19,21,-76,68,-34,7
1491090415171,0,64,-31,-69,-128,-123,-128,40,-21
1491090415171,0,-15,5,39,108,61,126,-32,15
1491090415217,1,-60,11,-3,-85,-128,86,-3,-28
1491090415217,1,35,-44,-41,-84,-16,-89,14,-14
1491090415218,2,-23,-13,8,88,77,75,-14,1
1491090415218,2,80,15,-11,-29,59,-112,-33,2
1491090415219,3,-66,12,4,35,-95,22,45,26
1491090415219,3,3,11,35,50,127,41,-86,-12
1491090415220,0,39,9,20,6,-10,32,57,15
1491090415220,0,-114,-7,-26,-85,-103,67,83,-36
1491090415265,1,127,-42,-71,-89,-85,-128,-84,-17
1491090415265,1,7,-12,-17,50,-11,38,97,5
1491090415266,2,-81,32,39,42,58,106,49,21
1491090415266,2,82,-5,9,4,35,-29,7,-5
1491090415267,0,57,-43,-48,-8,-16,-94,-127,-30
1491090415267,0,-104,18,-7,-93,-2,103,91,4
1491090415268,1,-18,-29,1,18,85,69,89,16
1491090415268,1,108,-21,-17,65,72,-74,-128,-51
1491090415314,2,-58,6,-6,-41,8,22,24,14
1491090415314,2,-39,-9,-7,-6,-128,37,-1,0
1491090415315,3,-19,35,53,78,126,56,41,7
1491090415315,3,-22,-14,1,127,-19,-24,-5,-8
1491090415315,1,-47,1,-4,13,72,-18,63,25
1491090415315,1,31,8,3,-108,-106,-54,-38,-41
1491090415316,2,51,-2,-10,-32,112,-77,-38,-22
1491090415316,2,-1,-34,-27,-12,-19,27,-96,0
1491090415412,3,5,29,36,-60,-43,-71,-19,-13
1491090415412,3,-40,3,2,-41,24,73,31,17
1491090415413,0,-13,9,15,-38,-30,56,-33,11
1491090415413,0,-14,33,19,-59,37,-45,115,14
1491090415413,2,-31,15,7,29,66,119,89,17
1491090415413,2,-15,13,56,69,56,36,-16,26
1491090415414,3,-7,-11,-29,-22,-83,-24,-2,-52
1491090415414,3,46,-7,-7,-33,12,-79,-37,2
1491090415460,0,-73,-23,-23,-60,-68,41,-13,-18
1491090415460,0,118,-13,-27,4,15,-93,-52,-8
1491090415461,1,-72,-3,12,73,-51,47,38,17
1491090415461,1,-95,51,54,15,112,86,-34,-37
1491090415462,3,8,-27,-41,-61,-31,-60,33,-46
1491090415462,3,-12,7,24,17,28,84,59,14
1491090415463,0,-73,36,59,44,0,127,42,30
1491090415463,0,126,-21,-30,-37,-45,-106,-57,-22
1491090415509,1,-81,-10,20,91,68,-36,-48,-6
1491090415509,1,-59,-16,-27,-62,-91,-59,33,-12
1491090415510,2,82,-22,-34,-71,-96,-28,-74,-17
1491090415510,2,37,-8,-5,26,61,11,94,21
1491090415511,1,-25,-36,-45,-60,-109,95,29,-1
1491090415511,1,-1,1,5,51,45,-117,-58,11
1491090415512,2,4,-25,-29,-78,-29,-74,-83,-47
1491090415512,2,22,18,38,88,63,95,90,47
1491090415558,3,-70,20,32,18,97,-64,-61,14
1491090415558,3,39,-36,-55,-97,-127,39,-10,-10
1491090415559,0,-12,8,39,127,127,102,-37,20
1491090415559,0,-76,-14,-16,-96,-121,60,5,0
1491090415560,1,90,9,-14,-46,-65,-36,41,-25
1491090415560,1,-22,-15,4,86,100,107,24,27
1491090415560,2,59,28,10,36,53,-85,104,15
1491090415560,2,-127,46,31,6,77,127,-99,-7
1491090415607,3,-3,-33,-2,71,-6,-53,-4,-24
1491090415607,3,-38,-2,-15,-128,-128,5,-18,8
1491090415608,0,53,-40,-50,-47,-6,-59,20,-7
1491090415608,0,-18,-9,29,108,11,-60,-37,7
1491090415608,2,-105,0,6,22,49,127,66,9
1491090415608,2,94,-4,-15,-50,-80,-128,-60,-41
1491090415610,3,-11,-19,-23,2,-33,26,-95,24
1491090415610,3,-5,11,34,55,49,69,70,-2
1491090415656,0,-59,12,1,-62,-44,30,-25,-20
1491090415656,0,-32,-27,-17,63,38,-7,37,-12
1491090415698,1,-8,-13,-2,-17,-23,-34,-47,15
1491090415698,1,21,1,-13,-52,-78,-73,29,-14
1491090415699,3,-94,6,-7,-101,40,72,82,-16
1491090415699,3,28,-4,5,24,-48,70,-69,-3
1491090415699,0,62,-29,-7,7,61,-128,-95,-20
1491090415699,0,48,-11,-19,16,41,77,48,7
1491090415704,1,-69,-3,15,25,-7,113,23,1
1491090415704,1,89,33,19,18,-4,-47,42,18
1491090415705,2,-57,0,14,-55,-121,3,64,-17
1491090415705,2,-51,2,-2,13,63,16,-15,40
1491090415706,0,-4,16,18,31,-61,113,-93,4
1491090415706,0,-21,-2,9,3,96,39,73,-15
1491090415707,1,64,7,2,65,84,-56,8,2
1491090415707,1,-94,11,2,-49,-32,62,82,6
1491090415753,2,2,5,-4,49,32,-68,-35,-23
1491090415753,2,21,-26,-20,-128,-20,39,24,5
1491090415754,3,70,-44,-44,27,-40,-68,-57,-23
1491090415754,3,49,0,-15,21,96,48,5,2
1491090415754,1,-47,20,28,32,32,-9,47,21
1491090415754,1,-20,13,41,-16,-112,63,-57,27
1491090415755,2,-8,-32,-39,-99,-81,-50,-71,-43
1491090415755,2,99,-14,-39,23,0,-48,50,7
1491090415802,3,50,-3,-15,-11,6,44,-79,-15
1491090415802,3,-100,-18,-23,-41,-11,87,48,-28
1491090415803,0,-39,15,40,117,127,127,24,59
1491090415803,0,-49,35,32,-96,-6,-51,-30,-13
1491090415803,2,18,7,-1,-65,-29,-4,69,18
1491090415803,2,-54,-15,-5,41,30,67,-121,-21
1491090415804,3,-17,-39,-16,-36,-98,-3,109,30
1491090415804,3,14,30,44,62,114,-17,-46,1
1491090415850,0,-37,31,21,42,53,17,-27,10
1491090415850,0,50,-29,-45,-70,-121,-37,-44,-10
1491090415851,1,-25,15,24,5,47,53,87,3
1491090415851,1,60,-11,-17,39,85,-123,-72,9
1491090415852,3,31,-26,-48,-116,-58,-34,-62,-20
1491090415852,3,38,-8,-26,-6,-37,-52,-87,6
1491090415853,0,25,13,35,111,122,73,-81,-10
1491090415853,0,22,-17,-16,-30,-75,-41,24,-9
1491090415899,1,23,31,7,-61,-75,-6,24,22
1491090415899,1,-12,-2,2,51,52,96,13,13
1491090415900,2,19,-19,-31,-62,-107,-128,-74,-50
1491090415900,2,22,42,43,93,114,127,50,12
1491090415901,0,10,-26,-46,-58,-67,-2,87,-7
1491090415901,0,-5,-14,-16,20,-128,-33,-111,-35
1491090415902,1,-105,8,16,32,127,102,53,11
1491090415902,1,93,3,6,52,76,-65,-75,-28
1491090415948,2,-18,-14,-9,-25,-51,-98,40,35
1491090415948,2,-8,9,10,-41,-10,41,39,23
1491090415949,3,22,-4,32,80,-68,-46,-41,-7
1491090415949,3,-125,-21,-46,-103,-128,6,100,-5
1491090415949,0,11,13,-3,42,85,45,78,25
1491090415949,0,37,-27,-8,8,99,-99,-78,-42
1491090415950,1,-34,-35,-8,25,70,127,39,22
1491090415950,1,2,40,47,8,-114,-71,30,20
1491090415997,2,33,21,17,35,60,52,17,-9
1491090415997,2,-61,-2,11,21,13,70,71,22
1491090415997,3,-5,-4,-18,-43,1,-97,-57,-18
1491090415997,3,-2,-23,-19,-18,27,-9,7,-32
1491090415998,1,31,-17,-35,-56,-87,-51,-25,-18
1491090415998,1,-24,-17,-24,-65,-99,103,-15,-11
1491090415999,2,57,-25,-16,36,29,-106,-28,-26
1491090415999,2,-30,-5,1,0,16,49,30,17
1491090416045,3,-8,72,60,57,92,68,36,-10
1491090416045,3,-82,23,34,51,67,94,126,15
1491090416046,0,68,-53,-47,-65,-44,-102,-64,-9
1491090416046,0,-49,7,-5,8,-66,85,48,0
1491090416047,2,-66,3,11,-9,39,15,-50,-12
1491090416047,2,22,-4,-2,-10,24,10,58,-8
1491090416048,3,0,-18,-30,-55,-63,-35,-60,0
1491090416048,3,11,6,11,49,13,47,-97,-15
1491090416143,0,-34,-17,7,24,10,-15,3,-5
1491090416143,0,-36,28,37,-8,60,103,-23,13
1491090416144,1,56,-18,-27,-19,-11,-41,-52,-19
1491090416144,1,23,25,19,25,-44,46,29,36
1491090416144,3,-39,16,51,51,-10,127,90,24
1491090416144,3,98,-4,-11,-33,43,-128,-9,-10
1491090416145,0,-102,-6,-8,-4,-9,85,17,-8
1491090416145,0,-16,-53,-58,-89,-114,-86,-30,-23
1491090416192,1,0,47,53,60,80,69,40,38
1491090416192,1,11,-16,-9,38,75,-12,-3,-8
1491090416193,2,-20,37,66,54,-89,-6,21,-15
1491090416193,2,2,21,11,-71,-74,16,40,16
1491090416193,0,-48,17,9,11,-10,68,107,-23
1491090416193,0,75,-31,-52,-38,-100,-88,-53,10
1491090416194,1,-49,36,5,24,127,96,-7,20
1491090416194,1,10,-13,-15,20,-101,-69,42,-48
1491090416240,2,-44,16,16,-39,-47,53,0,23
1491090416240,2,73,-11,-19,5,28,-100,30,-40
1491090416242,3,11,-22,-15,-23,-89,-36,1,-21
1491090416242,3,-6,16,8,3,27,47,-63,28
1491090416243,2,22,-10,-20,8,51,-101,58,6
1491090416243,2,14,-10,-28,-57,-17,16,-95,-1
1491090416243,3,-52,1,40,69,51,100,-10,20
1491090416243,3,21,-34,-49,-82,-128,-100,4,-28
1491090416289,0,39,-3,-23,-11,4,57,-60,-17
1491090416289,0,-15,-19,9,85,88,54,69,26
1491090416290,1,55,20,3,19,-107,-51,-58,-27
1491090416290,1,-25,23,49,-9,-78,90,66,12
1491090416291,2,-5,13,4,-46,91,39,-45,16
1491090416291,2,48,-22,-48,-49,-13,-10,-55,-34
1491090416292,3,8,-27,-29,59,99,66,42,0
1491090416292,3,-20,-7,15,-7,-42,49,-44,15
1491090416338,0,4,-26,-16,-67,-128,-97,26,-9
1491090416338,0,-6,5,13,23,48,7,-15,-1
1491090416339,1,36,61,58,46,-75,67,18,22
1491090416339,1,-27,-21,-24,-26,21,-86,81,6
1491090416340,3,-8,4,15,14,100,111,59,6
1491090416340,3,18,8,2,71,10,-34,11,-9
1491090416340,0,-40,19,29,-21,-9,4,33,5
1491090416340,0,9,19,9,25,54,43,-15,3
1491090416387,1,-29,-13,-2,-47,12,-14,61,-6
1491090416387,1,41,-23,-31,-24,-27,-37,-128,-41
1491090416387,2,-62,-24,-4,55,51,73,109,22
1491090416387,2,36,21,-5,-28,-51,-90,-34,-18
1491090416388,0,-2,0,14,34,117,100,32,18
1491090416388,0,-10,20,20,-6,-51,-50,20,-7
1491090416389,1,-26,-16,-28,-26,-17,5,-9,7
1491090416389,1,37,-5,-9,-43,82,19,-29,44
1491090416435,2,106,46,23,76,35,12,-46,-30
1491090416435,2,11,-20,-12,-40,-101,-63,66,43
1491090416437,3,-22,-14,-26,-57,-76,-5,9,-11
1491090416437,3,-21,-17,-6,47,68,88,-24,-21
1491090416437,1,19,-26,-29,-44,-54,1,88,-13
1491090416437,1,5,3,-16,-49,-108,-58,61,-4
1491090416438,2,13,-28,-46,-45,44,-39,-75,1
1491090416438,2,-12,30,43,94,29,122,111,26
1491090416484,3,-55,-10,3,-16,64,-120,-22,-8
1491090416484,3,-29,-4,-4,-2,80,127,3,24
1491090416485,0,66,-31,-34,-9,-128,-128,-64,-40
1491090416485,0,-44,-43,-61,-74,-71,-56,15,-17
1491090416486,2,-45,-19,-19,-92,5,-84,-62,15
1491090416486,2,86,15,7,66,116,6,-3,-7
1491090416487,3,-73,16,32,36,7,64,67,-6
1491090416487,3,73,-42,-37,-47,-42,-118,20,-21
1491090416533,0,-61,-19,-17,-3,-79,127,-24,-34
1491090416533,0,28,-4,29,-3,12,75,13,5
1491090416535,1,124,44,-13,-33,-3,-104,50,15
1491090416535,1,-88,-26,-20,10,-39,-5,-38,-38
1491090416536,3,37,-27,-15,-59,-114,-77,-103,-39
1491090416536,3,-69,-1,16,61,84,79,43,8
1491090416537,0,123,-14,-2,3,38,-112,-103,-15
1491090416537,0,-23,-1,-14,-37,-18,79,45,4
1491090416582,1,-5,15,-8,-2,-11,97,23,17
1491090416582,1,27,-13,-9,-6,26,27,-12,3
1491090416583,2,-1,26,26,37,110,-17,0,-4
1491090416583,2,-8,39,43,48,-1,38,47,33
1491090416583,0,-19,3,19,66,91,127,59,-2
1491090416583,0,-15,0,5,-10,-41,41,-23,-10
1491090416584,1,46,-53,-55,-45,30,-96,3,-1
1491090416584,1,-6,25,35,64,-71,19,71,10
1491090416630,2,-38,10,2,-83,-118,33,-20,-32
1491090416630,2,65,-1,-23,1,102,-119,-30,17
1491090416631,3,69,-4,16,63,-37,78,11,-10
1491090416631,3,-78,7,7,-33,89,38,-73,17
1491090416632,0,102,-48,-50,-20,-70,-121,-7,-26
1491090416632,0,-54,-27,-26,-52,-104,67,0,-11
1491090416633,1,37,-27,2,53,104,-46,28,-9
1491090416633,1,0,50,57,56,16,-128,-46,38
1491090416679,2,-87,32,31,-36,-63,110,10,47
1491090416679,2,-25,-29,-45,6,46,-43,36,-30
1491090416680,3,-25,53,24,53,20,48,-8,8
1491090416680,3,33,-17,-13,-67,10,127,31,-10
1491090416680,1,14,6,10,-16,68,96,16,-13
1491090416680,1,2,-17,-8,45,-62,-110,-22,18
1491090416682,2,24,25,-21,-110,-13,9,-27,15
1491090416682,2,63,-31,-43,-4,-128,-6,-46,-16
1491090416728,3,-43,-3,12,34,85,35,23,33
1491090416728,3,40,2,15,53,127,-69,-86,-50
1491090416729,0,-59,-13,3,-2,-25,22,63,7
1491090416729,0,22,16,11,-53,-29,-33,-56,-25
1491090416730,2,-21,-37,-11,31,63,-125,-10,-2
1491090416730,2,22,-32,22,19,14,127,77,28
1491090416730,3,-97,6,-11,-97,-121,-87,14,-8
1491090416730,3,46,4,-8,21,84,-35,4,-19
1491090416777,0,11,7,-10,20,81,22,-17,-23
1491090416777,0,-24,31,7,40,70,50,7,7
1491090416778,1,14,31,14,-2,-4,44,32,37
1491090416778,1,-36,6,-28,-63,-128,-18,97,-3
1491090416826,3,22,31,29,51,56,-95,104,-1
1491090416826,3,-19,-2,-30,-98,-40,-80,-54,-30
1491090416827,0,38,-61,-78,-82,-45,-28,35,-2
1491090416827,0,20,-20,-39,-30,-99,-49,24,-8
1491090416827,1,-37,-13,-3,32,110,95,70,11
1491090416827,1,-28,16,40,107,127,77,-14,26
1491090416828,2,2,21,47,18,-58,15,-28,-8
1491090416828,2,-33,15,8,-18,-13,51,49,5
1491090416874,0,-31,6,14,29,5,127,74,21
1491090416874,0,-44,40,21,38,63,26,26,7
1491090416875,1,51,3,16,6,28,20,-13,-12
1491090416875,1,-31,35,44,85,62,42,78,-16
1491090416876,2,57,6,-13,-96,-83,6,-110,-13
1491090416876,2,9,-45,-38,-54,-75,-33,-65,-10
1491090416877,1,35,31,16,-40,-120,79,36,23
1491090416877,1,-91,8,13,4,45,5,-21,-5
1491090416923,2,51,-14,8,41,64,-65,15,1
1491090416923,2,-79,-12,-13,-21,-10,12,-3,-26
1491090416972,3,-2,-9,8,-30,30,-22,27,7
1491090416972,3,-33,-15,-6,26,-54,89,56,25
1491090416975,2,-6,-1,-1,-19,-86,95,15,17
1491090416975,2,21,-28,-14,0,51,-71,-79,7
1491090416976,3,43,-30,-38,-22,-55,-9,31,-27
1491090416976,3,-51,1,21,51,126,79,22,23
1491090416977,0,-75,39,52,61,95,106,-14,16
1491090416977,0,37,-8,-17,-77,-60,-59,-35,-16
1491090417020,1,-55,-8,0,43,79,15,-44,40
1491090417020,1,-6,7,23,7,-68,93,53,2
1491090417022,3,7,7,10,14,83,3,-121,1
1491090417022,3,30,0,15,50,9,122,-20,23
1491090417023,0,-14,56,83,107,105,-17,51,8
1491090417023,0,-3,7,-4,-96,-128,11,52,20
1491090417069,3,-64,31,51,84,-24,99,86,-23
1491090417069,3,5,-1,-25,-103,-128,-125,20,-3
1491090417070,0,47,-31,-32,-4,-60,-93,-99,-12
1491090417070,0,25,5,1,51,83,81,89,8
1491090417071,1,-8,-12,-18,-85,-76,-53,-65,-3
1491090417071,1,57,12,7,59,74,-32,-6,-16
1491090417072,0,2,-32,-43,-92,-118,-86,-88,-38
1491090417072,0,-24,5,-11,-41,-30,71,89,16
1491090417118,1,9,-16,-24,23,82,40,6,8
1491090417118,1,0,-1,8,3,-82,-88,70,-20
1491090417119,2,-25,-1,25,44,111,47,-28,-3
1491090417119,2,2,15,17,68,19,52,81,9
1491090417120,3,-77,-18,-18,-75,-77,-19,-60,-1
1491090417120,3,-12,-24,-27,-44,53,52,-16,-11
1491090417121,1,58,-9,-1,15,-68,4,91,10
1491090417121,1,-46,1,4,16,-76,-19,-128,-5
1491090417167,2,9,2,5,-26,126,-4,43,-15
1491090417167,2,-62,-12,-23,-11,-116,-4,-12,15
1491090417168,3,19,-14,-13,-19,-71,-4,-5,-4
1491090417168,3,33,-11,-12,15,63,16,24,20
1491090417168,2,4,-17,-24,-17,-2,-24,-89,-24
1491090417168,2,-27,1,9,21,-73,90,-1,10
1491090417169,3,-10,-24,-45,-50,-98,-98,-37,2
1491090417169,3,79,14,5,-15,-40,4,16,-10
1491090417215,0,-94,-29,-4,21,85,116,37,2
1491090417215,0,12,16,28,37,36,-24,-11,-19
1491090417217,1,-7,-5,3,16,-8,14,65,22
1491090417217,1,10,44,-10,-38,17,24,-79,3
1491090417217,3,-11,15,8,-39,-48,24,-75,8
1491090417217,3,-45,-36,-34,-39,-41,-119,-10,-15
1491090417218,0,5,2,-18,-17,-128,58,67,15
1491090417218,0,6,21,29,2,127,77,22,-23
1491090417264,1,18,-11,-6,40,77,-63,28,-8
1491090417264,1,-27,-15,7,-12,-30,8,-84,-23
1491090417265,2,20,83,56,83,100,-53,-128,17
1491090417265,2,27,-22,-22,-30,-9,-22,53,2
1491090417266,0,54,-34,-21,-51,-78,31,-13,17
1491090417266,0,-28,9,11,54,0,-30,8,2
1491090417267,1,12,-9,9,61,95,0,-70,-6
1491090417267,1,-93,16,10,-49,-114,86,100,-5
1491090417313,2,31,-17,-20,-31,72,-28,-58,19
1491090417313,2,25,-20,-12,39,11,48,80,13
1491090417314,3,21,27,-8,-59,-13,-79,-37,-38
1491090417314,3,80,-4,-9,16,-14,0,35,26
1491090417314,1,23,-1,-5,-32,-56,127,39,1
1491090417314,1,27,-38,-41,0,-62,-120,-89,-33
1491090417315,2,-5,-16,-11,-3,44,45,105,9
1491090417315,2,-4,39,26,15,-67,80,-115,4
1491090417362,3,-14,7,7,8,121,-60,107,-23
1491090417362,3,44,0,-11,4,-51,-4,-89,-4
1491090417363,0,-51,-9,-5,7,-35,42,6,-11
1491090417363,0,3,-11,19,28,86,68,-94,25
1491090417364,1,13,13,21,49,80,-35,33,22
1491090417364,1,-60,2,-5,-69,-67,13,58,-12
1491090417364,2,-1,1,-9,-37,-63,74,44,-19
1491090417364,2,29,-15,-3,64,20,-100,-32,-5
1491090417410,3,23,-8,-15,-98,-128,24,-44,-31
1491090417410,3,105,-24,-11,57,55,-99,-44,-3
1491090417411,0,-117,26,22,22,-57,127,52,21
1491090417411,0,38,-4,-10,-87,10,-106,-36,-23
1491090417413,2,48,-18,-24,-81,12,-33,53,0
1491090417413,2,41,-25,-48,-40,-44,-106,12,-16
1491090417414,3,-73,-6,24,75,-18,2,-19,-22
1491090417414,3,18,20,38,-11,81,127,100,41
1491090417459,0,-23,6,9,30,-43,54,-98,-8
1491090417459,0,72,-19,-59,-76,6,-69,39,-28
1491090417460,1,71,-5,0,57,37,-11,-4,-2
1491090417460,1,-39,-20,-12,-59,-40,47,8,-4
1491090417461,3,-47,-6,-25,32,50,-21,-102,25
1491090417461,3,57,19,11,2,30,-2,98,-16
1491090417461,0,-39,-36,-26,-60,-100,-121,25,-7
1491090417461,0,38,15,-3,35,48,67,83,-9
1491090417508,1,-72,-21,8,25,-16,86,5,21
1491090417508,1,-81,-5,8,13,-31,-61,-54,-8
1491090417509,2,-15,29,38,33,86,46,16,4
1491090417509,2,-114,-21,-25,-53,-118,-7,13,0
1491090417509,0,17,-6,-14,-55,-117,-21,-121,-10
1491090417509,0,-40,-14,-3,84,95,-56,50,12
1491090417510,1,-75,25,29,7,55,34,28,-4
1491090417510,1,-11,2,2,-35,76,62,-7,4
1491090417557,2,1,-1,-1,63,119,-51,13,-9
1491090417557,2,-56,16,21,14,-26,87,-53,16
1491090417558,3,2,-7,-23,-105,-128,-128,-72,10
1491090417558,3,67,-34,-27,49,6,-27,93,12
1491090417558,1,-61,17,25,53,-8,50,87,20
1491090417558,1,-81,-1,10,-6,74,78,-97,-49
1491090417559,2,22,-26,-16,60,86,33,24,39
1491090417559,2,48,22,8,-53,-46,-100,-64,-3
1491090417607,3,49,-23,-21,-23,-60,24,-78,25
1491090417607,3,-24,13,13,30,82,-75,-32,10
1491090417607,0,-17,42,12,-32,-123,104,-26,-26
1491090417607,0,-14,-13,-23,-54,-22,-79,62,2
1491090417608,2,12,-9,-17,-1,31,-97,-27,3
1491090417608,2,-17,17,30,3,7,80,94,10
1491090417609,3,24,5,6,-12,21,33,-13,6
1491090417609,3,-2,36,21,45,9,45,-96,11
1491090417654,0,28,8,17,8,26,6,33,-24
1491090417654,0,-30,-11,-13,0,-114,-18,64,-1
1491090417655,1,-12,-1,-18,-55,-58,1,86,-3
1491090417655,1,-49,4,3,-52,-62,-4,-27,-9
1491090417656,3,-26,-25,1,28,0,-76,-88,-34
1491090417656,3,100,51,25,22,45,42,-2,51
1491090417656,0,-8,-6,-14,-7,-23,70,54,-1
1491090417656,0,-16,-16,-6,-38,-23,-48,-43,-45
1491090417703,1,-7,27,21,17,-50,7,-7,16
1491090417703,1,39,0,17,37,65,-57,-14,-23
1491090417704,2,-72,-2,-7,-27,20,39,35,28
1491090417704,2,17,-6,-14,1,20,127,7,18
1491090417704,3,19,7,9,-13,-19,2,81,-25
1491090417704,3,-6,-31,-42,-57,-72,-128,-75,-1
1491090417705,0,54,11,2,20,-55,-16,24,-12
1491090417705,0,-31,14,46,42,121,23,1,-12
1491090417752,1,-13,0,-14,-29,-61,43,30,-15
1491090417752,1,44,-7,-16,-4,-19,-22,-30,5
1491090417752,2,-69,-1,8,23,74,-1,-21,-13
1491090417752,2,-8,-13,-16,-20,-15,51,40,-5
1491090417753,0,16,-1,-12,-84,-28,-81,-30,-29
1491090417753,0,-51,-32,-55,-40,-106,-46,-67,0
1491090417754,1,83,37,31,78,-25,70,32,38
1491090417754,1,-88,-21,-29,-45,32,13,39,-23
1491090417800,2,20,2,20,75,63,45,-8,1
1491090417800,2,47,10,22,17,20,105,-21,27
1491090417801,3,-106,-9,5,-19,67,9,-11,-20
1491090417801,3,114,-21,-3,28,-4,-62,-89,-31
1491090417802,1,-8,-19,-25,-14,80,-47,-104,2
1491090417802,1,11,-23,-20,-72,-108,-23,88,-9
1491090417803,2,-6,-10,-12,-2,1,42,-37,-23
1491090417803,2,26,23,1,86,94,-112,-112,-5
1491090417849,3,-36,-46,-12,25,-1,20,17,-10
1491090417849,3,-46,17,29,4,78,124,127,26
1491090417852,0,57,-20,-14,-1,-23,-128,-112,-12
1491090417852,0,-31,24,18,-6,-13,34,75,13
1491090417853,2,35,-6,-11,-16,-127,62,33,29
1491090417853,2,74,-20,-35,-11,-24,-99,-51,-30
1491090417854,3,-47,-1,2,59,59,82,82,16
1491090417854,3,-35,4,18,-21,-32,-32,-93,-24
1491090417898,0,38,35,32,33,28,7,16,27
1491090417898,0,-67,3,0,-42,-12,1,79,11
1491090417899,1,28,5,-2,3,-38,-7,-7,12
1491090417899,1,-110,36,29,65,83,88,-11,-5
1491090417899,3,-24,-12,-19,-8,-2,0,-45,-18
1491090417899,3,6,-22,-18,-11,24,-12,-61,22
1491090417900,0,-55,14,19,42,48,-76,-4,-6
1491090417900,0,17,-10,-5,-19,-47,22,-38,-7
1491090417947,1,49,5,3,-3,-11,-43,104,11
1491090417947,1,-19,-2,21,57,39,70,7,-24
1491090417947,2,-16,1,0,-22,-30,36,-18,19
1491090417947,2,-10,-8,14,-8,-10,-58,-33,-16
1491090417948,0,-74,-8,-25,-7,52,-9,7,-12
1491090417948,0,-3,2,0,-15,45,32,-17,3
1491090417949,1,34,25,-12,-24,16,4,60,-13
1491090417949,1,71,-39,-35,-45,-128,-57,-45,0
1491090417996,2,-19,-1,2,67,108,127,81,-17
1491090417996,2,-22,-9,9,8,53,77,-14,15
1491090417996,3,-32,7,6,-12,-57,-43,48,18
1491090417996,3,-72,6,11,20,58,14,15,23
1491090417997,1,-14,-26,-7,-11,-7,-14,-46,-14
1491090417997,1,-16,9,-9,-56,-120,38,18,-28
1491090417998,2,13,-7,1,46,50,-108,-57,22
1491090417998,2,-31,3,38,126,127,38,-9,36
1491090418044,3,17,-20,-33,-90,-50,-120,28,-29
1491090418044,3,53,-59,-76,-46,-128,15,16,4
1491090418045,0,-41,39,45,59,-10,51,43,-7
1491090418045,0,19,-1,5,13,12,18,-23,2
1491090418046,1,-3,2,-3,-35,-31,-61,-19,3
1491090418046,1,-17,-32,-24,-41,-17,22,-93,26
1491090418047,2,9,-38,-18,-24,-38,93,14,-36
1491090418047,2,-24,27,38,88,122,-82,109,-1
1491090418093,3,46,-9,7,10,3,-70,-16,4
1491090418093,3,-55,19,-8,-63,-67,43,119,0
1491090418093,0,-22,-6,-8,-15,-43,33,-90,-10
1491090418093,0,10,-4,-12,27,5,-51,42,-4
1491090418094,2,35,18,-14,-16,-122,-102,77,8
1491090418094,2,19,-7,4,16,50,106,-116,-5
1491090418095,3,3,11,14,41,38,21,-22,15
1491090418095,3,-66,-16,-10,-48,-54,14,42,-7
1491090418142,0,37,-23,-37,-61,-51,-79,-18,6
1491090418142,0,-28,7,1,18,38,102,80,-14
1491090418143,1,22,56,44,53,112,97,-38,26
1491090418143,1,64,9,22,79,41,-116,-26,-34
1491090418144,3,-7,-26,-22,-10,-86,-13,54,19
1491090418144,3,-26,18,18,46,14,78,-60,-11
1491090418145,0,0,11,34,80,95,52,82,10
1491090418145,0,-12,0,-8,-47,-109,-57,-47,-8
1491090418191,1,6,-3,-2,12,82,55,64,-5
1491090418191,1,40,33,-13,4,-107,-55,13,21
1491090418192,2,35,-30,-24,-65,-72,-67,-22,-21
1491090418192,2,-89,17,8,34,56,86,27,0
1491090418193,0,-32,-3,-11,-13,85,-53,-37,32
1491090418193,0,29,1,-6,-18,-61,-5,-61,-18
1491090418193,1,40,-19,-2,25,-28,32,-88,-5
1491090418193,1,-36,13,7,8,-8,-59,6,10
1491090418239,2,-33,-9,-8,-45,44,56,1,-19
1491090418239,2,53,-49,-24,3,-52,-8,11,-20
1491090418242,3,-50,17,-14,-55,-54,10,-35,9
1491090418242,3,110,-4,-5,24,25,-74,51,-10
1491090418243,1,37,45,36,16,64,-4,-98,8
1491090418243,1,-64,-6,-8,-3,70,26,30,-12
1491090418244,2,95,41,18,-14,-75,6,-111,-7
1491090418244,2,-73,-19,-13,-50,-121,127,-31,-7
1491090418288,3,-20,-21,-28,-33,-115,-31,84,0
1491090418288,3,9,-17,12,36,125,21,-128,10
1491090418289,0,-4,-14,10,55,71,48,24,-36
1491090418289,0,19,14,2,4,-77,14,-25,11
1491090418290,2,-62,-28,-31,-81,-107,-32,45,-5
1491090418290,2,60,-11,-10,22,55,-108,-89,-11
1491090418290,3,60,-32,-36,-31,-56,0,58,-29
1491090418290,3,13,-2,-12,-26,-40,-12,13,32
1491090418337,0,11,22,26,93,103,-36,0,21
1491090418337,0,18,10,-9,-26,-56,13,64,-1
1491090418348,1,-21,11,10,-7,108,-50,-66,13
1491090418348,1,101,-48,-34,18,-26,5,11,-42
1491090418349,3,39,27,1,-6,5,27,86,5
1491090418349,3,37,-5,-6,18,17,-34,-58,6
1491090418350,0,0,-57,-28,-18,10,40,31,8
1491090418350,0,-74,41,57,35,-18,95,56,-21
1491090418385,1,-31,-5,-11,-47,-51,-52,-83,-1
1491090418385,1,66,-5,-20,-38,8,54,56,14
1491090418386,2,18,-26,-14,88,73,50,-99,-33
1491090418386,2,-23,-4,-20,-81,-46,-23,81,38
1491090418387,0,44,10,22,6,-18,-119,-92,8
1491090418387,0,-11,-6,-20,-55,37,4,-55,-17
1491090418388,1,-33,-8,-3,51,-25,53,41,-2
1491090418388,1,16,24,29,-14,17,-48,34,16
1491090418439,2,-51,16,16,51,51,84,8,13
1491090418439,2,65,-8,3,-47,-128,-48,38,0
1491090418439,3,-41,11,-14,-54,73,-103,-25,-6
1491090418439,3,36,-18,-3,53,-31,-33,-19,-15
1491090418440,0,-42,-12,-12,-3,-45,67,95,9
1491090418440,0,27,-28,-22,-46,-74,-44,-83,5
1491090418440,1,67,21,18,18,27,-52,-38,-24
1491090418440,1,-100,10,26,-8,6,127,-34,30
1491090418484,2,35,-3,-43,-57,-128,-128,-34,1
1491090418484,2,-72,-56,-17,56,127,122,41,1
1491090418485,3,23,-21,8,21,-21,-12,-62,-46
1491090418485,3,-36,15,2,7,45,26,-37,-11
1491090418486,1,-1,-16,-6,-11,-109,-98,20,-4
1491090418486,1,-16,32,3,-26,0,19,-11,7
1491090418486,2,-5,-19,1,29,41,-19,-14,-23
1491090418486,2,43,28,5,32,-68,-126,28,6
1491090418532,3,-30,-24,-14,-91,-69,-9,3,-12
1491090418532,3,-17,-51,-35,21,41,82,4,11
1491090418532,0,42,47,43,-1,16,-63,54,3
1491090418532,0,96,25,0,54,91,-47,7,11
1491090418533,2,41,-31,-35,-37,-64,8,57,33
1491090418533,2,46,42,33,39,69,-65,-62,-7
1491090418534,3,-48,29,35,-1,-39,92,103,9
1491090418534,3,-11,-9,-13,-11,56,-78,-32,19
1491090418581,0,32,9,24,17,-79,7,9,-5
1491090418581,0,2,7,11,-7,-28,-15,21,-5
1491090418583,1,17,-6,-5,29,103,92,-117,17
1491090418583,1,52,10,-20,-57,-116,-95,127,-5
1491090418584,3,1,34,34,106,64,-61,-15,15
1491090418584,3,-13,-14,-9,-40,-86,-25,23,-5
1491090418584,0,-41,2,1,-4,67,75,25,0
1491090418584,0,49,35,26,65,-74,41,-15,36
1491090418629,1,-70,-18,-9,-12,125,13,95,4
1491090418629,1,-7,-31,-56,-68,-128,51,-13,-18
1491090418630,2,53,39,-7,-96,43,-32,-83,-7
1491090418630,2,-62,-5,24,60,-59,67,3,3
1491090418631,0,-79,-2,17,49,47,124,61,16
1491090418631,0,57,-11,-12,-37,86,-94,-124,-46
1491090418632,1,52,28,16,72,35,75,58,13
1491090418632,1,-110,-14,38,82,125,127,25,37
1491090418678,2,85,50,26,-30,-62,-61,-111,0
1491090418678,2,-108,-5,-15,-21,-30,10,60,-28
1491090418679,3,13,-17,-29,-73,-98,-90,-70,-7
1491090418679,3,62,-19,-40,-54,-39,-80,3,-9
1491090418681,1,59,24,35,-3,-29,42,-22,22
1491090418681,1,-27,59,57,-21,-61,54,32,0
1491090418682,2,-50,-22,4,82,69,30,-35,5
1491090418682,2,49,-49,-58,-128,-105,-79,15,-23
1491090418727,3,-10,-7,-17,-13,-61,-15,-89,-7
1491090418727,3,31,-17,6,62,82,-88,66,1
1491090418727,0,6,56,0,-1,-22,-62,63,1
1491090418727,0,3,-14,24,30,55,122,-59,-4
1491090418728,2,16,5,17,75,89,41,-14,-41
1491090418728,2,4,-10,-17,46,-78,-61,-20,23
1491090418729,3,33,-13,-15,-103,-102,-53,-7,-2
1491090418729,3,49,11,-2,81,103,19,10,-16
1491090418775,0,-128,-33,4,28,71,-1,30,14
1491090418775,0,14,16,4,-92,-65,83,15,18
1491090418776,1,66,22,30,65,-60,2,-70,-3
1491090418776,1,-31,-31,-34,-10,-44,-15,41,-31
1491090418777,2,0,-46,-26,-49,-51,87,85,13
1491090418777,2,54,64,41,63,127,-72,-56,-22
1491090418778,3,-80,-21,28,73,104,114,98,33
1491090418778,3,-53,48,37,-55,-66,40,-50,-12
1491090418824,0,48,-72,-82,-44,30,-128,-101,-45
1491090418824,0,10,-7,-12,1,-76,-81,40,36
1491090418825,1,2,-16,-21,-55,-7,84,93,-19
1491090418825,1,-13,22,42,113,30,-30,8,10
1491090418825,3,66,-29,-41,-24,-19,-67,-37,-21
1491090418825,3,-2,-20,-39,-56,-27,58,46,5
1491090418826,0,-3,24,25,47,-62,-35,-95,-4
1491090418826,0,72,9,-10,-23,-96,-9,3,27
1491090418873,1,-59,30,38,50,24,77,51,10
1491090418873,1,-18,-43,-44,-76,-71,-76,-128,-44
1491090418875,2,9,-2,-20,-81,-62,-3,11,4
1491090418875,2,-1,-25,8,62,-3,-28,65,-2
1491090418876,0,-11,19,46,124,80,39,112,19
1491090418876,0,8,-14,-24,-91,-89,125,4,-10
1491090418876,1,24,-9,-8,-63,-4,-127,-109,-24
1491090418876,1,5,-52,-51,27,-27,77,-58,-23
1491090418922,2,-28,13,2,-75,41,7,12,3
1491090418922,2,37,-59,-77,-47,-71,-76,127,-9
1491090418922,3,36,58,27,76,55,69,-86,-31
1491090418922,3,-6,16,37,16,-52,41,36,8
1491090418923,1,1,-19,17,31,55,50,-61,18
1491090418923,1,51,-4,-10,-34,-46,-77,65,-22
1491090418924,2,-57,-14,-37,-18,-26,77,-56,32
1491090418924,2,-40,-26,-8,-8,-1,32,39,-1
1491090418970,3,77,-33,-37,-19,-115,-128,-60,-17
1491090418970,3,33,19,21,26,77,38,52,31
1491090419000,0,46,3,9,-33,-87,66,20,-2
1491090419000,0,14,21,23,30,-49,-63,-87,-18
1491090419001,2,-94,17,8,42,-51,31,-32,13
1491090419001,2,52,18,9,28,127,-51,7,2
1491090419001,3,-90,18,31,-13,-93,21,17,-13
1491090419001,3,25,-5,-25,-49,-10,-106,3,5
1491090419019,0,14,-17,-11,26,-4,-5,-74,-6
1491090419019,0,-1,25,24,51,78,90,11,-7
1491090419020,1,-57,-1,-3,-58,41,-6,127,33
1491090419020,1,-20,-2,5,16,12,10,-104,10
1491090419020,3,46,11,-14,-46,-67,-47,-70,-3
1491090419020,3,-55,-4,-13,12,32,2,35,2
1491090419021,0,91,-10,34,35,14,20,-45,-15
1491090419021,0,-122,3,3,52,1,-32,64,22
1491090419068,1,-13,-3,9,-15,14,66,34,-33
1491090419068,1,52,4,-10,-4,-100,-56,-56,5
1491090419069,2,-38,-18,-11,19,88,97,97,-13
1491090419069,2,-28,-1,-19,-109,-76,-20,-25,-27
1491090419070,0,88,-2,-29,-98,-115,-33,-77,0
1491090419070,0,38,-16,-11,8,-15,-28,-100,-4
1491090419070,1,13,-19,-27,-14,24,24,112,5
1491090419070,1,-67,17,59,88,127,29,-21,-9
1491090419117,2,-24,15,18,57,37,55,49,8
1491090419117,2,-64,5,2,-58,-88,33,29,1
1491090419118,3,88,-20,-30,-27,-29,-128,-128,-35
1491090419118,3,5,-35,-21,16,78,31,12,-12
1491090419118,0,73,22,-15,-93,-78,-13,29,11
1491090419118,0,-82,-9,-2,41,105,71,-31,-3
1491090419166,1,81,-7,3,85,1,-128,68,29
1491090419166,1,-41,14,34,-22,2,84,46,4
1491090419168,2,-117,-32,-35,-38,-13,-117,-81,-5
1491090419168,2,67,17,11,-7,-50,-12,77,3
1491090419168,3,-23,-1,-7,-31,-27,71,7,2
1491090419168,3,-42,-9,1,44,-5,-14,55,-14
1491090419169,1,57,-10,-10,36,26,-56,64,-16
1491090419169,1,8,7,4,-25,-21,54,48,6
1491090419214,2,-38,10,15,3,-10,84,127,4
1491090419214,2,-34,-11,-11,7,-5,-83,-128,-12
1491090419216,3,17,28,36,25,-3,-22,-1,7
1491090419216,3,86,-19,-42,-68,-15,-36,-128,-17
1491090419220,0,-61,-27,-25,31,-55,34,103,14
1491090419220,0,79,-7,-8,-28,-25,3,20,8
1491090419223,2,31,0,-6,-14,-97,-47,-18,-3
1491090419223,2,24,40,32,61,38,60,-7,14
1491090419263,3,-128,-40,11,80,61,87,67,-1
1491090419263,3,76,5,-22,-92,-47,-114,-77,-38
1491090419264,0,16,-43,-44,-24,-11,79,79,3
1491090419264,0,89,-24,-20,66,37,-84,-128,-40
1491090419266,3,48,-22,-49,-89,84,-51,-75,-22
1491090419266,3,58,5,1,50,-36,96,-108,1
1491090419266,0,-9,-16,-26,1,74,-128,-1,-8
1491090419266,0,1,23,6,-33,-77,57,60,7
1491090419312,1,-4,11,2,-28,-64,26,-96,-11
1491090419312,1,-1,15,18,34,102,77,49,27
1491090419313,2,57,-28,-13,50,68,-71,-47,3
1491090419313,2,-84,20,70,79,89,125,-63,34
1491090419313,0,-8,9,1,-7,-40,37,-51,-29
1491090419313,0,43,-69,-67,-56,-14,-128,20,-31
1491090419314,1,-22,9,11,39,53,127,-52,11
1491090419314,1,-13,-4,23,35,64,-55,-95,24
1491090419360,2,17,11,12,-13,-65,-71,11,-31
1491090419360,2,-29,-19,-26,-10,-22,78,-100,14
1491090419362,3,24,31,30,78,63,102,46,-3
1491090419362,3,-85,5,25,99,106,72,31,5
1491090419362,1,58,-2,10,91,-97,56,1,12
1491090419362,1,-6,-7,6,57,95,-67,50,-11
1491090419364,2,-63,13,4,-15,29,-64,-62,1
1491090419364,2,51,-14,16,16,-57,-56,38,-12
1491090419409,3,6,40,22,0,52,-3,49,34
1491090419409,3,-87,-12,-28,-56,4,45,-2,5
1491090419410,0,25,-27,-8,-2,-24,-25,-37,-18
1491090419410,0,0,45,12,-29,-27,31,18,3
1491090419410,2,-41,-6,5,81,120,127,16,-6
1491090419410,2,14,5,25,49,-18,-71,51,35
1491090419411,3,-60,-2,-1,-50,127,-48,74,-9
1491090419411,3,99,29,-23,-11,-2,-24,-102,-23
1491090419458,0,30,-27,-37,5,-38,1,65,-18
1491090419458,0,-52,-10,11,37,65,65,-30,-30
1491090419459,1,-56,23,37,32,20,51,-16,9
1491090419459,1,42,12,-19,-76,-120,-128,-72,-15
1491090419459,2,-35,3,-4,11,116,127,127,7
1491090419459,2,-54,7,11,72,0,-79,-22,-11
1491090419460,3,-61,-20,-28,-56,-108,32,35,20
1491090419460,3,35,-2,-14,-40,-45,46,-35,-14
1491090419507,0,39,27,18,61,71,-86,-83,21
1491090419507,0,14,-40,-40,-82,-24,41,-36,3
1491090419507,1,61,-88,-7,72,95,-68,-87,-10
1491090419507,1,-52,-7,34,85,-9,70,55,13
1491090419508,3,50,22,-1,33,-70,15,30,-11
1491090419508,3,-9,24,28,-26,115,127,-72,39
1491090419509,0,34,20,-5,-15,-78,-97,-73,-69
1491090419509,0,-118,-35,-34,-98,-70,36,127,31
1491090419555,1,73,8,3,8,70,53,-95,-3
1491090419555,1,12,-24,-6,91,48,-97,-95,-9
1491090419556,2,-22,6,24,-41,-51,47,-3,3
1491090419556,2,3,30,54,-7,29,51,-22,-15
1491090419557,0,61,-24,-11,7,-24,91,-39,-4
1491090419557,0,-27,36,63,123,125,-22,51,16
1491090419558,1,67,9,9,-37,107,-55,-65,-23
1491090419558,1,-94,-2,-19,-37,-110,41,101,-13
1491090419604,2,64,-25,-10,36,-17,-106,-7,11
1491090419604,2,-38,-12,8,-2,9,106,29,16
1491090419605,3,68,-50,-59,-98,34,102,-60,-50
1491090419605,3,35,19,2,11,-60,-128,-2,-15
1491090419605,1,-53,-2,-10,-31,-128,-128,-98,-4
1491090419605,1,23,16,35,70,125,80,99,13
1491090419606,2,-27,-6,15,-6,-128,26,6,-13
1491090419606,2,32,-2,-23,-83,-73,-76,-49,-16
1491090419653,3,-37,-1,-18,19,68,87,74,22
1491090419653,3,28,-1,13,4,43,-62,-8,-35
1491090419654,0,-25,38,38,43,-46,70,100,34
1491090419654,0,78,11,-5,-69,57,-43,8,-24
1491090419654,2,35,-41,16,110,106,5,-127,0
1491090419654,2,22,20,20,-25,60,-66,95,26
1491090419655,3,-27,-11,-39,-79,-88,25,17,-10
1491090419655,3,-7,-36,-44,36,-28,-36,49,28
1491090419702,0,-6,7,2,-21,58,64,69,-11
1491090419702,0,-71,1,20,67,50,98,72,20
1491090419703,1,50,45,47,47,42,-90,-101,-46
1491090419703,1,22,-9,-8,-43,-16,52,-71,18
1491090419703,3,-38,-23,-27,-60,-57,-34,127,-2
1491090419703,3,24,-10,-42,-104,-86,34,-116,-31
1491090419704,0,72,5,-12,-43,-97,-63,22,-5
1491090419704,0,4,5,13,98,127,-21,-47,-23
1491090419751,1,72,-15,-5,-34,-47,-42,14,6
1491090419751,1,-7,20,27,28,-67,6,88,22
1491090419753,2,-20,-28,-18,48,70,-55,-52,-4
1491090419753,2,-6,-9,-28,-70,-118,-19,40,-3
1491090419754,0,-43,-9,-41,-66,5,-97,-29,-19
1491090419754,0,58,-40,-45,-37,-128,-1,22,11
1491090419757,1,-39,-27,-29,4,10,45,63,12
1491090419757,1,-20,14,6,4,49,53,-20,-5
1491090419799,2,-19,-6,54,71,-20,39,32,-5
1491090419799,2,-60,4,-13,-6,29,-4,-76,-10
1491090419800,3,12,-42,-48,-102,-118,-49,-51,-16
1491090419800,3,13,-4,-20,76,33,35,-38,-12
1491090419801,1,22,19,28,65,101,69,-5,11
1491090419801,1,-40,19,25,-1,126,-44,12,-7
1491090419802,2,104,-32,-59,-84,-46,-46,-120,-12
1491090419802,2,-52,13,1,20,43,70,13,-21
1491090419848,3,71,-1,7,-4,-118,-99,-24,-10
1491090419848,3,6,-3,-8,-19,78,56,41,23
1491090419849,0,-52,-3,23,10,-39,120,-56,10
1491090419849,0,85,25,-23,-42,-109,-76,-121,-58
1491090419897,1,-48,16,34,74,63,107,95,2
1491090419897,1,-21,-24,-14,-11,-73,68,57,-3
1491090419898,2,-54,16,12,-11,-54,15,70,-5
1491090419898,2,-31,-5,11,20,114,127,63,32
1491090419899,3,21,-18,-35,-55,-11,-124,-111,-9
1491090419899,3,27,10,11,53,-117,-107,28,12
1491090419900,0,-60,-14,-28,-58,-11,64,13,-11
1491090419900,0,58,-13,25,53,-7,-46,2,1
1491090419945,2,70,41,12,-79,-128,-8,63,22
1491090419945,2,-2,-97,-86,-38,-6,-110,2,-29
1491090419947,3,-16,8,-9,-70,64,7,-121,-22
1491090419947,3,38,4,19,62,49,12,-32,-6
1491090419947,0,-30,22,16,5,74,45,115,23
1491090419947,0,-27,1,9,-24,8,-98,44,27
1491090419948,3,-33,9,19,15,12,74,18,14
1491090419948,3,10,43,14,-19,-62,-103,-18,0
1491090419994,0,43,-26,-4,34,20,-58,6,0
1491090419994,0,-23,6,-20,-1,-16,113,-35,-15
1491090419995,1,38,-9,10,28,75,-105,-35,-37
1491090419995,1,22,-40,-26,-50,-128,89,-61,15
1491090419996,0,105,38,19,-37,-128,-100,-55,-11
1491090419996,0,-57,5,8,-13,25,127,114,-27
1491090419997,1,40,19,24,104,80,-48,-81,1
1491090419997,1,-62,-18,-36,-75,-111,-28,61,-13
1491090420043,2,-27,-2,-4,-15,23,-74,-13,32
1491090420043,2,80,-2,4,27,51,-46,-17,-9
1491090420044,3,-26,15,-4,-49,-128,48,115,27
1491090420044,3,-30,-15,-12,13,81,-51,-1,-26
1491090420044,1,15,-35,-25,-57,-81,-45,-57,-24
1491090420044,1,49,6,-1,33,51,-8,2,23
1491090420045,2,46,-27,-17,-37,-74,2,5,-20
1491090420045,2,-38,3,-20,4,-43,-20,24,21
1491090420092,3,-38,10,21,16,31,52,-24,1
1491090420092,3,-17,9,11,-20,36,0,47,12
1491090420092,0,22,11,-2,-37,3,-49,-41,-8
1491090420092,0,24,-20,-16,23,-75,10,-25,-13
1491090420093,2,-83,0,-16,-9,-27,92,127,14
1491090420093,2,64,4,15,3,81,-41,-106,1
1491090420094,3,-57,-17,-36,-34,-80,-36,79,-10
1491090420094,3,62,-20,-16,-29,-19,-66,-90,1
1491090420140,0,-20,-17,-36,-55,-96,10,53,7
1491090420140,0,25,5,11,28,11,-30,-9,-10
1491090420141,1,-36,24,38,49,105,46,23,24
1491090420141,1,-6,2,-4,-76,-128,-58,-51,15
1491090420142,3,37,1,14,49,94,12,-35,-1
1491090420142,3,-60,-17,-12,-30,-23,62,8,-5
1491090420143,0,38,0,-2,-16,24,13,-11,7
1491090420143,0,64,-23,-11,-22,-128,-67,-11,6
1491090420189,1,-31,16,16,60,51,71,84,-5
1491090420189,1,14,24,14,26,-81,-7,-86,-15
1491090420190,2,-103,-16,-7,-32,-45,59,75,2
1491090420190,2,73,-27,-47,-105,-74,-57,-92,-10
1491090420190,3,-21,-7,-27,-5,-65,32,62,21
1491090420190,3,-51,10,28,47,86,-1,83,1
1491090420192,0,51,0,11,29,30,19,-100,7
1491090420192,0,-108,28,15,-38,48,53,56,5
1491090420238,1,5,3,-8,-6,-81,-17,-5,-13
1491090420238,1,15,17,-9,-24,-64,13,122,0
1491090420239,2,121,-34,-31,-9,-61,-110,21,-7
1491090420239,2,-85,18,43,75,76,112,28,0
1491090420239,0,28,33,26,77,103,-94,17,-10
1491090420239,0,56,9,10,-35,-8,49,20,31
1491090420240,1,-106,-6,5,49,45,7,33,-47
1491090420240,1,60,-20,-14,-39,-128,-70,14,-10
1491090420287,2,-45,-15,-29,-87,28,81,-63,-9
1491090420287,2,-22,1,11,80,103,-43,-13,0
1491090420287,3,123,-8,-18,-35,-100,-128,-75,-23
1491090420287,3,-33,11,-2,10,60,83,1,5
1491090420288,1,-11,-18,-16,-6,-7,-27,-15,-13
1491090420288,1,29,-1,12,23,81,9,78,27
1491090420292,2,-38,-23,-2,-6,-49,-3,-128,-17
1491090420292,2,-41,7,-1,-46,-16,-32,45,32
1491090420335,3,65,2,-4,-21,-13,-72,-27,-18
1491090420335,3,82,18,-9,27,55,68,-34,-3
1491090420336,0,-105,-34,-6,38,19,88,35,4
1491090420336,0,100,-16,-8,-33,-50,-76,-34,-7
1491090420337,2,5,45,37,89,115,-31,47,14
1491090420337,2,-73,0,18,-21,-32,116,-29,-9
1491090420338,3,14,0,-3,-73,-103,-10,-54,1
1491090420338,3,38,18,3,-10,-112,-115,-75,-15
1491090420384,0,26,-21,-26,3,54,-26,21,-3
1491090420384,0,-8,14,22,74,47,71,38,6
1491090420385,1,-20,15,2,-12,-7,-18,34,-17
1491090420385,1,-61,18,-7,-15,-12,-50,-44,10
1491090420433,3,-18,-33,3,-19,8,43,-75,6
1491090420433,3,16,-58,-39,-64,-69,-3,-53,-32
1491090420434,0,22,-23,-18,-101,-94,-65,66,-4
1491090420434,0,105,-41,-38,-8,31,53,23,3
1491090420434,1,-83,4,39,107,101,56,71,21
1491090420434,1,-76,17,36,49,114,30,-7,-5
1491090420435,2,19,26,26,57,96,-38,81,-6
1491090420435,2,32,-3,-49,-109,-128,-7,-44,-13
1491090420482,0,-48,-4,2,20,40,-74,23,11
1491090420482,0,-55,-25,-8,26,122,25,24,-36
1491090420482,1,-38,43,19,-17,-54,39,67,27
1491090420482,1,11,-34,-62,-80,-122,-47,-79,-17
1491090420483,2,3,-11,-13,6,-43,47,16,19
1491090420483,2,16,6,30,90,-22,-128,-76,4
1491090420484,1,54,-9,6,22,-3,-22,-23,12
1491090420484,1,-53,9,18,60,127,5,33,-22
1491090420530,2,36,0,-3,-6,-63,36,-80,10
1491090420530,2,-35,-19,-19,-50,-49,52,70,-4
1491090420531,3,29,40,51,61,71,48,-54,8
1491090420531,3,-14,-30,-43,-80,-63,-80,-70,-26
1491090420532,1,34,-21,-21,-2,49,35,-83,19
1491090420532,1,9,31,54,89,-58,-28,127,17
1491090420533,2,-99,25,29,-7,74,50,-27,2
1491090420533,2,29,13,19,8,-56,-25,-38,-3
1491090420579,3,78,-41,-62,-127,-100,-99,-64,-36
1491090420579,3,22,-12,-24,13,-10,55,-54,-5
1491090420580,0,-21,-9,11,83,0,-73,29,0
1491090420580,0,-17,17,0,-35,19,98,60,13
1491090420581,2,-48,-21,-8,9,27,78,-27,-11
1491090420581,2,14,-31,-29,-32,14,-32,-13,15
1491090420582,3,-16,-7,-1,-19,-111,18,46,-26
1491090420582,3,65,-24,-32,-14,40,-31,-15,-34
1491090420629,0,-34,33,15,33,-26,41,-3,14
1491090420629,0,-53,-21,20,58,70,64,60,0
1491090420630,1,33,11,-32,-116,-98,-85,14,-15
1491090420630,1,16,-4,-15,-27,-52,40,-31,3
1491090420630,3,32,5,27,1,-49,-96,-105,-13
1491090420630,3,-86,28,37,33,81,127,99,13
1491090420631,0,-35,-7,-14,-31,-9,45,-89,-9
1491090420631,0,56,6,14,9,35,-79,117,1
1491090420677,1,54,-1,-18,-2,-5,65,-18,21
1491090420677,1,-83,10,3,-2,18,79,36,-16
1491090420677,2,51,10,5,-7,34,64,93,-3
1491090420677,2,16,27,-12,-26,-21,-22,-52,2
1491090420678,0,19,41,9,-66,-77,-54,-11,-2
1491090420678,0,84,-26,-48,-58,-108,-39,-60,-22
1491090420679,1,16,-5,-13,11,24,60,32,14
1491090420679,1,-27,-42,5,19,65,-7,48,9
1491090420725,2,60,-67,10,-1,-49,-40,-112,12
1491090420725,2,103,22,38,33,15,-4,71,15
1491090420727,3,-104,-9,-33,0,-87,-15,-61,-21
1491090420727,3,84,42,2,14,5,-4,-26,-13
1491090420728,1,20,-9,-7,44,52,-61,36,-8
1491090420728,1,-22,18,-14,-68,-82,66,60,13
1491090420729,2,90,13,0,-6,36,-116,-53,4
1491090420729,2,-55,-14,-12,60,85,61,6,-10
1491090420774,3,-54,-19,8,47,26,-29,-41,8
1491090420774,3,45,22,-5,-96,-36,52,103,6
1491090420775,0,-78,30,4,20,34,26,35,-16
1491090420775,0,-55,24,34,60,-65,79,-31,28
1491090420776,2,-28,4,37,79,87,-13,83,-8
1491090420776,2,58,-14,-54,-103,-79,-127,-15,-2
1491090420777,3,-62,30,8,-75,-66,97,10,-6
1491090420777,3,105,-17,-9,45,71,-23,79,8
1491090420823,0,-21,-10,-12,29,38,44,18,2
1491090420823,0,-14,-3,17,56,53,-17,-88,-12
1491090420825,1,-19,19,27,13,85,30,61,-3
1491090420825,1,-112,23,15,19,-10,125,125,46
1491090420826,3,3,-8,-12,41,97,7,-30,-13
1491090420826,3,25,-7,4,26,-37,30,12,24
1491090420872,0,-7,-8,-27,-56,-128,-82,-46,-21
1491090420872,0,-64,-17,-9,-32,-42,84,37,8
1491090420873,1,-26,-17,-18,15,20,37,48,2
1491090420873,1,10,16,59,84,88,-1,66,5
1491090420873,2,56,-13,3,-1,-39,-44,-95,-17
1491090420873,2,-58,-22,-18,-37,42,17,123,27
1491090420874,3,23,5,8,-7,-13,-63,-89,-28
1491090420874,3,16,-28,-34,-83,-71,-128,-10,-38
1491090420921,0,-33,-3,-9,16,36,125,11,15
1491090420921,0,127,-47,-25,47,86,-115,6,6
1491090420922,1,-41,18,12,12,-22,83,114,30
1491090420922,1,11,-7,15,25,-84,27,-128,-14
1491090420923,0,14,-18,-24,-55,-72,-60,52,-12
1491090420923,0,-19,-1,8,24,-28,75,-56,-15
1491090420923,1,28,-12,-10,-42,35,-27,-20,-51
1491090420923,1,40,14,20,42,24,109,-9,6
1491090420970,2,-4,18,25,78,78,28,82,11
1491090420970,2,7,41,36,-13,-41,82,55,15
1491090420972,3,102,-4,-14,-23,-78,-84,-115,-16
1491090420972,3,-14,-19,-24,-36,30,-55,13,-21
1491090420972,1,-53,-13,-7,21,40,97,73,11
1491090420972,1,-28,20,10,25,19,54,-11,-4
1491090420973,2,76,-27,-1,12,16,-79,-35,15
1491090420973,2,45,-25,4,-30,-77,-101,14,5
1491090421018,3,-57,-34,-25,-76,-117,-73,-69,12
1491090421018,3,6,-28,-13,5,21,-24,69,-24
1491090421019,0,-50,3,9,39,98,67,12,7
1491090421019,0,-26,33,14,40,18,49,57,-13
1491090421021,2,-8,-5,-17,-23,-89,-49,1,-5
1491090421021,2,44,23,12,-4,63,14,48,12
1491090421022,3,-62,0,-13,36,39,-77,-25,-1
1491090421022,3,-28,4,30,36,38,95,-35,-28
1491090421067,0,20,-18,-24,-22,89,19,-61,8
1491090421067,0,-50,-17,-17,10,-106,-66,-13,-9
1491090421067,1,32,7,18,15,100,108,44,13
1491090421067,1,-4,-13,5,41,-40,-29,21,4
1491090421070,3,55,-9,1,41,-51,-20,-47,0
1491090421070,3,-94,14,5,-19,-46,53,-32,17
1491090421071,0,88,-7,-26,-40,-14,-91,-51,-28
1491090421071,0,-19,-14,-12,0,8,99,-5,-8
1491090421115,1,17,21,24,58,82,118,32,33
1491090421115,1,-93,-3,-9,-50,-15,-10,-115,-38
1491090421116,2,6,-11,-19,30,17,-23,-23,9
1491090421116,2,42,28,24,17,-44,58,23,4
1491090421117,0,48,-4,-20,-16,14,9,80,-3
1491090421117,0,-57,-1,1,1,5,-75,-76,-29
1491090421118,1,95,9,31,37,-29,-7,-62,14
1491090421118,1,91,-22,-14,17,85,6,-21,-11
1491090421164,2,-62,19,5,18,60,127,86,-9
1491090421164,2,8,-26,-23,-18,-49,-127,-99,-5
1491090421165,3,-37,-4,1,-26,21,64,78,-16
1491090421165,3,7,5,13,43,45,-110,-68,23
1491090421166,1,-12,-23,-15,26,32,-20,-28,-17
1491090421166,1,76,11,-1,28,-15,-41,77,46
1491090421167,2,-37,55,56,88,108,119,74,7
1491090421167,2,-43,6,-13,-64,-26,-60,-121,-17
1491090421262,3,56,35,8,-30,-85,21,3,6
1491090421262,3,21,22,-50,-5,-7,-120,11,-14
1491090421262,0,-18,8,-1,21,-27,38,86,28
1491090421262,0,3,33,5,-9,56,72,29,1
1491090421263,2,-8,-44,-15,-33,-46,73,-10,-23
1491090421263,2,0,-27,4,21,71,57,83,0
1491090421264,3,4,-27,12,42,-76,19,87,29
1491090421264,3,21,-47,-21,-41,5,-13,-71,-19
1491090421359,0,-72,13,13,23,80,-24,-25,0
1491090421359,0,-7,-26,11,41,-45,41,42,-12
1491090421360,1,42,-18,-24,23,36,-108,-19,-8
1491090421360,1,-58,2,-4,-82,-128,127,15,10
1491090421361,2,2,-3,2,-4,104,15,-29,-14
1491090421361,2,61,-2,-34,-68,-66,11,-24,2
1491090421362,3,-17,1,14,12,-16,60,-68,-6
1491090421362,3,-23,13,9,17,87,127,127,14
1491090421408,0,6,23,21,60,18,-39,54,-7
1491090421408,0,19,1,7,-17,-65,-55,-128,3
1491090421409,1,25,-32,-58,-102,-49,-36,80,-13
1491090421409,1,-20,-35,-43,-9,-66,20,-40,2
1491090421410,0,92,-41,-38,-29,-94,-76,-97,-9
1491090421410,0,-51,-16,8,23,-14,-80,47,-6
1491090421411,1,4,-11,12,55,27,-1,-101,4
1491090421411,1,-8,34,41,-20,78,0,17,-10
1491090421457,2,-11,18,0,-13,-102,-17,19,12
1491090421457,2,-30,-2,5,37,70,69,24,0
1491090421457,3,30,-27,-36,-37,-35,-58,-8,22
1491090421457,3,-47,-3,-18,-86,-27,33,34,-11
1491090421458,2,-8,-5,8,15,17,-99,-15,-8
1491090421458,2,-13,36,33,67,97,45,-36,-3
1491090421459,3,-8,24,8,-56,25,69,90,1
1491090421459,3,53,11,1,-50,-128,10,39,-21
1491090421506,0,-64,-20,-27,-5,76,37,50,4
1491090421506,0,-9,19,23,-21,-112,-3,-71,0
1491090421509,1,-40,-45,-19,-32,12,-116,-51,-63
1491090421509,1,50,-7,-14,35,73,117,45,30
1491090421510,3,-12,26,8,-55,-37,-1,-62,19
1491090421510,3,13,-34,-14,-57,-38,-13,-76,-57
1491090421511,0,11,53,25,74,70,69,33,30
1491090421511,0,-70,-29,-51,-122,-74,13,17,2
1491090421554,1,31,32,15,91,98,-49,-2,10
1491090421554,1,-39,48,16,41,26,-30,-22,10
1491090421555,2,-17,-3,16,-55,-94,-7,107,-12
1491090421555,2,95,16,-4,-5,-30,-122,-128,-17
1491090421556,0,35,-33,-57,-108,-90,-51,30,-26
1491090421556,0,37,-16,-27,-8,-37,1,96,0
1491090421557,1,39,-25,-12,44,49,-63,-81,-25
1491090421557,1,8,-10,5,10,21,-17,-108,-2
1491090421603,2,-100,-14,11,34,70,69,13,1
1491090421603,2,44,25,29,-33,17,70,31,16
1491090421604,3,-110,4,8,-5,34,81,104,-3
1491090421604,3,87,-7,2,35,-14,-94,-48,4
1491090421604,0,-26,-5,-39,-46,8,72,-63,7
1491090421604,0,70,-30,-29,-4,-52,-73,-93,-20
1491090421606,1,-52,-28,-1,2,-12,80,68,7
1491090421606,1,-80,46,45,27,-75,74,123,27
1491090421652,2,48,2,-20,-23,44,-44,-55,-17
1491090421652,2,61,7,6,49,114,-54,45,-8
1491090421653,3,-34,18,41,51,46,69,20,0
1491090421653,3,10,-29,-35,-112,-87,-62,62,-35
1491090421653,1,83,35,-22,-105,-128,-118,-99,-21
1491090421653,1,-2,-48,-40,10,44,85,53,20
1491090421654,2,-76,0,25,51,57,116,42,0
1491090421654,2,-51,43,59,64,29,98,111,7
1491090421700,3,-28,-42,-43,-63,-58,-93,-33,-2
1491090421700,3,80,-3,-40,-2,-54,7,76,18
1491090421701,0,-14,-38,-17,26,46,-102,-47,-36
1491090421701,0,-45,16,22,36,89,76,6,11
1491090421702,2,-17,1,-1,63,13,79,127,11
1491090421702,2,87,-3,-20,-52,-63,-128,-128,-25
1491090421703,3,40,7,-5,-25,79,-17,26,-2
1491090421703,3,-4,31,42,63,46,127,13,-16
1491090421750,0,52,-10,1,-32,-79,2,30,52
1491090421750,0,-88,22,5,62,86,87,53,-7
1491090421751,1,5,18,39,7,-109,26,-55,42
1491090421751,1,-65,-35,-58,-55,-63,-78,37,-18
1491090421752,3,-32,17,26,52,21,35,47,44
1491090421752,3,19,1,12,16,-30,-20,61,-23
1491090421752,0,-23,1,9,-11,12,-55,-73,-2
1491090421752,0,86,-7,-35,-106,-87,-60,-110,-44
1491090421798,1,-37,-21,-22,43,15,-10,42,-7
1491090421798,1,-57,6,13,-22,10,-25,18,4
1491090421799,2,-44,-7,-34,-38,-65,-60,-1,-32
1491090421799,2,27,20,22,-1,-11,110,4,44
1491090421799,0,24,-25,-26,-54,-99,19,38,-18
1491090421799,0,-85,-29,-28,28,19,43,49,0
1491090421800,1,44,10,19,27,122,-69,72,-11
1491090421800,1,-75,-41,-19,35,-11,54,-61,33
1491090421847,2,33,55,34,-17,-70,-84,1,-24
1491090421847,2,122,-19,-24,-42,-37,-18,-67,-15
1491090421847,3,-20,-15,-15,2,56,127,69,33
1491090421847,3,-75,5,18,95,127,-5,-28,-10
1491090421848,1,77,-28,-22,4,-72,-49,23,-44
1491090421848,1,-8,-43,-32,-46,-37,11,1,17
1491090421849,2,43,47,36,5,-39,110,27,-1
1491090421849,2,-47,-4,-33,-21,-83,-103,7,9
1491090421895,3,-14,-41,-45,-4,87,47,-1,17
1491090421895,3,48,40,48,113,111,90,-49,13
1491090421896,0,-62,-21,-20,5,-18,-64,-4,-2
1491090421896,0,-5,21,23,-46,64,-14,31,-25
1491090421944,2,2,-2,25,108,98,36,4,15
1491090421944,2,-24,9,28,60,18,45,4,17
1491090421993,3,-35,6,-11,-47,-97,-94,-107,-7
1491090421993,3,24,24,24,35,98,38,78,-13
1491090421994,0,-8,-24,-17,-36,30,36,93,17
1491090421994,0,91,14,-17,15,61,-128,-87,-36
1491090421995,1,-67,3,20,89,127,127,81,23
1491090421995,1,-7,24,36,42,70,37,-47,-21
1491090421996,2,-51,-3,-26,-91,-84,-64,7,19
1491090421996,2,62,-48,-67,-72,-126,21,-55,-17
1491090422091,3,123,26,3,53,-2,-37,61,-12
1491090422091,3,-32,-18,8,84,1,40,43,41
1491090422094,0,56,-92,10,5,-59,-54,43,12
1491090422094,0,-56,-22,39,-2,68,63,-8,-15
1491090422095,0,41,-52,-21,43,-35,44,1,-21
1491090422095,0,-99,65,47,109,57,61,127,30
1491090422096,1,79,-13,-38,-88,-87,-88,-123,21
1491090422096,1,44,-29,-39,-2,-85,52,-3,-19
1491090422140,2,-49,5,28,75,74,127,53,2
1491090422140,2,18,-27,-19,14,27,-106,-70,-10
1491090422141,3,25,66,52,61,95,-23,-65,12
1491090422141,3,-128,-6,28,-24,-124,60,-21,-13
1491090422142,1,-70,-14,-15,-18,-45,-9,-32,12
1491090422142,1,37,-29,-32,-29,-35,-76,-46,-18
1491090422143,2,1,-25,-14,-25,31,82,-5,-8
1491090422143,2,-9,25,30,31,5,-28,1,9
1491090422189,3,-86,-56,-38,-11,-16,-62,-39,-11
1491090422189,3,24,-10,-14,-42,11,98,-99,5
1491090422190,0,27,-39,-70,-78,-76,-128,14,-20
1491090422190,0,30,-19,-10,-1,-128,70,-54,12
1491090422191,3,1,-11,-2,-29,-39,-20,37,-7
1491090422191,3,-12,1,-21,-60,-93,-34,73,-29
1491090422192,0,-41,32,28,26,12,127,-21,18
1491090422192,0,20,-3,-14,-38,8,-105,25,3
1491090422237,1,32,2,4,10,31,12,-59,-18
1491090422237,1,3,2,8,104,-12,-23,43,-2
1491090422240,2,-74,34,37,22,56,10,23,-11
1491090422240,2,62,-35,-75,-98,-95,-66,15,-36
1491090422243,0,72,-12,2,16,-30,-43,-3,0
1491090422243,0,-94,36,36,59,103,-20,23,-2
1491090422244,1,-13,-75,-61,-107,-109,-106,-70,-25
1491090422244,1,25,37,10,-18,-11,17,44,45
1491090422285,2,55,22,17,69,20,-59,-30,-13
1491090422285,2,-73,9,20,5,-69,127,71,20
1491090422286,3,-2,21,21,2,77,-86,-26,-6
1491090422286,3,63,-33,0,53,-72,-54,-52,22
1491090422287,0,-82,-7,-19,-118,-128,-7,4,8
1491090422287,0,32,-33,-48,-29,2,21,64,2
1491090422288,1,85,27,28,36,4,114,-64,-2
1491090422288,1,4,-4,-4,43,95,42,6,28
1491090422334,2,-18,35,26,5,-9,64,57,5
1491090422334,2,22,-27,-46,-72,-128,-59,-109,-13
1491090422335,3,-26,14,19,47,25,111,127,29
1491090422335,3,-26,15,16,-17,38,26,-64,6
1491090422336,1,-57,7,11,-50,-75,70,-21,-5
1491090422336,1,109,-14,-64,-61,-108,-128,-90,-42
1491090422337,2,40,25,-35,-3,4,67,45,6
1491090422337,2,15,-2,12,70,77,84,-29,-11
1491090422383,3,-40,52,56,95,127,-12,51,-1
1491090422383,3,5,31,-7,-70,-98,-8,7,10
1491090422385,0,-13,22,-21,-82,-118,82,-26,-15
1491090422385,0,45,-5,-19,3,22,-47,-83,-15
1491090422386,2,-27,11,7,25,33,89,37,28
1491090422386,2,-29,6,5,65,85,-29,-32,-27
1491090422386,3,1,-69,-41,-87,-47,-77,-51,-40
1491090422386,3,38,3,-14,-48,-73,15,45,-8
1491090422432,0,32,6,25,119,117,43,0,26
1491090422432,0,-38,70,72,26,19,14,58,28
1491090422432,1,-35,-10,-38,-101,-119,-13,-88,31
1491090422432,1,52,-63,-39,-61,-6,-106,14,-47
1491090422433,3,-17,-6,-14,30,28,31,38,-37
1491090422433,3,-63,-7,2,-15,-32,-27,14,0
1491090422434,0,-2,1,14,24,95,57,-7,2
1491090422434,0,50,-19,-36,-35,-77,32,47,17
1491090422480,1,32,4,3,-15,-87,-97,-70,-21
1491090422480,1,-14,-9,-13,26,103,86,7,-8
1491090422481,2,-15,-47,-6,54,-44,17,7,3
1491090422481,2,-71,77,26,-97,-112,-28,-18,6
1491090422482,0,92,-32,-28,-33,-34,-128,-85,-43
1491090422482,0,40,-8,-5,46,101,127,21,31
1491090422483,1,-56,28,26,66,121,90,82,16
1491090422483,1,32,27,35,19,34,-26,-53,11
1491090422529,2,-111,16,20,-5,-50,2,-38,-21
1491090422529,2,-46,-32,-24,-78,-121,-96,-10,-13
1491090422530,3,27,41,18,16,109,50,-2,29
1491090422530,3,38,-42,-57,-39,-59,-56,13,-31
1491090422531,1,75,-14,1,110,52,41,-79,0
1491090422531,1,-67,24,40,68,1,-9,-36,9
1491090422531,2,-42,-5,-12,-94,-128,2,-12,-5
1491090422531,2,98,3,2,-9,-9,-119,-36,-2
1491090422578,3,-14,-5,3,29,36,82,8,9
1491090422578,3,22,45,33,52,0,117,26,21
1491090422579,0,18,18,0,-59,-41,-38,120,4
1491090422579,0,-106,7,10,41,97,23,-88,-9
1491090422580,2,46,-18,11,106,36,49,59,24
1491090422580,2,-21,19,23,21,19,70,69,12
1491090422581,3,-20,12,14,2,22,-95,2,22
1491090422581,3,-5,-13,-18,-93,-112,-25,-31,-18
1491090422627,0,-4,7,-14,-57,-61,-40,12,4
1491090422627,0,85,-18,-10,13,-4,-50,11,-5
1491090422628,1,-43,-10,-2,41,-87,83,-101,-10
1491090422628,1,16,22,36,15,124,24,30,25
1491090422629,3,-23,-64,-91,-128,-126,-102,-5,-27
1491090422629,3,64,0,-13,10,8,-6,-4,25
1491090422638,0,43,-12,-38,-12,-23,-127,-37,-34
1491090422638,0,-23,5,30,69,105,24,18,14
1491090422675,1,10,42,49,33,77,122,-57,5
1491090422675,1,-128,10,31,73,4,104,62,3
1491090422676,2,35,4,2,-74,47,-108,-48,2
1491090422676,2,109,-44,-59,-79,-87,-32,25,-26
1491090422676,3,10,-38,-51,-52,-14,-94,2,-28
1491090422676,3,49,-9,-21,-16,43,35,-43,-28
1491090422678,0,-58,8,12,11,40,64,-16,22
1491090422678,0,3,17,36,58,-36,14,-44,-26
1491090422724,1,20,24,48,82,98,19,39,14
1491090422724,1,-61,2,8,-14,-38,65,66,21
1491090422725,2,-57,-24,-42,-18,-39,-17,11,-3
1491090422725,2,-22,-18,-22,-125,-69,40,-86,-3
1491090422727,0,-7,7,9,27,-64,112,39,18
1491090422727,0,-78,-18,-11,33,54,22,89,-37
1491090422728,1,90,-6,-3,5,-41,16,-28,27
1491090422728,1,-90,30,43,35,59,-10,3,-4
1491090422773,2,-29,15,22,9,30,22,-64,-32
1491090422773,2,-58,21,9,-2,-6,66,72,31
1491090422774,3,-80,-2,3,-14,-66,-1,17,2
1491090422774,3,20,-10,-6,-14,-32,-46,-14,-24
1491090422774,1,-39,-22,-29,-70,-37,-61,-49,-26
1491090422774,1,25,-29,-34,17,-22,-65,25,14
1491090422775,2,19,-35,-19,8,101,33,110,-5
1491090422775,2,73,20,18,7,20,-57,-128,-5
1491090422822,3,-52,-24,-14,38,3,22,53,-6
1491090422822,3,33,34,40,-1,-76,-19,2,24
1491090422822,0,-20,51,26,-21,-84,103,94,-12
1491090422822,0,33,-42,-47,-67,-66,-69,12,-3
1491090422823,2,87,6,4,-8,119,-105,-20,12
1491090422823,2,-15,-1,-4,-30,56,96,-23,-4
1491090422824,3,-1,37,28,46,-70,59,-12,15
1491090422824,3,-63,-38,-16,6,75,74,-110,-22
1491090422870,0,66,21,2,-22,-128,-92,41,22
1491090422870,0,-5,-17,-22,34,127,85,43,-8
1491090422871,1,21,-38,-58,-120,-48,-81,-77,-50
1491090422871,1,65,-9,13,55,41,121,89,44
1491090422872,3,-35,59,44,23,98,79,96,18
1491090422872,3,-51,4,-4,-41,-128,21,-3,-10
1491090422873,0,34,-31,-74,-80,64,14,6,-21
1491090422873,0,20,14,8,38,-75,-13,-3,1
1491090422919,1,-108,7,53,102,65,100,-61,20
1491090422919,1,112,3,-29,-57,-41,-128,43,-32
1491090422920,2,-88,22,27,38,122,19,-28,7
1491090422920,2,75,-8,-12,-38,-128,34,-10,3
1491090422921,0,17,-12,-14,-19,89,88,25,10
1491090422921,0,33,8,6,45,70,28,-57,-43
1491090422922,1,46,-14,-2,13,-63,-16,45,17
1491090422922,1,-6,24,14,10,-54,89,66,66
1491090422968,2,-19,-28,-35,-83,-49,-28,-99,-34
1491090422968,2,-32,9,38,119,122,-51,56,2
1491090422969,3,77,-25,-16,-45,-104,-27,33,8
1491090422969,3,-56,3,-45,-102,-58,-79,-69,-44
1491090422970,1,-23,34,43,87,117,74,62,16
1491090422970,1,-22,-41,-32,-89,-62,-38,-65,-39
1491090422971,2,-41,19,16,35,-11,-38,-33,12
1491090422971,2,-14,-16,-19,-33,9,7,-25,-32
1491090423017,3,91,-33,-47,-87,-88,-128,-92,-18
1491090423017,3,-65,-31,-1,88,127,127,127,23
1491090423018,0,117,25,-11,-9,-128,-42,-115,-27
1491090423018,0,-60,20,1,34,-1,-54,11,53
1491090423019,1,-62,23,24,-7,-47,-22,-43,-24
1491090423019,1,88,-6,9,-16,17,17,46,-1
1491090423020,2,-86,14,27,44,74,94,127,42
1491090423020,2,53,-21,-17,-34,-101,-61,-72,-34
1491090423065,3,-13,-9,-42,-41,-22,-19,-5,-8
1491090423065,3,-31,28,41,52,64,27,-37,21
1491090423066,0,14,-2,15,8,73,44,-2,1
1491090423066,0,-69,0,-27,-25,-109,117,24,0
1491090423067,2,55,10,43,65,-109,-24,36,3
1491090423067,2,-122,-10,-34,-120,115,127,127,27
1491090423068,3,50,-1,-8,64,45,-38,-97,-16
1491090423068,3,-39,2,4,26,78,-21,92,3
1491090423114,0,-54,-33,-25,-37,-45,-99,-3,-30
1491090423114,0,60,1,41,55,1,-10,-30,30
1491090423115,1,-92,-62,-34,-7,58,62,40,-5
1491090423115,1,72,48,17,-4,-21,67,-25,-11
1491090423115,3,-63,14,9,22,108,60,48,19
1491090423115,3,-27,-3,7,37,-111,-47,-73,-26
1491090423117,0,41,17,-1,-38,66,47,1,-5
1491090423117,0,-25,-23,-28,-28,-122,33,61,6
1491090423163,1,88,-2,3,31,20,-59,-19,-24
1491090423163,1,-50,7,5,-22,-48,66,-23,-11
1491090423164,2,81,9,4,-10,77,18,65,11
1491090423164,2,-25,-22,-21,27,-119,-100,-110,-35
1491090423164,0,39,-62,-63,-80,-98,-86,-41,-25
1491090423164,0,-12,-6,3,16,45,83,-8,14
1491090423165,1,-28,-7,16,22,-27,57,-45,6
1491090423165,1,33,16,17,-7,-88,-80,-65,-18
1491090423212,2,-74,15,22,85,81,98,90,37
1491090423212,2,5,5,20,34,92,-37,-24,-26
1491090423212,3,-18,3,-9,-45,-108,-3,33,25
1491090423212,3,-68,-25,-45,-92,-70,-66,-7,-5
1491090423213,1,59,40,43,0,117,-66,-42,-9
1491090423213,1,32,-12,-22,14,54,62,-93,-6
1491090423214,2,-22,-4,-5,55,31,93,89,12
1491090423214,2,29,-16,-17,-35,9,-71,-82,-16
1491090423260,3,-82,-5,15,24,96,66,96,31
1491090423260,3,67,-8,-2,-14,-13,5,97,13
1491090423261,0,-17,2,9,53,25,4,35,-17
1491090423261,0,19,12,-4,-66,-81,64,-5,-2
1491090423262,2,25,14,39,71,61,-39,-33,-5
1491090423262,2,37,18,9,-35,-30,-46,40,18
1491090423263,3,-15,-12,-21,-27,-79,-19,8,-16
1491090423263,3,-50,104,25,43,101,91,47,-7
1491090423309,0,-18,18,-10,-17,-47,-1,1,46
1491090423309,0,40,46,20,27,-52,-48,37,-3
1491090423310,1,-18,-27,-7,6,-36,-87,-64,1
1491090423310,1,28,-51,-11,-51,-92,42,85,7
1491090423311,3,-5,-41,-7,10,-37,69,-41,4
1491090423311,3,-39,4,47,55,45,27,39,40
1491090423358,0,62,62,41,-27,32,-47,53,7
1491090423358,0,-26,-67,-78,-83,-49,90,-46,-24
1491090423359,1,69,67,42,126,127,110,103,8
1491090423359,1,-31,11,-5,-41,-128,-89,-11,-2
1491090423359,2,-66,-47,-54,-75,-110,-17,-58,-10
1491090423359,2,103,-18,0,58,67,-40,-29,6
1491090423360,3,-31,-3,4,-9,-33,24,-18,-16
1491090423360,3,-2,3,13,16,105,-60,-29,-3
1491090423407,0,18,38,59,39,31,32,42,24
1491090423407,0,-73,2,9,-12,12,16,-28,-4
1491090423407,1,31,-27,-18,48,69,57,-6,25
1491090423407,1,-32,16,-4,-43,-63,53,25,-16
1491090423408,2,66,-30,-27,-66,-119,-108,-118,-27
1491090423408,2,11,3,-6,34,91,15,106,-17
1491090423409,0,11,-15,-17,-42,-40,-73,-7,15
1491090423409,0,15,-26,-6,3,-23,63,-48,-13
1491090423455,1,55,-35,-11,35,11,-112,64,-31
1491090423455,1,-41,8,3,19,85,56,-115,0
1491090423456,2,26,35,20,23,96,78,92,-8
1491090423456,2,-75,27,40,10,-95,-1,88,20
1491090423457,1,-23,3,16,47,-91,111,-23,9
1491090423457,1,59,-39,-3,68,127,-103,23,-18
1491090423458,2,20,-34,-7,22,5,4,2,5
1491090423458,2,-108,78,55,2,-48,102,54,-16
1491090423504,3,-51,18,-13,-74,-128,-45,-64,30
1491090423504,3,112,-43,-47,-21,66,-113,-77,-30
1491090423505,0,-72,0,5,60,20,81,24,-22
1491090423505,0,86,-12,-16,-12,119,60,-48,24
1491090423506,2,-12,3,-7,-90,-3,-53,-119,-11
1491090423506,2,72,-37,-40,32,-53,-67,33,19
1491090423507,3,13,14,29,34,-95,63,50,-4
1491090423507,3,15,-21,-10,-17,82,-89,-14,2
1491090423553,0,-28,16,19,63,0,108,119,15
1491090423553,0,-67,17,26,-42,-8,-73,-102,-61
1491090423554,1,47,-49,-34,-21,-77,-12,-52,4
1491090423554,1,15,0,5,23,68,66,25,7
1491090423554,3,-19,52,12,-92,-84,-128,41,-29
1491090423554,3,79,-47,-60,-49,-123,1,-68,-17
1491090423555,0,-37,-3,9,84,111,89,95,15
1491090423555,0,47,-3,20,125,126,-35,-3,16
1491090423602,1,-85,15,28,38,80,122,98,9
1491090423602,1,19,35,31,-94,-116,67,-46,2
1491090423603,2,-29,-27,-40,-56,65,-128,-105,-32
1491090423603,2,20,-9,-41,-9,-60,40,6,-14
1491090423603,0,60,37,26,29,70,106,70,12
1491090423603,0,-48,14,16,-54,-100,-45,-21,-2
1491090423604,1,17,-19,-32,-11,104,-65,12,25
1491090423604,1,-17,-6,6,47,-113,-72,-79,-26
1491090423650,2,-39,-19,-20,-50,-24,-35,-8,-12
1491090423650,2,94,10,12,24,123,3,62,39
1491090423651,3,3,39,39,47,-59,17,-72,-14
1491090423651,3,-67,8,-9,-85,-10,-94,7,13
1491090423652,1,-101,-53,-58,-84,-47,-26,39,-7
1491090423652,1,74,-14,-30,7,-35,-11,2,-14
1491090423653,2,19,27,27,7,19,76,-44,7
1491090423653,2,-43,-13,14,91,127,-69,-19,-46
1491090423699,3,-31,19,29,17,40,-24,-72,23
1491090423699,3,35,2,15,23,92,35,73,5
1491090423700,0,-33,-84,-58,-66,-128,64,75,23
1491090423700,0,0,43,21,15,-8,-64,-77,-24
1491090423700,1,-51,-1,24,88,54,67,76,-16
1491090423700,1,-16,-4,-28,-103,-93,-101,-78,-14
1491090423701,2,127,-34,-60,-45,-26,-63,-59,-17
1491090423701,2,-99,-8,8,14,53,93,73,3
1491090423748,3,52,1,-9,44,30,40,-30,15
1491090423748,3,-93,-4,27,55,-2,92,47,21
1491090423749,0,55,58,53,-17,-10,-45,15,15
1491090423749,0,-14,-40,-64,-128,-128,-6,18,0
1491090423749,2,0,6,28,45,58,-3,45,26
1491090423749,2,67,-27,1,42,43,104,-7,-5
1491090423750,3,-108,49,12,-3,115,81,-72,12
1491090423750,3,51,30,-11,-55,-103,-43,18,0
1491090423797,0,-19,5,-25,-72,-66,49,-7,13
1491090423797,0,20,-10,-13,69,-54,-98,11,-31
1491090423797,1,-13,7,11,-10,-25,37,76,-18
1491090423797,1,8,50,-4,-54,-2,-29,62,20
1491090423798,3,27,23,25,-9,-72,-2,-73,-8
1491090423798,3,24,-30,-32,-24,-49,-44,41,-12
1491090423799,0,46,0,-15,-31,15,27,45,-9
1491090423799,0,19,-37,-33,-9,-16,4,-49,-6
1491090423845,1,-14,-48,-33,-21,71,-93,-105,-25
1491090423845,1,-16,-19,24,46,95,126,33,-3
1491090423846,2,21,44,44,59,-25,-32,-25,9
1491090423846,2,-52,7,0,-35,-11,-28,-4,5
1491090423847,0,-78,-11,-12,-17,-89,15,18,-20
1491090423847,0,4,-5,-16,-77,-53,-36,-8,31
1491090423848,1,-31,-3,11,51,-86,127,20,-14
1491090423848,1,-41,-6,-22,12,42,-112,16,13
1491090423894,2,53,-30,-35,-68,-53,54,-53,-27
1491090423894,2,-28,4,8,33,67,14,8,-13
1491090423895,3,-28,-27,-5,15,40,101,116,0
1491090423895,3,-26,10,15,61,38,65,-39,5
1491090423896,1,74,22,-7,-16,47,11,-104,-22
1491090423896,1,-29,22,17,30,89,-34,-81,12
1491090423897,2,-108,-32,-25,-118,-128,-33,-22,-19
1491090423897,2,119,-43,-63,-101,-110,-81,-33,-28
1491090423943,3,33,-23,-17,53,23,28,5,24
1491090423943,3,49,-33,-4,21,58,-3,-78,-22
1491090423944,0,51,5,31,82,-3,5,-3,2
1491090423944,0,-70,37,54,65,89,100,2,15
1491090423944,2,-20,-8,1,54,103,31,-88,9
1491090423944,2,-48,-3,8,38,22,3,-65,-21
1491090423945,3,76,25,1,-16,75,-4,36,21
1491090423945,3,-6,12,25,32,-90,92,45,10
1491090423992,0,-81,51,-5,-69,-27,-55,-15,-8
1491090423992,0,35,-6,-28,-62,-126,-68,-71,-30
1491090423993,1,34,-15,-9,1,22,47,-12,27
1491090423993,1,17,-8,13,82,101,-81,28,-14
1491090423993,3,-52,27,21,-38,-45,-3,-2,4
1491090423993,3,-7,41,-2,-91,-84,25,46,-18
1491090423994,0,-2,-15,4,62,-11,-19,-26,-1
1491090423994,0,-24,18,11,16,49,29,71,27
1491090424040,1,-29,-27,-8,-17,-81,-39,-73,-46
1491090424040,1,63,-8,-9,42,84,-16,34,36
1491090424041,2,-79,9,-6,-43,33,-52,8,10
1491090424041,2,22,1,6,4,-60,53,-7,-10
1491090424042,0,31,-9,-5,-53,52,11,38,-4
1491090424042,0,12,-13,-15,-36,-38,-64,-36,-11
1491090424043,1,36,-18,-12,25,61,-40,-82,-32
1491090424043,1,-51,-20,-17,-14,-34,69,11,32
1491090424089,2,55,4,4,-27,-53,-39,-49,-5
1491090424089,2,-1,31,33,48,-13,107,-10,10
1491090424090,3,-57,-8,15,48,-76,-29,24,-18
1491090424090,3,13,-18,-8,-10,121,-17,57,-19
1491090424090,0,41,-38,-64,-51,-113,-72,-41,7
1491090424090,0,42,1,-4,-25,-81,-9,16,-12
1491090424091,1,-16,5,15,83,127,61,-34,-15
1491090424091,1,-29,39,50,31,-116,127,2,13
1491090424138,2,28,19,36,44,10,-28,127,5
1491090424138,2,-20,-26,-44,-86,-14,-120,-108,-6
1491090424139,3,44,-22,-50,-101,-92,-38,-38,7
1491090424139,3,-19,-35,-25,-4,40,59,-49,-32
1491090424139,1,2,87,67,54,94,-12,94,6
1491090424139,1,-41,-34,-64,-128,-128,-128,-118,1
1491090424140,2,19,2,-10,22,-22,82,51,-15
1491090424140,2,29,43,47,87,120,35,50,-24
1491090424187,3,-43,0,13,-20,3,127,19,52
1491090424187,3,88,13,11,45,96,3,86,-3
1491090424188,0,-40,20,1,-43,-92,-6,-35,2
1491090424188,0,34,-68,-60,-68,79,-22,-8,-18
1491090424189,2,-25,44,28,74,127,17,-46,0
1491090424189,2,-91,2,-4,-94,-100,38,77,11
1491090424190,3,48,-24,-50,-69,-53,-128,16,3
1491090424190,3,43,-26,-3,44,19,-35,-24,-7
1491090424284,0,-22,-9,-1,29,4,15,120,0
1491090424284,0,5,-3,12,43,32,-36,-116,-6
1491090424285,1,-70,34,39,77,127,118,112,17
1491090424285,1,-80,60,41,-43,-128,20,-9,-4
1491090424286,3,-26,-118,-113,-115,-80,91,-25,-46
1491090424286,3,-12,-30,-17,49,127,50,-44,39
1491090424286,0,62,-5,31,102,82,104,38,-20
1491090424286,0,-35,14,20,39,44,-18,-6,21
1491090424333,1,53,35,34,-27,-47,35,18,41
1491090424333,1,-70,72,44,-17,27,78,74,-2
1491090424334,2,27,-30,-30,-8,-88,-94,-61,-17
1491090424334,2,-74,-1,3,2,3,47,-50,37
1491090424337,1,13,-39,-2,38,-20,27,-20,-6
1491090424337,1,39,-4,2,14,10,-31,-25,36
1491090424338,2,-45,13,-10,-42,-128,95,-31,-1
1491090424338,2,-1,22,15,73,86,-91,90,20
1491090424382,3,-35,4,5,-6,127,113,36,-13
1491090424382,3,29,-32,-11,-13,-94,-128,-36,-53
1491090424391,0,-73,-17,-32,-51,84,-23,-13,-3
1491090424391,0,63,0,-4,-1,-8,86,31,6
1491090424392,2,-5,17,23,2,-48,94,33,-12
1491090424392,2,-18,-28,-18,-2,-98,-128,-45,-15
1491090424392,3,22,-35,-16,8,66,-29,16,-18
1491090424392,3,-31,-34,-8,8,-97,-8,-22,-11
1491090424430,0,-19,-14,-11,-48,22,-63,-38,-1
1491090424430,0,14,-10,9,47,102,65,73,16
1491090424431,1,-36,-17,1,-11,46,13,-87,-50
1491090424431,1,18,-23,-10,34,8,-28,-62,25
1491090424432,2,-17,11,11,22,-45,3,76,3
1491090424432,2,24,35,-10,-99,-107,-9,42,16
1491090424433,3,-21,6,20,6,57,54,-74,2
1491090424433,3,30,-10,-9,53,60,-4,36,14
1491090424479,0,-60,16,12,-40,-123,-66,0,-31
1491090424479,0,-11,-28,-35,-73,-3,-30,-65,1
1491090424480,1,44,7,26,89,30,93,127,2
1491090424480,1,-59,-8,-3,18,-48,-81,-73,-7
1491090424481,3,79,-5,-58,-128,-112,-128,-123,-16
1491090424481,3,42,-31,-37,42,80,127,2,18
1491090424482,0,38,-11,15,26,18,90,86,-4
1491090424482,0,-44,20,22,-9,-61,11,10,-3
1491090424528,1,4,4,16,60,62,-18,31,-1
1491090424528,1,-33,41,32,12,50,72,27,28
1491090424529,2,44,-6,0,-44,27,-26,-19,-16
1491090424529,2,-86,29,38,61,-41,27,54,48
1491090424529,0,-26,-19,6,69,-75,20,23,24
1491090424529,0,5,40,14,-98,8,24,-16,-7
1491090424530,1,3,-1,-19,25,-1,35,35,25
1491090424530,1,101,-33,-12,36,38,-22,0,-16
1491090424577,2,10,-6,10,60,76,30,3,-20
1491090424577,2,16,-8,-7,23,-71,-67,-81,3
1491090424578,3,-38,13,5,-52,2,20,-23,22
1491090424578,3,-92,23,0,-95,-52,91,11,-25
1491090424579,1,45,34,48,36,-15,69,40,31
1491090424579,1,-89,7,15,-52,-38,33,-45,-11
1491090424580,2,102,-17,-26,-5,95,-119,-77,7
1491090424580,2,-1,-58,-57,-5,-53,13,-7,-17
1491090424625,3,13,3,23,49,49,8,6,3
1491090424625,3,56,63,42,26,71,26,-9,34
1491090424627,0,-62,2,-2,-45,-128,-10,13,5
1491090424627,0,41,-7,-23,-51,127,11,-39,-23
1491090424628,2,-41,5,-2,-17,-25,5,67,-27
1491090424628,2,-20,24,52,121,85,108,40,16
1491090424629,3,-79,27,42,29,61,-111,-50,22
1491090424629,3,-44,-2,-15,-42,90,59,-4,6
1491090424675,0,54,-36,-63,-4,-70,-72,-105,-35
1491090424675,0,44,-51,-43,-119,-74,4,1,-8
1491090424676,1,91,26,18,10,32,123,90,25
1491090424676,1,77,-62,19,60,13,-128,-101,-23
1491090424677,3,35,20,9,-10,62,-85,-5,-8
1491090424677,3,41,48,-9,-13,-115,103,87,8
1491090424678,0,-83,9,11,-34,-101,127,88,-8
1491090424678,0,42,-22,-33,-23,50,-94,-128,-25
1491090424723,1,29,-22,-25,-2,-25,-32,-12,11
1491090424723,1,-97,-13,-6,31,36,-8,46,-23
1491090424724,2,50,-11,-6,44,-39,-60,-42,-21
1491090424724,2,-74,51,59,-22,-44,-19,-3,11
1491090424725,0,-39,-29,-5,32,82,-9,-27,4
1491090424725,0,86,24,-13,-11,-67,0,22,11
1491090424726,1,-7,-37,-19,-20,-91,19,-40,-24
1491090424726,1,-31,30,32,88,60,5,116,5
1491090424772,2,34,-11,-1,-21,-96,-15,46,14
1491090424772,2,54,-49,-44,-3,88,-128,-53,-28
1491090424773,3,-106,-10,1,-55,-45,18,85,4
1491090424773,3,-63,-16,-18,32,-35,84,-54,-3
1491090424774,0,40,28,25,-61,-48,6,-28,8
1491090424774,0,10,19,17,70,71,54,15,18
1491090424774,1,8,-21,-8,14,-128,127,71,-4
1491090424774,1,-30,-7,7,23,-33,-128,-81,-39
1491090424820,2,37,-11,-37,-105,-27,-78,-17,-12
1491090424820,2,-21,-46,-52,-21,-128,63,12,-1
1491090424822,3,42,13,9,29,99,7,-51,-6
1491090424822,3,17,19,36,16,126,62,13,16
1491090424822,1,-45,48,61,120,127,2,-128,-13
1491090424822,1,-10,-2,-32,-100,-128,-66,66,33
1491090424823,2,41,18,-34,-97,-100,-54,-64,-30
1491090424823,2,7,-25,-22,13,-64,6,-44,1
1491090424869,3,35,7,-2,22,23,-36,14,-15
1491090424869,3,-82,-29,-11,-1,31,-56,-36,-15
1491090424870,0,11,-19,-2,-6,30,127,92,-2
1491090424870,0,39,33,26,5,-9,-115,-43,4
1491090424871,2,39,37,26,35,-51,13,85,44
1491090424871,2,-96,38,40,18,104,127,70,-26
1491090424872,3,-1,-31,-48,-95,-128,-46,-106,-2
1491090424872,3,45,14,-14,-33,18,-59,97,9
1491090424918,0,72,-71,-59,4,83,15,-26,-3
1491090424918,0,13,-15,-13,41,-25,58,-109,-17
1491090424919,1,16,39,70,74,122,67,-3,12
1491090424919,1,-41,27,31,64,-56,127,68,7
1491090424920,3,39,-19,-37,-40,-58,-61,-63,-15
1491090424920,3,-10,-18,-22,35,-2,63,72,19
1491090424921,0,1,17,33,94,93,-52,-82,-2
1491090424921,0,-82,4,26,-31,67,78,87,-5
1491090424967,1,36,-70,-56,-3,27,-63,-51,9
1491090424967,1,-14,37,31,-28,-83,-21,-13,-16
1491090424968,2,32,1,-34,-41,34,-53,20,-24
1491090424968,2,-13,-33,-18,12,-14,-11,74,15
1491090424969,0,-86,-17,-9,35,-5,127,0,-11
1491090424969,0,96,21,45,114,88,-29,-38,-12
1491090424970,1,-9,5,2,-44,-73,31,99,27
1491090424970,1,25,-31,-53,-119,-74,-85,-85,-24
1491090425015,2,8,33,44,55,9,40,-26,-25
1491090425015,2,20,12,21,-6,80,105,-27,57
1491090425017,3,-47,6,24,102,73,-62,-14,-24
1491090425017,3,-16,-24,-20,23,7,-65,66,24
1491090425017,1,-15,62,29,59,103,1,-44,25
1491090425017,1,-5,-10,-15,-80,-87,80,43,-28
1491090425018,2,58,5,8,25,34,24,21,27
1491090425018,2,-26,-26,-24,8,38,50,-5,0
1491090425064,3,21,15,42,47,-48,-6,11,1
1491090425064,3,-73,-3,26,95,127,45,44,-8
1491090425065,0,2,12,21,34,74,-51,-44,4
1491090425065,0,-2,-14,-48,-128,-128,-27,31,-13
1491090425066,2,32,34,18,37,71,-17,85,51
1491090425066,2,-18,33,18,13,-59,41,7,-10
1491090425067,3,16,-37,-59,-101,-91,-89,-61,-21
1491090425067,3,-37,6,24,90,26,127,-21,18
1491090425113,0,-6,5,20,34,62,1,41,9
1491090425113,0,6,-39,-22,24,73,-128,11,-31
1491090425114,1,63,6,10,-5,-1,-12,-45,-7
1491090425114,1,-53,-4,-26,-34,-8,20,59,19
1491090425115,2,13,-13,16,11,-19,-41,38,-25
1491090425115,2,2,11,16,36,-67,-103,-77,14
1491090425117,3,-24,-14,-5,-87,-59,94,33,2
1491090425117,3,-25,11,-14,-68,-94,-109,-91,-27
1491090425162,0,-54,-22,-14,21,20,-6,76,-10
1491090425162,0,14,-21,-16,-32,-95,18,-85,-20
1491090425162,1,31,-10,-6,34,127,30,66,-2
1491090425162,1,47,6,5,85,2,17,-24,12
1491090425163,3,69,-27,-33,70,74,29,-54,-13
1491090425163,3,-107,20,26,26,-97,95,106,13
1491090425164,0,34,-7,-9,-1,-128,25,-102,-18
1491090425164,0,13,-2,-8,-71,-24,-15,46,30
1491090425210,1,46,7,-7,-41,7,-33,108,23
1491090425210,1,60,-29,-15,5,74,-128,-49,-3
1491090425211,2,-108,54,51,69,-25,127,64,15
1491090425211,2,-85,-52,-9,13,117,-13,-15,0
1491090425212,0,127,5,-30,-32,38,29,96,31
1491090425212,0,10,5,27,17,-73,36,-104,3
1491090425213,1,-87,7,22,34,57,15,56,3
1491090425213,1,21,26,34,4,27,-74,22,-12
1491090425259,2,-98,14,23,0,93,102,-67,1
1491090425259,2,73,34,15,39,97,-53,127,2
1491090425260,3,-39,-34,-35,-31,-23,91,28,15
1491090425260,3,64,-25,-27,5,-45,62,-50,-5
1491090425261,1,-36,28,42,62,-23,-84,-39,-19
1491090425261,1,29,27,43,25,66,35,58,31
1491090425262,2,-75,11,15,12,-11,118,-24,5
1491090425262,2,-41,-32,-37,-24,-61,-68,-49,-28
1491090425308,3,44,-14,-10,-62,-113,-21,-59,-16
1491090425308,3,-91,22,4,90,112,11,-37,12
1491090425308,0,-3,-12,-7,-58,25,17,28,-5
1491090425308,0,38,-25,-49,-80,-123,14,-51,-16
1491090425309,2,-51,46,32,-18,-22,72,72,35
1491090425309,2,-10,8,9,23,100,-44,38,15
1491090425310,3,57,39,23,-9,-107,74,-104,-2
1491090425310,3,-76,7,25,26,13,-49,-35,-13
1491090425356,0,43,-30,-51,-65,-97,-100,11,-38
1491090425356,0,28,-42,-69,-118,-128,-36,2,20
1491090425357,1,115,8,24,81,75,-26,-81,-15
1491090425357,1,9,51,55,102,100,58,51,17
1491090425358,3,-8,-7,-2,27,49,-70,127,19
1491090425358,3,43,2,-17,-61,-97,11,-63,-24
1491090425359,0,103,8,23,61,58,30,-88,26
1491090425359,0,-115,-25,-25,-18,-59,37,7,-37
1491090425405,1,-18,-46,-43,-95,-64,-69,-20,-4
1491090425405,1,3,-2,-24,-76,-6,13,-23,-1
1491090425406,2,-15,-23,10,102,80,36,1,-20
1491090425406,2,69,43,56,113,48,-24,0,-27
1491090425407,0,42,-55,-65,-52,-128,-102,19,-64
1491090425407,0,6,7,-1,32,-16,127,26,20
1491090425408,1,80,-46,-71,-75,-11,-128,-52,-62
1491090425408,1,-16,20,47,71,-46,125,59,22
