1491693377654,0,-89,-47,-54,-38,28,-43,-35,-93
1491693377654,0,-53,6,13,46,4,25,14,-117
1491693377656,1,-32,-6,1,19,-11,-20,-7,-128
1491693377656,1,-9,5,4,3,-5,-32,-20,-68
1491693377657,2,31,-1,4,-22,-17,21,24,111
1491693377657,2,37,-4,-3,-35,-47,-31,-4,127
1491693377702,3,9,-13,-14,-26,1,62,10,127
1491693377702,3,24,-2,-9,-14,-9,-37,-12,89
1491693377703,0,27,13,13,23,19,-1,-2,48
1491693377703,0,2,-12,-5,5,0,-10,4,35
1491693377704,1,27,11,17,15,5,-2,3,13
1491693377704,1,0,1,-17,-40,7,-20,-12,-2
1491693377705,2,15,9,22,42,-11,12,11,-14
1491693377705,2,6,-1,2,2,3,16,0,-21
1491693377751,3,3,-5,-5,-9,-26,-21,-7,-16
1491693377751,3,-5,1,-10,16,2,57,13,-16
1491693377752,0,-6,4,-37,-41,-7,-48,-27,-25
1491693377752,0,6,6,7,35,37,-30,-18,-38
1491693377753,1,4,4,10,-16,-32,20,15,-63
1491693377753,1,-12,-5,8,-25,-2,6,9,-12
1491693377754,2,23,18,35,-4,-23,33,37,15
1491693377754,2,-5,0,-31,24,-3,-4,-17,21
1491693377799,3,-8,-3,-10,9,27,-24,-21,17
1491693377799,3,1,-7,-7,21,-38,-60,-25,-14
1491693377801,0,-2,-4,25,-5,5,-26,-3,-10
1491693377801,0,-5,-7,-39,-55,16,86,24,11
1491693377803,2,-3,4,27,55,-10,42,-15,-18
1491693377803,2,0,-4,-8,-45,-62,-58,-17,3
1491693377804,3,10,-6,-7,-10,2,9,4,-3
1491693377804,3,-5,-13,4,20,-6,27,18,-61
1491693377848,0,0,9,12,12,27,20,1,-28
1491693377848,0,-1,1,-16,-3,20,6,-14,-8
1491693377850,1,-3,0,-8,-11,23,-44,-1,21
1491693377850,1,6,-6,-1,8,-36,-30,-6,47
1491693377851,3,-2,-6,-38,-48,-12,-17,-14,-63
1491693377851,3,-5,-7,6,-24,-9,-39,12,-42
1491693377852,0,-5,-10,-23,-3,25,15,-21,13
1491693377852,0,0,-5,-2,-22,-99,-74,19,65
1491693377897,1,-10,-3,19,49,1,-12,-3,66
1491693377897,1,25,10,4,20,50,127,28,62
1491693377898,2,8,2,6,-24,37,-33,-15,9
1491693377898,2,2,7,25,37,44,38,12,-6
1491693377899,0,-6,-18,-26,-10,-26,-53,-10,-14
1491693377899,0,10,-3,0,0,-5,-30,-8,-14
1491693377900,1,0,-1,-5,-12,-33,-45,1,-7
1491693377900,1,-11,-3,-24,-33,9,-29,-22,8
1491693377945,2,3,11,21,-17,-16,11,8,-5
1491693377945,2,-6,-4,-11,-23,28,85,20,-15
1491693377947,3,-4,-2,7,14,-2,8,11,-3
1491693377947,3,2,-2,-43,-42,10,-22,-25,1
1491693377948,0,0,7,5,18,-30,-3,-2,-4
1491693377948,0,-5,-1,2,-65,48,2,-19,-19
1491693377949,1,5,0,22,85,-41,-68,-1,1
1491693377949,1,-9,-13,-3,22,14,54,14,-17
1491693377995,2,3,-11,-26,-8,-6,-24,2,7
1491693377995,2,-7,2,11,-10,39,2,-1,-7
1491693377997,3,-10,9,15,-23,75,39,-21,-4
1491693377997,3,-10,12,50,31,-6,38,5,-11
1491693377998,1,12,-2,7,4,-2,-20,-18,3
1491693377998,1,6,7,44,93,37,-34,-8,-1
1491693377998,2,5,-4,11,30,55,29,10,9
1491693377998,2,-3,0,-24,-28,-28,8,-11,-8
1491693378043,3,22,-19,-37,0,-35,-7,12,1
1491693378043,3,4,-7,-6,-70,-20,-6,1,1
1491693378045,0,7,10,25,75,102,59,1,1
1491693378045,0,-9,3,22,-12,28,-86,-22,1
1491693378046,2,-9,-26,-14,-29,-72,45,25,-16
1491693378046,2,-1,3,-27,-17,-23,-128,-24,-9
1491693378047,3,-17,-1,7,-38,15,86,-19,-2
1491693378047,3,-15,11,63,38,30,42,6,1
1491693378092,0,-6,11,-24,-1,73,-89,-30,-1
1491693378092,0,-2,-5,17,20,-12,127,55,4
1491693378093,1,9,-7,-7,-11,-13,-128,-39,-3
1491693378093,1,-9,0,-3,12,3,-4,22,0
1491693378094,3,22,26,30,48,-31,16,27,22
1491693378094,3,-8,8,-27,-72,5,-66,1,4
1491693378095,0,-8,-7,20,67,-15,108,5,1
1491693378095,0,-2,-6,-6,-7,-51,-128,-3,-15
1491693378141,1,-11,-26,-69,-74,-20,127,28,-19
1491693378141,1,7,-10,-9,-12,-62,-128,-30,11
1491693378142,2,3,9,19,9,-17,59,8,7
1491693378142,2,9,6,17,50,23,-25,-5,5
1491693378143,0,-11,7,4,-12,8,80,13,-2
1491693378143,0,7,2,7,15,-3,4,-8,-4
1491693378148,1,7,16,6,-22,17,-73,-13,4
1491693378148,1,-1,-6,-5,19,38,33,-2,-7
1491693378189,2,1,-7,-12,-24,-34,-35,9,-2
1491693378189,2,9,3,8,1,-24,6,-16,1
1491693378191,3,-17,-21,-11,-4,5,-37,-2,-1
1491693378191,3,-22,-11,-6,3,2,4,0,-5
1491693378192,1,5,-3,-18,-15,-41,-105,-19,-5
1491693378192,1,5,-4,-1,6,13,23,-2,-1
1491693378193,2,-2,-23,-1,-10,-22,-41,14,-1
1491693378193,2,13,22,10,11,29,76,7,4
1491693378238,3,-6,-14,-15,-12,-15,-64,-21,-7
1491693378238,3,7,9,1,-4,-2,-53,-21,-9
1491693378241,0,0,-8,-8,-1,14,-21,0,6
1491693378241,0,5,7,16,-4,50,7,5,4
1491693378242,2,-11,-13,-15,6,-58,63,17,-6
1491693378242,2,-8,-26,1,31,-29,-115,-25,-4
1491693378243,3,5,15,35,5,48,127,41,11
1491693378243,3,-2,-14,-36,-21,-14,-82,-31,-6
1491693378287,0,13,18,25,-42,81,68,14,7
1491693378287,0,-24,-12,-47,14,35,9,-23,-14
1491693378288,1,-3,-17,-60,-60,-74,-57,14,-6
1491693378288,1,8,10,71,122,-9,83,6,2
1491693378289,2,7,1,19,-47,-43,53,-7,-10
1491693378289,2,-4,7,20,-37,43,-63,-12,-1
1491693378290,3,-10,2,-86,-59,-53,19,1,3
1491693378290,3,1,-4,13,-36,59,21,21,6
1491693378336,0,0,5,40,64,-113,6,-4,4
1491693378336,0,-22,-27,-79,-26,76,39,-18,-12
1491693378337,1,15,4,-34,-22,14,50,14,21
1491693378337,1,-22,-11,-9,-59,-98,-59,-30,-10
1491693378338,3,13,11,112,127,127,87,12,0
1491693378338,3,7,7,-101,-74,-95,-9,-34,-6
1491693378343,0,-8,-52,-104,-57,-127,-128,-33,-18
1491693378343,0,-8,-14,-33,-60,25,80,9,-5
1491693378384,1,-15,-9,-6,-102,71,-5,-9,-9
1491693378384,1,32,53,119,127,127,127,47,12
1491693378386,2,-4,7,14,34,106,18,-2,0
1491693378386,2,5,13,-11,-40,-29,0,12,2
1491693378387,0,-6,-9,-39,3,-6,73,-2,2
1491693378387,0,18,-1,17,25,-8,57,25,5
1491693378388,1,21,21,26,27,10,-56,-13,12
1491693378388,1,-18,-27,-13,-23,0,7,7,-8
1491693378433,2,18,50,9,37,-6,-82,-6,3
1491693378433,2,-14,-5,10,-5,-4,-20,10,-2
1491693378434,3,-10,-28,-7,3,-11,-49,-29,-12
1491693378434,3,-36,-65,-38,-4,12,3,5,-6
1491693378436,1,1,-11,-15,-1,-18,-48,-24,-2
1491693378436,1,6,-17,10,11,9,6,5,-3
1491693378436,2,-30,-27,4,0,6,4,6,-5
1491693378436,2,5,19,2,-11,-16,26,-2,2
1491693378482,3,-20,25,8,20,45,-62,-26,-8
1491693378482,3,-11,-50,-11,0,-49,38,27,4
1491693378483,0,19,30,8,5,19,-45,-21,-2
1491693378483,0,16,22,7,-20,12,-6,0,4
1491693378483,2,-42,-66,-33,-97,-37,11,-8,-7
1491693378483,2,5,-2,6,105,-16,-63,-17,-2
1491693378484,3,-11,-16,-75,-69,5,3,-5,-10
1491693378484,3,-7,8,-19,31,46,20,1,2
1491693378530,0,5,3,6,-63,12,51,17,1
1491693378530,0,-20,-45,25,-8,-1,2,18,1
1491693378532,1,-31,-16,14,-85,-118,-92,-26,-5
1491693378532,1,3,48,85,76,85,87,5,12
1491693378533,3,6,7,-66,98,-76,-53,22,12
1491693378533,3,-12,-16,-55,-13,69,82,-33,-9
1491693378534,0,13,-13,-3,27,38,-69,-35,1
1491693378534,0,14,-30,-56,-52,-40,-95,-57,-24
1491693378579,1,10,20,45,-3,102,55,17,-2
1491693378579,1,67,86,107,-9,-95,76,52,18
1491693378580,2,-9,-13,-66,-23,127,-48,14,-3
1491693378580,2,24,20,-11,111,-124,-5,0,-7
1491693378628,0,9,20,64,-39,67,112,9,7
1491693378628,0,-24,-39,-17,-100,79,59,11,8
1491693378629,1,13,26,-95,-31,-50,-7,-31,-10
1491693378629,1,-50,-36,5,11,47,33,17,-4
1491693378630,2,14,29,-5,21,-128,-128,-40,0
1491693378630,2,-10,-28,53,77,110,44,10,7
1491693378635,3,1,51,88,-42,127,127,23,4
1491693378635,3,-5,-44,-67,-29,83,-124,-15,-13
1491693378677,1,23,-11,-48,23,58,48,-13,4
1491693378677,1,55,58,11,10,63,-28,0,14
1491693378678,2,29,3,-43,-18,16,73,21,1
1491693378678,2,17,4,-2,-48,-11,-59,1,-1
1491693378679,3,-16,-50,-27,-25,-118,-75,6,-11
1491693378679,3,-36,-16,18,-33,-48,-13,-24,-9
1491693378680,1,26,44,56,-79,68,78,10,12
1491693378680,1,-12,28,20,119,-12,-55,-13,-1
1491693378725,2,-14,-56,-70,-70,-101,-95,-17,-8
1491693378725,2,-66,-55,-22,-76,-59,-2,-8,-18
1491693378726,3,-2,62,37,0,69,-8,13,-2
1491693378726,3,-12,-59,-56,-59,-108,47,4,-6
1491693378727,2,6,-32,-54,-76,-93,100,12,-7
1491693378727,2,17,41,-12,-80,83,-14,-38,6
1491693378728,3,-17,-27,47,56,-52,88,7,-4
1491693378728,3,-10,-22,-26,-106,-52,-72,16,4
1491693378774,0,5,10,41,101,127,46,9,11
1491693378774,0,8,34,3,44,-49,-50,-7,-1
1491693378776,1,-4,-54,-63,-81,43,-10,2,-2
1491693378776,1,-3,51,34,50,21,27,7,-1
1491693378778,3,-1,-27,-77,-41,-119,-3,17,-1
1491693378778,3,8,21,80,42,76,-58,-39,-5
1491693378778,0,-26,-32,-67,15,-54,48,14,0
1491693378778,0,-4,-27,-64,-32,-97,-46,-19,-6
1491693378872,1,-39,-20,18,20,57,49,8,-9
1491693378872,1,-4,-43,-41,-37,-117,-8,-2,-6
1491693378920,2,-11,32,77,15,127,111,10,-5
1491693378920,2,33,50,32,-44,-106,-74,-34,-2
1491693378922,0,-5,-62,62,42,108,21,-20,-3
1491693378922,0,10,24,15,36,-28,78,20,9
1491693378923,1,26,1,-92,-111,-68,14,-28,-4
1491693378923,1,21,-4,36,-26,46,-7,17,6
1491693378924,2,-6,24,54,13,-45,15,22,3
1491693378924,2,-7,-18,-67,39,127,-45,-2,-2
1491693378969,3,3,27,25,29,-91,-56,-17,0
1491693378969,3,-1,10,-33,-128,67,33,7,-4
1491693378971,2,-6,-11,-9,7,-51,-116,-23,-4
1491693378971,2,3,-15,-24,9,9,-34,7,1
1491693378972,3,-5,15,127,24,17,50,30,0
1491693378972,3,7,-15,-128,-80,-85,-94,-20,-2
1491693378972,0,-17,-22,-12,-61,-52,-28,-7,-7
1491693378972,0,-1,9,48,24,14,18,0,-4
1491693379018,1,16,6,-21,-98,6,-39,-24,4
1491693379018,1,-12,3,64,37,52,15,-1,-11
1491693379021,2,12,21,40,-47,-23,29,7,14
1491693379021,2,-11,-12,-55,74,-4,66,67,1
1491693379022,3,12,-8,-32,29,-23,-116,-38,-3
1491693379022,3,15,31,8,-91,11,-14,-1,-3
1491693379022,0,-15,-7,11,51,2,-3,-8,-9
1491693379022,0,2,8,36,42,127,68,-1,1
1491693379067,1,13,1,-35,25,-112,63,12,20
1491693379067,1,-31,-23,-57,-110,34,8,-25,-19
1491693379068,2,6,2,62,94,42,-4,6,-8
1491693379068,2,2,-20,-114,-9,-78,-90,-9,4
1491693379069,0,31,31,-10,-85,-43,-48,-22,10
1491693379069,0,5,38,127,105,79,53,17,8
1491693379070,1,-4,0,4,-34,28,10,5,1
1491693379070,1,-2,-31,-75,-7,-80,-86,-9,-3
1491693379116,2,-22,-9,-2,-51,-42,-69,-20,-12
1491693379116,2,-9,-11,-43,10,1,60,-4,1
1491693379118,3,7,21,48,35,25,11,13,4
1491693379118,3,1,5,6,39,-2,97,-33,-2
1491693379119,1,-84,-31,57,-60,68,-106,20,-9
1491693379119,1,68,25,-53,127,-39,6,3,23
1491693379120,2,-17,-36,-65,-29,-5,10,23,-9
1491693379120,2,2,10,2,-38,69,28,-41,-2
1491693379164,3,-15,-9,-19,38,-53,12,3,-6
1491693379164,3,-22,-2,45,-5,79,46,48,4
1491693379167,0,-3,14,22,-66,90,32,3,2
1491693379167,0,14,15,64,64,5,29,16,-10
1491693379168,2,12,3,-59,-11,16,7,-9,-10
1491693379168,2,-15,-49,-86,-59,-28,-72,1,-2
1491693379169,3,-7,-18,13,-25,90,12,-3,-13
1491693379169,3,56,15,14,69,-74,-49,22,18
1491693379215,0,9,18,100,-32,-19,79,-24,-2
1491693379215,0,-5,34,102,-75,82,42,-11,-9
1491693379216,1,21,4,-84,3,-95,-53,-15,0
1491693379216,1,-20,-38,-56,-128,-64,-21,3,-6
1491693379217,3,16,-13,-12,87,-72,24,-30,-13
1491693379217,3,-10,33,127,3,127,-57,-7,-4
1491693379218,0,-3,-13,-5,96,-63,48,27,33
1491693379218,0,-19,-43,-128,-53,21,5,-32,-19
1491693379262,1,-4,-15,1,-113,35,107,17,3
1491693379262,1,-12,-5,-49,8,84,65,33,-2
1491693379263,2,-1,-5,-5,-32,-100,-128,-66,-3
1491693379263,2,-6,13,84,17,119,29,-8,-12
1491693379264,0,-9,6,-27,-32,7,-24,23,-1
1491693379264,0,2,13,56,-127,3,-68,-2,5
1491693379265,1,-2,-44,-73,127,-99,-42,-14,-15
1491693379265,1,-15,-15,-32,-98,77,-27,-27,-13
1491693379310,2,14,-1,-49,-52,-119,-91,-5,-2
1491693379310,2,-1,-14,13,-15,-30,-3,9,4
1491693379312,3,9,30,43,-1,40,-49,-35,3
1491693379312,3,-16,13,30,42,-6,27,8,2
1491693379313,1,-2,-1,10,-14,-93,4,23,-2
1491693379313,1,-4,-28,-95,10,-60,-107,-19,0
1491693379314,2,-5,-8,17,22,83,37,-1,-12
1491693379314,2,-18,-26,-36,89,39,-16,-2,5
1491693379359,3,16,48,125,39,127,127,42,11
1491693379359,3,-5,-19,-89,-94,-109,-38,-31,-11
1491693379361,0,-2,-25,-44,-55,2,-68,6,-10
1491693379361,0,-2,-7,-7,24,-10,-20,-44,-10
1491693379362,1,19,-3,14,79,66,-44,5,21
1491693379362,1,7,17,23,-48,-65,85,31,3
1491693379363,2,-6,-3,53,97,74,117,3,3
1491693379363,2,2,-13,8,-14,-28,-62,-5,-5
1491693379408,3,7,11,-61,-53,-56,83,-5,-7
1491693379408,3,5,7,57,-45,44,86,37,6
1491693379409,0,15,5,-32,58,-2,-107,-88,-3
1491693379409,0,-29,-26,-10,60,127,81,52,-4
1491693379409,2,-16,8,-75,-126,-114,11,55,-6
1491693379409,2,6,-40,-44,107,64,30,-33,-15
1491693379410,3,3,24,-15,47,-15,-56,-23,-7
1491693379410,3,5,-8,-21,10,43,39,0,3
1491693379456,0,-6,15,71,-110,85,18,-2,7
1491693379456,0,2,23,-25,5,-128,-128,-29,-2
1491693379457,1,-7,-47,-52,52,-47,-55,-9,-6
1491693379457,1,41,21,33,55,70,29,-1,6
1491693379458,3,7,34,-69,-58,-50,-86,-20,-9
1491693379458,3,-48,-36,-37,-52,17,11,41,-19
1491693379459,0,22,23,34,67,1,-102,-88,-2
1491693379459,0,2,-14,-47,58,87,89,13,11
1491693379505,1,2,18,-41,-122,-48,63,-30,-6
1491693379505,1,-47,-61,-68,-38,-90,-89,51,-5
1491693379506,2,-21,19,-28,37,39,66,7,-3
1491693379506,2,-10,-94,39,-11,43,91,16,11
1491693379507,0,8,27,44,85,-100,32,25,0
1491693379507,0,18,22,-8,-37,-45,-52,-4,7
1491693379508,1,-49,-95,-73,-24,127,127,27,-2
1491693379508,1,43,40,45,-37,15,-118,-36,2
1491693379554,2,9,-4,46,-90,-97,-107,-48,2
1491693379554,2,6,57,-79,22,71,114,45,-3
1491693379558,3,-5,-89,2,-47,-78,-54,-36,-4
1491693379558,3,-14,-54,-27,49,78,14,12,4
1491693379559,1,0,38,119,-31,59,-84,-69,-9
1491693379559,1,6,12,-33,127,11,118,43,12
1491693379560,2,-15,-56,-98,-60,-41,-114,-15,-26
1491693379560,2,-45,-68,-25,-63,-128,-14,-11,-17
1491693379603,3,9,23,-7,11,69,127,70,12
1491693379603,3,18,29,54,-2,20,-50,-55,5
1491693379605,0,22,76,55,103,127,127,68,24
1491693379605,0,12,57,79,-11,4,-56,-43,20
1491693379606,2,51,-12,-27,30,90,92,7,13
1491693379606,2,36,37,24,-29,-88,-124,13,13
1491693379607,3,9,4,52,-15,-80,-63,-27,6
1491693379607,3,2,53,59,72,33,74,-11,1
1491693379652,0,-64,-27,11,33,-22,-98,-11,-12
1491693379652,0,15,-4,-84,-118,9,40,12,-6
1491693379653,1,7,-55,-98,-61,-15,1,13,-1
1491693379653,1,18,20,1,-50,-23,12,12,-17
1491693379654,3,-9,18,22,22,-31,49,92,7
1491693379654,3,53,-21,-30,-45,-107,-105,-52,5
1491693379660,0,-14,10,-6,-30,-35,9,26,-7
1491693379660,0,-3,1,-5,-14,-12,17,6,2
1491693379700,1,-1,14,3,44,100,14,1,2
1491693379700,1,-40,-44,35,-18,-18,-18,12,-5
1491693379702,2,51,25,-19,-8,-45,-14,6,16
1491693379702,2,-12,25,5,-17,-36,-30,-18,-4
1491693379704,3,-6,-11,11,56,38,21,-14,-8
1491693379704,3,-10,51,-19,-35,-26,30,15,-7
1491693379705,0,9,-55,-32,-17,-14,-4,-11,-1
1491693379705,0,16,70,13,14,50,22,15,4
1491693379749,1,-1,-79,-13,16,-15,6,4,3
1491693379749,1,-33,0,-4,-45,-30,-6,-12,4
1491693379751,2,-14,48,-11,21,75,11,7,7
1491693379751,2,34,-15,8,29,55,33,10,27
1491693379751,0,-12,-54,-27,12,-7,-8,-6,-2
1491693379751,0,-30,-34,-3,-10,14,-59,-2,-8
1491693379752,1,23,62,0,8,-48,68,-14,-7
1491693379752,1,11,-51,-2,-22,-6,14,8,-4
1491693379798,2,-11,-14,23,-3,63,23,1,-2
1491693379798,2,4,15,3,17,-69,40,-5,-11
1491693379799,3,-15,-38,-13,-16,21,4,21,-15
1491693379799,3,-62,29,50,44,-8,-1,-8,-24
1491693379800,1,37,-12,24,11,61,-57,47,10
1491693379800,1,-10,26,46,5,-7,93,16,-10
1491693379801,2,13,46,-4,22,16,-90,-70,-6
1491693379801,2,-15,1,-1,2,-81,-41,-10,-6
1491693379847,3,-38,-21,-23,17,127,127,22,-7
1491693379847,3,30,3,13,1,-16,-77,-25,5
1491693379848,0,-8,15,36,40,54,96,30,-2
1491693379848,0,-5,-24,-20,-39,-117,18,48,0
1491693379849,2,-10,-10,-19,-43,-46,110,14,-9
1491693379849,2,-6,21,6,-40,79,-95,-28,-1
1491693379850,3,-17,-4,50,115,-25,-18,11,-14
1491693379850,3,-13,-15,-32,-78,64,42,7,-10
1491693379896,0,-14,-22,-48,34,13,-128,-40,-14
1491693379896,0,1,-24,-5,-54,10,12,12,3
1491693379897,1,9,28,16,-78,-32,36,-14,6
1491693379897,1,4,0,1,66,38,-99,0,2
1491693379898,3,6,-5,-4,20,43,-30,-7,0
1491693379898,3,5,-10,-4,17,-44,-30,-7,9
1491693379899,0,-5,-6,10,-55,-20,38,5,-17
1491693379899,0,-1,3,11,30,51,83,-8,9
1491693379944,1,-5,20,28,-10,31,-2,-4,15
1491693379944,1,4,-4,-15,23,-40,48,25,1
1491693379945,2,-5,-12,-40,-45,-65,-51,-2,5
1491693379945,2,2,-10,-23,-38,-11,12,-3,-1
1491693379946,0,5,17,30,15,73,-122,7,-7
1491693379946,0,-10,-21,-49,-39,-60,122,-4,-34
1491693379947,1,-13,-16,-31,-21,55,-17,-57,-38
1491693379947,1,6,2,-29,-26,-28,99,-18,-74
1491693379993,2,1,-3,0,10,76,-22,-3,-20
1491693379993,2,6,-2,28,24,-49,-128,-10,4
1491693379994,3,14,21,6,13,40,92,30,64
1491693379994,3,-4,0,8,-4,20,86,2,36
1491693379995,1,9,6,14,33,-42,-3,-1,25
1491693379995,1,13,12,-11,16,109,51,15,23
1491693379996,2,0,-7,-3,33,-120,45,3,-4
1491693379996,2,4,12,-2,-36,65,-37,-7,15
1491693380042,3,-11,-12,10,34,-43,-41,-22,-38
1491693380042,3,-1,6,17,-14,15,-1,0,9
1491693380043,0,-9,-3,-15,-63,-11,8,2,-10
1491693380043,0,-10,-9,21,30,28,-20,1,4
1491693380044,2,3,6,-18,-3,-99,-48,-16,-9
1491693380044,2,-3,-13,0,22,103,63,0,-19
1491693380045,3,-10,5,30,17,31,-31,17,-5
1491693380045,3,-15,1,-40,-34,-108,-76,-2,-10
1491693380090,0,-20,-3,20,9,38,68,2,-5
1491693380090,0,0,15,25,-14,-36,-55,-11,-7
1491693380092,1,-18,-13,-2,25,84,38,-1,-16
1491693380092,1,-10,-10,-24,-41,-18,-29,-23,-5
1491693380093,2,-8,-1,24,98,-74,-24,37,13
1491693380093,2,-3,-13,-13,3,-76,39,-32,-7
1491693380094,3,-11,-4,-10,-37,-4,21,29,7
1491693380094,3,10,14,50,-29,18,-14,-12,7
1491693380139,0,-10,4,-45,6,109,66,6,-3
1491693380139,0,-14,1,51,8,11,23,-11,1
1491693380141,1,27,8,-66,37,-128,-114,-24,6
1491693380141,1,-8,-11,-11,-47,5,77,12,-27
1491693380142,3,-17,-22,-15,-74,-49,-76,2,-2
1491693380142,3,5,-9,-32,6,18,-29,7,-5
1491693380142,0,22,16,22,-14,-39,-75,-35,8
1491693380142,0,1,8,17,-1,119,39,7,-1
1491693380188,1,10,16,-7,56,19,74,18,-4
1491693380188,1,3,-17,-8,56,-83,-117,-28,6
1491693380189,2,9,11,100,43,9,53,-6,-1
1491693380189,2,-7,-24,-83,-19,-114,-41,1,-4
1491693380190,0,20,7,-18,-55,53,25,6,4
1491693380190,0,18,12,59,70,56,-21,-23,-20
1491693380191,1,1,0,46,56,19,-21,-16,-14
1491693380191,1,14,-7,-52,-25,79,0,4,12
1491693380237,2,-8,-18,-5,8,-70,16,16,1
1491693380237,2,1,-3,-27,5,-47,-61,-2,1
1491693380238,3,-9,16,19,3,123,80,9,-7
1491693380238,3,-18,-6,-10,-69,-108,-97,-36,-5
1491693380239,1,-22,-6,-15,-28,-62,-65,-1,-4
1491693380239,1,6,19,32,47,72,127,3,9
1491693380240,2,5,14,-12,-52,19,23,-20,-17
1491693380240,2,13,1,32,14,2,66,27,24
1491693380285,3,15,9,7,-14,50,90,38,2
1491693380285,3,12,6,21,-71,-17,-83,-22,-13
1491693380287,0,24,-8,-61,37,-123,-34,-10,6
1491693380287,0,15,-15,-4,27,-4,76,23,7
1491693380291,2,15,14,4,-59,51,91,-9,13
1491693380291,2,-20,-14,-47,-2,-30,-9,-4,-9
1491693380292,3,6,-4,2,16,-25,29,-5,-2
1491693380292,3,-16,-8,-1,63,85,67,15,-4
1491693380334,0,-4,4,22,-18,-94,-83,-6,-1
1491693380334,0,-8,1,-15,-52,4,-52,1,-1
1491693380335,1,-12,-13,-18,-57,49,25,-28,-17
1491693380335,1,-24,-2,3,40,89,53,29,0
1491693380336,3,16,-9,14,52,-39,40,-6,8
1491693380336,3,-3,0,-11,-66,78,-17,-7,6
1491693380337,0,3,-5,43,81,-87,-57,18,-11
1491693380337,0,3,-6,-62,-60,59,-52,-27,11
1491693380383,1,15,11,9,-27,5,32,10,6
1491693380383,1,3,-11,-8,9,-36,-1,-15,-6
1491693380385,2,-10,12,10,-14,127,-14,1,-7
1491693380385,2,-8,8,41,26,-36,-21,-1,1
1491693380386,0,-6,-19,-9,-38,-12,63,2,-4
1491693380386,0,-8,12,84,43,-5,-51,15,2
1491693380388,1,3,-13,-109,-74,-115,-68,-6,9
1491693380388,1,-5,-17,-21,51,-2,-40,-12,-22
1491693380432,2,1,0,29,-38,93,26,2,4
1491693380432,2,-8,4,3,-16,-13,-18,28,-8
1491693380433,3,-15,7,44,11,81,14,-5,-8
1491693380433,3,1,2,24,18,-106,-54,-8,1
1491693380433,0,-21,-3,11,27,38,30,28,-6
1491693380433,0,-18,-17,-23,-15,33,32,-26,0
1491693380434,1,-5,-1,-4,-2,-80,-12,10,-4
1491693380434,1,10,21,58,-48,58,69,4,16
1491693380480,2,2,-6,-55,54,-96,-33,2,1
1491693380480,2,-5,-14,-31,-2,125,34,-19,-20
1491693380481,3,-1,-18,-42,114,-126,-128,-9,-7
1491693380481,3,11,-23,-39,-15,-29,28,-11,21
1491693380482,1,-9,16,39,-4,127,-6,-34,-14
1491693380482,1,-10,2,14,6,-91,-21,37,-8
1491693380483,2,-6,-2,-4,-17,-24,-11,-7,3
1491693380483,2,-7,-6,-26,-20,2,-21,-1,-8
1491693380529,3,-5,4,37,-23,62,-8,-9,-2
1491693380529,3,-3,-8,-19,38,-20,2,-15,-5
1491693380530,0,-5,-8,-9,-14,4,33,14,2
1491693380530,0,3,6,35,62,-127,-105,-6,-9
1491693380531,2,0,-4,22,-5,46,41,1,-11
1491693380531,2,-6,-5,-15,11,-14,-34,-16,-8
1491693380532,3,0,-1,11,1,14,33,23,5
1491693380532,3,-1,9,8,18,20,34,-1,-7
1491693380578,0,-7,0,-9,-63,-28,-35,-5,3
1491693380578,0,-5,0,1,3,-6,0,8,-7
1491693380579,1,6,-10,-6,0,-27,12,-5,10
1491693380579,1,7,11,14,-1,-13,13,12,0
1491693380580,3,-19,-38,-12,23,36,23,6,10
1491693380580,3,-4,13,-13,3,-26,11,-16,-7
1491693380580,0,4,14,20,-17,10,-102,-6,7
1491693380580,0,5,-2,-3,14,-40,96,-6,5
1491693380627,1,6,-3,1,27,2,-3,-13,-10
1491693380627,1,-4,-19,12,-7,60,28,11,-3
1491693380628,2,8,7,-14,17,-81,-62,1,1
1491693380628,2,-1,1,0,-26,13,31,-8,-7
1491693380629,0,6,-2,-24,26,76,19,-6,-7
1491693380629,0,2,-13,0,-5,-61,-29,6,0
1491693380638,1,10,8,1,-14,-17,-4,-13,-4
1491693380638,1,-8,-5,12,-39,13,-31,-6,-14
1491693380675,2,-16,-19,10,0,17,48,-4,0
1491693380675,2,4,8,8,14,35,-5,10,1
1491693380677,3,-2,1,1,14,-53,-27,3,-8
1491693380677,3,-10,-5,-13,-10,11,-29,-20,3
1491693380678,1,4,15,4,-29,7,-20,-6,4
1491693380678,1,4,17,15,39,-32,2,6,2
1491693380679,2,-35,-31,2,0,91,73,22,-8
1491693380679,2,-2,20,-16,-4,-78,-83,-23,-7
1491693380724,3,-25,-17,-21,-22,-26,-30,-19,-20
1491693380724,3,2,9,-22,-11,73,34,-15,-4
1491693380725,0,-5,-7,-2,9,-20,14,-7,2
1491693380725,0,-21,-5,-5,-31,-20,14,11,-4
1491693380726,2,13,3,-54,-56,-31,21,-2,8
1491693380726,2,9,0,-4,-9,48,-53,-9,-3
1491693380727,3,7,-6,-1,16,5,-24,1,29
1491693380727,3,8,-2,2,-3,2,-55,8,-16
1491693380773,0,3,5,1,-17,-27,32,-10,-3
1491693380773,0,-20,-16,1,12,66,32,-4,0
1491693380774,1,24,20,13,6,-1,76,24,-1
1491693380774,1,-6,6,4,-32,-45,-43,-10,-9
1491693380776,2,5,1,3,33,4,43,-14,-15
1491693380776,2,-2,-3,-13,-4,-65,16,-10,14
1491693380777,3,-17,-10,21,7,44,7,33,-3
1491693380777,3,2,-4,-49,-43,57,40,-2,5
1491693380822,0,0,6,2,-22,-33,-5,-3,-1
1491693380822,0,14,-9,-7,40,1,4,8,12
1491693380823,1,4,-8,-15,-1,-24,-44,-12,-10
1491693380823,1,10,-1,5,24,-25,22,4,16
1491693380824,3,6,21,14,7,-18,-10,9,8
1491693380824,3,-5,-18,-18,20,-17,53,-10,-21
1491693380825,0,-8,-2,6,0,21,-41,-18,-7
1491693380825,0,3,7,57,49,51,34,5,19
1491693380870,1,1,-1,-10,-12,-16,-8,0,1
1491693380870,1,0,-21,-16,-34,-14,25,10,0
1491693380872,2,13,-2,2,-12,-17,-93,15,11
1491693380872,2,3,6,9,-34,5,50,-28,-26
1491693380873,0,6,-9,-4,3,-14,-69,-8,-3
1491693380873,0,12,11,27,16,65,66,60,7
1491693380874,1,7,-2,13,-22,-66,-14,-30,-1
1491693380874,1,-15,-3,-71,-85,30,-48,7,-1
1491693380919,2,5,-7,-12,49,-79,15,-13,0
1491693380919,2,-16,-27,-36,5,28,-60,-17,-4
1491693380921,3,-15,1,3,7,29,55,19,-15
1491693380921,3,-11,6,50,0,4,31,-14,0
1491693380922,1,-7,-18,-28,-42,-57,-65,-11,-12
1491693380922,1,10,14,55,37,38,-34,4,-8
1491693380923,2,1,9,-26,-18,15,25,5,-10
1491693380923,2,-5,-21,-26,3,-13,12,-14,6
1491693380968,3,12,-2,-28,-24,23,-30,5,5
1491693380968,3,6,-3,-23,-29,-46,-16,2,7
1491693380970,0,-4,1,28,36,43,127,-3,-23
1491693380970,0,1,-2,11,-10,-58,-116,-11,-2
1491693380971,2,7,0,9,0,-25,52,10,3
1491693380971,2,-7,4,15,-3,5,-22,-5,-7
1491693380972,3,-3,-2,4,-1,38,-88,-7,8
1491693380972,3,7,3,-27,5,7,18,18,6
1491693381017,0,-14,-6,6,-18,18,11,-10,-18
1491693381017,0,7,1,-31,16,-80,46,0,11
1491693381018,1,2,-2,-3,3,10,5,16,1
1491693381018,1,-10,0,-7,6,67,14,-9,-9
1491693381066,3,-12,6,22,-10,-8,33,2,3
1491693381066,3,-8,-7,-12,33,-39,-47,-16,-7
1491693381114,0,-1,-1,-7,-44,103,31,10,33
1491693381114,0,-12,-6,-15,53,-77,-94,-1,-25
1491693381116,1,-5,-21,-12,-5,-91,-22,-4,-9
1491693381116,1,17,14,16,4,31,30,2,4
1491693381117,2,14,10,28,21,-18,-40,4,0
1491693381117,2,-11,-2,6,-29,91,37,13,5
1491693381118,0,-4,5,33,38,-47,-25,5,-1
1491693381118,0,6,-5,-41,-17,16,-25,1,7
1491693381212,1,-10,-7,-8,10,62,105,-9,-11
1491693381212,1,-12,-16,-15,-34,-67,-36,6,14
1491693381213,2,3,7,-6,-34,-100,-61,-14,10
1491693381213,2,-7,-3,17,5,26,38,27,-8
1491693381215,0,4,-7,-13,9,-80,12,24,5
1491693381215,0,-13,-3,14,-4,-5,24,-18,1
1491693381216,1,2,-4,-2,-4,-15,-2,7,-7
1491693381216,1,4,0,3,4,18,12,-8,-8
1491693381261,2,-9,-10,-4,24,9,32,-3,-17
1491693381261,2,-5,6,8,-36,76,-20,-15,-9
1491693381262,3,2,5,13,32,6,-80,2,14
1491693381262,3,-7,-5,5,-3,-107,-4,10,-11
1491693381263,3,-5,2,-16,-4,6,-61,-21,-11
1491693381263,3,2,-9,-11,11,-81,0,14,19
1491693381264,0,-3,0,5,-3,26,105,-7,13
1491693381264,0,-11,-5,15,-27,29,-39,-11,10
1491693381309,1,8,3,10,47,-21,-22,4,9
1491693381309,1,-4,1,-2,-8,58,14,-20,-19
1491693381311,2,-16,-5,11,-21,-11,-61,-7,-16
1491693381311,2,9,0,-35,13,-63,-12,8,-5
1491693381312,0,4,2,1,-18,-13,-4,6,7
1491693381312,0,-2,4,18,7,21,-25,5,-15
1491693381313,1,-7,9,17,42,126,44,-18,-16
1491693381313,1,0,0,-6,-15,-106,-91,3,4
1491693381358,2,-1,-16,-34,-26,68,-15,3,7
1491693381358,2,5,3,13,-4,-83,15,6,-4
1491693381360,3,-13,-4,12,37,56,43,-7,2
1491693381360,3,9,5,17,23,100,40,-4,-2
1491693381361,1,-2,1,18,-8,-9,9,-1,-14
1491693381361,1,3,12,1,36,-50,78,23,11
1491693381362,2,5,-3,14,34,22,-60,-19,-3
1491693381362,2,-2,-3,-7,-15,16,-1,-9,-16
1491693381408,3,-8,-5,-1,-20,30,-2,22,7
1491693381408,3,-5,-7,-29,-11,-49,-62,-23,-2
1491693381410,0,0,-7,16,27,9,68,-5,-12
1491693381410,0,-13,-5,-4,4,-29,-70,5,-1
1491693381421,2,-5,6,-10,15,-42,-28,0,-7
1491693381421,2,-4,-4,10,13,33,53,-5,-8
1491693381422,3,0,-2,0,8,-27,-44,-13,-15
1491693381422,3,5,5,10,-3,127,4,41,-1
1491693381455,0,-3,5,6,-1,-113,0,-5,-9
1491693381455,0,0,-9,-2,4,-12,-89,-4,0
1491693381457,1,7,5,-14,-11,31,25,5,30
1491693381457,1,-3,-5,-1,6,19,-30,-24,-14
1491693381458,3,-8,-17,-11,-1,-58,-36,-20,-2
1491693381458,3,6,1,22,23,48,27,-3,5
1491693381460,0,-5,-7,-8,2,16,-41,3,11
1491693381460,0,-1,-2,-22,-30,-10,4,-19,-17
1491693381504,1,-6,7,13,53,-14,37,5,0
1491693381504,1,6,-6,-13,-27,-76,-9,-1,-10
1491693381553,2,-6,-4,-1,7,14,-6,0,-5
1491693381553,2,5,-4,4,11,28,13,-2,-14
1491693381555,3,3,2,15,-8,27,15,-6,-8
1491693381555,3,-8,2,3,3,6,-15,7,-7
1491693381556,0,9,-4,-23,-25,-45,30,-20,-2
1491693381556,0,6,-6,-14,16,-31,-3,19,11
1491693381557,1,2,8,8,-6,-17,37,-24,3
1491693381557,1,-7,-12,0,7,10,-15,-2,7
1491693381602,2,-1,8,19,-45,103,35,18,14
1491693381602,2,8,3,-2,35,41,33,-4,-4
1491693381651,0,7,3,-5,6,7,8,-15,5
1491693381651,0,-3,10,37,-18,63,-38,-4,9
1491693381652,1,-7,-10,-25,17,51,6,-2,-3
1491693381652,1,-4,-9,-28,-25,-74,-40,0,-6
1491693381653,1,-2,-4,-4,-6,52,11,12,-10
1491693381653,1,-12,-7,-34,-15,46,41,6,-8
1491693381655,2,2,-7,2,5,-64,-104,-23,4
1491693381655,2,-3,9,-1,-21,3,41,-10,-29
1491693381699,3,-5,14,43,-19,29,-26,-7,-51
1491693381699,3,-1,-9,-27,21,-9,41,17,-27
1491693381701,2,11,8,14,29,59,34,24,-27
1491693381701,2,-7,-16,-16,-39,8,-57,-7,-41
1491693381702,3,-24,-4,23,63,34,4,-37,-96
1491693381702,3,19,3,-1,22,38,-6,5,-57
1491693381703,3,4,2,-5,24,103,-8,21,82
1491693381703,3,-7,-8,11,45,-76,-58,-19,62
1491693381748,0,16,-6,3,-9,5,27,22,61
1491693381748,0,9,-6,68,52,-11,-1,-16,73
1491693381749,1,-8,3,-50,-30,64,103,17,116
1491693381749,1,11,-9,-6,-44,12,5,-2,127
1491693381750,0,-2,6,38,44,42,64,-14,28
1491693381750,0,-12,1,-18,-24,112,9,27,103
1491693381752,1,11,4,20,17,-128,-51,10,113
1491693381752,1,-9,-8,-47,-72,8,-44,-3,62
1491693381798,2,-2,11,67,74,94,53,3,27
1491693381798,2,8,10,-30,5,16,32,22,-15
1491693381802,3,2,-31,-78,-33,-10,7,-5,-34
1491693381802,3,-10,1,14,-35,-47,80,1,-67
1491693381803,1,5,13,7,-7,86,0,-47,-76
1491693381803,1,-2,-21,-57,-58,-46,-36,19,-56
1491693381804,2,-12,-13,-24,-34,-12,46,-11,-71
1491693381804,2,-3,-1,-6,15,-45,8,23,-62
1491693381851,3,3,35,63,16,116,31,-9,-52
1491693381851,3,15,13,62,117,127,-107,-10,-36
1491693381852,0,-7,-14,-57,-75,-89,49,1,-34
1491693381852,0,-8,-37,-50,-37,-70,-33,-14,-33
1491693381853,1,6,-1,-25,-30,-34,0,14,-48
1491693381853,1,-13,42,105,11,127,-1,-19,-44
1491693381854,2,-6,9,-29,46,125,104,62,12
1491693381854,2,8,-43,-107,-54,-87,-82,-30,-37
1491693381894,3,-1,-10,-14,-11,45,-5,-28,-39
1491693381894,3,-3,7,-37,-126,44,87,4,-18
1491693381896,0,-3,9,105,116,28,-116,-61,-33
1491693381896,0,14,39,17,-18,81,127,46,-4
1491693381897,2,3,12,-59,-54,-1,104,23,4
1491693381897,2,-8,-12,82,41,-52,-128,-28,-19
1491693381901,3,8,25,45,66,41,37,7,-10
1491693381901,3,-13,-5,-28,-28,-51,57,23,17
1491693381943,0,-5,27,11,-63,48,37,1,-5
1491693381943,0,-6,-17,-45,110,-55,4,2,-16
1491693381945,1,-7,-23,-27,-12,5,-18,-17,-10
1491693381945,1,11,-27,3,41,-37,-116,-10,6
1491693381947,3,27,15,36,81,-84,-19,42,1
1491693381947,3,-9,3,-19,18,16,13,-50,-29
1491693381948,0,4,-19,15,31,-36,58,20,4
1491693381948,0,22,19,-5,10,76,-70,-20,9
1491693381992,1,-15,14,21,-99,77,65,18,6
1491693381992,1,-10,-10,-25,79,-63,-38,0,-4
1491693381993,2,-4,-2,69,37,106,-12,3,-10
1491693381993,2,-17,-34,-87,-74,-113,7,-4,-11
1491693381994,0,-2,0,-10,-11,-57,9,-9,-5
1491693381994,0,-1,45,51,47,116,-18,-5,-16
1491693381995,1,-23,-25,20,30,-127,58,-6,-3
1491693381995,1,13,6,-32,37,47,104,-2,-1
1491693382041,2,11,21,18,59,-48,-19,7,3
1491693382041,2,-9,-21,41,-23,127,91,-1,1
1491693382042,3,9,11,-14,-3,-15,-8,10,23
1491693382042,3,-2,-7,49,16,61,-85,4,-7
1491693382043,1,-1,-17,58,-36,18,-50,-13,2
1491693382043,1,-13,-14,-18,37,-7,-35,14,2
1491693382044,2,7,-16,-55,-56,38,-23,-19,-2
1491693382044,2,-8,0,4,27,19,20,6,-5
1491693382089,3,2,27,37,18,37,20,12,6
1491693382089,3,-10,0,-84,-80,-82,2,-7,-5
1491693382091,0,-3,-4,2,-31,79,5,2,6
1491693382091,0,-4,-22,7,89,-86,-84,-8,-10
1491693382092,2,-10,-9,-21,-4,-106,-57,-16,-5
1491693382092,2,-4,-8,70,-16,0,-63,-9,5
1491693382093,3,-2,32,15,10,68,23,8,10
1491693382093,3,-6,6,50,9,55,24,10,-7
1491693382138,0,-11,-11,-101,-50,-11,-12,-5,-4
1491693382138,0,5,-41,-69,-43,-72,-110,-31,5
1491693382140,1,-7,-38,-23,-10,-18,-3,24,-2
1491693382140,1,-2,2,-31,20,-5,-17,-2,-8
1491693382141,3,-2,-3,-60,64,-51,49,-7,8
1491693382141,3,-17,-55,-42,27,-97,-105,-30,-30
1491693382146,0,11,29,57,37,14,-32,6,20
1491693382146,0,-6,-16,-40,-31,19,-8,-23,-10
1491693382188,1,2,19,61,-96,55,70,17,-5
1491693382188,1,14,19,29,55,7,-48,-5,11
1491693382225,2,-4,-12,30,112,-38,105,9,-12
1491693382225,2,-1,-14,-74,-73,-18,8,-2,7
1491693382226,3,-9,16,10,-26,-29,-92,-7,3
1491693382226,3,1,17,57,90,95,63,14,1
1491693382227,0,-1,9,27,-52,16,-10,5,4
1491693382227,0,5,-9,19,83,-33,32,9,-5
1491693382235,1,2,-32,-77,-50,-58,-8,-6,-11
1491693382235,1,0,2,-34,-107,-33,-62,-14,-7
1491693382237,2,5,-6,-11,52,26,-46,-7,-1
1491693382237,2,-9,-3,35,88,64,63,19,4
1491693382238,0,-14,-4,39,-17,49,19,8,-1
1491693382238,0,7,19,30,74,10,-8,-14,5
1491693382240,1,-4,-12,-14,12,-9,-30,3,6
1491693382240,1,-1,-4,30,-23,20,59,0,3
1491693382284,2,-7,-2,-21,-32,-41,-40,-4,-15
1491693382284,2,-7,3,-15,-9,-51,-8,9,-10
1491693382286,3,-3,-64,-63,-58,10,-19,-14,-11
1491693382286,3,2,31,13,32,49,17,-7,5
1491693382287,1,16,20,34,16,10,-37,2,22
1491693382287,1,-1,-19,23,-21,-22,-24,-8,-9
1491693382288,2,-11,0,-80,8,23,21,-4,-13
1491693382288,2,1,21,22,-24,22,-14,4,20
1491693382382,3,-2,26,39,63,15,35,8,3
1491693382382,3,-7,-43,-117,-78,-91,15,7,3
1491693382384,0,9,-12,9,35,-16,-15,-14,9
1491693382384,0,-6,-13,16,19,-37,12,-6,-26
1491693382385,2,-4,-20,-1,-19,-28,-16,0,0
1491693382385,2,3,-5,-11,-18,21,14,11,9
1491693382386,3,7,9,39,46,-1,0,-11,-16
1491693382386,3,-3,-2,22,-16,2,-10,2,10
1491693382431,0,1,6,54,-62,52,-23,18,0
1491693382431,0,-15,-61,-48,9,1,63,-1,18
1491693382432,1,-3,-2,-42,5,-41,-98,-28,-17
1491693382432,1,-13,-28,-49,-17,-28,-23,-1,-8
1491693382433,3,-2,2,47,25,2,42,19,7
1491693382433,3,-3,8,4,1,11,9,-8,-11
1491693382434,0,-12,-28,-28,-6,13,81,-7,-12
1491693382434,0,4,5,-41,-24,0,-10,-5,11
1491693382479,1,-4,-32,-45,0,-26,2,1,-6
1491693382479,1,7,-18,-1,-14,0,11,14,14
1491693382481,2,-7,-17,-67,-6,-65,-22,-1,8
1491693382481,2,3,-29,4,-5,-49,-76,-7,4
1491693382482,1,-10,-14,67,6,0,1,13,0
1491693382482,1,2,30,44,3,11,8,0,11
1491693382483,2,8,-58,21,21,12,9,1,7
1491693382483,2,7,25,42,24,12,2,2,-7
1491693382530,3,12,12,-19,4,18,6,-6,-10
1491693382530,3,-5,-1,-100,3,21,10,-6,-13
1491693382532,0,-3,5,-84,3,8,4,-3,-10
1491693382532,0,4,12,-69,18,-20,-21,12,11
1491693382533,1,0,43,-29,20,1,28,-19,-30
1491693382533,1,0,-27,-31,-5,-21,-1,-3,7
1491693382534,2,-15,23,-11,20,-6,2,5,3
1491693382534,2,-25,-23,42,1,-69,-47,-10,-18
1491693382675,3,-6,57,62,-1,1,23,12,10
1491693382675,3,8,-11,12,4,-19,-1,-16,-22
1491693382677,0,10,8,45,3,9,-19,0,9
1491693382677,0,-11,18,54,-23,-21,29,20,-3
1491693382690,2,-1,4,19,-12,-43,8,-1,-7
1491693382690,2,7,11,35,9,7,28,-1,-13
1491693382700,3,-10,-2,67,3,-5,-25,-1,-4
1491693382700,3,-11,-23,5,-21,1,-12,3,4
1491693382723,0,18,44,60,-2,1,-2,2,15
1491693382723,0,6,-5,35,-3,1,17,-1,16
1491693382726,1,-17,-17,34,-7,2,4,1,-8
1491693382726,1,9,5,66,-3,-24,2,4,-2
1491693382727,3,17,7,-7,-7,5,-21,-2,7
1491693382727,3,-2,4,25,8,6,9,-2,-15
1491693382730,1,7,6,-11,-10,-3,-21,-15,-11
1491693382730,1,22,4,-10,6,-3,-5,3,-1
1491693382771,2,-1,-25,-22,20,94,19,9,10
1491693382771,2,-20,4,-27,-19,-60,-11,-5,-5
1491693382772,3,-13,0,-15,-1,61,47,4,0
1491693382772,3,20,4,-23,-10,-80,-42,-15,6
1491693382773,2,0,5,-15,-1,-26,-65,-11,-2
1491693382773,2,7,-11,-17,-14,96,7,6,0
1491693382774,3,-3,-11,-23,-16,-85,-50,-16,-19
1491693382774,3,14,3,-8,9,49,-2,11,22
1491693382820,0,-23,-11,14,7,23,83,-12,-17
1491693382820,0,38,1,-17,-15,-4,-110,-25,13
1491693382821,1,14,-6,-21,-21,-12,-9,7,5
1491693382821,1,-4,0,-20,-13,-19,33,-2,-9
1491693382821,3,-16,3,27,38,127,40,1,-9
1491693382821,3,-6,2,-26,-32,-128,-11,-5,-9
1491693382823,0,-15,-24,-39,-36,1,-37,-7,10
1491693382823,0,-9,-12,11,28,-11,66,19,3
1491693382869,1,35,3,-43,-18,-43,-61,-8,19
1491693382869,1,-8,11,12,-28,127,29,0,-15
1491693382870,2,5,-5,-14,-54,-20,-25,-8,-9
1491693382870,2,1,16,-11,30,-22,23,10,-11
1491693382870,0,13,-4,-40,4,-67,-60,-5,-8
1491693382870,0,-7,-22,-77,-35,-76,0,-11,-19
1491693382871,1,-1,8,-33,-11,56,3,-9,-14
1491693382871,1,-19,-12,10,-32,-14,-42,-3,-4
1491693382966,2,-9,22,43,23,112,76,13,6
1491693382966,2,2,13,35,60,-46,-58,5,-5
1491693382967,3,-4,-20,-39,-73,-107,23,-7,-20
1491693382967,3,-15,3,42,-39,-48,-47,-20,-28
1491693382969,0,17,0,-17,-53,8,19,-2,22
1491693382969,0,-4,3,9,11,47,57,8,4
1491693382970,1,-4,-14,11,70,1,-36,6,4
1491693382970,1,0,-1,39,33,-22,-38,-2,-10
1491693383015,2,-4,2,-24,-17,-71,-18,-2,-19
1491693383015,2,-16,-4,24,-24,123,-24,-12,-13
1491693383016,3,11,25,13,-28,-69,32,9,3
1491693383016,3,12,-17,-2,38,-20,-32,0,12
1491693383016,1,-16,-6,-5,-44,127,-38,-1,-5
1491693383016,1,7,5,12,-5,-46,2,-4,-4
1491693383018,2,2,-6,-19,-93,-27,21,8,-128
1491693383018,2,-13,1,2,-30,17,-13,-10,-128
1491693383064,3,2,-9,-29,6,-2,49,1,-67
1491693383064,3,-4,-13,8,-9,75,-20,-6,-42
1491693383065,0,13,10,46,12,-67,-109,-5,17
1491693383065,0,1,21,-28,-111,18,30,-10,63
1491693383065,3,-9,-14,8,33,-8,69,13,50
1491693383065,3,7,-9,-62,-83,-69,-82,-2,50
1491693383066,0,0,-9,-29,32,25,58,0,37
1491693383066,0,-11,-18,-16,-44,-124,-65,-10,30
1491693383113,1,7,30,42,-36,56,9,-6,15
1491693383113,1,-7,0,-14,21,2,-9,13,21
1491693383114,2,1,0,-9,-26,-19,43,-4,13
1491693383114,2,14,12,25,58,66,22,20,37
1491693383114,0,-10,10,9,53,-20,-45,-12,9
1491693383114,0,-25,-25,-17,22,-30,54,-8,-22
1491693383115,1,14,7,14,-69,51,-68,1,22
1491693383115,1,4,1,-37,71,-66,-6,3,19
1491693383162,2,8,-10,-8,1,-14,21,7,29
1491693383162,2,-6,6,29,50,53,42,-16,-16
1491693383163,3,-6,-9,7,44,-88,-62,-7,12
1491693383163,3,-10,3,50,76,81,33,12,43
1491693383164,1,-9,-12,-47,-37,81,-42,-9,-13
1491693383164,1,15,17,41,-29,88,6,10,-5
1491693383165,2,-1,31,67,101,-54,72,3,-28
1491693383165,2,11,9,12,4,-6,-61,3,-3
1491693383220,3,-5,3,-5,7,8,24,-17,-14
1491693383220,3,-8,-4,-5,-44,-2,46,16,-31
1491693383221,0,0,-5,1,-3,27,-41,-16,-20
1491693383221,0,-4,-1,18,-5,33,-36,-3,-17
1491693383222,2,8,5,-39,-114,-18,-35,-41,-8
1491693383222,2,-12,-13,10,115,-27,-76,16,17
1491693383223,3,-5,-20,26,1,-27,-93,-25,7
1491693383223,3,-3,28,4,8,88,113,34,16
1491693383259,0,1,-5,15,3,-31,-108,-11,35
1491693383259,0,-13,-2,-21,-62,28,69,-2,20
1491693383261,1,27,-1,-13,-4,-44,16,34,39
1491693383261,1,-7,-14,-33,-13,-66,-37,-31,15
1491693383262,2,10,7,42,45,55,30,11,37
1491693383262,2,10,25,-19,-39,-46,-58,0,43
1491693383263,3,0,-6,-1,24,121,59,-1,22
1491693383263,3,3,-6,3,-4,-100,-97,-46,-15
1491693383309,0,-6,0,17,8,37,121,33,25
1491693383309,0,17,8,25,5,68,-57,-18,6
1491693383310,1,-3,19,-44,-43,6,54,22,42
1491693383310,1,15,-5,4,-1,-15,-59,-17,55
1491693383312,3,13,22,20,3,-80,11,7,58
1491693383312,3,-5,-9,3,28,67,61,2,53
1491693383313,0,-2,1,56,19,9,67,19,16
1491693383313,0,-12,-18,-89,-72,-84,-64,-25,7
1491693383358,1,8,1,-15,47,-4,-92,-8,-3
1491693383358,1,-5,-8,-6,-65,18,19,-7,-35
1491693383363,2,-3,-18,-7,24,-10,26,8,-51
1491693383363,2,11,26,55,10,65,14,13,-51
1491693383364,0,-2,18,25,11,65,-11,-10,-71
1491693383364,0,-2,-11,-13,46,-76,-69,-10,-58
1491693383365,1,-3,0,-2,-29,-31,-56,-7,-46
1491693383365,1,-19,-21,-27,-32,3,58,-9,-42
1491693383405,2,-21,-15,4,-29,7,-79,7,-45
1491693383405,2,14,20,13,-42,50,127,-7,-20
1491693383407,3,-5,-26,-40,61,-45,-23,-2,-38
1491693383407,3,-6,-11,12,27,-31,-8,-11,-16
1491693383408,1,-9,17,16,-10,23,-43,-21,-9
1491693383408,1,-6,-4,7,4,14,0,6,-27
1491693383410,2,1,6,5,30,77,55,-10,-7
1491693383410,2,5,2,20,5,-1,-82,-17,-18
1491693383454,3,-9,-13,-30,-37,-122,30,7,-32
1491693383454,3,-5,-2,-9,-17,-11,-104,-4,-3
1491693383456,0,-18,-13,-53,-60,24,7,6,-15
1491693383456,0,5,-10,-15,10,-49,-32,-8,-13
1491693383457,2,-11,-11,0,13,16,-14,0,-15
1491693383457,2,-1,-1,-11,-49,-11,-66,-23,-14
1491693383458,3,-4,-6,5,43,16,6,-5,-28
1491693383458,3,-2,20,31,-23,65,14,-11,-55
1491693383503,0,9,6,-16,6,-105,-58,-9,-51
1491693383503,0,-21,-29,-52,-53,-5,50,3,-113
1491693383505,1,10,1,4,19,-58,-23,6,-128
1491693383505,1,-7,13,1,-44,62,-85,-28,-118
1491693383558,3,1,4,-76,-126,21,56,23,-34
1491693383558,3,1,2,-1,56,15,-33,1,8
1491693383560,0,-2,-5,-19,-17,-86,-10,-7,19
1491693383560,0,20,2,11,3,29,20,22,90
1491693383561,1,-5,-1,32,17,28,95,0,60
1491693383561,1,6,6,-19,-12,-92,18,7,63
1491693383562,2,-17,-10,10,10,29,-28,-23,57
1491693383562,2,14,0,9,36,-29,94,12,87
1491693383602,0,-3,7,-14,-7,12,38,13,89
1491693383602,0,4,-19,-40,-18,-16,20,4,115
1491693383604,1,-7,-24,-19,-15,-68,-104,-36,123
1491693383604,1,0,7,4,9,51,72,10,51
1491693383604,2,5,11,61,4,51,-32,9,-30
1491693383604,2,-21,-4,-26,11,-14,-72,-31,-92
1491693383605,0,-10,1,-12,-2,51,27,-27,-14
1491693383605,0,11,4,22,20,39,-23,-19,7
1491693383650,1,-1,14,18,-44,-35,-39,-3,-4
1491693383650,1,11,-5,-24,28,1,2,-3,93
1491693383651,2,-14,-5,5,51,37,77,28,109
1491693383651,2,3,0,14,15,-61,5,4,50
1491693383652,1,30,-9,11,12,-36,-128,-28,8
1491693383652,1,-32,-20,-58,-79,-6,95,15,-36
1491693383653,2,-1,2,8,34,2,-8,-16,-3
1491693383653,2,1,7,6,-21,84,4,-8,6
1491693383698,3,6,12,57,64,45,39,2,15
1491693383698,3,-3,-8,-5,-30,-30,-14,18,26
1491693383699,0,11,-2,-33,-29,38,-110,-22,23
1491693383699,0,-13,-1,9,-45,1,-81,-7,-4
1491693383699,2,16,20,28,15,-49,-36,10,1
1491693383699,2,-5,-5,-27,80,51,85,14,108
1491693383701,3,-9,-28,-6,-11,14,-128,-5,126
1491693383701,3,26,12,-17,-5,-36,-59,-26,127
1491693383747,0,-2,-9,-6,-36,-31,-31,-2,127
1491693383747,0,-2,18,17,-24,81,4,-25,60
1491693383748,1,0,19,4,-23,-8,37,-2,53
1491693383748,1,-11,-9,16,13,-52,35,9,-2
1491693383749,3,-14,-5,-8,9,109,-71,13,-44
1491693383749,3,4,17,71,-29,-121,10,-4,-67
1491693383750,0,-12,-9,-9,83,-5,31,1,-50
1491693383750,0,-2,-31,-80,-33,-37,-27,0,-53
1491693383795,1,-3,-20,-50,-12,-37,-5,-12,-75
1491693383795,1,0,1,7,4,-8,-128,-19,-40
1491693383797,2,3,10,76,47,40,118,9,-18
1491693383797,2,20,3,-10,-40,-54,41,43,-21
1491693383798,0,7,5,51,88,-51,19,-5,-39
1491693383798,0,-6,-4,30,-12,16,-32,12,-30
1491693383799,1,12,0,68,21,-4,-24,4,-50
1491693383799,1,-5,-1,-43,98,67,127,30,-40
1491693383845,2,-7,-11,-14,-55,-16,12,-6,-73
1491693383845,2,-7,3,-34,-28,-10,-9,17,-57
1491693383847,3,-5,-2,-19,-56,30,26,-25,-70
1491693383847,3,0,2,73,74,5,-102,-9,-94
1491693383848,1,2,-3,7,52,-24,30,-9,-127
1491693383848,1,-28,-8,-1,-96,16,-78,-30,-117
1491693383850,2,2,6,28,39,-5,18,24,-56
1491693383850,2,-6,-6,27,8,105,110,-5,-36
1491693383893,3,7,-2,-67,-27,-86,-52,-6,60
1491693383893,3,8,-4,-13,18,-38,-10,10,82
1491693383894,0,-3,-5,-28,-51,35,-12,-11,18
1491693383894,0,0,12,18,-22,61,49,-2,29
1491693383895,2,-3,-32,-40,-35,-23,-111,-11,55
1491693383895,2,12,24,37,50,46,76,-30,53
1491693383896,3,-1,28,60,31,123,11,16,59
1491693383896,3,-3,-30,-44,-48,-108,-25,-20,108
1491693383942,0,4,3,-23,-55,33,-54,11,125
1491693383942,0,3,-27,-54,1,-103,-41,-7,126
1491693383943,1,1,-8,-72,-110,-55,50,3,127
1491693383943,1,5,-1,48,90,38,-38,12,120
1491693383944,2,13,29,17,7,51,73,-6,89
1491693383944,2,-13,-17,67,63,56,-2,8,56
1491693383945,3,3,4,-54,-16,-70,43,-3,3
1491693383945,3,-7,-11,-32,-33,-19,0,8,-46
1491693383992,0,-7,-5,6,17,-18,-57,-18,-58
1491693383992,0,-7,33,87,6,101,18,-8,-54
1491693383994,1,-11,-18,-32,60,-30,99,26,-64
1491693383994,1,10,-4,-38,-45,-60,40,2,-46
1491693383995,3,-3,-22,-7,24,104,31,25,-38
1491693383995,3,8,21,23,-40,-16,19,0,-39
1491693383999,0,-18,-1,41,32,48,-2,-16,-52
1491693383999,0,-17,-13,-76,-5,3,-21,-10,-52
1491693384039,1,8,8,40,30,58,-36,-6,-13
1491693384039,1,4,15,5,4,18,26,19,-31
1491693384041,2,-5,-3,-12,6,-22,-23,13,-15
1491693384041,2,-18,-27,-23,36,-35,33,-6,-52
1491693384042,0,-2,-10,-46,-82,13,67,17,-9
1491693384042,0,7,2,-61,-14,-20,-53,-1,-19
1491693384043,1,2,15,90,-13,19,33,1,-16
1491693384043,1,-6,-15,-60,-5,-37,38,3,-12
1491693384088,2,-3,-16,-48,55,4,-44,-28,-16
1491693384088,2,-3,-12,11,-22,-112,-52,12,0
1491693384091,3,10,23,11,-15,13,-33,-33,-10
1491693384091,3,14,22,97,37,127,-1,27,15
1491693384092,1,-6,-11,-23,-8,-64,-47,-4,-6
1491693384092,1,-11,-6,-39,-63,-56,-24,-10,-6
1491693384093,2,2,-21,-65,-78,-38,23,3,2
1491693384093,2,7,55,127,-17,66,19,7,14
1491693384137,3,-7,-43,-26,89,4,4,7,-3
1491693384137,3,-14,-1,-59,-23,5,-27,-17,-16
1491693384139,0,5,-17,-43,-59,-57,-4,20,6
1491693384139,0,7,15,18,-25,49,-8,-8,8
1491693384141,2,-3,9,-42,-111,-99,-87,1,-1
1491693384141,2,1,-7,15,79,5,37,9,8
1491693384142,3,6,6,68,-31,69,72,11,-2
1491693384142,3,2,-11,-101,-77,-17,-35,-20,9
1491693384234,0,3,-3,-29,-44,-14,-23,16,5
1491693384234,0,-9,10,28,61,-2,-38,-21,-6
1491693384236,1,-1,-5,-25,-11,-61,-29,0,-5
1491693384236,1,0,18,102,24,66,19,-14,-11
1491693384238,3,-9,8,23,-6,48,-24,-10,5
1491693384238,3,3,-14,-49,-6,-39,-1,8,1
1491693384239,0,-18,7,28,33,93,35,-4,-7
1491693384239,0,15,-8,-39,-71,-86,-22,-1,13
1491693384283,1,-5,-7,11,37,-21,-15,-3,-2
1491693384283,1,9,4,-9,-13,-32,-117,-2,-5
1491693384285,2,-6,18,49,63,53,50,-7,-9
1491693384285,2,-5,15,65,-103,127,23,14,20
1491693384286,0,-7,-10,11,21,9,-43,-4,-12
1491693384286,0,-13,-12,31,-2,10,-34,-17,-2
1491693384288,1,-5,-21,-48,-25,9,-28,-19,3
1491693384288,1,2,8,17,-109,-90,-25,-3,-2
1491693384332,2,2,25,109,107,73,22,11,18
1491693384332,2,2,46,38,110,82,33,0,2
1491693384333,3,-11,-44,-80,-99,-12,95,22,2
1491693384333,3,-3,-18,-37,65,-51,-27,-14,0
1491693384380,1,-19,-45,-64,-60,-79,-67,-11,-7
1491693384380,1,1,-30,-48,-88,48,88,-3,0
1491693384382,2,14,-6,-15,3,52,-34,10,8
1491693384382,2,-12,-16,-79,110,-109,-64,5,-3
1491693384384,3,-3,32,7,-52,-43,-84,-2,-8
1491693384384,3,-17,39,73,12,77,77,12,-1
1491693384385,0,-1,2,-32,13,5,27,-12,-10
1491693384385,0,8,23,29,-49,126,38,19,19
1491693384478,2,-21,13,11,9,88,0,-6,-63
1491693384478,2,16,-12,8,-61,-118,-11,-5,-72
1491693384479,3,24,12,-21,9,-42,-5,13,-2
1491693384479,3,6,-5,7,25,51,-5,5,22
1491693384481,0,1,5,-50,-30,-6,45,-5,52
1491693384481,0,-14,-21,-33,-47,-15,-32,-18,35
1491693384482,3,-2,-4,89,30,45,19,-2,-7
1491693384482,3,5,14,51,12,4,-24,9,-20
1491693384531,0,-17,-21,-9,-21,-53,72,7,-23
1491693384531,0,-1,24,77,8,71,19,-2,1
1491693384532,1,1,0,26,-4,-45,-11,-20,-5
1491693384532,1,-8,-3,9,-9,-53,7,7,3
1491693384533,0,-4,-13,-26,-6,0,5,-6,-11
1491693384533,0,21,-7,-13,-12,-52,-32,3,20
1491693384534,1,2,4,37,38,-23,-10,1,-4
1491693384534,1,-15,-15,11,-19,22,13,-4,-7
1491693384576,2,-1,10,10,10,41,-42,-2,15
1491693384576,2,-4,-12,-40,-19,-66,5,-10,-10
1491693384579,3,-8,9,-1,-2,7,-21,0,-7
1491693384579,3,-6,-3,-5,3,-10,15,-8,-22
1491693384581,2,-6,7,29,-9,-3,17,-9,4
1491693384581,2,-4,3,-11,6,58,9,-1,3
1491693384582,3,-13,-8,-39,-16,11,17,8,8
1491693384582,3,-9,7,43,35,69,36,7,0
1491693384624,0,-1,-4,-45,-31,-51,-5,-7,-5
1491693384624,0,-4,-7,12,8,0,-26,-2,-11
1491693384626,1,1,7,44,26,38,9,1,-8
1491693384626,1,-17,-16,-32,-12,-6,-21,-8,-11
1491693384628,3,-3,11,-12,4,-5,7,-8,-5
1491693384628,3,10,6,9,14,48,18,3,8
1491693384629,0,12,1,-52,-39,-115,-93,-4,16
1491693384629,0,-5,-15,-23,12,53,-74,-10,-4
1491693384673,1,0,-19,20,13,-10,6,1,1
1491693384673,1,-17,8,-6,13,-16,-22,-12,-8
1491693384674,2,2,1,-17,27,81,55,-5,22
1491693384674,2,-8,-1,-50,-24,6,4,18,4
1491693384675,3,4,-4,-32,-44,27,0,-11,26
1491693384675,3,13,-14,15,48,22,6,2,1
1491693384676,0,-3,7,-36,-28,-6,35,2,-11
1491693384676,0,6,-16,-16,32,38,8,-6,-17
1491693384722,1,20,19,1,-12,-45,-57,6,8
1491693384722,1,4,5,30,-15,11,42,9,-2
1491693384723,2,-9,6,102,18,-15,-2,7,-3
1491693384723,2,19,13,58,-9,43,-11,4,4
1491693384724,0,13,1,-36,-10,-69,-38,4,-10
1491693384724,0,-15,-6,23,11,45,-9,-22,-1
1491693384725,1,4,-13,-13,2,-77,-23,-6,-9
1491693384725,1,22,13,-43,-8,-31,17,1,2
1491693384771,2,-9,-26,12,3,13,14,2,-9
1491693384771,2,8,10,22,5,-10,-10,-16,-9
1491693384772,3,-2,20,67,17,86,38,8,-8
1491693384772,3,-11,10,68,-8,56,48,5,-2
1491693384773,1,1,1,11,31,43,60,13,10
1491693384773,1,16,14,-1,-41,-33,49,13,-1
1491693384774,2,10,15,-5,12,72,15,11,-8
1491693384774,2,-15,-15,-52,-12,-37,-23,-7,14
1491693384819,3,-3,-3,-60,-42,11,-2,-10,-10
1491693384819,3,-15,-10,-32,10,-82,-71,-12,12
1491693384821,0,0,-10,10,50,21,-13,-1,6
1491693384821,0,-11,-4,2,15,13,67,11,-2
1491693384822,2,23,26,33,4,35,-48,-4,11
1491693384822,2,1,1,-10,13,-41,17,5,-1
1491693384823,3,-2,-4,-16,-18,127,80,-1,6
1491693384823,3,-15,-25,-21,-19,-62,-58,-7,-4
1491693384868,0,8,29,69,-21,-17,-51,-17,4
1491693384868,0,-9,-30,-51,2,72,105,10,3
1491693384872,1,3,8,33,-66,-75,-113,-21,-8
1491693384872,1,-9,-1,-38,106,1,9,13,-10
1491693384873,3,-6,-20,-15,116,-122,-55,7,0
1491693384873,3,8,5,27,-32,28,-37,-10,-13
1491693384874,0,-3,-6,-41,-24,-4,65,5,6
1491693384874,0,5,2,13,-17,-31,-64,0,-23
1491693384917,1,-17,0,0,-21,48,34,8,15
1491693384917,1,13,-5,-25,-21,84,-1,-11,-2
1491693384918,2,1,3,9,62,-27,27,8,-2
1491693384918,2,-2,-17,-25,-33,-49,-57,-22,-10
1491693384919,0,0,14,1,-39,-23,32,10,2
1491693384919,0,-20,3,3,89,60,-34,8,4
1491693384920,1,-2,1,9,1,-95,-17,-30,-18
1491693384920,1,-5,-17,-28,-21,-38,23,-16,-19
1491693384966,2,-3,0,-30,-56,17,29,2,7
1491693384966,2,1,-8,9,40,-36,-11,5,4
1491693385014,3,13,9,9,32,88,59,17,-3
1491693385014,3,-7,12,23,17,82,61,9,17
1491693385016,1,-25,-25,-40,-69,20,-7,13,-4
1491693385016,1,11,34,40,28,34,33,-12,3
1491693385017,2,2,-2,-21,91,-50,-59,-7,-2
1491693385017,2,-5,-29,-7,56,-39,56,2,-15
1491693385018,3,11,-2,-37,-12,-5,-85,-13,-6
1491693385018,3,-13,-9,27,2,31,-80,14,-7
1491693385063,0,-1,21,98,60,65,46,4,11
1491693385063,0,4,10,-76,-60,15,-25,-24,-16
1491693385064,1,0,-19,-41,-4,-76,10,-3,-14
1491693385064,1,0,14,6,-32,56,-6,14,29
1491693385065,2,-17,-9,-1,83,-16,9,3,1
1491693385065,2,23,1,23,-30,-112,50,9,12
1491693385066,2,-3,14,68,22,127,14,0,-2
1491693385066,2,-16,-9,-62,3,5,63,14,-19
1491693385112,3,-2,-30,-73,-57,-89,-79,-33,-17
1491693385112,3,-6,-10,-21,-14,26,-17,3,3
1491693385113,0,-8,-7,-37,-31,101,5,-17,-27
1491693385113,0,-12,10,61,23,46,65,3,27
1491693385115,3,-2,24,36,127,44,42,0,-24
1491693385115,3,-1,-12,-11,-76,-64,53,8,-23
1491693385116,0,10,-1,-16,28,-28,-8,7,-19
1491693385116,0,-6,0,24,-18,-32,-61,-20,-49
1491693385209,1,18,19,11,11,127,34,12,-13
1491693385209,1,-7,0,6,-65,-88,-22,28,-19
1491693385212,2,-14,-16,-30,-25,-11,-26,-34,-82
1491693385212,2,-14,-17,-40,21,19,14,-14,-84
1491693385220,0,-21,-23,-33,-73,74,-7,5,-68
1491693385220,0,32,2,7,-71,-128,-111,4,6
1491693385221,1,-10,-3,-1,15,115,57,-1,-9
1491693385221,1,-16,-1,31,103,72,39,-3,-13
1491693385258,2,12,-1,-15,-34,-20,11,3,17
1491693385258,2,-8,33,30,21,59,-34,0,-5
1491693385259,3,-6,-14,-20,-35,-60,33,10,17
1491693385259,3,-6,-14,-25,-23,-30,-10,-14,15
1491693385263,1,-6,-8,6,-29,12,-75,-18,79
1491693385263,1,-13,-9,4,38,-52,0,-6,58
1491693385264,2,6,8,17,36,-75,-29,-47,17
1491693385264,2,-2,-18,-22,9,-24,-70,21,18
1491693385306,3,-11,-10,-22,-56,-9,-3,2,27
1491693385306,3,12,9,17,11,-6,11,3,46
1491693385307,0,5,8,15,2,86,47,13,94
1491693385307,0,-1,1,-18,-55,-14,35,-5,119
1491693385308,3,-5,4,-54,-76,-76,0,-5,52
1491693385308,3,-8,-22,-44,-34,-71,-23,-24,26
1491693385309,0,8,2,-14,-18,-55,26,17,-15
1491693385309,0,-12,-3,1,49,35,-43,-15,-32
1491693385355,1,4,14,30,1,37,-33,-3,-39
1491693385355,1,6,11,30,36,43,73,6,-48
1491693385356,2,-5,3,2,-23,-4,26,15,-41
1491693385356,2,-8,-18,-29,-45,-11,11,-1,-60
1491693385360,3,-4,-4,-6,1,16,-42,-10,-86
1491693385360,3,-13,-4,-19,-42,-66,-5,-13,-88
1491693385361,0,-12,-12,3,-42,54,40,11,-70
1491693385361,0,-4,2,58,105,-5,-5,18,-58
1491693385404,1,9,3,-85,-50,-26,20,-3,-47
1491693385404,1,17,-9,-30,-62,-108,-89,-32,-55
1491693385405,2,-10,-14,-9,-47,-11,-25,-12,-78
1491693385405,2,-12,1,-13,-10,32,23,-23,-64
1491693385405,0,-7,0,0,-29,-26,-68,-19,-48
1491693385405,0,-1,-3,-20,13,-31,73,34,-58
1491693385406,1,14,4,-2,28,-60,-26,-51,-23
1491693385406,1,-18,-3,15,-5,77,29,16,-15
1491693385453,2,15,27,23,-41,105,0,15,-8
1491693385453,2,-14,5,44,84,-67,36,-5,-48
1491693385454,3,-4,-27,-56,-82,0,-74,-19,-45
1491693385454,3,2,-24,-26,-26,-35,-51,-13,-7
1491693385456,1,3,22,54,25,80,34,14,26
1491693385456,1,-11,0,24,41,51,50,10,-16
1491693385457,2,18,11,-12,28,-71,39,-10,-3
1491693385457,2,-28,-24,-57,-97,-64,-96,-6,-10
1491693385501,3,2,-9,40,93,65,42,1,-20
1491693385501,3,19,28,5,-13,42,85,15,33
1491693385503,0,-20,-31,-20,3,-10,-32,-11,-13
1491693385503,0,16,7,-17,-106,-55,-22,-9,16
1491693385503,2,-12,-20,-95,-39,-101,35,1,30
1491693385503,2,-4,-42,-53,-118,-20,-79,-30,-12
1491693385504,3,7,9,13,-60,42,34,0,3
1491693385504,3,-4,12,24,89,6,-35,-4,-26
1491693385550,0,17,9,48,75,-12,5,26,0
1491693385550,0,-5,14,46,46,96,26,-34,-48
1491693385552,1,3,-17,-32,-45,-17,12,27,-43
1491693385552,1,6,14,16,-17,7,28,15,-22
1491693385554,3,-2,-4,60,87,56,69,5,-36
1491693385554,3,-5,-14,-28,-55,-92,-55,-10,-106
1491693385555,0,11,-9,-13,22,7,60,-7,-41
1491693385555,0,3,11,-7,-77,69,-75,5,-33
1491693385600,1,-5,10,39,70,30,54,-8,-21
1491693385600,1,-8,5,-29,17,-18,-90,6,0
1491693385602,2,-14,-25,-18,20,72,30,0,4
1491693385602,2,20,-3,-70,-57,-117,-37,-11,45
1491693385603,0,4,14,48,50,33,-63,-19,21
1491693385603,0,-5,-11,-7,49,-73,1,-17,46
1491693385604,1,1,-13,-28,-35,-109,-33,16,40
1491693385604,1,-15,-16,4,-13,45,79,-29,-8
1491693385648,2,-13,13,17,5,50,40,7,43
1491693385648,2,17,-10,-4,44,-9,-60,15,65
1491693385651,3,-7,33,102,75,59,18,13,28
1491693385651,3,-4,-22,-95,-91,-50,-76,-13,21
1491693385652,1,8,-4,-2,-85,-1,-23,-5,99
1491693385652,1,-1,10,31,104,73,10,-1,127
1491693385653,2,-17,-11,18,17,13,1,-12,123
1491693385653,2,4,5,8,44,50,9,14,127
1491693385697,3,35,8,-38,-78,-44,37,-14,101
1491693385697,3,-11,1,23,20,-17,66,-5,19
1491693385700,0,3,10,35,23,62,34,39,7
1491693385700,0,-4,6,20,0,2,90,0,-94
1491693385701,2,-12,-4,-48,-89,-43,-6,8,-128
1491693385701,2,4,14,86,113,1,12,15,-128
1491693385702,3,-3,-3,-40,-74,30,-72,-39,-128
1491693385702,3,-7,-19,-48,-32,61,25,22,-54
1491693385746,0,-6,-16,2,-9,-94,-59,-18,0
1491693385746,0,-15,-9,-13,-29,43,-10,-16,15
1491693385748,1,9,-2,20,27,-12,19,29,-15
1491693385748,1,0,20,26,-20,86,8,-10,-24
1491693385749,2,0,13,19,36,80,-6,13,-44
1491693385749,2,-12,-11,-11,-12,-100,8,5,-14
1491693385750,3,8,-15,-21,-8,-106,-75,-14,9
1491693385750,3,-3,2,25,7,109,-34,-1,18
1491693385794,0,3,15,20,-3,-92,65,2,18
1491693385794,0,7,8,36,117,71,-32,-10,12
1491693385796,1,-8,1,-28,-44,-14,5,26,32
1491693385796,1,-6,-46,-97,-25,-73,-2,-29,37
1491693385797,3,-10,3,40,23,48,55,13,9
1491693385797,3,-3,-21,-29,-45,-66,7,-8,20
1491693385799,0,2,17,19,42,38,-32,-9,2
1491693385799,0,4,13,31,9,73,93,34,50
1491693385843,1,-5,14,52,60,67,24,-5,-14
1491693385843,1,-12,-14,28,16,-52,40,3,22
1491693385845,2,10,-22,-34,44,-79,21,-15,-3
1491693385845,2,1,0,-10,-38,81,-128,-10,2
1491693385846,0,1,-4,17,-15,20,14,-9,0
1491693385846,0,-3,-9,-31,-2,-50,-33,-26,6
1491693385847,1,-7,7,26,-19,-12,-7,15,9
1491693385847,1,-19,-23,-28,-38,7,-5,-5,-13
1491693385892,2,-8,26,127,35,127,64,22,19
1491693385892,2,4,-5,-106,-7,-75,-49,-20,-18
1491693385895,3,4,-25,-32,-9,-15,35,-3,-11
1491693385895,3,8,16,10,-1,-22,-26,4,6
1491693385896,1,7,8,29,88,-31,-47,-5,-1
1491693385896,1,-17,-17,-5,20,74,-25,7,-7
1491693385897,2,8,-1,-36,-72,-85,-39,-20,0
1491693385897,2,-4,7,76,30,72,47,-4,2
1491693385941,3,4,-10,-99,-50,-49,-49,-1,3
1491693385941,3,-4,-11,17,-17,-1,25,0,-4
1491693385943,0,-16,-18,-28,52,107,56,7,-15
1491693385943,0,12,-7,2,12,-97,-58,4,7
1491693385944,2,2,5,-31,-59,-11,-2,0,-6
1491693385944,2,-7,8,23,-41,17,55,-1,1
1491693385945,3,-2,-21,29,56,-42,-7,-6,-4
1491693385945,3,5,14,31,34,-35,-34,4,2
1491693385989,0,-3,2,34,59,71,40,10,8
1491693385989,0,0,-21,-37,-35,9,-7,18,-4
1491693385991,1,2,26,54,-16,61,-12,-32,-8
1491693385991,1,1,24,25,-21,84,69,6,10
1491693385993,3,-2,-10,-51,-21,-58,25,-2,-11
1491693385993,3,8,4,22,-8,0,2,-5,5
1491693385994,0,-3,17,54,9,55,4,1,-7
1491693385994,0,-8,-21,-48,4,38,-3,-8,-6
1491693386038,1,15,17,-5,38,-111,-8,0,5
1491693386038,1,-5,1,10,34,14,0,-7,-6
1491693386043,2,-8,-4,2,-17,12,9,5,0
1491693386043,2,1,18,18,4,-104,24,1,-4
1491693386044,0,4,-34,-69,9,-103,-47,-23,-7
1491693386044,0,-12,10,66,43,99,81,6,-8
1491693386045,1,10,-24,-126,-79,-116,-71,-2,55
1491693386045,1,-8,-13,15,-1,16,3,-4,110
1491693386087,2,-4,9,26,18,105,76,5,127
1491693386087,2,16,7,-17,-43,-37,-59,-10,127
1491693386089,3,3,16,59,80,39,-13,-3,12
1491693386089,3,-1,14,46,74,21,-11,-6,-36
1491693386090,0,-6,-3,-61,-128,-38,-35,-1,11
1491693386090,0,-2,-13,-37,127,6,25,3,9
1491693386091,1,18,-18,-3,-6,-30,41,0,34
1491693386091,1,-3,13,-8,-7,-83,-71,-10,0
1491693386136,2,-19,-1,127,30,82,52,12,-27
1491693386136,2,5,-13,-94,-59,-85,-20,-4,-7
1491693386138,3,7,-10,-19,-71,74,-39,-3,-14
1491693386138,3,-5,-8,-27,-15,-47,19,-8,-48
1491693386139,1,0,-18,-61,-34,-95,-8,-2,-40
1491693386139,1,7,18,75,43,106,-43,2,-54
1491693386140,2,5,8,-59,37,-35,-33,-14,-71
1491693386140,2,-15,-27,11,-71,39,32,3,-54
1491693386184,3,2,3,51,26,71,27,2,-26
1491693386184,3,23,30,-26,3,46,13,9,-3
1491693386187,0,-31,-35,-47,7,-92,-21,-10,-68
1491693386187,0,3,19,-18,10,9,-8,-5,-21
1491693386188,2,-25,-20,-21,-4,-78,-20,-11,-25
1491693386188,2,-3,18,-19,-6,4,-69,-9,-44
1491693386189,3,-10,-4,-18,19,12,40,-4,-14
1491693386189,3,-1,-7,-98,-14,-28,-9,-11,-29
1491693386282,0,-2,-8,-59,26,-5,-3,1,-12
1491693386282,0,-12,-14,-59,-15,-7,-17,-9,-44
1491693386284,1,15,16,39,-31,36,2,14,-11
1491693386284,1,-16,-7,56,16,-56,17,10,-35
1491693386285,3,-2,35,102,-13,-17,20,4,-45
1491693386285,3,0,-40,-60,22,-61,-95,-2,-7
1491693386286,0,-3,-4,12,-5,18,38,-1,-5
1491693386286,0,11,35,44,-20,-67,31,6,32
1491693386379,1,-14,-14,-45,13,39,-6,-27,20
1491693386379,1,-3,-3,44,-8,-9,34,8,6
1491693386382,2,34,19,0,19,-4,-8,4,76
1491693386382,2,7,5,-38,-1,59,-19,-2,16
1491693386383,0,25,6,-11,-7,45,21,9,9
1491693386383,0,-8,19,102,27,4,20,6,-11
1491693386385,1,-12,6,58,32,57,21,6,0
1491693386385,1,7,-3,-69,1,-40,57,5,1
1491693386429,2,-2,-4,-52,-53,22,-67,-10,-6
1491693386429,2,2,-16,-33,-13,-1,-39,-9,-1
1491693386430,3,-25,-16,-9,-14,2,26,-1,-9
1491693386430,3,-1,-2,25,17,57,8,1,6
1491693386431,2,-11,-4,-2,30,1,1,3,-1
1491693386431,2,3,-10,-11,-41,-25,-34,-6,3
1491693386432,2,0,7,1,-11,81,-22,3,-3
1491693386432,2,-10,-4,11,11,27,63,5,5
1491693386477,3,1,-20,-101,-75,-119,-102,-10,1
1491693386477,3,-5,13,72,31,127,68,-1,-9
1491693386479,0,11,-7,-16,-62,45,5,-6,5
1491693386479,0,5,-7,-25,35,-70,-51,2,11
1491693386480,3,11,-25,-42,-25,-88,27,-12,-19
1491693386480,3,4,-14,-42,-37,4,-42,9,9
1491693386481,0,10,10,-30,-13,-43,-37,-3,2
1491693386481,0,-5,8,3,-6,35,67,3,-10
1491693386525,1,-6,3,30,81,90,-21,3,17
1491693386525,1,4,-6,-2,-36,16,84,3,7
1491693386528,2,0,24,84,127,85,-32,8,-1
1491693386528,2,1,-24,-55,-84,-121,-1,10,20
1491693386529,0,-5,-10,-11,-14,36,48,9,-5
1491693386529,0,13,4,10,55,57,-38,-3,10
1491693386530,1,-4,8,52,58,127,37,8,-10
1491693386530,1,8,-4,10,32,-18,-38,-26,18
1491693386574,2,0,-30,-76,-66,-128,-17,10,-11
1491693386574,2,2,5,-18,-29,124,13,-13,-7
1491693386577,3,-12,9,13,8,-49,102,28,3
1491693386577,3,16,10,62,38,10,-64,10,37
1491693386578,1,1,-4,-10,-97,-13,10,2,11
1491693386578,1,-8,3,3,-11,100,60,5,-40
1491693386579,2,-4,14,34,33,5,-33,23,-16
1491693386579,2,8,-5,-4,72,-28,-7,-37,-47
1491693386623,3,-3,-11,-10,-9,-66,-45,-13,-9
1491693386623,3,-12,0,53,-16,73,-12,1,1
1491693386625,0,8,18,2,1,-23,8,4,29
1491693386625,0,-22,1,1,-23,77,29,9,-16
1491693386626,2,-8,4,-9,-71,97,-9,-8,19
1491693386626,2,15,16,59,64,-70,80,9,-4
1491693386627,3,1,-13,17,-4,-36,-33,6,-42
1491693386627,3,-21,-2,-40,-59,-28,-3,7,-51
1491693386677,0,14,18,42,8,-3,-51,-3,58
1491693386677,0,11,7,-27,-14,-46,-49,-4,119
1491693386679,1,-15,-10,6,-4,8,18,-8,99
1491693386679,1,2,-15,-13,51,69,8,-7,89
1491693386680,3,7,16,-31,-41,-1,-43,-12,10
1491693386680,3,-6,-7,-29,-68,-51,21,4,-10
1491693386681,0,-10,-20,-17,18,19,27,10,-19
1491693386681,0,1,1,25,23,-15,-48,-5,-20
1491693386721,1,-25,-5,-18,-47,74,-30,-5,-27
1491693386721,1,3,11,-2,41,27,29,-18,-36
1491693386723,2,-1,-6,36,11,-46,34,0,-11
1491693386723,2,-4,-2,-36,-33,-37,-39,-5,-8
1491693386724,0,-3,-4,21,-18,21,-2,11,1
1491693386724,0,-10,0,-15,-1,119,14,0,-29
1491693386725,1,-1,-23,26,60,-81,66,-4,-14
1491693386725,1,19,19,-30,-89,-44,-60,-1,6
1491693386771,2,-3,-22,-18,51,-80,-33,-21,-45
1491693386771,2,2,7,28,-64,75,-30,-1,7
1491693386772,3,-3,19,29,19,17,72,14,23
1491693386772,3,7,-16,-33,43,-66,8,10,-3
1491693386773,0,-14,-12,-36,-32,27,-24,-12,-23
1491693386773,0,-5,-14,-28,-6,-66,14,-4,-11
1491693386775,1,-1,20,52,47,103,-6,-5,-7
1491693386775,1,-18,9,44,1,-25,67,3,-6
1491693386818,2,12,3,-51,-34,-54,53,21,4
1491693386818,2,-10,-12,-16,-72,-25,-18,-13,5
1491693386820,3,7,-13,-5,75,20,-33,-17,-33
1491693386820,3,-11,-11,-1,-18,-14,-21,5,15
1491693386822,1,9,29,14,-51,35,23,6,9
1491693386822,1,1,-35,-73,27,4,-68,-1,-11
1491693386822,2,-12,-4,9,-13,34,23,-4,-11
1491693386822,2,-7,-4,-29,-1,-80,-58,-12,-1
1491693386867,3,6,2,21,0,79,46,0,20
1491693386867,3,0,13,33,3,-55,-12,4,0
1491693386869,0,-11,-5,-14,-21,-54,-33,-2,-3
1491693386869,0,4,-10,-4,17,-14,-38,4,-13
1491693386870,2,-1,-4,-23,-18,-18,16,-7,9
1491693386870,2,-3,11,8,-31,62,22,1,-20
1491693386872,3,-12,-10,-34,-8,-104,-105,-9,-4
1491693386872,3,8,-7,-20,9,41,0,-2,3
1491693386916,0,-4,6,23,17,-24,-25,-13,-8
1491693386916,0,5,0,2,-33,39,95,15,5
1491693386917,1,4,4,6,63,68,-1,14,-9
1491693386917,1,-7,-11,-15,-56,-73,-30,-14,7
1491693386919,3,3,10,13,-14,-11,24,26,8
1491693386919,3,-6,5,58,86,60,-21,-22,-20
1491693386920,0,-13,-7,-52,-70,97,23,3,-15
1491693386920,0,7,-8,-27,-42,-119,22,-8,-1
1491693386964,1,0,2,-15,-35,-33,-23,2,9
1491693386964,1,-15,12,67,78,127,97,18,-5
1491693386966,2,29,15,-19,-50,-115,-97,-1,11
1491693386966,2,-20,-22,14,113,94,-27,-7,-32
1491693386967,0,6,4,10,-11,8,22,7,8
1491693386967,0,2,7,3,17,-3,5,-5,-13
1491693386970,1,-10,-1,9,-8,12,-19,-12,-20
1491693386970,1,2,5,7,-14,37,33,4,19
1491693387013,2,-6,-10,1,14,-38,-21,-5,-1
1491693387013,2,3,9,15,11,-40,-17,7,10
1491693387015,3,-5,-15,-45,-32,41,29,-4,-15
1491693387015,3,-5,-5,-5,-33,-25,-108,-23,-14
1491693387016,1,19,9,-20,-65,-123,-84,-2,16
1491693387016,1,-6,2,0,-8,97,-14,-4,-45
1491693387017,2,-5,-19,-22,43,-94,-45,-7,-37
1491693387017,2,-1,2,23,29,54,-37,14,-40
1491693387062,3,-4,8,27,87,28,90,20,-37
1491693387062,3,13,-7,-23,-58,-46,10,19,81
1491693387064,0,-8,10,54,1,80,-42,-22,15
1491693387064,0,-15,-9,-48,-53,47,45,-3,76
1491693387066,2,-7,-10,11,28,60,16,2,20
1491693387066,2,4,9,4,-57,0,43,7,22
1491693387067,3,-3,1,18,38,65,-48,-15,-4
1491693387067,3,1,-8,2,-9,-93,-38,-10,5
1491693387111,0,-4,9,16,49,8,-4,11,-13
1491693387111,0,3,-6,-39,-60,74,-22,-9,-13
1491693387113,1,-10,-11,1,63,-8,44,5,-8
1491693387113,1,0,-2,-9,-20,-95,-98,1,-26
1491693387114,3,-10,-11,-18,-14,-90,-96,-18,-12
1491693387114,3,0,9,46,98,112,-31,11,15
1491693387115,0,6,-3,-44,-64,-72,15,-9,-10
1491693387115,0,-5,-1,15,59,-36,-54,6,-20
1491693387160,1,13,10,42,-9,62,25,0,12
1491693387160,1,-7,-7,-32,-18,19,104,15,-17
1491693387162,2,4,-5,10,39,-15,-65,-18,3
1491693387162,2,-9,3,16,17,-9,-7,30,-12
1491693387163,3,-11,-15,-49,-95,-45,-4,-15,-8
1491693387163,3,6,-12,-26,2,-8,64,-5,-5
1491693387165,0,6,13,21,15,7,-47,10,20
1491693387165,0,9,9,6,47,-26,-1,-19,4
1491693387208,1,-3,13,-1,-46,53,-33,-10,-3
1491693387208,1,-3,-17,-3,29,-48,39,2,-4
1491693387210,2,-4,-2,-8,-3,-6,-27,-9,-6
1491693387210,2,1,1,13,20,-26,61,9,11
1491693387211,0,3,-5,-3,35,-48,-80,8,6
1491693387211,0,-13,-13,-36,-80,24,-25,-9,-17
1491693387213,1,5,7,-9,-4,-73,8,4,6
1491693387213,1,6,-1,-17,-9,-24,-37,-14,-17
1491693387257,2,-10,-5,35,26,95,40,24,65
1491693387257,2,8,-1,-3,-10,-2,55,6,5
1491693387306,3,9,9,-6,-21,100,-48,-3,16
1491693387306,3,7,0,-6,7,-86,-14,6,10
1491693387307,1,17,-4,1,-9,25,-31,-9,2
1491693387307,1,-19,7,21,-17,51,-67,-1,-19
1491693387308,2,5,16,5,-20,71,72,-10,17
1491693387308,2,-6,-14,4,30,-27,-128,5,-33
1491693387309,3,-5,-11,-15,5,2,108,5,-1
1491693387309,3,-11,-7,-1,31,104,-11,-8,-9
1491693387354,0,-7,10,3,2,-15,83,-2,-25
1491693387354,0,2,-4,-6,-62,1,2,-13,-7
1491693387356,2,-15,-12,-9,22,7,44,-3,-29
1491693387356,2,22,21,28,27,-29,-9,-21,-5
1491693387358,3,-15,-11,16,38,111,41,9,16
1491693387358,3,0,1,18,15,-61,87,23,23
1491693387359,3,-2,3,33,57,-35,-8,22,12
1491693387359,3,-7,-22,-91,-95,48,-115,-29,-20
1491693387403,0,19,2,14,83,24,64,8,10
1491693387403,0,-4,-6,-29,-64,-56,12,-2,12
1491693387405,1,0,6,10,-2,12,38,-10,-26
1491693387405,1,-11,-3,12,-35,63,46,0,-11
1491693387406,0,-7,-9,9,52,102,-33,-11,-17
1491693387406,0,-2,6,33,22,19,66,-6,-6
1491693387407,1,-11,-21,-50,-41,-57,-82,-15,-23
1491693387407,1,4,18,37,67,50,98,34,26
1491693387452,2,19,-5,-38,-117,12,16,-2,3
1491693387452,2,-4,-17,-25,36,-27,-28,16,13
1491693387454,3,-11,-5,-39,-84,85,49,-37,-9
1491693387454,3,-12,-5,58,108,-31,-91,-4,-23
1491693387455,1,-14,-31,-91,-98,29,34,-6,-9
1491693387455,1,3,18,-5,-37,101,-59,-17,-18
1491693387456,2,-4,-17,-13,-20,-108,-33,-14,-13
1491693387456,2,3,14,35,23,75,8,4,4
1491693387500,3,-6,16,28,32,102,41,12,1
1491693387500,3,0,-12,-26,-57,-79,57,2,9
1491693387504,0,3,-12,-31,-18,-81,-73,-16,-9
1491693387504,0,1,4,5,35,98,45,17,32
1491693387505,1,-2,17,101,73,-58,-70,-4,-10
1491693387505,1,-9,-26,-82,-23,-47,6,-18,-21
1491693387506,2,8,3,-17,-32,-12,14,-17,2
1491693387506,2,-17,-30,-30,-22,-72,-80,-28,-17
1491693387549,3,13,37,63,-28,89,69,18,13
1491693387549,3,3,8,11,58,-33,-96,-25,-17
1491693387551,0,-9,5,-30,-115,75,52,18,21
1491693387551,0,-4,-28,-75,84,-128,-94,-14,-10
1491693387598,2,-9,1,16,-12,125,-24,-2,-1
1491693387598,2,-10,-1,44,3,-51,53,22,-1
1491693387599,3,11,19,4,25,59,-31,-9,0
1491693387599,3,0,-6,-33,-60,21,-39,-25,-1
1491693387600,0,-9,-19,-23,-23,14,-60,5,19
1491693387600,0,-10,6,8,-47,88,96,-3,-26
1491693387601,1,-8,-10,-41,16,-82,-30,-1,-8
1491693387601,1,0,-17,14,34,-79,-116,-11,10
1491693387647,3,-6,-19,-80,4,-119,-64,0,-6
1491693387647,3,-6,3,-2,8,127,90,0,-14
1491693387651,0,-15,-7,-18,27,-54,-39,10,6
1491693387651,0,20,6,-37,-51,-30,-56,-6,20
1491693387652,1,3,13,32,-10,69,102,17,6
1491693387652,1,-12,-14,-3,43,16,68,11,7
1491693387653,0,-3,16,29,-10,89,40,4,-7
1491693387653,0,0,-10,-57,26,-100,45,0,0
1491693387695,1,0,-19,-12,-12,-80,-37,12,-4
1491693387695,1,5,13,41,5,31,-68,-9,13
1491693387697,2,-1,4,0,17,-29,17,-3,-3
1491693387697,2,6,27,55,25,107,54,-10,-2
1491693387698,1,3,11,-46,61,93,9,6,0
1491693387698,1,-12,-9,45,-24,-26,36,1,-9
1491693387704,2,14,4,-46,-8,-32,-36,-7,4
1491693387704,2,-2,-4,-28,-52,-35,-8,7,-3
1491693387744,3,-10,-13,18,26,-79,-71,-12,-14
1491693387744,3,11,4,34,3,3,-18,15,13
1491693387754,0,0,5,-99,-1,2,-42,-9,-2
1491693387754,0,-5,-18,23,-75,31,73,-8,1
1491693387755,2,-3,0,127,62,106,127,-8,9
1491693387755,2,-1,-12,-94,-21,-123,-10,9,3
1491693387757,3,-8,-15,31,-5,110,-46,-23,-5
1491693387757,3,-4,16,-20,-12,73,109,38,5
1491693387793,0,11,0,-1,10,-3,-72,-15,-8
1491693387793,0,2,20,-46,-27,51,-32,-11,-5
1491693387794,1,-3,8,77,96,79,55,9,11
1491693387794,1,11,-10,23,-31,-128,-94,-37,-7
1491693387795,3,-12,-6,15,-12,-27,48,11,-4
1491693387795,3,9,28,56,33,107,10,-20,-7
1491693387841,0,-12,-25,70,118,-29,-32,6,-5
1491693387841,0,11,0,-35,-40,-84,-34,14,12
1491693387842,1,-6,-26,-90,-82,125,14,-11,-5
1491693387842,1,14,17,20,-24,-102,-59,-19,12
1491693387843,2,-11,2,-33,-29,-22,-91,-10,-9
1491693387843,2,-1,5,34,42,125,81,25,1
1491693387844,3,-7,7,64,32,35,23,25,5
1491693387844,3,-2,-12,-54,-6,-107,-53,-21,-9
1491693387890,0,-4,-23,-37,-61,-43,62,-11,-13
1491693387890,0,-7,23,32,-11,22,-3,0,11
1491693387891,1,-2,-15,-38,24,-10,40,4,-10
1491693387891,1,-9,3,69,14,1,25,11,-5
1491693387893,0,3,31,77,118,77,-24,7,-1
1491693387893,0,-10,-43,-103,-106,-115,-111,-36,-16
1491693387939,1,-1,1,-1,-29,62,-15,6,2
1491693387939,1,-5,-21,-38,-36,18,82,13,-4
1491693387940,2,4,-15,-17,-52,-53,-30,-10,10
1491693387940,2,-8,13,41,88,39,-15,-6,-4
1491693387941,3,4,11,37,-13,-20,-1,-3,3
1491693387941,3,-18,-15,2,17,47,103,15,-11
1491693387941,1,4,-3,8,23,-27,-6,-22,7
1491693387941,1,13,41,16,34,13,-30,-3,10
1491693387988,2,-5,-13,15,4,-49,-52,-25,0
1491693387988,2,3,-27,-82,-52,27,55,9,-3
1491693387988,3,-4,0,-4,-19,-42,-18,-20,4
1491693387988,3,-3,3,5,23,34,23,-10,-14
1491693387989,0,-21,-23,40,9,31,50,9,-2
1491693387989,0,11,31,41,17,27,-40,-3,4
1491693387990,2,-26,-11,-7,-1,-28,56,6,-3
1491693387990,2,25,15,4,5,105,18,-2,17
1491693388036,3,-6,-12,-15,-8,-15,49,-12,-3
1491693388036,3,20,4,-44,-12,-72,-99,-10,-3
1491693388037,0,-10,-22,4,5,-49,-30,1,-5
1491693388037,0,-28,-18,-11,-21,16,26,-2,-18
1491693388038,3,7,-11,-27,-14,4,28,7,2
1491693388038,3,-10,11,4,3,-55,22,12,3
1491693388039,0,3,-9,-5,0,-1,-9,-10,-16
1491693388039,0,7,31,42,12,-6,-9,5,25
1491693388134,1,36,30,-7,-2,28,10,2,13
1491693388134,1,-10,-11,-18,11,40,-7,-4,4
1491693388135,2,4,14,-14,-13,-17,-32,-1,-7
1491693388135,2,-15,-35,-31,-16,-14,14,-1,-17
1491693388135,0,11,13,-5,6,-18,-2,0,6
1491693388135,0,4,-27,-24,40,11,-36,-11,-9
1491693388136,1,-15,-1,-52,-77,-27,-14,1,-16
1491693388136,1,-11,-12,49,-10,13,1,-13,-4
1491693388183,2,-15,-2,40,-13,8,57,12,-11
1491693388183,2,12,10,31,24,-19,-20,8,0
1491693388183,3,-6,5,51,34,15,-13,-11,-17
1491693388183,3,15,4,0,-10,10,28,13,7
1491693388184,1,-7,-1,105,10,5,-39,-10,8
1491693388184,1,-12,-31,61,12,-16,-25,-18,-7
1491693388185,2,-7,0,28,-21,45,73,-1,-7
1491693388185,2,-8,-5,46,5,-41,-65,-14,-12
1491693388233,3,14,31,73,-8,-34,-31,8,6
1491693388233,3,-16,-8,-1,8,-75,-39,4,-16
1491693388233,0,16,-7,-9,-21,-31,-41,-11,21
1491693388233,0,-15,2,8,6,12,7,3,-6
1491693388234,2,-5,-7,-4,8,17,17,-2,-6
1491693388234,2,-2,9,-24,-6,-38,-51,-7,-1
1491693388234,3,0,6,-17,-4,2,-13,1,1
1491693388234,3,-7,-4,-27,-22,12,21,3,-9
1491693388280,0,-10,15,11,31,90,26,11,15
1491693388280,0,6,-6,4,-6,-47,59,10,1
1491693388281,1,-1,4,-7,9,-13,-94,0,5
1491693388281,1,-2,-7,-14,-7,28,26,13,2
1491693388281,3,-18,-8,-22,-26,53,26,4,7
1491693388281,3,10,1,-11,3,-116,84,14,0
1491693388283,0,-16,-16,-37,-16,-39,-62,-7,-9
1491693388283,0,9,22,34,-9,10,18,-12,-1
1491693388329,1,8,-4,-28,8,24,35,1,-18
1491693388329,1,-19,-14,15,0,54,-8,-4,-5
1491693388378,2,1,14,48,42,1,4,24,-2
1491693388378,2,0,-16,-38,-29,-92,-11,11,23
1491693388380,0,-8,-9,-72,-31,-11,21,-14,-12
1491693388380,0,-10,-31,35,41,68,80,-1,-6
1491693388381,1,10,9,11,42,-62,-59,-8,-1
1491693388381,1,4,-2,-13,-29,66,19,18,11
1491693388391,2,18,5,50,64,14,-61,-5,7
1491693388391,2,-33,16,14,5,127,87,-2,-13
1491693388427,3,-38,-47,-80,-109,-97,-34,-15,-9
1491693388427,3,-26,2,-18,-44,51,-1,-13,-31
1491693388428,1,11,-10,-9,-49,-23,5,0,15
1491693388428,1,11,-4,10,29,-30,-53,-14,7
1491693388429,2,-4,-8,34,42,-32,5,2,-9
1491693388429,2,8,-4,-42,-42,60,-22,7,27
1491693388430,2,17,37,77,-46,12,32,5,7
1491693388430,2,-3,-24,-83,58,-63,-55,-14,-19
1491693388475,3,-4,-23,-11,5,127,100,24,13
1491693388475,3,20,1,12,7,-4,-25,-19,-11
1491693388477,0,0,22,25,-11,26,5,2,10
1491693388477,0,-16,-9,-20,-5,-22,14,17,15
1491693388478,3,-9,-16,-28,-16,-23,-65,-19,-12
1491693388478,3,-17,10,30,7,114,99,20,-6
1491693388479,0,3,5,-11,37,-85,-127,-20,-2
1491693388479,0,2,-15,62,112,29,6,-1,10
1491693388524,1,-6,-17,-22,-46,-48,-6,3,0
1491693388524,1,21,8,-6,-16,-16,24,-7,16
1491693388525,2,-19,8,7,-31,125,83,22,13
1491693388525,2,-3,14,-30,-28,-108,-11,9,-7
1491693388527,0,-5,-37,-62,-38,-29,9,-14,-26
1491693388527,0,22,36,38,-71,0,-25,4,20
1491693388527,1,14,5,20,76,119,81,29,22
1491693388527,1,-1,-12,-23,21,-128,46,-5,0
1491693388573,2,1,-2,-11,18,-28,-73,-2,8
1491693388573,2,-18,-1,45,-63,50,60,-22,-30
1491693388574,3,-21,4,12,77,86,35,13,-13
1491693388574,3,14,4,-39,-46,-62,-5,1,-3
1491693388575,0,11,-6,9,-6,-58,-5,-37,-2
1491693388575,0,14,9,9,0,65,-2,16,8
1491693388576,1,-6,17,56,30,-1,21,-22,1
1491693388576,1,3,-11,-23,-27,3,24,10,0
1491693388622,2,-12,-11,-5,24,-15,61,15,3
1491693388622,2,10,7,-53,-38,-15,-89,-2,-7
1491693388623,3,1,16,-1,-43,-7,-23,-16,-28
1491693388623,3,-5,9,42,91,12,59,24,32
1491693388624,1,16,1,-85,4,-117,-99,-8,-3
1491693388624,1,-5,7,-35,-58,58,-13,6,18
1491693388630,2,6,11,-97,-91,-12,16,8,2
1491693388630,2,3,-9,6,117,5,49,2,-5
1491693388671,3,-6,-10,58,-31,-7,-45,-13,2
1491693388671,3,-11,-9,102,18,3,5,-9,-13
1491693388672,0,2,12,82,-47,21,91,-10,-14
1491693388672,0,-5,-21,0,18,25,-77,19,9
1491693388673,2,-6,6,49,27,41,1,7,-8
1491693388673,2,0,-25,-80,-110,-94,35,-4,-4
1491693388675,3,-1,-5,-45,-11,-13,-53,-13,0
1491693388675,3,-3,-12,-13,-2,64,24,-3,0
1491693388719,0,2,8,-13,6,-57,-35,-1,8
1491693388719,0,-4,14,32,1,-21,-44,-11,-14
1491693388768,1,-1,-1,-7,32,-23,-42,9,26
1491693388768,1,1,0,-26,-27,-39,-22,-23,-29
1491693388768,3,0,8,-8,-43,50,40,-5,-16
1491693388768,3,-14,-2,20,-8,1,6,5,-1
1491693388769,0,9,-10,-35,43,-13,-40,-6,12
1491693388769,0,-26,-28,-45,11,-32,-22,-1,-12
1491693388770,1,-2,-1,-46,-47,70,16,-6,1
1491693388770,1,14,3,8,45,-80,-4,-3,-11
1491693388816,2,-12,-5,8,22,85,37,8,6
1491693388816,2,11,8,27,-45,-81,-45,-1,2
1491693388817,0,1,5,-5,9,-6,24,14,16
1491693388817,0,0,-10,31,58,100,44,-13,6
1491693388818,1,-2,10,29,11,-73,-32,-10,-14
1491693388818,1,-8,-19,-40,3,-5,32,6,-12
1491693388819,1,4,-1,1,16,-10,-28,-6,-14
1491693388819,1,5,12,3,-4,49,52,13,8
1491693388865,2,-17,-12,-12,-26,77,118,13,3
1491693388865,2,2,15,-14,-26,-58,-93,-24,-3
1491693388866,3,-1,-6,-22,-16,-55,2,17,-4
1491693388866,3,1,9,-18,-82,-19,-43,-14,27
1491693388866,2,4,11,33,-73,-24,-69,-12,0
1491693388866,2,-17,-17,-7,73,16,1,-2,-29
1491693388868,3,-9,-15,-21,-9,-79,-63,-9,10
1491693388868,3,26,13,3,0,51,-33,-21,9
1491693388914,0,-6,-10,17,13,-13,65,-6,-3
1491693388914,0,5,15,-13,-45,47,72,15,8
1491693388915,1,-1,-8,-1,21,16,-23,-2,13
1491693388915,1,-8,-18,-17,8,-63,18,15,-17
1491693388915,2,-3,6,-36,-36,-3,-106,-22,-10
1491693388915,2,4,4,-2,-19,-23,50,9,4
1491693388963,3,-4,3,-9,41,28,79,1,2
1491693388963,3,-18,-4,25,44,99,4,-10,-11
1491693388963,0,20,5,24,15,-68,12,25,20
1491693388963,0,9,5,13,13,53,29,-4,28
1491693388964,1,11,15,-9,-19,-3,-3,3,-2
1491693388964,1,-9,-22,11,65,-52,-28,-1,-2
1491693388970,3,5,-4,13,18,-30,-35,-5,-16
1491693388970,3,18,6,-22,-15,-39,2,-5,6
1491693389012,0,-10,-5,4,-5,-15,4,-7,-7
1491693389012,0,-12,-5,7,-10,18,30,31,-7
1491693389012,1,-1,-2,-14,2,-9,-39,-40,-9
1491693389012,1,-13,7,36,11,10,-5,0,-9
1491693389013,2,-7,-13,-31,32,66,-13,-4,6
1491693389013,2,16,6,-7,-21,-79,-110,-5,-18
1491693389020,0,11,14,55,25,104,-2,-3,13
1491693389020,0,-17,-7,-25,-43,-26,16,-2,-14
1491693389060,1,-1,-16,-56,-7,-95,33,8,12
1491693389060,1,9,4,-82,-43,-16,-10,-3,6
1491693389061,2,-3,23,-17,-84,-17,-20,-1,-1
1491693389061,2,-12,-25,-54,126,39,17,-21,-9
1491693389061,1,10,36,61,-7,104,45,-11,-9
1491693389061,1,-9,-4,-7,-32,-65,-4,0,-14
1491693389063,2,8,-14,-17,3,9,-54,1,13
1491693389063,2,16,7,30,-44,-48,0,-22,8
1491693389111,3,-18,-28,-52,9,-48,-32,12,-4
1491693389111,3,-3,5,35,-4,64,-74,-6,-2
1491693389112,0,10,4,20,9,-83,63,29,33
1491693389112,0,-5,1,21,5,31,37,-4,25
1491693389113,2,-6,-9,-6,15,-19,-64,-16,-1
1491693389113,2,-6,-10,1,7,35,-23,7,8
1491693389114,3,27,17,44,-8,-28,53,10,16
1491693389114,3,-20,13,16,-23,57,6,-31,-25
1491693389158,0,-6,-19,36,0,9,2,3,-20
1491693389158,0,1,-4,56,-28,-29,3,13,16
1491693389159,1,-15,-15,-6,-6,-66,-47,-14,-21
1491693389159,1,-7,-16,29,-15,-7,-33,10,-1
1491693389160,3,-1,1,7,43,-49,-89,14,20
1491693389160,3,-13,-17,-3,30,-9,35,-40,-8
1491693389161,0,16,14,4,41,49,14,33,5
1491693389161,0,5,33,31,5,64,87,4,-15
1491693389207,1,-3,-14,56,-4,-37,-6,-3,-1
1491693389207,1,-2,-10,-52,-49,-86,-118,2,20
1491693389208,2,-9,-23,3,-21,-42,1,-26,-18
1491693389208,2,13,-1,-8,-12,18,-19,22,34
1491693389209,0,-23,-19,-57,-100,-40,-38,-6,-47
1491693389209,0,-3,-7,5,43,0,-26,-4,0
1491693389210,1,14,4,-12,43,47,40,-1,-5
1491693389210,1,-5,-7,-33,-19,-36,2,25,14
1491693389255,2,1,12,-37,-75,-48,-16,-46,-3
1491693389255,2,-2,-8,-22,74,-44,-79,-7,4
1491693389257,3,0,-8,-14,5,57,-78,-4,8
1491693389257,3,16,22,17,60,38,69,15,8
1491693389258,0,-2,-14,-50,31,26,-13,26,41
1491693389258,0,-3,8,-61,-64,-57,38,-15,-13
1491693389259,1,-16,-12,-72,-67,21,7,-2,-3
1491693389259,1,7,-8,-12,-23,-25,15,7,-1
1491693389304,2,-7,7,11,-50,10,17,-9,1
1491693389304,2,-3,-5,29,111,41,20,8,-4
1491693389305,3,-10,1,80,58,80,107,27,-17
1491693389305,3,19,29,43,-18,-32,-80,-38,-6
1491693389306,1,-38,-22,-26,-2,-22,-54,-25,-29
1491693389306,1,27,17,-14,35,41,65,16,2
1491693389307,2,8,-4,13,36,-25,-68,14,11
1491693389307,2,4,39,42,17,127,108,20,-4
1491693389354,3,11,-2,-50,9,-44,-45,-8,5
1491693389354,3,-28,-38,74,79,38,-39,-14,-6
1491693389355,0,1,29,-37,-49,-15,62,17,-24
1491693389355,0,-3,-32,-17,-62,-108,-37,-1,-39
1491693389356,2,-8,-21,4,-6,58,-52,-5,-47
1491693389356,2,-27,-6,23,10,46,-5,-14,-30
1491693389357,3,0,-7,-43,60,3,-2,-3,-28
1491693389357,3,20,29,53,-72,-80,-46,-14,12
1491693389402,0,-5,17,98,127,35,42,3,20
1491693389402,0,15,-22,-121,-66,-93,-60,8,16
1491693389403,1,-1,-12,3,-68,-17,22,-8,14
1491693389403,1,-27,-9,-15,-50,112,79,5,24
1491693389404,3,21,12,-18,111,80,2,6,47
1491693389404,3,-8,-20,-6,12,-128,18,12,12
1491693389405,0,21,4,5,11,-32,9,-2,18
1491693389405,0,-19,3,-55,-45,25,-19,-30,-3
1491693389450,1,-15,-29,-37,45,-128,-91,14,11
1491693389450,1,7,39,-25,81,117,-6,-4,-9
1491693389452,2,-14,-32,-30,16,-61,12,-16,-10
1491693389452,2,18,19,38,37,-74,-25,2,-7
1491693389454,0,-1,4,-27,48,30,-27,-3,-18
1491693389454,0,-8,19,69,5,127,-1,8,-2
1491693389455,1,27,36,71,19,-36,15,-6,30
1491693389455,1,-8,-36,-81,-6,-8,-47,14,-16
1491693389499,2,-16,-45,-27,-60,-55,49,-37,7
1491693389499,2,21,22,41,78,60,53,38,44
1491693389501,3,-7,4,-20,-61,-9,-25,4,38
1491693389501,3,1,10,-30,-104,-32,-12,-21,-6
1491693389502,1,-1,-13,6,-45,-34,42,-10,-10
1491693389502,1,-20,-7,24,100,47,61,14,-2
1491693389503,2,14,27,-3,-58,-3,37,-11,-8
1491693389503,2,3,-8,19,-1,66,19,0,-7
1491693389548,3,-14,-18,28,-23,-24,-20,-10,-34
1491693389548,3,20,9,-27,-118,-69,-83,1,-4
1491693389597,0,-3,4,39,50,85,83,-5,-15
1491693389597,0,10,1,78,39,11,62,18,35
1491693389598,2,12,17,64,100,-92,-88,0,81
1491693389598,2,-7,-40,-66,43,-65,-128,-32,50
1491693389599,3,-16,-11,-47,-81,33,27,-20,34
1491693389599,3,10,8,-2,49,-65,-53,2,40
1491693389600,0,2,0,25,-103,25,45,15,30
1491693389600,0,-11,7,-10,-19,-43,-8,-6,-13
1491693389646,1,3,-6,-15,76,38,-42,7,21
1491693389646,1,4,43,66,44,86,43,-11,-9
1491693389647,2,-18,-25,-128,-25,-70,-7,3,6
1491693389647,2,-2,-39,-45,0,-61,-29,-1,-8
1491693389648,3,-6,6,14,21,73,76,-8,-8
1491693389648,3,-3,-22,-45,12,-76,-51,-20,19
1491693389650,3,-6,1,-20,-37,83,116,4,-43
1491693389650,3,13,-1,-24,13,-128,-49,-2,-44
1491693389695,0,-21,-6,-56,13,58,-98,-16,-57
1491693389695,0,15,-1,30,-31,-29,21,1,-27
1491693389696,1,-6,-7,-23,7,-13,33,-4,-24
1491693389696,1,-5,9,35,95,88,-54,-1,-4
1491693389697,0,0,10,42,21,64,-1,14,-6
1491693389697,0,-2,10,38,50,36,-11,1,-10
1491693389699,1,-3,-4,-14,-30,-33,11,1,6
1491693389699,1,0,9,-6,-51,53,54,15,-4
1491693389743,2,-7,-50,-128,-116,-126,-15,-35,0
1491693389743,2,2,-9,6,26,20,-11,-3,-7
1491693389744,3,1,61,124,50,74,-32,2,-8
1491693389744,3,-1,-22,-31,106,-8,15,6,9
1491693389745,1,-8,5,18,-24,-53,-12,18,3
1491693389745,1,-1,-3,-51,-28,-45,1,-24,-7
1491693389745,2,-1,-1,-9,-31,41,-65,7,34
1491693389745,2,-5,-5,-2,41,65,86,6,-17
1491693389791,3,0,-3,26,-7,-84,4,-14,5
1491693389791,3,-3,20,28,39,39,37,6,-17
1491693389792,0,-4,-27,-29,-85,-62,-1,21,-6
1491693389792,0,3,-6,-21,27,-21,-82,-30,-4
1491693389793,2,10,2,17,11,24,15,-9,13
1491693389793,2,4,58,115,10,89,3,30,8
1491693389794,3,5,-36,-128,49,-11,-6,-1,0
1491693389794,3,-4,-24,-63,-92,-44,-42,-8,-3
1491693389840,0,-12,47,127,68,127,-59,-4,-7
1491693389840,0,0,-63,-97,-4,-91,1,12,17
1491693389841,1,5,26,99,57,-9,-128,-13,-3
1491693389841,1,1,27,25,25,127,115,4,-15
1491693389842,3,-7,-34,-80,-49,-52,48,-6,-65
1491693389842,3,18,16,11,-3,34,-10,4,-95
1491693389843,0,-7,26,39,-14,106,7,-13,-128
1491693389843,0,3,-22,-77,-22,-128,14,-10,-106
1491693389889,1,-27,-12,73,-11,39,2,4,-80
1491693389889,1,-2,11,-10,4,0,4,1,-11
1491693389890,2,9,-43,-100,-23,-80,4,0,17
1491693389890,2,-3,40,81,-37,71,-50,-9,24
1491693389890,0,8,19,38,21,-55,-62,-3,40
1491693389890,0,1,-4,9,26,-61,3,2,55
1491693389891,1,13,21,12,43,49,43,-2,116
1491693389891,1,1,7,34,2,-11,-64,-18,127
1491693389938,2,0,-2,-15,5,22,-4,13,124
1491693389938,2,7,4,-9,-27,32,-26,-29,127
1491693389940,3,9,14,69,-22,22,-3,10,118
1491693389940,3,21,-20,9,42,-10,1,21,84
1491693389941,1,16,20,-27,-50,-20,-45,-38,-23
1491693389941,1,-22,19,89,60,38,-15,14,-32
1491693389942,2,-10,-1,-63,-113,10,52,-14,-73
1491693389942,2,-5,0,-38,-86,66,56,3,-44
1491693389987,3,-6,-82,-128,-38,-128,-109,-16,-65
1491693389987,3,2,-16,14,14,-56,-55,-13,-59
1491693389988,0,11,58,127,116,113,51,8,-42
1491693389988,0,-16,47,-17,47,4,23,25,-27
1491693389990,1,-17,-25,-35,-6,89,24,4,-46
1491693389990,1,-4,-62,-107,-104,-85,-70,-18,-48
1491693389991,2,-6,-51,-34,17,46,17,-9,-53
1491693389991,2,-6,15,64,5,21,-26,-13,-39
1491693390035,3,8,95,118,-58,81,57,19,-24
1491693390035,3,0,43,115,127,127,46,21,-25
1491693390037,0,-16,-83,-100,-124,-113,-105,-38,-14
1491693390037,0,-11,-32,-14,-87,-68,4,-16,-47
1491693390039,2,6,47,-70,59,70,1,11,-11
1491693390039,2,25,5,-44,46,-15,-33,-10,8
1491693390040,3,3,-25,-25,29,-58,-46,2,-15
1491693390040,3,-3,11,10,-27,1,29,6,-7
1491693390084,0,2,28,79,52,14,25,1,-10
1491693390084,0,33,-25,-32,-11,-23,7,-2,-6
1491693390086,1,18,0,45,31,56,7,4,25
1491693390086,1,14,-21,-31,-81,-104,-23,-9,-27
1491693390087,3,10,-14,-16,-13,-125,-64,-10,3
1491693390087,3,-23,-14,-19,-10,64,-10,7,-18
1491693390088,0,3,10,42,-18,-39,43,-8,12
1491693390088,0,-30,-7,18,10,-60,19,-2,-11
1491693390133,1,-26,11,62,24,29,17,-5,-23
1491693390133,1,-26,-6,-71,-5,-20,-2,-4,4
1491693390134,2,-13,-24,-37,3,25,-13,5,6
1491693390134,2,-10,-18,-92,-13,-43,-35,19,15
1491693390135,0,0,9,47,15,-55,10,3,13
1491693390135,0,-12,31,116,81,8,10,3,3
1491693390136,1,-4,-38,-106,-51,-72,-14,9,2
1491693390136,1,-12,-16,-29,-88,-34,-25,-29,-11
1491693390182,2,-10,1,-70,-1,17,25,11,-10
1491693390182,2,-24,-14,-1,-6,9,-16,-3,-7
1491693390183,3,-3,18,84,42,-13,3,-5,-9
1491693390183,3,-19,-6,69,69,31,10,10,13
1491693390184,1,-19,-8,-39,5,5,-5,-1,-13
1491693390184,1,-2,-7,-44,6,-24,-30,5,11
1491693390185,2,-14,6,-15,-16,11,-11,-2,-4
1491693390185,2,-13,-3,20,-8,50,49,5,7
1491693390230,3,0,9,76,7,-27,50,-1,-3
1491693390230,3,-14,5,14,19,-11,-4,1,1
1491693390232,0,-28,-31,21,11,-62,-3,-3,-10
1491693390232,0,-8,0,43,13,26,-10,-15,8
1491693390233,2,-13,5,53,63,109,25,2,-10
1491693390233,2,11,-8,-80,-74,-59,18,1,3
1491693390233,3,-35,-32,-51,2,29,-20,-2,-10
1491693390233,3,20,14,30,8,-1,-15,9,8
1491693390279,0,20,13,-5,10,7,3,-3,-3
1491693390279,0,6,-10,-1,11,3,19,2,-11
1491693390281,1,31,6,30,59,116,33,15,16
1491693390281,1,3,-5,-62,-59,-58,-15,4,7
1491693390282,3,-11,-27,-65,-17,-72,4,1,-4
1491693390282,3,16,18,64,44,116,65,3,5
1491693390283,0,21,-9,-51,30,-68,-111,-2,10
1491693390283,0,11,-18,-59,-76,-71,-25,-16,-4
1491693390328,1,10,10,7,-31,70,-19,3,8
1491693390328,1,4,-19,-17,40,-14,15,1,1
1491693390329,2,-6,26,-67,27,127,91,10,7
1491693390329,2,15,-7,-128,2,-103,-62,-12,1
1491693390330,3,-1,-4,29,-39,5,-14,-4,-4
1491693390330,3,10,4,62,-75,-11,10,4,2
1491693390331,0,6,-5,127,-14,-68,-33,-21,-5
1491693390331,0,-11,-2,126,13,74,71,10,-7
1491693390377,1,-5,21,61,15,84,89,9,-7
1491693390377,1,2,14,107,32,-96,-61,-12,-9
1491693390378,2,-14,-26,-74,-9,14,19,10,9
1491693390378,2,10,-16,-30,-69,-103,-30,-9,7
1491693390379,0,-23,-3,-18,-66,-8,12,-11,-32
1491693390379,0,11,14,12,1,41,21,10,28
1491693390380,1,-1,-18,-68,6,-46,-35,-1,2
1491693390380,1,0,-8,-32,-28,41,0,0,17
1491693390433,2,6,-2,-3,20,8,-75,-5,-5
1491693390433,2,-1,-5,4,-15,0,5,2,-9
1491693390435,3,-3,19,32,74,10,-25,-4,-15
1491693390435,3,-16,-24,-70,-33,-118,-54,-3,-16
1491693390436,1,19,10,-39,-41,-49,11,-2,4
1491693390436,1,-9,-13,-26,-28,42,-36,-11,-10
1491693390437,2,12,-1,-34,-18,-74,65,17,12
1491693390437,2,1,-3,-28,-62,-64,-17,-3,-5
1491693390474,3,6,17,28,-18,83,14,3,10
1491693390474,3,4,-1,-49,33,-27,-14,-7,-9
1491693390476,0,2,-7,33,-11,37,39,-6,-8
1491693390476,0,0,0,-36,-5,25,-45,0,-2
1491693390477,2,-15,7,27,30,79,3,6,-4
1491693390477,2,-8,-17,-29,42,-3,-5,-8,-13
1491693390478,3,-15,-11,-1,-22,-52,-28,-27,-23
1491693390478,3,23,18,-1,0,4,19,24,46
1491693390523,0,-6,-3,13,9,20,-44,-30,-13
1491693390523,0,-36,-9,-19,7,-20,-8,4,-3
1491693390525,1,-8,-5,-20,-36,-5,-12,-10,-9
1491693390525,1,8,-5,18,7,24,13,13,8
1491693390527,3,5,26,29,18,5,-2,16,13
1491693390527,3,-12,-13,-19,2,39,10,2,-18
1491693390528,0,-14,-9,-60,-43,-46,-12,-16,-22
1491693390528,0,-9,18,54,-97,-29,-22,0,10
1491693390572,1,-2,-27,-101,53,43,-21,0,-4
1491693390572,1,9,2,32,20,-20,102,-9,-9
1491693390573,2,-4,1,-14,-36,-51,-1,9,9
1491693390573,2,5,-12,-8,-20,-107,-81,-21,-15
1491693390575,0,2,-3,-39,53,23,-15,-4,-31
1491693390575,0,-2,8,-17,-29,13,35,11,5
1491693390576,1,-1,-1,-13,-73,-69,-43,-1,1
1491693390576,1,-10,-21,-22,48,-7,-17,-15,-1
1491693390620,2,-12,-1,11,-1,117,25,9,2
1491693390620,2,-7,-7,-9,34,-15,-21,-4,-19
1491693390622,3,-2,-35,-36,-57,-103,9,-28,-1
1491693390622,3,-8,0,37,-32,26,29,2,-11
1491693390623,1,-9,7,31,-5,63,92,11,-3
1491693390623,1,0,4,-9,69,-77,41,-6,-7
1491693390624,2,23,-7,28,5,-23,-42,7,25
1491693390624,2,3,9,31,22,33,-4,-4,-5
1491693390669,3,-3,-3,76,104,104,10,10,3
1491693390669,3,-6,4,-78,-128,-40,34,35,3
1491693390671,0,-4,-6,-22,-79,-46,-15,-73,-20
1491693390671,0,5,-26,-88,-30,-80,5,29,39
1491693390672,1,-5,19,24,34,-2,-64,-6,-38
1491693390672,1,-1,12,5,-44,119,30,14,30
1491693390673,2,-19,-4,39,42,-14,29,-6,-4
1491693390673,2,10,2,57,49,0,-6,-16,10
1491693390767,3,14,3,-2,-4,-7,6,8,17
1491693390767,3,-19,-12,-64,-15,-18,-25,-29,-48
1491693390769,0,3,20,35,6,52,28,42,15
1491693390769,0,0,-6,-17,4,29,-50,-32,-19
1491693390770,2,-4,3,47,-28,81,22,-15,-35
1491693390770,2,-5,3,-40,18,-12,7,21,20
1491693390771,3,8,-12,-18,-30,-108,-37,-3,0
1491693390771,3,-23,-25,-8,13,23,-28,-16,-12
1491693390815,0,0,3,18,16,9,56,15,4
1491693390815,0,-6,12,18,-21,-23,-23,-18,-16
1491693390817,1,-15,-7,-65,-87,35,10,11,0
1491693390817,1,12,-10,1,117,-25,10,-19,11
1491693390818,0,4,11,2,83,82,45,6,10
1491693390818,0,3,-20,3,1,-48,-5,11,16
1491693390819,1,-11,13,17,51,38,-4,6,-19
1491693390819,1,-1,12,17,2,2,-78,-13,8
1491693390864,2,-5,-17,-34,-74,-29,59,6,5
1491693390864,2,-6,8,27,-46,19,32,-17,0
1491693390865,3,-19,-19,-10,35,-13,44,5,-14
1491693390865,3,15,8,0,15,-18,-100,-20,-12
1491693390867,1,14,-3,-9,-33,-62,-30,-12,-3
1491693390867,1,-14,14,25,-40,20,8,24,17
1491693390913,2,-6,0,-5,-54,70,-70,-23,-14
1491693390913,2,10,-6,-9,66,-61,66,9,21
1491693390914,3,-4,12,11,17,39,-9,16,-10
1491693390914,3,-5,-28,-49,3,-80,26,-5,0
1491693390916,0,9,3,7,-13,5,-28,-12,-6
1491693390916,0,-13,-2,-5,-18,-15,-62,7,0
1491693390917,2,6,-20,-54,-28,-22,9,-17,-2
1491693390917,2,-13,-17,9,24,99,76,34,-7
1491693390962,3,12,1,-7,4,-103,-62,-5,40
1491693390962,3,-7,-14,34,9,-5,-45,9,-7
1491693390963,0,14,-1,14,30,14,40,2,13
1491693390963,0,-10,-3,18,22,38,2,-9,-23
1491693390965,1,0,-21,-27,-37,9,36,-14,-6
1491693390965,1,-8,-4,-13,-48,72,0,9,-3
1491693390966,3,-3,5,18,-28,32,-20,2,-17
1491693390966,3,-2,-9,-11,74,40,29,-6,13
1491693391011,0,-1,7,24,22,12,-7,19,5
1491693391011,0,3,23,-1,10,-35,59,-13,-1
1491693391014,1,-5,16,47,32,32,19,-3,-8
1491693391014,1,-9,-6,-57,-43,-4,0,15,-45
1491693391015,3,0,-12,3,65,-57,-43,7,18
1491693391015,3,-10,-11,5,-19,-2,17,-25,-14
1491693391016,0,-4,1,4,-30,-11,4,25,26
1491693391016,0,21,-4,-8,15,3,-63,5,15
1491693391059,1,-12,-15,-6,7,11,26,-19,-2
1491693391059,1,12,7,5,9,21,-1,-5,10
1491693391061,2,-8,10,30,-41,14,-2,-2,-23
1491693391061,2,-16,-6,-12,41,7,-9,-5,15
1491693391063,0,16,18,29,-33,37,-14,-8,-8
1491693391063,0,-17,-2,14,118,79,-47,10,22
1491693391064,1,2,-23,-15,-5,-76,36,8,10
1491693391064,1,17,3,3,-23,-15,7,-4,4
1491693391108,2,-14,-7,-32,-57,20,-33,-2,-13
1491693391108,2,-4,-1,3,13,3,-22,3,-6
1491693391110,3,26,24,16,9,21,41,19,11
1491693391110,3,2,1,9,6,-29,-39,-8,25
1491693391111,1,13,17,-12,1,2,25,-6,5
1491693391111,1,1,18,26,7,49,3,11,-2
1491693391112,2,-9,4,6,-35,97,53,-8,-29
1491693391112,2,-13,7,13,36,-80,-11,21,-5
1491693391157,3,-9,-25,-48,-29,48,31,23,-11
1491693391157,3,1,-1,6,0,-59,-59,-33,-29
1491693391158,0,-20,1,26,49,16,11,-19,-9
1491693391158,0,18,3,17,17,71,46,-5,1
1491693391159,2,-7,-17,2,44,23,-1,10,-9
1491693391159,2,-29,-12,2,-62,-41,-23,-31,-45
1491693391160,3,15,33,78,89,112,-16,10,36
1491693391160,3,21,10,-13,32,-66,32,9,9
1491693391206,0,2,-17,-43,-39,57,94,-11,-6
1491693391206,0,0,2,9,2,-71,-104,-18,0
1491693391207,1,-17,1,30,-9,48,108,-8,-9
1491693391207,1,-4,10,-10,10,-3,-2,-7,1
1491693391208,3,-15,-11,-21,-20,-43,8,8,-24
1491693391208,3,-6,-4,42,63,127,-4,3,9
1491693391209,0,15,19,-19,-92,-128,-12,17,35
1491693391209,0,-4,-15,5,-4,-20,2,-30,-29
1491693391254,1,10,27,78,109,14,-30,1,39
1491693391254,1,-9,-9,-55,-91,70,30,25,-8
1491693391256,2,-8,-11,-7,31,-22,-9,-10,-16
1491693391256,2,9,-11,7,-12,-61,0,22,13
1491693391257,0,-27,4,9,33,-73,-52,-12,-13
1491693391257,0,14,7,-19,-5,34,-61,-25,28
1491693391258,1,1,-13,-8,4,-40,-14,-2,-29
1491693391258,1,-12,-15,-33,1,22,48,9,-9
1491693391303,2,15,-12,-22,5,-75,-78,-14,19
1491693391303,2,-8,3,47,-6,55,44,18,-16
1491693391307,3,-1,-3,-38,-31,39,3,4,44
1491693391307,3,16,9,88,-13,-58,5,10,15
1491693391308,1,5,8,-1,44,-12,-1,8,-3
1491693391308,1,-8,-16,26,25,-77,-9,21,-2
1491693391309,2,14,7,51,50,14,-37,-18,-10
1491693391309,2,-8,55,102,-21,43,13,17,13
1491693391352,3,-20,-49,-122,-73,-84,-60,-12,-26
1491693391352,3,-5,-27,-59,-20,-20,9,-19,-15
1491693391353,0,21,-1,13,-14,61,-8,27,27
1491693391353,0,0,-4,-10,20,60,50,4,-1
1491693391354,2,-5,-10,-39,-48,22,-33,-28,-13
1491693391354,2,2,11,39,-12,4,1,20,-1
1491693391358,3,-7,11,25,47,69,-14,-14,3
1491693391358,3,-4,-35,-53,6,-82,-18,-12,4
1491693391400,0,-7,11,7,-18,53,22,-22,-41
1491693391400,0,14,13,19,23,21,-5,27,31
1491693391402,1,-10,-22,39,-30,-128,-95,-1,-25
1491693391402,1,-3,30,-57,-31,127,10,-32,4
1491693391403,2,-3,-23,-20,89,-39,-13,-7,1
1491693391403,2,-9,-31,-34,30,-84,-62,-3,-15
1491693391404,3,-5,1,2,-23,127,28,-9,-12
1491693391404,3,1,-2,32,-32,8,11,10,3
1491693391449,0,-3,2,-9,-39,110,74,22,17
1491693391449,0,6,13,65,70,-48,-83,-41,-33
1491693391451,1,-9,-2,-52,-49,-124,-66,1,-10
1491693391451,1,-7,-9,46,-4,117,28,-8,-9
1491693391452,3,3,-20,-73,-43,-85,-38,-9,1
1491693391452,3,-2,-1,-65,-93,-84,-128,-3,-21
1491693391547,0,3,7,27,-80,101,-81,-5,25
1491693391547,0,4,-26,-97,-5,-64,-17,-10,-2
1491693391548,1,-7,18,47,69,70,16,-2,-10
1491693391548,1,0,6,13,66,54,1,3,-1
1491693391550,2,2,2,87,58,46,45,11,-10
1491693391550,2,-3,4,-45,-70,15,64,9,12
1491693391552,0,9,7,90,67,-27,54,11,6
1491693391552,0,-4,2,-45,-6,-21,-4,17,0
1491693391595,1,14,-10,13,-51,56,-1,1,12
1491693391595,1,-10,23,21,-8,86,8,2,-13
1491693391597,2,0,-19,-79,-8,-128,-11,2,6
1491693391597,2,-7,15,71,27,127,116,9,8
1491693391600,3,-4,-12,-47,18,-105,-15,-3,-10
1491693391600,3,-10,-19,-13,-77,-128,-100,-12,-16
1491693391602,2,-2,14,39,31,10,61,-5,-16
1491693391602,2,-21,-9,-60,-96,76,24,-6,-8
1491693391644,3,2,-4,66,127,-49,-2,-6,10
1491693391644,3,20,43,67,24,40,47,9,1
1491693391645,0,-3,6,49,103,60,61,26,25
1491693391645,0,19,0,-23,-112,-118,-26,0,15
1491693391645,3,-4,8,-31,-3,-11,7,-4,0
1491693391645,3,1,16,67,35,119,88,-2,3
1491693391646,0,13,-1,-49,-128,-128,32,14,11
1491693391646,0,-11,-65,-91,41,20,-57,-12,-12
1491693391693,1,7,11,66,41,113,-24,4,3
1491693391693,1,-1,7,18,47,50,58,-5,-6
1491693391741,2,-6,3,9,-2,-25,-68,-5,-7
1491693391741,2,-10,13,7,-85,-26,1,4,6
1491693391790,0,-6,30,90,52,85,19,0,-7
1491693391790,0,-7,-17,-63,-77,49,54,18,32
1491693391791,1,11,-51,-53,-2,8,-28,-23,-11
1491693391791,1,2,0,10,-36,-65,66,10,10
1491693391791,2,6,-16,-45,-56,-128,-62,-7,1
1491693391791,2,-2,13,11,-9,36,5,-26,-34
1491693391793,3,-11,35,105,76,84,88,28,8
1491693391793,3,-16,35,39,-78,51,76,0,-2
1491693391839,0,7,-83,-117,34,-118,-126,-18,-14
1491693391839,0,9,-1,40,37,71,-50,-4,-5
1491693391840,1,-11,-31,-64,-6,-94,6,-16,-11
1491693391840,1,-14,89,125,-47,120,98,25,3
1491693391840,2,4,9,12,-18,7,-38,-12,-3
1491693391840,2,-5,-1,31,-16,36,30,7,2
1491693391841,3,-6,17,12,54,42,-21,-20,-9
1491693391841,3,8,-25,-72,-1,-54,-62,2,-1
1491693391888,0,-5,4,41,-55,-9,-34,-4,-8
1491693391888,0,-2,-9,-14,73,-15,-8,-5,-6
1491693391888,1,5,14,-27,-56,84,71,12,11
1491693391888,1,19,-20,-24,-1,-86,-20,8,10
1491693391889,3,-4,5,50,18,-90,-46,-16,-7
1491693391889,3,-18,-27,-57,-40,97,50,3,-13
1491693391890,0,51,-3,-25,60,-105,-17,11,15
1491693391890,0,-7,32,-77,-17,96,25,2,-6
1491693391936,1,-4,15,-10,44,-7,23,23,10
1491693391936,1,-2,-36,-101,-67,-18,-28,-25,-14
1491693391937,2,-22,9,112,34,30,11,-14,-13
1491693391937,2,0,-7,68,-36,-22,15,12,17
1491693391938,0,8,-11,-60,15,18,-11,-5,-14
1491693391938,0,7,8,85,5,-91,-4,-3,-6
1491693391939,1,-8,23,127,21,37,-28,-7,2
1491693391939,1,-6,-13,72,16,18,16,12,7
1491693391985,2,-23,-22,22,10,-23,-34,-11,-10
1491693391985,2,2,-5,29,-82,5,-26,-8,3
1491693391986,3,12,-26,40,-10,-13,-21,3,-1
1491693391986,3,13,13,28,22,-27,-33,-13,-7
1491693391988,1,4,2,44,19,-21,-39,-12,-12
1491693391988,1,15,-3,-79,30,26,18,-2,-11
1491693391989,2,0,0,-46,11,-19,-7,1,25
1491693391989,2,-4,9,-104,-25,-52,-7,5,1
1491693392034,3,-9,1,-76,16,26,2,-20,1
1491693392034,3,15,26,-91,40,-48,-25,0,-2
1491693392036,0,4,3,-30,-8,30,2,2,3
1491693392036,0,-5,-25,7,-33,-14,0,-10,8
1491693392037,2,-5,-7,20,47,-19,19,8,-10
1491693392037,2,17,-19,-16,-51,6,-37,-13,7
1491693392037,3,1,2,101,-30,-94,19,-3,-15
1491693392037,3,-3,8,95,-38,3,-62,-5,0
1491693392083,0,-1,-11,26,12,12,-6,-3,-13
1491693392083,0,-14,-15,67,8,-10,4,2,16
1491693392084,1,-3,-7,-4,-19,56,6,3,2
1491693392084,1,-15,11,43,15,-1,5,14,3
1491693392085,2,-12,14,42,34,22,1,-10,-5
1491693392085,2,-13,-4,-37,-23,-32,54,2,-12
1491693392086,3,15,-19,-75,-79,-36,-62,-10,25
1491693392086,3,-7,-3,-31,18,16,24,0,-18
1491693392131,0,-7,9,-28,-16,42,-21,-3,7
1491693392131,0,-14,-17,4,56,117,24,-5,-24
1491693392132,1,2,7,-39,-20,-31,-6,6,8
1491693392132,1,-2,-4,-9,-26,-72,-16,-1,6
1491693392180,3,-14,13,-9,31,31,-4,-1,-1
1491693392180,3,7,-12,-38,-9,15,20,11,6
1491693392181,0,-8,-12,-12,5,-22,-25,-11,-5
1491693392181,0,8,13,31,12,50,9,2,-5
1491693392182,1,-1,-13,24,5,-63,30,7,6
1491693392182,1,-9,-5,-7,-6,67,-60,1,2
1491693392183,2,-1,-1,19,-13,56,-7,-8,9
1491693392183,2,4,-11,-42,8,-32,4,-2,-36
1491693392229,0,-2,9,48,-3,-10,2,2,7
1491693392229,0,-32,-7,-17,33,39,-8,-13,-21
1491693392230,1,1,-7,-7,-21,-10,-13,-4,0
1491693392230,1,5,1,0,-2,-58,1,-4,6
1491693392231,2,-6,-2,9,21,25,-19,-2,-5
1491693392231,2,15,18,42,-9,73,0,-1,4
1491693392232,1,-8,-15,-69,-59,76,39,-3,-5
1491693392232,1,26,2,13,53,-60,-37,9,6
1491693392278,2,18,7,43,23,32,-7,-8,-8
1491693392278,2,6,2,-104,-55,-53,-69,-8,17
1491693392279,3,-13,10,-16,21,122,-19,-4,-16
1491693392279,3,-13,0,-35,17,29,51,-6,-1
1491693392280,2,9,28,-1,-57,46,33,4,-8
1491693392280,2,4,-13,109,64,-35,-22,-15,9
1491693392281,3,13,-19,85,22,-120,-23,-5,-6
1491693392281,3,-4,-5,127,9,84,13,8,13
1491693392326,0,-14,-34,22,6,-72,-88,-7,-18
1491693392326,0,8,-1,5,-37,24,32,-3,-9
1491693392327,1,4,45,127,80,118,11,13,23
1491693392327,1,-10,-10,-1,-3,20,-86,-17,-20
1491693392328,3,8,-30,-55,-9,-39,-37,-16,-14
1491693392328,3,9,1,11,-3,-56,2,5,4
1491693392329,0,2,8,-9,53,24,42,7,-1
1491693392329,0,-1,26,11,-24,-41,-28,0,8
1491693392375,1,-13,1,-21,-28,58,20,-12,-36
1491693392375,1,6,19,91,33,82,104,19,18
1491693392376,2,-14,-22,-111,-63,-74,-74,-17,-29
1491693392376,2,2,13,27,87,-33,-37,8,19
1491693392377,0,1,1,15,2,60,-7,4,3
1491693392377,0,4,5,-24,9,36,36,2,0
1491693392378,1,-13,14,61,43,77,74,9,-3
1491693392378,1,-1,-13,-35,-44,-128,-23,-19,-7
1491693392424,2,17,24,38,120,127,93,17,5
1491693392424,2,16,-16,-23,-42,-103,-43,-5,-2
1491693392425,3,-14,-15,0,-41,2,-20,5,6
1491693392425,3,19,23,-1,26,64,47,-4,3
1491693392426,0,-4,-3,15,-8,-67,-18,-8,-1
1491693392426,0,-7,11,11,24,52,10,-5,-9
1491693392427,1,-13,-18,-24,-5,-46,-39,-2,1
1491693392427,1,6,-6,39,-18,-10,-2,14,7
1491693392521,2,-5,-16,-76,-41,-8,-26,-8,-4
1491693392521,2,-1,3,14,-63,-38,17,2,-14
1491693392522,3,-1,-2,-13,94,-5,1,-14,9
1491693392522,3,-14,-11,34,52,39,3,-5,-18
1491693392523,1,-4,13,4,-78,28,3,-4,-16
1491693392523,1,-2,-14,-27,-30,-39,-2,0,-3
1491693392524,2,18,-3,-19,-5,3,-66,-8,-6
1491693392524,2,1,15,8,-10,127,87,0,8
1491693392570,3,8,14,28,49,-126,-82,8,9
1491693392570,3,2,-12,-68,-36,-73,-82,-8,-7
1491693392571,0,-3,1,-11,1,15,10,-8,-10
1491693392571,0,-25,-15,-37,-45,97,6,-4,7
1491693392572,2,-6,-7,-8,-47,-64,46,9,3
1491693392572,2,-2,-19,-44,36,-83,-68,-17,3
1491693392573,3,12,16,52,-4,-43,82,-5,11
1491693392573,3,-4,3,-20,84,48,-22,-12,-20
1491693392619,0,6,-14,14,-56,-57,0,13,3
1491693392619,0,-8,-1,27,8,20,-57,-16,-3
1491693392621,1,2,2,-52,-54,91,53,20,24
1491693392621,1,3,1,20,-38,-84,-56,-4,-6
1491693392622,0,-5,-4,-31,-54,56,9,-7,-1
1491693392622,0,19,30,76,26,38,71,-3,7
1491693392623,1,-12,-11,-29,7,-44,29,21,-8
1491693392623,1,2,-5,-29,-43,19,-51,-20,12
1491693392668,2,-20,9,46,-8,77,4,13,-6
1491693392668,2,-6,-26,-26,-28,-68,67,7,7
1491693392669,3,20,5,2,49,-34,-62,-21,0
1491693392669,3,-3,16,18,-40,39,-32,-5,5
1491693392670,1,-2,-18,-24,-24,-35,-64,-11,-8
1491693392670,1,-12,-10,13,86,84,50,11,5
1491693392671,2,-5,-22,-12,-74,-85,-65,-23,-28
1491693392671,2,-10,23,42,56,127,-49,-13,-3
1491693392766,3,-9,-4,33,-50,-69,76,12,12
1491693392766,3,10,-16,-106,-124,-79,-86,-19,0
1491693392777,0,-4,18,100,25,102,58,6,7
1491693392777,0,-2,-2,-86,15,-61,-80,-5,-26
1491693392778,2,9,-17,-40,16,5,10,20,39
1491693392778,2,12,12,60,-58,-118,-24,-9,3
1491693392779,3,-6,17,16,-20,96,-4,6,0
1491693392779,3,3,-17,-34,42,-43,66,12,-14
1491693392862,0,-12,-18,-26,4,44,-25,-21,-6
1491693392862,0,6,2,-5,-61,-23,13,19,16
1491693392863,1,-3,7,19,49,-44,-48,-7,-8
1491693392863,1,7,25,127,61,84,-61,-10,2
1491693392864,3,-16,-31,-25,3,-21,35,-19,-25
1491693392864,3,11,25,23,-77,72,85,9,6
1491693392865,0,-17,12,29,121,98,16,7,-19
1491693392865,0,8,-14,-29,-19,-74,-76,7,6
1491693392911,1,-9,-12,-15,-8,46,57,-2,-24
1491693392911,1,-4,-13,-23,-28,34,-65,-15,11
1491693392913,2,0,6,-6,-55,-28,-25,2,-15
1491693392913,2,3,15,90,73,127,36,-6,-7
1491693392914,1,0,14,-6,-17,-5,-6,1,1
1491693392914,1,-11,-27,-37,-41,31,-36,-9,-14
1491693392916,2,11,10,-13,-46,-55,-25,1,27
1491693392916,2,11,0,-6,-16,-43,-74,-11,-13
1491693392960,3,-15,1,-4,-44,-77,-11,-15,2
1491693392960,3,-2,10,64,118,117,89,17,-17
1491693393009,0,-2,-12,-14,-68,9,-11,-24,0
1491693393009,0,-2,2,-5,13,-29,-45,14,-1
1491693393010,2,-8,-1,25,63,37,11,10,-5
1491693393010,2,-1,-6,33,-1,40,33,2,10
1491693393011,3,3,-7,-25,-18,-25,-23,-6,5
1491693393011,3,-11,-5,-11,-43,5,-6,0,28
1491693393012,0,13,7,24,18,75,19,10,1
1491693393012,0,-10,-5,-45,-12,-87,51,-15,-22
1491693393060,1,-7,-1,-5,17,52,-53,4,10
1491693393060,1,-9,2,29,9,7,-20,-7,-8
1491693393061,3,11,0,13,10,20,16,20,5
1491693393061,3,-7,5,-20,-41,-67,-20,-8,-1
1491693393062,0,8,12,-8,-26,1,-8,-7,15
1491693393062,0,-5,-10,1,30,6,21,9,-12
1491693393063,0,-13,-12,-12,-39,41,63,-9,-22
1491693393063,0,4,24,33,46,44,-34,-2,8
1491693393156,1,-3,0,-3,-15,-42,40,8,2
1491693393156,1,0,-4,-12,20,-33,49,-7,-18
1491693393157,2,9,3,-20,-19,-15,-50,0,1
1491693393157,2,-16,-13,16,5,80,40,6,-14
1491693393158,1,-14,5,10,27,19,-60,-14,-12
1491693393158,1,11,-4,-14,-18,-48,-24,-6,13
1491693393160,2,-1,-8,13,45,-1,33,18,-2
1491693393160,2,9,6,-23,-108,40,70,-4,8
1491693393204,3,0,-5,-9,72,12,-50,-9,-2
1491693393204,3,-5,-17,9,38,21,36,-16,-12
1491693393205,0,1,13,17,4,-3,-57,61,14
1491693393205,0,4,15,17,0,-1,126,-17,16
1491693393206,2,-9,12,-56,-75,-22,43,-44,-26
1491693393206,2,-22,-54,-12,71,55,112,61,5
1491693393207,3,40,41,10,-7,0,-48,-1,10
1491693393207,3,4,9,22,19,-13,41,35,16
1491693393301,0,-12,1,24,48,97,-85,-14,-8
1491693393301,0,7,-4,-5,14,-64,54,3,19
1491693393302,1,-10,-3,1,-36,-99,4,13,1
1491693393302,1,1,-1,-4,-59,44,-45,-11,-4
1491693393303,3,-1,-4,5,46,96,80,38,26
1491693393303,3,-5,-2,-7,-28,-104,-35,-26,-25
1491693393304,0,-10,-18,-3,-19,-96,84,2,15
1491693393304,0,6,15,48,39,-20,-97,-26,-20
1491693393351,1,17,22,11,60,61,98,30,10
1491693393351,1,-15,-2,-9,-29,78,-128,-30,-11
1491693393352,2,-19,-31,-17,10,-66,110,-6,-6
1491693393352,2,16,15,12,25,45,6,22,1
1491693393354,0,-3,-4,25,60,13,-104,-29,-6
1491693393354,0,5,5,15,-43,-19,27,-8,-12
1491693393355,1,6,-2,-57,50,-15,-19,7,13
1491693393355,1,0,-9,-4,50,51,20,-25,-27
1491693393399,2,-7,-4,-43,-102,-55,-33,21,5
1491693393399,2,0,-21,-32,-8,9,77,0,14
1491693393401,3,-21,-10,11,-8,31,5,0,-10
1491693393401,3,3,32,52,37,127,-89,-17,5
1491693393402,2,-6,22,34,50,72,83,-1,-4
1491693393402,2,-3,0,-30,14,70,-110,-6,-2
1491693393448,3,21,-11,-48,-128,-124,-68,-14,0
1491693393448,3,-2,-11,-28,21,-11,42,10,-1
1491693393449,0,5,3,5,-42,29,-56,-24,30
1491693393449,0,-13,13,59,15,91,121,24,-8
1491693393451,1,-4,-17,-69,22,-98,39,2,4
1491693393451,1,6,-5,1,-30,6,-60,-12,12
1491693393452,3,-4,37,89,-40,91,98,55,-7
1491693393452,3,-21,-42,-37,41,-128,-84,-52,-10
1491693393497,0,16,2,-39,-42,-20,-14,-40,-13
1491693393497,0,18,25,4,21,48,7,2,23
1491693393498,1,2,-13,13,-1,-29,58,18,6
1491693393498,1,0,35,84,72,127,127,51,-8
1491693393499,2,-21,-4,6,11,15,-44,0,-12
1491693393499,2,-9,-27,-92,-68,-60,-42,-26,-34
1491693393501,3,12,-11,-15,-1,-92,-44,-7,54
1491693393501,3,9,4,8,-66,22,52,-4,2
1491693393546,0,-3,30,43,81,90,65,37,1
1491693393546,0,10,18,75,49,28,-17,-1,16
1491693393550,1,-9,-36,-97,-101,-65,-98,-36,-19
1491693393550,1,-12,-17,-2,-52,75,18,8,-15
1491693393551,0,3,-25,-81,-54,-49,6,5,-24
1491693393551,0,-2,-27,-29,26,-85,-43,-4,1
1491693393552,1,1,-11,1,11,17,1,-9,6
1491693393552,1,2,12,10,-3,13,35,24,-10
1491693393594,2,-10,19,109,-13,127,97,29,17
1491693393594,2,-8,-16,-46,33,-80,-54,-10,9
1491693393596,3,13,7,-1,30,-42,-22,5,-11
1491693393596,3,-8,-31,-103,-50,-65,27,21,9
1491693393598,1,-3,10,-14,47,8,4,-15,-7
1491693393598,1,-1,-24,-64,17,-74,-34,-14,-9
1491693393599,2,0,15,101,46,76,6,-1,-4
1491693393599,2,-6,-12,-68,-35,-47,21,18,-15
1491693393643,3,-4,-3,7,4,34,-21,-7,-9
1491693393643,3,-1,32,87,-29,69,39,3,10
1491693393644,0,-2,-6,-32,52,-7,-27,16,2
1491693393644,0,-14,-29,-4,76,-1,15,-21,-11
1491693393646,2,5,-17,-48,-57,-77,7,19,-8
1491693393646,2,0,21,42,29,10,16,-29,-8
1491693393647,3,-4,2,40,37,15,88,10,-7
1491693393647,3,10,25,-52,-27,-71,-25,0,20
1491693393691,0,-16,-55,-56,47,-34,-55,-10,-19
1491693393691,0,3,-13,-16,-16,-101,-18,5,-6
1491693393693,1,-4,1,21,33,43,55,-20,-4
1491693393693,1,6,9,37,-36,7,17,5,-4
1491693393695,3,-14,-13,-2,-44,23,-82,-11,-7
1491693393695,3,1,11,34,22,17,98,7,6
1491693393695,0,3,-3,-37,-33,-103,-47,3,7
1491693393695,0,-2,20,13,-79,127,-37,3,6
1491693393740,1,1,-28,-107,76,-107,-99,-27,-17
1491693393740,1,-10,-44,5,89,48,-6,-24,-23
1491693393742,2,8,17,14,-29,16,-4,13,39
1491693393742,2,-6,-4,34,-44,38,67,-2,-7
1491693393743,0,6,63,111,45,42,70,-29,-12
1491693393743,0,9,0,-43,25,-96,-5,22,37
1491693393744,1,8,-27,-43,-7,-55,62,-2,-6
1491693393744,1,-2,51,127,-51,95,76,6,14
1491693393789,2,1,-7,-9,60,-70,7,11,-9
1491693393789,2,-10,-38,-92,-12,-88,-48,-19,-7
1491693393791,3,3,-18,-86,-116,-117,-53,-26,-5
1491693393791,3,-11,-7,8,-11,-14,-58,-11,-14
1491693393793,1,-18,-5,40,31,54,14,2,-6
1491693393793,1,3,16,-30,-32,-74,-43,-6,-2
1491693393794,2,-3,-21,-3,-59,21,29,0,-6
1491693393794,2,10,6,106,125,39,-26,-16,-13
1491693393838,3,6,25,66,-47,62,-14,25,10
1491693393838,3,-6,-29,-74,58,-100,15,16,-2
1491693393840,0,-8,-33,-16,-15,-53,-25,-32,-40
1491693393840,0,8,-9,-13,17,23,11,-4,-24
1491693393841,1,-16,11,19,-11,12,-38,-4,-57
1491693393841,1,7,14,-3,33,51,88,31,6
1491693393842,2,-8,-17,-34,-75,-19,-45,-2,-4
1491693393842,2,-9,43,22,-25,17,32,6,5
1491693393886,3,1,8,-9,27,18,11,-17,20
1491693393886,3,-5,-16,-14,35,16,-22,8,25
1491693393889,0,16,4,-15,6,-2,19,-2,63
1491693393889,0,2,-6,-11,-106,43,-59,-25,33
1491693393890,2,-10,6,31,14,62,-12,-18,-16
1491693393890,2,-16,31,120,107,99,43,10,9
1491693393891,3,14,-18,-95,-30,-58,35,11,5
1491693393891,3,-8,-59,-67,-106,-81,-44,-19,-28
1491693393935,0,-14,3,57,1,20,20,4,-8
1491693393935,0,11,-7,2,-15,-40,8,8,-8
1491693393937,1,-9,40,127,61,88,-10,4,-1
1491693393937,1,-19,-1,18,67,10,16,-12,-10
1491693393939,3,6,-9,-104,-73,-80,-29,-7,-16
1491693393939,3,-8,-3,-35,-16,-41,86,-9,-7
1491693393939,0,-3,-20,12,-3,1,27,19,-10
1491693393939,0,18,21,70,-53,18,-6,1,9
1491693393984,1,3,-35,39,40,-10,-18,-31,-13
1491693393984,1,-2,31,101,2,54,31,8,-6
1491693393986,2,-3,12,-8,17,0,1,16,0
1491693393986,2,-6,-22,-22,-6,-24,17,-6,9
1491693393987,0,12,5,-23,7,-19,-104,-14,4
1491693393987,0,-10,12,-33,-12,-58,44,1,-18
1491693393988,1,-31,-15,33,15,40,26,10,7
1491693393988,1,12,18,-18,30,-14,-32,-10,1
1491693394033,2,-15,-26,-22,-21,-9,7,-4,-10
1491693394033,2,8,-18,-72,-40,-57,-23,6,3
1491693394035,3,-7,7,37,25,-5,-37,-14,-8
1491693394035,3,16,13,65,11,80,13,14,4
1491693394036,1,4,13,9,-12,16,-10,0,0
1491693394036,1,-20,-6,-11,7,24,-23,-20,-16
1491693394037,2,6,18,-35,-18,16,22,7,8
1491693394037,2,3,2,23,24,14,4,5,-3
1491693394082,3,2,-24,-15,-30,-5,0,-1,1
1491693394082,3,-4,-1,48,9,11,-2,5,5
1491693394084,0,14,-5,5,-21,-55,-16,1,3
1491693394084,0,-12,-13,-5,10,-9,-5,-5,-11
1491693394084,2,-14,20,50,38,44,83,15,-3
1491693394084,2,5,-5,-1,7,-24,-6,-4,1
1491693394085,3,-7,-13,-67,-33,12,-38,-10,-4
1491693394085,3,15,15,-15,0,-57,9,-11,0
1491693394130,0,-16,6,46,37,24,-20,-5,-10
1491693394130,0,5,8,4,-6,3,10,-4,-1
1491693394180,1,12,-12,-87,-6,72,53,26,19
1491693394180,1,9,-16,-30,1,-56,-29,-1,11
1491693394228,3,-10,-1,88,-5,-24,-13,4,2
1491693394228,3,8,4,55,-4,27,-28,4,2
1491693394230,0,-2,12,4,0,-36,12,1,5
1491693394230,0,4,0,8,1,-3,9,-6,5
1491693394231,1,-12,-4,-5,11,61,28,-4,-15
1491693394231,1,0,-2,-17,-32,-75,7,-2,-3
1491693394232,2,-26,-13,23,29,81,-2,1,-2
1491693394232,2,1,7,-9,10,-77,-33,-8,-2
1491693394325,0,9,-10,13,-19,-20,-9,-5,-7
1491693394325,0,-2,11,-19,-11,46,52,15,11
1491693394327,0,16,12,119,-16,-8,-2,4,14
1491693394327,0,-7,-16,40,42,61,30,-11,-9
1491693394328,1,-7,16,-43,-17,-12,12,-3,10
1491693394328,1,0,-9,-33,-14,-67,-58,-10,-9
1491693394330,2,2,-1,9,-23,-29,12,8,-4
1491693394330,2,-4,-13,-22,20,-22,-26,1,4
1491693394374,3,2,-7,-45,27,67,38,-7,-7
1491693394374,3,-5,-1,-34,-43,95,11,-1,2
1491693394375,0,15,-17,-33,29,-37,-13,3,14
1491693394375,0,-15,23,43,18,-30,49,-3,-29
1491693394377,3,-4,3,79,53,67,24,-1,-4
1491693394377,3,-11,-10,-55,-28,0,3,-5,-9
1491693394378,0,1,0,12,-2,-13,35,5,2
1491693394378,0,-17,2,35,35,29,-19,7,2
1491693394472,1,12,-9,-43,-39,-38,-19,-6,4
1491693394472,1,3,0,13,-11,-81,-21,1,-2
1491693394476,2,-6,1,8,4,-13,3,-4,-6
1491693394476,2,0,16,13,0,86,-8,-6,6
1491693394479,0,1,-20,-26,-7,-115,-37,-7,-8
1491693394479,0,-1,-5,5,34,71,31,-11,-19
1491693394480,1,6,8,-4,6,-68,-11,-10,1
1491693394480,1,17,15,32,12,106,79,18,13
1491693394521,2,-1,10,26,-3,5,-74,-3,-16
1491693394521,2,-6,-4,-2,-13,-23,18,5,-8
1491693394522,3,6,-14,-58,-34,13,-16,5,-1
1491693394522,3,-6,-6,-22,-42,60,45,-2,0
1491693394523,1,-5,-16,-68,-55,-1,-8,-4,-4
1491693394523,1,11,-9,-29,-74,-81,-21,-14,1
1491693394524,2,-11,10,24,-55,43,24,-6,-17
1491693394524,2,-11,18,49,100,127,40,16,2
1491693394569,3,8,-30,-60,-42,-72,-45,3,22
1491693394569,3,0,9,26,8,-43,-78,-10,-18
1491693394570,0,-2,-8,-25,5,-8,0,-20,-22
1491693394570,0,-1,-1,-2,-30,37,15,14,6
1491693394571,2,6,4,-32,-37,-9,-30,-5,-10
1491693394571,2,6,-6,-49,-103,13,18,4,3
1491693394573,3,-2,7,27,30,-35,-19,-18,-14
1491693394573,3,-4,-12,11,50,22,11,15,13
1491693394618,0,3,-8,9,3,-33,-11,-4,6
1491693394618,0,-4,11,-16,-20,42,-10,-10,3
1491693394619,1,-1,-6,54,34,78,30,18,-14
1491693394619,1,3,-8,-71,-50,-53,-104,-30,-15
1491693394620,3,4,-6,-3,-43,19,-19,-15,-2
1491693394620,3,-7,16,25,-36,106,16,29,-8
1491693394621,0,-5,-9,-20,63,-83,-82,-1,-2
1491693394621,0,2,-10,0,40,-43,-42,-21,-8
1491693394668,1,-2,0,-16,-7,-37,21,-8,-7
1491693394668,1,-11,-10,1,-24,8,51,4,10
1491693394670,2,3,25,65,-19,124,-76,-1,-1
1491693394670,2,-9,1,6,32,-69,-14,15,12
1491693394671,0,4,-3,9,-36,31,53,5,5
1491693394671,0,-9,2,8,-35,-14,15,5,-19
1491693394672,1,2,-7,-26,-16,42,34,-1,8
1491693394672,1,-3,4,24,26,33,-4,11,19
1491693394715,2,-1,1,2,10,-54,69,0,-5
1491693394715,2,-4,13,92,51,116,-22,-14,-2
1491693394717,3,-15,-16,-66,-19,-102,9,3,-13
1491693394717,3,-4,-14,-28,-33,-53,-80,-14,-26
1491693394718,1,7,5,19,48,12,-39,0,0
1491693394718,1,-12,6,38,69,90,30,-17,-38
1491693394720,2,-10,-12,-18,-55,-103,-25,18,-26
1491693394720,2,0,8,24,-29,46,-85,-15,-19
1491693394764,3,-2,5,-20,37,-18,82,0,-8
1491693394764,3,14,-20,-11,-16,-14,-39,16,38
1491693394766,0,5,7,7,25,-18,49,2,25
1491693394766,0,-3,3,-7,-22,24,-16,6,76
1491693394767,2,-2,-17,-57,-39,-4,13,1,0
1491693394767,2,-4,8,41,-41,-30,-3,-1,-4
1491693394768,3,-8,-2,1,87,127,12,11,9
1491693394768,3,11,10,22,53,-79,27,15,4
1491693394813,0,-5,-13,-27,-29,-91,48,-8,-35
1491693394813,0,0,-18,-66,-81,-66,-48,8,-4
1491693394814,1,4,9,31,-27,115,12,1,15
1491693394814,1,-1,18,79,74,28,18,-12,6
1491693394815,3,-4,-8,-7,-65,-37,56,12,-7
1491693394815,3,13,11,10,0,39,-50,-13,4
1491693394816,0,-14,0,37,-4,57,-19,2,-5
1491693394816,0,-5,-5,-4,74,10,-22,9,-22
1491693394862,1,2,10,53,3,-38,-23,-23,11
1491693394862,1,-26,-26,-67,-36,-24,52,9,-27
1491693394863,2,9,-3,-45,-43,39,-60,-17,17
1491693394863,2,-4,-14,-68,-95,14,-2,5,-4
1491693394864,0,-1,5,-47,-93,78,-4,12,-2
1491693394864,0,-2,-5,37,126,14,97,10,6
1491693394865,1,15,-3,-41,-27,-15,-57,-19,-23
1491693394865,1,9,10,13,-11,-64,-41,-2,24
1491693394912,2,5,13,53,54,39,-11,13,5
1491693394912,2,-7,3,14,42,26,60,-21,-19
1491693394913,3,-14,-12,-20,-60,62,47,21,7
1491693394913,3,-2,-2,14,-85,-60,-31,9,-10
1491693394914,0,6,-8,-58,3,-47,82,-6,2
1491693394914,0,15,12,6,-39,28,-56,-8,10
1491693394916,1,-6,-10,-25,46,-50,-46,-19,-16
1491693394916,1,4,6,34,-25,101,23,9,-8
1491693394961,2,-17,-13,-32,10,-123,-35,-9,-13
1491693394961,2,-1,-7,-35,-50,18,-13,-14,9
1491693394963,3,0,-6,0,51,23,34,10,-7
1491693394963,3,1,12,-21,-87,56,-19,7,10
1491693394964,1,6,10,13,-115,-12,-49,4,24
1491693394964,1,-16,-2,-24,110,85,48,2,-24
1491693394965,2,-7,-18,-40,-99,-30,23,-1,7
1491693394965,2,14,20,-3,-31,7,13,11,-4
1491693395008,3,-1,-11,-13,-35,-33,-25,-10,19
1491693395008,3,-2,-7,23,47,47,-27,-14,-18
1491693395009,0,-3,11,35,74,90,-2,-3,-24
1491693395009,0,-10,2,-14,2,-71,77,49,23
1491693395010,2,-8,0,7,-59,-24,8,-12,-22
1491693395010,2,-4,-18,35,80,78,-11,-6,3
1491693395011,3,19,24,53,115,-48,-77,21,14
1491693395011,3,-3,-18,-37,-19,-8,80,-4,-17
1491693395057,0,9,4,-12,-46,-52,-103,-22,13
1491693395057,0,-5,4,-6,-20,99,17,-17,-16
1491693395058,1,-3,3,-24,-16,-71,117,23,2
1491693395058,1,-14,-14,-2,-10,-20,-106,1,-3
1491693395059,3,8,0,-17,-1,55,56,5,-16
1491693395059,3,-5,4,14,21,-33,-79,-8,10
1491693395066,0,-10,-20,-15,-30,43,59,16,-11
1491693395066,0,5,1,-11,-44,-77,-20,-7,23
1491693395106,1,-14,-11,-23,-21,13,27,-2,-19
1491693395106,1,7,3,30,43,51,78,21,16
1491693395107,2,-3,-10,-33,-51,-67,-128,-1,4
1491693395107,2,4,1,19,28,69,36,-24,-20
1491693395108,0,8,3,42,93,43,10,35,24
1491693395108,0,-2,10,-1,-60,-39,16,-14,-4
1491693395113,1,-11,-10,7,38,17,-29,-12,-17
1491693395113,1,-5,5,49,26,11,-29,-21,-21
1491693395203,2,-8,-9,-18,-29,-9,117,19,0
1491693395203,2,9,-11,-42,-16,-8,-55,-4,-7
1491693395205,3,-20,-12,-18,-2,84,-54,4,-17
1491693395205,3,17,7,-28,-10,-128,34,7,8
1491693395207,1,6,5,5,-18,-4,13,9,-24
1491693395207,1,1,-6,-15,-13,-45,9,-10,29
1491693395209,2,0,-11,16,51,40,-80,5,4
1491693395209,2,-5,-3,-20,-48,-66,-28,12,29
1491693395252,3,5,-8,34,17,33,-30,10,15
1491693395252,3,0,16,-3,-18,-19,-54,-23,-14
1491693395254,0,-8,3,-26,-48,70,108,-5,8
1491693395254,0,-4,-13,22,69,21,-106,-13,-5
1491693395255,2,2,5,40,45,-8,-22,12,10
1491693395255,2,-8,12,68,25,-15,80,-5,-13
1491693395256,3,-8,-16,-54,11,127,-4,-18,-1
1491693395256,3,-7,-7,3,-36,-104,-21,3,-18
1491693395300,0,-5,10,-12,65,-16,-72,-2,15
1491693395300,0,0,-13,24,-81,-17,-40,0,2
1491693395302,1,11,13,34,93,-23,92,23,27
1491693395302,1,-24,-23,-1,-10,47,-16,-20,-38
1491693395303,3,4,38,126,-10,108,16,12,41
1491693395303,3,5,-20,-87,-82,-54,9,-8,-5
1491693395304,0,-18,-28,-48,-78,-68,63,-9,-19
1491693395304,0,-4,-11,-93,110,-8,-32,5,5
1491693395349,1,-2,-19,0,-27,24,-26,-20,-28
1491693395349,1,21,34,35,7,-20,-25,18,12
1491693395351,2,34,34,83,-4,59,-30,8,13
1491693395351,2,-26,8,-41,-79,89,-57,-7,-17
1491693395352,0,17,-15,-23,123,-37,69,-1,-20
1491693395352,0,35,19,7,-89,16,-24,-24,14
1491693395353,1,0,12,-33,-57,-24,65,35,21
1491693395353,1,1,-7,-2,-22,-43,22,11,9
1491693395398,2,-25,-11,2,-113,41,-13,-3,-3
1491693395398,2,-1,3,11,73,41,-4,8,-5
1491693395399,3,-3,-3,1,2,-4,46,-14,-7
1491693395399,3,10,1,22,34,23,-2,20,16
1491693395401,1,2,33,109,70,-5,-9,-36,-20
1491693395401,1,-17,-28,-99,-88,60,99,8,0
1491693395401,2,2,-22,5,99,-128,-107,-22,-7
1491693395401,2,-4,-19,-50,-17,41,63,17,-20
1491693395447,3,-8,-16,-25,-38,73,-48,-12,-8
1491693395447,3,-2,5,-18,-31,-41,59,-14,-8
1491693395459,0,-7,-6,18,-49,40,65,6,12
1491693395459,0,4,19,52,-6,-65,-29,-5,-13
1491693395460,2,-33,-25,-67,-3,46,-13,12,8
1491693395460,2,20,8,37,38,-104,41,-41,-12
1491693395461,3,-13,-25,-41,22,42,5,15,-20
1491693395461,3,2,-17,-41,-36,-75,52,-23,9
1491693395495,0,24,23,41,-46,-42,-82,4,25
1491693395495,0,-17,-2,-1,44,74,4,-11,-2
1491693395497,1,19,5,-24,-34,-8,30,-3,3
1491693395497,1,-23,0,85,56,70,4,6,-26
1491693395498,3,-4,-1,0,-13,48,-24,-12,-10
1491693395498,3,-5,-5,1,56,72,5,2,-2
1491693395499,0,-23,23,125,14,97,-33,-33,-17
1491693395499,0,-5,-18,-78,-47,-69,-7,30,-2
1491693395544,1,-3,-18,-33,-85,-91,-31,-52,-11
1491693395544,1,-1,-1,-30,-1,30,-83,7,5
1491693395545,2,0,19,-78,-94,126,111,8,12
1491693395545,2,-8,-21,63,100,-63,-35,-14,-8
1491693395546,0,5,0,5,52,-8,83,-2,-27
1491693395546,0,-21,-4,88,86,127,26,9,14
1491693395547,1,23,44,-18,-12,-39,45,28,29
1491693395547,1,5,-24,-76,-36,-74,-87,-30,-2
1491693395593,2,-6,2,5,82,81,-10,12,-16
1491693395593,2,-15,-29,-88,-128,-128,-77,4,14
1491693395594,3,0,-8,103,127,64,1,-1,-13
1491693395594,3,-3,21,8,49,78,-17,5,1
1491693395596,1,-2,26,24,-40,-38,-9,3,-3
1491693395596,1,8,26,25,-22,-26,-12,-7,-7
1491693395597,2,4,8,71,47,-6,8,-9,15
1491693395597,2,-13,18,104,101,127,52,4,-28
1491693395642,3,3,-28,-85,-102,-128,-11,-5,8
1491693395642,3,-14,-13,-107,-100,-8,8,1,-6
1491693395644,0,-7,-17,49,89,7,0,1,-5
1491693395644,0,20,20,6,20,-4,-47,10,6
1491693395645,1,-9,-38,-25,-25,-61,-86,-26,4
1491693395645,1,14,12,89,33,74,52,27,4
1491693395646,2,2,0,-93,-62,-64,-40,3,12
1491693395646,2,8,2,-26,-13,81,127,5,10
1491693395690,3,-9,17,34,25,106,38,5,-26
1491693395690,3,-15,-29,-32,82,-112,-11,2,-1
1491693395692,0,16,-13,2,-11,-5,20,0,13
1491693395692,0,0,17,42,39,51,-40,-24,-5
1491693395693,2,-8,-41,-96,80,-38,-12,13,2
1491693395693,2,7,-17,-51,-70,-94,-19,-22,-11
1491693395694,3,-6,9,61,101,114,40,11,-7
1491693395694,3,-5,4,-13,-57,-69,-12,-10,8
1491693395739,0,-16,12,77,12,40,-26,-14,-14
1491693395739,0,-8,-3,-58,-15,48,93,18,-4
1491693395740,1,15,-3,-27,-24,-66,-94,-15,14
1491693395740,1,13,19,75,92,96,26,18,30
1491693395741,3,-19,78,30,-128,82,36,17,10
1491693395741,3,2,-51,-128,127,-97,3,-7,-5
1491693395744,0,8,-30,-25,-88,-68,-24,-18,-6
1491693395744,0,0,2,-3,-76,63,-118,-24,-9
1491693395788,1,2,-18,56,-16,28,86,15,-7
1491693395788,1,4,38,19,-39,-11,-2,1,-3
1491693395790,2,-3,28,52,-15,91,-3,-5,-8
1491693395790,2,11,-14,-22,-12,-128,-72,-7,13
1491693395837,0,6,0,40,14,48,98,10,2
1491693395837,0,-25,21,-11,33,44,-10,-6,-8
1491693395885,1,-5,-59,-33,51,-117,-31,-17,-10
1491693395885,1,-2,8,88,106,76,2,-9,-7
1491693395887,2,22,15,-38,-101,-93,-17,16,13
1491693395887,2,-6,-7,-52,-70,10,44,-16,-3
1491693395888,3,-1,16,23,76,80,37,19,3
1491693395888,3,-15,-34,-67,-75,-113,-60,-17,-11
1491693395890,1,-8,-30,-83,-98,-119,-19,-11,-9
1491693395890,1,-4,17,24,-128,86,9,-6,-5
1491693395934,2,-8,-42,-84,111,-92,-42,-10,-6
1491693395934,2,9,-15,-16,-12,-28,68,8,5
1491693395936,3,1,-4,17,-23,-15,-87,-7,0
1491693395936,3,0,8,22,-22,42,-47,1,5
1491693395938,2,8,3,-69,17,48,-14,-2,-10
1491693395938,2,-7,-8,65,8,-88,-43,-11,-1
1491693395940,3,-38,26,-64,-85,93,90,5,-9
1491693395940,3,7,-94,-45,100,-75,-76,-21,-7
1491693395983,0,6,-13,-50,-101,8,73,-4,12
1491693395983,0,-14,18,47,34,55,50,8,-16
1491693395985,1,7,-63,-106,-128,-85,-7,-16,19
1491693395985,1,1,63,-57,91,127,47,15,-3
1491693395986,3,-25,33,72,127,-70,56,23,2
1491693395986,3,2,-108,-32,-128,-118,-92,-42,-7
1491693395987,0,24,62,127,92,93,27,28,21
1491693395987,0,-26,29,-11,-15,-109,18,3,-5
1491693396032,1,15,-22,-20,-58,23,-69,-28,-3
1491693396032,1,-19,44,32,46,-46,47,13,-10
1491693396035,2,1,-73,-58,-23,-96,-83,-21,2
1491693396035,2,6,4,99,29,111,45,11,1
1491693396036,0,-16,29,14,-117,93,36,17,-15
1491693396036,0,2,-71,-128,38,-128,-64,-21,-2
1491693396037,1,7,-46,-124,-56,-15,-7,-9,2
1491693396037,1,-8,38,79,47,40,92,20,-4
1491693396080,2,4,14,68,38,-38,3,-3,1
1491693396080,2,-12,-39,-108,11,32,-19,11,11
1491693396129,3,13,-41,8,124,-73,-65,-11,-4
1491693396129,3,9,56,82,49,101,49,18,3
1491693396133,1,-1,11,-46,-128,-13,27,25,16
1491693396133,1,7,-61,-128,-13,-98,-110,-54,-13
1491693396135,2,25,-7,21,27,127,-5,1,1
1491693396135,2,9,7,1,-52,44,-14,-7,2
1491693396137,3,-16,49,32,17,112,30,19,-7
1491693396137,3,-13,40,59,-20,44,48,2,2
1491693396178,0,-12,-10,-9,15,12,-3,-19,-5
1491693396178,0,-1,19,61,35,2,25,1,-6
1491693396181,2,-1,16,64,-32,-53,-35,-8,-15
1491693396181,2,16,-23,-98,-59,57,-20,6,26
1491693396183,3,-1,-1,-15,19,127,1,-14,-8
1491693396183,3,-16,66,127,56,47,20,21,-15
1491693396184,0,3,-42,-109,-71,-103,-35,-7,11
1491693396184,0,3,-55,-46,-112,-128,-106,-17,-8
1491693396227,1,-11,-9,44,-4,72,92,1,-19
1491693396227,1,-15,23,76,-63,28,49,5,2
1491693396228,2,-17,-24,-22,21,-64,-87,-24,-14
1491693396228,2,2,19,2,-14,6,-1,6,-5
1491693396229,0,-22,23,101,90,91,33,8,-2
1491693396229,0,-7,-3,-49,1,-33,41,-1,-11
1491693396230,1,9,-10,8,-51,-25,-28,2,12
1491693396230,1,2,-4,31,12,14,20,5,16
1491693396275,2,20,-65,-66,-82,-57,-48,-12,14
1491693396275,2,-11,15,70,-61,91,7,-2,-12
1491693396276,3,19,-27,-91,2,-58,-21,-4,2
1491693396276,3,-27,-1,42,51,48,6,-2,-7
1491693396277,1,1,57,115,105,61,0,2,3
1491693396277,1,-14,-70,-128,21,-84,-1,-13,-8
1491693396277,2,10,-21,5,29,-53,25,-5,-15
1491693396277,2,2,1,15,65,43,34,10,6
1491693396324,3,-4,12,52,-51,-8,-44,-21,-11
1491693396324,3,9,56,83,58,61,-11,15,6
1491693396325,0,-5,17,-32,-40,-13,23,9,6
1491693396325,0,21,-31,-42,3,-73,-42,-13,11
1491693396326,1,-7,-6,-41,-42,-42,51,18,-5
1491693396326,1,-17,-4,-34,-31,3,-16,-10,9
1491693396327,2,2,28,37,70,78,36,9,-2
1491693396327,2,2,28,13,-2,17,-2,3,-7
1491693396373,3,-5,40,99,31,93,-10,-2,10
1491693396373,3,6,-25,-103,4,-18,-31,-4,-10
1491693396374,0,-6,23,-5,-16,-73,-63,-15,-7
1491693396374,0,6,2,-23,-32,-12,49,2,2
1491693396374,2,-12,-17,-24,91,-51,-67,-11,-12
1491693396374,2,-5,-46,-85,-43,0,37,-17,-11
1491693396375,3,-17,-14,-37,-9,-6,-1,-1,-19
1491693396375,3,9,-24,-32,-62,-57,-28,6,15
1491693396421,0,-6,18,47,30,92,85,6,13
1491693396421,0,-22,-4,-1,8,-9,-5,2,-28
1491693396422,1,10,-28,-44,26,28,-27,10,18
1491693396422,1,-15,22,37,15,44,27,6,-10
1491693396423,3,-8,2,49,51,31,52,-1,-6
1491693396423,3,-13,-34,-73,24,39,-21,-13,-20
1491693396424,0,17,16,21,-24,-77,-13,14,19
1491693396424,0,-2,22,25,-8,121,-36,-22,-12
1491693396470,1,14,-13,-32,-27,6,51,11,3
1491693396470,1,4,6,64,-7,-16,7,-11,-12
1491693396471,2,-22,49,102,21,72,26,1,-17
1491693396471,2,4,-16,-44,13,-50,-1,-1,10
1491693396472,0,6,-27,-3,-17,-26,70,-3,5
1491693396472,0,-27,14,71,-2,17,4,13,-8
1491693396473,1,-5,-9,38,81,84,68,7,14
1491693396473,1,-5,-26,-95,-99,-76,3,-15,-13
1491693396520,2,-2,-5,7,18,9,-44,-1,-14
1491693396520,2,13,13,17,12,66,-6,-1,17
1491693396521,3,-6,-22,-76,-61,-98,-31,-15,-26
1491693396521,3,5,-29,-56,-63,-58,-32,-9,-1
1491693396522,1,10,5,15,-18,107,25,7,15
1491693396522,1,28,33,64,22,-38,-27,-12,-9
1491693396523,2,-6,5,-54,-62,97,-36,-5,-6
1491693396523,2,6,-7,18,83,-13,-26,4,1
1491693396568,3,-12,2,-9,-3,-28,-57,-16,-12
1491693396568,3,4,27,120,56,21,43,7,6
1491693396569,0,1,-21,-98,5,-81,-31,7,-9
1491693396569,0,0,0,-34,-96,-8,48,-10,21
1491693396571,2,2,20,59,36,29,-2,12,21
1491693396571,2,-12,-4,-9,-27,96,84,-6,-20
1491693396572,3,-2,-19,-35,7,-128,-37,-11,-1
1491693396572,3,-5,2,-11,-40,31,6,7,12
1491693396616,0,-3,2,23,17,29,-3,-3,-3
1491693396616,0,-1,8,8,4,57,-14,-4,-15
1491693396618,1,-10,3,12,38,73,5,4,1
1491693396618,1,-2,-23,-54,-47,-74,32,9,7
1491693396619,3,6,24,27,31,54,-2,4,2
1491693396619,3,-23,1,-9,-76,47,-20,-5,-7
1491693396620,0,-14,-8,49,34,1,21,-2,-12
1491693396620,0,2,-11,-21,6,-36,-5,-5,-11
1491693396665,1,14,-13,-22,-18,-94,-56,-10,20
1491693396665,1,-5,-8,-19,-7,3,-29,2,-8
1491693396666,2,-3,12,25,-21,99,80,6,18
1491693396666,2,-2,-6,-30,-31,-40,-79,3,-9
1491693396667,0,2,5,9,29,-4,-32,-4,-10
1491693396667,0,1,2,6,-7,27,21,10,12
1491693396668,1,-12,1,4,-35,38,9,-3,-9
1491693396668,1,-13,-12,0,-4,-39,16,3,-11
1491693396714,2,-3,-1,-12,24,31,0,6,2
1491693396714,2,1,10,40,1,-3,0,-8,2
1491693396715,3,-7,-12,-66,-38,-20,-8,3,-17
1491693396715,3,-5,3,3,17,-2,-25,-6,7
1491693396716,0,-15,-18,0,-34,-6,-20,-13,-8
1491693396716,0,0,-5,-31,30,87,56,2,-7
1491693396717,1,-8,-6,25,36,-87,-85,-13,-18
1491693396717,1,11,6,-7,-27,-53,33,9,14
1491693396763,2,14,10,44,51,-11,-16,3,23
1491693396763,2,-4,15,11,-16,38,14,2,-3
1491693396764,3,-11,-27,-67,-24,-42,-29,-9,-15
1491693396764,3,8,1,-6,39,51,40,-2,-2
1491693396765,1,-1,10,23,-28,87,-14,-9,1
1491693396765,1,-3,22,51,-43,52,92,20,5
1491693396766,2,0,-20,-23,114,-85,-64,6,12
1491693396766,2,-2,-24,16,2,8,-31,-13,-15
1491693396812,3,2,4,15,-14,8,50,13,14
1491693396812,3,0,6,37,42,80,-53,-19,-13
1491693396813,0,-2,13,-21,-34,63,23,1,-1
1491693396813,0,3,-15,-1,5,15,92,16,21
1491693396814,2,-16,11,21,-102,33,38,-9,-29
1491693396814,2,0,-16,-45,44,-28,-82,-11,-2
1491693396815,3,10,-2,-5,-41,-29,7,-9,-5
1491693396815,3,-7,-20,-59,-1,20,35,-2,-12
1491693396861,0,2,-17,-38,-74,-123,-39,3,16
1491693396861,0,-7,3,7,-34,75,32,0,-8
1491693396862,1,-8,46,112,18,97,24,23,-16
1491693396862,1,6,-17,-106,71,-122,-61,-19,-6
1491693396872,3,-8,8,10,-54,127,49,-5,9
1491693396872,3,-6,-8,33,87,1,39,-8,-9
1491693396875,0,-2,-12,53,22,-45,-49,3,-6
1491693396875,0,1,3,10,15,25,44,-4,-19
1491693396910,1,13,-2,-8,-43,-10,-30,-17,25
1491693396910,1,2,7,4,-40,-76,-27,7,10
1491693396912,2,-14,8,63,3,77,1,-16,-21
1491693396912,2,-13,-29,-87,-15,-128,-51,1,-6
1491693396913,0,-1,14,43,-48,44,8,9,8
1491693396913,0,1,18,113,50,-5,-43,-15,-6
1491693396914,1,-7,-29,-119,10,-87,-38,-7,0
1491693396914,1,10,-12,-18,-30,-74,-12,6,3
1491693396957,2,0,5,6,31,47,73,4,-8
1491693396957,2,-7,31,55,-33,125,-24,1,0
1491693396960,3,-9,-2,7,41,-5,29,8,-10
1491693396960,3,10,4,36,15,66,-60,-1,22
1491693396961,1,-13,4,-14,-66,45,18,2,-19
1491693396961,1,0,-16,-23,82,16,46,-3,-1
1491693396961,2,-7,-23,-41,-5,-36,-47,-22,-19
1491693396961,2,12,6,0,16,43,34,16,61
1491693397006,3,-3,11,30,-8,-27,-3,12,-22
1491693397006,3,-5,5,41,-44,44,53,16,14
1491693397007,0,-2,5,-56,-75,-12,-41,-12,-4
1491693397007,0,2,-5,31,54,-77,24,-8,-10
1491693397008,2,21,0,17,60,-81,37,24,41
1491693397008,2,-32,9,50,26,101,-4,-8,-27
1491693397009,3,-2,-10,-64,-52,-70,52,9,-1
1491693397009,3,4,-29,-17,0,-60,-47,-27,6
1491693397055,0,4,4,7,33,71,20,-1,-8
1491693397055,0,0,17,1,46,88,-5,7,-17
1491693397056,1,-7,-2,30,13,-12,8,-5,4
1491693397056,1,3,7,26,-4,-44,36,-2,-18
1491693397057,2,7,-11,-47,-20,-17,16,1,36
1491693397057,2,-1,13,38,-1,93,25,0,-35
1491693397058,3,-11,3,-8,-31,-21,28,19,-5
1491693397058,3,0,-4,-37,-5,-27,-34,-8,1
1491693397104,0,-4,-9,19,10,5,-85,-12,-24
1491693397104,0,-3,-7,-37,-7,-13,-17,-24,-7
1491693397105,1,-1,1,18,9,96,-36,5,18
1491693397105,1,-13,6,48,-6,18,56,12,-3
1491693397105,3,12,4,41,35,-10,-14,-6,9
1491693397105,3,9,16,15,0,47,8,4,1
1491693397106,0,-5,-7,-7,68,-9,-15,-9,-1
1491693397106,0,5,-15,-48,-36,-41,36,11,11
