1491693458091,0,-39,-112,-74,-110,17,-51,-52,-31
1491693458091,0,0,-71,-48,58,-29,10,-3,-7
1491693458093,1,52,21,100,69,85,25,24,26
1491693458093,1,-6,39,29,26,46,70,12,-1
1491693458095,2,-5,35,-45,-63,-60,-16,7,11
1491693458095,2,-21,35,-102,-82,-86,21,-5,-9
1491693458138,3,-20,72,-32,27,60,-21,-5,-10
1491693458138,3,-1,118,16,-78,-27,-103,-9,9
1491693458140,0,0,115,-53,99,58,-32,-10,-7
1491693458140,0,8,28,79,-4,-48,48,21,16
1491693458141,1,-13,-38,-103,-128,-128,-19,-13,0
1491693458141,1,8,-99,-23,3,112,-7,-28,10
1491693458142,2,-2,-94,72,72,67,68,18,-8
1491693458142,2,-1,-56,102,83,127,90,14,-5
1491693458187,1,-6,42,127,23,19,-78,5,2
1491693458187,1,0,15,-45,10,26,63,-30,-7
1491693458188,2,2,67,117,-27,45,-10,-5,-3
1491693458188,2,-11,36,-92,12,-115,-101,-35,-22
1491693458189,2,7,-34,21,-56,-28,-48,4,4
1491693458189,2,-6,-9,19,32,24,-9,15,12
1491693458236,3,14,-11,21,-5,-43,18,45,18
1491693458236,3,-9,-29,-64,35,-92,-31,-39,-1
1491693458237,0,15,44,126,-24,113,59,22,-11
1491693458237,0,5,-19,-107,5,-128,-41,-14,-5
1491693458242,1,5,3,-38,-67,125,33,21,-24
1491693458242,1,2,16,38,30,51,56,-14,-24
1491693458246,3,-13,4,-65,-4,104,-10,-61,-22
1491693458246,3,-1,-23,-50,20,-128,-70,-19,6
1491693458284,0,-13,-35,-88,-3,81,70,35,0
1491693458284,0,-10,-1,-9,-56,6,2,-38,3
1491693458287,1,-12,7,66,52,81,90,-4,13
1491693458287,1,24,56,26,-16,-47,-97,30,20
1491693458288,0,16,17,48,106,-128,-52,19,18
1491693458288,0,29,46,-69,-41,63,-70,-3,29
1491693458293,1,-2,-5,46,100,-56,54,-4,-14
1491693458293,1,-1,14,55,-87,-22,-68,72,22
1491693458334,2,-18,-20,-128,76,26,68,-28,-31
1491693458334,2,-23,-26,13,32,45,86,2,-18
1491693458336,3,17,27,38,32,76,-46,-4,-14
1491693458336,3,-10,-19,20,50,30,127,69,2
1491693458336,0,4,11,6,-90,-53,-57,-43,-10
1491693458336,0,-10,-7,18,-28,86,-45,1,-17
1491693458338,1,-13,-13,-47,-14,-17,1,4,-8
1491693458338,1,-2,6,19,-6,80,-88,-20,-20
1491693458382,2,-12,-4,-37,103,83,59,18,-6
1491693458382,2,-5,-9,2,-83,-69,-6,-69,-7
1491693458383,3,2,20,51,-29,5,-80,24,-4
1491693458383,3,-16,-16,6,23,110,74,-29,-12
1491693458384,1,22,11,31,38,-72,-62,-77,3
1491693458384,1,-15,-17,8,11,61,33,3,9
1491693458385,2,14,29,35,-16,-49,81,21,14
1491693458385,2,-8,-22,-24,-5,-43,10,27,-2
1491693458431,3,-3,-7,-13,21,-105,63,10,-7
1491693458431,3,-3,5,-1,30,-74,-38,-11,-9
1491693458432,0,36,5,17,-25,38,-69,-11,13
1491693458432,0,5,19,43,43,-13,-4,15,-2
1491693458432,2,-18,-20,0,15,59,-2,18,-10
1491693458432,2,18,22,36,-40,-25,11,2,-2
1491693458433,3,-17,-11,-52,-23,-22,8,-3,-4
1491693458433,3,18,8,16,23,3,26,6,5
1491693458479,0,2,1,-28,-25,5,-30,-9,0
1491693458479,0,-21,-21,2,39,-5,-10,-3,-12
1491693458480,1,12,-4,12,-19,-10,64,7,9
1491693458480,1,3,1,-14,-5,-53,-97,-16,0
1491693458481,3,-22,-4,13,-1,55,7,7,-4
1491693458481,3,-11,-24,-4,8,-5,19,-2,-10
1491693458482,0,-9,30,-13,-6,-18,-14,-9,-1
1491693458482,0,-9,-20,-3,10,13,7,4,-4
1491693458528,1,8,6,-9,-25,-4,-17,-3,-4
1491693458528,1,-7,30,-8,-16,-9,10,-9,-8
1491693458529,2,9,79,32,19,5,3,-5,1
1491693458529,2,-3,-7,-4,13,-22,-8,-4,-2
1491693458529,0,34,-10,14,-9,-33,11,17,7
1491693458529,0,1,35,30,8,-18,49,10,-3
1491693458531,1,7,-104,-27,-5,-17,-32,-7,-4
1491693458531,1,-6,-52,-4,7,12,15,6,-10
1491693458577,2,-10,-3,-10,9,-8,-22,-6,-12
1491693458577,2,-8,3,-1,-15,17,5,-3,-1
1491693458578,3,-12,45,12,28,13,52,9,0
1491693458578,3,25,24,6,2,2,-2,1,13
1491693458579,1,-19,12,29,-11,59,87,13,-2
1491693458579,1,-13,19,-33,26,-28,0,-12,-9
1491693458580,2,1,-55,-13,-20,-17,-29,0,4
1491693458580,2,0,59,27,-5,17,19,-6,-13
1491693458626,3,-12,-28,-19,7,-28,-20,4,-3
1491693458626,3,31,24,39,14,67,-23,-16,7
1491693458627,0,-31,-23,-30,-13,-47,46,10,-5
1491693458627,0,22,-24,-19,-3,19,-33,-5,4
1491693458628,2,-4,17,22,18,-58,-79,-18,-6
1491693458628,2,-3,-32,-17,-11,14,68,14,11
1491693458628,3,-3,24,-14,9,-66,-29,-17,-5
1491693458628,3,1,-18,3,13,8,-2,-9,-1
1491693458674,0,-4,7,-13,-9,26,28,7,0
1491693458674,0,-5,-8,41,32,86,81,19,-4
1491693458675,1,13,10,19,-9,-77,-104,-35,2
1491693458675,1,-8,-16,-40,-22,-73,21,0,-8
1491693458676,2,-1,-25,-49,-29,-14,7,-6,0
1491693458676,2,-5,29,16,7,-37,-35,-11,-9
1491693458677,3,-11,-4,-3,4,58,31,19,4
1491693458677,3,-1,-9,16,17,37,-81,-12,1
1491693458723,0,-2,15,30,-80,-65,107,33,-8
1491693458723,0,8,-6,-34,68,-42,-85,0,15
1491693458725,1,-13,0,-21,9,-2,-71,-18,-17
1491693458725,1,-6,-7,2,3,-2,4,-18,-5
1491693458726,3,5,-12,14,18,2,89,29,1
1491693458726,3,7,-4,-8,-7,-4,-26,2,6
1491693458727,0,-3,-9,9,40,47,-28,1,-8
1491693458727,0,2,-1,39,3,75,43,6,-3
1491693458772,1,-25,-16,-43,-7,11,43,-2,-9
1491693458772,1,20,5,5,3,-22,52,2,8
1491693458773,2,-5,2,-14,-58,36,-10,-39,2
1491693458773,2,-5,-2,-25,10,-65,-105,39,2
1491693458776,0,2,3,13,70,44,-45,-14,-8
1491693458776,0,14,14,-14,-63,-15,6,2,11
1491693458777,1,-5,-1,-22,-64,96,-71,-42,-8
1491693458777,1,4,-3,1,37,-50,25,35,10
1491693458821,2,-1,6,31,-10,74,64,9,8
1491693458821,2,-7,1,34,1,43,-65,-44,-27
1491693458822,3,11,9,-11,19,-60,21,41,17
1491693458822,3,-4,-6,12,26,45,42,-5,-7
1491693458823,1,5,5,18,-54,60,18,-5,3
1491693458823,1,-10,1,7,-42,-65,-28,5,-5
1491693458824,2,9,0,36,44,-49,44,38,19
1491693458824,2,-11,7,32,38,66,-8,-8,-11
1491693458870,3,-6,-6,18,-6,103,-63,-15,-2
1491693458870,3,-5,0,-68,2,-60,29,-26,-10
1491693458871,0,3,15,30,-8,-38,-3,-4,8
1491693458871,0,5,33,-59,12,-40,10,-10,-1
1491693458873,2,-3,-18,-19,24,83,-7,10,17
1491693458873,2,11,-48,89,16,46,99,9,2
1491693458873,3,9,-40,-12,-3,-128,-45,-21,-3
1491693458873,3,-6,-40,-55,-49,6,-2,-2,8
1491693458918,0,-11,-14,4,17,83,53,-30,-54
1491693458918,0,-13,-14,2,-12,-75,6,29,-3
1491693458919,1,8,-9,19,101,73,11,-10,27
1491693458919,1,-11,11,81,-74,105,5,-24,-19
1491693458921,3,-10,0,-2,-9,-21,19,-14,-33
1491693458921,3,13,22,24,15,18,-62,25,-7
1491693458922,0,16,16,82,30,74,32,36,32
1491693458922,0,-4,-2,-54,-39,-14,-21,-58,-28
1491693458967,1,-9,1,9,6,-30,-26,4,-2
1491693458967,1,0,-4,5,-9,49,15,1,14
1491693458968,2,-21,-13,-5,-12,109,38,11,1
1491693458968,2,6,-13,-94,27,-51,-56,17,26
1491693458970,0,9,9,6,-45,-56,-44,-7,20
1491693458970,0,-10,5,19,10,38,-20,4,-1
1491693458971,1,3,13,75,23,72,28,6,11
1491693458971,1,-19,-22,-42,21,-9,31,7,3
1491693459016,2,-2,7,1,-20,-86,-77,-16,-23
1491693459016,2,8,7,-29,-22,64,39,7,19
1491693459018,3,2,-2,-28,-39,12,12,36,7
1491693459018,3,3,-4,45,33,-4,8,-19,1
1491693459019,1,3,-3,3,19,81,52,15,16
1491693459019,1,0,-27,-13,-17,-58,-111,1,-3
1491693459020,2,0,-44,1,-9,81,91,10,8
1491693459020,2,1,-9,21,-18,-2,6,30,-19
1491693459066,3,-8,-15,-31,62,-42,-26,-10,-9
1491693459066,3,2,-2,-14,-42,-9,-1,-15,-6
1491693459067,0,-2,-6,10,4,-34,-14,18,-2
1491693459067,0,-5,-1,-7,21,126,47,7,-7
1491693459068,1,3,-3,-21,-42,-128,-53,2,-17
1491693459068,1,-7,0,1,41,51,16,7,5
1491693459068,2,-7,4,13,45,8,-15,-2,-19
1491693459068,2,4,0,21,-29,41,15,-5,8
1491693459113,3,7,-5,-12,-56,-84,-24,-2,2
1491693459113,3,-6,5,-13,-8,88,95,-1,-5
1491693459114,0,-1,1,-11,-18,-128,-65,-8,4
1491693459114,0,0,-4,35,30,50,-10,-2,7
1491693459115,2,4,-1,-10,25,61,48,2,2
1491693459115,2,-2,5,38,-35,29,-44,-10,8
1491693459116,3,-1,2,-17,43,-71,-7,-5,-3
1491693459116,3,1,9,-4,-17,11,8,6,3
1491693459162,0,-9,-15,-17,-12,-28,-3,0,-6
1491693459162,0,0,-4,3,-1,-39,-14,-21,-5
1491693459164,1,-4,8,9,-35,93,38,14,-2
1491693459164,1,13,9,37,15,-60,-90,-22,2
1491693459165,3,-9,8,23,29,127,3,2,-9
1491693459165,3,-10,3,-22,-71,90,34,-7,-11
1491693459168,0,1,4,4,3,-123,-117,-26,-18
1491693459168,0,-4,8,-31,20,57,-9,-13,-18
1491693459211,1,-12,-11,-33,-12,26,15,-4,-15
1491693459211,1,8,13,16,13,22,0,19,11
1491693459212,2,-2,11,13,2,47,0,-5,6
1491693459212,2,-10,1,12,-21,-43,19,-11,-2
1491693459308,0,-10,-41,-30,-31,-24,36,13,-6
1491693459308,0,2,-19,2,42,36,2,-2,2
1491693459309,1,15,16,49,-23,19,-18,12,8
1491693459309,1,-18,-42,-13,22,-18,-12,-1,-12
1491693459310,2,7,-10,12,-33,-12,-3,0,-5
1491693459310,2,-6,-3,-48,40,-29,-3,2,-26
1491693459311,3,1,3,-9,-52,20,4,-14,-9
1491693459311,3,4,31,-19,28,-28,28,-2,8
1491693459357,1,0,17,12,77,102,86,2,10
1491693459357,1,5,25,-12,-20,-71,54,-2,1
1491693459359,2,1,8,15,9,92,46,-5,2
1491693459359,2,8,5,8,17,-62,-23,25,16
1491693459360,3,-10,4,-26,-12,-89,-56,-15,3
1491693459360,3,3,7,-16,12,3,-82,-7,-3
1491693459361,3,-11,74,11,-5,108,33,15,-9
1491693459361,3,9,33,4,-23,-72,5,-5,5
1491693459406,0,-1,3,-34,-33,-13,-24,3,15
1491693459406,0,1,-17,-8,-15,0,-12,-6,6
1491693459407,1,11,-25,12,7,38,54,-2,7
1491693459407,1,-10,-101,10,47,39,-38,1,-7
1491693459408,3,4,-128,-50,-23,-128,-74,12,1
1491693459408,3,-10,-115,-32,-26,55,22,2,-4
1491693459409,0,6,-99,1,6,48,44,-10,-3
1491693459409,0,-4,-72,6,27,98,12,-9,1
1491693459454,1,3,-25,48,49,0,-5,11,-3
1491693459454,1,1,-3,-6,-64,-78,-74,-6,10
1491693459456,2,-7,9,-16,-15,-44,-44,-9,-8
1491693459456,2,2,29,20,-31,46,17,-4,-6
1491693459457,0,1,36,17,0,-52,-45,2,2
1491693459457,0,-6,24,-37,-45,-27,11,-23,-9
1491693459458,1,-1,38,-18,-16,-71,-69,-12,-18
1491693459458,1,-11,45,13,-4,50,73,18,-1
1491693459503,2,7,43,48,67,-40,-10,-19,-3
1491693459503,2,2,31,-17,-26,92,72,-1,1
1491693459504,3,8,20,31,21,-75,-38,14,15
1491693459504,3,-14,11,-85,-29,24,-28,-50,-25
1491693459505,1,-18,-4,-97,-36,16,72,5,-11
1491693459505,1,9,15,5,-69,-90,3,2,0
1491693459506,2,-10,1,-19,49,9,-14,2,-11
1491693459506,2,1,8,42,60,14,-31,5,4
1491693459552,3,-5,8,12,2,8,37,3,-3
1491693459552,3,-3,7,10,-31,-22,14,-4,-6
1491693459650,0,10,5,22,20,53,38,7,2
1491693459650,0,-1,6,-35,-46,-34,-56,4,15
1491693459651,2,-2,2,5,-37,72,48,4,-5
1491693459651,2,6,5,2,16,-128,-115,-9,-1
1491693459652,3,5,7,11,19,84,48,3,2
1491693459652,3,1,12,0,3,46,-9,-12,-13
1491693459653,0,-12,1,10,9,-1,18,3,-4
1491693459653,0,-2,-12,-38,-2,-12,9,13,-10
1491693459700,1,9,5,-7,-13,-35,-18,19,-1
1491693459700,1,-8,-4,20,3,-26,-12,11,9
1491693459702,3,-9,-4,28,20,49,2,-10,-3
1491693459702,3,10,7,30,-19,33,-41,23,11
1491693459703,1,-25,-21,-3,18,-10,18,-8,-32
1491693459703,1,4,12,15,29,29,17,-10,4
1491693459704,2,-12,-6,-15,-14,23,22,-20,-7
1491693459704,2,-10,-7,-1,-31,121,75,27,5
1491693459796,3,0,0,23,6,-52,-117,-34,23
1491693459796,3,8,-6,-35,40,-49,2,0,3
1491693459844,0,8,0,-21,-43,-53,-5,-11,12
1491693459844,0,-16,-2,23,24,127,11,-22,-7
1491693459847,1,16,9,23,-23,-87,33,22,12
1491693459847,1,-9,-10,-39,-24,-32,14,7,0
1491693459848,2,-14,-25,-36,11,35,-30,8,16
1491693459848,2,17,16,21,-38,-67,-25,-26,-8
1491693459849,3,2,2,7,36,78,-6,9,16
1491693459849,3,2,-4,28,34,20,38,-11,-4
1491693459893,0,-14,8,-25,-16,31,14,-36,-24
1491693459893,0,7,0,21,20,49,76,58,26
1491693459895,2,13,3,12,-1,-32,-25,9,3
1491693459895,2,-12,-12,-54,-30,-100,-14,-23,2
1491693459896,3,-13,-18,-17,-27,-107,9,-13,-4
1491693459896,3,9,11,0,-19,-59,-72,-20,7
1491693459896,0,5,-15,-25,-23,112,36,21,9
1491693459896,0,-5,3,7,9,-87,33,-15,-21
1491693459942,1,9,7,-8,-3,41,22,6,9
1491693459942,1,-12,0,0,24,-34,3,-21,-23
1491693459943,2,-11,-1,42,-49,21,-4,0,0
1491693459943,2,-13,-10,-25,19,-7,-19,-5,-5
1491693459946,1,-7,3,6,-20,56,30,-27,-25
1491693459946,1,-2,-4,-2,0,-16,-45,-6,-24
1491693459950,2,-3,-2,-4,36,-61,26,-3,-26
1491693459950,2,-10,-2,13,-22,118,-39,-12,-16
1491693459991,3,13,9,-9,-9,-82,4,23,4
1491693459991,3,-3,0,5,20,91,32,-9,0
1491693459992,0,-5,-2,32,26,13,-5,-14,-5
1491693459992,0,3,-6,-62,-47,-108,-28,-3,17
1491693459997,2,-6,2,35,62,18,22,14,4
1491693459997,2,16,9,9,10,21,25,15,29
1491693460000,3,-11,-13,-58,-38,6,39,-17,-4
1491693460000,3,2,-2,4,1,24,25,-1,21
1491693460040,0,-2,-4,-11,13,15,3,-7,14
1491693460040,0,-2,1,13,6,-57,-40,4,8
1491693460041,1,-7,-3,18,11,30,-6,3,14
1491693460041,1,27,8,4,14,-45,85,23,24
1491693460042,3,-4,-4,5,-44,94,21,14,-8
1491693460042,3,-10,-7,-25,26,-58,-82,-11,-14
1491693460043,0,-14,-10,-16,4,33,16,-9,-4
1491693460043,0,15,7,30,-2,-98,17,9,5
1491693460088,1,-5,-2,-29,-3,24,-31,-4,-15
1491693460088,1,0,-4,5,-7,113,49,19,9
1491693460091,2,8,2,-9,0,-78,17,-13,4
1491693460091,2,8,7,4,24,63,-38,-1,-9
1491693460092,3,-5,-5,22,5,-27,17,-9,-6
1491693460092,3,-1,2,15,14,22,2,17,0
1491693460092,0,-6,-3,-22,-15,3,-8,3,-13
1491693460092,0,-10,-9,6,-28,-1,58,-1,-10
1491693460186,1,5,5,4,30,-123,-69,-15,-5
1491693460186,1,-5,-7,-10,-8,121,81,14,-11
1491693460187,2,-1,-7,-32,-33,-55,-54,-35,-8
1491693460187,2,-5,3,9,-13,-10,-49,-30,-28
1491693460188,0,1,-3,-5,-12,-57,4,43,-33
1491693460188,0,-4,-7,-10,5,40,11,-28,-22
1491693460188,1,2,0,-5,-14,19,15,-10,3
1491693460188,1,-9,-7,-5,-3,-53,-35,-60,-21
1491693460234,2,-2,1,11,-12,2,58,49,20
1491693460234,2,14,15,1,5,-61,-77,15,29
1491693460332,3,3,-3,4,1,61,-15,17,23
1491693460332,3,-6,0,26,-8,-49,-16,-20,10
1491693460333,1,0,3,-3,-12,-7,-30,-16,15
1491693460333,1,3,3,-2,0,86,52,-2,18
1491693460334,2,-10,0,10,16,-82,-30,-23,-17
1491693460334,2,5,-10,-3,17,84,-51,-50,1
1491693460381,3,-11,0,13,25,58,95,25,-6
1491693460381,3,9,13,34,-11,13,-128,-36,-7
1491693460382,0,15,-8,-57,7,-50,54,29,5
1491693460382,0,-5,7,-8,-11,116,22,-7,-12
1491693460383,3,13,7,-9,18,-61,-17,-30,-7
1491693460383,3,-33,-8,-10,2,-29,93,12,-18
1491693460384,0,2,-23,8,-9,-27,-88,-23,2
1491693460384,0,18,-1,-2,8,-25,40,9,-9
1491693460430,1,-10,11,11,22,-105,-107,-3,6
1491693460430,1,4,-11,7,1,66,73,15,-6
1491693460431,2,8,23,10,-30,-62,-115,-32,10
1491693460431,2,20,3,-10,-16,20,-14,-21,-20
1491693460433,2,7,20,40,-21,110,-9,3,28
1491693460433,2,1,-18,-12,17,-110,-52,9,34
1491693460433,3,-11,-10,-12,-1,112,82,7,22
1491693460433,3,18,14,11,10,-80,-30,-6,13
1491693460478,0,0,3,22,17,20,-63,12,17
1491693460478,0,-5,-3,17,20,51,-16,-9,5
1491693460480,1,-5,-9,-26,-46,-85,24,3,-11
1491693460480,1,9,5,-6,-5,9,-79,-22,-5
1491693460481,2,-11,-5,-8,27,14,28,4,-22
1491693460481,2,3,-1,20,27,89,50,13,-9
1491693460483,3,0,9,-1,-15,-91,-90,-31,24
1491693460483,3,1,3,-8,-36,92,50,15,2
1491693460527,0,-5,-13,-8,2,-53,-12,14,11
1491693460527,0,-9,5,9,15,77,-1,-30,2
1491693460528,1,15,1,6,-2,-62,19,9,7
1491693460528,1,0,-3,-10,-22,-30,-41,-9,5
1491693460529,3,1,1,1,7,56,-21,-17,-6
1491693460529,3,-7,-7,16,40,42,41,20,-5
1491693460530,0,3,2,-4,-1,-66,-17,3,18
1491693460530,0,-15,-15,-30,-27,56,6,3,-11
1491693460576,1,8,2,9,2,-51,-55,-7,15
1491693460576,1,-6,0,2,-8,22,39,-14,-14
1491693460577,2,-12,-6,-7,0,8,14,-6,-10
1491693460577,2,3,10,22,-9,-12,-52,-1,-3
1491693460581,0,-11,-5,-15,-8,-12,24,-11,-8
1491693460581,0,7,-4,4,49,-121,-25,-7,1
1491693460582,1,-7,5,13,4,88,9,8,-14
1491693460582,1,-2,-13,-29,-33,-36,50,15,22
1491693460673,2,-5,-10,-28,-31,32,-69,-20,-22
1491693460673,2,9,6,-3,-19,-2,25,17,5
1491693460674,3,-1,3,27,20,-18,29,-16,-16
1491693460674,3,7,7,16,8,41,7,0,5
1491693460675,1,-2,-4,-6,-14,-25,26,21,-2
1491693460675,1,5,1,-37,-52,-17,-60,-17,22
1491693460676,2,-3,-6,0,-6,7,56,0,-6
1491693460676,2,-1,-5,-1,4,-43,-32,-17,-14
1491693460771,3,-9,-3,26,31,117,91,22,-8
1491693460771,3,7,0,-41,2,-40,-75,-41,-15
1491693460772,0,6,4,0,12,12,-13,7,-1
1491693460772,0,-10,-5,-4,-17,14,61,8,-9
1491693460772,2,-15,-10,-19,-20,39,11,-27,-16
1491693460772,2,5,14,22,-16,-77,42,3,-5
1491693460776,3,10,3,2,4,18,-31,-10,14
1491693460776,3,-2,1,12,13,1,-35,-13,12
1491693460819,0,5,-1,-21,-21,21,55,8,8
1491693460819,0,1,-1,13,-8,-36,-53,-8,0
1491693460821,1,-6,-12,-26,9,-42,-13,-2,-10
1491693460821,1,1,4,0,-14,69,-1,-17,5
1491693460822,0,7,1,0,-5,97,24,-15,13
1491693460822,0,0,1,-7,-12,-85,0,15,-6
1491693460822,1,-4,-3,-16,-9,48,1,-5,12
1491693460822,1,-5,-5,2,6,-97,-35,-8,-30
1491693460868,2,0,1,4,15,28,13,-8,7
1491693460868,2,-3,-1,-8,12,31,-2,13,-4
1491693460869,3,-1,-2,3,-21,31,18,-12,0
1491693460869,3,-11,0,3,-7,18,37,-9,-32
1491693460870,1,1,5,34,14,4,15,23,8
1491693460870,1,4,1,-18,-1,-28,-21,2,6
1491693460871,2,3,0,-9,-8,12,15,2,-1
1491693460871,2,-17,4,-19,-1,39,-18,-3,-9
1491693460917,3,-31,-14,-15,-35,-109,4,-19,-46
1491693460917,3,29,1,-3,1,67,15,5,57
1491693460918,0,5,-1,4,25,27,-5,7,-25
1491693460918,0,20,4,21,17,-50,-12,14,20
1491693460919,2,-15,-19,-10,10,-55,-61,-3,-9
1491693460919,2,7,2,19,32,35,24,0,30
1491693460920,3,0,14,2,-6,28,18,-26,-24
1491693460920,3,-2,-15,-7,-23,-42,32,27,-5
1491693460966,0,-6,23,-15,-17,5,-20,-12,-4
1491693460966,0,6,-27,-3,13,13,32,1,2
1491693460967,1,-8,-30,-7,-5,67,-1,1,-2
1491693460967,1,4,6,0,-13,-47,-27,-5,23
1491693460968,3,9,12,7,9,-7,-30,5,-5
1491693460968,3,-1,2,-4,12,6,31,0,-5
1491693460969,0,-11,-9,16,5,36,27,9,10
1491693460969,0,-13,-5,-25,-34,-68,-31,-34,-10
1491693461063,1,6,-7,10,9,-42,-16,-2,-1
1491693461063,1,-10,-1,-13,11,21,20,-3,-25
1491693461064,2,1,9,10,0,5,11,19,27
1491693461064,2,-6,-8,17,29,30,-10,-14,-18
1491693461065,0,7,2,-5,-25,3,59,-5,-8
1491693461065,0,-12,-3,-11,-13,51,-48,-11,-19
1491693461066,1,4,-5,-7,4,-56,-31,6,0
1491693461066,1,-2,11,13,17,-57,-58,-7,0
1491693461112,2,-5,-16,-4,-9,-1,26,-13,-31
1491693461112,2,-3,-4,-17,-20,33,-21,-6,34
1491693461113,3,5,11,3,10,-10,-12,1,11
1491693461113,3,-8,7,18,-6,51,15,6,-9
1491693461114,1,-10,-22,-41,-31,-41,-16,-10,1
1491693461114,1,17,2,-12,-13,-15,24,8,15
1491693461115,2,1,4,10,7,-14,-10,-6,-1
1491693461115,2,-3,0,-7,3,26,-6,-5,-4
1491693461210,3,-3,-9,-11,0,28,9,8,-4
1491693461210,3,1,8,0,-16,21,16,-9,-3
1491693461212,0,-9,-6,-7,-8,11,6,-4,0
1491693461212,0,5,4,-1,-33,-106,2,-13,-15
1491693461213,2,0,3,11,10,4,33,3,-2
1491693461213,2,0,-1,-12,-17,-19,-8,-2,-3
1491693461215,3,-1,-8,-20,-18,6,-21,-2,-3
1491693461215,3,-2,3,-2,3,59,19,-11,-9
1491693461259,0,-3,3,-11,6,3,30,6,-8
1491693461259,0,12,2,9,0,-70,-85,3,-3
1491693461261,1,2,1,10,21,40,69,-2,-22
1491693461261,1,-12,-2,-5,-18,-14,-30,-5,-29
1491693461263,3,-4,0,-3,3,12,-14,6,4
1491693461263,3,1,-11,-36,-48,-12,-27,-10,22
1491693461264,0,9,6,6,-10,37,26,11,1
1491693461264,0,-5,-7,12,2,-14,-19,0,-9
1491693461307,1,-1,2,-4,-21,-8,21,-8,7
1491693461307,1,7,-2,16,43,65,39,4,13
1491693461309,2,-9,0,-39,-22,-110,-52,-13,-15
1491693461309,2,-10,-8,-15,-29,24,7,-1,-9
1491693461310,1,-1,3,3,-2,9,18,4,-21
1491693461310,1,-4,-3,-10,-3,6,16,18,38
1491693461311,2,-6,-5,9,-6,-64,-33,-20,0
1491693461311,2,7,1,-2,-3,27,16,27,-9
1491693461356,3,14,9,15,17,-36,-7,16,26
1491693461356,3,-1,-3,16,48,72,5,-18,-25
1491693461358,0,-1,-13,-4,-24,-56,-25,15,26
1491693461358,0,-1,-6,-15,-12,42,32,-11,-4
1491693461360,2,8,-2,12,12,-6,54,10,18
1491693461360,2,-12,-8,-6,-5,54,29,-1,-1
1491693461361,3,0,-3,-12,-14,-53,-55,2,-9
1491693461361,3,-10,1,4,13,-15,-19,-12,-1
1491693461405,0,-5,-2,-3,-10,27,2,-16,-26
1491693461405,0,13,7,-8,-4,-9,17,11,27
1491693461406,1,-6,2,3,-4,32,30,-3,-23
1491693461406,1,-10,-6,-11,-7,-13,-8,0,-13
1491693461407,3,-12,-3,-31,-22,-59,-46,-16,-2
1491693461407,3,6,-3,7,-4,4,-20,-5,-2
1491693461408,0,0,6,12,15,-24,9,-4,-14
1491693461408,0,-12,-9,-5,25,29,57,29,-13
1491693461454,1,5,-5,0,12,17,-5,6,7
1491693461454,1,5,5,13,-12,-43,-27,-23,-23
1491693461457,2,-4,-2,-11,-10,20,11,0,-4
1491693461457,2,2,-3,-11,-11,44,-32,-4,-24
1491693461458,0,1,3,5,13,26,-18,-14,-6
1491693461458,0,5,11,4,-17,-44,-28,-5,-14
1491693461459,1,-8,-10,4,11,83,30,0,-3
1491693461459,1,4,-9,-4,-15,-36,-75,4,29
1491693461503,2,-2,7,17,43,66,40,1,21
1491693461503,2,-1,3,-8,-23,-99,-52,-13,16
1491693461504,3,-5,-4,-20,-44,-25,11,-9,12
1491693461504,3,-2,0,5,-6,12,-1,-16,0
1491693461504,0,-6,-2,6,-3,23,32,13,17
1491693461504,0,-5,-11,28,13,70,30,-6,-22
1491693461505,1,-5,-1,-28,2,-55,-29,6,3
1491693461505,1,-9,-5,-22,-28,-64,-8,-17,-24
1491693461551,2,-6,0,-12,-19,69,-21,-6,7
1491693461551,2,0,5,6,33,-100,-55,-11,-13
1491693461553,3,0,2,21,6,48,32,12,7
1491693461553,3,-4,-8,-4,3,14,36,8,-7
1491693461554,1,12,3,9,30,42,65,0,11
1491693461554,1,8,9,-11,-20,18,-9,-27,5
1491693461555,2,-3,-2,5,16,-66,-20,26,-9
1491693461555,2,5,2,4,-17,26,21,6,38
1491693461600,3,-7,-11,-12,5,10,-29,-3,-17
1491693461600,3,-1,-1,-5,2,-4,-28,3,-1
1491693461601,0,10,7,-6,-14,48,-6,-16,10
1491693461601,0,-13,-9,-17,-24,-88,-3,-5,-25
1491693461603,2,-11,-24,-11,3,-62,-24,-4,-18
1491693461603,2,0,2,-4,6,33,3,-18,-4
1491693461604,3,8,8,8,-13,44,41,13,8
1491693461604,3,-1,0,2,10,24,-2,-6,-10
1491693461648,0,-4,-3,0,-5,-39,-36,5,1
1491693461648,0,-2,-5,-24,4,16,39,-4,3
1491693461649,1,-5,-2,3,-6,-50,3,-1,7
1491693461649,1,11,8,9,5,-5,-44,-4,5
1491693461649,3,-4,4,-36,-34,-43,-53,-15,-12
1491693461649,3,-1,-5,-9,2,16,35,0,6
1491693461651,0,1,-3,-5,-13,-21,-33,13,3
1491693461651,0,-6,3,3,11,5,-19,-10,-13
1491693461697,1,-9,-10,18,12,63,65,6,0
1491693461697,1,-4,-4,2,4,-73,-87,3,0
1491693461698,2,0,1,-11,-19,6,-20,-13,-9
1491693461698,2,0,2,5,12,24,-9,-8,6
1491693461699,0,-5,-4,-16,-32,-84,4,9,12
1491693461699,0,18,3,-13,14,-56,-35,-5,-19
1491693461701,1,-4,-7,-11,-10,14,-27,-6,15
1491693461701,1,9,13,29,19,7,67,10,-4
1491693461746,2,2,6,21,38,90,29,-5,-6
1491693461746,2,-3,-2,8,-21,14,-25,-1,-3
1491693461747,3,3,0,-7,-10,-37,-20,-14,-11
1491693461747,3,-11,-11,-3,4,-71,21,2,-10
1491693461757,1,-8,2,19,40,60,-12,6,-2
1491693461757,1,15,13,15,19,13,64,5,10
1491693461759,2,2,-3,2,-24,-71,-50,-19,1
1491693461759,2,-7,-3,-17,-19,-30,-4,0,15
1491693461795,3,-1,-3,-17,-25,-51,-30,-32,-48
1491693461795,3,8,10,36,44,99,12,11,36
1491693461796,0,1,-5,29,24,121,-9,23,8
1491693461796,0,-7,-8,-48,-3,-86,85,-9,-11
1491693461798,2,3,10,10,-12,24,-15,-4,-10
1491693461798,2,7,-3,32,8,127,35,7,15
1491693461799,3,2,-6,-12,1,-83,-32,33,16
1491693461799,3,-4,-10,-8,-9,-23,-7,-12,10
1491693461843,0,6,4,-7,6,-25,1,5,13
1491693461843,0,-6,12,29,25,74,8,0,-15
1491693461844,1,-2,2,42,31,58,39,1,0
1491693461844,1,-13,-19,-55,-39,-8,-1,-2,0
1491693461845,3,1,10,-15,-62,4,-30,-11,31
1491693461845,3,7,-8,-18,-64,17,-85,18,19
1491693461846,0,-12,-1,25,107,-103,117,13,-13
1491693461846,0,7,1,-33,-65,21,67,1,-8
1491693461892,1,-5,3,-6,24,-11,-66,-15,-24
1491693461892,1,-5,-1,7,-3,-8,2,-2,-5
1491693461893,2,10,6,26,44,120,51,19,21
1491693461893,2,8,-5,1,-14,15,-62,5,10
1491693461894,3,-15,-7,-32,-40,-73,25,-8,-33
1491693461894,3,-6,-6,-15,-6,2,-24,-8,-24
1491693461894,0,-6,14,3,-41,9,-32,-12,-35
1491693461894,0,-13,-15,43,105,55,10,-4,11
1491693462038,1,6,2,21,0,127,112,35,-16
1491693462038,1,19,-10,-45,-42,-128,-81,-25,-30
1491693462041,2,-17,-3,-7,-56,123,-28,-38,-16
1491693462041,2,-14,-14,-62,-60,40,-111,-13,-1
1491693462046,0,1,-12,-21,-7,-120,3,7,22
1491693462046,0,-14,-7,2,-16,-58,-32,-8,-12
1491693462047,1,9,0,22,45,10,15,26,23
1491693462047,1,-13,4,22,1,52,38,-2,-5
1491693462087,2,18,-6,8,28,21,-3,10,21
1491693462087,2,-19,-13,-44,-57,-61,-24,-17,-3
1491693462089,3,1,10,-20,-1,-83,-93,10,-23
1491693462089,3,17,12,45,41,75,82,-6,18
1491693462099,1,-11,-26,-47,-63,-55,-61,-29,-18
1491693462099,1,-14,4,-22,-17,-23,-69,-41,-27
1491693462100,3,-2,10,-18,-8,83,22,-6,4
1491693462100,3,-3,-4,-6,-7,-29,-11,-7,-5
1491693462136,0,4,6,-9,79,92,42,20,14
1491693462136,0,-6,-7,-42,-67,-57,-67,-14,-18
1491693462138,1,-16,-2,3,-38,-119,46,-40,-22
1491693462138,1,0,-8,36,45,51,25,33,-2
1491693462140,0,-7,-4,22,-18,42,114,24,1
1491693462140,0,-3,11,14,38,-62,-107,-14,1
1491693462146,1,-4,-1,2,34,-8,-24,-10,-19
1491693462146,1,19,-1,27,10,40,48,19,9
1491693462185,2,2,-15,-4,-16,-23,-41,-8,10
1491693462185,2,-1,-17,1,17,-24,12,4,-7
1491693462187,3,-15,-7,27,42,115,-1,-2,-24
1491693462187,3,-10,11,-15,-90,-122,-86,-21,-39
1491693462188,1,4,-14,-47,25,-78,26,-7,15
1491693462188,1,1,12,-15,-3,104,15,17,11
1491693462190,2,20,23,31,49,-28,-17,-16,11
1491693462190,2,-11,11,29,36,18,16,-3,-10
1491693462234,3,9,9,-37,19,-62,-27,0,11
1491693462234,3,25,8,46,30,-25,-5,11,33
1491693462237,0,-11,-6,-27,-10,7,54,-9,-18
1491693462237,0,15,-7,-47,-36,-20,11,12,22
1491693462238,1,9,2,69,63,65,-6,20,4
1491693462238,1,-19,-10,-21,9,11,11,-17,-12
1491693462239,2,-20,-23,19,22,127,-11,-14,-38
1491693462239,2,-10,-5,-83,-113,-99,-44,-29,-10
1491693462282,3,-11,-1,-33,-98,57,42,-5,7
1491693462282,3,-2,-16,7,44,52,16,0,-8
1491693462331,0,-5,60,78,99,56,-35,-14,-14
1491693462331,0,-1,-23,-11,0,-7,8,-9,-6
1491693462332,2,1,-11,14,41,-42,22,18,-2
1491693462332,2,3,26,30,55,8,19,-6,8
1491693462333,3,8,-2,49,-10,16,-39,6,0
1491693462333,3,-18,-25,-110,-97,-104,-9,-13,-17
1491693462335,0,2,4,45,-46,75,36,18,16
1491693462335,0,-3,-16,-77,-20,-84,-39,-1,-12
1491693462380,1,-14,-22,5,-14,51,-56,-23,-11
1491693462380,1,10,6,29,25,7,-46,-3,-12
1491693462381,3,5,9,-14,32,-15,-37,9,13
1491693462381,3,-8,-4,-13,-4,1,14,-11,-1
1491693462382,0,-12,-8,-38,-42,-84,-55,-5,2
1491693462382,0,-7,-24,39,11,17,87,19,8
1491693462383,0,-4,-21,-128,-111,-89,25,-2,-17
1491693462383,0,-7,-2,60,-2,24,-8,-12,-25
1491693462428,1,18,9,18,16,33,14,7,13
1491693462428,1,2,-1,26,21,-13,-8,-6,-19
1491693462430,2,8,20,35,40,100,40,-18,-4
1491693462430,2,26,14,3,-17,-68,-31,-3,17
1491693462431,1,-15,-17,-91,3,-69,-22,-2,-11
1491693462431,1,4,9,77,30,55,40,15,-6
1491693462432,2,0,-25,-76,-11,35,-52,-1,-4
1491693462432,2,-2,7,25,-2,60,34,-2,-7
1491693462477,3,5,10,-2,-20,-32,-3,17,13
1491693462477,3,6,22,8,-9,-17,4,-7,20
1491693462479,0,-1,5,3,23,-29,-21,0,-13
1491693462479,0,-1,-18,2,-12,8,-21,-4,-5
1491693462480,2,-1,-19,-45,-11,-104,-36,-29,0
1491693462480,2,-1,-1,8,-25,-7,-31,-4,5
1491693462481,3,-4,-21,-29,-1,5,-16,-9,7
1491693462481,3,3,18,27,9,19,12,20,4
1491693462526,0,3,-12,14,3,53,-17,1,0
1491693462526,0,-8,-16,-63,-32,-56,-1,-9,8
1491693462527,1,1,-1,21,30,65,14,-3,-14
1491693462527,1,-5,-7,-12,-19,-89,-29,-5,-9
1491693462529,3,-9,-18,23,-29,-27,-18,-8,-7
1491693462529,3,0,-6,-44,-26,-27,-18,-3,-1
1491693462530,0,4,-3,-28,3,-34,-9,8,0
1491693462530,0,-5,17,17,7,39,28,5,-2
1491693462574,1,4,10,41,19,2,12,-12,-2
1491693462574,1,-5,-7,-21,-16,11,-4,-7,-24
1491693462576,2,8,12,14,16,-1,7,0,0
1491693462576,2,-20,-17,29,6,3,-13,-17,-6
1491693462577,3,-1,14,-27,-14,-8,0,1,9
1491693462577,3,-11,-47,-42,-17,-39,-39,-10,-1
1491693462577,0,-7,11,9,2,28,21,6,-3
1491693462577,0,9,9,-7,17,-5,1,-7,-12
1491693462623,1,-9,22,46,35,-6,0,-1,5
1491693462623,1,8,-31,-69,-33,-27,-14,0,37
1491693462624,2,-3,43,-9,-11,-17,3,3,-9
1491693462624,2,-9,105,-2,15,46,-10,9,-5
1491693462625,0,-11,-89,-12,-6,-14,0,9,-2
1491693462625,0,6,-110,-8,-23,6,-8,-2,13
1491693462626,1,1,-112,-11,10,0,-5,-10,-5
1491693462626,1,-12,-60,-36,-3,28,27,6,-8
1491693462721,2,21,-17,48,17,-48,-31,-20,-1
1491693462721,2,9,-3,40,-13,23,9,-5,-10
1491693462722,3,-4,-35,8,6,-3,2,-28,-23
1491693462722,3,-15,22,6,17,8,-10,-1,-11
1491693462723,1,5,-15,-16,-48,-5,36,5,-7
1491693462723,1,-14,-9,8,-16,-8,-1,1,-15
1491693462724,2,0,100,-13,0,10,-7,7,7
1491693462724,2,-4,72,-6,9,-53,8,9,12
1491693462770,3,-1,50,17,-3,13,7,-2,12
1491693462770,3,-6,97,19,1,-17,-21,-5,6
1491693462771,0,-15,31,8,3,4,0,-6,15
1491693462771,0,15,6,-8,6,-6,-70,2,13
1491693462773,2,4,-65,16,-7,-7,12,6,8
1491693462773,2,-12,-101,-7,-2,11,10,-5,-13
1491693462774,3,2,46,-11,-8,22,-30,5,3
1491693462774,3,6,16,-20,6,-1,8,-7,0
1491693462819,0,-22,-58,11,-16,31,29,-3,-32
1491693462819,0,9,-73,-4,10,34,5,-12,19
1491693462820,1,-13,-48,-49,2,-5,-8,-13,-11
1491693462820,1,-2,-53,20,-13,9,28,-3,7
1491693462821,0,-7,25,-13,-7,-11,-17,-20,-5
1491693462821,0,2,60,-13,-4,10,5,11,8
1491693462822,1,8,36,21,16,44,16,-18,-9
1491693462822,1,3,-23,-34,-20,-85,-22,-8,-1
1491693462867,2,-3,28,7,8,69,29,13,6
1491693462867,2,-4,25,-13,-3,-65,-29,-10,0
1491693462872,3,-3,79,7,-17,2,-14,-23,-21
1491693462872,3,-14,59,11,46,64,31,2,10
1491693462916,1,-5,-89,-22,1,-9,-16,-1,0
1491693462916,1,-12,-75,-3,-20,13,8,4,-2
1491693462920,2,5,-65,12,4,9,-12,3,5
1491693462920,2,10,-47,20,8,18,22,9,0
1491693462921,3,-7,-6,20,-6,-44,-17,3,-4
1491693462921,3,5,1,26,11,10,1,10,15
1491693462922,0,-7,44,-31,-20,18,1,-23,-7
1491693462922,0,-11,21,-66,-21,10,1,0,-12
1491693462965,1,-10,-27,-25,-17,-18,-15,-1,-6
1491693462965,1,-9,-33,2,-4,30,-13,5,-15
1491693462967,2,11,-49,28,-7,25,32,-3,-5
1491693462967,2,9,-69,10,23,-37,-19,9,6
1491693462968,3,-1,-14,2,15,27,1,5,-4
1491693462968,3,12,9,46,29,47,17,7,9
1491693462970,2,-2,9,-48,-49,56,-52,-13,-7
1491693462970,2,-11,11,27,79,-69,42,8,-9
1491693463013,3,-1,12,-43,-12,-80,-48,-3,22
1491693463013,3,-10,35,62,34,85,22,-8,-12
1491693463015,0,3,5,-22,-18,-101,-11,6,-4
1491693463015,0,2,19,-3,-32,55,-11,-1,8
1491693463017,3,5,15,27,-63,-89,1,9,14
1491693463017,3,-1,-13,-63,-45,17,-63,-12,1
1491693463018,0,-10,36,29,0,-63,42,7,-8
1491693463018,0,-1,-7,20,1,51,24,1,6
1491693463062,1,2,-20,-56,6,-23,-52,9,17
1491693463062,1,7,0,3,31,-3,56,-7,-9
1491693463064,2,2,-13,15,12,-6,-33,-17,-7
1491693463064,2,10,19,-2,-31,-3,-6,0,20
1491693463066,0,-2,13,39,42,49,12,9,-12
1491693463066,0,-4,-16,29,-24,23,6,-16,-17
1491693463067,1,-2,-38,-66,-44,-60,-29,-3,8
1491693463067,1,-10,-7,5,-5,-34,-37,-16,-13
1491693463111,2,2,-16,37,34,84,-12,-1,8
1491693463111,2,-2,-29,-59,-22,1,8,7,-6
1491693463113,3,9,-9,-11,-11,-54,-33,3,7
1491693463113,3,1,-3,21,-23,37,39,16,0
1491693463114,1,-3,0,14,54,-35,85,12,-14
1491693463114,1,-2,41,10,-12,-52,-50,0,3
1491693463116,2,10,55,26,28,13,41,15,22
1491693463116,2,-7,43,0,11,35,-22,-7,-7
1491693463160,3,-8,-7,-19,-49,-43,-1,-5,-19
1491693463160,3,-2,-26,3,3,-29,4,5,22
1491693463162,0,-10,-49,-25,3,8,16,-7,-20
1491693463162,0,1,-32,32,5,-35,3,-6,5
1491693463163,2,-4,-18,-30,-25,-12,-19,-2,-2
1491693463163,2,-2,18,-6,-17,-33,7,2,-3
1491693463164,3,2,-1,21,27,127,8,2,7
1491693463164,3,11,-7,49,33,-65,48,5,-6
1491693463208,0,-4,-12,-53,14,63,12,11,9
1491693463208,0,-9,2,11,15,-111,-75,-19,-30
1491693463257,1,-14,42,26,30,123,32,0,3
1491693463257,1,21,5,-12,-9,-85,-25,3,15
1491693463260,3,4,25,0,21,49,-15,-7,-4
1491693463260,3,-13,27,36,-31,65,25,0,-9
1491693463261,0,7,19,49,30,-44,29,10,11
1491693463261,0,1,-7,-20,7,-11,-32,-14,2
1491693463262,1,1,-5,-16,-17,-37,-9,6,8
1491693463262,1,-7,-26,-7,-12,18,-12,-14,2
1491693463306,2,-4,-14,-5,-37,-14,-5,-8,-20
1491693463306,2,-1,-17,-2,4,-28,-26,11,10
1491693463310,0,10,-4,-5,23,81,-7,-4,19
1491693463310,0,2,-16,6,14,-95,15,1,-9
1491693463311,1,-14,-13,-14,-23,-6,13,-17,-23
1491693463311,1,2,-4,11,-6,42,-5,8,16
1491693463313,0,-2,5,-18,17,4,48,0,-3
1491693463313,0,4,-10,-38,13,-32,7,8,-5
1491693463354,1,-2,5,-17,16,-84,-14,-8,0
1491693463354,1,-1,11,-13,1,1,-8,-3,-14
1491693463355,2,-4,6,8,-6,-38,-19,5,20
1491693463355,2,1,24,32,-9,76,8,-22,-14
1491693463356,1,-1,-7,-8,19,11,-7,-8,-5
1491693463356,1,-3,-7,-2,27,26,4,3,-13
1491693463357,2,1,1,-11,-16,-55,-14,2,-2
1491693463357,2,17,5,8,28,31,65,14,15
1491693463403,3,-4,8,29,27,17,32,-10,-4
1491693463403,3,-6,-4,-21,-32,-72,-15,-6,11
1491693463404,0,11,7,2,-93,-5,29,-8,-18
1491693463404,0,-8,-1,22,78,-27,-53,-17,-11
1491693463404,2,-15,-2,-24,-47,-30,9,-14,-19
1491693463404,2,1,1,7,-28,57,-24,-9,4
1491693463405,3,-6,-5,-14,-31,-74,-26,-11,-7
1491693463405,3,-10,9,3,30,21,10,-4,-12
1491693463501,0,-6,4,-4,13,-23,-23,7,-3
1491693463501,0,7,14,4,8,98,47,20,15
1491693463501,1,-2,14,17,37,-71,-52,5,-10
1491693463501,1,-2,-3,-43,-49,18,27,5,-3
1491693463502,3,-7,-8,36,37,52,13,-2,-12
1491693463502,3,2,-4,10,0,2,-5,15,15
1491693463503,0,7,3,9,-13,1,18,15,-4
1491693463503,0,-1,9,0,9,22,-18,2,5
1491693463598,1,-9,5,-10,-25,12,-10,-1,-2
1491693463598,1,-2,-6,-7,-15,43,32,-8,-13
1491693463599,2,6,3,29,59,-61,8,14,14
1491693463599,2,1,-10,-28,-34,35,-91,-4,10
1491693463599,1,-4,-29,-27,-39,-12,-18,1,-8
1491693463599,1,9,-9,15,21,-3,-27,14,8
1491693463600,2,-18,-29,8,37,37,-4,-21,-20
1491693463600,2,5,-24,25,-18,11,34,10,11
1491693463647,3,4,-27,-18,-24,-15,-30,-1,3
1491693463647,3,16,-26,8,41,-17,51,7,0
1491693463649,0,-9,-18,-7,-33,3,-10,-6,-7
1491693463649,0,12,-9,15,16,16,62,21,36
1491693463650,2,7,24,-8,-34,-53,-39,-15,-19
1491693463650,2,-5,2,3,17,-7,-30,16,11
1491693463650,3,-2,11,18,25,33,20,-1,-19
1491693463650,3,-8,14,-24,-16,-73,-32,-4,-6
1491693463696,0,-4,9,5,22,19,36,5,-15
1491693463696,0,-6,-3,13,-22,67,22,1,-2
1491693463696,1,-7,31,12,38,-14,-13,-28,-17
1491693463696,1,-3,-1,-17,2,5,-13,1,0
1491693463697,3,-4,-14,-27,-20,41,10,12,-1
1491693463697,3,-6,-2,-17,-11,2,28,-12,-17
1491693463698,0,1,-11,-6,-4,-31,-9,10,15
1491693463698,0,2,-1,-8,8,-7,5,-8,-17
1491693463745,1,0,-10,4,18,21,5,-1,28
1491693463745,1,0,2,4,14,-30,40,6,-5
1491693463746,2,10,7,16,5,87,64,28,35
1491693463746,2,5,-1,-18,7,16,-38,-4,-8
1491693463747,0,0,0,-11,-3,-29,10,-8,-2
1491693463747,0,4,8,32,47,85,70,19,9
1491693463748,1,-6,-6,0,-18,66,-27,2,2
1491693463748,1,-3,-7,-16,-20,-73,-19,-6,0
1491693463842,2,-10,-8,-10,16,36,21,-7,-24
1491693463842,2,-3,0,-19,-60,-31,-55,-21,-40
1491693463844,3,-10,-5,-11,-16,-79,-15,1,8
1491693463844,3,6,2,3,-24,74,8,6,1
1491693463891,1,6,6,25,16,13,18,-3,-9
1491693463891,1,9,14,-2,-6,31,14,-2,-3
1491693463892,2,-1,21,35,27,72,21,4,-3
1491693463892,2,-9,-9,0,-4,26,-40,-4,9
1491693463893,3,3,0,-19,-28,-9,-66,4,4
1491693463893,3,7,5,31,42,-14,13,27,26
1491693463894,0,3,-5,-18,-51,-44,-46,-38,-18
1491693463894,0,-18,-8,-68,-71,-128,-18,-18,-14
1491693463940,3,-6,10,95,93,56,64,-4,-9
1491693463940,3,-5,-2,21,-70,50,82,21,9
1491693463942,0,-1,-3,-94,-101,-64,8,-32,16
1491693463942,0,-2,-4,2,-17,-17,-11,12,-32
1491693463943,1,2,12,19,2,-21,-58,-3,34
1491693463943,1,-10,6,51,68,81,61,2,-33
1491693463948,0,-5,19,5,-24,89,-15,-6,-12
1491693463948,0,-22,7,81,31,-37,1,-6,-27
1491693463989,1,30,-16,-68,-57,-58,15,46,66
1491693463989,1,-10,-1,4,12,35,-79,-54,-43
1491693463991,2,12,-12,-8,4,88,-19,0,51
1491693463991,2,-11,-3,45,67,71,-19,-5,-15
1491693463992,0,-1,3,-43,-78,-53,-33,-9,-15
1491693463992,0,-25,-5,-25,4,61,38,6,4
1491693463994,1,24,-7,-24,-64,-43,-121,-2,-2
1491693463994,1,-1,14,38,27,45,97,-5,9
1491693464037,2,-19,-19,16,39,-81,-9,-15,-23
1491693464037,2,18,5,-69,18,7,-53,0,6
1491693464040,3,-27,-14,-8,25,92,96,-5,-48
1491693464040,3,-1,-6,-48,-21,-118,-44,7,-1
1491693464040,1,-4,13,33,32,-2,-75,1,6
1491693464040,1,-9,12,12,-2,107,50,-11,-13
1491693464041,2,12,8,-26,37,-127,21,28,17
1491693464041,2,-6,-2,-47,9,43,-1,-16,-4
1491693464085,3,16,32,-11,-32,-17,4,-6,-21
1491693464085,3,-3,23,18,-21,28,1,-11,7
1491693464086,0,1,11,-11,69,24,-67,-4,-11
1491693464086,0,3,27,85,14,33,98,36,5
1491693464087,2,-1,6,-59,-24,-49,-4,9,1
1491693464087,2,12,12,-24,-15,-27,-47,3,24
1491693464088,3,-2,-5,63,72,30,7,11,-5
1491693464088,3,-13,-20,-20,47,-113,-33,-11,-1
1491693464134,0,12,-19,-15,-94,54,20,12,3
1491693464134,0,2,14,106,8,80,27,-10,-11
1491693464135,1,-11,-34,-31,-14,9,22,-4,-8
1491693464135,1,-21,-28,-46,-9,-91,-74,0,3
1491693464136,3,-8,-30,-60,-60,76,42,-22,5
1491693464136,3,1,-29,3,31,-81,-86,-3,11
1491693464137,0,3,6,51,18,1,13,2,-5
1491693464137,0,5,-14,3,32,21,39,8,19
1491693464183,1,-9,-13,-46,-50,33,20,28,-1
1491693464183,1,-18,-19,-36,-27,87,-21,-9,-3
1491693464184,2,1,-15,-47,-54,-73,-40,-18,-3
1491693464184,2,14,6,16,70,38,-12,-1,20
1491693464185,0,-4,2,56,65,-27,12,5,20
1491693464185,0,7,-9,3,-8,13,19,-5,-3
1491693464186,1,-6,-6,-38,-7,6,-31,-14,-6
1491693464186,1,28,33,127,53,80,50,38,21
1491693464232,2,-19,-24,-89,-74,12,32,-1,-6
1491693464232,2,3,-21,-90,-116,-102,-81,-9,25
1491693464233,3,3,13,116,43,77,60,30,23
1491693464233,3,0,1,12,104,-95,-46,-11,-9
1491693464233,1,-4,-27,-76,8,-128,-36,-9,-2
1491693464233,1,4,-4,2,40,40,17,-6,3
1491693464234,2,-16,-10,62,11,32,-5,-1,-3
1491693464234,2,21,24,63,124,100,28,13,3
1491693464283,3,12,-39,68,-46,-86,17,9,13
1491693464283,3,-10,-100,-88,-128,-90,-78,-21,-20
1491693464284,0,-6,-86,20,-7,72,-9,-14,-15
1491693464284,0,-14,-64,61,67,90,-5,-9,-26
1491693464285,2,-3,-20,-35,50,-117,55,-3,-13
1491693464285,2,0,15,-19,93,-8,7,5,4
1491693464286,3,5,46,127,49,90,29,13,2
1491693464286,3,-3,11,-75,-102,-59,-38,-4,-3
1491693464329,0,14,61,53,81,31,-12,13,4
1491693464329,0,-20,14,-58,-40,-68,50,-10,-15
1491693464331,1,6,14,-128,-106,-128,-67,-20,-1
1491693464331,1,-2,46,56,61,71,13,5,0
1491693464331,2,6,39,42,29,96,9,14,5
1491693464331,2,-21,5,-30,-19,-57,-10,2,-14
1491693464333,3,9,34,17,39,53,25,4,9
1491693464333,3,4,39,99,-30,7,-18,-3,4
1491693464378,0,-15,13,-28,29,-14,-21,-12,-18
1491693464378,0,3,19,32,-77,93,6,-5,17
1491693464380,1,-19,-19,-105,48,-78,-36,-15,-20
1491693464380,1,4,9,-15,-18,2,24,20,13
1491693464381,3,-11,10,6,23,19,36,-7,2
1491693464381,3,16,25,54,30,4,26,11,16
1491693464382,0,1,8,14,-1,-15,-7,1,6
1491693464382,0,8,18,55,30,62,21,16,-3
1491693464427,1,4,24,44,-11,7,-45,-15,6
1491693464427,1,-19,-52,-114,-48,-128,23,-1,0
1491693464428,2,-7,0,40,-79,17,-2,-5,-10
1491693464428,2,0,0,0,-5,-32,26,0,7
1491693464429,0,1,34,-100,-64,-27,-14,-14,4
1491693464429,0,-17,68,17,-39,52,2,11,-1
1491693464430,1,16,93,-59,53,24,20,0,22
1491693464430,1,-5,84,-48,-54,-77,-19,-11,-27
1491693464476,2,-1,55,61,19,19,-31,1,15
1491693464476,2,-10,-19,-126,-22,-93,-2,-8,-16
1491693464477,3,11,8,16,-22,7,21,1,3
1491693464477,3,6,-3,51,25,8,66,24,2
1491693464478,1,4,-128,-26,-9,-3,8,-3,-16
1491693464478,1,-3,-54,69,30,77,54,-10,-7
1491693464479,2,2,-73,-83,6,-16,3,17,3
1491693464479,2,2,-64,-16,-46,-102,1,-3,10
1491693464525,3,-4,-21,15,-13,44,-4,-2,-18
1491693464525,3,12,-17,7,10,41,-20,-3,4
1491693464526,0,-7,5,35,-11,1,32,0,-14
1491693464526,0,-3,4,-12,30,22,-34,-7,-1
1491693464527,2,0,7,-36,-24,-126,2,2,2
1491693464527,2,0,48,101,18,69,2,-7,5
1491693464528,3,-5,-4,-27,-65,32,6,-8,0
1491693464528,3,5,6,-106,-32,-64,-54,4,7
1491693464573,0,-6,13,52,36,27,7,5,-14
1491693464573,0,20,2,-48,-34,-18,-4,-1,3
1491693464575,1,-20,15,64,23,-6,-4,2,16
1491693464575,1,-7,-31,-5,30,25,-20,3,-1
1491693464576,3,-5,8,52,32,-10,-13,2,6
1491693464576,3,-11,1,-48,-37,-7,0,-13,-15
1491693464577,0,19,62,44,34,-4,-15,16,8
1491693464577,0,-3,18,33,-10,8,-7,4,-3
1491693464622,1,-7,18,-41,5,-33,-10,-5,-4
1491693464622,1,-20,15,38,12,8,-2,-2,-5
1491693464623,2,-22,-35,-20,-12,43,-1,-2,-13
1491693464623,2,-6,-39,-40,-15,-41,-13,5,30
1491693464624,0,1,-14,-29,-16,25,1,1,21
1491693464624,0,-8,-5,17,10,22,27,7,-7
1491693464625,1,22,29,-21,-15,-3,-9,-11,-11
1491693464625,1,35,31,-2,-14,-26,-2,-22,-4
1491693464678,2,36,50,-2,-4,-12,33,-14,-6
1491693464678,2,16,37,-16,9,-4,-32,-14,7
1491693464680,3,-23,-15,4,-6,70,18,2,-8
1491693464680,3,-31,-24,-13,-11,-90,-27,1,11
1491693464681,1,-32,-27,-95,-18,-7,21,5,15
1491693464681,1,-12,-13,-6,-3,-21,8,11,8
1491693464682,2,-20,-13,17,25,-57,-18,-9,-3
1491693464682,2,4,-16,31,30,23,20,8,-5
1491693464722,3,-4,-13,-16,-21,-35,-24,-4,-8
1491693464722,3,13,-3,39,25,88,43,0,0
1491693464723,0,12,-5,-21,-6,23,-25,3,-4
1491693464723,0,0,-3,-33,-61,-24,-21,-6,-16
1491693464725,1,23,1,16,15,5,-2,5,13
1491693464725,1,14,27,4,-2,53,7,9,10
1491693464726,2,7,16,49,27,-4,-1,2,-11
1491693464726,2,2,0,-36,-2,-28,4,-3,-2
1491693464768,3,21,-5,5,-9,0,24,9,-8
1491693464768,3,16,-17,-1,-15,-14,6,0,-1
1491693464770,0,16,8,-5,-4,15,-1,3,3
1491693464770,0,5,-13,-9,3,-26,4,0,-6
1491693464772,2,19,8,-39,-31,-78,-29,-3,8
1491693464772,2,20,-3,-8,21,14,-6,12,1
1491693464774,3,-4,1,-3,1,-4,1,-22,-17
1491693464774,3,-5,4,9,19,33,-18,1,-6
1491693464819,0,-16,8,42,24,46,13,-4,-3
1491693464819,0,-15,-28,-32,-34,-22,9,-3,2
1491693464820,1,2,12,3,2,-6,-13,-3,-4
1491693464820,1,-14,-8,7,-18,-4,-1,5,-7
1491693464821,3,-6,16,7,-18,-29,-4,1,-7
1491693464821,3,-3,-4,-19,-1,-22,0,1,22
1491693464823,0,-18,1,9,10,49,0,4,-9
1491693464823,0,-14,8,30,37,54,8,-5,1
1491693464866,1,-2,-7,-12,-22,-82,-30,-3,18
1491693464866,1,-32,16,7,-16,92,5,-8,5
1491693464868,2,-7,8,-12,15,-85,-43,-7,4
1491693464868,2,-6,5,-2,13,9,-1,-12,-5
1491693464869,0,6,51,50,13,39,-24,-6,-9
1491693464869,0,-5,20,-58,-54,-24,-31,-7,-6
1491693464871,1,-9,10,9,5,-2,3,-1,-1
1491693464871,1,-7,-46,-20,-8,74,19,10,3
1491693464915,2,-3,-34,16,-16,14,10,1,-4
1491693464915,2,7,-15,27,4,-93,-38,-6,7
1491693464916,3,-4,0,5,8,-43,-4,-14,-15
1491693464916,3,-3,0,7,6,-1,-20,0,0
1491693464918,1,-1,-29,-100,-64,51,-5,-1,12
1491693464918,1,6,44,-7,-10,-108,-113,-18,-6
1491693464920,2,3,66,71,34,127,34,8,4
1491693464920,2,-1,35,-51,-43,-71,-1,4,-3
1491693464963,3,-8,37,18,10,54,26,5,-8
1491693464963,3,-2,-20,4,-4,-50,1,-9,-9
1491693465012,0,0,-76,-37,-56,73,-45,3,10
1491693465012,0,5,-75,26,53,-38,-18,1,2
1491693465014,2,0,-43,-12,58,-13,13,4,12
1491693465014,2,-2,-23,-5,21,24,35,21,-1
1491693465016,3,-9,-18,-56,-43,-18,-43,-9,-1
1491693465016,3,11,-3,39,18,98,64,18,19
1491693465017,0,20,33,52,-12,-78,-8,-14,4
1491693465017,0,3,33,-73,-35,-1,75,11,-18
1491693465061,1,2,76,22,-1,-66,-51,-18,-3
1491693465061,1,-14,72,14,10,48,-7,6,15
1491693465063,3,8,16,42,-10,42,-14,13,7
1491693465063,3,-9,-6,-72,-29,-91,-47,-34,-25
1491693465064,0,-1,-13,-17,6,-33,8,4,3
1491693465064,0,-9,-38,-14,-9,10,-29,-18,-13
1491693465065,3,-15,-12,36,71,42,34,0,-22
1491693465065,3,2,-3,-31,-66,49,-17,12,15
1491693465110,0,-14,-2,-53,3,-82,-33,5,-6
1491693465110,0,12,33,50,-57,-10,-24,-18,0
1491693465113,1,-2,12,-30,74,-6,0,3,-13
1491693465113,1,-3,7,-34,-44,-5,15,7,10
1491693465114,0,-4,-9,-19,-35,-38,70,-6,10
1491693465114,0,2,18,66,-12,-11,-45,0,-1
1491693465115,1,-7,-29,-80,-6,-27,-2,-12,7
1491693465115,1,3,-2,9,-13,-14,-1,-3,-12
1491693465159,2,-2,-8,25,29,26,-17,10,10
1491693465159,2,0,0,-22,-47,23,2,-18,-24
1491693465161,3,3,1,2,-15,-63,-31,-7,6
1491693465161,3,7,-4,22,15,43,21,-7,1
1491693465162,1,-9,-13,3,-5,1,-4,4,-8
1491693465162,1,-5,-21,-4,34,-7,-14,1,-12
1491693465163,2,0,8,22,-29,-26,-10,-7,-8
1491693465163,2,10,-7,-55,-33,-38,-34,12,22
1491693465207,3,-11,-20,11,28,40,20,3,-14
1491693465207,3,-2,4,3,23,-5,-14,1,6
1491693465209,0,-10,-16,3,-36,-30,39,2,-4
1491693465209,0,16,-1,-8,2,-56,-59,-1,19
1491693465210,2,2,8,-11,-50,40,-53,-14,-15
1491693465210,2,-1,-10,24,57,77,33,22,0
1491693465211,3,3,-5,-48,-40,-107,-68,-9,9
1491693465211,3,4,0,-13,-49,-27,39,-7,-3
1491693465256,0,-4,-3,5,40,22,-13,-5,0
1491693465256,0,-11,-5,27,7,61,-24,-13,-12
1491693465258,1,-2,2,-2,7,6,18,8,-7
1491693465258,1,-1,-4,-7,-73,11,2,-5,-8
1491693465259,3,6,-5,-16,-2,-42,-32,-22,-6
1491693465259,3,-7,-3,-14,-39,10,20,-5,3
1491693465260,0,-2,-13,17,-17,23,17,8,-7
1491693465260,0,6,20,28,31,21,8,7,3
1491693465305,1,-8,2,-6,4,93,21,2,18
1491693465305,1,13,-14,-51,-55,-127,-77,9,3
1491693465307,2,2,-4,-5,-37,48,6,-5,26
1491693465307,2,-6,3,-15,22,61,13,1,-6
1491693465309,0,-17,-9,-13,-31,27,-13,0,-20
1491693465309,0,15,2,-40,-14,-87,-25,-3,8
1491693465310,1,-15,16,46,19,13,-7,-9,-14
1491693465310,1,5,-1,-23,15,35,-15,8,2
1491693465353,2,-1,-11,-28,-12,-78,-58,-16,-11
1491693465353,2,-15,-1,1,8,6,45,3,-25
1491693465355,3,3,4,6,-9,4,-7,-8,-1
1491693465355,3,-4,3,27,2,-14,-7,7,-4
1491693465356,1,5,-14,-12,17,-55,28,17,6
1491693465356,1,-22,5,24,2,39,-27,-17,-26
1491693465451,2,8,9,15,9,-14,12,11,15
1491693465451,2,-9,-4,-2,-21,-25,-9,-5,7
1491693465453,3,-5,-17,-20,-47,-25,-13,-10,-17
1491693465453,3,16,1,14,-21,9,18,7,-1
1491693465454,0,-4,11,34,39,-25,-27,-10,-8
1491693465454,0,-6,-10,-63,-43,9,-30,-8,-27
1491693465455,1,-8,4,5,28,41,34,5,42
1491693465455,1,-2,-8,0,-5,5,-17,-12,0
1491693465548,2,0,5,-5,-16,32,8,7,18
1491693465548,2,7,6,17,20,16,-5,-13,-17
1491693465551,3,2,-2,-17,2,-66,-27,-4,1
1491693465551,3,-7,-2,-15,16,29,27,16,15
1491693465552,0,8,10,15,17,-4,-27,0,17
1491693465552,0,-11,-10,19,-35,42,24,14,25
1491693465553,3,-17,-7,8,14,54,36,5,-21
1491693465553,3,-2,5,17,37,48,29,7,-8
1491693465597,0,-5,-26,-15,-23,21,31,10,-11
1491693465597,0,-2,-6,-34,-32,-54,-111,-7,17
1491693465598,1,8,20,16,-3,-15,83,3,9
1491693465598,1,-12,1,-1,18,32,28,-9,-21
1491693465599,1,-15,-26,-8,20,-24,-61,-23,-9
1491693465599,1,-10,5,27,24,37,2,11,8
1491693465600,2,10,-1,-37,-23,-39,5,-8,-4
1491693465600,2,-4,1,1,12,-11,-36,-23,-13
1491693465645,3,3,8,6,8,-6,-14,22,9
1491693465645,3,3,-7,7,-4,5,-12,8,24
1491693465647,0,-8,1,13,-5,1,-20,-12,-6
1491693465647,0,2,4,14,-48,101,72,11,14
1491693465647,2,4,4,18,3,35,28,9,-1
1491693465647,2,5,3,8,35,-91,16,0,47
1491693465648,3,-6,-6,7,-8,112,26,0,-13
1491693465648,3,12,-8,-26,-9,-80,-59,14,7
1491693465694,0,-7,10,-2,-35,-38,-13,-27,4
1491693465694,0,3,1,23,15,31,-7,-9,-20
1491693465695,1,14,26,9,82,65,73,14,43
1491693465695,1,-14,-23,-18,-36,7,-7,14,-41
1491693465696,3,-7,9,30,-15,51,14,-6,-25
1491693465696,3,3,8,-4,38,10,-19,-15,-11
1491693465697,0,4,1,35,33,55,-13,12,21
1491693465697,0,-8,-14,-15,5,25,65,24,-14
1491693465743,1,11,12,8,-15,4,-22,-5,3
1491693465743,1,-10,-5,-25,-40,1,-6,-22,-16
1491693465744,2,-6,-11,-19,-20,-57,-33,-14,-3
1491693465744,2,-7,7,-8,-78,-57,-30,1,-4
1491693465745,3,-12,-23,4,43,35,-4,0,-19
1491693465745,3,7,9,2,1,34,-14,17,-1
1491693465746,0,-1,10,19,94,-49,-21,-13,-1
1491693465746,0,11,-7,-25,-25,-26,35,-2,-14
1491693465798,1,-11,14,49,13,25,-17,1,-4
1491693465798,1,18,5,14,20,-9,40,18,51
1491693465798,2,-13,-11,-10,6,88,8,-16,-37
1491693465798,2,-1,-1,0,5,40,21,30,25
1491693465799,0,-3,-3,-4,2,-58,-1,-2,18
1491693465799,0,14,8,-8,29,43,13,3,15
1491693465800,1,-10,-2,0,3,29,9,-2,-15
1491693465800,1,0,-2,25,112,53,2,5,-9
1491693465890,2,10,1,32,65,64,1,2,14
1491693465890,2,-14,-13,-9,-96,-32,-35,1,-11
1491693465891,3,-13,-21,-83,-33,-29,-36,-9,-12
1491693465891,3,3,8,32,-58,-86,23,-1,24
1491693465892,1,20,19,44,10,72,34,16,15
1491693465892,1,1,2,-35,3,-62,23,3,-1
1491693465893,2,6,13,59,-12,107,3,16,13
1491693465893,2,6,-6,-1,21,64,7,2,-1
1491693465938,3,-8,0,-17,-36,-128,4,-10,-5
1491693465938,3,-11,-7,-63,-54,54,-18,-4,1
1491693465941,0,8,6,30,-23,31,9,9,-3
1491693465941,0,-4,-8,-12,11,-91,51,-11,-7
1491693465942,2,-16,-1,13,10,33,3,14,-1
1491693465942,2,-3,-6,-50,-69,-78,-74,-36,-15
1491693465944,3,10,-6,-72,-12,-38,14,19,18
1491693465944,3,4,14,25,18,106,-31,-11,-9
1491693465988,0,-14,-5,73,6,75,65,24,-11
1491693465988,0,-7,-24,-128,-127,-128,-69,-40,-15
1491693465998,1,-2,-1,33,17,127,-21,2,-1
1491693465998,1,-7,-4,40,52,98,34,16,-23
1491693466000,0,-13,18,36,16,110,14,5,-14
1491693466000,0,9,18,70,109,74,21,20,12
1491693466002,1,-10,-22,-88,-98,-104,-61,-10,16
1491693466002,1,-11,-20,-4,25,49,27,-6,-6
1491693466036,2,7,4,-18,-91,-15,-14,12,13
1491693466036,2,-13,2,-50,83,-81,-42,-17,-10
1491693466038,3,8,-2,62,127,104,11,-4,-3
1491693466038,3,-2,4,-32,-40,-43,-43,-17,3
1491693466038,1,4,16,29,-57,-76,-29,-13,7
1491693466038,1,2,-6,-38,-34,43,7,8,26
1491693466039,2,3,-10,-22,26,10,-26,-9,-6
1491693466039,2,-5,-9,-29,-27,46,54,9,-2
1491693466084,3,-6,-2,13,58,-22,-24,-1,-8
1491693466084,3,-8,-11,-50,-72,-110,-38,-22,-12
1491693466085,0,6,8,6,1,-47,-12,2,-2
1491693466085,0,-3,-3,23,26,98,27,1,0
1491693466086,2,1,-3,34,41,-11,-21,-6,-14
1491693466086,2,-1,7,2,-45,-40,-51,-1,-10
1491693466087,3,-6,11,78,24,83,51,9,-10
1491693466087,3,12,9,-24,82,80,85,-2,-5
1491693466133,0,-5,-9,36,-68,-87,-69,-6,11
1491693466133,0,10,-27,-96,-112,-65,26,-6,12
1491693466135,1,-2,20,109,57,76,-3,1,2
1491693466135,1,-3,-22,-42,-26,-39,22,5,-12
1491693466136,2,0,10,29,-11,125,51,4,-7
1491693466136,2,-3,-5,-25,-18,-93,-73,7,10
1491693466137,3,-3,-15,-109,-50,-40,-88,-39,-4
1491693466137,3,4,16,79,69,88,9,9,-8
1491693466182,0,-3,3,1,-15,47,15,-9,-4
1491693466182,0,-7,-23,-60,-70,103,51,-3,-1
1491693466184,1,14,-4,16,83,-64,8,20,3
1491693466184,1,-15,9,75,13,7,-12,-21,-20
1491693466185,3,-9,-8,-99,103,-77,52,-5,-10
1491693466185,3,4,-43,-104,2,127,-1,12,18
1491693466186,0,-2,-19,6,-31,-90,-65,-21,-11
1491693466186,0,-5,2,67,-43,92,3,-20,0
1491693466231,1,13,-2,-27,32,125,80,31,14
1491693466231,1,5,33,112,66,35,13,-1,0
1491693466232,2,3,-3,-70,16,-114,-17,20,11
1491693466232,2,-6,9,5,-15,68,-16,-17,-4
1491693466233,0,24,32,48,99,-88,-47,2,1
1491693466233,0,-21,-41,-65,-108,-62,18,-17,-8
1491693466234,1,-4,12,-9,-81,-43,-46,-19,0
1491693466234,1,-1,-24,-113,-10,-76,-15,14,13
1491693466280,2,-18,-18,-22,93,11,36,0,-10
1491693466280,2,16,25,64,53,-23,-5,8,6
1491693466281,3,1,-18,-13,28,48,3,-10,3
1491693466281,3,16,22,91,-126,26,82,59,15
1491693466282,1,-6,-13,36,-42,93,25,-3,-2
1491693466282,1,0,4,-50,-105,-60,-46,-16,-8
1491693466283,2,-6,12,28,-23,58,58,15,-8
1491693466283,2,16,-33,-125,-15,-77,-21,0,22
1491693466329,3,-20,19,72,14,74,-22,-20,-15
1491693466329,3,-16,-1,64,2,92,16,2,-7
1491693466334,0,-7,-35,-128,-65,-116,-23,8,-2
1491693466334,0,16,30,34,41,63,-38,-20,4
1491693466336,2,4,13,57,36,127,67,13,-1
1491693466336,2,16,8,7,-10,-109,-21,3,11
1491693466338,3,2,11,24,-5,-37,13,2,-2
1491693466338,3,-15,7,19,39,-75,-46,-11,-16
1491693466377,0,6,-11,-32,-31,24,42,7,18
1491693466377,0,-18,20,48,53,1,19,13,-16
1491693466426,1,-21,-34,-72,-5,103,31,-9,-13
1491693466426,1,28,-6,-75,-65,-100,-53,-11,7
1491693466427,3,6,-14,40,-29,-19,-47,-6,11
1491693466427,3,-15,-36,69,83,69,52,0,-14
1491693466429,0,0,-40,-35,-38,-69,-1,1,4
1491693466429,0,-14,-12,-2,-5,9,-36,-10,-12
1491693466430,1,6,51,43,-4,-69,-25,-7,8
1491693466430,1,21,32,-8,31,23,14,12,-4
1491693466475,2,13,23,6,11,-35,-22,-19,-7
1491693466475,2,-12,-31,-38,-8,-5,27,0,-18
1491693466477,0,-30,-71,-33,-60,-34,32,4,-7
1491693466477,0,-3,-45,-37,-71,25,9,8,-1
1491693466478,1,4,-33,-5,14,-98,7,5,3
1491693466478,1,-17,-10,49,28,13,-20,-15,-13
1491693466479,0,4,-8,-123,-35,-36,-11,-8,1
1491693466479,0,33,17,-28,-39,-30,-20,9,-2
1491693466580,1,-1,18,107,36,60,20,-9,-14
1491693466580,1,6,30,-40,-24,3,29,-6,-6
1491693466581,2,29,25,22,31,-27,-36,-8,21
1491693466581,2,-14,-18,44,47,26,-1,-5,0
1491693466582,1,-34,-25,-14,-9,3,-15,-4,-20
1491693466582,1,15,3,-14,-33,-14,18,6,14
1491693466584,2,-11,29,32,7,-22,14,14,3
1491693466584,2,1,37,3,34,-25,3,7,-6
1491693466621,3,1,23,-4,-38,54,-15,-11,-17
1491693466621,3,1,-3,-17,-22,-75,-47,5,27
1491693466622,0,-14,5,0,-4,50,18,-9,-17
1491693466622,0,5,-8,-28,-3,12,41,24,13
1491693466624,2,4,-7,-32,-15,22,25,-5,-6
1491693466624,2,11,4,41,-4,-54,-43,-17,8
1491693466625,3,-2,-10,-3,-5,-70,-26,7,1
1491693466625,3,-13,-21,-17,36,89,15,25,16
1491693466670,0,-6,4,21,-17,35,19,45,-3
1491693466670,0,2,9,21,3,-86,-42,29,4
1491693466673,1,2,14,17,30,64,35,37,-1
1491693466673,1,-3,-7,-27,-15,-17,-13,11,-7
1491693466674,0,-5,-3,-16,44,-85,7,-6,-1
1491693466674,0,-1,4,-44,-9,-9,-48,-20,-10
1491693466675,1,-22,-12,-39,-5,-50,-38,-8,-11
1491693466675,1,-7,24,57,22,80,2,-8,-6
1491693466718,2,-5,-12,-32,-11,61,36,1,-11
1491693466718,2,9,23,38,2,-52,-23,-24,-3
1491693466721,3,7,-13,-32,-9,19,-8,-9,6
1491693466721,3,-4,2,0,-1,-14,16,-7,-8
1491693466723,1,0,16,70,94,54,-57,-17,1
1491693466723,1,-5,-4,-7,-101,-28,22,13,-15
1491693466724,2,0,-19,-70,5,-124,-44,-11,-10
1491693466724,2,-12,4,47,15,84,12,1,-8
1491693466767,3,-3,7,-21,14,36,13,4,-7
1491693466767,3,0,-11,-34,29,-30,-1,0,13
1491693466769,0,-6,0,20,-5,43,20,2,-8
1491693466769,0,-3,-5,-11,-2,15,-2,-6,15
1491693466771,2,2,-19,-90,-78,-38,-9,3,3
1491693466771,2,-3,1,24,25,-12,-57,-26,11
1491693466773,3,-14,-12,-2,-19,6,-51,-25,-4
1491693466773,3,-15,-16,-79,-74,-30,42,-17,-28
1491693466816,0,10,8,21,75,-63,-25,-11,16
1491693466816,0,-4,-10,-69,-36,2,-22,-6,-12
1491693466818,1,2,-8,1,51,-14,-23,7,1
1491693466818,1,14,17,34,54,29,38,39,42
1491693466819,2,-5,4,18,-63,-13,48,12,-21
1491693466819,2,-2,-5,-4,12,-84,-13,-7,10
1491693466821,3,8,1,-16,-28,-70,-76,12,7
1491693466821,3,1,15,38,44,36,-24,-11,-9
1491693466865,0,9,-1,-49,-44,-3,-22,-1,18
1491693466865,0,-6,1,25,48,85,31,15,-5
1491693466867,1,-3,-33,-77,-113,-128,-20,-12,-8
1491693466867,1,10,5,31,31,11,60,-13,8
1491693466868,3,5,5,46,21,51,59,10,8
1491693466868,3,5,-9,-39,14,-29,10,19,-7
1491693466869,0,10,1,12,12,0,-13,-2,13
1491693466869,0,-19,-10,0,-9,-23,40,23,3
1491693466919,1,-12,-2,-19,13,93,42,8,-9
1491693466919,1,-5,-5,24,-32,-50,-33,6,-15
1491693466921,2,22,9,-4,-19,-62,-74,-48,27
1491693466921,2,3,3,25,-18,-4,-85,-9,-12
1491693466922,0,-5,-5,-15,-22,34,-20,1,-15
1491693466922,0,4,5,29,8,-87,-12,18,6
1491693466923,1,4,-11,-30,-20,20,30,-20,12
1491693466923,1,-5,-5,1,20,-23,0,-4,-5
1491693466962,2,-11,11,26,-32,42,-6,0,-20
1491693466962,2,6,5,-23,-6,19,15,-1,7
1491693466965,3,-6,6,36,-5,86,51,3,-27
1491693466965,3,-4,-18,-78,11,-29,-27,-6,-13
1491693466966,1,2,-10,-30,-57,-6,-37,-3,50
1491693466966,1,-4,-3,27,-2,21,37,-12,-14
1491693466967,2,18,7,59,28,24,21,11,27
1491693466967,2,-4,-16,-54,-1,-26,-10,7,12
1491693467011,3,-2,-2,13,11,-27,39,-13,6
1491693467011,3,-8,1,-4,-19,-42,-20,12,6
1491693467013,0,-8,1,-15,3,-18,27,-14,-33
1491693467013,0,8,-5,-7,-37,-31,-18,-3,8
1491693467014,2,-10,-15,-9,-66,-40,4,11,-5
1491693467014,2,-7,10,33,29,33,3,-17,-27
1491693467015,3,11,6,10,-31,75,55,11,16
1491693467015,3,9,0,4,56,-89,-104,-21,-5
1491693467060,0,-2,-12,5,32,9,15,-27,10
1491693467060,0,9,5,24,7,-26,2,9,14
1491693467062,1,-1,-5,-40,-12,-26,-19,-16,-37
1491693467062,1,7,4,17,-39,29,57,17,36
1491693467070,3,-1,6,-20,45,-50,-114,-37,-6
1491693467070,3,6,8,18,-54,-11,4,-2,-3
1491693467071,0,18,0,-44,-40,23,48,2,2
1491693467071,0,1,-10,-22,-24,-53,-45,-18,-4
1491693467108,1,20,23,31,29,64,0,28,36
1491693467108,1,-13,-17,-14,11,3,40,-6,-32
1491693467110,2,-11,5,9,9,-5,-45,-8,0
1491693467110,2,20,6,13,4,56,25,-8,34
1491693467114,0,-1,-6,18,-2,-9,5,5,-21
1491693467114,0,-10,6,-30,-34,51,11,-17,-7
1491693467115,1,1,17,61,3,-92,-37,0,19
1491693467115,1,37,-4,-15,54,32,20,14,18
1491693467157,2,-34,-20,-77,-18,67,11,3,-34
1491693467157,2,-1,-3,-8,-13,-128,15,-3,27
1491693467158,3,-25,-12,-14,-19,33,11,-15,-23
1491693467158,3,-1,6,21,17,26,-42,4,-1
1491693467159,0,19,18,21,-9,8,-5,9,13
1491693467159,0,-2,-2,-5,4,-63,-73,-9,-27
1491693467160,1,16,4,-11,0,17,-2,13,36
1491693467160,1,-34,-5,0,0,-3,-6,-1,-31
1491693467206,2,14,-3,8,-28,-3,32,-4,14
1491693467206,2,-14,-5,-11,45,17,-24,4,-21
1491693467207,3,-19,-14,28,-24,14,37,5,-23
1491693467207,3,5,-2,5,-56,-94,-13,-15,21
1491693467254,1,29,13,-4,-19,-51,3,-1,3
1491693467254,1,-16,-13,-28,-36,4,-34,-4,-3
1491693467256,2,1,27,63,63,-40,-14,1,15
1491693467256,2,24,-2,39,8,33,11,8,7
1491693467257,3,-12,-3,-63,7,38,-71,-15,-24
1491693467257,3,-13,-12,-37,-65,-23,-19,-4,10
1491693467258,0,4,-10,-28,-13,-42,-14,-12,8
1491693467258,0,-20,-7,16,-7,106,38,-10,-52
1491693467352,2,-11,-15,-17,10,-80,51,16,49
1491693467352,2,11,-3,9,-15,-21,0,-11,5
1491693467353,3,3,13,17,12,84,23,9,0
1491693467353,3,-8,11,28,5,7,51,6,0
1491693467354,0,-17,-16,-12,5,-74,-80,0,-4
1491693467354,0,-2,-5,-41,-10,33,-3,0,14
1491693467355,3,-4,-14,9,-18,67,25,-12,-27
1491693467355,3,6,8,22,10,-38,4,-6,-8
1491693467402,0,-7,-12,-62,-39,-29,-5,-3,-12
1491693467402,0,3,-1,-24,-20,-36,-32,2,12
1491693467403,1,-9,0,3,-4,2,5,-17,11
1491693467403,1,8,-17,-12,31,39,67,20,12
1491693467450,0,14,-11,-50,-23,35,38,-7,-1
1491693467450,0,-1,-1,-18,-26,-3,-42,-18,-15
1491693467452,1,-7,-9,10,29,-8,6,4,4
1491693467452,1,-5,0,-32,-27,-83,25,14,9
1491693467498,2,5,-7,-5,-14,43,-49,-21,-6
1491693467498,2,5,9,4,8,-32,-20,-4,0
1491693467500,3,4,-19,-32,-6,5,15,1,1
1491693467500,3,-3,19,9,-17,-1,-9,-23,-26
1491693467501,2,4,1,2,4,3,-19,5,17
1491693467501,2,-7,-5,-2,-21,46,46,-1,-23
1491693467502,3,4,5,13,7,-4,-26,9,10
1491693467502,3,-14,-3,0,-12,3,-14,-4,-24
1491693467547,0,-16,-16,14,32,6,-10,7,8
1491693467547,0,6,12,-16,-67,-44,5,-20,-2
1491693467548,3,12,-2,-14,-33,-99,36,-7,16
1491693467548,3,-21,-11,0,-16,92,0,13,7
1491693467549,0,-9,-3,38,21,-91,-46,-12,-14
1491693467549,0,10,1,-37,4,7,11,0,6
1491693467550,3,2,-2,-4,8,5,-14,-5,-16
1491693467550,3,14,13,43,49,-16,0,1,10
1491693467644,0,-2,5,-6,-2,-52,-38,-5,-8
1491693467644,0,-9,-11,25,-19,8,18,-3,-15
1491693467645,1,-12,-16,0,35,107,86,30,21
1491693467645,1,1,8,4,41,-81,-116,-47,-25
1491693467646,0,20,-2,14,64,68,75,15,23
1491693467646,0,-21,-25,-53,10,-24,-71,-14,-44
1491693467647,1,4,4,-17,-29,-47,-76,-12,-2
1491693467647,1,8,-10,-11,-18,64,19,10,2
1491693467693,2,-3,16,-3,-29,-32,-42,-6,-10
1491693467693,2,-6,-3,30,11,67,95,27,3
1491693467694,3,21,17,16,54,2,-38,-10,-10
1491693467694,3,-16,-15,-12,-7,10,80,31,24
1491693467695,2,-12,-2,-32,-49,-124,-5,8,11
1491693467695,2,6,1,38,82,50,-7,27,22
1491693467696,3,5,17,3,-40,9,-41,-48,-8
1491693467696,3,-14,4,-3,-29,70,-10,-3,-30
1491693467742,0,3,-18,-56,-88,-87,-34,11,-6
1491693467742,0,5,1,-14,-14,54,15,-17,-4
1491693467743,1,-10,-24,-16,41,-102,-65,12,32
1491693467743,1,11,23,25,4,-12,-18,-3,-6
1491693467744,3,8,-3,-5,-20,42,13,0,19
1491693467744,3,-10,-5,-12,-2,14,18,-24,-20
1491693467745,0,-2,2,35,69,49,12,29,25
1491693467745,0,7,22,51,70,40,-70,-9,-35
1491693467791,1,-11,-13,-22,-47,11,82,-9,-24
1491693467791,1,-5,-14,-79,-113,-103,-89,-22,2
1491693467793,2,-14,-11,24,77,126,-10,-3,1
1491693467793,2,7,-1,-44,-79,-128,-74,-19,-27
1491693467794,0,30,32,23,-41,-55,-36,1,54
1491693467794,0,-18,-5,35,16,31,62,-9,-22
1491693467797,1,-1,-3,-19,48,96,16,27,16
1491693467797,1,1,-8,2,29,-101,14,11,7
1491693467843,2,-2,-8,-45,-83,-55,-82,-17,-7
1491693467843,2,0,2,36,-65,55,20,-10,-4
1491693467845,3,9,12,-27,-14,60,32,-9,-19
1491693467845,3,6,1,-1,52,-70,18,13,28
1491693467846,1,-7,-2,21,14,-1,-7,-21,5
1491693467846,1,13,3,-5,38,127,9,35,20
1491693467847,2,-17,-13,-5,-19,-52,6,-22,-33
1491693467847,2,-5,4,-38,-26,-24,22,-16,-14
1491693467937,3,1,18,65,-40,58,37,34,-1
1491693467937,3,-19,-20,-90,14,-86,-90,-36,-30
1491693467938,0,20,12,17,15,-65,42,17,6
1491693467938,0,-7,-10,22,80,88,42,14,-11
1491693467939,1,6,-5,-3,1,-35,-22,6,11
1491693467939,1,4,8,7,-22,104,31,17,19
1491693467941,2,-21,0,19,-30,59,68,-24,-25
1491693467941,2,-5,-14,-72,-59,-84,-62,3,25
1491693467986,3,5,5,64,22,64,-42,9,-22
1491693467986,3,-1,-14,-74,-46,-114,22,-1,-7
1491693467987,0,-15,-32,-22,33,54,5,-18,-7
1491693467987,0,24,30,24,38,103,-32,-9,0
1491693467988,3,-2,-2,56,14,13,12,1,10
1491693467988,3,6,5,-13,-8,-29,-41,-45,-24
1491693467990,0,-1,7,38,48,69,-9,16,2
1491693467990,0,-3,-3,-25,-26,-75,15,11,-13
1491693468034,1,-11,-10,-36,-3,80,-38,-20,2
1491693468034,1,8,3,39,26,-82,-70,3,-18
1491693468036,2,-7,13,35,22,-48,9,6,-13
1491693468036,2,4,-29,-86,-76,-13,-6,0,8
1491693468037,0,12,2,-14,3,4,39,-12,12
1491693468037,0,-11,10,15,-8,1,0,20,-23
1491693468041,1,12,25,60,14,36,39,-3,-15
1491693468041,1,11,-21,-13,-4,26,-17,-4,-12
1491693468083,2,-14,-7,9,19,45,108,12,-25
1491693468083,2,-2,6,27,32,22,-89,-31,0
1491693468085,3,18,5,-13,-53,-125,14,-13,6
1491693468085,3,-19,11,90,46,91,25,-5,4
1491693468086,1,3,8,10,16,13,-50,10,18
1491693468086,1,3,18,55,-69,7,79,6,9
1491693468087,2,-11,-38,-101,25,-45,-34,29,7
1491693468087,2,-6,18,26,-41,47,37,-21,-2
1491693468132,3,8,-6,24,75,-10,-91,7,6
1491693468132,3,-16,-1,36,-2,58,123,21,3
1491693468140,0,32,16,0,5,18,-8,10,17
1491693468140,0,-21,-41,-86,-52,-128,16,3,-12
1491693468142,2,-32,-19,-4,29,-4,-3,-2,-21
1491693468142,2,9,5,7,7,87,24,10,2
1491693468144,3,-26,-25,-106,-52,-36,-62,-83,-6
1491693468144,3,9,12,-25,-101,35,35,38,8
1491693468182,0,0,28,127,111,120,-9,-16,-2
1491693468182,0,-1,-23,-48,-59,-80,118,48,-5
1491693468184,1,-20,-5,4,-23,-8,38,-23,-14
1491693468184,1,3,-2,-15,3,-39,-75,-45,-6
1491693468189,3,2,-2,18,19,-9,81,13,-4
1491693468189,3,-10,-14,-10,26,-37,-63,7,-10
1491693468190,0,-2,-6,-54,-64,42,44,36,1
1491693468190,0,-11,1,33,54,15,-14,9,-8
1491693468230,1,14,44,69,67,11,113,29,13
1491693468230,1,-9,-22,-35,-62,-66,48,1,-6
1491693468231,2,-11,-28,-107,-121,-77,-47,-30,-11
1491693468231,2,-2,18,61,31,25,-31,-19,-11
1491693468233,3,-18,-28,-48,-48,117,52,8,-7
1491693468233,3,19,15,72,72,-126,-10,10,-3
1491693468278,0,-8,-2,-36,7,121,85,9,-2
1491693468278,0,3,36,33,64,20,58,24,6
1491693468280,1,1,-27,-8,65,10,-22,-10,6
1491693468280,1,-20,-6,-27,34,-18,-1,-3,-17
1491693468283,2,11,2,7,19,-68,-35,-23,-5
1491693468283,2,-9,-14,-57,-104,-11,-104,-20,-9
1491693468284,0,6,-19,-38,-84,-45,-2,-9,6
1491693468284,0,-3,5,27,31,-51,52,3,-2
1491693468327,1,-18,4,32,-10,-8,53,1,7
1491693468327,1,16,-6,-91,-48,-3,-41,-15,16
1491693468328,2,0,28,86,81,58,46,24,17
1491693468328,2,12,-20,-30,20,21,-37,-13,16
1491693468330,1,-6,2,29,42,-100,-33,7,-5
1491693468330,1,-8,-20,-76,-98,-33,-22,-26,5
1491693468331,2,-14,-18,-46,-26,-36,-12,-16,-14
1491693468331,2,-16,5,55,44,45,-13,-1,-14
1491693468376,3,9,-12,-77,-36,64,79,35,17
1491693468376,3,19,2,25,11,14,-26,-1,-9
1491693468377,0,7,25,41,26,-39,-14,-17,3
1491693468377,0,12,41,18,-4,-14,-24,2,7
1491693468378,2,5,-1,-74,-48,-1,-44,-7,15
1491693468378,2,3,18,45,50,-21,-22,6,6
1491693468379,3,-1,39,13,-16,-27,78,23,-5
1491693468379,3,-18,59,15,-12,-20,-17,-17,13
1491693468425,0,-29,20,42,21,10,37,20,-12
1491693468425,0,2,-38,-35,3,94,23,-15,-27
1491693468426,1,7,-46,-48,-49,-68,-47,3,30
1491693468426,1,11,1,35,7,24,1,7,-6
1491693468427,3,20,-47,5,-55,79,-16,-9,-15
1491693468427,3,23,-39,8,51,-44,36,19,3
1491693468428,0,4,-47,-31,-21,-51,7,-16,-1
1491693468428,0,-10,-6,11,-6,-1,13,-17,-11
1491693468475,1,0,-20,44,18,24,-54,-7,15
1491693468475,1,-5,12,14,22,64,68,16,-8
1491693468476,2,9,7,29,30,11,16,14,4
1491693468476,2,-2,10,-52,-51,18,-35,5,5
1491693468477,0,-1,3,-39,-40,-15,-21,-17,-9
1491693468477,0,-15,7,53,57,89,28,2,-10
1491693468478,1,8,0,-9,-49,-100,86,15,0
1491693468478,1,-5,20,66,64,-15,-12,-9,-3
1491693468522,2,-10,-25,-25,17,-84,-44,-18,-28
1491693468522,2,-14,-20,11,-10,14,37,-4,2
1491693468525,3,-19,27,-36,-33,122,40,-4,-33
1491693468525,3,-1,39,-22,1,-78,-49,-4,-4
1491693468526,1,-1,9,-23,24,-37,-36,-14,-9
1491693468526,1,4,6,4,-30,68,11,-11,-14
1491693468528,2,-4,-18,6,47,127,58,10,-19
1491693468528,2,19,-7,41,0,-21,-21,-30,-24
1491693468571,3,5,-41,40,52,64,49,4,-8
1491693468571,3,14,-67,-63,-33,17,-8,-12,4
1491693468574,0,4,-54,-6,19,38,27,1,19
1491693468574,0,0,-37,12,-4,-11,16,8,12
1491693468575,1,-2,-26,-30,47,-74,-81,-16,18
1491693468575,1,-22,-23,-10,-68,9,45,12,0
1491693468576,2,0,-23,-11,-11,-8,-55,-10,14
1491693468576,2,-12,-1,-34,-67,-39,-18,-3,-1
1491693468621,3,1,18,60,49,-13,-15,1,23
1491693468621,3,-16,-13,-51,-39,-54,-13,-1,-4
1491693468623,0,-22,20,67,56,63,42,-12,-20
1491693468623,0,-13,0,-79,-76,-88,36,11,5
1491693468624,2,3,12,29,2,-59,-29,-3,7
1491693468624,2,2,14,20,50,63,18,15,30
1491693468625,3,11,5,-9,17,-2,29,-1,-4
1491693468625,3,-6,25,41,2,25,8,-10,-7
1491693468669,0,2,79,34,6,8,-18,2,1
1491693468669,0,-7,23,-30,10,53,37,12,-14
1491693468673,1,6,76,-50,-60,-3,-99,-44,13
1491693468673,1,7,30,-1,-25,46,16,4,-10
1491693468674,3,-9,-40,-36,-41,-126,-36,-4,-23
1491693468674,3,1,-14,-3,6,57,3,-11,-6
1491693468675,0,-13,-24,1,1,76,-28,-14,-10
1491693468675,0,8,16,-8,-45,-128,-48,-7,-6
1491693468717,1,-1,4,59,81,81,47,23,1
1491693468717,1,5,-10,-48,-18,-52,-2,12,7
1491693468729,2,-2,-28,-27,-44,-128,-14,5,7
1491693468729,2,0,10,79,41,62,-64,-36,8
1491693468731,0,-6,-37,-60,-64,9,21,-12,-25
1491693468731,0,25,2,47,-23,19,30,21,27
1491693468732,1,-2,-13,-2,-15,-42,8,3,2
1491693468732,1,0,-23,-28,-49,-49,-125,-20,-10
1491693468766,2,3,-15,-40,2,-25,32,-3,-10
1491693468766,2,-9,-27,-18,-18,56,13,0,-16
1491693468769,3,-4,16,61,21,-25,-28,-7,8
1491693468769,3,1,-7,27,42,-16,35,13,-6
1491693468772,1,8,3,41,1,37,0,-4,10
1491693468772,1,-13,-22,-53,-45,15,-10,13,-7
1491693468774,2,6,14,17,-33,-31,-19,-39,-6
1491693468774,2,3,-2,-4,57,51,69,14,25
1491693468815,3,4,-6,11,-4,63,35,-18,-22
1491693468815,3,-9,-12,-4,-40,-110,-81,-16,-9
1491693468820,0,16,-2,15,7,57,25,15,21
1491693468820,0,-4,-9,-5,-26,-93,-43,11,-18
1491693468823,2,-15,-12,-36,-88,-127,-123,3,-14
1491693468823,2,15,-14,-58,-58,-100,29,-18,45
1491693468826,3,-10,0,-8,-6,78,-6,-10,11
1491693468826,3,-4,-3,-35,-20,16,-5,-19,14
1491693468863,0,5,9,53,35,92,56,17,19
1491693468863,0,-13,4,59,17,-5,15,5,-4
1491693468865,1,0,-7,-38,43,-90,-60,-13,3
1491693468865,1,8,-7,-35,-55,7,-9,-5,22
1491693468867,3,10,9,44,-32,74,7,13,29
1491693468867,3,11,26,45,66,-45,-11,19,6
1491693468868,0,2,-11,-34,-43,-56,-41,0,21
1491693468868,0,-4,-11,-12,31,49,76,-10,-27
1491693468912,1,-2,8,12,-12,88,-33,17,-20
1491693468912,1,15,-5,-2,3,-47,12,-7,20
1491693468914,2,8,4,20,23,-35,-26,18,-1
1491693468914,2,0,5,-38,-32,-3,-28,-22,-18
1491693468915,0,0,-3,21,-36,80,6,-6,-14
1491693468915,0,18,17,44,53,-82,-53,6,-3
1491693468916,1,-25,-18,-86,-43,-59,29,-22,-23
1491693468916,1,17,3,16,-46,9,-25,3,10
1491693468961,2,-1,20,63,78,53,-36,-11,-3
1491693468961,2,1,-2,-28,-12,-19,34,12,-7
1491693468964,3,-6,-19,-28,-8,-39,-26,-10,-17
1491693468964,3,-3,-3,-3,30,41,51,26,12
1491693468965,0,0,6,-3,2,0,-19,-17,-10
1491693468965,0,-6,10,32,1,127,47,-3,-5
1491693468966,1,1,6,68,25,-22,-22,-8,-5
1491693468966,1,-11,-22,-96,-54,-102,-32,-11,-11
1491693469010,2,-2,1,0,40,14,8,-10,-13
1491693469010,2,11,4,-17,6,56,3,15,31
1491693469012,3,6,6,6,-4,-10,48,-10,-7
1491693469012,3,-6,2,-5,-51,66,19,-15,-16
1491693469013,1,3,-1,-1,-10,50,15,-10,6
1491693469013,1,-11,14,43,-15,55,20,-7,-12
1491693469014,2,14,13,9,51,16,71,44,9
1491693469014,2,-15,-28,-73,-63,-42,-70,-36,-20
1491693469058,3,-1,-5,8,70,98,42,36,47
1491693469058,3,-2,-4,-3,-35,-128,-51,-22,-11
1491693469060,0,-17,6,19,-27,108,5,-36,-36
1491693469060,0,-10,-16,-9,-11,-27,-44,11,16
1491693469061,2,8,-4,5,-7,-6,24,-1,-3
1491693469061,2,-1,8,2,10,-21,2,3,1
1491693469063,3,7,4,4,34,30,-14,1,4
1491693469063,3,-9,-1,39,31,100,23,12,10
1491693469107,0,-10,-4,-45,-61,-117,-63,-25,-10
1491693469107,0,9,0,12,-21,85,47,-15,7
1491693469108,1,-14,1,13,55,-9,-21,3,-13
1491693469108,1,3,-3,27,-2,-33,-30,3,6
1491693469156,3,-7,-9,-19,-60,4,12,-10,-37
1491693469156,3,9,9,30,18,91,36,21,8
1491693469157,0,7,-4,-38,-12,-68,-23,-15,-11
1491693469157,0,-15,4,22,-3,2,18,1,-27
1491693469158,1,5,2,11,2,-8,-41,-2,16
1491693469158,1,8,3,-2,13,-28,-21,1,-5
1491693469159,2,-14,-14,11,10,26,26,15,0
1491693469159,2,3,16,11,-23,66,20,-10,-2
1491693469205,0,-5,-7,3,29,112,44,17,17
1491693469205,0,4,5,13,-8,-69,-63,-20,-5
1491693469206,1,-3,4,-29,-27,7,-20,-18,-18
1491693469206,1,-8,-8,-27,-4,-82,-29,-8,5
1491693469207,2,7,3,3,1,55,6,-4,-8
1491693469207,2,-7,-7,13,19,46,-23,6,-6
1491693469210,1,-6,-6,-6,6,-39,-48,2,-9
1491693469210,1,14,4,6,18,36,-1,10,28
1491693469253,2,5,15,20,40,39,27,0,20
1491693469253,2,-3,-4,19,-8,17,6,-3,-9
1491693469254,3,1,-16,-63,-68,-109,-10,21,25
1491693469254,3,-12,-3,21,0,94,59,-8,-24
1491693469256,2,-11,-11,23,-7,29,12,-8,-17
1491693469256,2,-1,-20,19,56,-14,18,36,24
1491693469257,3,-3,-42,-1,-13,46,-22,-31,-4
1491693469257,3,7,-41,1,-16,-15,42,20,9
1491693469302,0,2,-28,14,8,15,-4,-24,-32
1491693469302,0,-5,-30,40,54,53,33,22,2
1491693469303,1,-1,-27,-33,-16,-87,-42,10,-8
1491693469303,1,4,-19,-39,-30,49,-27,-17,9
1491693469305,2,-12,-7,-25,-22,-85,17,0,-16
1491693469305,2,-5,9,-8,-40,-48,-3,-11,1
1491693469306,3,15,17,25,-1,-9,39,17,19
1491693469306,3,-12,20,8,18,19,-56,-16,-9
1491693469351,0,4,14,-2,26,2,8,11,18
1491693469351,0,-2,10,-6,-9,-28,22,-6,3
1491693469354,1,-1,35,25,1,28,-19,-18,-19
1491693469354,1,-5,5,-4,35,4,38,15,25
1491693469365,3,0,3,-10,49,36,28,13,-17
1491693469365,3,5,16,16,-9,-26,-3,20,-25
1491693469366,0,-7,-7,-46,-15,-25,-30,-8,-14
1491693469366,0,4,-3,-11,-14,-11,-51,-12,-1
1491693469400,1,-8,10,-5,-39,45,38,3,7
1491693469400,1,5,20,24,31,-48,-15,-8,17
1491693469403,2,-5,6,28,47,73,51,3,13
1491693469403,2,4,10,-2,-9,19,2,-12,21
1491693469404,0,1,-4,1,-39,-50,56,4,4
1491693469404,0,0,19,-17,-27,-9,16,-3,2
1491693469404,1,18,12,56,65,86,69,13,-3
1491693469404,1,-6,14,7,31,74,20,14,-2
1491693469448,2,-2,-20,-61,-61,-96,-120,-30,-21
1491693469448,2,1,4,-13,-32,9,22,-14,-6
1491693469449,3,-12,3,-15,-34,-43,-28,-48,-16
1491693469449,3,3,14,9,-32,-14,-36,-3,-13
1491693469450,1,11,11,11,17,20,-29,15,-2
1491693469450,1,-3,-21,-10,-32,-24,56,15,-6
1491693469497,2,12,-7,-4,15,79,-5,10,32
1491693469497,2,-3,28,14,0,-67,-81,-34,-11
1491693469498,3,-8,3,6,13,55,-51,-26,-9
1491693469498,3,-8,-11,-21,-17,-39,13,5,31
1491693469498,0,4,3,3,0,20,77,8,-19
1491693469498,0,1,-11,11,-17,90,39,8,-4
1491693469499,2,10,-2,-53,-44,-91,-50,10,13
1491693469499,2,-7,-11,-10,-5,-102,-57,-14,-5
1491693469546,3,-13,8,35,-6,109,84,8,-14
1491693469546,3,2,-3,-6,-9,-79,48,9,-2
1491693469547,0,-4,2,-3,8,-32,-64,-6,-10
1491693469547,0,5,7,36,82,102,51,19,-11
1491693469548,1,2,-17,-14,-47,-76,-90,7,5
1491693469548,1,-8,-3,-58,-87,16,-36,-63,-22
1491693469550,3,-28,-14,-16,-26,66,2,-6,-18
1491693469550,3,22,18,33,35,-36,-52,20,46
1491693469595,0,-20,0,8,-29,-32,5,-32,-34
1491693469595,0,28,3,16,17,56,-38,19,56
1491693469596,1,-5,7,13,43,-11,60,6,-8
1491693469596,1,-11,-16,-39,-15,15,24,7,-10
1491693469597,0,-6,-3,-48,-27,26,-6,0,-4
1491693469597,0,-1,-2,5,-9,64,-10,-8,-26
1491693469600,1,-4,-5,-7,-60,-102,-22,-7,2
1491693469600,1,0,5,4,66,127,47,11,-13
1491693469692,2,19,7,5,14,-82,2,-2,21
1491693469692,2,-5,-2,-4,-3,-95,-22,12,15
1491693469694,3,7,-1,-19,-10,113,-12,-18,20
1491693469694,3,0,1,45,40,30,25,26,-8
1491693469696,0,2,9,5,-44,-94,-97,-29,-4
1491693469696,0,-8,2,-17,-8,47,26,-8,-23
1491693469697,1,6,-11,22,8,74,79,27,-5
1491693469697,1,-3,10,40,-8,3,4,-6,0
1491693469789,2,2,-1,-12,38,56,-26,-2,-5
1491693469789,2,-16,-24,-34,-42,-82,-28,-4,4
1491693469838,3,-3,-5,-46,-40,-67,-98,-11,-4
1491693469838,3,-5,-5,-19,13,-45,7,-20,-28
1491693469839,1,18,15,33,36,102,89,17,7
1491693469839,1,8,-14,-47,-45,-65,-7,-7,1
1491693469839,2,-12,-14,-6,-9,-6,-43,-6,-4
1491693469839,2,-4,5,-4,7,21,37,5,-9
1491693469840,3,-4,-9,19,24,35,55,-9,9
1491693469840,3,-1,0,-2,-47,-10,-71,-13,13
1491693469887,0,8,5,26,76,23,41,4,-13
1491693469887,0,-8,-14,-28,-46,5,75,23,-10
1491693469887,3,-1,10,8,-16,13,41,16,4
1491693469887,3,10,1,2,14,86,-45,4,8
1491693469888,1,-8,-12,-35,-4,-74,-21,-21,-13
1491693469888,1,12,-1,-39,-56,-12,68,28,14
1491693469889,2,6,8,-19,1,58,37,-9,-4
1491693469889,2,15,7,64,-24,-50,49,6,11
1491693469936,3,7,12,69,44,-3,39,-11,12
1491693469936,3,-21,-16,0,-1,-31,-57,-13,-30
1491693469937,0,-2,9,13,89,43,40,2,6
1491693469937,0,-2,8,98,-92,92,-67,8,-2
1491693469938,2,2,-34,-128,-68,-128,-60,-36,-5
1491693469938,2,-2,-4,-13,-34,26,-26,-8,-1
1491693469939,3,5,-3,31,23,122,4,12,6
1491693469939,3,12,18,26,37,48,30,11,8
1491693469984,0,-7,7,68,41,119,77,16,-10
1491693469984,0,4,0,-53,-2,-24,-73,-14,0
1491693469986,1,13,36,108,77,112,-10,7,4
1491693469986,1,-16,-30,-48,57,-63,51,-17,-11
1491693469991,2,-4,3,-79,-97,-128,-73,5,8
1491693469991,2,-6,-41,-53,-93,109,39,-2,-1
1491693469992,3,-3,-7,-36,31,-46,-7,0,-8
1491693469992,3,8,22,35,27,25,-35,1,5
1491693470033,0,10,34,108,54,116,-82,25,6
1491693470033,0,3,25,69,62,-58,26,-12,-6
1491693470035,1,-2,-26,-59,-91,-97,-62,-7,1
1491693470035,1,-17,-43,-67,62,-4,4,-21,-10
1491693470036,3,3,28,68,6,40,9,7,4
1491693470036,3,-13,-3,-50,-102,-128,-90,-6,-4
1491693470037,0,-27,-33,-54,-38,91,54,-1,-6
1491693470037,0,22,31,50,55,-78,-6,-4,16
1491693470131,1,-10,2,23,26,75,70,16,1
1491693470131,1,15,-2,-68,-11,-59,-4,9,38
1491693470132,2,-14,-11,-5,1,-10,-13,-7,-13
1491693470132,2,1,21,25,27,84,13,0,-4
1491693470134,0,-8,3,28,43,66,3,-8,2
1491693470134,0,-18,-32,-75,-40,-39,-18,-12,-9
1491693470135,1,-7,1,34,-26,53,-33,0,-7
1491693470135,1,9,62,108,2,122,98,1,-3
1491693470180,2,-8,-13,5,61,-108,22,15,-6
1491693470180,2,-6,-25,-82,-93,-54,-112,-53,-19
1491693470181,3,-5,8,80,-11,33,-8,12,3
1491693470181,3,0,-34,-69,-57,47,21,12,7
1491693470183,2,5,17,11,-3,35,16,-2,-5
1491693470183,2,-1,-12,40,41,23,87,22,5
1491693470184,3,-2,-3,-68,-54,-11,-42,-10,5
1491693470184,3,7,33,51,-38,59,-32,-1,-9
1491693470228,0,5,-13,-43,11,71,0,-2,7
1491693470228,0,8,1,-19,15,-34,1,-2,-7
1491693470230,1,7,18,86,73,60,7,-7,-4
1491693470230,1,0,-41,-68,-23,1,-3,6,7
1491693470231,3,-9,-28,-111,-37,-128,-54,-3,-11
1491693470231,3,-25,37,54,40,67,48,-4,-15
1491693470278,0,-3,52,-7,36,60,11,-1,-1
1491693470278,0,-3,37,30,13,-61,-15,11,4
1491693470280,1,2,8,-64,40,54,69,5,11
1491693470280,1,-4,-17,-1,-10,-82,-79,-26,-4
1491693470287,2,5,49,76,92,44,61,-2,5
1491693470287,2,-3,-12,-94,-17,-51,69,-2,-2
1491693470289,0,2,-47,-36,-20,-39,-23,1,2
1491693470289,0,-17,-6,84,68,127,-24,-15,-5
1491693470326,1,6,17,39,-1,8,23,15,0
1491693470326,1,-7,-44,-36,-2,-43,-41,5,2
1491693470327,2,-12,-15,-5,-39,-43,0,-2,-1
1491693470327,2,-18,-13,35,29,78,37,5,-19
1491693470329,3,18,-23,-44,-66,-51,-29,-2,6
1491693470329,3,-4,-37,-15,-25,-56,32,-2,11
1491693470330,1,-2,17,27,24,28,9,-5,-6
1491693470330,1,16,59,17,6,8,-24,-3,-1
1491693470424,2,8,-21,-59,-44,-47,-10,9,11
1491693470424,2,-3,11,9,-2,-18,-13,-15,-9
1491693470425,3,-9,9,34,11,-13,-2,-7,2
1491693470425,3,-14,-30,-12,-19,18,20,2,-15
1491693470426,1,15,-30,-1,12,72,70,33,31
1491693470426,1,-3,-21,-23,-55,-20,-8,-10,-9
1491693470427,2,4,-23,-29,-3,-62,-41,-8,-8
1491693470427,2,-7,-2,30,-10,-32,-11,3,15
1491693470474,3,-14,-3,-18,1,-3,-6,-9,-3
1491693470474,3,6,-1,-11,4,8,19,4,-2
1491693470475,0,-14,9,-22,-24,12,-24,-10,-17
1491693470475,0,5,14,26,63,100,25,9,-7
1491693470476,2,-1,19,3,-10,25,9,-13,-4
1491693470476,2,-7,-26,7,17,10,31,11,3
1491693470477,3,2,27,22,-7,16,17,-1,-11
1491693470477,3,1,-28,-7,4,21,6,-1,10
1491693470521,0,-9,-20,-3,11,47,-7,-5,-7
1491693470521,0,7,-49,-5,-16,47,46,17,4
1491693470523,1,15,-30,-35,-25,-69,-67,-11,3
1491693470523,1,3,-27,-17,-11,11,42,4,-6
1491693470524,0,-3,-37,-48,-35,68,29,-2,-11
1491693470524,0,7,-5,12,-17,14,-40,3,20
1491693470530,1,8,-27,-40,-1,-39,-16,-7,-7
1491693470530,1,-4,8,13,18,-4,-8,-1,-5
1491693470570,2,2,-1,32,18,6,24,11,11
1491693470570,2,-13,27,25,27,4,-11,-11,-8
1491693470571,3,-26,-27,-13,-24,32,18,2,7
1491693470571,3,-34,-26,-31,-35,-55,-7,-8,-6
1491693470572,1,-25,14,39,30,-9,1,6,-7
1491693470572,1,-25,11,21,62,126,25,-2,4
1491693470573,2,12,2,-23,-39,-57,-13,2,6
1491693470573,2,5,3,24,14,-54,37,-18,-6
1491693470618,3,4,10,-27,-44,-15,-30,17,3
1491693470618,3,4,-2,-25,-14,-1,-19,-3,4
1491693470620,0,-18,0,-6,26,41,18,0,-4
1491693470620,0,-6,0,-3,12,-33,22,6,-3
1491693470621,2,-23,-16,-50,-26,17,-5,-5,4
1491693470621,2,-1,6,-29,-42,-40,-46,-11,-10
1491693470622,3,-9,-4,17,12,-1,1,-2,12
1491693470622,3,3,7,35,-17,45,18,4,2
1491693470667,0,1,-7,3,63,25,1,-12,1
1491693470667,0,-5,-5,-31,-31,-61,3,7,-1
1491693470668,1,5,6,-26,10,-92,13,-4,6
1491693470668,1,6,9,9,15,86,35,9,2
1491693470669,3,10,13,11,-3,44,41,11,11
1491693470669,3,-1,-7,-26,22,-30,-24,-13,-3
1491693470671,0,6,8,44,-47,-35,-7,1,-11
1491693470671,0,0,-15,-34,28,56,-29,13,14
1491693470716,1,-9,-9,20,-6,6,-10,7,9
1491693470716,1,3,-6,-26,-9,-13,-16,-15,-12
1491693470717,2,-1,29,40,-14,74,5,12,10
1491693470717,2,11,-20,-29,-42,-32,-33,-13,-8
1491693470720,3,-2,-10,6,40,104,-10,1,-29
1491693470720,3,12,9,21,83,69,82,12,34
1491693470721,0,-6,-10,-44,-41,-122,-92,2,-1
1491693470721,0,-20,6,-15,-52,19,7,-2,-2
1491693470772,1,-7,3,-28,-28,28,28,-9,3
1491693470772,1,-5,-5,3,5,62,-43,-3,-21
1491693470773,2,-5,2,76,-21,110,118,3,-16
1491693470773,2,13,-12,-57,27,-42,-33,-3,-4
1491693470774,0,3,-16,-77,-35,54,50,4,11
1491693470774,0,-1,4,24,1,36,-20,-17,-10
1491693470775,1,2,1,32,-35,-103,3,-9,-13
1491693470775,1,1,6,-9,4,20,-4,-3,27
1491693470813,2,-8,6,91,122,127,52,1,-14
1491693470813,2,17,6,-45,-48,-123,-57,3,6
1491693470815,3,0,-12,-22,-11,17,44,29,8
1491693470815,3,-1,3,8,-21,71,13,5,28
1491693470822,1,-2,-2,-44,-91,37,35,-2,-4
1491693470822,1,-10,-20,-58,5,-71,-26,1,-13
1491693470822,2,-5,-10,-30,3,-24,19,-3,-8
1491693470822,2,13,25,67,1,77,0,10,3
1491693470910,3,0,6,26,61,101,73,-11,13
1491693470910,3,-10,-12,-48,-75,-80,-95,-18,-20
1491693470911,0,32,-3,-15,-19,-64,-35,-2,25
1491693470911,0,5,14,12,-5,-29,33,1,-1
1491693470912,2,14,12,-6,-31,-82,-58,10,12
1491693470912,2,-4,-12,70,23,58,28,-4,-5
1491693470913,3,1,-9,-76,-33,-30,-14,5,4
1491693470913,3,-11,-10,-2,-42,-56,13,-24,-37
1491693471008,0,-10,2,24,13,-11,30,10,6
1491693471008,0,6,16,66,1,58,3,27,-1
1491693471019,1,-6,-10,-45,37,30,5,-15,-4
1491693471019,1,3,-4,-19,-21,-88,-32,9,24
1491693471021,0,-10,-17,-15,22,57,61,10,-8
1491693471021,0,-7,3,33,24,-103,-50,-21,-7
1491693471022,1,-2,5,-17,-22,35,-71,-8,-23
1491693471022,1,-6,-8,31,30,-23,-13,-14,8
1491693471057,2,-7,-9,-67,-98,45,-15,-2,-13
1491693471057,2,6,19,11,35,-54,50,5,26
1491693471059,3,-5,-7,0,-5,55,45,19,3
1491693471059,3,0,-6,-21,-48,4,-75,-16,13
1491693471061,1,-19,-6,1,51,34,20,-13,-16
1491693471061,1,22,6,4,-35,-26,71,62,18
1491693471062,1,9,-10,-30,4,-76,-49,-11,-10
1491693471062,1,-6,12,71,110,85,-16,7,1
1491693471106,2,0,-4,-47,-92,-92,42,6,-12
1491693471106,2,-7,-7,-39,-84,-21,-47,-21,-12
1491693471107,3,-17,-13,8,10,-12,32,7,-3
1491693471107,3,7,3,12,33,98,25,-1,-7
1491693471108,2,-14,0,23,41,28,37,10,1
1491693471108,2,0,-5,18,10,26,34,13,5
1491693471109,3,4,5,28,24,39,-12,4,-8
1491693471109,3,-15,-6,-19,11,55,14,0,5
1491693471203,0,2,-14,-31,-37,-84,-58,-14,2
1491693471203,0,13,12,23,20,-24,-65,1,4
1491693471205,1,4,20,21,20,39,78,-2,10
1491693471205,1,2,-14,-10,-16,-16,-16,15,20
1491693471206,3,14,0,-12,-41,-27,-11,-2,35
1491693471206,3,-15,-14,-10,15,64,83,-5,-3
1491693471207,0,12,21,34,49,-62,-18,2,12
1491693471207,0,-3,-7,-32,-23,-3,8,-7,-11
1491693471252,1,-6,-10,-3,-28,45,-16,1,-9
1491693471252,1,-3,-10,-26,-18,33,17,-8,-26
1491693471253,2,14,6,9,50,-7,5,-7,8
1491693471253,2,-7,2,43,17,-5,24,22,6
1491693471257,0,-1,-4,-49,-57,127,72,18,11
1491693471257,0,2,-7,-7,12,-76,-49,8,7
1491693471258,1,-7,11,58,97,93,-16,17,5
1491693471258,1,12,-6,-35,-96,-112,-18,2,23
1491693471350,2,-12,2,-16,-40,60,-51,-3,-2
1491693471350,2,2,-8,-4,12,45,-19,-15,1
1491693471351,3,6,9,8,-1,127,91,12,-2
1491693471351,3,6,10,27,45,-58,-94,8,15
1491693471352,2,1,13,38,33,-35,-25,-1,-13
1491693471352,2,-9,8,29,3,-12,-33,-9,-13
1491693471354,3,-12,-18,-19,23,40,21,-3,12
1491693471354,3,2,-10,-48,-80,-84,-19,0,3
1491693471398,0,-4,-12,0,6,20,-12,0,-8
1491693471398,0,-6,5,1,-14,-24,4,-9,-7
1491693471399,1,13,28,38,-17,41,26,1,-6
1491693471399,1,-8,4,-20,32,10,23,-5,-5
1491693471401,3,11,3,-6,-54,-74,-47,9,6
1491693471401,3,-2,4,38,60,84,30,-22,-20
1491693471401,0,-12,-15,-19,-23,21,-19,-19,-26
1491693471401,0,-5,9,-9,-26,-52,-45,-21,-9
1491693471496,1,4,-16,-13,-9,-6,-71,-16,0
1491693471496,1,6,13,36,-3,79,84,12,5
1491693471497,2,9,7,36,104,35,36,14,2
1491693471497,2,1,-13,0,3,14,-18,18,12
1491693471499,0,-7,-16,-35,-49,-26,8,-1,-2
1491693471499,0,16,4,21,43,51,64,29,40
1491693471500,1,-2,-10,-10,-29,-14,7,2,-20
1491693471500,1,-7,9,-6,-19,-37,-34,-9,6
1491693471593,2,2,13,44,50,46,39,10,2
1491693471593,2,8,2,-56,60,37,22,7,-2
1491693471596,3,-4,15,112,84,101,20,13,2
1491693471596,3,-5,-31,-106,-104,-60,-8,6,13
1491693471598,1,8,17,-12,-42,13,12,-10,4
1491693471598,1,7,7,123,127,8,-1,10,32
1491693471599,2,-8,7,50,38,80,37,-4,5
1491693471599,2,6,-2,6,26,-9,-51,9,35
1491693471642,3,-13,-1,-7,14,2,89,-10,-31
1491693471642,3,11,7,-9,14,-38,-74,-6,-1
1491693471646,0,3,-10,-71,-77,-12,29,18,19
1491693471646,0,-6,3,28,-30,-7,-75,-27,-9
1491693471648,3,0,-4,-14,32,16,-67,-19,-9
1491693471648,3,-20,2,63,94,127,24,-2,9
1491693471691,0,2,14,30,99,127,-8,-16,-6
1491693471691,0,-4,-6,32,8,12,44,13,-18
1491693471693,1,-2,-12,-45,-114,-128,-14,25,44
1491693471693,1,14,4,52,55,95,-11,2,19
1491693471694,2,1,17,2,24,81,7,-4,-16
1491693471694,2,-1,-8,-37,-34,10,13,-11,28
1491693471695,1,11,-9,-42,-31,-64,-22,16,8
1491693471695,1,-6,-18,-58,-57,-10,41,8,17
1491693471744,2,-5,2,12,70,46,6,-9,-14
1491693471744,2,-10,-8,8,-48,-34,-21,-2,-12
1491693471745,3,4,15,34,34,127,38,12,0
1491693471745,3,-1,2,50,90,-15,37,8,-16
1491693471788,0,7,3,-22,-46,-66,-66,-17,5
1491693471788,0,-26,-5,39,24,68,-22,-38,-40
1491693471790,2,-3,-12,-39,-8,27,23,25,3
1491693471790,2,24,25,73,120,68,-53,-2,1
1491693471791,3,-3,-4,32,24,-45,-11,-8,-3
1491693471791,3,3,8,7,-70,0,28,8,2
1491693471792,0,-4,18,52,20,8,25,2,-6
1491693471792,0,0,-14,-10,-55,61,-43,-2,-6
1491693471837,2,-6,-13,-35,-76,-79,50,-15,-2
1491693471837,2,14,14,23,31,83,41,-11,-18
1491693471838,3,13,28,10,95,7,8,32,40
1491693471838,3,-4,-25,-59,-72,-71,-115,-14,-19
1491693471839,0,0,6,-4,64,127,82,-9,-16
1491693471839,0,2,-3,-23,12,-26,3,16,27
1491693471885,3,-1,8,16,26,53,1,-6,-10
1491693471885,3,-3,39,127,91,127,44,21,-1
1491693471887,0,1,-10,-4,-6,110,22,1,6
1491693471887,0,-9,-23,4,-22,-76,64,17,3
1491693471888,1,-9,-15,-13,16,-123,-43,-21,-7
1491693471888,1,5,-5,-105,-115,63,-20,-26,-12
1491693471889,0,6,-27,-41,-14,-124,-15,12,20
1491693471889,0,-7,7,-14,-19,98,-9,-14,-7
1491693471934,1,-2,-3,3,25,56,1,9,2
1491693471934,1,4,33,86,59,122,7,18,9
1491693471936,2,-6,8,-17,-84,-64,-15,-16,-17
1491693471936,2,-3,-27,-58,-50,-128,14,-23,-9
1491693471937,3,-8,-19,-19,8,56,8,0,8
1491693471937,3,5,-12,-54,-86,-6,-5,-1,1
1491693471938,1,-8,-36,-57,-45,25,61,-4,-8
1491693471938,1,-3,-4,44,40,-74,-59,-5,-5
1491693471983,2,-10,-9,-41,35,48,45,-6,-9
1491693471983,2,2,12,0,-18,99,20,1,3
1491693471986,3,6,22,31,82,68,-44,-6,-4
1491693471986,3,-21,-17,43,-66,84,114,27,-9
1491693471987,2,-9,13,-19,-59,44,29,10,-12
1491693471987,2,1,-10,26,68,78,56,21,1
1491693471989,3,-4,-5,-50,-75,-96,-65,-16,0
1491693471989,3,-1,7,-2,-14,62,1,-9,0
1491693472032,0,-1,-8,-15,82,50,57,10,-1
1491693472032,0,1,-9,-45,-50,-107,-60,-23,-4
1491693472034,1,5,9,25,-11,74,21,9,1
1491693472034,1,5,2,-29,29,46,9,-7,9
1491693472035,3,-1,8,70,27,82,32,18,10
1491693472035,3,8,-15,-94,50,-89,-7,-18,-3
1491693472037,0,-5,9,18,-11,-17,-86,-34,-16
1491693472037,0,-4,-12,16,-120,63,32,10,-1
1491693472081,1,-10,-23,-99,70,-128,-73,-13,-16
1491693472081,1,-3,19,36,61,126,86,26,16
1491693472082,2,1,26,78,81,84,-8,2,-11
1491693472082,2,-19,-67,-89,-78,-124,-44,-14,9
1491693472084,0,2,3,16,8,40,5,5,7
1491693472084,0,3,60,127,106,127,83,18,-5
1491693472085,1,5,12,34,41,35,48,14,5
1491693472085,1,-10,-68,-128,-90,-128,-123,-48,-10
1491693472130,2,-6,-4,35,-63,-22,-3,-12,-22
1491693472130,2,13,14,12,14,24,67,28,3
1491693472131,3,-11,-5,18,0,108,-51,-39,-26
1491693472131,3,5,43,82,16,44,-39,8,10
1491693472133,0,12,-9,-45,-35,-6,14,7,17
1491693472133,0,-3,-8,-29,24,-80,-9,5,-4
1491693472134,1,0,-3,-10,28,31,-2,9,5
1491693472134,1,3,16,39,13,7,34,0,-9
1491693472178,2,0,-14,14,-25,7,-1,4,17
1491693472178,2,5,-29,-108,23,-42,-30,1,19
1491693472180,3,0,36,78,18,15,15,-3,-6
1491693472180,3,-9,-31,-19,-29,11,-16,6,-11
1491693472227,1,-7,-76,-128,-128,-119,-67,5,22
1491693472227,1,9,22,47,30,-73,22,-12,0
1491693472229,2,0,2,33,3,-37,-11,-11,3
1491693472229,2,-4,7,-6,-7,12,-35,-7,-18
1491693472231,3,-6,-11,62,51,58,51,6,0
1491693472231,3,10,-17,-49,-30,-25,-16,-4,3
1491693472232,0,-1,16,47,34,27,7,10,8
1491693472232,0,-3,7,4,-17,-63,-22,-12,-12
1491693472276,2,7,-13,-13,19,24,-28,8,3
1491693472276,2,-8,13,40,8,-28,-59,-12,-3
1491693472278,3,-5,4,11,-28,48,23,-7,-13
1491693472278,3,-17,-4,-19,44,82,22,16,-8
1491693472279,0,-10,-18,-89,-58,-82,-25,-27,-9
1491693472279,0,-3,6,19,-15,8,-25,-3,17
1491693472280,3,13,35,58,2,-39,-4,-13,-7
1491693472280,3,14,9,-6,-6,-15,-18,1,0
1491693472324,0,2,-2,15,-13,8,10,7,1
1491693472324,0,13,-5,-11,-12,15,3,0,6
1491693472326,1,11,-13,-18,0,-5,-5,2,8
1491693472326,1,-16,13,32,-6,-21,-9,-5,-13
1491693472328,0,19,6,17,-2,-56,-61,-12,1
1491693472328,0,1,-7,-23,0,-34,11,-6,-5
1491693472329,1,-20,5,-1,6,21,20,-6,-10
1491693472329,1,2,-13,-16,-22,-53,-37,-16,6
1491693472373,2,-11,-2,-4,-6,8,14,-1,20
1491693472373,2,-16,-8,-37,-27,5,2,-11,-11
1491693472377,3,-9,-6,1,-1,-14,-39,-12,3
1491693472377,3,-13,10,39,27,25,26,-6,-16
1491693472377,1,9,1,-4,3,39,28,-11,-10
1491693472377,1,17,16,24,21,-6,-13,-3,-4
1491693472422,2,8,-11,-37,-7,36,12,5,17
1491693472422,2,-5,4,30,8,52,38,7,-7
1491693472425,3,13,-3,-20,9,-4,-9,11,17
1491693472425,3,2,-1,-5,-3,-2,-13,12,-1
1491693472426,0,-14,5,1,29,-12,-33,10,-13
1491693472426,0,-18,-3,21,17,70,29,7,-8
1491693472427,2,4,5,-7,6,33,50,15,9
1491693472427,2,-16,16,33,9,18,-33,-13,-22
1491693472470,3,6,-11,-18,-10,16,0,-6,-11
1491693472470,3,-14,2,-14,15,6,14,-5,-4
1491693472519,0,-12,-15,-4,10,19,40,13,4
1491693472519,0,9,27,39,21,7,-15,-5,2
1491693472521,1,0,4,-13,-17,-26,-20,-9,-9
1491693472521,1,2,1,8,26,7,1,0,-9
1491693472522,2,11,-16,-15,-21,-4,22,-3,8
1491693472522,2,13,-21,-83,-45,-50,-17,-3,4
1491693472523,3,5,6,10,12,-22,11,-7,-13
1491693472523,3,-9,-6,-3,4,-16,12,-1,0
1491693472568,0,5,11,18,25,-71,-64,-12,-5
1491693472568,0,-3,-3,17,22,-64,-9,-3,-7
1491693472569,3,-8,-17,-72,-20,-32,-22,-3,-7
1491693472569,3,-16,4,19,10,21,13,3,-3
1491693472570,0,-1,-20,-49,-65,-78,-7,6,-7
1491693472570,0,8,-3,-4,-7,-26,-2,-9,-10
1491693472572,1,8,-6,-15,-21,8,8,-2,-9
1491693472572,1,9,29,80,67,50,-17,-10,11
1491693472617,2,-8,3,-34,-25,-58,8,-11,-14
1491693472617,2,-3,-13,-17,-39,49,21,2,17
1491693472618,3,-10,-7,-1,-5,61,-22,-1,-6
1491693472618,3,15,-13,-70,-56,-105,-48,-6,1
1491693472620,1,-7,1,44,59,122,32,7,-4
1491693472620,1,-8,3,-7,-76,-83,-76,-12,-12
1491693472621,2,-13,-12,-39,-30,50,-52,-19,-32
1491693472621,2,2,5,12,-55,92,-3,-2,2
1491693472666,3,8,19,107,116,-43,62,-4,3
1491693472666,3,3,-22,-40,-15,83,60,8,-3
1491693472667,0,-10,-6,-62,-99,-108,-73,-2,11
1491693472667,0,-17,-1,-13,-20,56,0,-10,-1
1491693472669,2,-4,25,73,45,39,-2,12,12
1491693472669,2,9,-12,-41,7,-35,-5,-3,7
1491693472670,3,1,-3,-38,-42,-35,-1,-10,-20
1491693472670,3,17,-4,0,33,44,44,12,56
1491693472715,0,13,-3,16,-2,-53,8,2,0
1491693472715,0,17,17,8,40,82,26,8,15
1491693472717,1,-1,-21,-33,12,3,-40,6,-20
1491693472717,1,-6,12,0,-22,-80,-52,-6,-18
1491693472718,3,-4,18,62,-9,1,-14,-1,16
1491693472718,3,4,-24,-53,15,-32,2,4,0
1491693472720,0,-4,7,42,9,51,-9,-6,2
1491693472720,0,-12,-7,12,107,38,18,-4,-19
1491693472763,1,26,5,-30,-96,-26,-21,24,34
1491693472763,1,-19,-11,-8,-11,103,20,0,-23
1491693472765,2,1,13,9,-9,61,1,-2,0
1491693472765,2,-11,-3,-12,19,-110,-49,-8,-18
1491693472766,0,-5,-14,-9,5,18,-8,-2,5
1491693472766,0,-7,-11,24,-10,64,-5,1,-18
1491693472767,1,17,-1,-20,-8,-128,25,-8,16
1491693472767,1,0,7,25,17,97,39,6,-7
1491693472812,2,0,-4,-23,-10,10,-61,-15,-10
1491693472812,2,-7,2,15,-17,27,-32,5,-10
1491693472814,3,4,-6,10,61,-77,35,7,11
1491693472814,3,-4,9,13,-24,127,60,-10,2
1491693472815,1,-46,-14,-91,27,100,-23,-29,-57
1491693472815,1,8,-20,-32,-67,-97,26,11,13
1491693472816,2,-1,-4,2,-35,-36,-1,-17,-13
1491693472816,2,-4,0,-32,7,-23,-50,3,8
1491693472861,3,3,0,63,15,103,16,-7,9
1491693472861,3,-15,3,-23,19,-6,-19,-4,-40
1491693472863,0,-12,2,12,-11,106,81,-2,3
1491693472863,0,10,-20,-30,-29,-128,-81,2,-8
1491693472864,1,-6,17,15,4,69,-5,-15,-12
1491693472864,1,-2,18,5,12,-14,-1,9,4
1491693472865,2,17,-5,9,-5,50,16,0,13
1491693472865,2,1,9,53,31,42,-20,9,14
1491693472910,3,8,-19,-55,-7,-59,-30,-13,-12
1491693472910,3,-8,-17,-25,-31,-18,-65,-6,-12
1491693472912,0,-3,-2,-11,40,77,29,9,0
1491693472912,0,4,3,0,-4,43,106,16,9
1491693472913,2,-2,9,3,11,33,13,1,-11
1491693472913,2,-4,0,20,8,46,31,12,28
1491693472914,3,5,17,52,11,38,35,12,-2
1491693472914,3,-3,-4,-47,0,-19,-38,-1,-3
1491693472958,0,4,5,22,57,-19,37,-30,-4
1491693472958,0,10,-3,-4,-25,-123,-12,28,2
1491693472964,1,-29,-17,-72,-77,44,-8,-16,-32
1491693472964,1,14,-9,7,3,23,39,13,34
1491693472965,3,-10,1,42,28,46,5,2,-30
1491693472965,3,3,11,53,48,-7,45,16,2
1491693472966,0,8,2,-31,-18,-39,-39,-32,-11
1491693472966,0,3,1,-54,-45,-10,-11,1,7
1491693473007,1,4,-1,23,15,46,37,-14,27
1491693473007,1,6,9,32,43,-17,17,36,7
1491693473009,2,-4,-1,21,-25,-30,-65,-6,-11
1491693473009,2,-4,-19,-46,17,11,27,-3,-11
1491693473010,0,-19,-7,31,11,69,-6,12,2
1491693473010,0,-2,9,10,11,70,6,-5,-21
1491693473011,1,5,2,-22,10,45,74,12,-6
1491693473011,1,2,-17,-31,0,-29,-17,4,9
1491693473056,2,-5,-4,7,-1,14,44,-15,-8
1491693473056,2,-3,1,6,26,-38,-42,-17,16
1491693473105,3,4,12,26,13,-26,21,10,-3
1491693473105,3,-6,4,-25,-45,107,31,-18,-24
1491693473153,1,5,-4,0,-3,81,-31,-15,2
1491693473153,1,-13,2,-15,-47,-1,-15,-26,-14
1491693473156,2,-18,-14,-6,-10,34,60,22,-14
1491693473156,2,9,0,15,-29,51,-14,-21,11
1491693473157,3,6,-5,22,55,-22,-5,31,15
1491693473157,3,5,6,15,24,44,-30,-20,2
1491693473158,0,-1,-2,-4,12,-35,69,19,-14
1491693473158,0,-10,-6,9,-61,-25,-27,-8,-24
1491693473202,2,3,-3,4,-25,-53,-13,-3,-13
1491693473202,2,-10,-8,-37,-16,111,-14,5,-23
1491693473203,3,0,-4,-17,-54,27,-29,-3,6
1491693473203,3,-2,5,18,8,-77,81,12,-13
1491693473204,3,-3,-7,-10,13,78,57,9,0
1491693473204,3,4,18,39,30,-62,-40,-10,3
1491693473208,0,-13,-15,5,-81,-41,-5,6,-6
1491693473208,0,-15,-15,-73,-16,-99,-6,4,-33
1491693473300,1,11,9,9,-1,-4,-12,-13,7
1491693473300,1,5,12,12,30,71,39,6,-1
1491693473301,2,-1,-3,40,57,61,-12,-2,0
1491693473301,2,-2,-7,-35,-32,-8,-9,-3,-12
1491693473397,0,0,11,-10,0,61,17,-20,-2
1491693473397,0,9,-4,10,-9,-3,-34,10,27
1491693473398,1,9,11,-3,36,6,9,-13,-9
1491693473398,1,-18,-10,7,-13,64,-15,-8,-10
1491693473399,2,25,7,-65,-44,-53,-85,16,24
1491693473399,2,-9,15,53,61,127,21,-30,-8
1491693473401,3,-22,-20,-49,-52,-56,-41,6,-5
1491693473401,3,23,28,-11,-15,41,47,8,7
1491693473446,1,13,16,20,8,-10,-47,2,-3
1491693473446,1,-11,-7,-6,-6,-79,-16,-2,20
1491693473447,2,1,0,21,24,81,-16,8,-10
1491693473447,2,-14,-13,-21,-38,-39,-24,-20,-29
1491693473448,3,7,-8,-17,-34,-58,30,24,17
1491693473448,3,3,5,5,19,-33,-21,3,-6
1491693473449,0,-13,-10,-14,-17,-53,48,1,-1
1491693473449,0,6,-3,-13,-24,8,-30,-10,-6
1491693473495,1,-15,-9,16,35,3,4,-21,-19
1491693473495,1,7,-7,-37,-51,127,62,9,56
1491693473498,2,7,15,31,20,-128,-12,8,-5
1491693473498,2,-9,3,4,18,57,-38,-4,-20
1491693473500,1,-3,1,-43,-60,-101,-53,-21,0
1491693473500,1,-10,-5,34,78,93,12,-1,-34
1491693473501,2,14,0,-17,-5,-30,34,11,19
1491693473501,2,-8,-10,-33,-29,18,-12,1,-19
1491693473543,3,2,-7,3,-19,-28,-8,-17,10
1491693473543,3,3,-2,9,-35,-52,-3,14,13
1491693473545,0,-15,-26,-60,-3,113,-35,-23,-32
1491693473545,0,10,-2,7,10,-74,27,41,38
1491693473546,1,0,13,0,-14,101,31,-5,-6
1491693473546,1,3,13,73,43,56,-22,-15,0
1491693473547,2,-4,-19,-17,11,-46,54,8,-6
1491693473547,2,21,-4,-40,-27,-49,-57,-34,-1
1491693473592,3,3,2,-34,-35,8,36,25,16
1491693473592,3,-4,11,21,17,47,-50,-12,-8
1491693473641,0,-6,9,47,33,0,97,10,-17
1491693473641,0,-6,-19,-16,38,108,22,-12,1
1491693473642,2,6,0,4,-33,8,-35,-4,8
1491693473642,2,1,8,-1,-30,30,17,4,6
1491693473643,3,-26,-19,-8,16,96,1,-22,-28
1491693473643,3,25,11,20,40,-110,46,19,18
1491693473644,0,-1,20,14,-21,26,-9,5,2
1491693473644,0,-5,2,37,11,82,42,-5,-9
1491693473690,1,0,-12,-54,-30,-93,-68,-16,-10
1491693473690,1,-16,-14,10,-10,62,8,5,-7
1491693473691,3,7,-20,-58,-20,-39,35,15,24
1491693473691,3,-1,-19,-22,-15,50,12,2,15
1491693473692,0,-14,5,45,57,110,25,-10,-23
1491693473692,0,-3,-24,-32,36,-128,-28,2,-5
1491693473697,1,3,10,0,-28,25,-20,-5,0
1491693473697,1,4,8,11,-13,36,8,12,10
1491693473738,2,4,-4,39,10,17,10,9,3
1491693473738,2,-4,5,33,7,27,13,8,10
1491693473740,3,-3,-7,-46,-11,27,-2,-12,-14
1491693473740,3,-2,6,-34,-22,51,0,9,27
1491693473741,1,0,2,65,11,101,36,23,-8
1491693473741,1,2,-7,-49,-17,-106,-20,-26,-1
1491693473742,2,-7,7,-7,-29,64,-42,-20,-6
1491693473742,2,4,-1,16,61,83,2,4,15
1491693473787,3,-3,-16,-18,-46,-32,11,25,17
1491693473787,3,-10,-9,36,-14,-16,-12,-13,-16
1491693473788,0,-5,-3,-11,8,18,-29,4,-24
1491693473788,0,6,7,10,-33,-71,2,-12,3
1491693473790,2,3,13,25,33,74,-18,6,-2
1491693473790,2,-15,-10,-9,-44,106,102,7,-19
1491693473791,3,-1,-1,7,33,-7,-60,-37,-13
1491693473791,3,5,4,15,45,-71,-19,5,3
1491693473836,0,4,-9,-30,-13,64,49,23,27
1491693473836,0,-15,-1,-13,5,30,-13,-27,-43
1491693473837,1,-3,7,57,-18,52,13,-7,-19
1491693473837,1,-10,-33,-45,9,-16,23,1,-16
1491693473845,3,-9,-3,-5,52,-8,15,-2,2
1491693473845,3,10,25,35,-14,86,-20,-2,-17
1491693473885,0,-4,-4,39,43,-51,-9,4,9
1491693473885,0,-11,-4,-12,19,19,-23,2,8
1491693473886,1,1,-5,-8,-28,36,-21,-5,-12
1491693473886,1,-1,-19,-10,42,27,65,22,9
1491693473887,2,-2,-9,-22,-38,-79,-91,-39,-12
1491693473887,2,-1,-25,8,9,72,44,7,4
1491693473889,3,-2,-21,-1,6,-128,-63,-27,-6
1491693473889,3,-2,-18,17,-45,55,-16,-3,-9
1491693473933,0,2,5,46,48,5,15,3,8
1491693473933,0,-3,-9,-9,-29,11,1,-10,5
1491693473936,1,-2,-16,-8,11,-4,11,20,17
1491693473936,1,-8,3,-36,-51,-29,15,-16,-10
1491693473938,2,5,9,6,-26,-68,-31,-11,-8
1491693473938,2,6,39,0,-14,19,-4,11,8
1491693473939,0,-7,8,-44,46,9,-6,5,-8
1491693473939,0,-4,12,-25,-27,50,11,-17,-7
1491693473982,1,12,22,17,27,-29,42,15,2
1491693473982,1,-8,23,48,9,72,-35,-13,-7
1491693473983,2,12,8,-14,-11,43,-39,5,3
1491693473983,2,3,-7,20,-29,15,48,8,-2
1491693473984,1,8,24,72,97,-70,-2,-5,1
1491693473984,1,-1,-58,-96,-48,-69,11,16,15
1491693473988,2,-16,-14,-7,-92,21,-27,-29,-33
1491693473988,2,-4,-8,-10,-2,-34,-14,-3,0
1491693474031,3,1,11,61,77,97,36,5,-1
1491693474031,3,8,12,30,1,52,13,11,7
1491693474032,0,-8,-26,-14,-30,42,48,-7,-6
1491693474032,0,0,-18,-41,-14,-128,2,10,3
1491693474034,2,21,8,9,-9,65,22,10,18
1491693474034,2,-6,-22,-44,16,-69,-20,-7,-2
1491693474035,3,2,-6,10,-41,78,15,18,11
1491693474035,3,-8,-8,-2,-41,-56,-40,-8,-12
1491693474080,0,-7,8,23,53,-97,99,12,-4
1491693474080,0,-6,10,14,34,18,-36,-21,-7
1491693474082,1,13,-11,2,5,-22,16,4,7
1491693474082,1,-14,-7,41,-75,124,14,2,-4
1491693474084,3,-5,-7,8,-11,77,50,-15,1
1491693474084,3,-5,4,16,34,75,24,-1,-7
1491693474086,0,10,3,22,30,26,-52,12,14
1491693474086,0,-16,-9,-24,-31,-42,-39,-13,-21
1491693474131,1,2,-3,-17,-35,-89,-9,3,6
1491693474131,1,8,27,39,50,75,30,14,5
1491693474134,2,-8,-12,38,4,5,32,7,8
1491693474134,2,-1,-5,10,-9,-52,-21,19,5
1491693474137,0,-16,-5,4,19,94,40,-5,-16
1491693474137,0,32,33,85,38,15,-27,-14,18
1491693474139,1,-18,-9,-11,51,50,69,3,-18
1491693474139,1,13,14,48,-23,41,-21,6,7
1491693474177,2,-1,-34,-108,-75,-51,-64,-6,3
1491693474177,2,-12,4,12,-16,63,21,-12,-17
1491693474180,3,0,8,17,-3,80,-20,7,0
1491693474180,3,-2,-22,-52,40,-119,-7,0,1
1491693474181,1,13,-48,-122,-33,-128,-24,-11,12
1491693474181,1,-9,7,33,54,112,17,-3,-16
1491693474226,2,7,21,76,86,63,63,17,9
1491693474226,2,-4,-17,-100,-41,-104,-86,-44,-9
1491693474227,3,-9,9,9,-62,39,11,9,-13
1491693474227,3,-4,0,-2,-15,-53,0,-21,-13
1491693474229,0,-6,-21,-3,-33,96,-13,-5,-3
1491693474229,0,9,13,37,69,-19,32,8,0
1491693474230,1,-9,39,111,6,117,33,10,1
1491693474230,1,5,-49,-128,-29,-128,-64,-12,-6
1491693474274,2,-9,0,0,-22,14,-26,1,-13
1491693474274,2,-14,16,61,47,108,48,4,-5
1491693474275,3,3,-24,-93,-49,-42,14,6,5
1491693474275,3,8,21,52,44,-39,-57,11,12
1491693474276,0,-1,3,50,21,22,90,13,1
1491693474276,0,1,-30,-15,-2,-32,-23,-2,1
1491693474277,2,3,3,19,57,-31,-43,-5,7
1491693474277,2,-3,-2,-61,-55,61,37,13,-2
1491693474323,3,-4,17,33,-17,84,-61,-16,-4
1491693474323,3,-14,-12,-6,-18,81,12,-1,-11
1491693474327,0,19,22,-44,-30,-79,-70,0,14
1491693474327,0,-13,12,59,83,18,47,-7,-11
1491693474328,3,25,-44,-35,-14,-87,-28,-2,2
1491693474328,3,10,-22,1,3,11,-6,-4,3
1491693474329,0,-8,-24,2,4,23,23,-3,-16
1491693474329,0,1,-60,-59,-42,-36,-8,1,16
1491693474372,1,-20,-13,30,10,-20,17,-9,-23
1491693474372,1,-7,1,17,11,40,-2,15,-1
1491693474373,2,-3,-16,-25,-38,-47,0,-5,20
1491693474373,2,-17,16,25,7,-16,2,-12,-18
1491693474374,0,8,12,-83,-41,-42,-26,8,14
1491693474374,0,-4,44,73,44,19,30,0,-19
1491693474378,1,5,35,-23,-3,30,-24,3,11
1491693474378,1,19,41,-13,-15,-60,-21,1,11
1491693474421,2,11,42,17,-5,1,4,-3,-5
1491693474421,2,16,40,33,25,55,31,5,6
1491693474423,3,3,-13,-35,19,-89,-51,-8,-11
1491693474423,3,10,-4,-25,-32,27,21,2,3
1491693474424,1,29,13,40,12,4,-31,0,22
1491693474424,1,7,8,55,34,17,1,-7,-5
1491693474425,2,3,-29,-35,-21,-4,-5,1,-10
1491693474425,2,3,-8,-5,-2,17,-2,-8,-8
1491693474518,3,-18,-28,-5,-24,-38,10,-3,-6
1491693474518,3,-8,-31,-9,-8,-10,-4,-1,0
1491693474520,0,-16,-17,5,14,31,-5,2,6
1491693474520,0,-18,-16,8,11,-20,-19,1,-4
1491693474567,2,2,5,20,6,37,-4,-4,-14
1491693474567,2,7,-16,-50,-20,-43,0,5,21
1491693474568,3,-8,10,-3,4,36,20,-9,2
1491693474568,3,-5,7,10,-8,-23,3,4,-14
1491693474569,0,-10,2,1,18,1,-23,0,3
1491693474569,0,-7,-19,-42,-30,-46,-19,-3,0
1491693474574,1,-11,-15,-14,-16,23,27,4,-3
1491693474574,1,-6,-5,8,9,2,-3,-6,-10
1491693474616,3,-3,-4,-12,0,1,-1,-6,-8
1491693474616,3,-3,-9,-19,-22,-26,-11,1,13
1491693474617,0,11,9,-9,-43,-36,9,1,2
1491693474617,0,3,11,5,7,-20,-1,0,-2
1491693474618,1,4,2,1,8,25,3,0,2
1491693474618,1,-7,5,14,-13,0,23,4,-7
1491693474619,0,-9,-5,-17,-19,37,34,3,-9
1491693474619,0,1,5,-14,-1,-14,-42,-1,23
1491693474665,1,-2,7,33,9,22,27,-1,-7
1491693474665,1,-17,-3,-8,-1,39,8,1,-5
1491693474667,2,-8,1,4,28,-69,-41,-15,-11
1491693474667,2,-11,8,11,-44,43,-35,-11,-10
1491693474668,1,1,14,44,25,68,68,4,15
1491693474668,1,-2,9,-52,-49,26,-46,2,1
1491693474675,2,5,0,-10,-39,15,15,5,9
1491693474675,2,6,2,19,32,3,-9,-3,-3
1491693474713,3,-6,-18,12,41,-84,-2,10,5
1491693474713,3,-2,6,-12,-48,55,7,-6,-11
1491693474716,0,-3,5,17,-72,-55,-59,-16,5
1491693474716,0,-3,10,26,49,77,39,9,9
1491693474718,2,-2,-16,-18,-14,39,6,0,-8
1491693474718,2,-12,-14,-1,-24,2,-28,-10,-18
1491693474719,3,12,24,34,20,27,47,-2,8
1491693474719,3,-11,2,-35,8,-4,-16,4,-27
1491693474811,0,-3,3,21,21,2,45,3,9
1491693474811,0,11,11,73,97,75,63,19,7
1491693474814,1,7,-20,-93,-86,-74,-56,-18,-22
1491693474814,1,10,-14,3,2,-55,21,-2,-4
1491693474816,3,-2,2,20,-15,-10,-39,-14,1
1491693474816,3,11,26,62,47,118,68,16,38
1491693474817,0,-8,2,24,40,-32,-47,-12,-17
1491693474817,0,8,1,-29,-11,7,66,0,12
1491693474908,1,0,2,18,-10,-31,-25,-9,-13
1491693474908,1,1,-21,-79,-92,-38,-58,-2,7
1491693474910,2,-20,-1,0,5,30,21,5,-14
1491693474910,2,2,5,-2,-3,-1,-1,-7,5
1491693474911,0,5,-17,-94,-28,-102,41,4,8
1491693474911,0,-9,-5,-46,-68,66,-70,-17,-22
1491693474912,1,-1,1,-21,-23,-73,-85,1,-6
1491693474912,1,-2,-15,-12,-9,-51,-1,-12,-10
1491693474957,2,17,1,-75,-23,-11,-7,-6,14
1491693474957,2,-10,-2,33,42,19,15,-7,-16
1491693474958,3,-1,6,33,50,85,82,16,7
1491693474958,3,-6,-8,-46,-64,-63,-107,-20,-6
1491693474959,2,1,-18,-29,-15,-95,-42,7,-5
1491693474959,2,5,19,51,25,94,-3,-6,4
1491693474966,3,2,1,-50,-37,-41,-24,-2,-16
1491693474966,3,-7,-12,6,25,126,29,12,12
1491693475006,0,-7,-12,-87,-44,-33,0,-12,-1
1491693475006,0,-18,-9,12,-3,2,-17,-4,-23
1491693475007,1,18,0,17,0,-6,-44,-7,13
1491693475007,1,-14,-1,15,0,29,-15,1,-18
1491693475008,3,6,7,1,1,13,-17,-23,-11
1491693475008,3,-2,9,21,45,-27,48,2,5
1491693475009,0,-6,-25,-17,-39,127,17,11,17
1491693475009,0,5,13,-27,-49,-53,-69,-30,-19
1491693475055,1,14,1,-7,-38,88,-12,5,28
1491693475055,1,-7,1,-10,2,12,18,-11,-29
1491693475060,2,-1,6,26,29,6,25,6,-2
1491693475060,2,0,4,27,48,27,27,5,1
1491693475062,0,-5,-14,-4,57,-1,-16,-9,-14
1491693475062,0,0,12,31,5,-52,48,9,-6
1491693475063,1,4,8,-8,-45,-97,-22,-7,-12
1491693475063,1,-5,-15,-17,-6,51,-3,9,2
1491693475105,2,1,7,-6,-7,49,19,-14,-7
1491693475105,2,-1,-5,-5,33,-23,-26,-8,-28
1491693475106,3,-11,8,29,-27,-25,-6,-5,6
1491693475106,3,-8,-6,-11,7,-61,-18,-6,-13
1491693475107,1,12,-5,-21,-37,-55,33,5,17
1491693475107,1,-3,8,23,21,14,-32,-7,-11
1491693475107,2,-10,-9,-10,5,-15,-13,-1,-12
1491693475107,2,-7,-1,-3,-15,109,54,2,3
1491693475249,3,-14,-15,12,25,3,-10,-11,-12
1491693475249,3,15,19,11,51,-45,-17,4,37
1491693475251,0,10,19,48,10,-107,-10,-2,-16
1491693475251,0,-11,-5,-55,-52,41,-1,-8,1
1491693475251,2,-11,-14,-23,6,5,-52,-4,-14
1491693475251,2,23,1,-20,14,32,50,14,66
1491693475252,3,-5,-13,-11,-20,-26,0,-14,-2
1491693475252,3,-4,14,11,-5,-25,-39,-7,-18
1491693475298,0,5,9,15,-6,-14,38,9,5
1491693475298,0,-10,-13,16,11,115,-25,11,-13
1491693475299,1,-8,-6,-14,-9,-7,-6,5,-12
1491693475299,1,2,-3,-10,-3,23,18,5,21
1491693475347,0,2,-5,-17,20,-46,-31,-2,3
1491693475347,0,4,3,17,1,-5,-43,-22,4
1491693475348,0,-6,2,-3,-31,-35,-41,1,-13
1491693475348,0,-5,-11,-25,5,-22,0,-11,-7
1491693475348,1,-18,-6,-9,7,35,19,-7,-18
1491693475348,1,5,7,12,15,23,8,13,21
1491693475349,2,-2,-3,14,1,-23,1,-13,-3
1491693475349,2,-12,-7,-14,-18,-50,-32,-14,-23
1491693475395,1,-8,-18,-11,5,2,-27,-13,-22
1491693475395,1,7,8,19,8,29,23,6,-8
1491693475396,2,3,0,13,4,114,28,-3,-6
1491693475396,2,-12,-20,-3,-54,-84,64,7,-11
1491693475397,3,-10,8,7,47,-18,-14,-20,-13
1491693475397,3,-6,5,-5,-10,-8,8,7,11
1491693475398,2,9,1,5,-5,-24,-60,-2,10
1491693475398,2,-2,5,-5,48,39,11,8,-1
1491693475444,3,-10,-12,-2,-18,6,30,2,4
1491693475444,3,13,7,1,-17,73,-28,-17,6
1491693475446,0,-1,17,-5,13,-97,10,0,-35
1491693475446,0,-26,-32,-47,-25,82,-75,-17,-8
1491693475447,3,24,7,-12,-49,-113,-14,6,11
1491693475447,3,-4,-3,20,32,34,30,-6,-6
1491693475493,0,-5,1,-22,-10,-14,-37,8,30
1491693475493,0,11,14,0,-2,7,76,16,-13
1491693475542,1,1,4,27,-21,118,75,15,12
1491693475542,1,-7,-3,-6,37,-51,-26,-22,15
1491693475544,2,-11,6,27,-60,3,-84,24,-6
1491693475544,2,-3,-20,-27,-1,-115,-82,-10,10
1491693475545,0,4,-4,-48,-94,54,-6,-26,-20
1491693475545,0,8,-3,3,-34,50,19,22,9
1491693475546,1,-14,-12,-22,-46,-90,-112,-25,3
1491693475546,1,-16,-14,-48,-25,0,28,-5,-26
1491693475592,2,-15,-16,47,37,62,32,-12,-2
1491693475592,2,12,8,1,17,-37,62,13,3
1491693475595,1,19,11,20,68,10,-32,17,18
1491693475595,1,-3,-14,-7,22,81,54,19,2
1491693475598,2,6,4,-13,-62,-114,-76,-27,-2
1491693475598,2,-4,-8,5,27,23,-14,-11,10
1491693475602,2,11,-8,-14,51,83,79,33,21
1491693475602,2,-10,-9,-2,27,-78,-37,-19,-8
1491693475641,3,-17,-24,-13,-22,65,29,18,3
1491693475641,3,18,13,-7,-46,-128,-31,-12,0
1491693475644,0,2,12,20,-25,9,2,-25,-6
1491693475644,0,-10,-3,23,85,101,4,13,3
1491693475645,3,1,22,108,111,109,66,-3,-7
1491693475645,3,-7,0,43,24,-57,8,11,-1
1491693475647,0,-26,-61,-88,-88,-85,-48,-20,-21
1491693475647,0,-1,-16,3,-10,67,-24,-8,6
1491693475737,1,12,16,10,7,103,50,5,2
1491693475737,1,3,12,12,13,122,59,-1,-30
1491693475737,2,-2,13,41,32,96,8,17,8
1491693475737,2,-10,-22,-73,-12,-99,-64,-29,-19
1491693475738,3,10,7,48,2,75,4,17,34
1491693475738,3,-1,22,11,54,-18,-57,-22,-8
1491693475739,0,15,7,-21,-31,54,51,7,6
1491693475739,0,-11,-6,2,-2,96,32,21,9
1491693475785,1,-10,-21,-10,44,-128,-63,-35,-27
1491693475785,1,-13,-11,-64,-36,9,16,3,3
1491693475787,2,-6,20,92,53,78,-9,3,-19
1491693475787,2,7,-8,-59,-49,-41,63,4,2
1491693475788,0,8,-2,9,16,-104,24,-4,13
1491693475788,0,6,18,69,126,93,-25,15,-22
1491693475790,1,-9,-32,-21,-89,61,0,-17,-9
1491693475790,1,25,17,36,127,-94,3,2,33
1491693475883,2,-13,-13,-39,-5,-60,40,-7,-21
1491693475883,2,1,19,45,79,59,-42,-19,-8
1491693475884,3,5,-2,6,48,27,80,57,23
1491693475884,3,3,8,29,-39,-28,3,-6,-8
1491693475884,2,0,-2,12,20,-80,16,4,-4
1491693475884,2,-20,-41,-48,-113,-69,-51,-33,-24
1491693475885,3,-2,-15,14,7,63,5,-3,1
1491693475885,3,-5,-13,-44,-82,-128,-33,-23,-10
1491693475932,0,2,26,93,-20,114,17,4,7
1491693475932,0,6,9,34,123,-46,-10,14,-7
1491693475933,1,5,6,-24,-63,47,35,-21,6
1491693475933,1,9,-4,13,74,-52,-39,6,0
1491693475933,0,2,-12,-26,-9,-8,6,-4,1
1491693475933,0,-14,16,18,-23,111,-17,11,-6
1491693475934,1,18,41,87,64,-19,76,4,16
1491693475934,1,-3,24,78,97,74,18,2,-8
1491693475981,2,-8,-66,-126,-128,-128,-81,-22,-7
1491693475981,2,-3,9,61,45,63,-12,-2,0
1491693475983,3,3,-10,58,30,68,-57,5,-11
1491693475983,3,-13,-5,21,-24,-46,25,-10,-12
1491693475985,1,-15,-35,-95,-121,-86,-124,-66,-16
1491693475985,1,-9,3,-2,-59,31,-7,4,-10
1491693475991,2,-2,-14,-40,32,28,41,-6,-8
1491693475991,2,1,9,-3,42,78,-1,0,-5
1491693476030,3,-1,11,11,-14,-41,-5,10,5
1491693476030,3,-5,-5,-9,-38,127,51,9,-5
1491693476031,0,-13,-3,71,109,-128,7,-1,0
1491693476031,0,-6,-8,-48,-82,11,-75,-17,3
1491693476032,1,-16,9,-11,73,77,99,7,-15
1491693476032,1,-16,-50,-102,-86,-55,-65,-7,-3
1491693476034,2,24,25,0,-63,1,14,13,5
1491693476034,2,3,13,80,34,18,-16,-12,2
1491693476078,3,-9,-19,-58,-109,-62,-28,-20,-6
1491693476078,3,-10,6,69,33,127,100,11,-5
1491693476080,0,-23,-13,-82,-14,-24,-10,-27,-9
1491693476080,0,7,-23,-51,13,-127,-13,-18,3
1491693476081,2,13,42,54,53,61,3,2,2
1491693476081,2,-10,2,-7,-9,-12,13,0,-5
1491693476082,3,5,1,3,36,13,12,8,-1
1491693476082,3,6,-8,-27,-41,-37,-18,-5,0
1491693476127,0,-16,5,63,-7,60,58,10,-12
1491693476127,0,11,11,-30,41,-34,-55,-9,-1
1491693476128,1,4,1,-4,-12,4,3,6,4
1491693476128,1,10,31,100,37,-14,6,-4,-18
1491693476129,3,-7,-8,12,-25,56,38,-3,-7
1491693476129,3,-6,7,2,44,-40,-38,-1,4
1491693476140,0,17,48,127,47,96,65,25,18
1491693476140,0,-5,-32,-95,-2,-51,-15,-31,-10
1491693476176,1,-7,-24,-36,-4,-35,-36,-7,-5
1491693476176,1,17,18,49,10,23,-41,2,9
1491693476179,2,3,3,-9,-25,55,3,2,3
1491693476179,2,0,8,7,19,7,7,16,9
1491693476180,0,-1,-16,-26,22,-34,2,-6,1
1491693476180,0,-15,6,51,-20,89,0,-8,-11
1491693476181,1,20,13,-5,-46,-42,-31,2,5
1491693476181,1,-6,-9,-27,-22,5,29,-4,-8
1491693476224,2,-1,-3,53,21,-40,-18,9,2
1491693476224,2,-5,-25,-90,-93,-21,-8,1,-3
1491693476228,3,-15,5,36,37,21,24,-2,-4
1491693476228,3,0,-11,-14,-49,18,-9,3,5
1491693476229,1,8,16,12,-2,-15,-1,-1,1
1491693476229,1,9,-9,-35,-36,22,-20,11,11
1491693476230,2,-14,-2,2,22,-15,-5,-8,-6
1491693476230,2,7,10,31,15,57,29,16,-1
1491693476273,3,1,31,43,31,-24,-14,6,-2
1491693476273,3,5,-12,-24,24,48,32,-4,18
1491693476274,0,-2,-23,-71,-68,-98,-60,-18,-2
1491693476274,0,-17,-1,4,-10,20,26,-4,-27
1491693476275,2,9,2,-24,-9,-40,-14,7,21
1491693476275,2,0,33,75,18,55,1,-7,-1
1491693476277,3,-15,-30,1,35,21,17,4,-1
1491693476277,3,-2,-8,-28,-36,-42,-13,-4,1
1491693476324,0,-7,1,-28,-18,32,-8,-4,-8
1491693476324,0,2,2,14,11,-29,11,0,2
1491693476325,1,-3,1,47,5,31,0,-1,-6
1491693476325,1,16,-6,-34,-10,-45,-28,-2,8
1491693476326,3,-17,5,27,-8,-5,31,4,0
1491693476326,3,-15,-18,-14,18,98,27,-2,-7
1491693476328,0,-9,1,-41,-9,-124,-85,-16,-17
1491693476328,0,-16,-4,22,18,48,23,3,-1
1491693476370,1,-19,-16,-30,-24,10,-25,-3,-2
1491693476370,1,4,13,4,6,-19,41,1,2
1491693476371,2,5,-5,16,6,27,3,13,16
1491693476371,2,-8,10,-2,-18,-31,-22,0,-3
1491693476372,3,-14,5,19,12,5,25,-6,-10
1491693476372,3,-12,-15,-25,0,17,-2,5,-11
1491693476373,0,4,0,-3,-1,-4,-14,-3,4
1491693476373,0,2,2,7,-17,-59,-14,-3,-10
1491693476420,1,2,-1,7,-17,-47,10,-10,-19
1491693476420,1,1,-6,-17,3,-17,-38,-6,7
1491693476422,2,12,14,5,14,33,15,-4,-8
1491693476422,2,6,-8,1,7,32,-2,-3,6
1491693476425,0,-5,-8,0,9,65,11,1,-3
1491693476425,0,4,-6,-19,-1,-74,-43,-8,-3
1491693476426,1,11,-3,-9,-7,11,4,-3,5
1491693476426,1,-11,-6,4,4,11,-17,-3,-2
1491693476468,2,-1,6,14,-5,-14,23,5,-9
1491693476468,2,2,-1,-53,-31,-14,7,5,7
1491693476469,3,7,6,-18,-17,-26,-30,-11,-9
1491693476469,3,8,17,14,-9,-53,4,-4,-4
1491693476469,1,4,-36,-37,-5,-25,16,1,-6
1491693476469,1,2,-2,21,30,3,-13,2,-17
1491693476470,2,24,-4,13,-5,-36,-53,-10,19
1491693476470,2,5,-3,18,7,74,56,9,-11
1491693476517,3,0,-5,-43,-9,25,13,7,3
1491693476517,3,8,28,34,-11,-12,-55,-25,-4
1491693476518,0,-11,16,-7,-12,-23,-3,4,-5
1491693476518,0,-15,-7,-65,-59,-51,-33,-22,-17
1491693476519,2,-12,16,23,35,-50,-30,-4,-9
1491693476519,2,-2,26,85,44,76,27,9,11
1491693476520,3,-14,2,-18,2,-18,12,-6,-8
1491693476520,3,-5,3,23,18,30,-28,-6,0
1491693476565,0,-2,-22,-40,-50,-68,-25,-1,7
1491693476565,0,-3,-6,0,15,68,-7,1,-15
1491693476566,1,5,24,112,80,93,61,13,30
1491693476566,1,-14,-13,6,-71,127,108,5,-3
1491693476567,3,16,-9,25,9,59,-39,17,25
1491693476567,3,-6,-17,40,43,69,-25,4,-7
1491693476568,0,0,-42,-26,-4,-45,89,14,-3
1491693476568,0,6,-3,24,22,34,-13,2,22
1491693476614,1,-9,-31,-36,-22,43,14,-1,-17
1491693476614,1,5,2,18,39,-56,-8,3,7
1491693476615,2,-8,-8,5,-12,7,6,-6,-10
1491693476615,2,-8,31,28,81,11,-3,-9,-17
1491693476616,0,-12,9,-4,-46,6,-23,-11,-2
1491693476616,0,3,1,14,16,-30,70,12,8
1491693476617,1,-5,18,70,21,32,-3,-5,3
1491693476617,1,7,-17,-98,-63,-95,-84,0,-16
1491693476663,2,0,0,13,28,57,16,0,-3
1491693476663,2,-10,-18,-16,-16,35,-81,-18,0
1491693476664,3,1,6,28,59,89,52,7,-8
1491693476664,3,-11,16,48,4,-27,-56,14,17
1491693476664,1,6,-3,-15,-24,60,-7,-4,11
1491693476664,1,-2,-3,43,43,-25,41,-3,-7
1491693476712,2,-17,3,84,58,34,-16,12,-8
1491693476712,2,-1,-29,-76,-107,28,35,-3,9
1491693476714,3,19,1,4,1,-128,-63,2,1
1491693476714,3,-7,-6,-4,2,109,84,-9,-8
1491693476715,0,-4,-2,7,-28,-65,-6,1,23
1491693476715,0,-7,5,19,0,44,14,-3,-12
1491693476716,1,-5,-9,-19,-12,-128,-72,-14,7
1491693476716,1,30,16,46,64,127,38,6,40
1491693476761,2,-5,-7,23,48,-56,-14,0,-19
1491693476761,2,0,-30,-39,-22,-22,20,14,14
1491693476763,3,-3,-29,-36,-61,-40,-34,-24,10
1491693476763,3,-8,-15,20,47,-103,-35,13,-20
1491693476764,0,-2,-7,-10,-22,77,42,0,5
1491693476764,0,2,-1,14,-56,-42,-54,-7,9
1491693476765,2,16,6,-44,-33,-29,-39,1,-15
1491693476765,2,-7,-14,48,49,9,54,10,1
1491693476858,3,3,13,-10,-17,-38,2,-12,-6
1491693476858,3,-14,-11,-12,-110,-1,23,0,6
1491693476861,0,5,-6,-19,76,-61,-23,5,-5
1491693476861,0,3,9,-19,-2,17,9,-6,-14
1491693476862,3,-23,6,-34,-12,124,79,14,-21
1491693476862,3,1,14,0,-43,-95,-82,-41,-7
1491693476863,0,-11,2,-6,-15,90,-15,1,-6
1491693476863,0,9,4,-43,-5,-10,-42,-1,4
1491693476908,1,-2,-16,-30,-15,-19,-23,-4,-17
1491693476908,1,10,23,37,13,68,39,3,11
1491693476910,2,-8,5,-14,52,66,24,-1,-9
1491693476910,2,-1,8,5,-57,-50,24,-11,-1
1491693476911,0,-1,-8,-41,-29,-12,-6,0,9
1491693476911,0,-10,0,-32,22,35,77,-10,-23
1491693476912,1,13,12,87,106,127,51,26,4
1491693476912,1,-15,-24,-66,-68,104,27,-2,-10
1491693476956,2,-5,-14,-30,-67,-88,-75,-14,5
1491693476956,2,2,14,37,16,55,-24,4,-8
1491693476958,3,-9,-31,-25,-30,109,49,4,8
1491693476958,3,0,18,8,-35,-14,-57,-15,5
1491693476960,2,4,15,65,55,111,53,27,17
1491693476960,2,-2,-14,-58,-97,-90,-27,13,0
1491693476961,3,-13,-47,-54,-41,59,-9,-21,-24
1491693476961,3,10,-1,35,26,64,40,22,22
1491693477005,0,-1,-17,15,19,85,-6,15,8
1491693477005,0,2,-14,2,24,-21,-5,-18,-20
1491693477007,1,1,-6,9,28,-14,-51,-10,12
1491693477007,1,-3,-7,-11,-16,-15,11,-4,-14
1491693477008,3,-1,0,-11,-10,-88,-82,-15,0
1491693477008,3,-1,-8,-24,-34,-68,7,-12,-11
1491693477009,0,-13,1,-10,0,64,18,1,-16
1491693477009,0,4,-4,0,-22,-62,30,7,-8
1491693477053,1,5,1,1,-6,-46,-9,-1,21
1491693477053,1,5,19,58,98,60,-6,17,30
1491693477055,2,-6,1,-64,-48,-97,-37,-30,-10
1491693477055,2,-1,-7,-15,-4,29,-18,10,19
1491693477056,0,-6,-8,-28,19,-120,-7,-15,-19
1491693477056,0,6,15,25,17,-40,-34,1,29
1491693477057,1,-7,5,-7,28,16,32,-1,-21
1491693477057,1,-4,-1,12,-25,-41,5,10,4
1491693477102,2,-5,-5,-15,51,116,15,5,-11
1491693477102,2,-3,1,48,-27,-14,-68,-23,-18
1491693477104,3,4,-13,-85,-25,-107,16,8,10
1491693477104,3,7,14,-9,-2,-36,-11,2,-6
1491693477105,0,0,8,51,29,38,5,-9,-5
1491693477105,0,-9,-1,-49,-92,81,27,-6,-18
1491693477106,1,7,8,44,74,-31,-17,12,-5
1491693477106,1,-8,1,-27,-11,-29,10,7,2
1491693477151,2,2,3,9,13,-40,-29,-3,7
1491693477151,2,-3,-5,-4,5,70,14,11,-4
1491693477200,3,-7,3,25,-69,17,20,-17,-10
1491693477200,3,-9,-13,-60,47,13,-39,-12,-1
1491693477202,1,1,18,77,116,127,52,7,21
1491693477202,1,5,-26,-92,-96,-90,-72,-8,-20
1491693477203,2,-3,-17,-60,-81,58,20,-4,8
1491693477203,2,2,1,16,89,-25,18,9,5
1491693477204,3,9,21,-30,9,71,-45,-15,-7
1491693477204,3,-5,4,88,64,-13,48,4,-5
1491693477248,0,-1,-12,-78,13,-4,-44,-11,8
1491693477248,0,7,0,-17,-21,-53,-28,3,-10
1491693477297,2,4,-2,5,-19,-48,-7,7,12
1491693477297,2,-11,-11,-26,-59,118,38,3,0
1491693477299,3,-5,0,0,-12,-113,63,6,6
1491693477299,3,-2,8,35,40,121,-22,-12,-6
1491693477347,3,3,0,7,-1,-4,-14,14,5
1491693477347,3,-6,-8,-15,18,0,-1,12,15
1491693477349,0,-17,-10,37,58,107,-2,-28,-34
1491693477349,0,9,16,39,-30,-122,-14,-5,30
1491693477350,1,-15,-27,-51,-35,57,-35,-13,-13
1491693477350,1,6,-4,-48,-35,-65,-63,-1,9
1491693477351,0,6,12,20,34,-9,-6,6,13
1491693477351,0,-2,3,31,-5,76,-5,3,-11
1491693477492,1,-6,-17,-88,-88,-99,6,-6,-8
1491693477492,1,-9,-7,-8,-17,24,17,-3,-15
1491693477493,1,0,-7,-10,-22,-12,-1,-3,16
1491693477493,1,-10,-25,-71,-55,-43,59,-7,-9
1491693477540,2,0,9,23,22,53,-4,8,-4
1491693477540,2,-10,-8,-43,-66,-8,-24,-11,-6
1491693477541,2,-7,-4,-29,-39,37,2,-4,-27
1491693477541,2,-9,-18,-23,7,-67,-7,-5,-6
1491693477542,3,3,-3,20,13,1,-17,-8,-8
1491693477542,3,2,7,15,12,50,-14,15,17
1491693477543,0,0,-7,-4,12,-24,45,-3,1
1491693477543,0,-7,3,18,28,22,-12,-3,-10
1491693477638,2,0,3,-1,-30,58,15,-4,-2
1491693477638,2,2,-17,-7,14,1,12,7,49
1491693477639,0,-3,-6,0,36,82,-22,2,-6
1491693477639,0,1,-6,-37,-3,80,6,-13,2
1491693477640,1,-11,4,9,8,59,33,7,-5
1491693477640,1,-1,22,45,32,13,22,0,-3
1491693477641,2,11,12,26,30,-34,-22,0,21
1491693477641,2,-10,0,62,-48,124,18,11,-5
1491693477687,3,4,-6,-43,45,-68,27,25,16
1491693477687,3,-8,-15,-51,-23,-109,-30,-21,-4
1491693477688,0,19,28,67,64,98,-38,-13,0
1491693477688,0,-9,6,-13,-36,11,52,15,-4
1491693477689,2,9,-3,-43,-46,-27,31,-15,2
1491693477689,2,3,13,49,102,71,28,13,19
1491693477689,3,-6,3,31,-41,80,-9,-3,-1
1491693477689,3,11,-6,-28,-15,-53,24,12,16
1491693477736,0,-20,-20,-34,1,45,-6,-14,3
1491693477736,0,-1,-2,19,-32,87,-17,-3,-19
1491693477737,1,3,1,34,101,6,49,15,7
1491693477737,1,17,46,100,28,87,8,14,20
1491693477737,0,20,31,101,29,108,18,14,11
1491693477737,0,-1,-15,-48,111,-91,29,2,-2
1491693477738,1,-10,-36,-128,-128,64,-54,-33,-13
1491693477738,1,16,25,89,127,17,20,11,8
1491693477784,2,2,9,42,-102,82,-14,-8,-1
1491693477784,2,-9,-23,-38,-78,33,4,15,20
1491693477786,3,-5,14,110,34,36,27,19,-9
1491693477786,3,-9,-28,-128,-98,-128,4,-21,-10
1491693477787,0,8,1,63,18,56,-32,37,19
1491693477787,0,12,32,61,82,73,20,-16,-1
1491693477788,1,6,6,-59,-19,-66,-48,3,2
1491693477788,1,-7,-19,10,100,65,-50,-14,-2
1491693477833,2,-6,-9,-29,-73,-108,-54,-12,10
1491693477833,2,-4,7,13,-27,59,-21,6,-8
1491693477834,3,-6,-13,-34,-81,-9,2,1,-1
1491693477834,3,6,-5,-19,-105,61,10,1,-17
1491693477835,1,-12,-7,-21,33,23,47,-25,-4
1491693477835,1,-1,-15,-26,-36,-128,-2,10,1
1491693477836,2,1,-4,-34,60,-86,-40,-10,-5
1491693477836,2,1,12,50,54,91,50,-9,-4
1491693477883,3,-2,3,0,59,86,39,29,2
1491693477883,3,5,26,75,-18,-5,47,3,2
1491693477885,0,-21,-14,-28,88,89,-25,-2,-14
1491693477885,0,2,-14,-79,-61,-58,-68,-41,-18
1491693477886,2,-8,10,94,106,36,18,-18,-30
1491693477886,2,-15,-25,-114,-128,-72,39,13,-4
1491693477887,3,0,-1,18,2,61,-49,-20,-11
1491693477887,3,3,3,5,109,-52,47,15,3
1491693477931,0,-4,1,-17,-95,-8,-79,-29,-3
1491693477931,0,-2,4,59,52,121,41,-2,-1
1491693477932,1,3,0,-3,-10,6,25,11,2
1491693477932,1,-1,12,89,5,61,63,18,-2
1491693477933,3,-2,4,-3,16,-41,46,-10,-4
1491693477933,3,-15,-13,-30,9,86,-38,-15,-27
1491693477934,0,4,8,66,-92,-27,-3,-5,-5
1491693477934,0,9,3,-58,-49,-49,-29,12,12
1491693477979,1,14,12,12,117,85,58,15,11
1491693477979,1,-14,-1,47,8,-127,-42,-8,-17
1491693477984,2,-4,-37,-104,-89,-17,-45,-2,9
1491693477984,2,-9,9,49,-35,-4,-41,-5,-8
1491693477985,0,7,31,50,123,127,43,4,5
1491693477985,0,1,8,-11,-80,8,5,-7,1
1491693477986,1,1,-21,-76,33,0,-21,-9,9
1491693477986,1,3,26,90,2,9,53,21,5
1491693478028,2,0,-29,-106,30,-117,-51,-13,-5
1491693478028,2,0,5,99,60,127,52,22,4
1491693478029,3,-21,-50,-94,-9,-128,6,-13,-25
1491693478029,3,10,-9,-10,32,62,-7,-3,13
1491693478031,1,1,44,127,-64,125,-50,-20,-16
1491693478031,1,-21,-41,-128,-128,10,-75,-22,-1
1491693478032,2,19,16,127,61,-59,31,7,14
1491693478032,2,-1,14,9,-25,9,-82,-10,-4
1491693478079,3,0,-60,-96,-105,-128,57,-5,-5
1491693478079,3,4,36,76,15,92,24,10,-5
1491693478080,0,-18,-31,-90,-2,-70,-12,-27,-17
1491693478080,0,13,21,27,5,16,32,40,18
1491693478081,2,-6,12,-4,84,-35,9,12,-10
1491693478081,2,-17,-55,-76,-65,-17,-45,-12,-1
1491693478083,3,5,-8,-59,-21,-91,6,11,3
1491693478083,3,2,-24,-76,-56,73,-88,-26,0
1491693478126,0,-2,36,127,-39,127,15,-4,-19
1491693478126,0,-5,-7,-5,81,-37,-14,-24,-16
1491693478127,1,2,16,38,33,28,-27,18,5
1491693478127,1,-8,-8,10,18,-77,41,2,-8
1491693478128,2,5,-3,-25,-29,3,-4,3,8
1491693478128,2,15,39,127,42,127,81,30,8
1491693478130,3,-12,-10,-60,-48,-49,-44,-19,-8
1491693478130,3,-23,-19,3,45,-11,-14,-20,-17
1491693478174,0,9,0,-128,64,-98,-38,0,5
1491693478174,0,-8,-40,-56,8,-68,-54,-19,-6
1491693478176,1,7,35,123,95,127,8,9,10
1491693478176,1,1,-2,12,-37,49,-14,-11,-6
1491693478178,3,0,26,74,7,-27,-40,-14,-3
1491693478178,3,-6,-30,-107,-60,-17,1,8,-1
1491693478183,0,-7,-22,-25,-87,5,13,-10,-10
1491693478183,0,9,6,18,-83,-47,37,-3,18
1491693478223,1,-4,-10,-52,11,-57,-69,-10,-6
1491693478223,1,5,20,26,-46,75,57,13,4
1491693478225,2,6,8,89,127,112,38,19,8
1491693478225,2,-6,-9,-118,-128,-92,8,-25,-13
1491693478226,0,-4,-6,-5,-28,3,-16,-26,-1
1491693478226,0,17,7,61,80,30,23,23,9
1491693478227,1,-4,-14,-15,-67,-74,-13,-11,-3
1491693478227,1,-3,6,44,52,-7,-2,10,0
1491693478277,2,9,-2,16,-51,11,12,4,-3
1491693478277,2,-6,11,32,48,68,25,-9,0
1491693478279,3,-1,6,38,59,9,41,27,1
1491693478279,3,-4,-42,-85,-49,-25,-48,-32,-11
1491693478280,1,6,-5,-42,-34,-36,-43,-16,-1
1491693478280,1,-10,5,55,41,24,-1,4,-4
1491693478321,2,2,-12,-86,-61,-8,-26,-15,1
1491693478321,2,-12,-7,-15,-17,-25,-44,-4,1
1491693478322,3,4,8,48,16,43,16,8,0
1491693478322,3,8,-12,-36,-22,-53,-32,-4,0
1491693478323,0,-2,7,32,49,47,16,-10,0
1491693478323,0,4,0,-20,-1,-9,-40,4,5
1491693478324,2,-2,4,-10,-23,-34,-27,2,5
1491693478324,2,2,-4,-4,-17,6,33,6,10
1491693478378,3,-3,13,42,-5,57,-23,2,22
1491693478378,3,7,10,-17,-18,-41,26,7,-1
1491693478379,0,-23,-4,2,5,6,3,10,12
1491693478379,0,-7,47,89,92,87,1,-10,-15
1491693478380,3,-5,-15,12,18,51,13,-5,-6
1491693478380,3,2,23,79,-5,89,37,14,8
1491693478381,0,-7,13,104,109,-18,-4,-4,-14
1491693478381,0,-3,-3,-58,-86,-27,9,5,19
1491693478418,1,-11,-1,-63,9,-76,4,-2,-14
1491693478418,1,-20,-12,-28,4,-71,-34,-6,4
1491693478419,2,-1,26,40,69,105,16,8,7
1491693478419,2,-5,-5,20,28,-7,-6,-1,-12
1491693478420,0,-3,-35,-61,-29,-37,20,7,2
1491693478420,0,-8,-27,-3,-34,25,-9,0,14
1491693478422,1,22,4,21,-38,-60,32,-2,-3
1491693478422,1,18,-10,-6,5,-5,-36,-8,-7
1491693478467,2,36,-6,-25,-42,-39,-33,-10,4
1491693478467,2,0,-2,51,22,61,15,10,1
1491693478470,3,-1,-1,-37,-33,-27,-1,-10,5
1491693478470,3,1,-7,-51,-43,-43,-28,-4,-18
1491693478471,1,-3,12,38,50,50,-16,-13,-13
1491693478471,1,4,-2,-11,-23,7,2,-7,4
1491693478472,2,10,-18,-46,-36,29,-19,-3,8
1491693478472,2,-15,35,116,95,-5,-18,-7,-26
1491693478516,3,0,-23,-75,-78,-31,11,0,-9
1491693478516,3,-11,-10,-12,-17,3,-1,-13,-10
1491693478517,0,-10,1,-40,-11,-11,-11,-4,-11
1491693478517,0,-14,13,36,23,-21,13,2,0
1491693478519,1,-18,10,87,70,114,67,11,-12
1491693478519,1,2,-33,-102,-73,-104,-82,-24,2
1491693478521,2,-10,3,18,13,33,103,20,-15
1491693478521,2,10,6,-31,-17,23,-8,-13,1
1491693478564,3,1,15,50,23,92,10,13,18
1491693478564,3,-7,1,51,29,-55,-1,-11,-29
1491693478566,0,-5,-21,-69,-57,-22,2,10,20
1491693478566,0,10,4,-20,-8,-27,-3,-21,10
1491693478568,2,7,-7,-35,-8,-57,29,1,-13
1491693478568,2,-4,-11,-9,-1,14,-57,0,-8
1491693478570,3,4,19,63,-89,-44,-35,-8,12
1491693478570,3,-1,-66,-121,-82,-120,-54,-15,-22
1491693478613,0,2,7,45,17,51,-17,-12,2
1491693478613,0,4,-8,6,34,90,36,3,2
1491693478615,1,2,24,36,55,-41,0,14,-13
1491693478615,1,-13,10,35,12,70,34,15,3
1491693478616,3,-6,-14,-56,-19,-69,-28,-10,3
1491693478616,3,-17,2,-3,-27,32,24,6,-19
1491693478617,0,-5,0,23,45,10,-1,-10,-4
1491693478617,0,-3,64,125,37,118,49,20,6
1491693478662,1,13,-52,-103,-67,-101,-83,-11,-11
1491693478662,1,4,-20,-4,-16,-13,-29,-3,20
1491693478665,2,-16,-6,30,-6,26,-10,0,-29
1491693478665,2,-3,-1,-11,30,55,12,-18,-10
1491693478666,0,-4,-13,-103,-70,-96,-54,-13,-4
1491693478666,0,-16,-4,-1,8,76,85,9,10
1491693478668,1,4,-1,-21,15,-30,-26,-3,-7
1491693478668,1,2,0,-9,-11,-8,-18,-9,7
1491693478711,2,-15,-1,22,26,77,27,-4,-11
1491693478711,2,4,-20,-79,-63,-118,-37,1,-2
1491693478713,3,-12,-11,7,-11,34,30,6,18
1491693478713,3,-6,36,82,52,108,77,-2,-21
1491693478714,1,-9,-4,-24,12,78,-33,4,1
1491693478714,1,-3,0,-27,-16,-85,-17,-26,-12
1491693478715,2,-13,13,34,29,100,68,12,-3
1491693478715,2,8,-13,-21,-3,-71,-66,4,16
1491693478760,3,-7,-8,16,-12,-7,14,-10,-4
1491693478760,3,2,14,10,20,18,24,11,-2
1491693478761,0,5,-4,10,4,19,38,14,1
1491693478761,0,0,-13,-31,-15,-30,27,-6,-2
1491693478762,2,-4,-8,-18,-65,10,-15,-18,-9
1491693478762,2,15,29,69,50,60,14,17,34
1491693478763,3,1,-4,-45,-24,-43,-3,-19,-18
1491693478763,3,-7,-16,-6,11,-11,-26,6,23
1491693478809,0,2,17,1,12,-26,-13,-13,-7
1491693478809,0,-6,-15,-31,-17,-7,-42,-16,-18
1491693478811,1,23,8,37,-6,100,71,26,13
1491693478811,1,-4,-4,17,78,67,-52,3,-6
1491693478812,3,-19,8,55,43,96,-8,-10,-18
1491693478812,3,-1,-26,-84,-105,-56,-22,-3,-10
1491693478814,0,-12,-8,4,36,-1,-15,11,-9
1491693478814,0,-7,0,23,-16,7,25,-23,-12
1491693478857,1,21,4,20,17,2,-7,2,12
1491693478857,1,1,4,-8,12,3,3,-4,-8
1491693478859,2,-4,2,29,38,106,24,7,6
1491693478859,2,0,-1,-28,-83,-56,-63,-8,-5
1491693478860,3,-8,-2,7,15,32,16,-1,6
1491693478860,3,-3,1,9,12,119,44,6,9
1491693478862,0,2,-2,-17,-17,-112,-74,4,5
1491693478862,0,-8,-7,15,36,87,49,8,-10
1491693478906,1,-10,-8,9,-15,9,1,-10,7
1491693478906,1,3,4,14,55,14,-27,-13,-8
1491693478907,2,9,-3,29,-29,-73,49,9,7
1491693478907,2,10,-17,-106,-19,10,4,0,8
1491693478910,0,0,10,33,33,44,-14,-9,-7
1491693478910,0,-5,-3,14,20,61,-20,22,11
1491693478911,1,3,6,-51,-48,-54,-6,-4,-5
1491693478911,1,4,10,43,53,33,32,0,-9
1491693478955,2,5,7,16,56,79,16,7,7
1491693478955,2,1,0,-14,-12,-91,5,-21,-2
1491693479005,3,1,10,38,33,105,6,2,11
1491693479005,3,7,-29,-104,-84,-128,-5,21,15
1491693479008,1,-11,6,2,27,80,84,11,0
1491693479008,1,7,3,23,-25,-72,-118,-11,-10
1491693479010,2,2,-12,-53,-48,-79,-42,-19,7
1491693479010,2,0,0,9,21,104,81,18,4
1491693479011,3,-2,12,56,29,-128,-69,-13,-9
1491693479011,3,-1,8,23,-5,127,58,0,-2
1491693479100,0,13,-6,-58,9,-55,-30,20,2
1491693479100,0,-17,-30,-61,-84,-47,-44,-30,-32
1491693479102,2,7,11,46,91,49,45,-4,5
1491693479102,2,12,3,9,-8,2,32,12,3
1491693479103,3,-10,-10,-16,-27,-56,-24,-1,-28
1491693479103,3,-15,-17,-3,-12,25,1,-14,2
1491693479105,3,13,-17,-81,-42,-30,-56,-4,18
1491693479105,3,-4,-8,-27,-74,-64,-64,-14,-7
1491693479150,0,4,5,36,83,123,93,24,15
1491693479150,0,4,11,38,-33,-10,-61,-17,-8
1491693479151,1,-8,-20,-66,-34,56,14,-4,11
1491693479151,1,2,4,48,68,-6,47,9,6
1491693479152,0,-2,3,76,13,59,-19,4,-3
1491693479152,0,-8,-7,-58,-35,-121,20,2,-10
1491693479153,1,-9,15,74,88,76,89,12,-15
1491693479153,1,-6,-10,25,85,34,-4,9,4
1491693479198,2,-5,-21,-96,-122,-91,-35,-21,-6
1491693479198,2,5,-12,-36,2,-3,35,-1,7
