1490743671613,-76,-34,-56,-95,-28,36,-112,-3,102,36,31,-83,-107,114,-8,76
1490743671662,47,3,-32,62,46,-97,-75,-19,-109,-7,1,-21,-91,64,24,-56
1490743671663,127,5,-32,-55,-30,-98,-1,-84,16,-12,-7,8,-28,33,36,30
1490743671710,-39,12,-16,72,-113,-78,-59,-81,-19,-22,-24,-105,-67,9,-54,-30
1490743671759,-64,-10,42,127,118,117,114,-58,-52,3,-20,-15,-128,-128,-66,-75
1490743671808,-76,-15,-3,-82,92,16,-9,-52,74,-16,50,58,26,19,-50,-15
1490743671905,-50,-6,82,94,-95,106,127,75,57,6,-89,-114,-108,-104,-84,-36
1490743671906,-47,7,3,73,-3,39,79,24,-9,-9,-53,-16,-21,23,122,65
1490743671907,-24,7,-35,-128,-122,-26,19,23,75,9,55,111,127,127,124,33
1490743671954,-30,-2,-30,33,116,46,-64,-35,-54,-1,19,34,-18,-43,97,-35
1490743672003,43,-10,8,-3,-52,127,70,9,-11,-4,-21,-11,-128,-94,-7,-59
1490743672052,1,-1,3,27,121,71,43,75,17,0,-33,-53,-75,16,3,-47
1490743672100,43,0,28,80,94,32,-13,52,-63,-3,18,30,7,-21,60,4
1490743672101,-4,-4,42,119,78,127,6,42,-67,-2,-36,-128,-96,-126,-1,-36
1490743672197,66,-6,-18,2,-102,-105,-48,-53,69,9,-42,-75,71,63,0,35
1490743672199,0,-2,30,-12,-53,69,15,21,48,-3,-36,-88,-45,-46,-8,-4
1490743672247,4,5,27,60,122,-71,-54,4,27,2,94,127,127,57,105,105
1490743672296,-11,5,80,38,35,-55,-73,-17,-1,-2,-80,-79,-70,-42,-56,-17
1490743672344,2,3,-121,-105,-112,-31,1,-28,1,-2,13,92,127,45,91,37
1490743672345,0,1,-17,-128,-128,-20,21,3,-1,1,32,-103,-70,-128,-58,-37
1490743672394,22,14,-83,0,93,55,79,32,112,-7,66,30,66,26,94,39
1490743672442,-113,2,27,67,76,-7,-128,3,-119,0,-125,-19,-60,27,-34,3
1490743672491,-32,110,33,-26,42,48,-99,-1,39,37,5,-39,-54,-47,-11,2
1490743672539,-127,44,100,-106,-128,47,61,17,-1,57,-51,-26,66,104,29,20
1490743672540,73,-75,-82,-40,19,-89,-31,-16,55,-32,-67,118,-50,-73,-104,10
1490743672588,15,-33,-18,58,-13,44,51,-31,15,20,2,-2,64,2,-60,-44
1490743672637,12,29,16,47,41,41,22,-8,3,-22,-28,-41,-89,-7,49,-26
1490743672686,4,12,66,-7,2,2,-21,21,-1,13,72,-11,12,3,22,25
1490743672734,127,-20,-86,-16,-39,-6,-9,-6,127,-11,66,-39,-64,-93,-30,-15
1490743672782,-128,24,1,46,44,45,17,24,-114,-25,3,-3,0,69,11,10
1490743672784,-54,17,20,39,0,22,1,-16,-30,-1,8,50,82,44,13,17
1490743672832,-6,11,-33,-76,-14,87,17,9,2,127,-57,-68,-85,-128,-104,-8
1490743672881,0,121,46,102,78,53,-18,-8,1,72,-7,-101,-109,-45,2,4
1490743672929,-1,-99,34,55,-40,49,4,-37,0,41,2,-69,127,-82,7,-6
1490743672978,-1,69,15,-46,-26,45,47,44,0,7,9,49,-27,97,23,-20
1490743673026,-41,39,-9,-51,-106,-128,-73,-23,-33,-27,69,127,122,97,100,31
1490743673028,64,-3,62,64,122,118,25,14,-36,-7,-2,42,-125,-95,-81,-26
1490743673076,83,7,-9,-1,-6,62,12,23,-70,12,-29,-56,-59,27,28,-28
1490743673172,-100,-11,-12,-89,-77,-50,38,-30,41,-13,5,-41,28,69,94,2
1490743673174,31,-5,-18,-70,-128,-95,-7,28,-37,4,20,41,127,-40,-88,-60
1490743673221,69,9,-62,-108,-23,-21,-53,-97,83,-11,-12,-52,-21,67,22,31
1490743673222,38,-11,52,51,-39,102,54,68,23,-10,-24,-61,48,-107,-62,-95
1490743673271,71,-1,-17,60,86,-99,-75,13,-99,-4,-51,-15,-128,-128,-51,-66
1490743673319,-55,-7,54,21,88,92,-10,8,15,5,-27,-27,-103,-128,-58,-21
1490743673368,-79,-109,94,69,77,113,120,30,73,-48,24,-40,-128,-83,-22,22
1490743673417,-105,-128,1,-128,-128,-98,-22,0,34,-104,99,90,48,66,71,-36
1490743673465,-16,41,91,-16,-128,-93,124,90,8,60,122,22,43,-49,-103,-73
1490743673467,94,10,-75,-52,-128,-67,-4,7,-108,13,-128,-79,36,-68,-26,-18
1490743673514,106,2,103,-52,-79,-42,-19,-10,-48,8,66,8,-95,27,-1,-14
1490743673563,-14,2,-108,-84,-30,37,127,73,3,2,-91,17,126,85,-64,-45
1490743673612,28,0,112,22,12,-47,29,17,-122,1,85,90,-46,-128,-72,-36
1490743673661,3,16,5,5,-100,-6,5,-32,17,39,42,12,-64,-9,32,29
1490743673709,-29,-33,25,73,104,-15,-41,-16,-77,35,22,42,114,118,57,35
1490743673710,-54,22,21,22,32,9,-27,-43,15,-49,12,34,113,-15,-50,20
1490743673758,1,-21,14,-86,-80,-11,39,32,-2,-18,-2,-48,-86,32,-33,-34
1490743673807,61,-12,-13,8,20,-105,-62,-14,18,27,20,77,37,-38,-5,10
1490743673856,-6,-42,-50,-68,-21,7,11,-37,30,54,-31,-16,-15,-44,-71,-7
1490743673904,-81,-8,6,13,-25,24,5,-4,91,-11,12,1,42,74,56,31
1490743673905,18,111,17,24,-25,-1,-48,-26,75,-4,6,17,68,-17,8,2
1490743673953,62,-45,-24,-53,-19,-48,48,7,-96,31,26,48,-52,-37,-25,-4
1490743674002,36,-66,-10,58,107,-10,-12,19,-57,8,-13,-56,-16,-57,-83,-75
1490743674051,127,-38,29,-56,-128,-46,57,35,-3,29,-17,34,99,52,-33,-12
1490743674099,32,-34,56,54,17,84,88,94,-37,25,12,64,14,105,87,8
1490743674147,-57,-62,-80,-92,-124,-116,20,-26,-36,17,-69,-83,-127,-111,-128,-100
1490743674149,34,-99,60,-70,-36,14,-72,-4,-31,74,6,79,59,-22,52,44
1490743674197,-36,41,-42,5,-128,-128,-104,-58,98,-53,-4,-58,122,58,45,53
1490743674245,-99,127,21,40,127,127,52,39,-51,-120,-24,56,-120,-115,86,12
1490743674294,-32,-69,28,-73,-106,-128,-33,2,-53,-80,0,-31,127,-32,-59,-37
1490743674343,-54,-128,-29,-73,-38,-61,-103,-12,115,31,20,-22,55,85,121,49
1490743674391,-14,11,35,58,85,108,123,10,26,-67,2,-68,-9,-101,-98,-48
1490743674392,99,126,-25,-32,45,112,95,95,-66,-98,17,16,-128,-93,-33,-36
1490743674441,57,86,38,27,-128,-23,-128,-40,-49,-38,-19,-61,80,-103,-54,-16
1490743674490,26,-128,37,121,127,-19,-4,-38,22,-92,-25,-37,-128,127,44,46
1490743674538,69,51,-34,-53,-52,-108,-26,-90,104,38,49,9,-111,114,127,127
1490743674587,-105,7,-9,81,109,-43,-19,-17,-27,-5,13,-42,-109,65,0,-48
1490743674635,120,1,42,26,34,44,127,98,-15,2,-1,27,30,5,-66,12
1490743674637,-128,-16,-30,-71,-128,-74,-59,-44,127,-8,60,35,96,94,12,-8
1490743674685,11,-2,-15,16,78,-21,-63,89,50,1,85,112,-52,-48,3,-55
1490743674733,98,2,29,51,121,-72,-6,-10,-105,-10,-12,78,-25,73,71,20
1490743674782,-17,-2,-5,52,90,32,70,31,61,3,-25,-45,-24,-122,-90,-70
1490743674830,29,-1,12,-31,-77,127,127,108,-1,-4,-25,-63,109,72,75,113
1490743674832,-99,-9,-8,24,-48,69,-49,-74,-16,-4,-12,-29,-3,-87,-71,-58
1490743674880,-33,-1,-24,-23,58,35,-16,-40,17,-1,47,36,5,120,89,91
1490743674929,10,4,43,38,39,63,76,-22,10,-6,-39,-63,-82,-106,-22,8
1490743674978,6,8,64,79,-14,60,25,16,34,-1,-3,-43,-42,-89,13,10
1490743675074,-9,2,-9,49,60,-128,-124,-1,20,-8,7,63,-68,27,-12,5
1490743675078,-19,5,-27,-128,-108,-128,-103,-56,-48,3,-75,-43,-54,50,9,23
1490743675081,-6,0,7,123,-20,84,57,25,22,-1,-22,51,-35,-50,-22,-8
1490743675123,-93,8,-58,-9,-24,-48,-37,-37,33,-4,-49,-17,127,57,28,16
1490743675172,-32,19,34,48,116,78,23,13,-23,-11,-52,-95,-127,-4,21,-12
1490743675220,23,-1,9,-113,-30,-51,-18,8,6,1,45,123,65,71,29,11
1490743675269,48,29,-5,-83,32,20,-7,-5,-17,59,-5,39,-31,-45,-7,8
1490743675270,-12,42,33,-65,-66,6,-17,-19,-55,2,-60,-18,-36,74,25,15
1490743675319,79,-22,41,39,20,10,-6,8,-88,-20,24,71,64,68,-16,2
1490743675367,51,-7,-125,-23,91,-85,-62,-10,73,-2,-45,25,106,-19,-47,7
1490743675416,-43,-15,82,36,72,18,85,7,-91,-11,93,-66,-112,-99,28,-17
1490743675465,-23,-25,23,78,18,-97,33,13,1,18,5,14,-42,-128,10,-13
1490743675515,14,29,-8,27,-50,-14,-63,-39,-12,2,91,-20,24,41,-57,-21
1490743675517,-45,-9,13,59,-66,-80,-13,-19,34,-11,-14,-81,-78,-51,-8,0
1490743675562,24,10,-67,0,81,31,10,17,11,-12,-36,9,58,21,13,23
1490743675611,59,-128,-84,44,37,79,33,24,90,-101,-75,-46,-67,24,-11,-31
1490743675660,-101,94,-24,-110,-4,37,27,2,-104,61,115,88,15,-8,0,-47
1490743675708,65,121,33,-82,2,1,16,2,-87,100,5,-53,-6,-10,-1,9
1490743675709,-21,-49,-62,-23,-6,-1,-18,-2,4,-2,-15,39,28,12,-57,-1
1490743675757,-60,1,15,15,27,-3,22,3,8,99,-1,-13,0,16,6,-5
1490743675806,-125,-8,13,-17,-11,7,-11,1,24,-29,-1,22,15,14,-10,-1
1490743675855,-54,7,14,9,7,17,-20,-4,-46,-22,27,13,-4,14,22,55
1490743675903,6,10,-49,38,27,0,18,-7,-24,26,-58,-7,35,-6,-4,-33
1490743675951,-58,-14,-25,4,-3,-9,13,-45,-89,-25,72,-16,-10,-28,-27,-16
1490743675953,7,127,-21,-5,-88,-23,-24,-11,47,110,25,-17,-8,98,8,24
1490743676001,4,25,13,-9,-99,67,71,37,-10,32,-33,-87,85,-128,-41,-77
1490743676050,7,116,-30,-16,-24,-69,-24,-15,11,126,-5,-90,-65,-31,-1,-34
1490743676098,89,-121,19,-25,-59,7,-58,25,26,-110,-34,20,127,80,122,24
1490743676147,73,4,4,-25,43,81,48,35,-33,4,-12,121,69,-50,-128,-53
1490743676195,-75,18,-4,13,-128,-78,12,-10,112,9,-14,-53,91,-2,-5,-14
1490743676197,45,16,-32,-85,89,-112,-128,-26,70,9,11,15,37,56,84,38
1490743676245,83,-14,-23,-69,-92,-44,-110,-10,15,-34,-10,11,-22,63,116,82
1490743676294,44,-56,-37,7,122,56,47,7,-126,-7,-35,-24,54,-60,-25,-43
1490743676342,-11,-60,-43,4,6,35,31,35,-50,-34,-8,-11,-113,-58,-60,-44
1490743676391,-28,16,3,71,54,-49,-124,-57,-33,-98,-19,-60,-85,68,112,28
1490743676393,-74,-14,122,90,25,-42,-15,-8,19,60,37,-66,1,54,8,-9
1490743676441,88,-43,-81,10,99,-59,-23,26,-128,-128,-64,77,-27,19,-60,-75
1490743676488,4,-93,31,9,87,54,-13,25,30,-94,48,-67,-80,-71,3,5
1490743676537,56,70,53,64,92,25,39,6,61,82,-32,127,55,127,40,-11
1490743676586,-3,38,-2,13,-106,58,-5,-14,9,3,0,117,120,16,21,47
1490743676634,-62,0,16,-85,24,32,12,-29,-41,-7,29,71,88,-118,-105,-76
1490743676635,-24,1,-59,-20,-97,-20,63,10,61,-6,-36,-72,75,-81,-37,-21
1490743676684,-128,-2,-11,43,-125,-114,-80,-52,105,-3,14,-102,-107,93,20,40
1490743676732,-17,8,39,-29,15,35,34,16,44,18,-5,-70,-42,-85,-34,27
1490743676784,29,-37,17,13,-47,-16,-5,9,-26,5,4,52,-16,-6,-26,-4
1490743676830,85,-50,14,-5,16,20,40,4,38,-9,1,92,38,9,36,48
1490743676878,-46,-42,-21,33,10,60,72,19,-40,2,-11,34,22,33,53,7
1490743676881,-56,70,0,-107,31,1,-24,19,-51,44,7,-65,-8,-19,21,5
1490743676927,-85,-52,-18,-27,2,-115,-7,-39,58,-89,0,-5,-27,-110,-71,16
1490743676976,-29,-55,-23,30,92,25,13,-3,41,-58,30,-53,-29,2,10,5
1490743677024,-16,86,53,79,125,0,-53,27,3,-91,-3,24,-121,47,42,16
1490743677073,-34,36,15,-8,102,127,39,-16,-128,-23,-51,19,-85,-128,-34,-92
1490743677075,-69,0,-19,9,66,96,91,47,-55,121,-67,-123,-63,-76,19,-23
1490743677122,-102,9,-60,44,12,-37,-100,-39,3,40,53,39,87,-86,-77,-27
1490743677171,-55,-34,-60,-93,-128,-34,-9,-35,109,-128,-12,-48,52,70,-92,54
1490743677220,-90,119,37,127,74,125,107,77,-51,10,34,66,-128,-64,-13,24
1490743677269,-64,-4,-6,-128,123,114,127,7,-28,100,-22,83,1,-38,-128,-77
1490743677316,127,57,55,75,89,-103,-95,-28,30,-128,-34,-128,-107,56,115,-1
1490743677318,78,-8,7,-1,-107,14,117,120,-28,-14,-13,2,93,33,-128,-85
1490743677366,-96,98,-27,-84,32,21,18,56,88,-67,73,-27,-36,-73,-52,-69
1490743677415,-31,55,-61,-51,-72,77,81,23,-55,11,26,-49,-26,-12,-72,-68
1490743677463,112,-72,56,62,-32,35,-128,-105,-46,-20,-31,45,95,-32,71,-17
1490743677514,-99,-35,-1,-128,-120,-17,70,43,-118,13,45,-30,127,61,-128,-84
1490743677561,-12,-53,-43,-99,-100,20,-97,27,62,-67,-1,44,84,-72,-26,6
1490743677571,22,109,-13,8,98,115,101,40,89,-29,77,25,9,-128,-121,-66
1490743677611,58,-38,-24,20,-22,-4,127,76,-128,3,-19,-89,16,88,-82,-60
1490743677658,63,15,110,127,13,-12,-128,-47,19,-39,-40,-119,-89,-16,-25,-49
1490743677707,46,-2,-12,1,95,122,113,41,-48,-18,1,127,-128,-25,-62,-57
1490743677755,48,20,19,4,-98,124,79,12,8,3,-57,9,-45,30,43,67
1490743677757,-65,5,-46,-70,0,-84,-57,-55,-31,-9,7,76,-44,-94,-98,-73
1490743677805,-30,5,4,-22,127,115,127,94,-76,1,-59,-58,-87,-62,89,-9
1490743677853,23,5,-29,-53,-27,112,70,97,11,-22,0,1,31,5,-19,31
1490743677902,56,-2,32,-39,-6,51,-20,61,-72,-4,-21,44,-27,-69,-81,-76
1490743677951,5,-7,-16,-45,113,47,64,56,2,3,36,91,101,125,74,58
1490743677999,-29,14,-3,9,101,78,63,64,-5,1,-4,30,-103,-62,-51,-62
1490743678001,11,0,-19,-83,-8,16,8,-53,-16,1,-44,-119,120,82,-20,-5
1490743678048,-13,0,14,-41,-54,-128,-88,-50,-51,2,25,111,61,63,15,16
1490743678145,-9,-3,-9,-44,-25,58,21,17,5,2,28,117,99,117,31,91
1490743678147,-57,1,12,105,113,-78,-53,-2,30,1,27,69,0,89,102,34
1490743678194,44,-3,-6,77,-29,-56,22,-2,-65,4,16,10,-114,-3,54,-13
1490743678197,-87,7,5,106,31,100,5,11,-111,-1,4,-48,-87,-56,4,6
1490743678293,102,0,73,76,33,62,59,17,15,-1,25,127,42,-37,-3,-18
1490743678296,-87,-2,36,18,46,66,31,-20,13,8,47,112,-52,39,16,4
1490743678342,-17,3,-56,-112,-128,-124,-73,-34,33,4,-69,-128,8,-37,-43,-2
1490743678389,-54,0,-30,-51,-93,-59,-17,-22,63,-7,4,-101,-25,-87,-18,-7
1490743678437,46,13,-6,-60,-27,-102,-46,-15,-6,0,-26,41,-24,2,-2,5
1490743678438,24,0,72,102,49,9,-24,9,3,1,6,-57,-53,-24,-5,6
1490743678487,69,7,52,1,-40,41,17,19,-25,-9,-6,65,40,25,-18,-17
1490743678535,20,-3,-21,87,49,21,6,8,28,-4,-54,-23,-13,-5,2,-18
1490743678584,-22,-9,79,39,33,-46,19,9,-2,-4,-25,29,-1,-61,-8,0
1490743678633,106,13,16,-102,-37,18,-12,0,-118,20,13,-24,18,-22,-9,8
1490743678681,8,-18,41,118,69,7,36,3,32,-22,-72,-102,-9,-12,18,1
1490743678684,-92,3,-40,-17,25,33,-14,5,42,10,38,-34,-23,11,-21,-1
1490743678730,47,-1,-9,33,15,-27,11,3,-57,6,-45,-56,-27,-23,-15,-2
1490743678779,-10,-1,-90,10,23,9,-7,0,-95,2,40,22,0,24,8,7
1490743678828,111,-1,-8,-30,-8,9,-19,3,20,6,8,58,-9,6,-6,-10
1490743678876,110,78,-86,-51,37,27,31,22,76,28,27,57,7,-29,25,0
1490743678877,-31,-24,-8,17,39,3,2,0,10,-17,12,23,17,14,-5,9
1490743678925,3,-6,-30,-27,12,-13,-10,18,9,-1,-33,-10,-30,3,-1,5
1490743678975,30,-24,-50,-17,-35,-39,0,-11,-94,-11,53,-15,27,-6,12,-21
1490743679023,-60,-65,55,42,-47,18,24,21,62,43,-47,-38,126,27,44,20
1490743679072,-6,68,1,-128,-107,-22,8,-1,-57,58,-41,-43,-7,-59,-53,-13
1490743679121,-30,15,-42,-100,-19,-22,27,1,38,113,33,18,-31,-25,-16,-13
1490743679123,-15,-68,-6,51,127,-62,-86,-14,-36,-69,5,90,-104,42,50,-7
1490743679169,3,-6,-19,-3,57,3,11,-13,-61,-10,20,-58,-128,-79,-38,-46
1490743679218,30,-2,6,31,-79,118,39,6,-56,4,-16,-10,57,-33,-30,-9
1490743679267,-84,-8,5,35,30,-111,-45,-25,107,-4,32,65,42,-7,-16,6
1490743679315,127,15,33,45,52,-31,-12,-31,-128,-3,-16,-16,-17,-1,13,-4
1490743679364,55,7,36,52,-87,-40,78,22,-16,0,10,19,62,81,33,-6
1490743679413,-8,-12,16,-86,-128,-47,127,85,23,-3,11,-40,10,21,-104,-42
1490743679461,14,21,-49,-87,-128,55,-29,21,-36,-44,-41,-48,77,-101,2,-3
1490743679464,114,59,40,-9,-128,-29,-75,-23,39,111,-1,39,75,56,19,-14
1490743679511,-122,-107,-37,-82,-60,29,-47,-19,8,-14,19,25,28,-88,-2,39
1490743679558,-23,-42,-55,71,38,31,55,45,-85,86,-10,-101,-128,6,6,-36
1490743679560,68,-6,100,33,4,72,60,24,9,-118,-3,43,-128,-128,-128,-40
1490743679608,-91,28,-33,-60,-71,-66,-74,-38,57,50,-12,-23,55,41,19,38
1490743679657,-68,94,44,109,-90,-64,29,-12,27,-11,-9,-74,108,3,59,1
1490743679705,-90,22,54,73,53,-3,-100,-24,-38,6,-48,-41,-109,33,56,-6
1490743679754,26,17,-64,-47,-20,-15,-42,-11,-44,-3,-4,19,-9,72,44,19
1490743679803,-58,-9,-28,-14,60,-20,-28,-29,11,67,-18,-86,-128,-42,-45,8
1490743679805,-58,-56,40,8,-3,-32,5,19,25,-110,-8,-25,25,58,57,-33
1490743679852,-4,45,-24,-59,26,-16,2,12,-26,44,-1,-13,34,-57,-45,-37
1490743679900,127,-11,-12,1,-37,37,31,31,86,-8,17,49,2,20,102,45
1490743679949,82,-41,15,7,2,-6,47,45,-49,20,9,10,11,38,-59,-45
1490743679998,92,7,-11,-4,53,-24,-63,-15,4,-12,4,-25,14,0,-66,-38
1490743680046,-60,-68,2,-30,-17,24,66,0,80,-5,0,22,-14,-13,-34,-13
1490743680049,102,29,-18,-35,-23,-29,55,36,-72,13,8,2,11,-39,-78,-25
1490743680095,72,2,5,-1,-2,42,37,8,16,-9,-13,-62,-12,-4,-30,-6
1490743680144,-82,-39,29,51,19,52,70,33,-44,-13,-10,-60,41,64,84,15
1490743680193,91,-12,-11,-14,-27,-8,-12,14,66,-100,-24,-12,39,81,121,54
1490743680241,-113,19,-7,-19,-60,-25,-50,-34,-25,-32,-24,-41,-19,10,30,-2
1490743680243,-51,-46,16,43,33,58,69,26,67,-6,6,18,32,-58,-112,1
1490743680291,-34,-9,13,45,91,29,71,37,-7,48,-11,45,-5,-35,0,22
1490743680340,-29,-16,10,3,127,101,-52,-44,-37,11,-21,-4,-91,-77,-29,4
1490743680388,80,-42,-6,-49,-1,44,61,3,8,3,8,-101,65,-22,13,11
1490743680437,17,-61,6,29,117,68,42,84,23,-111,-12,62,-118,-72,1,-3
1490743680485,-86,19,13,13,34,75,-41,-21,24,65,33,127,127,-87,-7,-59
1490743680487,92,-5,-34,-26,-128,66,4,17,-128,-63,-4,-128,-42,-78,-116,-48
1490743680536,84,56,-40,47,84,-46,70,4,-64,-128,-34,-73,-90,-6,34,-14
1490743680583,-81,-61,-2,-90,-58,-43,-91,-56,-128,-78,-5,-34,97,72,-55,-32
1490743680632,-58,-7,14,62,127,-14,-102,41,117,16,46,25,-52,-8,-53,-73
1490743680680,-61,94,20,32,-65,95,123,30,-27,-43,-8,40,86,-107,-25,-45
1490743680729,-97,-18,-57,-67,-23,-107,-105,-128,-18,49,19,-43,67,70,75,61
1490743680729,-53,-109,-46,-96,-86,-57,61,-7,-1,-28,-2,-36,16,-45,-14,-26
1490743680778,15,-125,55,125,-4,51,25,2,-114,127,16,11,-103,96,-22,-71
1490743680827,91,25,-59,-50,-52,88,66,57,-115,13,18,99,34,53,-42,-52
1490743680875,83,-85,52,-30,-80,-27,1,18,127,-7,-11,39,110,110,90,45
1490743680923,24,127,33,127,50,50,74,66,-79,-10,21,41,48,113,98,-3
1490743680926,45,66,82,97,85,-17,58,-7,29,20,31,54,45,51,-97,27
1490743680973,108,-128,38,-17,-25,89,111,53,-42,-128,-20,49,-8,-59,-11,-45
1490743681022,-2,-1,-14,2,90,63,12,-48,-93,1,-55,-18,-128,-44,-29,-34
1490743681070,-10,1,6,18,-53,38,86,61,13,-3,23,-40,26,-64,24,-15
1490743681119,19,1,-47,-121,-128,8,-98,-33,-67,-5,24,22,27,-44,-75,-25
1490743681167,-50,-9,-29,-42,-14,9,3,-54,73,-2,10,68,86,91,9,55
1490743681168,51,-10,31,73,127,104,-37,-36,-34,-11,27,-85,-109,-25,-24,-15
1490743681216,67,0,2,14,44,-128,-85,-36,-75,8,-10,75,-10,28,23,10
1490743681265,22,-10,48,127,99,110,71,65,59,1,24,70,-128,37,40,32
1490743681314,-60,-6,-24,-12,80,98,31,-95,19,-2,29,-47,-36,-34,-73,-41
1490743681362,-19,-4,43,37,62,50,83,40,-34,6,-5,-9,-19,26,14,7
1490743681363,-50,2,-75,-95,-110,-80,-112,-42,5,4,-90,-89,127,-5,54,35
1490743681411,22,-3,48,45,-95,50,21,-17,-11,2,21,-107,-128,-24,-15,-12
1490743681460,9,-1,-69,-20,-92,1,-9,-15,-29,5,-47,21,-126,-123,-31,-16
1490743681510,-6,3,64,15,-36,58,64,14,9,-8,59,16,95,34,5,-2
1490743681558,62,9,76,81,101,81,31,1,-5,-4,-19,39,76,-1,53,24
1490743681606,-8,-4,-2,-25,4,-34,5,16,-114,-5,-48,-128,-128,-63,-93,-57
1490743681609,49,20,-9,-48,-60,-44,-47,-6,25,-2,22,-54,-1,-58,-35,-31
1490743681656,31,2,-8,-29,-4,16,-25,-7,26,6,55,74,109,127,88,25
1490743681705,-90,36,-17,25,-1,26,18,12,17,28,19,-5,33,40,37,18
1490743681753,-19,-58,20,-9,-9,24,1,-2,7,-19,2,52,-29,9,-11,-9
1490743681802,-25,-16,-35,-66,-32,-6,-17,-20,-36,-9,62,-1,-23,15,-4,11
1490743681850,-11,-4,-31,0,-37,-1,1,-13,22,18,-45,-5,-10,33,20,22
1490743681851,-61,-53,-13,50,12,-31,11,11,32,-22,33,-98,-47,-77,-25,-41
1490743681900,127,47,-90,-45,91,33,39,31,-63,31,-38,-95,-96,-30,-27,-4
1490743681948,26,13,-6,18,29,-10,-15,-9,-58,7,72,90,98,32,24,30
1490743681997,31,-1,127,37,-18,2,-15,4,-69,-2,23,-106,89,47,32,-13
1490743682046,78,1,-56,-23,-4,39,16,5,-5,-3,-75,30,-85,-29,-41,-19
1490743682048,21,6,-33,-2,-6,0,5,14,6,3,-1,-2,10,11,3,10
1490743682096,-73,-2,38,-80,-60,-15,-8,-16,33,0,-97,9,11,4,-5,16
1490743682191,78,-4,69,13,-11,-20,-16,-8,122,-1,-42,-82,6,0,19,7
1490743682193,21,119,-13,1,10,-6,0,14,109,127,-4,10,-35,-13,-17,6
1490743682242,53,-12,75,4,-48,10,-9,-2,9,-23,-15,-4,-6,28,7,18
1490743682289,-128,-12,-28,63,70,-52,-10,-38,47,-24,-1,-86,-76,-47,-25,-42
1490743682291,-58,-34,-14,-33,-92,-56,-9,10,9,-47,7,-83,-31,-41,18,-5
1490743682338,-18,-5,3,12,-9,70,24,30,49,-5,-50,55,86,20,-9,-3
1490743682387,81,-93,-30,-34,-52,34,10,-2,-43,-17,-27,-38,-31,-11,-10,-8
1490743682435,-3,17,50,27,-34,29,0,2,-24,15,26,-22,-13,-42,-22,-13
1490743682484,-37,66,-22,-4,41,35,13,12,-58,75,0,12,-87,-73,-62,-27
1490743682535,-36,9,-20,13,29,-6,-21,5,7,36,-26,-59,-30,12,-18,-10
1490743682537,-90,96,7,-5,65,12,5,18,16,29,-17,-22,-33,-48,-17,8
1490743682584,127,22,73,66,46,34,42,43,74,2,0,29,14,10,-1,46
1490743682631,-15,10,-72,-31,42,40,10,18,-76,-7,103,41,-19,-28,-28,-39
1490743682679,17,3,10,54,74,33,-14,0,-2,-5,-9,8,-8,3,-40,-16
1490743682728,65,34,-28,30,47,45,51,47,-16,-7,-2,90,94,61,27,45
1490743682729,-17,-20,-29,-29,-24,-16,-29,-34,37,-124,38,64,86,61,8,6
1490743682777,-12,-107,-7,80,-37,24,61,-36,-24,-72,2,-6,-112,-65,-25,-12
1490743682874,33,-2,46,106,127,120,34,67,7,-29,-22,-10,59,88,17,-59
1490743682876,57,-102,-8,19,78,23,-5,59,-79,-120,5,-9,-51,-55,70,-51
1490743682924,-105,2,-4,-38,29,42,23,-52,88,70,-46,90,126,84,33,61
1490743682972,-128,-53,-50,-125,-128,-121,-53,-6,-33,77,32,-7,127,-15,-115,-63
1490743682974,35,-12,9,-80,-128,-22,21,34,55,-120,-37,-14,4,-72,-80,-71
1490743683021,-49,-9,-6,-102,-128,-81,-42,-24,49,-29,-7,-40,-53,-56,-43,1
1490743683069,10,103,-5,-86,101,102,63,15,-35,-89,-10,20,42,-75,-12,26
1490743683118,16,-1,-22,-19,-2,-41,-71,-49,76,69,-31,22,43,16,-97,-50
1490743683167,85,-64,-27,-27,-10,-74,-110,-75,-54,-78,-48,8,10,8,-79,-36
1490743683216,42,-11,15,61,127,-77,7,-49,94,88,-40,-118,-122,-33,-5,29
1490743683217,62,14,-42,-88,-90,-85,-16,12,-78,47,-19,-16,-23,-81,-87,-20
1490743683264,-87,-23,-27,77,127,49,-17,-1,-9,-7,-24,74,61,88,23,38
1490743683313,-128,-89,6,-39,-69,-101,-26,-73,76,5,3,-23,-1,-23,6,15
1490743683362,-26,-86,-7,-27,49,-24,-28,-55,-22,12,30,22,13,-28,-41,-91
1490743683410,-54,-5,11,31,2,3,-5,2,114,14,25,108,85,21,28,-44
1490743683459,14,26,-38,-23,9,31,43,35,78,-23,-13,-24,-32,54,18,26
1490743683507,-52,-41,-4,-61,-100,17,10,-4,-81,-44,-13,-57,-112,-49,-67,-53
1490743683509,9,-55,-12,1,63,-6,28,-27,-47,85,4,36,46,-20,-60,-19
1490743683557,39,20,-10,-39,-21,-48,-5,-29,-24,28,-25,-7,-60,-23,-52,-59
1490743683606,35,5,-4,0,-17,28,44,18,3,-43,25,44,31,-28,49,5
1490743683654,-49,-32,-11,-37,-23,-49,-56,-58,41,-12,11,17,-11,43,49,48
1490743683656,9,-25,38,55,36,55,74,44,55,40,-19,-30,52,23,90,61
1490743683703,-96,-22,-21,44,-21,4,14,16,90,-30,-17,-112,-98,-65,-75,-29
1490743683752,-92,-60,19,25,80,72,21,-13,-10,103,15,127,109,23,-92,-69
1490743683801,30,44,32,-54,47,-7,-3,45,-48,-111,31,117,111,108,106,20
1490743683849,-128,-22,-48,-105,-123,-97,-128,-128,72,-106,0,33,66,65,106,107
1490743683850,5,88,46,2,127,-82,-107,-110,-125,71,-54,-90,-102,-110,-4,-61
1490743683898,40,-30,67,111,82,77,119,111,87,-16,30,84,8,-95,-39,94
1490743683947,-41,38,-18,48,8,55,18,30,50,-108,23,55,27,-112,58,-24
1490743683996,-32,93,44,-43,38,73,-22,10,18,63,5,127,127,127,4,-10
1490743684044,127,-100,-41,-89,-115,-105,40,46,-18,-24,-100,-128,-87,75,53,-105
1490743684094,20,-20,-10,-66,-83,-42,-38,-33,-2,-108,8,-107,-76,-33,-34,20
1490743684096,27,-11,-48,-77,-14,102,-59,64,117,-71,3,89,75,18,-99,-58
1490743684142,14,-71,20,-61,-12,103,95,-52,78,101,45,127,111,88,34,43
1490743684191,75,62,-16,123,71,45,125,123,-111,7,31,60,-118,-10,-68,-63
1490743684239,68,-45,31,-22,55,14,61,65,124,14,41,116,102,41,-128,-33
1490743684288,-128,92,-110,-128,-33,-81,-78,-81,-43,-2,52,45,-110,-42,-31,56
1490743684336,71,-112,50,92,-24,-115,-33,-105,73,108,1,69,33,53,-74,-1
1490743684338,-70,-117,56,73,-31,-106,-64,-39,-71,-117,-29,-128,-92,-104,85,13
1490743684386,-30,35,-36,-8,-97,-7,-29,32,42,74,79,116,96,62,106,46
1490743684435,117,120,-21,15,-110,-63,26,6,68,99,-32,-128,-128,-117,-128,-80
1490743684485,91,-4,2,-79,54,52,52,-5,59,-32,-9,127,126,30,16,38
1490743684535,-1,17,-6,-92,-55,53,105,25,-40,-14,14,14,93,-40,2,55
1490743684537,46,-1,2,23,125,127,107,-9,31,-9,0,13,-74,37,85,102
1490743684581,96,-19,33,30,127,127,71,87,-52,-6,-47,-25,-29,-57,61,-74
1490743684630,79,-7,-38,14,-110,-82,-78,-67,-8,5,-19,-21,-28,16,-93,42
1490743684678,-124,2,-4,5,-98,-92,52,-55,103,-4,-16,-57,-38,-53,11,12
1490743684727,-22,11,-45,-14,-80,62,71,18,23,3,-51,-23,92,127,80,66
1490743684775,35,-6,10,20,60,-24,8,34,27,-10,11,14,76,79,-39,-21
1490743684776,63,3,64,91,127,-3,-8,33,43,3,50,20,-128,28,103,58
1490743684824,-114,12,-29,49,54,65,-94,-79,18,7,101,114,127,114,119,83
1490743684873,42,-4,-37,-93,37,79,65,-54,-17,-3,17,32,40,73,73,-12
1490743684922,-16,5,-31,-88,-114,-112,-104,-18,-21,3,-63,-118,46,-26,-29,6
1490743684971,-24,1,106,127,-3,26,84,-8,-67,-4,-9,-22,5,77,86,-24
1490743685019,31,-12,29,98,-31,-70,-56,-29,-44,10,-84,-128,-128,34,47,28
1490743685020,20,-1,-18,-128,98,59,46,16,44,-3,118,127,-68,7,-34,1
1490743685068,21,6,16,62,10,-71,-38,0,-31,-3,-102,-112,-77,-82,-59,-35
1490743685117,-6,-5,3,50,127,37,51,35,-39,0,-7,-57,52,-83,-77,-18
1490743685166,29,-4,59,101,64,23,9,7,-7,-2,-34,46,127,87,45,9
1490743685215,75,11,38,90,63,-3,22,21,-119,4,-85,-76,-75,-119,-114,-87
1490743685219,24,-7,-15,-21,-41,-10,-63,-2,95,-1,-32,52,97,-73,-12,10
1490743685263,-100,51,-16,110,86,68,33,16,-35,-28,-6,-25,-63,-8,-14,-2
1490743685312,-20,24,31,79,43,13,12,-2,10,54,16,121,89,53,7,4
1490743685361,11,122,15,-40,-9,37,16,-1,-81,115,16,-11,26,23,-24,-8
1490743685409,-13,-97,-2,-2,-43,9,6,-3,4,-92,0,-37,3,-48,-9,2
1490743685457,3,-22,48,-65,-64,-32,-41,-13,-60,4,-17,-67,-128,-27,-11,-15
1490743685458,2,33,63,-42,58,84,3,0,33,35,97,127,119,127,4,3
1490743685507,-6,-18,-117,-55,-48,-15,34,-4,52,-3,0,31,12,-80,66,7
1490743685559,-84,3,22,-18,-99,-64,-119,-13,-83,32,7,-2,-31,-51,-91,-9
1490743685605,-77,-4,99,63,-40,-128,0,-35,58,9,60,14,-78,-117,-7,10
1490743685653,43,-1,-109,37,-29,2,-40,-3,19,-17,112,8,8,35,-35,4
1490743685701,-18,9,-2,51,16,-3,26,22,103,7,54,-31,-82,-43,-5,15
1490743685703,6,-16,-66,-9,-15,24,10,-6,-27,12,-41,108,57,40,8,1
1490743685751,38,-1,37,30,13,40,28,-13,-45,-3,-100,-70,-17,12,28,-12
1490743685799,32,-3,-1,27,24,19,10,3,115,0,-57,8,19,18,21,10
1490743685848,44,5,7,-9,21,7,16,2,25,-4,-9,23,-13,0,8,-9
1490743685896,34,-4,8,0,-43,31,-7,-22,78,3,-11,5,10,21,-6,9
1490743685898,-95,-5,33,33,-4,-23,-2,13,-112,1,-10,-16,-11,-27,-20,-10
1490743685946,59,21,20,6,11,-9,12,40,-59,-20,1,0,-27,-21,-8,-2
1490743685997,36,-19,8,-23,-17,9,-27,2,0,3,36,-5,15,-5,11,-44
1490743686043,-82,-12,23,-7,9,-25,-18,13,98,-12,-58,-20,19,43,12,14
1490743686092,1,-1,10,-9,-4,-58,-1,-9,11,-1,59,14,-23,-9,-17,-21
1490743686140,19,-5,-16,-98,-27,17,43,-10,3,7,-36,44,33,-38,-60,-42
1490743686142,6,75,-94,-128,-111,-8,-43,-47,-51,80,14,42,102,49,34,64
1490743686190,16,82,18,63,-89,0,18,-3,8,96,-29,-91,-93,-43,-19,-17
1490743686238,57,33,3,30,67,-46,-7,19,42,99,-5,-25,-57,-70,-32,91
1490743686287,-29,-107,11,-23,-38,-86,-74,-44,25,-128,-14,-25,-7,-44,42,-27
1490743686336,5,11,13,76,73,107,24,33,-29,-22,0,89,107,-25,-23,-32
1490743686384,27,2,43,92,62,64,66,20,-109,36,19,-17,-112,-103,-105,-37
1490743686385,-128,28,-22,3,-74,127,71,29,127,6,2,38,103,-93,-18,-18
1490743686433,-78,20,5,-6,-91,-58,-82,-85,43,13,-51,-128,-128,7,21,2
1490743686482,-28,-7,-10,13,-2,-58,17,13,-54,-4,8,-25,-67,59,11,-6
1490743686531,3,7,20,90,125,58,38,-2,88,12,4,-38,-92,-69,66,50
1490743686579,-76,10,7,-9,-19,-126,-71,4,-128,4,6,44,104,87,-80,-84
1490743686581,2,12,-9,-77,-96,96,-22,-21,-72,-18,-8,-76,-97,-128,-77,-29
1490743686628,42,-81,29,42,113,85,2,-6,-2,-113,-7,10,12,-24,-9,51
1490743686677,106,-39,-44,-121,39,-128,-17,-30,28,-2,-32,12,35,127,22,11
1490743686726,-15,-53,-1,-5,2,-8,-90,-37,100,-86,-11,7,70,84,51,31
1490743686775,77,62,31,64,52,127,88,35,-128,-18,45,19,40,-16,55,-12
1490743686822,-63,-69,12,45,70,-128,-116,-49,-37,16,48,64,46,76,-59,39
1490743686824,-91,-10,-13,-7,-42,32,74,-16,75,96,-5,-61,-85,-72,-108,-42
1490743686872,-33,68,41,19,-17,-4,-65,-38,-116,-80,-1,-10,-83,-128,-78,-1
1490743686921,106,85,-1,21,16,-12,-8,22,-11,111,-17,-43,-13,55,-2,-1
1490743686969,55,-47,30,28,-67,-19,22,32,33,-46,11,74,127,127,45,25
1490743687018,2,-27,-1,-69,-14,-51,-77,-30,-87,43,15,-13,11,-20,-22,-13
1490743687024,-80,14,14,34,-18,-45,-76,-18,60,-26,-17,-38,19,47,50,7
1490743687067,-11,-7,6,23,-47,15,92,1,36,-32,-52,-46,-64,44,36,34
1490743687118,116,-24,-19,-63,-47,-37,-46,1,-100,19,-5,-37,-30,-27,6,21
1490743687165,-3,-76,12,16,57,23,26,24,71,5,27,29,14,13,15,-6
1490743687213,-43,69,7,-39,-31,-51,-86,-9,39,3,-33,-56,-28,-11,51,16
1490743687262,92,42,2,43,-4,-52,-29,-26,34,-23,-4,-11,-13,40,35,-2
1490743687265,-49,73,-5,-16,-4,-99,-99,-16,-10,52,15,4,-23,8,64,6
1490743687311,89,-70,-5,21,61,8,-6,39,-28,-46,19,-6,-50,8,-46,-1
1490743687359,-117,-17,-5,-82,-110,-66,-94,-64,33,3,-24,-57,56,-75,-124,11
1490743687408,5,33,33,-11,127,127,127,99,-48,24,-43,14,-128,-96,-69,-45
1490743687456,5,127,50,-10,-23,127,115,105,-29,-44,-50,-20,1,-66,71,-39
1490743687505,3,-128,-35,29,50,-42,39,33,31,21,22,1,-34,127,127,39
1490743687507,87,69,-26,-128,59,-70,31,29,-54,-78,52,73,-30,72,-63,20
1490743687554,100,127,22,117,117,-41,-74,26,-53,2,40,1,12,42,-22,37
1490743687603,81,40,10,52,45,77,16,38,-12,8,-18,70,72,77,-97,86
1490743687652,-128,-37,-10,-46,77,35,56,-128,111,-128,-9,-112,-119,-76,-101,-46
1490743687700,127,-18,37,-32,34,81,127,127,-107,20,-38,-97,-42,-128,-88,-84
1490743687701,-1,-94,-31,-128,-111,-1,-47,-38,65,60,54,27,127,38,104,73
1490743687749,87,-1,2,119,62,56,29,61,127,-7,-25,58,-2,-4,-26,58
1490743687798,-46,-90,-108,-126,-128,-128,-101,-81,13,112,43,23,69,112,60,13
1490743687847,-57,13,-11,52,-31,9,-12,-30,44,10,9,93,-4,-44,105,88
1490743687895,-58,73,-40,-118,-35,-120,48,-23,-73,-40,-47,-51,26,80,-73,-29
1490743687944,-15,67,52,33,69,46,-5,36,110,-63,45,115,30,-6,-17,14
1490743687946,-118,109,-49,24,127,-34,-51,-59,108,41,-10,-46,-46,-75,114,111
1490743687993,-35,-59,62,-38,-50,91,-9,-23,-11,127,-2,-16,-128,-41,127,59
1490743688042,23,-65,-77,-128,-8,-7,-33,15,-128,24,22,116,-24,97,-6,-95
1490743688090,-87,-11,14,21,64,124,6,-53,80,-37,-50,-53,50,87,46,56
1490743688139,98,7,-15,32,73,-80,-97,-99,29,-10,-45,10,73,125,80,42
1490743688187,-85,-26,-57,-50,-128,-48,-20,-21,-5,-2,15,-117,-128,-43,22,2
1490743688188,-35,-17,34,41,-63,127,38,64,-54,10,-42,-93,-128,24,26,-23
1490743688236,68,20,-24,-19,68,37,-109,8,-6,-14,48,127,127,127,69,34
1490743688285,-6,-10,10,-31,15,-64,29,26,13,5,21,107,48,64,-50,12
1490743688335,44,9,-36,-43,-17,32,78,81,-15,11,32,-4,100,-79,-95,-59
1490743688383,51,-6,49,-79,-95,127,-33,-51,-58,-13,-65,-71,76,-128,-84,-38
1490743688387,-59,6,28,93,67,-105,-98,-104,122,2,-28,4,73,127,68,91
1490743688432,-29,1,-25,15,127,-59,2,22,-11,2,21,16,-21,79,-4,45
1490743688481,66,-3,-40,-80,-75,59,77,39,-65,9,-10,-61,-128,-115,-59,-27
1490743688529,-107,-5,-93,-73,-109,-71,48,-67,24,-2,-4,6,112,127,67,30
1490743688578,94,-4,51,41,80,57,92,20,-101,4,-9,-51,-128,-84,26,0
1490743688626,-81,2,-7,65,69,-16,-70,0,103,7,13,17,-42,127,28,48
1490743688627,-23,0,-39,-35,12,108,127,35,69,-7,12,-94,-48,-78,-17,-82
1490743688675,0,-3,-23,-40,-17,-68,-79,-18,-42,1,1,-74,-88,16,22,31
1490743688724,-11,-2,17,41,-5,92,41,33,-18,-1,-29,24,127,-69,-65,-32
1490743688773,-21,-2,-3,92,121,39,-15,-7,49,-3,85,96,127,127,127,76
1490743688822,13,3,94,102,-76,33,18,-13,24,1,-14,-43,19,23,37,39
1490743688919,-54,1,22,103,75,66,-16,-31,-5,2,-67,-128,-98,-37,-50,-19
1490743688922,72,-2,60,115,76,-29,8,3,47,-5,-11,-21,89,29,50,15
1490743688923,-21,7,-40,-92,-16,-70,-59,-6,-12,-8,-71,-128,-90,32,15,-8
1490743688969,-3,-8,71,75,28,-128,-86,-23,-17,4,19,127,67,122,94,28
1490743689016,-21,-2,-97,-128,-128,-109,-36,-43,12,-2,-39,-76,-10,-66,-22,11
1490743689065,41,7,0,64,-128,80,58,15,-38,-8,-100,-64,-69,-108,-117,-38
1490743689066,-23,1,-59,-55,-118,-128,-59,-21,-27,2,37,-24,102,-6,10,10
1490743689114,-33,0,20,-51,42,43,11,-10,35,25,-19,14,7,28,18,2
1490743689163,-58,-70,-13,50,74,96,10,0,91,-41,60,36,-25,-90,-25,-10
1490743689211,-58,23,-3,-98,-43,-69,-28,-16,12,-68,-92,-62,11,26,11,16
1490743689260,-70,-31,37,-69,3,12,-20,-19,9,7,-102,-21,43,53,33,21
1490743689308,-101,-17,-43,77,60,-44,26,30,-28,1,-28,-28,1,-90,-21,-9
1490743689309,67,-13,-36,-54,-71,-34,6,1,7,7,43,71,6,13,12,-4
1490743689358,56,-1,-1,-42,38,-16,9,-7,-68,-3,45,114,25,-15,21,-9
1490743689406,79,-1,101,-12,-48,0,19,4,-88,0,-40,-13,17,14,-1,-9
1490743689455,-20,2,-46,-55,17,3,-17,-15,11,5,31,-99,-23,2,5,1
1490743689503,-52,0,-41,34,-28,-20,-31,-16,24,-3,58,-10,-24,21,33,17
1490743689504,-85,-2,43,42,6,6,-13,-4,81,0,16,-21,-16,1,3,14
1490743689553,4,3,51,30,17,-3,10,-5,-22,-6,36,99,38,26,17,9
1490743689602,65,-2,45,53,-69,-4,-27,-29,31,0,-28,-18,21,43,8,15
1490743689652,62,18,-14,-4,13,3,22,12,-41,39,-10,-1,9,9,-9,-18
1490743689700,-58,-2,24,-29,12,4,2,18,-106,-2,22,-11,-17,-24,-3,-10
1490743689748,42,-5,-36,-26,-19,-45,-31,8,-23,-9,-11,-17,-24,-6,45,19
1490743689796,-78,6,52,36,-5,35,-34,-9,-2,1,-17,21,101,15,53,25
1490743689798,-22,-14,-11,-15,-11,-11,19,34,-55,-2,86,54,24,33,-1,-27
1490743689846,28,8,11,29,105,12,13,-15,-33,-11,58,22,-70,-35,-49,-23
1490743689894,-33,-8,-42,-92,-77,-83,-77,-34,19,-128,-4,95,73,92,42,20
1490743689944,8,61,-29,-49,5,-78,-93,5,-13,80,21,14,-72,18,39,14
1490743689991,8,4,73,72,1,87,85,45,13,-3,-26,-40,-128,49,10,32
1490743689992,73,-4,-9,-1,15,43,13,-2,25,1,-1,-43,-92,2,-15,-33
1490743690040,5,0,-16,-36,-15,-39,-8,5,42,-2,-14,-32,6,66,61,34
1490743690089,45,-50,6,38,-20,-84,-78,-66,-87,-120,7,72,127,101,36,3
1490743690138,105,-33,28,57,-22,45,-26,52,-112,-18,-29,-112,-128,-87,-1,-40
1490743690186,-1,20,-76,-128,-60,-19,21,-5,90,15,-7,75,62,29,-26,22
1490743690187,22,2,15,-36,-15,84,103,-11,83,-5,20,56,41,-46,6,59
1490743690236,-103,12,43,98,56,127,45,8,42,2,34,67,40,-100,-16,20
1490743690284,-28,10,47,127,-60,127,53,7,-8,-17,8,-30,-39,-38,47,23
1490743690333,69,3,-15,-14,58,31,-23,-12,-99,5,7,52,45,105,79,2
1490743690381,-128,-9,21,-21,-59,-109,3,-47,-105,-9,-56,-63,-23,36,86,69
1490743690429,-61,127,-29,-20,-123,38,66,-12,-76,109,-36,-78,-10,69,-5,-43
1490743690431,-54,51,-10,-75,-95,-68,-56,-37,-73,10,53,-46,-86,-18,-38,-57
1490743690479,-13,-128,9,-1,-56,-52,-128,-56,111,-74,21,-67,-64,21,75,30
1490743690528,-40,104,-16,73,79,74,-43,-31,127,127,36,125,127,127,36,30
1490743690577,-84,-19,5,-41,127,-53,15,40,-106,-75,0,54,111,-23,67,1
1490743690625,-36,-15,-30,-120,-48,-55,-83,-32,53,-12,46,62,90,14,-103,3
1490743690674,-68,11,-5,-13,-11,-38,-13,-11,-32,-51,2,37,65,-22,10,-16
1490743690681,107,14,23,52,68,101,6,10,-3,120,-35,13,41,14,-45,9
1490743690723,-45,-72,6,51,-11,-104,-71,-34,-47,19,-4,-29,-77,-20,-35,14
1490743690771,79,60,9,16,53,68,24,57,-126,-22,-4,-2,16,-3,14,-26
1490743690820,-10,-79,-21,33,16,43,34,1,19,16,27,75,14,36,30,19
1490743690868,-30,-2,-9,19,3,-3,13,-1,-44,-50,-14,-39,17,38,19,7
1490743690869,-91,6,-10,-43,-42,29,21,5,13,-33,-30,-50,-23,-9,3,-19
1490743690918,59,-106,-2,26,-9,23,71,4,-65,22,2,-11,-54,-43,-34,-12
1490743690967,-70,-6,-4,13,19,13,-14,-8,99,0,-9,-9,12,-22,-67,8
1490743691016,-32,10,-37,-7,13,2,16,4,31,58,-9,-2,-27,-15,7,-5
1490743691065,13,-67,-1,16,21,7,48,-3,-109,-13,24,42,30,29,31,2
1490743691112,-13,-23,-11,-2,11,50,49,1,-85,-40,-38,-16,6,-14,-29,-59
1490743691113,27,58,-24,-4,-68,-71,-54,-10,-14,14,-6,18,34,95,48,61
1490743691161,100,3,-11,14,86,88,29,1,-52,-83,38,86,76,67,52,-42
1490743691210,27,-103,60,108,7,-80,19,20,15,127,6,9,99,71,26,11
1490743691259,-9,-72,17,87,110,102,127,85,48,-86,-38,-102,-128,-3,-28,-14
1490743691308,9,92,23,-2,95,65,26,-54,94,-55,-30,-52,-105,-86,117,-29
1490743691356,-50,39,-2,7,-14,-111,-61,42,127,52,45,74,39,127,127,51
1490743691357,5,-115,-9,-128,-15,46,66,25,-13,7,-17,64,109,-32,-92,-14
1490743691405,100,-48,1,-59,-50,-23,-102,-24,-48,-83,-43,36,-16,80,31,21
1490743691454,-113,-7,-25,99,127,-72,-13,-107,23,-3,-21,-57,-128,-111,-85,-34
1490743691505,-26,79,-54,-44,-116,49,127,82,-104,-72,29,-9,77,-76,-74,-103
1490743691551,32,-44,14,127,-69,-128,-100,-52,-96,-68,-121,-128,-49,-51,40,108
1490743691553,126,56,20,-52,-21,47,106,36,-90,118,23,-20,-58,76,24,-56
1490743691600,109,69,44,101,-78,-15,-114,54,-83,-3,28,-43,117,8,64,32
1490743691649,-128,-1,58,127,52,98,-107,38,51,-62,26,86,72,68,-78,-31
1490743691698,93,12,67,-18,125,127,73,37,-46,-104,17,37,-36,-128,-121,-65
1490743691746,-85,15,-74,37,-90,-101,-57,-53,-34,105,-72,-109,-32,-9,55,1
1490743691795,83,49,49,93,127,49,-59,96,-65,-77,-8,53,-46,-90,87,-76
1490743691796,95,-68,64,104,-40,-62,-84,-85,-41,127,10,-10,112,127,86,57
1490743691844,-5,-36,-63,-47,-127,80,113,81,102,-67,13,-18,54,46,-71,-26
1490743691894,46,-31,14,-15,127,42,-59,-31,-73,88,59,96,-97,85,-81,-11
1490743691942,-128,2,-5,40,-73,-24,47,-97,111,-37,1,-42,22,34,52,76
1490743691991,-46,34,-32,-81,123,36,17,13,91,33,-7,-46,-101,-113,14,1
1490743692039,127,-1,16,14,-11,64,39,96,40,-18,35,92,-24,50,-1,8
1490743692040,113,15,-83,-46,66,38,-17,78,-83,-9,22,6,127,98,-13,-26
1490743692088,40,-1,48,63,10,107,94,108,-100,-17,29,18,126,80,-103,-62
1490743692137,-128,13,-54,-99,-126,-38,-28,3,127,-13,-15,-102,-56,73,10,22
1490743692185,0,10,-29,17,58,-124,41,-28,71,-2,-40,-50,-114,113,65,70
1490743692233,-36,-6,48,7,-47,-99,-83,-69,10,2,-17,-11,-121,-34,32,73
1490743692234,-62,14,-29,83,94,110,89,86,52,-20,74,-15,-93,-77,-93,-89
1490743692283,-21,-9,25,85,-7,78,26,-14,0,1,-36,-13,-9,77,-46,32
1490743692331,7,13,-5,-32,-82,-109,-14,22,-27,-10,55,68,-66,-15,-86,-69
1490743692380,43,-9,7,-100,45,14,24,23,-41,10,-76,-10,-38,-29,-76,-18
1490743692429,32,-11,29,61,95,127,42,16,-37,3,-13,112,127,111,28,4
1490743692478,-5,-6,-28,-60,-128,-37,55,-11,-20,7,-97,-125,-92,-52,-27,20
1490743692480,26,-12,-53,-39,86,78,44,43,-41,10,41,127,127,-43,-4,-10
1490743692526,-17,8,-64,12,-21,73,-2,-28,-1,-1,28,-75,-102,56,38,-11
1490743692575,2,3,48,60,54,90,21,24,3,-14,1,1,-36,30,47,11
1490743692624,37,-1,127,66,-102,21,79,56,5,-4,-42,-112,-5,-36,-7,-41
