1491087706622,0,-73,14,-36,-105,-99,-1,-111,36
1491087706622,0,-9,-96,-3,109,106,-43,-1,-112
1491087706624,1,92,-51,4,113,90,-6,37,-99
1491087706624,1,-17,-29,9,69,51,-5,2,-67
1491087706659,2,18,2,6,24,19,11,58,-21
1491087706659,2,7,30,-9,-27,-43,2,-24,20
1491087706660,3,-65,3,-6,-51,-49,-8,11,31
1491087706660,3,-55,4,1,-13,-11,10,1,7
1491087706660,0,81,8,8,-2,0,-4,6,12
1491087706660,0,-26,10,-9,-44,-28,8,17,28
1491087706661,1,72,0,0,-5,3,-4,1,16
1491087706661,1,2,10,-8,-27,-22,-10,-7,30
1491087706696,2,-21,-11,4,13,14,-2,-3,-11
1491087706696,2,37,10,3,-11,-2,6,1,14
1491087706697,3,-92,10,-7,-34,-23,-4,-20,-1
1491087706697,3,-6,-9,-1,-3,0,8,-13,0
1491087706698,0,22,-10,-4,11,12,-15,2,-10
1491087706698,0,38,-1,2,10,-6,-1,4,2
1491087706734,1,-25,0,-6,-20,-8,6,1,7
1491087706734,1,26,-14,-13,-5,-13,-27,-55,-17
1491087706736,2,17,-3,14,24,35,22,92,-1
1491087706736,2,-83,-4,-8,-12,-18,-13,-61,-10
1491087706737,3,56,3,1,-2,-5,2,-4,8
1491087706737,3,10,0,-5,-8,8,6,13,-2
1491087706737,0,28,5,10,36,4,-13,-17,-8
1491087706737,0,-18,7,3,-5,-3,4,1,11
1491087706771,1,-15,-7,-7,-13,-6,-8,-14,-9
1491087706771,1,29,-11,-14,-10,-11,-3,22,8
1491087706772,2,-16,-17,6,15,10,2,-11,-22
1491087706772,2,29,8,-4,-2,-2,-3,-14,-4
1491087706773,3,24,3,-2,-7,2,-2,-2,-3
1491087706773,3,-91,-2,5,11,1,11,40,-1
1491087706774,0,36,-10,-11,-14,-1,-7,17,10
1491087706774,0,-21,-1,3,3,-11,-4,1,-19
1491087706809,1,-9,-4,-4,0,1,-3,-19,11
1491087706809,1,13,10,3,1,0,-2,-11,-2
1491087706810,2,-34,-5,-4,4,-1,-11,-17,-10
1491087706810,2,20,-5,-2,-1,1,0,5,2
1491087706811,3,-23,4,1,4,-6,-4,7,-1
1491087706811,3,27,0,5,-9,-1,5,2,2
1491087706812,0,-92,-6,-5,2,4,-4,-7,-8
1491087706812,0,-6,-11,-2,-8,4,6,11,0
1491087706846,1,-62,-10,-7,-9,-3,2,2,-5
1491087706846,1,34,14,3,9,2,-2,-6,-1
1491087706847,2,0,3,-7,-17,-2,-3,-16,-11
1491087706847,2,17,-1,5,16,0,5,32,13
1491087706848,3,-18,0,3,15,0,-9,-29,-10
1491087706848,3,-13,-6,-5,2,-5,-4,1,2
1491087706849,0,4,-5,-3,-3,3,1,-19,1
1491087706849,0,-8,11,0,-12,-1,-2,-13,-6
1491087706884,1,106,-4,-4,6,-5,-7,28,4
1491087706884,1,-84,3,3,0,10,13,-5,2
1491087706888,2,7,0,-1,-3,3,4,30,4
1491087706888,2,-26,2,-1,-1,1,0,-10,-9
1491087706889,3,-20,-8,1,10,-3,-2,0,9
1491087706889,3,29,-9,-12,-26,-6,-5,10,-11
1491087706890,0,-7,11,11,20,2,-4,-9,5
1491087706890,0,35,1,-3,-10,-3,3,-32,3
1491087706921,1,-77,-1,-3,1,1,-4,-16,-13
1491087706921,1,11,-3,-7,-16,-4,-6,7,2
1491087706922,2,14,-5,3,27,3,6,7,-4
1491087706922,2,2,-10,-2,-5,-5,-6,13,1
1491087706923,3,25,1,-3,4,-4,-17,-37,-15
1491087706923,3,-15,10,4,1,3,8,-3,4
1491087706924,0,66,-8,-4,-8,1,5,7,-2
1491087706924,0,-102,-3,0,2,0,-2,14,-1
1491087706959,1,43,3,4,-10,2,15,-8,-1
1491087706959,1,23,-11,-4,4,-4,-12,-22,-6
1491087706960,2,-58,-6,-2,7,-5,-8,-19,-11
1491087706960,2,72,1,-4,-5,-1,8,50,9
1491087706961,3,-58,-4,1,-19,2,0,-33,-18
1491087706961,3,25,6,0,13,-3,-9,-7,-3
1491087706962,0,44,-2,-4,-7,-8,-2,-5,3
1491087706962,0,-20,2,1,12,5,-5,-20,-5
1491087706996,1,41,5,0,-4,-5,1,30,14
1491087706996,1,-2,-7,-5,4,0,5,18,-3
1491087706997,2,-21,-3,4,-2,2,0,2,1
1491087706997,2,28,1,-2,2,-6,-11,-15,5
1491087706998,3,1,0,-2,1,1,4,-4,-12
1491087706998,3,-27,-6,3,-6,-5,-2,17,9
1491087707034,0,-37,-15,-10,-14,-5,-8,-10,-19
1491087707034,0,7,-7,-5,-3,1,10,25,14
1491087707035,1,22,6,9,25,0,-13,-25,-4
1491087707035,1,42,4,-1,9,-2,-12,-36,-4
1491087707035,2,-125,-6,-3,-9,-5,2,32,-6
1491087707035,2,48,2,0,-24,-5,0,-7,-12
1491087707036,3,-7,-10,-11,-3,2,8,24,8
1491087707036,3,9,-7,4,15,2,-6,-8,-10
1491087707071,0,-9,-7,-4,4,1,-5,-32,9
1491087707071,0,-27,6,3,1,1,3,3,1
1491087707072,1,30,11,5,13,3,10,21,17
1491087707072,1,11,5,2,-2,-5,-9,-12,-10
1491087707073,2,26,0,-6,-1,2,4,-6,9
1491087707073,2,-26,-9,-6,-4,-6,-16,-18,-24
1491087707074,3,-31,-4,-2,-2,-7,-9,-28,-14
1491087707074,3,-27,-2,-4,-19,2,14,27,17
1491087707109,0,63,10,0,7,6,5,9,7
1491087707109,0,-37,-1,0,5,-6,-9,-27,-13
1491087707110,1,17,-1,1,5,-3,-11,-2,-3
1491087707110,1,-4,-5,3,8,4,12,20,3
1491087707110,2,-1,4,-6,-8,-5,-7,-3,-6
1491087707110,2,-7,-11,-9,2,-2,-11,-25,-9
1491087707111,3,-89,-9,-5,-7,-4,-6,12,4
1491087707111,3,73,7,-1,6,1,8,-8,3
1491087707146,0,-55,5,15,6,0,-4,0,1
1491087707146,0,20,1,0,-13,8,30,74,28
1491087707147,1,-9,-4,-5,-4,2,0,-7,-4
1491087707147,1,-2,-6,-6,-1,-7,-19,-29,-7
1491087707148,2,0,2,-2,3,-5,-14,-13,-4
1491087707148,2,-8,-1,-3,2,-3,-9,-23,-3
1491087707184,3,5,-8,-3,-10,1,10,19,3
1491087707184,3,5,-3,-3,-9,-4,-8,-14,-11
1491087707185,0,1,-1,2,3,-1,-5,-24,-13
1491087707185,0,-3,10,0,-12,3,5,28,19
1491087707185,1,57,5,-7,-13,-7,-5,-4,0
1491087707185,1,-8,-4,1,-7,-7,-3,-14,-10
1491087707186,2,-40,-7,4,17,6,2,8,4
1491087707186,2,24,-3,-3,-10,-3,1,9,-6
1491087707221,3,-30,0,2,-11,1,12,21,9
1491087707221,3,-52,0,1,-1,4,1,-5,-8
1491087707222,0,81,5,0,-12,-1,1,5,1
1491087707222,0,-18,-3,0,4,-2,1,-9,-8
1491087707223,1,1,1,-3,-3,-7,-13,-16,-7
1491087707223,1,-2,3,-2,9,-8,-14,-20,1
1491087707224,2,2,1,-5,-6,0,2,-9,-17
1491087707224,2,-6,-1,4,0,13,13,23,8
1491087707259,3,3,-9,-2,1,-4,-7,-23,-15
1491087707259,3,5,-4,-6,-3,-3,-8,12,2
1491087707260,0,-55,-8,-5,-5,-1,9,14,3
1491087707260,0,98,3,3,0,0,2,-18,0
1491087707260,1,7,-6,-5,1,-2,-8,-16,-9
1491087707260,1,17,2,-4,-8,-3,3,37,10
1491087707261,2,-8,-4,-2,-2,-4,-2,-12,1
1491087707261,2,-43,-18,-3,4,-7,-9,-24,-21
1491087707296,3,2,12,10,24,5,-5,0,11
1491087707296,3,60,10,-1,-15,4,22,37,6
1491087707297,0,-43,-6,-6,-11,-8,-12,0,-5
1491087707297,0,8,0,-4,-3,0,9,10,4
1491087707298,1,-12,-2,-7,-3,3,-9,-24,-13
1491087707298,1,12,1,5,10,0,0,5,11
1491087707334,2,-27,-4,-4,-7,-2,1,-3,-9
1491087707334,2,-69,-4,4,3,-8,-18,-24,-8
1491087707335,3,53,5,-1,1,2,11,26,18
1491087707335,3,-53,-8,-7,1,-1,-7,-14,-9
1491087707335,0,24,-1,-2,-6,-5,0,19,-4
1491087707335,0,-11,-4,0,9,4,-9,-58,-9
1491087707336,1,-17,0,2,3,9,18,26,-3
1491087707336,1,-44,-7,0,-5,-6,-11,-14,0
1491087707371,2,38,2,-5,4,-3,-1,-2,3
1491087707371,2,34,-1,-6,-9,4,1,9,-7
1491087707372,3,51,6,7,24,-9,-12,-20,4
1491087707372,3,0,-1,9,0,10,15,22,-8
1491087707372,0,-22,-1,1,-2,1,-5,-9,-3
1491087707372,0,-23,0,-6,-4,-6,-6,-6,3
1491087707374,1,12,-5,-2,-15,-5,3,15,10
1491087707374,1,-41,-10,-5,3,-11,-23,-53,-24
1491087707409,2,85,16,6,-8,11,20,52,21
1491087707409,2,-7,-5,-5,2,-5,0,7,3
1491087707410,3,-36,-10,-5,8,-2,-14,-39,-15
1491087707410,3,-10,13,6,1,6,12,16,14
1491087707410,0,-63,-13,-11,-10,-1,0,10,-8
1491087707410,0,-3,1,-2,-8,-4,-7,-13,-7
1491087707411,1,-39,8,12,18,-1,-3,4,0
1491087707411,1,71,-6,-3,2,-1,1,-3,2
1491087707446,2,6,-4,-1,1,-2,-5,-8,3
1491087707446,2,-62,-5,-3,-4,-3,-6,-1,0
1491087707447,3,-21,-7,-9,-25,-7,7,19,-8
1491087707447,3,-37,-12,2,14,9,-6,7,2
1491087707448,0,53,11,4,-2,-3,9,-19,7
1491087707448,0,-21,-11,-5,0,-6,-5,-12,-12
1491087707484,1,-21,2,-2,-3,3,1,-8,1
1491087707484,1,28,1,-7,-18,-3,1,7,2
1491087707485,2,-17,-4,1,16,-2,-3,-1,-1
1491087707485,2,19,5,2,15,-4,-5,7,8
1491087707486,3,-6,-5,-6,-19,4,8,-8,-10
1491087707486,3,0,-10,-4,-7,1,1,11,0
1491087707486,0,36,1,-1,6,-4,-9,2,-7
1491087707486,0,11,3,3,-4,-4,3,-8,1
1491087707521,1,6,-11,-4,-1,-5,-5,6,2
1491087707521,1,13,2,-2,2,-4,-9,-24,-9
1491087707559,2,-3,-7,-3,-8,-1,-4,-5,2
1491087707559,2,39,5,-1,6,1,-6,22,2
1491087707560,3,0,-4,-5,-1,-5,-7,-32,-5
1491087707560,3,-37,-7,-11,-13,-3,-2,-9,-2
1491087707561,0,-16,4,9,13,0,11,18,9
1491087707561,0,33,5,8,9,1,-5,-5,-12
1491087707561,1,-74,-1,-1,-8,2,8,24,6
1491087707561,1,10,8,5,5,6,4,-6,-8
1491087707596,2,1,-7,-11,-11,-2,-8,-26,-8
1491087707596,2,24,-13,-9,-13,-6,3,15,-3
1491087707597,3,-57,6,5,4,-1,1,22,3
1491087707597,3,49,-4,-6,4,-15,-24,-35,-11
1491087707598,0,-22,5,9,10,9,13,38,8
1491087707598,0,38,2,3,-4,5,11,-13,6
1491087707599,1,37,-2,-11,-4,2,-4,-4,-1
1491087707599,1,10,3,2,1,-5,7,16,2
1491087707634,2,-42,1,8,17,2,-7,-30,-9
1491087707634,2,50,4,3,14,12,12,23,16
1491087707635,3,-15,-8,-6,-12,-7,-8,-7,-18
1491087707635,3,11,-4,-2,3,-1,1,-5,6
1491087707635,0,-58,-8,-5,0,-11,-13,-15,-13
1491087707635,0,-40,6,0,-5,1,0,4,-1
1491087707636,1,9,5,-1,6,-5,-7,-11,0
1491087707636,1,20,-6,-7,-4,0,-1,4,-2
1491087707671,2,-4,-5,-6,-10,-2,8,14,9
1491087707671,2,-77,-18,-1,0,3,-2,0,-13
1491087707672,3,127,26,7,4,-1,3,4,22
1491087707672,3,-95,-5,2,-6,1,4,12,-14
1491087707673,0,63,-2,-12,-7,-7,-6,-17,1
1491087707673,0,-6,5,9,26,1,-4,-5,2
1491087707674,1,-43,-12,-5,-4,4,-3,5,-2
1491087707674,1,-3,-2,1,0,-4,6,19,0
1491087707709,2,20,-1,-2,3,0,-12,-13,-10
1491087707709,2,13,-9,-10,-12,-12,-11,-19,-8
1491087707710,3,-28,2,-1,-12,7,4,-9,-5
1491087707710,3,12,-2,-4,-4,1,12,36,18
1491087707711,0,2,-15,-8,-17,-8,-16,-38,-28
1491087707711,0,-33,9,7,14,6,9,12,-1
1491087707711,1,48,2,10,19,-9,-9,5,4
1491087707711,1,-64,-2,1,-13,12,10,-7,-6
1491087707746,2,106,7,2,-6,-3,-5,8,9
1491087707746,2,13,4,-3,-6,-7,-5,-9,-9
1491087707747,3,-36,-7,-11,-9,-3,2,14,-5
1491087707747,3,-1,3,6,14,6,-7,-26,6
1491087707748,0,-19,-7,-5,-7,-7,0,6,-4
1491087707748,0,45,1,-1,2,-5,-14,-3,5
1491087707749,1,-30,-3,5,7,-1,3,15,9
1491087707749,1,28,4,-3,0,-5,1,-17,-1
1491087707821,2,-63,-8,-10,-1,4,2,18,0
1491087707821,2,31,7,0,-1,-1,3,9,16
1491087707822,3,-4,-8,-2,-5,-4,-1,-3,-20
1491087707822,3,-21,-9,-5,-1,-7,-12,-18,-13
1491087707823,0,1,1,-2,-10,5,0,-16,-5
1491087707823,0,-18,-5,-5,4,-4,7,28,10
1491087707824,1,-9,-8,-5,3,-7,-15,-13,-2
1491087707824,1,56,10,8,2,10,9,-1,-2
1491087707859,2,-35,3,-6,-10,-10,-11,-17,-17
1491087707859,2,11,1,6,2,8,10,21,11
1491087707860,3,-27,-8,-4,-4,1,4,16,0
1491087707860,3,28,5,1,-7,-7,-17,-23,0
1491087707861,0,4,-1,-1,-3,-5,0,-7,-2
1491087707861,0,-71,-5,-2,0,1,0,-21,-2
1491087707861,3,-38,-17,-11,-15,-6,-1,-10,-14
1491087707861,3,-49,-2,-1,15,-4,0,3,-1
1491087707896,0,51,5,5,10,0,3,15,5
1491087707896,0,-31,-3,-2,-8,-8,-19,-17,-12
1491087707897,1,42,-4,1,-4,-1,7,-10,11
1491087707897,1,19,10,2,-3,4,9,30,10
1491087707898,2,7,-7,-6,-9,-2,3,19,0
1491087707898,2,5,1,-1,12,-6,-30,-81,-23
1491087707899,3,28,8,-8,-11,6,20,31,8
1491087707899,3,-46,-13,-3,-2,-12,-5,3,-12
1491087707934,0,49,-4,6,21,2,-5,10,9
1491087707934,0,-52,-9,-10,-31,-1,7,7,-1
1491087707935,1,-33,-2,1,0,2,-7,-18,-5
1491087707935,1,-20,-13,-4,-2,1,4,4,-8
1491087707935,2,-17,-6,-6,-12,-2,-1,6,1
1491087707935,2,-20,8,7,4,-5,-9,3,-9
1491087707936,3,20,8,4,10,3,2,-24,-2
1491087707936,3,-62,-5,-8,-6,-10,-19,-7,-5
1491087707971,0,48,7,-2,-11,4,10,16,13
1491087707971,0,-22,-6,-1,-3,5,9,29,0
1491087707972,1,-27,-1,8,23,-6,-18,-13,-8
1491087707972,1,55,10,4,-16,-2,17,20,9
1491087707973,2,-46,-10,-9,1,6,5,-23,-12
1491087707973,2,87,-5,-5,-12,1,5,32,15
1491087707974,3,-36,-4,-2,-3,-2,-9,-8,-16
1491087707974,3,43,2,6,20,-2,-11,-14,9
1491087708009,0,-49,-2,1,-3,3,0,-3,-7
1491087708009,0,68,9,-2,0,-8,2,22,34
1491087708010,1,-42,-4,-12,-19,-3,-5,1,-13
1491087708010,1,17,-9,1,18,1,-15,-47,-19
1491087708011,2,57,10,-4,-22,3,20,19,12
1491087708011,2,-18,6,19,38,-3,-13,-26,-15
1491087708011,3,13,5,-1,-7,2,8,25,10
1491087708011,3,-38,-7,-10,-16,4,4,1,3
1491087708046,0,-24,-6,-9,-6,-6,-11,-14,-15
1491087708046,0,-8,-1,0,-7,4,13,24,2
1491087708047,1,49,7,7,19,-10,-19,-36,-2
1491087708047,1,13,0,-3,-8,0,-4,7,2
1491087708049,2,-36,-4,-5,-3,0,0,-12,-2
1491087708049,2,12,-5,-6,-2,-4,-19,-30,-23
1491087708051,3,-34,-3,1,-9,2,12,0,12
1491087708051,3,49,1,1,7,-4,3,22,1
1491087708084,0,-33,-10,-4,-20,-3,7,20,9
1491087708084,0,-3,-6,-9,-5,-4,-4,-8,-8
1491087708085,1,13,-11,5,17,3,-3,-23,0
1491087708085,1,-40,2,-8,-32,-10,-9,6,-10
1491087708086,2,36,10,7,21,-12,-18,-22,-4
1491087708086,2,-1,-7,-2,1,8,6,-11,1
1491087708087,3,-14,-16,-17,-24,-9,-15,-9,-12
1491087708087,3,22,11,6,16,2,6,27,13
1491087708121,0,-12,-5,2,-12,7,29,22,5
1491087708121,0,-15,-8,-13,-14,-1,3,17,2
1491087708122,1,31,13,6,8,1,5,4,4
1491087708122,1,19,6,1,7,-3,-14,-28,-11
1491087708124,2,-98,-2,7,16,-4,-20,-40,-14
1491087708124,2,95,2,-5,-5,-2,-1,-10,-2
1491087708124,3,-52,-13,1,-5,-3,7,48,10
1491087708124,3,56,7,-5,-10,-3,-3,-18,7
1491087708159,0,2,-2,-2,10,3,-7,7,-1
1491087708159,0,-4,-6,1,-4,-4,1,-18,3
1491087708161,1,-68,-5,-3,1,2,2,-5,-20
1491087708161,1,13,-13,0,9,4,5,12,16
1491087708162,2,10,1,-6,-8,-11,-19,-10,-7
1491087708162,2,-19,17,2,-7,1,6,-13,2
1491087708162,3,20,7,7,5,3,1,-6,-6
1491087708162,3,-13,-1,4,7,-7,-10,-20,-1
1491087708196,0,-30,-9,3,3,1,8,14,-6
1491087708196,0,-54,-20,-11,2,1,-11,-24,-10
1491087708197,1,23,13,4,-6,2,7,29,10
1491087708197,1,60,8,-10,-3,3,8,17,9
1491087708197,2,43,2,13,20,0,-6,1,6
1491087708197,2,-55,1,5,15,3,12,1,2
1491087708199,3,22,-15,-14,-7,-4,-11,-22,-12
1491087708199,3,-40,-8,-3,5,-9,-11,-18,-4
1491087708234,0,-33,-2,2,-5,3,1,-2,-11
1491087708234,0,68,-1,-2,-7,-1,2,22,7
1491087708235,1,28,8,7,-7,4,20,35,13
1491087708235,1,-21,-5,-14,-16,-4,-12,-20,-21
1491087708236,2,-12,-3,-8,8,-3,2,1,2
1491087708236,2,-56,-6,10,5,-5,-5,8,-8
1491087708237,3,-36,-11,-10,9,0,-3,4,8
1491087708237,3,64,5,8,5,-3,-11,-32,-12
1491087708271,0,-25,5,-2,-13,-1,6,15,3
1491087708271,0,24,8,-4,-10,2,0,31,4
1491087708272,1,39,0,-2,7,-5,-15,-39,-19
1491087708272,1,-67,-6,3,2,-1,4,14,12
1491087708273,2,16,-5,-3,-5,7,-1,-24,-9
1491087708273,2,-19,-12,-9,5,-3,0,5,9
1491087708274,3,36,23,8,-13,-2,-10,10,-16
1491087708274,3,-38,-10,-5,-4,4,11,-44,-14
1491087708309,0,9,-11,-10,-21,-8,-6,10,-3
1491087708309,0,77,8,0,-2,0,6,16,11
1491087708310,1,15,1,9,18,-3,-8,-26,6
1491087708310,1,22,-5,-9,5,-4,-8,4,-16
1491087708311,2,-14,3,3,0,-2,-1,21,15
1491087708311,2,-42,-3,-5,-3,-1,-1,-32,-5
1491087708346,3,-23,-9,-4,12,-1,-8,-18,-6
1491087708346,3,-15,-4,4,-13,5,16,42,5
1491087708347,0,18,-3,-9,-27,4,8,-6,-2
1491087708347,0,-37,-8,-2,11,-7,-16,-4,-22
1491087708348,1,-24,-16,-10,-25,-5,-6,-15,6
1491087708348,1,-84,-8,1,4,-2,2,-2,-5
1491087708349,2,29,14,-2,3,-2,-11,-9,4
1491087708349,2,37,-3,-6,-12,-13,-1,15,-3
1491087708384,3,8,0,3,16,-5,-18,-20,-15
1491087708384,3,56,8,2,-4,20,41,86,49
1491087708385,0,-10,-8,-5,6,-8,-12,-34,-17
1491087708385,0,-39,-2,-9,-20,0,1,2,-7
1491087708385,1,-5,19,15,13,-2,4,15,4
1491087708385,1,-7,-3,-7,-14,-5,-11,-18,6
1491087708386,2,50,-2,1,25,13,-5,-29,-6
1491087708386,2,-40,-5,-1,4,-15,-2,9,5
1491087708421,3,33,-8,-20,-20,0,14,26,16
1491087708421,3,-73,-14,-5,-3,-4,-9,19,-26
1491087708422,0,56,5,6,-14,-1,4,-12,3
1491087708422,0,-37,-13,4,15,-3,-19,-59,-29
1491087708496,1,-55,-5,-8,-11,-6,-7,-8,-15
1491087708496,1,59,6,-1,11,-7,-14,-3,4
1491087708498,2,-18,-7,1,7,-10,-14,-38,-24
1491087708498,2,-28,-6,-9,-13,3,3,7,12
1491087708498,3,83,5,9,7,19,47,79,22
1491087708498,3,-3,1,-3,-13,5,-2,-38,-3
1491087708499,0,44,12,10,15,-14,-14,10,13
1491087708499,0,56,1,-15,-24,-15,-8,-13,-14
1491087708534,1,-81,-8,-1,-2,20,6,-13,-8
1491087708534,1,21,-6,-4,18,-11,-21,-21,-13
1491087708571,2,-78,-4,5,11,-8,1,31,25
1491087708571,2,25,-2,2,-9,9,-7,-39,-25
1491087708572,3,5,-10,-14,2,-18,-8,-41,-2
1491087708572,3,-83,-7,-2,-15,13,19,27,-2
1491087708573,2,0,-3,-3,17,0,-7,-16,-3
1491087708573,2,12,0,-6,-32,7,21,91,33
1491087708574,3,114,-8,13,25,24,13,21,2
1491087708574,3,-98,-12,-5,-7,-8,-9,-29,-22
1491087708610,0,94,19,-10,-17,-3,25,37,27
1491087708610,0,-95,-14,-7,-10,-27,-17,-74,-37
1491087708611,2,3,-11,-5,-12,12,-6,7,-18
1491087708611,2,-16,5,4,28,1,0,20,7
1491087708612,3,-6,19,-6,-15,-8,-14,19,0
1491087708612,3,-11,11,5,-3,9,8,-4,9
1491087708612,2,-56,-30,2,3,-2,20,11,1
1491087708612,2,24,-3,4,3,8,0,-4,-16
1491087708646,3,-81,-5,-5,-19,0,-2,-15,5
1491087708646,3,84,35,4,19,22,6,25,19
1491087708648,0,-81,29,3,30,-1,-2,-4,-7
1491087708648,0,115,33,-6,-29,-7,6,24,13
1491087708649,1,-114,-10,-15,-5,-14,-21,-45,-42
1491087708649,1,-43,6,1,-11,-16,-8,50,32
1491087708650,2,-6,-20,2,0,2,8,-7,-5
1491087708650,2,-18,-46,4,7,14,-4,-10,-11
1491087708684,3,-46,-34,-3,-3,20,21,-17,-7
1491087708684,3,2,-40,-12,1,1,-20,-56,-27
1491087708685,0,-43,-14,-6,1,-35,-14,-44,-17
1491087708685,0,59,17,3,-30,-13,-1,64,15
1491087708686,1,10,-12,-15,-15,-22,11,11,10
1491087708686,1,6,-21,5,14,8,-17,-30,0
1491087708686,2,36,-43,-4,27,0,-49,-106,-34
1491087708686,2,-3,-1,8,2,26,7,-18,9
1491087708721,3,9,2,-8,-15,2,55,81,19
1491087708721,3,15,11,-11,-30,-24,-7,23,-2
1491087708723,0,61,-1,-6,-23,-3,9,25,5
1491087708723,0,-19,14,11,37,18,18,-50,6
1491087708724,1,54,6,4,-3,8,-20,51,11
1491087708724,1,-39,-16,-4,4,-9,-9,-42,-19
1491087708724,2,-27,1,7,25,7,-1,3,0
1491087708724,2,-62,-7,-9,-8,-11,-11,-51,-19
1491087708759,3,3,12,-6,13,-14,-12,-50,-16
1491087708759,3,58,-1,-5,-26,-18,-4,42,7
1491087708761,0,-125,-2,4,-6,-2,6,34,9
1491087708761,0,80,28,11,17,30,32,62,27
1491087708762,1,-12,0,0,7,12,-2,-31,0
1491087708762,1,-34,0,3,21,9,-3,-31,-27
1491087708762,2,-25,21,3,-10,5,-3,37,6
1491087708762,2,64,8,4,8,-2,-19,-71,-14
1491087708797,3,28,6,-3,-7,-7,-7,65,4
1491087708797,3,-17,10,-1,-12,4,2,-23,-2
1491087708798,0,-22,7,9,6,-9,23,26,17
1491087708798,0,-28,-8,-3,-6,-3,-7,3,5
1491087708799,1,-53,-13,-12,3,1,-18,-51,-22
1491087708799,1,60,29,19,10,18,22,27,22
1491087708800,2,38,97,-17,0,2,9,6,-8
1491087708800,2,-52,73,16,23,-17,-14,6,-7
1491087708834,3,-6,13,-4,-16,0,-8,-23,-14
1491087708834,3,-51,-55,4,10,-5,10,-18,-15
1491087708835,0,34,-128,-1,4,-5,-27,-32,-1
1491087708835,0,-106,-105,-1,10,15,19,51,8
1491087708837,1,83,-32,0,-20,-7,15,36,5
1491087708837,1,15,11,-9,-17,-16,-24,-25,-12
1491087708837,2,26,32,-1,0,11,0,1,-13
1491087708837,2,-50,13,-20,7,-7,-1,-29,-3
1491087708871,3,-64,12,15,14,-6,-5,38,25
1491087708871,3,-51,-8,-12,6,11,10,-7,-10
1491087708873,0,97,19,7,4,-1,-10,-10,4
1491087708873,0,5,-14,-7,-18,-28,-41,-26,-10
1491087708874,1,-23,-21,-5,-13,-9,34,-28,1
1491087708874,1,31,-1,-6,-5,3,15,67,26
1491087708875,2,-76,-8,4,11,9,-7,-11,4
1491087708875,2,4,-21,-14,-4,-5,-5,26,2
1491087708910,3,80,10,10,16,5,-28,-51,-15
1491087708910,3,-42,-11,-4,7,-11,-3,-23,-5
1491087708911,0,-104,22,-11,-10,6,5,-10,-17
1491087708911,0,113,36,2,-21,9,47,80,19
1491087708912,1,7,17,-2,-15,-12,-17,-2,-5
1491087708912,1,0,3,0,20,-7,-8,-19,1
1491087708913,2,33,-59,3,0,-9,-12,-35,-19
1491087708913,2,-66,-115,-8,15,5,-8,-14,-4
1491087708946,3,-13,-8,4,16,-3,-30,-33,-14
1491087708946,3,127,11,-6,-30,6,46,91,29
1491087708948,0,-73,32,-10,-48,-19,-30,-56,-23
1491087708948,0,-13,43,12,21,17,33,-43,-5
1491087708949,1,-62,-14,-12,10,4,9,24,3
1491087708949,1,-55,9,4,10,-14,-44,-45,-9
1491087708950,2,116,10,6,1,10,18,75,32
1491087708950,2,-27,2,12,13,-5,-1,-18,-10
1491087708984,3,5,-1,0,5,-5,4,-39,5
1491087708984,3,-39,-4,-9,-10,-13,-41,-10,-21
1491087708985,0,1,6,-6,-14,15,75,102,57
1491087708985,0,2,-25,-7,-5,-9,-52,-57,-21
1491087708986,1,-21,-2,8,0,13,24,-4,2
1491087708986,1,-105,-18,-7,-13,-2,-1,-5,-31
1491087708987,2,101,-5,-4,-4,-10,-29,-60,-8
1491087708987,2,-35,9,-6,-22,8,36,105,20
1491087709021,3,37,4,-2,5,-16,-20,-5,4
1491087709021,3,-12,0,3,17,35,27,-6,2
1491087709022,0,-7,-2,-2,6,-26,-12,-21,-21
1491087709022,0,20,9,-17,-4,-19,-2,13,-4
1491087709023,1,-71,7,0,-24,-9,-15,-49,-1
1491087709023,1,36,-28,9,-12,-4,8,13,14
1491087709059,2,25,-15,0,-5,17,-7,-11,-22
1491087709059,2,-11,9,14,7,6,-18,-1,-3
1491087709060,3,-5,7,-2,22,4,15,-13,-10
1491087709060,3,-38,-19,-5,12,-5,-26,-16,1
1491087709061,0,-19,-7,-2,11,-19,-5,-33,-15
1491087709061,0,-68,-16,-16,-20,-6,-20,-9,-2
1491087709062,1,72,4,-13,-32,-2,26,33,17
1491087709062,1,33,18,10,1,5,20,6,-4
1491087709096,2,-26,-12,-11,1,0,-33,-27,-17
1491087709096,2,59,17,-4,7,-12,0,-26,-2
1491087709097,3,15,12,26,15,42,-7,7,-3
1491087709097,3,12,19,-7,-25,-2,63,93,61
1491087709098,0,-50,1,-1,-4,-22,-33,-72,-24
1491087709098,0,20,-15,-17,-10,-12,-14,-44,-4
1491087709099,1,-5,-28,2,6,2,-8,17,-16
1491087709099,1,13,8,0,9,7,-6,-6,-3
1491087709134,2,-12,-1,-3,5,12,48,31,17
1491087709134,2,-17,12,3,-8,-22,-44,-40,6
1491087709171,3,77,-18,-1,3,4,5,41,12
1491087709171,3,-89,7,3,25,14,2,-32,-17
1491087709173,0,100,2,-5,-17,-12,13,73,26
1491087709173,0,-26,8,2,-3,-5,6,-66,-30
1491087709174,1,-42,6,-7,9,1,-32,34,11
1491087709174,1,15,3,6,-5,-13,-1,-86,-20
1491087709175,2,-58,-16,-3,1,27,13,59,23
1491087709175,2,17,1,5,-8,15,30,16,-4
1491087709209,3,-64,-9,0,5,1,10,21,5
1491087709209,3,46,13,-4,-10,-21,-32,-7,-15
1491087709211,0,-29,1,0,14,6,-4,-9,-1
1491087709211,0,17,28,2,8,-44,55,-36,5
1491087709211,1,-41,-1,2,-14,23,-66,43,6
1491087709211,1,41,-26,-5,0,38,28,28,-14
1491087709212,2,47,17,5,3,-16,-19,-50,18
1491087709212,2,20,-14,1,-10,0,-8,66,15
1491087709246,3,-17,-21,-20,-8,-28,4,-50,-15
1491087709246,3,-14,3,7,-2,20,16,-21,-17
1491087709247,0,-22,-50,-9,-5,-2,-50,-19,-7
1491087709247,0,4,-5,-3,5,21,17,26,19
1491087709248,1,-10,-7,2,-15,-58,68,60,-14
1491087709248,1,12,-1,8,9,-1,-68,-21,5
1491087709249,2,1,-29,13,21,9,83,75,-1
1491087709249,2,-34,-13,2,3,87,-20,-44,-21
1491087709284,3,80,28,-11,-27,-38,-53,-69,-10
1491087709284,3,-27,10,-13,-6,-30,-8,35,7
1491087709284,0,-35,32,3,6,21,20,-65,-10
1491087709284,0,48,12,4,-14,-42,-39,43,13
1491087709285,1,-31,23,4,20,27,48,0,-12
1491087709285,1,48,23,2,7,2,21,16,31
1491087709286,2,-25,-3,-1,-12,-28,-45,-17,-12
1491087709286,2,-28,-49,1,21,51,1,-3,-29
1491087709321,3,-8,-19,-3,3,2,32,-50,26
1491087709321,3,2,-16,-20,-27,-59,-18,-87,-61
1491087709322,0,-36,5,-24,0,-8,-13,116,-5
1491087709322,0,-43,3,20,11,3,8,-66,34
1491087709323,1,70,-3,-10,-4,-2,-63,-68,13
1491087709323,1,44,-5,27,-3,18,66,52,-10
1491087709324,2,-27,-28,1,-3,6,-39,-38,14
1491087709324,2,-6,-2,-20,-30,-23,-3,65,-31
1491087709360,3,-50,-14,-1,16,8,22,72,24
1491087709360,3,-26,-22,-30,6,8,-6,-26,-23
1491087709360,0,52,31,12,-2,0,27,-3,8
1491087709360,0,-22,39,-14,-5,-13,2,27,5
1491087709361,1,-4,16,12,3,4,-43,-18,-13
1491087709361,1,-41,28,2,-1,0,-11,0,7
1491087709361,2,22,-45,36,-17,-11,-17,-33,-19
1491087709361,2,11,-51,-42,35,4,21,59,19
1491087709396,3,17,-5,8,-2,18,61,-1,27
1491087709396,3,1,-21,-18,-8,2,-42,-38,-48
1491087709397,0,-24,24,-27,-2,-5,25,56,11
1491087709397,0,10,24,55,-10,-14,-24,-21,-11
1491087709397,1,-64,-20,-27,7,4,-21,-24,-12
1491087709397,1,34,-20,34,33,-2,14,44,16
1491087709399,2,13,-3,-30,8,7,-55,-106,-30
1491087709399,2,121,70,-50,-20,-9,29,56,19
1491087709434,3,-67,84,47,-9,-7,-15,-55,-50
1491087709434,3,-5,61,-8,8,2,-1,0,28
1491087709435,0,-38,-75,-32,23,2,-2,-27,-33
1491087709435,0,12,-78,12,-2,-24,-18,-35,30
1491087709435,1,-74,-41,-15,-42,10,55,103,4
1491087709435,1,77,-31,0,-37,-11,-12,-5,13
1491087709436,2,5,-58,57,0,4,11,-1,15
1491087709436,2,87,-46,-39,22,15,-13,-21,5
1491087709471,3,-4,-84,11,34,-21,-58,-18,-15
1491087709471,3,55,40,4,11,18,27,-20,14
1491087709472,0,-24,23,-1,-39,-6,17,11,-12
1491087709472,0,-128,-16,14,4,-18,-46,-106,-37
1491087709473,1,112,8,-24,-19,-21,20,60,-16
1491087709473,1,-128,-8,-17,-35,-8,-34,-37,-3
1491087709474,2,123,50,-19,-38,-13,16,64,39
1491087709474,2,-113,49,52,49,30,39,-15,2
1491087709509,3,19,6,-19,-4,16,-18,-57,-38
1491087709509,3,20,-2,4,1,-54,-13,57,51
1491087709510,0,-84,13,2,20,26,-31,-35,-45
1491087709510,0,-23,-11,-22,-54,-8,10,-24,-33
1491087709511,1,-60,-4,-22,-19,-30,-10,30,32
1491087709511,1,3,-20,25,30,16,32,21,3
1491087709511,2,-92,-34,-7,-1,0,-11,20,-18
1491087709511,2,102,-28,3,2,-6,-20,20,18
1491087709546,3,4,-5,24,19,29,-12,-106,-32
1491087709546,3,-28,-11,-26,-53,2,34,93,34
1491087709547,0,70,59,-15,-1,-41,44,36,26
1491087709547,0,-35,51,-7,-37,-37,-64,-65,-22
1491087709548,1,-41,8,-2,13,-4,-2,-9,-2
1491087709548,1,74,17,14,21,38,-18,-18,-4
1491087709549,2,-64,46,14,42,16,20,-11,1
1491087709549,2,-47,57,-11,-20,21,25,15,5
1491087709584,3,31,45,-8,-27,-29,19,67,14
1491087709584,3,-5,1,8,17,-11,-35,-33,-10
1491087709584,0,-1,3,5,22,18,17,-7,12
1491087709584,0,32,-21,6,17,15,4,10,-6
1491087709585,1,-36,0,4,30,27,-13,-83,-17
1491087709585,1,13,-11,-2,-12,7,33,87,45
1491087709621,2,38,-9,8,-35,-49,-49,-27,-18
1491087709621,2,16,-39,-1,-11,3,20,38,18
1491087709622,3,-3,-14,22,48,4,68,106,7
1491087709622,3,-21,-32,13,4,32,-71,-128,-58
1491087709623,0,36,14,-8,-25,-1,6,9,24
1491087709623,0,-24,22,-2,-12,9,7,60,14
1491087709624,1,72,41,-10,2,-21,-9,8,2
1491087709624,1,-26,-29,-15,9,-35,2,-36,-1
1491087709697,2,-22,2,13,18,-22,-13,-39,-30
1491087709697,2,62,-17,5,-2,51,33,47,35
1491087709699,3,-19,-20,-3,-30,-13,-56,26,-11
1491087709699,3,16,41,-7,2,-1,45,24,17
1491087709700,0,2,-17,-22,20,13,-31,-48,-4
1491087709700,0,-21,-15,9,5,-10,-26,34,-16
1491087709702,1,-60,9,5,24,9,1,-69,39
1491087709702,1,94,-20,3,-13,-4,3,-12,-53
1491087709734,2,-38,-50,10,-4,8,41,35,3
1491087709734,2,-11,-10,2,11,-11,17,13,-13
1491087709734,3,4,-3,6,4,28,-4,4,8
1491087709734,3,-52,6,3,7,-10,-18,-8,-11
1491087709735,2,2,28,-13,-11,-3,-84,-75,-15
1491087709735,2,-11,26,-15,0,-19,4,-8,1
1491087709736,3,-26,-17,-11,-10,1,41,51,5
1491087709736,3,47,-37,13,-4,-4,-22,-46,-12
1491087709771,0,51,-17,-6,10,9,11,18,13
1491087709771,0,-94,14,10,41,-13,-48,-100,-31
1491087709772,1,122,-47,-32,-38,-9,39,89,17
1491087709772,1,-57,-22,-2,-32,-3,29,53,26
1491087709772,2,45,2,8,-14,0,2,29,-8
1491087709772,2,-18,-30,-9,-1,-13,-12,-9,-19
1491087709773,3,-41,16,1,21,5,-12,-20,-19
1491087709773,3,9,6,-1,37,-9,-16,-63,5
1491087709809,0,-47,-3,0,-7,26,0,4,-10
1491087709809,0,-40,-35,-3,-13,-15,-28,1,-29
1491087709810,1,5,-15,-10,-22,-12,13,-32,13
1491087709810,1,34,-12,-9,10,4,-15,38,-8
1491087709810,2,-14,6,3,33,13,-9,-62,7
1491087709810,2,107,32,6,-9,-2,52,-2,3
1491087709811,3,21,-10,-23,-47,-25,-24,52,-10
1491087709811,3,-29,-37,-21,-38,-51,-24,15,-27
1491087709846,0,-94,-22,-9,-11,-2,-6,-46,15
1491087709846,0,34,-15,1,19,2,-24,-10,-9
1491087709847,1,-80,-49,8,13,29,19,1,6
1491087709847,1,-39,-17,3,4,32,30,-40,-27
1491087709847,2,-4,0,-3,-7,-18,10,79,34
1491087709847,2,110,-10,0,-21,-12,-18,65,2
1491087709849,3,3,-22,-1,24,10,26,-21,22
1491087709849,3,-11,-25,0,-12,0,-34,-52,-13
1491087709884,0,-24,-9,6,13,-5,-12,-6,-12
1491087709884,0,-18,8,-2,-13,8,-17,-21,4
1491087709884,1,73,48,7,-3,16,78,90,50
1491087709884,1,3,27,-6,5,1,-38,-69,-27
1491087709885,2,-48,37,4,5,-3,34,43,3
1491087709885,2,19,-20,-13,-6,-9,-35,-30,8
1491087709886,3,26,39,14,32,10,-12,-52,-21
1491087709886,3,-47,22,-1,-11,-4,-1,0,3
1491087709921,0,-25,5,-2,-19,-21,-23,-1,-11
1491087709921,0,6,-16,3,9,5,22,22,0
1491087709922,1,-52,18,-3,-4,-5,-25,-53,-17
1491087709922,1,67,67,0,13,2,34,64,31
1491087709922,2,-8,-58,-20,-18,-1,-28,8,-32
1491087709922,2,1,7,7,3,0,13,1,13
1491087709923,3,-50,-37,-1,-1,-3,37,13,-15
1491087709923,3,22,-15,7,7,-9,-77,-53,17
1491087709959,0,-77,-12,-8,-6,2,14,40,-17
1491087709959,0,64,11,8,16,11,29,10,32
1491087709960,1,-76,-12,-9,5,-11,-31,-58,-44
1491087709960,1,-60,-23,-8,5,11,45,79,8
1491087709960,2,125,6,8,-2,4,-4,-54,4
1491087709960,2,-50,14,1,5,-10,1,-26,-4
1491087709961,3,21,5,-2,11,7,-28,-24,-6
1491087709961,3,-126,1,-21,-12,-1,22,58,-2
1491087709996,0,48,11,12,30,12,3,42,30
1491087709996,0,-28,1,3,-2,-7,4,26,-15
1491087709997,1,-60,6,12,-2,-14,-53,-98,-37
1491087709997,1,42,-29,-11,-38,3,23,25,28
1491087709997,2,97,-6,-3,-3,-11,1,-62,-28
1491087709997,2,-17,-14,4,-1,2,-8,47,28
1491087709999,3,-51,-23,-3,-4,-7,-9,6,0
1491087709999,3,-39,-59,8,-14,15,23,23,-2
1491087710034,0,16,16,-13,-1,-27,-27,-68,-30
1491087710034,0,9,-7,-11,-18,-3,43,49,21
1491087710034,1,49,22,-9,-7,2,-7,-1,-15
1491087710034,1,-58,41,3,33,-27,-49,-89,-16
1491087710035,2,49,-5,12,-20,9,22,83,30
1491087710035,2,-82,-1,-9,3,-26,-48,-125,-35
1491087710071,3,108,6,5,-10,-2,83,106,53
1491087710071,3,-19,-7,-8,3,-7,-15,42,-11
1491087710072,0,-62,-4,-6,6,-17,-8,-78,-39
1491087710072,0,62,28,9,27,3,9,9,15
1491087710073,1,-27,14,2,1,-6,-28,-23,-6
1491087710073,1,0,36,6,-7,-4,30,25,-4
1491087710074,2,-73,-21,-4,24,-9,-5,35,9
1491087710074,2,-89,-1,-10,0,-5,-25,-16,-53
1491087710109,3,96,29,14,0,13,9,-39,62
1491087710109,3,-29,9,11,7,9,-12,-35,5
1491087710110,0,14,-18,-11,-26,17,32,97,38
1491087710110,0,-80,-39,-1,-4,28,17,-15,-41
1491087710110,1,42,-12,10,29,21,-5,-6,-6
1491087710110,1,-25,-19,-11,-1,1,-30,-38,-10
1491087710111,2,3,16,-3,-10,-7,-16,-20,-21
1491087710111,2,77,1,4,-19,13,49,88,66
1491087710146,3,-29,-41,-20,-32,-2,-45,-31,-58
1491087710146,3,-19,8,15,5,27,47,24,29
1491087710147,0,-21,-19,-10,-13,-8,-31,-6,-16
1491087710147,0,-18,-12,3,1,-4,-27,-57,-17
1491087710148,1,89,11,-5,5,-4,11,44,34
1491087710148,1,-70,-33,-13,-13,-6,-10,-36,-29
1491087710149,2,3,-18,4,7,15,40,-1,9
1491087710149,2,34,-11,-6,-13,-11,-35,-11,9
1491087710184,3,-43,17,1,1,-9,-9,-17,-3
1491087710184,3,17,13,-3,8,-6,-13,-14,-14
1491087710185,0,6,-3,-7,-40,2,11,31,13
1491087710185,0,6,-9,-3,12,4,19,15,2
1491087710185,1,8,-4,4,18,-13,-34,-11,-24
1491087710185,1,-23,-13,15,0,2,13,-10,-18
1491087710221,2,-13,-8,-4,12,7,7,24,-4
1491087710221,2,68,29,-12,-30,-4,7,27,23
1491087710222,3,-15,-17,-18,-16,-9,-2,6,0
1491087710222,3,9,16,5,12,-11,-22,-3,-14
1491087710223,0,-5,24,2,18,-12,-14,-26,12
1491087710223,0,5,33,0,5,1,-10,-15,4
1491087710224,1,-104,-3,-1,-11,7,22,5,-26
1491087710224,1,127,-20,-4,-7,-4,-4,28,29
1491087710259,2,33,11,-7,-10,3,13,-17,-8
1491087710259,2,-69,78,0,11,-13,-31,-25,-23
1491087710261,3,-26,29,3,-15,2,3,-14,4
1491087710261,3,-25,-4,-2,5,-6,-5,1,-11
1491087710262,0,-45,-54,4,5,2,12,40,16
1491087710262,0,13,-71,-6,-2,-2,0,-15,3
1491087710263,1,36,-39,-3,5,-8,-6,0,2
1491087710263,1,43,-40,-13,-7,-3,-13,-45,-12
1491087710296,2,5,22,-2,-8,-4,3,53,28
1491087710296,2,-33,-44,13,15,-3,21,-2,17
1491087710297,3,81,-45,-8,-19,-4,-2,-30,-11
1491087710297,3,100,-3,-5,11,-6,-20,-30,9
1491087710298,0,-64,-10,-1,-16,2,6,8,-10
1491087710298,0,-36,2,-2,-3,-1,6,-1,-30
1491087710299,1,-27,-2,-3,6,3,3,41,25
1491087710299,1,-16,-2,4,19,-6,-23,-33,-15
1491087710334,2,16,25,11,0,6,1,-23,1
1491087710334,2,-7,-1,-2,4,-5,-21,18,-11
1491087710371,3,0,0,3,11,15,43,32,16
1491087710371,3,-54,16,-5,0,2,6,5,12
1491087710409,0,-55,-22,-7,-13,-5,-1,5,-25
1491087710409,0,106,-13,5,0,-1,4,36,31
1491087710410,1,-85,28,-3,-5,2,-7,18,1
1491087710410,1,15,3,14,19,7,-2,-9,-2
1491087710411,2,11,-11,-2,10,-4,16,34,16
1491087710411,2,-50,-94,-7,-22,-5,-7,-63,-24
1491087710412,3,26,-21,0,-1,-9,-15,-18,-11
1491087710412,3,-38,-9,-10,-6,-10,-9,-10,-3
1491087710446,0,107,58,9,5,3,-7,-52,0
1491087710446,0,-28,92,-4,4,2,-2,-2,-24
1491087710447,1,-42,96,-7,-1,11,12,25,15
1491087710447,1,-3,9,-2,-14,3,9,28,-9
1491087710448,1,-93,-8,-10,-6,-9,-12,-35,-6
1491087710448,1,65,2,-4,-3,-1,27,4,21
1491087710449,2,16,-1,0,-6,-4,-14,-18,-21
1491087710449,2,2,2,-5,-5,-8,4,28,6
1491087710484,3,16,-31,0,9,-4,-11,-30,-1
1491087710484,3,0,-11,-7,-17,17,10,24,1
1491087710486,0,-21,3,-9,9,-1,-20,-75,-16
1491087710486,0,-33,32,14,4,-4,-2,44,5
1491087710487,1,53,19,0,14,-8,-2,-16,1
1491087710487,1,-2,-23,-4,-23,-3,21,22,16
1491087710488,2,-33,-21,-11,3,-5,1,15,3
1491087710488,2,-7,-20,3,-2,-3,-2,16,12
1491087710522,3,-1,10,2,1,-10,-23,-48,-16
1491087710522,3,-50,11,3,14,1,0,28,-4
1491087710523,0,13,-3,-1,9,3,-5,7,0
1491087710523,0,-24,-12,-4,-14,5,28,13,10
1491087710524,1,-10,-26,-2,11,-5,-12,9,-4
1491087710524,1,-3,-3,-2,-6,-6,9,30,12
1491087710525,2,-69,-23,-8,-13,-15,-12,-21,-6
1491087710525,2,36,-30,-2,24,4,-5,-10,1
1491087710560,3,41,-43,-12,-24,-2,-12,4,-14
1491087710560,3,-69,16,16,39,-3,-5,-72,-16
1491087710562,0,38,51,-6,-15,-5,3,16,12
1491087710562,0,-86,39,-3,-26,-2,-16,1,-25
1491087710563,1,-8,-49,-2,-3,-1,20,23,22
1491087710563,1,-14,-63,-3,5,-5,-32,-20,-15
1491087710563,2,-68,-14,7,-4,4,33,77,21
1491087710563,2,56,6,0,3,0,-5,-40,-4
1491087710596,3,-30,10,-3,-11,-9,-13,3,-24
1491087710596,3,9,19,-6,-21,-6,-10,-18,-19
1491087710597,0,-41,22,2,-5,-6,-1,-28,-6
1491087710597,0,-24,1,1,15,1,-10,-11,-10
1491087710598,1,-14,22,4,2,6,13,36,13
1491087710598,1,9,0,-21,-18,-15,-20,-15,-12
1491087710599,2,23,-20,-7,5,2,1,-9,-8
1491087710599,2,-30,-6,0,-2,8,24,18,7
1491087710634,3,46,31,7,10,-3,-20,-33,-27
1491087710634,3,-22,26,-8,6,-6,-12,-50,-6
1491087710635,0,17,-9,7,10,-3,-16,11,-3
1491087710635,0,22,-17,-8,-14,-11,-21,-45,-11
1491087710636,1,-25,13,11,0,11,60,99,56
1491087710636,1,47,-22,-12,-13,5,17,58,6
1491087710637,2,-65,-30,-10,-1,-1,-14,-65,-26
1491087710637,2,92,20,12,21,5,8,-55,7
1491087710671,3,-54,0,-19,-25,-22,-52,-24,-6
1491087710671,3,-44,12,8,-20,-3,16,21,-17
1491087710672,0,76,4,6,-7,-6,-11,-17,15
1491087710672,0,-40,-10,-10,5,10,37,33,3
1491087710672,1,-128,-22,4,47,-2,-24,-51,-48
1491087710672,1,-76,6,12,1,19,1,18,29
1491087710673,2,66,-34,-32,-48,-45,-13,58,-5
1491087710673,2,-65,-33,-12,-44,12,21,27,-54
1491087710709,3,127,13,13,12,-33,7,-46,80
1491087710709,3,-95,-1,-15,1,30,-24,-29,0
1491087710709,0,-59,33,17,33,22,9,-22,-13
1491087710709,0,-79,-10,5,-29,-98,11,-24,-1
1491087710710,1,73,1,28,51,118,14,1,-13
1491087710710,1,22,28,23,59,90,41,28,-40
1491087710711,2,-60,-14,-16,-41,-62,-62,-32,13
1491087710711,2,101,21,0,-84,-33,-24,62,42
1491087710746,3,-116,-89,-25,-51,62,73,1,-27
1491087710746,3,20,-40,-37,-5,-118,-123,-29,-22
1491087710747,0,-96,-34,-44,-67,-82,127,76,41
1491087710747,0,23,-35,-29,9,-18,-25,-20,-16
1491087710748,1,39,61,33,65,60,-33,-56,3
1491087710748,1,-50,-9,-1,2,87,44,19,-25
1491087710784,2,70,83,42,24,31,-32,-18,14
1491087710784,2,83,65,-15,2,5,57,-1,25
1491087710785,3,-20,59,-2,-46,-84,-97,-46,-10
1491087710785,3,15,-113,36,54,72,102,66,61
1491087710785,0,-44,-44,49,126,94,89,-12,-11
1491087710785,0,-88,30,24,8,-35,-40,53,-11
1491087710786,1,53,-60,-45,-72,-22,-77,-19,-53
1491087710786,1,-105,44,-40,-87,-54,30,-13,-34
1491087710821,2,123,-29,-5,7,2,-9,-33,40
1491087710821,2,-17,61,40,115,127,127,-38,-50
1491087710822,3,-21,31,-14,-11,-128,-98,-90,-50
1491087710822,3,127,49,10,-74,-121,80,58,76
1491087710822,0,-29,23,-25,-19,90,-65,0,-26
1491087710822,0,46,-49,-47,-82,57,-113,44,61
1491087710823,1,-3,-30,14,27,-93,36,-14,-61
1491087710823,1,-11,-1,10,-31,121,12,-42,43
1491087710859,2,-44,-33,-16,29,-128,-54,28,-87
1491087710859,2,76,-17,3,0,-6,77,-17,50
1491087710860,3,33,19,-15,65,127,113,58,18
1491087710860,3,-39,64,29,10,-128,-73,-63,3
1491087710860,0,86,22,-49,-104,-29,-14,-100,-27
1491087710860,0,-128,-90,32,85,69,44,69,26
1491087710861,1,66,18,0,21,56,-5,-21,-7
1491087710861,1,-49,6,4,-37,-60,5,-128,-69
1491087710896,2,-85,-20,-18,-86,-64,-128,-47,-49
1491087710896,2,18,-54,-21,-44,-87,1,53,8
1491087710897,3,54,51,43,104,14,127,89,77
1491087710897,3,-30,-4,-36,10,-8,-128,-46,-34
1491087710898,0,98,61,10,-11,69,106,111,50
1491087710898,0,4,92,0,40,54,-43,-128,-51
1491087710934,1,50,-51,18,39,73,-9,59,46
1491087710934,1,82,-66,-49,-71,-71,15,14,-50
1491087710935,2,-88,-16,33,49,88,40,61,45
1491087710935,2,65,40,10,-28,-6,-7,42,-55
1491087710935,3,-119,14,-14,-89,-128,-60,-24,28
1491087710935,3,65,47,-28,-63,72,73,85,67
1491087710936,0,-34,-49,-14,83,-55,-73,-36,26
1491087710936,0,-39,-36,20,-52,12,8,-97,-78
1491087710971,1,-58,10,5,47,84,51,24,14
1491087710971,1,119,-128,-22,-65,-128,-82,91,53
1491087710972,2,28,62,33,27,95,90,115,77
1491087710972,2,-65,22,12,103,49,-128,-93,-53
1491087710972,3,-60,19,-40,-128,-128,-115,-67,-60
1491087710972,3,-26,114,41,127,127,127,60,31
1491087710973,0,57,-20,-6,21,-62,-111,-107,-42
1491087710973,0,0,-71,-60,-112,-128,-56,127,43
1491087711009,1,85,48,31,98,100,127,-28,9
1491087711009,1,-55,109,57,120,44,79,51,-15
1491087711009,2,94,-80,10,-105,-97,-61,-101,-31
1491087711009,2,-116,-36,-13,-21,40,4,-67,-59
1491087711046,3,-1,-110,-48,-91,-117,-61,85,33
1491087711046,3,-23,-40,-11,-12,-85,44,-79,-18
1491087711047,0,-70,-70,8,98,127,110,119,6
1491087711047,0,9,77,16,-16,-128,-68,-74,5
1491087711047,1,-57,-61,-20,-66,-98,82,112,-5
1491087711047,1,10,-30,38,75,100,-29,-74,-22
1491087711049,2,-110,-8,-43,-103,-128,50,13,-25
1491087711049,2,127,21,14,104,27,127,127,127
1491087711084,3,-86,85,-10,68,72,-65,-68,-96
1491087711084,3,17,-68,-18,-46,7,-128,2,59
1491087711084,0,-95,-37,-25,-31,-69,119,-128,-83
1491087711084,0,36,67,35,64,93,103,90,111
1491087711085,1,84,-24,23,21,5,-16,18,40
1491087711085,1,6,86,-28,-89,-22,52,22,61
1491087711086,2,99,-33,-9,47,-10,-128,-96,-89
1491087711086,2,-51,-75,-30,-69,-128,-68,-65,-92
1491087711121,3,38,-66,31,71,102,121,84,36
1491087711121,3,-11,29,40,47,-127,44,19,-36
1491087711122,0,-38,6,-27,-85,85,-35,127,67
1491087711122,0,47,-97,-22,-38,-38,112,-86,-5
1491087711123,1,-4,24,18,-87,-56,-31,-94,-49
1491087711123,1,52,-45,5,48,-66,83,90,48
1491087711124,2,-116,7,6,10,116,-73,-65,-46
1491087711124,2,44,-73,-16,-42,29,-60,36,-32
1491087711159,3,-13,68,0,-77,22,121,-32,12
1491087711159,3,56,55,37,100,-59,26,-4,-23
1491087711160,0,15,119,26,39,64,125,-74,39
1491087711160,0,-128,-60,-13,-48,2,-79,-72,-83
1491087711160,1,83,-4,-29,58,-108,67,48,120
1491087711160,1,46,-6,-34,54,78,26,18,-16
1491087711161,2,-50,-64,-2,-57,-128,-23,-3,-40
1491087711161,2,68,-5,38,40,127,124,45,66
1491087711196,3,-42,-6,-30,-16,-17,-128,38,-88
1491087711196,3,48,-38,-26,-80,-98,-95,-76,-42
1491087711197,0,-41,42,24,127,127,127,66,21
1491087711197,0,-2,59,32,32,-110,102,22,-46
1491087711197,1,-26,9,-26,-118,-54,-95,-44,-8
1491087711197,1,-9,-80,-45,-66,3,-102,-31,-18
1491087711198,2,56,-4,32,61,78,27,18,72
1491087711198,2,-16,36,18,-20,91,3,-21,-60
1491087711234,3,21,18,33,86,10,102,-8,53
1491087711234,3,-75,-56,-42,-52,52,-128,42,-39
1491087711234,0,34,-86,-47,-55,-33,-107,-21,45
1491087711234,0,45,42,26,79,-58,52,68,-30
1491087711235,1,-39,84,-20,-18,-40,-41,10,19
1491087711235,1,-2,30,37,10,48,27,65,67
1491087711236,2,-3,-55,-10,1,75,8,-10,-59
1491087711236,2,-35,-29,-69,-69,-30,-7,9,61
1491087711271,3,36,-61,-24,13,-111,-52,-31,-3
1491087711271,3,-32,-106,39,36,6,13,17,30
1491087711272,0,22,-30,22,25,-120,110,58,8
1491087711272,0,-38,-49,19,0,-56,-114,-47,-11
1491087711273,1,-48,-128,-32,-90,83,-19,5,-35
1491087711273,1,-33,-61,-62,2,1,-80,-91,-33
1491087711273,2,54,113,23,-67,109,82,24,2
1491087711273,2,16,124,26,87,28,107,84,59
1491087711309,3,7,91,61,37,-5,-44,-16,-32
1491087711309,3,15,45,-15,-13,-30,9,-49,-38
1491087711309,0,13,16,-54,-78,-61,-110,20,-11
1491087711309,0,-59,20,19,46,-1,68,26,48
1491087711310,1,22,30,26,28,127,47,31,5
1491087711310,1,-29,2,20,-21,-65,74,2,25
1491087711311,2,27,11,6,60,71,36,29,-18
1491087711311,2,-12,-46,-18,-48,-116,-49,-31,14
1491087711346,3,-39,-66,14,49,72,16,6,-6
1491087711346,3,49,-3,-17,-19,-13,41,-32,-35
1491087711347,0,-6,46,-18,-106,-128,40,73,25
1491087711347,0,-13,-24,39,33,127,14,-16,-2
1491087711348,1,-12,51,-49,-91,53,127,57,-5
1491087711348,1,-19,79,9,-57,-47,-71,-51,-12
1491087711384,2,38,-1,-4,43,-17,38,-1,61
1491087711384,2,-3,34,-7,11,-115,-4,-36,-46
1491087711385,3,-38,-28,-51,-116,-110,-61,-46,-29
1491087711385,3,18,-80,33,119,47,5,36,13
1491087711386,0,3,-39,24,119,34,81,43,38
1491087711386,0,16,-87,32,48,-8,-72,-40,22
1491087711387,1,-11,-17,-1,39,105,-57,-9,-10
1491087711387,1,-16,1,-24,-25,-53,-23,-28,-15
1491087711421,2,-18,0,7,11,-31,-2,-12,-12
1491087711421,2,45,38,-14,2,4,19,38,19
1491087711422,3,34,14,23,73,50,124,40,18
1491087711422,3,-88,88,-12,-96,-105,-50,-24,-23
1491087711422,0,26,43,-1,-25,75,-119,-79,-37
1491087711422,0,-31,17,-50,-46,35,-7,20,3
1491087711423,1,29,67,51,73,-111,-19,18,25
1491087711423,1,22,127,38,48,127,77,26,-25
1491087711459,2,-23,58,4,-28,-124,-21,16,35
1491087711459,2,-2,37,-53,-48,91,-33,-42,-13
1491087711460,3,5,-118,-21,-44,-78,-40,-12,-18
1491087711460,3,-12,-58,-32,-35,57,12,6,-22
1491087711460,0,10,-38,55,48,-53,6,-21,-1
1491087711460,0,-24,-107,-3,-28,-5,-37,-18,-14
1491087711534,1,-10,-115,21,16,46,-2,-5,-4
1491087711534,1,-20,-94,23,38,-41,127,52,-1
1491087711535,2,0,-44,-8,-128,-8,-114,3,-2
1491087711535,2,31,18,17,83,67,83,20,-8
1491087711536,3,-61,23,-66,-96,-6,-87,-41,-51
1491087711536,3,24,9,-5,49,-13,-88,-44,9
1491087711537,0,21,29,62,112,87,95,24,-10
1491087711537,0,-49,10,21,36,-12,58,32,9
1491087711571,1,55,-78,-5,-86,-89,-38,-4,14
1491087711571,1,-10,-73,-10,13,-18,8,-8,5
1491087711572,2,-23,-42,-54,-59,85,-24,-9,6
1491087711572,2,-26,22,-23,-9,-34,-51,-44,1
1491087711573,1,-76,-46,-49,-105,-98,-76,-57,6
1491087711573,1,34,-1,-8,24,122,75,12,12
1491087711573,2,-18,-46,39,62,-41,127,66,-9
1491087711573,2,24,-38,-44,-51,-57,-66,-47,4
1491087711609,3,-3,-107,51,126,117,123,0,2
1491087711609,3,11,92,-14,-50,11,97,3,-29
1491087711610,0,-51,-82,-108,-89,-40,10,-27,-30
1491087711610,0,9,-12,88,57,32,15,24,-25
1491087711610,1,29,-39,-17,35,-38,125,18,2
1491087711610,1,-16,-18,-4,-32,-103,25,-22,11
1491087711611,2,-26,-65,10,88,-43,78,6,-8
1491087711611,2,21,-53,-70,-128,-43,-52,-38,-7
1491087711646,3,-96,-104,-46,54,-43,-24,-31,-3
1491087711646,3,17,-114,32,58,119,27,20,23
1491087711647,0,23,-67,25,24,-112,47,29,0
1491087711647,0,12,-30,-46,-50,9,-46,-19,2
1491087711647,1,32,117,18,53,-75,-58,-30,5
1491087711647,1,-16,-97,-21,-33,51,-88,11,6
1491087711649,2,-6,-110,-29,4,-8,-64,6,14
1491087711649,2,-47,-46,3,-19,25,-3,26,-17
1491087711684,3,25,24,-12,-40,7,-72,8,11
1491087711684,3,-12,77,3,14,-78,-106,-19,-7
1491087711684,0,-31,92,-5,-1,-30,-87,-12,10
1491087711684,0,-2,76,-16,4,17,-52,11,2
1491087711685,1,10,60,-17,-23,75,-47,1,-8
1491087711685,1,28,54,2,-3,33,-3,18,-6
1491087711686,2,31,58,-11,-9,26,-52,-7,-8
1491087711686,2,-51,20,-22,-7,-70,-9,-8,-1
1491087711721,3,79,12,-41,-70,31,-17,15,10
1491087711721,3,-56,-3,36,23,-24,-50,-10,-14
1491087711722,0,54,14,8,-1,-56,-46,-30,1
1491087711722,0,-13,-1,47,47,47,25,18,0
1491087711723,1,41,-47,17,-2,8,5,8,4
1491087711723,1,-60,-14,-26,-21,23,-58,4,-21
1491087711723,2,50,-25,36,-16,-47,-75,-14,-1
1491087711723,2,11,-12,20,39,27,-38,9,2
1491087711759,3,-3,-13,16,-19,1,-62,-8,-12
1491087711759,3,-20,13,-28,-12,-11,-42,-14,6
1491087711760,0,11,0,30,18,25,-28,-9,3
1491087711760,0,2,-15,-16,-14,20,14,8,-13
1491087711760,1,6,-7,60,15,-46,-16,-1,8
1491087711760,1,-7,-14,-7,0,25,-19,-5,-1
1491087711761,2,-21,-19,-8,23,-30,2,-1,-5
1491087711761,2,38,-10,-25,-64,-32,-32,-4,0
1491087711796,3,8,29,7,-6,-34,-10,-8,6
1491087711796,3,-11,-3,35,-19,14,18,-3,-19
1491087711797,0,68,-11,9,-11,25,12,22,16
1491087711797,0,-6,-7,15,35,37,20,3,-2
1491087711798,1,19,-10,-11,10,-18,-11,-4,21
1491087711798,1,-20,-15,-16,-29,-19,-24,-18,-42
1491087711799,2,-44,-1,-12,-21,9,11,5,-21
1491087711799,2,-13,10,-29,-7,-14,19,7,-9
1491087711834,3,-20,11,19,13,29,-2,-25,-12
1491087711834,3,-54,12,0,-29,5,24,7,19
1491087711834,0,66,-26,-19,-15,-28,-15,-11,7
1491087711834,0,9,-3,15,25,16,30,54,20
1491087711835,1,-50,9,-6,12,33,6,-5,7
1491087711835,1,27,108,25,3,-20,3,-7,13
1491087711836,2,-55,127,-11,5,-46,-8,-14,-10
1491087711836,2,10,-17,32,25,5,2,-35,-3
1491087711871,3,-23,-87,-23,16,11,36,28,-5
1491087711871,3,72,-83,7,12,28,35,17,17
1491087711872,0,5,-4,13,11,64,84,17,-4
1491087711872,0,59,-86,-24,-19,1,-19,-27,3
1491087711872,1,-61,-82,-6,-10,-64,35,1,-17
1491087711872,1,20,-128,35,10,-8,-37,-25,12
1491087711873,2,-17,-128,-24,-18,-5,-13,-20,-1
1491087711873,2,-48,-107,3,-2,18,42,17,-12
1491087711909,3,2,-85,-7,15,53,14,0,-16
1491087711909,3,94,0,-45,-10,-6,34,-4,10
1491087711909,0,-23,-79,21,2,-40,-20,1,-4
1491087711909,0,7,-55,12,23,-11,-2,-21,-22
1491087711911,1,46,-45,16,22,10,15,5,17
1491087711911,1,71,-81,-21,-12,14,27,28,-29
1491087711946,2,-26,-64,-6,18,25,-26,-2,28
1491087711946,2,-23,-79,-4,2,-24,-7,-2,14
1491087711947,3,25,-57,-10,-31,-33,20,29,-7
1491087711947,3,-90,-60,3,4,-9,-21,-4,1
1491087711947,0,8,-110,-29,-17,40,11,-36,-10
1491087711947,0,25,-20,29,-28,6,22,-6,-6
1491087711948,1,-2,43,5,-3,34,28,14,6
1491087711948,1,-9,25,-19,-17,-82,-62,-55,-1
1491087711984,2,-27,-16,-28,-28,-14,20,-11,-5
1491087711984,2,-84,10,1,2,16,-18,35,-6
1491087711985,3,-12,-44,3,-12,24,19,-11,-12
1491087711985,3,-4,-67,-8,5,13,-11,-13,-5
1491087711985,0,-41,-107,17,20,-22,-29,-39,-10
1491087711985,0,5,108,5,-9,-4,9,27,16
1491087711986,1,-16,127,-7,12,-5,2,-8,-15
1491087711986,1,-18,46,-6,-8,3,8,40,16
1491087712021,2,4,21,7,10,-8,28,-6,-31
1491087712021,2,25,-34,1,6,62,96,-14,4
1491087712022,3,-12,-38,2,-4,-88,-53,-57,-2
1491087712022,3,29,42,-6,0,71,8,14,21
1491087712022,0,-72,62,-13,-43,-2,18,7,-17
1491087712022,0,15,69,-19,-24,-14,-31,1,4
1491087712023,1,-5,-33,9,1,-55,-21,-31,-9
1491087712023,1,-45,68,7,33,27,27,20,2
1491087712059,2,34,104,12,6,-1,5,58,26
1491087712059,2,-2,18,-19,-31,-22,-22,-24,-13
1491087712059,3,49,-5,-21,1,37,14,54,20
1491087712059,3,-62,13,16,23,-23,-9,25,-6
1491087712060,0,-3,122,14,28,80,-6,14,7
1491087712060,0,10,104,-6,29,19,82,-32,0
1491087712096,1,-34,-20,7,-36,-17,-91,-59,-19
1491087712096,1,63,-46,-30,-47,-47,-46,-70,-35
1491087712097,2,-43,2,-11,-40,-55,40,75,26
1491087712097,2,-60,-79,-25,17,11,-69,-42,-20
1491087712098,3,36,-14,2,-8,-15,34,48,44
1491087712098,3,19,-30,33,73,127,116,80,17
1491087712099,0,48,-116,14,24,-29,-93,-108,-56
1491087712099,0,2,-118,10,11,32,2,98,25
1491087712134,1,-53,-32,-19,25,38,-50,-82,-46
1491087712134,1,-82,22,-10,-41,-99,-75,-64,-20
1491087712135,2,124,110,19,4,11,127,94,60
1491087712135,2,-121,77,9,-3,44,-42,-36,-17
1491087712135,3,77,39,-7,-28,-90,-26,22,48
1491087712135,3,16,-22,-26,-20,41,83,45,-8
1491087712136,0,34,-5,3,17,15,-105,-62,22
1491087712136,0,-35,-119,5,9,38,69,79,7
1491087712171,1,57,-28,-3,-1,-6,4,-53,-54
1491087712171,1,-23,-47,-8,-4,-107,-36,-93,-28
1491087712172,2,41,2,-7,12,27,70,45,14
1491087712172,2,53,-8,14,31,-4,79,0,4
1491087712172,3,-128,33,-13,20,127,49,57,0
1491087712172,3,66,12,5,-38,-121,-69,22,-5
1491087712173,0,-128,34,-1,-11,5,53,-69,-17
1491087712173,0,14,32,-8,-23,27,-128,-24,-9
1491087712209,1,-23,17,26,42,25,52,23,38
1491087712209,1,20,34,-7,-29,50,-82,-92,-63
1491087712210,2,-18,-10,-9,-33,27,-21,-5,-18
1491087712210,2,-19,-46,-10,2,-64,35,32,5
1491087712210,3,58,57,-13,0,-2,55,77,21
1491087712210,3,-13,75,6,63,52,94,108,38
1491087712246,0,-39,59,-7,-4,-2,-13,-61,-30
1491087712246,0,91,127,27,16,1,65,-39,-12
1491087712247,1,-108,123,-7,-44,-52,-82,-27,-12
1491087712247,1,11,113,-4,-23,-55,59,74,34
1491087712247,2,-88,51,-10,1,-67,64,88,12
1491087712247,2,70,-19,-10,-18,59,-85,-112,-48
1491087712249,3,104,-110,-1,-5,-63,63,18,5
1491087712249,3,-48,-74,0,-11,1,-20,-32,54
1491087712284,0,-15,-114,-4,26,-71,-3,-2,-29
1491087712284,0,-38,4,3,25,75,9,-62,-33
1491087712285,1,-8,10,-16,-5,-33,0,8,3
1491087712285,1,38,-128,28,-19,-21,-5,18,-14
1491087712287,2,9,-112,-9,15,12,46,7,2
1491087712287,2,40,-107,-10,-33,-51,-108,73,43
1491087712288,3,-127,-41,-22,13,-20,-5,-58,-43
1491087712288,3,66,33,-4,-2,1,-1,6,26
1491087712322,0,-35,10,6,10,33,-18,13,0
1491087712322,0,52,38,1,-11,-55,83,80,14
1491087712324,1,58,-5,14,22,96,39,19,34
1491087712324,1,-46,-61,-24,6,-23,-57,25,3
1491087712325,2,83,39,-5,-46,104,-31,-34,-33
1491087712325,2,-46,42,-12,-48,-128,-94,5,41
1491087712360,3,-39,0,-5,-10,6,36,-55,-31
1491087712360,3,26,96,14,72,103,90,25,23
1491087712362,0,26,2,-14,11,-24,-75,-11,-26
1491087712362,0,-104,-78,-22,-17,-21,31,-40,-82
1491087712363,1,92,-92,-18,-27,-11,-14,33,14
1491087712363,1,-33,-97,-30,-9,20,-83,-49,-4
1491087712364,2,-81,-62,-14,26,-8,19,-50,-24
1491087712364,2,80,40,11,11,-60,60,24,51
1491087712397,3,0,6,16,1,66,-80,31,-10
1491087712397,3,27,54,-27,-32,-9,70,82,12
1491087712434,0,35,20,8,2,0,-21,-12,19
1491087712434,0,-76,40,-11,4,-90,-10,-42,-4
1491087712435,1,-78,96,-8,10,106,46,29,-4
1491087712435,1,93,70,19,25,-38,-2,-57,2
1491087712435,2,-59,1,-8,-32,-11,-32,18,18
1491087712435,2,89,-82,-8,18,-5,-35,-118,-37
1491087712436,3,24,-81,9,-21,-7,88,35,33
1491087712436,3,-51,-65,-29,-25,-17,-34,-5,-20
1491087712471,0,-35,-22,9,37,47,68,-33,-5
1491087712471,0,43,5,-2,1,-20,5,101,23
1491087712472,1,4,56,-6,22,-17,-96,-13,4
1491087712472,1,77,-10,0,-8,-77,58,-81,17
1491087712473,2,127,71,42,17,42,-36,24,0
1491087712473,2,0,41,-12,-17,-35,-80,-56,-7
1491087712473,3,-128,6,1,22,-17,-16,-27,-36
1491087712473,3,36,32,21,23,22,14,-28,14
1491087712509,0,103,32,7,-4,62,60,56,12
1491087712509,0,8,20,-6,11,5,127,61,25
1491087712510,1,-11,-52,-3,-37,-72,-101,-71,-47
1491087712510,1,-93,-53,1,-7,8,13,49,-16
1491087712510,2,44,8,-22,-2,-21,-3,-2,26
1491087712510,2,-121,23,42,12,105,85,31,-13
1491087712511,3,44,-7,21,27,-28,-20,-48,-11
1491087712511,3,48,-18,-4,-31,24,-14,24,-11
1491087712546,0,-121,-69,3,-18,-36,48,76,11
1491087712546,0,-50,-62,-4,-28,-9,-42,-5,18
1491087712547,1,79,-28,10,25,37,55,-26,7
1491087712547,1,-87,26,26,18,20,-36,29,-7
1491087712548,2,-28,-13,-31,-17,-74,-17,-40,-10
1491087712548,2,-31,3,-12,-21,-1,-40,17,-30
1491087712548,3,60,18,7,-10,-21,3,15,-9
1491087712548,3,-19,-5,24,30,37,16,-23,-12
1491087712583,0,-1,-9,-8,6,9,-29,-13,9
1491087712583,0,6,16,-5,-7,-14,-1,0,-6
1491087712584,1,-37,21,3,-22,-11,42,35,19
1491087712584,1,-21,-14,-14,-18,-22,-52,-77,-24
1491087712585,2,-38,-43,4,6,7,-4,19,-2
1491087712585,2,97,-23,6,31,49,-24,-8,9
1491087712586,3,23,30,-10,-6,-18,26,57,17
1491087712586,3,-111,-6,-4,5,-23,4,-45,-17
1491087712621,0,79,2,5,4,-24,-18,-43,-10
1491087712621,0,11,0,-6,4,6,-1,-2,6
1491087712622,1,-13,-13,-10,11,-12,-25,-7,-9
1491087712622,1,55,-2,24,35,30,-9,-29,11
1491087712622,2,-64,-47,-28,-48,-30,16,55,-22
1491087712622,2,76,-9,8,10,12,9,13,12
1491087712623,3,-16,23,3,-5,19,55,53,-19
1491087712623,3,30,-25,-17,-20,-9,-95,-101,-11
1491087712659,0,-33,23,-2,-19,-46,-11,38,9
1491087712659,0,83,-3,-14,-4,10,21,-25,2
1491087712660,1,-11,2,-12,-19,8,27,43,18
1491087712660,1,-88,-5,18,11,-18,-7,39,-24
1491087712660,2,98,26,4,22,20,-12,-6,14
1491087712660,2,-128,-2,-12,-16,0,0,-18,-25
1491087712661,3,29,-19,0,35,-7,-55,-48,3
1491087712661,3,85,37,12,-9,34,90,70,15
1491087712696,0,-57,19,9,11,-1,-20,-13,-8
1491087712696,0,-20,6,7,7,-11,-32,-22,-2
1491087712697,1,57,12,0,-9,-17,0,-30,1
1491087712697,1,51,-2,-22,-21,-31,16,1,-5
1491087712697,2,-27,6,-1,-12,24,48,-78,-23
1491087712697,2,9,0,-14,-19,-4,-62,12,-9
1491087712699,3,-77,-16,-7,5,-4,-46,-81,-9
1491087712699,3,38,-4,-9,7,-31,35,51,17
1491087712734,0,29,-59,-7,-20,28,-2,37,-3
1491087712734,0,-47,-19,17,23,-36,-3,-38,-10
1491087712735,1,-100,12,17,6,4,-24,22,-35
1491087712735,1,60,-3,-11,-33,-46,-39,-49,5
1491087712735,2,-6,-62,-16,-27,7,64,0,-5
1491087712735,2,5,29,-9,2,-38,-27,-7,17
1491087712736,3,29,21,10,21,103,19,-19,-14
1491087712736,3,-119,-16,-1,30,31,22,18,-9
1491087712771,0,-20,7,12,20,6,9,-11,-3
1491087712771,0,85,-8,4,-38,-82,-10,71,30
1491087712772,1,-12,-10,-16,-28,52,-18,-72,-17
1491087712772,1,10,-10,-18,10,3,66,55,2
1491087712772,2,-61,-56,-5,-56,1,-128,-91,0
1491087712772,2,6,14,9,96,58,127,-79,-33
1491087712773,3,100,43,10,-2,12,45,85,64
1491087712773,3,-96,-51,-35,-57,-101,56,-99,-82
1491087712809,0,127,125,20,24,90,125,127,102
1491087712809,0,10,-115,17,-16,-26,-128,-128,-20
1491087712810,1,-112,8,-13,-34,-92,127,-21,-26
1491087712810,1,25,-35,2,31,127,-19,25,57
1491087712810,2,-112,63,-6,5,-128,-46,4,-74
1491087712810,2,-32,36,-26,-53,6,45,92,8
1491087712811,3,-12,-33,-9,12,-48,-8,33,-14
1491087712811,3,11,-25,42,43,86,-47,8,41
1491087712846,0,-39,11,26,41,6,23,49,34
1491087712846,0,16,55,-2,-41,38,-63,-42,-26
1491087712847,1,-30,-105,-33,-27,-128,-88,83,-6
1491087712847,1,-31,74,18,7,75,91,-34,-4
1491087712847,2,42,-33,-35,14,-37,-6,56,78
1491087712847,2,68,-5,44,11,104,-49,-70,-70
1491087712849,3,-76,21,-7,-12,-20,42,-85,-20
1491087712849,3,30,25,21,18,44,21,-23,12
1491087712883,0,37,-45,-24,45,-59,-90,-22,10
1491087712883,0,-19,-6,-36,-94,-53,110,82,59
1491087712886,1,5,-43,27,35,58,-111,-54,-50
1491087712886,1,69,38,-1,37,40,114,127,98
1491087712889,2,-17,-48,35,15,-28,-68,-68,-52
1491087712889,2,-39,42,-28,-17,-113,13,-1,28
1491087712889,3,9,-39,22,-28,94,-11,-59,64
1491087712889,3,-128,44,17,28,27,62,-10,-33
1491087712921,0,104,-76,29,-19,95,-112,45,1
1491087712921,0,-109,86,-12,99,-54,98,-54,-70
1491087712922,1,83,-59,-43,-114,-45,-94,46,-6
1491087712922,1,-24,23,-3,-8,51,-8,-98,-26
1491087712923,2,57,51,20,-8,-24,32,11,33
1491087712923,2,-73,59,9,-1,-77,-13,6,19
1491087712959,3,65,-32,-2,33,43,127,126,56
1491087712959,3,-14,-63,-36,-8,-128,-128,-104,-33
1491087712961,0,-27,-14,-5,-16,127,91,41,-71
1491087712961,0,-72,0,33,29,-9,42,51,22
1491087712962,1,107,31,-24,40,68,20,5,-14
1491087712962,1,-57,68,22,33,-116,-63,38,-8
1491087712963,2,-94,48,-52,-46,-83,103,-4,-3
1491087712963,2,-80,-128,-14,22,127,-102,10,-23
1491087712997,3,76,116,20,-28,-82,31,14,21
1491087712997,3,-56,-62,-19,-84,74,58,-4,-8
1491087712998,0,-51,54,-7,96,48,76,-36,-14
1491087712998,0,70,-33,-7,-55,-54,-103,45,34
1491087712999,1,-120,-23,40,-43,100,27,-107,-84
1491087712999,1,50,-70,-40,50,-128,-115,-16,-61
1491087713000,2,42,21,5,-20,58,57,43,50
1491087713000,2,7,95,-9,56,127,95,43,14
1491087713034,3,5,-51,6,-22,-81,-97,-43,43
1491087713034,3,-51,56,-15,16,-55,101,79,77
1491087713035,0,-70,72,-3,-54,29,60,-117,-77
1491087713035,0,91,-36,-13,121,-35,-51,-18,42
1491087713035,1,-77,54,11,18,-66,83,-125,-14
1491087713035,1,44,-99,-51,-71,123,-30,80,97
1491087713036,2,27,-84,11,48,-118,47,42,13
1491087713036,2,11,5,15,-95,104,25,11,-1
1491087713071,3,-53,-57,-51,-61,-36,83,41,-2
1491087713071,3,-8,25,65,41,43,-42,-25,-45
1491087713072,0,-96,20,-40,-29,94,-3,98,-51
1491087713072,0,43,-113,1,-51,-119,96,35,16
1491087713073,1,-31,34,3,-1,51,-106,34,36
1491087713073,1,98,-21,8,28,-40,127,127,31
1491087713109,2,-81,66,-13,-22,-58,-50,-61,54
1491087713109,2,-4,-68,11,12,-33,-76,-125,-107
1491087713110,3,-104,31,-44,39,30,21,11,-56
1491087713110,3,34,54,77,68,-70,18,81,68
1491087713110,0,62,-49,-15,30,32,-70,-30,-105
1491087713110,0,6,27,33,32,-55,17,47,38
1491087713111,1,-22,49,-39,-33,-128,88,-25,-34
1491087713111,1,-78,-62,-7,30,92,-128,-128,-109
1491087713146,2,126,71,4,18,97,30,28,47
1491087713146,2,-82,-25,-16,-85,-77,60,118,-75
1491087713147,3,0,-81,2,61,105,-117,6,8
1491087713147,3,-58,-8,-3,40,-75,113,78,27
1491087713148,0,-79,23,20,35,-34,25,-128,46
1491087713148,0,34,-28,-37,-56,41,-85,7,25
1491087713148,1,-65,-21,28,39,115,103,22,-77
1491087713148,1,114,52,-43,-120,-107,61,-7,-26
1491087713184,2,11,-117,8,-109,-34,-111,84,67
1491087713184,2,15,40,20,46,-15,127,22,0
1491087713184,3,-21,67,23,68,47,31,31,96
1491087713184,3,1,-85,-62,-116,-30,-95,-69,-76
1491087713185,0,32,15,28,48,-114,127,-26,-19
1491087713185,0,-14,1,-32,17,127,-51,74,98
1491087713186,1,40,-111,0,-69,-83,-93,-31,-68
1491087713186,1,-43,73,47,54,92,122,58,32
1491087713221,2,-18,-127,0,-67,-128,-128,-60,-67
1491087713221,2,-107,-77,-21,13,0,-37,-79,-12
1491087713222,3,127,-30,-3,27,54,20,39,12
1491087713222,3,-25,-40,-1,-21,104,-12,-49,20
1491087713223,0,-53,40,-22,-27,-45,-6,37,-26
1491087713223,0,25,80,-1,-28,29,46,59,46
1491087713259,1,-22,127,31,67,-128,94,116,62
1491087713259,1,11,13,-25,-31,53,-1,-112,-78
1491087713260,2,31,-60,36,46,44,-54,-43,-59
1491087713260,2,-27,127,3,-17,26,4,22,15
1491087713260,3,9,36,-26,-85,-76,-48,-10,23
1491087713260,3,16,120,-1,65,95,-9,46,30
1491087713261,0,5,119,-18,17,-9,108,2,35
1491087713261,0,1,-111,-4,-40,-102,-91,-128,-87
1491087713296,1,37,77,4,41,-9,126,101,16
1491087713296,1,-68,-43,9,-40,11,-82,-63,-13
1491087713297,2,-15,-68,2,9,4,92,52,38
1491087713297,2,28,-64,2,31,89,-2,-39,22
1491087713297,3,40,-69,19,4,-104,-35,-4,11
1491087713297,3,-10,88,-8,32,33,54,36,-6
1491087713299,0,-21,89,-22,-65,-89,-105,-81,-30
1491087713299,0,0,36,10,6,-93,3,30,-39
1491087713333,1,-24,-90,-16,7,127,-125,-83,-7
1491087713333,1,24,7,8,-51,-128,19,41,-1
1491087713334,2,24,-10,11,18,127,112,42,48
1491087713334,2,8,46,26,-29,77,82,17,-3
1491087713335,3,-22,102,-19,-128,-93,-91,-31,-23
1491087713335,3,7,23,-57,-128,36,-128,-98,-20
1491087713371,0,-10,-21,7,-56,21,58,68,12
1491087713371,0,-5,-34,16,-38,36,-55,-40,-12
1491087713372,1,6,-51,21,-17,41,40,22,15
1491087713372,1,17,-68,41,-75,41,127,68,-6
1491087713373,2,13,-7,-8,-10,-70,-14,11,-12
1491087713373,2,22,-45,-20,34,24,-36,-56,16
1491087713374,3,-35,-33,-11,105,-82,40,-44,5
1491087713374,3,3,-22,-18,122,-110,-17,40,2
1491087713409,0,-20,-31,-18,91,99,-42,-22,-8
1491087713409,0,39,24,8,100,-10,20,11,-7
1491087713410,1,6,50,7,117,105,102,44,9
1491087713410,1,0,72,52,124,40,37,70,12
1491087713410,2,13,-47,-14,-25,-110,-118,-45,-18
1491087713410,2,-14,-46,-46,7,-53,-15,22,29
1491087713411,3,-1,-17,6,31,100,-53,-98,-64
1491087713411,3,-25,44,-3,21,-111,35,65,18
1491087713446,0,5,116,52,58,127,82,47,1
1491087713446,0,-3,127,-44,-77,-128,-63,-46,10
1491087713447,1,-17,11,-41,-18,54,40,42,0
1491087713447,1,56,-71,60,96,108,48,47,37
1491087713447,2,-8,-83,-19,-51,-128,-66,-66,-20
1491087713447,2,-23,-97,-43,-66,-39,-20,-48,-27
1491087713448,3,8,-69,33,83,53,4,-1,0
1491087713448,3,0,-107,-1,-26,13,14,-25,-16
1491087713484,0,-19,-62,38,3,23,1,-9,3
1491087713484,0,-14,-51,-15,10,-50,-18,31,-1
1491087713484,1,-7,-25,-35,-60,-25,-73,-30,12
1491087713484,1,3,-48,-5,1,1,46,-6,-14
1491087713485,2,30,-33,59,40,98,107,45,-7
1491087713485,2,8,-1,-3,-37,-49,-26,28,27
1491087713521,3,-58,-3,-11,-16,-96,-81,-45,13
1491087713521,3,-27,-25,-48,-47,34,32,-15,-18
1491087713559,0,6,-102,16,59,109,48,16,6
1491087713559,0,-34,-75,39,-10,-35,52,7,-15
1491087713560,1,-2,-72,31,28,-111,17,37,2
1491087713560,1,-10,-80,-14,-17,24,1,6,-8
1491087713561,2,27,-103,-33,3,-79,58,3,14
1491087713561,2,-7,-40,22,38,127,2,-24,-33
1491087713561,3,22,35,-53,-128,-124,-87,-31,-32
1491087713561,3,-48,109,-18,-17,-51,-84,-18,-4
1491087713596,0,-2,63,-6,36,1,17,7,9
1491087713596,0,23,-75,36,101,102,92,46,16
1491087713597,1,18,-63,25,-126,93,51,28,27
1491087713597,1,27,-33,13,-44,-104,-25,-30,1
1491087713597,3,-11,-27,60,124,119,111,43,-16
1491087713597,3,-5,3,-67,-112,-128,-113,-57,-1
1491087713598,0,-23,8,-35,35,53,-44,-19,4
1491087713598,0,44,18,18,57,47,46,8,19
1491087713634,1,-10,-21,0,34,90,51,20,-6
1491087713634,1,6,-33,94,77,67,29,8,12
1491087713634,2,20,30,-25,-57,-42,30,-7,-4
1491087713634,2,9,-53,-26,15,-12,50,2,-11
1491087713635,3,-37,34,33,16,-52,55,31,12
1491087713635,3,-15,21,-39,-111,-128,-92,-47,-23
1491087713636,0,21,100,-25,-3,108,-33,-17,-7
1491087713636,0,37,73,3,-91,-104,23,9,2
1491087713671,1,24,101,-18,41,-29,-4,-12,6
1491087713671,1,15,37,-44,-26,8,21,-9,-6
1491087713672,2,-20,19,41,40,25,61,23,-6
1491087713672,2,15,-26,-25,-34,88,40,13,4
1491087713673,3,-6,-56,21,3,-118,-49,-30,-6
1491087713673,3,28,-114,-37,34,25,-30,-14,1
1491087713674,0,7,-128,-42,-2,1,-3,15,10
1491087713674,0,6,-1,-10,13,-24,-52,-8,-15
1491087713709,1,-13,-31,-41,-28,-4,-52,-2,-14
1491087713709,1,64,31,-13,96,34,-8,6,23
1491087713710,2,-103,95,20,9,-97,-8,-18,-18
1491087713710,2,15,91,-8,22,14,83,-3,8
1491087713714,3,78,48,-42,-38,18,125,9,-6
1491087713714,3,5,55,42,39,25,127,14,-7
1491087713715,0,23,55,23,-46,-12,49,1,2
1491087713715,0,-2,44,10,-21,-57,-24,-6,-5
1491087713746,1,-16,9,9,20,30,-19,2,7
1491087713746,1,-34,-14,20,38,-22,-4,-7,-14
1491087713747,2,66,-23,-4,-34,-5,-9,18,23
1491087713747,2,-31,-13,12,-2,24,-25,-14,-2
1491087713748,3,29,9,-30,-36,-86,-37,-30,12
1491087713748,3,-52,0,7,-19,8,-35,21,8
1491087713749,0,5,-14,-49,-1,12,-94,-31,-26
1491087713749,0,-31,1,41,50,26,-85,14,-17
1491087713783,1,6,17,-7,-24,3,-128,3,-1
1491087713783,1,-9,-17,9,-49,26,-125,-10,-20
1491087713784,2,2,-5,12,-13,-15,-71,13,9
1491087713784,2,7,-23,-11,-25,21,-78,-4,2
1491087713785,3,8,-14,27,48,46,-50,15,14
1491087713785,3,-14,-14,49,38,-77,-48,-16,-13
1491087713786,0,-22,-15,4,35,-13,-78,-15,-5
1491087713786,0,-19,8,3,53,-16,-28,-5,14
1491087713821,1,18,-12,38,1,-8,36,-4,9
1491087713821,1,-12,-11,-6,15,54,61,4,0
1491087713822,2,-37,3,17,-1,-34,25,7,-1
1491087713822,2,-19,16,-44,-36,-43,7,-25,-10
1491087713823,3,33,-12,42,30,-4,9,16,22
1491087713823,3,-16,-4,2,-16,9,0,-7,-5
1491087713824,0,23,-16,-6,-21,27,4,-7,0
1491087713824,0,-6,-7,25,2,1,15,13,-1
1491087713859,1,2,21,-13,-21,4,-39,10,-1
1491087713859,1,-31,-14,-9,-31,-7,-32,-11,-11
1491087713860,2,-16,9,-5,-4,20,21,28,27
1491087713860,2,37,-12,-8,9,-20,-38,-25,-25
1491087713861,3,-39,-34,-12,-16,-15,-6,1,-11
1491087713861,3,-1,-29,-15,1,15,6,-29,-10
1491087713861,0,-9,-21,23,-4,-23,-6,-13,1
1491087713861,0,-6,-8,-8,-23,5,11,7,0
1491087713896,1,-44,7,-14,4,75,3,2,-1
1491087713896,1,99,-11,18,-16,-10,-6,-5,13
1491087713897,2,-3,12,-4,-27,-23,-5,42,4
1491087713897,2,35,19,19,2,-2,3,5,23
1491087713898,3,-31,-28,-31,-9,10,27,-13,-22
1491087713898,3,-40,-19,-25,10,11,-6,-3,7
1491087713899,0,4,6,8,-25,20,55,15,7
1491087713899,0,2,36,10,22,-7,-12,-10,-3
1491087713933,1,29,-4,-19,14,-7,-2,-10,-7
1491087713933,1,-72,27,4,-17,-2,-36,-13,7
1491087713934,2,52,-46,-8,5,-3,-5,13,-27
1491087713934,2,6,27,3,-10,5,1,-19,-16
1491087713935,3,89,122,18,4,31,21,9,21
1491087713935,3,103,95,10,16,-25,-7,-10,-14
1491087713971,0,104,-85,18,-28,-32,-3,-8,-2
1491087713971,0,21,-124,7,-4,12,15,-24,-8
1491087713972,1,-7,-128,-5,-13,-23,16,18,23
1491087713972,1,-93,-74,-13,-7,5,17,32,-5
1491087713973,2,-53,-49,-26,25,10,8,-12,5
1491087713973,2,28,19,-6,20,29,73,47,28
1491087713973,3,-33,78,-1,4,-1,47,-5,3
1491087713973,3,3,-50,-12,34,-31,28,2,-12
1491087714009,0,-74,-35,-6,28,7,-58,-35,-30
1491087714009,0,-1,-119,-6,-2,-6,-33,-12,-18
1491087714009,1,-79,-4,-4,-9,-11,8,15,0
1491087714009,1,10,-15,-41,-47,-15,19,19,9
1491087714010,2,-55,27,20,-7,-14,47,-39,-23
1491087714010,2,33,72,8,-8,6,-4,12,15
1491087714011,3,-14,-34,-16,-23,-39,23,-35,-16
1491087714011,3,-15,-48,-3,-20,37,-28,14,4
1491087714046,0,-6,-25,-6,-9,41,70,51,2
1491087714046,0,-52,-27,7,4,18,43,17,10
1491087714047,1,23,49,-10,-5,-53,-31,4,-7
1491087714047,1,-24,27,-7,-29,-76,-36,-20,5
1491087714048,2,-37,10,-17,-9,21,48,2,-8
1491087714048,2,62,-29,-8,2,30,5,-26,-7
1491087714049,3,-68,-99,26,4,68,21,15,-6
1491087714049,3,-76,-8,4,18,34,14,59,4
1491087714084,0,13,56,-12,11,38,-13,22,8
1491087714084,0,-11,13,26,4,-73,61,87,12
1491087714085,1,48,-56,-24,-41,-80,-89,-58,7
1491087714085,1,-59,-1,-2,-16,-38,-24,-20,-10
1491087714086,2,14,-61,11,7,-6,-11,-79,-32
1491087714086,2,35,-5,-16,22,47,22,-5,13
1491087714121,3,-34,-63,12,1,11,-11,-1,-20
1491087714121,3,-18,84,-10,-6,-32,42,26,12
1491087714122,0,22,-81,-4,9,48,4,25,21
1491087714122,0,-53,-23,-15,-17,-30,-92,-23,-12
1491087714123,1,72,115,-1,-3,9,11,-3,-1
1491087714123,1,27,86,21,15,71,62,-1,-12
1491087714123,2,23,51,7,12,-22,27,-39,-7
1491087714123,2,-120,-90,6,-14,32,1,20,2
1491087714160,3,-9,-62,-4,0,-94,-39,25,-7
1491087714160,3,84,0,-35,-50,-92,-100,-33,-7
1491087714161,0,91,34,8,16,48,-24,-2,9
1491087714161,0,11,64,23,16,90,2,1,-8
1491087714162,1,-96,47,-6,46,31,86,75,7
1491087714162,1,88,8,16,-18,-19,-34,-67,0
1491087714162,2,82,-85,-13,-62,-55,7,21,11
1491087714162,2,-20,-77,-12,18,26,-52,-70,-35
1491087714196,3,-26,-98,-6,22,58,31,8,4
1491087714196,3,71,-128,-3,43,15,36,42,-6
1491087714197,0,-128,36,-10,3,-89,-39,-4,-4
1491087714197,0,103,65,-14,-44,-83,-4,-37,-4
1491087714198,1,43,-51,12,-9,-11,-13,-24,8
1491087714198,1,-114,61,-1,24,-9,-27,21,-4
1491087714234,2,58,18,-2,22,64,31,-30,-8
1491087714234,2,-85,127,16,3,-21,26,53,-10
1491087714235,3,-64,13,-8,-4,47,-58,-118,-61
1491087714235,3,27,-128,-11,-11,3,-6,-56,21
1491087714237,0,20,-97,-6,3,-58,-6,66,-27
1491087714237,0,-50,-22,-12,-18,53,51,-29,-7
1491087714237,1,38,12,-8,-24,-42,-16,30,49
1491087714237,1,-114,8,1,-29,46,-9,-45,-36
1491087714271,2,-15,90,-3,-26,-110,-76,21,17
1491087714271,2,11,6,0,-11,38,7,22,39
1491087714272,3,-6,55,23,34,92,5,-1,-25
1491087714272,3,-23,69,5,-6,-51,127,105,-9
1491087714273,0,-64,56,-4,-59,-84,-105,-121,-17
1491087714273,0,-41,94,-7,13,-39,42,83,20
1491087714274,1,25,127,-11,9,32,-61,-7,14
1491087714274,1,42,127,-9,46,79,4,-41,-14
1491087714309,2,-106,117,-5,11,25,42,33,31
1491087714309,2,93,81,2,-9,-108,32,-18,-19
1491087714310,3,49,57,-2,-56,68,78,55,39
1491087714310,3,-69,-96,-16,12,-26,-24,-23,-14
1491087714311,0,35,-50,28,39,49,-42,19,12
1491087714311,0,-91,-93,-23,20,-24,-22,-56,-2
1491087714311,1,-47,-70,-10,53,-38,43,-57,-35
1491087714311,1,93,-77,1,-68,-16,-39,95,27
1491087714346,2,-22,-23,-43,-41,1,43,5,17
1491087714346,2,8,41,41,45,23,88,5,-6
1491087714347,3,-91,21,9,-7,-29,60,-36,-80
1491087714347,3,39,-13,2,-2,54,-21,-31,43
1491087714348,0,13,-95,8,32,19,-19,33,16
1491087714348,0,31,1,-7,9,68,32,64,46
1491087714383,1,-23,-20,-1,-11,-98,-68,-66,-74
1491087714383,1,5,4,-3,-33,67,41,41,20
1491087714384,2,31,15,-16,6,-12,9,-32,-2
1491087714384,2,-26,-6,-31,3,2,-50,-18,-32
1491087714385,3,-58,-19,18,24,-11,53,-42,-6
1491087714385,3,68,-39,-8,5,57,52,24,-14
1491087714386,0,-30,37,18,-11,-83,-103,-36,-2
1491087714386,0,47,-107,-17,-37,27,-21,-68,-15
1491087714421,1,4,-74,-28,-28,-79,-107,-26,-29
1491087714421,1,111,-43,1,-11,-39,8,63,6
1491087714422,2,-91,35,25,34,102,121,73,-21
1491087714422,2,-98,28,-1,2,29,-49,-51,-12
1491087714422,3,80,71,0,-8,-42,-8,44,42
1491087714422,3,-25,44,20,12,79,75,15,7
1491087714423,0,111,8,-22,-7,-22,0,-24,-8
1491087714423,0,-1,-7,-10,-57,-114,4,52,6
1491087714459,1,22,9,5,-15,43,-66,-3,2
1491087714459,1,-34,11,-5,9,-32,-17,-23,31
1491087714460,2,5,38,-15,-5,80,12,-11,-12
1491087714460,2,11,-89,19,8,-39,-34,1,-12
1491087714460,3,91,42,6,41,51,58,50,44
1491087714460,3,-54,20,11,31,-40,-51,-48,-18
1491087714461,0,-6,22,35,20,9,-10,-51,-41
1491087714461,0,-54,-59,-20,-35,-4,-9,-33,-19
1491087714496,1,-15,-32,11,-7,7,6,26,20
1491087714496,1,37,45,-4,-28,-17,38,-95,-9
1491087714497,2,-31,-15,1,23,-95,-16,-7,4
1491087714497,2,57,35,12,1,52,43,5,24
1491087714498,3,-37,-41,12,-29,-24,-41,17,32
1491087714498,3,-19,-89,-33,-50,-36,-14,34,-3
1491087714533,0,-17,-25,-5,-12,44,21,39,6
1491087714533,0,3,30,9,43,-22,-66,-26,-16
1491087714535,1,56,17,-11,4,57,27,22,10
1491087714535,1,-79,48,6,20,-33,-51,-83,-31
1491087714535,2,75,-2,6,11,-42,1,42,42
1491087714535,2,-29,-89,3,56,32,-11,-13,-19
1491087714536,3,13,-65,0,13,32,2,-17,0
1491087714536,3,14,25,-15,38,-85,52,27,-3
1491087714571,0,10,92,34,33,99,-57,-11,-13
1491087714571,0,54,68,-13,-15,25,13,-26,0
1491087714609,1,-29,-92,-11,-43,3,-2,70,7
1491087714609,1,-5,32,-15,-9,-40,38,57,-9
1491087714610,2,-27,-18,-2,-10,-82,-57,22,31
1491087714610,2,22,21,-16,-18,-16,-51,-91,-26
1491087714611,3,-80,81,-21,3,-93,16,-18,-36
1491087714611,3,-15,-66,3,3,59,-65,-34,1
1491087714612,0,54,28,-20,-23,6,43,1,-24
1491087714612,0,47,11,11,2,84,-2,13,-16
1491087714646,1,82,87,38,42,-28,115,0,30
1491087714646,1,-48,-44,-12,-49,105,-34,9,-13
1491087714647,2,47,-8,6,-4,-10,11,-34,1
1491087714647,2,-125,2,-3,-20,-7,111,127,14
1491087714647,3,97,-1,-17,-32,1,-128,-128,-58
1491087714647,3,-47,-64,8,-77,-126,-11,12,42
1491087714648,0,74,-61,19,3,79,50,35,47
1491087714648,0,-64,-28,6,-11,5,-52,-50,-36
1491087714683,1,122,21,-16,-47,-54,46,-3,18
1491087714683,1,-70,-48,-28,-22,-46,1,-2,-24
1491087714684,2,-31,-80,-7,-16,79,56,17,-3
1491087714684,2,41,40,-6,13,-11,111,94,27
1491087714685,3,39,-45,31,52,45,-104,-109,-23
1491087714685,3,-62,63,-13,40,-22,-1,-23,9
1491087714686,0,32,58,-46,-3,-26,-25,81,-10
1491087714686,0,84,70,42,37,36,-7,-105,10
1491087714721,1,17,-44,-15,-4,34,36,87,13
1491087714721,1,29,54,-21,-15,-60,99,98,-5
1491087714722,2,-121,-93,29,9,-16,-80,-52,-68
1491087714722,2,91,50,12,56,56,72,-11,75
1491087714723,3,3,71,42,38,91,83,46,13
1491087714723,3,-9,108,14,18,-23,-75,16,-8
1491087714724,0,1,6,-59,-82,-96,-19,-78,9
1491087714724,0,33,-128,-37,-24,-77,-74,20,-4
1491087714759,1,62,-21,-27,54,85,110,21,27
1491087714759,1,-37,-41,48,116,63,38,69,-8
1491087714760,2,18,118,67,41,-62,-89,-68,-3
1491087714760,2,28,-14,-28,-65,-112,29,27,-13
1491087714760,3,-102,-88,9,-63,13,-107,-84,4
1491087714760,3,127,-17,-25,46,127,54,-1,21
1491087714761,0,-114,3,-9,-35,-64,9,57,-17
1491087714761,0,-54,53,9,-34,105,106,-59,-19
1491087714796,1,14,-41,2,21,-128,-88,-8,-8
1491087714796,1,33,-58,-34,-80,50,61,-35,21
1491087714797,2,80,-56,-8,63,111,83,-38,-2
1491087714797,2,-2,32,17,52,-63,-100,73,22
1491087714798,3,-21,69,32,73,113,127,67,18
1491087714798,3,95,-49,-6,-70,-120,-128,-74,21
1491087714799,0,-69,-61,-6,-25,71,127,43,-54
1491087714799,0,8,56,2,90,56,-37,-29,-15
1491087714834,1,-19,-52,-3,-111,-32,76,-44,9
1491087714834,1,30,-42,27,20,110,-63,-43,-66
1491087714835,2,91,50,-38,-60,-128,83,108,48
1491087714835,2,-41,-26,-10,-31,-128,-128,-128,-46
1491087714836,3,31,127,-4,9,67,63,-13,-18
1491087714836,3,-44,-42,42,16,-65,-23,85,49
1491087714837,0,-43,-10,14,64,66,50,-107,-20
1491087714837,0,-128,43,-6,-8,-68,-41,6,-34
1491087714871,1,24,-11,-30,-56,-20,96,127,53
1491087714871,1,-38,-26,-19,-59,28,-100,-128,-74
1491087714872,2,-86,-87,-17,-44,-48,78,91,56
1491087714872,2,38,24,4,-13,10,127,22,-8
1491087714873,3,-116,-18,11,79,-102,-38,-50,-20
1491087714873,3,70,53,12,58,-7,2,48,35
1491087714873,0,-92,127,6,127,108,21,30,21
1491087714873,0,127,-78,-29,-96,-69,-45,-7,14
1491087714909,1,-128,-38,17,-32,-75,-111,-65,-54
1491087714909,1,66,16,21,127,119,127,116,63
1491087714910,2,93,97,-28,-73,-120,-108,-128,-68
1491087714910,2,31,-128,-4,-36,-48,39,32,52
1491087714910,3,92,-105,2,-2,106,39,53,14
1491087714910,3,-66,113,-17,-23,45,110,-28,9
1491087714911,0,-43,-128,78,47,-42,-91,-24,-28
1491087714911,0,23,-86,-22,-16,80,30,90,19
1491087714946,1,-32,34,-13,36,34,16,25,50
1491087714946,1,-52,73,0,-12,-98,-1,-46,46
1491087714947,2,122,85,-40,-78,127,-64,6,-21
1491087714947,2,-94,68,35,69,41,48,100,3
1491087714947,3,6,90,11,80,98,-128,-63,22
1491087714947,3,-24,-68,-3,-11,-66,61,113,-36
1491087714948,0,-99,56,-20,-16,-30,76,46,87
1491087714948,0,127,-64,-19,53,-56,-128,-101,-79
1491087715021,1,-67,-73,-63,-39,25,-7,-36,-86
1491087715021,1,-12,-80,39,127,20,-21,-91,46
1491087715022,2,-87,-51,-25,-53,50,-27,-66,-71
1491087715022,2,11,97,32,127,-66,127,127,122
1491087715023,3,-105,69,-13,-88,110,-54,-44,-72
1491087715023,3,117,-29,-41,-114,-128,-72,64,43
1491087715023,0,-76,13,-25,-75,86,44,-128,6
1491087715023,0,-49,57,7,-26,127,-108,40,67
1491087715059,1,11,-66,-32,-111,-128,-80,-17,20
1491087715059,1,-24,49,24,-2,-52,78,7,-128
1491087715060,2,20,12,54,-39,71,-13,115,34
1491087715060,2,-103,13,10,42,-71,110,0,51
1491087715061,3,95,66,17,61,14,95,38,23
1491087715061,3,-110,-114,-28,-64,-44,-127,-122,-72
1491087715062,1,-47,-9,16,-44,-128,-57,-79,10
1491087715062,1,-28,-25,-9,-24,127,127,17,42
1491087715096,2,67,-82,-4,14,-35,-93,41,43
1491087715096,2,-62,23,-32,-90,-17,-29,-49,50
1491087715097,3,25,-9,11,-27,27,-74,62,-40
1491087715097,3,-13,75,-20,17,-63,53,-22,-52
1491087715098,1,-10,67,-16,43,-56,127,121,127
1491087715098,1,4,-66,-9,-47,35,-93,-128,-64
1491087715098,2,-89,-46,-18,-89,-128,102,83,51
1491087715098,2,39,33,-8,-95,51,-2,-100,-44
1491087715133,3,-41,76,-29,-72,95,-55,74,-20
1491087715133,3,98,127,106,127,127,98,83,64
1491087715134,0,-14,73,-65,11,20,-13,19,-33
1491087715134,0,-74,104,23,-32,-128,-128,-67,-50
1491087715135,1,61,-33,5,-18,97,-31,64,17
1491087715135,1,-42,-81,-39,-9,-86,-47,-45,-12
1491087715137,2,39,40,26,49,127,52,24,43
1491087715137,2,-4,1,35,107,49,113,94,11
1491087715171,3,13,-128,-15,-33,-36,10,-118,-74
1491087715171,3,-13,-103,-21,-106,-128,-114,89,23
1491087715172,0,20,55,-72,-64,61,43,-23,-32
1491087715172,0,-51,80,44,55,-36,79,39,18
1491087715172,1,26,50,23,63,-8,-52,-81,0
1491087715172,1,-20,4,-30,-34,0,93,31,2
1491087715176,2,43,-110,33,18,-101,-128,-89,-12
1491087715176,2,-54,-78,-21,22,32,83,69,8
1491087715209,3,52,-81,-9,6,-14,22,3,50
1491087715209,3,5,104,24,-42,6,-20,-128,-78
1491087715210,0,-34,54,-44,19,15,-29,29,-9
1491087715210,0,25,-5,43,-9,-114,-83,-77,-33
1491087715210,1,-84,3,-18,6,49,92,39,18
1491087715210,1,78,12,34,-83,103,96,11,-7
1491087715211,2,-17,-13,-4,-77,-40,90,15,-1
1491087715211,2,-5,-48,-14,-128,-51,14,-54,-24
1491087715246,3,-17,-14,-30,-128,-41,57,56,-1
1491087715246,3,-10,-8,-38,-74,20,-53,-33,0
1491087715247,0,-2,57,39,-16,-7,82,62,-21
1491087715247,0,5,10,-25,16,-63,49,-7,-7
1491087715247,1,23,107,38,122,-36,63,47,39
1491087715247,1,-23,55,6,127,-7,30,17,0
1491087715248,2,23,90,12,108,-56,-80,8,26
1491087715248,2,5,127,-69,60,103,-128,-63,-46
1491087715283,3,2,101,16,103,-73,-31,-18,-7
1491087715283,3,16,48,10,70,-75,98,2,-19
1491087715285,0,-13,-60,5,48,-2,-58,2,8
1491087715285,0,-7,-128,-14,34,-68,-3,-28,13
1491087715285,1,4,-128,-18,21,53,-11,-10,-1
1491087715285,1,22,-102,-6,32,-17,-11,-15,1
1491087715286,2,5,48,37,29,-34,-7,3,-4
1491087715286,2,-19,-12,-16,32,123,95,62,-10
1491087715321,3,-20,-45,22,37,-111,-76,-52,-4
1491087715321,3,-54,-39,-29,-1,-29,-53,-6,3
1491087715322,0,15,-107,8,98,88,-9,-32,6
1491087715322,0,-13,-112,10,7,-86,-40,-7,3
1491087715323,1,0,-86,-52,-67,-70,55,19,-41
1491087715323,1,-12,-64,87,93,67,-45,-11,29
1491087715323,2,30,-119,1,73,48,31,-16,11
1491087715323,2,24,-35,-41,-24,52,-26,-10,-22
1491087715359,3,-33,-28,-8,-20,-60,-63,-68,-43
1491087715359,3,-17,-12,-10,59,-43,-10,29,18
1491087715360,0,13,-93,54,43,105,85,27,-15
1491087715360,0,21,9,-9,-69,-81,-43,-14,8
1491087715360,1,-8,-27,-61,-52,-44,-57,-4,-19
1491087715360,1,-50,-2,33,43,85,15,0,12
1491087715396,2,-13,-56,38,120,-92,92,43,-1
1491087715396,2,-3,40,-38,-54,62,-53,-55,-45
1491087715397,3,1,-57,34,64,-119,50,0,-34
1491087715397,3,14,63,-40,-42,-34,-128,-69,1
1491087715397,0,8,10,-38,-51,-62,8,-15,5
1491087715397,0,-40,-69,18,-38,7,77,47,24
1491087715398,1,-15,-4,32,39,91,23,3,16
1491087715398,1,46,-68,0,18,-78,88,60,19
1491087715433,2,-1,-30,-36,-120,-45,-92,-28,-56
1491087715433,2,-7,23,-3,0,22,-20,-43,9
1491087715434,3,-2,-95,4,48,124,16,16,13
1491087715434,3,-32,-120,-87,-88,10,-39,5,2
1491087715435,0,88,-60,53,24,13,-60,-34,20
1491087715435,0,-80,-44,-28,-85,15,2,-21,-15
1491087715436,1,52,71,30,31,127,109,48,10
1491087715436,1,27,63,96,57,17,127,33,-2
1491087715509,2,3,102,-117,-117,8,10,-4,-1
1491087715509,2,2,-18,-23,-8,-46,-25,-22,11
1491087715510,3,9,-51,-71,14,-48,-42,-36,5
1491087715510,3,-33,-40,25,44,50,-25,13,-17
1491087715512,0,6,-11,-19,4,-47,13,6,1
1491087715512,0,-2,-33,84,127,120,127,77,9
1491087715513,1,6,43,2,-45,-110,19,-9,-16
1491087715513,1,24,63,-95,-96,-80,-104,-60,-5
1491087715546,2,-111,39,-11,51,12,14,-25,-34
1491087715546,2,20,79,19,79,9,45,14,24
1491087715547,3,24,34,30,-2,15,57,42,8
1491087715547,3,-77,-7,25,46,72,31,-5,-5
1491087715547,1,-15,-44,64,47,70,2,12,-9
1491087715547,1,1,-26,-39,-6,-87,-6,18,-1
1491087715548,2,26,-31,16,-29,56,-73,-23,-18
1491087715548,2,-6,-62,66,9,-128,-117,-58,-15
1491087715583,3,24,-41,3,-14,18,-63,1,11
1491087715583,3,80,-40,10,-12,34,-34,-20,-6
1491087715584,0,-63,-65,-42,-34,-6,0,59,2
1491087715584,0,53,-44,19,-7,3,-18,-8,8
1491087715585,1,57,-43,40,13,-49,-48,-8,-9
1491087715585,1,-26,-44,-28,-76,-70,-70,-62,-26
1491087715586,2,31,-64,46,45,8,13,22,13
1491087715586,2,38,-60,-17,-23,37,27,33,-2
1491087715621,3,-114,-64,-32,-21,-32,-22,4,0
1491087715621,3,71,-21,41,37,66,27,9,15
1491087715622,0,-37,-56,3,-7,-10,-4,-14,-15
1491087715622,0,-13,-39,22,-19,-55,-20,1,-6
1491087715623,1,-48,-35,-23,-21,20,6,-11,0
1491087715623,1,59,-36,-3,17,2,-5,22,18
1491087715623,2,-25,-23,21,-2,-29,-12,-29,7
1491087715623,2,-25,-39,-31,-16,-8,-11,2,-20
1491087715659,3,9,-51,-6,3,64,32,-11,-2
1491087715659,3,62,-48,11,8,16,59,6,-8
1491087715660,0,80,-36,8,-34,22,32,50,36
1491087715660,0,84,-50,-59,-43,-29,-68,-85,-46
1491087715660,1,-40,6,4,22,-36,-10,3,0
1491087715660,1,-63,-38,31,0,19,17,-5,9
1491087715661,2,6,-47,3,2,35,22,-1,3
1491087715661,2,-63,39,3,10,-9,49,35,17
1491087715696,3,-26,107,-5,-13,15,-24,-22,3
1491087715696,3,-93,127,-28,-5,-23,-2,-5,2
1491087715697,0,-81,127,27,36,62,36,2,-7
1491087715697,0,-82,-107,-9,-5,33,15,11,-42
1491087715697,1,79,-17,-8,-12,-17,36,49,7
1491087715697,1,-46,-21,-21,11,-11,6,6,0
1491087715698,2,-38,-21,5,21,-36,-43,-61,-32
1491087715698,2,50,-95,-6,27,29,-14,5,4
1491087715733,3,7,-86,-6,-5,-39,-9,-36,-29
1491087715733,3,-46,-128,-25,-43,-47,34,10,-21
1491087715735,0,83,-127,22,16,-4,9,11,8
1491087715735,0,70,-95,-6,-31,-8,-16,2,33
1491087715735,1,18,-96,6,13,86,36,-1,9
1491087715735,1,-54,-66,11,-31,-75,-21,-39,-20
1491087715736,2,-44,61,-17,-58,-57,-16,0,-14
1491087715736,2,-84,-70,-8,-6,-6,9,17,8
1491087715771,3,21,-102,23,9,46,47,9,28
1491087715771,3,94,-116,0,16,-16,2,-7,10
1491087715772,0,-50,-93,-15,-36,-104,-73,-11,-19
1491087715772,0,10,6,1,-24,35,13,-32,-41
1491087715773,1,8,-8,-1,-30,-73,21,61,33
1491087715773,1,-15,-96,17,60,127,40,20,4
1491087715773,2,112,-88,-37,-35,-63,39,-10,11
1491087715773,2,-15,30,11,-35,-64,-41,14,16
1491087715809,3,7,43,-13,2,-18,-13,-13,1
1491087715809,3,-9,51,2,10,14,-22,-13,-12
1491087715810,0,-28,-87,45,44,74,28,28,18
1491087715810,0,-1,60,-7,-3,-26,109,60,8
1491087715811,1,76,85,-14,-11,18,-8,-81,-21
1491087715811,1,22,72,-28,-34,-69,-88,-66,12
1491087715812,2,-81,127,-16,4,41,-71,-26,-16
1491087715812,2,41,32,10,23,16,60,61,29
1491087715846,3,-95,6,-3,29,80,68,19,-32
1491087715846,3,-47,23,6,-57,-88,-30,-18,-4
1491087715847,0,-5,-29,-10,-30,-25,-2,-72,-16
1491087715847,0,59,26,-14,18,51,-74,16,8
1491087715848,1,-98,-127,4,5,-54,9,3,-7
1491087715848,1,87,-107,17,51,127,29,14,13
1491087715849,2,-92,-108,-3,-7,-73,82,-34,-35
1491087715849,2,30,-128,0,-53,-75,-105,-52,-13
1491087715884,3,49,24,-5,10,72,29,27,17
1491087715884,3,-17,93,-8,-42,-120,-9,35,3
1491087715885,0,-13,-78,-19,45,-30,27,7,14
1491087715885,0,44,51,5,19,56,34,12,-16
1491087715886,1,-13,30,-6,-28,-52,-47,8,-16
1491087715886,1,-68,59,15,21,70,-61,-10,4
1491087715886,2,16,-27,-12,-1,-6,31,-64,-4
1491087715886,2,-108,1,-33,-8,-67,-105,-45,-26
1491087715921,3,-48,22,23,48,65,33,70,11
1491087715921,3,-90,127,17,44,86,127,101,16
1491087715923,0,106,127,-3,30,-7,-4,53,35
1491087715923,0,53,3,30,23,63,81,10,33
1491087715924,1,-39,-108,3,-112,-128,-128,-128,-94
1491087715924,1,-10,-78,-22,-2,42,71,84,14
1491087715924,2,-53,15,-1,-3,57,93,53,-11
1491087715924,2,3,-9,33,50,-95,-25,-31,0
1491087715959,3,-31,36,-18,-7,102,-55,57,30
1491087715959,3,-57,6,-12,14,-26,-87,-80,-19
1491087715960,0,33,-88,-8,-28,78,35,18,17
1491087715960,0,-30,25,6,7,27,65,2,11
1491087715960,1,92,26,2,4,-9,-2,51,3
1491087715960,1,-51,38,-13,-3,-128,-18,32,-6
1491087715996,2,-73,110,1,-24,-57,-107,-80,-91
1491087715996,2,43,-105,-21,-18,12,83,70,81
1491087715997,3,-70,37,2,16,59,-29,-88,-51
1491087715997,3,127,-85,14,34,70,91,-14,19
1491087715998,0,-49,-73,-5,-44,-94,-79,33,-21
1491087715998,0,-114,-61,-29,-38,45,9,-26,-13
1491087715998,1,20,34,-2,-7,38,63,-7,0
1491087715998,1,-31,124,23,7,-9,18,-5,0
1491087716033,2,72,123,6,36,-31,62,11,42
1491087716033,2,-34,92,1,-2,-31,-104,-80,-57
1491087716035,3,-31,-29,-3,-19,-16,9,69,65
1491087716035,3,68,-23,8,30,85,10,-80,-41
1491087716035,0,-96,-51,-8,-16,53,53,127,60
1491087716035,0,50,34,-17,49,-49,-23,-95,-29
1491087716036,1,-33,31,-15,-38,-91,-86,-12,-12
1491087716036,1,-70,-128,6,-41,-62,-81,4,-8
1491087716071,2,-64,-4,0,33,63,7,58,43
1491087716071,2,45,31,15,9,24,10,-87,-80
1491087716072,3,-4,16,7,21,-14,-76,-1,-12
1491087716072,3,35,-66,-29,-58,-110,46,-2,-10
1491087716073,0,-15,8,32,54,66,34,33,25
1491087716073,0,-113,9,-7,13,20,-3,127,24
1491087716109,1,59,-5,7,47,-21,34,-54,-38
1491087716109,1,65,-38,-22,-77,-34,-8,-13,1
1491087716110,2,-34,-1,-11,-20,-53,-83,-67,-36
1491087716110,2,84,14,1,-1,5,-8,-1,43
1491087716110,3,-67,-78,-11,11,-25,48,23,31
1491087716110,3,106,-26,-24,4,107,51,55,15
1491087716111,0,4,50,22,79,-37,101,-27,-20
1491087716111,0,38,22,17,-19,-86,-80,-50,27
1491087716146,1,38,12,-5,-16,29,101,-44,-4
1491087716146,1,-63,38,-6,-7,-23,34,-10,-35
1491087716147,2,6,-16,9,-17,58,7,8,4
1491087716147,2,-10,67,10,12,47,0,-36,-16
1491087716148,3,-10,-8,11,-10,-63,9,-2,26
1491087716148,3,-4,16,7,0,-28,-57,22,-15
1491087716148,0,6,2,-24,-23,-1,-94,-85,-35
1491087716148,0,-4,36,-1,12,2,75,27,12
1491087716183,1,-70,-78,16,16,40,-53,-41,-1
1491087716183,1,-69,24,-19,9,3,16,16,-21
1491087716184,2,41,-18,-13,-30,-21,-54,-7,9
1491087716184,2,-69,-81,-17,-60,24,-21,34,-7
1491087716185,3,-67,20,-10,27,-43,23,-54,-20
1491087716185,3,57,-28,10,14,38,54,66,43
1491087716186,0,-19,-40,16,0,46,14,-31,-31
1491087716186,0,-126,-11,-26,-25,-105,-8,-22,-19
1491087716221,1,61,34,-8,-23,-37,-30,94,22
1491087716221,1,-2,-27,10,24,60,-25,-77,-10
1491087716222,2,62,57,-6,31,20,50,11,4
1491087716222,2,-37,-53,4,34,54,46,-9,-31
1491087716223,3,-59,-19,-26,-2,-50,-28,-11,-2
1491087716223,3,14,51,-2,2,-34,55,12,28
1491087716259,0,45,-33,5,-27,5,-62,41,0
1491087716259,0,-28,-20,13,-19,83,-8,48,17
1491087716260,1,90,8,2,-42,-24,54,-2,18
1491087716260,1,-95,-8,-6,-67,-9,-33,1,-15
1491087716260,2,55,10,-6,-30,-28,28,-16,-6
1491087716260,2,115,9,-2,18,-43,10,13,21
1491087716261,3,-17,-33,6,40,11,6,30,8
1491087716261,3,-90,76,19,59,33,-23,-57,-15
1491087716296,0,85,-39,-14,-6,-56,-11,40,35
1491087716296,0,-66,16,1,13,2,-8,-5,-26
1491087716297,1,-4,-97,5,20,65,68,82,59
1491087716297,1,-14,-46,3,-30,-9,-19,-27,-46
1491087716298,2,9,97,6,60,-15,-108,-104,-23
1491087716298,2,-22,22,-17,-34,7,17,39,9
1491087716298,3,-83,-38,-32,-60,15,15,5,-41
1491087716298,3,2,27,8,31,-58,34,31,32
1491087716334,0,109,-26,12,0,-29,-32,28,0
1491087716334,0,-33,81,1,55,107,80,63,28
1491087716335,1,-53,5,6,1,-95,-126,-120,-27
1491087716335,1,-34,-34,-18,-22,9,16,32,-32
1491087716336,2,-28,-42,4,-13,51,-16,51,0
1491087716336,2,21,-11,7,2,-44,48,12,16
1491087716336,3,-6,15,-8,-18,83,39,60,-29
1491087716336,3,111,4,-3,42,-61,-67,-52,48
1491087716371,0,-69,-21,-1,-9,-29,71,-14,12
1491087716371,0,-57,-63,-3,-10,23,-5,8,-29
1491087716372,1,120,15,-21,15,43,-44,-5,24
1491087716372,1,-14,-20,34,-12,-99,-89,-70,-8
1491087716373,2,-27,7,-23,-12,56,33,-45,-54
1491087716373,2,-79,-14,17,22,-20,-13,31,17
1491087716408,3,24,-16,-22,-23,12,14,8,6
1491087716408,3,97,46,22,51,-38,59,66,49
1491087716409,0,-1,-38,-36,-128,-67,77,-41,-59
1491087716409,0,-11,-91,-14,-68,22,-105,-115,31
1491087716410,1,-103,-11,4,48,-85,79,-53,-51
1491087716410,1,24,-51,-15,-15,127,-89,81,-16
1491087716411,2,-128,91,37,73,72,99,3,98
1491087716411,2,62,60,10,-16,-73,11,25,-23
1491087716483,3,36,-8,27,-4,70,78,-69,31
1491087716483,3,-80,93,27,6,84,96,77,-51
1491087716485,0,-10,11,-11,-11,-18,-84,-62,-35
1491087716485,0,114,-36,-66,-83,-59,-98,-86,-26
1491087716486,1,19,-49,9,-4,74,54,55,55
1491087716486,1,-68,-36,-16,46,9,103,33,-14
1491087716486,2,11,19,42,65,127,83,-2,14
1491087716486,2,-34,73,31,62,41,-70,-46,-44
1491087716521,3,-11,110,30,28,-128,29,4,-9
1491087716521,3,-7,2,-50,-93,11,-49,-49,-42
1491087716522,0,13,-45,-44,-15,-102,-103,67,66
1491087716522,0,-72,-101,-27,15,71,96,-42,-76
1491087716522,1,34,22,21,-1,35,-69,2,-17
1491087716522,1,-120,-23,17,42,-2,61,-26,-7
1491087716523,3,-102,-19,-9,42,-45,112,48,-16
1491087716523,3,80,89,20,-15,87,23,-13,14
1491087716558,0,88,1,-11,33,-40,-49,115,17
1491087716558,0,41,49,5,-50,-45,76,-80,-24
1491087716559,1,-4,-55,-26,-74,92,-128,-87,-55
1491087716559,1,20,-97,-62,-90,-126,-80,33,55
1491087716560,2,5,10,15,54,8,74,7,-15
1491087716560,2,33,119,39,88,120,127,15,54
1491087716561,3,7,21,37,44,32,-19,82,-11
1491087716561,3,-110,-57,-62,-94,-128,-62,-75,46
1491087716596,0,40,-128,-70,-18,57,-107,-66,-61
1491087716596,0,-53,49,34,91,56,-37,76,18
1491087716597,1,77,127,10,37,28,101,6,22
1491087716597,1,88,-2,20,40,30,118,98,21
1491087716598,2,-41,-69,8,-74,-88,-92,-51,-9
1491087716598,2,-63,-104,-23,-121,-60,6,-20,-1
1491087716599,3,89,28,0,55,47,-34,-25,-5
1491087716599,3,-88,101,23,4,41,99,73,41
1491087716633,0,-90,-63,-6,-54,-44,-89,-61,-62
1491087716633,0,-53,-49,-18,10,46,93,6,-36
1491087716635,1,42,45,19,5,26,21,45,107
1491087716635,1,20,-7,10,-68,80,-15,3,-49
1491087716636,2,-87,41,34,80,5,70,81,19
1491087716636,2,-97,-9,-14,6,11,-95,-69,-7
1491087716637,3,-53,-67,-46,-39,-104,-23,64,-14
1491087716637,3,88,-5,-2,49,33,-31,17,50
1491087716709,0,-94,30,51,76,25,12,32,-20
1491087716709,0,73,-7,-33,-83,-106,-32,127,86
1491087716709,1,70,-81,21,9,-9,17,-16,-36
1491087716709,1,-32,48,-24,67,13,-18,-128,-30
1491087716710,2,-33,-48,1,-16,-53,-21,12,28
1491087716710,2,-55,71,52,127,117,127,79,65
1491087716711,3,-7,-54,-35,-128,-128,-128,-69,-69
1491087716711,3,4,35,28,-74,100,-38,56,57
1491087716746,0,-44,32,-51,-48,-20,119,1,-24
1491087716746,0,62,-40,4,-89,9,-57,-47,14
1491087716747,1,11,27,-40,12,40,127,31,43
1491087716747,1,-117,-43,67,127,-11,-128,8,-41
1491087716748,2,127,15,-7,-62,127,-63,39,-39
1491087716748,2,-39,94,2,20,-128,118,41,46
1491087716783,1,1,90,28,73,-50,-34,-6,12
1491087716783,1,8,70,26,109,-1,127,50,72
1491087716784,2,-41,-27,-58,-19,83,-31,-64,-77
1491087716784,2,14,66,21,-24,-56,-88,-113,-58
1491087716785,3,28,-31,14,-54,118,60,57,57
1491087716785,3,51,-65,-40,-7,-25,31,-95,-7
1491087716786,1,10,-14,-24,39,-49,56,31,80
1491087716786,1,41,-29,80,82,13,56,-64,-56
1491087716821,2,-49,24,-18,70,-18,27,124,79
1491087716821,2,62,-81,-27,-17,34,-59,-78,-64
1491087716822,3,22,-68,8,52,68,-46,48,18
1491087716822,3,-112,-18,-75,-6,2,96,80,26
1491087716823,1,37,13,-30,-128,96,-88,-128,-125
1491087716823,1,-61,-97,-16,-32,-34,-126,-57,0
1491087716823,2,-19,48,-10,-86,-60,77,-44,-89
1491087716823,2,127,-51,69,84,20,70,105,127
1491087716858,3,-102,-128,-24,-57,-67,-104,-80,-62
1491087716858,3,35,98,22,-88,-64,99,-43,-64
1491087716859,0,-80,24,-5,4,35,44,59,30
1491087716859,0,79,-30,21,4,33,-11,90,77
1491087716860,1,-90,-27,-35,-73,-68,-83,-61,-74
1491087716860,1,-55,38,-11,-87,-128,-55,-2,-71
1491087716861,2,85,-1,-11,13,107,82,-53,-13
1491087716861,2,80,-62,-6,6,-59,49,30,-22
1491087716896,3,69,35,13,0,-97,38,18,71
1491087716896,3,-56,-49,20,-38,104,-46,-47,-54
1491087716897,0,-58,51,16,127,127,127,-1,113
1491087716897,0,-57,-29,-40,-69,-110,-38,21,-102
1491087716898,1,54,-49,19,-5,26,5,-98,44
1491087716898,1,9,-32,-1,-9,110,125,53,40
1491087716899,2,30,-48,-17,37,3,-61,-1,-18
1491087716899,2,-54,-12,7,19,43,-128,-22,-44
1491087716933,3,13,80,-15,34,-79,117,78,73
1491087716933,3,-3,106,-16,-50,-52,-13,48,35
1491087716935,0,11,20,0,-14,53,-95,-72,-67
1491087716935,0,-15,21,-25,16,-114,86,-43,30
1491087716935,1,-27,98,0,-31,49,-19,-5,-14
1491087716935,1,37,-118,39,101,86,71,-27,18
1491087716936,2,13,-42,64,54,-106,45,85,38
1491087716936,2,-58,-7,-6,-67,-55,-94,-128,-64
1491087716971,3,12,-30,-26,-53,38,-26,-17,-48
1491087716971,3,3,-32,-36,-27,-62,-60,-25,-27
1491087716972,0,8,29,-10,-13,-56,19,72,-12
1491087716972,0,-13,-31,-9,-11,-39,-4,74,47
1491087716973,1,14,-25,35,53,50,99,-11,39
1491087716973,1,36,-11,-14,15,127,-29,33,-5
1491087716973,2,-18,-69,-12,-41,-79,-19,33,-11
1491087716973,2,12,24,5,-50,127,89,47,55
1491087717008,3,-61,-16,-12,-128,-9,-55,-50,-99
1491087717008,3,18,-21,26,-44,41,59,48,25
1491087717010,0,10,59,46,-63,109,127,116,44
1491087717010,0,35,-21,-33,-106,-128,-108,-66,-58
1491087717010,1,-31,-112,-28,-50,34,57,35,-5
1491087717010,1,-11,11,39,19,127,107,31,8
1491087717012,2,17,-4,9,-118,-119,24,3,34
1491087717012,2,30,114,-4,-105,-57,-98,-104,-42
1491087717046,3,-45,81,8,65,15,88,71,-5
1491087717046,3,-3,59,5,67,24,38,54,14
1491087717047,0,19,117,-29,36,-49,-25,-41,-31
1491087717047,0,-2,-13,-4,76,-125,-45,-68,16
1491087717048,1,2,20,-11,88,63,30,41,11
1491087717048,1,16,39,-7,86,-26,31,-6,6
1491087717048,2,1,50,14,70,-15,54,12,11
1491087717048,2,-9,95,16,127,4,22,10,-15
1491087717083,3,-4,62,-14,105,79,-68,8,2
1491087717083,3,2,73,0,75,34,-18,3,7
1491087717084,0,-16,-106,-19,17,-71,-25,-38,-9
1491087717084,0,-16,-108,2,40,127,-12,23,-22
1491087717085,1,-20,81,-7,22,-128,-18,-14,14
1491087717085,1,-5,-83,-7,-3,-47,-63,-16,-5
1491087717121,2,3,8,-8,2,96,-8,12,0
1491087717121,2,24,-112,15,-3,47,127,99,19
1491087717123,3,-2,-128,63,45,-34,-14,5,21
1491087717123,3,-12,-118,-100,-121,-128,-128,-116,-49
1491087717125,0,-15,-113,-27,32,46,-9,-33,-2
1491087717125,0,-18,-102,14,69,89,108,37,-1
1491087717125,1,6,-78,19,56,-57,18,27,23
1491087717125,1,-3,-52,13,-103,-94,-94,-7,-4
1491087717159,2,12,-70,9,14,-7,-71,-34,3
1491087717159,2,-3,11,14,36,110,73,41,0
1491087717160,3,-19,-24,14,57,99,116,68,0
1491087717160,3,-1,-39,31,-71,-128,-100,-69,-2
1491087717161,0,6,-5,-53,-106,-83,-108,-66,-11
1491087717161,0,43,13,40,104,-13,101,58,9
1491087717161,1,8,-14,40,-63,-64,27,14,14
1491087717161,1,-15,-15,-81,-80,-61,-37,11,-14
1491087717196,2,0,13,-14,55,125,-28,-51,3
1491087717196,2,16,18,-11,16,9,-32,-29,-4
1491087717197,3,2,-21,-39,-43,71,-49,-1,-30
1491087717197,3,15,10,24,-14,65,94,68,11
1491087717198,0,0,7,10,7,-111,49,33,-16
1491087717198,0,-47,-4,11,27,57,7,-11,-8
1491087717199,1,-15,-6,-44,-72,-128,-101,-78,-18
1491087717199,1,45,-14,43,4,41,51,17,0
1491087717233,2,12,-101,16,22,-55,45,44,-2
1491087717233,2,-32,-100,-49,-128,-128,-69,-39,20
1491087717235,3,0,-83,-14,23,57,-39,5,28
1491087717235,3,-67,-66,-6,-13,-89,26,-13,5
1491087717236,0,-42,-115,-51,-66,-13,-44,-11,-9
1491087717236,0,57,-107,71,36,-49,70,23,9
1491087717271,1,15,-128,21,-3,42,59,23,-5
1491087717271,1,76,-117,-30,44,58,-100,-48,32
1491087717273,2,34,-56,12,7,-40,40,-16,-8
1491087717273,2,11,4,-14,-44,66,-23,-10,-5
1491087717273,3,20,59,-34,21,7,57,-4,-6
1491087717273,3,-14,74,7,72,51,127,51,-17
1491087717274,0,83,108,13,-29,43,31,-17,-8
1491087717274,0,-9,55,-32,-9,-114,-1,-8,-6
1491087717309,1,-9,75,-64,-5,63,-8,0,2
1491087717309,1,10,79,31,29,58,-22,-4,11
1491087717310,2,-98,48,-31,-18,-77,8,2,0
1491087717310,2,25,72,-3,61,22,-47,-31,2
1491087717310,3,-10,-4,17,-9,102,111,55,-4
1491087717310,3,-44,13,30,107,-39,-5,5,13
1491087717311,0,-58,10,-36,5,-21,1,-14,-9
1491087717311,0,3,3,22,55,39,119,51,-11
1491087717346,1,-59,-31,-46,-105,-128,-128,-63,-8
1491087717346,1,36,-26,-81,14,23,-10,-17,12
1491087717347,2,76,-41,6,76,51,12,19,14
1491087717347,2,22,-61,-17,-21,-6,-62,-4,-2
1491087717348,3,43,3,44,108,102,5,17,-2
1491087717348,3,-5,-24,-10,-38,-128,-22,15,2
1491087717349,0,-49,4,45,2,110,-88,-11,-7
1491087717349,0,6,-34,-9,-115,-43,-37,-6,-9
1491087717384,1,20,-29,-25,-15,-59,-77,-27,1
1491087717384,1,-6,-36,61,4,74,0,10,-2
1491087717384,2,-27,-44,21,28,73,45,10,6
1491087717384,2,36,2,25,-29,-61,-80,16,11
1491087717385,3,-47,-44,48,-32,-89,-48,-15,-6
1491087717385,3,-11,-46,-18,-8,-25,-30,-3,-5
1491087717422,0,-18,-37,27,32,56,9,11,-11
1491087717422,0,-25,-22,51,57,60,22,-2,8
1491087717423,1,57,10,24,-25,2,35,21,18
1491087717423,1,-30,-43,-32,-48,77,34,-27,-32
1491087717424,2,44,-43,15,-35,-106,6,-31,4
1491087717424,2,-21,-21,-58,-61,-34,-24,-31,-5
1491087717425,3,17,-38,25,4,27,-4,-18,-14
1491087717425,3,8,-8,48,-14,58,36,25,5
1491087717459,0,-14,0,32,52,59,-6,11,-6
1491087717459,0,-56,-5,-44,-7,0,-17,31,15
1491087717460,1,18,-54,42,14,-31,-19,12,-2
1491087717460,1,4,-14,-22,21,-37,-62,-18,-11
1491087717460,2,90,-3,20,-3,-4,-26,-6,15
1491087717460,2,-57,-46,3,24,8,24,8,-11
1491087717461,3,-5,-9,13,-24,53,-9,15,3
1491087717461,3,8,-33,-22,-60,-111,-46,-11,-8
1491087717496,0,52,-5,3,-11,2,-7,7,-1
1491087717496,0,121,-55,4,-1,-10,-10,-30,-4
1491087717497,1,6,-39,-25,18,-22,15,9,12
1491087717497,1,-30,-21,6,11,1,-27,-15,2
1491087717500,2,-82,-17,3,21,-13,27,35,5
1491087717500,2,-58,-7,-31,-9,95,-9,-46,-18
1491087717534,3,0,-11,-21,-14,-44,13,-14,0
1491087717534,3,5,-21,0,52,-20,18,36,21
1491087717535,0,-27,-32,-23,-65,-53,21,-8,11
1491087717535,0,-38,8,-29,-16,-50,-13,-7,-11
1491087717535,1,-62,2,8,23,26,43,-6,-20
1491087717535,1,20,40,11,10,69,20,0,5
1491087717536,2,12,96,-4,9,39,38,7,-22
1491087717536,2,-21,66,43,9,-19,80,53,34
1491087717571,3,26,63,-30,-32,-6,-58,-48,-38
1491087717571,3,-12,-15,5,-7,7,15,2,-11
1491087717572,0,54,41,-2,-23,16,-6,7,12
1491087717572,0,-34,23,-28,20,-71,36,1,-30
1491087717573,1,7,-106,-15,34,67,-18,-14,6
1491087717573,1,48,-86,9,-12,-4,19,2,15
1491087717574,2,20,-128,-9,-16,-73,-84,-18,21
1491087717574,2,-6,-108,-3,-9,-9,-34,-1,4
1491087717608,3,6,-11,-26,-7,-5,29,19,0
1491087717608,3,29,84,27,37,30,66,5,-25
1491087717609,0,-25,127,-33,15,-5,-37,18,7
1491087717609,0,-24,110,9,-1,3,16,-13,-21
1491087717610,1,20,-1,-4,37,-19,-21,4,-2
1491087717610,1,66,-83,-5,-5,38,40,0,1
1491087717611,2,-15,-113,18,18,8,26,-23,-32
1491087717611,2,25,-101,-6,-6,27,-19,23,44
1491087717646,3,51,-104,0,-46,7,24,-10,8
1491087717646,3,-53,-101,-12,-33,-48,18,74,4
1491087717647,0,15,-122,0,5,33,-43,-60,27
1491087717647,0,5,-128,2,-18,-16,-20,-35,-22
1491087717647,1,-70,-85,-24,-47,-15,17,2,10
1491087717647,1,7,-87,-2,-12,-71,-49,-15,17
1491087717648,2,-58,3,2,-1,45,107,61,-11
1491087717648,2,17,18,5,10,48,-19,9,19
1491087717683,3,-81,-61,9,-10,-92,-13,-13,-1
1491087717683,3,-5,37,3,19,65,-6,25,2
1491087717684,0,-54,59,-9,-5,37,6,-50,-19
1491087717684,0,67,76,10,12,-49,64,8,18
1491087717685,1,13,127,8,-15,-22,-55,-36,-46
1491087717685,1,-64,65,-19,-5,86,-36,-17,5
1491087717721,2,-29,37,-14,7,-24,-4,14,1
1491087717721,2,-50,-21,2,14,-13,-51,-23,-41
1491087717722,3,24,44,11,63,17,55,8,-3
1491087717722,3,-21,-88,20,20,-57,-58,-4,-5
1491087717722,0,43,40,-22,-28,-4,-16,-1,16
1491087717722,0,-92,66,31,8,32,16,31,-24
1491087717723,1,-29,116,1,16,82,78,36,28
1491087717723,1,-44,71,-10,-55,-103,-18,-11,-34
1491087717758,2,28,-59,-4,39,-106,65,-9,16
1491087717758,2,15,38,-48,-42,3,-128,-91,-45
1491087717760,3,-75,-5,5,1,-11,-45,16,-6
1491087717760,3,110,66,23,10,117,127,5,12
1491087717760,0,-22,-8,18,4,-41,-56,31,33
1491087717760,0,40,-35,18,-1,89,101,25,-14
1491087717761,1,-86,-10,-31,-54,-100,-82,24,-20
1491087717761,1,68,36,-40,-19,-110,-50,-49,-38
1491087717796,2,-35,27,8,8,27,54,-11,-1
1491087717796,2,68,23,41,40,95,97,86,51
1491087717797,3,44,27,-19,-6,23,39,-9,15
1491087717797,3,-60,13,-4,-8,-36,-32,-3,0
1491087717798,0,52,16,-1,82,65,-53,14,29
1491087717798,0,-31,17,-26,-41,-128,-14,-33,-19
1491087717798,1,101,0,13,-6,22,76,-7,28
1491087717798,1,-46,3,-13,-4,11,-84,1,-16
1491087717833,2,25,10,9,-23,32,35,3,-26
1491087717833,2,48,5,-20,14,65,18,9,30
1491087717871,3,75,-8,17,-5,-61,93,78,-11
1491087717871,3,9,5,-1,2,51,10,-57,25
1491087717872,0,11,11,-2,-7,14,-58,-19,-19
1491087717872,0,20,-7,-3,-39,-128,-77,-99,-40
1491087717872,1,-21,-9,-28,15,78,34,-21,-34
1491087717872,1,-126,4,31,35,95,69,64,34
1491087717873,2,34,2,-40,-49,-77,-61,0,-48
1491087717873,2,-128,-5,9,-7,36,16,-48,-29
1491087717908,3,-2,-4,20,24,-25,-9,18,24
1491087717908,3,-62,3,-8,29,107,35,13,13
1491087717909,0,83,0,-6,-16,6,39,-43,-28
1491087717909,0,-76,-2,-16,-35,-93,-43,54,28
1491087717946,1,-39,0,-14,-16,-1,20,-69,-15
1491087717946,1,46,-3,34,65,29,50,96,19
1491087717947,2,7,-1,10,22,31,-36,-18,-4
1491087717947,2,91,0,-8,-17,-27,-4,31,34
1491087717947,3,-54,-3,6,-14,-92,-100,-72,-37
1491087717947,3,-73,-2,-26,-29,17,-32,49,6
1491087717948,0,-2,0,5,-44,-75,12,-61,-16
1491087717948,0,-43,0,-7,19,76,80,78,6
1491087717983,1,35,-4,7,83,45,-14,-17,33
1491087717983,1,-71,44,23,11,-90,20,-40,-30
1491087717985,2,21,52,20,40,127,83,51,6
1491087717985,2,56,-32,-37,-75,-95,-89,-27,-13
1491087717985,3,-43,-16,-7,-22,19,106,70,16
1491087717985,3,63,-23,-25,-14,-83,-124,-121,-16
1491087717986,1,-27,-3,-24,-16,-103,-101,14,12
1491087717986,1,5,68,3,-32,-67,-73,-59,-17
1491087718021,2,-44,84,7,12,10,47,-20,-11
1491087718021,2,-81,-83,-20,13,80,57,1,-39
1491087718023,3,32,3,3,10,63,-57,12,5
1491087718023,3,-72,5,-24,-37,2,52,20,3
1491087718024,0,-51,-62,19,55,-18,-3,32,2
1491087718024,0,-15,24,9,34,29,-18,0,14
1491087718025,1,-47,108,6,-8,30,-48,-52,-18
1491087718025,1,106,-90,-21,-30,-58,-17,67,12
1491087718058,2,-96,-8,-12,-75,-80,72,-26,-47
1491087718058,2,40,-110,-25,-16,-33,-101,-95,-2
1491087718060,3,81,-14,20,50,47,47,40,12
1491087718060,3,-13,-33,14,45,8,95,20,-9
1491087718061,0,-97,-113,-22,-11,22,-18,-44,-49
1491087718061,0,-40,-61,18,20,70,7,116,47
1491087718061,1,-5,-16,3,12,-71,10,0,17
1491087718061,1,-27,14,-4,-8,13,-5,-61,-17
1491087718096,2,-71,67,-2,30,56,43,73,35
1491087718096,2,-70,110,1,13,-35,12,-85,-54
1491087718097,3,35,-6,9,-2,39,-39,51,7
1491087718097,3,98,-46,-8,-18,-43,57,41,43
1491087718098,0,74,-25,-6,-38,-47,-97,-10,1
1491087718098,0,-9,-32,0,35,-37,-10,-27,-9
1491087718099,1,35,-35,9,4,79,72,4,-6
1491087718099,1,-44,38,-8,2,22,7,-18,-19
1491087718134,2,81,-14,-13,3,-50,-115,-59,16
1491087718134,2,-35,25,6,-25,-11,45,21,13
1491087718136,3,-25,6,14,38,6,16,-26,-22
1491087718136,3,5,-3,-1,-20,-24,-21,4,0
1491087718137,0,-33,3,-22,-34,-64,32,-24,-13
1491087718137,0,12,9,-4,-14,-7,-8,46,29
1491087718138,1,49,15,14,-27,36,-44,-41,21
1491087718138,1,20,49,11,-7,14,-11,-18,-15
1491087718171,2,22,10,9,-9,89,81,111,29
1491087718171,2,70,-42,1,-17,-41,-27,-24,-26
1491087718173,3,65,41,2,-46,-40,20,-5,30
1491087718173,3,-62,56,0,30,6,7,-20,-15
1491087718174,0,69,8,2,19,20,46,17,1
1491087718174,0,-74,-22,5,29,-2,-70,-34,-34
1491087718175,1,-17,1,-24,4,-39,18,-68,-6
1491087718175,1,38,-68,-5,-34,-27,-63,-48,-19
1491087718209,2,-100,51,27,29,70,8,14,-16
1491087718209,2,-26,-80,-28,-26,15,-14,-21,-37
1491087718210,3,-47,-52,-26,22,-110,11,127,11
1491087718210,3,116,-34,-5,59,42,-16,-127,-6
1491087718210,0,-60,-55,-2,-3,-60,-97,20,-42
1491087718210,0,43,127,18,24,0,-6,26,-6
1491087718211,1,34,27,0,-43,59,63,7,-10
1491087718211,1,16,-27,-3,-22,-8,2,-6,-18
1491087718246,2,3,-70,3,-17,52,42,-6,36
1491087718246,2,-54,49,17,-11,50,-21,-75,-9
1491087718247,3,-128,-67,-13,-56,-128,-55,23,7
1491087718247,3,-25,-86,-23,-61,-31,55,99,50
1491087718248,0,75,6,7,-2,72,47,-35,-1
1491087718248,0,-18,-23,-10,12,-104,-7,-76,-11
1491087718248,1,7,-15,10,27,101,54,36,-12
1491087718248,1,93,8,-5,12,-64,-53,12,15
1491087718283,2,-32,-28,-13,-54,-5,-89,-37,-22
1491087718283,2,-41,59,26,54,46,127,97,73
1491087718285,3,81,-4,-2,-2,45,-113,-4,34
1491087718285,3,-78,39,26,38,-63,-15,-38,-27
1491087718285,0,25,65,-18,-26,83,-2,6,-11
1491087718285,0,28,24,6,16,40,65,-14,6
1491087718286,1,-128,-40,-10,-4,9,-46,-68,-68
1491087718286,1,-6,99,14,-16,68,89,5,2
1491087718321,2,-64,-18,-23,-73,-128,-108,7,-22
1491087718321,2,-46,-121,-49,-89,-99,-99,27,2
1491087718323,3,-53,-13,15,72,20,98,-8,7
1491087718323,3,34,61,22,102,126,60,37,-29
1491087718324,0,57,40,24,31,-90,10,-27,19
1491087718324,0,38,-45,-9,-2,75,111,54,-30
1491087718325,1,88,7,-34,-83,-87,-125,30,11
1491087718325,1,-58,-31,45,10,20,-44,-28,27
1491087718358,2,90,8,-7,42,127,127,-12,26
1491087718358,2,8,-27,15,3,-97,-128,-22,3
1491087718359,3,85,-56,-37,-72,-76,-22,-27,-66
1491087718359,3,-49,-15,-9,51,58,52,-22,-9
1491087718360,0,-96,68,25,57,82,79,127,95
1491087718360,0,75,84,-5,13,-67,109,-126,-81
1491087718361,1,14,59,-8,-25,-27,-63,10,6
1491087718361,1,46,-69,-56,-106,-40,21,101,50
1491087718396,2,-119,-122,-3,-10,-38,-37,-68,-56
1491087718396,2,-29,56,56,121,127,53,-65,4
1491087718397,3,15,-19,11,-62,87,-13,-1,-16
1491087718397,3,13,10,-23,-100,-128,-50,107,24
1491087718398,0,-85,-66,-4,2,43,-128,-128,-44
1491087718398,0,106,5,6,24,-9,67,81,34
1491087718433,1,-60,45,37,69,107,102,56,58
1491087718433,1,-57,2,-14,17,-76,-91,-30,-32
1491087718434,2,-36,9,-39,-105,-43,-66,17,-51
1491087718434,2,45,-126,-46,-17,74,-92,-52,-36
1491087718435,3,-104,73,18,86,-56,113,68,39
1491087718435,3,100,111,70,74,94,127,-100,-53
1491087718436,0,63,17,2,-57,12,-26,-53,6
1491087718436,0,-45,-90,-40,-128,-128,19,45,10
1491087718471,1,-90,-94,2,20,127,48,58,26
1491087718471,1,-119,-48,-43,36,109,127,88,-41
1491087718472,2,127,68,33,40,-123,-106,-110,-39
1491087718472,2,-43,23,-30,-53,111,100,13,30
1491087718472,3,-14,-10,-5,53,-22,-86,-112,-69
1491087718472,3,-37,-59,7,-52,-24,-75,-12,25
1491087718473,0,-18,84,3,88,20,127,25,7
1491087718473,0,32,-55,-29,-59,-122,-128,-62,75
1491087718508,1,79,-47,-31,-63,-5,127,58,-7
1491087718508,1,127,30,-2,61,28,56,23,11
1491087718510,2,-98,-20,-4,45,-46,11,42,57
1491087718510,2,44,60,39,127,-33,-88,-39,-8
1491087718510,3,-101,-30,3,-22,36,-4,1,-35
1491087718510,3,31,10,7,18,38,75,-25,29
1491087718511,0,16,-90,-3,-45,-10,-12,123,33
1491087718511,0,-30,96,-18,67,84,127,124,-21
1491087718546,1,-70,-60,-38,-8,65,-128,-92,52
1491087718546,1,-113,-91,-62,-91,-109,-40,-90,-67
1491087718547,2,84,52,34,25,23,127,122,87
1491087718547,2,28,59,44,15,-41,0,86,60
1491087718548,3,-40,-5,48,-27,36,-24,-95,-50
1491087718548,3,13,-70,-54,-80,-48,-117,-1,44
1491087718583,0,-52,-107,9,29,69,-47,-111,-94
1491087718583,0,-18,68,48,99,74,117,120,-35
1491087718584,1,51,39,-28,-16,-96,-43,-87,-13
1491087718584,1,61,-91,-15,-35,-91,96,127,31
1491087718585,2,-78,24,2,49,66,-17,-37,-27
1491087718585,2,14,2,61,-29,-61,-29,-59,-31
1491087718586,3,-49,111,-41,-43,-48,41,24,12
1491087718586,3,21,83,17,85,91,1,10,46
1491087718658,0,-20,57,4,-16,-128,36,47,29
1491087718658,0,-72,4,-12,-39,127,75,-53,-52
1491087718659,1,-11,-20,-10,-28,-128,-128,-52,-52
1491087718659,1,67,26,-45,-115,-109,62,-47,-11
1491087718660,2,17,-33,25,127,127,22,-9,79
1491087718660,2,-49,5,-29,-39,-102,-101,-77,-57
1491087718661,3,91,39,-4,-31,36,108,84,24
1491087718661,3,-128,-11,63,67,26,90,74,10
1491087718696,0,-1,-19,-45,-57,26,-87,-54,-82
1491087718696,0,21,-26,-2,3,86,83,127,51
1491087718697,1,-22,-128,20,-18,-60,-97,-128,-37
1491087718697,1,-128,60,-3,75,16,61,76,39
1491087718733,2,116,-98,-7,-94,-115,-47,37,13
1491087718733,2,-56,17,-35,15,74,18,52,101
1491087718734,0,64,33,15,63,31,98,68,72
1491087718734,0,17,-112,-21,-45,-128,-100,-86,-43
1491087718734,1,-71,39,-28,68,127,127,127,99
1491087718734,1,90,-41,49,17,-124,-128,-128,-54
1491087718736,2,-128,-74,-77,-97,-74,-38,61,-22
1491087718736,2,16,45,54,53,55,78,28,-3
1491087718771,3,58,-15,1,5,-32,-15,50,-7
1491087718771,3,-22,15,-2,31,86,64,23,-23
1491087718772,0,108,-22,-5,-21,-108,-39,-49,18
1491087718772,0,-84,15,-34,-106,34,64,111,11
1491087718772,1,68,-59,27,10,12,-66,-125,-6
1491087718772,1,72,127,52,48,-56,105,112,102
1491087718773,3,44,127,43,71,66,127,83,55
1491087718773,3,-107,3,30,83,-25,-128,-15,-76
1491087718808,0,119,73,-14,9,62,127,57,42
1491087718808,0,36,-115,20,-9,6,-79,-43,-11
1491087718810,1,-14,107,1,42,57,59,51,32
1491087718810,1,64,-16,-7,-48,-10,103,50,52
1491087718810,3,11,-8,14,79,74,-4,-65,-42
1491087718810,3,42,-49,-38,-29,-27,36,-27,19
1491087718811,0,-36,56,22,-27,-19,118,17,-14
1491087718811,0,-37,-41,-24,-77,43,18,-14,-5
1491087718846,1,69,38,-4,26,67,110,69,40
1491087718846,1,-58,83,27,8,-8,-128,-114,-41
1491087718847,2,-7,-73,-34,-84,-128,22,0,-27
1491087718847,2,21,-42,17,-12,113,-54,-105,-43
1491087718847,3,-28,-23,-32,-34,-87,60,17,-28
1491087718847,3,10,-124,31,6,-54,-71,-89,3
1491087718848,0,-10,-79,-13,-31,-105,-54,-10,7
1491087718848,0,3,55,-3,71,39,87,85,43
1491087718883,1,24,-11,65,8,-22,30,51,-41
1491087718883,1,9,-43,-85,-95,-29,-37,-9,-22
1491087718884,2,-45,-34,-43,-61,-101,75,25,32
1491087718884,2,32,44,51,24,127,74,21,22
1491087718885,3,3,23,2,-26,-128,103,64,5
1491087718885,3,-2,72,67,30,51,-63,-8,-4
1491087718886,0,-15,-49,-7,-30,127,71,69,32
1491087718886,0,2,14,-38,-70,-55,12,-64,-3
1491087718921,1,-12,-103,10,-92,-70,-128,-128,-21
1491087718921,1,-41,-75,-19,-128,-82,89,-5,-57
1491087718922,2,8,127,-12,91,28,81,12,6
1491087718922,2,35,119,39,39,-86,106,72,7
1491087718923,3,-24,61,12,-55,-65,-78,-7,16
1491087718923,3,-21,0,-75,-122,11,-110,-41,-2
1491087718926,0,-8,-14,23,-74,-111,-14,-11,-14
1491087718926,0,28,-31,9,23,-128,-34,-40,-13
1491087718958,1,-35,-128,-63,67,65,-4,-42,-27
1491087718958,1,11,-119,68,127,95,95,79,7
1491087718996,2,-2,39,11,127,-50,-67,-19,-4
1491087718996,2,-14,41,-69,-67,-128,-104,-55,-39
1491087718997,3,-10,101,-11,38,-5,-61,14,5
1491087718997,3,20,102,59,127,127,72,0,-5
1491087718997,0,-13,127,40,69,-43,53,6,-4
1491087718997,0,-31,77,-13,36,-110,-116,-93,-32
1491087718998,1,-11,107,-30,58,19,-2,28,20
1491087718998,1,18,60,-69,69,117,89,44,16
1491087719033,2,47,-67,76,124,109,104,76,28
1491087719033,2,25,-112,36,46,85,127,74,-4
1491087719034,3,-45,-128,-70,-105,-51,-101,-128,-10
1491087719034,3,-37,-107,-104,-52,-128,-103,-95,-9
1491087719035,1,0,-106,88,89,127,127,64,2
1491087719035,1,3,-69,51,-3,16,93,44,-4
1491087719036,2,8,-68,-45,-53,-128,-128,-61,16
1491087719036,2,-51,-40,-38,-88,-53,-110,-57,-11
1491087719071,3,-50,-36,1,8,28,-37,-19,1
1491087719071,3,3,-20,-34,-47,17,13,20,11
1491087719072,0,-15,-24,-40,4,127,63,14,-19
1491087719072,0,44,8,108,104,57,42,16,11
1491087719073,1,-37,-6,-29,-108,-128,-36,-22,-18
1491087719073,1,16,-12,-13,26,-39,-31,-9,-10
1491087719073,2,19,2,53,-7,-28,72,30,-7
1491087719073,2,1,8,-79,-58,5,-49,-23,-2
1491087719109,3,2,-11,-24,-39,-123,-91,-20,11
1491087719109,3,0,-3,-2,10,-87,22,-7,-13
1491087719110,0,7,2,16,12,84,-35,-2,-6
1491087719110,0,-30,2,-26,1,85,8,3,-18
1491087719111,1,38,-11,86,52,-44,38,-9,-5
1491087719111,1,-31,2,-37,-54,56,3,6,-20
1491087719111,2,44,2,47,50,15,44,13,-11
1491087719111,2,4,-3,-18,-29,-16,18,-6,-2
1491087719146,3,21,-3,-12,14,92,-1,5,13
1491087719146,3,-11,1,54,26,23,75,19,5
1491087719147,0,-16,-3,-59,-114,-120,-121,-63,9
1491087719147,0,-62,0,-65,-53,39,-72,-39,-12
1491087719148,1,-65,-3,31,25,14,49,38,9
1491087719148,1,-43,-1,12,-33,51,23,10,-3
1491087719149,2,10,-4,-10,14,8,-18,-39,-2
1491087719149,2,3,2,-12,-73,-118,-13,-10,-3
1491087719183,3,44,-2,2,19,-24,98,39,-18
1491087719183,3,71,-109,4,11,15,-104,-29,23
1491087719185,0,-48,-96,8,-5,-103,-10,-7,3
1491087719185,0,-12,-128,-41,-13,-38,24,-15,-9
1491087719185,1,-21,-114,-27,0,36,54,13,1
1491087719185,1,35,-104,97,127,107,127,39,0
1491087719186,2,53,-122,-68,-81,-86,-24,-30,-19
1491087719186,2,21,-77,-4,-41,-31,-77,-22,-9
1491087719221,3,36,44,-26,33,98,5,8,4
1491087719221,3,12,60,-31,-23,71,2,3,-14
1491087719224,0,-18,57,-66,8,106,-1,2,-16
1491087719224,0,47,85,104,127,-6,69,24,16
1491087719229,1,23,50,-36,-83,-24,-42,-3,0
1491087719229,1,30,86,-76,-80,-117,-97,-36,8
1491087719231,2,-21,50,46,25,-10,28,27,-4
1491087719231,2,-27,28,-34,22,-32,-19,0,-8
1491087719260,3,-5,8,-31,-38,-64,-52,-24,11
1491087719260,3,-9,-54,-1,30,34,3,5,3
1491087719262,0,-11,-43,29,75,11,1,16,1
1491087719262,0,19,-16,13,21,23,-20,3,9
1491087719263,1,-14,25,5,29,-8,-27,-17,-2
1491087719263,1,-64,21,2,-22,-44,-12,3,-22
1491087719264,2,21,19,9,-32,23,-13,-2,2
1491087719264,2,27,2,34,53,9,15,9,-9
1491087719297,3,7,-25,42,25,39,17,18,6
1491087719297,3,3,12,-16,25,-91,-86,-42,1
1491087719299,0,-29,35,11,16,20,-23,4,6
1491087719299,0,8,30,5,13,29,-12,8,4
1491087719300,1,-21,34,-7,-60,-20,-12,1,-14
1491087719300,1,-17,55,42,23,-10,28,9,4
1491087719302,2,-11,73,3,-20,37,29,-6,-6
1491087719302,2,2,67,-9,-10,7,47,6,1
1491087719333,3,-8,19,33,-24,-19,31,-8,-13
1491087719333,3,-15,11,-25,-35,-12,-10,-13,-10
1491087719334,0,-42,-26,0,17,-11,8,-2,-5
1491087719334,0,52,-14,2,-24,28,29,12,24
1491087719335,1,-62,1,-16,-1,-4,-18,-5,-10
1491087719335,1,26,21,29,2,-1,-33,0,6
1491087719336,2,22,120,15,-4,5,17,5,18
1491087719336,2,-22,50,4,-16,9,-8,-1,-5
1491087719371,3,-17,56,-14,-7,-3,3,16,0
1491087719371,3,-6,11,9,-18,-50,-21,-2,6
1491087719372,0,15,32,-12,25,11,-41,-8,1
1491087719372,0,29,32,2,-53,8,-15,9,-11
1491087719410,1,22,36,-5,48,-14,-10,-5,26
1491087719410,1,-7,1,-2,-9,-4,-2,15,-7
1491087719411,2,-10,66,-17,-31,-8,-16,-11,-19
1491087719411,2,-22,16,16,13,-13,-4,-31,19
1491087719412,3,-47,36,-8,-25,4,19,-17,-53
1491087719412,3,-33,107,-33,-5,13,24,9,2
1491087719413,0,22,36,19,19,24,6,-1,1
1491087719413,0,44,-33,1,-6,23,23,14,1
1491087719446,1,127,-85,-19,3,-17,-44,-40,12
1491087719446,1,37,-120,-20,0,1,-1,10,7
1491087719447,2,47,-128,-7,-9,-9,26,-29,-6
1491087719447,2,-56,-78,-7,-11,-2,-20,9,-12
1491087719449,3,-23,-103,3,16,9,8,17,10
1491087719449,3,-9,-52,5,20,30,14,5,-17
1491087719450,0,37,-63,9,0,29,-6,17,-2
1491087719450,0,-19,-30,30,62,-1,14,2,-9
1491087719484,1,-4,-26,-49,18,-49,-33,-9,-34
1491087719484,1,-6,-10,29,1,38,-5,-6,8
1491087719485,2,-47,-14,-16,-24,31,30,22,24
1491087719485,2,-29,-8,-3,-30,1,19,4,-1
1491087719486,3,-17,-7,5,-38,-26,-25,-4,11
1491087719486,3,-20,6,-21,1,4,44,8,22
1491087719487,0,-64,-17,14,2,-6,36,22,-23
1491087719487,0,57,8,-8,-2,-13,-31,9,13
1491087719521,1,-46,1,-7,5,29,75,22,-1
1491087719521,1,29,2,13,20,6,16,16,-6
1491087719524,2,-48,-6,11,11,23,24,17,-8
1491087719524,2,-14,4,-29,-42,-12,-12,-11,5
1491087719525,3,-44,47,47,-18,-26,-40,-24,21
1491087719525,3,-4,32,-19,-62,-22,-10,-15,10
1491087719525,0,-15,-33,-15,-12,-2,11,26,19
1491087719525,0,-12,-3,16,25,67,22,-3,-13
1491087719558,1,-20,-43,4,-3,-65,-11,-13,-5
1491087719558,1,0,-67,28,-8,-13,30,16,-5
1491087719560,2,9,-37,-17,-31,-23,-94,-56,-35
1491087719560,2,-25,-127,-18,-11,-30,-3,-9,0
1491087719560,3,29,-96,2,20,69,66,37,13
1491087719560,3,1,84,3,16,-13,-58,-31,-10
1491087719561,0,-7,-53,-15,1,-19,9,-39,2
1491087719561,0,-20,127,21,7,45,31,28,-12
1491087719596,1,73,111,13,-12,-23,-29,-30,-16
1491087719596,1,-31,1,-28,-6,-41,-37,-17,4
1491087719597,2,50,-31,-2,13,7,1,27,-4
1491087719597,2,-25,-25,9,-6,-22,22,-13,0
1491087719597,3,31,81,-18,-3,33,7,14,12
1491087719597,3,43,30,10,-11,-61,16,-30,-8
1491087719598,0,-52,62,-4,4,-38,-34,1,22
1491087719598,0,5,43,-18,13,53,66,23,-2
1491087719633,1,-43,26,12,17,62,48,-38,-37
1491087719633,1,70,-26,-9,1,-35,-35,21,10
1491087719634,2,81,-14,-15,-8,-2,27,-85,-27
1491087719634,2,5,-54,20,-1,-69,-108,-10,-8
1491087719635,3,8,-32,-6,10,86,52,80,23
1491087719635,3,-84,78,16,18,48,40,-35,-35
1491087719636,0,-41,46,-19,-48,-108,3,-33,-26
1491087719636,0,58,-64,-23,-13,-95,-58,58,26
1491087719671,1,30,-31,-3,18,46,52,-26,8
1491087719671,1,-66,-54,7,19,68,1,-10,5
1491087719672,2,-18,15,2,-10,99,51,35,18
1491087719672,2,-92,94,8,-21,-70,52,-9,-23
1491087719673,3,56,6,-3,-16,-78,-79,-12,21
1491087719673,3,-41,90,-4,27,57,99,33,5
1491087719673,0,-67,107,36,32,-38,-88,-28,-12
1491087719673,0,-9,6,-11,21,112,58,-10,-4
1491087719708,1,-35,-76,-15,-27,-71,-5,-7,-16
1491087719708,1,-32,-115,-7,-20,-18,-88,-57,-11
1491087719709,2,30,-46,-11,-1,-16,4,13,-15
1491087719709,2,-83,10,-2,32,13,27,27,1
1491087719710,3,-61,127,1,33,-6,-45,-46,-4
1491087719710,3,22,-50,21,-8,69,88,55,20
1491087719746,0,91,-99,7,2,-35,-52,18,12
1491087719746,0,11,5,18,1,28,29,-54,-8
1491087719747,1,40,-51,-15,-27,-45,17,33,0
1491087719747,1,-17,58,-39,-8,-77,16,51,4
1491087719747,2,-43,40,-6,-26,60,-45,-64,6
1491087719747,2,35,8,-23,-16,27,30,-65,-37
1491087719748,3,74,-116,2,7,-11,-55,-6,17
1491087719748,3,53,-100,27,32,-2,80,62,4
1491087719783,0,-18,-58,7,23,10,113,-15,-27
1491087719783,0,60,-1,-23,-31,15,-46,46,60
1491087719784,1,6,103,4,-13,-10,14,23,6
1491087719784,1,-20,63,-17,-32,-41,-9,-66,-25
1491087719785,2,104,104,6,4,-8,-26,87,48
1491087719785,2,-26,38,27,47,53,-27,-45,-15
1491087719786,3,47,-1,11,14,75,95,58,-3
1491087719786,3,-53,116,-15,-57,-95,-55,11,-26
1491087719821,0,-15,25,-27,-15,-56,-52,-64,-3
1491087719821,0,-91,-19,1,51,-49,-19,-55,17
1491087719822,1,-4,84,5,14,96,51,11,-2
1491087719822,1,-26,17,21,6,112,-6,55,20
1491087719823,2,25,13,0,32,-26,47,96,33
1491087719823,2,-11,-32,-15,-62,22,-41,-54,-24
1491087719858,3,-101,-95,-8,-33,-80,-10,-21,-45
1491087719858,3,127,-1,-6,-8,-44,-7,69,30
1491087719859,0,-127,-56,13,18,28,-35,-43,-11
1491087719859,0,-25,-79,-8,50,29,54,9,-18
1491087719860,1,10,71,-4,-20,-3,-50,-11,-3
1491087719860,1,33,9,-31,-46,-75,-52,-112,-23
1491087719861,2,25,-6,24,43,102,21,31,26
1491087719861,2,-107,52,-3,0,-36,31,79,4
1491087719896,3,21,-61,-17,-30,-36,-11,-28,-12
1491087719896,3,93,-54,-12,46,27,-48,-31,-12
1491087719897,0,-70,6,1,11,-2,109,69,-3
1491087719897,0,-35,-19,12,-35,43,-95,-39,-17
1491087719897,1,45,10,4,11,32,14,31,-4
1491087719897,1,42,-127,2,-33,-94,-35,-9,24
1491087719898,2,-108,-11,10,46,-9,43,-38,-14
1491087719898,2,127,-62,1,-34,74,28,58,19
1491087719933,3,-124,-119,1,17,-128,39,-7,-19
1491087719933,3,46,-69,4,-23,19,-91,-96,-42
1491087719934,0,-64,-43,-8,-16,-28,58,36,10
1491087719934,0,-78,113,0,-8,-49,9,-21,0
1491087719935,1,61,127,31,46,119,-3,-26,12
1491087719935,1,17,101,3,46,54,72,46,10
1491087719936,2,2,98,-22,-7,-71,-75,11,-21
1491087719936,2,127,50,-13,-65,-95,-68,-71,-30
1491087719971,3,-128,-114,-16,11,39,-10,-36,-8
1491087719971,3,-108,10,32,51,39,80,40,-9
1491087719972,0,80,12,-17,-30,120,94,25,-7
1491087719972,0,83,85,-1,-15,-120,-75,-5,-4
1491087719973,1,-106,-20,-41,-52,52,18,-29,-16
1491087719973,1,-77,-24,-23,8,5,-60,-50,-2
1491087720008,2,53,35,24,-8,6,-6,-14,17
1491087720008,2,-80,-33,20,73,29,87,-36,21
1491087720010,3,68,-45,-1,-2,0,-20,4,18
1491087720010,3,-88,56,-9,12,-14,-53,-38,-35
1491087720012,0,-43,-47,6,-3,-4,-26,26,-34
1491087720012,0,-5,25,-6,-15,-12,-49,47,48
1491087720012,1,-101,20,5,-9,-74,-39,-5,12
1491087720012,1,27,-29,-14,26,54,126,113,34
1491087720046,2,-10,42,12,25,-19,-10,-69,10
1491087720046,2,83,-61,-34,-40,-17,-29,17,-24
1491087720047,3,17,0,6,17,-23,70,44,13
1491087720047,3,-29,8,-12,-3,-52,-112,-100,4
1491087720047,0,-101,12,4,23,-70,57,98,8
1491087720047,0,19,-30,34,55,117,40,-82,-26
1491087720048,1,26,44,11,3,8,-60,11,-22
1491087720048,1,5,26,0,-44,-20,45,-32,32
1491087720083,2,-7,-111,-51,-63,-48,-44,-60,-20
1491087720083,2,-128,-9,-10,1,-18,10,28,-17
1491087720084,3,84,39,24,-21,-23,-4,8,11
1491087720084,3,23,35,1,-11,101,85,23,-19
1491087720085,0,40,0,-6,-26,31,-33,-41,-11
1491087720085,0,-61,-7,-38,-49,-88,-44,-41,-24
1491087720086,1,57,-58,-19,-9,-58,10,18,-1
1491087720086,1,35,-2,31,58,9,-64,63,26
1491087720121,2,-18,94,15,6,4,52,-9,30
1491087720121,2,21,18,-7,5,80,-39,8,-24
1491087720122,3,-128,37,-12,-63,-43,11,-68,-13
1491087720122,3,22,-123,-10,-68,14,99,80,30
1491087720123,0,60,2,11,50,11,2,41,18
1491087720123,0,-93,45,-11,44,-47,-44,-42,-24
1491087720162,1,-6,60,11,41,16,50,18,-7
1491087720162,1,30,-70,6,14,-18,12,-21,7
1491087720163,2,51,43,13,48,71,94,16,3
1491087720163,2,-40,-22,7,5,-47,-57,-15,-14
1491087720163,3,-1,31,-7,48,27,-47,-26,-16
1491087720163,3,-92,75,11,30,-26,50,49,21
1491087720164,0,18,-24,31,35,9,-36,-17,-36
1491087720164,0,-37,29,-15,1,48,8,74,43
1491087720196,1,71,-21,13,2,3,-49,39,-12
1491087720196,1,-53,-41,-17,-103,-40,-125,-41,-11
1491087720197,2,10,-43,-27,-80,55,-9,-25,3
1491087720197,2,-16,-7,13,-10,-10,127,1,-11
1491087720197,3,41,-61,21,-56,15,-89,33,63
1491087720197,3,-20,-26,-22,-1,-57,-27,-78,-32
1491087720198,0,-57,-15,-15,-20,-90,33,-8,-17
1491087720198,0,-12,3,32,-35,104,75,15,24
1491087720234,1,48,80,4,18,-53,66,68,26
1491087720234,1,-3,25,8,-20,1,-8,-49,-17
1491087720234,2,-17,-63,-10,-33,-4,-72,-26,-6
1491087720234,2,-10,17,5,19,-9,115,96,25
1491087720235,3,-68,14,24,49,127,46,-15,-5
1491087720235,3,-24,127,-2,19,15,-15,-83,-37
1491087720236,0,-127,-7,-29,-115,-102,-42,29,-7
1491087720236,0,71,-101,-28,-25,-27,94,49,-20
1491087720271,1,-80,-84,3,42,39,-117,-43,-11
1491087720271,1,42,4,17,62,-46,55,60,-4
1491087720272,2,69,87,-9,21,127,65,75,74
1491087720272,2,7,-38,12,21,-118,-128,-112,-29
1491087720273,3,-23,46,-29,-19,-97,127,79,6
1491087720273,3,15,-18,-8,3,10,-121,-12,9
1491087720310,0,11,-37,-4,-6,-96,21,-94,-45
1491087720310,0,19,31,18,0,117,75,119,57
1491087720311,1,107,-25,-2,-39,64,79,3,12
1491087720311,1,-31,-43,-37,-22,-92,-79,-86,-41
1491087720311,2,127,-19,2,-29,-68,36,4,27
1491087720311,2,-37,-33,15,42,13,12,-5,-19
1491087720312,3,-74,-75,29,119,96,-100,-85,30
1491087720312,3,58,45,33,88,-51,94,30,-14
1491087720351,0,-78,68,9,-27,95,-4,62,-9
1491087720351,0,127,-78,-72,-97,-128,-104,-69,-5
1491087720352,1,-88,-64,-32,-40,50,83,1,-10
1491087720352,1,64,-21,33,69,127,83,101,86
1491087720352,2,109,50,5,67,-52,-92,-21,12
1491087720352,2,-93,-4,-4,-83,-91,68,77,10
1491087720353,3,61,90,-1,-2,-100,23,29,-34
1491087720353,3,-128,-35,52,32,91,9,48,20
1491087720383,0,59,96,-23,39,-67,48,59,24
1491087720383,0,-52,-30,-46,-88,-80,-128,-44,-57
1491087720384,1,71,-127,-52,-106,-97,6,-50,36
1491087720384,1,-47,-11,16,70,117,51,47,-19
1491087720385,2,-88,69,96,127,55,84,0,-9
1491087720385,2,59,83,17,-22,31,58,-58,-21
1491087720386,3,19,-54,-31,-71,-20,-79,-72,-19
1491087720386,3,-80,-16,-45,-100,28,104,91,21
1491087720458,0,48,-128,-41,-68,-103,-74,-126,-75
1491087720458,0,26,85,79,99,-19,21,73,81
1491087720459,1,-27,124,25,101,81,41,50,-48
1491087720459,1,-81,-26,-96,-102,-128,-128,-87,-35
1491087720460,2,62,-109,4,-92,57,44,31,37
1491087720460,2,-37,33,-9,122,105,127,-89,-19
1491087720461,3,4,49,23,29,-109,-52,115,51
1491087720461,3,-6,-60,14,-4,93,-87,-71,-16
1491087720496,0,-128,12,9,9,71,85,39,40
1491087720496,0,-48,25,-10,-80,-41,22,43,-15
1491087720497,1,55,94,41,63,96,86,-58,80
1491087720497,1,-82,-22,-27,-18,-11,-39,-27,-115
1491087720497,2,1,-20,-21,-47,16,-128,-110,-13
1491087720497,2,-52,-86,-5,-5,-6,83,127,74
1491087720498,3,17,-45,7,-59,25,-85,-65,-24
1491087720498,3,-9,111,11,50,-100,127,105,81
1491087720533,0,38,45,-19,30,-69,-109,-51,33
1491087720533,0,-87,-83,-64,36,-54,-128,-123,-102
1491087720534,1,-45,-27,-12,56,1,60,80,35
1491087720534,1,85,70,50,74,117,115,-4,-13
1491087720535,3,-107,18,-5,25,39,62,73,42
1491087720535,3,95,21,15,72,-97,-113,-93,-17
1491087720536,0,-68,70,2,47,-35,127,-1,-39
1491087720536,0,25,76,-17,33,59,8,96,28
1491087720571,1,-22,-83,-10,-116,-115,-115,-125,-114
1491087720571,1,-20,-6,-24,-112,-103,120,110,65
1491087720572,2,-16,-55,34,54,98,38,100,-99
1491087720572,2,9,95,-19,4,57,80,-8,40
1491087720572,3,-67,46,17,-58,-71,-30,-66,-31
1491087720572,3,-24,-84,-16,-35,41,-128,53,56
1491087720573,0,34,-126,-13,27,-46,-13,-128,-68
1491087720573,0,35,74,23,25,-16,103,118,-47
1491087720608,1,-24,-1,0,113,121,-63,-91,-107
1491087720608,1,52,-29,5,22,-96,24,-104,-37
1491087720610,2,-15,-128,-5,19,-45,85,127,127
1491087720610,2,79,-81,42,127,81,-105,-128,-128
1491087720610,3,-75,74,2,45,-128,83,108,46
1491087720610,3,-87,62,-47,-104,-93,-11,-55,-36
1491087720611,0,27,84,10,-30,-40,43,4,-45
1491087720611,0,94,-10,48,-22,28,97,104,114
1491087720646,1,-20,-128,-43,-51,-121,-23,-15,22
1491087720646,1,74,7,13,-41,29,60,-13,56
1491087720647,2,-58,-24,-13,6,74,-25,15,26
1491087720647,2,-38,-109,9,-68,-121,-128,-105,-78
1491087720647,3,-38,-12,29,64,-62,127,25,-22
1491087720647,3,-9,-76,-25,-73,86,-88,33,55
1491087720648,0,-21,-63,-9,-20,-128,38,8,-10
1491087720648,0,-61,20,-25,-50,127,-84,-2,35
1491087720684,1,127,15,2,-47,-28,15,-19,12
1491087720684,1,-21,87,11,88,-128,26,-102,-83
1491087720685,2,-7,-19,40,82,127,-128,-1,24
1491087720685,2,-76,21,-50,-25,-34,59,32,31
1491087720686,3,20,48,7,-31,21,56,27,-11
1491087720686,3,16,-14,48,-56,-82,-54,-18,-27
1491087720687,0,118,71,5,52,100,98,6,51
1491087720687,0,-48,-10,0,-87,-121,-56,-115,-46
1491087720721,1,28,53,-5,-41,61,54,106,16
1491087720721,1,56,-89,-28,62,-12,-57,-91,-45
1491087720722,2,76,-128,-39,-79,-117,10,-45,52
1491087720722,2,-81,-112,-26,-26,-12,2,127,-13
1491087720723,3,7,124,-8,43,112,96,32,31
1491087720723,3,57,-16,77,48,-81,-32,22,55
1491087720724,0,-128,-5,-85,-128,-125,-74,-81,-121
1491087720724,0,62,127,59,127,118,116,101,125
1491087720759,1,-29,-101,22,-36,10,-128,-127,-100
1491087720759,1,-6,13,-2,-43,6,24,54,-101
1491087720760,2,-51,-86,-66,-79,77,-128,-65,1
1491087720760,2,-97,47,21,81,36,50,61,43
1491087720761,3,59,21,47,28,127,-128,-56,-13
1491087720761,3,-34,121,-29,-44,-49,127,95,79
1491087720762,0,-49,-23,20,-79,-128,-109,-108,-93
1491087720762,0,41,-4,-36,37,61,43,-39,1
1491087720796,1,-78,-67,53,111,-123,16,60,118
1491087720796,1,-18,-113,-55,-78,127,-13,15,-107
1491087720798,2,76,-14,79,99,-115,33,127,105
1491087720798,2,-24,-11,-41,-41,48,-114,-128,10
1491087720799,3,16,-44,14,48,23,102,64,-3
1491087720799,3,21,85,-42,-44,-6,120,-41,-12
1491087720801,0,-96,-7,-3,22,7,-58,19,-14
1491087720801,0,63,12,12,30,31,66,26,-72
1491087720834,1,-44,-68,-52,-78,-117,44,2,38
1491087720834,1,-70,-84,-10,10,97,54,39,20
1491087720835,2,102,119,82,115,127,127,4,21
1491087720835,2,-5,9,-8,-20,-100,-17,9,0
1491087720836,3,-18,55,-83,-112,60,-79,-46,-91
1491087720836,3,-31,123,49,127,-48,25,79,83
1491087720871,0,13,97,-35,-63,17,22,5,-15
1491087720871,0,33,25,8,13,-101,-125,9,15
1491087720872,1,7,-2,11,72,118,125,31,-13
1491087720872,1,7,-23,33,85,54,73,45,29
1491087720872,2,32,15,19,31,127,31,102,24
1491087720872,2,9,-76,-33,-84,-128,7,-25,-47
1491087720873,3,12,-2,42,-14,-128,-3,99,98
1491087720873,3,-40,-36,-23,-13,2,-25,-38,-68
1491087720908,0,-38,22,-53,-98,-43,-30,-1,46
1491087720908,0,25,-17,-64,-83,127,-2,-35,-38
1491087720910,1,-18,-12,-2,-128,55,41,-15,9
1491087720910,1,12,-16,88,-128,-90,109,64,13
1491087720910,2,-3,-19,1,-49,115,17,-21,-21
1491087720910,2,-36,-18,-21,-87,27,104,-4,-14
1491087720911,3,14,8,43,16,-28,-69,65,-7
1491087720911,3,-1,-7,-60,82,-58,-119,-47,0
1491087720946,0,-15,43,-21,95,0,-28,-93,-26
1491087720946,0,22,-12,41,127,107,-29,49,49
1491087720947,1,-26,64,-21,74,-58,-44,-34,-61
1491087720947,1,0,56,28,67,127,65,40,-1
1491087720948,2,1,76,21,83,-128,-25,-71,-8
1491087720948,2,-12,63,-11,58,-73,40,35,14
1491087720949,3,11,126,-41,30,62,-20,-48,-18
1491087720949,3,-21,48,32,18,63,-29,-12,12
1491087720983,0,17,-85,-17,43,53,71,44,12
1491087720983,0,1,-65,61,63,-77,-37,-29,15
1491087720984,1,-9,40,-99,71,39,-53,-48,-44
1491087720984,1,-9,36,23,125,-40,-90,-63,-5
1491087720985,2,-6,-14,-50,-49,-4,-21,35,12
1491087720985,2,10,-98,4,55,-65,8,-37,-1
1491087721021,3,-6,-128,47,-9,-70,99,80,28
1491087721021,3,15,-128,-31,-20,127,-63,-86,-35
1491087721022,0,-9,-100,37,78,-58,-51,-1,-1
1491087721022,0,15,-99,40,85,51,70,73,-12
1491087721022,1,-26,-97,-72,-54,-97,-68,-22,11
1491087721022,1,-8,-84,-42,-85,-78,-74,-55,13
1491087721023,2,-27,-58,-38,-33,15,4,-30,-38
1491087721023,2,-6,0,-10,-34,99,-8,-12,-3
1491087721058,3,11,-32,79,95,127,98,16,3
1491087721058,3,24,-39,-30,-24,66,114,59,8
1491087721059,0,-31,5,91,-37,-44,-48,-14,-6
1491087721059,0,28,20,-77,-77,-89,-90,-47,9
1491087721096,1,-23,-23,20,12,24,1,-40,-12
1491087721096,1,50,-26,-23,-43,17,37,41,20
1491087721096,2,18,16,63,127,30,127,82,2
1491087721096,2,-16,11,-13,-73,23,-86,-47,-21
1491087721097,3,-5,-26,-87,-79,-128,-96,-89,-13
1491087721097,3,1,-4,-17,68,83,24,4,-1
1491087721098,0,7,12,-30,-62,28,-43,8,-10
