1491087578786,0,-66,-102,-112,-94,-107,-89,-94,36
1491087578786,0,104,99,-7,105,107,105,104,-113
1491087578788,1,-4,107,21,117,109,70,99,-119
1491087578788,1,66,72,33,68,64,49,57,-98
1491087578788,2,-68,52,37,23,27,15,14,-53
1491087578788,2,-23,-30,3,-25,-43,-42,-23,12
1491087578823,3,-34,-45,-27,-66,-45,-32,-69,16
1491087578823,3,-48,-23,-2,-29,-30,-19,-37,4
1491087578825,0,-10,-13,5,-10,-7,4,-12,6
1491087578825,0,-31,-38,-18,-55,-25,-12,7,41
1491087578825,1,21,-26,7,-2,-4,2,-12,14
1491087578825,1,13,-27,-8,-16,-18,-17,-38,27
1491087578826,2,-18,-7,-2,-6,12,17,13,-17
1491087578826,2,40,-17,13,6,-8,-9,-14,21
1491087578861,3,-7,-2,-8,-26,-25,-19,-34,16
1491087578861,3,15,-13,-18,-10,-2,-2,13,11
1491087578862,0,59,11,11,23,12,19,27,-8
1491087578862,0,-51,12,4,-6,-3,-12,-21,-23
1491087578863,1,2,-21,-6,0,-3,-8,-3,10
1491087578863,1,-4,8,-11,-7,-3,-2,-21,2
1491087578899,2,15,30,15,18,22,18,35,-5
1491087578899,2,-26,-25,-8,-6,-11,-5,3,7
1491087578900,3,39,-2,-6,-5,-23,-10,-25,-8
1491087578900,3,-46,-13,-8,-1,6,10,40,14
1491087578903,0,80,18,4,8,16,5,0,-1
1491087578903,0,-19,-12,-6,-9,-14,-10,-25,-7
1491087578904,1,33,-2,-4,-8,-9,-5,-14,2
1491087578904,1,-18,15,7,9,2,-3,8,-5
1491087578935,2,-6,-22,-5,-9,6,12,14,0
1491087578935,2,23,4,2,5,-7,-9,-37,0
1491087578936,3,-43,-4,2,-1,7,13,18,-4
1491087578936,3,8,-8,-9,-19,1,4,1,-4
1491087578936,0,-27,-5,14,23,5,-13,-10,-9
1491087578936,0,18,0,-7,-15,-1,7,3,0
1491087578938,1,-34,-3,7,1,-2,-12,8,8
1491087578938,1,49,11,-1,0,2,5,-15,-3
1491087578973,2,-3,7,-5,3,-2,4,-7,-9
1491087578973,2,-15,6,-2,-6,-2,6,9,0
1491087578973,3,-12,-19,-8,-15,-5,3,13,-4
1491087578973,3,38,-13,-4,-1,5,2,1,-3
1491087578974,0,-35,11,9,15,13,8,16,-2
1491087578974,0,11,24,3,12,7,-2,-6,9
1491087578975,1,-22,-16,-4,1,-9,-6,-3,-1
1491087578975,1,7,12,-4,2,-11,-10,-31,-11
1491087579010,2,42,-2,5,7,8,7,-11,-1
1491087579010,2,-33,-23,-16,-13,-16,-12,10,-9
1491087579011,3,-22,7,-3,2,7,10,21,7
1491087579011,3,35,-15,-2,-2,-12,-11,2,-5
1491087579012,0,-47,-6,-3,6,-1,-5,-24,-12
1491087579012,0,8,-14,-1,-1,14,5,10,-1
1491087579048,1,27,3,3,-3,3,1,7,-2
1491087579048,1,-35,-29,-6,-8,-4,3,13,-1
1491087579049,2,18,14,5,7,-3,-6,-5,-7
1491087579049,2,-23,0,5,12,8,13,-15,-2
1491087579050,3,-12,-21,-9,-8,-13,-12,-12,-7
1491087579050,3,-7,14,9,3,5,9,16,12
1491087579050,0,56,-4,0,9,2,0,8,7
1491087579050,0,-64,-7,-10,-6,-4,-1,4,0
1491087579085,1,78,8,7,5,2,-4,-9,-7
1491087579085,1,-65,12,-2,-2,-10,2,-20,-5
1491087579086,2,30,-17,-4,-10,4,11,52,16
1491087579086,2,-5,-17,-2,-4,-1,-9,-26,-19
1491087579087,3,5,4,-4,-7,5,-2,3,-2
1491087579087,3,-2,-8,-8,12,-4,-6,10,0
1491087579088,0,7,4,7,7,5,7,-4,2
1491087579088,0,35,4,-2,0,4,-6,-3,7
1491087579123,1,-35,-1,-1,-3,-22,-1,-6,-11
1491087579123,1,43,-5,-6,1,3,8,-27,-5
1491087579124,2,-11,-12,1,-3,2,1,25,-1
1491087579124,2,-4,-8,6,8,0,-8,-18,-5
1491087579124,3,-3,-3,-7,-1,0,-6,-16,-6
1491087579124,3,-22,-14,3,-6,5,-1,27,3
1491087579127,0,35,10,-5,-2,-10,-10,-26,-2
1491087579127,0,34,-3,3,-8,-13,0,2,2
1491087579160,1,19,0,2,10,10,-1,2,-1
1491087579160,1,13,-14,-2,13,-6,-3,-6,1
1491087579161,2,-69,-6,-8,1,4,0,2,-1
1491087579161,2,10,12,-3,-3,-10,-14,-22,-14
1491087579162,3,22,-3,-1,8,4,16,26,22
1491087579162,3,-22,2,-3,-13,-1,-6,0,-9
1491087579198,0,3,2,4,2,3,-7,-24,-5
1491087579198,0,-22,2,-9,-5,0,11,6,5
1491087579199,1,8,-8,-2,5,-1,-2,8,-7
1491087579199,1,10,4,2,-5,-4,-3,10,8
1491087579200,2,0,-4,1,-2,-5,-5,-11,-5
1491087579200,2,15,-4,2,-7,1,1,4,0
1491087579235,3,-41,-5,-3,5,8,13,0,-2
1491087579235,3,-33,11,1,1,-2,-15,-30,-7
1491087579237,0,-26,4,-2,1,6,21,49,13
1491087579237,0,52,-12,-2,-18,-4,-7,23,-10
1491087579237,1,-24,11,6,24,2,-8,-44,8
1491087579237,1,-18,1,0,-6,-5,1,2,-9
1491087579238,2,-14,-1,-5,-5,-5,-3,-8,0
1491087579238,2,-25,-8,-8,-1,10,4,3,-5
1491087579273,3,36,5,3,3,-6,-8,-32,-7
1491087579273,3,-2,-8,-6,1,-12,-2,-3,3
1491087579274,0,24,-12,-1,-5,5,0,-4,-5
1491087579274,0,-18,7,5,16,-8,-8,-7,5
1491087579274,1,-5,-3,-6,-15,5,9,15,-13
1491087579274,1,-77,-23,-9,1,5,-1,5,2
1491087579277,2,33,-2,-12,0,-9,-10,-16,-11
1491087579277,2,-57,-18,-10,-6,7,6,11,-2
1491087579310,3,26,8,3,2,-3,-9,-6,-1
1491087579310,3,57,-14,8,13,7,5,7,3
1491087579311,0,-16,-6,-3,-2,-9,-7,-7,-6
1491087579311,0,19,18,7,13,-7,-10,-31,-3
1491087579312,1,-53,5,-8,-11,-2,5,-7,-7
1491087579312,1,65,-18,7,-5,2,3,35,15
1491087579313,2,15,2,3,7,-6,-6,-3,-6
1491087579313,2,-53,-6,2,6,4,9,1,3
1491087579348,3,39,0,0,14,-2,-8,-11,0
1491087579348,3,7,-5,-2,-14,-3,6,34,0
1491087579349,0,9,-9,-7,10,-5,-9,-17,-3
1491087579349,0,-70,-1,-1,-1,-8,-4,4,-1
1491087579350,1,54,0,-2,-12,3,1,3,8
1491087579350,1,-15,3,0,10,0,-10,-28,-14
1491087579351,2,48,4,-1,-12,-2,-2,2,3
1491087579351,2,-5,6,-2,-2,-7,-2,-7,-6
1491087579385,3,-3,-26,-9,-20,1,4,33,6
1491087579385,3,19,3,-5,-3,0,-1,2,-9
1491087579387,0,-82,9,12,1,3,5,-2,-9
1491087579387,0,127,-7,-3,2,3,-4,-11,2
1491087579388,1,-108,-19,-5,-13,-10,-1,4,-10
1491087579388,1,38,-3,-4,-3,-1,-5,2,-4
1491087579389,2,-32,-8,-1,-15,10,12,3,-6
1491087579389,2,50,0,1,2,5,-6,7,5
1491087579423,3,-19,4,6,7,-3,0,-8,-6
1491087579423,3,-15,-1,-10,-7,3,-1,0,8
1491087579424,0,29,-12,-4,3,-13,-9,-9,-5
1491087579424,0,-16,1,3,2,-6,-2,-12,0
1491087579425,1,5,-5,-6,-10,3,9,24,1
1491087579425,1,-47,21,3,15,-1,-5,-21,-2
1491087579426,2,-12,-8,-1,-10,-5,-3,-40,-12
1491087579426,2,47,-34,1,-7,4,22,67,11
1491087579460,3,8,0,-3,2,-15,-23,-33,-3
1491087579460,3,0,-7,-5,-10,2,13,17,-5
1491087579461,0,-29,-10,2,4,8,0,7,2
1491087579461,0,-21,1,-3,-4,-11,-12,-25,-11
1491087579462,1,26,11,6,3,4,2,3,0
1491087579462,1,-31,-4,-10,-3,-6,-9,-19,-6
1491087579498,2,40,0,7,3,3,10,38,14
1491087579498,2,-22,-2,-4,1,-1,-5,-14,-11
1491087579499,3,17,9,4,6,4,5,5,12
1491087579499,3,4,-2,-11,-17,-7,-7,-20,-8
1491087579501,0,-97,-21,1,9,9,10,18,8
1491087579501,0,83,2,2,-7,-5,3,20,-7
1491087579502,1,-11,-10,-9,6,12,-5,5,7
1491087579502,1,-21,5,2,13,-15,-11,-29,-2
1491087579535,2,21,21,2,2,5,6,9,6
1491087579535,2,-44,-13,-4,-1,-3,-5,17,4
1491087579536,3,8,-2,-3,-10,-11,-8,-7,-17
1491087579536,3,-31,-5,3,3,12,11,7,4
1491087579538,0,30,10,-5,-3,-18,-14,-19,-8
1491087579538,0,-31,11,-7,-1,8,7,-20,-7
1491087579538,1,2,-17,2,-2,6,3,19,2
1491087579538,1,-45,-10,-8,-7,-7,-8,5,-13
1491087579573,2,44,4,0,4,-5,-6,-18,6
1491087579573,2,-6,1,0,3,-6,-8,-27,-10
1491087579574,3,-20,7,-3,-11,-2,9,22,-5
1491087579574,3,32,-9,-6,-5,-2,-6,4,-5
1491087579575,0,-22,10,0,1,9,7,-20,-7
1491087579575,0,4,-4,1,-3,3,1,14,7
1491087579576,1,-20,1,1,3,-6,-3,-4,1
1491087579576,1,43,0,0,0,2,0,-15,-6
1491087579610,2,-54,0,1,3,-6,-1,-2,-6
1491087579610,2,26,-4,-4,-14,0,-6,-4,-10
1491087579611,3,33,3,12,16,-5,3,-9,5
1491087579611,3,-37,-5,0,5,-2,-2,-3,4
1491087579612,0,23,0,-14,-12,-2,-7,-4,-12
1491087579612,0,-82,-8,-2,4,-8,-7,-10,-3
1491087579648,1,23,9,2,9,2,-12,-17,-3
1491087579648,1,25,8,-8,-13,-10,5,12,13
1491087579649,2,-21,-9,-2,4,3,0,32,-13
1491087579649,2,-11,-2,3,-12,8,1,-10,5
1491087579650,3,26,10,-2,11,-5,-14,-22,-1
1491087579650,3,-41,9,14,0,11,24,22,6
1491087579651,0,57,-30,-11,-11,-7,-9,10,1
1491087579651,0,-26,-5,3,14,7,2,4,-1
1491087579685,1,-27,-14,-13,-17,-5,-6,5,-6
1491087579685,1,27,18,12,23,0,-10,-21,-2
1491087579687,2,-40,-3,-10,-13,-5,7,14,5
1491087579687,2,32,-15,1,12,3,-8,-21,-13
1491087579688,3,20,-19,7,4,-3,7,3,2
1491087579688,3,-13,5,-1,-1,-10,-14,-12,1
1491087579688,0,-28,1,-6,1,18,13,5,8
1491087579688,0,12,2,-4,-15,-6,1,26,-4
1491087579723,1,-9,-13,-7,-9,1,-3,23,-3
1491087579723,1,-13,-9,0,3,1,-8,-37,-12
1491087579760,2,53,9,-4,-10,-8,-3,1,0
1491087579760,2,-45,-3,-3,9,6,6,11,6
1491087579762,3,42,-8,6,3,-3,-2,0,0
1491087579762,3,62,-13,3,1,-2,0,9,0
1491087579763,0,-1,16,1,-9,-1,-5,0,-7
1491087579763,0,-9,-8,-1,0,3,2,4,2
1491087579764,1,-78,-25,-4,-4,-8,5,20,5
1491087579764,1,47,3,3,11,23,-1,-30,-7
1491087579798,2,-5,-13,-4,-10,-11,-5,1,-1
1491087579798,2,17,-1,-3,-3,-6,3,15,9
1491087579799,3,-36,2,-1,-5,-1,-6,6,-1
1491087579799,3,-36,-13,-5,-3,-8,-3,-14,-9
1491087579800,0,12,-14,4,7,10,-6,-12,-3
1491087579800,0,-22,13,-8,-11,-11,-7,-12,-4
1491087579801,1,40,-20,4,9,-3,1,-17,-7
1491087579801,1,-40,1,-6,-4,-1,1,18,-2
1491087579835,2,22,0,0,-9,0,5,-4,-4
1491087579835,2,-4,-12,-3,12,1,3,-6,1
1491087579836,3,-21,-7,-9,-14,5,-11,-14,-12
1491087579836,3,-2,-10,-7,-2,-1,-2,15,-5
1491087579837,0,15,-4,3,18,-8,-11,-24,-2
1491087579837,0,19,13,4,0,4,8,1,7
1491087579838,1,-14,12,-8,-5,-1,6,-6,-5
1491087579838,1,-2,-22,-8,-4,-2,-5,-5,-13
1491087579873,2,-91,9,-3,-2,-9,-4,9,-2
1491087579873,2,86,-9,-2,-22,10,-2,-2,7
1491087579874,3,-11,-3,7,26,-7,-6,-1,-1
1491087579874,3,9,4,5,-2,0,8,12,12
1491087579875,0,-21,-22,-9,-8,-11,-11,-18,-19
1491087579875,0,-29,0,2,2,4,4,3,-6
1491087579876,1,20,-2,-5,-21,-1,0,14,1
1491087579876,1,11,-6,-5,-1,-4,1,12,4
1491087579910,2,19,4,6,8,0,-3,-21,0
1491087579910,2,-36,-3,-4,-3,3,4,0,-14
1491087579911,3,39,-7,-6,-2,1,0,2,6
1491087579911,3,-32,14,6,1,-4,4,3,4
1491087579912,0,10,-9,0,1,6,6,1,0
1491087579912,0,-4,-1,1,-2,-5,-11,-7,-3
1491087579913,1,1,5,-6,-3,3,4,10,-3
1491087579913,1,-12,0,0,-1,-2,-10,-5,0
1491087579985,2,31,-3,-5,-8,7,6,4,2
1491087579985,2,-38,-9,3,13,-11,-3,-15,-9
1491087579986,3,-36,2,-9,-11,2,2,-16,-10
1491087579986,3,17,2,8,11,-11,-8,11,5
1491087579986,0,39,-11,-1,-9,4,7,14,5
1491087579986,0,-54,-7,-9,-7,-1,2,5,1
1491087579987,1,19,-4,-2,-5,3,-4,1,-1
1491087579987,1,-11,-7,-4,-2,-3,-8,-34,-20
1491087580023,2,-41,14,-2,3,-4,-2,1,12
1491087580023,2,49,8,2,1,-4,-2,31,11
1491087580023,3,-32,-5,1,-4,0,-2,-30,-10
1491087580023,3,60,8,3,-3,6,14,18,10
1491087580024,0,2,-16,3,26,4,-7,-8,2
1491087580024,0,-15,8,-3,3,-15,-10,-15,-10
1491087580025,3,29,20,1,8,-7,-15,-26,1
1491087580025,3,-42,-9,2,-10,1,13,21,1
1491087580060,0,19,-2,-7,5,-6,-15,-23,-7
1491087580060,0,-15,4,-4,0,-1,3,22,5
1491087580061,1,25,-17,0,-2,10,15,30,2
1491087580061,1,-16,-10,2,3,5,-10,-35,-3
1491087580062,2,-8,5,-3,-7,-6,-4,-2,-4
1491087580062,2,44,7,5,23,4,-9,-17,1
1491087580062,3,-19,5,4,-3,-9,0,-6,-2
1491087580062,3,20,-29,-10,1,14,11,32,5
1491087580098,0,6,9,8,10,-8,-19,-27,-3
1491087580098,0,34,-9,-2,-16,10,18,26,5
1491087580099,1,-36,-6,-4,10,-8,-6,1,-1
1491087580099,1,-2,-9,-6,-8,-7,-8,-16,-10
1491087580101,2,16,-1,-4,-18,-4,-9,8,-10
1491087580101,2,14,-6,-6,4,-7,-12,-15,5
1491087580102,3,-5,2,4,13,0,5,-5,1
1491087580102,3,10,-2,0,-8,-1,1,31,5
1491087580135,0,-14,10,4,18,4,-4,-37,-2
1491087580135,0,7,0,-3,-6,4,6,18,-4
1491087580136,1,-10,-34,-6,-11,-6,1,-9,-13
1491087580136,1,-16,-5,-8,-8,-4,-6,-3,-4
1491087580137,2,20,-8,2,5,-8,1,18,6
1491087580137,2,11,-3,4,10,3,-4,-29,-12
1491087580137,3,-24,2,-8,-1,1,-3,-5,-2
1491087580137,3,17,9,9,23,7,-2,-13,0
1491087580173,0,-12,-8,-4,-21,5,13,30,-4
1491087580173,0,-8,10,0,-2,-7,-6,11,0
1491087580174,1,12,-8,-3,12,-2,-6,-43,0
1491087580174,1,-9,13,3,-5,-10,-5,-2,-3
1491087580174,2,-36,-11,-6,-3,0,5,4,-3
1491087580174,2,7,-17,0,-3,1,-10,-32,-3
1491087580175,3,-11,-1,6,-3,9,14,68,7
1491087580175,3,-6,-12,-9,1,-5,-13,-39,-13
1491087580210,0,7,10,0,3,-5,4,8,5
1491087580210,0,-50,-19,-7,7,0,3,-8,-11
1491087580211,1,68,10,0,4,-7,-19,-20,12
1491087580211,1,-11,-6,3,4,0,8,9,-5
1491087580211,2,29,-1,0,-4,8,0,13,-5
1491087580211,2,-27,5,0,-8,-3,5,5,-3
1491087580212,3,-29,-5,1,9,4,4,12,12
1491087580212,3,16,-4,4,5,2,0,-12,1
1491087580248,0,-48,-11,-5,-7,-9,-9,-3,-18
1491087580248,0,15,-9,-3,-3,5,5,6,3
1491087580248,1,10,-5,2,11,0,-5,-3,0
1491087580248,1,-14,10,-9,-8,-1,3,6,2
1491087580249,2,32,-8,-7,-4,-2,-5,-11,-4
1491087580249,2,27,-5,11,16,-12,-16,-25,-7
1491087580250,3,-79,17,-3,-4,-8,5,5,-9
1491087580250,3,73,-33,-2,2,14,10,28,3
1491087580285,0,-22,-1,-4,-3,0,0,-2,3
1491087580285,0,-28,16,2,0,-13,-11,-5,1
1491087580286,1,8,5,-6,-13,2,3,-2,-6
1491087580286,1,-70,-4,3,12,-2,-8,-29,-11
1491087580287,2,28,-10,1,9,10,6,-1,-1
1491087580287,2,42,-1,-4,-3,2,-6,7,4
1491087580287,3,14,21,5,13,-11,-20,-51,-5
1491087580287,3,35,9,-13,-25,-8,22,33,5
1491087580323,0,0,-27,2,0,10,1,12,-1
1491087580323,0,-64,5,-3,8,-10,-6,-22,-10
1491087580324,1,36,-19,-3,-20,12,14,32,3
1491087580324,1,21,16,1,14,-2,-15,-17,2
1491087580324,2,-24,6,3,-7,-10,1,-3,-9
1491087580324,2,1,0,-4,-13,11,10,23,14
1491087580325,3,15,-1,-3,2,-5,-5,-10,-6
1491087580325,3,-14,-4,0,2,6,-5,-3,-2
1491087580360,0,16,20,-4,0,-4,-3,9,2
1491087580360,0,15,4,6,-4,5,18,-3,7
1491087580361,1,-22,-14,-6,-2,7,11,13,6
1491087580361,1,-24,-18,0,-9,-5,-17,8,-6
1491087580362,2,-27,3,-5,-4,0,-2,-19,-13
1491087580362,2,27,7,-4,-11,-7,-8,22,8
1491087580362,3,-27,-9,-5,-15,-7,-1,-12,-19
1491087580362,3,-27,-1,4,13,-8,-1,-27,-3
1491087580398,0,32,-8,-5,-15,8,4,8,-1
1491087580398,0,-94,-19,1,23,-10,-9,-17,-7
1491087580399,1,43,-12,-7,-26,2,16,59,10
1491087580399,1,-8,2,-2,-1,-4,-6,4,-1
1491087580399,2,11,9,5,18,-5,-8,-19,3
1491087580399,2,18,-9,-3,-11,4,1,0,-8
1491087580400,3,-2,11,-5,10,-1,-8,-9,6
1491087580400,3,-13,-11,-3,2,1,-3,-14,-4
1491087580435,0,-32,3,-5,-8,-5,-2,1,-2
1491087580435,0,83,0,9,10,9,4,5,1
1491087580436,1,-109,-9,6,-4,-12,-1,-2,-4
1491087580436,1,8,-9,-6,-7,7,7,-5,-6
1491087580437,2,32,-7,5,5,-1,-9,-12,3
1491087580437,2,-17,0,-5,1,-10,-9,-24,-7
1491087580437,3,49,-18,3,-7,-2,-4,4,3
1491087580437,3,-13,14,-1,-1,-8,-13,-22,-8
1491087580473,0,14,-7,1,11,14,18,-2,3
1491087580473,0,-22,-5,-6,-20,1,0,21,0
1491087580474,1,9,2,-12,5,1,-9,-16,-12
1491087580474,1,-14,-5,2,8,-9,-6,2,-2
1491087580474,2,13,4,-2,-3,-7,1,-25,-3
1491087580474,2,19,-4,3,-6,6,4,16,-6
1491087580510,3,9,-5,-7,3,-7,-8,-20,-4
1491087580510,3,2,-2,0,-11,-10,-5,-9,-4
1491087580511,0,-23,-4,0,-5,10,13,24,-1
1491087580511,0,3,-27,-9,-7,-6,-10,2,1
1491087580511,1,-15,9,4,6,-7,-13,-27,-20
1491087580511,1,-6,18,-4,-20,14,20,19,7
1491087580512,2,-16,-30,-2,10,-10,-10,20,1
1491087580512,2,4,5,6,3,1,3,-17,-4
1491087580548,3,0,2,-1,3,9,-4,-1,-1
1491087580548,3,28,5,-15,8,-8,-2,-4,6
1491087580549,0,-65,4,-26,-21,-7,-1,12,-1
1491087580549,0,10,-12,-9,17,-6,-6,-21,-9
1491087580549,1,-27,1,3,4,-1,10,48,18
1491087580549,1,53,-18,4,5,2,-8,5,2
1491087580550,2,11,1,10,-2,4,6,-6,-7
1491087580550,2,-41,-6,-2,-9,-2,-3,3,2
1491087580585,3,-3,8,8,9,0,-2,-12,-12
1491087580585,3,8,-13,-5,-13,-6,8,34,6
1491087580586,0,35,-4,11,8,1,-10,-32,0
1491087580586,0,-54,6,-4,-6,-7,-2,-11,-7
1491087580586,1,10,11,9,13,11,0,-7,1
1491087580586,1,-16,-1,0,-12,-4,-3,2,2
1491087580587,2,-14,-14,-7,-1,-12,-4,-1,-12
1491087580587,2,38,1,5,-1,3,9,22,5
1491087580623,3,31,-29,-8,-6,3,-5,-22,2
1491087580623,3,-30,3,3,12,2,-7,-1,-14
1491087580626,0,8,-2,3,0,-1,3,-10,2
1491087580626,0,-30,1,-3,-6,-3,-3,11,-7
1491087580629,1,-26,-22,-6,3,-6,-5,-9,-11
1491087580629,1,107,11,0,2,5,-11,-25,2
1491087580660,2,-18,6,-10,-17,0,2,39,6
1491087580660,2,-15,-20,3,13,-10,-9,-24,-9
1491087580661,3,-6,19,-10,-6,-1,6,-5,-7
1491087580661,3,-19,-14,-2,-10,7,11,17,1
1491087580662,0,26,3,1,5,3,-15,-7,6
1491087580662,0,-23,1,0,14,-1,1,-6,-5
1491087580663,1,29,4,2,-10,0,7,0,-1
1491087580663,1,-61,-4,3,6,-5,-2,-6,-8
1491087580698,2,35,3,-1,6,-6,-11,-32,-14
1491087580698,2,-16,-3,-9,-12,1,6,13,0
1491087580699,3,-20,0,0,3,0,-8,-3,1
1491087580699,3,36,-21,1,-3,7,9,17,0
1491087580700,0,-71,-11,-8,-10,-8,-7,-5,-7
1491087580700,0,69,13,-3,-4,0,-10,-33,3
1491087580700,1,-9,-1,3,11,0,1,15,7
1491087580700,1,3,-5,-5,1,-3,-3,-5,-5
1491087580735,2,-20,1,7,0,-5,-4,-2,1
1491087580735,2,-10,-4,-4,-3,8,2,7,7
1491087580736,3,-10,11,-1,-9,-12,-8,-7,-15
1491087580736,3,-45,-2,5,-1,3,18,43,17
1491087580737,0,67,-9,-9,-5,-10,-11,-10,-9
1491087580737,0,-50,6,1,-3,1,2,7,-1
1491087580773,1,42,-4,5,0,17,7,23,6
1491087580773,1,-30,10,-4,3,-13,-11,-52,-14
1491087580774,2,10,3,2,-1,0,14,20,8
1491087580774,2,34,1,-1,-6,4,1,22,-4
1491087580775,3,2,-1,0,5,-10,-5,-19,4
1491087580775,3,-34,-12,-9,-14,2,0,8,-13
1491087580776,0,42,11,4,7,0,-5,20,24
1491087580776,0,-19,-14,-2,-9,1,3,-22,-8
1491087580810,1,-5,-7,-5,-1,-9,-4,-7,-6
1491087580810,1,15,12,1,15,-6,-6,-11,-4
1491087580811,2,14,-23,2,-9,11,9,31,-5
1491087580811,2,3,8,-7,0,-12,-11,0,-1
1491087580812,3,-22,-5,-2,1,2,-3,-23,-9
1491087580812,3,4,0,0,7,-3,4,3,7
1491087580813,0,1,-17,-6,-18,9,12,6,-7
1491087580813,0,14,-1,-1,-5,3,-4,17,1
1491087580848,1,-25,-8,-7,-10,-8,-5,4,-3
1491087580848,1,10,-1,9,10,2,-11,-33,-8
1491087580849,2,29,10,3,6,-6,-5,-21,2
1491087580849,2,-26,-8,6,7,9,11,21,-1
1491087580850,3,-23,-15,-7,-14,-4,-5,-16,-10
1491087580850,3,-38,0,0,7,-5,-4,4,7
1491087580850,0,20,-10,-2,-6,6,5,3,-10
1491087580850,0,18,7,-3,-2,5,-9,-23,-3
1491087580885,1,-4,-6,13,27,4,0,20,12
1491087580885,1,-20,-1,-2,-6,2,0,-9,-12
1491087580886,2,-20,0,-8,-3,-11,-11,-15,-5
1491087580886,2,-19,8,0,-11,-5,-2,-19,-8
1491087580887,3,17,-15,-7,-6,15,10,6,6
1491087580887,3,22,-2,5,3,3,-2,22,5
1491087580922,0,-18,3,3,24,0,4,-10,-3
1491087580922,0,-45,6,-6,5,-10,-14,12,-3
1491087580923,1,38,4,-3,-3,-2,7,-8,0
1491087580923,1,-54,-10,-5,5,1,-6,-23,-11
1491087580924,2,-34,2,1,12,3,2,1,-1
1491087580924,2,64,-10,3,-4,14,20,70,29
1491087580925,3,-17,-10,2,12,-20,-19,-39,-30
1491087580925,3,57,4,2,-3,-1,9,16,5
1491087580960,0,-81,-27,-6,-7,4,-8,6,-7
1491087580960,0,34,3,2,3,-16,-10,-54,-10
1491087580961,1,1,5,-13,-21,10,11,42,7
1491087580961,1,19,5,-8,1,-11,-7,-9,2
1491087580961,2,-26,-2,1,12,-5,-6,-7,-2
1491087580961,2,44,-14,1,-2,6,5,7,-5
1491087580962,3,36,6,0,1,-1,-6,-25,-3
1491087580962,3,-64,6,-4,-3,1,7,11,1
1491087580998,0,82,-14,-2,3,3,-6,10,8
1491087580998,0,-84,-23,-7,-3,2,2,3,-10
1491087580998,1,18,10,10,17,-7,-8,-15,6
1491087580998,1,38,-12,-2,-15,7,14,18,-7
1491087580999,2,-49,8,-5,2,-3,-9,-44,-15
1491087580999,2,13,1,-8,-2,-9,0,-26,-2
1491087581000,3,-3,-17,-1,-10,3,5,39,7
1491087581000,3,-14,-14,-5,-5,-8,-10,-18,-18
1491087581035,0,16,17,5,1,-3,6,18,7
1491087581035,0,11,3,-1,7,-6,-11,-21,-16
1491087581036,1,-2,10,-3,-8,13,7,16,10
1491087581036,1,20,-3,-2,-5,-10,-13,-16,-8
1491087581037,2,-28,-12,-4,-15,-7,1,4,-4
1491087581037,2,32,-15,0,-1,7,5,24,8
1491087581072,3,-38,-3,4,9,-5,2,1,-9
1491087581072,3,46,8,5,3,8,-4,7,10
1491087581073,0,4,1,1,-2,2,-1,-11,-6
1491087581073,0,-19,1,-3,4,-14,-13,-29,2
1491087581074,1,57,9,-3,-11,9,6,12,-5
1491087581074,1,-36,-9,-2,-3,-7,7,9,1
1491087581075,2,-48,9,1,4,4,-2,-10,-2
1491087581075,2,19,-15,-5,-6,1,4,10,0
1491087581110,3,-39,-8,-8,-11,-2,-1,7,3
1491087581110,3,33,3,1,9,4,-1,-5,-2
1491087581111,0,-29,4,-2,-2,-11,-2,5,3
1491087581111,0,11,0,-4,-8,0,-3,-17,-12
1491087581111,1,-11,-1,3,7,-15,-10,-16,-5
1491087581111,1,-30,9,-4,1,4,-4,-31,-9
1491087581112,2,6,-10,-9,-12,2,9,42,10
1491087581112,2,33,-15,6,3,-3,-3,4,-4
1491087581148,3,-13,-4,-6,-3,9,-12,-11,-8
1491087581148,3,-8,-3,-4,3,-5,1,4,-1
1491087581148,0,-4,1,3,19,-2,-10,-25,-6
1491087581148,0,27,9,3,-3,10,10,-7,7
1491087581149,1,23,-3,2,-12,-6,-4,7,-5
1491087581149,1,-14,-2,-5,3,-2,-12,-23,-4
1491087581150,2,-13,-15,2,-1,0,4,12,6
1491087581150,2,-57,-1,1,-6,-4,0,9,-6
1491087581185,3,-10,-5,-7,-3,4,3,1,-4
1491087581185,3,13,-22,3,3,-1,5,27,17
1491087581186,0,47,17,0,0,0,-11,-11,-13
1491087581186,0,-50,-5,-2,0,0,16,12,5
1491087581187,1,12,-4,-1,7,0,-11,-14,-4
1491087581187,1,20,0,-2,-4,-5,-5,0,-8
1491087581222,2,-5,-11,-4,6,-6,0,-18,1
1491087581222,2,18,14,5,4,5,-3,-4,1
1491087581223,3,-9,-2,-10,-15,-12,-5,-5,-6
1491087581223,3,-19,-4,0,0,5,5,17,-3
1491087581224,0,2,-18,-6,-7,-8,-10,-26,-8
1491087581224,0,-59,8,-5,11,2,-10,-20,-7
1491087581225,1,-15,-6,-5,-8,-4,6,-5,-8
1491087581225,1,30,-18,2,21,2,-6,-3,15
1491087581260,2,11,6,-7,-27,4,5,18,-6
1491087581260,2,31,-14,9,14,-8,-7,-43,-4
1491087581261,3,-47,-6,-7,9,-7,-9,-30,-8
1491087581261,3,-2,10,2,-14,5,18,75,21
1491087581261,0,63,-5,-4,-3,1,-6,-12,-13
1491087581261,0,20,-4,7,5,5,5,21,2
1491087581262,1,12,-12,-3,-3,3,2,3,2
1491087581262,1,-39,4,-2,2,-3,-4,-55,-20
1491087581297,2,-53,13,-5,-18,-11,0,28,1
1491087581297,2,27,-10,-5,-3,-4,-9,5,-4
1491087581298,3,14,5,5,19,1,-2,-12,5
1491087581298,3,-27,-12,-7,-24,1,2,4,-12
1491087581299,0,-5,-1,3,5,0,9,33,12
1491087581299,0,11,-1,-8,-5,4,-4,28,-3
1491087581300,1,19,5,10,10,-6,-3,-24,4
1491087581300,1,-18,-17,-7,-7,-1,-9,-24,-10
1491087581335,2,60,6,10,1,1,5,-10,5
1491087581335,2,-62,-6,-11,-10,6,6,26,-4
1491087581336,3,24,-9,-6,-4,-2,-5,13,2
1491087581336,3,34,1,4,14,-9,-11,-29,-3
1491087581337,0,-49,-6,3,5,-4,0,-25,-8
1491087581337,0,6,-1,-4,-1,-2,-11,16,4
1491087581372,1,-21,-6,-3,-15,-5,10,24,1
1491087581372,1,-29,-11,-14,-15,7,-4,-9,-15
1491087581373,2,22,7,11,26,10,1,-17,3
1491087581373,2,-1,12,11,9,-10,10,-10,7
1491087581374,3,-32,2,-1,-13,5,-1,-16,-15
1491087581374,3,9,5,3,8,-14,-10,3,2
1491087581375,0,-10,-3,-9,-2,11,4,6,1
1491087581375,0,-18,-17,-4,-6,-7,-13,-18,-10
1491087581410,1,7,9,-1,-3,-1,1,-11,-7
1491087581410,1,9,0,-3,-1,1,5,-2,2
1491087581411,2,-11,-23,-1,5,6,-5,3,-4
1491087581411,2,-27,-7,-3,-6,-5,-2,19,4
1491087581412,3,33,7,-5,7,-5,-4,-14,1
1491087581412,3,-22,-3,4,6,0,-2,-14,-3
1491087581413,0,-10,-7,-6,-4,-5,0,-24,-16
1491087581413,0,22,11,6,3,3,3,-6,13
1491087581448,1,21,-16,-1,2,-4,-6,21,-3
1491087581448,1,-45,7,-2,-5,7,8,35,-2
1491087581449,2,11,3,-2,4,-4,-3,4,7
1491087581449,2,6,-1,-6,-7,-3,-2,-7,-5
1491087581450,3,-16,-14,-3,-15,7,8,32,8
1491087581450,3,50,5,18,34,-2,-4,-8,13
1491087581451,0,-46,2,-8,-10,-15,-7,-1,-6
1491087581451,0,47,9,-1,-2,11,3,-10,-8
1491087581485,1,2,-2,0,8,1,1,-15,7
1491087581485,1,-8,-5,-2,-10,-4,1,11,-10
1491087581486,2,-15,-13,-5,5,-6,-13,-35,-9
1491087581486,2,-71,-4,-9,-16,-6,8,33,3
1491087581487,3,4,-13,3,10,-2,-4,-9,-8
1491087581487,3,34,-6,-7,-12,1,5,11,4
1491087581523,0,12,8,7,3,-2,-5,-3,-7
1491087581523,0,-12,-12,-7,-6,3,13,10,4
1491087581524,1,21,5,-1,21,-4,-4,-19,-3
1491087581524,1,-60,1,4,-4,-3,-6,5,5
1491087581524,2,27,-15,-2,-5,7,-2,10,2
1491087581524,2,38,10,2,2,-4,-9,-23,-6
1491087581525,3,-6,-4,2,-5,5,0,20,-4
1491087581525,3,-25,3,-10,1,-2,4,-37,-7
1491087581560,0,16,-4,2,-3,-2,2,-30,-3
1491087581560,0,0,-7,-9,-12,-4,-7,13,-4
1491087581561,1,12,5,11,16,-5,-5,-10,1
1491087581561,1,28,-8,-6,-13,6,4,32,5
1491087581562,2,-30,-17,-4,-6,-2,-1,0,-13
1491087581562,2,23,3,-9,1,1,-2,-8,-3
1491087581563,3,-29,-9,1,8,-10,-12,-19,-7
1491087581563,3,-14,6,2,-3,-6,1,-13,-3
1491087581598,0,21,0,-4,-11,9,16,70,25
1491087581598,0,18,-4,0,-4,-2,-1,-1,-12
1491087581599,1,-52,4,-2,-5,-3,-1,21,0
1491087581599,1,34,-13,1,2,0,3,-7,-5
1491087581600,2,-1,11,-2,4,7,-1,-1,9
1491087581600,2,-36,17,5,13,-14,-15,-42,-12
1491087581601,3,97,0,-12,-28,11,21,29,0
1491087581601,3,-13,-11,-7,-6,-5,-5,4,-6
1491087581635,0,-20,-11,-2,9,-9,-10,-8,-8
1491087581635,0,34,2,8,17,4,7,5,8
1491087581636,1,-4,-7,-1,8,6,-3,-12,3
1491087581636,1,-2,3,-3,7,0,-10,-27,-7
1491087581637,2,46,5,-7,-7,9,16,25,-1
1491087581637,2,-47,-11,-5,-4,-12,-7,-3,-14
1491087581672,3,14,5,0,-3,-15,-14,-33,6
1491087581672,3,10,-13,-2,-13,12,13,13,-6
1491087581674,0,-15,-8,7,10,1,3,38,12
1491087581674,0,31,-12,-8,-8,-5,-16,-40,-12
1491087581674,1,2,-2,-2,-8,-10,2,12,-7
1491087581674,1,7,7,-1,6,1,-5,-3,9
1491087581677,2,-12,-5,-2,-13,1,0,-16,-17
1491087581677,2,-30,-11,-1,-1,1,-11,6,3
1491087581710,3,-58,0,6,8,-4,0,-10,-1
1491087581710,3,-5,6,-5,0,10,-7,-35,-11
1491087581711,0,-2,1,4,11,-8,5,26,17
1491087581711,0,15,-13,-9,-15,13,21,25,6
1491087581711,1,-62,-2,1,0,-2,-18,-5,-11
1491087581711,1,28,7,6,2,-12,5,13,0
1491087581712,2,0,-13,-10,-12,3,-4,-26,-6
1491087581712,2,-6,-6,9,13,3,-1,-9,4
1491087581748,3,6,-2,-13,-2,-7,-2,-6,-3
1491087581748,3,24,7,-8,-7,1,7,-23,0
1491087581749,0,-7,0,4,18,-11,-19,4,2
1491087581749,0,-18,5,0,-2,11,18,8,-3
1491087581750,1,7,-21,-7,-10,1,-2,-7,-11
1491087581750,1,5,-10,2,-5,-3,0,29,-6
1491087581785,2,-31,-7,-6,-15,-11,-1,11,3
1491087581785,2,38,2,4,2,3,-7,-12,-14
1491087581786,3,-4,15,0,0,-2,-2,6,3
1491087581786,3,-9,-20,-6,12,-12,-5,-28,-11
1491087581787,0,-17,15,9,-6,-8,-9,-4,-6
1491087581787,0,4,-10,-5,-1,-5,-12,-4,-3
1491087581787,1,-63,2,-9,-5,5,14,-11,-6
1491087581787,1,61,-24,2,-3,10,5,54,13
1491087581822,2,-17,9,-7,-3,-4,-17,-67,-16
1491087581822,2,-2,12,-1,6,-12,0,29,10
1491087581823,3,-1,-3,11,0,14,4,28,-7
1491087581823,3,19,30,-8,-12,-19,-26,-34,-2
1491087581824,0,5,-5,0,6,18,19,26,1
1491087581824,0,1,-5,-1,-2,-8,8,2,11
1491087581825,1,-14,-7,-8,-7,-12,-14,-19,-22
1491087581825,1,-7,-33,-7,-8,2,13,36,12
1491087581860,2,-15,-5,-10,-8,-1,-9,-3,-6
1491087581860,2,-31,-10,-2,1,9,8,0,-10
1491087581861,3,41,-4,7,7,10,-9,0,12
1491087581861,3,9,13,12,16,-4,-1,-28,-14
1491087581862,0,63,-6,4,2,-3,19,3,8
1491087581862,0,3,-24,-3,6,-6,-4,-5,2
1491087581863,1,3,-25,-12,-15,13,13,26,7
1491087581863,1,-19,12,4,-6,7,-15,-16,-3
1491087581897,2,-34,26,-10,2,-8,-6,-38,-22
1491087581897,2,5,-3,-2,3,-5,-7,-8,2
1491087581898,3,-41,3,6,14,-8,-1,-7,-8
1491087581898,3,35,-17,-5,-3,14,25,15,10
1491087581899,0,37,-21,6,-8,-3,-4,3,-12
1491087581899,0,-46,-39,-3,-15,-6,-10,-4,-9
1491087581935,1,72,9,10,1,-14,-13,-38,4
1491087581935,1,-38,14,-9,6,-6,26,-40,-8
1491087581936,2,-28,-35,-3,-5,15,-28,86,5
1491087581936,2,32,-11,-3,-7,-3,1,-39,-15
1491087581937,3,36,13,7,-1,8,-12,24,6
1491087581937,3,-45,12,-5,6,-6,2,-1,-11
1491087581937,0,9,18,5,0,-1,-3,-13,12
1491087581937,0,16,0,13,8,1,0,24,12
1491087581972,1,-59,-8,-8,-1,1,13,16,4
1491087581972,1,51,3,3,-18,-13,-22,-6,-1
1491087581973,2,-17,22,-9,15,-5,17,-7,1
1491087581973,2,-26,24,5,16,19,0,0,7
1491087581974,3,6,-34,-15,-26,-13,12,6,8
1491087581974,3,-38,-18,-3,-1,4,-15,36,0
1491087581977,0,-12,-27,-1,-1,-11,-18,-18,2
1491087581977,0,11,22,7,15,-6,-5,-22,6
1491087582010,1,6,25,-13,5,11,6,9,-9
1491087582010,1,-50,-10,13,5,-12,-31,-7,-6
1491087582011,2,-54,-4,-1,6,10,60,-13,-7
1491087582011,2,33,-15,-11,-9,5,-18,10,7
1491087582012,3,-12,10,2,1,-7,-10,-7,-7
1491087582012,3,-55,2,-18,3,-10,-20,-41,-7
1491087582012,0,95,-2,-3,3,14,32,37,11
1491087582012,0,-47,-20,8,-21,-3,-15,18,3
1491087582047,1,-15,-3,-1,-8,-1,-22,-23,-9
1491087582047,1,5,-6,-4,4,-1,4,4,-2
1491087582048,2,-2,-12,-6,0,-18,-19,-37,-16
1491087582048,2,-6,19,10,21,-3,-5,-47,-13
1491087582049,3,49,-15,6,-5,9,25,62,33
1491087582049,3,51,-43,3,-22,8,54,63,14
1491087582085,0,-43,-28,-10,-17,-12,-56,-16,-7
1491087582085,0,6,17,-5,-8,-15,20,21,-10
1491087582086,1,-30,-16,12,16,-15,-37,-63,-2
1491087582086,1,-46,32,0,12,6,16,-26,-7
1491087582086,2,22,-37,-8,-11,-5,10,50,19
1491087582086,2,-11,-5,-17,-20,13,16,22,-22
1491087582087,3,-2,18,17,20,-3,-2,-31,-13
1491087582087,3,-8,-21,-15,-14,-13,-28,-18,-9
1491087582122,0,-12,29,7,13,2,8,4,15
1491087582122,0,-22,-4,-10,8,-3,-17,-48,-17
1491087582123,1,37,11,24,2,21,51,65,17
1491087582123,1,-15,19,-10,2,-7,-9,-6,-2
1491087582124,2,18,32,34,13,20,6,-10,-16
1491087582124,2,-2,-11,-3,11,8,-27,15,4
1491087582125,3,15,0,-16,-12,-7,-14,-31,-13
1491087582125,3,4,-7,2,-7,-8,-8,8,-8
1491087582160,0,-30,46,-10,-6,-7,0,-21,-13
1491087582160,0,13,6,-14,-3,-3,32,9,-3
1491087582161,1,-20,-24,-3,-9,4,-26,9,-1
1491087582161,1,30,20,6,0,10,19,44,13
1491087582161,2,9,-38,-3,-24,0,-9,-71,-26
1491087582161,2,-22,26,10,-5,-22,-5,-22,-4
1491087582162,3,9,35,-6,19,-6,8,-7,-2
1491087582162,3,10,-49,-6,3,23,12,49,26
1491087582197,0,12,-26,-46,-4,-3,-21,17,-16
1491087582197,0,-20,22,32,3,2,17,21,0
1491087582198,1,-40,0,-20,3,-7,1,-37,-17
1491087582198,1,53,20,21,9,-11,-23,6,-1
1491087582199,2,-7,1,-18,-9,4,19,-9,10
1491087582199,2,-12,-12,-26,8,-9,-14,0,10
1491087582235,3,10,-24,8,-21,-5,-3,-7,7
1491087582235,3,33,-8,23,2,-1,-2,-23,5
1491087582236,0,-30,-44,-21,-3,-35,-32,-39,-2
1491087582236,0,35,13,-11,-20,-26,6,-86,-4
1491087582237,1,-4,-53,3,-10,15,40,108,47
1491087582237,1,3,-43,-5,-7,13,18,-1,-6
1491087582238,2,-54,9,17,7,-3,-13,-30,-12
1491087582238,2,61,-27,-7,11,1,-22,1,-10
1491087582272,3,-35,44,-46,4,-16,-25,-45,-23
1491087582272,3,-54,24,11,7,7,42,-2,-22
1491087582273,0,20,16,45,13,12,-46,17,9
1491087582273,0,-38,-10,-15,-4,-2,2,37,-12
1491087582274,1,27,20,14,-3,2,17,-36,-6
1491087582274,1,-4,22,-23,7,6,-28,-6,-2
1491087582275,2,-36,19,-11,20,-4,-6,-16,-12
1491087582275,2,96,32,53,-8,49,64,88,40
1491087582310,3,20,-38,-20,-16,-12,-23,38,-12
1491087582310,3,12,65,-9,-13,-21,-25,-49,-5
1491087582311,0,-20,-1,1,10,3,-19,3,1
1491087582311,0,16,-24,-7,13,-2,-31,-37,23
1491087582312,1,3,-59,-6,23,12,28,20,-12
1491087582312,1,-9,-11,41,2,2,-15,-6,-9
1491087582313,2,10,-24,-27,-27,-7,17,-11,-3
1491087582313,2,-32,2,7,-11,-10,17,17,-8
1491087582347,3,16,5,7,10,10,-17,-54,5
1491087582347,3,-1,-30,-26,13,-8,8,4,-3
1491087582348,0,22,1,18,-1,12,6,36,7
1491087582348,0,-20,40,-15,-25,-6,-41,-34,-30
1491087582349,1,-11,-36,-14,-65,-45,8,11,-25
1491087582349,1,-4,-40,-2,1,3,8,7,19
1491087582385,2,51,-24,22,30,10,25,45,44
1491087582385,2,-17,-38,-11,52,39,72,14,-12
1491087582386,3,-22,30,7,1,6,-64,-12,-16
1491087582386,3,-1,6,-11,-33,-18,-4,-7,-20
1491087582387,0,6,-23,-16,-11,-7,-14,-26,-16
1491087582387,0,-1,-31,13,-10,-9,-13,33,19
1491087582387,1,-22,40,-12,56,27,10,-55,5
1491087582387,1,-31,-4,-23,-19,-13,-7,-4,-25
1491087582422,2,29,78,70,-26,-16,22,6,-5
1491087582422,2,-15,-25,-4,19,-4,-12,10,3
1491087582424,3,7,20,-3,10,6,23,-5,14
1491087582424,3,1,84,42,-1,-2,-29,8,-8
1491087582424,0,-1,49,-28,3,23,3,6,3
1491087582424,0,-13,87,-9,-14,7,-5,-16,-4
1491087582425,1,-3,106,-5,13,-21,12,10,2
1491087582425,1,10,-110,7,12,3,-11,52,16
1491087582460,2,-8,-112,-11,-18,-2,5,-36,-30
1491087582460,2,12,-51,61,36,15,-1,0,28
1491087582462,3,-8,-32,-37,-1,20,-11,-20,-8
1491087582462,3,1,35,16,-3,4,14,23,6
1491087582463,0,-26,24,-66,4,-9,-11,-17,-10
1491087582463,0,-38,-19,-58,-40,-23,-36,-23,-30
1491087582464,1,2,-2,24,-8,-12,6,12,-1
1491087582464,1,4,13,-32,-4,-2,2,-11,5
1491087582498,2,11,-13,91,0,20,19,11,1
1491087582498,2,-8,27,-62,-17,-7,-7,0,-13
1491087582499,3,-21,-20,-5,4,-20,-11,0,2
1491087582499,3,-52,-17,-46,2,-15,-18,-28,-10
1491087582500,0,3,-14,-37,5,-30,17,33,15
1491087582500,0,-32,-30,8,3,5,-27,-60,-22
1491087582535,1,52,-46,49,6,10,-12,-36,-2
1491087582535,1,-14,-15,-16,24,33,16,4,1
1491087582536,2,8,-7,6,-6,4,55,-11,-4
1491087582536,2,-1,-16,-48,9,-7,-44,22,29
1491087582538,3,-25,-64,28,-39,-20,-20,-11,-17
1491087582538,3,20,-67,-4,1,-18,-34,-93,-18
1491087582539,0,23,-87,-13,10,12,10,13,-8
1491087582539,0,-35,-70,53,21,9,23,61,13
1491087582573,1,-7,-1,26,-25,6,-13,-17,-5
1491087582573,1,-24,50,-35,29,21,3,33,-1
1491087582574,2,85,83,3,-12,-14,-21,0,-12
1491087582574,2,56,61,-11,-3,-15,7,-25,-1
1491087582574,3,-26,58,-20,14,-4,19,11,-17
1491087582574,3,13,55,11,-6,26,28,74,20
1491087582575,0,1,47,8,4,25,-25,12,-9
1491087582575,0,-17,34,30,-9,3,8,26,-28
1491087582610,1,-42,19,-23,15,-31,-25,-44,8
1491087582610,1,-2,9,5,-29,-31,6,-43,-13
1491087582611,2,-35,20,-45,-12,-20,11,9,9
1491087582611,2,126,11,22,0,16,5,3,-7
1491087582612,3,-72,3,-14,4,15,14,41,0
1491087582612,3,-28,-4,-4,25,10,-26,15,-2
1491087582647,0,-49,7,35,-21,9,9,14,-13
1491087582647,0,-8,4,-15,-39,-17,22,48,8
1491087582648,1,40,-5,9,46,38,-17,-36,-11
1491087582648,1,-29,108,12,19,11,-23,-41,-34
1491087582686,2,-10,126,-1,31,14,-28,52,-19
1491087582686,2,21,127,-34,10,1,-16,-26,-26
1491087582687,3,-17,127,-19,-6,33,30,76,4
1491087582687,3,110,32,26,-6,-10,-20,-13,-16
1491087582688,0,-39,-18,-7,-10,3,14,39,37
1491087582688,0,14,-26,16,-14,-1,20,-36,19
1491087582689,1,13,-48,38,-6,14,34,78,21
1491087582689,1,-97,-61,42,-13,-22,-13,-56,-57
1491087582723,2,74,-33,-14,-15,3,42,2,34
1491087582723,2,-70,-81,-20,-11,-13,-10,-45,8
1491087582725,3,125,-10,-30,-8,-19,4,-43,3
1491087582725,3,-29,22,-23,17,-1,7,17,18
1491087582726,0,-19,28,17,51,14,-35,-26,9
1491087582726,0,67,23,4,20,1,-15,-15,1
1491087582727,1,-66,-26,-4,-6,-4,-20,23,-2
1491087582727,1,76,-56,-8,-30,2,44,39,72
1491087582760,2,-2,-75,-25,-25,-20,-7,-21,10
1491087582760,2,-30,-46,-6,-16,6,22,25,-20
1491087582761,3,-50,-4,6,-13,-15,-16,-18,-25
1491087582761,3,15,-21,-27,-31,-32,0,-21,-20
1491087582761,0,-15,-36,-12,-7,-6,-7,-15,-9
1491087582761,0,13,-5,20,12,-2,5,-41,31
1491087582762,1,-53,-42,-23,-14,-22,11,-43,3
1491087582762,1,78,12,9,-11,0,29,-3,33
1491087582797,2,109,-9,9,2,16,20,10,9
1491087582797,2,-68,-37,-14,-12,-24,-40,-10,-29
1491087582798,3,-9,-52,-10,-33,-14,0,-21,-9
1491087582798,3,-28,-70,0,4,-16,-18,-20,2
1491087582799,0,-53,-42,4,11,-24,-2,-59,-22
1491087582799,0,43,-29,0,-19,-2,33,63,18
1491087582800,1,-11,-82,0,-26,-36,11,16,17
1491087582800,1,81,-76,-6,-24,-43,-28,-25,1
1491087582835,2,-16,-40,-10,-10,-29,-1,-3,9
1491087582835,2,-13,-33,15,7,3,-17,-77,-22
1491087582836,3,52,77,14,33,8,16,84,26
1491087582836,3,-25,3,3,10,13,16,-34,-16
1491087582836,0,-9,-1,-1,3,7,-40,17,-9
1491087582836,0,-22,37,1,11,13,30,57,12
1491087582837,1,48,37,-21,-7,-2,-15,-33,-35
1491087582837,1,-5,94,14,30,-21,-45,7,-16
1491087582872,2,-88,73,6,-5,31,47,9,11
1491087582872,2,-118,-45,-10,13,10,-47,-76,-67
1491087582874,3,83,-63,-8,-12,-34,6,37,22
1491087582874,3,62,-83,-9,-1,38,-13,13,1
1491087582874,0,-18,-1,14,35,-8,-31,-51,-4
1491087582874,0,12,40,-3,17,-5,71,13,20
1491087582875,1,31,43,15,3,123,-54,-53,-33
1491087582875,1,-49,-52,-46,-63,-72,13,52,-20
1491087582910,2,-13,-50,-6,-45,-84,-15,28,15
1491087582910,2,-42,-72,-16,-40,-2,28,5,-12
1491087582911,3,98,-75,-8,26,6,-44,40,53
1491087582911,3,6,1,41,35,43,121,-68,17
1491087582912,0,26,-44,-2,-18,6,-105,-8,-7
1491087582912,0,95,28,19,-13,-9,72,92,36
1491087582913,1,-5,-3,-5,-2,-29,-12,-93,-29
1491087582913,1,61,15,-23,2,60,40,127,-11
1491087582947,2,34,11,9,49,9,-22,-43,-68
1491087582947,2,-110,66,-2,32,-68,-33,-25,0
1491087582949,3,58,25,7,34,102,8,-22,-20
1491087582949,3,8,51,13,21,-62,-29,10,6
1491087582951,0,10,31,-11,-39,-84,49,3,14
1491087582951,0,91,-52,-31,9,33,-87,-40,14
1491087582952,1,-119,-18,17,12,13,-38,-41,-31
1491087582952,1,-87,-27,-9,-2,48,7,-8,4
1491087582985,2,89,4,-12,-5,91,39,76,3
1491087582985,2,-37,35,16,-25,-108,-85,-86,-45
1491087582987,3,-19,6,-3,-33,10,22,18,-7
1491087582987,3,-24,-69,-5,42,37,-6,-26,19
1491087582988,0,-20,-2,4,3,89,-38,-14,-78
1491087582988,0,80,62,25,40,127,57,97,44
1491087582990,1,-46,62,-17,-32,-104,-40,-48,-21
1491087582990,1,75,59,16,33,51,-51,-58,17
1491087583023,2,87,33,26,67,47,96,113,120
1491087583023,2,-78,6,-11,-26,109,15,-112,-63
1491087583025,3,4,-38,-11,-31,-98,-28,46,-27
1491087583025,3,-41,102,7,40,71,72,-81,4
1491087583026,0,-55,-56,-30,-8,-128,-114,-37,-8
1491087583026,0,127,-40,-19,10,127,86,0,24
1491087583027,1,-84,-13,13,1,-128,14,-35,9
1491087583027,1,-91,4,2,3,44,7,-96,-16
1491087583061,2,82,24,4,-2,-21,17,-65,-70
1491087583061,2,-128,-47,-13,-13,-119,-75,114,64
1491087583062,3,100,-41,2,-23,91,102,21,-19
1491087583062,3,-87,-27,-2,-51,-128,-128,-9,-7
1491087583063,0,58,0,-11,-15,-63,50,29,-1
1491087583063,0,29,-85,8,-5,16,47,-4,-21
1491087583098,1,55,69,-7,64,49,35,92,68
1491087583098,1,-76,-47,-6,-36,-77,-70,-47,-27
1491087583101,2,-69,-37,2,20,64,103,52,-15
1491087583101,2,-82,37,15,22,-2,20,-8,-5
1491087583102,3,-68,71,9,31,49,20,-49,-65
1491087583102,3,119,23,-8,50,123,-67,70,8
1491087583102,0,-107,14,-30,-87,-117,42,48,-34
1491087583102,0,34,-47,5,35,127,-50,-95,-3
1491087583135,1,-31,35,-17,-35,-10,21,-19,9
1491087583135,1,-75,-27,-7,-80,-128,92,-39,-3
1491087583136,2,63,-103,-13,14,127,-106,-13,14
1491087583136,2,111,65,7,-5,-58,127,96,-1
1491087583137,3,-84,-46,-15,-69,-91,47,32,-7
1491087583137,3,127,-51,-1,52,92,58,127,7
1491087583137,0,-26,-22,28,61,-44,-54,-56,73
1491087583137,0,-65,31,-15,-10,-72,-13,69,-59
1491087583173,1,72,42,26,16,-4,-12,48,6
1491087583173,1,-81,16,-27,-62,-95,13,57,-28
1491087583174,2,-55,-15,14,32,-66,52,0,4
1491087583174,2,89,66,13,74,38,-64,-83,53
1491087583210,3,-106,-127,-40,-61,-97,-70,-29,-22
1491087583210,3,-53,70,45,15,-20,-15,20,81
1491087583211,0,-103,10,-20,-55,81,69,-46,-23
1491087583211,0,44,-33,13,-2,-128,-120,69,41
1491087583212,1,-22,0,6,16,85,127,-32,-17
1491087583212,1,-65,-13,5,34,-4,-47,105,33
1491087583212,2,-60,55,-3,-2,-93,-59,-71,5
1491087583212,2,-77,-87,-13,-32,127,35,0,-17
1491087583247,3,48,46,15,-7,-81,66,117,45
1491087583247,3,-80,-6,-22,-56,-11,-43,-103,-76
1491087583249,0,69,10,-14,-58,-10,63,82,-66
1491087583249,0,39,14,4,11,53,-32,-90,-5
1491087583250,1,-26,30,11,-26,-96,-36,-45,11
1491087583250,1,7,52,21,45,118,-3,-55,15
1491087583250,2,60,44,-13,-13,-46,-13,37,-44
1491087583250,2,-112,109,-12,-32,-10,-58,-52,-46
1491087583285,3,127,-83,-9,-14,-9,-128,-13,-14
1491087583285,3,10,-71,11,61,94,-27,99,50
1491087583286,0,16,105,7,57,118,18,11,-2
1491087583286,0,11,-73,-14,-15,-128,5,85,62
1491087583287,1,-32,-37,4,29,96,5,53,26
1491087583287,1,-46,-75,-9,13,51,127,-80,-42
1491087583287,2,-24,-128,2,-18,-47,-73,9,38
1491087583287,2,-32,-94,-7,-22,48,36,54,24
1491087583322,3,-128,-63,-12,8,-7,71,25,-3
1491087583322,3,125,-82,-28,-88,-4,79,-1,-51
1491087583324,0,-27,-89,24,54,12,60,-31,111
1491087583324,0,-71,-44,-10,-25,-62,-4,32,-55
1491087583324,1,29,-128,-22,-3,-85,-35,-2,54
1491087583324,1,60,-11,1,-8,12,107,52,-14
1491087583325,2,21,-34,15,37,119,-26,-5,46
1491087583325,2,-78,-37,-31,-63,-105,-21,93,62
1491087583360,3,30,-2,23,34,109,-69,-121,-6
1491087583360,3,12,73,7,2,-128,59,91,65
1491087583361,0,-24,127,26,-16,81,51,49,52
1491087583361,0,-6,84,-71,-63,-128,40,-108,-69
1491087583362,1,-66,28,9,14,-44,37,33,6
1491087583362,1,66,118,33,15,23,94,50,32
1491087583362,2,-10,12,-7,9,-21,-71,-107,-14
1491087583362,2,19,-4,19,33,-1,-42,50,47
1491087583397,3,-76,-29,2,21,102,-33,-107,-115
1491087583397,3,-38,-48,-17,-16,59,-97,-60,-44
1491087583399,0,7,-94,-15,-9,-58,-126,45,-33
1491087583399,0,2,-83,20,7,-40,14,73,-68
1491087583399,1,20,-95,-9,23,111,-128,-55,-54
1491087583399,1,-37,-92,17,36,-42,-5,16,-2
1491087583400,2,-38,83,3,6,122,127,38,-61
1491087583400,2,-17,-10,-10,-28,-94,-75,-128,-119
1491087583435,3,-29,64,9,4,-9,-14,78,8
1491087583435,3,-27,10,-29,22,92,-128,24,-16
1491087583436,0,8,-46,-31,-21,-128,-128,-85,-9
1491087583436,0,63,77,15,0,39,127,51,65
1491087583436,1,-3,127,22,54,68,-13,21,75
1491087583436,1,32,107,-15,-50,-113,58,-55,-87
1491087583437,2,-4,63,-36,-10,94,121,2,6
1491087583437,2,-29,18,33,-5,-79,-60,-43,0
1491087583473,3,31,50,12,14,97,-44,24,-16
1491087583473,3,-91,-30,-7,-30,-87,27,16,-22
1491087583474,0,21,-62,-40,-73,-124,-85,-49,-50
1491087583474,0,-10,-31,10,33,127,111,46,27
1491087583475,1,7,-49,-24,-19,-92,127,76,41
1491087583475,1,51,-105,41,58,22,45,10,53
1491087583476,2,-2,-62,-30,-65,50,-53,53,-7
1491087583476,2,-55,-45,17,73,-23,-122,21,78
1491087583511,3,59,0,-32,-74,110,39,-10,-44
1491087583511,3,51,22,12,42,-90,-99,-49,26
1491087583512,0,15,31,20,-37,-121,13,30,45
1491087583512,0,80,23,-6,-22,113,44,-23,-8
1491087583513,1,22,24,13,66,-15,87,24,59
1491087583513,1,28,34,-16,-75,24,14,58,50
1491087583548,2,-20,18,35,83,101,-69,6,-24
1491087583548,2,-8,5,-38,-27,-94,-88,-78,-43
1491087583551,3,23,1,-28,-30,-97,99,48,2
1491087583551,3,-7,30,4,31,79,-49,-69,-11
1491087583552,0,-11,117,16,84,38,40,2,8
1491087583552,0,-46,127,-1,-41,127,38,19,-22
1491087583553,1,-22,55,25,-14,7,67,-31,-32
1491087583553,1,-4,-37,-28,-13,-110,-93,-24,49
1491087583585,2,-76,-70,-31,-40,-61,15,-39,-25
1491087583585,2,50,-77,-10,50,55,5,-64,-24
1491087583587,3,3,-56,10,61,81,26,61,50
1491087583587,3,-3,-30,20,10,51,54,14,-54
1491087583588,0,-1,-40,27,-31,-125,-14,-1,-42
1491087583588,0,-3,-28,-11,-8,-107,-34,4,-4
1491087583589,1,-36,-29,-12,-17,59,-80,-11,29
1491087583589,1,38,-16,-22,-68,-29,4,-3,-17
1491087583622,2,6,0,-1,52,60,40,3,2
1491087583622,2,-2,-22,64,84,118,127,83,6
1491087583623,3,-13,-5,27,26,-128,-11,18,-4
1491087583623,3,10,1,-84,-96,-79,-102,-45,-28
1491087583624,0,-5,-5,-38,-44,5,0,-12,4
1491087583624,0,40,-13,3,-24,-47,2,28,11
1491087583660,1,-10,-7,18,-4,95,54,7,-15
1491087583660,1,-48,31,41,50,91,27,94,-29
1491087583661,2,-27,10,-15,-54,-39,-18,-4,10
1491087583661,2,10,24,-37,21,-79,-48,-51,-17
1491087583661,3,33,18,20,-2,-112,37,-42,1
1491087583661,3,-19,-5,-22,60,-62,12,-76,6
1491087583662,0,56,-17,28,32,2,71,10,23
1491087583662,0,7,-45,-4,-27,124,12,28,-11
1491087583697,1,16,-25,-2,-44,-87,-71,-20,-28
1491087583697,1,-25,-99,32,34,65,7,13,20
1491087583735,2,-48,-23,10,15,-14,43,19,9
1491087583735,2,-29,-4,7,-54,-103,-24,-30,-37
1491087583748,3,13,88,-35,37,83,-73,-73,34
1491087583748,3,-13,27,-26,11,37,27,-6,4
1491087583748,0,-10,11,11,0,15,-58,-5,16
1491087583748,0,14,-64,-2,19,56,19,11,-1
1491087583750,1,-3,-59,5,-6,-28,-21,17,-12
1491087583750,1,-38,-50,41,13,87,7,2,-26
1491087583772,2,24,-40,14,28,26,17,-71,-11
1491087583772,2,22,1,-32,-58,-88,-122,-76,3
1491087583773,3,-28,-14,-28,22,-73,-20,-28,2
1491087583773,3,100,9,16,-7,95,12,25,39
1491087583774,1,8,-47,-15,34,67,83,23,-35
1491087583774,1,15,-5,-30,-59,-128,29,-95,-11
1491087583775,2,8,-16,6,-5,-38,39,-24,37
1491087583775,2,12,27,36,0,-33,-56,-34,24
1491087583810,3,11,-15,26,2,95,-77,76,20
1491087583810,3,-7,27,20,45,-63,7,77,17
1491087583811,0,13,31,-19,-51,77,-68,53,17
1491087583811,0,-16,-38,-23,19,70,119,86,30
1491087583812,1,0,-9,49,60,66,23,47,-1
1491087583812,1,-31,-28,-18,-52,-66,-15,50,-18
1491087583812,2,17,41,-42,-95,-128,-86,-71,14
1491087583812,2,12,-3,-4,9,78,-25,-54,20
1491087583847,3,56,5,-4,-79,26,18,-53,-14
1491087583847,3,-17,-18,8,26,66,35,0,-10
1491087583848,0,-3,-20,-19,18,-41,116,106,-18
1491087583848,0,-14,18,24,32,81,98,126,11
1491087583849,1,10,11,-29,18,-128,121,39,1
1491087583849,1,46,27,-30,-23,28,-17,-18,1
1491087583850,2,8,-55,-1,15,-69,-19,-90,8
1491087583850,2,-13,1,11,50,1,-15,-91,7
1491087583885,3,20,25,-75,32,-69,-90,-71,-8
1491087583885,3,-34,-19,-85,2,57,-17,0,-21
1491087583886,0,4,53,-61,62,25,-41,-8,-5
1491087583886,0,0,80,-121,-45,-94,-56,-3,-19
1491087583887,1,-67,0,-26,38,45,47,-46,-27
1491087583887,1,-5,-6,-17,2,-7,-12,-128,-29
1491087583887,2,-77,-27,37,14,48,18,-77,-41
1491087583887,2,-10,-40,66,24,8,-4,-79,-109
1491087583922,3,-78,-60,-6,-95,31,-69,20,-59
1491087583922,3,-7,-72,41,9,12,-50,59,3
1491087583923,0,-10,-67,-14,-53,84,-58,106,38
1491087583923,0,53,-21,-21,15,-42,-128,28,-83
1491087583924,1,-48,-26,10,4,24,-110,-108,-116
1491087583924,1,34,-23,-11,-72,-62,117,-45,-128
1491087583925,2,65,-1,38,50,-67,37,-1,-66
1491087583925,2,-27,-24,11,-5,39,127,37,58
1491087583960,3,41,5,55,45,-31,11,36,78
1491087583960,3,-23,22,6,-39,58,47,46,101
1491087583961,0,45,24,96,28,16,65,33,59
1491087583961,0,-34,22,67,-33,-91,32,28,86
1491087583962,1,88,32,15,-27,39,59,26,76
1491087583962,1,-5,55,81,22,31,-6,16,66
1491087583962,2,23,31,-49,-45,0,65,20,23
1491087583962,2,12,4,37,31,-14,13,3,50
1491087583997,3,11,-2,-18,15,26,-74,6,39
1491087583997,3,-20,10,-3,30,-5,-59,11,20
1491087583998,0,1,-1,29,1,15,-34,-1,1
1491087583998,0,2,-6,-3,6,-24,17,2,24
1491087583999,1,-23,-18,-27,-44,-7,25,5,8
1491087583999,1,-31,0,4,-6,64,-27,4,3
1491087584000,2,-27,-14,46,29,20,20,-2,-3
1491087584000,2,-46,-9,-21,-3,52,19,-4,12
1491087584035,3,4,5,-16,-20,-9,-61,5,0
1491087584035,3,-19,8,-5,22,0,5,-1,3
1491087584036,0,-31,-7,2,14,22,3,-4,-2
1491087584036,0,-34,-18,-29,-17,53,-27,0,3
1491087584037,1,19,-9,-10,8,-72,11,-4,0
1491087584037,1,-77,15,-21,12,-41,-17,13,2
1491087584038,2,72,8,18,1,11,-58,49,-7
1491087584038,2,-17,3,4,-45,-5,-65,21,1
1491087584072,3,16,4,68,52,-12,20,18,1
1491087584072,3,0,-1,9,-7,-52,-16,36,1
1491087584074,0,-11,-8,20,-12,-40,-2,16,-6
1491087584074,0,1,-5,18,37,42,-1,18,2
1491087584074,1,-42,-1,6,-54,-25,12,0,1
1491087584074,1,47,-1,22,18,-46,-15,-12,-1
1491087584110,2,-49,-13,-17,-21,23,3,-7,-4
1491087584110,2,-9,-3,22,17,38,9,11,1
1491087584111,3,-10,-18,-26,-30,-66,17,14,-1
1491087584111,3,-27,-1,-4,13,1,8,2,-1
1491087584111,0,-37,2,-17,-10,-7,1,-5,-3
1491087584111,0,38,14,-20,-8,-2,-13,-17,21
1491087584112,1,-34,9,-11,8,0,5,-2,9
1491087584112,1,36,5,0,-4,8,4,20,28
1491087584147,2,11,39,-19,7,10,37,-19,15
1491087584147,2,10,81,-2,3,-23,-78,-51,-9
1491087584148,3,-18,126,-16,-14,30,13,25,8
1491087584148,3,-26,40,-1,-4,-16,-19,-10,1
1491087584149,0,-11,-21,22,12,2,-12,-27,8
1491087584149,0,-7,37,3,-1,16,17,8,21
1491087584150,1,25,97,2,-12,11,12,-12,-4
1491087584150,1,-11,99,9,-11,-3,-16,-16,-15
1491087584185,2,-28,127,-18,6,-15,-10,5,-15
1491087584185,2,-5,70,-13,6,21,18,-1,-11
1491087584186,3,-35,-22,-19,-22,-36,-24,-11,-4
1491087584186,3,-54,8,15,30,38,24,-20,-1
1491087584187,0,-51,-105,-15,1,-8,17,17,4
1491087584187,0,-19,-72,-21,-1,-42,-64,-17,-14
1491087584223,1,-6,-18,-12,-6,25,-13,-8,-15
1491087584223,1,-9,-98,-16,26,-1,-9,-24,-30
1491087584223,2,-26,-104,9,20,67,-5,-17,-11
1491087584223,2,-48,-112,-15,-1,-52,-7,20,30
1491087584224,3,-74,-128,16,1,12,24,-29,-23
1491087584224,3,109,-59,-14,-31,-51,-50,-6,17
1491087584225,0,120,-36,-20,-24,-9,-23,-21,10
1491087584225,0,24,-76,-2,-1,1,49,5,-16
1491087584261,1,36,-69,-7,20,56,-15,4,-2
1491087584261,1,-59,-52,-16,21,-33,38,12,3
1491087584262,2,-15,-31,-4,12,-15,-26,-23,33
1491087584262,2,43,-19,-15,-8,25,-39,-25,111
1491087584263,3,-9,-5,22,-5,20,52,20,127
1491087584263,3,18,-16,3,-5,4,-10,0,42
1491087584264,0,-19,5,6,-9,-31,-30,-1,-25
1491087584264,0,-27,-25,12,7,-13,50,1,-56
1491087584297,1,63,-57,17,17,44,40,21,2
1491087584297,1,1,28,-6,-29,3,-48,22,26
1491087584298,2,38,53,1,-39,-46,-6,-47,16
1491087584298,2,52,45,1,7,-24,-9,14,85
1491087584299,3,13,54,-7,-40,8,-3,-6,62
1491087584299,3,-7,-14,12,32,-11,5,-16,26
1491087584300,0,-40,-115,3,-3,45,53,29,-12
1491087584300,0,-56,-118,21,5,-81,-23,-11,-88
1491087584335,1,-49,-128,-12,-4,-30,-26,-12,-73
1491087584335,1,18,11,5,-18,-16,84,-14,-79
1491087584337,2,4,97,-12,-2,-17,-51,22,-87
1491087584337,2,104,-94,-4,30,31,3,-8,-70
1491087584338,3,38,-31,-3,-4,48,-54,36,-94
1491087584338,3,10,17,10,6,50,7,-30,-74
1491087584339,0,48,108,9,41,-17,50,22,-30
1491087584339,0,9,127,0,-17,-30,-38,1,-29
1491087584372,1,10,127,-14,-15,-87,4,5,-46
1491087584372,1,69,87,-15,5,71,-14,2,-20
1491087584374,2,-33,84,12,-5,66,3,10,-10
1491087584374,2,8,85,-8,-7,-52,34,2,1
1491087584374,3,66,65,3,27,10,1,-16,-17
1491087584374,3,18,47,-9,-28,-28,-23,-13,-10
1491087584410,0,-35,15,-19,15,-18,-8,-13,1
1491087584410,0,-33,23,21,9,101,52,42,-14
1491087584411,1,62,40,-10,-35,-26,-11,-53,-30
1491087584411,1,-22,7,-10,-12,-87,-2,45,9
1491087584411,2,-25,15,-9,-8,-42,-65,-68,-12
1491087584411,2,31,60,3,0,-55,0,2,6
1491087584412,3,-2,64,5,30,127,56,6,-11
1491087584412,3,46,57,8,-5,-89,-27,15,24
1491087584447,0,-17,61,-7,-21,-66,-27,9,14
1491087584447,0,-25,61,-11,-5,82,81,16,-11
1491087584448,1,-68,41,7,30,28,-10,17,26
1491087584448,1,-13,48,1,10,-1,-73,-41,-7
1491087584449,2,7,81,9,45,127,121,74,27
1491087584449,2,-47,46,-6,-60,-105,-113,38,-23
1491087584450,3,-12,4,-22,-34,-128,-65,-67,-36
1491087584450,3,92,-120,-2,37,124,69,27,-4
1491087584485,0,-67,-121,14,21,82,99,-1,2
1491087584485,0,56,-89,-3,8,37,-1,8,-2
1491087584486,1,4,-94,-1,-8,-96,-77,-18,93
1491087584486,1,-109,-82,-8,6,-9,-17,-29,72
1491087584487,2,67,-58,9,5,-4,56,10,24
1491087584487,2,-62,9,8,23,96,72,-20,-19
1491087584522,3,48,-9,-12,-51,-108,-89,-83,-49
1491087584522,3,-25,37,-7,7,11,8,50,-21
1491087584523,0,-56,29,-9,-41,-102,-42,-98,-54
1491087584523,0,46,31,11,-7,107,-30,51,11
1491087584524,1,-61,32,6,17,48,78,-22,-18
1491087584524,1,50,37,-6,7,-14,87,-50,-19
1491087584525,2,-91,41,5,-35,-101,-105,-40,-44
1491087584525,2,53,55,-3,-7,64,-48,-22,-11
1491087584597,3,94,52,-4,13,-10,68,54,34
1491087584597,3,-95,1,-14,-22,-43,-69,-47,-18
1491087584598,0,27,-25,-14,-1,79,80,110,19
1491087584598,0,6,0,-7,1,-42,56,-13,12
1491087584599,1,-6,78,-1,55,34,24,11,-5
1491087584599,1,-10,20,14,-25,32,-28,10,-25
1491087584600,2,79,9,-11,-4,66,-26,-2,5
1491087584600,2,-114,-32,-4,-2,-54,-52,-23,-32
1491087584635,3,52,-48,0,19,46,90,52,-3
1491087584635,3,-2,-78,6,38,-87,22,32,-6
1491087584636,0,64,-84,-13,6,106,50,25,-2
1491087584636,0,56,-97,-35,29,33,-41,-8,-10
1491087584637,1,-126,-96,-26,-46,-127,-42,-39,-40
1491087584637,1,29,4,-17,-17,23,60,7,-21
1491087584637,3,-8,74,-14,13,127,-22,-30,-4
1491087584637,3,-44,66,-15,-25,-93,-63,-20,-5
1491087584673,0,-21,79,1,-6,78,79,3,15
1491087584673,0,2,-91,6,-9,-100,-58,27,70
1491087584673,1,-32,-104,14,-14,-1,55,-21,-20
1491087584673,1,-79,-82,4,-5,28,48,0,9
1491087584674,2,58,-26,-14,-20,-60,-116,-82,-10
1491087584674,2,-15,50,-23,58,42,92,-10,35
1491087584675,3,-31,77,-11,3,20,-108,45,25
1491087584675,3,4,112,-16,-2,30,87,-16,-16
1491087584710,0,-53,24,-3,4,-5,6,-33,-30
1491087584710,0,-18,0,6,-38,13,-23,-17,-19
1491087584711,1,73,-31,-3,11,8,20,43,28
1491087584711,1,5,-66,9,-6,32,-52,-6,-7
1491087584711,2,-55,-24,18,-8,-38,-6,-12,-20
1491087584711,2,-14,-31,6,-16,-45,53,43,-7
1491087584712,3,-25,-20,1,-36,-12,-62,-55,-25
1491087584712,3,41,19,-4,14,56,39,25,18
1491087584747,0,-81,23,18,26,-77,2,-26,-22
1491087584747,0,-32,12,0,3,51,37,66,48
1491087584749,1,-15,-28,14,-3,19,-20,7,-40
1491087584749,1,29,23,10,22,-17,-26,29,51
1491087584749,2,-99,-18,-7,-16,-26,14,51,1
1491087584749,2,38,4,7,3,20,-27,-52,-37
1491087584750,3,29,82,23,35,37,30,77,47
1491087584750,3,-53,-10,6,-17,7,-2,-22,-43
1491087584785,0,98,8,-4,-11,-84,-37,21,33
1491087584785,0,-82,-21,13,1,-77,-14,6,-31
1491087584786,1,75,6,24,8,75,81,1,10
1491087584786,1,19,-29,-7,4,1,-15,20,-62
1491087584786,2,16,9,14,-14,-12,-41,-5,-16
1491087584786,2,-5,20,31,-20,-5,-8,-52,-36
1491087584787,3,-15,-22,10,33,-6,-27,-45,11
1491087584787,3,-15,5,-15,-8,77,44,53,26
1491087584822,0,127,4,-31,-10,-47,-7,11,23
1491087584822,0,-71,6,-16,17,-25,-20,-24,-16
1491087584823,1,60,-1,7,11,-20,26,16,30
1491087584823,1,9,-15,6,7,-6,-2,-1,16
1491087584824,2,-47,-40,10,9,-25,41,-14,-7
1491087584824,2,-48,-5,-10,-4,90,-16,-2,-7
1491087584825,3,-24,-31,-7,-29,-33,-5,40,-7
1491087584825,3,76,1,11,-1,-55,-10,-12,5
1491087584860,0,17,-10,9,21,44,20,-12,20
1491087584860,0,35,22,3,-12,15,39,-8,16
1491087584861,1,-60,-17,0,-40,-102,-36,-87,-52
1491087584861,1,24,-9,3,-27,18,-24,52,48
1491087584861,2,-27,-63,-10,-2,-41,11,-8,3
1491087584861,2,99,-16,14,10,93,-16,15,-58
1491087584862,3,-31,38,-10,39,59,42,32,-1
1491087584862,3,-51,-1,-9,-17,-64,-17,-81,-70
1491087584897,0,19,10,3,-17,-45,-18,34,25
1491087584897,0,-37,-17,-9,-16,-31,-42,-58,30
1491087584898,1,0,-27,18,1,-19,-3,55,22
1491087584898,1,17,-27,1,-4,-2,25,-6,27
1491087584899,2,25,49,20,27,45,28,23,37
1491087584899,2,-86,6,14,17,9,8,-45,7
1491087584900,3,28,62,14,5,-22,-100,49,-1
1491087584900,3,-69,19,12,52,35,-128,9,16
1491087584935,0,-10,6,2,2,23,-44,31,-8
1491087584935,0,30,15,14,12,11,60,48,15
1491087584935,1,-6,5,-3,4,49,106,-37,-13
1491087584935,1,-17,-25,-26,-41,-18,127,-65,10
1491087584936,2,-32,-9,-14,-52,-59,89,-11,-35
1491087584936,2,52,14,-20,-1,-75,127,6,4
1491087584937,3,-29,-3,-12,-8,38,-1,-17,-11
1491087584937,3,-83,-25,-13,-27,9,32,4,-26
1491087584972,0,-29,51,4,29,109,88,31,-13
1491087584972,0,27,-24,-9,7,-34,-70,-11,6
1491087584973,1,36,19,-29,-12,-77,24,-7,-14
1491087584973,1,6,36,0,15,-33,5,37,-5
1491087584974,2,70,-63,0,-20,58,-67,-59,7
1491087584974,2,-10,-11,4,14,30,68,17,-10
1491087584975,3,-21,84,7,34,106,98,97,47
1491087584975,3,-34,-68,5,-41,-75,-98,-102,-95
1491087585010,0,-47,-29,-13,-43,-48,25,85,14
1491087585010,0,38,-105,-36,13,25,-98,9,-3
1491087585011,1,-31,19,2,2,-8,-14,4,-1
1491087585011,1,59,76,47,34,-24,-3,21,19
1491087585011,2,-116,26,-19,23,92,66,15,-11
1491087585011,2,-70,-46,-13,-76,-111,-99,-95,-87
1491087585012,3,45,-47,-31,-9,9,-30,28,11
1491087585012,3,82,-23,-5,38,127,98,-50,15
1491087585047,0,6,-4,37,27,19,-117,-2,11
1491087585047,0,59,98,-15,-7,-28,26,81,-36
1491087585048,1,-116,-68,-23,-19,5,-67,-93,-52
1491087585048,1,35,-57,-10,-6,-38,29,25,-3
1491087585050,2,82,-95,33,30,109,-4,30,66
1491087585050,2,-104,0,29,48,73,78,-18,23
1491087585051,3,-11,-1,6,-39,-128,-38,-42,9
1491087585051,3,29,94,-30,-2,-19,3,89,27
1491087585085,0,-23,42,-3,19,1,-30,-64,-17
1491087585085,0,-3,54,-6,-34,55,77,36,27
1491087585086,1,115,-18,1,29,35,75,79,36
1491087585086,1,-128,-64,6,-16,121,-55,-52,-50
1491087585087,2,10,6,-51,-28,-128,50,94,38
1491087585087,2,72,-31,-13,-21,30,-128,-52,1
1491087585122,3,-128,30,0,42,18,88,5,-81
1491087585122,3,11,-59,-2,-35,-44,74,-38,-15
1491087585123,0,50,-44,-7,25,57,-66,3,17
1491087585123,0,-110,68,19,47,105,113,73,4
1491087585124,1,10,-56,-1,-51,-11,-49,-37,8
1491087585124,1,-82,19,-19,22,-15,-38,114,7
1491087585125,2,1,10,-3,-38,-29,0,-126,-79
1491087585125,2,122,-84,-15,8,-62,-21,11,33
1491087585198,3,-33,13,18,32,77,-84,-46,1
1491087585198,3,-52,57,8,2,-13,32,18,31
1491087585199,0,-45,-25,-8,-44,23,80,-12,-8
1491087585199,0,2,-13,-6,-23,-55,-75,4,17
1491087585199,1,-18,72,8,-9,-105,127,39,109
1491087585199,1,3,2,-1,8,94,-26,-5,107
1491087585201,2,35,68,24,0,13,-103,3,14
1491087585201,2,-5,65,1,-2,59,81,19,-8
1491087585235,3,78,28,-16,-26,-84,47,25,-5
1491087585235,3,-9,42,26,25,-80,-53,-69,-69
1491087585236,0,-109,-8,6,46,111,127,24,-25
1491087585236,0,81,-92,8,33,-25,-112,-6,-19
1491087585236,1,-68,-30,13,-7,-65,54,-73,-34
1491087585236,1,63,-2,3,-4,50,85,-43,-37
1491087585237,3,76,-36,-9,17,-28,5,-1,51
1491087585237,3,71,-54,2,-28,57,43,-66,20
1491087585272,0,-118,-72,-34,-42,-53,21,21,10
1491087585272,0,9,72,0,-12,-46,-8,-42,-13
1491087585274,1,58,11,15,8,25,56,17,-9
1491087585274,1,-99,29,19,1,41,-13,119,113
1491087585274,2,13,-41,-17,-12,-66,-46,-99,-101
1491087585274,2,-33,-3,-6,-32,79,5,14,80
1491087585275,3,-57,-127,-19,18,114,-94,3,-24
1491087585275,3,109,24,-5,-29,-103,11,-12,-109
1491087585310,0,-64,13,18,-7,56,48,127,41
1491087585310,0,-48,16,-11,40,-120,-23,-26,-49
1491087585311,1,-27,58,-17,-27,13,-66,-60,-69
1491087585311,1,10,-51,5,26,-90,53,-18,-68
1491087585311,2,63,-10,5,-14,101,-113,-40,-1
1491087585311,2,-7,4,-19,-5,-128,36,-34,-57
1491087585312,3,-31,-86,-19,-26,30,82,127,90
1491087585312,3,22,-57,-2,21,-12,-115,-83,-92
1491087585347,0,56,95,5,9,-71,43,46,46
1491087585347,0,40,-75,-27,-46,21,-48,-96,-33
1491087585348,1,43,-115,-24,-13,68,-128,73,1
1491087585348,1,-43,108,22,21,-19,79,48,36
1491087585349,2,65,12,3,63,-1,57,-58,-30
1491087585349,2,-66,-59,-18,-103,-80,-23,41,4
1491087585350,3,68,-44,6,27,-23,-7,-74,-11
1491087585350,3,-19,-1,-2,36,37,73,110,112
1491087585385,0,-78,64,-12,-26,85,-125,-128,-83
1491087585385,0,0,-27,2,24,-16,107,-35,22
1491087585386,1,7,-30,25,4,16,-110,-69,-38
1491087585386,1,-51,4,9,-30,-5,4,30,-19
1491087585386,2,22,-2,29,69,78,112,11,11
1491087585386,2,-33,-47,-28,-37,27,-81,-9,41
1491087585387,3,-68,66,28,43,-7,60,-66,-54
1491087585387,3,0,19,-5,47,67,26,17,29
1491087585422,0,32,-79,-24,-83,-48,-124,24,-59
1491087585422,0,53,43,56,51,27,125,79,17
1491087585423,1,-127,5,-20,5,72,82,26,-27
1491087585423,1,-23,6,-37,-57,-116,-20,-24,-27
1491087585424,2,34,112,21,67,57,66,104,70
1491087585424,2,15,-30,-27,9,-36,-91,-65,-76
1491087585425,3,12,-8,-11,-64,-117,-61,31,85
1491087585425,3,-31,-88,14,72,127,51,11,-48
1491087585460,0,-84,-71,-13,-15,71,-51,-58,-51
1491087585460,0,99,50,0,20,-5,-43,44,9
1491087585461,1,-95,-13,2,-42,-105,-3,-48,-23
1491087585461,1,120,-27,-15,28,83,-12,-34,70
1491087585461,2,-8,-32,16,-32,47,48,18,-32
1491087585461,2,-85,81,-17,-33,-35,103,79,44
1491087585462,3,82,-82,-8,12,-106,-107,-39,-40
1491087585462,3,46,16,4,-7,42,80,75,44
1491087585498,0,58,-79,-4,56,-106,-79,-46,51
1491087585498,0,-51,16,6,-7,109,74,25,5
1491087585499,1,-24,-4,-14,7,127,-84,63,68
1491087585499,1,-11,-55,-31,-30,-68,-37,-79,-91
1491087585499,2,-32,9,16,74,-62,76,56,-28
1491087585499,2,31,-30,7,108,95,-8,-36,45
1491087585500,3,88,-8,-37,0,-96,1,-30,74
1491087585500,3,57,-21,52,19,-27,-114,-37,-33
1491087585535,0,-59,3,-46,-85,45,-4,-80,-73
1491087585535,0,-32,-16,17,92,-21,82,2,15
1491087585536,1,-40,61,16,-46,-2,52,22,-19
1491087585536,1,55,9,-25,-89,76,0,22,51
1491087585536,2,12,-9,5,-50,-79,-58,-58,9
1491087585536,2,-24,79,31,-57,122,-35,29,-8
1491087585537,3,-7,67,-10,-15,-49,85,39,49
1491087585537,3,-109,1,-9,-24,19,-126,-64,-64
1491087585572,0,53,8,-9,-43,-64,74,122,-19
1491087585572,0,20,-18,3,-8,11,-6,-1,-15
1491087585573,1,-10,-13,-12,-6,-33,6,-20,-54
1491087585573,1,-62,-14,-11,1,-23,127,90,103
1491087585574,2,37,-8,28,60,108,-57,-68,26
1491087585574,2,-16,-5,-7,-19,-109,-39,47,-44
1491087585575,3,2,110,17,-6,-45,-42,6,-28
1491087585575,3,-20,118,-28,-17,-128,-1,-46,39
1491087585610,0,43,114,5,-18,111,2,7,32
1491087585610,0,26,-3,19,-6,8,53,29,34
1491087585611,1,-35,-43,42,8,-34,67,8,-78
1491087585611,1,7,-58,-4,4,62,-111,59,20
1491087585611,2,-42,-68,-6,30,21,68,55,50
1491087585611,2,-34,-67,-29,13,-76,-38,-55,1
1491087585612,3,24,-48,14,-40,127,-18,-92,-55
1491087585612,3,-6,-31,-1,3,-105,46,-49,-43
1491087585647,0,-45,-56,5,-1,7,55,-23,22
1491087585647,0,23,-21,17,-19,116,61,44,-41
1491087585648,1,21,9,-19,88,-21,21,-6,39
1491087585648,1,3,-14,1,-28,102,-30,-34,-29
1491087585649,2,-5,-20,-13,13,20,-3,-18,-1
1491087585649,2,-4,2,0,-26,60,-13,-31,-8
1491087585685,3,0,1,-32,-16,1,39,26,-34
1491087585685,3,-6,-16,24,24,-60,-15,-13,6
1491087585686,0,24,-3,1,18,-92,23,56,31
1491087585686,0,5,2,20,-9,0,38,4,4
1491087585686,1,-12,-5,-17,10,127,10,14,-16
1491087585686,1,-21,-5,-46,-78,-112,-12,7,3
1491087585687,2,44,7,-23,-119,-59,-51,-14,2
1491087585687,2,15,-16,46,-9,-74,-40,-40,6
1491087585722,3,-7,-4,7,-29,43,43,35,17
1491087585722,3,-27,-5,33,84,127,71,24,-34
1491087585723,0,-85,3,50,56,54,26,19,-12
1491087585723,0,-15,11,-77,-114,-66,-85,-44,-71
1491087585724,1,-5,26,-14,-62,-50,-92,-33,-17
1491087585724,1,-45,17,-2,-36,6,-3,15,-22
1491087585725,2,23,4,-23,73,70,16,-2,13
1491087585725,2,4,6,-32,43,-5,37,18,12
1491087585760,3,-9,1,55,107,-64,7,-11,13
1491087585760,3,45,-2,-41,38,63,-29,-12,3
1491087585761,0,1,-14,6,6,-29,-31,-18,2
1491087585761,0,-11,-6,-15,0,13,14,24,15
1491087585762,1,56,16,-26,66,-76,11,-21,32
1491087585762,1,46,89,0,15,67,-11,5,14
1491087585762,2,-39,68,-1,25,-128,4,9,-7
1491087585762,2,6,15,20,40,68,-13,14,-27
1491087585797,3,-12,-34,-24,14,10,12,14,-18
1491087585797,3,-6,-45,36,-7,84,-4,-15,-8
1491087585798,0,48,-106,-1,39,-128,-8,-19,22
1491087585798,0,0,-117,-15,-59,70,-16,0,-14
1491087585799,1,4,99,1,6,20,25,15,-10
1491087585799,1,6,66,-23,22,-46,24,22,0
1491087585835,2,-19,17,11,-16,40,33,5,-2
1491087585835,2,-10,-39,15,70,38,-6,-22,9
1491087585836,3,-50,-61,-8,-46,-52,52,40,-10
1491087585836,3,34,-20,-55,-57,-51,-110,-95,-18
1491087585837,0,6,-89,-13,-19,55,-26,-15,-3
1491087585837,0,54,-26,34,75,-30,35,6,38
1491087585838,1,19,-128,1,-23,98,7,-7,-56
1491087585838,1,-48,-85,9,-21,-63,27,46,-113
1491087585872,2,-4,-63,-3,10,-36,-8,-6,-84
1491087585872,2,37,-32,0,24,51,30,-3,-16
1491087585874,3,24,-27,17,-34,84,6,-1,-81
1491087585874,3,-19,-25,-32,-60,-128,-82,-26,-35
1491087585874,0,45,13,-57,-31,-6,-29,-14,-11
1491087585874,0,-40,44,40,72,10,12,16,33
1491087585875,1,4,19,-4,10,29,15,-2,75
1491087585875,1,-27,5,36,17,44,71,43,75
1491087585910,2,44,44,-37,-42,-7,-14,-7,59
1491087585910,2,-5,29,-21,-60,-104,-46,-14,27
1491087585911,3,14,-24,-38,-12,-37,28,-9,39
1491087585911,3,21,3,-2,-21,38,22,-17,62
1491087585911,0,-40,31,-30,-39,-12,6,3,8
1491087585911,0,90,36,0,-9,1,-5,7,7
1491087585912,1,32,45,27,60,-26,50,-8,19
1491087585912,1,5,-35,-16,-45,29,94,22,-1
1491087585947,2,-70,32,62,38,15,65,0,12
1491087585947,2,-39,-125,-59,-66,-39,35,-14,-12
1491087585949,3,-41,-100,61,51,-12,-36,-3,0
1491087585949,3,-20,-77,-1,0,36,-44,7,-13
1491087585950,0,-92,-16,1,12,-2,-67,3,-7
1491087585950,0,-64,114,7,17,-16,-96,2,-33
1491087585985,1,-46,103,22,-45,45,-71,11,-8
1491087585985,1,-55,15,-37,-7,24,-44,7,4
1491087585986,2,55,79,73,20,-53,-80,-19,-1
1491087585986,2,24,64,-16,-17,5,-28,-2,-9
1491087585986,3,27,34,57,71,-2,-25,-8,-5
1491087585986,3,19,23,-14,30,0,-27,3,-19
1491087585987,0,23,39,14,-15,-4,-25,3,-12
1491087585987,0,30,48,33,6,6,5,2,-18
1491087586022,1,-11,8,-39,-29,13,-12,-10,-32
1491087586022,1,-19,3,-20,-22,-18,5,0,-11
1491087586023,2,127,-26,45,47,-13,15,-13,19
1491087586023,2,-42,-23,-14,-33,22,17,7,9
1491087586024,3,65,-8,-12,-1,-6,11,0,42
1491087586024,3,-3,8,9,5,-25,8,-11,-96
1491087586025,0,-67,-19,35,37,-31,1,-1,-74
1491087586025,0,5,-19,-16,-22,3,16,-4,-46
1491087586060,1,-17,0,-33,-23,12,1,3,0
1491087586060,1,51,10,37,42,-28,9,-2,88
1491087586097,2,-47,-19,-69,-69,29,18,9,19
1491087586097,2,21,2,4,2,-30,-5,-10,-71
1491087586135,3,-4,2,7,-7,-17,0,-7,-20
1491087586135,3,27,4,23,27,5,7,8,18
1491087586136,0,-28,-9,-37,-21,12,-2,8,32
1491087586136,0,-34,-3,-7,4,3,-8,-5,59
1491087586136,1,-27,13,-8,-6,-9,-13,-2,21
1491087586136,1,-22,-6,19,13,-6,0,-1,30
1491087586137,2,45,-2,-18,13,0,-4,-2,31
1491087586137,2,-25,2,-26,8,-2,-10,-9,40
1491087586172,3,30,-8,-4,-23,10,6,8,12
1491087586172,3,19,-2,24,39,-19,-4,-4,39
1491087586173,0,7,4,2,3,-11,3,-5,7
1491087586173,0,-14,-3,-7,-11,-4,-3,0,3
1491087586174,1,-6,0,10,-2,-5,-9,-10,10
1491087586174,1,116,4,-58,-5,-3,6,2,14
1491087586175,0,-45,-2,-29,-14,7,-4,0,-6
1491087586175,0,-36,-8,34,21,-2,-2,-5,9
1491087586210,1,-29,-2,-11,-9,17,7,10,-5
1491087586210,1,-56,8,18,4,11,-1,0,-4
1491087586211,2,-60,4,-16,-8,-9,-12,-10,1
1491087586211,2,-11,2,-8,4,-8,0,0,10
1491087586211,0,-56,-6,-5,-6,6,-22,-2,-9
1491087586211,0,71,3,-15,-17,-1,5,8,9
1491087586212,1,61,2,8,3,3,-12,-1,-16
1491087586212,1,-72,-5,58,15,18,8,-9,-5
1491087586247,2,-7,-3,-30,-18,-17,9,7,18
1491087586247,2,-10,-23,0,22,-9,-1,-1,-10
1491087586249,3,-1,-19,-18,-8,-16,-18,-16,6
1491087586249,3,24,-13,-14,-19,11,-5,5,-19
1491087586250,0,38,19,32,7,23,41,14,8
1491087586250,0,35,-1,-2,-8,-27,-73,-27,-10
1491087586250,1,67,-5,-7,2,41,41,11,-8
1491087586250,1,-20,0,-27,-42,-14,-23,-11,-5
1491087586285,2,40,-10,4,5,-21,-9,-2,104
1491087586285,2,28,112,4,23,11,33,12,124
1491087586286,3,-10,120,3,23,-4,4,15,127
1491087586286,3,-20,63,6,7,3,-30,-3,116
1491087586286,0,17,-81,-16,-34,-16,12,16,4
1491087586286,0,35,-43,4,-9,-23,-54,-10,-53
1491087586287,1,-73,-89,-6,-4,4,29,15,-80
1491087586287,1,56,-52,-5,14,5,-10,-13,-85
1491087586322,2,-37,45,-6,33,68,47,-3,-90
1491087586322,2,-23,-35,-7,17,-43,-53,21,-43
1491087586323,3,4,0,9,20,37,-12,-13,-59
1491087586323,3,-67,88,-23,-24,-5,-64,-35,-81
1491087586324,0,61,59,6,1,17,-26,-16,-53
1491087586324,0,36,-76,0,-1,90,61,8,-60
1491087586325,1,16,-64,10,10,-15,33,6,-37
1491087586325,1,80,-128,16,-36,-75,36,-9,-42
1491087586360,2,-66,-128,-15,-6,-66,-33,1,-16
1491087586360,2,65,-53,-15,-13,53,-70,-84,-69
1491087586361,3,39,-128,-4,-10,68,6,-14,5
1491087586361,3,-16,-128,4,32,92,73,65,64
1491087586361,0,44,-105,13,-15,-11,69,62,76
1491087586361,0,-29,-19,-2,-3,-110,-31,-38,30
1491087586362,1,-102,83,-21,-41,-52,-13,-44,-44
1491087586362,1,116,127,-7,-8,36,-68,-3,-36
1491087586397,2,89,127,-5,-4,5,-14,-48,-54
1491087586397,2,51,60,13,12,52,43,28,14
1491087586398,3,110,64,16,12,-16,66,48,-22
1491087586398,3,72,47,0,14,88,8,-38,16
1491087586399,0,-47,97,14,-36,-10,-93,-85,5
1491087586399,0,-76,46,3,3,-48,73,39,39
1491087586400,1,51,29,-13,-25,-24,-39,83,40
1491087586400,1,-66,-11,-11,25,-22,34,-7,-10
1491087586435,2,-96,30,5,13,77,90,45,-42
1491087586435,2,44,127,-6,-27,-81,-56,-51,-48
1491087586436,3,-115,127,3,4,-39,-37,-59,-52
1491087586436,3,-11,-58,16,-5,13,5,29,-5
1491087586436,0,-28,104,0,30,-32,23,19,-37
1491087586436,0,5,54,9,30,-11,73,40,-6
1491087586437,1,41,-5,-14,8,23,-67,-45,-39
1491087586437,1,-93,127,0,-36,-111,-52,37,-5
1491087586472,2,26,51,-23,-20,-34,-73,-84,-38
1491087586472,2,20,-95,-1,17,110,98,70,42
1491087586474,3,-32,-116,-8,-10,-7,-46,-56,-13
1491087586474,3,-39,-128,-7,9,-41,109,-22,90
1491087586474,0,13,-25,-1,-29,-101,-101,11,0
1491087586474,0,21,86,-1,-1,9,37,-28,2
1491087586476,1,37,109,7,7,71,48,38,7
1491087586476,1,11,62,-4,-1,71,32,-28,-47
1491087586510,2,30,-97,-15,9,69,-14,-4,-18
1491087586510,2,33,-128,13,3,54,16,14,-4
1491087586511,3,-40,-128,-6,-48,-108,15,-36,-47
1491087586511,3,2,-78,-11,16,66,1,35,0
1491087586512,0,-11,-83,-9,-3,-87,-30,-77,-39
1491087586512,0,-10,-78,-6,-21,-42,-16,17,-18
1491087586548,1,55,40,8,26,40,24,16,-9
1491087586548,1,-2,106,6,-9,35,19,-38,-26
1491087586549,2,-74,76,8,40,127,127,113,11
1491087586549,2,-28,124,-13,8,-52,-116,-27,-12
1491087586550,3,-37,11,-16,-59,-125,-48,-27,17
1491087586550,3,127,109,-7,26,8,-48,-69,-21
1491087586551,0,-8,23,-1,37,94,-116,-63,-7
1491087586551,0,-128,127,24,-12,-59,44,82,-7
1491087586585,1,-90,122,-9,31,14,18,2,-5
1491087586585,1,13,107,8,25,-36,78,39,-34
1491087586586,2,-24,-64,5,13,37,0,18,21
1491087586586,2,-51,-128,11,13,54,43,33,-4
1491087586586,3,24,-128,9,17,77,-99,35,18
1491087586586,3,-50,-128,-13,18,-99,31,9,3
1491087586588,0,-22,-107,-24,-44,74,-28,80,12
1491087586588,0,64,-127,2,-34,-116,20,-71,18
1491087586622,1,19,82,9,11,43,46,82,35
1491087586622,1,-54,-45,-32,1,39,-22,-8,19
1491087586623,2,39,-26,1,1,-67,-54,-64,-18
1491087586623,2,-17,-20,-17,25,110,60,6,21
1491087586624,3,-61,-45,1,-4,-61,-3,-83,-10
1491087586624,3,-59,104,-23,-37,38,42,36,-45
1491087586626,0,-15,35,-28,-36,-48,-62,15,-24
1491087586626,0,-90,-30,-19,33,12,14,13,-19
1491087586660,1,-25,-53,3,43,101,18,-31,14
1491087586660,1,43,-128,-4,-16,-75,-57,-11,-25
1491087586661,2,-99,-110,-6,-23,-23,73,37,21
1491087586661,2,73,-92,-34,-61,-90,-99,-82,-43
1491087586662,3,47,-81,-19,-29,103,-45,22,22
1491087586662,3,35,63,1,14,43,-106,-15,24
1491087586697,0,-15,123,10,32,42,127,87,39
1491087586697,0,86,71,18,8,32,-8,-45,-12
1491087586699,1,-29,-10,-4,0,-67,70,32,23
1491087586699,1,-47,-88,1,-23,-34,27,-4,-6
1491087586704,2,3,-105,23,17,-16,47,9,19
1491087586704,2,-57,21,34,13,127,-93,-76,-20
1491087586705,3,-84,-33,-3,-49,-92,46,65,-20
1491087586705,3,89,3,16,-10,-28,-104,-36,15
1491087586735,0,-3,72,30,24,-7,27,9,10
1491087586735,0,3,-1,3,8,-72,-14,-58,-21
1491087586736,1,67,60,10,-16,-34,28,88,63
1491087586736,1,-6,-51,-8,11,-12,-85,-81,-30
1491087586737,2,71,28,20,8,-10,53,-2,-18
1491087586737,2,-38,9,13,0,106,107,100,-19
1491087586737,3,36,51,4,13,-6,-105,-84,-80
1491087586737,3,-114,-8,-12,-16,-49,73,41,-100
1491087586772,0,114,-45,-28,3,-16,4,9,-74
1491087586772,0,69,-10,-10,17,35,-47,1,-32
1491087586773,1,-3,-1,-9,7,-4,49,-10,-14
1491087586773,1,-24,-31,-1,-18,46,53,-33,27
1491087586774,2,-86,-72,-12,-33,-106,-128,-73,2
1491087586774,2,-20,-23,1,-34,-5,83,103,70
1491087586775,3,16,-60,20,26,-8,-63,-57,37
1491087586775,3,73,-7,6,-5,-15,7,32,65
1491087586810,0,-71,24,-3,-7,14,39,-13,-7
1491087586810,0,48,-11,-25,-14,-25,-21,22,36
1491087586811,1,66,-78,-8,-28,-22,-66,-49,-112
1491087586811,1,-112,-16,5,-34,-94,-25,38,-60
1491087586812,2,105,-54,9,-30,26,17,-3,14
1491087586812,2,-38,-29,-10,7,8,-42,-64,48
1491087586847,3,-22,-45,-6,17,38,-12,-25,42
1491087586847,3,49,4,-10,-19,-22,35,52,69
1491087586848,0,-46,75,14,10,-10,-43,-38,5
1491087586848,0,-19,-10,-7,-13,-48,-44,-65,8
1491087586849,1,-45,9,-12,4,0,24,38,22
1491087586849,1,-77,-38,-6,50,127,-46,71,28
1491087586850,2,17,0,1,23,-31,-36,-44,19
1491087586850,2,-22,57,7,0,26,75,75,-9
1491087586885,3,-8,23,-1,62,27,-52,-5,15
1491087586885,3,-42,-1,16,73,4,-17,-23,-6
1491087586886,0,46,-27,-15,17,-38,-85,7,21
1491087586886,0,-17,2,8,22,-1,21,30,0
1491087586886,1,39,15,3,-9,12,92,36,14
1491087586886,1,-57,48,15,15,31,48,5,9
1491087586887,2,100,52,-8,-25,28,53,34,-12
1491087586887,2,-70,-43,-7,-40,-51,-21,-96,-31
1491087586922,3,-51,36,2,-48,-13,23,43,15
1491087586922,3,66,-57,3,-10,-43,-53,-30,5
1491087586923,0,-94,59,25,25,122,20,35,3
1491087586923,0,6,47,-8,-14,-71,-53,-9,-8
1491087586924,1,40,15,1,-26,35,26,-41,-21
1491087586924,1,10,46,-6,4,-94,34,-2,6
1491087586925,2,-55,-89,-20,-15,-66,-34,17,6
1491087586925,2,127,42,14,42,96,71,-31,7
1491087586960,3,-95,43,20,11,107,44,116,64
1491087586960,3,113,-13,-19,-46,-24,38,24,-21
1491087586961,0,-102,-39,-8,-45,-90,-117,-98,-16
1491087586961,0,11,-7,-6,9,75,88,90,-1
1491087586962,1,-27,-81,-19,-6,24,-78,-121,-36
1491087586962,1,-60,34,35,13,-26,96,59,28
1491087586997,2,31,38,-6,11,11,53,62,16
1491087586997,2,-105,27,-2,-6,-101,-128,-21,-53
1491087586998,3,12,-50,-27,-12,5,88,80,43
1491087586998,3,-64,-79,-1,-19,-12,44,-37,-12
1491087586999,0,58,-32,-1,-11,57,-24,-39,0
1491087586999,0,-95,72,9,27,-91,55,28,-14
1491087587000,1,-102,51,0,-14,103,-115,-36,-57
1491087587000,1,81,-3,-40,-29,-67,-17,17,-7
1491087587035,2,119,46,3,-5,-11,86,53,44
1491087587035,2,-19,-13,-3,13,127,-22,-16,7
1491087587036,3,84,11,2,8,-128,-32,-102,-18
1491087587036,3,-116,36,28,25,127,96,46,-20
1491087587036,0,53,44,-7,6,-65,19,15,1
1491087587036,0,-32,-54,-24,-20,-93,-36,2,32
1491087587037,1,77,52,-20,30,91,58,-24,-70
1491087587037,1,127,17,22,-22,-119,2,-31,0
1491087587072,2,-41,-96,12,45,27,-11,56,5
1491087587072,2,-39,87,-18,20,115,89,-92,-27
1491087587073,3,24,-80,10,-21,-128,-74,-40,61
1491087587073,3,6,-7,-3,32,12,34,-29,3
1491087587074,0,-32,-18,-4,5,125,49,-88,-18
1491087587074,0,32,-42,6,14,-99,-128,0,53
1491087587075,1,-128,9,-24,-61,-109,34,46,-68
1491087587075,1,23,-63,14,10,127,-42,-16,67
1491087587110,2,-63,101,7,50,23,28,23,-2
1491087587110,2,116,2,7,-67,-52,7,19,39
1491087587111,3,-28,-63,-16,5,-24,-51,-13,84
1491087587111,3,20,53,0,-6,-40,23,12,104
1491087587112,0,3,-53,-6,-36,97,74,34,-8
1491087587112,0,-96,21,19,14,-66,92,-27,-29
1491087587147,1,48,-17,-1,-77,-60,-28,19,-31
1491087587147,1,-77,-34,2,30,-125,43,-47,-50
1491087587148,2,-83,45,-2,-5,73,14,73,8
1491087587148,2,39,89,31,-8,-87,91,83,-45
1491087587149,3,23,-39,22,6,-79,-34,-107,60
1491087587149,3,-70,15,-23,-18,5,-128,21,34
1491087587150,0,-6,69,9,23,41,101,20,0
1491087587150,0,-38,84,-1,27,76,58,84,55
1491087587185,1,68,121,28,57,-60,-35,-77,54
1491087587185,1,-46,98,-10,-42,127,21,41,-73
1491087587186,2,-26,-50,-22,-33,-128,-97,-102,-43
1491087587186,2,-3,-117,-19,-8,65,52,5,-56
1491087587186,3,22,-72,-36,-7,-42,15,15,-80
1491087587186,3,-26,-83,23,65,100,114,-4,-10
1491087587187,0,21,-2,16,-2,-128,-88,43,52
1491087587187,0,-32,-128,-12,-65,-24,-91,-111,-100
1491087587222,1,19,76,36,12,127,127,127,25
1491087587222,1,-72,46,-25,-27,-83,-42,-105,-110
1491087587223,2,116,-55,-24,-70,68,-54,8,-8
1491087587223,2,-33,-89,-43,-35,47,-81,57,57
1491087587223,3,-52,-59,14,-1,-59,-82,-94,-71
1491087587223,3,75,-117,8,17,-44,9,10,57
1491087587225,0,-51,97,29,57,49,121,-3,-27
1491087587225,0,51,-50,-44,-84,-104,-118,-65,-7
1491087587260,1,-20,30,15,48,-9,127,13,39
1491087587260,1,49,50,-4,24,86,-12,63,22
1491087587261,2,-59,-128,1,15,-8,-97,-128,-122
1491087587261,2,23,21,0,-6,-38,42,72,43
1491087587262,3,-91,69,-37,4,127,124,28,-82
1491087587262,3,99,-31,-3,-11,-80,-128,-93,-37
1491087587297,0,82,55,-9,-30,-86,34,0,12
1491087587297,0,14,60,20,87,127,68,53,59
1491087587298,1,-38,-42,17,13,-128,-128,-20,-25
1491087587298,1,12,120,-23,-10,-23,127,127,-10
1491087587299,2,-4,18,0,7,105,-35,-57,19
1491087587299,2,28,9,6,40,-116,13,46,16
1491087587300,3,-42,94,-14,30,99,111,126,76
1491087587300,3,82,-94,30,-46,-68,-95,-37,12
1491087587335,0,-104,-74,-29,-45,21,-17,-26,-47
1491087587335,0,-72,-40,19,46,-102,78,29,34
1491087587336,1,68,-14,1,-60,114,-97,-99,39
1491087587336,1,-85,-68,-12,9,-26,31,20,-18
1491087587337,2,55,-9,-30,-23,2,56,-18,-42
1491087587337,2,46,-128,-21,-19,-78,19,25,22
1491087587339,3,8,-48,30,59,6,127,-67,-22
1491087587339,3,-65,-42,-27,2,122,-122,81,90
1491087587410,0,6,-3,-7,-42,-128,75,51,0
1491087587410,0,-4,-76,13,-5,127,-40,-45,-96
1491087587411,1,16,-30,-9,16,-39,14,42,-12
1491087587411,1,-33,-7,24,-27,-61,-115,-51,-27
1491087587412,2,38,19,-5,-1,68,22,7,4
1491087587412,2,26,112,58,86,1,-7,-48,29
1491087587412,3,22,114,19,9,79,82,100,70
1491087587412,3,-44,13,-21,-45,47,-58,-122,-124
1491087587447,0,93,-97,-15,0,-128,-99,127,127
1491087587447,0,-95,78,19,61,32,-15,-8,-3
1491087587448,1,51,46,-5,4,86,27,85,41
1491087587448,1,-4,127,-1,-2,-101,-6,-56,14
1491087587449,3,-25,-56,-4,39,-19,89,19,-10
1491087587449,3,17,-3,22,49,13,-40,13,26
1491087587450,0,-17,-64,-6,-60,-119,31,-34,-35
1491087587450,0,-86,-57,-28,-48,127,45,66,2
1491087587485,1,42,-52,26,-7,-74,-35,-77,-13
1491087587485,1,-6,-46,-8,31,62,127,44,6
1491087587486,2,-45,-43,11,2,65,-73,-16,16
1491087587486,2,15,-1,0,18,115,127,50,29
1491087587486,3,-38,-35,-25,-85,-105,28,13,-65
1491087587486,3,-20,-21,-41,-49,27,75,9,7
1491087587487,0,47,-7,34,52,35,-54,0,28
1491087587487,0,22,14,-35,-7,-89,-15,-11,17
1491087587522,1,9,-20,-35,-41,-15,-128,-108,-50
1491087587522,1,73,2,53,34,-47,27,83,52
1491087587523,2,-66,12,14,2,85,73,3,-24
1491087587523,2,14,-13,-7,-56,-128,-32,-32,-43
1491087587524,3,-20,-2,-7,33,-87,10,33,33
1491087587524,3,43,5,-56,-16,69,127,-2,13
1491087587525,0,13,-4,21,-22,-42,-117,-46,-23
1491087587525,0,-25,-4,-17,-26,49,-15,-91,-37
1491087587560,1,7,-7,-26,-58,-86,33,12,-41
1491087587560,1,-73,10,25,21,-49,2,-26,-2
1491087587561,2,-9,3,-11,-1,5,26,14,-12
1491087587561,2,10,1,24,38,107,7,11,27
1491087587563,3,-15,3,-17,-20,-36,-32,34,-2
1491087587563,3,10,-4,9,-6,81,-89,5,7
1491087587569,0,-37,-5,-31,-4,26,-18,-23,-33
1491087587569,0,13,-1,-2,-10,-89,21,-37,-27
1491087587597,1,-17,-4,14,5,10,-52,28,-3
1491087587597,1,24,0,2,5,-72,-76,-4,-28
1491087587598,2,-21,0,5,19,66,111,85,38
1491087587598,2,3,8,-20,-98,-66,-71,-34,-22
1491087587599,3,-22,-12,20,-84,127,-14,-50,-42
1491087587599,3,-15,-7,0,-9,-128,87,41,15
1491087587600,0,38,-2,-24,-79,70,-86,-52,-5
1491087587600,0,31,-5,-10,-16,65,-37,-25,23
1491087587635,1,11,-4,-1,57,52,37,20,23
1491087587635,1,17,8,-7,35,4,34,4,-3
1491087587636,2,-52,14,62,91,-40,107,37,-15
1491087587636,2,-10,10,-5,42,93,34,24,-30
1491087587636,3,-3,11,-14,36,-67,-50,46,55
1491087587636,3,0,14,9,4,60,-44,-34,-25
1491087587637,0,32,13,-40,47,-10,30,12,2
1491087587637,0,8,3,-50,-49,77,-17,-30,-7
1491087587673,1,-18,-6,75,123,-39,19,11,1
1491087587673,1,25,-14,-24,-29,127,78,43,-8
1491087587674,2,-12,110,40,82,-84,-17,2,17
1491087587674,2,-22,119,32,93,36,55,42,15
1491087587675,3,40,127,-57,-71,-37,-27,-42,-2
1491087587675,3,11,23,-39,-66,5,-32,-54,5
1491087587676,0,-38,-104,7,18,60,-43,-58,-23
1491087587676,0,61,-128,-15,-4,51,12,25,19
1491087587710,1,-30,-120,33,-4,-8,56,33,-8
1491087587710,1,-16,-45,22,47,76,11,-1,-16
1491087587711,2,0,-104,-25,-22,-13,2,-5,18
1491087587711,2,13,-57,9,36,-85,127,0,1
1491087587712,3,36,-38,-47,-83,-76,-21,-35,-12
1491087587712,3,-28,-57,-19,-17,10,-5,-5,-11
1491087587713,0,-10,-28,28,15,7,-8,13,4
1491087587713,0,-40,42,62,21,-85,31,29,-28
1491087587747,1,46,31,-11,35,119,-71,-11,38
1491087587747,1,65,-66,-3,3,27,-49,-31,-2
1491087587750,2,85,-82,-40,-33,-117,4,23,-31
1491087587750,2,-12,-53,-39,-10,40,-79,-22,-74
1491087587751,3,14,15,-23,14,34,-22,33,-114
1491087587751,3,-83,10,-14,11,-18,-22,-27,-114
1491087587752,0,-58,-13,-14,-40,-38,0,-10,-126
1491087587752,0,-29,-75,-14,-55,-4,-24,7,-57
1491087587785,1,-23,-5,-27,-25,54,38,8,14
1491087587785,1,6,44,3,6,-8,29,3,74
1491087587787,2,44,3,57,28,-1,31,-21,118
1491087587787,2,15,47,-12,-22,-79,-11,-32,100
1491087587788,3,-50,-86,20,-18,25,-2,-11,63
1491087587788,3,-20,19,-37,-77,-60,18,14,39
1491087587788,0,-21,97,10,41,12,-10,-11,34
1491087587788,0,16,73,-29,-13,0,10,2,27
1491087587823,1,-10,58,18,36,47,66,-5,11
1491087587823,1,-11,69,51,4,-47,26,12,9
1491087587824,2,-7,66,-11,49,-3,2,5,17
1491087587824,2,-24,36,-22,-14,1,-67,-11,1
1491087587825,3,-5,38,28,-71,39,-25,1,-8
1491087587825,3,16,21,-30,6,-36,0,-3,7
1491087587860,0,9,22,-7,-33,-4,-27,-5,-4
1491087587860,0,44,-40,10,60,-35,-63,-21,-4
1491087587861,1,-26,-30,-47,34,27,-55,7,-27
1491087587861,1,24,-23,56,25,56,-48,16,-38
1491087587862,2,-3,-16,-44,-11,-12,-39,2,-30
1491087587862,2,-24,-21,16,1,0,16,8,-39
1491087587863,3,-78,-19,7,-8,24,75,-9,-58
1491087587863,3,-47,-18,-5,-20,4,62,-5,-45
1491087587897,0,4,-2,-12,-22,-60,33,-21,-117
1491087587897,0,-2,-12,-6,30,8,88,8,-93
1491087587898,1,-10,-3,64,52,-9,47,12,-23
1491087587898,1,-7,-13,-8,1,-16,-2,2,22
1491087587899,2,25,4,16,-24,11,-15,0,68
1491087587899,2,-52,7,4,-34,30,-42,7,43
1491087587900,3,26,-10,-18,18,-18,-36,-14,46
1491087587900,3,39,9,3,13,-8,-19,1,40
1491087587935,0,-11,-6,11,-7,26,12,13,-11
1491087587935,0,-84,14,-5,-68,27,6,-1,11
1491087587936,1,110,-13,8,45,-70,-19,-24,33
1491087587936,1,-40,-8,21,51,-32,10,-2,32
1491087587936,2,-3,7,1,-17,0,-16,5,28
1491087587936,2,-9,1,-23,-9,-2,5,5,35
1491087587937,3,-22,5,13,-5,20,-2,1,35
1491087587937,3,-20,1,21,-5,39,7,6,0
1491087587972,0,-37,-11,-8,-27,-40,0,-14,19
1491087587972,0,-19,-6,-17,8,10,15,2,14
1491087587973,1,47,2,79,59,-16,88,-1,10
1491087587973,1,47,-1,10,30,-25,-103,3,-8
1491087587974,2,-59,-1,8,5,36,22,11,9
1491087587974,2,22,-5,-6,20,-12,35,-8,12
1491087588010,3,36,12,-39,-17,5,36,-9,-3
1491087588010,3,-42,-9,-25,-29,-5,54,-4,-5
1491087588011,0,-89,-1,10,11,-6,-7,-6,9
1491087588011,0,52,-1,35,5,-8,-29,-1,-2
1491087588011,1,-52,3,-27,-6,22,-31,7,0
1491087588011,1,14,-6,19,7,-53,-32,-22,-5
1491087588012,2,55,6,-9,-20,-7,-38,-2,2
1491087588012,2,-25,-1,21,7,-23,-11,-9,-2
1491087588047,3,-1,5,-15,-21,7,-41,6,0
1491087588047,3,-37,5,15,-8,10,2,-3,-1
1491087588048,0,13,4,-13,5,-12,2,2,-2
1491087588048,0,36,4,43,31,-25,-8,-3,1
1491087588049,1,24,1,-21,-5,5,-11,4,2
1491087588049,1,-38,1,-28,-21,17,6,6,-5
1491087588050,2,-29,0,5,8,0,12,1,0
1491087588050,2,-20,-1,-8,-5,0,-16,0,0
1491087588122,3,-66,-2,-5,-12,3,-21,-2,-1
1491087588122,3,48,-4,-6,-7,9,21,-6,-4
1491087588123,0,-12,-3,-11,-12,12,12,1,0
1491087588123,0,-20,3,0,4,-5,-12,-6,1
1491087588124,1,-40,-2,-8,8,7,-1,-1,-2
1491087588124,1,58,4,-10,1,-24,3,6,-2
1491087588125,2,89,2,3,-5,0,-2,-1,1
1491087588125,2,27,5,-46,-38,10,-8,1,-1
1491087588160,3,38,-1,15,26,-22,-10,4,17
1491087588160,3,2,4,14,24,-12,2,-5,3
1491087588161,0,50,-6,-14,-11,16,-1,16,16
1491087588161,0,16,1,-8,-1,17,17,7,10
1491087588161,2,-59,-6,10,3,-1,-10,-3,9
1491087588161,2,-40,3,-3,-2,-20,-1,-14,-5
1491087588163,3,-85,-8,-13,-8,16,26,3,-3
1491087588163,3,-50,3,10,15,27,2,-15,9
1491087588197,0,-86,-2,-11,-29,-51,8,9,2
1491087588197,0,-27,1,-13,-21,-49,-57,-61,-28
1491087588198,1,76,0,-26,7,-25,-15,-4,0
1491087588198,1,-10,-3,-7,-30,8,16,-11,-27
1491087588199,2,-7,-1,3,23,32,47,32,7
1491087588199,2,-112,-20,17,18,11,30,27,15
1491087588200,3,-43,-57,-10,-17,-59,-51,-29,-8
1491087588200,3,3,-32,-24,-16,60,8,-11,20
1491087588235,0,73,-12,-8,-23,-25,-38,-33,-35
1491087588235,0,98,23,5,1,-7,46,18,17
1491087588236,1,59,-95,15,22,-58,-4,-17,0
1491087588236,1,57,-28,-20,-12,55,29,50,-1
1491087588236,2,49,28,9,-27,-30,-42,-22,2
1491087588236,2,43,98,3,13,16,-13,23,-7
1491087588237,3,-28,127,-11,22,24,92,7,17
1491087588237,3,36,121,-8,11,9,-30,-39,-12
1491087588272,0,1,76,-6,22,85,76,26,-9
1491087588272,0,65,-105,24,-2,-20,-115,-54,-14
1491087588273,1,-18,-106,-24,12,39,4,66,2
1491087588273,1,-15,-120,8,0,-109,-30,-53,-25
1491087588274,2,24,-128,-13,15,24,-7,40,115
1491087588274,2,-30,-128,7,58,47,66,1,127
1491087588275,3,44,-51,8,-23,52,-47,-3,121
1491087588275,3,-33,-66,-3,-18,-48,74,21,87
1491087588310,0,6,-50,-18,-11,-30,-69,-41,-12
1491087588310,0,21,-53,-8,13,45,59,25,-25
1491087588311,1,-22,-10,10,-6,23,-20,-59,-118
1491087588311,1,29,-109,-2,-6,-4,65,36,-68
1491087588312,2,-118,-122,-11,-41,-105,-62,-82,-99
1491087588312,2,68,-16,1,-61,-58,21,30,-87
1491087588313,3,40,-12,15,-16,-3,37,13,-60
1491087588313,3,-32,-28,13,4,123,-42,85,-46
1491087588347,0,-36,-46,-16,-9,11,10,-70,-66
1491087588347,0,1,31,-4,28,6,-6,4,-63
1491087588349,1,14,86,3,-1,-4,-12,-13,-55
1491087588349,1,-14,127,5,28,-52,13,38,-22
1491087588350,2,-8,110,3,-14,-31,42,29,-32
1491087588350,2,79,110,0,-2,-80,15,-5,-3
1491087588350,3,-43,96,-5,-34,-66,-85,-19,-24
1491087588350,3,20,109,-13,5,5,-14,-16,-9
1491087588385,0,-30,42,20,21,70,0,41,-18
1491087588385,0,-39,85,15,-12,74,-3,-46,5
1491087588385,1,99,32,-17,-17,-64,76,32,25
1491087588385,1,-62,-39,-15,-5,-99,-104,-106,-18
1491087588386,2,8,126,-3,34,115,46,75,14
1491087588386,2,22,34,3,-9,45,6,-58,1
1491087588387,3,13,-2,12,11,-13,32,67,22
1491087588387,3,61,-88,-2,-9,13,-21,74,3
1491087588422,0,-9,105,3,31,-47,89,10,5
1491087588422,0,-21,-100,-13,-11,-1,48,-49,-29
1491087588423,1,-78,28,14,-16,47,50,-25,-36
1491087588423,1,127,76,-2,1,-78,67,-18,17
1491087588423,2,-45,-121,-1,0,-14,-94,-54,-91
1491087588423,2,-12,-65,3,-14,-19,-50,27,-21
1491087588425,3,60,-128,-5,-3,28,-3,16,6
1491087588425,3,-124,-36,10,0,12,112,12,-15
1491087588460,0,-13,-1,-3,19,69,72,18,14
1491087588460,0,-19,-1,-21,-47,-105,-96,-27,-5
1491087588461,1,-73,28,-5,26,15,-23,8,6
1491087588461,1,-7,107,4,9,33,33,-40,-26
1491087588461,2,80,69,-1,-9,-68,-50,-25,0
1491087588461,2,-66,97,11,57,117,95,89,28
1491087588462,3,105,87,-10,-4,-61,-39,-6,13
1491087588462,3,-5,-35,-24,-8,58,-126,-59,0
1491087588497,0,-40,-93,-5,-6,13,41,46,37
1491087588497,0,21,-109,11,3,29,33,49,121
1491087588535,1,-83,-93,4,4,-33,62,18,75
1491087588535,1,75,0,2,-20,-35,-11,-1,27
1491087588536,2,-37,69,-15,-17,-95,-8,-15,-62
1491087588536,2,63,116,18,54,27,27,55,-57
1491087588536,3,-128,97,-22,29,127,73,-5,-94
1491087588536,3,-73,48,10,14,-12,-41,8,-42
1491087588537,0,-25,-52,-29,-49,-82,-6,28,10
1491087588537,0,-49,-83,-8,-42,-58,-39,-31,-76
1491087588572,1,27,-105,-2,24,118,-8,0,-14
1491087588572,1,74,-93,2,34,-4,20,-27,-23
1491087588573,2,10,1,-4,3,-36,10,-43,5
1491087588573,2,-103,66,4,-8,58,85,66,-10
1491087588574,3,71,-25,-8,-36,-54,87,-11,-24
1491087588574,3,-125,106,-28,-31,8,33,67,4
1491087588575,0,127,112,11,-2,-54,24,39,23
1491087588575,0,8,-35,-24,-34,33,-121,-100,-25
1491087588610,1,64,10,16,10,-56,-40,2,-6
1491087588610,1,-32,-99,-25,-15,43,-50,-2,24
1491087588611,2,85,-86,-2,39,-45,14,30,19
1491087588611,2,-2,-25,-3,33,86,42,8,-16
1491087588611,3,-128,-97,-21,-7,-128,22,-21,-26
1491087588611,3,-2,-128,5,-25,-63,-53,-55,-2
1491087588612,0,-7,-56,-2,41,96,24,-70,10
1491087588612,0,-30,-33,-11,-23,-90,32,33,27
1491087588647,1,72,-19,22,-10,96,-23,-8,-24
1491087588647,1,65,-94,15,-13,27,47,-2,24
1491087588649,2,-86,-13,-3,-52,-63,-35,-11,11
1491087588649,2,-79,43,-9,-2,-16,65,-34,4
1491087588650,3,-10,113,6,59,-4,-41,24,-8
1491087588650,3,-39,104,7,27,60,112,109,23
1491087588651,0,57,-66,0,9,97,-82,-71,-20
1491087588651,0,-37,-1,8,21,-128,42,1,4
1491087588685,1,41,-79,-9,-50,-33,-113,4,3
1491087588685,1,-59,-58,15,18,25,-18,-39,-16
1491087588686,2,95,72,5,-1,48,-8,5,17
1491087588686,2,-67,22,13,22,8,48,70,55
1491087588723,3,64,-10,1,-48,-46,-49,7,-35
1491087588723,3,-14,21,8,0,-88,67,-3,-18
1491087588724,0,5,-80,7,0,100,-1,6,-23
1491087588724,0,23,-10,4,37,2,-11,-51,-21
1491087588725,1,-51,2,19,54,20,-20,-45,27
1491087588725,1,66,25,14,23,53,36,17,-3
1491087588726,2,-22,29,13,-15,-128,79,-30,-18
1491087588726,2,72,-50,-18,-35,-31,-20,28,-33
1491087588760,3,-53,-43,1,6,24,46,-16,-30
1491087588760,3,-63,3,-13,-14,-9,-11,-9,-37
1491087588761,0,2,-41,1,0,67,-19,23,-12
1491087588761,0,22,104,20,-1,-8,64,51,27
1491087588763,1,4,-46,-20,-70,-50,1,-6,4
1491087588763,1,34,-38,21,7,58,-72,25,50
1491087588768,2,-81,-2,16,7,-21,126,4,-10
1491087588768,2,11,-85,3,-23,5,-128,-89,-49
1491087588798,3,42,24,2,3,-35,26,-23,35
1491087588798,3,3,25,-8,-14,5,114,-33,-26
1491087588800,0,-18,-46,-11,20,104,115,84,24
1491087588800,0,3,-10,-35,5,-116,-25,-79,-16
1491087588801,2,-43,13,-22,53,29,-80,9,27
1491087588801,2,-4,-50,11,43,7,3,113,78
1491087588802,3,48,50,32,20,-2,-43,-71,7
1491087588802,3,-94,-33,11,18,51,-66,66,16
1491087588835,0,64,29,5,-28,-69,-128,19,29
1491087588835,0,-47,5,-33,-31,23,45,2,-19
1491087588836,1,87,4,-2,-2,34,-49,30,46
1491087588836,1,-49,-42,-20,-48,-128,-22,-62,-37
1491087588837,2,-4,48,8,-36,118,83,-8,3
1491087588837,2,-72,-26,-14,-14,-42,-4,-44,-26
1491087588838,3,62,-16,-8,-14,-68,60,61,-114
1491087588838,3,17,86,-6,-15,110,57,-19,-105
1491087588872,0,-46,9,22,18,-104,-128,-10,-19
1491087588872,0,71,4,-2,-3,-69,-28,-17,-17
1491087588873,1,-19,28,5,-1,29,111,21,42
1491087588873,1,-11,94,37,45,8,55,77,56
1491087588874,2,-100,-59,2,11,36,-42,-110,-28
1491087588874,2,56,58,47,39,127,18,92,72
1491087588910,3,-36,-4,-20,-1,78,67,-65,-21
1491087588910,3,64,-56,5,-12,-128,-75,-9,50
1491087588911,0,-46,27,8,-17,81,127,50,23
1491087588911,0,-24,35,-25,-15,-51,46,-41,-8
1491087588912,1,-82,-78,-30,-70,-81,-101,-65,-3
1491087588912,1,23,-58,-18,-23,104,127,-27,-14
1491087588913,2,-96,-40,2,30,-2,14,-66,-2
1491087588913,2,71,69,23,10,12,49,28,-5
1491087588947,3,-103,25,26,53,96,32,58,55
1491087588947,3,15,114,-6,-27,59,32,-17,-3
1491087588948,0,9,-65,-29,-59,-110,-101,81,4
1491087588948,0,-25,-65,-21,-16,88,71,33,-15
1491087588985,1,-46,-65,-4,14,8,78,-93,-45
1491087588985,1,-31,48,18,70,-97,44,83,51
1491087588986,2,72,86,5,28,108,-1,-59,-43
1491087588986,2,116,-22,-3,-3,61,-101,18,39
1491087588986,3,-49,23,22,43,64,52,80,17
1491087588986,3,-124,45,-26,9,-36,122,47,-1
1491087588987,0,70,-69,-1,-36,59,80,-25,-31
1491087588987,0,-66,-127,-27,-93,-122,-5,-97,-47
1491087589023,1,-6,-93,-10,-12,33,11,74,40
1491087589023,1,67,-61,31,28,118,-33,-64,-28
1491087589024,2,-10,120,36,18,-79,91,80,37
1491087589024,2,80,-9,-16,-74,-37,-93,16,6
1491087589024,3,60,-62,-50,-114,47,-64,-77,-44
1491087589024,3,-77,50,1,53,76,-61,9,15
1491087589025,0,7,-72,9,-1,-98,-73,2,1
1491087589025,0,-6,114,27,63,127,127,47,-16
1491087589060,1,109,127,14,9,-128,-95,43,24
1491087589060,1,35,-78,-39,-99,-128,-122,-104,-30
1491087589060,2,-34,-32,-18,2,127,66,33,15
1491087589060,2,-61,104,16,60,-83,90,17,-20
1491087589061,0,-79,-107,-26,0,31,-80,-52,-59
1491087589061,0,-39,-63,30,31,80,15,32,26
1491087589062,1,-44,70,14,37,-85,119,28,-60
1491087589062,1,77,-105,-7,3,93,-50,-59,-18
1491087589097,2,-11,82,19,60,-9,107,9,54
1491087589097,2,-48,63,-6,19,27,-67,-40,-42
1491087589099,3,-16,86,7,29,3,-89,8,28
1491087589099,3,-39,127,-4,19,77,102,127,95
1491087589100,0,13,6,-23,-40,-125,-110,-125,-62
1491087589100,0,-52,-49,-35,-75,26,71,-4,-49
1491087589101,1,-16,27,10,25,-20,127,68,29
1491087589101,1,39,-120,6,-73,-128,-117,-111,-25
1491087589135,2,-3,-13,6,19,127,127,127,39
1491087589135,2,62,-71,-20,-38,-124,-128,-17,-27
1491087589136,3,-128,-122,-38,-81,-40,-41,-127,-29
1491087589136,3,106,-43,39,76,115,124,-5,-24
1491087589136,0,16,9,7,-11,-120,11,17,37
1491087589136,0,-33,-25,-28,-67,-36,-65,-56,10
1491087589137,1,55,50,3,-40,101,21,-6,-40
1491087589137,1,-104,-40,-8,-18,-86,-128,-23,120
1491087589172,2,-75,58,-13,49,-79,87,-31,-45
1491087589172,2,-68,-17,20,102,47,90,45,-10
1491087589173,3,103,-74,-1,-34,-99,-61,-62,19
1491087589173,3,32,-27,4,45,-44,74,107,-60
1491087589174,0,38,-54,17,14,2,62,49,-7
1491087589174,0,13,-128,-46,-54,-7,-55,-94,-72
1491087589175,1,-38,-32,-2,35,-23,9,-21,-32
1491087589175,1,14,127,2,-28,83,110,-18,-77
1491087589210,2,-112,-16,-12,-28,-128,-78,-80,-15
1491087589210,2,-2,127,20,-5,-56,127,123,-20
1491087589211,3,-77,35,-16,-21,127,-11,24,9
1491087589211,3,-74,-65,-49,-38,-62,-128,-128,-76
1491087589211,0,112,100,38,26,-17,127,110,33
1491087589211,0,43,-31,31,27,127,-69,-57,35
1491087589212,1,-58,12,2,20,-128,51,69,20
1491087589212,1,39,49,17,-16,80,60,-4,-48
1491087589247,2,84,-3,-23,14,13,15,-13,9
1491087589247,2,-9,51,18,12,33,114,63,18
1491087589248,3,-57,-39,-7,8,-44,-48,-103,-116
1491087589248,3,68,-67,6,41,118,119,91,78
1491087589251,0,-37,-128,-9,-38,-22,34,70,0
1491087589251,0,29,-65,-39,-18,-123,-82,75,28
1491087589285,1,83,-107,-18,-4,127,29,-75,-37
1491087589285,1,-37,92,32,55,20,65,54,16
1491087589285,2,-67,95,-30,-36,-89,-117,-93,106
1491087589285,2,17,96,-14,-33,127,58,-23,127
1491087589286,3,-67,-60,25,73,-47,76,103,127
1491087589286,3,-2,-127,-7,-8,-24,-103,-67,-15
1491087589287,0,70,-62,23,14,127,112,23,-122
1491087589287,0,-70,5,11,27,-104,-60,17,-32
1491087589322,1,40,71,-34,-67,-66,46,-108,-85
1491087589322,1,-22,87,36,21,80,127,119,-48
1491087589323,2,-65,3,19,62,41,-63,4,-7
1491087589323,2,-1,-128,-39,-98,-78,-95,-96,-97
1491087589324,3,17,30,27,70,127,127,127,-28
1491087589324,3,23,52,-9,-15,-15,45,79,36
1491087589325,0,46,-14,-14,-88,-61,13,-78,-40
1491087589325,0,-45,58,-24,-30,-123,51,-47,-30
1491087589360,1,13,116,-12,19,50,-98,2,38
1491087589360,1,14,92,0,-3,62,-57,-18,-71
1491087589361,2,8,37,-10,-11,-13,77,61,6
1491087589361,2,38,-35,32,71,-68,-53,-35,6
1491087589361,3,-48,-54,4,13,52,57,-36,-36
1491087589361,3,-99,-51,-9,-27,65,-81,-34,21
1491087589362,0,103,-54,-5,-10,-61,-109,28,23
1491087589362,0,24,-43,-13,14,-102,42,45,-8
1491087589397,1,-26,-18,-16,-38,66,45,91,-40
1491087589397,1,35,-41,31,18,-98,-24,-66,3
1491087589398,2,25,-13,5,14,86,69,87,5
1491087589398,2,-27,-8,-10,5,-11,-5,-21,-27
1491087589398,3,22,-5,25,52,-102,7,37,45
1491087589398,3,25,-9,-25,15,63,3,9,108
1491087589400,0,-7,-1,-12,3,-102,-65,-64,48
1491087589400,0,16,5,25,15,67,48,-29,48
1491087589435,1,10,-10,-15,-30,-112,-44,2,-12
1491087589435,1,-42,-19,-19,-65,-48,-53,-21,-60
1491087589435,2,-34,10,16,-1,48,35,-11,-60
1491087589435,2,-14,1,32,15,127,104,63,-16
1491087589436,3,51,0,45,29,-107,-95,-21,3
1491087589436,3,-32,6,-11,15,-125,-39,-57,-27
1491087589437,0,16,4,0,35,35,66,36,17
1491087589437,0,1,-10,-5,-37,-69,-57,1,-6
1491087589472,1,-20,-7,-7,-57,-34,8,-71,-11
1491087589472,1,-18,-2,-46,-50,22,44,19,-29
1491087589473,2,21,-13,25,11,107,47,-5,6
1491087589473,2,-22,-3,19,49,-63,54,20,-7
1491087589474,3,-10,0,-39,-32,84,-68,-41,-24
1491087589474,3,-3,-4,11,11,-27,6,1,18
1491087589475,0,-38,5,-31,-71,94,-38,8,-28
1491087589475,0,11,-5,45,80,118,72,1,9
1491087589510,1,-1,1,-6,-50,-23,75,18,-11
1491087589510,1,-13,-2,-3,-11,-128,-51,14,-19
1491087589511,2,-2,3,-53,-67,55,-75,-33,-28
1491087589511,2,19,0,-20,-43,69,-82,-47,-2
1491087589511,3,5,-2,25,-21,70,98,98,52
1491087589511,3,-19,-6,24,-14,-95,16,-80,-47
1491087589512,0,-31,0,-21,-34,-96,-86,-19,-34
1491087589512,0,-28,-4,-27,-59,-42,-49,6,18
1491087589547,1,-8,-2,-8,52,94,37,3,14
1491087589547,1,24,6,-6,33,-101,14,15,14
1491087589548,2,4,0,33,70,-107,-68,0,-8
1491087589548,2,-12,9,1,63,59,70,-12,-3
1491087589549,3,18,16,-16,9,-4,-128,-67,6
1491087589549,3,-8,25,-36,48,125,60,31,-8
1491087589585,0,-23,19,1,-8,-61,34,12,-17
1491087589585,0,-4,1,69,107,-6,46,44,26
1491087589592,1,65,-7,-20,38,-19,-5,0,-2
1491087589592,1,-29,15,-1,-61,48,-58,-27,-33
1491087589593,2,-11,94,-58,-17,-64,-54,-4,-69
1491087589593,2,15,-15,-22,-18,-20,-128,-73,-69
1491087589593,3,9,-38,3,-18,-103,16,25,-30
1491087589593,3,-12,-123,25,70,-37,21,22,-16
1491087589622,0,4,-109,-6,2,127,27,15,10
1491087589622,0,-7,-63,-4,-47,-37,15,-11,17
1491087589623,1,12,-73,-6,39,95,38,20,32
1491087589623,1,-2,-92,2,-39,25,76,25,39
1491087589623,2,-26,-40,14,-69,-128,-77,-73,56
1491087589623,2,27,-35,-23,-18,67,15,8,49
1491087589625,3,-11,19,-20,-28,-9,20,-5,33
1491087589625,3,-35,49,13,-12,-24,25,30,-6
1491087589660,0,-6,45,25,40,87,50,30,-6
1491087589660,0,11,106,-31,-77,-125,-22,-8,-14
1491087589661,1,-9,127,31,30,90,-35,-16,-18
1491087589661,1,35,127,-36,-51,-111,-64,-31,-27
1491087589661,2,19,-73,-27,37,-4,14,16,-6
1491087589661,2,-26,-88,-9,53,-9,59,28,-44
1491087589662,3,14,5,5,38,75,-5,-16,-30
1491087589662,3,-14,-71,4,17,-21,70,19,-82
1491087589697,0,32,82,-43,-72,-88,-14,-29,-109
1491087589697,0,-24,51,-6,-19,101,-60,-21,-105
1491087589698,1,-32,-78,-22,-36,-50,26,11,-50
1491087589698,1,10,-86,17,-5,127,42,-4,26
1491087589699,2,63,-34,25,108,-81,40,-9,93
1491087589699,2,96,-97,42,37,9,123,41,66
1491087589735,3,-6,-34,-13,-13,-1,-29,-22,65
1491087589735,3,49,-15,-50,-68,-54,-78,-50,65
1491087589737,0,-115,-37,4,12,50,83,6,16
1491087589737,0,-52,43,-30,33,45,-42,-5,8
1491087589737,1,0,1,-8,36,83,13,15,-6
1491087589737,1,10,-30,-54,-41,15,15,33,-11
1491087589738,2,34,34,1,18,-28,-60,-21,38
1491087589738,2,-13,-92,-7,56,-101,-1,6,27
1491087589772,3,34,-63,28,-42,12,-65,1,31
1491087589772,3,34,62,37,32,-59,-10,-15,26
1491087589773,0,-3,112,61,-24,77,38,15,7
1491087589773,0,81,127,21,-11,-71,0,-9,31
1491087589774,1,-22,40,2,24,-77,127,7,-17
1491087589774,1,15,44,-76,8,91,39,-4,24
1491087589775,2,-61,-34,-22,-15,-6,17,6,4
1491087589775,2,25,0,7,-11,9,42,25,19
1491087589810,3,37,-7,17,-30,-128,-8,-5,-1
1491087589810,3,-28,15,-46,72,117,-9,-6,27
1491087589810,0,-39,-29,-46,34,-8,75,13,-7
1491087589810,0,-72,-15,-24,-16,42,55,-17,4
1491087589811,1,-72,13,30,2,1,67,-20,-14
1491087589811,1,-34,-5,55,6,-30,-67,26,1
1491087589812,2,59,-21,70,50,21,-128,-79,19
1491087589812,2,-22,-5,59,9,14,-128,-124,-11
1491087589847,3,-7,2,29,11,-45,-18,33,14
1491087589847,3,16,0,40,-1,85,-52,89,17
1491087589848,0,7,-17,6,-38,24,-90,124,0
1491087589848,0,24,15,0,-47,50,63,87,10
1491087589849,1,-68,27,-43,-91,-21,74,-25,-26
1491087589849,1,9,21,112,52,-5,127,-51,9
1491087589885,2,15,1,-23,-19,21,-19,-28,7
1491087589885,2,7,-23,-7,-10,33,-32,-45,2
1491087589886,3,11,-32,-90,-1,81,0,-10,-3
1491087589886,3,12,-7,29,-1,-10,14,-23,3
1491087589886,0,-48,-4,-22,-1,-6,127,-117,-17
1491087589886,0,1,-10,7,-28,-27,36,-65,-17
1491087589887,1,-35,0,36,19,-37,-37,-45,-1
1491087589887,1,1,-7,-24,-34,-86,-23,-17,-10
1491087589922,2,14,-2,-10,17,-4,-25,81,-12
1491087589922,2,-27,-3,-47,-37,-34,-39,32,0
1491087589923,3,48,10,87,42,-34,-51,-85,18
1491087589923,3,-32,3,21,-17,-3,-27,-77,-17
1491087589924,0,12,-1,9,-8,18,-10,-35,10
1491087589924,0,13,6,-13,-11,-17,-35,42,-4
1491087589925,1,-30,2,54,55,-42,95,51,7
1491087589925,1,36,-8,-25,-1,-8,101,55,0
1491087589960,2,-3,-5,-20,-14,10,116,55,-13
1491087589960,2,-8,7,14,36,16,38,83,-1
1491087589961,3,-2,2,-48,-24,-2,-94,59,-11
1491087589961,3,0,2,0,5,-20,-128,28,-5
1491087589961,0,-14,-6,-3,-12,1,-108,42,-2
1491087589961,0,-7,4,16,-9,-16,-126,8,-1
1491087589962,1,9,1,-21,-16,3,-128,5,-7
1491087589962,1,-50,-2,2,-5,-29,-95,-22,-2
1491087589997,2,3,-4,-17,-10,-3,-75,-13,2
1491087589997,2,-40,2,10,-7,-44,-40,-25,-6
1491087589998,3,34,-3,-35,-20,-2,-47,16,-11
1491087589998,3,-3,0,24,40,-22,-24,33,1
1491087589999,0,-35,-6,-2,-8,-2,-38,-1,-7
1491087589999,0,18,3,3,-7,15,-16,-3,4
1491087590035,1,-4,3,14,25,11,-11,12,-3
1491087590035,1,-85,-5,-8,-14,-10,-9,6,-2
1491087590036,2,42,6,15,-1,-9,3,3,4
1491087590036,2,-71,-6,-9,10,-11,14,16,-6
1491087590036,3,15,-3,-16,-15,36,-11,3,1
1491087590036,3,70,-2,-17,-14,30,-6,3,-9
1491087590037,0,37,-4,11,16,30,5,-6,6
1491087590037,0,28,-6,-23,-7,30,15,-5,-13
1491087590072,1,49,31,2,18,64,36,15,-1
1491087590072,1,83,14,-16,-5,-13,-19,-24,-8
1491087590073,2,46,-5,-18,-39,-56,-46,-8,-4
1491087590073,2,90,-6,-6,15,16,-16,1,6
1491087590074,3,15,-30,-21,-17,40,6,-19,-19
1491087590074,3,2,-3,-5,21,13,25,39,11
1491087590075,0,80,4,28,12,-7,21,-9,7
1491087590075,0,-110,-10,-14,-22,-6,27,-4,3
1491087590110,1,-89,-1,-9,1,-17,-4,-3,3
1491087590110,1,-124,13,-15,-17,30,43,7,-24
1491087590110,2,-96,14,8,-4,-26,42,15,4
1491087590110,2,-29,30,-15,19,22,32,7,-13
1491087590112,3,-49,67,-5,17,22,64,22,-6
1491087590112,3,-10,-38,-17,5,-23,-5,-17,4
1491087590147,0,12,103,8,-4,-22,-23,-66,-26
1491087590147,0,29,77,6,-4,-9,11,11,-8
1491087590148,1,21,-56,-5,-14,8,23,26,-17
1491087590148,1,75,-114,-13,4,9,43,6,-1
1491087590149,2,54,-128,7,16,15,13,0,-2
1491087590149,2,45,-95,-31,4,14,-22,-12,0
1491087590150,3,1,-121,8,2,-67,-5,-12,9
1491087590150,3,-35,-104,27,60,82,15,21,-12
1491087590185,0,-27,-128,-32,22,28,33,-2,-14
1491087590185,0,-2,-114,5,7,-6,47,11,-5
1491087590185,1,89,-128,-14,-11,-81,17,6,32
1491087590185,1,9,-117,-2,-71,16,14,-35,14
1491087590186,2,-26,-75,-13,-50,4,23,-17,30
1491087590186,2,-18,46,-7,-7,-35,2,1,15
1491087590187,3,-20,113,-3,-12,-21,4,0,9
1491087590187,3,20,127,1,-10,44,96,-33,-7
1491087590222,0,-62,-86,-23,-28,30,-7,-10,-30
1491087590222,0,55,74,17,14,-74,87,99,-1
1491087590223,1,-16,101,0,-15,-21,-57,22,-30
1491087590223,1,4,127,12,21,30,-35,35,19
1491087590224,2,-17,127,-19,-47,-89,-86,-8,-17
1491087590224,2,-3,-7,-4,-2,94,-24,-23,-6
1491087590225,3,52,-84,-14,5,-28,-18,-43,50
1491087590225,3,22,-58,4,-30,-17,56,-36,-25
1491087590260,0,35,-11,1,17,55,84,0,-17
1491087590260,0,-21,9,-4,4,22,-6,-25,-13
1491087590261,1,-13,-70,-28,-48,-96,10,-35,-50
1491087590261,1,50,-26,28,72,39,56,68,22
1491087590262,2,-103,80,3,13,-17,118,82,8
1491087590262,2,13,39,-3,-20,-52,-99,-72,-16
1491087590297,3,70,103,-15,14,127,-2,25,25
1491087590297,3,13,-55,-35,-24,-66,-110,-50,-10
1491087590298,0,1,-29,25,50,39,-76,27,7
1491087590298,0,-39,-9,13,12,-11,-14,-2,3
1491087590299,1,-63,-20,8,-9,22,-2,-52,-6
1491087590299,1,-100,34,2,-18,-50,43,6,-2
1491087590300,2,127,75,19,36,57,34,-5,12
1491087590300,2,-96,-33,-2,-2,-14,-58,-17,2
1491087590335,3,-13,22,14,11,83,-25,1,-11
1491087590335,3,35,111,-6,-57,-82,-41,2,-5
1491087590336,0,6,85,-17,-61,-120,-40,-10,55
1491087590336,0,-22,33,12,27,110,-66,-51,-8
1491087590337,1,-9,127,-8,15,-46,20,-1,-36
1491087590337,1,-29,127,-26,14,68,-74,-20,-4
1491087590337,2,-9,102,-4,-6,29,117,29,9
1491087590337,2,127,-101,27,31,-34,127,28,5
1491087590372,3,-29,-99,26,22,121,28,-46,-9
1491087590372,3,-46,-80,-20,-12,-95,11,-22,-10
1491087590373,0,116,-10,-7,-42,-9,-128,-94,-38
1491087590373,0,-91,-26,-14,-60,-121,-10,-5,20
1491087590374,1,1,-100,16,-21,67,-32,73,13
1491087590374,1,38,-128,17,30,67,-77,-64,-13
1491087590375,2,-52,-115,-2,19,-61,67,43,-11
1491087590375,2,95,-73,-5,20,86,-35,41,102
1491087590410,3,-21,-67,-33,-6,-63,-14,-52,80
1491087590410,3,0,-57,1,34,-14,-31,29,55
1491087590410,0,2,-51,9,46,127,-42,-9,-55
1491087590410,0,-44,106,-18,58,85,57,-33,-80
1491087590412,1,-111,48,-15,-33,-98,-41,46,-73
1491087590412,1,48,63,-10,-16,-24,-78,-18,-46
1491087590447,2,-128,34,-5,28,-110,-52,-15,-23
1491087590447,2,9,-44,-19,-70,92,-43,1,-97
1491087590449,3,43,19,28,80,6,-78,-31,-7
1491087590449,3,-47,123,-4,-43,-128,-7,15,-62
1491087590450,0,-64,-85,-13,-55,-14,-85,22,19
1491087590450,0,10,102,-4,6,70,26,-30,-20
1491087590451,1,-15,-26,13,-7,-63,62,36,-16
1491087590451,1,-27,-128,-21,-50,-83,-81,-29,-4
1491087590485,2,-3,-73,-6,39,93,-124,15,13
1491087590485,2,-13,-19,-16,0,-47,-38,45,31
1491087590486,3,-22,-53,-2,-8,61,-81,-59,-31
1491087590486,3,94,-44,10,54,120,123,37,29
1491087590487,0,-83,-39,-8,-17,-104,61,41,-46
1491087590487,0,91,-123,-45,-31,-128,-91,-104,-44
1491087590488,1,0,-12,-12,-4,-35,115,17,1
1491087590488,1,32,-13,-9,27,109,77,24,33
1491087590560,2,-8,42,8,21,-40,127,-52,-44
1491087590560,2,54,-1,-11,1,57,-19,13,12
1491087590561,3,27,38,-49,-23,-77,-118,-89,7
1491087590561,3,-95,24,-76,-50,-83,39,31,-12
1491087590561,0,69,14,-22,12,29,0,-9,47
1491087590561,0,-7,46,2,25,-15,68,-11,31
1491087590562,1,-24,-119,-13,7,92,57,-19,-28
1491087590562,1,34,-111,6,27,17,8,39,37
1491087590597,2,12,-17,-1,-18,-3,120,-32,-9
1491087590597,2,20,-43,-14,-59,-47,124,11,-11
1491087590598,3,36,42,30,-1,36,35,36,22
1491087590598,3,-5,58,48,27,-1,-32,-7,-11
1491087590599,0,-62,98,20,-16,16,-54,-6,-13
1491087590599,0,36,23,48,51,-1,-97,-14,-12
1491087590600,1,-64,127,28,-26,-13,-46,84,11
1491087590600,1,13,119,50,-63,-86,-10,-6,-11
1491087590635,2,34,-11,78,4,29,-30,-14,-9
1491087590635,2,2,95,45,43,27,127,37,33
1491087590636,3,86,38,35,54,46,108,-1,5
1491087590636,3,-54,-73,11,10,8,-38,-8,-22
1491087590637,1,36,-110,36,35,32,3,10,1
1491087590637,1,19,-100,-2,-13,33,-65,-39,9
1491087590637,2,-8,-90,30,16,30,-50,-19,11
1491087590637,2,-96,0,-2,-6,-25,-100,-18,-30
1491087590672,3,29,76,-32,3,-19,35,96,20
1491087590672,3,-127,31,-13,38,62,26,-110,-61
1491087590673,0,-21,52,-30,78,14,78,50,-25
1491087590673,0,40,-1,-19,31,-40,43,-73,-113
1491087590674,1,-74,-26,-3,40,-11,91,62,-88
1491087590674,1,5,-17,-15,30,79,97,-23,-82
1491087590675,2,95,-31,-9,-2,-5,56,-34,7
1491087590675,2,-107,-84,0,-55,32,-1,35,38
1491087590747,3,63,-28,41,-16,-4,0,-10,61
1491087590747,3,-11,-74,50,-66,3,-98,-1,34
1491087590748,0,12,60,34,-52,31,-110,-9,25
1491087590748,0,3,-48,48,-71,-83,-82,-35,36
1491087590749,1,-2,-119,-23,-75,-58,-61,-21,23
1491087590749,1,1,-54,10,17,14,14,-22,68
1491087590750,2,89,-32,-8,4,75,16,75,71
1491087590750,2,-41,31,-9,27,-3,2,-18,29
1491087590785,3,-35,-2,-26,-12,-60,-55,21,32
1491087590785,3,28,-53,-58,20,-38,-17,-24,35
1491087590786,0,-74,-34,-9,34,25,55,-23,42
1491087590786,0,-52,48,36,44,118,56,37,2
1491087590786,1,26,-59,-31,10,-72,40,-91,-2
1491087590786,1,22,51,-23,-49,-56,-78,6,-6
1491087590787,0,14,40,-73,-18,-95,-128,-121,-65
1491087590787,0,65,-42,-36,2,33,9,60,29
1491087590822,1,-26,-7,-29,-50,-12,-71,-60,-29
1491087590822,1,-88,-57,23,-35,-41,5,93,-13
1491087590823,2,15,54,32,-1,-9,-107,15,12
1491087590823,2,-7,106,14,21,77,15,-1,16
1491087590824,0,-51,-85,-11,19,61,-66,-38,-31
1491087590824,0,127,-1,-12,-24,-87,57,-1,-4
1491087590825,1,-119,110,8,22,104,90,40,-17
1491087590825,1,101,68,28,-1,-109,-12,-24,30
1491087590860,2,24,113,11,2,36,91,-23,-44
1491087590860,2,31,-91,-4,-28,20,-124,29,44
1491087590862,3,26,-15,-21,-10,-17,69,-39,4
1491087590862,3,34,-7,-13,2,-69,-101,-81,14
1491087590863,0,62,-76,41,-16,-15,48,110,46
1491087590863,0,-128,111,24,11,86,91,55,-21
1491087590864,1,-80,-17,-5,-15,39,-127,-11,-10
1491087590864,1,45,-36,-26,-19,-33,17,-57,16
1491087590897,2,-14,-79,-20,35,112,50,-63,12
1491087590897,2,18,86,-26,3,-66,97,91,23
1491087590898,3,-5,-55,-3,-48,-102,-62,-17,-21
1491087590898,3,-99,93,-32,32,-25,102,-32,-42
1491087590899,0,46,-13,-23,0,-10,-55,-5,-2
1491087590899,0,38,7,13,32,-12,67,-8,5
1491087590900,1,69,103,5,39,54,52,61,49
1491087590900,1,101,-114,1,-51,-78,-106,36,-13
1491087590935,2,-47,-38,1,-27,26,127,-38,21
1491087590935,2,-123,-8,-9,22,65,-74,-40,-23
1491087590936,3,0,-56,-20,-52,-76,-39,-29,-41
1491087590936,3,74,-47,24,21,94,-4,-31,52
1491087590937,0,8,-67,-4,-32,10,19,71,4
1491087590937,0,101,-119,6,-64,-106,-106,7,-2
1491087590938,1,-45,-32,23,45,93,29,-30,14
1491087590938,1,-108,127,27,0,94,75,97,-23
1491087590972,2,18,70,-20,-34,-128,-56,-79,12
1491087590972,2,-70,-52,-15,-70,55,-66,-62,-71
1491087590974,3,-14,-7,9,7,84,89,17,25
1491087590974,3,-60,18,-17,17,-13,108,88,28
1491087590974,0,-33,-43,-2,17,-57,-116,-105,-75
1491087590974,0,61,-62,-27,-18,13,92,94,72
1491087590975,1,31,27,20,36,24,-1,-118,13
1491087590975,1,50,57,41,16,127,19,-23,-49
1491087591010,2,11,74,-3,-3,-110,104,72,40
1491087591010,2,-62,10,-33,-55,-120,-72,-12,-16
1491087591011,3,41,-40,8,54,127,25,43,24
1491087591011,3,6,26,-9,33,27,-61,-35,-7
1491087591012,0,-119,70,-15,-47,-93,-89,3,-72
1491087591012,0,121,-45,-26,-22,-51,-109,-120,-31
1491087591013,1,-89,-87,-4,9,37,22,77,10
1491087591013,1,40,72,28,93,89,89,-36,12
1491087591047,2,65,56,16,57,-80,-93,47,43
1491087591047,2,-128,-12,-1,13,-80,-45,-21,-48
1491087591050,3,98,-82,-18,-10,12,-128,1,13
1491087591050,3,-75,-17,-13,52,36,29,11,30
1491087591051,0,-7,80,36,23,127,103,-58,21
1491087591051,0,69,-3,-3,11,14,-11,-30,42
1491087591052,1,8,-57,-15,-59,-25,-70,-11,-49
1491087591052,1,-14,-128,-13,-68,-47,-128,-79,-38
1491087591085,2,-90,84,1,38,17,102,33,35
1491087591085,2,45,114,41,65,20,75,29,14
1491087591091,3,-91,-41,-82,-91,-128,-60,-78,-69
1491087591091,3,119,78,0,30,7,108,-28,51
1491087591092,0,-126,24,-2,-61,84,-84,-16,-41
1491087591092,0,-59,11,13,49,-90,119,104,-16
1491087591093,1,53,-8,34,-23,-83,-32,12,66
1491087591093,1,70,-128,7,-33,38,-128,-120,-107
1491087591123,2,-11,48,-19,-28,-117,44,-25,2
1491087591123,2,-32,127,2,-9,127,121,53,-4
1491087591124,3,-6,127,-6,24,106,-17,-40,-35
1491087591124,3,50,-20,-9,46,-84,-38,33,113
1491087591125,0,24,-37,10,24,-43,21,14,62
1491087591125,0,11,-55,23,47,117,58,-123,-51
1491087591160,1,71,-18,23,88,-7,-3,123,37
1491087591160,1,-128,8,-25,17,-53,89,113,-95
1491087591161,2,127,-12,17,-7,-35,70,-20,-117
1491087591161,2,-64,32,-3,-41,54,25,54,-3
1491087591162,3,65,62,3,47,-84,2,54,17
1491087591162,3,-109,108,5,-33,-65,74,78,-28
1491087591163,0,-6,-75,-10,-30,106,-128,-24,-32
1491087591163,0,89,-37,-20,-23,-106,113,79,-31
1491087591197,1,-19,-13,1,-39,34,127,79,-33
1491087591197,1,54,-110,32,61,61,-102,14,67
1491087591200,2,70,-128,-19,-4,-128,50,52,0
1491087591200,2,-80,-126,18,-57,127,-82,-36,20
1491087591201,3,70,-29,14,94,91,-84,-84,9
1491087591201,3,-69,2,-26,-128,-99,8,-51,-110
1491087591201,0,-56,-36,4,53,127,89,14,13
1491087591201,0,-79,-128,-46,12,-26,-128,-57,12
1491087591235,1,78,68,-3,-28,-128,127,2,-43
1491087591235,1,-45,2,-23,-49,103,-63,-43,116
1491087591236,2,-3,6,11,74,76,-91,-19,117
1491087591236,2,-3,125,-37,-83,-113,87,32,37
1491087591237,3,-114,-18,3,63,-98,-62,-86,-20
1491087591237,3,118,-34,-22,-44,118,-62,18,-81
1491087591237,0,50,-20,11,1,-76,89,126,-91
1491087591237,0,65,-54,42,83,-71,-124,-112,-44
1491087591272,1,-27,-48,-18,-105,-54,-17,-4,-56
1491087591272,1,-61,-89,26,18,26,124,80,-56
1491087591273,2,63,-127,-49,-112,-88,-106,98,-22
1491087591273,2,26,-96,3,9,63,77,-91,-44
1491087591274,3,-24,1,26,45,103,92,46,-25
1491087591274,3,1,105,-5,-35,-128,-64,6,-19
1491087591310,0,-49,124,7,23,114,113,-25,-26
1491087591310,0,-23,127,-32,25,-97,-128,-95,-21
1491087591310,1,22,-2,-1,-5,62,-49,57,-5
1491087591310,1,-66,9,-4,33,69,127,47,4
1491087591311,2,-16,1,-5,36,-58,-122,-18,-15
1491087591311,2,21,-48,-36,-93,43,-88,-64,-6
1491087591312,3,-23,-13,7,27,-6,59,16,18
1491087591312,3,22,-12,17,-13,56,20,-13,-6
1491087591348,0,-18,-24,-22,4,127,103,53,-10
1491087591348,0,-24,-16,32,73,-81,-84,-73,-1
1491087591349,1,-48,-2,1,-14,-29,52,82,2
1491087591349,1,110,4,-22,-3,39,-78,-45,-5
1491087591350,2,-63,-24,5,-15,-107,117,5,-6
1491087591350,2,90,2,-1,-33,127,38,97,4
1491087591350,3,-80,23,18,5,-73,-45,-76,2
1491087591350,3,-34,-12,-17,-59,-128,40,-5,-1
1491087591385,0,22,9,-18,11,125,37,38,4
1491087591385,0,-30,-1,86,59,-72,71,68,-14
1491087591385,1,51,1,-26,-60,41,-22,-14,-8
1491087591385,1,40,-7,-14,10,-81,59,1,-16
1491087591386,2,8,-3,14,-3,89,-128,-101,22
1491087591386,2,12,2,-8,-18,127,127,-10,-69
1491087591387,3,20,-5,6,31,-20,117,41,-17
1491087591387,3,-14,-6,90,6,-6,35,-1,-2
1491087591422,0,-10,6,-50,-42,24,-45,15,-1
1491087591422,0,-12,-8,-43,-49,-128,-91,-23,-33
1491087591423,1,-6,4,66,54,54,-88,-54,7
1491087591423,1,16,4,-31,17,-33,35,34,-30
1491087591424,2,-7,5,34,3,18,25,-25,-15
1491087591424,2,21,-1,-20,-17,-41,31,22,16
1491087591460,3,-17,-2,-31,-63,-47,-16,-7,-16
1491087591460,3,-15,9,-25,-32,-94,-86,-33,6
1491087591460,0,-13,-6,-32,-45,-2,-21,-1,10
1491087591460,0,-10,4,36,67,80,52,59,51
1491087591461,1,10,1,-5,-29,-111,110,21,-32
1491087591461,1,25,-1,-88,-39,-80,-105,-81,-11
1491087591462,2,21,-1,7,-99,5,-57,-38,-27
1491087591462,2,12,8,-37,-68,35,48,27,-14
1491087591497,3,15,8,5,35,21,66,23,-7
1491087591497,3,-44,82,105,85,89,43,-1,-5
1491087591498,0,-31,73,-35,19,21,-79,-29,-34
1491087591498,0,-65,41,-36,44,-50,-18,-14,-11
1491087591499,1,-30,0,31,85,28,-44,34,18
1491087591499,1,-7,-48,-59,18,-62,-33,-19,-5
1491087591500,2,-38,-22,37,95,17,31,14,4
1491087591500,2,-11,-24,16,123,63,41,31,3
1491087591535,3,-3,-40,-23,-38,-9,-59,-30,-7
1491087591535,3,6,2,-7,6,46,-15,-15,-8
1491087591535,0,-9,-49,12,-57,-90,2,-6,-1
1491087591535,0,0,125,19,76,8,19,13,9
1491087591536,1,24,81,-3,-30,-50,-2,5,-1
1491087591536,1,6,-52,-49,-92,36,-19,10,7
1491087591537,2,40,-91,56,122,-85,13,-19,-55
1491087591537,2,-12,-128,-25,-52,34,6,21,-53
1491087591572,3,8,-69,15,-5,22,-13,-28,-5
1491087591572,3,-33,-55,25,19,35,34,9,8
1491087591573,0,18,-32,-45,-61,-64,59,17,-2
1491087591573,0,8,-88,22,-64,-12,-29,-18,11
1491087591574,1,21,-4,27,26,50,11,-9,55
1491087591574,1,-5,-52,12,-16,-4,5,-8,24
1491087591610,2,-12,-30,-2,-3,-33,17,27,23
1491087591610,2,16,-14,-23,16,-65,-13,14,16
1491087591613,3,32,-30,-53,-45,20,-60,-38,-11
1491087591613,3,-18,-17,-14,30,21,19,-3,-113
1491087591617,0,4,55,29,23,-34,1,-4,-98
1491087591617,0,-11,66,3,-46,-99,-26,-14,6
1491087591618,1,-59,-2,-72,-36,117,-3,7,71
1491087591618,1,49,-24,9,7,-128,-24,-22,120
1491087591647,2,-14,-78,-71,35,77,20,24,113
1491087591647,2,-6,-36,6,83,108,89,36,105
1491087591649,3,-16,-11,-108,-49,-128,-49,-20,71
1491087591649,3,49,74,-67,-25,95,-93,-24,74
1491087591650,0,31,78,-40,-11,12,-26,-14,73
1491087591650,0,-38,41,11,-39,49,20,15,53
1491087591651,1,7,37,26,4,17,92,50,25
1491087591651,1,-62,66,-25,74,124,42,17,25
1491087591685,2,-128,44,49,37,-10,-36,-25,39
1491087591685,2,-67,10,-19,49,-72,18,-15,19
1491087591686,3,-46,2,3,-61,-39,-15,-21,-6
1491087591686,3,59,-14,-7,4,-57,118,25,16
1491087591687,0,113,9,-71,-51,-74,-46,-27,17
1491087591687,0,57,13,-105,-47,-18,47,-32,1
1491087591687,1,109,-19,-113,14,127,82,36,-7
1491087591687,1,-4,-4,79,97,33,79,26,7
1491087591723,2,22,10,18,-61,-55,-56,-58,8
1491087591723,2,32,-4,88,13,-55,-128,-25,-4
1491087591724,3,-13,5,105,50,72,-112,6,-4
1491087591724,3,66,-2,78,21,47,12,21,3
1491087591725,0,72,-11,114,18,52,120,20,1
1491087591725,0,127,-4,85,-29,-3,96,9,1
1491087591760,1,-46,-10,118,-17,8,127,-11,-4
1491087591760,1,-26,4,98,31,-32,73,11,-1
1491087591761,2,-89,-5,14,-12,-26,-7,12,2
1491087591761,2,-44,-4,-15,-36,-16,-73,6,0
1491087591763,3,-67,20,51,40,42,-56,23,-4
1491087591763,3,-53,18,-77,-28,-12,-128,-18,-2
1491087591764,0,-33,-33,-119,-99,-79,-101,-11,3
1491087591764,0,-56,-40,-27,15,12,-81,-14,0
1491087591797,1,66,-20,11,-7,4,13,3,-5
1491087591797,1,-31,13,53,-47,1,3,-10,1
1491087591799,2,-3,9,5,40,38,48,20,8
1491087591799,2,-21,7,-69,-7,11,-17,5,14
1491087591800,3,-1,15,-72,-7,-40,-73,-17,26
1491087591800,3,-8,-2,-102,-30,-18,-86,-8,18
1491087591801,0,-5,18,71,39,35,-59,11,16
1491087591801,0,17,9,63,-17,-17,-64,-12,3
1491087591835,1,26,8,5,-1,-28,-48,-25,2
1491087591835,1,59,-5,43,2,-4,-21,-5,5
1491087591836,2,-84,8,-16,-88,23,29,18,-10
1491087591836,2,10,-2,65,53,-49,3,-23,6
1491087591837,3,-7,-5,-15,10,-13,17,1,2
1491087591837,3,-28,-11,2,-13,-7,0,-6,-6
1491087591838,0,-24,3,3,13,7,46,12,0
1491087591838,0,7,-4,44,-12,11,29,5,0
1491087591873,1,-90,-8,0,18,6,21,0,-6
1491087591873,1,-47,-1,-17,-12,-17,3,-7,-9
1491087591874,2,-33,2,-21,40,31,32,13,4
1491087591874,2,-33,10,-12,4,-54,21,-1,1
1491087591875,3,5,-5,9,8,-13,46,7,-6
1491087591875,3,20,-5,-29,-16,8,20,-19,4
1491087591910,0,30,-2,4,28,25,23,-3,2
1491087591910,0,-5,7,-15,2,-13,-6,4,-2
1491087591911,1,-39,-10,-5,9,-44,-34,-22,-4
1491087591911,1,-10,-5,3,6,-9,-10,-1,-5
1491087591911,2,51,9,-13,23,22,1,-1,1
1491087591911,2,16,8,-11,-10,29,10,8,-1
1491087591912,3,44,7,-18,-15,-26,-7,-14,-8
1491087591912,3,-12,7,-13,-11,-18,-8,6,-3
1491087591947,0,25,-5,22,18,-12,-15,-7,6
1491087591947,0,-10,3,-15,-29,29,23,5,-11
1491087591948,1,-11,14,29,27,40,22,1,10
1491087591948,1,-16,-6,-18,8,13,-15,-22,-11
1491087591950,2,6,17,27,-12,-33,-7,0,-7
1491087591950,2,78,51,-26,10,25,24,17,7
1491087591950,3,-9,-13,-17,-34,-7,-21,-6,-15
1491087591950,3,50,6,-2,0,-35,43,39,10
1491087591985,0,42,-24,10,25,-41,-74,-65,-16
1491087591985,0,-83,6,-17,-11,33,5,4,2
1491087591986,1,-41,10,14,35,14,4,-1,5
1491087591986,1,-49,21,-8,-16,29,29,21,0
1491087591987,2,-7,-4,-9,-2,-3,7,15,16
1491087591987,2,-8,-19,2,0,-12,-11,-20,6
1491087592022,3,13,-23,-18,-29,-3,45,9,2
1491087592022,3,-7,-35,21,14,0,14,-13,21
1491087592023,0,10,-51,-1,10,28,38,23,12
1491087592023,0,71,-37,-30,-19,2,-15,6,-4
1491087592024,1,18,22,-1,0,-14,-20,-32,5
1491087592024,1,-4,-50,9,2,6,-3,-13,10
1491087592025,2,32,124,-23,16,21,21,72,5
1491087592025,2,-18,98,-14,-4,22,-27,-39,-26
1491087592060,3,-4,88,-21,-40,-37,-63,2,3
1491087592060,3,71,-42,-15,14,-23,17,12,6
1491087592062,0,-18,-128,-21,6,-9,-7,-6,12
1491087592062,0,-40,-128,21,21,7,7,14,-1
1491087592063,1,76,-128,15,10,33,25,-5,-16
1491087592063,1,-58,-111,6,45,51,10,20,-30
1491087592064,2,21,-52,27,2,-46,-1,2,-32
1491087592064,2,-21,-92,5,14,31,14,12,-48
1491087592097,3,14,-86,10,25,8,24,-15,-28
1491087592097,3,-12,-97,45,-17,-126,-90,16,-27
1491087592098,0,-66,-66,45,7,122,42,34,22
1491087592098,0,32,20,24,-55,-87,3,-54,-25
1491087592099,1,13,10,6,-25,-32,-27,23,38
1491087592099,1,7,31,6,-12,16,64,-5,7
1491087592100,2,-77,-16,-8,-10,-48,25,-26,-31
1491087592100,2,9,-3,6,39,123,73,48,14
1491087592135,3,1,-69,-28,6,8,86,47,106
1491087592135,3,18,127,-74,-89,-90,-104,-14,93
1491087592136,0,26,46,-54,-5,9,-52,-51,7
1491087592136,0,70,86,3,4,30,-76,-53,-39
1491087592136,1,45,126,-31,-16,56,48,-12,-107
1491087592136,1,90,82,18,53,37,32,-17,-72
1491087592172,2,-42,-37,-18,-5,31,57,33,-79
1491087592172,2,-50,79,-31,0,-33,9,13,-28
1491087592173,3,-50,96,-11,30,38,-33,17,-78
1491087592173,3,-46,98,-8,-35,71,-90,-13,-44
1491087592174,0,23,127,7,3,-5,88,26,4
1491087592174,0,-53,-52,-5,-17,-8,8,-7,-39
1491087592175,1,-55,-94,-9,-43,-45,14,-59,-20
1491087592175,1,-31,-59,-14,-30,-13,72,29,-25
1491087592210,2,87,-102,18,-3,87,17,-2,9
1491087592210,2,-6,-2,-7,-30,-101,-79,-41,1
1491087592211,3,-77,5,2,16,30,-44,42,24
1491087592211,3,-2,6,7,62,70,18,-36,-27
1491087592211,0,10,72,15,48,77,-11,61,-32
1491087592211,0,-43,40,13,16,-78,38,-6,-2
1491087592212,1,28,23,1,6,-93,60,54,17
1491087592212,1,36,48,-17,-43,126,-61,-81,6
1491087592247,2,19,102,16,-30,-35,25,-24,33
1491087592247,2,40,-4,-9,-25,-38,-79,12,14
1491087592248,3,-65,10,14,-31,-115,-96,-65,-38
1491087592248,3,126,35,-4,-9,7,-29,4,6
1491087592249,0,-94,4,-28,-19,-38,5,87,6
1491087592249,0,31,41,20,38,66,-16,-58,11
1491087592250,1,39,127,-2,11,58,117,0,-3
1491087592250,1,-66,99,-6,-7,-98,127,-21,-11
1491087592285,2,-14,38,-4,1,-90,-104,-85,-42
1491087592285,2,-86,92,-11,64,47,127,127,57
1491087592285,3,-22,29,-15,14,29,-43,-84,-47
1491087592285,3,-31,-102,11,-9,45,-89,8,-19
1491087592287,0,-24,-112,5,-6,5,93,22,-13
1491087592287,0,65,-92,-11,-2,-14,-69,31,30
1491087592322,1,108,-36,3,-31,-40,-13,42,24
1491087592322,1,-76,-88,-41,-40,-24,-88,-42,-66
1491087592323,2,-39,127,3,5,4,9,3,15
1491087592323,2,31,86,-23,5,63,-99,-59,-15
1491087592360,3,-84,29,-19,-18,53,-20,47,2
1491087592360,3,38,-88,10,-6,-58,-25,19,26
1491087592361,0,-5,-33,11,-9,2,24,-12,-16
1491087592361,0,-29,-6,-5,-46,-12,-91,-65,-6
1491087592397,1,113,17,-4,14,-36,-3,4,30
1491087592397,1,-59,-13,-100,-23,25,9,-11,-37
1491087592398,2,109,-19,-87,7,-118,-88,-27,40
1491087592398,2,-90,-110,-48,-22,-27,89,21,-51
1491087592399,3,-24,-128,10,56,113,37,32,4
1491087592399,3,52,-86,39,14,-26,37,-13,18
1491087592400,0,21,22,25,24,-33,51,61,32
1491087592400,0,113,36,23,-12,-4,-35,-73,-15
1491087592435,1,67,103,62,43,56,66,46,30
1491087592435,1,-33,127,50,32,77,63,28,-2
1491087592436,2,-46,-21,22,-6,-47,-27,-86,-29
1491087592436,2,47,-79,7,-34,93,127,31,-19
1491087592436,3,-23,-102,-3,-50,-60,-116,19,11
1491087592436,3,62,-2,-59,9,14,-17,-12,32
1491087592437,1,11,60,-51,-6,-88,-48,-92,-13
1491087592437,1,-41,48,8,1,-68,44,30,6
1491087592472,2,-33,9,-27,-8,98,-68,-15,-14
1491087592472,2,-45,-16,25,2,-24,127,102,32
1491087592473,3,-51,-21,-20,-19,-14,-83,0,-39
1491087592473,3,-42,102,-12,30,2,36,-14,-63
1491087592474,0,67,48,-16,45,37,46,26,-30
1491087592474,0,-92,22,28,88,93,121,29,-1
1491087592475,1,90,-70,20,66,-14,68,-28,6
1491087592475,1,-89,-128,47,39,14,-23,95,36
1491087592510,2,120,-128,61,19,-51,-128,-57,14
1491087592510,2,-57,-89,61,-40,-128,-51,16,1
1491087592511,3,33,64,58,-45,5,-40,-47,9
1491087592511,3,-89,-10,40,-9,42,26,-59,21
1491087592512,0,20,-1,48,-37,22,69,54,15
1491087592512,0,56,-125,7,-47,8,-115,-94,-15
1491087592513,1,-71,-128,9,-19,-7,66,36,8
1491087592513,1,-52,-106,16,15,-13,-1,32,8
1491087592585,2,66,6,16,18,30,22,14,12
1491087592585,2,-102,48,-9,18,2,20,-1,22
1491087592586,3,-47,-73,-1,27,-50,31,-40,-48
1491087592586,3,95,-25,-6,-41,-46,-72,-6,-17
1491087592622,0,-15,-110,26,5,-22,-18,63,25
1491087592622,0,49,85,35,51,-2,28,-100,6
1491087592623,1,-71,127,66,14,19,28,20,-16
1491087592623,1,71,39,105,48,-36,127,-8,5
1491087592624,2,21,-67,18,-89,69,14,-65,-17
1491087592624,2,63,16,56,36,20,72,49,-18
1491087592625,3,-8,50,-14,-23,64,123,89,-63
1491087592625,3,-12,72,-35,-44,-91,-107,-18,-15
1491087592660,0,-65,-19,-29,-12,-18,-88,-12,-48
1491087592660,0,48,-10,-54,37,-10,-28,-49,1
1491087592661,3,-77,-97,-52,-50,-128,-20,-23,-8
1491087592661,3,74,-32,-7,17,96,55,19,-111
1491087592662,0,-59,-2,54,14,-30,-14,-6,-118
1491087592662,0,-27,-57,44,-24,-61,-4,43,-84
1491087592663,3,-37,-58,28,-72,-83,-72,-52,74
1491087592663,3,26,15,-43,-78,62,-40,5,69
1491087592697,0,53,-62,6,-29,8,91,-14,48
1491087592697,0,-128,-99,9,6,63,-128,-46,28
1491087592699,1,110,-76,-3,61,52,15,-42,-1
1491087592699,1,-75,37,6,55,80,94,12,-44
1491087592701,3,-89,1,-19,7,-102,-13,14,10
1491087592701,3,50,-20,-24,14,-2,-9,20,-14
1491087592702,0,-29,5,-23,23,83,-12,27,18
1491087592702,0,-88,104,-50,-42,-60,67,1,-59
1491087592735,1,38,28,-50,-25,-30,-29,-33,9
1491087592735,1,101,-50,-16,-13,-128,-36,-42,46
1491087592737,2,30,108,-7,66,127,80,90,63
1491087592737,2,73,-10,-6,21,-86,-94,-95,-70
1491087592738,3,-39,45,2,-54,-52,-3,8,21
1491087592738,3,-29,-30,20,-21,127,38,93,-11
1491087592739,0,61,-43,-20,0,10,-46,45,24
1491087592739,0,-80,-15,2,-22,20,14,-36,17
1491087592772,1,90,65,-18,2,-15,0,-77,-64
1491087592772,1,-42,107,8,1,97,61,118,100
1491087592774,2,48,-47,-9,-17,-128,-128,-118,-51
1491087592774,2,59,-12,-10,12,7,117,-42,5
1491087592775,3,-102,72,3,50,127,43,72,11
1491087592775,3,95,-66,-30,-59,-128,-79,15,10
1491087592776,0,-121,-6,-7,-5,58,62,20,-17
1491087592776,0,123,80,18,41,86,79,-25,-2
1491087592810,1,-110,-36,9,-28,-21,-68,28,-33
1491087592810,1,58,-61,11,21,-32,-27,-128,-12
1491087592813,2,20,-29,-41,-13,59,64,39,12
1491087592813,2,-128,-36,-18,15,56,-123,-99,-47
1491087592814,3,104,-67,-5,-37,-74,55,110,43
1491087592814,3,-6,27,-22,-41,-112,60,7,-20
1491087592815,0,74,-58,41,77,84,68,-17,-13
1491087592815,0,-84,69,-3,6,-12,56,15,55
1491087592848,1,-11,-21,12,-43,-90,-43,-15,-56
1491087592848,1,-15,-68,15,50,52,-13,20,74
1491087592851,2,59,115,-6,-15,-32,80,-128,-87
1491087592851,2,89,-49,18,1,-58,-61,127,47
1491087592852,3,-60,-75,12,9,87,21,-121,-45
1491087592852,3,-50,12,40,15,91,109,30,-8
1491087592853,0,-13,69,8,-9,24,-55,17,-3
1491087592853,0,-91,-27,-37,-36,-63,-94,11,30
1491087592885,1,69,-53,-38,1,60,20,-20,55
1491087592885,1,6,78,26,86,66,106,2,-17
1491087592886,2,-98,-39,18,15,-44,-111,25,-37
1491087592886,2,12,94,4,-20,-128,106,16,-31
1491087592886,3,-60,-42,-19,-37,127,68,57,-4
1491087592886,3,79,113,8,63,-72,22,-86,-17
1491087592887,0,-29,-27,32,-35,-96,-116,-62,59
1491087592887,0,-11,24,-27,-18,111,91,105,20
1491087592922,1,-55,-62,5,-59,-128,-83,-99,-69
1491087592922,1,-116,54,-17,-50,43,90,5,-32
1491087592923,2,40,22,-17,28,41,71,26,-10
1491087592923,2,48,-67,-1,22,-127,-62,42,65
1491087592924,3,48,-35,-24,-6,127,-43,-53,82
1491087592924,3,-63,6,1,-8,8,11,94,89
1491087592925,0,74,35,-9,3,59,69,-27,53
1491087592925,0,46,-85,18,-74,-24,-29,85,57
1491087592960,1,-29,-36,-15,43,-119,26,41,-14
1491087592960,1,-57,4,-31,-27,52,-33,25,-86
1491087592961,2,-14,27,10,7,-128,-57,92,-22
1491087592961,2,-52,113,-16,4,127,127,-68,-128
1491087592961,3,41,-24,10,93,-128,-48,-40,-14
1491087592961,3,91,-91,-26,-63,-128,-125,-128,-119
1491087592962,0,-21,1,-5,87,54,127,61,-45
1491087592962,0,-9,7,8,36,24,21,68,-38
1491087592997,1,-128,11,22,28,34,92,78,4
1491087592997,1,127,4,-17,0,-67,-68,-21,-20
1491087592998,2,-55,-48,20,-65,82,2,10,-64
1491087592998,2,40,-116,14,74,-128,-11,-108,-24
1491087592999,3,-54,101,-44,7,79,65,86,-17
1491087592999,3,61,-100,66,-13,-112,97,78,-45
1491087593035,0,-16,-72,-39,-47,13,-44,25,2
1491087593035,0,-74,57,0,-25,-6,-9,-62,2
1491087593036,1,-32,-23,-6,14,-107,7,109,32
1491087593036,1,-11,31,11,28,71,-99,-128,-79
1491087593036,2,20,26,-16,1,-118,-76,105,75
1491087593036,2,-62,125,11,16,54,40,-61,91
1491087593038,3,127,94,10,-14,36,60,32,127
1491087593038,3,-128,-72,-37,-85,-97,-77,-62,39
1491087593072,0,18,-7,44,20,67,127,-52,-41
1491087593072,0,-92,-113,-44,-84,-53,-110,63,-72
1491087593074,1,16,-60,-13,-3,-35,39,-38,-115
1491087593074,1,-12,24,-7,-46,127,93,48,-30
1491087593074,2,35,-57,67,49,-128,-33,25,-67
1491087593074,2,58,-41,-23,-28,104,-7,28,-61
1491087593078,3,-15,1,31,-9,-30,-111,-105,-69
1491087593078,3,2,48,-22,34,86,-61,32,-22
1491087593110,0,35,107,-41,-83,-51,24,-15,-15
1491087593110,0,-64,-3,32,57,-117,108,31,-42
1491087593112,1,104,117,16,15,127,-29,-40,-34
1491087593112,1,44,-18,-10,54,-116,20,103,9
1491087593113,2,-128,-128,-18,-39,81,-23,-128,-15
1491087593113,2,114,-90,-34,-26,-71,-83,21,-11
1491087593114,3,-59,88,47,39,41,15,-2,-22
1491087593114,3,51,-4,4,33,66,-37,-13,10
1491087593147,0,-47,-95,-74,-128,-21,93,32,-4
1491087593147,0,48,-128,34,23,-51,-82,-44,-13
1491087593148,1,13,-93,21,82,56,94,101,-6
1491087593148,1,-77,51,5,-73,-128,-108,-121,2
1491087593149,2,93,99,14,52,95,69,43,-2
1491087593149,2,-101,127,-34,-63,-57,127,-2,-3
1491087593185,3,78,101,30,-48,26,59,66,-12
1491087593185,3,3,-26,49,93,118,-32,-60,10
1491087593186,0,26,-20,-15,48,-128,-9,73,-2
1491087593186,0,80,-23,35,30,127,74,-12,2
1491087593186,1,-58,-40,7,25,108,61,29,-9
1491087593186,1,10,-32,-38,-1,-128,35,-26,-37
1491087593187,2,-9,-16,4,-23,-42,-128,-83,-17
1491087593187,2,-35,6,-20,97,127,22,-24,-55
1491087593222,3,-33,-38,-94,-85,-128,39,89,30
1491087593222,3,53,16,0,4,127,62,28,-58
1491087593223,0,-49,10,-26,10,-124,-29,4,-28
1491087593223,0,-60,3,25,11,123,0,-13,-49
1491087593224,1,61,-28,1,-64,-128,-44,-29,10
1491087593224,1,2,2,32,1,27,127,96,17
1491087593225,2,-13,3,44,49,93,86,-40,-34
1491087593225,2,92,-4,27,-12,-3,-11,-16,30
1491087593260,3,-24,2,22,38,109,66,12,14
1491087593260,3,-59,-13,19,13,-128,-25,-45,-28
1491087593261,0,-63,-10,-61,-71,33,-56,59,19
1491087593261,0,10,-2,37,68,81,-112,-67,-29
1491087593261,1,15,8,-53,-89,36,-50,-41,-37
1491087593261,1,15,-10,8,19,17,-4,22,43
1491087593262,2,-2,-2,22,-24,-55,10,-2,4
1491087593262,2,-7,-4,-51,-54,-128,-59,-4,0
1491087593297,3,3,-4,12,-9,62,-6,-50,-7
1491087593297,3,-1,-4,4,-60,97,-42,5,21
1491087593298,0,9,1,-37,-23,83,-26,-7,-10
1491087593298,0,14,13,11,60,-39,114,114,18
1491087593300,1,-15,-7,48,66,-19,-53,-84,-23
1491087593300,1,-18,-1,-37,-27,-83,-32,29,3
