1490654452285,-84,36,-111,-112,-41,-16,-56,-3,-74,-60,-17,-26,-60,-67,-80,-79
1490654452332,-15,-97,-36,-9,1,-20,-13,-25,78,28,-2,5,7,3,-6,8
1490654452333,-11,59,20,4,1,-6,-7,4,10,-76,-9,-15,-11,-2,15,17
1490654452381,22,-100,5,7,10,12,8,7,-17,17,-2,-4,-7,-2,9,-3
1490654452430,-22,-83,-26,-10,-14,-8,3,16,18,-71,-3,11,8,11,2,0
1490654452479,-3,94,8,1,8,4,6,3,8,-87,-6,-8,-14,-10,-16,-1
1490654452528,-94,1,7,3,9,-9,-2,-12,46,19,-8,-3,0,4,6,15
1490654452576,-50,54,29,7,-7,9,6,12,13,-85,-31,-14,3,-5,-9,-21
1490654452577,46,68,28,8,0,15,24,29,-48,44,21,26,6,2,-15,2
1490654452625,68,11,-6,-8,3,8,27,41,-1,-26,-14,-1,-4,-10,-82,1
1490654452674,5,27,-12,-5,-3,1,-7,-41,17,72,-9,-10,-6,-13,2,25
1490654452723,-54,-14,-1,15,6,0,-11,-25,10,85,-4,1,-5,-2,-10,0
1490654452771,8,-110,-32,-20,-9,-4,-5,1,20,-44,-3,-7,-10,-7,-10,-17
1490654452772,-39,21,-1,-2,-10,-9,-8,-4,68,0,-18,-1,-4,-3,-5,20
1490654452820,-30,-96,4,0,-4,-13,-15,-20,25,22,-5,-4,0,4,13,-1
1490654452869,44,70,5,4,-4,-1,4,-2,-78,-101,-13,-1,-6,-12,-10,-22
1490654452918,11,-28,-19,-9,-5,5,13,21,52,-1,3,0,1,1,11,2
1490654452966,-20,-22,5,7,9,3,8,5,4,20,-7,-11,-15,-13,-14,-11
1490654453014,-52,-40,-11,-19,-5,1,-4,-13,5,-41,-4,6,-7,-11,-19,-6
1490654453016,-16,1,1,-2,-2,3,29,2,-45,81,-1,-5,0,2,-23,-11
1490654453064,-26,-25,-4,-3,-1,0,-11,7,61,11,3,9,5,3,-3,-4
1490654453113,23,13,-1,8,3,0,-4,-4,-25,8,24,-5,-5,-5,-6,1
1490654453161,3,28,2,-11,-10,-5,-4,-2,0,-64,-10,-3,-2,-5,-12,-9
1490654453209,98,-11,-9,-5,-2,2,5,15,-43,-33,-6,-1,-3,-8,-17,-19
1490654453211,-46,47,12,4,1,-2,6,-4,-6,8,-11,-6,-2,2,4,6
1490654453259,39,21,6,-4,0,3,-2,12,-18,24,7,1,-4,-4,-5,-2
1490654453308,-6,48,2,12,13,8,10,-3,87,96,-2,-4,-9,-3,-4,15
1490654453356,-3,-51,-11,-3,0,6,9,-4,1,11,2,2,2,2,10,20
1490654453405,-71,-128,-26,2,1,-2,-1,-10,67,18,-7,-2,-4,-1,-1,1
1490654453453,-30,-6,-9,-4,2,2,3,4,-45,-42,-27,11,0,-10,-12,-7
1490654453454,-25,-10,3,8,8,7,13,23,41,8,8,-3,3,-1,-1,1
1490654453503,-32,49,-5,0,0,-6,-9,-5,-8,42,10,4,0,3,14,4
1490654453551,2,-23,-7,-5,-3,-7,-5,-8,-12,36,3,-3,-4,-2,1,-9
1490654453600,-20,9,6,0,-6,1,-4,-14,40,-82,-29,-9,-4,3,12,9
1490654453649,-3,81,17,5,4,6,12,3,-1,-11,-9,0,0,0,-8,-7
1490654453697,43,75,12,2,3,7,0,-3,-44,-28,-4,6,8,2,-10,-13
1490654453698,51,-74,-25,-6,-6,-14,-11,1,-22,80,5,-3,3,-1,-8,-7
1490654453747,18,45,-7,-1,1,2,4,5,1,-45,10,0,-2,-3,0,1
1490654453795,-4,7,9,2,8,5,18,11,-55,-32,4,-4,-2,-3,-8,-11
1490654453844,84,-64,-20,3,12,6,19,22,-21,18,-1,-2,-8,-1,-20,-15
1490654453941,-60,-23,-1,0,-10,-23,-18,-17,-31,109,11,2,3,3,14,31
1490654453942,14,-26,-20,-50,-33,-22,-20,0,12,90,28,68,22,19,13,-2
1490654453943,-20,49,14,31,15,14,35,19,41,-11,-20,-42,-4,3,6,18
1490654453990,52,-23,-5,-15,11,-16,-14,-11,-30,127,50,24,5,1,9,20
1490654454039,7,66,-5,-18,17,0,-15,-21,-19,-72,-14,-5,-25,-10,-5,-1
1490654454136,3,-22,7,-4,-7,8,-10,-16,-35,-55,-23,-36,-7,-11,-10,-22
1490654454137,-51,14,-33,-6,-16,-1,-35,-21,5,98,30,25,19,14,24,20
1490654454138,-30,-97,21,23,-2,-13,-1,17,6,-56,-6,7,-16,-16,-18,-41
1490654454185,-12,60,-30,-6,-8,-5,-23,51,64,-14,-11,-19,-11,-15,-27,15
1490654454234,-19,10,-12,22,7,0,-4,0,-49,-1,16,10,10,4,21,-7
1490654454331,97,-56,-42,2,3,-1,-18,-5,93,-128,-33,22,-1,-6,18,3
1490654454332,-5,91,-22,-11,-12,-16,-5,-10,-15,122,24,-6,-11,-2,7,6
1490654454379,-121,-31,-14,6,12,11,127,-42,10,-79,-45,6,5,-2,124,-33
1490654454381,3,50,27,-1,-8,-16,-114,-25,-24,-13,9,10,10,6,8,17
1490654454429,56,4,34,-6,-5,-14,-45,10,44,-46,5,-9,-2,5,-43,-9
1490654454478,-8,-128,-34,-1,0,35,93,-10,-24,98,21,3,5,51,-55,-12
1490654454526,60,-33,0,0,1,17,-12,18,41,-4,26,-3,6,14,3,17
1490654454574,-52,-2,28,4,-2,-16,-10,-24,-17,7,-22,-2,-8,-19,-9,-13
1490654454576,-67,43,4,-4,5,15,0,-19,33,15,-1,8,1,-6,3,-3
1490654454624,26,59,-1,6,7,19,-3,-16,-45,61,20,1,14,8,18,19
1490654454673,32,-81,13,8,9,-30,8,15,19,-47,8,14,7,-43,11,24
1490654454721,35,-80,-1,5,7,-5,6,7,15,52,2,-7,-4,-4,40,1
1490654454770,5,-39,-15,2,-10,-21,2,-27,-22,-61,-13,0,-3,-6,-16,-13
1490654454818,36,-32,-11,-1,-1,0,14,12,6,-72,-15,2,4,4,-3,-14
1490654454819,-1,-84,4,-5,-16,-18,-14,-3,-9,-30,1,-26,-18,-14,-2,-18
1490654454868,-50,-28,6,32,13,0,8,9,64,92,10,20,13,-3,19,3
1490654454917,29,-28,-8,-3,1,2,10,-7,-49,23,-15,-14,-5,2,-4,-25
1490654455013,4,-5,26,27,9,14,14,42,-16,-45,-28,-16,-19,1,-16,11
1490654455015,5,-46,-20,-11,-3,-6,-23,-18,-33,12,9,-1,2,9,23,13
1490654455062,-83,-11,21,5,3,15,17,-8,105,73,20,17,11,3,5,44
1490654455065,-32,86,31,-4,-12,0,37,26,39,-3,7,-11,-7,-8,-27,38
1490654455112,-54,-45,-18,-9,-12,-8,-1,-8,5,7,42,6,3,4,12,4
1490654455160,0,6,-9,-2,-1,-12,-26,-11,-49,48,4,1,-1,2,16,-8
1490654455209,59,-20,-21,9,-6,-22,-41,-40,17,-85,4,-17,1,9,-6,-13
1490654455257,-94,-48,-24,-2,-10,-4,-19,4,119,8,-19,-12,-3,-5,-12,-8
1490654455259,-13,90,23,17,-8,-4,-3,-2,-54,-76,-26,-8,0,-9,-25,-33
1490654455306,33,-5,7,12,5,3,24,4,-96,-53,3,14,10,3,-25,-52
1490654455356,-128,-1,-26,2,-7,-23,-48,-49,61,29,5,23,3,9,14,-5
1490654455404,-4,35,-14,57,25,19,10,-15,-17,-63,-4,-40,16,9,-10,-12
1490654455454,106,101,18,-24,9,13,-9,19,60,-17,-67,-22,-30,-37,-9,25
1490654455501,5,-94,-56,-7,2,-3,2,5,97,125,32,18,1,9,15,25
1490654455503,-11,-113,8,-17,-17,-4,-6,-28,71,45,-15,-61,-42,14,31,29
1490654455551,-25,-44,-5,-8,24,5,-20,-18,-18,-59,-24,4,21,0,-29,-12
1490654455599,39,91,38,-37,-30,-15,12,23,-56,-24,-7,28,-1,-30,-41,-46
1490654455648,-42,42,34,18,14,11,20,7,-36,13,-17,24,21,2,3,6
1490654455697,109,-81,-11,-14,-16,-14,-4,-8,-46,-52,4,9,-5,-14,-30,-33
1490654455745,-34,-17,-35,-13,-10,-18,-10,-8,-59,50,35,30,23,12,-3,-10
1490654455746,35,-62,-9,-16,-5,-4,2,2,33,58,15,-27,-23,-9,8,23
1490654455794,-117,-82,-39,2,-13,-24,-28,-29,84,18,42,41,14,21,17,39
1490654455843,-49,-21,3,-14,-14,-9,-13,-25,-53,88,16,-22,-15,0,8,14
1490654455892,-121,-61,2,-20,-1,-1,-10,-9,34,-76,-8,7,3,14,17,1
1490654455939,4,40,6,38,15,28,-5,2,-39,23,-31,-6,-27,-6,1,-19
1490654455940,-26,-75,-32,-7,3,-8,-33,-52,21,12,-3,-10,0,11,27,80
1490654455989,52,25,-5,-9,-6,-17,-40,-34,-6,20,-8,3,5,-7,-23,-25
1490654456038,-5,126,3,6,9,16,-4,-58,-25,-67,3,-11,-7,-6,-4,14
1490654456087,-17,-9,-38,-9,-10,-6,17,35,-71,-74,-14,1,-3,0,-15,-29
1490654456135,32,8,15,7,7,7,9,38,-16,-52,-7,-2,-6,2,44,10
1490654456183,-66,-128,20,-4,-7,-5,22,3,30,23,-21,-25,-15,-10,-31,-8
1490654456185,11,-34,-7,-2,8,9,29,-14,-37,-4,18,-6,-2,-3,-11,-2
1490654456233,-95,-124,-17,-6,-5,-7,-18,-8,127,32,1,9,14,6,23,49
1490654456282,-25,-23,-14,-7,3,-2,3,8,36,19,3,1,-14,-16,-4,11
1490654456331,-20,12,0,-18,-14,-18,-55,-16,27,-85,-12,-14,-11,-2,14,15
1490654456381,34,2,4,-10,-6,3,7,25,-16,-38,-13,-5,7,8,-16,-27
1490654456383,-66,-128,-4,15,16,-1,27,23,15,82,1,16,2,0,-1,-32
1490654456429,-32,59,-1,3,5,2,-13,-5,-53,63,6,-2,0,4,7,29
1490654456476,3,-49,-3,-6,11,13,-18,23,-9,-35,14,26,1,-5,8,0
1490654456525,-17,41,8,5,-28,-15,-25,-38,70,-40,-8,32,30,12,4,30
1490654456574,-17,5,-2,-3,8,1,-2,4,-24,14,12,0,10,1,7,-6
1490654456622,92,18,16,12,10,-3,-1,0,-47,11,10,15,-11,10,7,10
1490654456623,-69,-14,-2,-21,-18,-3,7,-34,16,-65,9,2,8,3,13,-3
1490654456672,6,87,13,-3,-5,-6,-3,-17,-82,-18,-18,-24,4,7,31,15
1490654456720,4,-88,7,14,2,7,-10,6,9,-60,0,-10,-17,-5,1,6
1490654456769,-91,-101,-14,-22,1,-11,-14,-4,-14,-70,5,11,-19,-3,-6,3
1490654456819,-45,-34,-21,-7,-6,-25,-29,-19,-18,-79,-3,-11,-4,9,9,15
1490654456865,44,18,7,1,8,9,16,6,-27,-60,-4,27,20,-2,-7,-21
1490654456867,78,54,-5,9,-4,10,26,25,99,54,1,-11,-7,-7,-15,-4
1490654456915,-88,-30,-5,-3,7,-4,-8,-17,68,-61,1,-5,4,-8,-10,-16
1490654456964,-1,30,-5,7,4,-5,0,0,-77,27,4,-2,-18,-15,4,-8
1490654457013,-50,-46,19,0,7,-5,-9,-4,59,-45,13,1,1,-9,-11,-1
1490654457061,2,71,-16,7,6,9,18,9,-32,5,-6,-34,-6,-16,-38,-34
1490654457062,-39,49,5,-3,4,5,16,7,65,40,-4,-2,15,3,7,27
1490654457110,31,62,12,-8,-13,3,-13,-26,29,111,21,-21,-38,-25,-2,8
1490654457159,127,51,16,-10,9,2,3,36,-98,-107,-16,-2,1,3,-24,-41
1490654457208,6,-56,1,38,45,19,0,14,-24,-94,-6,13,-22,-10,-3,-6
1490654457257,-128,4,-17,-37,-29,-13,5,-23,101,-67,-3,28,0,11,9,21
1490654457305,99,14,10,37,10,-8,-20,-8,-53,-23,-17,-56,-8,-13,-28,-47
1490654457306,-49,-62,-37,61,-2,-1,8,9,52,-88,6,-26,-2,-22,-27,-2
1490654457356,-17,127,29,-4,-10,16,11,-11,41,73,8,-25,-11,-5,-15,17
1490654457403,9,-50,-40,15,-3,-8,-15,-14,-35,49,24,-21,9,18,6,-12
1490654457452,-25,57,14,97,33,5,-1,-9,35,54,-16,-43,-25,-3,-3,21
1490654457500,127,-37,-46,-32,-13,-21,-10,15,-88,94,16,50,22,29,-6,-10
1490654457548,10,-94,-31,-5,10,-3,-20,-31,37,-27,-13,-33,-4,-10,-19,8
1490654457549,118,-76,-16,-30,-10,23,37,39,-39,-57,-4,-6,13,0,0,1
1490654457598,30,81,64,-14,0,-18,-15,-3,-73,-12,-8,-3,-10,-11,8,0
1490654457647,5,-17,0,-12,-13,-3,-5,24,6,127,63,6,10,12,58,9
1490654457695,15,54,5,-6,-6,-4,-9,-45,-69,-5,23,16,5,18,-24,-1
1490654457744,-51,-128,-43,-1,6,0,-31,-26,-19,77,12,0,0,4,11,-2
1490654457747,-25,112,32,-22,-8,-4,-19,-13,4,13,-36,-2,5,6,2,4
1490654457794,7,-110,-13,-15,-12,-13,-12,-9,-54,72,-1,8,9,-18,-33,-36
1490654457842,17,-102,-34,4,5,-1,-13,-5,-54,-11,-15,-22,-26,-54,-4,3
1490654457890,0,76,17,-2,-8,6,6,-3,-11,-20,0,-4,-6,2,21,31
1490654457939,35,-42,1,5,9,6,-6,25,69,127,20,-17,-12,5,-12,-40
1490654457992,-24,-109,-3,-3,-5,-12,-10,-25,21,-38,-3,-8,-10,-9,7,0
1490654457993,-72,1,4,-1,-5,8,-22,-10,19,-63,-9,-3,10,17,1,-6
1490654458038,-49,21,11,-10,-7,-9,-1,-23,-6,-76,-4,7,-20,2,8,14
1490654458085,63,127,4,-11,-14,-10,-15,28,-14,-47,3,-4,5,9,23,0
1490654458134,-15,-85,-34,-17,12,18,14,1,-52,122,1,17,-1,-5,-35,-31
1490654458183,18,87,8,-6,8,27,16,29,83,-80,-14,-10,14,8,-29,-2
1490654458231,-60,17,15,-7,-19,-13,-24,1,11,127,13,-6,2,3,14,24
1490654458232,20,19,-9,20,22,-3,14,22,41,-32,-1,-10,-17,-26,-3,-6
1490654458280,-47,-63,-6,7,6,13,37,37,30,-110,-2,-5,-4,2,-51,-17
1490654458328,-35,-77,-5,-18,-8,-5,-11,-43,26,89,1,-8,-14,-1,40,24
1490654458378,-51,8,-8,-8,1,-7,-22,-15,54,118,19,-15,-8,-1,-4,1
1490654458425,-19,121,8,0,5,10,15,1,34,54,3,9,2,-5,-8,22
1490654458427,-50,-82,-23,0,2,3,10,-7,7,-71,20,-7,-9,-9,-10,-13
1490654458475,-51,-11,8,-7,0,-18,-23,-20,30,15,14,-9,-6,0,11,-4
1490654458524,-14,89,33,14,3,2,5,0,30,45,-8,-20,5,-6,-15,-4
1490654458572,65,64,21,11,-6,0,-11,3,2,-34,2,13,-2,-15,-14,1
1490654458622,-65,23,0,11,4,-8,-23,-11,-45,39,0,-7,-7,-15,-6,-16
1490654458669,-38,-100,-6,9,-12,-1,-1,-4,4,-27,16,26,-1,0,-4,1
1490654458671,74,73,5,-4,3,-2,13,11,31,-6,-3,-4,-7,11,-9,3
1490654458719,-114,-21,-6,0,-13,-8,20,-5,127,66,28,-12,-8,-3,18,28
1490654458768,20,6,14,27,18,6,-8,3,12,83,-21,-48,-11,11,38,28
1490654458816,22,26,5,18,20,21,12,4,41,21,11,-10,12,0,12,26
1490654458864,-81,24,37,-39,-27,-25,-1,14,32,49,-2,-17,-14,-18,-55,-56
1490654458865,-85,127,15,28,32,38,32,-7,87,-128,-10,33,-16,-37,-22,6
1490654458914,-114,-72,30,-25,-62,-21,-12,0,48,-99,-10,15,20,1,-16,8
1490654458962,47,48,0,-24,-30,3,-1,-26,-66,51,15,5,-23,-26,-6,-10
1490654459012,-72,95,24,25,41,18,-15,-23,48,-16,18,-32,-33,-15,4,26
1490654459061,-57,-64,-33,-27,-14,-31,-23,1,44,49,-4,-33,45,24,-10,-12
1490654459111,81,-31,-18,16,-30,-44,-14,-2,-115,-33,47,73,15,17,5,-20
1490654459114,-90,54,-4,-43,0,4,-2,-5,-9,-25,38,49,6,33,8,-38
1490654459157,50,6,48,26,5,-6,-19,-11,-11,-44,-33,-23,1,12,20,-5
1490654459206,3,86,72,-26,-13,5,21,17,-84,127,3,-24,-37,-44,-8,31
1490654459256,58,-41,-9,29,23,-1,50,44,17,-4,2,-11,-19,-18,-87,-28
1490654459304,12,-57,-5,-12,0,-7,-28,-2,8,-48,-35,-8,-7,-11,15,1
1490654459352,-42,-85,-2,8,-9,3,42,26,-5,95,18,1,2,4,-49,-5
1490654459353,15,-34,-21,2,1,-2,-8,23,-14,-102,26,16,14,12,0,-80
1490654459401,-45,-50,-29,-4,5,11,-41,-21,63,40,42,13,-6,3,17,-25
1490654459450,-34,-128,-28,-9,3,-1,-4,-4,5,39,19,8,-1,20,47,-9
1490654459499,-1,-96,-12,0,-9,-10,-22,5,-18,-12,1,0,-1,2,-15,-6
1490654459547,5,114,13,-1,0,-8,17,3,38,46,6,-21,-2,-3,-9,18
1490654459548,84,-124,-34,-17,-15,-10,-20,-22,22,70,7,1,9,-2,3,1
1490654459597,-34,-46,-10,-4,-11,10,-8,-14,-6,32,-1,18,11,8,-10,-14
1490654459645,54,109,3,-4,-14,-11,0,7,-10,-50,-19,-2,-4,-18,-6,3
1490654459694,-39,-46,-1,-9,-4,1,-8,-4,9,45,-9,-8,-8,-4,2,15
1490654459743,-54,-128,-26,0,2,8,2,18,85,-87,23,-17,-17,10,2,9
1490654459791,98,43,8,9,3,1,19,34,-44,64,6,-19,-30,-5,-22,5
1490654459793,-60,-18,-5,-30,-2,2,-3,-6,80,-30,-8,-4,-5,-20,-35,-16
1490654459840,-33,-49,-27,-46,4,7,-7,-1,-22,-8,9,64,36,0,-30,-9
1490654459889,-29,79,14,15,-1,5,-2,-1,45,-42,-27,-37,-3,17,-4,-8
1490654459937,-15,-22,5,20,5,-13,2,2,-10,84,6,-3,1,-2,5,6
1490654459986,-37,86,13,2,4,-7,2,-5,-48,7,-1,3,24,-1,13,30
1490654460037,18,81,5,-4,13,-5,-10,-25,-3,-24,-21,12,-15,4,3,3
1490654460039,30,32,9,12,6,4,-23,1,-78,-17,-5,-2,2,13,34,-3
1490654460084,-8,-28,-9,18,9,-6,-12,-10,-47,108,3,-38,-25,-16,-7,-20
1490654460134,55,58,-13,-5,2,3,-4,14,-17,-71,-4,-13,16,8,-4,15
1490654460181,-32,-64,-17,4,5,6,17,-7,-41,-19,16,-11,-8,-6,1,-4
1490654460231,35,-111,-5,-15,10,-3,-9,-15,43,-15,-2,6,12,3,-3,14
1490654460233,-15,94,11,-9,-14,-17,-8,9,66,96,-7,-17,15,1,20,20
1490654460279,-37,-2,-10,-1,-3,3,-20,-22,-105,-44,-3,-10,-23,5,5,1
1490654460327,15,88,39,-5,16,14,23,14,29,-28,7,10,19,10,-6,-11
1490654460376,36,23,-4,0,2,-6,-8,2,30,43,-13,2,1,0,6,-6
1490654460425,-49,39,-15,1,4,3,6,-4,66,-87,-19,-6,-8,-12,-25,-20
1490654460473,0,-27,-15,-53,-18,-4,-21,-10,71,29,6,31,-9,-14,-7,18
1490654460475,-50,-81,-2,53,32,18,9,-7,-40,18,-16,-39,13,25,60,36
1490654460523,46,116,-11,-17,-32,-35,-61,-53,-114,72,-6,-6,24,32,9,-40
1490654460573,-8,-79,35,58,-12,16,44,14,3,22,-44,-61,-38,31,19,-24
1490654460621,80,-67,4,-13,-14,-12,17,35,23,101,28,68,32,32,27,29
1490654460669,18,16,-9,-34,15,22,28,11,-52,-19,31,-5,-22,-31,-20,6
1490654460717,50,79,61,26,-16,-8,4,16,-52,-128,-103,-91,-29,-34,-48,-33
1490654460718,-9,-71,-32,39,21,9,4,-21,14,68,0,-27,-87,-75,-94,-57
1490654460766,11,29,20,-21,-5,-22,-20,-17,-44,-68,-27,41,34,8,4,-21
1490654460816,37,-43,-19,-37,2,-5,-16,-4,-64,-84,44,57,18,10,20,10
1490654460864,-49,30,15,31,-6,4,10,-9,-12,-76,-70,-9,6,-17,-20,-17
1490654460912,-35,68,96,0,-2,16,24,10,39,-35,-86,-5,14,26,-7,-3
1490654460914,95,127,35,15,13,19,12,43,-103,-19,-16,4,18,18,11,5
1490654460961,48,21,-81,-26,-35,-33,-10,-17,-24,-10,4,-5,-9,-4,11,5
1490654461011,-26,-99,-3,1,28,7,-38,-14,-24,65,-15,-10,-3,8,32,19
1490654461059,43,-55,18,13,16,6,-26,1,-3,-16,8,1,7,-18,-2,-16
1490654461108,-31,16,1,-2,-5,6,-9,-12,-2,-4,0,12,-3,-6,-11,-9
1490654461156,-78,-62,-1,14,23,2,-9,-20,23,6,-11,1,6,-6,-6,-15
1490654461157,36,108,-9,10,11,6,4,11,-111,-32,1,2,9,3,8,1
1490654461205,9,1,5,-4,6,-3,-13,-3,-9,126,2,-12,5,-3,-7,-16
1490654461254,-68,-91,-12,9,18,19,-1,-13,34,-95,-7,-18,-3,4,11,10
1490654461303,-24,5,-5,39,1,-25,7,10,-34,14,-6,-31,-22,-12,-13,-13
1490654461351,-5,-128,-19,-7,-17,-13,-5,-5,-62,22,-1,2,3,11,5,8
1490654461399,9,84,-11,-13,-10,-1,8,-7,-23,65,11,5,20,14,-3,-17
1490654461411,-27,-17,-5,-13,-13,-6,-15,-34,36,22,-6,29,7,1,14,15
1490654461449,-18,-55,-2,-4,-12,6,2,1,70,-128,-40,-4,-14,-23,-20,-13
1490654461498,42,76,29,1,-15,-10,-15,2,-126,-110,-14,-40,-6,8,-10,-15
1490654461546,1,100,-1,27,16,7,17,15,-6,54,-6,7,-6,-14,-25,-1
1490654461595,17,99,-4,-24,-7,-5,1,11,53,127,7,30,-3,0,7,13
1490654461597,-9,-128,-14,41,5,12,23,16,60,-86,11,-5,-1,4,5,27
1490654461644,11,-47,-14,-13,-10,-1,0,0,6,-30,-2,7,-4,-2,-7,-10
1490654461693,-1,-6,-22,-10,3,-6,-19,-12,-50,-48,-30,-40,18,12,4,-16
1490654461741,-26,-31,-3,0,-6,-12,-24,-17,-2,50,9,3,-7,3,6,18
1490654461790,-1,-128,11,28,6,-3,-24,-13,-32,-111,-9,-26,-27,-3,24,17
1490654461839,-48,46,20,-1,-6,-2,-15,-20,61,-91,-5,10,6,-4,1,-5
1490654461841,15,-25,-11,5,1,7,-12,-5,-23,10,-18,-18,2,14,8,12
1490654461889,9,-12,8,23,2,-7,-7,0,-37,-43,-10,0,-2,4,6,-6
1490654461937,-21,-64,-1,3,-7,-4,6,5,-50,6,-15,12,2,0,15,24
1490654461986,-56,8,5,-10,-7,-9,-22,-21,20,105,0,-25,5,5,-15,1
1490654462034,-64,38,6,-23,-1,3,1,-1,16,13,12,-11,1,6,3,21
1490654462035,-81,-20,12,40,3,-9,-4,-15,115,127,15,62,30,10,-4,4
1490654462084,-54,-67,-14,16,4,-1,-20,-22,127,64,3,3,0,0,22,15
1490654462131,98,-67,-37,-44,-38,-14,-20,28,-59,10,-15,94,30,-24,-46,-31
1490654462180,-69,115,25,81,16,-45,-44,-18,-82,1,-8,-115,-66,-29,-34,-26
1490654462229,62,-111,-56,-68,-3,28,24,43,-26,-21,64,29,51,48,24,0
1490654462277,43,37,8,-28,5,-14,-19,2,54,42,36,-16,-24,-13,11,21
1490654462280,-110,-42,6,-28,78,70,47,-15,60,-86,-11,-15,-24,-10,-12,9
1490654462327,49,-84,-12,21,-7,32,26,-4,66,112,21,44,-21,-6,18,18
1490654462376,71,-9,0,1,20,11,-17,-34,-52,59,2,3,4,21,49,30
1490654462424,15,56,14,4,-30,-43,-24,-1,-48,12,10,25,48,26,24,2
1490654462472,7,127,-20,-28,12,25,12,-11,10,67,39,-89,-101,-74,-15,12
1490654462520,76,69,11,19,19,33,-9,7,-48,-60,-20,0,8,15,8,-26
1490654462522,1,-75,14,13,8,19,44,30,-64,-94,-40,-6,-9,-24,-34,-28
1490654462570,-30,101,14,-18,-9,-19,-9,-10,-5,102,10,-4,-13,-23,11,-14
1490654462619,-98,-25,-16,-6,-3,-29,-49,-17,27,-74,-44,-7,-5,8,52,64
1490654462667,-24,0,45,21,15,12,9,-1,37,-109,1,18,16,1,17,12
1490654462715,39,14,19,22,17,5,6,12,-26,-54,14,17,12,-1,-6,-7
1490654462717,13,127,17,-9,-8,-2,-7,12,33,54,21,2,-13,5,-2,3
1490654462765,-62,-55,-4,-9,-9,-3,-1,-17,-24,-54,-41,-12,3,-8,-37,-36
1490654462814,7,23,-22,-8,-21,-13,38,-10,8,127,26,-2,2,11,-40,15
1490654462863,100,-68,5,-8,-5,-6,4,11,-3,116,7,-9,-4,8,33,35
1490654462912,-56,127,17,-12,-10,1,1,-19,-41,113,1,30,6,8,-8,-26
1490654462960,63,-100,-11,1,13,1,12,9,-58,-64,4,-8,-2,-1,-8,-13
1490654462961,16,-75,-12,-1,-13,-5,2,4,-54,9,7,14,16,10,7,-6
1490654463009,12,100,-3,11,5,-10,0,19,-44,127,-13,-45,-16,-20,-21,11
1490654463058,-128,-95,12,-29,-1,-5,-17,-8,95,-4,-13,16,-5,1,-8,-28
1490654463107,-28,-11,20,6,-1,-7,-8,4,-89,-20,3,12,13,8,7,8
1490654463160,8,59,-33,-19,-19,0,3,3,44,-78,-17,26,-1,-14,-5,-16
1490654463203,-14,-30,15,6,21,24,30,8,-35,50,2,-45,-22,-8,-5,-21
1490654463205,-56,-9,-12,27,14,1,-19,-2,-40,33,-3,-1,-6,0,16,16
1490654463253,24,6,9,-11,-10,-16,-2,5,4,-31,0,4,0,-4,-19,-4
1490654463301,23,87,1,-11,-13,1,1,-17,20,53,-8,0,-6,3,19,11
1490654463350,3,16,-9,-30,-19,-16,-6,-5,-14,107,5,-20,-20,-20,-17,-13
1490654463399,-33,-21,7,4,16,11,16,14,-2,-33,-3,-1,12,2,14,9
1490654463400,70,98,14,1,8,-5,-7,4,-33,114,41,25,11,16,8,5
1490654463448,-33,-39,-9,-17,-9,-19,-18,-20,-73,-56,-10,-1,-18,-3,5,-8
1490654463497,36,-42,-1,-20,-2,-6,-7,3,-39,14,-11,24,21,11,11,-5
1490654463545,21,24,-1,46,7,-2,-2,3,23,-83,-35,-21,-10,2,-7,-9
1490654463594,14,77,-4,3,4,-8,-27,-21,-20,84,-6,-29,-15,9,16,10
1490654463642,-24,-20,-13,-33,1,12,24,16,9,4,-8,0,0,-8,-16,-15
1490654463644,-69,-53,-4,-65,-14,-14,-18,-17,20,28,-4,1,1,-1,20,16
1490654463692,-98,-21,-4,23,14,-4,-7,-29,75,-26,1,-12,-4,1,9,9
1490654463740,51,-80,-10,22,17,11,34,41,-14,-58,-13,32,-15,-34,-26,-17
1490654463789,-69,-66,-33,-59,-1,-5,-22,-18,4,-46,-14,-74,-24,9,-5,-15
1490654463838,-117,10,-11,-4,-32,-14,-17,-40,-73,16,-2,19,17,7,20,6
1490654463889,125,-58,-44,-76,-46,-45,-41,-6,127,6,13,-7,12,18,-9,-15
1490654463890,-47,127,57,78,43,45,54,38,-78,-85,-35,-42,6,-15,-19,-33
1490654463938,-38,-120,-36,-27,-6,-36,0,4,-33,98,6,-36,9,-6,-11,-7
1490654463985,38,95,61,70,-63,-41,-24,12,19,-111,-36,28,23,4,-1,-10
1490654464033,-5,-128,-32,1,-15,-9,-17,-31,-54,95,56,65,34,-1,8,-4
1490654464081,-110,111,67,4,10,22,10,-20,64,-70,-41,20,1,-6,-18,7
1490654464082,39,39,-18,48,27,19,0,7,-19,95,-22,7,5,-16,-9,-17
1490654464131,-28,-30,24,-1,-32,-14,-14,-6,92,51,9,1,-6,2,-9,14
1490654464180,83,-34,-49,-9,18,21,8,40,-31,112,16,-6,10,8,6,-7
1490654464228,-126,-115,-62,-5,-2,0,-12,12,116,-38,-22,23,1,-1,-16,7
1490654464276,-12,15,-37,-32,-20,-58,-35,-6,80,97,16,-1,-25,-33,-6,19
1490654464324,-19,14,32,2,-4,6,2,-5,41,-122,-16,8,15,12,-1,19
1490654464326,-71,83,-4,-2,-2,-5,-9,-32,24,-108,-15,4,7,7,13,26
1490654464374,-33,-43,36,11,15,14,8,-18,-27,-56,-31,-4,-8,-19,-14,-10
1490654464423,54,59,-3,9,-1,0,-13,6,-37,127,-6,-12,-14,-4,-5,-2
1490654464472,-4,-53,-43,-4,7,6,-4,-5,-14,37,18,-4,-2,13,-3,-1
1490654464519,-20,71,-16,5,-6,-5,-13,-9,24,-86,2,6,2,-4,-21,-26
1490654464522,-23,52,-16,-1,-13,8,5,-4,19,-28,-26,4,3,5,-16,-19
1490654464572,31,45,9,-6,-6,-7,4,7,-84,-54,-2,-4,-8,-6,-8,1
1490654464618,-16,53,1,32,8,1,14,21,15,15,-11,-5,-12,-12,-10,1
1490654464667,57,73,36,-7,6,19,24,13,-13,84,-27,-41,-4,-4,-17,-7
1490654464715,28,-60,9,0,4,0,1,-11,-66,-71,13,35,-16,-22,-14,-33
1490654464763,-16,43,-8,-6,-22,-14,-18,-17,-15,-93,-13,65,25,9,4,-18
1490654464765,83,15,10,-3,8,13,16,21,11,-1,-17,-12,-15,1,-6,-17
1490654464813,-26,-128,-16,-6,13,0,-7,2,49,-75,-16,-2,5,3,-8,-2
1490654464861,3,-59,6,11,5,10,41,14,61,15,0,-40,-34,-13,-21,-1
1490654464910,-11,-11,9,-8,3,-4,-13,12,32,37,15,-6,7,0,6,11
1490654464959,29,82,6,-18,-6,3,3,-5,-14,-10,11,43,7,-6,-1,3
1490654465018,69,-87,17,28,10,-5,-12,-3,-15,-68,-25,-13,-11,-11,14,1
1490654465019,17,21,16,-6,-31,-8,-1,1,48,78,1,-15,-8,4,14,1
1490654465056,91,6,-28,-38,11,3,7,16,30,-59,12,25,5,18,-2,-2
1490654465105,-98,-94,-16,18,-5,-10,-29,-38,-18,-67,-24,8,5,4,10,-3
1490654465154,67,-24,-20,-8,-2,-5,-11,-15,-65,2,-9,3,-8,-3,13,-17
1490654465202,105,-13,-9,-21,-1,10,14,11,30,117,9,26,5,-7,-22,3
1490654465204,-52,13,5,7,0,6,23,18,3,-68,13,-8,-5,-2,-21,-7
1490654465251,-45,67,0,0,15,11,16,12,2,-25,1,-23,-8,-13,-18,-2
1490654465307,-8,-53,0,14,0,-1,-3,-6,25,-31,-10,-16,-5,-12,-20,-8
1490654465349,-17,31,8,-27,-17,1,13,6,-47,-12,24,25,-1,10,4,-8
1490654465398,70,23,9,-23,-11,-7,6,25,-108,94,-33,23,8,11,8,-18
1490654465446,77,67,18,9,-25,14,23,12,-40,31,-13,-40,5,-6,-23,-15
1490654465448,127,23,0,-28,-7,8,10,41,42,127,34,42,1,0,-14,-8
1490654465495,17,87,-16,24,1,-15,-17,-9,-34,43,12,-12,21,8,-7,-12
1490654465544,-26,70,1,-64,-36,-35,-30,-29,13,-27,10,-47,-37,-18,5,-2
1490654465593,-16,125,12,-33,30,12,33,45,-79,77,35,82,35,49,99,-1
1490654465642,20,-40,18,20,4,21,16,14,-11,102,-9,-54,29,14,-25,-2
1490654465690,-96,-75,-17,25,30,15,9,-41,127,-70,-3,-54,-62,-30,-10,40
1490654465693,32,82,7,-2,-17,15,28,3,14,-128,20,-52,-18,-7,-11,-3
1490654465740,1,29,-4,83,66,73,53,18,45,3,0,-29,-54,-49,-16,12
1490654465788,17,113,13,64,1,-3,11,-79,-112,-58,10,2,29,35,42,27
1490654465836,57,98,19,15,34,50,-29,-33,-31,125,-2,-6,10,-33,41,46
1490654465884,45,-108,24,19,25,20,46,-18,-47,-41,11,-38,-44,-42,-37,10
1490654465885,-6,-89,-16,16,-14,-4,14,6,5,34,9,13,15,34,5,31
1490654465934,-74,47,-2,-5,26,18,8,29,69,-125,-79,9,34,13,-15,7
1490654465983,26,-63,9,-10,-4,-5,7,24,-44,73,58,9,5,18,-9,-15
1490654466039,57,-10,-28,-4,-5,-2,7,2,47,-128,-27,-3,-16,-2,34,11
1490654466080,-18,23,15,6,-8,-17,-2,-23,-11,-39,-8,7,17,11,1,-16
1490654466128,2,19,-3,-9,3,-3,14,-1,-33,-76,-8,3,12,-6,-20,6
1490654466130,-57,80,26,-9,-2,-2,10,2,15,94,18,6,12,11,30,20
1490654466178,21,-105,-30,-3,-5,-17,-19,-10,55,20,1,-9,-2,-17,9,13
1490654466227,11,21,16,-6,-21,-6,-11,13,-4,-11,-5,-10,-32,-11,-19,-18
1490654466275,-19,67,21,11,15,9,-1,1,6,-113,-7,8,5,-7,-11,-6
1490654466324,-8,-66,-10,6,-6,-2,-3,-4,-88,74,8,28,-4,-5,-14,-15
1490654466372,8,-46,-13,17,28,-3,3,-18,-73,32,-1,4,-9,-5,1,-6
1490654466374,-18,-39,5,-20,-19,-4,-22,-19,23,-28,-3,-43,11,14,-7,-11
1490654466421,-15,16,-11,29,1,-6,-13,-14,39,127,31,12,19,10,14,-22
1490654466518,45,-28,-30,15,2,-8,15,21,-18,-13,-24,-33,-2,-6,8,-1
1490654466521,-17,-55,-5,34,15,-1,-9,3,11,-62,-9,9,6,3,17,17
1490654466567,36,-4,-6,1,14,9,14,23,-34,-67,26,-34,-10,-1,-9,-21
1490654466568,52,123,0,21,-5,-8,-7,-6,16,89,26,5,3,5,-6,-14
1490654466616,-101,50,-13,-22,-22,-5,-11,3,119,-17,-41,-7,-6,4,-10,5
1490654466665,-18,-49,-12,-30,-3,9,13,-8,27,-21,-12,-32,-18,-7,-4,9
1490654466714,115,118,-2,13,15,14,5,26,-75,-40,-15,3,4,-17,0,4
1490654466763,15,-105,-1,5,-1,-5,-16,-10,66,12,8,14,-1,15,26,31
1490654466811,-33,17,-7,-18,-11,-7,0,9,15,-18,-25,-13,-7,-7,28,-11
1490654466812,51,0,26,-8,-12,1,8,17,14,5,10,-5,5,6,-3,4
1490654466861,7,93,12,20,6,1,-3,-7,-38,67,11,-3,8,-2,-30,-11
1490654466909,-82,-17,7,20,15,4,11,-15,70,7,5,-10,1,11,22,25
1490654466958,30,27,-15,-31,-3,6,6,6,-54,53,-3,9,0,-5,-13,-17
1490654467006,111,93,-7,-45,-7,-16,-10,-7,-50,14,3,45,19,3,-8,-1
1490654467055,-29,-86,-9,9,7,-18,4,-11,63,55,3,-26,-3,6,9,2
1490654467056,43,-35,6,9,4,9,12,6,-10,25,-3,-15,4,17,0,7
1490654467104,-29,39,9,19,8,2,17,29,35,-31,-9,-22,-20,-8,7,12
1490654467153,42,58,14,15,-12,-11,-58,-20,-37,28,-3,30,16,17,55,27
1490654467202,-4,127,-12,-20,-5,12,18,3,-128,4,-8,-17,-30,-34,-21,-38
1490654467249,67,51,16,44,-9,8,35,82,-88,116,20,-72,-24,11,2,-8
1490654467251,-18,22,24,17,11,9,-1,-12,127,47,-21,-87,-3,5,3,47
1490654467301,-17,83,1,-15,12,13,-17,-17,-66,-95,-1,-25,-41,-28,-23,-36
1490654467348,-126,-12,19,22,-18,16,50,-9,83,-115,-27,32,26,12,14,54
1490654467396,36,-8,47,70,24,-7,-8,10,-60,-128,0,-25,1,15,-4,-34
1490654467445,17,-111,-51,-8,3,2,-10,-28,-49,-44,29,44,22,0,15,23
1490654467493,90,-81,-77,14,-29,-57,-38,20,20,127,13,-32,16,7,10,37
1490654467495,-32,-91,-3,11,18,17,17,7,62,127,12,3,-71,-15,-9,6
1490654467543,17,110,20,-27,-13,-1,-8,2,-49,61,11,6,7,-31,-20,-18
1490654467592,-18,40,6,-47,-31,-22,-4,-19,-8,51,-23,3,-18,11,43,-22
1490654467642,5,-46,15,-17,-26,-13,-12,71,-31,-21,-15,-66,-6,-15,-12,-39
1490654467688,41,9,20,21,9,29,12,-15,-29,-96,-36,0,-14,-37,-45,16
1490654467689,-34,-29,-50,-36,-57,-78,-66,0,30,127,17,14,-2,10,14,23
1490654467739,-85,-128,-57,25,20,41,59,-81,64,-13,7,-6,-9,-77,-70,4
1490654467786,16,69,31,27,10,-9,-21,-23,-8,53,-2,7,3,14,11,-13
1490654467835,30,-47,-11,4,-3,-14,-25,-20,-27,39,29,42,20,12,3,-8
1490654467884,27,50,-9,10,3,3,17,-27,-8,21,38,-4,0,11,-9,19
1490654467932,-48,-114,-39,-11,5,-5,-4,-2,97,110,29,18,12,9,8,16
1490654467934,22,-128,-45,9,3,-34,-23,-12,-69,17,-21,-21,-18,-9,9,-8
1490654467982,30,-128,-10,20,0,1,-14,15,12,-37,1,-10,-11,-5,-3,3
1490654468030,-45,27,-7,-12,-2,4,9,-4,27,80,14,-15,-14,7,4,10
1490654468127,-3,-50,13,20,-13,-7,2,-5,5,-69,-1,2,11,14,-18,-27
1490654468128,18,2,2,-14,18,18,-2,13,-69,13,4,9,6,11,-12,-11
1490654468176,3,-70,23,16,7,8,0,7,-25,-128,12,0,1,-3,-6,-11
1490654468177,-4,-23,14,-20,11,8,10,18,24,-3,13,37,17,4,9,-18
1490654468225,-63,-9,-15,14,32,13,-7,-18,16,108,29,18,-22,-7,-2,33
1490654468274,49,-7,-27,30,7,1,-11,-16,-57,-38,-22,-6,2,4,1,-10
1490654468323,-1,71,26,-5,-20,-13,-18,-7,37,-26,-4,0,-6,-8,16,15
1490654468370,-34,-36,-16,-44,0,-4,-9,-18,5,-16,12,-76,0,11,-8,-17
1490654468372,-102,108,12,49,14,16,24,10,108,-3,-12,-16,-6,-6,-6,11
1490654468420,-13,22,-11,-51,-7,7,9,4,0,59,5,15,1,-13,2,4
1490654468469,-31,-43,-11,8,0,-14,-11,-7,47,109,8,18,-3,-14,3,-5
1490654468518,-6,11,2,-23,-2,-3,-8,7,-43,-16,-9,-20,-5,-3,-2,-8
1490654468566,-20,-64,10,1,-3,-16,-9,-13,36,72,12,22,2,-7,-25,-15
1490654468615,94,116,13,19,-1,4,11,3,13,-15,9,-15,-18,-10,-9,-5
1490654468615,15,-66,-13,7,7,1,11,8,-35,50,1,-16,-9,-9,1,-4
1490654468664,-2,16,4,-16,10,-6,16,30,-80,-34,-14,-10,-17,-11,-9,-6
1490654468713,2,-2,12,43,-9,-5,13,-8,-54,58,27,54,0,8,4,6
1490654468761,-48,-33,-29,-20,0,6,-7,-14,96,88,21,54,26,10,5,11
1490654468858,39,79,22,34,-11,-2,7,8,-22,82,-14,-30,16,6,1,-10
1490654468860,8,-15,17,-5,-3,-7,0,-12,-73,20,-14,21,-4,7,-12,-11
1490654468861,66,27,5,-23,-24,-21,-12,-6,92,71,9,8,22,27,30,18
1490654468909,69,-121,-13,64,23,5,9,25,-56,45,17,5,1,1,-8,-15
1490654468956,-76,64,5,-23,13,-2,-42,-29,90,45,47,66,-35,-29,-13,-19
1490654469008,-99,74,4,-28,27,-9,-21,-26,81,-122,-9,-6,10,8,2,5
1490654469053,-52,-126,5,42,-31,-6,18,20,69,76,29,-19,-9,-1,7,14
1490654469055,-31,-23,48,95,-18,-21,8,13,29,-59,-61,-29,32,13,10,30
1490654469151,78,109,-15,-4,-12,-22,-18,-12,93,-31,1,-82,-18,12,6,-6
1490654469152,62,-128,-8,-20,-30,-27,-4,3,-50,124,-6,5,-2,1,-14,-34
1490654469200,-61,2,-32,-4,-7,-27,-7,-20,26,-108,-46,-50,1,-17,-17,-17
1490654469249,-30,36,51,35,32,34,3,-22,22,77,36,2,8,16,30,31
1490654469297,-33,-10,-28,-22,1,24,33,3,-50,-2,-4,-22,-5,-10,-13,-2
1490654469298,26,94,41,-1,23,25,17,5,-116,127,2,-6,0,5,5,-8
1490654469346,2,5,-22,-52,-17,-15,-21,19,-22,-84,27,53,13,-5,20,-5
1490654469396,-7,30,25,11,42,27,17,-9,53,-53,34,24,23,12,-12,22
1490654469445,-114,-44,1,-15,-14,-20,-20,-15,-1,-100,-25,-42,-3,-4,0,-3
1490654469492,-8,-90,-15,-11,33,21,6,11,18,-8,-17,-7,16,14,-6,1
1490654469541,-31,-53,-9,13,6,3,3,4,-42,-4,-1,-2,-28,-27,-23,-6
1490654469543,-8,32,33,0,-22,-9,-9,-52,70,127,42,1,5,8,20,24
1490654469590,98,-81,-19,1,-3,-3,-5,8,-41,-12,-26,-1,-3,-3,0,-14
1490654469639,-67,41,5,-1,14,14,-1,1,-13,-16,2,26,31,15,15,-5
1490654469688,70,-26,1,-3,12,7,-10,7,-6,67,40,9,1,-7,-2,-13
1490654469737,-47,15,-8,-14,-11,-8,-19,-23,80,52,16,12,2,13,27,34
1490654469738,81,-62,-24,-1,6,4,-4,-8,-23,-70,-39,-20,-9,-11,-25,9
1490654469787,-9,82,9,1,-5,2,-4,14,8,127,12,-7,-10,-1,-11,1
1490654469834,-28,-27,-23,-10,0,1,9,-17,1,8,16,-3,-7,-5,-6,11
1490654469883,3,47,-11,-32,-32,-25,-26,-10,25,86,17,23,14,1,-2,10
1490654469931,44,-100,-52,-8,-4,-12,-5,-3,-64,-24,1,-25,-8,-6,-7,-1
1490654470028,49,-64,14,-9,14,13,9,5,-23,29,19,12,-1,1,-10,-4
1490654470030,42,63,7,32,8,-16,-8,-9,34,91,-14,25,8,-7,-3,5
1490654470031,-50,43,24,19,-5,-6,3,-10,20,-128,-69,-49,-19,-11,-15,2
1490654470077,29,-39,-8,12,0,1,-4,2,-40,-111,-3,31,9,1,1,-14
1490654470126,34,-14,-13,-28,-14,1,17,11,-31,28,-1,19,8,4,8,1
1490654470174,37,-62,-1,4,-13,-12,-6,11,-19,33,7,-7,-10,-11,-4,-9
1490654470176,0,80,7,20,-8,4,7,21,-20,-11,-9,-25,-4,6,2,-33
1490654470224,-39,-16,4,-8,6,3,11,-9,15,91,24,9,-8,-13,-20,18
1490654470273,28,116,16,-6,7,16,11,16,-3,-51,4,3,6,-5,2,-18
1490654470321,-8,-65,-9,-5,-11,-11,-8,-18,14,-29,-3,21,16,8,6,-2
1490654470370,-63,-34,11,7,4,4,0,-15,11,-47,3,-6,-3,-5,-19,6
1490654470419,27,-18,-17,-10,-1,6,17,13,-3,-26,-9,9,1,1,-26,-3
1490654470421,-5,-2,-8,-10,-14,-10,14,-11,-12,-74,-8,-5,-9,-6,-24,-20
1490654470468,15,46,-6,-4,-2,1,-21,-7,-18,20,-13,-8,-4,1,-2,8
1490654470516,11,-101,17,11,-8,-2,-4,9,4,-10,-31,-14,-8,-3,0,1
1490654470565,-4,12,-6,-12,-1,4,-3,-5,-10,-58,-17,-17,-4,-15,-26,-10
1490654470614,1,65,1,1,1,6,5,-5,-5,30,8,-8,0,5,1,-11
1490654470662,51,68,4,-9,-4,-1,0,2,18,-102,-14,15,-3,-2,20,19
1490654470663,-9,4,-3,16,6,-6,-5,-1,-10,2,13,2,4,-2,-9,-6
1490654470711,11,-62,24,-2,2,-1,-11,-8,9,-127,-18,-5,4,-4,-11,-5
1490654470760,-21,-16,-20,-19,-3,-10,-17,-16,-19,-48,-18,3,-20,-3,2,-12
1490654470857,-5,26,-19,-28,-10,-3,-4,-8,29,22,11,40,-2,13,6,23
1490654470859,48,56,-15,31,11,29,47,38,67,19,0,-18,-9,7,5,24
1490654470861,-9,104,-13,17,4,4,14,2,-2,28,-27,-14,2,3,-12,-11
1490654470907,28,10,0,-3,-9,-20,-3,1,-11,69,6,-11,-3,-5,-9,-9
1490654470955,13,-13,26,27,-1,-1,9,5,-6,-9,-22,-11,-4,1,8,3
1490654471102,9,-18,34,-3,3,-12,-13,-13,-24,-18,15,-5,-5,-9,3,-2
1490654471103,68,-29,17,-8,-1,20,-7,9,-22,-2,-2,-8,-6,9,0,-5
1490654471104,-26,-90,-4,-10,-18,-23,-25,-17,-1,-55,12,11,12,9,30,4
1490654471105,16,110,41,34,5,-1,10,11,-7,121,49,-14,-10,-14,-2,-3
1490654471150,19,-106,51,48,11,21,66,2,0,-128,-29,-2,20,33,2,3
1490654471198,-6,-41,-72,-37,6,-3,-11,-15,-8,-55,11,-42,-15,-21,-6,1
1490654471248,4,-20,52,79,22,7,-27,-2,7,-42,-2,-5,-1,-10,1,2
1490654471296,-11,-65,-116,-75,-19,-15,-7,-3,12,-10,101,97,16,12,-3,6
1490654471344,-4,4,6,-25,1,-8,-11,-6,-9,-17,-40,-23,-8,-8,-6,-5
1490654471346,1,17,17,17,-3,-1,-1,-4,-3,5,20,21,1,-3,3,-8
1490654471394,-4,15,8,-9,-3,-7,3,0,-8,6,7,8,0,-2,3,5
1490654471442,-5,10,-12,-7,0,3,-5,1,-3,-11,2,12,5,-4,-1,6
1490654471491,-5,14,-14,-8,-12,0,-2,-5,-3,19,1,-6,6,-4,-9,-3
1490654471539,0,-7,-2,-1,-6,-14,7,2,1,-8,-5,-10,-15,-11,-3,-5
1490654471541,1,-8,0,2,5,19,1,7,0,5,10,4,5,68,4,9
1490654471589,-4,-20,-1,-5,0,29,-6,11,2,-10,1,5,2,115,-1,12
1490654471638,2,5,-4,2,-3,-74,-5,-7,-3,7,-3,-1,2,-87,-9,-8
1490654471686,1,0,-2,-1,1,-13,1,3,0,-3,-1,7,-7,-18,1,3
1490654471735,-5,7,-9,-4,3,-106,1,-5,-1,7,2,-11,-2,-59,-1,-7
1490654471783,-1,3,-6,-9,-4,-26,2,-3,0,2,-3,-6,2,-27,0,0
1490654471784,2,-1,-2,-6,-4,32,1,3,1,-4,7,-2,1,8,0,-6
1490654471832,-1,-6,-4,-2,4,-5,3,-1,1,-4,-6,-1,-2,-4,6,-2
1490654471881,1,2,-4,0,1,-1,0,-11,1,-2,-11,-5,-3,7,-11,-5
1490654471930,-5,8,2,-2,-4,-3,3,4,2,-1,-5,0,-2,3,0,-3
1490654471978,1,0,-3,1,0,2,3,1,-2,0,-4,-5,-1,5,6,6
1490654472027,3,-4,-5,3,0,6,2,7,1,-1,4,4,1,-1,2,-3
1490654472028,-9,1,6,-1,-8,5,-6,8,-3,-5,2,-1,0,7,-1,0
1490654472076,0,-1,-1,-7,1,-6,3,0,2,1,0,-4,-4,-3,-6,-1
1490654472125,1,0,-6,3,-2,-4,-5,-4,2,0,-1,-3,-2,-5,-4,-5
1490654472174,-2,-5,-4,-3,4,-2,4,3,-4,2,-7,8,-4,4,0,-1
1490654472222,2,2,-4,-2,3,-16,0,2,-6,-5,-6,-1,0,18,-7,-1
1490654472223,-4,-3,-7,4,-3,-13,-1,3,4,1,-2,6,-6,-25,14,-4
1490654472271,0,1,-7,-7,-4,0,-2,-5,2,0,-4,-6,6,10,-5,-4
1490654472320,-1,0,3,-5,-7,-1,-2,2,4,-3,-3,-5,-7,3,1,2
1490654472369,-6,4,1,-1,8,7,-2,-10,-1,2,-7,4,-5,-1,0,-11
1490654472417,-1,4,1,3,0,3,0,3,-8,5,6,-6,-3,2,-3,-1
1490654472466,-6,3,-9,0,-5,5,1,-11,-3,-3,-7,-2,-1,-6,-4,5
1490654472467,2,1,2,-1,-4,-2,-4,-5,4,-3,3,5,4,-1,-9,-1
1490654472515,0,2,-6,-6,-2,-3,1,1,1,1,-1,-6,-5,-4,-1,-1
1490654472564,2,-4,5,6,-1,0,-4,1,-2,0,-2,6,0,-6,2,-2
1490654472612,-2,1,0,-11,3,-8,0,7,-6,-2,1,-13,1,-9,0,-2
1490654472661,1,-1,-8,0,3,-4,-2,0,-4,2,-2,5,0,0,-1,-2
1490654472709,-2,0,-6,4,-5,-3,4,-3,1,1,-2,-11,-3,-6,-1,4
1490654472710,1,-5,0,2,1,0,-8,0,3,-4,-2,6,4,3,-3,1
