1490653763564,10,55,33,5,-5,4,-13,-39,26,1,-1,0,3,-28,-13,5
1490653763566,25,-1,11,11,12,-2,-18,12,89,-26,-14,-4,7,34,27,3
1490653763605,23,-47,-12,-10,-15,-88,35,22,-58,22,-13,-10,-7,53,25,-9
1490653763645,-19,26,0,-1,17,97,11,-4,-13,44,26,-19,-36,-66,-44,-14
1490653763685,21,108,34,-7,-30,-11,-44,-35,127,23,18,5,3,-10,8,42
1490653763725,-80,-91,-22,-12,-2,87,-39,-35,-22,-29,27,21,-3,6,10,14
1490653763765,44,127,44,10,-14,-39,-31,6,93,8,19,-72,-82,-45,-52,26
1490653763805,-91,-35,74,109,43,58,24,-4,-92,66,-25,74,62,-23,22,-21
1490653763845,57,127,112,-100,-117,-104,-47,3,102,13,-109,44,127,102,56,88
1490653763886,14,17,111,33,83,85,5,52,-25,67,-23,-70,22,17,36,-8
1490653763925,85,-77,127,-109,-128,-71,-30,-16,65,-128,-89,109,110,84,0,-28
1490653763965,55,38,-64,57,-13,-3,-15,-30,-81,22,78,-128,-75,-77,7,-50
1490653764005,98,27,127,-97,-12,66,30,40,-50,98,-128,-105,53,2,51,10
1490653764045,70,91,-55,74,13,30,45,-26,52,0,65,82,-95,20,14,15
1490653764085,-30,-113,-38,92,-20,14,-101,-45,-26,16,-128,-128,-110,-110,106,28
1490653764125,5,-27,50,-128,-128,-112,-127,6,3,-97,-49,115,121,76,104,-13
1490653764165,-1,124,88,-74,-59,-60,-47,58,6,127,-37,-128,13,93,60,54
1490653764205,3,78,-44,46,-61,-67,45,10,4,34,63,28,127,96,-61,6
1490653764245,2,25,43,-79,-128,88,44,84,0,-70,-34,91,58,-128,-91,-22
1490653764285,-44,-66,-55,45,68,13,95,29,12,47,-94,-128,45,-46,-75,-28
1490653764325,38,109,-62,-81,-78,0,-37,-21,-89,-58,-90,35,-17,83,31,3
1490653764365,-101,-95,-114,4,-91,-81,-14,-10,-43,38,127,26,-5,30,4,3
1490653764406,111,-35,-70,102,83,47,30,14,20,-61,-69,85,-31,-31,-54,-23
1490653764445,9,32,127,123,59,24,31,-20,-89,-10,31,-14,21,-58,20,39
1490653764485,-82,38,-11,-70,26,17,-46,-41,-67,123,127,90,-39,-47,10,-35
1490653764525,-7,4,-121,-31,15,55,-47,-15,2,25,-94,118,-56,72,-14,-72
1490653764565,47,-92,24,-77,-4,104,11,-1,33,79,119,-83,80,-21,-33,-41
1490653764605,127,-81,-17,-4,58,-34,-128,-81,-80,48,21,-7,97,-39,-100,-87
1490653764645,39,-128,-13,-2,16,-27,78,-108,38,53,58,-4,9,29,60,13
1490653764685,1,127,-60,0,-23,53,-2,-86,8,-128,38,2,-10,103,14,57
1490653764725,1,94,89,3,46,-11,3,-88,14,127,-91,-1,35,-6,4,-128
1490653764765,69,-28,-76,-6,-75,-25,72,-87,99,-50,-106,-85,-36,9,114,-58
1490653764805,-20,-17,-15,11,73,17,-123,-17,93,63,7,8,32,-9,-128,-22
1490653764845,3,-7,-61,-40,15,-64,-88,72,-74,4,59,8,-51,8,-68,-52
1490653764885,-1,-49,77,18,-68,-35,8,-123,86,33,-14,23,100,63,89,-56
1490653764925,-71,20,-86,-28,-18,-2,-14,67,-40,-8,127,24,7,28,3,47
1490653764965,-48,-62,-71,-4,-13,9,-6,61,61,56,25,15,-56,-31,29,63
1490653765005,-20,33,101,84,-5,75,8,-4,-110,-76,-78,-4,-23,15,-8,-5
1490653765045,96,-82,-20,-96,-75,-75,4,-13,22,-9,-62,5,-4,8,-7,57
1490653765085,68,90,-128,-11,-102,37,5,-26,-37,85,11,30,64,-1,-4,-39
1490653765125,-97,-30,103,-112,104,-7,-23,-5,22,-68,-76,69,-22,-34,9,2
1490653765165,-107,80,-32,-92,-1,-16,-7,11,-96,-28,-4,-76,-96,42,47,29
1490653765205,-27,42,69,90,-12,-29,-51,-60,5,51,127,-18,56,8,17,-43
1490653765245,15,21,-14,75,-4,-79,-74,-32,-78,-15,-62,82,-84,44,6,25
1490653765285,-24,4,-108,-128,12,-103,-60,10,-80,-5,-5,-57,66,55,42,57
1490653765325,-89,-75,-107,38,-29,27,-60,-3,-101,-34,97,22,72,-71,0,-77
1490653765365,-16,32,-92,-102,60,-56,30,-20,-34,38,-17,-12,-36,-27,-70,-54
1490653765405,16,19,40,-9,74,21,-68,4,15,-16,-9,-50,3,-12,78,-24
1490653765445,38,-33,66,127,110,28,-36,-14,56,29,-59,35,-84,-128,-72,2
1490653765485,-54,-29,-128,2,-55,-22,-49,-52,45,0,127,-22,-46,55,69,36
1490653765525,13,-67,-91,-13,-21,-54,-31,-1,-5,-15,-64,16,-89,-70,1,35
1490653765565,-25,-73,90,46,11,76,85,32,-125,-51,-44,18,-21,-57,5,-71
1490653765605,15,18,75,-3,-45,-101,-81,-24,28,-46,-22,82,-3,119,16,-23
1490653765645,-14,99,100,-127,-27,-75,-45,16,-22,22,-34,-104,-30,-33,18,47
1490653765685,-31,-56,-128,63,90,34,17,-46,-8,-72,10,122,-9,-84,-58,-10
1490653765725,-22,74,-23,-101,-116,-100,-52,-57,25,-46,66,-38,4,90,78,33
1490653765765,-12,-25,-69,64,-12,-64,-60,10,2,-6,79,112,94,66,45,-16
1490653765805,-47,-45,-50,-119,-74,-103,26,28,-3,-97,-86,-118,74,-52,-47,-20
1490653765845,-11,-4,127,8,-19,1,80,-5,14,-9,-49,0,60,16,-17,-7
1490653765885,2,-37,-18,103,-1,127,33,22,34,18,2,127,-12,-44,-65,38
1490653765925,2,55,98,-60,-86,18,-44,10,-6,92,-75,29,59,39,60,-2
1490653765965,-11,85,60,-34,90,90,56,29,-45,-107,-36,27,-128,-94,115,80
1490653766005,-77,-74,-29,-82,77,59,54,-8,-47,-51,67,-52,34,-69,-66,-1
1490653766045,-14,21,-1,81,58,67,-31,-41,81,112,115,-93,38,-12,27,83
1490653766085,22,15,-22,-69,-40,-66,-66,-60,115,78,82,-98,-24,111,88,56
1490653766125,-64,-35,74,21,3,-73,-17,14,-91,-69,-77,98,-126,-76,-76,-49
1490653766165,-65,72,88,14,3,-55,-59,1,-23,-56,70,-128,-34,-66,-14,23
1490653766244,-24,68,-28,18,-107,64,85,43,33,94,-128,-76,127,-6,-74,-30
1490653766247,-127,39,35,31,91,5,-19,25,-51,-101,-59,8,-107,-49,27,-21
1490653766286,56,58,95,-111,-66,-45,-46,16,-42,-88,-19,-81,-17,-35,-13,-62
1490653766325,-41,-61,-12,127,-95,-101,-13,22,47,-39,78,127,68,66,-21,21
1490653766365,18,38,82,28,37,27,-3,21,-120,-57,-113,28,-58,-17,-45,-33
1490653766405,4,-60,-40,117,-66,-56,-27,-32,30,-113,-78,109,-105,-60,13,-22
1490653766445,-41,10,55,24,69,-27,3,-30,35,104,16,-33,58,104,27,47
1490653766485,-18,41,6,81,76,-46,-115,-14,11,-3,-12,-54,20,18,-29,29
1490653766525,0,17,6,53,1,-10,21,29,-26,-73,-19,-16,-88,-8,29,-24
1490653766565,-21,-117,-60,-127,-106,-79,-44,19,40,127,103,127,127,38,-77,46
1490653766605,-80,86,-127,-36,-75,-29,13,127,-54,-42,-21,5,10,-11,20,101
1490653766645,-14,40,109,95,36,35,38,-45,-1,-108,-96,114,8,59,26,-104
1490653766765,38,-74,-128,-126,3,49,12,-61,39,-66,78,-57,-71,37,34,-33
1490653766766,28,-22,31,7,0,11,-6,-28,-8,58,46,-7,-52,1,-43,-37
1490653766768,0,31,-80,2,-2,-32,0,-17,-5,-54,73,-16,12,3,-31,-8
1490653766805,61,-5,53,59,-15,-15,-26,-118,-11,-62,-86,11,-65,-59,19,-102
1490653766845,-19,-27,-14,26,30,4,5,4,-11,0,70,-54,-37,30,18,27
1490653766885,60,-68,-46,-41,-13,1,-8,-11,87,62,-11,30,66,-8,12,32
1490653766925,-114,-69,15,-14,-40,-40,21,-50,-128,-11,-67,-21,-42,0,-11,81
1490653766965,7,6,-112,18,18,-50,15,-73,-33,-4,106,-12,31,30,-19,-32
1490653767005,-11,-41,-91,-36,84,-57,-39,115,-11,10,72,30,-54,-15,-9,79
1490653767047,3,36,127,108,75,-14,-43,8,-27,-33,-123,-128,-128,22,-3,-92
1490653767086,-4,26,-48,-93,-24,-20,-33,21,-23,-51,74,100,-47,19,13,8
1490653767126,36,76,21,82,39,-23,-49,48,8,-32,-71,-51,11,-3,-48,-34
1490653767167,10,-26,-35,75,-69,-48,-25,-52,-34,-53,-22,91,32,-14,7,18
1490653767207,-6,4,69,79,127,27,77,8,-28,-96,-128,-10,-78,-64,-19,-4
1490653767245,-6,-34,-21,64,-75,-42,-29,17,24,94,18,42,127,100,2,26
1490653767285,-12,1,-77,78,35,-126,-119,-84,0,-45,-123,-64,92,-4,58,-18
1490653767325,10,-65,3,64,75,3,-3,-63,74,-13,-100,-16,58,-72,-29,-19
1490653767365,127,2,94,-77,-41,-43,-22,22,84,-62,-75,-43,-51,-85,-80,-32
1490653767405,-22,-27,-100,-25,-110,5,-79,-20,14,-22,-33,30,-14,6,10,-122
1490653767445,-5,-13,65,104,98,12,-15,-10,-42,33,-20,-1,-104,16,32,-28
1490653767485,125,40,-95,-87,-72,-2,41,43,127,57,127,17,-15,9,-15,19
1490653767525,-29,8,62,-96,-36,35,62,-12,-53,-8,-37,-85,-111,-90,-9,-59
1490653767565,14,66,62,67,7,-49,-69,3,10,41,91,52,15,-12,27,-13
1490653767605,18,-55,-30,-12,-4,8,36,42,66,-28,-38,21,-1,-70,45,-36
1490653767645,37,-3,5,36,17,51,-3,-7,15,-103,-86,26,-81,-22,-36,31
1490653767685,-62,-73,-71,61,-105,-128,-31,-32,2,18,12,42,71,127,68,70
1490653767725,-25,-28,95,32,44,38,21,-67,10,10,-27,-87,-62,-101,7,-6
1490653767765,49,116,58,-99,-48,48,16,74,-35,-83,-73,3,22,8,-40,-40
1490653767805,4,-90,9,84,-26,37,53,15,-2,6,109,-75,20,-89,-19,28
1490653767845,-22,-128,-94,96,102,-57,-39,37,-12,7,8,49,-85,-7,-19,-36
1490653767885,-1,45,-128,-52,41,92,20,-50,80,97,127,17,-26,3,-57,38
1490653767925,53,90,-18,-128,0,8,114,43,-54,-110,-30,97,-92,-87,-81,4
1490653767965,-36,22,41,-29,-23,127,69,-46,86,127,25,-117,85,6,42,49
1490653768008,9,23,-28,-25,79,45,53,78,39,37,19,-68,-36,-20,17,-9
1490653768045,-27,-57,-44,125,-75,-44,-122,-91,-80,-88,-128,73,41,-35,79,5
1490653768085,-80,12,111,24,49,65,2,-39,-63,-88,-26,-110,-9,32,3,-40
1490653768125,-45,-51,-13,46,-83,-43,0,-8,27,98,4,-10,-61,-62,-44,5
1490653768165,-85,-35,-48,104,73,36,15,-69,-46,6,-44,-41,-112,-4,-28,-78
1490653768205,94,-96,-98,99,74,-8,14,-3,77,72,112,-77,45,-93,-29,-24
1490653768247,-87,-37,-24,-97,-78,47,-3,25,-97,84,68,-116,-73,3,-25,-17
1490653768285,20,49,-83,42,9,23,36,6,-35,-113,-26,127,-111,-8,-8,-10
1490653768325,23,61,67,30,46,33,26,-2,-40,-8,-47,126,-27,22,1,-2
1490653768366,36,-84,-92,28,-86,70,-14,10,0,-84,-82,97,16,-96,-1,9
1490653768406,-20,70,42,-128,83,37,28,16,12,45,40,-128,-65,-62,-30,16
1490653768446,17,31,-85,101,105,21,-99,-31,60,22,127,51,42,87,-20,2
1490653768486,-31,-114,47,-128,-128,-68,17,-48,89,27,-95,-76,76,70,22,18
1490653768526,-99,34,88,-78,10,24,-44,22,-109,-128,-128,-82,-57,-66,-31,66
1490653768566,100,-69,-128,14,-13,-1,-8,123,102,126,92,127,70,48,-32,122
1490653768608,-72,-100,-56,-99,-7,94,46,-71,8,-26,-128,-21,14,40,50,-109
1490653768645,68,51,-6,-12,53,-1,-61,33,45,29,-23,-53,-47,0,80,9
1490653768685,104,57,-62,-80,-36,4,3,-60,9,-14,35,-12,-20,-44,-5,100
1490653768725,-7,44,42,17,58,30,33,-35,60,-8,4,25,27,-19,-12,19
1490653768765,3,-62,-4,26,79,-24,28,-9,-66,-24,65,-22,-103,-64,-47,-50
1490653768806,54,61,3,87,34,23,-26,23,-55,-128,-2,-104,-37,-57,-31,53
1490653768845,-65,-70,-112,-98,-70,7,-25,25,10,-12,52,30,8,16,-3,10
1490653768885,-60,-29,-46,65,70,22,39,14,-89,-92,-7,-29,-105,-86,-30,37
1490653768925,127,49,36,57,100,5,-40,46,123,58,-41,105,34,31,59,62
1490653768965,-54,14,-2,-53,-110,7,22,2,31,-52,-89,-80,-15,-49,-18,4
1490653769005,-128,-56,-128,-18,2,-58,3,87,-100,-42,127,22,-42,-41,50,35
1490653769045,-3,23,61,29,32,-28,-22,-58,-14,-15,-52,99,45,-7,-55,-24
1490653769086,5,58,17,-109,119,11,14,-36,3,51,38,-35,35,72,93,38
1490653769126,-22,-86,-128,-21,-44,-56,-72,-79,65,66,80,-128,46,37,-1,19
1490653769166,-6,-9,-85,-30,67,10,14,-16,-44,-52,-39,8,-8,94,61,-48
1490653769206,42,72,54,-99,75,50,-18,-29,-50,-47,-125,127,-8,-75,-22,-44
1490653769246,-4,30,39,56,-70,-18,87,14,-5,9,107,-31,44,-11,-35,37
1490653769287,-9,-65,-48,2,-63,-14,-21,13,-31,5,51,73,-1,18,-8,-79
1490653769325,-61,-55,-67,-8,60,-23,59,22,-58,-51,-65,-43,-128,127,62,18
1490653769365,20,18,-95,-27,47,55,-60,-107,76,7,-55,20,-8,-46,61,94
1490653769405,3,-68,-42,51,48,-43,24,55,21,45,-28,-128,8,74,39,-17
1490653769446,-2,11,-22,-86,-110,-9,-43,55,-36,-71,-76,127,127,74,-17,-83
1490653769485,60,53,127,11,-33,-64,60,-7,20,-31,-24,-77,24,-85,5,57
1490653769525,18,31,37,-16,92,51,36,4,24,54,74,-56,-12,-5,-5,33
1490653769565,-2,61,29,-22,51,-38,-16,20,-40,-78,-27,-92,-92,6,-65,-68
1490653769605,18,35,-58,-128,-91,19,2,86,10,28,16,-10,71,-52,122,49
1490653769645,27,35,-75,89,17,127,-13,-19,24,66,53,63,-57,-122,30,48
1490653769686,40,-21,-128,88,56,50,104,77,-1,-18,79,121,42,-3,-49,16
1490653769725,-8,21,51,78,56,-113,-75,-2,-8,77,-3,99,0,127,33,-39
1490653769765,6,-14,118,-74,-42,0,47,-24,3,14,38,-59,-18,-10,5,4
1490653769805,-24,-7,-68,-15,80,102,-26,26,-22,115,40,-93,-94,-8,14,-34
1490653769845,3,-83,-72,16,-53,-22,-1,-60,-32,4,55,72,5,7,-121,-74
1490653769885,66,7,-10,1,97,51,62,50,50,44,53,-97,-79,27,62,-20
1490653769925,-15,58,-128,-34,-89,-49,-26,14,-17,-7,14,-19,-47,-95,-11,51
1490653770004,-95,-46,86,-3,-9,-99,3,-41,-70,-128,-128,-26,-50,-45,-104,-66
1490653770006,48,92,30,-90,92,73,-16,11,64,-123,-122,111,-72,-65,16,-40
1490653770046,-22,22,-128,-95,-5,-54,97,12,12,-37,-24,-106,-87,-57,-20,-12
1490653770085,-128,-128,-128,127,11,85,-63,-114,49,71,21,63,78,88,70,64
1490653770125,38,106,126,-111,-128,-62,36,55,-92,-77,-96,105,96,4,-73,-67
1490653770165,-75,-123,-90,37,34,-16,41,-46,-32,85,37,-14,48,65,8,18
1490653770205,-19,-128,-128,10,57,-116,-14,9,-20,-17,-128,89,-24,6,-23,-8
1490653770245,7,63,-94,-33,-64,-60,-12,-19,25,10,95,87,90,52,49,44
1490653770285,70,83,127,-77,67,80,29,29,69,-9,90,-75,-59,-49,-28,8
1490653770325,-56,-46,-13,104,50,14,-2,-41,44,74,43,-128,-48,-47,-10,-2
1490653770367,-74,-102,-127,23,-128,-87,-29,-22,-41,26,51,127,-1,-44,-16,-31
1490653770405,-84,-74,-113,-89,-40,9,-110,-68,110,-20,110,-128,-9,-63,-26,-33
1490653770445,19,109,41,-76,-36,52,43,-58,-112,-124,-128,-95,11,-66,20,11
1490653770485,51,84,127,99,11,61,93,27,76,-20,-110,-10,84,71,22,49
1490653770525,-105,-128,17,-22,5,-21,18,7,40,-7,-47,-48,-11,-1,-17,15
1490653770565,-60,-51,87,-62,-48,-14,-62,-5,92,103,27,15,93,46,64,-97
1490653770605,37,92,-16,31,77,38,7,-91,81,-11,53,-25,-31,42,3,-118
1490653770645,6,99,19,59,65,-14,-16,24,-44,-39,-8,-38,-53,-18,-42,-104
1490653770686,-2,-25,-77,-12,29,0,-53,-59,-28,74,90,-2,10,72,17,26
1490653770725,-22,5,-40,51,74,60,35,-31,-23,35,119,27,-20,-3,-35,-13
1490653770765,6,49,92,-119,-128,-60,-17,39,-23,-27,-59,-22,50,-61,2,-55
1490653770805,82,82,59,48,-32,-25,39,92,-109,67,-56,-41,36,22,-69,108
1490653770845,127,24,75,18,76,-34,-2,88,81,75,-2,127,-48,59,-37,105
1490653770885,125,-65,-31,-47,42,-23,-56,-128,62,21,-79,24,18,13,-37,-76
1490653770926,-30,2,110,-79,18,-114,46,101,-128,-41,20,102,-81,-93,28,80
1490653770965,20,-35,81,-84,-55,-24,-32,-111,8,46,-23,-87,127,122,36,-26
1490653771005,114,51,28,-73,-41,-58,-4,35,4,39,20,-128,67,-75,25,0
1490653771045,-79,-19,-37,-31,-92,85,-50,-4,-19,127,127,-122,48,41,21,12
1490653771085,-11,-16,-126,127,94,105,34,1,14,67,115,14,90,54,67,30
1490653771125,-15,12,15,127,73,-88,17,-34,9,-13,8,22,-10,7,68,92
1490653771165,2,22,-1,-85,-49,30,35,13,13,15,10,-41,-19,0,-28,10
1490653771205,13,-26,-89,-20,-10,-30,14,55,-28,-43,-16,23,40,51,57,6
1490653771245,-5,-7,96,89,49,85,24,26,-3,-19,64,-117,-90,-76,-2,18
1490653771288,-18,-11,49,21,-38,28,27,7,0,13,-96,-72,-72,29,24,-4
1490653771325,-2,-1,65,59,59,-65,21,-10,-14,21,100,-58,127,127,76,10
1490653771365,14,45,82,-106,-34,-2,78,-19,26,-84,-128,127,75,-34,-7,57
1490653771405,0,-28,8,-68,-119,-35,23,0,-19,-46,-85,14,-106,-92,40,-47
1490653771445,5,-63,-124,-14,-59,-40,32,68,1,-32,41,-10,41,-84,-39,-29
1490653771485,-9,11,89,32,127,105,72,-32,-25,-60,-96,23,-68,-69,-122,-18
1490653771525,-40,-100,-60,-40,-86,-38,-114,-18,-6,50,59,-1,110,94,115,-64
1490653771565,7,-44,-101,80,34,-123,-10,52,-4,35,30,-26,-42,-119,-128,-62
1490653771605,-8,-12,98,61,-34,-13,103,46,46,69,-41,-128,11,17,-5,60
1490653771645,-4,4,75,-2,56,-58,-19,24,-3,-8,-101,-36,-36,42,-41,-42
1490653771685,-40,-50,-113,115,72,-69,-62,-50,-64,-5,65,-45,-103,-62,-88,15
1490653771725,20,75,87,-6,46,23,76,-2,73,111,56,56,-7,-23,-53,-63
1490653771765,44,42,-72,-128,20,-49,-48,41,10,-24,26,-5,-29,59,109,34
1490653771805,-5,37,46,101,40,113,79,16,-22,70,38,-122,-90,-77,-19,-12
1490653771845,-4,-115,45,-64,-128,-70,31,36,14,-11,-88,-68,71,-3,-15,-86
1490653771885,-42,69,22,-128,-8,62,-54,25,-91,-128,46,127,41,127,77,-8
1490653771925,-14,-67,-82,-15,-94,-113,-35,-101,49,64,31,-63,9,-38,-15,-18
1490653771965,-34,-96,11,127,69,-12,11,-30,-11,24,-8,-79,-60,-63,8,3
1490653772005,-71,-86,83,-1,-24,14,-62,-28,-85,-128,-128,127,-14,93,66,-59
1490653772045,-4,31,-125,52,-17,28,38,32,27,75,86,-102,-75,-57,20,78
1490653772088,52,8,-105,-118,111,-85,-97,-17,-42,-17,-4,84,-47,23,51,-8
1490653772126,-67,-95,-67,96,-85,-79,-113,-64,-5,33,23,74,22,16,36,-35
1490653772165,9,-78,66,-22,-27,-23,6,-3,-48,-84,-82,76,-76,-80,-41,-49
1490653772205,35,95,-51,-103,127,72,-1,8,23,-19,63,51,-27,-30,27,-3
1490653772245,-30,-91,-14,79,58,22,34,1,-16,74,-84,-46,7,-11,-6,35
1490653772285,32,121,12,-79,53,-9,-9,12,-77,-55,-10,-48,-23,-15,-10,-2
1490653772325,25,-15,-8,-56,97,63,17,25,-74,-99,36,-106,-52,-18,-50,-70
1490653772365,56,74,-50,-38,85,58,-38,-57,-37,-108,-128,-8,-84,-40,-46,-28
1490653772405,28,90,91,61,64,-6,24,85,89,53,57,32,-9,-14,42,28
1490653772445,42,52,48,31,52,-30,89,17,5,16,73,104,15,31,9,1
1490653772485,-9,-18,-79,34,-18,-51,-22,63,17,93,101,78,51,24,-30,99
1490653772525,-96,127,-65,-28,44,-29,28,-99,-119,8,27,-93,-110,20,18,-104
1490653772565,53,65,55,81,88,41,-14,44,-58,-9,-15,11,2,-68,-44,4
1490653772610,-5,-87,-60,-81,-13,45,24,-25,-13,-57,-27,-49,-50,1,-28,-25
1490653772645,21,-11,-1,-9,-34,-9,-41,-37,47,4,28,25,19,-16,-24,-2
1490653772685,-12,-20,47,7,3,41,41,17,31,-5,-83,-17,0,-44,-27,-34
1490653772725,-34,22,-65,26,38,36,6,-37,-36,-90,-17,-5,4,-30,31,-74
1490653772765,84,-62,112,-11,30,-24,-39,-52,101,18,-34,82,-15,9,28,8
1490653772805,49,-4,-21,-40,-67,-15,30,21,-16,-24,-16,-4,-2,-30,56,67
1490653772845,-16,45,-69,13,-4,72,39,-38,-50,13,117,68,100,13,89,100
1490653772885,42,3,-53,-87,-23,-63,-6,-23,-57,-51,48,-7,60,-19,-106,-53
1490653772925,-120,-124,-84,-29,-128,11,-128,-92,5,27,-4,-32,48,29,119,-97
1490653772965,-3,-19,-27,79,23,-11,-53,-40,-28,20,-9,127,-14,114,3,-66
1490653773005,12,-7,42,-64,-3,48,18,-55,-36,-30,-47,6,-59,-128,-128,-99
1490653773046,-14,-29,48,53,1,-77,-51,-25,19,60,53,-84,-83,15,68,-6
1490653773085,-73,19,-46,-15,3,39,49,73,-73,-51,46,-41,-42,-65,14,-39
1490653773125,9,-59,-68,127,-36,91,113,87,-70,-54,5,-15,31,-28,-78,-25
1490653773166,17,-18,21,53,13,-103,49,-32,-30,24,-2,76,109,64,-48,-54
1490653773205,44,26,-26,-58,126,17,-46,3,-39,-43,127,60,-89,7,67,12
1490653773245,-7,52,-36,-128,-128,-66,25,104,-22,-56,-41,127,119,127,10,69
1490653773285,19,-52,-28,31,-43,-74,30,-60,52,44,24,25,-16,34,-75,-76
1490653773325,-65,5,55,-105,-49,121,-14,-22,-59,-20,-80,-128,-26,-109,-89,-30
1490653773365,-1,46,58,-84,-94,-128,-60,15,36,94,-2,-56,28,127,47,58
1490653773405,-31,40,-22,-6,-83,-18,11,-9,-7,-16,73,19,54,33,-18,-47
1490653773445,-11,-35,-60,-9,-27,2,51,-2,48,116,111,-106,-8,80,32,33
1490653773485,-45,-65,18,79,30,37,-117,14,-21,-14,-21,-45,40,3,70,-3
1490653773525,-43,-71,-120,-13,69,-128,-23,-62,-13,21,-57,-3,-58,65,-9,-21
1490653773565,0,-88,-64,-125,-115,-107,22,7,74,72,93,-29,44,105,112,27
1490653773605,-1,-95,-28,127,80,35,-54,-28,-42,26,-25,33,-128,-2,85,117
1490653773648,25,127,97,-85,70,26,-52,31,-76,-75,-20,127,-12,66,-110,-55
1490653773685,15,51,-93,12,4,-85,53,-34,-82,-48,91,111,-113,-56,32,2
1490653773725,100,-25,-34,-85,70,-16,69,86,91,90,-15,-128,-36,71,69,-43
1490653773765,-43,101,-3,-66,46,-83,-44,-10,11,8,-50,-99,-65,13,19,20
1490653773807,25,-107,-46,-29,-105,-10,-22,-6,13,127,40,-66,-101,-116,-18,-50
1490653773884,127,127,34,-43,-48,48,21,63,47,-83,-126,26,-116,-104,-71,-41
1490653773886,-19,71,127,-128,-5,-57,-88,12,72,74,-128,-78,97,106,16,-1
1490653773926,107,127,127,-95,102,-27,50,66,-11,-84,-106,-111,-65,-82,-26,18
1490653773966,-26,67,51,-75,-93,-51,11,6,14,41,10,35,127,61,-78,15
1490653774046,-128,-128,-74,113,-67,-107,-110,-91,5,64,31,86,21,9,7,-33
1490653774085,19,75,60,-24,126,-3,4,34,-2,-108,-128,-20,-128,32,14,-25
1490653774125,-55,-31,-44,-45,-91,-13,-6,-38,29,84,73,-67,78,-40,17,-40
1490653774165,-53,-116,-128,-32,-127,-61,-33,27,-108,-128,-1,60,61,-128,-18,-74
1490653774205,3,-27,-64,-111,-14,-46,-30,2,44,26,-65,-34,-10,108,63,85
1490653774245,-29,-19,15,10,5,42,-11,2,81,109,11,-41,-16,83,19,40
1490653774324,-44,-52,-128,-116,7,-7,-15,-43,-12,40,91,20,58,16,-20,28
1490653774326,6,-73,-128,-30,-128,-13,10,14,-22,-46,127,127,38,-16,14,73
1490653774365,99,86,72,101,101,85,89,28,-97,43,12,96,42,18,17,2
1490653774410,68,-10,15,-22,-26,21,-30,-46,37,80,69,82,32,12,-36,14
1490653774445,-21,-26,-6,-40,-62,-28,0,1,77,-33,-64,-43,-4,18,7,-60
1490653774485,-31,-23,-53,13,-32,0,35,-45,21,-5,1,-26,13,22,-14,-25
1490653774525,43,10,-38,6,-53,-13,23,3,-103,-10,-101,8,77,-5,-9,17
1490653774565,-81,-25,24,22,-29,-3,28,36,-70,-49,-10,-32,46,-16,-7,-41
1490653774605,64,60,68,1,-36,17,41,3,-25,-16,30,40,37,-21,-4,69
1490653774645,-32,8,-41,-15,61,15,-19,-37,58,68,29,39,11,23,42,35
1490653774685,-80,-1,-114,-6,15,-24,-13,112,-38,-6,127,-5,-37,-40,34,-8
1490653774726,83,37,127,70,60,18,75,92,44,19,-128,-14,-16,-28,-41,127
1490653774765,-18,40,-109,-118,-34,-2,-50,51,-38,94,64,107,56,62,94,77
1490653774806,-50,31,-18,61,52,125,-16,-10,-80,20,-49,4,13,-9,-110,1
1490653774845,-39,38,29,-8,23,-2,73,-11,-4,30,41,-13,-13,-17,-40,-38
1490653774885,-11,-74,-17,100,36,-38,9,-15,14,20,76,28,-34,-97,-31,-40
1490653774925,-72,-101,-122,-78,-71,-7,-72,-56,15,-94,-57,70,-5,-81,-26,-30
1490653774965,35,91,67,75,64,38,-40,-5,-13,-13,-60,-13,-33,47,67,22
1490653775005,-85,-24,-42,127,-45,-68,-18,15,59,21,15,77,0,33,11,-36
1490653775045,11,-4,71,-75,-101,-39,41,9,-57,-59,-41,39,127,-10,-57,-37
1490653775085,68,-9,-75,-6,-45,-62,46,3,-3,1,118,-34,-100,-39,-4,29
1490653775125,-78,-121,-61,127,3,-27,-74,-15,-79,40,63,-2,-3,55,79,4
1490653775165,-36,-21,-81,50,82,127,82,-65,32,33,8,-84,-45,-71,-80,52
1490653775208,-72,-68,-128,-29,-128,-112,-53,-12,-57,-31,34,87,59,127,119,57
1490653775245,74,87,58,-54,127,91,23,-71,-42,-12,-5,-34,-120,-8,8,-47
1490653775285,14,32,41,69,-85,47,0,-93,-23,3,33,-13,99,28,93,70
1490653775325,-106,-14,-68,-128,-128,-46,17,69,-53,63,-62,32,127,63,54,-27
1490653775365,18,78,94,-84,-106,80,43,-53,-34,-122,-49,127,81,-21,15,-3
1490653775405,-8,-35,7,-46,105,-72,-51,19,-61,11,-39,78,-56,-9,-10,-56
1490653775445,34,71,7,-128,-68,34,70,-9,33,-68,79,127,-117,-3,-10,20
1490653775486,40,85,12,-32,-6,-34,46,-26,11,-27,27,-86,-72,-128,-72,36
1490653775525,49,-82,122,73,37,-60,1,27,23,-47,42,-11,-47,17,65,-2
1490653775565,38,98,103,-25,48,-19,-76,16,-49,-78,-69,111,66,87,-1,48
1490653775605,-71,82,-91,20,51,71,53,38,-97,-37,0,4,-39,72,62,60
1490653775645,-23,-95,-100,127,-10,-91,-68,-122,-28,98,-98,43,-74,-6,108,36
1490653775685,80,-3,-4,-67,-79,107,95,-13,37,112,55,-128,-41,-90,-84,45
1490653775726,-12,108,29,-77,-117,-71,18,-20,112,27,93,-103,66,108,43,62
1490653775765,21,-94,-63,127,13,-52,-76,70,84,115,2,-117,31,-77,-41,-42
1490653775805,-52,-8,-60,46,19,38,50,29,-8,-54,35,-57,-107,-13,12,38
1490653775847,33,127,29,-128,119,75,4,31,-98,-84,-61,127,-27,-86,-64,-40
1490653775885,-118,-59,23,127,45,-8,-32,-36,17,108,127,-59,15,43,32,9
1490653775925,29,93,67,18,-26,-40,-28,11,-21,27,15,8,-38,7,42,7
1490653775965,20,56,63,-128,51,50,68,67,-21,-128,-106,127,29,-78,-76,-64
1490653776005,13,-73,-56,15,-14,-18,-8,6,-19,5,-111,73,-31,-29,18,-9
1490653776045,-33,-23,15,127,-52,73,-24,24,9,48,43,117,99,5,-24,-15
1490653776085,27,54,-1,-75,-8,-6,43,15,36,-8,-37,-111,34,54,28,23
1490653776131,10,3,-22,-101,8,31,-5,7,38,-27,-32,-5,-62,19,19,14
1490653776165,24,-89,-44,-30,-6,-101,-25,-24,-70,-128,-73,-95,-107,-10,5,-64
1490653776205,44,-93,-90,-74,-80,21,-20,-105,14,-21,83,127,32,27,56,-38
1490653776245,-128,-128,-4,-109,-128,-88,25,92,-37,-16,-28,98,78,4,13,108
1490653776285,67,113,73,62,-19,112,60,24,-36,-69,-39,-128,-34,-29,-13,7
1490653776326,-83,-53,-48,-91,77,-52,-66,-126,8,21,85,49,5,-19,50,1
1490653776365,24,4,-48,-93,-38,-81,-22,-99,8,122,94,38,76,47,10,-6
1490653776405,39,-58,-18,-20,19,-11,-17,25,16,-42,-52,-24,14,-10,5,-1
1490653776445,-70,-78,-71,25,98,-37,-5,-86,58,-4,27,44,-68,40,7,0
1490653776485,-24,15,6,-23,-14,29,44,127,-35,-19,-61,4,-24,-15,-71,12
1490653776525,70,75,51,127,53,24,-26,15,-55,-32,38,-41,-18,-1,25,69
1490653776565,-7,74,62,67,104,-41,-14,-123,-62,-40,-73,-11,-83,78,-8,-62
1490653776605,0,-2,-11,-41,-81,-49,-55,-69,41,20,10,11,-6,0,11,25
1490653776648,-51,33,-25,1,16,9,-20,2,-22,-94,-79,-95,-100,-60,-72,-117
1490653776685,-90,-65,10,42,-69,50,26,-21,-82,38,-48,-42,19,-15,-19,-28
1490653776725,-6,54,47,29,109,34,-105,2,103,12,-54,71,-62,-4,51,2
1490653776765,-57,-63,-37,20,-114,8,59,-12,-23,59,20,-32,66,-20,-81,5
1490653776805,69,41,101,-52,-54,-91,-33,-68,66,-16,-128,-23,80,17,69,24
1490653776845,47,97,108,-128,31,-5,-48,22,-20,-89,-25,-128,-90,-119,-87,-76
1490653776885,-45,35,123,-43,36,13,3,-12,30,-2,-58,54,-33,-113,-69,35
1490653776925,62,46,60,-66,-35,-107,-10,-26,90,-19,-39,-22,-39,46,-16,20
1490653776965,46,51,127,-43,-15,49,48,92,-93,-123,-96,46,-128,-107,-24,-121
1490653777005,34,61,-123,11,50,56,87,46,81,-13,53,-30,-45,23,16,32
1490653777045,-21,12,15,49,93,44,-16,50,-13,28,18,-75,-3,27,26,-33
1490653777085,-13,68,-64,12,-5,74,116,9,-9,-43,21,106,35,-31,-10,-75
1490653777125,-6,-12,-123,13,2,-49,59,-128,-7,61,-110,-49,-23,91,-50,34
1490653777165,29,7,-72,-111,18,39,111,60,14,56,127,19,-24,31,-102,-2
1490653777205,-47,-103,-22,84,112,52,40,26,-33,41,9,-13,13,-11,23,-19
1490653777246,40,127,80,-128,-54,-40,-3,-8,-5,-84,-91,83,92,-1,-74,-32
1490653777285,73,102,115,-97,-102,-44,-78,-35,-18,-60,-108,-75,41,-51,25,-25
1490653777325,5,48,-36,-7,-51,-110,12,70,3,21,127,22,46,84,60,26
1490653777365,-47,-5,-65,-55,-21,37,14,-64,-12,-49,-113,104,18,-28,63,77
1490653777405,-3,-82,-106,96,-107,-43,83,88,-37,-38,-127,-18,-76,-53,-128,-107
1490653777445,8,-48,-61,77,40,127,-9,43,-17,-100,115,-100,83,-110,-109,-78
1490653777487,74,3,-98,-73,122,-40,-8,31,120,85,102,-99,-5,127,60,22
1490653777525,-24,-10,-25,89,42,-90,39,-10,-10,12,-111,-37,-90,28,-23,50
1490653777565,18,60,2,-47,37,-12,-26,-17,3,52,2,-54,-6,8,68,27
1490653777605,22,52,-38,8,60,-56,-48,-49,105,127,-17,-87,115,123,-5,48
1490653777645,-30,-50,-128,-62,-128,56,-25,-57,-10,-38,127,96,124,100,79,35
1490653777685,-17,-18,49,-16,36,-76,-25,-7,-32,9,101,81,-128,22,54,82
1490653777725,34,-57,115,92,-6,70,-59,33,-27,-50,-99,21,42,-32,40,-48
1490653777765,25,55,-126,6,1,127,111,19,-37,66,-40,-53,-6,22,-46,46
1490653777805,-73,60,-17,40,-85,8,48,4,-14,-32,24,27,1,19,-6,5
1490653777845,29,55,65,-33,74,56,-21,18,4,30,22,-128,110,-50,-13,18
1490653777885,37,54,127,-118,60,-58,1,-6,114,75,127,-54,37,97,86,71
1490653777925,80,75,41,74,-45,30,5,31,-4,-128,-91,127,-7,10,-52,-20
1490653777965,-31,51,-4,-128,87,3,5,35,55,81,-56,-128,-34,-21,40,22
1490653778005,-51,49,58,-67,85,20,-3,64,35,-36,-128,-128,16,45,99,-6
1490653778045,-55,-123,91,46,-128,-97,18,-41,127,112,-20,105,127,89,53,-8
1490653778085,60,84,84,105,31,61,11,58,15,-79,-86,22,-69,24,-62,-35
1490653778125,6,-21,77,127,107,90,52,77,-29,-3,-66,-59,-35,0,-68,66
1490653778165,-128,-56,-9,-10,36,-50,-106,-54,-117,34,-46,-79,-42,2,-65,-88
1490653778205,123,43,-15,-38,-14,-1,90,10,81,-3,89,-97,-16,-6,7,-37
1490653778245,29,-47,-40,-1,-22,50,27,11,94,-62,-35,17,30,-42,28,-12
1490653778286,-72,26,93,21,23,-1,-6,-62,111,88,0,51,53,10,-50,5
1490653778325,-114,-12,65,41,89,45,-13,-4,-128,-120,-109,-100,-63,-79,-8,-13
1490653778365,-29,-11,-75,55,-28,61,-30,24,20,31,-14,64,18,46,102,64
1490653778405,3,-34,-48,9,7,-8,-13,124,-77,-11,48,-29,-128,43,31,127
1490653778445,-128,-106,45,-60,-36,-75,-49,15,14,49,-67,75,65,1,-32,42
1490653778485,96,-56,-92,-51,54,-4,62,66,56,-4,-40,-28,-11,-23,-5,-89
1490653778525,5,-83,-19,-53,-113,16,-47,78,107,8,-54,2,38,36,47,3
1490653778565,-13,-20,35,24,35,52,42,43,0,-95,-82,42,76,-59,-69,-69
1490653778605,-47,-8,96,-40,-57,-38,-46,-65,127,77,13,107,127,41,22,43
1490653778645,-117,-16,-71,127,55,29,26,-4,-105,30,127,61,43,-37,43,28
1490653778685,-38,12,-87,-114,-128,37,12,-51,-17,48,94,54,84,63,111,83
1490653778725,18,35,13,-24,0,-42,-63,-2,22,78,93,-128,17,18,23,-9
1490653778765,-11,26,50,15,-68,61,71,82,-16,-77,-69,-31,-97,-44,-29,-14
1490653778844,-52,-113,-81,118,-19,7,32,-30,13,-3,-8,-89,-128,-4,33,35
1490653778846,-21,-103,-84,58,-24,-8,-35,-27,-3,40,21,67,93,-65,11,16
1490653778886,10,-11,-34,-44,38,-33,11,5,2,-19,0,-31,-44,48,21,13
1490653778928,-3,-27,127,72,38,-65,10,-35,-101,-4,-116,9,1,10,13,71
1490653778965,60,13,-56,-116,53,-35,36,-1,44,-38,-58,41,-18,127,-2,40
1490653779005,19,79,107,-71,17,41,18,-51,4,10,3,-95,-100,-39,-12,-16
1490653779045,-70,-29,127,22,-36,-27,-63,-51,-18,98,-58,-32,28,-66,-33,-60
1490653779085,22,-6,-39,-49,-63,56,-72,38,-52,-47,-16,97,73,2,11,-64
1490653779125,-35,-32,43,33,-99,-69,9,59,-35,-61,-73,28,-128,55,19,24
1490653779165,48,73,71,-39,61,55,28,-8,-41,96,127,-42,-57,5,104,-64
1490653779205,1,4,47,-85,-19,31,-40,-54,-20,60,-14,-79,11,19,-37,-16
1490653779245,-37,-77,-28,54,34,49,-63,0,-6,-3,-128,-32,38,106,64,17
1490653779285,28,75,122,42,127,51,60,29,-47,-102,-128,120,47,-74,-56,-42
1490653779325,-3,14,-128,-40,3,26,84,-70,17,16,127,-58,-37,26,-46,10
1490653779405,13,-16,-70,-12,93,13,116,76,4,17,15,112,110,18,-82,-7
1490653779406,61,73,-63,-128,-128,-128,-128,-86,50,-16,109,85,124,-14,-49,-15
1490653779445,42,118,127,104,56,31,89,21,-19,42,-116,-128,-107,-54,25,58
1490653779485,6,-22,-55,42,40,-111,-29,3,24,76,66,46,-53,4,-55,42
1490653779525,6,-82,-45,-17,3,74,34,50,-56,-98,14,33,19,-92,1,-101
1490653779565,27,14,-127,-128,123,46,80,48,26,127,92,-128,-94,-66,-108,12
1490653779609,31,33,41,-18,-104,-52,-125,-3,64,105,63,-118,127,31,-42,-21
1490653779645,-35,-79,-85,-9,-92,51,9,-21,82,84,98,-96,72,127,126,79
1490653779686,-24,7,53,-92,-81,-128,-87,-37,78,64,4,96,94,116,79,67
1490653779725,-51,-119,-91,-29,-128,-78,-29,-5,-64,43,9,127,97,24,-1,-20
1490653779765,-46,127,27,127,-17,-20,-42,-33,-37,-76,-69,-99,-75,-112,-59,-29
1490653779806,2,-95,11,-96,-11,25,-19,-5,-6,4,-4,-43,55,-43,8,-10
1490653779845,98,115,67,-128,13,-4,-15,35,12,107,89,-128,43,46,-26,6
1490653779886,-16,-99,-26,52,-69,-76,-31,-27,-65,-41,79,120,33,7,2,-31
1490653779925,13,58,-2,-57,60,19,-17,23,61,-38,47,-120,-7,3,27,41
1490653779965,-29,38,7,-67,2,94,70,42,107,52,-35,-47,-13,-8,5,24
1490653780005,-93,-120,-128,-122,-128,2,9,-16,-30,-13,39,9,-46,-45,-22,-24
1490653780045,-2,-44,35,-73,-52,-17,-29,30,46,49,-13,115,29,35,-3,47
1490653780085,-34,-60,113,-102,-66,-23,-72,-10,-88,-21,-82,5,-120,-8,16,-80
1490653780125,-18,74,-7,36,75,49,-2,98,-80,5,127,-106,54,8,-22,56
1490653780204,72,-67,-18,-41,17,24,28,-7,80,127,0,60,69,50,10,66
1490653780206,81,5,11,-4,42,18,-5,-65,127,19,4,-24,-13,-48,-60,-54
1490653780246,62,11,11,-23,-4,-17,92,51,39,127,-42,38,67,56,34,32
1490653780285,-3,-96,-46,21,-9,-53,22,6,-62,18,-65,-48,4,11,11,-6
1490653780325,34,-14,-42,11,-91,-13,14,-105,-20,62,22,-23,65,21,35,-95
1490653780365,-15,-70,-41,-19,26,-31,-14,20,64,18,72,-56,-8,1,-16,-69
1490653780405,32,-35,-122,3,-22,22,40,5,-22,-31,94,-32,-42,0,-34,-7
1490653780445,-2,42,-37,-56,-102,-42,-47,72,-76,-3,-77,21,41,-4,97,108
1490653780485,-123,-19,-6,-18,96,52,51,122,86,110,-17,1,-57,-107,-35,75
1490653780525,-17,-9,10,-10,-10,-7,-2,-79,-66,13,-85,-90,31,-5,-19,-95
1490653780565,-48,-47,55,-83,-123,-83,17,-40,-62,9,-60,26,37,-43,19,-110
1490653780605,23,66,29,84,15,34,38,52,-57,-128,-89,-94,-104,20,-1,-21
1490653780646,-17,-31,-107,-128,-9,37,-76,-4,64,102,127,-86,90,-55,-38,7
1490653780685,-24,-72,-74,83,-128,13,-25,8,-24,-47,33,7,-5,-12,-18,-36
1490653780725,23,50,57,-13,-46,104,-12,37,-8,-47,-94,-24,91,67,85,29
1490653780765,2,-39,-49,14,-61,40,84,14,40,7,-12,-34,-28,-8,81,-12
1490653780805,25,47,85,-127,-57,79,74,-42,-51,-128,-82,55,58,59,-44,10
1490653780845,6,-31,29,116,-88,-24,-27,-28,21,98,-19,-59,-3,-36,20,13
1490653780886,14,17,41,4,47,-64,-40,18,42,74,43,-94,-80,25,34,45
1490653780926,51,41,83,-45,113,-84,-18,-91,-19,-48,-53,-3,-128,-37,27,82
1490653780965,29,63,-93,-128,-77,-69,-71,75,11,5,127,50,27,50,105,26
1490653781005,-15,-26,62,73,95,120,-58,0,-11,-48,-93,-31,7,-95,62,-6
1490653781045,19,-58,-54,22,-49,-53,-33,21,20,-84,-65,97,-19,-50,-110,-33
1490653781085,-19,-7,-85,33,54,77,-52,0,14,-12,80,63,-107,-6,57,7
1490653781125,-61,11,105,66,-67,-119,-69,-26,16,32,3,18,55,127,56,85
1490653781165,12,-26,-111,-76,-87,55,53,50,-14,-40,110,67,127,-99,-128,-51
1490653781205,6,96,62,-128,-84,-114,2,22,14,-38,-128,-54,-56,78,19,8
1490653781284,49,80,-8,-25,-23,-24,4,12,-69,-91,-112,-92,-98,30,-43,-85
1490653781286,35,96,127,-4,45,-6,90,-31,29,113,-128,-49,-100,-61,-95,-4
1490653781325,29,80,42,100,52,34,41,36,-40,-54,69,18,127,18,-5,-57
1490653781366,-41,-32,-92,-47,57,-23,-93,-76,23,-54,61,96,-43,-35,100,-1
1490653781405,-47,-5,7,-71,-83,126,-35,9,41,127,-45,-128,58,26,33,21
1490653781445,-108,-127,-128,78,-128,-52,-33,-36,-37,32,124,127,127,111,17,-2
1490653781485,115,115,116,-128,127,79,46,34,-68,-128,-114,119,-108,-28,39,-32
1490653781525,-26,-10,91,77,58,49,-69,-31,-9,102,119,-10,-7,-51,26,-31
1490653781565,48,78,80,35,-84,-64,-39,-19,26,77,57,-22,77,-27,-54,-55
1490653781605,-54,36,-32,-51,-128,-82,-1,-64,-67,-83,-93,83,72,87,-24,-32
1490653781645,-40,-87,-51,31,-65,-40,-6,3,-22,3,31,73,-27,-43,-52,-48
1490653781685,8,-68,-47,-29,-36,-36,-63,-54,23,12,29,-101,-92,-62,56,38
1490653781725,17,34,70,8,127,-1,-24,-21,57,46,-75,-65,-49,39,20,33
1490653781765,20,112,108,42,37,29,47,50,-59,-110,-86,97,-109,-83,-69,-49
1490653781805,-35,-47,-99,-119,-77,-112,27,5,-13,-38,96,-49,46,36,-40,29
1490653781845,3,22,4,-94,-11,56,26,43,-99,-122,-128,-128,-128,-57,26,-10
1490653781885,127,38,31,100,116,-4,-38,-12,121,5,-7,28,-11,32,66,-2
1490653781925,-102,-10,-43,-44,32,-26,-47,-35,65,89,127,127,108,44,-19,-14
1490653781966,-92,98,-76,27,-4,57,60,27,62,127,87,101,127,-73,-83,-36
1490653782005,69,90,-9,53,23,22,-38,61,25,-116,-128,54,-59,-62,-104,-95
1490653782045,17,98,-3,-1,127,39,0,-65,-10,-12,37,-124,-128,-42,58,-76
1490653782085,27,76,43,4,-12,22,11,53,-9,10,-54,-70,45,27,0,-7
1490653782125,8,-4,-15,-41,26,27,44,-27,-15,48,25,-19,9,-19,-12,-41
1490653782165,68,18,93,127,126,-15,17,-7,-8,-70,-94,-127,-128,-65,-17,12
1490653782205,-33,-39,-45,-17,15,70,47,27,-15,-28,-2,-1,-25,10,-7,2
1490653782245,79,-13,82,-71,-48,-60,2,-36,-56,-59,-77,-53,-2,44,0,10
1490653782285,127,-99,-72,-47,-27,-18,-47,19,127,-1,-14,16,52,21,4,-35
1490653782325,-35,27,104,35,-9,-21,30,97,-55,-6,-15,31,44,3,-30,-17
1490653782365,39,-13,-128,0,-26,-27,-17,-46,31,-28,-66,39,38,25,21,25
1490653782405,-22,-1,124,-38,49,34,-49,-67,-14,32,27,82,14,-31,0,-42
1490653782445,-79,-96,-37,-74,-48,-70,-6,72,7,84,-55,-10,66,87,-12,107
1490653782485,-35,-60,99,72,-101,-13,-52,-35,-44,-94,-78,-30,85,-128,-56,-56
1490653782525,-10,-46,-104,-34,82,90,35,55,-15,-42,-45,-68,-128,-50,-28,-44
1490653782565,-21,-10,21,-75,-2,32,80,19,0,8,12,-116,-108,-128,-106,-25
1490653782605,25,-37,-32,52,-77,19,22,-22,-32,4,-8,60,-49,-51,-82,-53
1490653782645,11,71,12,-118,97,-77,-29,35,5,-41,-103,-92,-42,93,-36,-49
1490653782685,-27,-15,60,-96,6,-96,-91,-45,11,80,-58,-80,45,88,106,57
1490653782726,-32,2,79,-106,-117,48,43,-5,14,99,-59,63,64,-62,-16,10
1490653782766,-9,-35,-128,11,-35,5,-52,-21,3,-18,38,-51,-40,-103,-90,-29
1490653782806,33,44,44,-4,9,90,-86,13,15,-27,-42,-54,-33,9,-107,-124
1490653782845,-55,23,-43,-32,107,-57,-36,-63,-31,14,114,-40,-90,-19,96,46
1490653782885,85,100,104,13,65,97,13,52,-21,20,-66,-90,-31,-25,-125,-41
1490653782925,-36,-38,-42,-70,-38,78,42,-53,45,56,-62,-21,-63,-39,41,-42
1490653782965,58,76,-8,-46,3,54,-39,30,-26,30,77,-106,-12,-44,28,-107
1490653783005,5,12,-53,-87,-105,-108,-40,-49,1,109,118,102,93,16,69,-1
1490653783045,-26,-104,-14,127,-114,-13,63,-43,-55,-128,63,92,23,12,20,67
1490653783085,-20,-62,9,-57,115,75,-70,-89,32,6,22,-95,-128,-83,-57,-4
1490653783164,0,73,127,-77,-128,-33,36,18,-3,-35,-101,125,80,12,-22,-27
1490653783165,40,57,-43,64,106,31,43,12,29,96,86,17,91,-60,102,35
1490653783205,-36,-37,-89,61,-72,-80,-15,-37,-29,-18,-59,-87,-53,-75,-8,-40
1490653783245,-104,-68,-89,99,106,15,-1,22,-65,111,127,-128,-90,-59,-72,-47
1490653783285,61,-47,62,-107,79,-10,-19,-70,-74,-30,-121,107,42,37,-128,-41
1490653783325,102,-36,-119,116,-34,-31,-13,-83,127,39,106,-50,65,73,-107,-93
1490653783365,2,-44,-71,64,91,125,94,83,52,1,96,18,-104,-51,-5,-22
1490653783405,110,104,87,-99,109,39,29,5,58,-35,-93,9,-36,-79,-50,28
1490653783446,-10,-105,-32,-67,-52,-24,-35,-36,37,47,-76,21,33,60,-17,60
1490653783485,-64,-96,-128,4,-54,-116,-82,-80,8,108,-56,51,116,118,24,-14
1490653783525,-42,-61,-55,65,35,-43,5,-79,-4,-41,25,-80,-31,63,32,17
1490653783565,0,96,91,-42,-58,5,-68,-31,9,-37,-20,98,125,75,87,54
1490653783605,50,116,119,-128,127,65,-7,25,-48,-126,-100,23,-128,-53,-63,-68
1490653783645,-100,-128,57,127,-49,-14,32,-32,51,83,95,-128,127,32,-57,9
1490653783686,-10,-70,-79,21,-26,-33,-17,23,16,-53,-75,-128,96,-30,-6,-15
1490653783725,56,106,-27,-28,127,-19,2,40,57,23,42,50,19,-59,-8,15
1490653783765,27,-109,7,-8,-103,-3,-49,-32,-108,-107,28,-52,-128,-53,-37,-78
1490653783805,-29,1,12,-93,40,-20,-38,-11,-2,-68,-128,-74,-115,-53,-46,-59
1490653783845,6,71,88,33,19,-29,-48,39,-3,-17,-74,-31,-38,-47,41,127
1490653783885,7,-18,-55,47,56,-9,12,75,80,127,-22,15,-2,55,46,123
1490653783925,14,52,-35,-20,35,42,-9,-107,23,-72,2,34,26,-13,50,-44
1490653783965,-66,-21,-6,-30,-24,25,18,-118,-22,47,0,6,9,-24,-90,-102
1490653784005,-45,5,29,1,-14,-35,-28,-111,116,8,-26,2,-19,-4,25,-124
1490653784045,-78,-24,53,28,22,-9,-10,127,-109,-35,-20,8,-52,-29,-16,127
1490653784085,-3,-7,3,4,-4,41,13,40,-3,-18,-25,-35,-2,-30,-48,16
1490653784125,-55,8,15,10,-37,-25,77,0,-75,9,31,-4,-10,-7,-24,41
1490653784165,39,-7,15,-1,5,5,2,88,-17,39,5,19,0,23,7,-52
1490653784205,-27,-37,-37,-33,-5,-42,-4,107,-9,-11,-34,32,37,31,11,1
1490653784245,-7,37,0,16,-16,28,-33,-94,83,80,-20,-2,55,22,44,-128
1490653784286,18,67,-128,29,-53,-54,-61,117,-28,99,65,-3,67,63,-21,121
1490653784326,-35,-32,-92,-43,-32,26,19,-31,-55,-23,61,28,29,-36,-13,-56
1490653784365,95,70,-2,63,45,1,45,-82,8,10,-110,87,76,37,52,-58
1490653784405,-75,-45,77,46,-84,-21,-34,76,-28,-100,-37,-128,-121,-23,-59,-24
1490653784445,-104,12,-59,48,83,34,68,36,-76,28,94,-106,1,-50,9,-8
1490653784485,60,-19,6,73,-3,82,32,-30,73,20,-84,-66,-7,-9,-26,37
1490653784526,13,44,-10,68,26,-57,-42,-46,18,7,-86,-110,-31,19,35,53
1490653784567,0,-4,26,26,-66,60,-20,-7,55,73,2,26,89,26,86,79
1490653784605,47,-1,-71,-38,86,7,-23,13,14,16,-12,26,-128,-62,79,-4
1490653784645,-31,17,112,-78,-51,-21,-110,-59,-46,-36,-109,42,59,81,-35,15
1490653784685,35,64,127,-106,-50,-104,31,57,32,42,-43,-103,-86,-50,26,17
1490653784725,-22,9,-40,69,88,42,76,-48,38,65,38,-57,87,18,-33,49
1490653784765,36,24,32,115,-22,-41,66,46,-9,34,127,1,70,-17,52,-54
1490653784805,30,21,105,-70,71,127,-14,-63,-13,-25,-33,57,89,-25,60,80
1490653784846,-23,28,127,86,70,-85,-79,-83,16,-7,-21,11,75,68,75,78
1490653784886,-1,17,-83,-99,-11,17,53,-11,22,57,127,-108,-108,-64,15,-100
1490653784925,-15,16,27,105,-78,16,-46,17,-18,-76,-77,127,28,-24,-119,-103
1490653784965,-58,-119,-110,60,72,-36,-51,-79,-55,46,-64,-11,-50,-33,-18,-97
1490653785005,35,84,-14,-100,-59,-26,-99,12,70,115,16,-128,127,127,103,101
1490653785045,19,36,64,-128,59,-71,-75,17,10,-7,-14,-106,-19,33,-9,-40
1490653785085,-36,-107,-101,22,-106,96,-107,-4,2,46,62,78,13,-38,116,41
1490653785125,30,40,-14,25,-77,-51,-122,-5,1,71,57,-109,-128,-60,-51,-128
1490653785165,-8,-37,61,13,44,91,-19,56,-87,-128,3,127,49,80,-58,7
1490653785205,-72,21,127,-58,-27,-78,-27,32,-47,-27,-128,-22,-73,-85,3,-39
1490653785245,-22,92,7,113,-101,38,30,-21,36,27,-35,-128,-104,-32,-23,-20
1490653785285,26,74,102,62,-92,66,105,-18,-17,-10,0,127,62,125,-58,-1
1490653785325,58,34,-15,-128,49,-23,-30,73,-57,-70,-83,86,-79,-44,-12,-16
1490653785365,-41,108,-49,-6,71,-20,120,41,99,76,127,-128,-3,-51,-34,77
1490653785405,28,-70,-128,-61,0,-34,-79,-25,122,88,101,109,-92,-59,-36,-61
1490653785446,36,60,127,-121,5,20,-29,46,73,19,-57,-112,6,12,41,-2
1490653785485,85,-18,113,-51,22,58,123,50,-95,-128,-128,127,-90,-59,91,-51
1490653785525,-30,17,-30,-4,33,-48,-46,-24,9,123,94,-126,44,39,35,28
1490653785565,-69,-128,-128,48,24,-5,1,-19,107,90,49,-83,79,9,28,65
1490653785605,-52,-70,3,-93,-94,-30,9,-16,-9,-16,-91,-22,-42,-34,-25,-19
1490653785646,-34,21,60,127,21,-24,-26,-17,27,23,-112,127,87,-21,-1,21
1490653785685,62,127,50,-47,118,15,-5,25,-11,-42,127,-128,-23,43,9,27
1490653785725,-18,-39,13,-123,-8,-3,4,-9,17,78,-17,-99,5,18,-24,-38
1490653785765,89,-11,-89,66,18,42,25,108,56,1,127,35,41,-55,-20,82
1490653785805,-16,105,95,67,-15,-45,1,-73,-9,-99,-128,-40,-37,25,33,9
1490653785846,-23,-73,-16,41,52,8,-25,127,-88,-97,-6,-85,-112,-55,4,109
1490653785885,-71,46,-39,11,-12,12,35,-46,-101,82,23,105,127,41,-31,-128
1490653785926,-13,-89,-13,-48,-128,-81,-19,-80,70,27,-18,-5,-22,-27,-24,-25
1490653785965,39,-118,-77,-119,-128,-39,5,77,45,40,-114,15,25,-37,-23,101
1490653786005,0,23,105,-47,21,11,-22,-84,9,36,-51,-33,-2,-7,13,-44
