1490653655278,-67,-73,-108,-52,44,-28,53,-23,-66,110,-28,-56,-21,51,20,-27
1490653655280,-17,-71,-32,-23,-40,-54,56,-15,-20,-34,-19,-31,51,91,63,22
1490653655288,-39,10,-11,43,82,34,-64,-17,14,69,57,58,-2,-43,-71,22
1490653655327,-93,34,16,14,15,-67,-19,-23,125,-29,-8,-2,-13,105,106,4
1490653655377,-12,38,24,-16,-128,-110,-24,8,-15,-8,-29,-40,20,74,-62,60
1490653655424,24,25,-1,-80,-106,82,-44,-64,-5,-15,26,27,25,39,-7,18
1490653655473,-6,-10,9,58,59,60,10,34,32,-7,19,-12,-18,-10,-35,34
1490653655522,35,3,-12,110,-65,38,73,4,45,-14,25,59,76,56,17,-15
1490653655570,32,0,0,-56,30,107,19,29,11,-4,-44,-81,-89,-50,12,-70
1490653655572,-14,6,-4,27,-1,43,12,30,-2,75,-17,-48,-75,-56,-16,-24
1490653655620,-37,-5,-26,-69,46,-38,41,2,-48,-56,-52,-43,-8,-44,62,24
1490653655668,36,-8,-28,2,52,-77,13,25,-3,-8,30,89,127,63,11,15
1490653655717,-50,-12,-35,-10,-128,-94,2,10,-5,-3,40,7,55,47,1,-9
1490653655765,35,-5,-67,53,-23,41,112,29,51,-14,58,69,28,18,4,-12
1490653655766,31,-4,-25,-15,-64,0,20,12,-4,-1,19,-83,-1,11,65,30
1490653655815,24,6,83,70,101,13,-111,10,-17,-6,-19,30,-104,-44,-110,-29
1490653655863,-79,-7,-63,-39,-66,-73,-107,-24,-38,10,-19,-14,-11,57,-34,-7
1490653655912,-58,18,3,15,73,58,61,38,-23,18,-32,8,26,-24,27,-5
1490653655960,34,-7,52,77,107,65,37,12,-26,-11,0,5,94,23,38,-12
1490653655962,59,3,-78,29,-4,105,12,-44,35,-5,-52,-101,-57,108,30,-91
1490653656010,31,-4,65,-21,22,93,41,25,50,-12,43,54,77,114,-85,39
1490653656058,60,2,61,13,-34,-58,48,16,40,0,-34,33,44,8,-31,-25
1490653656107,121,-14,-108,86,-82,35,-99,87,62,-4,-103,-28,-13,127,-40,100
1490653656155,90,11,116,53,-27,-29,-95,-46,-44,-11,127,-43,-37,-54,-32,-98
1490653656157,29,-8,66,-60,43,-68,39,20,-22,-14,-74,-10,76,-25,30,65
1490653656205,-12,1,-22,-48,-44,-75,39,-25,10,-29,-77,89,-85,-55,16,-61
1490653656253,62,5,-128,40,80,9,42,37,127,3,26,17,37,-41,53,1
1490653656302,-128,4,33,-77,48,46,18,27,22,-20,20,-35,-6,44,-15,7
1490653656351,-69,-10,-2,34,-5,-12,-41,39,-10,26,74,23,-16,-20,-57,14
1490653656400,49,7,-16,-16,5,-5,8,3,26,-6,-38,39,50,14,12,-25
1490653656448,21,8,-37,5,-9,1,-34,30,61,-6,-52,9,13,18,0,40
1490653656449,77,-16,18,2,8,0,5,-32,36,-13,13,25,31,18,108,5
1490653656497,-101,-8,16,-22,-2,0,-30,22,-120,-3,97,23,-5,3,-3,25
1490653656546,-30,1,-5,27,19,-8,4,-6,-86,10,17,18,45,67,5,-26
1490653656595,-104,-1,-35,-2,-20,-14,14,-8,-21,14,-27,-25,-35,-24,-33,-21
1490653656643,35,-25,-6,-6,-28,14,-18,-12,-58,-5,-20,-49,-76,-28,57,-8
1490653656645,23,19,2,8,-58,-3,-2,-15,93,-5,19,4,25,-71,-69,-8
1490653656692,-29,-20,5,33,2,-24,41,-6,-4,-1,46,37,5,6,-3,-7
1490653656741,-91,-6,24,21,-2,-106,-61,-52,7,-11,-20,-42,-37,-53,-66,-49
1490653656789,127,-2,33,-63,-49,-111,-44,78,-98,0,-68,8,22,-5,-25,-57
1490653656838,-7,-3,35,19,50,126,113,18,-73,5,-4,34,27,-71,-108,-41
1490653656839,-34,-9,18,-10,6,-91,-56,-46,-40,-21,17,2,51,77,42,3
1490653656887,-27,20,-14,28,38,37,64,22,18,12,25,46,61,8,-43,38
1490653656936,-46,-21,-13,85,94,-22,-73,-91,12,22,-33,-15,-21,-45,28,18
1490653656985,-3,0,98,-44,-61,-78,-88,-58,56,28,65,28,127,40,-55,43
1490653657033,71,7,-78,2,97,-74,-93,27,41,-16,8,-50,-114,-110,-83,-115
1490653657082,-60,-1,-6,2,-67,5,16,-61,58,8,56,54,28,53,84,76
1490653657130,43,-2,29,4,-43,-128,-95,-105,2,-16,-6,91,23,127,87,74
1490653657132,-33,0,53,-73,-35,-19,40,-10,78,27,-9,-12,0,-30,7,7
1490653657180,13,43,-23,26,49,50,83,32,-91,46,23,80,-114,-1,-52,-27
1490653657228,-21,104,4,-128,-48,-84,-53,-51,-21,27,36,-50,70,34,52,3
1490653657277,83,-122,-35,-42,67,30,48,-22,98,-25,-54,13,-92,-54,31,40
1490653657325,5,20,-19,-45,-104,35,88,-12,71,34,10,-107,-5,-15,20,11
1490653657326,48,-5,7,32,-38,1,-41,-32,-50,-76,-29,10,-43,-54,-78,-53
1490653657374,94,-3,-24,-82,4,29,69,49,-45,-1,2,-45,2,-2,-102,-48
1490653657423,-99,19,-19,26,52,-12,-37,-30,22,16,-4,-26,28,14,44,58
1490653657472,-52,24,-30,-28,-83,9,70,21,-1,117,1,-29,-34,-22,24,-2
1490653657520,-21,-39,62,-19,31,-18,-23,13,-120,-46,14,85,10,-3,-34,-25
1490653657522,-100,-86,-24,-20,13,33,63,-18,53,7,20,9,-26,-27,-6,-18
1490653657570,78,-15,-4,-13,19,43,12,34,-101,-12,4,11,-15,-24,-65,-31
1490653657620,-60,-51,17,37,-18,-9,-19,-31,19,2,4,48,120,89,40,68
1490653657667,-107,56,-11,-22,90,78,62,44,20,-51,-23,3,-128,-97,38,-52
1490653657716,-6,-31,11,-47,117,127,-14,-7,-124,51,-20,28,-109,-110,-128,-115
1490653657764,63,66,42,15,80,111,-12,46,33,14,-4,0,127,-81,16,32
1490653657813,-6,14,27,-14,34,51,-94,-81,22,-12,28,-4,93,58,127,60
1490653657814,-4,127,10,55,-49,69,32,42,-2,65,-3,1,36,73,103,34
1490653657862,127,-128,-25,-14,-38,-128,-89,41,-69,9,5,-97,-56,63,-31,-41
1490653657912,-49,77,17,-52,20,67,59,40,47,-71,29,34,-20,-118,-46,53
1490653657960,-105,64,5,11,-103,106,103,9,94,18,22,63,97,96,50,44
1490653658008,-21,-90,11,7,-75,-128,-115,-101,-25,-64,-40,-60,95,52,91,44
1490653658009,-74,-77,-27,-34,-124,81,127,127,7,-45,15,4,113,11,18,-128
1490653658057,34,19,-12,21,127,71,3,99,-124,39,-21,-7,-128,-128,3,30
1490653658106,121,21,-23,4,-20,-1,16,85,-63,26,60,20,62,-55,0,36
1490653658155,-98,-5,-66,-128,-78,49,44,-83,32,-30,51,-21,56,-43,-50,15
1490653658203,65,-13,-36,8,66,-28,-57,-122,-12,8,7,-11,-97,119,127,95
1490653658205,44,-10,20,43,121,-24,23,-66,40,17,-25,-45,-18,-56,-116,-79
1490653658252,31,-16,19,46,2,127,127,112,-128,-11,-14,-22,-41,2,-82,-38
1490653658301,-128,0,-10,40,38,45,-26,-35,8,-5,15,58,-2,-35,-3,14
1490653658350,-82,-4,-26,-68,-22,-112,-46,15,-17,22,-61,-28,71,-15,3,-42
1490653658399,-61,-10,3,-6,33,-26,-73,-72,72,-11,4,60,32,94,84,120
1490653658447,56,7,1,-115,-27,38,71,7,1,4,33,54,77,-36,20,19
1490653658495,68,-8,-42,-89,-112,-88,-30,-51,-69,1,11,40,-53,-6,-96,-61
1490653658497,-4,-6,-24,-77,-89,-82,-67,-9,-40,7,16,-23,11,-58,-16,0
1490653658545,-65,-1,15,-47,64,52,-24,-4,36,-9,17,75,84,62,21,20
1490653658595,18,-4,-60,-72,-35,7,14,8,21,-7,-6,64,32,9,-36,-38
1490653658642,-32,8,-10,-85,-51,59,43,0,62,-8,12,74,16,62,47,9
1490653658690,51,1,83,-47,-112,-61,-31,-35,-78,0,5,29,-2,0,11,3
1490653658691,7,-13,8,57,103,127,50,24,-42,1,20,-30,-97,-39,-25,-43
1490653658739,-33,0,-22,25,-59,-12,36,20,-10,-10,-25,44,-47,-24,1,-1
1490653658789,103,1,112,-30,-22,10,12,37,-8,1,-32,60,6,-17,-14,1
1490653658838,16,-4,39,-44,-69,-14,1,-6,16,1,1,63,52,48,38,37
1490653658885,9,3,-21,-3,22,3,-9,7,7,9,0,44,3,-1,7,-10
1490653658887,10,-14,-57,29,20,26,6,5,44,1,-66,-30,16,75,3,10
1490653658935,21,5,-7,13,51,-10,40,-9,14,-5,-27,26,-30,-39,18,-33
1490653658984,46,-8,61,-44,46,127,-71,-6,47,8,66,-12,27,117,-45,10
1490653659033,-93,-10,4,54,0,25,24,4,-22,-5,-43,27,32,-23,37,-13
1490653659082,35,-6,-20,50,58,-41,28,6,47,-7,-17,58,90,-13,40,30
1490653659178,-4,2,-29,-93,-61,-88,25,-8,-39,1,96,66,-63,-57,-75,-45
1490653659180,-17,5,-21,18,-43,-15,-103,18,6,-3,-91,5,-4,25,-92,13
1490653659181,54,-7,-7,-44,-25,-8,44,34,-127,4,8,0,60,31,71,10
1490653659228,-34,-6,-4,39,-19,26,47,-24,-81,-1,67,29,8,45,51,10
1490653659276,-74,-7,-64,-10,3,33,55,7,2,7,-5,2,-1,-18,-8,-21
1490653659324,45,1,20,38,14,11,-7,-4,-88,-2,-44,-53,-20,1,-23,-33
1490653659373,-6,10,7,-41,-29,-14,-38,-24,-46,-1,-105,-37,-23,-32,9,-10
1490653659375,-14,3,20,30,-23,22,-59,-15,-58,-5,23,15,-5,10,-35,-30
1490653659422,127,-2,34,26,40,25,-8,36,-66,5,-23,7,85,75,105,-1
1490653659471,11,0,1,-20,-103,-23,43,17,-16,-4,-25,-48,-62,-22,-37,-54
1490653659520,-70,-7,-49,-19,-3,0,97,21,-79,0,31,43,60,43,-4,-17
1490653659569,-50,0,8,56,56,55,17,-53,11,5,-39,-7,-54,-85,-41,22
1490653659617,22,0,-42,-38,-26,63,-9,56,-70,-6,13,2,57,-34,-47,-49
1490653659665,-21,-2,12,21,14,24,114,30,-103,-8,1,-19,22,79,-7,21
1490653659666,19,-7,-1,41,17,24,40,28,-32,0,-38,-66,-60,-87,-59,-95
1490653659715,22,-3,92,28,-5,60,82,42,-21,-2,0,55,121,69,10,30
1490653659764,-4,-7,-37,-21,5,64,9,8,-6,6,28,26,29,40,-7,-18
1490653659815,36,-4,-26,-22,-8,-52,-125,-102,14,4,61,58,70,49,9,33
1490653659862,-66,-8,-38,-94,-73,-121,-100,-20,127,-5,-3,-30,-43,24,48,12
1490653659864,43,-5,-11,-5,-29,-85,-53,-2,-7,9,-3,26,-4,74,73,-2
1490653659911,-106,3,-40,-15,9,9,26,-30,0,7,-13,-48,-128,-108,7,-11
1490653659960,23,5,23,31,-106,33,-10,10,-46,0,-16,16,93,45,8,-55
1490653660008,-128,-74,2,-10,-59,-90,-15,78,84,21,104,9,-49,40,-40,-57
1490653660055,-73,111,3,51,27,58,32,-1,-25,41,-14,3,-26,3,80,47
1490653660056,-19,127,73,-22,82,-5,-95,-26,-22,127,-7,13,44,-67,16,-5
1490653660104,-42,127,-29,73,-123,-68,-11,6,1,63,-23,67,-5,46,-37,25
1490653660153,-78,4,0,0,90,44,-6,-24,43,-9,87,-35,-38,-7,35,1
1490653660203,48,6,-35,-1,-7,-12,38,11,-11,-8,-2,109,30,-8,-77,-49
1490653660251,56,15,-39,-26,11,-49,-69,0,-128,25,54,-59,16,-2,-50,-40
1490653660257,-6,8,-3,57,67,35,-20,-10,1,7,-37,-9,-43,-19,-75,-65
1490653660348,120,-71,30,-31,-37,-42,-31,-10,-126,4,-14,-29,28,-13,-50,-77
1490653660350,-50,-59,-3,0,28,21,-35,8,47,-96,30,76,116,48,62,21
1490653660397,36,6,3,43,80,69,93,44,-88,73,-18,-13,-80,7,-10,-10
1490653660446,-60,-2,-6,-24,-64,-19,-51,-26,29,37,-14,0,-15,-22,-16,9
1490653660495,-9,-92,0,-39,-30,9,-30,-11,-128,-68,-1,12,47,29,-21,-14
1490653660593,9,34,10,35,-5,52,70,-32,-91,10,-16,2,-21,-22,-49,-57
1490653660641,-21,-8,-18,-5,-53,90,-29,-23,115,7,8,-23,-29,18,-3,24
1490653660643,-23,-36,-19,21,68,-50,-81,-86,-21,-45,4,-13,-44,11,83,38
1490653660645,57,0,-33,-47,-108,-36,-10,0,83,-26,32,9,-12,111,127,46
1490653660689,-27,-4,3,-27,-91,-28,94,99,106,119,-29,-89,-128,-60,83,-8
1490653660738,-80,-10,-8,-52,16,-7,-88,-63,-4,-70,8,-95,84,42,47,27
1490653660739,-69,4,-15,-8,114,39,44,0,86,119,30,60,91,127,57,68
1490653660787,-98,64,-21,5,29,2,-85,-44,20,15,18,24,-36,118,20,-40
1490653660836,34,61,28,81,-110,118,96,48,-28,-32,2,-43,22,-128,-116,-60
1490653660884,127,46,1,-56,93,-106,-100,63,-46,84,-2,93,-99,86,4,-78
1490653660933,-128,84,-1,-35,-70,57,66,-58,18,110,8,-44,117,-11,-59,-19
1490653660934,26,-40,16,-62,6,56,40,-55,-106,-74,-5,-72,-127,-1,45,47
1490653660982,7,24,22,13,127,94,87,1,127,-87,-8,-30,-115,10,28,3
1490653661031,119,-11,-64,-42,-128,90,82,57,-59,40,27,73,84,75,27,73
1490653661083,66,27,21,-51,32,57,99,77,-17,-29,-35,-72,62,-83,-76,57
1490653661129,111,-11,0,-18,-125,-128,-87,-118,-53,-2,-35,13,38,127,7,-22
1490653661177,-56,-4,2,4,-128,-126,38,56,-72,-7,26,-43,-128,101,122,125
1490653661225,-46,-23,-14,-9,85,-9,-44,-128,-89,-1,8,75,127,18,5,79
1490653661226,73,-6,0,53,46,47,48,47,95,5,13,-13,-66,11,115,74
1490653661275,-3,7,-109,-124,-88,-128,24,-53,34,6,3,29,39,106,-2,48
1490653661323,48,-15,-2,22,96,90,53,7,-104,-7,-66,12,25,-47,-78,-93
1490653661372,87,-15,72,18,122,114,24,44,-11,5,-31,78,-128,-107,-95,-37
1490653661421,-70,3,-14,70,-54,-99,32,52,90,1,0,-57,78,127,88,-30
1490653661424,-8,6,-52,-122,-105,-99,-45,-75,0,6,-26,40,31,-7,6,29
1490653661470,40,-14,45,39,-47,59,22,40,-39,-1,50,49,63,46,47,-59
1490653661518,38,-8,-7,-34,-45,-64,3,17,-69,9,-27,-65,-44,-57,-45,-72
1490653661567,43,9,54,53,127,113,98,64,50,0,-11,53,127,56,2,-8
1490653661616,-11,-4,87,113,-100,-10,35,9,2,4,-36,-8,-4,-4,14,15
1490653661618,-38,-7,5,-58,62,3,-22,-7,-8,-4,54,33,56,52,14,-2
1490653661666,-28,-1,0,127,-1,62,69,22,43,-7,40,-79,-78,-76,-33,-7
1490653661713,20,7,-13,-12,16,13,18,-3,-2,-11,-32,52,-8,0,1,-18
1490653661762,8,2,71,-73,23,30,7,1,16,-2,-33,-37,44,-18,27,18
1490653661811,-68,-2,16,127,123,41,23,-10,4,-8,7,46,-128,-61,-37,-12
1490653661812,-67,-5,26,-6,-63,-32,-3,-1,45,11,-11,26,-53,-23,-2,15
1490653661908,59,-6,-71,-92,-86,-63,-11,12,-19,1,66,47,5,13,1,-8
1490653661910,15,3,-15,-2,-91,-1,1,0,-17,-7,13,-54,25,-8,-11,-2
1490653661957,73,-3,32,91,96,40,20,25,-60,-4,34,45,58,62,21,13
1490653662006,120,-4,-2,-23,-32,69,-32,2,22,-2,-80,50,6,79,-14,-2
1490653662054,-116,1,-26,-79,-10,24,-3,-20,-58,-5,4,10,-68,52,11,8
1490653662103,75,-3,49,101,68,-76,81,20,0,0,-29,54,-54,-128,52,-8
1490653662104,22,5,8,55,52,-12,9,34,-38,4,-13,-37,34,-15,-6,-5
1490653662152,-30,-12,108,106,51,6,0,-2,44,-4,-42,75,-12,8,53,6
1490653662201,-46,2,-116,-16,2,-6,-110,-24,-23,-3,-53,29,11,14,-72,12
1490653662250,-19,0,-25,-1,7,-11,38,28,18,-2,87,-2,-26,-4,13,-15
1490653662298,9,-2,-13,34,19,13,-6,-4,71,-2,9,-28,0,8,-5,-8
1490653662299,101,-3,-28,8,-7,6,8,-7,23,1,22,-17,-7,17,40,26
1490653662347,-121,4,-53,5,22,10,-20,3,23,0,-34,-17,-32,-21,-32,-30
1490653662396,-30,2,83,41,30,29,18,12,-35,6,-5,18,9,29,45,33
1490653662444,-1,-3,14,-9,-30,13,-6,-15,-51,-7,11,-18,47,-17,-11,-30
1490653662493,54,4,33,-15,-70,-26,-12,-1,-128,5,-26,-15,-33,-49,-2,-11
1490653662494,-17,7,-59,37,127,127,37,8,51,-6,49,39,-78,28,82,52
1490653662542,90,-2,41,36,-2,53,59,23,74,-1,-15,-21,77,-73,-78,-64
1490653662591,77,8,8,-42,-47,-44,-46,-25,-101,7,-62,-72,46,-62,-32,-32
1490653662640,99,2,15,45,-50,22,4,-24,-122,5,-25,-51,-97,-45,11,-6
1490653662690,-8,13,1,-14,18,9,55,41,-4,7,-16,-33,-70,36,27,-3
1490653662737,-83,1,-17,83,90,61,18,-11,48,-10,31,9,-97,-20,-19,-37
1490653662785,-57,-11,-25,-15,-52,54,-45,-57,12,7,-52,-54,-96,-54,37,29
1490653662834,82,-9,-9,31,-6,66,90,35,3,5,-1,20,127,75,-33,-19
1490653662883,-101,-2,-81,-26,-128,29,64,3,68,-5,63,43,-1,29,-58,-1
1490653662884,-112,-4,1,24,-44,-67,-73,-67,78,-3,-16,3,74,39,-28,-1
1490653662932,-22,-7,5,-24,62,33,4,-34,-72,-17,-7,14,-32,-53,-83,-4
1490653662980,-128,1,-67,-69,-50,-77,-61,2,7,19,-47,13,22,70,73,-25
1490653662982,-114,11,9,-30,-4,-89,-103,-95,-50,10,-21,-72,-87,-15,51,19
1490653663030,82,-3,-4,18,76,25,-21,33,-54,2,17,-35,-128,91,-8,-51
1490653663079,95,11,-2,-17,127,12,25,-66,-46,40,61,98,-35,-66,-92,7
1490653663128,-9,-10,40,43,-128,-9,-23,49,5,5,19,15,35,122,115,44
1490653663202,34,-42,-37,41,-92,-44,14,-53,94,-1,27,-27,-84,-29,-55,5
1490653663204,-61,-82,15,94,99,2,19,31,51,-96,-18,-52,-61,-91,-39,5
1490653663224,69,40,18,-17,-66,-1,51,28,-38,10,-21,-20,65,46,41,25
1490653663273,-43,-73,5,-19,-51,37,23,20,-110,39,28,7,54,13,-53,-50
1490653663322,10,38,17,52,25,58,70,35,-26,37,34,96,20,50,-52,12
1490653663371,-66,7,0,6,17,-21,-38,-69,2,-14,-1,-5,-47,-49,-6,-24
1490653663420,87,-35,-20,-54,-90,-44,-11,12,-16,-77,-4,7,72,16,-18,-3
1490653663468,38,56,-2,28,19,-10,24,-17,-36,19,-14,13,49,25,-7,-15
1490653663471,33,68,-19,-18,-20,-36,-67,-40,41,19,-13,-17,-1,10,46,7
1490653663517,-116,-31,-36,-76,-38,-1,63,-43,-74,2,0,-41,-27,-60,-6,-7
1490653663566,10,61,20,63,23,-56,-99,-54,-61,48,-14,17,-68,-87,-58,-20
1490653663615,-128,-21,-1,-18,-39,16,10,18,127,-60,-25,-8,27,-16,-67,-44
1490653663663,92,-29,-49,-84,-21,47,-39,-28,-5,2,51,0,-35,31,48,41
1490653663664,113,-43,-3,-20,-12,1,104,84,-70,10,34,44,12,-113,-128,-35
1490653663712,-34,84,16,94,127,-4,4,-22,-75,65,-33,-45,-75,-81,-44,-52
1490653663761,127,-14,59,22,60,94,33,97,0,66,53,101,57,127,66,-18
1490653663810,108,1,-38,-46,-49,-77,36,8,-112,18,-10,-119,-114,-128,-128,-106
1490653663858,41,-36,25,42,-22,-49,-33,45,56,32,17,54,-128,-128,-128,-73
1490653663860,-15,64,-3,-60,-66,36,-74,-38,-3,-89,-39,-37,116,64,72,85
1490653663907,102,1,17,4,105,-65,-44,-5,33,-20,-31,5,-67,-52,-61,-48
1490653664005,-91,-87,1,102,127,-56,-99,-102,44,81,27,85,-80,38,87,32
1490653664054,-128,-42,-25,-3,41,-87,-37,-128,-39,110,30,15,-60,66,16,19
1490653664103,63,49,-22,23,-103,127,67,77,28,-31,6,15,-78,-109,-62,-27
1490653664150,-127,40,-28,-36,-47,74,50,28,92,-10,7,51,90,127,10,-9
1490653664151,-27,-3,-32,0,-128,-123,-18,-47,7,17,-30,-29,42,121,31,-40
1490653664153,-125,-7,-31,-10,127,-55,-63,-10,105,11,22,88,77,81,73,46
1490653664200,-121,-3,20,-47,-94,-98,-33,-77,6,-11,-12,-16,-52,89,-19,71
1490653664249,108,-6,-36,-35,72,97,105,81,105,-2,30,72,-118,-24,-52,42
1490653664298,44,11,2,33,127,127,127,-61,-64,-1,-38,-40,-111,-128,-128,-89
1490653664346,-56,-4,-30,-2,-50,-48,-1,3,52,-22,58,58,-39,-69,61,-44
1490653664350,27,-9,7,-37,-39,-114,36,-121,49,2,-15,-10,-31,127,118,101
1490653664395,-78,1,-19,-64,-51,-128,-128,-108,-60,-1,32,65,69,72,-55,-27
1490653664444,41,-1,9,27,-101,-86,-110,-111,-23,-8,14,12,28,85,82,-73
1490653664492,-25,5,-2,13,71,109,-22,127,-12,-1,-31,33,11,-128,-128,-108
1490653664540,100,11,-27,4,-2,127,114,127,31,0,5,47,25,65,57,18
1490653664542,-27,3,-45,-128,-91,-46,-12,34,20,-8,59,47,0,-11,-31,-71
1490653664589,28,-8,-13,-6,28,-40,-23,-46,-52,2,18,-46,-128,-87,-110,-6
1490653664638,53,-1,53,4,-36,15,-10,46,-18,-4,-7,26,-74,22,30,-19
1490653664735,-31,-7,54,127,100,65,124,26,17,-5,-17,-90,-65,-47,-48,-27
1490653664737,23,15,-21,-89,86,-76,-70,42,-8,1,4,-29,122,86,76,8
1490653664785,43,-1,59,127,37,127,61,56,16,-11,52,32,-57,-24,27,17
1490653664833,-60,0,-41,-96,-41,-70,-17,2,-28,0,38,1,17,-28,-47,-20
1490653664834,-5,1,78,96,-100,6,13,1,-29,8,-77,15,-32,13,12,0
1490653664882,68,-8,74,83,-12,68,28,7,11,10,17,111,120,16,54,40
1490653664931,20,7,-17,-113,-121,-12,8,20,37,-8,41,67,110,31,-23,12
1490653664979,-43,-5,-4,49,-39,-47,-40,-25,-50,2,-23,-7,-8,3,10,4
1490653665029,57,4,16,-68,-32,8,-9,1,-63,0,95,47,-8,-21,-22,-28
1490653665031,-84,-1,-4,7,32,-17,-5,3,-12,0,-75,39,-4,-23,2,-13
1490653665078,-117,-2,60,53,-4,39,9,3,-125,1,-72,40,112,57,40,-3
1490653665127,-68,-5,22,20,57,-5,22,4,-54,-7,-41,-19,-49,-48,-35,-19
1490653665175,66,-4,-96,-57,-6,19,-11,-3,-6,4,12,-17,25,55,-9,-14
1490653665224,-21,3,56,-6,13,-35,-3,3,-61,-1,-47,-59,-5,-16,12,-6
1490653665226,-5,-1,-52,-37,29,31,-13,-5,16,5,115,80,-17,3,-12,-1
1490653665273,94,1,6,-10,37,-34,26,34,83,1,-44,-59,-16,-14,-7,24
1490653665321,16,9,-35,-13,-49,-24,-13,-30,-92,-2,-59,5,-4,19,8,-3
1490653665370,34,-1,-1,30,27,16,17,13,40,-1,-6,14,7,44,-16,-20
1490653665419,7,-2,56,-9,-69,-34,-18,-16,61,3,-14,90,-2,-6,22,4
1490653665467,99,-6,18,80,2,10,-12,-7,69,-12,-59,-8,2,3,-13,-2
1490653665517,61,-2,-43,-42,-6,0,6,7,-23,0,-64,-25,-23,-7,-5,-22
1490653665518,-107,2,-9,25,9,20,15,0,18,-2,98,-15,-11,3,6,9
1490653665565,-47,2,59,35,28,13,-1,6,-71,0,-75,35,10,2,-10,-19
1490653665614,-70,-1,-80,-30,6,-3,-29,29,70,0,33,10,81,38,9,12
1490653665662,57,-9,28,2,3,10,40,32,-49,-6,-36,-22,-4,10,-22,-14
1490653665710,41,-1,49,-31,-11,0,-31,-29,-43,2,-23,36,65,63,49,24
1490653665712,66,4,29,66,39,108,32,22,-34,-5,-69,-106,-93,-78,-45,-31
1490653665760,-95,-14,-11,-87,-37,-84,-67,-85,-15,4,-14,-32,5,-26,22,15
1490653665808,24,-3,-11,-41,-22,-14,-4,-18,-25,-13,-15,19,67,-55,49,52
1490653665857,-87,10,39,87,71,-4,-2,-1,84,-3,31,-7,47,29,6,-14
1490653665905,-63,0,9,-20,-39,-78,-72,-61,69,-5,-5,-2,-80,49,69,72
1490653665907,66,9,23,77,104,89,74,74,-3,15,-32,-53,-105,30,-14,-87
1490653665955,-83,-7,1,-13,-3,-8,10,37,6,-7,-41,-34,-48,-108,-23,-33
1490653666003,-19,3,40,-49,-101,-32,5,-6,-93,-3,3,36,127,127,123,21
1490653666053,20,4,-72,-38,-82,-112,-106,8,127,4,2,2,-27,113,50,-18
1490653666101,114,-14,14,70,127,-58,-41,-27,79,-3,-33,-9,-68,22,84,77
1490653666150,104,-3,26,21,-6,-2,65,18,-28,7,-20,35,126,80,-56,10
1490653666198,67,-6,1,87,127,93,-36,30,-56,-6,44,25,-81,-39,62,83
1490653666199,-123,-4,-23,-7,70,45,-31,-3,-50,11,1,-8,-86,-77,19,-75
1490653666251,-99,-3,17,3,76,58,127,-13,-40,6,-20,50,-65,44,-128,-3
1490653666296,-14,16,-3,-6,31,-117,-24,13,30,-37,34,84,87,77,36,28
1490653666393,84,41,3,-32,-128,-102,-101,15,-38,7,24,-53,54,-34,-62,-63
1490653666394,-53,-31,30,-87,-35,8,23,-56,73,62,-39,-81,-50,-38,117,82
1490653666396,-128,-128,-35,-70,25,25,13,-13,127,-68,4,19,56,25,2,61
1490653666442,-53,-10,43,116,44,39,54,-4,33,-29,-47,64,-63,0,-46,24
1490653666491,-58,-91,-34,-21,-35,76,13,-6,53,-63,-1,-60,-5,30,19,1
1490653666540,69,1,7,-5,-24,26,103,53,-74,66,38,21,-26,32,5,4
1490653666588,53,-85,-16,-25,42,7,35,13,-123,-19,-18,6,-29,-58,-59,-47
1490653666589,86,101,12,18,12,47,46,9,-61,67,3,-23,10,41,-101,-7
1490653666637,20,-49,-5,-69,-77,-47,-59,-24,-80,-128,-28,-41,9,-44,-21,-35
1490653666686,-128,27,11,49,6,-6,-4,35,104,81,-10,-40,51,52,28,14
1490653666735,-11,72,-7,21,11,17,-25,7,90,-8,-12,-16,18,13,13,12
1490653666785,12,-14,-17,4,-87,-28,-36,-27,-128,-69,-12,-15,37,-10,-23,-22
1490653666832,-73,-27,-21,0,-11,-55,38,-21,-69,-26,-2,25,45,29,-28,-19
1490653666880,-54,3,14,77,103,78,44,21,127,-18,20,-16,-93,-44,56,16
1490653666881,106,-87,-1,-6,-4,82,115,38,-9,111,20,21,84,26,-80,-63
1490653666929,39,114,29,48,30,-52,-3,23,-69,50,1,23,-35,103,101,81
1490653666978,-53,8,47,82,18,16,-128,36,-4,-36,-36,13,-27,-39,21,36
1490653667029,-12,9,-42,9,38,41,-63,-48,127,-73,88,93,68,68,64,77
1490653667078,-92,1,-31,-107,-108,-127,7,-26,0,-128,-36,-122,19,-110,-115,-76
1490653667080,-128,30,24,67,-2,78,126,91,-6,55,-31,57,78,59,-84,-94
1490653667126,50,124,31,38,10,3,22,-24,-23,102,-2,83,-46,25,72,-15
1490653667174,22,-57,4,-39,-28,76,96,20,-46,-95,1,59,48,-108,-127,-18
1490653667222,-74,11,-68,-118,-128,-114,-40,-73,48,19,35,-104,54,127,-22,-9
1490653667270,88,-61,52,-41,5,-82,15,96,-76,22,-6,44,64,58,60,-61
1490653667271,-70,44,5,82,58,20,81,-21,-57,-2,2,-120,-109,-76,-81,-71
1490653667320,127,6,12,-43,-11,83,65,127,32,1,-8,-65,54,-58,7,6
1490653667369,1,6,-57,-16,-128,-118,-75,9,-67,8,48,-39,35,123,-72,-24
1490653667417,-12,-3,7,118,123,119,-48,-84,104,-24,-3,99,31,44,45,-4
1490653667465,-128,-6,-13,89,-128,-103,9,17,-52,-2,-88,-70,-78,-34,127,121
1490653667467,119,22,11,2,28,105,47,20,-68,21,-49,-43,13,-59,-72,-2
1490653667515,-44,-21,-96,-128,34,26,32,-70,78,-9,78,83,29,94,8,125
1490653667563,72,-11,18,-21,103,127,118,3,46,7,7,57,-6,-23,-41,-68
1490653667612,-27,20,23,11,-6,110,62,-2,38,13,23,71,31,-106,45,35
1490653667661,-128,-5,-54,-84,-94,31,-61,-53,58,-5,17,73,50,79,42,4
1490653667759,-12,0,21,112,32,56,101,42,39,-2,-5,58,10,51,28,-33
1490653667761,56,-23,22,-104,-56,-19,9,-24,-12,3,-1,-24,-70,75,64,8
1490653667764,-12,-7,-29,39,59,49,5,22,-31,-2,18,7,-13,-57,-23,63
1490653667807,33,2,-41,-67,41,-128,-128,-12,38,-8,24,54,-109,-94,-90,-81
1490653667856,67,2,26,81,19,80,62,17,-120,-1,-4,-110,-86,24,-49,-30
1490653667905,-47,-4,-21,1,-114,59,39,57,47,0,8,78,-6,-55,-42,-74
1490653667953,11,1,71,37,65,79,113,75,-60,8,4,-11,-113,-109,-113,47
1490653667954,-23,-6,-27,-86,-74,-99,-24,-42,12,2,-2,10,30,62,-28,-75
1490653668002,-32,-1,25,11,-97,-92,-22,-128,10,-7,-29,25,-8,-128,-7,55
1490653668051,19,-3,52,82,78,37,-25,-49,29,-6,-23,72,71,106,125,64
1490653668099,11,3,-34,-49,127,17,-26,34,-25,0,23,68,27,-50,-34,-1
1490653668147,24,1,-36,-42,-61,-15,-60,-2,-46,-7,-68,-102,5,-24,-52,-45
1490653668149,20,-5,16,38,-128,-83,-35,7,-26,3,-66,-87,0,-113,-84,-39
1490653668197,-11,5,-49,-67,-107,-86,-65,-44,19,7,-17,-4,93,43,62,26
1490653668246,-2,0,69,120,57,7,2,7,71,-3,-62,-60,-42,5,-4,-1
1490653668295,59,-5,52,71,5,1,-16,8,-2,0,-3,-11,70,31,49,11
1490653668343,-43,-4,-5,-23,-27,-2,0,6,24,2,50,1,6,-16,-29,-10
1490653668392,34,4,-124,-57,23,6,5,-8,-14,3,119,108,-33,-14,-4,-4
1490653668440,-87,-3,-3,45,-3,4,35,-20,-58,-3,-67,-38,15,-15,-11,-5
1490653668442,-113,1,66,83,-25,-23,-22,-5,-11,1,41,-51,-28,-27,-18,-2
1490653668490,12,1,66,87,48,-33,-37,-9,7,-2,-33,-103,-13,-10,38,10
1490653668538,72,2,-87,-20,-20,-4,14,13,-128,-2,36,55,-6,-2,5,-1
1490653668587,83,-4,87,-26,-82,-32,-35,-27,70,4,87,17,-4,46,37,3
1490653668635,76,2,46,5,-16,-7,13,3,59,-1,-81,41,43,21,19,-6
1490653668637,49,-4,-74,-29,16,-29,6,-19,88,-4,-13,-128,-31,-26,-2,5
1490653668684,63,-11,-59,115,78,13,13,11,12,3,3,-34,-43,-26,0,3
1490653668734,-15,0,10,-6,6,2,-1,1,-40,0,-72,23,-3,-9,-18,-25
1490653668782,28,-4,43,-3,-18,-12,3,17,-32,0,-10,-5,47,7,-10,-16
1490653668831,-57,-2,16,-6,12,0,5,5,14,0,58,11,-45,-16,19,-2
1490653668832,11,-5,-98,-26,-11,11,-5,-12,127,-7,72,-3,-3,3,-16,7
1490653668879,-115,-3,-33,-15,25,14,3,2,-102,-3,0,19,10,12,46,-5
1490653668928,-70,-3,14,-16,-15,-2,3,-11,41,-1,13,16,-2,14,-2,20
1490653668977,-2,5,53,42,1,12,27,-3,-61,5,-38,-22,-18,-36,-49,-52
1490653669027,-22,-5,-36,15,46,5,-17,-16,49,0,33,9,46,112,64,53
1490653669076,2,1,-32,-17,-23,-3,-15,15,-88,-1,-17,-4,-16,-12,-23,-2
1490653669124,-56,-3,-15,-52,-98,-106,-70,-27,28,-1,7,-3,48,56,-31,-58
1490653669126,-43,1,31,-9,-3,-97,-66,10,24,-61,29,-27,-8,11,10,36
1490653669222,99,5,21,8,43,16,-7,29,-36,6,24,48,-8,-71,-7,-9
1490653669224,61,0,27,12,63,50,6,-10,14,7,-40,-32,-49,-1,18,-2
1490653669269,-128,4,4,-44,-104,-94,-116,-89,71,7,-4,60,127,127,101,20
1490653669318,-56,-3,13,96,71,57,93,46,-2,-1,-25,-82,-42,-116,-119,-62
1490653669319,72,-4,39,10,71,69,14,41,29,3,-29,5,-60,-34,-60,-19
1490653669367,112,-5,-40,-9,-30,-8,-25,12,-91,3,54,54,127,119,74,-3
1490653669416,-120,-4,23,-16,-8,51,14,-42,103,-4,10,-5,-10,49,30,79
1490653669465,23,-4,-36,-10,-80,11,20,-5,-47,-5,-2,13,55,66,-52,10
1490653669513,-110,2,16,11,-46,99,-5,-59,-47,4,6,14,37,-87,-65,-22
1490653669520,115,-9,-49,4,-14,-27,-43,17,-47,1,-13,-13,-86,-89,-104,-78
1490653669562,-81,-2,7,19,127,89,16,-32,-60,-2,15,92,123,127,47,22
1490653669611,-27,-4,-19,12,36,47,17,-10,79,-7,-6,42,122,56,55,66
1490653669660,65,0,-2,-27,87,54,-56,-36,49,14,44,91,90,-57,42,15
1490653669708,35,-67,8,-53,-58,-83,-58,24,-74,1,-16,-30,10,80,94,2
1490653669757,93,6,75,94,77,3,81,34,-51,6,-2,42,-106,-22,-27,-9
1490653669805,-128,8,5,-59,-25,-21,-47,-30,87,-7,11,-5,-34,41,73,22
1490653669807,-94,-53,9,-26,12,-80,-122,-82,50,20,-5,-108,-99,-18,90,63
1490653669855,-5,122,0,22,15,-18,-45,16,-31,3,-40,61,15,-45,-9,-53
1490653669904,-76,-2,-44,-15,-27,38,7,-10,106,-40,9,-9,-38,-47,9,-4
1490653670001,-89,20,0,50,13,42,-53,-24,-63,79,23,-2,13,47,4,-12
1490653670002,-28,-18,9,20,-9,-13,-38,-6,-3,-30,-11,15,69,22,-12,10
1490653670003,-9,29,23,8,7,-3,18,17,33,20,5,-6,-39,-23,-69,-2
1490653670049,30,-21,5,-12,-15,20,11,-2,45,118,18,12,23,13,-75,-25
1490653670098,66,-1,1,-20,-16,-12,-76,-16,27,33,4,19,-23,-38,-26,-5
1490653670147,24,-9,2,6,-1,19,5,-1,97,10,-13,-9,20,28,31,20
1490653670195,-43,15,-7,-4,-3,-10,-39,-26,-83,-58,6,-7,3,6,-57,-35
1490653670197,59,3,-5,-20,-54,-14,3,4,-6,-35,-22,-45,-33,39,21,2
1490653670245,-84,-38,-29,-2,-12,-43,31,0,112,41,0,-16,-8,24,-81,49
1490653670293,-8,-54,18,14,52,18,35,-61,22,-22,25,30,-14,-104,-29,27
1490653670342,-77,8,-22,-45,-105,-10,121,48,-56,68,31,-7,63,-5,48,2
1490653670391,-103,6,-36,-41,-128,-83,7,-9,127,56,10,-105,-113,-58,-77,-3
1490653670440,14,42,14,-24,-26,-22,-63,-41,20,-10,-49,-33,127,103,42,6
1490653670488,100,-7,-36,-45,-106,-1,30,-4,18,-55,32,54,127,-24,14,8
1490653670490,-50,8,0,17,14,45,-86,25,-90,-40,-5,1,-13,105,127,-22
1490653670537,-80,70,8,72,-25,61,-128,-128,-111,-52,60,14,-10,-101,-66,-5
1490653670586,71,-15,-47,-49,3,-95,0,15,-57,24,20,91,90,121,-28,-16
1490653670635,105,-107,3,-122,7,40,-23,-61,118,-123,-14,87,33,37,96,127
1490653670686,7,-118,2,-37,-116,57,-2,11,-60,-113,36,-23,92,93,60,-27
1490653670687,-35,22,-20,0,70,-14,62,-60,-118,-101,-69,-51,-128,-128,-117,-121
1490653670732,-47,36,20,-80,-27,127,51,120,-1,70,-31,26,-128,-119,-71,-98
1490653670781,69,1,55,13,-112,-52,-3,-85,86,20,15,-67,8,127,42,127
1490653670830,51,-7,35,81,38,66,-6,44,-86,6,25,-8,-3,-12,52,-44
1490653670878,3,-4,8,127,-20,127,52,-61,-21,0,-39,-29,60,60,40,-46
1490653670879,-21,14,-23,-27,-83,17,-128,-98,83,-2,33,21,112,127,127,25
1490653670927,-57,-9,-28,-10,-81,84,-86,5,26,-3,10,13,114,-90,-40,-79
1490653670976,68,0,43,-36,-41,-25,-11,52,-36,-5,-53,-52,-13,35,-91,-21
1490653671025,10,-5,-65,-53,-128,5,40,74,71,3,34,-40,97,85,108,72
1490653671073,5,8,-46,-64,-127,-127,-64,-60,-64,-6,43,82,35,29,-34,0
1490653671122,-71,-3,16,47,61,117,-61,-4,5,9,-17,60,-41,68,112,69
1490653671170,-61,-3,-98,43,117,-98,-43,-83,-79,4,-33,-58,-128,-33,-15,-20
1490653671172,27,-6,-23,-46,125,-47,-62,-18,-68,4,57,60,77,122,119,75
1490653671220,-51,-8,22,49,-9,-93,71,30,109,-5,-19,-2,-62,87,65,123
1490653671268,-5,2,72,100,-27,98,94,-6,77,-8,74,51,51,-106,-116,-56
1490653671317,127,8,-5,70,-12,127,61,127,-99,-3,39,-53,53,101,41,-99
1490653671366,125,-11,11,-15,68,-104,20,-37,-107,-3,15,9,-111,-56,-116,51
1490653671367,-63,-9,14,-66,-89,70,-102,93,103,8,-47,84,98,26,108,-15
1490653671414,-72,3,-61,-127,-128,-95,44,-49,-48,-2,-22,-111,40,-97,-81,-128
1490653671463,33,7,57,-35,-58,-10,82,88,16,-15,-31,-65,-51,38,-57,-96
1490653671512,-11,1,15,46,57,127,61,63,40,-5,17,10,73,47,50,89
1490653671560,8,0,2,62,64,125,83,-38,-85,-4,0,127,81,60,37,-3
1490653671561,-22,2,0,-88,-128,-50,-26,-31,2,-3,23,68,26,92,42,3
1490653671610,-40,-3,-61,-28,-122,-74,-128,-55,-42,2,21,-38,-32,-89,-51,-40
1490653671658,86,4,66,127,102,106,51,67,-20,-2,-19,-77,-90,-83,-83,-76
1490653671707,9,-5,-20,-13,-128,4,28,10,-30,3,-22,-7,65,67,51,18
1490653671756,68,-1,7,-46,22,-97,-55,7,-5,0,35,127,96,103,11,15
1490653671805,-18,-3,-2,-121,-102,-95,-81,-2,-9,-2,-43,5,-18,-128,-112,-43
1490653671853,32,0,70,-64,-100,71,73,34,2,-1,-2,114,84,14,-1,1
1490653671855,-14,-3,87,127,-48,82,84,40,38,-2,53,107,30,59,32,15
1490653671902,22,-1,-29,-52,-104,-73,-42,-29,-29,-2,-19,-80,-52,-76,-2,9
1490653671951,26,1,127,110,5,21,23,18,3,-3,-31,-30,-31,-2,-3,4
1490653672000,-26,6,-17,-16,-52,-1,56,17,40,-1,-1,-38,-78,-28,-2,-2
1490653672048,-23,0,2,-29,-45,-15,-19,-16,-44,-1,-25,27,66,5,10,5
1490653672049,34,1,-10,-81,-40,-12,-14,-5,0,-7,-21,90,27,27,9,11
1490653672098,9,5,21,8,13,28,38,9,-53,-4,-8,-2,-10,12,3,-17
1490653672146,63,-1,18,-84,-5,-10,6,32,-5,-3,56,46,0,-13,-4,-10
1490653672194,-51,-1,1,100,43,-13,-6,-9,28,5,-48,-38,7,-37,-28,-12
1490653672243,-2,-2,21,48,-30,-21,10,-11,-12,6,41,38,25,23,41,11
1490653672244,-16,0,36,-71,-4,-7,-6,-25,-128,-5,-8,12,53,3,33,8
1490653672292,61,-2,-22,-91,-20,-3,-36,-13,14,1,-49,-20,-50,-33,-40,-5
1490653672341,-18,-5,4,-88,-69,-30,4,-3,-4,-2,-97,-2,44,11,16,25
1490653672390,4,-2,-95,-38,-22,-11,33,-1,81,6,-10,7,-50,-31,-22,-26
1490653672438,-63,-3,43,-14,7,11,-14,-12,-2,-7,-53,-6,60,-5,-41,-28
1490653672487,81,-2,-16,65,1,19,2,12,-94,-1,-5,59,-17,10,43,16
1490653672535,-59,12,-64,-21,-7,-3,-15,-24,28,-11,17,-17,2,0,28,32
1490653672537,111,-6,35,40,4,14,-11,10,54,-1,-81,-80,-24,11,-5,-2
1490653672584,-128,11,32,37,23,13,-5,16,-57,-11,24,-1,13,5,22,-6
1490653672633,4,1,-75,4,-1,-9,-14,2,-105,-1,31,18,8,-2,-17,-15
1490653672682,-31,-8,-26,3,7,2,-5,36,65,2,-10,-16,-12,-23,-9,-17
1490653672730,-128,-2,2,-8,28,26,-5,-24,120,2,34,-4,-1,-21,15,-19
1490653672732,27,3,18,-16,12,27,16,7,-16,0,42,51,62,46,45,2
1490653672779,71,-1,-53,-43,-29,19,10,-1,38,2,-20,-66,-67,-19,44,27
1490653672829,-15,31,40,-20,-37,-81,-36,-14,-76,72,25,-18,-42,-28,-59,-33
1490653672877,47,0,10,-21,20,-9,-66,-38,-6,30,5,3,-20,42,35,28
1490653672925,-25,-1,4,15,72,6,-48,-30,-49,4,-36,14,45,74,38,59
1490653672927,17,8,-8,-46,6,-84,17,50,47,3,47,82,119,-66,-125,-82
1490653672974,-89,5,-28,14,-36,105,63,65,67,6,19,0,-8,-21,7,0
1490653673023,22,-1,36,37,-2,39,58,65,-100,-8,-11,22,124,127,33,6
1490653673072,98,4,8,61,112,-2,-39,-28,6,-5,1,56,69,67,40,10
1490653673120,114,-4,-19,-99,-33,41,71,40,-27,-4,-3,17,78,-34,-75,0
1490653673121,45,-1,-29,-44,-128,72,114,74,3,2,10,26,83,127,108,10
1490653673169,-56,3,48,58,45,-32,-128,-5,46,2,59,35,9,121,56,-63
1490653673218,48,-3,-21,-51,-114,-40,88,8,10,-3,-36,-57,-128,-90,-68,27
1490653673268,-54,-4,64,127,105,116,89,11,23,3,25,-6,61,-2,-82,-42
1490653673316,-44,1,43,15,88,-6,-3,16,72,-3,-33,8,-37,-70,-10,-15
1490653673364,73,-2,38,31,42,103,43,51,40,3,67,75,-66,51,38,-4
1490653673413,30,1,-87,-87,-121,17,74,29,-111,-2,17,-58,-91,-107,-99,-67
1490653673414,4,4,44,-1,72,65,49,24,15,5,5,34,96,-17,-8,9
1490653673462,81,-4,38,-18,-19,9,-85,1,-48,1,-10,70,118,48,39,28
1490653673511,-5,4,16,28,-53,-48,-104,-62,-68,9,-44,6,28,-7,63,40
1490653673560,-13,1,24,34,-45,11,92,23,-91,-2,-7,17,127,43,-60,-8
1490653673608,-10,29,30,53,54,27,-29,-2,46,97,-14,3,94,72,24,33
1490653673610,34,40,-2,23,-20,-16,-75,-50,-39,3,25,41,79,27,-9,-29
1490653673657,-80,67,33,66,127,19,93,20,29,27,-6,41,-24,-19,-92,-51
1490653673706,37,-77,3,-12,-25,36,55,56,80,-4,13,-18,-63,-48,6,-15
1490653673754,-55,-40,-25,-22,23,32,-31,16,79,-24,24,19,28,53,57,34
1490653673803,61,14,42,59,48,34,28,24,-75,35,11,29,-13,25,-2,-24
1490653673804,-57,-40,-16,-28,-28,-1,-45,-48,127,-31,2,-4,11,-2,78,74
1490653673852,79,62,18,-65,-53,-9,17,57,-105,-14,7,-14,-35,-12,-33,-19
1490653673901,-61,-16,-31,36,13,-13,3,-7,6,35,19,-59,-23,-46,-35,-32
1490653673950,-20,20,-24,2,37,-14,-6,-34,10,51,-35,-4,-21,-43,-125,-76
1490653673998,-106,4,35,30,-15,1,-61,-13,-1,8,-20,-16,18,30,126,65
1490653674047,60,29,-40,-50,10,-10,-17,7,-107,38,5,21,-10,7,75,41
1490653674095,-64,23,1,-23,-56,-21,-46,-32,91,-14,24,-50,-10,5,69,9
1490653674097,-12,-29,17,9,-1,-9,-10,-12,-27,7,8,44,16,-45,-71,-47
1490653674145,-14,-7,16,15,19,11,14,15,-48,26,5,-31,11,37,43,23
1490653674193,-56,0,-17,-34,16,34,-29,3,21,-18,-3,-9,-61,-50,39,17
1490653674242,17,-111,6,-47,-8,-15,44,34,79,-64,-5,13,24,18,21,32
1490653674291,123,-26,-7,-15,-23,-7,17,42,16,-38,9,-1,-57,36,68,29
1490653674340,76,25,11,42,58,-46,-20,47,22,-106,20,33,-25,9,-77,-3
1490653674388,-79,-68,-19,4,-80,-90,-15,-32,26,-20,-17,-60,-12,-2,-3,45
1490653674390,-3,-2,9,-9,5,-110,-89,-73,-7,-100,-11,3,127,127,127,86
1490653674437,-113,44,13,-128,-128,2,-81,-67,127,-97,-72,-70,-96,-68,-1,25
1490653674485,-24,3,35,21,2,127,87,44,-62,53,25,70,-106,-15,-109,-85
1490653674487,127,-30,-4,32,-128,-72,-91,-72,-110,-20,-32,-38,-79,-43,-30,-66
1490653674535,-3,-13,61,68,113,25,16,63,52,-32,-24,104,45,29,47,-94
1490653674583,-49,-74,-16,-128,-128,50,67,-21,60,-16,-22,-112,118,-47,-60,83
1490653674632,49,11,-14,-40,74,74,-75,-29,-36,-7,-7,20,-128,-128,3,-66
1490653674682,-86,-11,-35,52,-51,39,-94,-46,60,3,33,34,-10,-102,63,-72
1490653674778,22,-42,11,-43,-76,-108,-61,33,4,-87,-26,5,8,-73,-127,-58
1490653674779,-128,-17,-6,11,54,-45,-15,-84,96,4,-34,-102,-89,-37,-83,21
1490653674780,-21,-97,-38,-41,124,36,15,-108,-128,75,-19,11,-88,43,34,38
1490653674827,-128,-19,-53,-64,-74,-93,-68,-100,-31,12,-2,-8,-119,127,127,115
1490653674876,-24,31,69,59,-77,127,62,32,38,39,56,75,127,-42,-2,-4
1490653674925,13,42,-20,-14,-123,-128,1,-48,-58,97,-11,46,56,78,40,-42
1490653674973,41,-99,-75,-122,-3,-61,-45,-64,61,-98,-10,4,49,6,-85,-25
1490653674974,89,22,56,76,127,112,118,82,-11,36,-23,-58,-128,30,-102,-16
1490653675022,35,-3,-10,-26,90,-122,-28,0,109,3,73,98,-11,122,87,49
1490653675071,21,-15,113,127,119,21,33,26,-128,-2,-48,-87,-80,-128,-128,-108
1490653675119,-64,0,-60,66,-57,-60,-73,-123,77,-4,68,-37,-49,98,96,13
1490653675168,11,-17,34,-50,-88,-104,-54,-41,-20,11,4,16,-29,11,85,34
1490653675169,45,-19,50,91,-71,127,112,13,-44,-4,-16,-58,127,-78,-70,2
1490653675217,-128,3,19,2,66,110,85,42,120,-12,-2,58,65,83,20,19
1490653675266,117,3,-96,-128,-4,27,43,120,67,-6,22,106,56,-78,-109,7
1490653675314,58,6,52,25,-21,76,73,53,-81,2,24,28,10,-72,-91,-59
1490653675363,3,4,11,-56,-54,18,34,0,-128,3,-49,-37,-42,-16,-33,-90
1490653675412,-9,3,13,127,127,-25,-111,-86,62,11,-34,-58,-128,-39,-68,-2
1490653675460,-24,-2,-32,28,79,97,108,-59,-89,-3,20,89,65,-124,-91,-47
1490653675461,35,-7,7,-19,64,-128,74,-18,98,-1,-26,71,125,127,70,4
1490653675509,17,15,17,52,22,-62,-81,-13,-8,-1,-49,-93,2,104,127,64
1490653675558,9,2,27,3,-128,25,-46,-2,6,7,-25,-70,-54,61,116,52
1490653675607,-14,4,-37,-35,-33,86,-22,4,54,-5,46,82,57,83,12,-32
1490653675655,19,-4,-30,10,-52,8,19,72,-29,-2,2,-49,-50,-87,-43,-81
1490653675656,-25,0,-38,-36,8,-35,-19,-64,-31,0,-26,-58,-125,-105,-74,-49
1490653675707,18,4,39,51,96,127,61,70,46,-3,89,127,109,59,44,32
1490653675753,20,0,38,41,-126,53,-34,63,1,-5,-57,-128,-55,-123,53,-30
1490653675802,1,2,20,43,92,56,57,22,36,2,33,70,127,54,59,21
1490653675851,-6,-3,30,-4,38,88,91,24,8,2,53,89,99,77,29,17
1490653675856,21,2,16,-68,72,-14,-18,-11,30,-6,23,10,-42,67,7,29
1490653675900,-6,3,4,-68,-128,-54,5,5,-40,0,-78,-128,75,-128,-92,-49
1490653675949,15,-1,9,65,-128,-91,-32,4,-32,2,-32,-78,-42,-77,-54,-26
1490653675997,-31,-3,60,6,-20,-56,-59,-29,24,-5,-72,-18,23,20,32,3
1490653676046,28,1,31,-3,-39,-6,-11,0,-27,-2,-34,-54,41,56,9,8
1490653676095,10,-4,-10,-62,-119,-95,-49,-59,-31,-4,12,47,23,-57,-29,-2
1490653676143,-17,-2,-25,17,74,-5,-28,8,-13,-1,11,-5,-40,9,46,-2
1490653676144,19,3,-27,-51,-110,-26,-4,25,-9,-1,-4,-98,-77,-70,-44,-21
1490653676192,-43,-1,-2,25,-5,-2,-17,-10,26,-8,30,-33,31,45,5,3
1490653676241,22,1,-26,-15,0,-6,24,13,-15,1,-13,-12,46,34,5,2
1490653676289,-8,-8,24,58,-15,6,4,-1,-56,-2,16,1,-26,-13,-5,-14
1490653676337,20,-3,14,70,11,-23,6,9,1,-2,-34,40,43,-4,-13,-15
1490653676338,-62,-3,-63,12,43,4,-1,-4,-10,-7,-15,7,23,-46,-17,-3
1490653676387,0,0,-21,-24,-70,-31,-34,-14,-11,3,60,46,22,29,35,22
1490653676436,51,-2,23,-36,3,9,52,20,62,-4,-23,53,-11,-3,7,-15
1490653676484,26,0,23,50,56,23,13,7,7,-2,50,27,35,7,-18,25
1490653676532,5,-1,-29,121,-2,-59,-5,-2,5,4,33,5,-48,-123,-5,-8
1490653676533,17,1,-9,19,30,-28,6,-2,15,-1,31,-44,25,15,23,13
1490653676582,-48,2,-7,32,51,-14,-17,-16,17,-1,-100,30,64,2,3,-2
1490653676632,-1,0,14,21,21,1,3,8,-80,-1,46,-3,-13,-7,-12,-8
1490653676680,90,-5,32,10,-24,-4,6,4,127,1,-46,36,30,0,11,20
1490653676729,91,2,7,7,4,18,7,-1,108,-1,-23,-50,-32,-6,-13,-21
1490653676778,-106,2,17,25,9,-9,-21,5,-128,-3,30,32,4,-3,1,-12
1490653676826,-48,4,-31,6,-47,0,45,46,-21,1,-40,-23,15,31,37,-13
1490653676830,-3,-4,-93,-41,15,32,42,-6,0,-6,66,24,-17,-30,-16,-2
1490653676874,-31,52,-42,-44,-55,-73,-17,-78,-6,43,6,-16,-42,-46,-54,-7
1490653676923,-13,-126,28,-10,-106,-61,-81,-18,25,-128,-48,-7,77,25,56,35
1490653676972,48,11,-103,47,47,-71,-38,2,19,12,82,91,99,127,104,31
1490653677020,-25,-5,21,26,-8,124,101,38,29,17,-31,-60,-102,-113,-117,-63
1490653677022,-65,-4,8,-12,-97,26,45,-28,-27,2,-10,0,5,42,-4,51
1490653677069,-3,-2,35,27,68,99,74,70,11,-2,49,60,52,68,49,-36
1490653677118,10,-4,-91,-77,-76,-79,-83,-95,88,1,55,-33,-75,-66,-11,-12
1490653677167,3,3,17,-43,-35,-22,5,38,-71,-4,-23,-13,17,-6,-50,-58
1490653677215,91,3,-6,18,104,122,77,91,-55,-6,43,47,14,-2,-41,15
1490653677216,100,9,-35,-45,-45,-42,-54,-75,83,10,31,-36,-15,67,124,66
1490653677264,-12,-5,-21,-10,-50,-103,-97,22,-98,11,-17,-51,14,52,56,6
1490653677313,-64,-8,38,-37,-76,-42,9,-22,1,-16,-84,-92,-128,-57,-36,-11
1490653677362,-55,5,3,-41,47,-49,10,36,-41,-12,25,-6,-51,121,107,52
1490653677411,62,6,5,63,127,127,71,-36,-106,9,-6,106,80,-10,28,4
1490653677460,-111,-2,-6,1,-8,-81,-37,-127,19,9,-8,-75,-77,-64,38,35
1490653677508,31,-9,10,59,116,81,47,68,3,-7,92,127,127,127,42,-1
1490653677510,-12,3,-7,1,-70,39,-79,-40,18,-14,29,27,-90,-69,23,-24
1490653677561,102,-6,-2,-27,-117,-29,-44,-63,27,-10,-38,-86,-57,-40,46,33
1490653677606,-67,6,-5,30,127,66,18,1,-61,0,21,6,-22,20,-125,-30
1490653677654,-110,-4,-59,-54,-128,-73,-14,-32,-39,-4,7,11,17,28,-11,-10
1490653677703,27,-11,-31,-37,-77,-74,29,23,88,-3,-8,-24,-31,-2,11,17
1490653677704,-76,2,-2,55,96,2,2,10,4,6,24,-11,18,11,-33,-25
1490653677752,49,-2,31,1,3,8,16,-2,-89,-2,-40,-16,20,8,11,-8
1490653677801,-13,-14,-9,-31,31,-6,-3,-10,18,-2,12,26,15,7,7,5
1490653677850,-12,-2,-10,-8,9,-7,-2,10,0,5,-11,-43,-20,5,10,-5
1490653677898,-17,-4,0,-23,7,-5,-12,-46,-25,7,14,43,7,14,11,-4
1490653677900,34,4,2,36,-13,-9,-31,-3,-4,9,-18,-88,-65,-6,6,-3
1490653677947,-13,17,-52,-37,46,26,-1,1,39,14,23,43,21,-50,4,17
1490653677996,-41,-14,4,-31,-10,-52,-34,-19,-8,-16,57,54,48,-26,-56,-6
1490653678044,-83,7,21,-19,-26,5,19,9,31,7,-56,20,11,19,28,17
1490653678093,-4,-6,7,66,-33,-62,28,29,4,-14,5,-52,7,-48,27,7
1490653678142,11,-4,45,57,28,62,16,25,44,0,-13,4,-8,22,-4,-1
1490653678190,-32,-2,-7,-3,2,30,-3,-10,19,-1,2,-37,-23,-43,-62,-40
1490653678192,-42,-5,1,-51,-5,70,23,28,23,-3,-28,49,35,127,13,1
1490653678240,-16,5,40,-94,-40,-25,-33,-32,-50,5,-36,-29,12,16,9,-11
1490653678289,127,-13,2,3,21,18,108,43,-63,-5,-16,7,77,-28,42,13
1490653678337,-15,6,-50,-84,-39,-28,-49,0,42,4,37,79,-18,-4,-22,17
1490653678385,97,8,-16,-41,14,14,5,30,1,0,-33,-48,17,-8,56,23
1490653678387,-68,-5,-15,-54,-50,-43,-15,-20,49,8,-15,64,-3,-53,16,10
1490653678434,22,-11,-19,-17,-11,11,1,8,-70,-12,9,28,-10,-7,13,-15
1490653678483,-16,2,-38,-28,-33,12,-19,19,26,1,91,69,5,-15,-1,-8
1490653678532,-10,127,-128,-8,1,-82,19,4,10,127,111,8,-15,-12,-47,-46
1490653678580,37,-46,54,76,40,99,91,-5,47,50,-88,14,40,104,100,45
1490653678582,-19,57,3,-15,-42,-80,9,-7,-27,47,-23,-32,-6,-72,-28,-19
1490653678630,-2,12,19,10,2,4,-26,5,-9,-1,-90,-9,-4,-87,-13,-18
1490653678678,24,1,-18,-8,-9,-115,-21,76,48,1,13,4,0,-71,-74,-32
1490653678727,-14,2,-14,0,27,-17,34,-25,-1,-1,5,5,10,-95,40,-2
1490653678775,-3,-1,9,-8,-10,-80,-16,-15,-7,109,17,-4,-7,7,1,-11
1490653678776,5,-62,-6,-5,6,-51,10,2,-14,-86,1,-1,19,-38,-3,-4
1490653678824,-2,-29,-5,-6,0,127,-9,3,6,-48,4,-3,4,119,-6,-10
1490653678873,1,0,14,-6,-6,35,-4,6,-5,-14,12,-1,-9,16,-1,7
1490653678922,3,-6,1,-1,4,47,1,3,6,-7,-6,-11,1,50,3,3
1490653678970,-5,-6,-6,-2,8,3,-1,-1,3,-1,-2,-2,1,1,7,7
1490653679019,-7,3,-2,-3,3,-7,-1,-3,-4,0,-6,-3,1,-4,-10,6
1490653679067,-2,-1,1,1,4,-1,0,-2,-2,-2,-2,0,16,-9,2,1
1490653679069,4,-3,3,6,-4,-2,-3,2,0,-5,-3,7,0,1,1,-1
1490653679117,0,-6,-3,-6,-3,-2,10,-8,-2,-3,-7,-8,2,-8,8,-2
1490653679166,1,6,-1,0,-8,-2,3,-4,0,4,-6,2,-14,0,6,-7
1490653679214,1,-5,-8,-2,1,-11,3,-2,-1,-4,-10,5,2,-7,4,3
1490653679262,-4,3,-2,-5,-7,-14,0,6,-2,-3,2,-2,-20,-11,-2,-4
1490653679264,-2,-2,-9,-4,0,-8,-2,3,-2,-2,4,-6,0,-7,0,2
1490653679312,-1,1,-4,-6,1,0,8,-2,2,3,-6,-5,-7,4,3,-1
1490653679361,-2,-2,-5,-3,-3,-7,-4,0,-2,2,15,-2,-2,-1,1,2
1490653679457,0,-2,4,4,1,0,-10,-3,3,5,-9,-6,-4,5,-11,-1
1490653679459,0,-2,8,-6,3,7,7,-2,-4,-1,4,-8,1,3,7,0
1490653679460,-1,-3,0,1,3,-4,0,0,-1,2,5,-7,1,1,-4,0
1490653679510,-5,-4,-8,-8,-4,6,3,-4,0,1,1,4,-7,-2,6,-2
1490653679556,2,1,6,-10,0,-8,1,-5,2,1,-1,-10,-1,-2,6,-5
1490653679604,0,-2,-3,4,0,1,-1,-8,0,-2,3,-2,4,-2,-2,5
1490653679653,-5,-3,-1,-4,-7,-9,-1,-6,-4,6,-4,-3,0,-5,-4,-10
1490653679701,-6,-9,-5,-1,-2,-3,-13,5,-3,-6,-1,-6,-2,-5,-15,4
