1490654354151,10,-93,-60,-112,-21,-85,-21,-2,22,58,12,-60,9,-22,-51,-12
1490654354198,-23,-35,-18,14,-2,18,18,-8,20,32,-4,-6,-13,-4,7,-20
1490654354200,8,5,4,0,1,-4,-24,-23,-8,-11,9,10,0,1,-6,27
1490654354248,24,54,1,24,6,16,29,20,-4,-20,9,-3,-1,0,-1,5
1490654354297,-12,-24,1,-14,1,1,1,-3,-11,-14,2,-10,0,-1,1,0
1490654354345,-8,18,6,0,-2,-1,14,43,5,22,-9,11,0,-3,0,-33
1490654354394,3,-2,0,0,-20,-5,-8,-2,3,-2,-13,-6,6,3,7,-2
1490654354442,-18,-32,26,17,9,8,-3,-26,16,19,-27,-17,-14,-12,-9,-1
1490654354443,2,25,5,4,-3,-6,7,4,15,-6,3,-8,10,2,6,-14
1490654354492,3,18,-9,-2,-17,-9,-21,5,-13,-22,14,17,5,1,1,4
1490654354540,-1,-12,8,21,9,5,11,-3,0,14,-3,2,13,11,-9,-15
1490654354589,-1,14,1,-8,1,-3,0,11,0,5,-17,1,2,3,11,-16
1490654354637,2,-14,-3,-9,-2,1,-4,-6,-4,4,-3,13,5,1,0,17
1490654354639,12,20,7,4,5,0,-10,-17,8,19,-10,-12,-4,-2,-6,20
1490654354687,4,8,-16,-11,-8,0,7,13,0,-22,17,5,-6,4,9,-16
1490654354735,2,-11,19,10,5,1,-30,7,-13,26,-11,0,15,13,1,-22
1490654354784,-1,15,8,-3,-11,-11,2,-24,6,-5,-6,-1,-5,2,0,6
1490654354833,-6,-16,18,5,5,8,14,-2,1,-1,-8,6,1,-6,-5,16
1490654354881,9,19,-6,-9,-10,-9,-2,13,-1,-13,3,20,19,11,10,9
1490654354882,-6,-10,-8,-7,3,-2,0,3,6,15,20,-9,-4,-9,-5,20
1490654354930,18,29,2,17,17,4,2,6,2,-22,-11,-21,-13,-3,-6,-16
1490654354979,-2,-27,-7,0,3,-4,-6,12,18,27,1,4,-2,5,7,17
1490654355028,-15,-25,-16,-20,-23,-12,-5,-5,3,31,15,8,1,-1,-6,-20
1490654355076,-6,10,9,17,20,5,0,-9,-18,-27,-6,-19,-20,-11,-16,-26
1490654355077,14,34,8,-11,-2,1,1,5,-4,17,6,9,15,8,11,9
1490654355125,-4,-25,-2,-4,7,2,-6,2,-11,0,-9,16,1,-3,-5,-13
1490654355174,2,-31,-20,-6,-10,-1,10,9,-7,12,35,14,13,10,-4,-6
1490654355223,8,7,9,1,2,0,-2,-16,8,6,-6,3,20,10,2,10
1490654355272,-3,-18,5,7,-19,-9,-3,14,3,3,-20,-15,13,6,9,-7
1490654355320,13,16,21,6,-3,-8,-16,-12,-7,-30,-17,-30,-32,-7,-3,-3
1490654355321,12,6,3,-13,-14,-7,15,6,16,-11,0,-8,-16,-4,-3,15
1490654355369,11,9,-3,3,0,4,2,-4,0,21,-19,-4,7,-2,-10,-14
1490654355418,-6,10,5,-4,24,12,0,-13,0,13,13,6,-14,-6,-12,-12
1490654355467,3,37,5,13,-9,-8,-5,-5,4,-8,12,36,30,6,-2,1
1490654355515,1,4,-3,-11,-11,9,-2,-1,-19,-58,7,6,18,14,4,20
1490654355563,2,-21,-13,-4,5,5,-8,-9,-11,-9,0,30,19,11,0,-9
1490654355565,42,53,11,-7,-2,4,18,41,-20,-34,10,40,30,4,-7,-6
1490654355613,-4,-10,4,27,21,18,4,-5,39,75,28,6,22,17,18,-8
1490654355663,-8,1,-26,-40,-57,-39,-15,-8,-29,-43,-2,24,15,2,0,31
1490654355710,31,76,61,38,50,19,6,29,12,-29,-12,-16,-14,1,13,-32
1490654355758,-39,-47,9,-10,-5,-1,-8,-31,-9,-10,-25,23,16,6,-2,32
1490654355759,-38,4,16,28,17,1,-21,-48,7,5,-18,-36,-33,-10,3,20
1490654355808,-17,-23,-12,9,13,0,-18,23,-1,19,25,32,15,16,16,20
1490654355857,7,2,-13,38,11,1,-9,25,-30,-47,-27,-5,-4,-4,21,-28
1490654355905,18,-57,-43,-12,-1,-12,-20,-41,17,87,0,-11,-9,-3,24,19
1490654355954,-22,-2,28,13,10,10,40,10,-9,-6,8,3,6,-3,-31,-31
1490654356002,13,2,11,-12,-4,7,3,-31,-14,0,-7,-9,-12,-7,5,4
1490654356004,-14,37,7,-3,0,-7,-32,-26,-5,10,13,37,21,13,20,5
1490654356052,-19,-32,-34,3,5,5,-13,-33,32,28,50,17,4,-4,-1,8
1490654356100,-14,-50,-2,-2,4,4,16,33,-39,27,6,-11,-15,-13,-46,-60
1490654356149,35,102,15,-8,-5,-9,1,-10,-11,-11,38,25,9,10,-3,5
1490654356198,-51,30,-22,-26,-13,-6,-8,29,1,-31,36,-3,-3,2,12,-27
1490654356246,6,-87,-6,0,-10,-24,-17,5,-3,77,1,-11,-21,-13,6,64
1490654356247,16,26,-35,-27,-16,4,20,-31,28,-52,54,12,5,13,64,33
1490654356295,-8,-16,44,29,18,7,25,37,60,23,27,15,10,14,-18,-35
1490654356344,-39,-24,-5,2,-10,-21,-126,-76,10,114,24,2,6,-3,29,29
1490654356393,6,-35,46,29,-2,-13,14,5,-7,25,-22,1,8,11,12,-11
1490654356441,25,35,-17,-7,1,9,19,-20,-8,-8,12,8,-4,7,13,-3
1490654356442,-7,-68,21,26,7,10,38,22,-24,-72,23,1,-5,6,90,-10
1490654356490,10,32,32,-15,1,9,26,13,-6,-44,9,16,7,-2,2,-7
1490654356539,4,87,14,29,-3,-6,-15,14,19,46,-5,-30,-2,-7,-48,-30
1490654356588,-14,-34,-11,-12,4,-2,-16,4,26,31,-3,4,-4,11,23,-5
1490654356637,14,-43,-13,-11,4,6,20,12,4,-1,5,6,2,4,-12,-2
1490654356685,17,-7,5,5,5,11,33,24,24,25,6,3,-7,-5,14,30
1490654356686,-12,0,-12,-4,-7,-3,25,-9,-1,-6,17,15,9,1,-35,6
1490654356734,-27,-23,7,0,3,9,27,8,-3,-2,25,28,10,0,-39,-5
1490654356783,-9,11,-8,8,2,1,-15,-27,5,24,21,10,2,6,37,3
1490654356832,42,52,12,1,-7,0,14,21,-4,-1,-31,-12,-10,-4,-26,3
1490654356880,12,-18,9,12,7,9,6,14,5,-5,-18,-17,-8,-6,-13,-12
1490654356928,21,29,4,13,5,7,-1,8,-9,-32,-12,-16,2,-5,-7,29
1490654356929,-6,49,18,-3,-19,-10,-9,-18,-4,-13,-37,-19,-4,1,8,-17
1490654356978,-25,-7,3,26,9,-1,-40,2,4,9,-37,-19,0,1,-15,-11
1490654357027,10,10,-5,-7,-1,-7,-5,4,-6,-18,17,6,0,6,7,0
1490654357075,-17,-28,-1,-15,-4,-3,15,-20,-7,-9,-11,-5,0,-4,-25,2
1490654357125,16,-47,-5,2,37,23,13,20,-35,3,1,11,-35,-17,5,-21
1490654357126,-44,-40,-27,-6,-1,3,-3,-23,16,9,25,6,0,1,15,-7
1490654357173,-7,16,26,-36,11,11,-5,-27,-1,-22,-20,12,4,-5,13,19
1490654357222,-6,8,-8,5,-24,-8,-4,-16,6,0,11,14,10,12,2,13
1490654357270,-4,51,-9,-1,4,1,-7,-6,-25,-17,9,-23,0,-1,-4,2
1490654357319,-1,-6,-18,-40,-9,-7,-7,-4,-33,-48,0,23,16,11,-9,2
1490654357367,16,-31,-8,-5,23,8,2,19,-3,10,-9,-2,16,0,3,3
1490654357369,-20,5,14,30,-26,-24,-22,-16,18,-7,4,-54,-3,4,0,6
1490654357417,31,40,8,53,39,13,7,17,5,36,7,-18,-49,-29,-12,-10
1490654357465,20,-36,-4,-50,-17,0,6,20,-18,-40,-12,-18,9,2,-8,-45
1490654357514,-3,-23,-2,6,-4,-1,1,2,39,10,19,6,4,3,8,38
1490654357563,-24,-19,6,16,9,-4,6,4,37,27,3,2,13,20,12,18
1490654357611,8,-15,15,90,45,12,13,15,-13,16,-1,-83,-64,-18,9,-1
1490654357613,-37,-15,-17,-35,-38,-17,0,-7,14,9,15,22,25,11,-1,-22
1490654357660,-28,-26,24,7,-11,8,23,-1,-10,24,-46,-38,22,9,-13,19
1490654357709,-39,-21,-22,-43,-42,-17,-17,-24,31,-6,-4,72,72,27,5,22
1490654357758,0,29,9,-70,-61,-8,-14,-26,15,-30,10,55,17,-23,-1,34
1490654357806,-2,-32,-45,-27,-50,-24,-13,16,1,40,2,12,7,-1,6,-3
1490654357808,-10,-10,11,31,14,4,0,-11,1,-15,5,-13,14,15,9,24
1490654357855,21,94,43,28,12,7,30,-2,-13,-43,-28,-34,-29,-19,-36,-13
1490654357904,16,31,-12,3,10,13,-4,42,-41,52,1,13,-9,-15,-30,-72
1490654357953,-10,-6,11,8,14,22,11,45,28,-28,-13,12,3,-2,6,-4
1490654358001,14,43,22,-13,9,7,22,47,-37,-40,-8,41,24,3,-7,-5
1490654358050,10,15,51,11,-24,-15,-3,9,55,-49,15,-3,5,6,-7,29
1490654358051,10,-71,-4,-2,1,-2,-18,-25,-15,89,24,13,5,1,-25,-22
1490654358099,17,37,-13,-26,-18,-7,-13,-12,-25,-72,2,17,14,19,26,21
1490654358148,-11,27,-2,17,18,5,10,-9,52,0,39,-15,-20,-14,10,32
1490654358197,12,1,-7,2,1,-3,-9,-10,-51,-49,-9,1,-1,-9,19,31
1490654358245,31,7,-10,-32,-2,-6,36,46,-23,-6,26,37,27,15,-54,-65
1490654358247,2,-4,12,20,4,6,-8,-6,23,62,-37,-31,-13,-15,-35,-53
1490654358294,-17,-76,37,31,8,1,22,-7,29,100,43,36,3,-2,40,24
1490654358343,9,-21,-2,-45,-20,-13,-38,-44,-51,-128,-51,13,2,5,35,42
1490654358392,-19,2,-15,-13,-4,0,13,13,-38,-43,5,26,7,-4,-20,-25
1490654358441,18,40,33,10,14,4,-10,-19,-23,-114,-70,-12,-11,-4,-20,-33
1490654358489,0,-5,-29,-14,-10,-10,8,7,3,19,8,10,-1,5,-22,9
1490654358491,4,-17,-22,0,10,6,34,18,36,-4,-9,-5,0,-2,54,-6
1490654358538,-2,11,16,28,-1,1,16,2,14,0,-9,-11,4,0,0,-10
1490654358586,-23,-20,12,6,5,1,-10,-30,-19,-32,-11,-1,-9,1,8,2
1490654358636,-8,-2,39,46,8,2,-6,-14,23,14,9,0,5,13,16,12
1490654358684,11,-44,-33,-18,-8,3,7,3,50,66,11,8,5,5,-13,-2
1490654358733,-1,17,-1,-11,3,5,-10,-5,-12,-6,-11,-4,-5,0,-9,-4
1490654358735,-13,-2,-4,-7,-6,-4,-13,-25,0,6,2,8,9,5,-1,15
1490654358782,-11,-24,31,53,9,2,5,-14,28,77,-4,-12,-9,-7,-20,-11
1490654358830,20,3,-7,-10,7,4,-6,22,5,11,7,-23,-11,-3,0,-1
1490654358879,9,28,-8,-11,-4,-12,-25,2,9,-15,-18,-3,-1,4,5,13
1490654358927,5,-4,-7,-43,-7,-5,-16,-6,-18,-19,5,24,-1,-6,7,-8
1490654358929,44,-20,14,19,-14,-17,-2,7,24,-5,-5,-11,8,-1,-11,18
1490654358977,-9,-16,-10,-20,-1,3,-3,20,-14,-3,4,14,6,2,9,-25
1490654359025,-33,-46,-25,-22,-4,1,12,12,37,29,28,24,-9,-6,-9,-2
1490654359074,2,-1,1,16,1,-12,-12,-3,11,39,-10,-3,9,-5,-8,-14
1490654359123,-5,1,-24,-25,-18,-6,-7,-7,-31,-21,12,12,9,7,10,-4
1490654359171,8,8,22,-2,-3,3,4,2,2,3,-7,20,17,7,-14,-16
1490654359173,-25,-6,-17,-13,-1,-2,-5,0,58,5,12,10,0,-6,-1,8
1490654359220,-23,0,9,-1,-15,-7,1,-17,-56,-12,-11,9,11,5,-16,-17
1490654359269,51,-14,4,13,9,2,15,14,-27,12,21,9,10,4,-1,6
1490654359318,32,21,7,16,17,10,-1,-2,23,-15,-22,-31,-3,0,1,6
1490654359367,-20,-26,8,-31,-29,-10,-10,-15,-12,27,-12,14,-3,2,0,6
1490654359415,-68,-13,-14,-12,2,4,11,6,13,-9,-13,-17,-9,1,4,13
1490654359418,-65,-2,13,5,0,-4,2,-7,-44,8,0,32,25,3,4,6
1490654359465,-28,-45,-13,36,7,2,-2,-7,-21,40,43,23,19,13,-5,-4
1490654359514,16,9,-1,16,4,3,-2,1,-50,-17,-17,9,24,15,-6,-24
1490654359563,-14,-22,6,0,-4,5,-6,-1,1,7,-9,11,22,-3,0,11
1490654359612,-72,-15,-1,43,44,4,-16,-4,-61,2,-3,-24,-36,-12,3,11
1490654359615,16,-6,18,15,13,14,0,6,-20,-17,9,60,27,12,11,3
1490654359660,-14,-51,-35,-38,-36,-23,-11,-15,-14,48,24,23,15,11,-4,12
1490654359708,17,8,-6,14,11,0,1,44,-21,-21,2,-63,-84,-32,-12,-58
1490654359762,-8,15,22,-37,-22,-5,-11,0,-19,-49,-27,65,54,14,3,8
1490654359806,-20,20,-2,6,-13,-20,-17,-31,4,-6,-10,-28,-8,3,-1,-5
1490654359853,-24,-18,3,57,45,27,18,12,-14,-8,-5,-62,-37,4,-13,-13
1490654359855,-4,10,52,41,20,-2,4,7,-6,-16,-19,0,-6,-8,1,28
1490654359903,-15,25,-4,5,-5,-11,-15,17,30,24,-7,-3,-2,3,-8,7
1490654359952,3,30,-30,-13,-6,-2,8,0,-12,-46,13,-8,-6,2,8,1
1490654360000,5,17,31,-10,-14,-5,2,8,1,7,-43,-8,27,9,11,30
1490654360049,0,-1,8,0,8,18,33,27,-26,6,-25,-13,-9,-9,-5,-13
1490654360098,13,5,-2,-6,5,3,-6,-6,-5,-30,-9,1,-2,3,17,21
1490654360099,-7,-13,23,22,13,-4,21,21,6,-34,3,6,3,-3,-28,14
1490654360152,-11,-64,-12,15,14,9,0,-13,-13,94,-4,-12,-9,1,4,17
1490654360195,-2,-16,-27,-5,11,15,10,30,0,-40,-5,-10,-9,-1,-5,-21
1490654360244,11,-37,52,11,10,17,93,99,-7,-8,-23,-13,-1,-5,-77,-62
1490654360292,26,37,-18,-16,-10,-1,-17,6,7,-4,-13,15,15,17,-1,25
1490654360294,61,91,30,-15,3,-11,-48,-71,-2,-30,-7,-20,-23,-17,10,-50
1490654360342,-8,-72,15,14,18,3,15,43,68,127,-34,2,3,11,27,51
1490654360390,16,69,-32,5,-10,-3,44,12,10,-28,-116,-79,-18,-30,-104,-79
1490654360439,-31,-22,26,16,7,10,21,-13,65,19,35,19,11,12,-5,29
1490654360488,-8,121,24,12,1,2,-41,-63,-29,-92,-8,17,11,9,39,28
1490654360536,-1,-58,-1,-15,5,2,-5,-12,-40,-58,-17,-27,-15,-7,-1,-30
1490654360538,2,-42,20,2,2,-19,-97,-37,-5,0,-39,-13,-10,4,-11,-9
1490654360585,-13,7,-15,-9,6,10,82,7,-6,-12,-4,24,7,-7,-87,-4
1490654360634,-2,-13,-5,-2,-12,-12,-35,-40,13,-32,-17,-15,-16,-1,7,44
1490654360683,11,5,39,22,1,3,13,9,5,15,-11,7,6,17,39,12
1490654360731,-6,54,-19,-24,-7,-9,-47,7,13,22,13,15,5,-3,29,8
1490654360732,-4,10,-32,-11,-11,-4,0,5,-20,7,-7,12,9,2,-18,-1
1490654360780,37,7,-1,35,12,12,10,2,12,28,20,0,-1,-2,-10,8
1490654360830,31,42,-4,4,-2,6,7,39,-11,1,43,6,9,-5,0,-42
1490654360878,-2,16,55,-7,-19,-24,-31,-21,-14,-58,-33,1,8,4,-7,37
1490654360927,14,-42,-31,-1,-2,-19,-14,-5,-4,59,46,-9,-10,-17,-66,-26
1490654360975,0,9,16,4,2,9,-3,13,-3,11,-9,-13,5,-7,-33,-29
1490654360976,-26,-23,6,-5,-6,-7,-13,3,5,20,-25,-6,-4,-2,8,-17
1490654361024,-2,7,7,5,2,1,24,-36,-7,-3,-3,-26,-19,-15,-17,16
1490654361073,-17,-43,2,-3,-10,-11,-2,7,-8,16,-1,33,21,5,2,-1
1490654361122,-27,-60,-25,-15,-17,-7,0,-13,-19,15,5,10,10,7,30,38
1490654361171,23,76,-54,-49,-3,4,-5,10,16,-46,24,39,3,-4,17,5
1490654361219,1,-5,25,-5,-10,-1,2,-11,44,7,-47,21,57,31,16,25
1490654361222,3,28,37,40,15,6,-26,-24,-4,-2,-21,-35,-14,-5,-2,6
1490654361269,-12,-34,35,9,11,-8,-9,-5,-16,-6,7,42,24,-5,-7,-4
1490654361317,0,-10,-1,-23,-30,-10,18,15,-7,10,-4,-16,-19,-7,2,-30
1490654361366,16,36,-23,-7,0,7,13,26,8,15,-1,-16,1,1,9,-18
1490654361413,-53,-27,5,26,1,4,0,-55,21,-2,-26,-49,9,11,0,15
1490654361415,13,12,34,55,37,19,-20,-9,-13,-35,28,-14,-30,-18,0,3
1490654361463,16,4,-65,-22,26,20,16,-10,-11,-4,74,2,-13,-15,-24,-9
1490654361512,19,-4,-13,-48,-51,-38,3,17,3,20,2,-13,4,2,-16,-10
1490654361561,-29,5,5,2,10,-5,17,-11,35,-34,-15,54,20,33,28,-10
1490654361610,13,-74,-47,-11,11,-4,-1,16,-8,20,6,9,35,27,7,-28
1490654361658,0,20,-15,-28,6,20,6,-6,-17,-7,2,3,-2,-3,-8,28
1490654361660,-26,6,35,27,4,-4,-12,-1,15,41,-23,-46,-4,4,0,22
1490654361709,-4,-7,8,-5,-6,-12,-21,-52,-7,13,0,41,19,8,18,9
1490654361760,4,-8,-6,20,20,4,-15,0,-11,-26,18,53,24,22,25,3
1490654361804,3,-49,-59,-19,34,8,35,7,6,1,62,56,20,-2,-50,-19
1490654361853,-10,91,23,-46,-63,-22,5,-40,-17,-65,-23,37,33,-1,14,-7
1490654361901,-10,-2,-11,30,25,15,29,26,4,17,-13,30,14,5,-13,3
1490654361903,-1,-95,-22,-47,-39,-14,7,48,-2,24,21,52,47,9,-58,38
1490654361951,25,13,-11,9,25,6,-26,17,-31,8,-13,-16,-26,-17,22,4
1490654361999,-37,-33,20,20,15,15,45,-25,-21,-88,-49,-33,-17,-10,-40,-79
1490654362048,-30,-39,-21,-16,-2,-2,11,-7,12,-9,8,0,7,9,3,24
1490654362096,16,11,-31,-9,-1,-11,-10,-31,-7,20,9,-3,-18,0,-3,24
1490654362097,-29,-30,-40,-14,20,4,9,13,6,27,35,16,29,6,4,-8
1490654362145,-9,7,-11,-7,-9,1,-27,26,17,32,4,6,-2,7,45,28
1490654362194,-3,-17,-14,-20,-13,-3,22,23,8,-3,-4,2,-3,-6,-7,-35
1490654362243,-20,15,-9,-23,-23,-24,-40,-2,10,-29,-8,-8,0,6,-10,-11
1490654362292,-24,-75,6,13,2,1,-1,24,-30,-27,2,9,4,13,-15,-97
1490654362340,52,82,-11,-6,11,26,42,-6,19,-56,6,11,10,10,49,77
1490654362342,-38,-36,17,24,2,-3,-1,-15,29,46,-44,-44,-11,-7,23,83
1490654362390,-2,-64,-11,-8,11,19,30,-16,-15,68,-3,7,2,-3,-46,-39
1490654362437,-3,34,20,17,-6,-10,-13,35,13,-3,-36,-17,4,4,43,10
1490654362486,15,46,19,-7,-3,-4,8,32,13,6,26,0,-5,5,35,52
1490654362535,-4,-31,7,-5,-2,-4,-21,-75,19,48,-43,7,3,-2,-2,39
1490654362583,40,16,-30,-12,-6,0,6,52,-28,-9,47,29,14,5,32,8
1490654362585,3,47,64,-10,6,-4,23,103,27,37,8,20,9,2,-37,0
1490654362633,4,27,-19,-11,1,-2,-16,-29,-2,-9,-43,-9,-6,2,15,-23
1490654362682,43,41,4,5,-1,-9,-31,-2,-21,-29,-25,-2,-1,10,33,39
1490654362730,33,-40,-22,-5,-9,-19,-35,61,-39,-7,25,7,-1,-5,6,-97
1490654362778,1,-3,2,1,-5,0,4,-53,-5,-17,2,7,7,8,16,41
1490654362780,-35,-36,-20,-8,-10,-7,-26,-52,29,29,20,11,12,9,29,39
1490654362828,-3,-28,6,11,-5,-6,-2,9,-16,26,-26,-18,-9,-2,-28,-16
1490654362876,-13,20,8,-1,-4,-13,-15,-13,12,-34,1,7,7,6,6,12
1490654362925,-8,-3,10,21,0,-5,-8,23,3,43,2,6,9,10,6,-21
1490654362974,15,18,-5,2,12,3,18,11,-35,5,12,-17,-13,1,16,-14
1490654363023,-7,24,-38,-29,-35,-10,-5,-21,-2,0,6,-3,11,0,5,7
1490654363029,18,-16,53,31,8,1,-15,-29,19,22,-3,3,-7,1,-2,29
1490654363071,6,21,10,32,20,2,-10,1,8,36,7,-23,-24,-13,-11,-9
1490654363120,-29,-11,-20,2,-4,1,10,-9,16,0,-8,-10,9,6,3,3
1490654363169,-10,-5,1,6,14,0,3,16,25,26,-2,1,0,2,4,23
1490654363220,0,-14,-27,-9,9,5,-7,-18,17,28,-14,-11,-18,-3,6,31
1490654363268,-13,19,-3,-11,5,8,6,15,-9,-19,-5,-2,-9,-8,-6,-19
1490654363271,3,11,-20,-23,-5,-3,10,18,-7,-28,8,30,26,7,-2,1
1490654363319,3,-10,3,29,18,0,-1,28,0,23,18,20,20,0,-7,-15
1490654363364,-15,-17,-17,-44,-87,-31,-19,-16,1,-2,15,-1,-5,3,11,5
1490654363413,1,-17,-10,-12,23,13,2,5,-7,-16,20,14,-2,-3,-7,0
1490654363461,-33,-15,-18,-34,-14,2,6,-5,11,39,17,29,7,-2,-5,5
1490654363462,1,24,-8,0,1,-9,-17,-38,-12,-40,-10,37,49,24,14,35
1490654363510,3,25,10,2,1,3,0,-13,5,0,-41,-3,36,14,2,-18
1490654363559,9,-7,29,50,12,11,15,26,-16,-2,-19,-79,-65,-21,-2,-23
1490654363608,5,-10,-5,-14,8,0,-1,-5,-4,16,10,32,23,0,1,8
1490654363658,-1,-20,1,-31,-19,-4,0,3,11,18,28,44,1,-7,-9,-33
1490654363705,1,2,-12,-15,-9,-9,-15,-13,-23,-23,-11,32,1,2,3,-3
1490654363708,12,1,-17,5,17,10,12,41,-11,-18,-18,11,46,29,13,-43
1490654363756,-9,42,17,-11,-53,-40,-3,-29,5,-44,-11,-4,-31,-9,12,24
1490654363803,-6,-10,10,16,3,4,5,8,3,14,-18,-55,14,12,-7,11
1490654363851,-6,26,3,29,23,0,-35,-12,6,16,-10,19,10,1,-13,-21
1490654363899,16,-11,11,-18,4,24,19,40,6,39,20,3,18,-9,-24,-2
1490654363900,7,10,-23,-8,-9,-11,-6,-49,1,5,-12,-55,-31,-2,-13,-9
1490654363949,1,-34,-6,1,-10,-14,-16,33,15,-28,-28,11,18,1,-15,5
1490654364096,-7,12,-5,3,-15,-7,31,17,9,-43,4,-9,6,0,-5,-8
1490654364108,-19,-9,18,27,26,16,15,-30,-39,-27,-3,-2,-4,3,15,-13
1490654364114,-18,-16,21,-2,-2,-10,-38,-85,-8,-27,-13,-11,-6,-4,-25,19
1490654364145,49,-2,-48,-28,-28,-8,8,38,-39,-33,18,4,10,4,-2,-14
1490654364145,24,-11,2,2,-4,5,19,24,-6,8,-24,-13,-6,4,0,11
1490654364193,-54,-22,-3,-26,-23,-18,24,-6,38,8,0,13,9,4,18,22
1490654364241,-15,5,61,26,4,-13,-15,-36,33,52,-32,-15,-19,-2,-6,31
1490654364290,17,-7,-24,14,0,46,51,-8,3,-3,6,-6,-4,-17,-22,58
1490654364339,-4,-23,-8,-15,-9,10,32,-18,-27,-4,18,43,-14,34,75,21
1490654364387,13,17,31,18,44,32,37,-14,-14,-5,-28,-7,13,-14,-8,28
1490654364390,-29,-108,-4,-9,-8,-5,35,53,5,50,24,9,-16,-24,-39,-24
1490654364437,-1,-84,-18,-17,-14,-19,-43,34,-27,-21,16,-13,-10,-9,2,-26
1490654364485,32,-2,-27,-4,-8,0,25,17,-31,42,-27,0,7,1,5,-8
1490654364534,11,43,21,7,14,17,-28,10,3,-6,-16,-13,-8,-6,-2,-4
1490654364582,3,-22,-18,-8,-5,-18,42,-40,-6,-30,-13,-11,-7,-16,-110,-9
1490654364583,-19,-31,34,13,-2,16,8,-13,28,67,-5,-1,12,12,41,15
1490654364632,12,19,4,5,2,1,-47,-12,-37,-87,-3,-19,-8,-3,-2,17
1490654364680,5,9,0,-9,2,-3,59,15,15,20,40,12,-5,-13,-5,10
1490654364729,17,-22,-58,-25,-10,10,9,8,-11,57,-5,-4,2,13,48,-14
1490654364778,25,82,-2,-5,-5,1,-93,19,-30,-69,-11,0,-13,-25,-44,-16
1490654364826,1,18,-7,-5,6,-2,43,7,-10,-23,-16,-22,-3,-1,19,-1
1490654364828,8,3,16,-1,-5,-4,9,-4,16,51,-1,12,6,0,-12,0
1490654364875,-22,14,2,-12,2,-6,-4,2,16,-5,-6,1,-4,3,-19,-13
1490654364924,23,11,-4,29,11,12,5,15,-10,-21,31,4,7,1,9,-7
1490654364973,-28,-5,-8,-7,-6,-1,1,-10,30,26,-10,-1,-2,5,12,2
1490654365021,20,40,30,3,-4,4,-5,-33,-4,0,21,26,5,-14,2,24
1490654365069,-1,38,-12,6,-1,8,25,-14,-4,-51,-7,-21,2,4,3,17
1490654365071,-17,-29,-26,-13,7,2,-4,15,12,29,7,14,-4,3,55,-10
1490654365119,-6,-33,-8,0,3,-4,-9,-15,-11,-5,-28,-9,-12,0,14,-11
1490654365167,24,23,-19,-14,-4,-7,9,12,-11,-20,-5,12,9,3,-17,-20
1490654365218,-1,6,-6,-20,-7,-10,-6,0,-5,-13,16,4,-3,3,-12,10
1490654365266,-6,24,2,3,10,-12,13,-13,12,8,-14,-22,-9,-33,16,10
1490654365270,-41,-30,1,-1,-8,-3,1,-15,20,26,-13,-8,15,1,5,3
1490654365315,-9,20,7,35,9,2,-11,10,-14,-18,-3,-37,-27,-12,-10,0
1490654365364,-10,-17,16,4,6,-1,-1,4,2,-5,-8,-20,-37,-18,-14,-4
1490654365411,-11,12,4,28,-1,6,-4,-6,6,26,-2,-37,-20,1,2,-18
1490654365460,-7,-10,11,19,6,-2,-2,14,16,13,7,-27,-16,-9,-11,-12
1490654365508,-14,-24,-21,-22,3,1,-3,-20,26,32,29,48,33,4,-2,-5
1490654365510,7,-21,-13,-43,-4,10,-6,-32,-35,-5,34,15,5,-1,3,10
1490654365558,-11,2,-21,1,14,3,1,-9,8,19,2,12,28,3,8,-3
1490654365607,-3,4,38,27,-1,-6,3,9,-6,-34,-20,0,11,5,-11,5
1490654365656,-2,-41,-33,-38,0,1,5,12,6,32,16,26,28,3,1,12
1490654365704,-25,1,-8,-70,-75,-24,-2,-1,16,-13,13,29,14,1,-1,-6
1490654365752,21,17,12,33,22,15,10,12,6,10,0,70,73,23,12,1
1490654365754,1,-7,22,21,1,-1,1,7,12,35,-1,-21,-25,-10,7,5
1490654365802,9,12,16,-18,11,7,-13,-13,11,2,13,17,0,-1,7,10
1490654365850,-17,-26,-24,4,-2,-20,-13,-3,26,16,4,69,44,17,6,19
1490654365899,8,-10,-10,53,73,25,9,10,-10,-14,-6,-27,-18,-6,-1,-4
1490654365947,-1,33,7,-35,-50,-9,-12,-14,9,-4,-2,-26,27,21,5,-13
1490654365949,18,-3,-3,7,-9,-5,-5,10,-37,-26,-8,55,58,16,-2,-9
1490654365996,17,-23,-8,31,36,9,7,34,-9,27,0,43,-5,-5,8,-22
1490654366045,-12,-39,-16,-16,-13,-7,10,-8,-8,-21,-20,-21,-5,-2,-22,-25
1490654366094,8,18,28,-63,-103,-33,6,20,-33,-51,-18,35,18,2,3,-10
1490654366143,9,-4,-21,63,71,31,19,24,-21,-25,11,-94,-121,-38,-11,-2
1490654366191,15,55,3,-27,-8,-3,3,-24,5,47,-6,2,6,1,-3,19
1490654366192,-10,-1,-16,-73,-65,-12,-4,-18,36,55,7,-41,-37,-22,-5,32
1490654366241,3,-37,-6,40,45,10,3,-2,12,11,45,48,18,15,2,54
1490654366289,12,-66,-17,-49,-7,-6,8,34,11,71,-11,29,16,-4,-19,-10
1490654366338,3,-9,37,37,-1,-1,2,33,-13,-9,-8,-13,13,-2,-2,-43
1490654366386,18,-60,-31,-62,-81,-25,0,15,25,84,46,35,37,11,1,16
1490654366387,-25,86,13,10,23,10,-11,-11,24,19,-23,-18,-8,-1,3,31
1490654366435,-25,11,-1,14,8,-15,-37,6,-21,-96,-77,-39,-24,-11,17,36
1490654366485,-10,-27,25,34,-8,-17,-6,-65,0,73,31,-7,10,16,-27,-44
1490654366533,-48,2,-23,-20,1,-2,9,9,-6,-19,-15,38,23,6,-1,-9
1490654366582,20,-24,-29,-6,-5,-4,10,-33,-34,-74,-48,-5,1,2,-32,60
1490654366630,-29,-39,-52,-41,-12,23,91,31,46,57,23,36,21,8,-59,-9
1490654366634,-16,-54,14,17,-7,-51,-76,-36,59,113,-21,-16,8,22,22,-19
1490654366679,-51,-115,-47,-34,7,22,25,-25,26,36,40,39,-11,1,27,15
1490654366727,-88,-85,63,8,3,7,-2,-24,14,-1,14,9,16,27,53,84
1490654366776,22,57,-34,-19,1,2,7,54,-27,-39,-4,-32,-15,-19,24,-30
1490654366826,46,-4,-42,-52,0,4,61,62,-27,-58,57,45,3,-12,-25,-49
1490654366873,-28,21,26,29,7,-4,-15,22,2,-14,-75,-43,-10,-1,27,-4
1490654366875,-16,-23,-32,-20,-11,-17,-47,-4,-7,11,48,13,3,15,21,-35
1490654366923,24,102,30,-18,-6,-18,24,-9,26,-3,-21,1,-10,-9,13,-4
1490654366972,3,-33,-3,3,-11,-11,10,27,-18,-15,-6,-14,0,10,9,9
1490654367020,2,-10,-3,-15,-5,-6,-8,-9,20,10,25,11,-3,-1,5,10
1490654367068,0,23,-10,-11,4,17,21,-21,-13,-7,9,29,-2,-19,-37,-39
1490654367070,4,-4,8,-2,-11,-10,-11,-8,-25,3,14,-8,-1,-9,-36,-15
1490654367118,62,-67,-15,10,15,1,38,47,-29,-28,-25,-21,-43,-85,-48,-14
1490654367166,-42,-26,2,-8,0,1,-41,-2,37,4,-21,-23,-9,4,43,21
1490654367215,21,-1,-10,32,-4,-22,-27,-18,-12,29,-14,-8,-8,1,6,-9
1490654367264,-17,-6,-1,-11,-4,5,28,1,15,3,-27,-13,-2,7,-33,-4
1490654367312,-3,40,-6,11,-5,3,7,-4,-1,-31,13,2,0,-19,-35,1
1490654367314,-8,-24,11,-11,4,8,1,1,20,33,-16,-8,-12,-5,-10,10
1490654367362,8,34,10,10,21,12,3,19,25,24,7,-23,-18,-9,6,1
1490654367410,-10,-20,3,12,22,8,6,5,10,-1,2,3,-8,-8,-2,-16
1490654367459,24,13,-16,-15,-23,-9,8,0,5,15,9,26,32,6,-1,0
1490654367508,6,12,-16,-25,-16,-12,-12,-15,41,11,-3,23,16,10,12,16
1490654367556,-1,5,-21,-13,17,12,5,0,-3,-1,5,-35,-16,0,1,10
1490654367558,-8,-4,2,14,17,2,2,-1,3,-40,7,26,34,10,-6,-2
1490654367607,6,-20,8,-50,-43,-8,-3,6,-1,-20,0,40,12,7,5,-3
1490654367654,2,-10,7,-45,-23,-13,-6,-18,-1,3,39,51,17,0,0,2
1490654367703,-6,24,-2,-2,34,15,11,-3,-11,-17,-13,-9,-2,2,-1,2
1490654367752,-11,-35,-5,47,30,13,2,-2,13,51,8,52,16,6,2,16
1490654367755,8,12,31,44,4,20,16,2,2,7,1,-91,-70,-7,-1,0
1490654367800,5,11,-20,4,-14,-8,-4,4,-5,11,-21,-16,-8,0,-6,-23
1490654367849,11,1,7,43,30,26,4,12,-11,-11,6,-26,-67,-43,-22,-25
1490654367897,-23,-65,6,8,-54,-11,7,-10,23,80,11,-42,-3,-4,2,25
1490654367946,29,34,-10,2,4,-7,-6,6,-6,1,19,36,30,5,-6,-7
1490654367999,15,8,1,-38,-49,-24,2,4,-13,-4,8,37,16,1,-3,-3
1490654368000,-4,-5,26,25,25,16,20,17,-2,4,-4,-11,25,17,20,-7
1490654368044,4,0,-22,31,26,11,4,15,-5,-24,-8,-53,-57,-19,-8,-8
1490654368093,1,-10,-23,12,40,7,-10,-4,-6,-10,-24,-22,-13,4,3,-15
1490654368141,-35,-32,-9,14,31,-1,-2,0,27,43,-3,-9,-20,-9,-23,-7
1490654368191,-31,14,14,28,22,15,-2,-6,44,52,12,31,37,-7,-19,-20
1490654368240,-9,-1,-28,-68,-60,-17,3,14,-38,-62,5,31,28,14,14,15
1490654368242,-14,-29,3,-16,-25,-7,-6,12,22,57,4,49,26,15,12,21
1490654368289,-27,12,-3,43,30,9,-9,-22,38,-2,-17,-82,-63,-14,-4,36
1490654368338,9,-14,-2,-36,-26,-4,-6,-16,2,14,17,35,20,6,6,-11
1490654368385,0,61,20,-30,-15,-2,23,-9,18,-26,9,17,-13,-8,2,2
1490654368434,-59,-93,-36,-21,-15,4,23,-18,-10,73,4,-1,13,7,5,7
1490654368436,23,4,-8,16,-9,-7,17,19,-3,-93,-14,-13,-4,-7,-23,3
1490654368483,34,86,3,-7,-18,-17,13,31,-47,-81,-2,5,-6,-2,20,12
1490654368532,7,-23,-14,6,16,6,-14,-19,-10,24,14,9,11,10,1,-17
1490654368580,-18,15,0,-12,-6,-4,-3,-50,-2,-17,-3,3,6,5,-3,-23
1490654368629,-18,-24,1,6,-1,-9,-18,-8,12,-40,-38,-5,1,-2,-35,-13
1490654368677,-39,-91,27,-17,-13,5,-14,-10,-4,123,40,19,10,-12,-9,-2
1490654368679,11,25,-21,-14,-1,19,4,-14,51,122,10,-26,-19,-8,25,55
1490654368727,37,40,-3,9,-1,4,4,28,15,-31,-27,-15,2,17,24,-39
1490654368775,-21,-6,13,10,2,-5,6,-7,25,4,3,-5,1,8,-24,-22
1490654368824,-9,-37,37,7,-13,-8,-8,9,80,37,39,29,27,17,10,22
1490654368873,4,41,13,9,-2,-13,-65,-101,-17,59,3,8,12,8,30,69
1490654368921,-19,38,-46,-13,-17,-19,-20,-14,23,-33,-9,20,13,7,4,5
1490654368922,-15,-9,-12,-13,-1,3,15,-23,11,2,20,-5,-6,-7,-9,17
1490654368970,20,63,44,7,11,12,3,24,3,-16,-40,-10,-5,4,3,-14
1490654369019,1,-10,27,9,-3,-1,8,-5,0,13,-27,-2,-13,-8,17,18
1490654369069,7,-47,-25,-14,-9,-6,11,11,1,-1,-3,-4,-6,-12,12,12
1490654369116,-3,-2,-22,-10,-7,-5,2,6,-33,-42,-5,-6,2,5,15,-5
1490654369119,-23,-21,-8,-3,0,-4,10,-4,21,37,15,15,17,13,4,-8
1490654369165,17,-5,0,5,-6,-11,-61,8,-11,21,-22,-12,-7,3,-3,-46
1490654369214,16,16,-3,16,2,-1,-1,13,-24,-26,10,-12,-21,-18,4,-15
1490654369263,2,2,-7,7,-6,0,-3,9,-5,6,4,5,5,1,13,-3
1490654369312,-1,-5,12,-20,-25,-17,4,6,22,-29,-12,-12,-34,-10,-2,8
1490654369360,-4,12,-5,10,13,9,18,-5,3,17,-1,-11,5,1,-23,-6
1490654369362,-1,-13,15,-3,13,10,6,-1,-15,-14,-13,-3,-21,-20,-6,-14
1490654369409,7,11,3,10,-4,-1,4,-20,25,31,1,-5,4,3,0,21
1490654369458,-6,13,-4,8,13,8,-2,9,1,4,-13,15,18,-1,4,-1
1490654369507,35,23,4,12,13,3,-1,14,0,-39,1,-6,-13,-5,9,-5
1490654369554,-12,-5,-16,-20,-13,-12,5,-3,-1,-13,-5,2,-1,0,-6,-5
1490654369556,10,1,-8,-2,7,5,-12,-17,-19,-10,15,18,23,9,0,9
1490654369604,-7,32,10,-1,-6,-7,-3,1,11,37,-6,8,21,8,9,7
1490654369653,11,8,3,48,14,2,8,1,-13,-10,-5,-13,2,-5,-12,-18
1490654369701,-10,-22,27,-1,-1,-3,-5,16,-14,-5,7,9,1,-1,-6,-11
1490654369750,-20,-39,-26,-28,-15,-9,9,12,18,25,1,28,28,14,5,0
1490654369799,-21,-14,-1,-18,-28,-9,-16,-15,16,29,5,-13,-1,8,9,21
1490654369800,-12,-18,24,-22,-32,-25,-4,1,0,-5,-13,26,20,-1,-11,5
1490654369848,4,21,-18,14,4,5,13,15,15,-1,-5,-8,2,5,5,2
1490654369897,7,36,-14,-13,-3,-7,-10,-8,-14,-44,-7,4,-1,-7,-9,-13
1490654369945,-3,6,-10,6,-6,-8,-10,-11,-1,0,-20,2,-4,4,9,2
1490654369994,-22,-24,-15,-28,-21,-20,-5,-10,3,-13,-7,-6,-5,-7,-11,13
1490654370042,-27,30,-2,-9,-5,-20,-21,-12,2,7,-7,4,6,9,16,10
1490654370044,-32,-37,-1,15,15,8,8,13,7,27,-5,6,-2,-13,-2,-11
1490654370092,-23,9,3,-73,-59,-25,2,-15,-8,-10,26,6,10,6,-4,-1
1490654370144,13,-7,-11,-38,-34,-10,-3,15,-14,-9,28,28,8,4,0,-10
1490654370189,-6,-39,-15,7,31,16,25,5,-7,43,-21,-54,-37,-14,8,3
1490654370237,6,8,13,65,65,26,11,9,3,1,-15,36,56,25,11,8
1490654370239,29,-19,3,-86,-94,-31,-11,-4,-15,13,7,-13,9,-2,-9,19
1490654370287,-3,-20,-20,59,26,2,-3,-8,-19,-2,34,32,16,-6,-14,-37
1490654370339,-23,13,-7,-68,-75,-17,-20,-11,18,-8,13,-39,-26,8,15,-5
1490654370384,15,33,-25,-41,-20,-12,-4,-3,-26,-34,9,80,41,21,17,7
1490654370433,9,52,3,23,48,20,-13,-8,15,-5,-19,4,25,-9,-4,-28
1490654370481,-13,-22,-19,32,28,12,3,-13,14,17,-11,-7,-20,1,-2,31
1490654370483,-15,-12,25,34,17,5,10,17,9,15,21,14,14,25,24,13
1490654370530,-9,0,21,16,1,0,-26,-7,-21,-2,-26,-20,-5,-6,-7,-6
1490654370580,26,-63,-27,-9,-13,-5,1,-3,-11,-38,43,30,3,2,13,6
1490654370630,57,108,29,0,4,-5,13,8,7,-61,18,-1,-9,-7,-24,-18
1490654370678,-56,-87,14,58,21,2,-33,-16,69,62,-5,-40,-16,-9,-3,16
1490654370726,-32,-91,-47,-16,3,-2,-20,-3,9,20,14,-4,-7,3,-4,-36
1490654370728,33,125,55,18,-7,-17,-5,-9,11,5,23,12,5,7,14,19
1490654370774,-42,-71,23,-4,5,14,22,35,9,-14,-26,2,-7,-3,-6,-19
1490654370823,5,-28,-42,0,5,1,-14,-1,-6,-16,27,-50,-22,-5,-13,-39
1490654370871,18,69,-10,-13,9,11,-5,-55,22,31,50,61,16,13,33,127
1490654370920,-3,-17,16,0,9,9,17,15,-1,-14,24,-35,-18,-20,10,6
1490654370924,12,-79,-39,14,6,1,-33,-49,-42,-31,-29,-22,13,11,21,1
1490654370970,-16,-30,107,7,7,-1,-15,-57,-4,45,-19,35,3,4,-16,-10
1490654371019,-2,-13,41,-10,-17,-8,30,42,4,37,18,-8,11,8,4,30
1490654371066,22,61,-46,-8,-12,-1,26,26,8,51,-5,-8,3,-7,-64,-18
1490654371115,-7,-25,-51,-3,0,6,-8,-9,23,24,42,15,3,4,25,5
1490654371163,-22,-11,3,-3,1,1,-10,6,5,9,-3,-12,-1,3,20,8
1490654371165,-23,-4,-80,-28,-15,-8,-6,-6,-1,-21,-19,11,0,1,24,-2
1490654371213,10,65,16,38,7,2,5,23,-2,-4,-5,-16,7,-1,11,-9
1490654371262,-7,17,-33,-11,3,-3,-1,-11,17,-21,21,2,-9,-6,9,9
1490654371311,-30,-31,1,6,3,-2,-7,-3,40,45,34,10,1,-6,-11,7
1490654371360,-1,4,10,-4,-8,-4,-33,-27,-1,-46,-23,-4,1,-9,-15,4
1490654371407,14,16,22,15,14,5,12,16,-35,-20,20,-3,1,1,-18,-21
1490654371409,12,-34,-5,-11,-19,-13,-19,7,-12,1,-21,2,6,5,17,-18
1490654371457,-25,-26,3,-3,0,1,6,10,3,15,-26,-31,-9,5,9,-1
1490654371505,2,-16,-4,-7,3,0,1,4,-9,-44,-38,-12,-5,6,6,3
1490654371554,-15,-43,-30,3,3,-3,4,-1,-1,16,6,15,3,-2,12,13
1490654371602,-3,-39,-9,-3,8,3,-12,-7,4,-7,-20,-18,-24,-19,-15,-12
1490654371604,9,15,26,41,14,4,2,16,8,28,-16,-31,-15,-3,-1,-11
1490654371651,-2,9,-11,-3,-1,-5,-9,-10,5,1,15,-5,-6,0,7,7
1490654371701,13,11,-14,-29,-24,-5,-5,-2,-30,-26,-2,4,5,1,1,-20
1490654371750,-11,-3,22,-14,-30,-11,-7,-1,13,-3,30,35,28,12,2,12
1490654371798,14,20,-3,11,12,5,2,2,15,23,9,-10,-11,-7,0,1
1490654371846,5,13,21,9,1,5,6,18,-7,-9,-22,-10,-4,0,7,7
1490654371847,-24,-18,-6,-18,-19,3,1,-22,3,-37,-8,1,-1,5,0,35
1490654371895,2,-5,0,-2,2,-9,-12,-6,-32,-7,7,13,13,5,1,-9
1490654371944,-5,5,-6,13,4,-3,-13,-13,8,-19,19,1,-19,-3,4,5
1490654371993,11,23,15,1,2,6,8,-14,1,0,-9,46,17,4,7,10
1490654372041,-2,15,32,-11,-7,10,5,0,-12,-24,-37,-13,-24,-8,-7,4
1490654372042,-5,2,1,-14,-16,-12,-6,-1,7,19,-8,-2,17,4,-9,10
1490654372091,2,1,-7,7,-3,1,9,1,4,-7,28,11,11,2,1,14
1490654372139,-8,-7,-6,32,25,9,9,-8,-10,6,-7,4,9,3,6,2
1490654372187,2,-16,-20,-17,-29,-17,-6,-4,-8,-10,17,0,17,13,-3,0
1490654372236,-4,-11,-8,9,4,9,-2,7,7,-1,0,-8,-8,-1,1,-2
1490654372284,12,22,32,34,22,6,2,-16,-18,-12,-40,-8,14,1,0,2
1490654372286,-3,2,5,21,-12,-13,-6,-3,13,-20,0,35,18,5,-6,4
1490654372334,6,-15,-15,-72,-70,-14,0,15,-27,-15,3,7,-10,-1,8,-20
1490654372382,-11,-4,-2,4,31,11,11,1,4,0,6,-15,-14,-13,-12,-10
1490654372432,-16,9,2,-4,2,8,-8,-20,13,-12,-2,16,24,10,1,-11
1490654372481,-2,-21,-7,8,-8,-24,-21,-19,-5,17,-9,17,-5,0,-2,18
1490654372528,-6,-10,-2,11,13,14,27,32,-17,-12,-28,-25,-5,-14,-21,-49
1490654372530,-3,19,-6,-36,-55,-17,-5,-37,-2,0,29,-40,-32,-10,-5,11
1490654372578,-40,-2,-37,-38,-7,-7,-24,-95,50,65,6,-22,11,10,6,44
1490654372627,12,-5,-9,-85,-74,-34,-29,38,-9,19,26,42,15,9,26,-2
1490654372675,-8,1,2,61,52,12,-11,5,2,-2,-30,-112,-85,-33,-15,-7
1490654372723,-48,-21,6,8,21,14,-15,-79,13,0,-17,1,-30,-10,24,71
1490654372725,7,44,-21,6,4,1,7,85,7,-26,24,-50,-21,8,-14,-83
1490654372773,-19,-71,-4,25,35,21,4,15,43,84,0,-8,-6,-10,-22,20
1490654372822,-14,16,-15,-7,10,2,-10,-8,18,9,-19,-12,-17,-10,-4,-10
1490654372870,-40,18,-27,-21,-6,-13,-16,-12,-19,-58,40,3,3,-2,-18,-37
1490654372919,-11,-21,11,33,21,17,3,22,8,40,-27,-18,-7,-7,-29,13
1490654372967,13,-24,11,15,-2,9,31,21,11,-35,10,14,4,0,0,7
1490654372970,18,35,-27,-37,-16,-12,-17,2,-18,3,53,64,34,19,76,-11
1490654373018,-1,0,-22,18,8,13,-10,-39,-22,7,37,-4,-6,-13,-6,-15
1490654373066,-19,-121,-1,16,5,0,0,13,-22,-17,3,-2,10,21,7,-53
1490654373114,40,114,103,54,18,33,19,24,-27,-26,-88,-59,-32,-34,-45,-7
1490654373163,-69,-114,-26,-11,-14,-28,-4,-76,-16,114,-20,-8,-4,8,16,88
1490654373212,20,30,-26,-23,-7,-1,6,30,-13,-46,-11,-1,-14,-15,-2,-4
1490654373214,-31,-81,-10,-20,-21,-32,-8,-19,-16,-40,-22,-17,-3,2,3,25
1490654373261,40,33,-24,-10,2,9,20,31,10,-27,-13,11,2,5,3,-15
1490654373310,-35,35,25,-4,-5,-3,-5,-49,-8,-16,12,15,11,5,1,-6
1490654373358,11,68,-11,-7,-11,-21,2,12,-3,-30,5,-21,-8,-3,8,-11
1490654373406,-19,-14,-10,8,6,-1,-1,16,-6,-23,-8,-6,3,7,5,-6
1490654373407,0,-4,-15,-18,-2,6,-1,-3,-7,-10,20,21,-8,-12,3,16
1490654373456,-10,-45,70,40,9,0,19,-10,30,4,-48,-16,-16,-10,-16,19
1490654373504,6,0,-10,-21,-9,-1,7,32,-10,-8,34,22,-4,-18,-14,-12
1490654373552,-8,2,2,-7,4,5,-8,-1,24,39,6,13,0,1,-3,-6
1490654373602,-18,-14,5,-1,-2,7,5,-22,15,-5,-9,-22,1,8,5,-12
1490654373650,36,52,-1,-11,-7,-5,-11,1,-14,-24,-23,-17,0,6,6,11
1490654373651,1,7,19,18,-1,-6,-9,1,1,22,-17,-28,-14,-3,0,-14
1490654373699,-5,-22,-11,8,1,-5,-1,4,-1,16,11,-3,1,1,-3,-3
1490654373747,8,3,-6,0,-5,-1,-6,11,9,3,0,-1,-6,-4,-9,-23
1490654373796,-11,29,5,-13,-5,4,11,-4,8,-18,-14,8,3,3,12,22
1490654373845,-10,-15,16,23,17,8,2,-5,-16,-1,10,7,-18,-8,-2,-10
1490654373893,-11,-26,6,-8,-4,-6,9,-5,5,24,-2,-1,7,12,4,22
1490654373894,-14,-28,-7,-16,-18,-13,-6,5,5,5,-10,-11,0,1,1,1
1490654373943,-21,8,15,-15,-2,3,2,-46,-2,-26,29,11,7,-3,-13,-15
1490654373991,12,-13,-25,18,6,-2,-4,3,15,16,0,-27,-28,-12,-2,-3
1490654374040,0,-19,9,-14,0,2,-2,16,-7,-3,-6,15,20,12,10,-11
1490654374088,-15,-14,-16,-16,-7,-1,-6,-4,-6,7,17,31,15,0,0,-7
1490654374089,16,-19,3,-18,-16,0,9,-1,-12,-42,-70,-17,-3,-4,-14,6
1490654374138,-4,-11,31,10,-3,4,6,13,11,-3,-20,-15,6,6,3,18
1490654374186,10,17,-7,12,13,6,10,15,-6,-7,6,-4,21,4,-7,0
1490654374235,-14,-33,-11,7,1,3,6,-26,-4,-3,18,11,-5,-5,-1,9
1490654374284,17,24,-11,-25,-8,1,1,18,-7,-24,9,20,6,2,-2,-22
1490654374335,2,-5,-14,27,24,5,-7,-7,0,16,-12,-37,-40,-19,0,16
1490654374339,9,25,21,11,2,2,1,-32,-7,-12,-4,0,-2,1,-5,-8
1490654374381,-13,-25,-22,-1,2,-12,-11,19,0,29,12,2,17,13,1,3
1490654374430,-25,-49,-11,8,-6,-6,2,-22,18,34,-8,-7,4,4,-1,31
1490654374479,0,40,11,22,-3,3,-2,4,1,-13,20,-3,-2,-8,-3,-5
1490654374528,20,23,-5,34,15,10,21,-1,-9,1,3,-10,16,8,-9,-7
1490654374576,-1,-1,1,10,6,-1,-4,1,-5,-18,-4,21,9,7,-1,-11
1490654374578,-5,-30,-8,-10,4,3,0,4,0,-7,-10,16,-7,-11,-17,-23
1490654374625,6,27,6,16,48,26,4,-5,29,9,-7,-8,-44,-22,-14,4
1490654374674,9,-2,-14,-55,-44,-13,0,29,-17,-10,6,16,18,13,8,-26
1490654374723,-8,9,-18,-55,-15,5,21,-1,-4,-17,40,50,76,37,6,-19
1490654374771,31,38,40,-12,-9,-8,7,23,-4,-31,-16,46,48,18,14,15
1490654374772,13,-28,14,-28,-70,-28,-3,-9,11,8,7,31,35,23,10,13
1490654374821,10,7,-21,-55,-59,-21,-13,10,18,14,-7,-3,11,9,0,36
1490654374869,-24,-38,-36,-18,8,24,25,-6,-3,36,28,40,1,-6,-20,6
1490654374918,-17,2,-7,50,49,12,-2,3,-21,-83,-32,-25,-34,-12,-29,2
1490654374967,22,17,-8,-11,1,4,7,-18,-35,-12,4,-9,-13,-18,16,3
1490654375015,-20,14,6,-1,-7,-6,22,-9,21,19,-13,5,28,15,-9,5
1490654375016,-16,-65,-2,0,8,-2,-7,22,-3,35,5,-3,-8,-5,8,-10
1490654375064,-37,2,-31,-16,-19,-17,-21,-2,37,-26,31,41,21,16,3,56
1490654375113,-10,12,-6,10,26,18,11,26,9,-3,-12,-20,-15,-21,-31,-15
1490654375161,-17,-82,-18,21,11,-4,-36,-42,16,108,-37,-42,-15,-9,-21,-37
1490654375210,-24,-54,52,54,35,24,1,29,-38,24,1,-28,-22,-34,-48,-102
1490654375212,-51,-60,-6,-25,-10,-5,31,5,66,87,15,-22,1,9,9,50
1490654375259,6,19,-1,-6,4,13,14,54,-18,-78,-20,-30,-15,-19,-10,-14
1490654375308,99,102,58,43,5,-10,-17,-39,52,37,-31,0,1,15,-3,5
