1490655019189,-7,-11,26,22,-15,-17,-13,-35,-36,-12,-15,-18,9,-8,-4,15
1490655019190,22,19,-26,-60,-13,-5,26,57,-24,-18,26,51,1,5,-3,-14
1490655019227,-93,-30,-18,-97,-18,-13,-16,-5,-4,3,-22,-34,-4,-1,-11,-23
1490655019264,-46,14,-28,45,-6,5,-18,-24,22,3,0,-42,-14,-15,-10,21
1490655019302,-24,-27,54,-2,9,10,22,12,12,15,-10,34,1,-10,-6,-6
1490655019340,-79,30,-21,-24,-1,3,-5,-39,43,20,-6,-18,-14,-7,3,18
1490655019377,-68,107,16,35,10,11,-16,-12,-31,-119,-24,-9,-22,-23,19,30
1490655019414,-128,-42,-32,-21,-1,4,-18,2,83,24,22,20,20,34,36,27
1490655019452,-72,52,56,34,25,56,49,-16,-92,50,-6,-20,-22,-38,-54,-27
1490655019490,-127,61,33,19,-4,-3,0,16,-52,-21,12,-19,-35,-20,-27,8
1490655019564,77,-48,20,9,-2,-3,36,-16,127,-115,-39,-47,-21,-5,-11,-1
1490655019602,82,-10,-39,-30,-14,-13,40,4,65,-57,-19,1,5,-9,-51,-35
1490655019639,-24,127,-20,-21,-23,-20,-6,1,-32,-29,5,10,14,7,77,43
1490655019677,-77,67,-10,-14,-8,-19,13,15,46,84,-33,-19,-13,-21,-19,3
1490655019715,-128,-2,45,21,24,49,-52,-44,85,16,-34,-47,-42,-53,31,60
1490655019752,104,-16,5,7,9,2,56,10,-61,31,1,16,-6,12,-5,15
1490655019790,-5,-88,-19,10,11,0,-56,-16,56,57,4,-12,-9,-5,120,14
1490655019827,-7,59,12,9,-6,-7,28,-43,102,76,-4,-8,5,-7,-22,61
1490655019865,-106,-4,-13,-24,-13,-2,16,10,-4,-17,-2,10,-1,1,-24,-11
1490655019902,121,-111,11,35,25,23,-18,-46,-95,6,10,-5,-2,8,-25,-8
1490655019939,-95,-1,8,-2,0,-3,47,9,71,-83,11,14,4,-3,-70,-60
1490655019977,112,-63,10,9,11,1,-60,-21,12,-27,-10,-17,-14,-22,96,13
1490655020015,46,15,-2,11,3,6,-42,6,-13,21,18,-8,-8,-7,2,-10
1490655020052,56,-11,34,-4,-9,-3,32,-13,35,30,-8,5,9,2,0,29
1490655020090,-111,18,-12,0,-2,2,-6,-27,-115,40,-15,-2,7,12,9,-5
1490655020164,-29,45,16,8,5,17,0,10,57,64,3,-17,-20,-10,-1,8
1490655020202,-29,-55,-4,4,6,24,-12,7,20,-43,-16,-14,-13,-10,30,-7
1490655020239,97,-38,-5,11,10,13,-12,-23,72,1,0,3,2,-15,-41,-16
1490655020277,24,7,-1,-16,-14,-21,-45,-9,-24,13,5,2,4,4,60,-8
1490655020314,-7,-92,2,9,11,18,-4,-16,-21,-62,-19,9,0,-6,-21,0
1490655020352,34,75,-4,-8,-4,-19,-5,-22,-53,63,4,1,-1,-10,-18,-1
1490655020389,-49,-19,41,-5,-2,-11,16,14,-45,-9,-9,6,0,4,-19,-25
1490655020427,-50,5,-8,-1,5,2,-13,-43,56,24,22,-18,-6,-14,-2,3
1490655020464,-38,-36,-12,4,1,8,4,2,14,-80,6,-5,5,-11,-12,4
1490655020502,30,-32,-1,-7,5,-4,-12,8,-76,57,10,4,-10,-13,-13,-29
1490655020539,28,-20,7,-13,3,-3,-4,6,77,-8,24,8,8,7,19,37
1490655020577,74,-69,-47,-16,-17,-9,-12,9,16,-57,-52,-20,12,2,-1,-16
1490655020615,-120,23,16,5,-8,-19,4,-5,75,-49,-34,12,-2,24,-17,-33
1490655020652,-28,38,-32,0,5,-9,-8,-9,22,46,17,20,-20,-21,-32,-39
1490655020727,-16,8,12,6,-7,-17,-19,-31,-22,18,-15,-23,4,-21,3,10
1490655020764,53,10,3,2,3,5,-1,16,-18,9,38,36,-4,-10,-10,-24
1490655020802,-30,8,4,81,-5,9,-28,-40,24,69,-79,3,9,2,18,25
1490655020839,-42,-99,15,-6,7,-2,-7,-7,45,9,22,-2,2,13,4,-12
1490655020877,38,23,-10,11,-2,7,18,38,27,46,1,-11,14,19,25,18
1490655020914,35,-8,-30,2,-6,1,-3,-6,-11,-22,1,-5,3,-7,-9,-9
1490655020952,-44,8,13,24,-4,8,20,24,31,8,-8,-31,6,-1,-9,1
1490655020990,-1,12,-13,-8,6,-2,-4,-1,-18,16,35,24,-5,13,-2,17
1490655021027,19,12,19,-6,4,2,1,-1,-3,19,8,30,14,-1,-13,-11
1490655021064,41,-13,12,-2,-10,18,6,5,-49,-3,41,9,-6,-16,-16,5
1490655021102,4,-7,38,12,8,12,10,-10,-76,-8,17,7,11,33,-14,1
1490655021139,-8,15,-17,4,-23,-31,20,33,-66,-12,-34,-12,-6,40,-8,-29
1490655021177,-6,-64,-93,-75,15,37,17,22,-67,-9,105,92,-5,-25,-11,10
1490655021214,65,-11,4,-26,-5,-8,-42,-81,64,-27,-7,13,-9,-12,3,83
1490655021289,97,-10,4,-4,4,-17,-18,28,59,51,-19,-8,-26,-8,1,2
1490655021327,-11,5,19,9,-11,7,31,35,-46,-60,-22,-37,-9,-28,8,15
1490655021364,-2,-37,-21,-5,4,19,18,11,36,-4,-28,-2,8,9,3,-8
1490655021402,123,-7,-23,-31,-6,-1,-3,-5,-2,-99,-13,-9,1,-17,19,12
1490655021439,55,89,-41,-24,-18,-46,-19,15,-46,65,24,29,19,22,32,7
1490655021477,45,35,-12,18,10,-2,-17,-26,72,-91,4,5,1,-35,-26,9
1490655021514,-42,86,1,-8,-11,-22,40,-26,-128,56,-19,13,5,0,-30,-31
1490655021552,-114,-70,22,17,26,38,114,29,-112,40,41,25,15,-26,-105,-24
1490655021589,-101,66,-20,-27,-22,-43,-13,-100,-69,-47,0,1,7,12,61,79
1490655021627,-29,38,21,20,29,63,115,117,-35,9,11,5,6,-3,-9,-16
1490655021664,23,63,17,7,11,-1,-63,-115,-80,-19,-3,13,0,18,24,95
1490655021702,17,58,-10,-13,-16,10,86,42,29,2,0,2,-4,-14,-38,-14
1490655021739,-39,1,-22,-7,-2,12,69,-2,14,6,6,-6,1,17,26,34
1490655021777,-14,-65,-47,-11,-5,7,29,53,-76,-38,45,13,18,23,50,-43
1490655021814,23,-1,-10,1,2,-12,-31,-12,-38,-32,53,17,0,5,-62,-53
1490655021889,92,-18,3,-6,-11,-8,18,-2,-60,23,2,-17,-12,-18,-46,52
1490655021927,-54,-21,10,-7,-12,-12,-41,-27,-86,-43,-4,-4,-4,-11,28,-1
1490655021965,109,77,4,-3,-11,-45,15,19,-66,5,-9,-5,-13,-4,-10,-25
1490655022002,-69,16,-26,-4,-1,6,-16,-18,75,-22,-12,-7,-7,-11,-12,-5
1490655022039,14,-29,16,4,8,-7,-17,-27,95,-16,12,6,9,16,38,54
1490655022077,-108,-128,-6,-13,-4,-10,-15,-31,-86,-102,6,5,9,6,12,24
1490655022114,-97,3,-11,2,-2,0,7,13,-58,-95,16,1,-1,11,-15,-19
1490655022152,17,86,5,-9,-2,2,6,-15,-101,127,-3,0,7,12,4,3
1490655022192,50,-83,-2,-30,-3,8,-1,7,-5,-62,-32,29,1,-14,-5,-17
1490655022227,8,-46,5,1,-8,-9,-3,-6,20,-51,-12,-8,-6,-12,-6,-12
1490655022265,-9,-24,-6,4,10,11,-1,-6,18,11,4,-3,5,17,0,-22
1490655022302,7,0,-7,-23,-7,-6,-9,-6,-57,7,-1,5,0,-6,-8,-15
1490655022340,28,36,24,-4,1,-5,5,5,-9,12,-28,-14,3,-1,-15,-16
1490655022380,-12,12,-19,-54,-1,11,-1,6,21,54,-7,-9,5,8,31,30
1490655022452,53,-32,34,21,-5,0,-7,0,-30,-6,15,-9,0,2,4,-4
1490655022491,-30,39,32,51,3,4,-8,-16,7,10,0,24,-5,5,-5,-11
1490655022527,-29,5,-9,-28,0,1,-3,-3,45,8,8,30,0,-8,5,18
1490655022565,101,7,0,20,-2,11,14,4,-55,-12,-11,10,-2,-10,1,-6
1490655022602,1,14,-7,11,-2,7,0,-9,13,10,-11,-25,1,1,1,12
1490655022640,14,19,26,21,-3,1,-5,2,-1,-30,0,17,-1,7,19,-6
1490655022677,55,-3,-30,14,-8,-11,3,8,16,-18,41,-3,-4,-4,-11,-3
1490655022714,-73,-14,-68,-22,-12,-18,-7,-8,59,28,43,38,10,13,10,6
1490655022752,-22,-11,2,2,-2,-12,-25,-38,-83,83,3,27,17,23,30,68
1490655022790,-39,80,-33,-44,15,21,-3,3,93,-54,-2,7,-10,-26,-16,8
1490655022827,73,44,-5,-29,7,23,9,13,12,7,22,8,-12,22,8,-1
1490655022865,102,-88,-37,-56,-19,-33,-23,-15,-105,35,10,83,-5,13,-4,-8
1490655022902,10,-128,-38,-49,-5,-10,-27,-30,31,54,41,44,14,3,4,-26
1490655022940,-7,17,14,43,-14,-12,-9,-37,59,-106,-32,-40,-16,-22,-20,-4
1490655022977,-42,75,16,-5,4,-7,-7,0,10,57,-11,15,-5,22,21,-8
1490655023053,-105,61,39,26,3,10,17,30,61,-66,-6,11,-25,-51,-56,-20
1490655023090,-30,45,55,88,23,43,13,52,70,-31,13,-26,-23,-46,-27,-5
1490655023127,17,-98,-20,-69,-27,33,84,-29,-128,-18,-11,36,4,5,-28,-37
1490655023165,-37,-5,7,24,18,-1,-12,-52,20,-37,-53,-2,-21,-13,-81,-42
1490655023202,-73,62,-10,-30,-18,-17,13,28,-49,121,7,2,-1,-26,-15,0
1490655023240,64,-117,8,5,11,36,-3,-14,60,-18,-37,-54,-45,-59,-40,25
1490655023277,64,-54,-1,-22,-20,-28,-25,14,32,7,12,20,26,16,-105,-22
1490655023314,31,-14,6,0,-11,-52,-89,3,62,62,-24,-23,-37,-71,-96,0
1490655023352,99,29,19,15,4,42,111,12,0,31,106,23,8,-8,-36,-26
1490655023389,99,-12,-39,0,-6,-30,-41,-4,127,2,30,0,-1,34,73,4
1490655023427,-87,-13,-30,13,-1,-12,-35,-20,16,-41,-65,14,17,21,17,2
1490655023465,28,-9,52,-15,-8,20,69,15,-38,-93,-6,7,5,6,54,-32
1490655023502,48,7,-49,-7,-7,-10,-59,-8,20,-28,74,3,-4,-3,-43,6
1490655023540,-126,1,27,25,16,20,17,-38,-83,-37,-26,-16,-8,6,44,49
1490655023615,91,-27,1,-7,14,26,33,-2,127,18,6,7,2,8,-17,-18
1490655023653,-19,7,-33,-5,-14,-38,-35,-18,-44,27,-8,9,0,3,5,-2
1490655023689,38,38,-1,-6,-2,-16,-9,22,105,-18,5,-1,3,-8,11,-3
1490655023727,17,-8,-13,-15,-11,-7,1,16,-73,16,5,-5,-3,-19,-28,-7
1490655023764,95,-26,10,2,13,38,41,-7,-21,-44,1,1,3,-17,2,12
1490655023802,89,94,-3,0,-7,-23,-13,-6,51,15,-7,-8,-7,1,8,4
1490655023840,3,42,-7,-5,4,19,4,-7,22,53,6,9,7,6,7,16
1490655023877,-54,12,15,-7,1,7,3,-14,23,-1,-16,11,3,12,-11,6
1490655023915,73,75,5,-12,-3,-11,7,12,-89,-17,-5,18,-6,6,-6,6
1490655023953,25,-62,22,42,4,11,20,8,-60,-9,28,-5,8,9,-2,-13
1490655023989,-32,-51,-14,-11,-8,5,-1,22,42,36,-14,-25,-4,-8,0,5
1490655024029,7,-50,-19,-13,1,2,3,-3,-39,-12,-19,20,1,2,-22,-28
1490655024065,-1,-2,-2,-13,3,0,12,3,32,23,-27,-2,-1,-2,-5,7
1490655024102,-1,-65,20,11,-10,-6,-3,-6,-32,40,-5,11,-1,12,8,11
1490655024177,44,34,-4,-16,-2,-5,-1,3,10,-10,-24,2,4,11,2,-5
1490655024216,-44,-4,-2,-13,-4,-10,-5,-10,-28,6,2,49,5,-3,-10,-7
1490655024253,-8,11,-14,31,-6,-6,0,2,16,-3,-26,-28,1,-8,-5,5
1490655024290,0,-11,8,28,-4,-9,-3,-3,-28,1,-10,-8,8,23,17,9
1490655024327,40,-2,-7,-33,0,-11,-6,11,-32,6,-9,-29,4,0,19,17
1490655024365,-5,-23,-5,25,-2,11,20,28,55,5,27,3,-7,4,3,-1
1490655024439,45,22,-39,-17,-8,12,11,12,20,10,48,32,6,34,-2,2
1490655024476,-28,-41,-41,-90,25,17,-5,-25,-115,71,42,84,1,24,41,68
1490655024513,54,-52,-19,-19,-6,-29,19,41,-26,-46,-38,-29,-9,-9,-41,-48
1490655024515,119,4,28,36,-3,12,-8,-3,16,-38,-43,-48,-4,-19,27,20
1490655024552,0,-14,33,32,7,4,33,26,47,-22,-29,-16,-7,-27,-38,5
1490655024589,49,-14,2,0,-9,-10,-25,-24,-27,6,10,14,-8,-6,26,13
1490655024627,-95,80,1,2,-15,2,-36,-69,33,21,5,0,7,-24,71,84
1490655024664,15,-21,7,-1,6,-7,26,19,-128,101,-24,19,20,47,56,8
1490655024739,-54,-25,-25,-37,-13,-41,-25,33,31,-87,-21,11,13,21,-17,-53
1490655024777,12,1,-29,-19,-24,-34,26,34,103,-21,-1,14,23,30,4,50
1490655024816,-91,-33,-26,-16,-19,-28,-23,-15,12,-86,-10,-7,5,-16,-28,-32
1490655024852,-128,89,-3,0,-16,8,-79,-25,-88,79,8,-4,-10,-29,29,-13
1490655024891,-90,21,27,22,12,14,-21,-59,48,-75,10,-41,-46,-60,-63,-15
1490655024927,-41,-39,5,6,4,24,-35,-9,86,-8,-18,12,12,-12,27,62
1490655024965,63,95,29,-4,-8,-6,52,84,55,-62,-35,-4,-5,-17,-20,4
1490655025002,42,0,13,6,9,28,83,2,-45,-56,-15,1,1,-1,21,-14
1490655025040,16,-12,7,-1,5,4,15,-8,-79,-40,-3,-10,0,28,-5,24
1490655025077,69,60,41,30,31,59,39,7,70,69,-30,-27,-26,-31,-4,16
1490655025115,44,-106,-10,-3,-9,-18,-123,-58,-45,-5,0,-2,-1,15,118,34
1490655025152,-49,1,17,-11,-8,-22,-7,6,58,12,5,8,17,-13,-17,-15
1490655025190,3,-41,-14,-4,-7,-17,-97,-37,-53,24,29,8,3,34,94,51
1490655025227,-31,-4,-3,7,8,16,2,-23,-15,-75,-18,-8,-2,-17,-26,-10
1490655025264,51,107,10,0,8,15,33,20,-53,96,19,-2,-6,-5,-11,-17
1490655025339,-114,-82,-1,-2,-6,-22,-8,-8,-93,-15,-18,-3,-3,-4,-6,1
1490655025377,-7,58,-10,-10,-15,-30,-22,7,-9,-40,-21,-12,-8,-10,-2,7
1490655025414,-96,59,-15,-13,-4,5,16,22,-55,103,13,-4,4,-6,-16,-8
1490655025452,44,84,-7,-1,-3,-2,2,-2,101,-2,-7,-8,3,13,0,-23
1490655025490,61,-103,6,2,13,5,-21,-30,88,-56,-7,2,2,1,34,21
1490655025527,7,-36,-12,-11,3,-12,1,2,-10,62,1,6,-7,1,-8,0
1490655025565,-2,-24,-9,-4,0,7,7,24,-1,7,9,12,8,-1,6,-7
1490655025602,33,22,12,13,3,15,-6,5,-19,11,18,-8,0,-12,-3,-5
1490655025640,-69,5,-4,-3,-6,-15,-11,-17,3,-27,-14,-6,-1,-9,2,17
1490655025677,26,5,0,-8,-1,-6,8,22,-3,13,0,27,9,9,8,20
1490655025715,-14,-16,3,0,1,-19,-16,-23,22,-16,-2,-25,8,25,5,11
1490655025752,-13,10,4,-2,13,8,0,-16,-26,21,23,35,-4,12,3,-2
1490655025790,8,12,30,50,-1,6,3,3,26,2,-15,9,0,11,6,-7
1490655025827,-3,-12,21,-20,-5,-4,-10,0,-14,4,2,21,2,-3,2,0
1490655025902,-6,-18,-10,-5,5,9,2,-5,-26,2,-12,-26,-10,-10,-4,-11
1490655025940,23,4,-2,-10,-7,-6,-1,-8,-2,10,-27,4,1,3,1,3
1490655025977,-53,-8,-1,-61,-9,-21,-9,-15,20,-4,35,30,-12,-6,-17,8
1490655026015,13,12,46,3,-2,4,16,18,-22,-6,12,9,3,0,-5,-12
1490655026054,-31,26,76,27,5,1,8,5,50,-25,27,-30,-6,-14,10,8
1490655026090,32,-19,-47,-53,-18,1,-10,-23,-63,-3,-20,50,-8,19,12,18
1490655026127,73,44,68,7,10,27,34,32,28,-41,30,9,-9,-10,-3,-3
1490655026164,-83,21,-5,-18,18,19,25,15,85,27,-16,20,3,-9,-2,31
1490655026202,-64,0,7,-15,-13,-12,-15,-20,-53,9,-3,20,2,6,-12,-15
1490655026239,7,-64,2,-29,-15,-19,-9,3,-47,-8,-32,-7,-5,-42,-23,4
1490655026277,-77,127,-5,14,14,45,24,-16,95,-57,-1,-13,1,-38,-5,15
1490655026315,-72,39,-1,-17,-2,5,29,45,88,30,-5,11,18,17,-6,-14
1490655026354,-1,76,5,3,1,9,3,0,4,-46,11,12,1,19,9,-15
1490655026390,15,52,-19,-11,-30,-47,-57,18,-13,39,4,26,25,40,48,3
1490655026428,84,-49,6,16,21,-8,10,5,-119,-10,-6,-12,-22,6,-3,-12
1490655026502,-33,35,7,-4,-2,18,10,-12,22,13,13,3,-14,-51,-11,34
1490655026539,66,31,-32,-26,-21,-38,-72,-17,55,-62,-4,2,12,-4,2,18
1490655026579,-17,-38,15,1,10,19,66,0,-40,-21,-17,1,5,12,2,-11
1490655026615,-28,-24,21,1,-4,-25,-19,6,-7,-62,2,41,46,59,28,-31
1490655026652,127,-91,-7,1,-6,-2,6,-12,-87,30,-1,12,-17,-31,-39,15
1490655026690,14,33,-12,-23,-14,21,41,-4,84,59,14,6,1,4,-6,16
1490655026727,-52,-10,27,24,20,9,-14,-35,-27,-6,-12,8,12,10,-40,-49
1490655026765,-23,53,-32,-9,-7,-24,-29,2,29,92,43,8,1,4,0,-6
1490655026802,79,5,-8,23,24,38,46,-4,54,-113,-22,-11,-8,-19,-67,7
1490655026839,-116,-55,2,5,8,16,-41,21,1,25,-18,2,5,-8,36,-8
1490655026877,-46,36,10,16,12,5,-5,-25,-60,69,-20,-4,-12,-4,-20,-14
1490655026915,-19,-120,-7,0,6,-18,8,-9,-35,-78,-14,1,2,24,10,1
1490655026952,111,25,15,-2,3,31,7,-19,76,17,-14,-9,-16,-54,-12,-8
1490655026990,-128,-53,18,-2,-5,-2,-20,16,-29,-24,3,-5,3,18,18,-5
1490655027064,34,-40,-3,1,-7,-35,-63,-35,-74,-70,-10,-9,-10,-10,24,-3
1490655027102,-38,19,-1,-5,0,6,0,8,40,-80,7,-3,-6,-29,0,5
1490655027139,-114,-21,-1,3,12,6,18,0,-32,113,-18,-13,-7,-14,-18,-18
1490655027177,0,-106,2,-5,7,-12,5,7,-29,-66,2,0,9,11,-2,-8
1490655027214,8,-22,-5,-9,8,-4,-2,-20,-57,-32,7,14,24,16,-12,-30
1490655027252,-46,16,9,-5,-10,-16,0,-12,-21,19,0,-4,9,5,-13,-13
1490655027290,-36,8,-19,-1,0,6,13,14,58,9,3,-1,-9,-25,11,32
1490655027334,69,0,18,-9,3,19,-6,-6,6,-11,-12,-14,-7,-14,-3,14
1490655027365,33,0,-8,8,6,-2,0,5,1,-2,-7,17,-2,2,-8,-4
1490655027402,-33,25,-40,-5,-5,3,10,-5,44,13,5,-5,-1,-14,-6,0
1490655027440,-28,-15,-55,-43,-1,-19,-1,-18,-9,-2,2,-15,7,11,6,25
1490655027477,22,10,3,10,2,9,16,32,-38,-11,16,10,2,-2,10,-12
1490655027515,-15,8,21,39,0,3,6,0,-43,21,-30,-24,-12,-5,-2,-5
1490655027552,7,24,-35,-62,-4,2,-4,6,-11,-5,52,85,5,-4,-11,-10
1490655027590,-47,-5,18,18,1,-4,-4,-12,43,-6,1,-34,8,7,-2,6
1490655027665,18,7,-18,14,6,4,7,25,3,0,-11,5,-1,-12,-8,3
1490655027702,-4,-14,-41,9,2,0,-19,-25,-66,5,26,16,8,-5,13,18
1490655027740,35,-9,2,-11,1,1,8,6,32,-14,-5,21,-5,2,17,8
1490655027778,33,10,20,-13,2,-2,-5,16,12,-1,4,6,-1,2,-15,-15
1490655027814,-34,1,16,36,-2,13,2,-10,88,-14,-14,-19,-5,-16,16,25
1490655027852,2,16,7,-3,-2,-4,-22,-14,-72,24,19,31,2,15,7,-10
1490655027889,91,-2,-15,6,11,17,21,35,101,47,4,51,2,9,10,8
1490655027927,23,62,50,6,-5,3,22,17,44,-36,0,-12,5,-4,9,17
1490655027965,-84,-4,-42,-65,6,16,5,-26,-90,21,84,92,-8,13,-2,-25
1490655028002,40,1,72,97,-16,42,38,16,-71,-43,-31,-57,9,3,5,-33
1490655028040,-38,-11,-33,-7,-32,-40,-39,-48,20,37,-14,-80,14,-5,-10,4
1490655028077,-7,-113,-27,-27,5,27,9,19,80,1,32,46,-3,-49,-20,29
1490655028115,14,-26,-16,-1,-18,-8,-22,-21,-87,54,31,49,28,43,19,8
1490655028152,11,65,2,-32,-12,-23,-3,-16,-73,-35,-2,22,7,14,44,-2
1490655028227,-37,-58,16,-5,-11,-15,8,36,-2,3,-5,29,24,34,-5,-37
1490655028264,127,-128,-4,-44,-33,-35,16,81,-123,23,-15,15,22,33,40,-37
1490655028302,90,-100,-2,-18,-12,-18,-20,9,-59,-42,0,-7,5,-2,-17,-24
1490655028340,3,92,-6,4,18,48,5,-1,-67,35,15,10,0,-13,-24,-15
1490655028377,-8,-36,16,16,7,12,-29,-18,-128,-38,13,22,10,22,-34,-36
1490655028414,41,56,23,11,4,21,54,-32,68,26,-23,-24,-29,2,79,9
1490655028452,-36,-12,-16,-9,2,0,45,-4,64,-62,7,24,25,24,-12,13
1490655028490,77,35,-11,-19,-10,-23,51,65,-6,21,-13,-12,-8,-17,-27,-12
1490655028527,-64,73,29,19,27,14,-34,-32,-65,-23,20,14,6,17,-2,-14
1490655028565,-57,-38,-35,-21,-29,-22,-68,-15,76,16,60,-5,-10,-7,48,71
1490655028602,85,10,17,13,10,14,26,11,-25,-41,-35,-17,-12,-12,-75,-21
1490655028642,-3,-22,1,17,10,4,-29,2,21,21,-11,-22,-17,2,68,4
1490655028677,76,23,9,0,3,15,-12,-26,92,-13,-7,-15,-11,-18,-23,-5
1490655028715,-111,-57,-9,-15,-14,-10,5,-31,-36,-126,-12,-2,2,21,-23,0
1490655028790,20,15,-10,-2,1,10,54,24,-39,80,1,0,0,-13,-31,-20
1490655028827,-128,127,-14,-18,-22,-37,-18,-6,-90,127,-7,-9,-11,-3,0,9
1490655028865,60,-58,10,0,5,10,-1,16,-34,-101,0,6,10,13,15,8
1490655028902,-87,-55,51,5,-6,-6,-21,-9,-59,-34,0,-9,14,24,14,-8
1490655028939,-7,45,4,-5,5,19,20,14,93,-60,7,15,-3,-22,-37,7
1490655028977,-51,-16,-10,20,7,-5,-8,-6,-9,0,-9,10,16,28,26,-1
1490655029014,17,-36,-8,-22,-15,-10,-30,18,38,23,15,-11,2,0,-5,-12
1490655029052,-36,40,-6,0,4,12,7,-12,-24,-6,23,-1,9,-1,-6,11
1490655029090,28,0,-12,-2,-5,-10,5,5,8,35,25,16,4,3,-1,-8
1490655029127,17,-1,0,0,3,3,-1,-22,-14,-16,-10,-29,-10,-3,8,9
1490655029165,1,17,5,4,-1,4,18,14,44,19,-24,-43,2,17,4,21
1490655029202,-8,33,16,9,4,-5,-9,-1,-21,18,-11,-15,8,-4,-3,-6
1490655029240,-34,-42,-18,-22,1,-2,-19,-20,17,45,31,0,-3,-7,-1,-7
1490655029277,67,-11,-19,-60,15,17,1,8,18,16,12,37,-5,-6,-5,-2
1490655029314,39,-32,-5,24,-8,-16,-6,-11,-12,-2,-11,-11,3,5,4,3
1490655029389,6,0,8,23,3,-5,-5,-9,-19,-20,-8,-30,-1,0,-9,-10
1490655029427,-35,26,2,5,2,0,6,-9,-39,-11,-18,-4,-3,-1,-4,-4
1490655029465,7,27,-5,7,-1,2,2,17,45,-8,-2,-4,-2,3,-1,-2
1490655029502,77,11,-36,5,6,7,3,32,-34,10,26,-29,-3,6,-8,-13
1490655029539,6,-15,32,6,-2,0,2,-17,-63,32,-16,-45,5,-9,2,12
1490655029577,-77,-24,18,19,14,-5,-23,-12,66,-1,-11,-30,-10,11,15,-18
1490655029614,22,5,-22,-10,-22,-68,6,48,104,-20,-3,-10,4,4,11,29
1490655029652,22,14,34,42,-4,43,17,-10,-128,18,28,43,-1,-13,-3,-40
1490655029689,2,-128,-13,-5,-17,-59,-24,20,118,59,11,3,8,15,-38,-35
1490655029728,105,-14,-9,-8,7,-66,-13,32,11,39,-3,-7,-10,7,8,18
1490655029765,19,-22,-14,24,27,50,0,-8,-128,76,14,13,3,-3,64,10
1490655029802,-6,-34,2,-10,7,15,-26,31,64,90,-3,-19,-14,0,-56,2
1490655029840,-45,-18,3,47,60,102,42,-28,98,-109,-15,-11,-21,-73,-58,3
1490655029877,83,-68,-7,-16,-11,-24,13,56,-40,127,-12,55,67,91,41,-25
1490655029952,125,12,-11,-43,-45,-44,47,96,-128,12,-8,33,37,43,-65,-52
1490655029990,-128,-80,10,29,45,68,95,-23,-30,29,50,-9,-33,-68,10,63
1490655030027,-115,100,-21,25,16,11,-60,-63,52,52,7,-7,-8,-12,2,8
1490655030065,53,-52,-17,-24,-42,-46,-6,57,-51,126,13,11,11,21,-90,-52
1490655030102,0,25,-24,5,6,-3,-91,-73,106,-40,-10,-5,3,-13,-44,33
1490655030140,-88,78,1,7,3,21,77,28,-76,11,-14,-5,-6,-41,-100,-44
1490655030177,-16,82,45,-24,-35,-57,-128,4,68,1,-7,-13,-14,-7,-4,-12
1490655030214,66,2,-7,-28,-32,-62,-11,23,-10,-54,-23,-13,-9,-33,-60,-44
1490655030252,-8,17,-2,-5,3,31,-23,-52,-14,75,17,22,16,24,10,44
1490655030290,7,-111,-15,-1,-1,-1,-61,-41,-68,-39,-3,-1,3,31,93,32
1490655030327,-56,-49,-4,2,3,22,80,51,-83,-80,-17,6,11,4,-48,-44
1490655030365,50,-3,-7,-4,-5,-6,-16,-19,37,37,-8,3,3,16,39,13
1490655030402,-85,40,-44,0,5,13,-59,-6,93,71,54,-12,-11,-14,47,34
1490655030440,-14,108,18,8,6,18,-1,-11,-41,70,0,-5,-7,35,-46,-4
1490655030477,-64,102,-20,-18,-17,-6,3,4,-97,-31,24,-15,-7,-11,20,7
1490655030552,15,-22,-11,1,5,38,30,8,-29,-26,-12,-1,-1,-16,16,17
1490655030589,60,-69,-1,-18,-31,-56,-10,18,-38,-51,-2,-6,-5,-3,38,6
1490655030628,70,7,0,-3,4,2,7,4,-100,-40,8,15,4,0,-12,-32
1490655030664,42,-63,0,-4,6,4,2,-10,15,-3,-7,2,7,6,-3,-16
1490655030702,62,42,-3,-26,4,14,11,6,34,24,16,21,-4,3,-14,3
1490655030739,-2,-22,15,-6,7,-13,5,-7,15,-74,-24,-25,-7,-9,-15,-2
1490655030777,8,20,10,-3,11,0,-9,7,-16,2,-4,-3,-6,-6,-4,18
1490655030815,12,-42,0,4,-4,-10,3,-4,42,-14,-3,0,0,-6,-4,14
1490655030852,-43,30,8,31,-2,-2,-14,-27,18,27,-13,-15,-1,17,23,30
1490655030889,-5,5,-13,18,-4,-13,-9,-1,6,15,-7,-19,-6,-7,-7,7
1490655030927,-10,-2,-14,-46,-3,9,4,-7,-34,14,16,35,1,-9,-19,-23
1490655030965,35,-38,-9,-27,-6,3,8,16,-60,40,12,66,-6,-13,-25,-15
1490655031002,-10,-29,21,32,0,-8,-34,-14,3,32,-11,-37,-5,10,40,12
1490655031040,-42,-3,8,20,-7,-13,-7,0,39,15,-13,8,3,2,-4,2
1490655031114,-4,-8,-29,-36,-10,-7,-23,-18,-50,-7,16,9,-6,-3,13,-19
1490655031152,21,6,31,2,-9,-1,10,32,-14,4,-9,0,12,14,-1,-8
1490655031190,39,-9,18,-3,0,6,14,8,-40,-15,-21,12,-18,-15,-29,-31
1490655031227,34,9,-31,-32,9,4,-5,-12,-17,-14,26,14,-3,-9,-3,4
1490655031264,-68,-29,-18,-77,-1,-10,-20,-12,42,4,-1,-3,-13,-3,14,35
1490655031302,51,-15,-61,-33,12,27,-19,5,7,3,70,17,17,15,22,6
1490655031340,73,-89,18,51,-17,-51,-13,-34,-1,66,-9,-56,-4,16,12,15
1490655031377,-63,65,27,41,5,13,34,30,75,-5,2,-5,28,-4,13,2
1490655031415,-12,-101,-49,-4,-7,6,11,32,14,80,-26,-11,20,61,33,23
1490655031452,-1,67,-23,8,-4,-26,-2,38,-18,-68,-37,-28,-28,5,-15,-47
1490655031490,-46,59,-3,-18,3,30,34,26,-114,22,94,83,40,48,22,-16
1490655031528,-22,47,-14,-1,-30,-30,-13,-5,41,17,16,3,13,16,-37,-7
1490655031565,-37,-128,-32,2,-14,11,-9,-85,73,-121,-10,-26,4,-2,-36,-5
1490655031603,55,62,0,-20,9,24,1,28,33,-110,18,-8,26,34,23,-7
1490655031677,26,91,3,-1,-34,-25,26,33,-70,50,-54,-27,9,2,18,33
1490655031714,0,-67,31,-4,-27,-35,14,92,43,-51,-4,15,8,20,32,37
1490655031752,127,-93,-6,-35,-45,-70,-22,29,-113,54,17,10,15,10,-3,-46
1490655031790,-75,-128,15,30,32,19,-89,-29,-65,-20,-10,-13,-44,-32,36,-37
1490655031827,-42,65,5,2,7,19,32,94,53,-83,-19,3,12,22,-27,-24
1490655031865,-87,-45,-49,-2,2,9,46,-75,3,41,12,6,7,-31,-92,25
1490655031902,127,88,16,-23,-17,-20,-7,26,-39,8,-24,6,-5,7,-18,-56
1490655031940,-51,-54,21,8,-10,-1,-32,-67,-25,25,-4,-6,-19,-9,-27,18
1490655031977,80,83,0,-39,-33,-57,-21,29,17,105,3,7,9,2,-25,1
1490655032014,-81,-12,-8,-2,-6,-1,-12,-17,-3,-74,-18,-8,-16,-27,-19,5
1490655032052,2,-70,-22,2,12,24,-28,-6,-32,-74,48,1,-10,-20,4,-3
1490655032090,-65,-83,-15,-1,3,0,36,2,-76,-50,1,-15,-12,-15,-12,-2
1490655032127,39,-21,11,6,14,-1,0,3,81,31,31,11,16,18,-4,19
1490655032165,71,54,12,8,1,4,22,9,127,35,-28,-15,-16,16,16,-7
1490655032202,77,-3,12,11,14,3,2,8,81,-41,14,3,11,4,-14,-16
1490655032278,-89,127,23,4,-1,-12,-16,-43,-64,-56,-7,-16,-11,17,-4,5
1490655032314,-128,-47,4,-1,-8,-8,-18,-10,-115,-25,-14,1,7,16,17,-4
1490655032352,-57,-11,-2,0,6,-2,-9,-26,83,92,9,6,-8,-21,-9,20
1490655032389,36,2,-39,4,3,-19,-1,-3,-31,-62,60,-8,-6,-11,15,-4
1490655032427,-38,80,2,9,-7,0,8,-13,-5,17,4,-6,-15,-3,-17,-1
1490655032464,-9,-31,10,1,2,-15,-6,2,47,16,31,-6,1,-17,12,4
1490655032502,42,25,-12,8,-3,10,-15,-6,-41,14,55,5,-17,-19,-28,-37
1490655032539,-33,-35,-9,-28,-9,0,17,39,56,-42,1,35,-7,0,8,9
1490655032577,49,-5,-22,6,-4,-5,1,4,-16,-24,7,9,3,-8,-8,15
1490655032615,107,68,4,9,10,7,4,6,-5,-43,-30,-43,-19,-16,-13,-19
1490655032652,11,-4,52,51,6,8,1,-1,-4,3,-29,-11,-6,11,-10,-18
1490655032690,-9,3,27,-1,2,-9,-14,-23,44,-20,-52,12,9,-11,-1,19
1490655032728,-45,-7,-43,-7,-5,-9,10,34,104,21,26,15,-3,-6,14,25
1490655032765,3,15,55,17,14,3,-3,-9,-59,-4,6,-35,-11,-6,-12,-22
1490655032840,-21,15,-41,-29,-17,0,3,2,37,3,6,9,9,-6,9,36
1490655032877,33,-13,-19,11,-12,-20,-27,-32,-51,13,7,-3,-6,-9,-9,-15
1490655032915,29,0,-9,-24,6,34,6,21,-62,9,15,-30,-3,-77,-25,-18
1490655032952,-11,8,14,-6,18,-2,-3,-6,52,-7,-11,11,-4,8,-11,-7
1490655032990,40,-2,-24,-19,-2,-16,-8,-15,-25,25,-26,-24,0,7,15,21
1490655033027,28,3,-4,-25,-3,-1,3,-7,-40,9,22,14,-2,0,-13,-21
1490655033064,35,7,42,24,-2,5,6,9,15,15,3,-21,4,-6,-8,0
1490655033102,-106,-5,-26,-11,-4,3,9,-15,117,4,-4,-24,1,8,-5,32
1490655033139,68,10,15,-11,12,-7,-14,-21,-50,-44,-8,48,-8,-10,41,4
1490655033177,15,72,40,12,-1,11,2,17,-51,63,19,-16,-9,18,15,-8
1490655033214,36,17,39,-9,3,-1,6,12,35,-11,31,38,0,-12,-1,23
1490655033252,40,-49,-4,-21,3,-3,9,12,75,68,-15,-16,-13,-11,3,27
1490655033290,-128,12,61,-11,-8,-6,-8,-26,94,-15,-24,20,5,8,5,4
1490655033327,-42,-68,7,-3,-8,-24,6,5,43,103,57,50,-1,11,14,1
1490655033364,-43,-17,-12,21,-25,1,-14,7,11,-117,-8,-8,10,-15,-26,-26
1490655033440,-64,14,-14,3,15,10,-8,-21,-35,-35,9,-8,-11,-3,19,22
1490655033477,-96,49,-3,-43,-59,-47,-26,14,77,-36,-21,-1,28,-3,-48,16
1490655033520,-109,127,9,-17,-29,-14,-48,-22,90,-25,-60,-30,-18,-34,-5,29
1490655033553,90,-67,-41,-34,-19,-34,3,7,22,-51,20,31,36,22,-48,-52
1490655033589,-73,-83,45,51,44,35,-51,-63,-49,9,-27,-19,-23,-10,79,11
1490655033627,65,89,4,-38,-37,-33,17,36,-106,22,8,22,23,33,-51,-11
1490655033664,2,-61,-9,2,5,0,-21,-31,-113,-65,-12,4,-15,-27,-36,-8
1490655033703,34,74,29,2,-9,-12,-26,-6,23,47,23,9,15,30,62,72
1490655033739,-22,-8,-46,-17,-16,-17,50,34,-4,-10,32,9,-1,6,-10,-13
1490655033777,-1,32,-32,-6,-11,-2,39,2,63,70,31,15,11,7,-39,19
1490655033815,-63,116,15,7,8,-16,-14,-18,90,46,14,-4,8,-8,-35,-6
1490655033852,36,39,24,0,-4,-4,3,-33,-3,-27,26,2,-3,-22,-12,12
1490655033889,-9,-79,-25,0,7,-2,39,31,43,-65,11,0,17,-3,11,2
1490655033927,87,101,-10,-25,-12,35,7,10,-32,19,-6,2,-4,-25,36,-4
1490655034002,65,-29,-14,-8,-2,-23,-62,-9,-83,78,6,11,11,-14,64,7
1490655034040,12,127,2,7,4,42,20,27,-121,6,3,10,16,41,-16,-9
1490655034077,-37,106,40,6,3,24,32,-12,-83,112,-17,-15,-15,-24,39,38
1490655034115,-34,-16,8,1,11,21,4,1,-58,-88,12,-2,-3,-9,-12,-42
1490655034152,-26,-32,-31,1,7,-6,6,2,1,12,20,1,1,-1,7,31
1490655034194,113,-52,-34,-16,-12,8,18,8,49,-89,18,19,8,-28,-17,-16
1490655034227,-35,-32,-9,-12,-10,-36,-2,6,86,-24,-25,-7,-4,17,15,23
1490655034264,-66,-76,-13,4,8,7,1,-3,-46,-2,53,-2,-15,-9,22,23
1490655034302,1,23,17,29,-4,6,1,-2,-21,6,-6,-20,19,-9,1,-4
1490655034339,-9,-4,31,34,20,4,11,0,30,-57,-29,-13,-11,-2,2,12
1490655034377,-10,19,-6,-21,-21,-16,-24,-39,-9,10,-43,-38,-9,-1,3,-9
1490655034414,48,48,-9,-4,-8,-38,-4,21,-5,42,-2,19,-11,-8,0,0
1490655034452,-7,12,15,49,-7,-15,-16,-30,-7,19,-4,-10,12,15,24,44
1490655034490,13,7,7,-15,13,11,3,4,0,18,-26,21,10,25,-8,7
1490655034564,-53,-7,36,119,-14,12,16,12,0,27,5,-16,3,-11,-13,-10
1490655034604,-26,-11,33,-13,10,-10,2,8,-16,9,-47,-39,4,-2,-2,-8
1490655034639,-34,-16,82,20,2,-16,-4,-6,-12,-12,-16,-1,2,2,16,-25
1490655034677,75,8,5,25,-8,-14,-8,6,4,-2,-4,-11,7,23,11,9
1490655034714,-18,-9,-40,-30,0,-9,-4,-18,-64,-8,17,10,-8,-14,-16,5
1490655034752,-25,-13,-6,-5,1,10,-12,-34,-31,13,18,-47,-3,6,-1,-12
1490655034789,15,-13,0,-25,8,12,-8,11,-39,-13,-31,35,11,1,28,21
1490655034829,-32,11,-32,20,-7,13,-17,4,119,17,-7,-54,-1,-24,-8,-10
1490655034864,50,18,83,64,28,21,34,29,39,-20,-7,50,-14,-24,-7,-12
1490655034902,80,20,-13,-76,2,17,7,-3,-66,-41,-48,-20,-18,-27,-9,-8
1490655034939,-42,20,65,-110,15,-9,10,23,-73,-21,-21,13,-23,-32,11,-12
1490655034977,59,-81,-85,-93,60,31,22,19,-62,84,114,102,-27,3,-16,3
1490655035014,93,-26,-84,-38,16,17,-8,0,-55,51,52,15,-2,10,-18,-39
1490655035052,104,57,48,36,27,44,14,30,-31,42,-14,-22,-19,-24,-32,-3
1490655035089,-71,86,51,13,-16,38,69,12,-7,-53,-41,-21,0,-57,-16,70
1490655035164,42,-37,-25,-40,-18,-53,-13,-21,22,-49,-2,-11,5,-11,-23,-9
1490655035202,-30,19,-3,-13,-24,-62,-95,-64,32,-23,-33,-9,17,10,12,15
1490655035239,115,14,19,23,23,51,7,-28,34,-85,-3,-55,-44,-57,-30,17
1490655035277,53,-52,6,-85,-48,-65,-33,63,49,2,9,39,21,36,67,81
1490655035315,119,33,-17,65,-4,-40,-14,2,-128,43,-51,-23,-10,-13,-35,-81
1490655035352,-127,29,13,-13,8,39,31,14,-55,127,3,0,-31,-40,-16,-29
1490655035391,-8,-56,-14,-20,11,3,-5,19,-108,-82,-10,10,9,-3,-34,-29
1490655035428,75,78,-22,-4,25,36,21,24,86,-30,6,5,-2,13,1,-26
1490655035464,29,28,15,8,-7,-5,-46,-5,-67,27,14,2,-7,-6,-2,-26
1490655035501,-68,37,-9,-3,5,-15,-10,-35,-4,-6,4,4,11,9,-5,0
1490655035539,9,-24,-15,-8,-13,-17,-1,10,9,26,-5,-5,1,2,-9,-15
1490655035577,-19,-18,-8,1,-9,-6,38,-20,-10,-15,-19,5,6,5,21,34
1490655035614,93,15,4,-10,-9,-23,-47,-16,-78,-48,6,-5,-12,-7,-6,-19
1490655035652,15,56,-5,-3,2,27,-10,-18,127,0,13,-10,-24,-33,-19,-12
1490655035727,21,127,10,-16,-14,-18,-14,11,-99,125,4,0,5,4,3,-14
1490655035765,-128,-103,-6,2,5,20,8,-17,-48,-110,5,-7,-8,-47,-10,19
1490655035802,0,13,13,13,7,10,2,1,45,82,-10,6,-7,20,10,-7
1490655035840,-125,-20,-9,-12,-2,-10,-6,-10,-124,-41,-9,-26,0,13,1,-21
1490655035877,87,-90,1,-2,3,-20,5,6,87,-54,3,1,-10,6,14,16
1490655035914,-29,67,9,-12,1,-1,-14,-24,-22,64,-8,12,1,-10,-10,14
1490655035952,15,1,-1,37,5,43,17,12,-18,-35,-16,-9,-9,-40,-10,-23
1490655035989,35,-8,2,-2,-13,-30,3,20,-51,-33,2,0,-4,6,3,-10
1490655036027,-41,30,18,53,8,6,-4,-6,4,-1,-5,-18,1,7,-6,-6
1490655036064,-97,-11,0,5,-1,3,-2,-16,83,3,11,9,7,-1,10,39
1490655036102,-29,27,-18,-3,-3,5,5,4,-22,-8,-18,-51,-3,-8,-19,-17
1490655036139,-35,13,-20,-20,-13,-16,-18,-19,-26,53,22,17,-4,-4,-7,-20
1490655036177,-12,-14,-7,-15,-10,-11,-14,-8,-23,-2,9,20,-13,-9,-7,0
1490655036215,-36,-34,-17,28,13,-4,10,6,36,-3,0,-6,-10,-4,-14,-11
1490655036289,-10,-22,-50,-20,-1,6,-13,-13,-23,-4,18,31,-1,-1,5,18
1490655036328,1,-56,32,16,4,11,9,19,59,-22,-35,-34,-14,-2,-8,2
1490655036365,-12,9,-7,-27,8,10,24,8,15,15,0,0,6,-6,20,17
1490655036403,-73,-6,-11,-24,-10,-13,10,13,9,-2,-9,-24,-6,7,6,15
1490655036439,-6,-1,5,17,4,-8,-10,-12,-57,-8,3,-18,9,9,0,-7
1490655036477,12,-52,-41,-19,3,7,12,9,44,-17,30,12,7,8,3,8
1490655036514,-15,19,26,1,-1,1,4,-7,-19,-39,-29,-41,5,-1,-14,-26
1490655036552,48,-2,-1,-56,8,7,17,34,-19,-1,16,85,-7,1,0,-11
1490655036589,2,-25,-32,-87,1,6,-15,28,5,16,31,40,7,-16,-18,-32
1490655036630,50,47,-38,102,-13,35,1,-2,-13,26,-3,-19,-3,-20,-18,-16
1490655036665,90,23,17,3,0,0,16,15,68,-28,1,-22,5,4,28,41
1490655036702,-54,18,60,0,20,65,7,-9,1,-27,-96,-90,-11,-18,-3,4
1490655036739,-98,-1,-64,-49,-23,-40,-20,-24,76,-89,12,55,-8,-30,-24,8
1490655036777,97,123,25,24,-16,9,34,66,21,-1,-57,-28,28,27,16,-8
1490655036814,-30,-52,-27,-17,-11,-39,-28,-26,15,3,11,-1,-10,8,11,9
1490655036889,39,-27,22,11,23,26,-9,-2,-128,91,0,-15,-30,-23,2,43
1490655036927,-118,-71,54,41,31,51,31,-54,52,2,-16,-33,-17,0,-33,-34
1490655036964,77,-121,-10,5,-10,3,-15,-31,-51,101,-10,-26,-26,-44,20,53
1490655037002,54,-23,61,-2,-8,19,14,8,70,-100,-8,8,-5,5,-22,-21
1490655037039,-46,-38,-19,13,13,36,64,-14,-58,22,7,-25,-10,15,-45,-92
1490655037077,101,-53,-29,-42,-41,-88,70,118,-85,-40,-61,8,6,60,-7,16
1490655037114,-98,-128,-37,-32,-27,-8,49,-4,-50,-93,-9,9,20,13,-78,-6
1490655037152,-7,65,-14,2,-14,-16,-60,-42,-30,50,11,-3,-8,-3,28,-17
1490655037189,-119,-37,-18,14,14,17,-4,-29,49,66,24,5,-6,4,-63,23
1490655037227,-98,-85,-7,16,29,21,75,6,54,-75,2,2,-3,-6,-39,25
1490655037264,-81,-44,23,10,6,-2,-35,-14,68,91,39,-6,6,-2,17,15
1490655037302,38,-45,6,-3,-5,23,-20,1,106,104,-22,2,-3,-3,53,38
1490655037339,-31,-43,-17,-10,8,7,-25,16,-10,-91,47,5,6,9,17,-3
1490655037377,60,-40,-26,-10,-9,-12,16,41,-17,27,-67,-11,-11,-23,-25,-19
1490655037452,-64,12,-40,4,4,29,28,-18,90,-37,-4,-26,-18,-9,18,42
1490655037490,116,37,6,3,-6,-52,-23,7,29,60,28,7,6,28,36,10
1490655037527,-30,-128,-12,1,11,10,-3,-13,-87,-128,18,6,10,6,-3,-5
1490655037564,-124,-81,-12,-10,-11,-15,0,-19,-33,-127,15,-2,-3,19,6,-4
1490655037602,-35,41,23,28,0,-9,0,-8,36,31,-10,8,0,-8,4,8
1490655037639,25,-49,-3,-8,-4,-8,6,12,-115,-45,1,-5,-1,11,27,17
1490655037677,104,32,14,11,11,18,-11,-22,86,8,-11,19,12,28,17,-4
1490655037714,-18,7,6,-25,-18,-39,-12,-38,-43,5,41,10,7,0,-8,25
1490655037752,12,25,-59,-20,-2,-12,-7,1,17,-26,69,1,18,71,-7,-18
1490655037789,-18,-9,-17,-5,-2,15,-9,-4,-92,-19,11,-11,-14,-28,-26,-1
1490655037827,36,-26,11,22,-7,-7,13,25,18,13,-6,5,2,-7,-4,0
1490655037864,1,65,34,37,7,5,16,-9,1,46,-24,8,-7,0,26,4
1490655037902,-15,-11,-23,-12,0,14,0,-2,-8,-7,-38,2,-5,8,-10,-7
1490655037939,37,25,14,-11,2,8,15,2,-42,-14,-11,27,2,10,-1,5
1490655037977,57,10,4,-19,-2,2,15,17,-18,10,22,18,-5,13,-16,-10
1490655038052,-71,8,-31,-15,-7,-10,-14,-19,50,-14,5,-17,0,-2,7,5
1490655038090,-33,13,-14,20,8,25,13,12,50,9,-12,-2,-9,-20,6,1
1490655038127,36,-9,-17,-19,4,15,10,-5,-20,-6,23,-28,5,-8,0,22
1490655038164,49,-7,14,-24,15,6,7,41,54,31,-10,-28,13,2,10,6
1490655038202,43,18,1,-22,3,-17,0,2,-22,8,-9,9,-5,10,-6,-8
1490655038239,38,2,2,-11,6,7,-8,0,-27,-11,-12,26,-11,-20,-19,4
1490655038279,30,13,-17,13,7,81,47,7,-27,3,17,11,-19,-46,-11,-7
1490655038314,52,-14,22,29,-13,-32,16,18,12,-32,-81,-114,16,42,11,-7
1490655038352,13,-18,-37,-29,3,15,23,10,23,-21,1,-22,-6,-23,-10,18
1490655038389,-44,43,-13,-39,8,13,-4,-22,50,29,47,93,7,38,12,40
1490655038427,-1,-5,-12,-13,-18,-21,22,27,-63,-17,-21,-6,-3,-41,3,0
1490655038502,65,-24,-5,-1,-17,-68,-52,-2,-111,52,17,33,4,30,23,13
1490655038503,45,116,108,-6,-37,-20,13,38,7,-67,-58,-40,-36,-85,-52,1
1490655038539,-14,-22,3,-10,-38,-8,66,46,53,97,-19,-9,-5,-29,-57,-7
1490655038614,82,14,-18,-7,-1,-26,-18,31,-9,77,2,16,41,101,74,5
1490655038652,-128,102,4,16,17,52,107,59,76,26,-20,-36,-47,-53,-69,95
1490655038689,39,71,-21,-4,-15,-55,-16,-34,-79,-70,-25,28,40,14,-68,-4
1490655038727,64,-39,-38,-62,-42,-73,-25,-3,-76,10,29,35,61,52,12,-69
1490655038764,-128,-102,20,3,-17,41,30,-35,116,33,58,24,25,63,14,28
1490655038802,-49,-69,-22,28,42,30,53,31,-95,-30,58,30,14,-15,43,-63
1490655038840,65,94,11,-4,-12,-9,-20,44,-74,-12,12,0,6,-31,0,-36
1490655038877,18,85,-5,-10,-9,-18,99,23,48,78,7,2,2,-8,-88,-2
1490655038916,-97,62,-8,6,-1,-35,-106,71,-3,80,-41,6,2,28,91,-15
1490655038952,-75,27,9,-3,-8,-13,-6,-5,-128,13,1,26,20,14,-6,-36
1490655038990,51,-16,-27,6,0,20,127,40,39,-6,-78,-28,-17,-6,-87,-5
1490655039027,24,43,11,7,-2,11,-46,-9,64,-33,3,-1,-13,-1,69,48
1490655039064,-98,10,-46,-10,-10,-5,-5,-23,114,86,35,1,-1,11,24,24
1490655039102,14,-45,-20,6,14,41,67,-15,-39,-68,-22,12,18,8,-27,-21
1490655039177,127,89,4,-32,-25,-23,-12,16,7,-8,26,-9,5,2,8,-4
1490655039214,-50,-120,12,8,1,-10,-23,-18,-68,-68,-21,-1,9,40,66,4
1490655039252,88,-99,-10,-18,-12,1,-10,-14,-76,-74,40,5,-4,-25,-22,-17
1490655039326,-16,54,-31,2,3,21,32,17,22,73,-7,-2,-6,-11,-39,8
1490655039328,-55,11,26,18,29,23,23,14,33,3,-7,8,-6,-1,-32,-21
1490655039364,100,-47,22,2,-1,-17,0,-12,68,-99,-26,-2,6,20,-15,17
1490655039477,-25,62,-6,0,16,14,3,-8,-128,115,33,20,15,-2,10,-28
1490655039479,-16,69,24,-12,-8,-10,24,38,44,-33,-20,3,-6,-11,-6,1
1490655039514,43,0,17,-7,11,31,-4,4,-53,-29,11,-6,9,-23,16,0
1490655039517,-56,7,13,-2,2,20,-2,-15,45,-15,-1,-6,-6,-21,-6,6
1490655039591,-77,-44,-19,-32,-4,-11,-6,-1,7,-27,-5,-4,13,10,-14,-3
1490655039630,-12,-27,-21,36,-6,-20,-10,-3,-16,5,2,-5,7,-8,-11,-9
1490655039631,9,-1,33,9,-7,-5,-6,-3,-1,20,-14,29,-3,23,6,4
1490655039701,48,28,-7,-9,-2,-12,6,2,-11,28,22,-20,-5,-6,-29,-10
1490655039703,21,15,-18,-10,-7,-11,-1,2,-22,9,-4,3,-15,-10,-17,-17
1490655039777,-66,15,2,-19,1,0,2,-2,83,-4,-2,14,-3,16,-1,-11
1490655039851,28,-1,-9,40,0,-14,2,5,-24,10,-13,13,-3,-13,-6,-7
1490655039852,42,26,-2,-17,-1,11,-7,14,-12,5,0,-6,-5,0,-4,-13
1490655039889,-13,-18,15,3,-7,-6,14,0,5,2,0,43,-11,-7,-8,-8
1490655039927,66,-19,-31,2,-7,-10,-8,1,83,23,14,-13,-5,6,2,7
