1490317733307,17,3,1,61,-8,38,51,16,33,14,-55,25,-4,104,45,76
1490317733310,-2,-3,-16,-28,5,16,-21,8,-26,-14,49,-25,1,-68,-43,-68
1490317733312,-14,-6,28,-7,-2,-37,-18,-37,14,6,-23,26,-3,43,32,34
1490317733357,10,10,-12,10,-3,16,17,20,-7,-5,5,-23,4,-23,-20,-17
1490317733405,-10,-1,19,-15,3,-11,-21,-24,1,-3,-6,17,-6,17,14,5
1490317733454,5,6,-7,12,-1,24,16,15,1,16,-3,-6,3,8,-1,5
1490317733503,-3,-15,-14,-11,4,-15,-12,-9,-2,-2,-18,5,-5,1,-5,-1
1490317733600,3,4,-19,10,-2,56,9,3,7,-15,19,9,2,-26,9,11
1490317733601,-1,-5,52,-8,6,-26,1,3,-8,4,-7,-4,-2,-25,-5,-16
1490317733602,0,18,-61,5,-7,-8,-2,0,6,10,18,6,0,26,7,5
1490317733649,1,-10,5,-4,2,21,2,8,-5,-3,15,-6,0,-10,-8,-1
1490317733698,-5,-2,-65,-3,-2,-24,-6,-11,8,-35,-76,12,-4,-8,14,6
1490317733746,3,-5,10,7,-14,11,8,3,-3,6,6,-13,8,-7,-8,1
1490317733747,-7,-5,-2,-9,3,-36,-7,-2,-2,6,4,8,-6,-24,-2,-8
1490317733795,6,3,14,10,-3,-12,9,2,7,3,-3,-5,-1,15,2,11
1490317733844,-6,-3,-6,-11,0,5,-6,-2,-4,-3,-7,-2,-4,-6,-7,-8
1490317733893,6,2,5,3,-4,-11,-5,-15,7,2,-64,8,1,4,6,9
1490317733941,5,6,21,1,1,9,11,18,-6,-4,6,-6,-2,0,-6,-10
1490317733990,0,-5,14,-8,-4,21,-9,-1,4,0,-2,6,1,83,3,1
1490317733991,0,-7,-75,-10,53,8,1,1,2,-16,30,6,-22,-18,0,8
1490317734039,16,-22,5,49,-82,-2,7,4,10,3,7,0,37,-19,-10,2
1490317734088,-32,49,-12,-31,-37,-19,-15,-10,-24,15,26,-30,-40,19,8,2
1490317734136,9,-20,10,13,-46,8,6,9,30,-17,-26,24,-65,-11,-12,0
1490317734185,24,-24,-6,27,-31,22,4,10,-7,36,3,6,6,-1,-11,-1
1490317734233,1,19,-21,5,64,-10,6,6,25,-21,1,8,94,46,4,-5
1490317734235,10,-14,-12,-10,-56,8,-9,1,-15,17,-11,-40,-91,21,-14,-7
1490317734283,1,1,6,-26,-4,-27,-4,-11,10,-9,-36,40,-16,56,7,10
1490317734332,27,-27,-18,14,-27,3,13,12,5,11,7,17,95,21,-7,1
1490317734380,-23,7,-4,-26,-68,-3,-18,0,7,-4,11,-4,-91,38,0,8
1490317734428,14,-13,52,12,-17,-53,11,11,7,-11,-72,-12,-81,-1,2,3
1490317734429,7,12,-9,3,51,36,-15,1,-14,9,4,-20,20,-8,-12,-6
1490317734478,9,-11,-7,3,-44,-9,-1,-2,23,-23,11,21,21,19,11,-8
1490317734526,13,-5,11,16,13,17,4,14,5,5,-6,-5,18,-8,-20,5
1490317734575,-2,4,-3,1,2,-5,-11,-10,11,-15,2,11,-13,2,13,11
1490317734624,11,-4,8,5,-64,73,2,8,9,-10,34,11,-35,47,0,6
1490317734672,9,-14,0,12,3,-123,4,3,-7,7,-11,-11,-9,19,-9,-8
1490317734673,13,-12,3,17,-13,-9,7,1,17,-11,-6,21,19,13,8,18
1490317734721,8,-9,-6,12,13,20,-1,4,6,9,-3,4,9,9,0,2
1490317734770,-1,11,0,-5,-7,-1,-8,-1,11,-14,1,12,-7,-1,9,6
1490317734819,19,-17,-4,23,7,10,14,11,8,0,2,4,5,3,-7,-7
1490317734868,6,-3,-1,9,1,1,-7,2,4,-9,-1,7,-8,6,-3,-8
1490317734916,9,-6,6,10,0,3,11,5,11,-2,-1,11,8,-1,0,14
1490317734917,3,3,0,3,3,-1,-4,5,-4,2,-14,-6,-6,-16,-13,-15
1490317734965,-28,-16,30,-20,-8,-5,-5,-20,4,-37,8,16,1,11,14,5
1490317735014,17,-1,6,21,7,-3,0,10,-1,17,14,-3,1,-4,-8,2
1490317735063,1,21,10,-5,-6,-12,-13,-11,4,-7,1,6,-2,2,8,0
1490317735111,10,-8,-2,10,1,4,10,7,8,-3,-6,5,1,-1,0,8
1490317735112,4,-3,-4,2,-1,4,-2,7,-8,15,-2,-2,-3,-7,-4,-6
1490317735160,-4,4,3,-2,-5,-5,-2,-10,10,-9,6,8,7,5,6,6
1490317735209,8,-3,3,9,2,-1,3,4,7,-5,-1,5,0,-4,0,5
1490317735258,3,-11,1,4,-1,7,1,4,0,-5,4,1,-1,2,1,-4
1490317735355,7,-1,2,10,0,-3,2,-1,11,-6,-2,10,2,6,4,5
1490317735355,8,3,-1,8,2,3,1,3,-5,11,-3,-1,-1,-3,-8,1
1490317735366,-10,6,-2,-6,-10,-11,-12,-12,11,-11,-2,13,-1,3,5,-5
1490317735404,13,-10,-4,14,-1,5,8,6,7,-6,-1,9,10,4,3,12
1490317735453,-10,33,-1,-16,-4,-20,-20,-13,4,11,-3,6,-7,-6,-4,-2
1490317735550,6,1,4,5,-4,-4,1,2,26,-26,-2,28,5,17,17,32
1490317735551,9,-14,-2,9,7,16,10,17,-9,6,-3,-13,-6,-10,-4,-19
1490317735552,-6,1,-1,1,-8,-10,-9,-12,7,-2,2,6,-4,3,1,3
1490317735599,10,-11,-7,16,0,10,7,21,3,5,-1,3,3,-4,-8,1
1490317735648,-6,1,2,-5,-2,-4,-7,-7,4,-12,-1,4,-6,1,5,-1
1490317735696,10,-16,4,7,2,4,3,8,6,-8,0,6,6,9,3,11
1490317735745,2,7,0,0,3,-4,-6,-1,-12,9,-5,-10,-7,-10,-10,-10
1490317735793,2,2,3,-3,-9,-2,-3,-9,5,-4,-6,6,3,5,3,0
1490317735795,10,-5,0,6,4,4,6,9,-2,1,-2,-4,-3,-6,-3,0
1490317735843,-5,8,0,-7,-3,-5,-6,-7,8,-3,0,7,-2,0,5,3
1490317735891,7,-2,-5,5,0,5,0,3,9,7,-1,8,3,0,-1,12
1490317735940,1,1,-1,1,1,-3,-1,1,-7,2,0,-7,-8,-7,-10,-11
1490317735989,3,-11,4,4,-7,2,3,-4,14,-10,2,17,2,9,4,13
1490317736037,4,1,1,6,5,0,1,11,3,-5,-7,-2,-4,-6,-6,3
1490317736038,-7,6,1,-8,-6,-6,-10,-8,3,-4,3,3,0,1,3,1
1490317736086,3,-19,0,7,-3,7,5,2,0,-12,0,1,2,1,1,4
1490317736135,4,-1,-6,2,4,-4,0,0,-14,1,-5,-8,-3,-7,-7,-10
1490317736185,7,-3,-3,5,-6,-1,-4,1,13,-7,-8,16,3,7,5,12
1490317736232,16,-5,-1,6,5,8,5,13,2,7,-3,-3,-3,-9,-8,1
1490317736234,-5,8,1,-11,-2,-6,-10,-4,6,-15,-2,5,-4,1,3,5
1490317736282,1,-5,-4,9,-2,2,5,3,2,8,-2,2,7,4,4,3
1490317736331,2,7,-1,2,-1,-7,-8,1,1,0,0,2,-10,-4,-2,-7
1490317736379,5,-8,2,5,0,8,6,4,6,-8,3,16,5,6,3,12
1490317736428,2,-2,-1,2,1,0,0,13,0,-3,4,-3,-4,-5,-1,3
1490317736476,-11,3,-1,-8,-8,-12,-6,-10,6,-8,2,8,1,7,10,5
1490317736477,13,-14,-2,13,4,7,7,7,-1,-1,-4,0,1,-3,-5,1
1490317736526,-4,-4,0,-1,-5,-3,-8,-3,-4,-9,3,2,-5,-3,1,-2
1490317736574,6,-7,-3,6,-2,2,4,7,12,-6,2,11,4,10,7,12
1490317736623,8,1,-3,4,0,1,-2,3,-2,8,-2,-5,-4,-10,-5,-1
1490317736673,-16,5,-5,-12,-9,-11,-8,-10,5,-6,2,4,5,4,3,4
1490317736720,18,-12,4,15,1,10,10,7,1,-1,-2,1,-3,-3,-5,-1
1490317736722,4,9,-2,1,2,-3,-8,2,6,-1,0,6,-4,0,3,-2
1490317736769,5,-3,-2,6,-1,4,5,5,13,-10,-6,13,7,3,1,13
1490317736818,1,-5,1,2,1,5,4,4,-13,9,0,-10,-5,-7,-7,-6
1490317736867,-7,-3,2,-1,-6,-11,-9,-9,13,-14,-1,13,3,11,10,7
1490317736915,9,-7,-3,17,7,11,8,9,1,4,-4,2,0,-3,-6,1
1490317736917,-6,2,-2,-7,-5,-9,-4,-4,4,-8,5,5,-6,4,1,4
1490317736964,5,-16,5,6,3,6,8,6,4,-4,1,3,6,3,1,7
1490317737015,2,9,-7,2,-1,-9,-8,1,-11,7,0,-14,-10,-9,-7,-10
1490317737062,3,2,-4,0,-7,-3,3,-7,12,-3,0,13,5,6,5,8
1490317737112,19,-7,1,13,4,6,4,19,0,5,-2,1,-3,-8,-8,0
1490317737164,-8,3,0,-3,-5,-7,-6,0,5,-1,-1,6,2,0,8,4
1490317737168,7,-3,2,9,3,8,6,4,3,-3,-2,8,0,-1,-3,6
1490317737209,-1,-2,-3,0,0,2,-2,0,-3,5,-1,-8,-9,-6,-5,-8
1490317737256,-2,-8,-2,4,-9,-2,2,-1,13,-20,-5,17,10,10,11,12
1490317737306,14,0,-5,11,3,5,1,13,0,3,0,-2,-4,-6,-4,1
1490317737354,-5,6,-2,-10,-5,-9,-7,-4,2,-4,4,4,-3,5,1,3
1490317737403,4,-13,3,5,3,5,7,3,2,-7,0,2,3,0,2,5
1490317737408,1,4,-1,1,-2,-3,-4,-1,-12,8,3,-11,-7,-9,-7,-11
1490317737455,6,6,1,5,-5,-6,1,-2,17,-10,0,16,6,7,2,13
1490317737501,9,-8,-1,9,6,5,4,9,-6,8,-2,-3,-6,-8,-6,-6
1490317737552,-7,4,0,-10,-7,-11,-8,-11,5,-9,-1,5,0,7,9,4
1490317737597,6,-5,-3,12,2,8,7,9,1,0,0,2,3,0,0,1
1490317737598,-1,5,3,0,-3,-8,-5,0,-3,-1,0,1,-8,-8,-8,-9
1490317737646,3,-12,2,4,-4,2,3,3,15,-8,-3,12,5,7,4,18
1490317737695,4,-4,-5,3,6,4,2,10,-1,-2,-1,-6,-3,-4,-3,-6
1490317737744,-15,5,1,-5,-3,-9,-7,-8,5,-10,1,9,6,8,7,4
1490317737793,9,-7,2,12,5,8,6,7,0,-1,-5,0,2,-5,-1,2
1490317737841,2,1,-3,0,-2,-4,-5,0,-1,-1,-1,0,-6,-1,0,-3
1490317737842,5,-2,9,5,0,2,5,4,11,-7,-5,11,9,7,5,10
1490317737891,6,2,2,6,6,6,-2,7,-6,7,-3,-2,-10,-2,-3,0
1490317737941,-7,7,3,-9,-8,-9,-9,-10,5,-6,-1,4,2,-2,1,3
1490317737988,14,-9,2,18,3,6,8,10,1,-1,1,2,4,-3,1,-1
1490317738037,4,-2,1,2,-1,-8,-7,-1,4,5,1,8,-7,-3,-2,-3
1490317738039,4,-2,2,6,-2,4,5,5,10,-7,-2,12,1,12,9,19
1490317738086,1,-8,-1,3,4,7,5,6,-5,5,1,-10,-4,-7,-10,-7
1490317738136,-13,3,2,-4,-8,-13,-9,-10,11,-13,-5,9,2,6,10,6
1490317738183,12,-7,-4,16,5,14,7,13,1,8,2,2,0,0,-7,1
1490317738232,0,4,1,-3,-2,-6,-7,0,5,-2,-2,5,-6,1,-3,4
1490317738282,5,-14,2,6,0,5,5,5,8,-7,0,4,7,5,4,8
1490317738284,1,8,4,1,0,2,-7,2,-12,8,3,-12,-9,-13,-7,-11
1490317738329,3,2,3,2,-7,-2,-1,-7,12,-7,3,11,4,11,7,6
1490317738378,13,-13,-2,16,6,5,5,15,0,4,1,2,-1,-8,-10,1
1490317738426,-3,4,-3,-2,-6,-3,-3,-1,7,-2,-2,6,0,4,7,5
1490317738475,7,-3,1,7,0,4,6,4,8,-3,-3,7,4,1,-2,10
1490317738523,1,0,-4,1,3,-2,-1,0,-11,4,-1,-8,-10,-11,-7,-16
1490317738525,-2,-5,3,4,-2,-2,-5,-3,13,-20,1,20,1,10,11,15
1490317738573,14,-14,-1,14,9,11,5,15,3,-3,-4,1,-2,0,-2,2
1490317738622,-21,12,4,-3,0,-7,-8,-6,5,-3,0,6,-6,6,2,6
1490317738671,7,-10,2,5,-5,0,4,7,4,-11,-1,2,6,7,3,7
1490317738721,5,-4,-1,1,5,1,2,1,-19,17,0,-11,-8,-13,-13,-12
1490317738723,9,-1,1,8,-7,5,0,2,21,-12,3,30,4,10,12,13
1490317738768,20,-7,3,11,8,12,7,13,2,4,1,-1,-1,-2,-6,2
1490317738817,-15,6,-2,-16,-9,-13,-12,-10,6,-3,0,6,-1,5,4,7
1490317738866,6,-7,-1,17,7,11,11,6,0,1,-3,2,4,2,0,4
1490317738915,3,11,-3,5,-4,0,-7,0,0,-1,1,1,-8,-2,-1,-12
1490317738962,7,-14,1,6,-3,1,4,5,17,-4,1,18,6,10,6,16
1490317738964,4,-6,-4,2,3,0,-6,7,-8,2,-3,-8,-8,-7,-3,-3
1490317739012,-13,10,1,-7,-8,-9,-8,-11,4,-16,-2,9,4,9,10,5
1490317739061,13,-7,-3,10,4,10,3,9,0,2,-1,1,-1,-2,-10,2
1490317739109,1,1,3,-1,-8,-8,-6,1,0,1,2,2,-4,1,1,-2
1490317739158,5,-5,6,6,2,4,13,4,13,-6,-3,9,5,6,1,12
1490317739206,6,7,-1,6,4,0,-4,6,-6,8,2,-7,-7,-7,-3,-2
1490317739210,9,2,3,-8,-8,-6,-6,-3,6,-6,-1,6,3,5,6,6
1490317739255,3,-12,0,17,11,16,11,12,4,-2,-1,1,-1,-4,-6,1
1490317739304,3,0,-1,-3,-5,-4,-7,-2,6,-10,0,5,-3,0,2,4
1490317739353,4,-16,1,4,2,2,6,5,13,-2,-3,5,5,12,1,6
1490317739401,0,-9,-4,0,-2,10,-4,-13,-11,5,2,-11,-6,-15,-5,-8
1490317739402,-5,10,4,-9,-7,-17,-8,-9,6,-17,-1,11,4,11,4,5
1490317739450,13,-8,-1,15,4,12,4,6,-1,12,-2,1,-2,1,5,1
1490317739500,-5,5,-3,-5,-7,-9,-10,2,3,-2,4,5,-5,3,-2,-1
1490317739552,4,-10,-6,4,2,4,9,6,0,-9,-1,6,1,4,0,8
1490317739597,2,6,0,1,1,-2,-5,1,-11,10,0,-11,-6,-10,-5,-5
1490317739645,-5,1,0,1,-5,-3,-1,-3,5,-3,0,9,5,5,1,8
1490317739648,66,-3,-5,6,-8,5,-5,3,-17,10,1,5,-2,-20,19,1
1490317739694,-23,2,-11,-29,14,-2,33,-7,4,-41,15,7,-36,19,44,3
1490317739743,5,-59,-8,11,-19,-1,-10,6,23,47,-37,12,80,17,11,30
1490317739791,-2,16,-18,6,38,33,6,3,25,-21,22,-13,-92,-23,-2,-12
1490317739840,-5,-28,39,12,15,-1,10,9,3,25,-10,33,11,44,13,14
1490317739889,23,13,-18,36,-4,6,13,30,9,-7,-5,4,35,8,-3,3
1490317739891,-23,9,-8,-17,-41,-3,7,1,-9,-14,13,3,44,-3,-6,-2
1490317739940,13,-2,11,8,9,7,3,1,-2,6,9,1,0,5,0,7
1490317739987,-5,-2,-1,3,-18,-1,7,-3,1,-1,1,1,4,-10,-14,-13
1490317740035,0,-4,-2,5,21,-7,7,-1,21,-4,-4,19,1,11,28,14
1490317740083,23,-1,0,8,-15,-6,17,29,8,7,1,-1,-17,-4,-12,2
1490317740084,24,-2,8,-14,9,-5,-13,-1,9,-3,-4,7,2,-2,1,7
1490317740132,1,0,-7,11,12,24,20,5,8,1,-5,4,0,-7,2,5
1490317740181,-2,-1,-3,5,-11,-9,-4,-3,9,2,8,3,8,0,12,-5
1490317740230,4,0,1,7,6,3,6,5,-11,-5,-5,29,19,8,14,7
1490317740279,3,-5,-9,4,-9,10,7,14,-6,-1,7,-13,8,-7,-15,7
1490317740327,-24,1,9,-16,-10,-12,7,-1,5,-6,-3,6,-9,7,13,7
1490317740328,29,-4,-5,14,7,6,8,6,7,1,-3,1,-16,-3,4,6
1490317740376,7,10,-1,7,10,-9,0,3,1,-1,1,0,4,3,4,-1
1490317740425,2,2,-2,10,-16,-4,4,4,-4,-2,-5,13,-6,5,0,17
1490317740474,3,-4,-16,5,-9,-3,5,11,9,-3,6,-8,-21,-15,-23,0
1490317740523,3,0,7,-18,1,-6,1,-2,7,1,-3,9,-1,1,5,7
1490317740571,13,2,-5,22,-15,4,10,5,2,1,-1,4,17,4,1,0
1490317740572,8,-5,2,3,-12,-7,10,4,15,-1,2,6,-15,-2,3,-5
1490317740620,6,2,5,9,2,3,0,6,23,-5,-7,6,-5,4,13,17
1490317740669,9,-1,-4,1,0,-1,7,-2,14,0,4,-9,5,-8,-3,-2
1490317740718,11,-1,1,5,2,4,15,13,4,-6,3,6,-13,5,1,7
1490317740766,55,6,-3,14,-26,-1,13,5,0,13,-5,3,27,-2,-4,0
1490317740767,-2,-7,1,-1,11,-5,26,1,8,-1,-11,7,-61,-7,1,2
1490317740815,0,-2,0,4,21,16,-3,2,22,2,-7,3,8,1,-14,15
1490317740864,0,-3,-3,-2,21,-10,-17,-4,5,2,10,12,15,2,-11,-3
1490317740913,-22,1,8,-5,-1,-7,-3,-24,2,1,-7,17,-11,6,8,5
1490317740961,2,2,0,16,19,10,8,9,4,-2,0,1,-11,-13,4,-1
1490317741009,11,-5,4,5,-5,-9,-21,0,-1,6,1,3,18,11,8,2
1490317741011,6,2,-6,6,-16,2,13,2,0,-3,-6,5,-38,-10,9,6
1490317741059,-7,-4,-3,6,34,2,-7,0,0,2,6,-12,-23,-15,-1,-31
1490317741108,11,-2,6,4,-3,-17,1,7,-7,-2,-1,19,29,11,7,9
1490317741156,-31,0,-7,17,-19,2,9,24,3,-1,-8,-4,-40,-6,-3,1
1490317741204,-10,1,-3,19,15,0,17,1,6,-2,-4,6,-45,-1,5,4
1490317741206,15,1,0,2,-23,-8,-9,2,-3,13,3,3,-17,-3,9,4
1490317741254,8,-3,0,-4,-50,-5,4,1,-37,-9,5,-26,-19,-10,-19,-20
1490317741303,12,-2,6,1,17,5,4,-2,33,3,-11,23,-13,6,29,23
1490317741351,19,0,-7,25,2,7,8,7,3,-5,4,12,10,-16,-17,3
1490317741400,-57,-3,2,-15,-16,-8,1,-11,-2,6,0,4,-18,9,16,3
1490317741448,14,-3,-8,4,-28,8,-25,3,0,-5,-10,2,-17,-7,2,5
1490317741449,4,5,-4,4,36,-3,2,-4,-17,-3,7,-5,-18,-6,2,-22
1490317741498,4,-7,4,7,3,-8,3,0,44,0,-6,22,24,2,43,2
1490317741546,8,4,-11,-3,-43,-8,4,8,-11,0,3,-9,16,-15,-35,2
1490317741595,-2,-5,2,-3,24,-4,0,-12,-1,1,-1,10,-15,-3,5,7
1490317741644,-4,-2,-1,10,6,5,9,7,1,0,-1,1,-21,0,0,2
1490317741692,7,-8,1,5,11,1,6,0,-4,1,7,-6,-19,-12,2,-9
1490317741693,4,1,-2,4,23,1,3,2,19,1,-7,14,3,11,-1,13
1490317741741,7,0,-6,8,-3,-2,-2,10,17,4,1,4,13,-4,4,4
1490317741790,-19,-2,6,4,1,-9,-8,-27,1,0,-7,6,-22,0,10,6
1490317741839,22,-1,-2,25,-18,2,10,20,-5,-1,0,2,10,0,-1,1
1490317741887,-7,3,4,-1,1,-2,-8,-2,-8,4,9,2,-36,-4,-1,-3
1490317741889,2,-2,-3,7,-2,2,7,5,18,-2,0,11,-2,-6,0,23
1490317741936,7,2,3,0,11,1,3,14,23,-2,2,-4,15,-6,-5,0
1490317741985,-20,3,6,-11,-46,-20,-12,-15,-6,-3,-1,-2,13,6,-19,5
1490317742034,23,3,-3,23,12,7,-18,4,-2,3,-3,5,-12,-7,3,-1
1490317742083,8,-1,-2,-6,-12,1,5,-1,-7,1,4,5,-23,-7,5,-5
1490317742131,0,-2,-8,3,-48,4,3,0,-8,-4,-1,16,0,2,-12,7
1490317742132,1,0,-7,3,-19,-1,-1,0,3,-5,6,-9,-22,-6,9,-6
1490317742180,-3,0,14,-2,-3,-16,-10,-27,13,5,-10,10,7,14,6,0
1490317742229,10,0,-11,27,-8,12,6,28,-1,0,-3,4,11,-15,1,3
1490317742278,-10,1,2,-3,26,1,1,-1,2,0,8,6,-39,8,1,6
1490317742326,5,-2,-2,4,11,7,6,3,6,-6,-6,0,1,4,-6,2
1490317742423,-15,1,3,-4,-7,-5,1,-1,-17,1,-1,-3,27,6,0,3
1490317742425,4,-1,1,3,8,7,4,-6,17,2,-1,8,8,6,14,12
1490317742426,39,0,-5,26,28,8,32,40,7,3,-4,5,-4,-4,8,3
1490317742473,-11,0,5,-7,3,-19,-4,-10,5,-1,3,11,3,4,8,5
1490317742521,5,4,2,0,-12,-8,-5,1,-24,-5,-14,5,9,1,11,3
1490317742569,-5,1,2,0,50,-9,2,-3,-5,-2,7,-5,-29,0,-8,-17
1490317742571,2,3,-4,4,-5,-7,3,-2,48,3,-1,35,10,4,-9,15
1490317742619,-10,-2,0,7,-18,-2,-1,-8,-4,1,-12,-4,-6,-3,14,0
1490317742668,18,-1,-3,-9,-1,-2,2,5,6,1,0,5,-2,-3,8,5
1490317742716,-6,1,-3,8,-2,7,-10,5,5,-2,-9,2,1,3,6,5
1490317742765,-3,-3,1,5,-17,-11,-5,-1,-4,-9,8,-6,9,-7,-14,-23
1490317742813,7,-5,4,9,30,7,1,3,13,2,-3,2,-7,1,-18,0
1490317742815,21,-2,2,12,-5,0,5,15,3,0,2,5,-1,-3,16,5
1490317742863,16,0,3,-6,4,-7,-10,-9,4,5,-2,6,-8,-1,4,3
1490317742911,-5,2,-8,14,-15,2,-1,5,-4,-5,0,4,-5,5,4,0
1490317742960,-4,-6,1,4,-20,-4,4,1,1,2,1,3,-2,-6,-7,-16
1490317743009,7,1,-1,6,1,7,0,5,0,-6,-5,8,-3,-2,14,0
1490317743057,8,3,-5,3,-8,2,-3,6,-10,4,5,-8,-3,-6,-8,3
1490317743059,-16,0,10,-4,2,-7,-11,-11,7,2,-4,5,-11,-3,1,7
1490317743107,24,-3,-2,12,3,10,10,5,4,3,1,2,-9,-1,6,3
1490317743156,1,2,-5,2,-20,0,-3,0,-3,-2,7,1,13,-5,1,-2
1490317743204,6,-1,6,4,6,1,1,6,-16,4,-9,11,-3,0,15,-5
1490317743252,5,-3,-7,4,-8,-3,6,15,-10,1,13,4,6,-8,-23,0
1490317743254,-7,-2,5,-19,1,-4,-4,-12,11,-1,-9,5,-7,-4,20,9
1490317743302,8,1,-13,25,8,14,-6,10,6,-1,5,1,-7,3,2,2
1490317743350,2,-5,8,6,4,-8,-9,-1,8,-7,-1,8,-2,-9,4,-3
1490317743399,7,1,4,5,2,7,10,3,25,7,-6,5,-8,-3,-4,1
1490317743448,2,2,-1,1,5,1,-1,5,-21,-1,2,-12,3,-7,-16,-4
1490317743497,0,-9,6,-1,1,-3,-2,-14,7,2,-8,15,-1,14,28,5
1490317743500,15,-2,-9,15,1,5,9,21,0,-2,-2,3,1,-5,1,1
1490317743546,-1,-5,4,-2,-9,-7,-6,0,-1,0,-4,7,-2,2,4,3
1490317743595,5,4,-3,5,4,4,2,4,5,3,1,2,-5,8,5,23
1490317743643,-3,-3,0,3,3,3,0,2,-14,-5,9,-20,-4,-11,-17,-5
1490317743691,-3,0,6,3,9,-1,1,-14,3,1,-15,13,5,5,0,8
1490317743694,63,0,-7,17,-5,-1,4,26,5,-5,5,3,12,0,2,-1
1490317743740,-12,-3,4,-7,-2,-6,-7,-4,5,0,-5,7,-8,4,4,1
1490317743789,2,-2,-9,7,1,-4,13,4,4,1,1,2,-6,-1,4,10
1490317743838,-3,1,-6,-1,-5,2,1,1,-6,1,12,2,18,-3,-10,-8
1490317743886,-3,3,2,1,-3,-7,1,0,5,5,-1,6,-2,4,28,5
1490317743935,16,0,-9,9,0,2,-6,13,4,-3,-7,-1,5,-8,3,0
1490317743936,2,-3,-2,-9,-7,-6,4,-2,7,0,3,4,0,6,1,4
1490317743984,7,3,-6,5,-2,9,-1,5,2,3,-5,2,0,-2,-2,0
1490317744033,1,2,4,1,-2,-3,2,-1,-13,-3,3,-10,3,-1,-14,-8
1490317744082,5,-4,7,4,-1,5,5,-1,21,-1,-7,17,-4,-2,25,18
1490317744130,-3,-1,-4,11,4,4,18,24,1,-4,3,4,-1,0,-5,1
1490317744178,18,-1,10,-19,-7,-11,-14,-8,3,1,-4,5,-3,0,2,5
1490317744181,-2,1,-5,8,0,2,24,4,1,1,-8,1,-6,-1,3,2
1490317744228,0,0,-5,3,5,6,5,5,-6,2,5,2,2,-14,1,-20
1490317744277,3,10,3,5,0,-5,6,7,10,2,-4,19,7,7,24,15
1490317744325,17,0,-3,8,5,4,11,27,3,1,-5,-5,-8,1,-3,4
1490317744373,-24,-15,10,-16,-6,-12,-44,-25,4,-4,0,5,3,1,6,4
1490317744375,9,1,-1,18,-2,4,13,6,-5,-4,-2,0,0,2,-4,0
1490317744423,6,3,3,0,2,-2,4,2,0,1,-13,-3,-1,6,-6,-5
1490317744472,6,3,-7,5,-7,-1,10,6,8,6,-6,21,5,1,5,18
1490317744520,5,-3,-5,6,0,-1,8,5,1,-28,8,-9,0,2,-10,-2
1490317744569,-13,-2,3,-9,1,-7,-4,-21,2,6,-2,7,-3,6,14,5
1490317744618,7,5,-10,14,-10,5,10,9,-2,1,3,2,5,-1,-2,-2
1490317744621,4,-5,5,2,-4,-1,-6,5,2,1,1,7,8,-2,4,2
1490317744671,4,2,-2,5,4,5,3,5,8,1,-6,14,-3,3,14,19
1490317744716,1,-1,-6,3,5,7,2,5,-22,-2,2,-15,-1,-10,-3,-3
1490317744766,1,-2,7,-9,-4,-12,-18,-18,14,1,-15,14,1,7,5,2
1490317744813,29,3,-6,14,-4,4,15,19,5,-5,1,-1,1,-1,2,1
1490317744861,8,3,3,-2,-5,-5,-10,-1,9,1,-4,5,5,-3,4,4
1490317744863,0,-2,4,4,5,1,8,3,12,-1,-8,10,0,8,6,17
1490317744910,-4,2,-4,3,-3,-4,1,3,-19,-4,4,-2,4,0,-11,-8
1490317744960,-23,-1,7,-2,10,-5,-6,-22,9,0,1,13,-6,3,6,10
1490317745008,-9,0,-7,21,1,11,19,26,-1,-1,1,1,-10,-6,6,-1
1490317745058,15,0,-1,-3,-5,-6,-4,2,8,0,0,5,7,-6,3,6
1490317745060,2,-1,3,6,-4,4,10,3,8,1,-6,6,8,5,-1,13
1490317745106,-1,0,-6,0,1,-4,-8,-2,-17,-1,14,-5,2,-7,-2,-16
1490317745154,-7,1,4,-2,-13,-10,-7,-18,16,4,-12,12,8,5,-3,7
1490317745203,20,-4,-5,11,-1,1,7,20,5,1,0,1,3,4,4,4
1490317745251,14,-4,6,-5,2,-2,0,-4,13,-2,6,6,-6,-8,10,9
1490317745299,-1,3,1,7,5,2,29,8,9,3,-2,3,-5,1,-12,10
1490317745301,1,-3,0,0,-5,4,-4,5,22,-4,1,-5,-1,-8,-5,-3
1490317745350,6,-2,5,8,8,-3,0,-1,34,2,-12,24,-4,5,17,17
1490317745400,13,3,-5,15,-17,3,9,10,-5,-5,6,-4,6,-4,20,-2
1490317745447,-8,-4,5,-8,4,-2,3,3,-1,1,4,5,10,7,7,5
1490317745495,10,2,-10,2,-4,4,6,2,0,1,-1,-6,-3,5,7,5
1490317745544,5,-5,-2,6,3,5,2,4,-10,1,15,-9,-8,-11,6,-7
1490317745547,8,6,-1,5,4,-4,2,4,19,-4,-11,14,5,2,13,7
1490317745593,16,-8,-6,4,-3,8,8,18,6,3,0,-3,3,-11,-9,4
1490317745642,3,-5,9,-11,-4,-2,-1,5,6,1,-5,5,-5,-6,10,7
1490317745690,11,4,-8,6,-16,-2,-4,4,3,-3,6,0,6,-1,1,5
1490317745738,2,2,5,3,2,-1,-1,-6,-1,4,-4,-5,-8,-2,-1,-22
1490317745739,6,2,2,5,5,3,4,-5,24,-1,-9,18,6,6,8,13
1490317745788,5,-6,3,8,0,2,8,7,-2,1,3,1,4,-5,-11,2
1490317745837,-25,7,14,-10,-8,-6,-3,1,2,2,-5,5,-3,4,5,10
1490317745886,10,-1,-10,19,-2,3,14,0,-1,-4,-2,1,-4,-2,6,6
1490317745934,4,0,0,-3,-8,-8,-3,0,-1,6,0,4,-3,-4,5,-3
1490317745982,4,-1,-2,6,-1,5,7,0,14,-3,-1,10,-1,6,10,26
1490317745983,2,-5,-3,3,2,2,1,-5,-3,3,1,-9,-2,1,-4,15
1490317746031,-13,15,26,-12,-4,-14,10,-11,4,40,-27,22,1,1,19,75
1490317746080,13,-13,-25,8,-3,7,-10,-20,7,0,5,-1,3,-8,-2,16
1490317746129,11,-56,15,9,4,0,5,3,12,-8,3,7,-1,-3,1,-1
1490317746179,23,16,1,7,0,2,9,9,22,-36,-14,15,-3,4,14,5
1490317746227,7,-20,-26,1,1,10,5,1,-36,17,12,-17,-4,-10,-17,-10
1490317746234,-1,8,-15,-4,-2,-12,-8,-12,24,1,1,9,0,9,13,5
1490317746276,32,-3,-6,14,5,11,12,-20,6,2,9,3,-2,-8,0,0
1490317746325,-11,-1,9,-10,0,-4,-11,-1,10,-10,-12,5,0,-1,4,4
1490317746373,12,-9,-18,5,1,4,6,6,6,5,11,0,1,3,5,8
1490317746421,4,1,8,1,-1,0,0,5,-9,1,7,-5,-8,-8,-13,-9
1490317746422,10,1,3,2,-1,-6,4,2,15,-9,-2,13,0,7,23,2
1490317746471,20,-2,-4,11,0,8,11,21,2,-9,-7,0,-1,-5,-8,-4
1490317746519,4,3,10,0,-1,-4,-8,1,9,0,-7,6,1,-1,3,5
1490317746568,8,3,-5,6,-1,5,7,5,5,1,-2,5,-2,3,1,14
1490317746616,6,1,0,1,2,-5,-2,-1,-3,-6,10,-7,-4,-4,-3,19
1490317746664,9,-4,0,7,-2,0,1,-2,34,-4,-6,17,-1,3,11,7
1490317746666,11,0,3,4,-2,4,4,19,2,6,7,2,0,-7,-5,-2
1490317746714,-6,-1,9,-9,-2,-5,-8,-4,7,-5,-9,4,0,1,3,3
1490317746763,13,-10,-10,9,-1,4,10,3,5,-7,5,1,2,4,0,2
1490317746815,5,1,1,3,2,-1,-5,-1,-5,7,3,-4,-2,-4,-7,-13
1490317746860,8,-6,3,6,-1,3,3,1,39,-10,-7,13,0,5,11,15
1490317746861,6,-8,-2,7,-1,1,4,13,6,-4,2,-3,-2,-7,-3,0
1490317746909,-8,7,7,-3,-1,-2,-7,-15,8,-7,-5,5,-2,3,8,3
1490317746958,13,-5,-7,10,-4,1,6,8,4,7,0,1,1,1,-3,2
1490317747008,6,6,6,-2,2,-3,-6,0,4,-6,6,-1,-4,-7,-2,-4
1490317747055,10,-10,-11,6,0,3,2,4,21,-6,-9,16,-1,6,10,16
1490317747103,5,2,3,5,-1,2,3,11,1,3,-1,-3,-3,-1,-8,-4
1490317747105,-2,6,12,-7,-1,-5,-5,-7,9,-2,-5,5,-1,4,4,5
1490317747153,29,-10,-8,16,-1,1,9,4,5,-3,-5,0,1,-4,0,1
1490317747202,6,-3,0,-1,-2,-1,-4,2,9,-4,1,2,-2,-5,-2,-3
1490317747250,10,3,1,3,0,-2,2,6,9,-2,-3,8,0,2,2,7
1490317747302,5,-2,-2,4,-1,2,2,10,-9,4,9,-9,1,-6,-6,0
1490317747349,-3,-3,6,-11,-3,-8,-11,-19,8,-7,-8,5,0,-1,6,4
1490317747350,35,-5,-10,9,-4,4,5,9,9,1,2,1,-3,-2,-3,0
1490317747397,4,8,-1,0,1,-6,-8,2,12,6,4,6,-1,-1,2,-3
1490317747445,7,-1,-2,7,0,1,1,4,12,-3,-3,14,-1,1,4,22
1490317747494,5,2,-7,2,1,1,3,7,-10,4,4,-11,-2,-6,-9,-8
1490317747542,-1,1,7,-5,-3,-2,-7,-12,15,1,0,14,-2,1,9,5
1490317747543,25,-5,-7,9,-4,5,10,17,7,6,2,0,-1,-6,-7,2
1490317747592,-3,-4,4,-1,-1,-4,-4,0,9,-8,-5,3,-3,-3,1,5
1490317747641,11,-8,-4,6,-2,4,5,5,9,3,1,4,0,2,4,20
1490317747689,7,2,0,0,-5,-2,-6,2,-1,13,11,-9,0,-6,-6,-6
1490317747738,8,-3,8,-1,-1,-3,-6,-10,9,-6,-7,17,1,3,7,2
1490317747787,21,-3,-14,9,3,6,6,15,7,-2,-1,-1,-1,0,-2,2
1490317747791,1,4,8,-5,0,-3,-8,-3,11,0,0,4,-1,0,1,5
1490317747835,9,-5,0,6,2,1,5,5,6,3,-4,5,3,2,1,13
1490317747884,5,-2,-2,0,-1,1,-4,0,-13,1,7,-9,-1,-7,-7,-13
1490317747932,9,-4,3,3,-1,-4,-2,-1,24,-7,-9,13,2,8,10,10
1490317747981,14,-2,-6,9,0,3,4,15,6,2,2,2,-4,-6,-7,1
1490317748029,-13,0,6,-8,-2,-5,-7,-5,8,-1,4,4,0,1,2,4
1490317748030,11,-16,-6,6,1,4,13,3,4,-4,-3,1,0,4,-4,5
1490317748079,5,-2,1,0,2,3,-1,-1,-2,6,9,-12,-3,-8,-9,-16
1490317748128,11,2,5,4,-2,-1,-1,1,24,-9,-7,17,0,8,9,12
1490317748178,6,-5,-6,13,-3,6,3,15,7,5,8,-4,2,-5,-5,2
1490317748225,-10,8,2,-10,-2,-7,-7,-9,9,-5,-2,4,-1,2,4,5
1490317748231,14,-2,-2,9,1,1,8,6,4,4,-2,2,-2,0,-2,2
1490317748276,6,1,2,1,-2,-5,-4,0,2,-1,3,1,-2,-6,-7,-17
1490317748323,8,-8,-10,5,-1,-2,-2,1,25,-9,-10,12,1,1,6,8
1490317748374,6,2,-5,6,0,5,-1,10,-3,-1,3,-4,-2,-4,-8,1
1490317748421,-10,-2,7,-10,-4,-8,-7,-7,9,0,-9,6,0,-1,4,6
1490317748468,21,-8,-7,13,2,4,11,3,4,4,-4,0,2,0,-2,3
1490317748469,5,1,2,0,0,-2,-6,-1,7,-4,-4,-2,0,-6,-3,-7
1490317748518,8,-2,2,5,-5,1,3,3,18,0,-4,11,1,5,6,16
1490317748566,3,0,1,6,4,1,2,14,-28,1,6,-8,0,-4,-9,-2
1490317748615,-7,-2,-3,-10,0,-6,-11,-17,9,1,0,6,2,4,7,4
1490317748712,5,-4,-7,18,0,7,6,9,5,-2,-2,2,0,2,-3,0
1490317748714,9,9,9,-2,0,-3,-9,0,10,0,3,6,-1,0,-1,-3
1490317748715,7,-9,-3,5,-2,-1,2,4,14,-4,-4,11,0,3,2,14
1490317748762,2,-4,-6,1,0,0,-3,4,-12,3,6,-7,-1,-2,-5,-3
1490317748810,-2,5,8,-6,-4,-7,-11,-15,12,-5,-6,6,3,2,6,3
1490317748859,29,0,1,13,3,5,7,10,7,-2,0,1,1,-2,-4,0
1490317748907,1,-3,1,-2,-2,-7,-8,2,7,-10,-4,5,-1,-1,1,1
1490317748908,10,-6,-3,6,1,2,7,5,8,-6,-6,6,0,5,3,12
1490317748956,4,6,4,1,-1,0,-5,3,-9,7,2,-11,-2,-7,-11,-9
1490317749005,4,-3,6,-2,0,-4,-4,-9,14,-7,-2,8,-4,0,10,7
1490317749055,34,-10,-8,17,1,8,10,12,5,4,2,1,-2,-5,-5,1
1490317749103,-1,1,4,-7,-4,-4,-5,-1,9,-2,0,5,1,-4,1,4
1490317749150,7,1,4,6,2,-1,3,5,5,-1,-3,5,-1,3,-1,14
1490317749152,3,-2,-2,2,-3,3,1,1,-10,3,5,-4,-3,-4,-7,-12
1490317749200,7,-2,6,3,-2,-3,-4,-6,21,-1,-10,17,0,7,9,9
1490317749249,18,-3,-3,13,3,7,6,13,7,1,4,0,-1,-4,-5,1
1490317749297,-10,9,6,-9,-3,-7,-8,-1,9,-9,-1,3,1,-1,0,6
1490317749345,7,-12,-8,7,-4,3,11,4,6,-4,-4,1,-1,-1,1,5
1490317749347,4,4,3,1,1,-1,-5,1,-7,2,1,-17,-4,-7,-5,-13
1490317749397,9,-3,0,4,-2,-4,-3,1,24,-4,-8,14,-1,3,1,11
1490317749444,8,-6,-6,11,-1,3,1,12,5,3,4,-2,-2,0,-4,1
1490317749493,-11,2,6,-5,-2,-5,-7,-9,6,-6,-13,4,-2,2,4,3
1490317749541,13,-2,-7,8,1,5,1,6,1,5,2,1,4,-1,0,2
1490317749589,5,8,-1,-1,0,-5,-7,0,-1,-4,4,0,-6,-4,-6,1
1490317749590,9,-7,-1,5,-2,1,3,3,28,-4,-6,15,1,6,4,14
1490317749639,9,1,3,7,-3,0,4,8,-7,1,-1,-4,-1,-7,-7,-4
1490317749687,0,4,7,-10,-4,-4,-10,-1,8,-6,-3,7,1,4,5,4
1490317749736,18,-9,-2,10,-1,5,7,5,2,-1,-1,1,2,0,-5,0
1490317749787,3,1,4,1,1,-7,-3,0,8,-2,3,-3,-5,-3,-4,-8
1490317749838,8,-5,-6,5,1,-1,4,5,31,-1,-2,8,0,4,6,12
1490317749842,3,1,-2,5,-1,3,-1,7,5,5,10,-5,-2,-4,-9,-1
1490317749883,-14,2,-2,-14,-3,-9,-9,-15,4,-2,-3,3,3,1,3,4
1490317749931,19,-8,-3,15,1,4,5,8,2,3,-1,2,-2,-4,-1,0
1490317749980,6,6,5,3,-2,0,-4,1,7,2,-1,5,-4,1,-3,-4
1490317750028,9,-6,-3,3,1,2,2,5,9,-5,-7,11,-3,5,5,11
1490317750029,4,-4,-1,2,-2,0,2,5,-15,3,-1,-10,-2,-7,-7,-6
1490317750077,-4,8,13,-6,-4,-6,-8,-16,10,-5,-5,9,2,5,9,2
1490317750127,32,-6,-8,13,-2,4,11,14,7,1,5,0,-1,0,-9,-2
1490317750177,-2,-3,4,-5,0,-4,-6,2,10,-2,0,4,-2,1,4,0
1490317750225,5,-3,-6,5,1,3,7,4,8,0,-5,9,0,4,1,12
1490317750273,0,3,-1,1,-2,-3,-6,6,-10,5,3,-13,-4,-8,-12,-8
1490317750281,-3,2,2,1,-2,-3,-7,-11,12,-4,-4,13,1,2,5,5
1490317750321,17,-3,0,18,-1,5,6,13,6,1,-7,0,1,-2,-4,0
1490317750370,-1,3,1,-4,-3,-3,-3,-4,10,-1,-1,5,-2,-1,0,3
1490317750419,10,-2,0,5,-1,4,6,4,7,-2,-5,4,0,3,2,12
1490317750467,4,3,-4,-1,3,2,1,-1,-12,0,9,-7,0,-7,-7,-10
1490317750515,7,7,6,0,-1,-10,-14,-10,62,-9,-14,46,4,19,23,17
1490317750517,17,0,-2,6,-2,1,-2,20,0,4,-1,4,-4,-6,-4,1
1490317750567,7,2,4,-4,-6,-7,-9,-4,8,-4,4,6,1,2,4,4
1490317750615,12,-9,-14,16,1,12,18,4,5,-4,3,3,-1,-4,-3,2
1490317750664,4,-6,-5,4,-2,-5,-5,-1,2,10,8,-14,0,-6,-13,-11
1490317750711,12,1,5,8,-4,-7,0,-3,19,-6,-3,18,2,7,8,11
1490317750714,10,-2,-7,14,3,5,2,10,7,7,12,3,-2,-3,-6,0
1490317750760,-19,4,4,-11,-5,-9,-10,-11,8,-10,-4,9,1,6,9,4
1490317750809,18,-1,-3,14,0,5,6,8,5,2,1,5,1,2,2,5
1490317750857,7,2,0,4,-1,-1,1,0,4,2,2,2,-2,-6,-4,-12
1490317750906,8,-9,-2,8,0,0,2,2,20,1,-3,16,0,0,4,13
1490317750954,10,0,1,8,2,3,5,13,5,-1,-2,0,0,-2,-4,0
1490317750956,-3,5,6,-12,-1,-7,-11,-12,8,1,2,8,0,2,6,4
1490317751004,18,-10,-6,18,4,6,6,2,7,-6,-1,8,-1,1,-4,-3
1490317751053,5,-3,-6,5,-2,-3,-1,-1,9,-4,-5,0,-3,-2,-3,-10
1490317751102,9,-3,-2,10,1,-5,4,3,12,-8,-1,16,2,5,5,9
1490317751151,10,1,4,10,2,4,2,11,8,4,5,-4,-4,-7,-11,-2
1490317751198,-16,-2,3,-7,-6,-9,-9,-15,9,-6,-6,10,3,5,10,6
1490317751201,19,-4,-7,11,-2,3,6,6,6,0,-3,5,0,4,0,0
1490317751248,7,6,7,4,-3,-5,-9,-1,8,-2,3,6,-1,-4,1,-4
1490317751297,11,-5,-1,7,-1,5,4,4,22,2,2,10,-2,3,2,12
1490317751345,8,-1,1,7,2,2,5,4,-9,12,7,-4,1,-8,-7,-3
1490317751393,0,6,4,-7,-2,-6,-5,-9,15,-3,-3,15,2,1,11,4
1490317751396,27,-2,-3,17,1,5,5,8,6,-1,-2,3,-4,-1,-2,0
1490317751442,4,2,1,3,-2,-6,-6,0,10,-6,1,7,-3,-1,2,0
1490317751491,7,4,-4,3,3,2,4,2,17,-12,-18,23,1,11,15,21
1490317751540,3,1,-9,5,1,4,3,8,-6,3,4,-14,-5,-9,-9,-10
1490317751589,-3,-5,3,2,1,-4,2,-11,11,-6,-7,2,1,3,2,3
1490317751637,20,-8,-10,16,0,5,8,13,5,5,14,2,-1,-3,-6,-1
1490317751638,-1,2,4,-6,-2,-6,-7,-2,7,0,-6,6,2,1,2,2
1490317751687,8,-6,-7,5,-1,0,5,4,9,0,-4,7,0,7,4,10
1490317751735,4,-2,1,-1,-1,1,-1,2,-17,1,5,-10,-1,-11,-9,-14
1490317751784,5,-3,6,-2,-1,-5,-8,-11,-5,-6,-8,15,1,4,8,7
1490317751832,20,-2,-8,10,0,-2,2,8,9,4,5,1,0,-2,-3,-1
1490317751880,1,4,3,-5,-1,-4,-6,-2,9,-1,1,5,-1,0,1,3
1490317751882,5,-12,-1,5,-1,4,7,3,4,-3,-8,2,-2,-3,-3,6
1490317751930,3,7,3,1,1,0,-3,0,-12,2,6,-9,-4,-8,-7,-13
1490317751979,8,-7,-3,4,-3,-9,-3,-4,17,-6,-5,12,2,4,7,9
1490317752028,13,-2,-3,11,1,4,2,12,6,6,4,-3,0,-5,-9,-1
1490317752076,-11,-1,0,-9,-5,-3,-6,-8,7,-9,-4,6,1,0,3,3
1490317752079,12,-2,-1,8,0,5,7,5,4,-4,-6,2,1,2,0,6
1490317752127,6,4,3,-1,1,-1,-6,-1,0,3,7,-3,-3,-9,-4,-13
1490317752174,9,-3,-2,4,-1,-1,6,2,25,-3,-4,8,1,4,7,12
1490317752223,6,3,-3,8,0,2,6,14,-4,-2,3,-2,0,2,-4,0
1490317752271,-11,4,13,-9,-4,-5,-11,-10,7,-3,-4,5,-1,2,6,3
1490317752319,11,-3,-9,11,-1,3,5,6,0,3,1,0,0,1,-3,2
1490317752320,5,0,8,-3,1,-1,-4,0,-2,-5,-1,-1,-3,-5,0,-5
1490317752369,8,-3,-5,4,-2,-2,2,4,15,0,-3,15,2,4,4,12
1490317752417,7,1,0,4,0,2,2,7,0,5,2,-8,-4,-9,-7,-4
1490317752466,-19,2,6,-11,0,-9,-8,-14,5,-1,-4,4,3,5,3,3
1490317752517,26,-9,-7,12,1,10,10,10,3,-2,1,0,0,1,-3,-1
1490317752519,3,2,2,1,-2,-3,-3,0,8,-3,5,0,-1,-1,-1,-8
1490317752564,7,-2,0,4,1,3,4,5,14,-1,-2,10,-1,-1,3,8
1490317752614,5,-3,-5,3,1,2,3,10,-8,2,5,-7,-3,-3,-6,0
1490317752662,-5,4,7,-12,-4,-7,-8,-12,8,-7,-5,11,-1,3,8,2
1490317752710,21,-4,-8,16,0,6,7,11,3,1,2,1,0,-3,-4,0
1490317752758,6,4,6,-3,-1,-7,-8,0,5,-4,1,4,1,1,0,-1
1490317752760,9,-7,2,6,-1,-3,-7,3,9,1,-3,7,0,-3,-5,14
1490317752808,3,12,-1,2,1,-5,-5,-9,0,-1,-10,-14,3,-3,9,13
1490317752857,-9,-26,5,4,4,-13,-28,-11,32,-1,2,-7,-18,-6,23,-5
1490317752907,-20,11,-5,31,16,23,39,13,-2,18,-1,-1,-30,3,7,-2
1490317752955,1,19,-6,10,-4,-4,-4,-3,7,-41,1,6,18,-4,0,0
1490317753002,16,-5,-13,-1,28,11,-25,-1,16,-17,-2,8,3,10,38,27
1490317753003,4,4,-7,5,34,23,30,-3,-2,9,10,-10,-16,-9,-33,-8
1490317753051,-2,6,10,-10,-32,-17,17,-6,33,1,-5,18,-24,-11,52,22
1490317753100,5,4,-10,19,-1,12,32,12,5,0,-2,1,-9,-2,-30,10
1490317753149,15,-2,3,-9,-3,8,-2,3,11,1,5,11,6,7,10,17
1490317753197,-10,2,5,12,-32,-2,-8,-4,24,2,-11,5,16,9,22,24
1490317753199,-5,-2,-3,0,-30,7,3,-1,7,-3,0,-16,-14,-12,14,4
1490317753247,17,-1,6,6,12,-14,1,-1,47,-1,-10,-8,-14,6,38,6
1490317753297,27,-1,8,8,-2,3,42,52,2,-2,-2,-5,15,-10,-7,-2
1490317753344,-3,1,2,-31,10,-15,13,-8,-2,-2,-1,13,10,1,7,13
1490317753393,16,-5,-2,30,16,7,43,9,-10,0,0,14,62,14,18,-4
1490317753441,5,-8,-1,6,114,12,6,-6,-15,0,16,-14,-26,-18,-22,23
1490317753443,7,-2,-5,6,18,2,19,6,17,-1,-12,8,33,6,-31,-10
1490317753492,15,-1,-16,8,-33,-11,-28,-57,-16,-1,-2,-3,39,-8,-13,1
1490317753539,-16,-3,14,-12,-21,0,77,14,9,1,-4,9,-7,-5,7,2
1490317753587,46,-3,-16,71,60,25,17,27,7,2,0,3,11,-16,-9,-30
1490317753636,-2,1,3,-17,14,6,7,-9,0,0,1,29,22,-5,-13,-16
1490317753685,15,2,-4,-2,-32,13,-8,-9,-5,3,-4,3,32,-5,22,25
1490317753686,-21,-5,6,-1,-51,-15,14,-25,17,-3,-9,-2,-17,-6,-2,-12
1490317753734,-32,-5,4,-33,3,-5,-10,-9,8,2,-16,-4,-56,-11,-10,5
1490317753783,61,5,-8,-8,-3,-11,-42,11,10,-4,10,-9,-23,-27,-7,-4
1490317753832,20,-5,10,8,-26,-11,24,3,7,-5,-3,15,18,-2,3,-13
1490317753880,8,-4,-8,14,-77,-3,15,-3,36,1,-10,17,25,14,2,25
1490317753882,2,4,8,-23,-77,-34,-10,-6,-19,-2,-6,0,69,7,18,0
1490317753929,-39,-4,-6,-13,50,1,-11,-7,20,-2,-8,12,-105,-16,31,5
1490317753977,121,-2,-7,28,37,24,49,22,3,1,0,9,-46,-3,7,-3
1490317754026,-7,-1,5,-6,-29,-15,-29,-2,17,-3,1,19,44,12,-3,-10
1490317754075,-3,0,-7,11,-13,-16,0,7,26,0,2,22,32,21,46,27
1490317754123,-1,1,-10,13,71,19,28,10,23,-3,13,15,14,-10,-41,-9
1490317754124,3,-3,12,9,-3,-4,-17,-37,-10,4,-3,-22,-9,-12,2,-8
1490317754173,34,1,-6,-3,93,11,-33,-9,0,-3,1,10,-27,-9,10,4
1490317754223,-5,-2,1,7,16,-6,-29,3,4,-2,6,12,-52,0,2,3
1490317754270,1,-4,1,-1,7,-4,-6,7,15,1,-9,22,22,3,31,0
1490317754319,-11,1,-7,5,7,-33,-15,-8,-17,-4,13,-2,-19,-7,-31,-20
1490317754367,0,-3,1,-3,-26,-24,-4,1,16,1,0,-4,-5,4,16,12
1490317754369,10,-2,5,61,29,20,6,-5,1,-2,2,7,-18,1,13,3
1490317754416,9,-4,17,-11,-69,-20,-23,-1,7,-4,-4,-4,29,2,-2,4
1490317754465,0,-1,-18,-5,19,4,26,0,-2,0,13,4,50,20,19,17
1490317754514,-9,2,-10,-5,0,13,-5,-10,22,-1,6,-23,-35,-23,-2,21
1490317754562,13,-2,-8,12,69,9,-9,11,-12,-3,-1,-20,-78,-11,15,-10
1490317754563,-49,-3,-14,7,-32,-16,-1,-12,6,-1,5,17,-39,-5,3,-8
1490317754611,9,4,4,-20,12,10,23,9,-6,-2,5,12,93,20,20,-8
1490317754660,47,5,-21,6,-32,-6,12,6,-17,1,3,7,60,-7,-1,8
1490317754709,1,-5,14,3,103,13,-19,-2,6,-1,1,-16,-37,-11,4,-14
1490317754758,3,-2,10,4,57,-3,-4,3,-18,0,-18,-6,-29,13,36,6
1490317754812,10,1,-2,-22,-99,-22,-2,3,1,0,16,14,108,22,-5,0
1490317754814,43,-2,-9,-4,-86,-21,14,13,18,1,-8,10,39,17,-11,5
1490317754903,8,-2,-22,-16,-72,-5,2,-1,18,-2,7,3,33,-7,-4,-1
1490317754904,-12,2,9,8,-48,-25,-14,-5,33,1,-1,6,16,2,6,-4
1490317754952,3,0,-3,11,-62,-12,-4,3,13,-3,1,8,61,19,19,11
1490317755000,11,-1,2,14,98,27,2,22,22,2,2,3,13,-10,20,4
1490317755001,-9,-4,7,13,31,-6,-31,-29,21,1,-9,-3,-70,-4,-14,11
1490317755050,13,8,-6,18,16,-2,1,17,16,0,12,2,-48,-9,-7,-1
1490317755099,-2,-1,-4,2,24,12,-4,-1,8,4,7,7,-18,-6,8,-12
1490317755147,-1,-2,-7,0,-53,-10,4,-5,20,1,-26,-3,-24,-16,-1,8
1490317755196,22,-1,9,0,46,17,11,36,6,-1,6,-9,30,-4,1,4
1490317755244,12,1,6,19,8,10,24,4,6,-1,-5,-4,-63,-17,-13,5
1490317755245,28,-2,-15,44,127,16,26,54,6,-5,20,12,-29,-6,8,10
1490317755294,-3,0,7,-8,-34,-6,-19,-16,1,-6,-7,-4,-11,-9,38,15
1490317755343,13,-4,-5,0,20,11,5,-2,9,1,-6,-2,-77,-4,1,20
1490317755392,-1,-3,-5,-6,-74,-12,11,22,-6,-1,-10,-80,-128,-16,-24,-6
1490317755442,-14,-2,10,-23,-20,3,-12,-35,-9,-3,0,18,26,3,-21,-1
1490317755489,-8,-1,-9,-2,38,14,29,16,-16,0,0,7,-14,-17,12,6
1490317755491,11,-5,-12,25,-1,-5,22,5,12,1,5,15,79,7,-7,-1
1490317755538,7,0,-6,3,4,-24,-7,3,37,-4,4,-9,-22,5,20,32
1490317755587,3,-2,4,2,-22,1,-4,4,21,0,8,23,-12,-13,-14,6
1490317755635,-13,0,4,-1,-89,2,-8,-21,-10,-1,3,-11,26,1,-18,-9
1490317755684,22,1,-4,-1,-35,1,23,11,-3,-1,-5,-3,-22,4,9,-1
1490317755686,-12,2,-11,3,64,-3,1,1,-6,-3,6,14,33,-8,-7,-3
1490317755733,13,-5,-9,13,17,6,5,9,4,-1,8,25,-26,20,14,9
1490317755782,10,-1,3,4,25,4,-3,14,-7,-1,5,7,1,-5,-2,-5
1490317755830,-7,2,6,3,24,19,3,7,-4,-1,-7,-7,-52,-3,7,14
1490317755879,14,1,-12,10,-18,-4,-18,2,3,1,9,12,30,-4,-1,2
1490317755927,2,-1,-11,18,1,-8,6,-15,5,0,2,12,-44,3,-5,4
1490317755928,6,1,1,-3,11,-15,2,1,0,0,-8,6,-28,8,4,25
1490317755976,-7,-4,-5,2,-7,-13,-6,-15,-26,-4,-1,19,22,5,-14,-7
1490317756025,-2,-3,8,14,-38,-4,-6,-17,41,2,-13,-12,24,-1,44,4
1490317756074,-26,0,5,9,2,2,-4,13,3,1,1,9,-9,5,-9,-1
1490317756123,-62,-5,5,7,22,7,-8,3,5,1,2,8,-51,6,-3,7
1490317756171,31,-3,-6,6,-40,-4,2,10,4,-2,-5,8,44,19,7,21
1490317756172,11,2,1,-7,-51,-5,4,1,1,-1,6,6,48,-6,-12,-6
1490317756220,8,-5,-4,-4,-18,-11,-4,-9,11,2,-5,25,32,2,27,12
1490317756269,21,1,-6,-1,-16,-20,-6,-16,7,-2,11,5,69,28,-5,-9
1490317756317,-45,-4,10,-37,18,-12,-12,13,1,4,-6,9,-7,14,3,4
1490317756365,17,2,2,4,16,5,6,0,-3,0,3,-4,8,-3,-2,-13
1490317756366,5,2,7,4,23,16,-2,-1,0,-2,1,1,16,-8,-7,-23
1490317756415,1,-3,-12,6,8,-6,1,-5,41,1,-7,22,-2,3,10,24
1490317756464,-17,-1,-5,-1,-34,5,-1,7,-5,-2,-1,-30,-6,-9,-4,-12
1490317756512,1,-3,5,-22,-17,-4,4,-9,1,1,-5,4,-24,-18,2,2
1490317756561,54,3,3,20,14,17,2,11,-5,-4,-9,-3,12,-2,-7,-2
1490317756609,-10,-3,-5,10,35,5,5,-3,6,0,5,-2,-32,-14,9,-6
1490317756611,1,4,6,1,-22,-15,-1,0,19,-1,-14,11,-32,-9,3,10
1490317756659,12,0,-9,-2,-20,-6,-10,-8,1,1,16,-1,48,-7,-13,-1
1490317756708,-5,-3,-6,-1,29,-3,-3,-12,7,3,-6,3,-19,8,45,1
1490317756756,-23,-1,1,10,23,24,8,1,-10,-3,-1,1,-25,-11,-11,2
1490317756806,9,1,3,-16,2,13,-3,2,-5,1,4,9,40,5,-3,3
1490317756853,11,-2,-15,-5,8,9,2,8,8,-3,-6,10,-2,1,-3,1
1490317756855,11,0,-1,3,-12,-6,-7,3,10,-2,6,-5,-10,-11,-12,-12
1490317756903,8,-4,12,-11,1,-7,6,-10,13,-4,-16,9,-18,-17,-5,4
1490317756954,6,1,-13,22,11,1,23,-5,-5,4,10,0,-14,-29,-5,-5
1490317757001,12,2,4,-4,-2,1,-8,3,9,-2,0,0,-35,4,12,3
1490317757048,9,3,-21,0,-23,13,6,5,17,-4,2,7,56,0,20,26
1490317757050,5,-2,9,2,9,5,6,13,17,-4,6,-12,21,11,-15,8
1490317757098,-4,-2,5,-3,-30,-17,-5,-24,15,0,-3,4,-32,8,12,1
1490317757146,36,-1,1,21,5,8,13,30,2,3,-3,1,-9,2,-8,-1
1490317757195,7,-3,6,-2,8,-12,-2,-4,9,0,7,3,-14,1,-1,-4
1490317757244,1,-4,1,10,35,14,3,-3,11,5,7,3,-29,-11,-6,23
1490317757293,-7,-4,-7,-2,-6,-1,1,6,-8,1,6,-24,-7,-9,-32,-35
1490317757295,-7,1,-9,3,-4,2,-8,-9,48,1,-8,8,-32,8,6,18
1490317757342,38,4,3,12,19,-2,1,11,1,-3,-4,7,11,-5,-6,2
1490317757390,-8,0,2,-20,-21,-11,3,7,3,-1,2,4,5,-8,-1,0
1490317757439,4,-1,-8,13,0,11,13,-5,10,1,2,2,34,-4,3,15
1490317757488,3,-2,-9,-3,-43,-10,-5,1,-7,-3,8,-7,4,2,-17,-11
1490317757536,8,0,6,3,33,0,1,-4,8,0,0,35,-6,-8,9,10
1490317757540,3,2,-9,15,4,0,5,19,1,-2,4,-6,-27,-10,-9,-17
1490317757586,8,-1,4,-22,-40,0,-13,10,6,5,-9,3,20,3,4,4
1490317757635,2,1,-6,6,22,-1,-1,-2,7,-6,-1,3,-8,10,9,8
1490317757683,-1,-2,-1,1,17,5,11,-2,1,5,8,-9,-1,-9,-23,-16
1490317757731,8,2,-4,0,4,0,21,3,44,1,-2,-1,-9,0,5,16
1490317757732,14,1,-5,-5,-9,-3,13,-4,5,-2,1,-10,-27,-5,-12,-4
1490317757780,-40,-4,3,-9,11,-22,-15,-25,3,1,-13,11,6,6,13,0
1490317757829,10,2,-8,16,5,3,4,13,-3,-1,1,3,27,0,10,-10
1490317757878,4,-3,3,6,16,6,-14,-1,-19,-2,3,-2,-15,-11,-19,-16
1490317757926,7,3,0,-5,18,3,-2,0,-10,1,0,22,32,13,17,27
1490317757976,9,-4,0,9,-18,-4,9,-9,-6,-1,4,8,34,-11,-29,-4
1490317757979,10,-2,7,-16,-15,-3,-2,4,13,0,-8,4,-3,5,47,8
1490317758024,5,0,-3,35,29,20,-4,5,6,1,1,-3,1,-9,-8,-3
1490317758072,1,-4,-3,1,-59,-2,9,-5,-5,-3,5,-2,24,-3,-11,10
1490317758121,0,0,1,-3,20,-6,5,3,-29,-1,-14,3,30,8,0,6
1490317758169,4,-2,5,3,43,6,6,21,-6,0,6,21,-10,1,-17,-6
1490317758170,10,-4,-6,-14,33,7,-24,-15,9,-4,-4,2,-21,-9,4,5
1490317758219,16,-1,-2,19,-24,5,5,4,3,0,-7,-4,4,3,9,6
1490317758267,0,1,-7,-5,-18,-11,-10,-4,7,-2,9,-5,-18,-13,2,-11
1490317758316,7,0,-3,2,22,3,0,0,26,3,0,8,13,1,-5,6
1490317758367,7,0,-3,0,50,5,8,17,-11,-1,9,0,-39,4,-3,7
1490317758413,-23,-3,11,-8,-26,13,-2,-42,2,-1,-9,-6,19,-14,1,-4
1490317758416,19,2,-14,10,-3,15,4,10,-4,-1,8,1,-56,-11,1,-2
1490317758462,8,3,0,3,-6,-2,2,6,-4,0,-3,6,-9,3,-2,-6
1490317758511,8,0,2,2,3,-18,0,4,4,1,-5,14,-12,4,-25,10
1490317758560,1,-1,3,-3,-2,5,-5,-13,-56,-2,3,-11,-20,-9,-10,-11
1490317758609,-10,1,3,-3,9,-3,-8,-7,11,0,-1,1,19,9,35,2
1490317758657,8,1,-7,-11,-11,2,-1,7,1,-4,2,-2,15,-1,-2,-8
1490317758658,-2,-3,5,-2,3,4,-9,0,4,-4,-7,4,11,-3,-1,-8
1490317758706,8,-3,2,10,33,18,19,4,2,2,-10,-6,-38,-17,-36,-6
1490317758755,3,1,3,3,-7,-5,4,-8,26,0,10,-1,11,-3,-1,-3
1490317758804,-2,-1,1,-1,31,1,-1,-15,9,-1,-10,17,-24,-2,8,-2
1490317758853,-36,-1,3,19,-26,22,16,16,-9,1,0,-10,9,-34,-33,-7
1490317758855,9,-3,-3,-5,-3,2,7,8,-5,-2,-3,7,-9,7,3,-2
1490317758902,6,5,-15,1,15,11,18,4,-3,1,-3,2,4,-15,5,-3
1490317758952,4,-3,4,5,45,8,6,3,1,-2,13,-2,47,9,-5,-7
1490317759000,0,0,7,7,21,13,3,1,18,-2,-12,-2,-36,-14,9,5
1490317759049,19,4,-6,28,-38,-11,17,19,2,-2,8,7,30,21,5,4
1490317759096,18,-3,1,-10,-13,-18,-42,-10,4,1,4,7,8,13,7,4
1490317759099,-2,6,-8,18,28,-1,-13,-3,2,-2,-5,3,-4,-13,-24,8
1490317759150,2,1,3,-1,-2,-4,9,1,-15,1,15,-4,5,6,-4,-28
1490317759194,4,-3,-3,3,-41,-21,-3,-14,29,-4,-6,31,17,14,38,19
1490317759242,0,0,1,10,-10,6,15,-2,5,-5,-4,-20,9,-15,-18,-4
1490317759291,-15,-3,9,-2,26,8,-18,-16,4,2,-6,2,-15,1,9,-6
1490317759339,20,-1,-24,0,27,-1,-2,5,5,-2,0,-2,2,9,10,2
1490317759340,5,-1,11,3,2,-10,8,0,7,-3,-10,-8,-40,10,-6,-19
1490317759389,16,-1,0,3,-11,-6,2,-3,26,0,5,5,36,-9,12,-3
1490317759438,16,-2,-10,-5,6,4,1,18,0,-1,5,0,-1,-8,-4,5
1490317759487,14,-1,6,4,-9,-6,-1,-10,10,1,-6,4,-25,6,0,6
1490317759535,1,-1,0,25,19,7,1,1,7,-3,2,-3,-16,-6,6,10
1490317759537,3,-3,2,-7,-4,6,-2,2,-2,-2,-8,-9,-7,3,-7,5
1490317759584,0,-2,-4,5,19,2,-1,6,-10,-1,-4,-6,-33,-13,-3,-13
1490317759633,-3,1,-11,3,-2,1,3,22,-73,-1,6,-20,-10,5,-1,-28
1490317759681,-11,-1,9,-22,-13,-7,-8,-7,21,2,-6,11,18,-5,3,11
1490317759730,15,3,2,14,10,11,42,10,10,-2,-1,2,7,-3,8,3
1490317759778,3,-5,7,-2,-6,-7,-16,-2,12,-1,0,4,-31,-7,-1,-1
1490317759779,2,1,-3,1,-37,-15,-1,2,29,1,0,16,9,1,4,25
1490317759828,1,2,1,-7,1,5,-5,0,-43,-4,6,0,6,5,-12,-15
1490317759877,-11,-1,1,-15,-2,-3,3,-19,15,0,0,11,-2,10,0,2
1490317759925,13,-1,-8,3,7,-3,-14,9,3,-2,3,-3,-14,9,-2,-2
1490317759974,6,0,1,4,12,8,9,5,8,0,-9,2,-19,-10,-4,-8
1490317760022,0,0,-4,4,-25,3,12,3,12,-2,-5,-1,41,-1,-17,4
1490317760023,-1,2,-3,2,4,1,-9,9,-4,-3,11,-7,13,-8,-8,-8
1490317760071,-12,4,-9,-1,7,-3,-16,-11,8,2,3,2,1,-5,6,6
1490317760120,10,0,-3,7,6,1,7,-13,1,-1,2,-1,-4,-7,-3,-5
1490317760169,-6,-4,-2,-6,-7,9,-11,-2,4,-7,2,3,-6,0,0,-6
1490317760218,5,-2,-6,4,-1,8,8,1,10,1,-5,5,-7,3,1,24
1490317760220,0,3,4,-1,7,-6,-5,5,-2,-4,3,-4,-4,6,-3,-10
1490317760266,-5,-11,5,-2,-6,-8,11,-5,8,1,-16,6,-11,-4,-4,-3
1490317760315,7,7,5,12,-3,6,1,-3,1,0,8,1,6,9,-5,1
1490317760364,-1,-8,-5,-8,-5,-8,-10,-2,5,-7,-1,3,2,0,6,-4
1490317760412,7,9,-2,3,0,-2,8,4,4,8,2,3,-3,-1,2,-13
1490317760460,1,-4,6,1,-6,-3,-1,-4,-9,-2,8,-12,-8,-11,-9,-1
1490317760461,2,4,-2,2,-2,-1,-6,-24,21,1,-8,7,2,2,6,26
1490317760510,13,4,-4,8,4,7,2,4,1,-2,5,-3,1,3,-5,-3
1490317760559,0,-3,7,-10,-1,-3,-9,1,6,2,-7,4,-2,-2,6,1
1490317760608,6,1,-13,13,3,10,7,4,4,-2,2,2,1,-1,7,11
1490317760656,2,-6,4,1,-3,2,-4,3,-10,-2,3,-8,0,-4,-2,-8
1490317760657,7,5,-7,4,-1,5,10,0,11,-2,-6,8,-5,0,0,9
1490317760705,7,0,1,8,2,5,3,4,3,4,4,-5,-4,-9,-12,-2
1490317760755,-4,-6,6,-8,2,-4,-5,-3,7,3,-6,4,-4,-2,4,3
1490317760803,8,5,-8,11,-5,6,11,4,5,-5,8,-2,4,-2,-8,7
1490317760852,0,-7,11,-9,5,-2,-8,0,-1,5,-4,-3,-5,-8,-2,-7
1490317760900,4,7,-12,4,-2,-3,5,3,12,1,0,7,4,15,3,5
1490317760902,2,-8,5,-3,-3,-3,-6,5,-22,-5,5,-8,1,-4,-8,-8
1490317760952,-9,1,5,-4,2,-6,-6,-7,4,3,-7,5,4,19,17,3
1490317760998,7,-8,-11,12,1,8,5,7,-1,-15,0,-5,0,-3,-6,-8
1490317761047,-2,-3,5,-6,0,-3,-3,-8,2,5,0,-4,-2,-5,0,-4
1490317761095,2,1,-6,3,2,-4,6,1,6,2,-2,8,-2,2,2,5
1490317761143,-9,-5,-4,0,0,1,-5,-1,-3,3,0,-10,-1,-4,-5,-7
1490317761146,-7,1,3,-12,-1,-4,-2,-8,7,0,-7,4,-3,4,3,6
1490317761193,7,2,-3,32,-2,9,4,8,-2,-4,-5,-45,-1,-5,-8,-4
1490317761242,1,-9,-1,-50,-16,-5,-6,-4,-1,11,3,75,45,-4,-2,-5
1490317761290,50,-6,10,102,60,44,-6,-7,-22,-9,0,-30,-22,-24,2,-3
1490317761338,-128,9,-18,-72,-79,-81,12,-46,-32,6,-13,-26,-27,-17,6,-63
1490317761339,19,-16,-2,-128,48,59,-2,78,57,3,8,-16,24,46,-13,110
1490317761387,2,-9,7,-39,-82,27,-5,37,-7,12,12,56,-19,-27,8,-85
1490317761436,24,-19,-26,-34,32,6,2,-42,13,-36,-128,-100,15,20,-14,28
1490317761485,-128,73,48,18,-114,-128,3,12,-20,71,56,31,114,62,38,-73
1490317761534,106,-26,-71,25,127,82,21,-8,21,-15,34,-53,-19,-76,-22,88
1490317761584,-45,-8,100,-56,-16,-67,-11,-112,-20,-66,8,57,-74,13,1,-124
1490317761587,-47,-97,112,97,-15,58,29,48,-105,43,-37,-30,-26,-69,-86,95
1490317761636,104,-37,8,-45,4,15,6,41,87,34,27,116,-15,60,17,-5
1490317761681,-76,-51,-49,-12,11,-16,24,-36,81,-15,-10,-128,39,-21,-63,-54
1490317761729,-128,5,127,47,77,4,18,19,-93,48,-14,120,4,2,-26,49
1490317761826,3,33,-114,-32,-51,-13,37,-14,26,56,120,111,-19,14,-13,65
1490317761829,-57,16,-46,16,-9,54,-22,40,-53,-75,-82,30,-23,42,83,-46
1490317761831,39,-33,35,16,36,-83,2,20,25,20,37,-11,21,-19,-50,-45
1490317761876,-60,47,12,-35,-51,-22,-46,-44,9,-56,31,19,12,14,24,56
1490317761924,103,-86,29,7,-37,-60,41,37,-25,-89,23,-71,9,-47,-41,-55
1490317761972,74,11,-21,23,-3,0,5,17,-93,48,-78,33,-63,-37,-19,25
1490317762020,-67,-10,-1,60,51,21,100,42,-78,-96,-23,-29,27,-12,40,66
1490317762022,14,57,-81,4,-53,29,78,-16,-52,-1,19,-41,-54,12,15,16
1490317762070,-4,6,13,18,19,-1,-39,47,6,20,-4,9,0,-13,29,30
1490317762119,25,12,-14,25,55,3,6,5,0,-12,9,-22,7,-7,-39,-16
1490317762167,22,-2,0,2,19,-10,-20,-12,-4,30,6,30,-14,5,15,4
1490317762216,4,18,-19,-128,111,45,-113,40,-44,-38,-34,-55,8,-8,11,20
1490317762265,16,-3,-18,12,18,6,59,-12,50,-13,5,2,37,-27,-6,-29
1490317762267,16,1,3,-14,-43,-4,-5,-41,-37,-6,2,18,-61,10,21,10
1490317762314,-17,-4,-4,26,7,7,20,12,37,9,6,-45,-46,20,0,-10
1490317762365,27,11,0,-7,15,6,3,13,-9,-17,-10,33,18,0,8,-25
1490317762411,43,-15,-18,9,-38,-34,23,-10,13,6,21,18,51,-40,-77,-37
1490317762460,-27,75,-15,-15,19,-35,21,-11,-15,57,-1,-4,-2,-5,25,1
1490317762508,-10,-14,1,31,-45,71,1,-1,-2,-30,-5,7,-22,33,9,-1
1490317762509,2,-6,4,1,19,-23,12,36,17,6,-30,0,13,6,7,-10
1490317762557,24,-13,-7,0,0,-3,10,-1,-8,-3,4,18,2,-24,-23,23
1490317762606,0,3,-6,5,13,-1,16,21,17,-1,1,9,0,-5,-2,28
1490317762655,-8,6,12,-23,-5,-6,-24,-8,-7,-9,0,-1,17,-16,10,-6
1490317762703,-6,-2,-19,9,9,26,1,17,-7,-2,-4,3,-10,-29,6,14
1490317762704,10,5,9,8,-10,-12,7,-6,-6,2,-9,13,-10,4,8,13
1490317762752,-20,2,-7,7,5,9,10,7,-2,1,1,-7,12,-8,22,-2
1490317762801,0,6,-32,7,19,14,5,9,2,0,17,19,5,-23,-50,-10
1490317762850,-7,-20,17,-7,3,-7,12,-12,-9,0,21,0,7,24,16,4
1490317762899,4,-8,24,24,-1,2,4,25,10,1,-20,4,-5,19,7,7
1490317762948,7,6,2,5,-2,19,12,-27,-12,-12,-14,7,3,9,10,1
1490317762950,-3,-3,-41,-2,-10,11,7,-2,1,6,-1,15,-12,-46,15,27
1490317762997,9,-6,26,2,-6,11,4,4,-3,13,10,15,27,31,1,-2
1490317763045,-11,1,1,14,-6,-18,-2,-2,1,4,42,-12,6,39,15,59
1490317763094,-6,0,17,14,14,20,17,-8,-1,-10,-13,-8,-26,-7,1,-23
1490317763143,3,12,36,1,4,0,-6,-16,5,0,-19,-13,-8,-6,5,6
1490317763192,-4,6,3,-1,1,22,3,-11,-1,3,6,9,1,-57,6,28
1490317763194,-1,6,10,-3,6,9,2,-1,1,-14,-18,-30,-23,-17,-37,-11
1490317763241,3,-6,-24,-20,-4,-2,-3,7,-4,6,12,12,-1,-16,9,27
1490317763289,1,-6,41,45,0,30,53,20,4,3,11,7,8,6,9,-12
1490317763341,3,-3,-35,-12,-2,18,-14,-36,5,-3,-17,-7,7,25,11,5
1490317763386,1,-10,-7,3,-2,3,2,3,-1,3,-12,16,2,-13,4,8
1490317763388,8,1,-8,1,-5,-15,-1,-10,1,-2,-29,-29,-6,12,-17,-7
1490317763435,4,5,10,-4,11,34,2,13,-6,-1,24,27,0,10,37,68
1490317763484,-6,-1,-11,29,3,2,31,25,5,-5,11,-10,-2,-12,3,2
1490317763532,0,-10,-5,-25,-4,10,3,-19,3,4,-3,2,5,31,7,17
1490317763581,-5,-3,-19,-3,9,5,1,8,-3,-4,6,11,-8,-26,1,-1
1490317763629,0,1,2,13,-12,-11,1,14,-2,-2,-8,16,9,12,-6,-25
1490317763630,1,0,4,15,6,-11,4,6,1,1,15,-35,-14,17,13,-5
1490317763679,2,0,-5,14,3,-15,-22,-5,8,-8,-3,15,-1,-12,2,11
1490317763728,-1,5,-21,-12,15,-6,7,3,-5,0,12,2,-13,1,2,3
1490317763777,-2,2,13,14,6,-4,7,10,6,-13,-35,-9,-10,-32,2,2
1490317763825,3,3,30,4,-9,3,6,-60,-5,-7,-21,0,7,6,2,-3
1490317763827,-2,8,3,3,-11,1,10,27,-8,-5,-32,-4,16,26,64,26
1490317763874,-6,-4,-10,5,5,20,6,9,3,-3,5,-2,-11,-3,-3,-21
1490317763923,-6,5,13,-8,-1,12,12,-10,-6,-13,3,6,-7,-13,0,3
1490317763972,1,-5,-13,5,-1,-4,5,19,5,8,17,1,4,-1,-3,3
1490317764020,-10,0,-19,-4,-2,6,0,6,-4,-1,-8,-12,5,-12,8,-2
1490317764068,-1,-2,-12,4,8,-6,5,-4,3,6,9,13,-4,15,-1,22
1490317764071,-2,-7,-1,9,-2,-1,10,-3,1,4,16,8,4,22,6,-7
1490317764117,8,-3,-4,-9,-12,-22,6,-10,3,-2,-1,6,0,0,13,22
1490317764166,-3,8,6,11,9,0,10,-5,2,3,-3,-1,6,15,6,7
1490317764215,6,-4,-13,0,4,-12,3,10,2,3,5,0,-8,-7,5,10
1490317764264,-5,0,-4,3,-7,3,4,5,-3,-3,-7,7,-2,-2,-1,15
1490317764312,-5,1,5,7,-2,-2,-1,4,-1,1,2,-10,-2,-6,4,-5
1490317764313,4,-4,0,-2,-5,-7,-19,-11,-2,-1,0,5,6,6,7,0
1490317764361,7,0,-8,13,1,11,35,17,1,-3,-7,5,3,-6,6,2
1490317764410,2,0,-3,2,-3,-11,4,-2,4,-4,1,5,-4,6,3,3
1490317764459,-4,0,3,4,2,5,8,4,-12,5,-4,8,-4,4,2,-1
1490317764507,-5,0,-8,-1,-3,-6,2,-1,-5,-13,-2,-11,-1,-12,-13,-13
1490317764510,-10,-4,1,-7,8,-1,3,0,7,3,2,8,-6,2,4,8
1490317764557,17,-10,3,17,-5,7,27,17,-1,-10,-5,1,0,-4,5,5
1490317764605,4,3,-1,-4,-7,-11,-4,-11,-10,-12,5,5,5,6,9,6
1490317764654,-8,-4,0,2,-3,9,2,8,1,3,-2,6,-1,-4,9,2
1490317764703,-3,1,-4,-2,-10,-6,-1,-2,5,-3,3,-8,0,-7,-6,-2
1490317764751,4,-1,3,0,-1,1,0,-3,-3,1,0,8,1,7,14,15
1490317764753,0,3,-3,17,2,-1,4,11,2,-3,-1,1,-1,3,4,1
1490317764800,6,1,0,-6,-3,-3,0,-4,-10,-6,-3,4,-2,1,6,4
1490317764849,-2,-6,-2,4,-5,-2,8,7,2,2,-2,4,0,1,7,5
1490317764898,-10,-2,1,-1,-8,-20,2,-1,4,8,3,0,3,-6,27,-2
1490317764946,-3,5,4,1,2,5,6,4,-8,1,-3,4,-8,-2,-3,9
1490317764994,0,-5,-9,11,-9,-69,-9,4,0,-2,1,4,-9,44,3,9
1490317764997,9,-13,2,-12,1,3,2,-41,-4,-7,-10,-1,-2,-16,3,-1
1490317765043,-2,7,-1,7,-1,13,10,4,3,-8,0,1,-4,-9,0,-1
1490317765092,-3,1,-4,3,2,20,5,5,-12,-10,1,-15,-2,-16,-25,-16
1490317765142,0,10,3,4,6,2,4,6,4,3,0,13,-8,-4,-19,3
1490317765190,11,8,1,13,-4,3,41,10,-14,-17,-3,-1,1,-10,12,-7
1490317765190,10,3,3,-6,2,-3,-1,-7,-4,-11,-3,6,-4,2,8,7
1490317765238,-1,-1,-1,3,0,-2,-2,6,-3,7,-4,3,-2,3,5,2
1490317765287,3,-2,-4,0,3,3,0,3,0,-4,-1,-6,-2,-8,-2,1
1490317765336,-7,0,4,6,-2,-6,7,5,1,7,-2,20,1,6,18,21
1490317765385,5,0,-2,11,1,7,9,10,3,0,-2,-1,3,-2,4,-4
1490317765434,6,-1,-1,-6,-2,-11,-10,-13,-10,-4,-1,6,-2,-2,6,7
1490317765437,0,2,-2,7,-1,6,12,10,6,-1,-3,1,2,4,5,3
1490317765483,-1,-4,-3,4,-1,-1,3,1,-5,-5,3,-1,-3,-6,-3,4
1490317765532,1,3,0,6,0,-4,5,7,3,7,3,20,2,6,20,19
1490317765580,5,5,2,11,0,3,6,4,-7,-7,-3,-2,-1,-2,2,2
1490317765629,-2,-10,-1,-8,0,-9,-2,-12,1,4,1,7,2,2,8,4
1490317765677,-3,6,0,10,1,5,7,17,-6,0,3,2,-5,2,2,1
1490317765678,-10,-3,-1,2,-1,-6,4,5,7,-2,-1,4,0,-3,5,6
1490317765726,4,-1,-1,6,-1,6,5,7,3,-1,-6,10,0,-3,12,9
1490317765775,-7,2,1,2,-3,-3,2,2,6,-7,2,1,0,-3,-2,-11
1490317765824,17,-8,1,-19,-2,-17,-21,-1,-1,13,-1,15,-2,28,7,29
1490317765872,0,3,-3,26,1,10,27,32,0,-2,-2,2,-1,-7,1,6
1490317765873,6,-7,-2,4,-3,-8,6,4,17,-7,-2,6,-3,-5,6,8
1490317765922,-3,1,0,8,-1,0,8,7,2,-3,1,15,1,3,17,5
1490317766018,3,-1,-1,4,0,-3,4,5,-3,-2,-4,-9,-2,-5,-2,-7
1490317766020,-4,-8,2,-2,0,-11,-3,6,-2,10,0,10,3,6,7,23
1490317766067,-6,3,-3,19,-2,5,21,20,-3,6,0,5,-2,-4,2,5
1490317766115,5,-11,-2,3,2,-3,3,0,10,5,3,9,0,1,8,9
1490317766116,-1,-2,-1,6,-2,4,6,13,-9,-5,-3,11,1,1,6,7
1490317766165,1,-2,-1,2,-2,-3,1,4,4,-4,-1,-10,-2,-9,-12,-2
1490317766214,-6,2,5,4,-2,-2,0,6,-10,2,-2,10,-2,4,12,4
1490317766262,-12,7,1,11,-5,4,14,22,-2,-5,-5,3,-1,-7,4,-1
1490317766310,3,-8,-1,-2,-1,-13,1,2,-1,-1,0,4,-1,1,6,3
1490317766311,9,0,0,5,-2,2,7,1,10,-1,-1,5,1,-4,9,5
1490317766360,-4,-2,-3,3,1,5,2,7,4,-1,5,-1,-4,-9,-5,-7
1490317766408,-5,3,4,3,-4,1,2,9,-2,2,-2,8,2,1,8,20
1490317766457,3,-1,-1,12,2,3,19,14,4,6,-1,4,1,6,3,7
1490317766506,3,2,1,3,0,-2,-2,-6,-6,-7,2,8,-2,-3,6,10
1490317766556,-6,2,0,5,-2,7,6,15,2,3,-3,6,1,3,4,7
1490317766558,-3,-4,-4,4,-2,2,2,6,2,-2,1,-17,-2,-6,-20,1
1490317766604,-5,-10,-2,7,0,-5,6,9,2,6,0,16,2,3,12,14
1490317766652,-3,-1,-2,20,-3,5,19,10,3,-3,0,6,4,-1,6,8
1490317766701,0,-5,-2,-4,0,-6,0,-16,-8,-4,-1,8,-4,-1,8,8
1490317766750,3,1,-2,7,0,5,3,12,-1,1,-2,4,-1,3,4,3
1490317766798,-1,0,-2,3,-1,-1,2,9,-3,-10,0,-2,0,-13,-5,2
1490317766800,-2,2,0,8,-2,-3,7,11,-8,-5,-1,15,-2,4,16,17
1490317766848,1,5,-1,11,-6,7,8,13,1,4,-3,5,1,2,3,1
1490317766899,2,-9,-3,-12,3,-8,-12,-5,2,3,3,7,0,6,6,14
1490317766945,-8,0,-2,10,-2,3,12,14,5,3,-2,2,-4,2,3,4
1490317766993,8,-1,-3,6,1,0,4,7,-6,0,0,-4,-2,-4,-6,9
1490317766995,-9,2,1,6,-1,6,8,12,0,1,2,18,0,8,22,15
1490317767042,2,2,-4,11,2,1,10,8,7,-6,-1,-1,-4,-9,4,2
1490317767093,2,-3,1,-6,0,-9,-8,-8,8,6,-5,9,-1,5,8,8
1490317767141,-2,0,-5,11,4,4,7,20,-1,5,0,4,0,0,2,5
1490317767191,6,3,0,3,-4,-2,5,6,-2,0,1,7,0,-1,4,8
1490317767238,0,0,0,7,1,7,6,11,1,5,-4,13,2,3,15,15
1490317767240,2,-4,-3,5,-3,-2,4,5,2,1,1,2,1,-10,-3,-11
1490317767287,-5,-1,-1,-13,-2,-3,-17,1,-1,6,1,7,-1,7,6,16
1490317767335,4,-1,-2,18,0,7,16,16,-2,-2,-4,3,-1,1,2,6
1490317767384,1,-5,0,5,-2,-8,5,7,1,2,2,7,-4,1,6,9
1490317767432,-1,4,0,7,1,7,8,6,-1,7,-3,21,1,10,19,17
1490317767480,2,7,-3,5,3,5,5,3,-4,-7,3,-9,-4,-8,0,-12
1490317767481,-5,-5,3,-3,-3,-6,-5,5,-1,5,-2,4,-4,2,3,6
1490317767530,0,4,-5,12,0,1,21,21,-2,-1,-1,3,4,-1,3,6
1490317767578,-1,-4,4,4,0,-5,3,-7,-6,1,-3,7,-2,-1,7,7
1490317767627,0,0,2,5,-2,4,5,7,3,8,0,7,1,3,8,7
1490317767675,1,-3,-2,0,2,-5,1,2,-1,-6,1,-13,1,-7,-12,-8
1490317767677,-1,2,1,-1,-2,-4,-1,2,-1,-2,-1,11,2,2,12,7
1490317767726,-5,0,-1,15,-3,3,14,15,2,-3,-1,4,1,-4,4,4
1490317767774,4,-1,0,-3,2,-4,3,0,-1,1,1,6,0,3,8,8
1490317767823,-3,3,1,7,-1,1,7,6,1,-3,-3,10,-2,-2,9,5
1490317767872,1,1,1,2,-5,1,3,1,-9,-6,-1,-16,-1,-7,-10,-17
1490317767922,-3,-1,1,2,-2,-2,1,6,3,4,1,12,-3,6,10,24
1490317767924,-3,2,-5,16,0,5,18,17,-1,-1,0,3,0,-1,3,6
1490317767970,3,-5,1,1,-1,-6,-3,-9,-12,-3,-3,7,-3,-6,5,7
1490317768018,-1,0,1,5,-2,-1,7,7,6,4,1,3,1,4,4,3
1490317768068,2,0,1,1,0,1,1,3,-9,-8,-1,-20,-3,-8,-20,-6
1490317768115,-10,-4,1,5,-5,-6,6,8,1,6,-3,19,-1,5,14,25
1490317768163,4,12,0,17,-2,7,17,9,4,-2,-2,5,2,3,7,4
1490317768165,2,-11,0,-5,2,-4,1,-17,-9,-3,2,7,-3,-1,8,5
1490317768213,-6,-2,1,6,0,5,3,17,15,4,-2,4,-1,-2,4,4
1490317768261,10,0,-1,2,0,-1,2,4,-17,-10,-3,-5,-3,-8,-6,-1
1490317768310,-13,-7,1,7,-2,-5,6,8,7,11,1,21,1,9,27,23
1490317768358,16,5,1,8,1,5,9,6,0,-5,0,3,-3,-3,2,-3
1490317768359,-6,-10,-3,-15,-1,-8,-15,-14,-6,7,2,4,0,2,4,8
1490317768408,1,-1,-2,10,-1,7,8,7,0,-5,-1,2,-1,-4,2,3
1490317768456,-3,-10,-1,4,-3,-3,4,7,1,2,1,-4,-3,-4,-4,8
1490317768505,-2,7,3,6,-5,-1,9,8,2,3,-1,19,3,6,16,23
1490317768553,-3,-2,-2,8,0,3,9,4,-4,-6,1,-3,-1,-6,4,-5
1490317768602,-1,-3,-3,-7,-2,-10,-9,-12,3,6,0,7,0,5,8,6
1490317768603,3,4,-1,5,-1,9,11,20,-3,-3,-3,2,0,-6,3,2
1490317768651,-2,-3,-3,4,0,-5,3,6,0,2,-2,3,-5,-1,2,6
1490317768701,5,2,2,6,2,5,5,7,0,2,-4,15,-1,-2,18,10
1490317768749,0,-9,0,3,-3,2,2,3,-1,-3,2,-2,1,-6,-5,-16
1490317768799,-3,-4,0,-13,-1,-5,-16,-5,3,8,-3,4,1,10,6,8
1490317768846,6,7,-3,17,0,9,14,21,-1,-6,-4,1,-1,-7,1,4
1490317768848,-6,-6,3,3,0,-9,5,4,-8,-4,2,5,-3,4,5,8
1490317768896,3,1,2,7,-2,4,8,5,2,0,-3,15,-1,2,16,5
1490317768944,3,-1,-1,2,-2,-4,3,2,-5,-2,0,-8,-5,-7,1,-12
1490317768993,-4,-4,-1,-6,-1,-5,-9,0,2,1,-1,6,-4,3,2,10
1490317769043,2,2,-1,13,0,7,17,17,4,0,1,1,-1,-3,2,5
1490317769044,0,1,1,4,0,-4,3,-1,-4,-3,0,6,-2,0,6,8
1490317769090,1,2,3,5,-1,0,4,8,6,2,-1,7,1,6,10,9
1490317769139,0,-2,-3,1,1,0,2,3,-7,-10,-1,-14,-2,-7,-16,-9
1490317769187,-5,1,0,-4,-4,-9,-4,5,1,0,-2,9,0,3,11,9
1490317769236,4,5,-2,16,0,4,13,12,-3,-2,-2,4,0,-4,3,4
1490317769284,1,1,-2,-2,-1,-3,5,-1,-2,-2,-2,5,-2,1,7,7
1490317769285,4,0,-1,7,-2,5,7,6,-2,-5,1,10,-1,0,9,4
1490317769334,3,-2,-1,2,0,0,3,2,-5,-4,0,-12,0,-9,-6,-13
1490317769383,-5,-2,0,2,-3,-2,0,5,3,8,-2,3,1,6,8,18
1490317769432,-1,0,-3,13,2,1,19,11,-3,-2,0,3,-3,-2,2,4
1490317769479,-4,-3,1,-2,-1,-2,-3,-11,-1,-3,0,6,0,0,5,6
1490317769484,3,3,-4,5,-3,2,6,5,-1,0,-1,3,2,1,3,3
1490317769529,-4,-3,-1,1,-1,-1,1,3,-5,-6,0,-17,-1,-6,-18,-3
1490317769578,1,-2,0,5,1,1,6,9,6,7,0,21,-2,9,17,23
1490317769626,1,1,-4,17,2,0,19,4,-6,-5,0,3,2,-4,5,3
1490317769675,-3,-2,-1,-7,1,-6,0,-11,-1,-1,0,6,-2,2,9,5
1490317769723,2,-2,-1,5,0,7,3,13,3,1,-3,2,0,-2,3,1
1490317769724,-1,-5,-2,1,1,-4,1,5,-7,-5,3,-6,-6,-7,-8,1
1490317769772,-7,-7,0,6,1,-13,5,7,4,2,-7,22,3,8,20,29
1490317769821,-4,-4,-1,7,0,-4,7,0,1,1,2,3,0,-2,3,-3
1490317769870,-6,-4,0,-11,-4,-11,-14,-6,4,4,-4,5,-1,8,6,4
1490317769919,8,7,-2,19,4,11,17,25,-1,0,-6,0,-5,-2,2,6
1490317769968,-3,-6,-2,3,-3,-4,5,4,-4,2,1,0,-4,-1,-2,8
1490317769970,0,6,1,6,0,9,7,9,-1,-2,-3,10,-2,0,5,7
1490317770017,-1,-6,-3,4,4,-1,6,9,2,-6,3,-3,0,-4,1,3
1490317770067,-11,-3,5,-12,-4,-8,-7,-5,-3,2,0,9,-1,8,7,8
1490317770114,8,1,0,7,0,7,9,10,4,1,-1,2,38,-3,4,6
1490317770162,1,-4,0,5,16,-1,2,5,-2,4,3,1,-19,-1,2,10
1490317770164,-4,-4,-2,7,-12,4,5,8,4,-3,-4,15,11,2,18,13
1490317770212,8,4,-2,12,9,6,7,6,-6,-7,0,2,-5,-12,0,-5
1490317770260,-9,-1,1,-9,-9,-2,-15,-7,0,-2,1,1,2,2,6,-1
1490317770308,4,-1,-2,8,3,1,12,9,-2,-2,-1,0,-1,-1,2,1
1490317770357,-8,-6,-2,2,-2,-10,4,1,1,3,2,4,0,1,5,5
1490317770405,3,-1,3,6,4,1,7,4,4,2,-1,15,-2,2,23,14
1490317770406,2,4,-3,2,-1,3,2,1,-3,-5,0,-8,-1,-7,-3,-11
1490317770455,-4,-6,-4,-14,-3,-4,-15,-6,8,1,-2,3,1,0,1,9
1490317770504,2,3,1,14,1,2,13,22,-7,2,3,1,-4,3,0,2
1490317770553,-4,-5,0,4,-1,-4,4,-8,11,4,0,4,5,3,5,8
1490317770601,4,5,-4,4,0,5,4,7,-5,-1,2,8,-1,-1,9,12
1490317770652,-11,-10,-3,1,-3,-2,2,1,-1,-3,1,-8,-1,-3,-7,-14
1490317770655,11,2,0,-2,0,-1,3,0,-4,-2,-6,6,-4,-4,6,5
1490317770699,-11,0,-2,13,-7,0,-2,9,-6,-1,-3,2,-11,-6,3,4
1490317770748,-11,2,3,-4,1,0,5,3,13,-6,-2,3,1,0,8,4
1490317770797,8,-12,-2,3,10,5,2,2,-13,16,-2,3,-13,-1,4,5
1490317770845,-10,-3,3,-3,12,7,-3,-2,7,-1,2,-6,21,-1,11,-23
1490317770847,16,1,-1,-8,12,-7,-1,0,-3,-2,1,6,-5,6,6,10
1490317770897,12,9,0,18,-5,2,-5,16,-8,-4,2,1,-3,-5,0,5
1490317770942,3,-4,2,-4,11,-5,0,-2,-3,3,4,2,-6,2,4,7
1490317770991,8,-3,1,5,15,5,6,-1,-7,-6,-14,0,68,-11,-1,-1
1490317771040,5,1,6,1,12,2,2,-6,-4,-5,-5,-31,-10,-16,14,-6
1490317771088,-13,3,-3,-3,0,-1,18,1,-1,2,13,38,-32,-9,3,12
1490317771089,7,2,-7,-5,31,26,2,4,2,-9,2,-4,-20,-24,0,2
1490317771137,5,0,-14,5,-8,4,8,-9,-13,-1,-11,-8,18,8,4,5
1490317771186,2,5,25,4,-90,16,0,-2,16,3,5,-1,-128,-6,-9,-3
1490317771236,4,-3,-8,-5,0,-32,-3,1,-9,-10,-17,-16,15,-6,-19,-10
1490317771283,-3,6,0,-6,25,-4,2,7,11,2,17,8,-1,52,12,9
1490317771331,-1,-2,-11,-37,2,-6,12,7,13,3,13,-8,6,-8,0,-3
1490317771333,-3,-4,-8,5,-4,2,0,-19,-6,1,-4,-3,14,-8,-5,4
1490317771381,-2,7,-18,1,-10,-5,1,9,-3,-1,0,-5,26,3,-6,-2
1490317771430,-14,4,28,-3,5,-21,-3,3,-6,-8,5,-8,1,-9,-12,3
1490317771478,-7,0,-27,-1,-19,-14,-3,1,0,-4,-11,6,8,12,26,25
1490317771527,-3,4,-23,-32,-13,-32,-10,-2,6,-7,-16,13,9,1,-5,-11
1490317771530,12,-8,-9,-23,-2,-13,-7,-20,-3,1,-31,-2,10,29,1,3
1490317771576,-3,-4,1,18,6,-14,6,15,-1,-2,-21,-14,12,16,-12,-4
1490317771625,-1,7,17,10,11,13,4,3,12,6,7,13,-25,5,-15,1
1490317771673,-2,-3,22,9,14,12,7,6,-3,-2,-16,5,2,-13,-3,5
1490317771722,7,0,-14,12,3,-7,14,1,-13,-19,-3,5,3,-14,-10,-3
1490317771770,-7,-12,-49,24,0,-10,-56,-12,-4,13,99,3,9,6,1,0
1490317771771,-1,9,-6,-30,2,-1,11,20,-7,-3,4,22,0,3,-6,0
1490317771825,-2,5,34,0,-4,-29,3,1,5,-4,-26,-1,1,7,-4,5
1490317771868,6,4,-6,0,-4,-2,3,2,-10,-1,-2,10,-18,0,1,-4
1490317771917,-7,-3,3,6,7,9,1,-3,-2,-8,1,14,-3,-20,0,-8
1490317771965,2,-1,-10,-18,-6,-33,-22,-6,13,7,9,0,5,11,7,2
1490317771966,-2,5,-20,-2,9,-8,42,19,1,-3,14,0,-1,22,6,1
1490317772015,-3,3,-4,0,-10,-13,-7,-1,-1,2,-6,5,-5,-7,7,3
1490317772064,2,2,-9,-1,-5,-8,2,2,1,0,-13,-7,3,14,16,5
1490317772112,-2,-6,-4,1,2,7,-3,-3,0,-11,-12,-8,-7,-15,-5,-4
1490317772162,0,-1,1,-13,-3,-6,-11,2,2,4,3,5,0,1,2,9
1490317772211,-1,5,-3,13,2,5,11,7,-1,-7,-5,0,-2,0,0,-2
1490317772215,-1,-4,1,-2,-3,-1,1,-3,3,3,1,4,-1,-4,4,0
1490317772259,2,2,-1,3,0,1,2,3,-4,0,-2,12,-1,3,10,0
1490317772308,-9,-3,-4,-2,-3,7,-1,-3,5,-11,4,-12,5,-2,-10,-11
1490317772359,4,5,-2,-10,2,-10,-11,3,11,0,3,4,1,10,4,1
1490317772406,5,3,-1,28,-2,6,31,17,-11,-1,0,0,-7,-4,5,3
1490317772458,-23,-10,-1,-9,0,-4,-14,-22,7,-5,-4,4,0,5,8,5
1490317772460,-9,3,5,4,1,14,1,7,10,1,1,3,5,2,4,0
1490317772503,6,3,-3,-1,-8,-3,-8,2,-4,1,-2,-15,1,6,-9,-3
1490317772552,5,4,-1,-1,11,2,1,7,2,1,-1,10,1,8,-10,14
1490317772600,4,3,-2,12,0,3,21,13,-5,-6,-5,1,-1,-2,7,3
1490317772648,2,-10,-3,-6,-2,7,2,-22,0,8,9,2,2,8,9,3
1490317772649,-5,0,-1,0,-7,-3,-1,8,3,-1,-4,2,4,1,6,-1
1490317772697,0,-3,1,-2,1,-5,-2,2,-3,-6,-1,-11,-6,-1,-21,-4
1490317772746,2,-2,1,1,0,-2,2,4,2,1,3,8,-1,1,15,28
1490317772795,-21,-4,-3,11,-1,5,14,7,3,3,-1,1,-1,2,2,-5
1490317772844,4,-4,-1,-12,2,-6,-11,-4,-8,-1,-2,4,-2,-2,5,4
1490317772892,-10,-4,-2,6,-1,1,2,7,9,5,-2,2,0,6,1,-2
1490317772895,7,-1,-4,-1,-2,3,1,2,-8,-7,2,-7,4,-4,-4,2
1490317772942,-2,-8,-3,6,2,0,7,3,6,12,15,20,-3,6,16,28
1490317772990,-5,-5,2,11,0,-1,9,1,-1,-4,-5,-5,-3,-9,2,-7
1490317773038,-3,-4,0,-11,-1,-7,-14,-17,-2,3,0,3,3,3,3,3
1490317773088,5,6,0,14,2,6,8,13,4,-9,0,0,-4,-10,0,-1
1490317773135,1,-8,1,-1,0,-5,1,2,-10,3,0,1,-1,9,-1,3
1490317773136,-6,2,-1,0,2,1,3,5,11,1,-2,11,4,6,21,16
1490317773185,4,-14,-2,5,-3,0,6,4,-8,-10,-2,-3,-1,-4,-5,-11
1490317773233,-15,-3,0,-19,-6,-6,-17,-6,-5,2,1,2,-3,3,3,0
1490317773283,-6,10,2,11,3,1,5,5,16,-1,2,-1,-1,-3,-3,-1
1490317773331,8,-1,-1,1,2,-3,2,-12,-10,4,1,-2,-3,-6,0,2
1490317773332,9,3,0,4,0,-3,5,6,7,2,-2,17,1,6,25,8
1490317773381,-2,-1,-2,4,4,3,0,2,-6,-7,-1,-10,-6,-6,-14,-15
1490317773429,-4,-4,1,-19,-8,-5,-17,0,-2,3,-3,3,0,-3,2,4
1490317773478,10,8,3,16,36,6,21,22,2,-5,0,-1,-7,2,0,3
1490317773527,5,7,-3,2,10,6,1,-2,-14,-3,2,4,0,-3,6,7
1490317773575,-5,3,-1,3,81,-4,6,1,3,-3,-3,6,76,3,4,1
1490317773577,-2,0,-4,-3,25,4,-1,2,-6,-3,2,-9,6,-9,-20,-10
1490317773624,-7,-2,2,-8,-76,-6,-8,2,8,3,-2,7,-37,3,6,1
1490317773673,1,-1,-3,9,0,2,11,1,-3,-9,1,-1,-10,-6,1,-1
1490317773721,-2,-3,-2,-5,-13,-10,-2,2,5,9,-1,0,6,12,1,0
1490317773770,7,13,-3,0,3,7,-1,10,-4,-5,-1,-22,-13,-10,-18,-24
1490317773819,-4,-9,4,-15,-7,-10,-12,-19,3,13,3,-3,1,0,-1,6
1490317773821,6,9,-5,14,6,12,6,17,1,-2,0,13,2,-1,-2,-2
1490317773869,-6,-3,1,1,-3,-6,0,-5,-2,-1,1,-15,-8,-3,-2,-12
1490317773916,2,-2,0,-18,-2,-5,-6,-12,3,5,0,23,1,7,15,19
1490317773965,-3,1,-4,26,4,4,24,13,4,-7,4,-13,-4,-8,-19,-23
1490317774013,-1,0,2,-16,-6,-5,-30,-21,-6,-5,-8,2,3,2,5,13
1490317774014,1,1,1,-3,0,2,4,4,3,-3,1,3,3,0,-3,5
1490317774062,6,5,0,2,0,-2,5,9,3,3,-2,4,-1,1,12,3
1490317774111,-2,-7,-5,-2,3,8,-7,-6,6,-2,-2,1,-2,-6,-1,-3
1490317774160,2,0,0,-2,6,4,-3,6,-7,-3,-3,0,-5,-3,12,2
1490317774212,-3,-1,0,1,1,11,13,-7,1,0,0,-3,-2,-3,-2,1
1490317774261,-2,2,-3,1,-2,2,3,11,0,-2,-2,-6,1,-1,-15,-12
1490317774263,-1,-6,0,1,-2,-4,-1,-5,4,2,-2,4,2,3,-1,9
1490317774306,3,0,1,-3,2,-8,-9,9,-1,-2,-3,0,-3,-10,0,-3
1490317774355,2,1,0,2,-4,10,0,6,-3,0,0,-1,-13,-8,-4,-6
1490317774403,-7,-1,-1,-26,-2,-13,-52,-24,2,4,0,2,2,-2,-3,11
1490317774452,20,13,-8,51,1,29,88,66,6,1,-1,36,6,6,54,30
1490317774500,-2,-4,0,-3,3,2,-14,-10,1,0,-2,12,-2,6,9,13
1490317774501,-8,-41,-2,8,-2,-2,-5,-5,4,0,2,-18,-3,-5,-27,-11
1490317774550,-37,20,2,-6,-2,-1,-10,-7,4,6,-5,-2,36,5,-10,1
1490317774602,-8,-10,-3,-2,9,2,-1,-23,6,7,-4,-5,4,-2,-10,11
1490317774648,20,0,-3,-7,3,-4,-6,0,12,-14,2,0,4,-1,-3,-1
1490317774696,31,22,-1,6,2,-3,8,-8,27,-2,0,0,-1,-2,2,-4
1490317774706,-16,-8,2,-3,3,1,-9,-2,0,5,-4,17,-4,1,27,17
1490317774745,11,-2,-12,116,12,10,127,26,-22,-9,5,-65,-11,-20,-94,-46
1490317774793,10,3,-3,24,-3,11,33,18,-27,-11,6,-26,0,-12,-31,-28
1490317774842,-15,-6,8,-50,-5,-11,-77,-22,8,8,-6,2,-2,6,9,27
1490317774891,-3,8,-4,21,-2,8,18,17,-33,-3,-7,7,-1,-3,4,-43
1490317774939,20,-16,0,-34,-2,-16,-45,-54,37,7,9,-8,-1,6,-4,13
1490317774940,7,2,3,7,-2,5,10,39,-17,-24,-6,-14,-2,-6,5,20
1490317774990,-3,15,5,8,2,8,-1,4,22,2,2,-15,-4,-2,-10,-18
1490317775038,-3,6,-7,1,-2,2,0,-6,-19,-26,-4,30,2,-1,20,12
1490317775088,-26,-5,8,-60,-4,-27,-78,-111,-10,10,3,-60,-7,-14,-80,-41
1490317775139,-6,-4,-1,-5,-3,14,-1,73,7,-19,-9,63,4,8,75,52
1490317775151,-9,-8,-1,7,3,-10,8,-33,-7,-26,10,-45,-5,-11,-51,-44
1490317775183,-9,-28,-3,-25,-4,-1,-31,-18,10,8,-12,39,-3,9,61,65
1490317775280,0,3,-5,44,3,0,35,5,18,17,9,-21,2,-4,-17,-39
1490317775281,-20,-25,-5,-53,-8,-22,-49,-20,-1,15,-1,10,-3,9,24,52
1490317775330,-6,-5,-1,45,1,11,31,34,14,-9,-9,-14,-4,-15,-30,-24
1490317775378,-3,-18,-1,-19,-1,-6,-32,-42,-7,9,8,5,5,10,-10,-4
1490317775379,10,-3,-11,-2,-2,-5,-10,-13,-10,-43,0,7,0,7,16,3
1490317775427,38,65,1,-13,2,-9,-6,-24,25,12,8,6,0,2,-6,-9
1490317775476,-9,3,8,3,7,6,-1,0,-20,-9,-12,-11,-4,-7,-13,15
1490317775525,5,4,-2,16,-3,9,10,0,-5,0,-2,-8,0,-5,-4,-30
1490317775574,-16,-20,-2,-41,-2,-13,-68,-36,13,10,5,-1,-1,4,-3,12
1490317775622,4,-9,-4,16,-2,12,20,22,18,7,3,-1,4,1,-15,-17
1490317775624,-15,-11,0,-12,0,-3,-10,-10,-19,-18,1,-23,0,3,-19,0
1490317775671,2,-5,0,-6,3,4,-1,-8,-11,-6,-3,-8,-2,-7,-27,-12
1490317775720,1,0,10,-21,1,-8,-14,2,22,14,-4,-9,1,5,-14,53
1490317775768,34,12,-7,12,-2,6,22,35,17,5,-3,29,3,12,27,37
1490317775816,-14,-8,-2,3,1,-3,-1,16,2,6,-2,1,-5,-6,-3,-22
1490317775817,-18,-25,-5,-2,-2,-12,-10,-33,-6,-1,3,-17,-4,-7,-25,-4
1490317775866,-11,10,0,-14,-2,-1,-5,6,10,-8,-3,17,8,13,19,11
1490317775915,3,-11,8,11,-3,-3,3,-11,35,14,-1,3,5,10,10,3
1490317775964,-15,-16,-6,-19,8,-3,-14,-21,0,11,4,1,-20,4,-8,-18
1490317776013,-9,0,3,5,1,3,5,43,5,-6,-2,-5,-6,-7,-13,-23
1490317776061,1,2,-2,-18,7,-9,-19,-24,-18,-4,5,-12,-3,-7,-10,-1
1490317776063,0,0,-2,6,-11,-12,6,-6,-9,-14,-10,-4,-18,7,0,-10
1490317776112,27,7,-3,1,-9,1,-5,-12,-34,11,4,-22,-17,-10,-41,-27
1490317776159,-8,2,-2,-25,-10,-20,-24,-8,15,-4,3,12,29,23,-3,34
1490317776207,4,4,-3,15,9,5,35,8,9,3,-4,-8,7,2,-4,-20
1490317776256,11,-6,-8,-11,2,0,-7,9,-19,-8,13,-3,11,-4,-7,-12
1490317776353,9,-14,-7,-2,2,-5,-9,-23,7,-1,-5,1,-23,-7,-7,-8
1490317776353,-2,19,3,-8,13,15,-10,-6,-18,-3,-1,-23,-5,-9,-26,-9
1490317776402,11,20,1,4,18,7,-6,-8,9,0,3,15,-2,1,6,27
1490317776403,-29,-16,5,6,1,-13,8,-5,-5,-8,-13,-16,-1,12,-10,-26
1490317776451,-25,5,2,-28,0,35,-24,6,-18,-15,-2,-1,-6,-16,-3,-10
1490317776499,14,-4,6,10,3,-26,-4,65,26,15,-11,-6,-7,36,-12,-17
1490317776501,-9,-2,-20,-12,-46,35,-21,-7,6,0,-16,1,-10,-66,1,0
1490317776551,-11,-13,-26,-1,-39,-32,-3,-3,3,8,15,12,16,66,8,28
1490317776598,-20,12,0,11,2,-41,0,-7,-11,-7,10,-10,27,40,-1,-49
1490317776646,4,-4,16,20,24,-15,-12,-6,-3,1,9,-2,-8,31,-8,23
1490317776695,14,5,4,-13,30,-13,-7,-4,-5,7,-11,-6,20,22,-3,5
1490317776743,-5,1,5,-22,-63,29,-19,-20,-14,-6,4,-11,14,12,-1,1
1490317776744,0,-8,17,-8,34,12,-17,3,-10,0,-2,2,14,17,22,19
1490317776792,3,9,-21,1,40,-6,-8,-2,-17,3,11,6,-9,32,-14,1
1490317776841,9,3,16,37,57,15,-37,1,20,10,18,-5,-38,-3,-5,-16
1490317776896,6,7,1,-4,-5,29,-18,27,-12,-4,23,-6,2,-44,-3,-7
1490317776938,-17,-4,-4,-16,-35,-4,-2,-16,3,-3,8,5,11,27,0,-2
1490317776986,4,2,1,-7,-5,3,-1,-10,8,3,0,12,13,19,28,-6
1490317776987,4,-8,5,-14,-30,-19,-7,-12,-17,-2,2,-45,34,14,-24,-11
1490317777036,-9,-4,-7,-31,-53,-41,-27,-11,11,-1,3,-10,78,35,-8,2
1490317777085,1,0,2,-2,28,-13,-5,-1,-6,0,-11,-13,-54,-20,-16,-8
1490317777133,-8,1,-6,-9,29,22,-4,4,3,-2,0,-8,-48,-36,-11,1
1490317777182,0,-2,14,-9,-27,-15,-3,-15,6,4,-3,7,-16,15,-13,-6
1490317777183,1,-1,2,-10,39,13,-9,-2,-5,-6,5,-27,-38,-27,-69,-11
1490317777231,-5,-7,-22,-13,20,0,0,-2,9,3,10,9,13,-14,11,8
1490317777281,3,2,-13,15,-7,-37,13,19,-6,1,12,-10,42,28,-3,-6
1490317777328,-9,1,9,-16,18,37,-21,-30,-1,-3,-2,-3,-15,-24,0,-4
1490317777377,5,3,-6,-12,4,12,-13,2,8,6,0,-3,15,-14,4,-6
1490317777425,2,0,-8,-9,-3,5,-10,-9,-1,0,-1,-22,-27,-39,-18,-3
1490317777427,-10,-2,4,-2,-4,-34,-15,-6,4,2,-3,-8,-3,29,1,22
1490317777475,8,5,4,26,-19,-43,2,-3,-13,-13,7,-3,29,11,-13,-17
1490317777524,-6,-1,12,-6,-6,2,3,-19,-2,-5,-2,-4,5,-9,-5,-8
1490317777573,0,1,-9,-8,-9,-5,-12,-6,12,9,18,-2,26,16,-3,-4
1490317777620,-3,-2,-4,-6,-24,-17,-21,-11,-9,-4,-17,-22,-23,2,-22,4
1490317777621,0,1,32,-4,6,17,-18,-5,3,4,-3,-17,-19,-7,-18,7
1490317777670,1,1,-17,2,5,33,5,-3,-14,-11,10,-12,9,-26,-11,-14
1490317777718,-10,-9,0,-28,4,-28,-9,-21,3,9,-10,-4,-2,-5,-8,-7
1490317777767,14,4,-7,-3,-4,-2,-8,32,-1,1,14,-9,13,-4,-16,-14
1490317777816,-19,-5,-10,-13,16,-23,-16,-31,14,11,1,-14,14,55,-30,2
1490317777864,9,7,-9,-12,-23,-31,-10,-13,8,5,-30,22,30,30,-24,-1
1490317777866,1,7,1,-5,-5,-21,-11,-19,-15,-10,-9,-36,0,5,-24,-49
1490317777914,-12,0,-7,-49,-44,-61,-29,-19,10,8,38,-10,84,69,-13,-12
1490317777963,7,6,5,-2,22,13,2,5,-2,-3,1,-17,-54,-19,-19,-19
1490317778012,-2,-3,6,-11,28,15,-17,-19,5,1,-4,-4,4,-54,-15,-17
1490317778060,-6,-1,-3,-5,13,8,-10,-18,6,9,-5,4,14,35,26,-3
1490317778110,1,1,4,-9,23,-17,-11,-22,-15,-6,5,-30,-14,-16,-64,-41
1490317778113,4,1,2,-15,-26,13,-14,-16,-7,-5,-3,-13,0,25,-10,-13
1490317778158,10,8,-5,1,23,-30,-10,2,-7,-4,5,-7,-6,0,-3,-16
1490317778207,-5,-1,1,-21,4,23,-15,-26,-2,6,-4,-13,-2,-32,-7,-12
1490317778256,-7,-4,2,-10,-32,-20,-11,-8,-1,-10,-21,-12,55,22,-8,-11
1490317778303,-8,-8,-7,-9,11,-8,-7,-9,2,2,5,-1,-19,-18,4,-3
1490317778304,-1,2,-4,-17,-21,17,-17,-7,13,10,10,-5,22,0,-11,-8
1490317778352,5,3,22,-7,-33,-36,-13,5,-5,-6,-20,-5,-5,-39,-16,-10
1490317778401,-9,-1,-4,-5,14,14,-4,-13,-4,-5,7,-8,-27,-59,-9,-6
1490317778450,2,-4,2,-5,-27,-5,-4,-8,4,15,14,21,28,30,24,-2
1490317778498,2,-3,-3,-9,44,9,-10,-8,-9,-5,-3,-5,-11,10,-20,-8
1490317778547,-10,-7,8,-10,13,29,-13,-6,16,16,8,1,50,26,-11,22
1490317778548,1,-2,-10,-19,-23,4,11,-10,0,-1,10,-14,28,16,-11,-15
1490317778596,-1,-3,-3,-9,-20,-31,-19,-3,-10,-5,-5,-10,40,52,-12,-2
1490317778645,5,7,12,-2,-14,25,-8,-7,2,-2,-6,-2,30,-9,-17,-6
1490317778694,2,1,-10,-7,15,13,-9,-5,-2,1,10,-17,-38,-58,-42,-15
1490317778743,1,-4,-5,-8,5,21,-6,-3,2,4,-5,-2,1,-9,0,12
1490317778791,7,2,2,30,-24,-38,6,9,-25,-10,14,-8,36,5,-8,-6
1490317778793,-13,-9,-13,-17,17,11,-29,-24,9,6,13,-3,-10,-6,1,-5
1490317778840,-3,0,-10,-10,-4,-13,-3,-3,7,4,6,-3,-13,21,0,-5
1490317778888,2,2,2,-10,-13,-13,-1,-7,1,-8,-13,-21,3,-30,-22,-4
1490317778937,0,1,4,-13,-20,14,-5,-4,5,5,1,5,20,34,-3,0
1490317778985,2,3,-12,-2,18,27,12,-5,-6,-2,1,-14,-13,8,-9,-10
1490317778986,-7,-7,-2,-21,-56,-66,-26,-32,-7,-1,0,-10,8,-7,-14,-5
1490317779035,6,2,14,-4,-12,12,-1,5,4,-3,-14,-2,0,16,-9,-11
1490317779084,0,-1,-21,-5,12,2,-7,-4,-5,4,9,-11,-14,-30,-34,-6
1490317779133,0,-5,-6,-4,2,73,-5,-4,3,1,1,-9,-13,-60,-14,-6
1490317779182,1,4,-18,-6,3,-24,9,-3,-10,-3,16,-9,33,46,-18,-15
1490317779229,-10,-8,-4,-7,29,-54,-8,-12,0,7,-7,-1,-15,13,-6,-5
1490317779232,-2,4,17,-3,-10,-7,-14,16,-3,0,-5,-6,-38,3,-8,-5
1490317779280,-3,-8,-2,-9,8,8,-18,-10,8,10,12,-1,14,4,-2,-2
1490317779328,6,0,5,-3,11,7,-11,-3,5,1,-13,-7,-15,-14,-4,23
1490317779379,1,-1,-7,-1,-9,3,-2,-5,-3,-3,8,-13,9,-21,-17,-11
1490317779425,-2,-5,-12,-36,-19,32,-4,-13,6,4,-8,-10,11,-5,3,-1
1490317779473,-5,-4,12,-5,-43,27,-3,-8,8,2,-3,-10,27,-11,-4,-1
1490317779478,-16,-9,-17,-9,4,-16,-10,-6,-2,-4,3,-11,-49,-6,-12,3
1490317779523,10,4,6,-7,17,-6,-5,-4,1,0,-6,21,3,1,-33,-43
1490317779572,-4,3,-2,-5,9,16,-6,-8,-7,-8,8,-28,19,-5,5,10
1490317779620,-2,-4,-1,-13,9,11,-16,-30,10,4,0,-9,16,7,3,0
1490317779668,5,7,4,-14,19,-25,-6,20,-7,-4,-13,-14,-20,-1,-8,-5
1490317779669,-12,-6,5,-9,-6,-29,-5,-10,-5,-4,5,-15,-40,-14,-15,-16
1490317779717,5,0,5,-5,-19,-45,3,3,-4,1,-12,-8,12,15,-33,20
1490317779766,-9,1,5,-8,18,25,-3,-10,2,-7,-9,-1,0,5,-7,-32
1490317779815,11,2,2,-36,-48,-28,-6,-7,1,4,-5,-6,11,-9,-6,-13
1490317779864,5,12,8,15,-1,-10,9,27,-5,3,17,-6,15,-29,-6,-9
1490317779912,-11,0,3,-8,16,0,-4,-14,-3,-5,2,-5,-7,-8,0,-1
1490317779914,8,3,-2,-4,-24,57,-3,-5,7,-3,-10,-8,2,-4,18,2
1490317779962,-20,-5,-8,-8,-9,-47,-1,-9,4,0,5,-11,10,25,-25,-12
1490317780009,17,-5,-3,-6,-1,-34,-13,-3,4,2,0,-2,-11,-7,-10,7
1490317780058,-3,2,-13,1,-25,-52,2,1,-15,0,5,-9,48,39,-13,-11
1490317780155,-11,-9,0,-10,-18,2,-3,-26,-14,-7,-7,-3,-12,25,-12,-8
1490317780156,2,1,1,-9,11,-3,-3,-2,-8,3,-9,3,-12,-5,1,-7
1490317780157,-7,-1,1,-9,5,-6,-9,-7,9,-2,17,-27,-10,7,-13,-9
1490317780205,-3,-2,-14,-11,-39,-6,-20,8,4,5,-18,2,43,3,2,21
1490317780254,2,3,-3,13,24,38,6,14,4,-2,-7,-4,-31,-23,-10,-27
1490317780303,-15,-12,3,-22,-1,-14,-17,-13,-17,-3,-9,-9,7,-5,-3,2
1490317780351,-1,9,2,-4,-2,15,-8,5,15,-1,2,-1,12,9,-5,-4
1490317780353,17,-11,-10,-11,-6,12,-13,-7,-11,3,-2,-10,10,-3,-10,6
1490317780400,-25,0,2,-2,-14,7,-7,-5,4,4,2,3,-11,-18,9,47
1490317780449,10,-3,-2,-8,-12,-5,-15,-5,8,-1,-2,-12,-7,-21,-12,-20
1490317780497,-5,-6,1,-21,-27,-29,-20,-20,-10,-5,-19,-10,29,18,-10,-6
1490317780546,3,2,-4,-4,-21,1,-6,1,4,-3,-9,-10,5,1,-14,-9
1490317780594,11,-8,-3,-7,6,10,-7,-2,1,0,-1,-14,-2,-11,-16,-6
1490317780595,-23,-6,-6,-8,-7,-15,-5,4,-2,2,-6,2,-7,5,2,8
1490317780643,21,0,-4,2,3,7,10,-9,-9,-9,-1,-11,-1,-10,-12,-14
1490317780692,-12,-7,-3,-20,-3,-1,-16,-10,0,5,-11,-8,6,1,-6,-7
1490317780741,8,2,-3,-6,5,11,-8,24,1,-3,2,-5,-1,-8,-8,-3
1490317780790,-9,-5,1,-8,-1,-8,-9,-6,-2,2,-4,-13,-5,-1,-8,0
1490317780792,5,3,1,-6,-2,1,-4,-8,-1,4,-1,7,0,-1,-3,-10
1490317780840,-1,-1,-2,3,-3,-1,-5,-8,-17,-13,0,-7,-1,-8,-9,-35
1490317780888,-5,-1,2,-16,-4,-2,-13,-2,15,8,0,-5,-2,6,-5,17
1490317780936,-5,-1,-3,2,0,4,4,-23,-14,-7,-6,-6,-4,-9,-8,-1
1490317780985,-8,-2,1,-5,-2,-9,-6,-5,6,0,4,14,5,7,-1,-2
1490317781034,5,2,2,-4,1,6,-5,-3,-4,-7,2,-3,4,4,-10,-8
1490317781036,-9,-8,0,-14,2,-6,-4,-10,3,3,3,-11,-1,-6,-13,-16
1490317781083,17,10,-2,-6,-4,3,3,5,12,4,-3,-5,-2,3,-6,-4
1490317781131,-6,0,-1,4,-1,5,3,-7,7,-5,3,-5,-2,-5,-8,-9
1490317781180,1,-6,0,-8,0,-3,-9,-13,-3,3,0,-7,1,-4,-12,-8
1490317781228,7,4,1,-2,4,0,-5,-4,-9,-1,-5,2,-3,0,0,-5
1490317781276,2,-2,-6,-9,0,-5,-4,-12,-3,-5,1,-11,-3,-2,-9,-11
1490317781277,15,2,-2,-4,-1,-2,-5,-1,9,6,-2,-1,0,3,-4,2
1490317781326,10,7,-1,10,1,3,7,3,-6,-9,-1,-4,1,0,-3,-11
1490317781375,5,-4,-1,-9,-3,-6,-10,-10,-13,-5,0,-12,-3,-4,-11,-4
1490317781425,-7,-3,-3,-3,-7,-1,2,-11,11,1,-2,15,1,1,7,0
1490317781471,-4,1,2,3,2,0,1,-7,4,-5,2,-10,0,-3,2,-7
1490317781472,-10,-8,2,-15,1,-2,-15,-10,16,9,0,-7,0,0,-6,5
1490317781521,13,7,-1,2,-4,-1,3,16,7,-5,-4,-11,0,2,-13,-12
1490317781570,-3,0,3,-6,1,-18,-5,-25,-9,-8,-2,-9,0,-9,-7,-6
1490317781618,-1,0,0,-3,-2,-10,-4,-3,-13,1,-2,7,-2,8,3,-7
1490317781669,-8,-11,2,-11,-3,-2,-8,-5,9,10,-2,3,-1,0,-3,17
1490317781716,46,29,-9,67,-1,18,89,71,-15,-14,-2,11,1,7,6,-28
1490317781721,-25,-27,2,10,9,-15,19,-91,-60,-29,9,-128,-7,-31,-122,-82
1490317781765,-22,-9,6,-96,-8,-16,-99,-46,57,36,-2,96,2,36,97,112
1490317781815,22,13,-8,27,-4,5,31,35,-20,-12,3,-15,0,-11,-25,-38
1490317781862,-15,-10,3,-34,2,-13,-39,-30,11,9,-4,-6,-2,2,-11,23
1490317781911,6,4,-1,9,-3,2,9,15,3,1,-4,16,1,1,15,11
1490317781959,-7,2,3,-12,0,0,-11,-10,-2,-6,-2,0,0,-2,-6,-7
1490317781960,-10,1,0,4,2,-3,-6,2,3,1,-2,-3,-1,1,2,-2
1490317782008,0,-2,0,-9,-1,-1,-6,-8,-1,-4,-4,3,-1,-1,2,9
1490317782057,4,-1,-2,4,-1,0,5,3,-2,-2,3,12,0,2,1,-7
1490317782107,-7,-3,-1,-1,2,2,-6,-18,-4,-1,0,-5,-1,-3,-3,-9
1490317782155,-1,-2,0,-1,1,-2,-7,2,1,-1,-3,2,-2,1,0,-1
1490317782157,4,1,3,1,-2,-3,0,0,-1,0,0,-3,-1,-2,-3,-4
1490317782203,2,-1,0,1,-2,2,3,7,3,0,-4,0,1,-2,2,4
1490317782252,1,-3,-1,-6,-1,-1,-8,-8,0,3,1,-1,1,-1,-1,-4
1490317782301,-1,-1,-1,2,-3,3,3,2,-2,-5,-3,2,-2,0,-3,-3
1490317782350,-1,0,-5,-1,-2,-1,-5,-8,-5,-6,8,-8,2,-3,-3,-5
1490317782398,0,2,0,-5,1,0,0,0,4,1,-3,6,-1,3,5,7
1490317782399,3,0,-1,3,-4,4,0,-2,-2,-2,0,-7,-2,-1,-9,-7
1490317782448,-4,-4,-2,-7,3,-1,-4,-3,4,2,-1,5,0,3,5,4
1490317782497,-3,3,-1,-1,-2,-1,-1,-3,-6,-5,1,-7,0,-3,-4,-10
1490317782545,6,4,4,-1,0,1,-4,1,1,1,0,2,0,0,-1,4
1490317782593,2,0,-2,6,2,1,3,5,-2,-3,1,1,0,-2,-5,-6
1490317782641,-3,-3,-5,-3,-3,-2,-2,-4,2,0,6,-3,-3,2,-1,-1
1490317782642,-1,-2,-1,-1,1,0,1,3,-1,1,1,4,1,-1,7,2
1490317782691,1,0,-3,4,-2,0,0,1,-7,-4,-1,-11,-2,-3,-9,-8
1490317782740,-1,-3,-2,-9,0,-4,-12,-8,4,5,0,2,-4,3,2,4
1490317782789,4,1,-5,7,2,4,8,10,-1,2,2,-1,1,-3,-3,-5
1490317782836,-6,-2,3,-10,-3,-2,-6,-11,0,1,0,2,0,-2,-8,4
1490317782837,7,2,0,6,-2,3,5,10,0,-1,-2,9,0,1,12,6
1490317782886,-5,-3,-2,3,-2,-2,2,-5,-11,-4,1,-20,-1,-6,-23,-16
1490317782935,-3,0,1,-16,0,-5,-20,-5,8,5,-5,14,2,4,13,19
1490317782983,13,3,-4,21,-1,7,26,23,-4,-3,-2,-3,-3,-1,-1,-3
1490317783032,-14,-12,-2,-14,-5,-9,-21,-28,3,3,0,-11,-1,1,-10,0
1490317783080,3,-1,0,-6,1,2,1,1,3,0,-1,20,1,2,22,6
1490317783082,0,-4,-4,15,0,-1,6,7,-20,-9,1,-30,-4,-10,-38,-32
1490317783130,-8,1,3,-25,-6,-3,-17,-14,11,6,-3,12,1,5,20,28
1490317783179,21,15,0,35,2,10,36,27,1,-4,-2,2,2,4,-2,-3
1490317783229,-18,-13,2,-19,0,-11,-26,-27,-9,-5,1,2,-4,-9,3,-5
1490317783327,2,4,4,6,-1,0,6,2,15,10,0,6,0,12,1,2
1490317783329,14,5,-4,-2,1,5,-3,2,-20,-12,5,-16,1,-12,-15,0
1490317783330,-14,-10,4,2,-5,-16,2,5,22,10,-5,24,-2,11,24,26
1490317783373,12,13,-1,8,0,15,5,1,2,-4,-1,-5,4,1,-5,-5
1490317783422,-21,-17,0,-22,-2,-15,-24,-14,-8,-5,3,4,-5,-12,4,0
1490317783471,5,5,2,7,-3,1,10,23,5,9,-2,-2,6,16,-2,-2
1490317783519,6,2,-7,1,0,5,1,-1,2,-21,5,1,-6,-17,2,3
1490317783520,3,-4,4,6,-4,-5,4,5,11,14,-5,19,2,15,15,12
1490317783569,1,16,-1,2,3,8,0,-1,-18,-13,-3,-7,-4,-13,-9,-19
1490317783619,-9,-9,4,-10,-4,-12,-10,-5,7,4,1,2,-2,6,4,1
1490317783667,19,9,-4,16,0,15,8,24,-1,-1,1,-1,-1,-2,-1,3
1490317783716,-2,-4,-4,0,-1,-6,1,4,4,0,2,3,-1,2,4,7
1490317783763,5,7,-5,3,-2,7,4,2,6,-1,-3,8,0,-1,10,2
1490317783767,-2,-11,3,-1,4,-7,-2,0,-15,-12,0,-19,-5,-13,-14,-17
1490317783812,2,4,2,-6,-4,0,-7,5,15,13,-4,9,2,10,3,16
1490317783861,14,9,-5,17,-1,12,21,26,-4,-7,3,2,-4,-10,1,4
1490317783910,-11,-12,3,0,-1,-12,3,-7,6,10,-5,5,0,9,6,7
1490317783958,9,7,-3,5,4,6,6,5,3,-7,4,8,3,-5,7,2
1490317783959,-1,-6,2,0,-5,-4,3,1,0,-5,0,-8,-6,-7,-8,-7
1490317784007,7,9,-1,-2,2,6,0,5,-1,5,-9,6,2,7,8,1
1490317784056,-18,-31,-1,16,4,-30,14,9,-23,-47,1,2,-6,-89,2,6
1490317784105,-6,9,-3,1,14,-6,4,-30,63,92,1,-2,0,120,0,47
1490317784154,28,49,-2,4,-48,69,4,3,-57,-75,0,5,25,-106,3,10
1490317784202,-1,-29,-2,2,73,-17,1,13,2,50,-4,-45,4,30,-19,-43
1490317784207,-66,-16,7,5,13,-81,4,-7,10,-52,1,44,-6,-12,17,63
1490317784252,37,62,-4,28,-21,86,14,21,-1,31,-1,0,-15,48,1,-17
1490317784300,-10,-13,3,-6,-3,3,-4,-30,-9,-30,2,4,5,-14,7,8
1490317784348,-2,-6,-5,2,2,-9,3,22,-6,17,4,1,2,16,1,6
1490317784397,-2,10,-2,0,-5,6,-1,5,-18,-19,-2,-6,-4,-2,-18,4
1490317784445,27,-12,2,4,1,-4,4,5,23,-16,-3,14,0,-4,15,12
1490317784446,70,12,-3,-4,-7,5,-1,7,40,14,6,0,-9,-1,3,-21
1490317784495,-18,-2,1,-12,-8,-3,-19,-3,9,-8,-3,2,5,3,4,11
1490317784544,13,-2,-5,5,5,-2,6,-15,-18,9,0,0,0,3,3,3
1490317784593,-10,1,0,0,-5,0,0,-7,-18,-5,2,-3,1,2,1,-10
1490317784641,-7,-10,3,4,5,2,4,8,8,2,-3,14,1,-1,26,9
1490317784652,11,9,-2,9,1,-4,8,8,-5,0,1,-3,-4,0,-3,-7
1490317784689,-11,-5,4,-12,-5,-1,-4,-14,0,3,-6,3,0,6,4,7
1490317784738,6,-2,-1,11,4,2,5,34,-8,3,4,-1,-4,-6,0,0
1490317784787,-11,3,-5,1,-3,0,1,-29,-6,-2,2,0,2,1,0,7
1490317784836,-7,2,3,6,2,-3,5,8,9,-8,-8,-1,-3,-3,7,16
1490317784884,13,12,11,8,-2,-13,14,12,4,-4,4,3,1,10,0,-10
1490317784886,-3,10,1,-5,-5,-3,-13,-9,-2,-3,-4,2,1,1,3,-2
1490317784934,5,-6,-3,11,2,4,15,18,-6,0,0,-1,0,-3,1,6
1490317784983,-3,-2,-4,0,-2,-1,-1,11,8,-5,0,1,1,-2,-1,6
1490317785031,2,4,-4,1,-5,4,0,0,11,2,-1,7,3,-2,12,3
1490317785080,-8,19,-6,0,4,1,-6,-4,-9,-21,0,-9,-3,-5,-12,-6
1490317785128,0,6,-2,-2,1,3,1,9,2,5,-6,4,2,1,2,-9
1490317785129,-5,-5,-4,-4,-4,-4,7,5,25,15,15,1,3,0,-1,12
1490317785177,-3,9,7,-1,-1,-7,0,23,0,10,5,1,2,3,1,2
1490317785226,-1,1,1,1,5,-2,2,-4,4,-15,-4,6,-1,-3,-5,9
1490317785276,-11,3,1,-14,-2,1,-9,-33,-23,-17,-3,-15,-7,0,-25,-28
1490317785324,0,6,3,-5,-1,2,2,5,17,-1,-5,4,2,-3,5,17
1490317785327,16,0,-4,13,1,-3,11,9,18,15,5,-7,-1,8,3,-1
1490317785372,0,10,6,-13,-5,-2,-2,12,-3,-21,-9,0,0,1,4,-4
1490317785421,6,-4,4,16,6,3,2,-2,24,25,6,5,5,2,11,2
1490317785470,-5,-17,-2,-5,-2,3,-15,-21,10,7,2,4,5,3,5,4
1490317785518,18,11,4,-5,0,6,-9,-3,-4,-8,-8,-5,-4,-3,-10,-3
1490317785566,-9,-6,-7,24,0,-1,36,3,-3,-2,0,0,-3,-3,1,-6
1490317785567,0,-11,-3,-8,-5,-1,-4,-9,3,-2,2,-3,2,-1,1,-9
1490317785616,10,9,1,0,-1,-2,0,-3,-9,-6,-1,13,0,7,5,-8
1490317785665,-6,-4,-1,6,0,2,-1,2,-4,-3,2,-3,0,-9,-4,-13
1490317785716,20,-10,2,-8,-1,0,-5,-5,7,4,-1,-1,-7,-4,7,8
1490317785761,-1,-5,2,6,-5,-3,6,16,-10,-1,-1,3,1,-2,6,0
1490317785762,-6,4,-2,-3,-3,-7,0,0,2,1,4,-1,3,7,6,7
1490317785811,1,1,1,4,3,9,1,-8,0,-6,-5,8,1,-1,13,3
1490317785860,-4,-2,1,2,3,1,-2,2,-5,4,2,-3,-3,-2,4,-7
1490317785908,3,6,0,-5,0,0,-12,-1,-2,-5,-2,-3,-2,6,-8,1
1490317785957,4,6,0,12,2,0,13,6,0,-6,-4,1,-3,-8,-3,2
1490317786005,19,3,-1,-11,-5,-5,-12,-9,13,3,1,2,5,2,2,4
1490317786009,-5,-5,-3,-1,1,-2,-3,4,0,1,5,-13,0,1,-37,-18
1490317786059,-12,-1,-2,-22,-5,0,-17,-15,23,2,-1,-5,-5,-2,0,8
1490317786104,25,12,-4,16,4,10,16,22,7,6,2,4,1,-5,-4,-5
1490317786152,-15,3,3,-5,-2,-3,0,-21,-13,1,2,-17,-5,2,-8,-11
1490317786201,-2,4,0,-13,-2,5,-12,2,3,2,-4,23,2,3,18,8
1490317786249,6,0,-4,19,-11,-21,16,15,-15,-3,0,-10,10,24,-9,-20
1490317786250,0,-1,3,-9,-5,1,-9,-5,8,-3,-11,16,-1,-1,13,18
1490317786298,0,-5,-1,6,-1,3,2,1,-2,8,6,4,7,3,-4,-5
1490317786347,-8,-1,1,-12,-1,-4,-21,-12,-2,-6,0,-5,-5,-7,-1,3
1490317786396,9,0,-2,1,-5,0,4,9,-5,0,-6,-2,11,-2,1,1
1490317786445,6,4,4,7,4,2,14,5,0,-4,-5,-10,-14,-7,-36,-14
1490317786447,-11,5,-1,-1,5,10,-16,-3,8,3,-4,11,10,-4,15,14
1490317786493,-14,-1,-9,6,1,1,-3,-25,-7,-10,-2,-3,8,5,16,-5
1490317786542,-14,-11,-1,-9,-5,0,-16,-9,1,3,3,0,-6,-9,-2,-8
1490317786591,7,2,-1,0,1,-3,14,11,-4,2,-4,4,-2,1,-5,6
1490317786640,1,2,0,3,1,0,-11,-6,3,-1,2,-13,-7,9,-1,-1
1490317786688,3,2,2,-6,-1,5,-4,-13,5,-1,-3,9,2,1,19,19
1490317786689,2,-1,0,11,3,-3,27,17,-7,-1,0,-2,-1,-1,-8,-14
1490317786738,-13,3,3,-13,0,0,-23,-24,1,-3,-3,-1,-2,-4,-6,13
1490317786788,5,1,3,9,1,1,6,20,-2,1,-3,-1,3,4,4,-5
1490317786835,-8,-3,-3,-8,-9,-6,-14,-11,-3,-1,-1,-3,0,-1,-3,1
1490317786932,8,4,0,-2,-6,3,-8,6,2,0,-1,6,3,-1,4,7
1490317786934,1,-1,1,6,3,-3,-2,-17,0,-4,-3,-7,-4,-1,-3,16
1490317786935,2,2,-1,-4,-2,1,-10,-12,2,1,-2,0,-5,5,11,-1
1490317786982,1,0,-6,1,7,-1,24,2,-5,-6,-4,-6,4,-2,1,-4
1490317787030,3,1,0,-7,-13,-12,-5,10,-5,-3,-3,3,23,13,10,-5
1490317787078,0,1,-1,2,-4,-2,-7,-17,7,-1,1,-1,-5,2,-4,1
1490317787126,-3,2,-2,-5,-5,-5,-1,4,2,-1,3,1,4,8,-6,-1
1490317787128,7,2,-2,2,-4,16,15,7,-2,-1,0,-7,-6,-12,-18,-6
1490317787177,3,-1,1,-1,2,-6,10,14,5,0,1,1,1,2,-5,-1
1490317787225,-5,0,-2,-2,-13,-29,30,10,-4,-2,-3,3,10,1,-2,2
1490317787273,0,-1,1,1,-8,-2,33,-1,-9,-1,-2,-9,-20,-10,-20,-13
1490317787323,3,-1,3,-4,-7,-14,-34,-26,-6,-2,0,4,19,11,11,0
1490317787371,-3,2,-3,1,8,10,14,-2,10,-3,-7,-10,-10,1,-9,-13
1490317787374,6,3,1,5,0,20,21,0,2,6,-2,3,10,-17,8,5
1490317787420,16,9,-1,1,-7,-1,42,10,-10,-15,-1,6,9,11,-16,18
1490317787468,-6,0,-2,-2,-3,-22,-8,-4,-15,-11,-4,-17,-4,-6,-71,-27
1490317787517,0,1,-2,-5,-8,7,1,4,2,-2,0,7,4,-12,0,9
1490317787566,-9,-3,-5,7,39,-1,-31,-9,-11,-5,0,-10,-8,-10,-23,3
1490317787614,-5,-1,-1,-14,-12,-12,-26,-7,3,2,-1,-1,2,-2,41,3
1490317787615,0,3,-1,2,-1,-12,-9,-2,-1,-1,0,0,-11,-21,-16,-4
1490317787664,0,0,0,7,2,-12,36,-1,-5,1,2,-2,32,11,-8,-12
1490317787713,-2,-5,-2,-12,-16,-25,-6,-10,-1,0,0,1,-1,-19,-24,-11
1490317787764,4,-1,-3,1,-6,-10,3,9,-6,-1,1,2,1,-7,23,-2
1490317787809,-3,-4,2,0,3,7,1,-2,6,-1,-2,0,-2,-1,-4,1
1490317787812,3,1,-2,5,1,2,20,8,1,-1,1,2,1,8,-4,1
1490317787859,-5,-3,2,-5,-2,-1,2,-5,-1,1,4,-7,-4,-6,-10,-4
1490317787908,4,4,2,-1,-3,0,2,0,1,-2,-6,5,-3,-3,6,7
1490317787957,1,1,6,7,1,1,10,2,-6,-3,-1,-11,-3,1,-11,-9
1490317788005,-4,3,-2,-10,0,0,-13,-7,6,4,-2,9,-1,-2,6,7
1490317788053,6,-2,-4,9,-1,-2,9,7,-2,-2,2,0,-1,-1,1,-3
1490317788054,-11,2,1,-9,-2,-3,-10,-12,1,-1,-1,-5,0,-3,-10,-9
1490317788102,1,1,-1,1,2,4,3,13,7,-1,-1,10,1,-1,10,5
1490317788151,0,7,-1,1,-2,-2,7,15,-15,-1,3,-7,-1,-1,-8,-8
1490317788203,10,1,0,-8,-3,1,-13,4,-7,1,-5,6,1,3,8,4
1490317788296,-30,-8,-3,10,3,0,18,14,35,5,-2,-2,0,-2,4,26
1490317788297,-11,-5,2,-14,-3,-2,-23,-28,-8,0,0,-17,-4,0,-24,-25
1490317788298,11,7,-6,3,2,2,1,13,11,7,2,22,2,0,28,20
1490317788346,24,7,-5,41,8,-7,44,26,-35,-16,0,-26,-5,-3,-28,-29
1490317788395,-25,5,2,-41,-7,0,-44,-34,-20,-1,-3,18,4,4,23,32
1490317788443,54,0,-11,39,5,4,43,51,-14,-3,1,2,-2,-2,-3,-19
1490317788492,-18,-10,4,-26,-4,-1,-30,-32,-12,-9,-2,-16,-2,-1,-8,-7
1490317788493,-9,-8,-5,14,-15,5,14,26,48,4,-1,7,3,2,5,27
1490317788541,25,15,-3,3,5,-6,0,11,1,-7,3,-8,-97,-5,-3,-1
1490317788590,3,-31,0,4,-10,-3,5,2,20,5,-2,25,61,2,23,17
1490317788638,18,7,-3,2,43,63,5,10,-61,-3,1,-6,-57,-17,-48,-49
1490317788687,-17,9,6,-1,-16,-60,1,4,57,22,-6,53,65,-3,28,48
1490317788735,7,34,-9,48,36,65,13,6,27,15,-9,-5,8,46,2,-21
1490317788736,10,-38,-12,-46,18,-63,-2,-3,55,1,38,14,3,-17,-4,46
1490317788785,40,7,-1,20,17,27,-7,45,-36,-19,-46,1,12,19,-17,-67
1490317788833,-29,0,-6,7,6,15,-4,-38,-38,-8,0,-6,9,0,-15,24
1490317788883,-6,7,-8,5,-27,-1,-9,37,7,-25,-10,0,3,-5,3,4
1490317788932,-26,-32,-4,1,-3,1,13,-3,17,31,3,2,-13,-13,-1,2
1490317788988,-6,-8,3,-5,-13,-5,-10,-3,3,2,-5,6,3,11,2,7
1490317788989,-19,-15,-5,5,1,0,-1,-4,9,27,5,3,1,-2,7,4
1490317789028,19,-12,-1,6,-2,-4,0,23,-9,11,5,2,1,0,-12,-16
1490317789077,-8,4,-8,9,1,3,-2,-29,-11,-19,-3,18,3,7,15,14
1490317789126,25,1,-9,14,2,2,15,23,-25,4,7,3,-3,-9,-2,9
1490317789174,-34,-9,-6,-20,-15,-13,-14,-9,-26,-5,3,7,4,8,3,-18
1490317789175,30,20,1,18,21,13,12,4,-39,-30,-11,1,-2,-4,1,8
1490317789223,-2,1,5,4,-5,-8,3,15,-4,-5,0,4,1,11,-3,-9
1490317789273,-20,-12,0,5,7,12,4,-11,-2,16,1,2,-3,-5,8,9
1490317789321,-12,-7,-1,4,-10,-8,0,2,-23,-7,10,-2,-5,-7,-6,5
1490317789370,1,-14,2,-3,1,0,-13,-7,27,-7,-8,5,12,12,0,5
1490317789467,18,24,-9,18,6,5,23,6,3,-3,6,3,-8,-10,3,11
1490317789470,0,-8,5,3,-8,-8,-4,-2,-2,18,-1,7,7,10,-1,-5
1490317789471,4,12,1,5,7,7,-1,-5,11,1,-3,10,-5,1,3,10
1490317789517,12,10,0,3,-3,-4,18,6,-14,-1,4,-4,-7,-4,-5,-6
1490317789565,2,5,2,-8,-6,-5,-25,-15,7,7,1,8,7,4,9,7
1490317789613,21,5,-5,19,5,7,13,10,-10,-7,-5,2,-5,-2,5,0
1490317789614,-7,-2,0,3,-1,-5,-2,0,2,6,2,6,0,0,0,-2
1490317789710,-6,4,1,6,-4,3,4,-2,2,-6,-7,10,2,-2,16,14
1490317789711,5,-3,-5,2,0,1,10,17,-10,0,6,-8,-8,-7,-2,-8
1490317789760,-8,3,6,-1,-3,-8,-11,-12,7,3,-2,8,0,5,5,2
1490317789809,6,6,-4,25,9,11,16,16,3,-1,0,4,2,-6,1,-2
1490317789858,-3,4,8,-1,-5,-4,0,-1,-6,-4,-4,7,-1,0,3,-2
1490317789861,3,0,-5,7,6,4,5,2,2,6,0,11,-1,-1,9,4
1490317789908,-2,-6,-1,3,-4,-6,2,0,-7,2,3,-4,-3,-7,-13,-10
1490317789955,0,0,-3,0,2,5,-5,-4,3,1,-7,11,8,5,7,9
1490317790004,-1,-1,0,11,-1,-3,6,2,-10,0,5,3,-15,-8,2,-7
1490317790053,-10,-4,2,-2,-7,-2,-4,-9,9,3,-6,3,10,11,4,6
1490317790103,10,6,-8,3,10,8,2,13,-7,-5,5,2,-7,-10,-3,-9
1490317790106,-16,-3,10,2,-13,-9,-5,-13,-3,0,-4,-4,0,2,-10,-3
1490317790150,10,7,-5,4,12,9,8,12,3,-1,-4,9,4,1,9,6
1490317790199,-1,-1,1,-4,-9,-9,2,-7,-12,-6,3,-1,-14,-8,-16,-15
1490317790247,-5,1,4,-16,-1,-2,-13,-6,15,5,-11,-1,15,9,15,18
1490317790296,9,2,-6,7,8,7,20,12,-12,-1,5,-10,-12,-10,-14,-12
1490317790298,-12,0,2,-15,-11,-7,-20,-17,5,2,-1,2,2,5,-4,6
1490317790345,10,3,-5,19,11,7,13,13,3,-2,-3,8,1,-3,10,1
1490317790393,-3,-1,0,-9,-5,-7,-4,-7,-6,-4,4,-18,-5,-2,-14,-5
1490317790442,-3,2,4,-8,-1,0,-9,-4,10,0,-7,16,6,5,15,7
1490317790491,2,0,-4,11,2,0,11,6,-3,-2,6,-12,-7,-8,-9,-9
1490317790539,-2,-1,5,-12,-5,-4,-8,-6,-2,-1,-1,4,1,1,-3,4
1490317790540,6,0,-3,7,1,5,7,5,-2,-3,2,5,0,-1,2,-2
1490317790636,-7,-5,-2,-4,-2,-2,-2,-3,-5,1,1,-11,0,0,-6,-6
1490317790637,4,2,0,-5,-2,-2,-2,2,0,2,-2,9,2,2,5,2
1490317790686,2,-7,-2,12,2,-3,3,2,-2,1,-2,-8,-4,0,-3,-3
1490317790738,-3,0,1,-1,-1,-3,-6,-4,1,-2,-2,-3,2,2,-1,-1
1490317790783,2,3,0,4,1,1,3,1,0,0,0,2,-1,-1,-1,-1
1490317790784,-8,-2,-2,-5,-2,0,-2,-1,-2,-1,0,-2,-1,1,1,-5
1490317790832,-1,1,-1,-5,-3,-1,-2,-1,0,-5,-1,10,4,0,2,3
1490317790881,1,1,0,1,1,-2,0,-1,-3,-1,-2,-3,-3,-3,-2,-1
1490317790930,-1,0,0,0,-3,-1,-3,-2,1,3,2,1,-1,0,0,-1
1490317790978,0,0,-3,2,2,-1,-1,3,0,-2,-1,-3,-2,0,0,2
1490317790980,0,-3,-2,0,-1,1,0,-2,-1,0,-1,0,0,0,-4,0
1490317791028,-2,-1,-3,1,-1,3,-3,1,2,0,0,0,-2,4,-1,1
1490317791076,-1,-2,-4,1,-1,0,2,2,-5,-1,0,1,-3,-3,-3,-1
1490317791124,-2,-1,0,-3,-1,0,-4,-2,1,-2,-2,-2,-1,-1,-3,0
1490317791173,2,1,-2,1,0,-1,-1,-1,-2,-1,-2,5,2,-2,2,-2
1490317791221,-1,-1,-1,-1,-3,-1,0,0,-1,-2,2,-3,3,-2,-3,-2
1490317791222,0,-3,1,-3,0,-2,0,-2,-2,-3,-3,-1,1,2,0,1
1490317791271,-2,-1,1,0,1,-1,-1,0,1,-1,1,-2,1,-1,0,2
1490317791320,-1,0,0,-5,1,0,1,-1,-1,2,0,0,-3,0,0,3
1490317791369,1,-4,-1,2,1,2,-3,-2,2,0,-2,2,-1,0,0,-1
1490317791416,-2,-1,-1,1,-3,-2,-1,0,-3,1,1,-4,-1,1,-3,-5
1490317791417,0,-2,0,0,2,1,0,-2,-2,-4,-1,4,4,0,3,0
1490317791466,-3,1,1,5,-3,0,1,2,0,-2,-3,-6,0,-3,-5,-1
1490317791563,2,-1,6,-2,-2,-2,-2,-1,0,-4,-3,2,0,0,0,3
1490317791564,0,5,-2,5,2,2,2,2,-1,-2,-1,-1,3,-3,1,0
1490317791612,-5,0,-1,-2,-2,0,-5,-3,0,1,0,-5,-4,2,-2,-2
1490317791660,2,4,1,3,1,2,0,0,-3,1,-3,5,-1,-3,0,3
1490317791662,2,-1,1,-2,-5,-3,0,-1,-3,3,2,-1,-1,0,0,-4
1490317791716,0,1,-2,-1,1,1,-3,-2,0,1,2,0,1,0,2,2
1490317791758,3,1,1,3,-2,-2,-1,0,-2,1,-2,0,-1,-2,0,-1
1490317791807,0,-4,-2,0,-1,-2,1,1,-3,-1,-1,-2,-1,1,-1,-2
1490317791856,0,1,1,0,0,2,-1,0,1,0,-3,1,1,0,-1,2
1490317791904,1,-2,-1,8,0,-1,2,-1,3,0,2,1,-3,1,0,2
1490317791905,0,1,4,-2,-1,-1,-3,-5,-2,-5,-2,0,2,1,-3,2
1490317791953,1,2,-2,2,1,-1,-1,2,0,3,-2,1,-1,2,1,-2
1490317792002,1,-5,-4,-1,-2,2,0,2,-1,1,-4,-5,-4,-2,-4,2
1490317792051,1,3,2,1,-1,1,0,0,1,0,4,3,0,-2,1,-2
1490317792099,2,0,-2,-2,0,-3,-3,-1,0,1,-1,-2,1,0,-2,-3
1490317792102,-5,1,1,-3,-3,-1,-2,2,4,-3,-1,6,-2,-2,3,1
1490317792150,-6,0,-2,3,-1,2,1,3,0,-3,2,-3,-3,-2,-4,-18
1490317792198,-3,-5,-1,-5,-2,-3,-5,-7,3,3,0,1,0,1,2,10
1490317792246,-5,0,-2,5,-2,3,2,0,-2,-9,-1,-2,-3,-1,0,-8
1490317792295,5,0,-1,4,2,-1,-2,1,-5,1,1,-4,-2,-3,0,0
1490317792343,3,-1,-2,-1,3,-2,-2,3,5,7,-2,8,3,-3,2,1
1490317792346,-3,3,-1,1,-1,1,6,10,8,-2,1,0,-2,-1,5,19
1490317792392,-14,2,-1,-4,-2,-5,-6,-2,9,5,-1,2,-1,3,3,-9
1490317792441,3,-1,-1,5,5,4,5,-4,-8,-5,0,-3,-2,-2,-7,-1
1490317792489,6,-5,-1,-2,-4,1,-11,-7,-2,4,-2,-3,-2,2,-2,-5
1490317792586,1,-3,0,1,2,4,3,-2,8,-1,-2,0,-1,-1,-1,4
1490317792587,4,2,1,1,0,-1,0,-2,2,-2,-2,-2,1,-1,1,3
1490317792588,0,-1,0,2,0,0,-1,-1,2,-3,2,-2,1,-1,-1,-1
1490317792636,-7,-2,-3,-6,-2,-1,-5,-11,-1,-5,0,-4,-1,2,-2,1
1490317792687,1,0,-2,0,-3,0,-1,0,-2,-1,-1,-5,-4,-4,-2,-4
1490317792734,3,0,-1,-2,2,0,-1,4,1,-2,-5,-2,-1,0,3,0
1490317792785,-1,2,2,4,0,-1,0,-3,2,1,1,-4,-1,-1,-4,-3
1490317792787,-6,-2,1,-3,0,-2,-2,-3,2,1,-2,0,-3,1,-2,-1
1490317792833,1,-1,-5,-1,-3,0,-3,0,3,3,-2,-3,1,-2,1,2
1490317792880,3,-2,-1,2,-1,1,1,-1,-2,-2,7,1,-1,-6,0,-1
1490317792929,-3,1,2,-1,-2,-2,-4,-3,-1,-7,-6,0,-1,3,-2,-1
1490317792977,2,1,-5,1,3,-1,-2,-2,-2,1,2,2,-1,-1,0,0
1490317793026,0,-3,0,2,1,-2,1,1,-2,0,-2,-5,-2,-3,-4,-4
1490317793028,2,2,0,-3,-2,-2,-4,-3,-1,0,-6,0,3,-1,3,3
1490317793075,3,-3,-1,3,-1,0,2,2,-3,0,0,-2,-2,-1,-2,-3
1490317793124,-5,3,1,-10,-2,-5,-6,-6,1,-3,-1,-4,-3,1,-3,2
1490317793173,4,0,-3,0,0,-1,3,3,2,-1,-1,4,1,1,2,2
1490317793224,0,3,0,-2,0,0,3,-1,-6,-2,2,-6,-1,0,-4,-2
1490317793269,-4,0,-1,0,2,2,-4,-4,0,-2,-2,4,-1,1,-3,0
1490317793270,0,0,-2,-1,-1,-3,1,2,-3,-1,0,-4,-1,-2,-1,1
1490317793318,1,3,-1,1,0,-3,18,-1,1,0,-1,4,-1,0,-10,-13
1490317793367,7,-3,2,-2,0,4,6,9,-6,1,-1,-6,-1,-1,2,-1
1490317793416,-2,-4,-1,-4,-1,-4,-23,-17,18,7,-1,3,0,1,5,1
1490317793464,7,-3,-3,0,2,3,-1,-4,-10,1,-1,-4,2,-6,-9,1
1490317793469,8,6,2,-3,-2,-1,2,1,-7,-2,1,-2,0,0,-10,1
1490317793515,6,-3,-3,5,-2,-5,8,-12,-6,2,2,2,-3,3,17,13
1490317793562,-6,0,3,-3,1,-1,-13,-4,-2,0,-2,-5,-5,-3,-4,-19
1490317793659,-4,-3,-1,-7,0,-13,-21,6,2,-5,-3,-2,-1,-1,-9,3
1490317793660,8,-2,-1,7,2,0,6,1,-6,-5,0,-3,0,3,12,4
1490317793708,3,0,-2,-3,7,1,-4,-1,-1,1,-1,-1,-4,7,2,5
1490317793709,-1,1,-2,0,1,1,42,4,1,-2,-1,9,1,-2,8,4
1490317793757,-2,-12,-5,-4,8,-5,-9,-2,2,4,5,-2,-10,-3,-7,3
1490317793806,4,9,2,-2,0,0,-7,5,-1,-5,-11,-8,-2,0,14,3
1490317793856,3,2,3,-1,-1,2,8,3,-6,7,1,-7,-2,-2,-2,-3
1490317793906,-1,-13,-4,-4,0,0,-10,-5,-2,14,0,-7,0,-1,-12,-2
1490317793951,53,20,0,-1,3,1,-2,6,-23,-19,-5,-3,-8,-16,-9,-8
1490317793953,-30,-23,-7,-4,-6,-5,-26,-11,0,-8,-2,4,-11,1,60,3
1490317794001,5,5,2,4,8,1,-39,-8,-8,-5,1,-1,-6,-12,-1,0
1490317794051,-7,-8,0,5,1,5,2,4,-5,1,-4,-3,1,-1,-7,6
1490317794099,0,-9,2,-4,0,0,-2,-9,-2,5,-4,4,6,3,-2,-10
1490317794146,-1,4,-1,-1,-2,-5,0,-2,1,-2,1,9,3,1,-9,-7
1490317794147,0,-4,4,1,-7,8,-11,-12,-3,0,-9,-10,0,-9,3,-6
1490317794196,1,-3,7,-9,-1,-10,6,2,0,16,0,-2,-3,7,-5,-3
1490317794245,2,-8,-21,-8,-2,-7,9,-10,6,-3,15,-2,2,-2,12,12
1490317794293,7,-10,0,-6,14,-4,-15,1,-1,-4,2,0,-5,9,4,-7
1490317794342,-7,-7,-10,-21,-24,1,-21,-6,1,10,8,-8,-28,11,-5,6
1490317794390,-7,-8,-20,-7,2,0,0,-3,-3,-4,9,-12,-22,-30,25,-4
1490317794440,3,12,5,-13,11,28,-1,7,-12,-5,-6,35,-1,-13,-12,-16
1490317794444,11,-2,11,-8,-9,18,-23,7,0,-3,-26,-42,4,-8,-6,-13
1490317794489,-12,2,0,-96,15,18,-2,-2,31,0,-15,-93,-36,-23,-6,9
1490317794537,-2,0,-16,28,-26,-10,36,-6,-2,7,23,32,30,0,-24,8
1490317794586,7,-8,12,-5,29,23,-3,20,15,3,-17,0,-26,-1,14,9
1490317794635,-5,-1,3,41,-79,-29,-27,-7,-3,-2,34,-24,-23,10,21,7
1490317794638,20,2,-1,10,63,-19,15,18,-16,-6,-8,-24,-24,-10,-14,-27
1490317794684,3,-3,2,-11,-26,34,19,-12,-1,1,7,-31,-22,-38,-33,-9
1490317794732,-1,-2,16,-16,11,-5,22,-18,5,3,1,7,-55,-41,7,18
1490317794782,1,5,11,47,-33,-8,-4,27,-27,-11,-13,1,-19,22,6,-48
1490317794830,-23,-10,-19,-20,-6,4,-11,-39,0,-10,-6,-4,6,-19,-16,2
1490317794833,-7,1,3,-13,26,37,-4,-11,-9,2,-1,8,-23,-30,-7,-6
1490317794879,8,3,5,7,41,27,40,-14,10,1,1,-12,8,-8,-14,-11
1490317794929,-3,-5,-3,5,12,-15,-11,-6,-7,-1,-10,-18,5,33,11,0
1490317794977,0,-2,9,-2,-64,13,-3,-31,-7,-3,-28,-3,22,-20,-16,34
1490317795026,3,6,24,20,19,-19,0,19,0,-16,-25,-32,-30,51,-33,-44
1490317795074,8,6,9,8,11,-42,-1,27,3,-2,3,20,-9,13,-24,5
1490317795077,2,4,1,-10,-26,4,-19,16,1,0,14,32,27,45,1,-26
1490317795122,11,0,-6,-10,-20,-21,-1,13,-8,0,8,26,21,5,26,-23
1490317795171,13,5,-4,-6,-31,-20,-1,18,-1,1,5,30,29,1,-6,-6
1490317795220,-4,-3,0,-13,-46,-29,-24,-14,-12,-4,-19,-7,44,59,9,-7
1490317795268,0,-4,-4,-25,-31,-12,21,4,-1,-7,-4,-33,-8,-9,-30,1
1490317795270,-9,-1,5,-3,-10,-16,-3,-22,12,2,-10,4,31,4,18,12
1490317795317,4,-4,-3,-12,-34,-11,10,10,-1,2,-5,-9,-10,1,-1,-5
1490317795366,5,-8,-8,-13,13,20,-11,11,2,-1,-5,-17,-26,-20,28,0
1490317795416,-12,-7,-17,-7,16,5,4,-20,-8,-4,13,-15,-34,-4,-5,-2
1490317795465,1,0,-14,-27,1,-1,7,-10,0,1,-6,18,29,22,3,2
1490317795513,13,7,-18,2,-14,-7,-51,26,-26,-3,4,-15,2,-11,27,-3
1490317795516,5,1,11,-4,-17,13,26,-13,-8,-1,-24,-8,-6,-13,-17,-1
1490317795562,-22,-8,-9,-4,22,-39,-25,-45,17,8,5,-5,8,27,7,-3
1490317795609,3,1,-6,-43,-73,-52,-14,3,-8,-7,5,9,49,8,-42,-5
1490317795658,-29,-9,-17,-21,-26,-29,21,-25,2,0,-5,10,44,31,-14,1
1490317795707,12,3,-2,27,-15,-8,11,10,-2,-4,7,8,72,49,58,3
1490317795756,-9,-2,3,-63,-10,-43,-5,9,8,6,18,66,14,-1,13,1
1490317795757,-1,-3,-7,-1,19,35,-46,-20,4,-4,-5,-31,-47,-9,19,-2
1490317795805,4,0,-7,18,41,-38,-22,11,-9,-2,-5,-1,-10,13,-38,-17
1490317795854,-1,4,9,32,28,14,19,6,16,0,23,-15,-26,-16,7,11
1490317795902,-4,-3,-3,-43,-25,-7,57,7,-2,6,2,26,-12,0,-44,4
1490317795950,-1,-3,15,40,15,30,-3,4,9,3,-1,-32,-51,-58,28,8
1490317795953,4,0,-7,-13,-15,-10,16,5,11,2,5,6,13,-9,8,-11
1490317796000,1,-3,-11,-13,-28,-16,-33,-14,-4,-5,-17,-20,47,61,-3,-5
1490317796049,12,-5,-23,-36,-102,-97,-9,9,-4,-2,6,23,89,100,19,-6
1490317796097,3,-1,-17,-9,6,14,31,7,-6,2,7,-13,-5,5,3,-1
1490317796146,-1,2,-13,-1,44,54,23,-1,-10,-10,-14,-37,-89,-64,-66,-23
1490317796199,7,8,41,19,9,2,-39,7,-20,-3,-13,16,29,43,40,-27
1490317796201,-11,0,14,45,51,44,-6,-6,-4,-6,-10,-23,-35,-57,-5,-33
1490317796243,8,4,6,31,-13,-24,-5,17,6,-6,11,-26,16,50,-24,-22
1490317796292,2,-7,-7,-1,47,-2,-9,3,1,-1,-24,-32,-41,-11,2,37
1490317796341,1,0,8,35,92,92,53,4,-12,-3,3,-3,-69,-41,-19,0
1490317796389,-1,-5,-8,-19,-8,18,14,-19,4,7,14,22,-44,-29,-19,21
1490317796438,5,0,-16,-40,-64,-78,19,10,2,-2,-14,-6,80,86,-30,0
1490317796439,14,4,31,40,-7,-20,-16,17,3,0,-2,2,10,13,-14,15
1490317796487,6,-2,-16,-7,-22,-36,10,9,8,3,13,33,47,39,17,0
1490317796536,8,-1,-8,-11,-7,-20,13,24,-6,3,0,-13,-13,-5,20,17
1490317796585,18,6,24,17,-8,-11,95,27,-11,-8,-9,-6,21,-5,-40,-34
1490317796633,-2,-7,-9,-6,17,7,-1,-28,-9,-8,-13,-6,7,-6,6,29
1490317796635,-5,-8,-31,-23,-26,-10,20,-18,0,-1,8,0,37,-4,-27,0
1490317796682,-16,-4,31,3,-26,-43,-14,-22,-5,-6,-15,15,4,23,-15,-26
1490317796734,7,-1,-20,-20,37,59,15,-6,12,8,26,37,30,7,53,24
1490317796780,-10,-8,-17,6,59,13,-1,-12,-1,2,-6,-17,26,47,23,19
1490317796828,4,4,8,25,3,27,3,25,1,-2,16,5,10,0,-31,-15
1490317796876,0,-1,-16,-25,-45,-40,-24,-1,1,-7,0,-16,58,14,7,5
1490317796877,7,3,-12,-27,-62,-63,34,7,15,2,5,-14,53,34,38,12
1490317796926,7,7,23,49,60,58,-2,7,-10,-3,5,-5,-25,-24,-21,-25
1490317796974,-2,-5,-17,-40,-15,-22,-19,-20,6,3,-19,6,17,-10,-42,18
1490317797023,14,8,18,57,-1,13,-15,16,-12,-10,13,-44,-31,-16,-21,-26
1490317797072,0,-3,-5,-39,-24,29,18,-12,-6,5,16,42,-66,-59,15,1
1490317797073,-14,0,-11,-18,1,-29,23,2,6,-2,-14,0,-47,-28,-8,12
1490317797126,4,-2,1,4,-50,-49,66,13,3,-3,1,9,36,9,-50,-2
1490317797169,1,1,1,-8,28,13,-20,-2,4,4,-1,1,16,-13,19,3
1490317797218,5,-3,14,6,-50,-36,-2,18,-11,-2,21,59,22,2,16,-24
1490317797267,-5,-3,38,-35,6,-6,39,-22,-18,0,-6,43,15,-6,-51,-22
1490317797315,9,-2,7,20,-9,-7,-9,16,17,8,14,-11,19,-3,9,23
1490317797316,-9,-9,-12,-16,-22,-67,-1,10,8,1,17,40,83,84,31,21
1490317797366,-5,1,-8,-13,-20,-4,81,20,-12,-2,3,-4,-48,-53,20,-3
1490317797414,-13,-2,3,-13,-56,-23,-34,-33,-4,-5,-20,10,71,6,-3,-35
1490317797463,7,0,7,0,78,92,0,-13,9,4,5,25,-60,-50,3,42
1490317797512,-2,-1,-2,-45,-73,-37,-17,-20,-8,-7,-22,30,18,9,-8,6
1490317797562,9,7,35,16,-28,-13,17,46,-4,-4,-1,-8,30,1,-18,-13
1490317797563,14,7,20,18,38,-11,20,19,-1,4,6,58,11,4,-6,20
1490317797609,-2,4,2,11,22,-20,-32,-9,-11,0,-10,1,-43,-2,-32,-12
1490317797657,-8,-4,-23,20,-59,-26,-37,-17,1,-4,-4,-19,74,68,-9,12
1490317797706,2,-4,-11,-12,25,-7,-9,-6,1,-1,-6,-17,-19,16,5,-20
1490317797754,-10,-3,-21,-27,17,4,-7,1,-8,-1,14,36,-15,8,7,-7
1490317797755,0,-4,-13,-21,-1,38,15,16,-3,-4,-1,-21,-9,-31,18,4
1490317797803,5,3,35,3,-12,-2,66,12,0,0,-17,1,18,-37,-73,1
1490317797852,-5,-2,-6,-3,-2,9,21,-7,5,1,10,-25,-3,30,48,13
1490317797901,-1,4,12,59,14,10,-36,9,9,1,-26,-8,-69,-54,10,23
1490317797950,12,8,30,11,-34,-39,-18,20,-12,-2,-13,5,-29,-9,-23,-27
1490317797998,3,1,10,35,10,19,-11,1,8,4,1,23,-25,42,34,18
1490317798001,5,0,4,22,-10,-24,7,7,-5,-7,-20,-23,2,29,-13,-10
1490317798047,-11,-9,-12,-4,2,-43,-49,-41,0,3,-3,-8,-10,-5,18,29
1490317798096,8,0,5,22,-30,-46,33,14,6,-1,8,-2,81,72,49,7
1490317798144,6,4,10,-2,-7,23,2,8,-5,-1,1,-29,18,-15,-43,-3
1490317798193,7,9,13,17,-5,-32,12,24,-6,-8,-10,13,-65,-8,-41,-26
1490317798241,2,-2,17,18,-7,-17,-2,7,-4,-2,-8,5,-27,-41,-35,-5
1490317798242,-9,-1,12,29,-83,-21,74,-12,-12,-10,-26,3,69,69,-15,-28
1490317798291,-7,1,17,27,8,32,7,13,-1,-6,-13,0,5,-4,3,-13
1490317798340,7,-2,1,8,7,16,33,12,5,6,9,-13,-3,-12,-34,13
1490317798389,0,-5,-24,-34,-43,8,-8,6,3,4,15,-32,-22,-21,-52,-4
1490317798437,-10,-5,6,14,-12,16,67,-23,5,4,11,27,57,32,61,-8
1490317798439,9,7,-13,-8,23,-20,-34,19,-4,1,12,-4,-16,-5,-6,-3
1490317798486,-4,-2,-2,-23,2,-29,7,10,13,11,9,49,70,60,2,12
1490317798535,-6,5,3,63,3,-33,-52,-5,7,0,4,6,9,33,90,27
1490317798583,-12,-4,-2,-9,22,13,-19,-10,4,-3,-34,-33,-16,-4,-36,11
1490317798632,-3,-4,12,-17,-22,-1,-6,-28,-4,0,-3,11,24,13,15,-8
1490317798680,1,-2,-29,35,78,33,-62,6,2,1,17,4,-31,-21,17,-14
1490317798681,12,3,16,27,83,11,47,27,-10,1,9,26,-14,10,34,-10
1490317798729,-1,-5,-7,-52,1,-10,-8,-35,1,-3,-6,-23,-3,-12,4,-9
1490317798778,5,0,2,44,-18,34,-34,5,6,9,13,25,-109,4,5,17
1490317798828,1,-3,-18,-13,83,-14,-16,-19,-9,-2,5,4,62,21,-79,0
1490317798876,-6,-3,-5,6,60,-6,-6,-7,1,-2,4,-10,11,8,57,15
1490317798925,2,-3,-1,6,-2,13,42,8,3,3,-4,11,52,-9,-16,9
1490317798926,3,-1,-10,-14,-4,64,34,0,9,8,10,-22,-64,-23,-28,12
1490317798973,4,2,13,12,54,-12,25,28,3,1,-11,-34,-19,-11,18,-3
1490317799022,-9,-2,-6,-3,18,-12,-23,-23,-8,-2,4,13,35,7,28,1
1490317799071,-112,-117,-12,-14,25,-13,-24,-23,-65,-121,3,-20,1,-8,-74,-13
1490317799119,-75,109,-17,-10,14,0,13,99,-6,78,14,14,11,-9,1,-1
1490317799120,-22,-2,2,-23,4,8,22,-30,18,2,-7,13,-18,-22,-7,-42
1490317799169,95,-25,-52,2,-32,22,32,-128,127,-118,-88,5,-10,13,16,-61
1490317799224,-27,0,-8,-7,14,-23,-38,51,-5,21,-42,5,-8,8,69,55
1490317799266,-8,-17,-2,3,24,43,-83,-19,29,7,25,-39,-15,-25,6,7
1490317799314,20,11,-1,21,24,-21,-13,7,-1,13,16,23,28,-17,3,6
1490317799362,2,-2,-3,-43,-34,-34,40,30,-4,0,5,3,15,20,-36,29
1490317799363,5,-19,13,-38,53,2,-11,-15,-3,9,12,-14,-30,-48,-29,-3
1490317799460,3,-2,0,58,-42,-13,19,-6,-7,-8,-23,25,29,27,13,1
1490317799461,-1,-3,23,5,-78,-28,15,0,0,-8,-3,-42,68,32,-3,-22
1490317799510,2,-62,39,6,-11,-8,-27,-56,-7,-25,-46,26,8,-13,-11,55
1490317799559,8,25,-9,-14,18,-14,-11,-19,-12,17,-3,-22,-50,-8,-8,-17
1490317799607,-4,-11,-2,-17,-25,12,-7,15,10,12,-11,14,-3,-21,16,-2
1490317799609,11,-12,-25,22,19,-42,-56,-29,-19,-1,1,-10,26,14,34,-17
1490317799656,39,-3,-22,0,-57,-13,-5,49,32,-16,-14,-24,-17,-14,23,39
1490317799706,-19,-6,30,35,31,61,66,6,-8,-21,67,-29,-45,-2,-87,6
1490317799754,-19,-6,5,26,-22,-16,-7,-7,-2,5,1,27,-102,11,51,20
1490317799801,-13,-7,-7,-33,71,7,3,6,4,-3,18,42,-70,-12,-14,-8
1490317799803,-5,5,5,24,109,47,-8,1,1,7,-4,62,78,-18,6,9
1490317799851,-19,-13,17,2,-40,-13,-28,-6,-15,0,-80,-48,-60,-28,-18,11
1490317799899,-15,4,37,107,85,6,3,17,-101,-11,83,0,127,61,-49,-24
1490317799948,104,1,84,-74,40,99,58,1,127,8,-31,-60,44,32,-1,25
1490317799997,-7,2,33,-125,-15,109,36,20,-5,-9,-14,51,33,6,0,-21
1490317800045,25,10,33,-6,-128,-23,-15,5,5,2,-58,-65,-104,37,48,-9
1490317800047,17,18,26,57,-102,-7,25,9,65,-4,21,66,16,-52,-22,-21
1490317800142,-31,-20,-18,15,-3,10,-23,-1,81,-30,0,17,-59,-19,-10,29
1490317800143,-75,10,-8,-37,-3,-32,-79,-19,-36,11,8,-3,15,-89,54,9
1490317800192,-3,-44,20,-15,-110,-26,-33,-89,3,-110,-9,32,95,23,15,118
1490317800240,1,-23,5,33,-36,-67,33,-119,47,-3,-9,45,-16,34,-6,-30
1490317800241,-39,8,5,0,104,-14,-72,16,-12,9,-4,-128,100,45,-19,-12
1490317800289,9,13,13,120,-60,-15,-14,32,-16,3,16,86,-24,33,-91,-10
1490317800338,-1,5,3,-9,-5,-29,59,37,-10,-6,0,-32,-4,24,-71,-27
1490317800387,5,1,-6,-10,2,-27,-21,-2,7,-3,-7,-61,-17,-9,-6,7
1490317800436,-3,-7,-12,-21,-35,-81,49,-3,-12,3,-7,-4,27,-2,-31,13
1490317800484,5,-1,-2,-21,24,51,-10,10,5,3,14,-6,-40,-3,68,0
1490317800485,3,2,-7,5,-12,7,-45,16,-3,-1,-9,-15,-3,-8,25,9
1490317800533,3,-1,14,28,-22,-14,-34,-19,-5,-3,-1,28,38,44,60,-18
1490317800630,3,0,-13,-22,-15,-17,77,1,-4,0,-13,-39,-18,-97,-78,18
1490317800633,7,-1,11,23,8,25,14,-20,-2,-1,-18,4,16,13,-8,9
1490317800680,-4,-1,-6,11,-13,-29,-16,4,-3,-2,3,-23,0,39,-21,-15
1490317800729,-1,5,-26,13,-7,-3,4,26,-7,-1,0,-55,-1,-17,-11,14
1490317800733,-3,-4,7,-30,-5,15,26,-1,1,3,2,13,-8,-31,1,-6
1490317800778,-12,-4,-10,-14,6,-13,24,25,-9,-2,12,15,8,-22,-13,4
1490317800826,2,-1,1,-10,-8,-19,14,-9,-12,-6,8,34,-5,-1,1,2
1490317800875,3,-9,16,-2,-1,-13,-34,-1,1,-2,-1,9,9,1,-29,-2
1490317800923,-6,3,-1,-2,0,-5,9,2,10,5,2,2,5,0,22,4
1490317800925,7,1,4,6,4,1,10,6,-6,-4,-5,-3,-2,-5,1,-12
1490317800972,-5,-22,-2,0,-1,-6,-11,5,5,3,5,3,-1,9,19,-1
1490317801021,2,-19,0,-7,-1,5,5,1,3,12,-1,-5,-1,-11,-52,1
1490317801071,-21,-4,-7,0,-6,0,21,10,-25,-2,-2,3,1,-13,-32,12
1490317801118,16,-1,-4,1,0,-5,-13,7,-4,-12,2,-1,-2,2,-3,1
1490317801167,0,5,0,4,0,10,-10,-11,5,5,-5,3,8,37,-44,15
1490317801168,-2,4,6,15,4,12,22,-7,-4,-5,-3,-2,-2,-30,-66,2
1490317801216,7,7,8,31,51,80,74,-1,-5,2,-4,-23,-35,-41,-25,19
1490317801265,-13,5,-1,-14,-9,20,-51,-6,-3,11,4,26,8,18,42,-13
1490317801314,-5,18,-6,1,9,11,9,22,-3,-10,1,-2,1,-6,7,9
1490317801362,-63,8,-1,-4,0,-4,-16,-14,-14,11,14,-2,5,3,17,-26
1490317801410,23,-8,-6,2,-4,2,21,10,-24,17,13,2,1,-4,12,35
1490317801411,-10,-1,-3,-6,-5,2,-15,-25,12,-17,-6,-1,-2,-4,-5,29
1490317801459,-14,3,1,-6,-1,-13,-23,-31,1,-15,1,1,4,27,13,4
1490317801508,10,0,2,-3,0,-2,-12,18,-4,-5,0,11,-6,5,14,20
1490317801557,0,4,0,7,-2,-3,1,5,12,16,-8,-8,1,-4,-36,-20
1490317801606,15,1,-1,-2,0,-2,-11,-20,-1,3,0,1,-9,-8,4,17
1490317801607,3,0,-1,11,-5,0,16,-3,-14,-1,-20,12,5,1,-17,-14
1490317801657,-110,-10,48,-6,6,31,-50,-19,-46,-4,53,-12,-1,-9,14,-4
1490317801703,11,4,-27,3,-11,-59,-7,23,-15,-7,-17,-4,72,54,-35,-39
1490317801752,-13,5,7,2,52,13,101,9,-96,1,-28,27,-10,-29,-65,4
1490317801801,-8,1,51,-18,3,7,17,-14,-7,-2,0,-9,-9,-66,-1,2
1490317801850,-5,-4,7,-16,-48,-10,-9,-20,28,2,-4,15,-3,-6,5,5
1490317801852,6,0,10,-8,32,-46,-53,1,0,-6,18,14,0,1,-4,-8
1490317801899,-1,10,-6,23,41,3,19,32,2,-2,-5,-7,-1,34,-5,-13
1490317801947,-11,-13,-37,-116,-73,7,-27,-57,-5,1,21,44,14,-67,-92,11
1490317801996,-7,9,54,46,24,33,-23,11,1,9,-4,38,-16,-30,60,25
1490317802044,4,1,1,-54,38,73,-2,13,-7,-8,6,-20,-44,-37,-13,-10
1490317802092,1,-19,-18,-60,-10,20,-8,-15,5,-2,-23,-26,6,4,-3,9
1490317802094,1,1,-30,-22,20,-33,-39,20,1,2,35,41,-2,13,14,-6
1490317802142,6,0,7,-52,-52,-11,2,8,1,7,23,63,-11,-70,-56,5
1490317802191,-3,-9,9,38,29,-6,-3,-11,-4,1,-18,10,1,-2,13,0
1490317802240,-1,-4,20,-17,8,6,-29,1,5,2,-5,2,5,17,20,-11
1490317802288,2,-4,-32,-81,-24,-45,28,12,5,2,3,17,-4,1,-18,13
1490317802291,3,4,-21,2,-21,-9,-36,16,-2,-4,-5,-40,-15,-12,22,8
1490317802337,-4,-1,26,12,25,12,5,-24,-3,-1,-34,15,13,28,21,11
1490317802386,3,10,24,63,1,4,34,2,-7,-1,21,27,-1,25,-31,-40
1490317802435,-5,-9,-3,-1,-2,-37,8,-9,-1,-2,-19,-55,0,41,14,9
1490317802484,-4,0,3,2,1,10,-27,8,5,4,-20,14,17,-21,10,10
1490317802533,3,-3,-20,-8,-20,-14,2,21,-6,1,-16,-8,-26,-21,-17,8
1490317802536,1,-1,-21,-41,-23,-48,11,12,-8,-13,2,-27,57,97,55,-29
1490317802581,4,1,-4,-26,18,10,-3,10,-1,1,8,-1,-25,-31,-39,-6
1490317802629,-1,-3,5,65,37,49,-29,-7,-3,-3,-22,-16,-48,-74,10,13
1490317802678,1,-1,15,29,-6,-26,-39,8,0,-1,2,6,-24,-14,-21,-21
1490317802726,1,2,-10,17,20,-16,-45,11,-2,3,35,15,55,32,-10,5
1490317802727,6,4,7,28,-3,-24,32,14,0,-1,-10,-48,-2,10,-20,11
1490317802776,-8,-2,-17,-46,-36,-22,3,-5,-1,1,-15,1,30,8,-18,6
1490317802838,4,9,15,57,7,-13,6,25,0,2,-2,-59,6,-2,10,16
1490317802874,-1,-1,8,-2,-13,14,-23,-21,-6,-4,-3,0,16,21,30,11
1490317802922,4,-1,-6,-37,1,-21,-5,5,-1,1,-3,62,3,36,18,0
1490317802970,-4,-2,33,21,7,-5,-27,-10,0,-3,-17,23,3,-49,-10,-2
1490317802972,-1,-6,-35,-1,19,23,-21,-14,-4,0,28,-55,-7,-9,-66,-11
1490317803020,2,1,-7,-33,-13,-8,-28,-1,-1,2,-18,-4,-18,-55,-40,24
1490317803069,-3,-1,-6,5,9,-14,30,12,-1,-2,43,23,-23,40,10,-15
1490317803117,3,-4,-16,-20,6,14,-15,3,0,9,18,26,-1,-1,52,8
1490317803166,-1,3,3,26,-11,-32,9,-20,-3,-1,2,4,56,22,-26,-14
1490317803215,5,3,2,20,-1,-3,35,26,-4,0,-3,-1,-21,-7,0,8
1490317803218,3,-3,-14,-57,28,20,24,-20,-1,1,8,10,-9,-8,-43,-6
1490317803264,-3,-1,-21,-78,17,16,-32,13,3,5,3,44,-18,-9,8,12
1490317803312,-5,1,30,12,-27,-15,-74,-19,4,0,-11,-11,-11,-28,51,5
1490317803361,3,3,-7,22,33,20,-29,16,2,1,54,30,-34,-43,-43,-2
1490317803409,-2,1,-10,-9,6,-21,31,10,2,-3,-24,-45,-17,21,8,25
1490317803412,-2,3,-3,42,51,59,33,-14,1,1,-16,-30,9,-12,-2,7
1490317803459,-4,-2,-7,22,-11,-2,0,-11,0,3,-5,15,21,25,-28,-4
1490317803507,3,4,40,23,10,2,11,13,0,-4,-15,-37,6,-1,-55,-4
1490317803556,2,-2,-12,34,15,16,4,2,-1,3,50,14,3,-22,20,-5
1490317803605,2,4,-16,9,29,-2,9,2,-4,-1,2,-6,-18,5,-3,17
1490317803653,-1,0,-5,5,-13,-41,0,-12,-3,-1,16,36,26,39,-17,11
1490317803655,-3,1,-1,7,8,10,7,25,5,5,0,35,4,-15,15,22
1490317803702,-2,5,5,16,15,-8,17,13,4,2,2,-23,18,34,16,-6
1490317803799,-2,0,-5,-47,-9,19,2,10,2,3,-14,-15,-40,-49,40,19
1490317803801,0,-5,16,-7,-6,-22,-60,1,-7,-9,-41,-61,14,-9,-3,1
1490317803849,2,-2,-3,-15,-35,-5,-12,18,-2,-4,21,33,61,67,-6,-35
1490317803896,2,1,2,22,-21,-21,49,-1,4,4,-7,12,8,-10,-16,4
1490317803899,1,1,38,-21,13,15,-21,-8,-1,3,-4,25,-58,-43,-7,2
1490317803946,3,1,-9,31,-6,-20,-7,14,-3,-5,-8,-22,-9,-35,-32,-12
1490317803995,-2,-3,-12,-55,-10,11,17,-5,0,-2,15,32,4,10,26,10
1490317804045,-6,-5,-2,2,18,14,-56,-30,-1,0,-13,4,10,-38,-14,1
1490317804092,-1,1,-2,10,19,-5,1,23,4,5,-37,-58,-39,-7,41,15
1490317804094,4,8,29,62,35,-3,2,26,2,-4,-20,-2,-26,29,2,0
1490317804144,2,4,33,32,-9,-51,51,3,-2,-1,24,34,-10,23,-35,-23
1490317804189,-1,1,-14,-23,-12,-13,-19,3,2,-3,-3,4,-7,15,12,-4
1490317804238,-1,-3,-12,-18,-20,9,-34,-7,0,1,9,-19,-17,-17,-31,9
1490317804287,1,-1,-1,-19,-2,17,4,-1,-1,5,-5,11,43,8,-33,-16
1490317804335,-2,-5,-5,12,41,19,5,-9,4,-1,5,-40,-10,2,12,4
1490317804337,1,-2,20,59,43,104,17,-24,4,-2,-21,-33,-32,-47,-22,0
1490317804385,-1,-1,-3,3,-14,-53,9,-7,-1,-2,-25,-15,19,66,-12,-2
1490317804438,-2,1,3,-15,0,36,57,-1,-4,2,21,25,31,-16,0,28
1490317804482,0,-4,-9,-77,-7,-14,17,40,-6,5,21,53,28,28,-2,26
1490317804531,-1,3,-1,25,-18,-21,-101,12,-3,-12,-22,-51,31,64,24,-3
1490317804579,3,6,-16,7,41,33,-24,20,-4,-3,22,19,-73,-42,-42,-17
1490317804580,0,-2,26,34,-5,7,33,-7,-2,-3,-16,-15,23,-8,37,-10
1490317804628,2,0,-7,6,-29,24,-25,22,-2,0,30,-23,27,-11,73,-22
1490317804677,2,2,-23,-20,8,-5,-51,11,1,0,-19,-11,-35,-56,-12,24
1490317804727,-1,-5,-19,22,-3,14,10,11,3,9,45,21,16,13,30,14
1490317804824,2,2,27,47,15,10,-2,-1,-1,-3,-16,-51,-43,7,-57,15
1490317804828,0,-3,6,-7,-6,-2,-52,-21,3,-3,-19,9,-4,-34,-4,12
1490317804831,-2,-6,12,15,23,-2,-32,-24,-4,1,3,36,15,14,6,1
1490317804872,3,-2,22,6,-43,-29,12,3,-3,0,13,44,51,42,-14,-10
1490317804921,5,6,0,-27,21,10,21,-1,2,1,-14,6,-9,-6,22,23
1490317804970,-5,-7,-13,-2,20,5,-36,8,4,3,22,-29,-11,-27,40,6
1490317805018,4,-2,-14,37,14,10,24,-11,-6,-4,10,-55,-14,9,-24,-4
1490317805019,-2,4,4,1,-14,-12,17,11,4,0,-3,-12,-27,11,-51,-8
1490317805067,1,-1,-11,1,2,-21,-29,-13,1,-2,-17,1,-11,-4,19,16
1490317805116,-6,-6,2,18,-21,10,-40,-28,1,-1,-2,-25,3,20,16,18
1490317805165,-1,-5,-18,2,34,34,32,-1,-2,0,14,33,-20,-40,-25,6
1490317805213,0,0,-24,-101,-6,-22,-13,37,-4,-3,10,35,18,-32,-12,-9
1490317805261,-4,-6,-1,14,-1,0,14,-2,0,-2,-8,9,18,10,25,17
1490317805263,4,0,26,-32,-10,-7,-18,-3,-5,-10,-63,-10,-10,10,-13,5
1490317805311,0,2,-10,34,13,-32,26,1,-4,4,30,-4,-30,-14,-35,-1
1490317805361,1,-3,-8,-4,-2,-41,43,-7,-3,-3,-5,-28,23,43,27,2
1490317805408,1,2,19,75,11,28,55,1,-6,-4,-9,-24,9,21,7,-10
1490317805457,-4,0,-12,-4,-35,0,-52,-23,5,3,23,2,33,-25,8,4
1490317805458,-2,1,21,-20,12,-16,-30,8,-5,-1,16,50,-16,-22,-48,-7
1490317805556,-2,-2,5,26,-6,21,78,-19,4,1,-41,13,-6,-6,-4,36
1490317805559,0,-5,-25,-28,-18,-32,-43,23,-3,1,1,-12,-10,-5,14,22
1490317805606,-4,7,-20,13,19,-9,20,45,-6,-4,16,-61,-37,-8,-39,-20
1490317805653,-5,-6,6,-15,1,37,-12,-24,9,1,17,23,-2,-18,35,-9
1490317805700,4,1,-10,10,-3,20,-33,7,6,-5,-8,-33,20,17,27,19
1490317805702,1,2,5,10,-2,9,57,24,1,0,-17,-65,-24,-12,-1,6
1490317805750,0,-1,-6,30,-2,5,6,-21,-1,-1,1,-14,-7,2,-20,14
1490317805799,-2,0,4,-5,-5,-10,15,10,-4,-8,-27,-31,5,-18,3,-14
1490317805847,1,-2,-13,-3,23,14,-5,-5,-3,0,6,20,10,-6,26,-3
1490317805895,2,3,1,-16,-1,-18,0,12,3,4,-14,4,33,-3,38,21
1490317805898,1,1,-8,-7,3,-9,18,15,-1,5,3,-19,-39,-24,-20,-2
1490317805945,0,-3,15,23,0,27,18,-13,1,1,22,39,0,0,-72,-17
1490317805993,-1,-4,1,11,-11,-23,33,-3,3,-1,-1,11,15,38,29,5
1490317806042,-5,-6,-7,-57,-16,8,26,-3,-6,-4,2,-11,7,4,-48,-10
1490317806091,-3,0,3,-6,-32,17,-3,-6,-1,-2,-20,-55,-2,15,19,14
1490317806139,23,2,-3,1,-22,-18,-41,-1,-8,-2,-5,-4,-16,-23,-24,-18
1490317806141,7,-1,-3,6,8,-15,-53,17,-1,1,2,7,16,22,39,20
1490317806189,8,-5,-16,-40,4,-10,-24,5,-2,0,12,0,-34,8,27,-23
1490317806285,7,-4,5,25,20,73,74,-9,7,0,9,-2,4,-34,-43,-11
1490317806286,-1,1,-7,-2,-2,-20,36,19,-4,1,-20,-39,-1,26,-8,12
1490317806335,2,-1,19,42,18,3,14,-13,1,3,-8,-1,-34,-38,-54,14
1490317806383,-4,-6,9,-20,10,-19,-126,-42,0,-5,-9,37,-6,6,34,10
1490317806384,-4,0,-22,29,1,6,-15,18,0,2,12,-43,-16,-23,2,14
1490317806432,2,-7,-8,-17,-13,1,11,1,3,1,-1,14,13,-9,-3,18
1490317806481,-3,1,4,-5,4,26,-10,7,1,3,11,-4,-14,-25,-33,2
1490317806530,2,-1,1,-6,0,-1,-14,2,-4,1,-1,13,7,-10,48,11
1490317806578,2,0,-14,-8,-1,12,29,27,1,-2,-2,-5,-4,-8,-17,6
1490317806580,1,-1,-4,12,-10,7,15,-12,-1,-3,4,-15,0,-26,-22,-4
1490317806627,2,1,-10,-5,-3,4,-1,13,-3,-6,-5,-18,17,-3,-7,-15
1490317806676,-5,1,8,23,-4,-10,-13,-13,2,1,11,28,4,16,-22,5
1490317806774,-5,-5,-4,3,-1,-34,13,-6,0,2,4,4,-7,-2,-30,-4
1490317806778,1,-1,-9,-14,-2,42,0,-2,1,-3,24,17,14,-2,2,-8
1490317806822,1,0,4,7,9,18,15,-8,-5,-2,-6,-3,-3,-3,-9,-4
1490317806826,2,-3,-5,-2,20,22,14,-12,-4,-1,-6,-9,-5,-20,18,6
1490317806871,3,1,4,-9,7,5,8,13,4,2,2,7,-14,-8,4,-3
1490317806919,-6,0,9,7,-5,-20,22,-27,-1,-3,-1,28,3,-31,-3,5
1490317806968,-11,-2,2,18,4,-2,11,-14,0,2,-6,-8,-5,10,-5,-5
1490317807017,-4,-3,-6,0,0,-38,-30,3,-5,3,-2,-5,-3,7,12,6
1490317807065,3,1,-4,1,0,29,30,8,-4,1,1,-2,0,20,-1,-3
1490317807066,0,1,-5,-3,14,18,-5,3,-4,-5,-7,-6,12,1,-16,2
1490317807114,1,-1,2,8,3,-4,-1,-1,1,-1,0,-2,-15,-9,-15,-1
1490317807165,2,0,-1,-4,-22,-13,20,9,2,1,0,2,-15,0,-21,1
1490317807215,1,1,1,-4,0,-3,13,-4,-1,-2,-1,-5,-10,-14,0,5
1490317807261,2,1,-4,-1,4,11,7,7,2,2,-67,-2,-7,23,22,6
1490317807263,-4,0,103,-4,-8,15,4,-8,-1,-2,127,3,-20,-25,1,0
1490317807310,2,1,-30,-1,78,43,-2,-8,1,-1,-14,-4,17,-17,-21,-7
1490317807361,0,0,16,-9,-1,-11,36,3,-2,-6,11,-6,72,10,-25,-8
1490317807408,1,1,-55,11,-6,-1,8,-6,0,0,-11,1,2,13,-21,1
1490317807456,1,3,48,-124,57,-13,-21,-2,-3,0,-21,-125,48,18,62,-6
1490317807504,2,-2,44,100,32,22,-5,-10,0,-4,54,120,88,1,-6,-2
1490317807507,-2,-1,-53,-36,-65,-1,-10,-1,-1,0,-66,-36,-128,-32,0,2
1490317807553,-2,-3,-103,-128,-97,-17,14,11,0,-3,-23,-54,-47,13,-4,3
1490317807602,-2,-8,-93,-84,-98,-11,26,18,1,-17,-60,-7,-110,-30,14,13
1490317807651,1,17,-117,-19,50,1,16,14,-5,-1,-25,106,127,5,-20,-38
1490317807699,-3,22,-19,-40,-47,-10,0,-6,5,-9,18,-55,-78,0,16,15
1490317807747,0,4,-91,-82,-117,-14,18,7,2,8,-92,-110,-22,-30,3,6
1490317807748,3,-52,7,-52,114,7,10,9,-3,-38,3,-8,-76,0,20,3
1490317807845,-1,-28,-2,34,97,-24,-19,-3,-1,-39,5,16,122,-3,3,-7
1490317807846,3,-25,62,-1,-71,13,4,-5,0,-28,105,-75,-104,-31,-32,-10
1490317807896,-1,3,-64,113,99,-5,16,-16,-2,24,-98,127,127,-6,-76,-31
1490317807942,2,-7,1,-47,-34,14,21,6,-1,-7,10,-18,5,3,0,4
1490317807944,-2,3,24,-20,-1,-37,-27,-6,2,-7,8,18,8,25,39,-3
1490317807992,0,3,6,-1,1,6,3,3,-1,0,-7,0,-2,20,32,-2
1490317808041,0,3,-2,-6,-3,-11,-2,3,-3,-4,4,3,-3,4,-13,-6
1490317808089,2,1,6,0,3,36,-17,10,-1,-1,-3,0,4,-9,-4,-1
1490317808138,1,0,0,-2,-8,-17,2,3,0,-3,1,2,1,22,8,4
1490317808187,0,-2,-2,-2,0,17,20,-1,-2,0,1,0,1,-18,-10,-1
1490317808190,2,3,-1,3,4,2,7,7,-4,-2,0,0,6,2,1,-7
1490317808237,0,2,-4,0,8,22,4,6,-1,-1,-4,4,3,14,22,8
1490317808285,6,-1,-1,1,1,-7,7,11,-4,-1,1,-1,-1,-29,9,-8
1490317808333,-2,-1,0,1,-3,11,3,-7,2,0,2,-3,-2,-3,-20,7
1490317808381,4,0,0,3,-1,-27,-22,7,-1,-3,1,-3,-3,44,11,-5
1490317808382,1,2,-6,2,1,-8,-2,3,-2,-1,0,-1,3,24,-8,-7
1490317808431,2,-1,-1,2,1,-3,2,-6,0,-4,4,-2,4,34,-9,-4
1490317808479,-1,2,1,0,0,10,-2,1,-2,0,-2,3,4,2,18,1
1490317808528,-3,-2,-2,1,0,-16,-20,-2,-2,1,-1,0,-3,6,8,2
1490317808577,-1,-1,3,-4,-4,-49,-8,-3,2,3,-3,4,1,48,17,2
1490317808626,-3,-7,0,-2,-2,11,-15,-7,-1,0,-3,-5,-7,-27,-18,-8
1490317808628,1,3,2,1,-3,-7,-5,6,2,1,-4,-2,1,8,6,6
1490317808675,-5,-5,-1,-2,6,34,7,6,-22,-3,-5,-11,-8,-22,1,-6
1490317808724,9,6,-1,1,5,34,-1,4,-3,2,1,-13,-7,-17,6,10
1490317808772,-2,0,1,5,9,22,9,14,-11,-2,6,5,-10,-31,3,2
1490317808821,-3,-2,-4,5,-4,43,5,-7,-2,1,12,-1,2,-11,-8,4
1490317808868,-2,-3,3,-5,3,-7,2,-10,-3,1,-4,10,8,16,6,-2
1490317808870,-4,3,-6,-5,17,-2,7,-6,0,-2,-1,-8,-17,6,9,1
1490317808918,-1,-1,-1,0,4,-18,3,-10,1,4,10,20,-10,15,2,-6
1490317808967,0,4,16,-11,2,2,-16,6,3,-6,-21,0,9,-12,3,-7
1490317809016,-28,-99,44,-92,58,-42,-115,-111,6,30,4,-22,-9,24,-23,80
1490317809064,1,19,-9,29,-17,-1,20,34,-2,-4,-3,3,-14,10,16,-6
1490317809065,-110,10,-17,-20,-18,-22,-13,26,-31,1,5,3,17,-4,-4,-14
1490317809115,-25,2,22,8,-11,-7,3,8,-34,0,10,13,-17,-20,14,0
1490317809163,10,5,-14,-10,11,0,25,10,7,0,6,8,-10,7,-5,-5
1490317809211,9,-5,14,-25,-19,-10,-23,-13,-5,-26,6,-43,12,-34,-79,-44
1490317809259,2,5,13,-24,4,5,11,5,0,-7,-5,7,-13,17,9,3
1490317809307,6,-10,20,23,11,-4,-13,-28,6,-3,-8,-7,-6,11,-10,14
1490317809308,-3,-32,27,2,-5,8,-59,-74,10,-29,0,-62,31,-10,-120,-61
1490317809357,-4,4,-17,19,-9,-1,51,28,-3,-17,7,26,18,9,-15,-36
1490317809406,38,16,-2,29,15,25,58,57,-99,3,-29,-11,36,-62,64,10
1490317809454,-27,-20,19,-15,-86,-14,-24,-62,57,7,-17,21,-84,38,-16,-26
1490317809504,-3,-84,14,22,18,-13,-4,47,-9,-52,-8,17,81,10,24,33
1490317809552,-23,21,3,27,10,28,-4,-22,29,19,11,17,37,-32,-22,-4
1490317809554,-3,-25,6,10,-74,-16,-22,2,-11,-17,14,1,-32,-13,-6,2
1490317809601,-5,-76,-16,-48,-11,-27,-43,-35,9,12,-3,-8,-10,10,23,46
1490317809650,-6,-15,1,8,-14,10,5,30,-6,-8,6,13,1,10,4,-23
1490317809701,1,0,-18,-11,-10,-15,-11,16,-7,10,-17,-8,5,11,17,-2
1490317809747,4,-2,14,32,5,23,-3,4,-6,-8,1,-10,-8,-8,-36,-23
1490317809749,0,-4,-5,-24,1,-8,18,5,-3,7,6,17,-7,7,-5,12
1490317809796,1,1,3,8,-17,-27,-10,-10,-4,-10,-14,-13,-1,-16,-12,-19
1490317809845,-4,-8,-9,-21,-11,-40,-11,3,0,3,-13,-4,-1,28,-1,18
1490317809893,-5,0,-6,-1,2,8,-6,0,2,0,2,5,2,-3,13,18
1490317809942,3,-3,7,0,0,-11,8,-10,-3,-4,0,-3,-4,-18,-9,-6
1490317809990,1,2,7,0,-5,1,-5,-4,0,5,-2,0,5,37,8,4
1490317809991,-4,-1,-3,-3,-1,0,-3,-4,5,-1,6,8,4,-2,1,-11
1490317810039,2,1,5,4,2,20,2,-4,0,-1,-3,-5,-3,1,7,-7
1490317810088,2,0,4,5,-1,7,7,0,-3,1,-5,-6,2,33,-10,3
1490317810137,6,6,6,1,1,-23,5,23,4,-2,-3,8,-3,-2,13,5
1490317810186,-6,-2,-3,-4,-3,35,8,5,0,1,4,3,-2,-31,-5,8
1490317810235,3,-1,-2,3,5,-1,5,5,-4,-3,-2,-6,-5,-31,-13,4
1490317810237,-5,-2,2,0,4,4,5,-8,-5,-5,-5,-3,-1,10,-3,1
1490317810283,-1,2,-1,3,2,5,5,10,-1,7,0,-2,0,4,7,12
1490317810332,1,2,0,-4,0,-3,3,6,-5,-4,4,3,0,-6,-10,-9
1490317810381,-2,-2,-2,2,-2,13,-18,6,3,2,-2,-5,-1,-11,5,3
1490317810429,-4,-2,0,-2,0,-16,-1,6,1,-2,-4,-2,-6,-8,-8,-11
1490317810430,-1,-2,-1,-5,1,4,-11,15,-17,3,2,-4,4,16,-2,6
1490317810478,-2,3,94,-103,-2,-14,7,-16,-8,4,23,89,-1,34,24,9
1490317810527,-5,1,21,-97,0,-2,-9,-10,-4,4,19,-128,-10,20,19,-5
1490317810577,7,8,-47,-88,-4,6,24,16,-1,-9,-88,-83,53,-22,-3,2
1490317810625,3,-7,-37,-104,66,16,30,12,-13,-8,13,-60,22,-18,4,11
1490317810672,2,-4,9,124,-23,-8,-33,-6,-3,5,30,72,-14,14,0,5
1490317810673,-5,-32,-73,-122,-105,-6,28,5,-6,-74,-106,-114,-33,19,30,7
1490317810722,0,-10,48,127,-26,-5,-43,-16,2,14,67,91,-62,12,-4,7
1490317810770,0,23,-62,79,-21,13,6,9,0,20,21,68,-54,-16,-4,-18
1490317810819,-4,-5,0,-34,32,-5,-4,-22,1,12,0,8,-18,-7,3,7
1490317810868,1,-5,-7,65,0,-6,-34,-9,-1,0,-29,115,1,5,-16,-8
1490317810916,-1,-1,5,-21,3,7,-15,9,-3,2,-7,-28,-7,-22,9,6
1490317810918,8,3,19,-22,8,-5,18,6,0,7,4,18,-9,2,-3,5
1490317810966,0,-1,104,-18,-3,-15,13,7,0,-2,-33,13,-7,2,-6,-8
1490317811015,0,2,25,-10,1,27,10,11,0,10,51,13,-1,-15,2,3
1490317811063,1,-1,16,25,1,30,4,5,3,-1,29,4,6,-41,-21,-5
1490317811111,1,-2,42,31,7,-16,-1,-2,-2,-2,35,-29,4,20,-2,6
1490317811112,-1,-1,12,-36,-12,12,16,10,-1,0,-5,8,-20,22,-9,-4
1490317811160,1,-5,-7,20,45,51,5,-7,2,-10,-7,-21,-50,-52,-25,-8
1490317811209,-8,1,-73,2,-14,-31,-7,19,-2,-3,-34,-23,-18,18,18,-1
1490317811258,-2,5,16,15,35,-26,7,-1,2,-2,-3,-15,-74,-15,-36,0
1490317811307,2,-10,-29,-24,-7,16,-18,-7,1,2,-5,13,12,-39,11,20
1490317811355,4,-1,-2,28,9,-5,13,15,1,6,-7,-44,-2,19,18,13
1490317811356,2,-3,0,-14,-16,9,-3,-8,-1,-6,-1,-17,-12,0,14,7
1490317811404,3,7,23,13,-11,11,28,14,-5,-1,-18,-12,-9,-46,-28,-6
1490317811453,-6,-5,7,20,63,29,18,-31,4,10,3,-62,-4,-9,45,35
1490317811502,2,-9,-20,54,-43,-26,0,-4,6,2,52,-14,2,8,-30,-5
1490317811550,-2,-5,9,-53,-63,-21,-70,-26,-12,-4,-18,0,2,-13,56,11
1490317811553,-2,-2,6,-33,-1,-27,-21,14,-2,-3,-4,59,3,15,22,-19
1490317811600,0,-1,-34,31,-13,-12,6,6,-3,1,1,-26,-19,-3,11,-10
1490317811649,-3,-2,-19,-53,-20,-1,-22,21,0,7,-9,22,47,10,46,33
1490317811697,2,2,-4,2,-8,-14,7,14,-4,0,11,-12,-15,-10,-11,6
1490317811745,1,-12,0,-65,-35,-21,-3,-19,2,12,-9,22,26,-10,6,26
1490317811794,2,1,-7,-25,-34,-18,5,18,3,-1,26,1,17,22,12,-23
1490317811795,2,-6,-2,-30,19,10,-30,-44,1,3,-19,-23,-12,-16,-6,39
1490317811843,0,-4,-20,-11,-3,-52,3,-14,-7,2,-7,-48,-13,-10,17,39
1490317811892,-4,2,-40,-56,-47,-46,-46,17,6,3,-6,23,34,33,9,-15
1490317811941,3,2,0,-80,-41,-21,-3,26,-5,3,21,44,14,67,8,-23
1490317811990,5,9,54,73,38,22,49,16,9,-5,-4,-19,-53,-52,-54,-54
1490317812037,1,-16,-68,53,-20,-11,16,-3,6,10,111,123,58,8,8,1
1490317812038,5,1,3,-27,11,30,-5,-13,-1,0,-52,43,-1,-2,11,25
1490317812087,-1,1,25,44,31,-12,-43,-16,-2,-5,14,32,9,-13,20,4
1490317812135,3,5,24,62,14,44,-54,-14,-5,6,30,5,-4,-8,35,9
1490317812184,-4,0,-59,-105,-16,-17,29,19,-6,-5,-25,-35,5,5,-14,4
1490317812232,-5,-10,20,51,42,-19,12,26,1,-20,25,-31,-26,4,3,-14
1490317812234,3,-5,-34,17,1,21,-32,11,1,6,-12,-83,-68,-25,15,29
1490317812282,2,8,27,0,-10,61,-44,-12,-8,1,-24,32,-9,-18,12,6
1490317812331,5,-4,-18,42,-9,30,-35,-11,0,-4,0,-80,-14,-6,12,1
1490317812380,2,-2,-35,6,-19,-51,-17,-5,-5,-12,-14,-125,10,-7,-6,-9
1490317812431,-1,3,57,20,6,-5,27,11,2,4,30,33,30,22,-65,-15
1490317812525,2,-7,40,-48,31,19,17,-23,-3,-4,-56,-11,-25,72,13,18
1490317812529,-2,-2,-5,123,8,-6,-54,1,-4,-2,32,27,2,-1,13,-3
1490317812530,-5,-2,-30,-21,-60,-51,10,-3,-5,15,-25,-28,-2,17,17,5
1490317812575,3,-6,45,41,2,-32,-104,-47,8,-4,47,61,-45,-22,-46,-9
1490317812623,7,12,-36,6,-3,-25,55,31,1,11,91,-5,47,30,7,-15
1490317812672,2,8,46,87,47,-40,21,-7,-6,-17,-113,-87,-9,-7,-20,31
1490317812720,0,-108,-27,0,76,72,-1,6,1,-57,47,-64,-5,20,0,0
1490317812721,-1,-19,-80,13,-23,-111,-8,43,8,-72,107,4,66,98,-12,4
1490317812769,-8,-3,-37,-82,67,17,11,-19,3,9,8,-49,-128,-74,3,3
1490317812818,1,21,12,-50,-25,-10,9,35,-2,6,72,107,-20,-73,51,7
1490317812867,6,11,8,-40,-71,-54,69,1,-1,14,-43,27,52,47,19,10
1490317812916,-3,-20,7,123,-21,9,-27,-16,12,40,-64,-24,64,39,54,40
1490317812918,5,10,61,127,79,83,-14,-20,-1,12,-75,-100,-42,-25,6,34
1490317812965,-16,8,-1,8,-24,-13,16,3,-15,-10,5,-19,-4,59,-72,-34
1490317813014,-2,1,39,29,-28,-26,-64,7,8,6,31,108,15,49,32,22
1490317813062,6,-14,-36,-92,4,63,11,-33,-7,-1,-18,7,-1,-56,-46,4
1490317813111,-8,4,17,-95,-6,-5,4,-5,10,3,66,115,19,-21,19,0
1490317813159,27,16,-61,-10,58,2,-14,18,21,8,84,88,43,62,48,-9
1490317813161,-3,7,46,19,-50,-16,41,19,0,30,-43,18,-51,-35,15,18
1490317813209,7,4,77,85,41,14,36,8,21,-31,122,14,32,-5,37,24
1490317813257,-43,-42,75,-44,12,4,1,-4,15,-55,-14,-32,17,-21,-47,-1
1490317813306,3,-13,-1,58,-2,2,-14,-4,-7,9,89,67,-19,-42,-19,-21
1490317813355,-8,8,-2,-66,-48,-31,-7,14,-16,-10,-21,23,31,28,-5,-38
1490317813403,43,-1,-30,-66,19,-8,-5,7,13,-15,12,15,-32,-19,-18,-9
1490317813407,-10,-4,-25,-22,-28,-10,-14,16,-18,-23,-76,-77,-44,-28,2,-8
1490317813454,2,-4,30,61,29,7,13,-14,-6,3,25,5,-24,27,-15,4
1490317813500,11,0,55,121,94,49,-11,-22,49,6,-15,-34,-17,-4,-1,19
1490317813549,4,-9,4,-57,-9,-3,-12,48,44,-35,-17,11,1,25,6,33
1490317813597,-8,-7,4,-59,18,28,15,-10,-17,-3,50,44,13,-35,15,-7
1490317813598,-31,-12,2,17,43,-9,13,-2,-15,28,7,20,9,20,109,2
1490317813647,6,-3,-37,-65,-53,0,-18,5,-2,12,89,75,-50,8,-9,4
1490317813695,4,-1,-15,-31,74,13,40,-2,-3,-2,7,-12,-26,-32,-3,6
1490317813744,5,-3,-28,-34,-2,-27,15,3,0,-2,4,22,-8,9,0,2
1490317813793,3,4,-17,10,9,38,-25,7,2,7,36,12,5,-28,28,-15
1490317813844,-1,-3,-5,43,59,19,-2,-23,4,-2,-25,-6,22,0,-12,44
1490317813846,-2,-2,27,15,-22,-15,-23,2,-4,-9,-26,26,-1,18,21,-23
1490317813891,-6,-5,-14,-41,-39,-4,3,-15,3,0,-53,3,38,-20,15,40
1490317813940,4,1,9,-26,-37,-3,-15,27,0,1,29,9,28,45,-4,0
1490317813988,-1,-3,35,63,55,8,15,-33,3,4,13,-64,-40,-25,-59,12
1490317814085,1,1,4,47,-16,-7,1,15,1,1,7,-8,15,15,9,-26
1490317814086,-2,1,13,4,4,-3,-21,-15,-2,-5,-1,-5,6,-3,-5,-4
1490317814087,-2,-2,-31,9,-9,-1,23,25,-3,1,42,-50,-12,-31,-34,4
1490317814134,-3,-6,3,-52,-2,-7,-14,-3,0,-5,-8,10,-14,17,-35,-9
1490317814183,1,4,-29,25,2,1,14,8,1,0,7,4,35,-30,-28,2
1490317814232,5,-3,-17,-13,-15,0,5,13,0,5,24,55,8,-1,14,1
1490317814280,-8,-4,23,26,-4,-4,8,-33,0,-8,-14,-27,-4,16,-7,-4
1490317814282,1,1,-3,-9,-15,-22,-30,32,2,8,37,46,39,-2,-1,-19
1490317814330,-2,-1,-3,15,16,-6,6,-5,-5,-1,31,32,6,18,10,7
1490317814378,1,-2,-9,27,6,27,11,-10,-4,-4,-37,-93,-9,-9,20,35
1490317814427,1,5,51,119,14,15,46,-8,2,2,22,-49,-45,-29,-20,-4
1490317814475,-6,-7,-6,7,19,-11,-9,-23,-4,-3,-18,23,28,23,11,-26
1490317814524,-4,2,-4,-36,8,16,-6,8,4,7,-2,17,10,-3,2,13
1490317814525,-3,-9,14,2,17,21,-18,-16,3,-2,1,8,-31,-43,14,5
1490317814573,0,8,46,94,36,40,7,-21,-4,-10,-34,-1,-4,-11,-7,-10
1490317814622,0,-6,0,40,-24,-45,-37,-13,-4,-1,-12,33,29,12,17,5
1490317814670,-10,-9,-39,-70,3,17,29,-11,1,3,20,38,-2,-16,1,7
1490317814718,-1,2,-1,-5,-13,-38,-8,3,2,-3,-42,-36,2,-13,-32,32
1490317814720,-3,-3,-2,-1,13,12,4,-7,-2,-7,-16,-54,-4,-7,3,17
1490317814769,2,-9,-63,-52,-7,9,-12,16,0,13,77,8,1,-16,1,-19
1490317814817,0,5,20,36,-6,-28,-13,6,-5,-13,-33,-33,-9,-16,-10,-2
1490317814866,-5,6,39,7,-9,24,8,-13,0,-7,-54,-9,42,-9,0,-4
1490317814914,-2,-1,38,66,12,-16,-9,-13,-6,-18,-33,-15,-33,40,-39,-40
1490317814962,1,1,-14,-37,3,-6,41,9,0,4,32,96,-2,-15,17,5
1490317814963,-5,-10,13,1,18,8,-15,-22,0,4,-10,18,-25,-8,2,43
1490317815011,1,5,25,8,12,5,7,-2,0,-3,3,-9,13,39,-13,-18
1490317815108,-1,2,1,17,-2,3,-30,-22,1,1,20,43,20,61,12,-15
1490317815110,1,2,-19,-45,7,-24,9,20,1,0,-19,-33,-28,-21,-7,37
1490317815158,0,1,-13,15,10,-34,-31,8,0,-5,-13,-15,9,64,-1,-9
1490317815255,-2,-2,56,61,-7,-26,-17,-8,4,1,-54,15,10,18,-18,22
1490317815257,-3,-6,-29,-55,-16,2,-21,7,1,14,61,13,11,-6,56,-2
1490317815257,2,6,16,104,8,19,-6,1,-8,-11,-39,15,-29,-8,-16,3
1490317815304,-2,-2,-6,7,-14,-43,-43,17,3,4,2,-18,-27,3,20,21
1490317815353,-2,-3,-13,-1,23,12,3,-39,0,-3,33,78,50,17,-22,-7
1490317815402,7,14,32,-22,-12,-18,-45,53,-4,-6,-59,-20,4,-2,93,11
1490317815403,3,-1,2,0,24,-2,-4,-4,5,-2,-54,-28,-26,-27,1,25
