1490227944474,-27,27,-71,-52,17,-66,29,-35,-16,-31,16,4,-5,23,-22,2
1490227944522,35,-5,11,5,7,-3,10,17,-13,3,-1,-5,-10,-24,-3,-12
1490227944524,-18,-13,3,4,-2,27,-17,-10,-14,-9,-7,-12,-16,-22,-7,-7
1490227944571,24,3,1,-3,-6,7,-9,10,7,-4,2,10,16,13,22,-1
1490227944620,0,2,4,6,7,7,19,15,-1,0,-1,2,-1,5,3,-1
1490227944669,-10,-6,1,-3,-12,-21,-21,-9,6,-1,-3,1,7,0,1,6
1490227944717,-8,-2,-1,1,6,12,11,-2,9,-2,-8,9,7,-5,-7,-5
1490227944765,10,-58,10,1,-4,3,8,-5,-60,-53,-28,-13,-5,2,-6,3
1490227944767,-34,46,55,22,7,3,14,-23,50,-7,-23,3,-1,0,14,21
1490227944815,-44,18,-21,7,11,-26,-22,5,-30,19,-11,-29,-12,-10,-17,-26
1490227944864,23,-14,-5,5,-7,-12,-4,3,55,32,0,6,-1,9,-17,16
1490227944912,-12,-27,-26,15,-9,-3,49,-1,3,-15,22,-4,-1,-18,4,7
1490227944960,-32,60,-103,-33,-5,-4,33,13,-62,-88,-43,0,-4,3,-30,-14
1490227944962,-20,-81,63,-37,-11,-31,-7,18,-1,98,14,59,28,28,25,-30
1490227945010,46,-6,-127,4,-12,21,-13,-5,45,-31,90,-30,-21,-23,-21,-19
1490227945059,127,94,28,47,13,6,3,46,20,-27,41,23,17,10,10,6
1490227945108,-28,84,126,-26,23,40,29,-2,-40,-112,-96,89,-9,-23,-5,8
1490227945156,-107,36,82,-66,-2,-3,-18,-27,114,51,2,81,33,12,13,-2
1490227945204,78,-50,-128,-106,-37,-31,-63,-83,-108,-41,-61,-127,-33,9,58,-26
1490227945206,-44,46,0,73,11,-18,48,34,111,65,-76,-30,-9,-32,-26,-31
1490227945254,-6,46,10,-35,-3,47,37,-23,73,28,77,82,16,-4,-23,34
1490227945302,41,69,110,-30,-28,19,112,40,-10,-53,-120,53,6,-45,-27,-6
1490227945352,-31,-128,-60,-42,-6,-18,-51,-28,-4,123,127,88,0,-21,33,58
1490227945399,71,-17,-105,-128,-34,-15,-25,-11,-96,-94,-49,10,-32,-6,-7,-1
1490227945401,69,-74,18,-99,-47,-27,-62,-31,-37,29,47,-19,5,9,6,8
1490227945449,-70,-11,49,54,-15,11,22,-1,43,-40,-89,-89,-13,-18,7,-9
1490227945497,4,24,5,-22,-41,-15,-20,-9,72,68,73,17,34,14,11,25
1490227945546,-11,-57,-55,2,-16,33,-10,8,-13,49,27,63,24,-14,-1,-9
1490227945595,-31,-5,-87,21,-7,-10,13,23,1,-2,107,-21,17,-6,-16,-7
1490227945643,28,39,27,8,33,-9,-7,2,-24,-28,-40,-4,-26,24,11,0
1490227945645,-15,7,39,11,72,26,1,-6,25,34,57,77,16,-2,43,19
1490227945692,3,17,-2,-24,-31,-8,-2,-4,-1,-5,-9,-18,23,-9,-26,-10
1490227945742,8,-1,2,-12,3,-20,30,16,-18,-4,13,-22,-42,-13,-25,-10
1490227945790,-3,4,7,25,-4,-20,-50,-14,30,20,4,-9,6,-25,9,12
1490227945839,13,2,-4,9,12,68,-27,26,-6,-2,3,-26,9,69,12,-1
1490227945887,11,0,10,22,18,-46,-17,-11,9,-11,-11,-15,14,-2,7,-18
1490227945888,-25,-20,10,23,0,-25,-43,-5,-5,-15,-21,-22,-37,-52,-3,19
1490227945936,17,-18,13,4,-67,53,-84,11,4,-16,-8,-31,62,-89,-15,0
1490227945985,7,7,-7,-41,2,11,35,-11,5,-5,1,13,20,21,53,11
1490227946034,18,5,10,-12,-15,-62,-16,13,9,12,10,-23,-68,8,-9,-5
1490227946081,-4,3,1,-9,-8,-46,26,-6,0,1,1,4,-29,34,27,-7
1490227946083,-3,-7,-5,-12,47,56,-12,-4,4,-4,-7,-2,-11,-46,-3,19
1490227946131,9,-3,-4,-23,-51,22,41,22,5,9,2,22,30,28,18,-10
1490227946180,-4,-11,-13,-18,56,3,29,5,-15,-10,-9,-28,-3,29,-22,-11
1490227946229,1,-3,-3,-4,-7,-7,-12,1,-10,4,7,-3,-29,53,-38,-5
1490227946277,11,34,7,6,-25,3,-16,8,-16,2,7,9,1,13,3,-1
1490227946325,-29,-6,-6,-13,-24,35,-109,-2,-13,7,1,2,-10,23,-64,-2
1490227946326,-9,13,-8,-8,25,29,-10,-16,-16,-27,-5,-16,-43,6,42,3
1490227946375,11,-1,33,36,23,-7,-28,-3,-23,-7,-10,-13,10,-46,59,3
1490227946423,-10,-33,-24,-13,18,-60,54,4,27,61,14,11,21,-12,32,-5
1490227946474,31,-23,0,4,-4,-13,7,1,-59,-32,-13,-20,-4,-19,-21,-14
1490227946521,36,-7,-17,-4,-6,7,21,-34,-32,15,-4,-3,-16,-23,-5,-9
1490227946569,6,-10,10,-1,-3,19,-9,-6,-30,-1,-38,-8,-5,-20,-12,4
1490227946570,-46,-13,4,17,26,-15,-10,7,26,-5,18,14,14,20,6,-3
1490227946618,6,11,29,4,27,-12,26,7,22,30,-2,16,6,-7,-27,1
1490227946667,25,6,8,-2,-13,17,10,-20,-28,-85,-29,-4,-8,13,-2,52
1490227946716,-113,11,-28,-9,-4,-3,-5,1,46,26,27,9,-1,10,15,-26
1490227946764,54,-17,33,44,17,-26,-10,-11,-47,-29,-31,-41,-20,-16,16,-12
1490227946765,-10,-15,-18,2,-13,-8,19,2,-1,4,-8,15,-5,15,-4,-1
1490227946814,-12,0,1,-8,5,1,-11,-6,54,10,18,32,8,-12,-3,-5
1490227946862,27,6,14,-5,-6,-7,-6,19,-15,0,8,-7,6,-4,-3,-8
1490227946911,-30,24,4,11,-2,1,-12,-12,0,3,-10,0,6,30,-13,8
1490227946960,-40,-5,-2,5,1,14,-5,-6,46,8,3,5,11,27,6,2
1490227947008,-18,7,-3,-3,2,17,4,8,-20,-1,-4,-15,-13,-5,-7,-1
1490227947010,-17,0,2,1,2,6,25,-1,-7,0,0,-7,1,23,-1,-5
1490227947057,15,39,-14,7,-3,3,6,-3,8,46,-5,9,9,-10,-25,-10
1490227947106,6,55,5,-8,-11,-26,4,-3,-12,19,5,-7,-7,-4,-5,-11
1490227947155,-30,-31,-1,2,-3,14,30,-20,46,-15,-6,4,23,18,43,27
1490227947204,21,-13,2,-2,-3,-13,26,4,4,-20,-3,-1,0,1,-10,-12
1490227947252,-74,-46,0,-3,1,3,13,-3,34,-51,1,-1,-5,1,-8,9
1490227947253,23,29,-3,7,-6,-23,-8,-9,18,5,9,15,9,20,5,-2
1490227947301,13,27,6,8,0,-1,-24,4,-3,69,9,-3,0,4,15,-18
1490227947350,-12,12,7,-37,-16,-8,51,-1,-39,-1,50,27,24,25,-10,-1
1490227947399,-14,-116,-54,-15,-8,-4,16,3,19,-32,30,-28,-1,3,-6,17
1490227947449,50,43,43,43,1,-8,-17,-1,-67,75,-46,14,-7,-23,-4,20
1490227947450,40,-44,-97,-13,-10,5,-22,-4,-65,-47,75,-38,-11,-1,25,-11
1490227947497,-94,-25,-55,22,11,4,-22,-2,-2,-80,-9,12,21,2,31,23
1490227947545,-15,-109,11,-60,-3,8,44,10,25,12,14,63,-5,-16,-65,-22
1490227947593,58,25,62,83,-8,-10,-5,5,38,14,104,1,25,0,16,1
1490227947642,-85,-36,-101,20,-10,-21,-16,-21,9,4,-18,-96,-31,4,33,12
1490227947690,26,18,-15,75,7,20,-36,63,105,79,-44,-105,-17,-13,-1,-68
1490227947692,-15,48,-71,7,15,1,56,57,-43,21,25,-54,-35,-20,10,29
1490227947740,127,-17,-72,-9,-25,7,-15,-12,-34,24,6,-88,6,-28,-15,-4
1490227947789,96,21,127,67,-10,11,21,15,-94,-94,-43,-50,-22,-26,-39,17
1490227947837,-35,40,127,22,-11,-1,55,32,33,-26,-52,56,29,-23,-19,-43
1490227947886,27,39,-49,-38,-39,-35,-4,11,-42,-124,84,36,-9,-28,-5,-25
1490227947934,-5,-81,-128,-128,-62,-5,-22,-59,-2,40,111,118,46,10,-34,17
1490227947937,-22,-6,-20,-54,-8,2,7,-30,76,6,29,29,28,-2,-18,9
1490227947984,72,82,39,5,19,12,-11,16,-42,-6,-66,12,18,26,4,-18
1490227948033,10,-84,-99,-52,-10,-45,-6,-11,-2,10,33,-33,-27,28,4,42
1490227948081,29,62,79,105,34,46,34,11,-9,-40,-38,1,8,13,-13,-7
1490227948129,34,51,-18,1,-17,-15,7,-4,4,5,95,64,11,-7,-9,14
1490227948131,-115,-91,-18,2,-20,1,30,-15,-31,-28,22,32,3,-7,-11,-14
1490227948179,9,-12,26,27,27,-45,-5,-4,-4,29,-20,-12,-54,6,-15,16
1490227948228,-7,6,42,8,-18,-18,-17,-7,19,30,-64,-68,-48,-25,-29,-2
1490227948277,11,-11,-13,-43,-33,10,10,-1,-20,-21,-45,21,34,-13,-11,-14
1490227948325,8,14,-3,31,58,-16,-5,3,-13,3,24,14,-17,-10,-11,5
1490227948373,3,14,-23,-38,-55,-36,3,-14,5,16,23,43,24,-32,-10,18
1490227948375,16,25,13,4,6,126,-20,-1,-18,-4,-38,-83,5,127,46,1
1490227948423,6,14,11,6,-24,-114,0,6,4,-24,-3,5,45,18,4,1
1490227948472,6,0,-12,-8,15,58,19,6,-1,-6,-14,-51,25,34,-7,-12
1490227948520,2,7,3,5,-17,-17,-69,-24,1,0,6,18,56,-7,53,12
1490227948568,-1,-9,-27,-1,20,7,13,0,-5,-11,0,-6,-50,8,-40,-7
1490227948570,-3,-9,10,-18,-6,-8,9,8,12,-22,-11,-15,-3,-43,-9,-7
1490227948624,-11,-10,2,-7,-19,-30,-41,-2,19,6,8,12,15,-29,34,8
1490227948666,0,10,1,17,1,-9,9,-15,-16,-1,-7,-7,-17,33,2,10
1490227948715,-8,-8,6,23,4,81,-16,-4,11,13,-1,20,7,-59,32,2
1490227948812,62,30,3,-19,-21,-23,13,14,-19,-27,-6,8,13,21,22,-4
1490227948815,-41,13,-3,13,44,-85,-4,-6,-7,-14,-1,10,13,43,0,-17
1490227948816,0,4,3,1,-3,89,-3,-16,63,17,8,17,11,127,-32,-1
1490227948865,17,-16,-39,-24,-51,-100,5,-21,6,40,-1,-9,-11,-51,-20,-25
1490227948910,65,9,17,11,-28,-80,4,61,9,35,0,20,11,-53,-15,-47
1490227948959,-56,-90,-11,-27,-9,-24,15,-22,-9,37,6,1,2,-5,-59,10
1490227949009,-5,-12,-20,-26,21,0,19,-16,-34,4,-3,-10,-3,-32,-38,-1
1490227949055,21,-7,10,-11,-20,-9,22,-8,15,48,20,31,10,18,7,1
1490227949057,9,1,-11,-9,6,-10,-34,5,-13,-41,-37,-7,-16,5,20,-11
1490227949105,3,7,1,9,-20,-4,-17,-12,10,-8,9,1,12,-16,14,5
1490227949154,94,33,27,32,9,-8,6,7,-20,-33,-24,1,-12,-34,-1,21
1490227949250,38,-4,28,20,-2,31,2,15,74,30,23,-1,-6,-18,16,8
1490227949251,40,-10,0,10,-11,-10,16,-16,-40,2,-2,-11,11,8,-19,7
1490227949252,6,4,-9,4,10,22,-18,-17,8,24,19,26,28,37,8,10
1490227949300,-19,-30,-22,-49,-2,-26,-16,-18,4,-12,5,6,6,11,4,7
1490227949349,-30,4,14,28,7,-16,23,4,70,7,1,0,2,-17,-16,-2
1490227949398,44,-10,-8,-7,6,-3,-39,-5,-69,-11,7,4,-3,-6,-9,-7
1490227949446,6,-14,-5,-12,-22,2,-13,-7,30,-6,1,16,9,1,-21,10
1490227949494,-3,-9,-4,0,8,-7,-4,-10,23,13,6,-4,-3,-3,-3,3
1490227949495,12,-15,6,21,9,-18,6,9,-1,-5,-4,-7,-16,8,-7,1
1490227949544,16,0,0,6,8,-25,-7,0,-5,-13,-3,4,3,-21,1,-3
1490227949592,3,-2,0,3,4,0,3,-3,-15,-6,-4,2,12,28,33,3
1490227949642,31,25,4,1,-9,-5,-29,-7,-21,8,0,-7,-2,15,16,-3
1490227949690,-27,-20,4,3,1,5,-5,1,12,-26,-4,-15,-11,17,14,0
1490227949738,25,54,4,1,1,16,-7,2,2,23,2,-4,-5,-22,-27,7
1490227949739,11,-45,-8,-5,-17,-21,-14,-4,-39,20,-6,-7,-5,-1,-22,-19
1490227949787,48,39,1,2,6,17,-23,5,-14,-26,5,-3,-13,-12,11,4
1490227949836,47,48,-66,-14,-13,1,8,3,-61,-13,-40,-53,-20,3,21,-13
1490227949885,-119,-104,38,-23,-1,14,10,-12,110,-39,4,8,-5,-7,-10,32
1490227949933,1,-30,35,-23,-15,-6,-7,3,15,27,-34,-10,-6,22,35,12
1490227949935,35,101,91,-2,8,-4,-32,31,5,-19,-55,83,15,7,94,-8
1490227949983,93,34,-73,-2,3,-13,45,74,-25,-43,-65,-92,-22,-1,-20,-65
1490227950032,-11,33,-25,76,8,8,30,8,20,20,-77,-83,-36,-21,-37,-1
1490227950080,-102,-21,89,-65,-32,-33,18,-17,60,51,79,114,5,2,-30,-18
1490227950129,44,28,40,-3,1,-8,-17,-6,-76,-124,16,57,-11,-39,-22,-40
1490227950177,-16,-58,-96,-42,-15,-4,4,63,-16,36,110,10,-14,-25,-22,-94
1490227950179,22,64,54,13,15,-12,6,-24,12,-91,-51,29,-1,19,-21,-44
1490227950274,-128,-12,28,-9,-35,-5,13,1,100,103,101,53,8,-20,5,44
1490227950276,41,21,52,57,0,5,-43,-7,30,14,-16,8,31,13,44,94
1490227950324,29,-34,72,3,-15,-34,15,-12,-59,-49,-21,5,-5,-35,-28,-33
1490227950372,76,109,32,63,22,47,1,-27,-36,-71,-3,-32,55,24,9,-13
1490227950421,-38,-86,-111,-5,23,64,20,13,123,50,102,30,-18,-2,-28,75
1490227950422,27,55,127,89,4,-13,46,11,46,-13,-85,-26,-40,-3,5,7
1490227950470,-63,-56,-14,-104,-40,-16,-7,14,-70,-82,21,51,-3,-14,-14,-11
1490227950519,-16,-73,-51,-94,-20,6,-8,-13,14,76,-67,-23,-34,-12,10,-34
1490227950568,-78,-9,61,26,-49,-21,-32,-18,-73,-13,-30,67,5,-52,5,-31
1490227950616,-3,15,58,45,10,0,20,-2,50,69,-18,22,-27,0,-18,-2
1490227950619,1,-10,-66,-55,-35,-6,14,-21,-82,-28,-13,-3,4,-33,-14,-11
1490227950665,-13,-9,1,47,23,54,25,-2,46,32,16,-21,-27,1,13,13
1490227950714,26,55,82,66,31,2,-36,-1,-25,-10,-42,-59,-24,-27,15,3
1490227950811,29,-12,-27,-92,-33,-57,-63,-1,-68,-86,-52,-9,-14,63,6,-11
1490227950812,22,22,3,10,6,-18,32,13,-10,19,-21,35,-8,-10,6,-9
1490227950861,-19,-23,-25,-7,-7,-17,28,-16,3,22,59,14,-18,-24,-13,-10
1490227950867,-18,21,-48,-52,-32,-17,6,3,-15,7,-29,-9,10,-81,-3,-3
1490227950909,-25,-11,41,52,36,19,3,-9,7,-28,-39,-32,-41,-94,-14,-3
1490227950958,-6,-15,-15,-20,20,12,30,0,13,1,6,22,13,-71,-14,3
1490227951008,-29,3,11,-12,-18,-31,-26,-11,23,26,19,34,1,-27,36,17
1490227951054,29,-15,-5,-19,-10,0,53,23,7,9,9,8,0,-20,-5,-9
1490227951056,-2,12,5,-3,-1,-21,-16,0,20,-1,3,-6,-21,31,-4,14
1490227951104,-8,-10,2,3,-14,14,4,-10,45,37,13,14,-5,-10,-10,17
1490227951153,2,24,-7,-14,-33,0,18,6,5,4,8,0,-8,7,-66,2
1490227951201,-36,-9,-12,22,34,11,22,-4,41,15,3,-12,-1,110,-14,16
1490227951298,-9,14,-19,-41,-11,25,-6,-3,35,2,9,5,11,0,7,5
1490227951299,-16,2,20,19,17,-29,-34,1,12,24,-5,10,-16,4,-32,-1
1490227951300,6,5,-24,-19,-22,105,-15,-6,12,-37,-27,-6,-9,35,-4,-1
1490227951348,63,26,-4,0,1,-13,4,10,-60,36,1,6,-24,-65,18,-7
1490227951396,-48,16,2,4,12,-43,25,7,-12,-78,9,7,-10,-54,1,-4
1490227951445,-86,3,0,6,-5,-7,1,-44,-14,10,-13,0,-5,2,8,-2
1490227951494,85,40,14,-7,12,19,16,0,2,38,27,30,-3,9,-1,-5
1490227951591,23,27,45,26,0,9,9,29,9,22,-46,-6,-9,47,5,-4
1490227951592,-17,-2,-35,3,5,-3,-11,9,52,21,-14,-31,2,-14,7,8
1490227951595,44,45,30,15,-22,-8,5,34,-54,-55,35,13,22,-5,23,-18
1490227951640,42,5,-49,-19,-8,-9,13,15,-20,-13,-31,-29,-8,15,-2,-22
1490227951688,-103,45,17,9,4,-16,-12,-19,3,7,10,16,-4,-16,-23,1
1490227951736,38,-45,-25,-5,-4,3,-21,2,-39,2,2,-23,-17,-12,14,-11
1490227951739,40,13,15,15,17,16,-13,3,-64,-32,-7,14,-3,-16,38,1
1490227951786,-4,-11,-4,-9,-4,14,-7,-5,12,30,8,21,4,12,11,13
1490227951835,37,10,-4,4,17,7,2,-9,-31,-14,-11,-6,0,1,18,7
1490227951884,17,19,9,0,10,18,-14,12,25,12,-2,-11,-9,-15,5,0
1490227951934,-34,-2,-4,-13,-16,-1,-10,-9,44,12,-3,8,17,-6,9,15
1490227951980,20,4,6,5,5,8,-4,8,-15,-13,-2,-4,-25,-14,-5,-5
1490227951984,-16,-38,-2,-2,-15,27,23,4,24,-13,5,11,17,6,-8,2
1490227952030,0,20,-1,4,-14,-19,31,-3,-30,14,-8,-4,8,12,16,-11
1490227952079,-12,23,-7,4,9,7,25,2,20,20,1,14,26,24,-9,-10
1490227952127,19,30,0,-1,-6,-8,10,6,10,16,0,-2,14,37,10,9
1490227952224,5,-15,3,3,10,-9,-7,-3,14,1,9,2,-1,-2,-3,1
1490227952226,9,11,8,3,5,3,-16,7,11,16,1,0,6,-9,-18,0
1490227952227,-9,5,-8,-15,-16,-6,-2,1,29,9,-3,4,2,5,20,12
1490227952323,22,30,3,8,10,5,51,6,-36,-9,-12,-8,2,2,5,2
1490227952324,-102,-18,7,9,7,12,-28,-8,-16,16,-4,7,-1,-7,9,-6
1490227952371,0,-16,-8,9,-2,-30,-20,5,20,60,8,1,4,-4,-8,-4
1490227952419,-23,5,-61,-36,-15,2,-11,-13,5,-17,-1,0,-9,-25,-2,5
1490227952421,-17,24,17,-29,-4,2,-2,-13,14,15,53,85,25,11,6,2
1490227952469,1,2,15,34,10,0,44,-8,-37,46,37,23,-3,3,31,-7
1490227952517,44,41,-23,28,-9,-20,-26,-2,-11,-32,-31,-21,12,21,-7,2
1490227952566,26,43,-57,0,-12,2,14,-23,-53,-1,15,-16,-20,-5,24,5
1490227952615,-59,-35,-11,-11,-9,1,12,-8,100,16,-2,17,11,-2,-17,-27
1490227952663,-110,-77,-56,-33,-36,13,10,-14,122,77,-29,-3,49,-5,-22,-8
1490227952665,-64,-72,100,40,12,28,44,-20,4,25,34,2,10,-6,14,50
1490227952713,-100,-39,-119,12,-23,15,39,-22,51,-31,12,-48,-29,-43,-62,7
1490227952761,-92,-32,1,-3,14,-18,-17,-62,71,-50,-97,19,-14,43,4,15
1490227952810,-68,-24,-52,-11,19,-38,13,-24,72,54,-15,-75,-30,-9,-66,-32
1490227952859,-7,-34,-60,-13,11,30,11,33,-105,-53,37,-47,-22,-2,-9,-13
1490227952907,17,12,70,43,6,-15,-8,14,13,81,109,46,24,-3,-46,-46
1490227952909,91,40,-115,-34,48,-10,-1,12,-70,-43,14,-57,-48,-22,-1,-53
1490227952956,-52,-78,32,-47,34,27,21,32,17,65,-47,69,-34,-46,-20,-23
1490227953005,24,-26,-128,-19,37,-9,-7,-15,80,50,32,-60,-25,-8,-20,29
1490227953054,43,45,62,107,35,27,56,10,5,2,51,-10,-10,6,2,-14
1490227953102,44,34,-71,42,33,12,-5,1,-27,-55,23,-31,-7,5,23,6
1490227953105,-12,34,-8,-3,-61,-12,29,8,16,20,19,14,13,-14,-42,1
1490227953152,-21,-17,-19,25,40,-13,2,4,-7,12,25,0,-4,10,43,8
1490227953200,28,-4,46,25,-3,-4,-13,-4,-8,-6,62,74,-4,-5,7,-1
1490227953249,-120,-15,-20,-25,-14,-1,-11,-11,59,11,-28,25,17,0,20,-2
1490227953346,26,-11,29,25,14,-19,3,19,-28,-20,-98,-38,21,-1,-2,-21
1490227953347,-3,-10,23,21,-3,-2,-27,2,7,-56,-15,-20,-19,-14,8,12
1490227953350,-10,-10,-45,-43,-4,-9,9,-12,43,35,28,49,-8,-32,-4,13
1490227953396,-15,30,-5,-29,-7,-5,6,-10,14,36,-7,-44,-22,-19,-18,-5
1490227953444,-1,46,32,5,-24,19,3,-5,6,-9,-29,-39,-10,-12,26,2
1490227953493,16,-15,7,-15,-29,23,8,8,-37,-37,-26,-34,-27,42,-10,-5
1490227953541,25,12,13,2,-11,-1,-51,-1,5,-11,-12,-34,-11,57,32,-5
1490227953589,7,4,13,36,-6,-47,3,2,-9,-1,-11,-58,-15,10,14,2
1490227953590,-30,-8,5,9,12,9,56,6,-7,-28,-7,-10,-30,-78,-25,-14
1490227953638,-17,-17,-5,1,9,0,-7,-14,-12,-5,-5,7,25,2,-19,-10
1490227953688,23,5,-8,-7,3,-9,-13,10,-1,12,16,9,-23,-21,-12,12
1490227953736,5,22,0,8,29,110,-3,-12,-7,7,8,16,-3,119,-23,12
1490227953784,14,-19,-12,-17,6,-74,-41,-9,-43,-27,-8,-1,6,-70,6,-7
1490227953786,-27,-6,-1,-3,-5,54,20,10,73,18,6,25,24,14,-11,2
1490227953835,-12,16,-20,-2,14,-28,16,-5,4,-5,14,2,30,-4,-32,14
1490227953882,-22,-20,0,-1,15,-38,-15,0,74,35,1,-6,-17,-37,5,11
1490227953932,60,27,9,-8,-8,21,39,2,-14,-10,13,1,-1,-13,-11,-21
1490227953980,39,40,13,14,-17,3,-13,11,-52,15,-2,2,-3,-7,18,-10
1490227954028,4,-23,4,10,9,-2,2,-1,-8,25,29,32,9,8,18,23
1490227954029,16,34,-9,-10,-22,-13,-17,-53,-51,-31,19,8,-6,12,-4,2
1490227954077,-58,14,22,15,-2,-10,13,1,24,23,-24,-5,-2,9,14,3
1490227954126,-59,-88,47,12,2,-10,-7,-2,68,59,12,5,-8,6,-2,-7
1490227954176,15,28,-33,-26,-11,3,16,17,32,5,30,24,11,-11,2,11
1490227954224,-32,16,-17,9,-5,-21,-17,-28,60,-19,-22,-17,-2,-19,-14,7
1490227954229,-60,-83,-2,-35,-24,-15,-7,-8,44,9,-16,3,1,-7,-7,-1
1490227954272,5,18,17,10,5,3,37,7,-26,-29,0,-13,-3,12,11,-2
1490227954369,-8,-20,-35,-23,-1,5,-25,-12,-18,-1,-26,-26,-13,0,-2,-4
1490227954371,-7,43,-34,3,5,24,-37,-5,45,-15,-4,-12,-3,22,-4,11
1490227954419,28,-7,-8,-5,-5,5,44,-4,-61,-9,16,23,6,2,9,3
1490227954467,-13,-10,-7,0,-10,2,3,-11,23,6,25,25,32,23,7,10
1490227954469,-11,-7,7,6,-7,-7,-4,1,1,10,-10,-7,-8,-6,-28,-18
1490227954516,-9,-1,-8,-15,12,-13,-10,-5,-9,-11,9,20,0,-6,-26,0
1490227954565,26,22,4,8,-10,-7,-2,5,15,-4,-7,-14,0,-18,-18,-3
1490227954614,1,-1,1,8,-19,-10,-14,-3,2,5,4,14,18,-25,3,4
1490227954664,-51,-21,-2,-5,-5,-9,-19,-18,40,8,5,17,8,21,7,15
1490227954710,-3,-16,-1,7,-1,3,6,-5,-41,3,-5,-2,-3,-2,7,-1
1490227954712,10,-4,2,5,-7,-9,17,2,1,-32,2,-3,-15,-6,12,9
1490227954760,-7,12,5,8,10,17,-28,-7,1,10,-1,8,24,-14,-37,-8
1490227954809,-23,-19,-4,-8,1,-23,5,-1,21,6,1,3,-5,14,5,10
1490227954858,8,14,2,9,18,10,-12,-3,-27,2,4,-2,3,20,26,-2
1490227954905,17,3,0,-6,-8,3,1,-2,-30,5,3,5,3,-24,-31,-14
1490227954907,7,-20,-15,-10,15,-11,-12,-10,-25,-1,-4,3,6,1,-19,-7
1490227954955,-67,-1,-6,-24,-13,-5,-2,-12,80,26,-4,20,13,21,10,17
1490227955004,56,26,14,-11,-9,-16,-12,0,10,-13,6,15,-6,-1,-11,-2
1490227955052,11,27,-9,-18,-3,2,-1,0,-12,-42,-1,-51,-25,-29,-20,-11
1490227955101,-33,-32,-21,-18,2,6,10,1,-52,0,29,-3,-4,-6,0,0
1490227955149,-41,-3,-38,-25,-10,3,-16,-20,30,4,-11,-44,-15,-8,-9,-1
1490227955151,95,25,23,-2,5,4,13,-14,-84,-6,30,42,11,2,-11,8
1490227955199,88,-56,-48,-25,-5,2,8,21,15,71,-25,-19,-3,-11,7,30
1490227955247,2,33,8,-8,7,10,35,19,31,-43,28,7,1,-14,-13,-13
1490227955296,-13,-20,23,-17,-16,-1,-11,-49,-36,55,-76,-28,-9,-6,2,-15
1490227955345,-126,12,90,10,-1,-7,-9,-1,98,-35,-39,-41,-4,-9,-10,5
1490227955393,22,30,-120,-78,-16,-22,6,14,-112,-96,-31,45,1,10,-26,-42
1490227955395,127,-2,-49,18,4,6,-34,-6,-27,38,74,65,26,6,37,26
1490227955444,74,70,15,63,15,17,25,30,80,111,127,127,31,24,10,64
1490227955491,-36,-92,32,-62,20,-4,16,10,72,42,-64,-42,-12,-20,-38,-9
1490227955540,77,94,70,8,-9,13,-26,-5,-128,-35,-94,-29,-23,-7,10,-71
1490227955588,-95,-62,-31,-23,-30,-14,19,12,23,-46,37,-25,16,-12,-36,12
1490227955590,43,48,-42,23,5,56,20,32,-68,-82,17,56,6,11,19,-17
1490227955638,93,-5,-26,-41,6,36,19,22,85,22,-102,-46,-25,-14,-30,-2
1490227955686,-2,-19,-74,12,-17,8,-1,20,-30,-5,51,-71,-4,1,45,-4
1490227955736,33,14,-67,30,-2,-25,-45,-4,-11,75,77,11,31,2,25,-18
1490227955784,-16,66,127,80,72,51,29,21,-25,-48,-104,-26,10,17,-11,-10
1490227955832,-46,7,84,5,5,-14,-25,-14,15,41,-17,-17,-16,-14,11,7
1490227955834,34,81,86,104,64,32,6,21,-35,-17,-3,-27,4,24,55,8
1490227955881,16,19,0,52,53,-17,-21,8,34,55,49,15,7,12,14,13
1490227955931,8,11,4,8,5,11,6,4,-31,-47,-49,-26,-4,-7,4,-1
1490227955979,-2,-19,-4,12,58,-6,-15,-3,-13,-25,-62,-80,-27,-22,-1,-11
1490227956028,-9,-2,-12,-32,3,45,25,8,-11,-13,-17,-22,0,8,-2,-12
1490227956076,-8,34,11,1,-29,6,-15,-5,14,18,19,18,8,-30,5,3
1490227956079,16,8,-8,-23,-11,8,6,0,1,1,-4,4,34,29,2,7
1490227956126,-11,2,-23,-21,-31,-17,53,-12,-2,4,-3,-11,-47,-28,12,14
1490227956173,-5,-1,-29,-48,-2,43,-1,-2,4,10,-1,15,35,51,-41,-10
1490227956222,1,-28,-2,15,1,-13,33,8,-8,-12,2,14,-31,27,9,4
1490227956270,4,18,26,21,-5,-33,-29,-5,-2,15,0,24,2,25,6,-3
1490227956319,-4,-11,2,-1,22,-15,8,-4,11,-11,15,1,-49,-98,-4,5
1490227956321,15,-4,-13,-26,27,6,-12,6,-20,-3,0,27,-30,-29,3,-7
1490227956369,-8,-4,-3,-24,-22,-13,-29,-17,16,7,14,26,47,3,42,12
1490227956417,-2,4,5,5,-19,-22,8,-3,-7,1,-3,4,76,37,-22,-12
1490227956466,-1,-13,-13,-7,16,-21,51,1,10,6,7,12,1,1,-69,6
1490227956514,1,0,1,10,28,-2,6,6,7,3,-7,-27,-10,12,22,0
1490227956517,-4,-5,1,10,-20,8,-34,-6,10,8,-1,-6,-3,-42,8,15
1490227956564,20,16,5,30,8,-40,35,-3,0,5,-8,-32,-6,-107,52,-11
1490227956612,-34,-19,-5,-3,3,94,22,-2,6,16,5,-2,6,4,-13,-5
1490227956661,-1,13,4,-11,-18,-84,-11,-7,-13,-17,3,1,-1,-109,10,-1
1490227956710,6,12,-4,-6,-3,-36,-4,-11,-7,-10,-7,-15,-4,-43,-26,-8
1490227956712,-19,-10,10,0,-10,-5,-12,-6,-19,13,5,6,-7,24,-5,3
1490227956759,72,25,3,-5,-19,-19,-25,-8,-2,-1,18,8,6,16,24,-6
1490227956807,-29,0,-14,-7,13,14,-19,4,21,12,-4,-8,2,23,-20,-5
1490227956856,-13,15,16,-6,-11,-20,-15,-8,-18,7,-14,-2,8,6,16,-4
1490227956905,2,-2,-33,4,7,18,1,-17,-34,-2,20,4,3,4,-4,29
1490227956953,-1,-3,22,33,4,-10,-21,-17,19,50,15,13,0,0,36,1
1490227956956,-39,-21,-87,-57,-24,-12,1,-17,-33,-75,-94,-103,-32,1,-16,-4
1490227957002,-16,46,18,22,1,-1,-20,-2,-47,31,60,54,27,16,-8,-6
1490227957051,64,-23,35,-14,4,-7,-13,-13,32,19,-40,0,0,-4,-32,-22
1490227957100,-74,-37,-20,9,-10,-22,-12,-17,8,33,54,15,4,15,14,11
1490227957149,13,-2,65,32,10,1,9,15,-49,-3,-8,25,3,-6,22,-14
1490227957197,-25,-40,-38,-21,-14,-2,7,1,-13,-33,-17,-22,-10,-33,-57,-31
1490227957198,21,-18,-43,-7,-5,1,2,-2,-27,-5,-8,-3,0,16,5,-4
1490227957246,26,21,19,-13,-14,0,12,5,-32,6,-4,-18,-11,-19,2,-2
1490227957295,-55,16,14,3,-4,9,22,11,3,7,22,21,11,41,14,-1
1490227957344,-10,7,13,28,13,6,-11,0,57,5,-1,-11,3,-25,7,-1
1490227957392,-32,-17,0,-2,-7,-5,-16,-14,32,19,11,10,-17,-8,7,1
1490227957441,8,3,4,-5,-6,-26,-18,2,7,-3,-8,-7,2,-28,-23,1
1490227957443,-19,0,-9,-22,-14,28,5,-12,-12,-2,12,14,15,34,14,8
1490227957491,18,-8,3,11,12,27,14,7,-11,-16,-6,-4,-6,2,-3,1
1490227957539,14,3,4,7,5,9,-16,5,-2,0,5,3,-3,4,31,-2
1490227957587,-4,4,-3,2,6,24,9,-9,-4,5,-2,-10,-15,-3,-22,10
1490227957635,-10,-9,-5,0,2,-3,5,0,7,-14,-1,1,-3,11,-17,-6
1490227957637,3,5,2,3,-2,-7,3,0,3,-24,0,-4,-3,-15,6,0
1490227957685,-14,-4,-1,-5,-10,-15,-14,-5,-31,6,-3,-5,1,12,1,-6
1490227957734,9,9,2,2,-8,11,-6,-4,-17,-5,-4,1,8,-14,-9,-1
1490227957782,32,-4,-1,0,0,0,-39,-2,3,-7,-6,-4,3,6,-16,2
1490227957832,-6,3,5,-8,-1,-6,-1,-2,-32,9,-3,15,13,39,48,17
1490227957879,-6,-19,-6,14,2,14,6,-5,7,28,94,39,8,-1,-1,3
1490227957881,-3,-12,-46,-27,-11,-12,40,-1,29,13,12,-7,8,18,2,1
1490227957929,32,-16,-1,38,-9,-14,-48,4,-14,2,-4,21,14,18,-9,-2
1490227957977,-51,39,21,-12,-3,3,49,-29,39,-7,61,56,8,-12,-33,8
1490227958026,-12,-52,31,-3,-7,1,-33,-24,13,56,12,5,12,27,-2,13
1490227958074,-10,28,-8,5,-3,6,22,9,1,-16,-42,-42,-21,-16,-9,3
1490227958076,-2,-13,21,23,10,3,4,37,89,25,-117,33,-13,-12,-15,-44
1490227958124,-85,-105,-123,-101,-41,-27,19,-2,53,55,21,-22,0,21,-15,-27
1490227958173,24,52,33,-32,2,-17,-35,17,50,-87,-92,4,-20,-10,-17,3
1490227958221,-42,-17,-74,-23,-48,-10,-5,-31,22,-31,85,52,-6,8,5,-22
1490227958270,91,-43,-6,5,-5,-7,-9,22,-84,-9,11,1,-6,-46,-2,57
1490227958318,8,-13,-39,-5,23,0,-54,-17,49,-10,-49,-15,-24,-26,35,6
1490227958325,-25,-28,-17,0,0,33,30,-16,-10,20,-3,5,0,-4,50,-7
1490227958367,125,98,121,65,28,21,80,49,-41,29,-12,19,5,16,-58,-8
1490227958416,-83,-27,-42,-52,27,-5,-37,-10,127,19,-42,-28,-36,-34,8,-16
1490227958465,-2,-54,-128,-59,-51,13,1,-13,35,8,50,25,-7,13,3,6
1490227958514,71,17,-76,-80,-14,-20,0,5,62,-31,43,6,5,-6,17,18
1490227958562,1,7,-40,-10,-22,25,-19,12,-13,55,70,50,45,0,5,-12
1490227958565,49,32,-29,26,16,1,30,16,-33,45,45,52,16,-7,-21,8
1490227958611,26,9,-25,0,34,-22,18,25,-87,-82,24,-36,-37,28,24,2
1490227958660,-8,49,78,67,40,38,59,14,4,-9,-60,17,15,11,-3,-6
1490227958709,-4,47,-3,-10,-26,-9,3,-6,-34,-53,-1,55,-41,-26,-9,7
1490227958757,-26,-34,9,-24,-20,-19,1,-11,18,-6,-22,-18,-17,5,-24,6
1490227958758,34,-7,22,3,-16,42,10,5,-12,16,-20,6,50,23,7,-7
1490227958806,9,8,57,75,44,-2,0,0,35,48,46,47,45,19,33,26
1490227958854,7,-4,-25,-32,5,25,4,13,16,0,14,-19,-16,-51,7,-8
1490227958903,12,-1,-27,13,-6,26,-19,2,-12,-6,-27,-18,-31,59,15,0
1490227958953,3,5,6,29,42,-27,57,20,-1,15,16,-5,-31,-43,-6,-1
1490227959000,-13,3,-10,-2,-28,-46,-13,-13,1,-1,-13,-32,5,-87,-24,2
1490227959002,17,11,9,66,42,19,-3,12,-11,10,-14,-47,-3,43,7,-9
1490227959050,-27,-33,-33,-57,-26,20,-20,-15,13,0,17,29,-5,-38,-6,10
1490227959099,-2,-10,-3,-15,-6,-20,21,-4,-20,-6,-14,2,61,41,-8,6
1490227959147,1,-19,-4,-11,2,49,-10,5,6,-4,1,5,-70,-58,20,8
1490227959196,8,-4,-2,-10,-19,-62,11,7,-1,-4,-14,-26,-7,15,-49,-20
1490227959244,5,1,13,-4,-10,-9,-11,5,4,13,-8,26,91,-36,-28,-4
1490227959246,-2,-1,-13,-24,-26,10,-24,-6,-5,0,-11,-33,-9,33,-7,-11
1490227959294,14,1,4,8,-2,-8,45,2,-24,-5,1,15,-20,-25,31,-5
1490227959344,13,10,4,4,-2,16,-76,11,-4,-8,-11,-8,20,-19,29,4
1490227959391,3,18,-6,-12,34,10,20,-4,1,-16,2,-1,-20,25,38,1
1490227959439,-9,-20,-10,-5,-2,-89,5,-9,-12,21,7,-5,-5,-55,-34,-7
1490227959440,7,-13,2,-4,-23,108,12,11,10,3,2,0,1,37,-20,-3
1490227959489,2,-8,14,3,-2,-12,1,5,70,37,-7,4,7,-99,3,19
1490227959537,58,-8,-13,4,-1,-82,18,11,-9,5,-17,-7,21,2,6,-5
1490227959586,75,30,14,-6,-9,-5,-20,-27,-57,-11,11,28,9,-17,17,-2
1490227959635,-44,-52,10,5,13,32,71,4,37,38,1,-17,-17,-12,49,5
1490227959683,19,18,12,3,4,18,-14,30,-3,-25,14,26,8,-25,-38,6
1490227959685,-63,-18,-54,-34,7,1,12,-3,116,-1,-18,-23,0,12,-15,13
1490227959732,-62,72,31,37,-2,15,-20,-9,-32,-75,12,-2,9,14,-2,-10
1490227959781,-68,21,-13,-2,-9,-41,1,-17,92,-26,52,48,23,60,15,24
1490227959830,-12,-25,38,3,-2,5,15,-2,49,15,-16,42,25,14,28,9
1490227959878,0,1,-28,-16,-1,22,8,31,-43,2,14,-13,-11,-1,-8,-20
1490227959880,43,15,-18,-3,-7,-14,-1,-4,46,18,-15,-26,-16,-8,-27,4
1490227959927,-2,16,8,21,0,-18,8,15,-13,-3,-15,-11,6,-10,1,-10
1490227959976,-57,16,31,28,25,43,8,-4,-14,-1,-22,-16,-13,-10,1,8
1490227960025,-14,-20,10,-13,-10,0,-12,-2,-19,-8,8,38,24,-2,-15,-11
1490227960074,33,14,-1,-17,0,9,-7,-5,-4,11,3,12,-7,14,28,10
1490227960122,-2,-19,1,-13,4,-30,5,-9,15,-6,1,-26,-27,-12,-9,3
1490227960124,-1,-16,-10,-19,-22,-27,-1,-11,2,-4,6,20,17,34,20,3
1490227960171,-13,2,-20,7,-16,29,-15,4,-45,29,-6,22,21,11,-33,-3
1490227960220,-2,52,20,-2,10,-25,-87,4,27,34,15,-5,-12,0,-11,1
1490227960269,-16,-30,-5,-5,-5,-9,-6,-10,7,-19,-13,5,9,30,36,9
1490227960318,-45,7,-6,0,1,2,19,-19,17,-21,-11,-18,-16,-23,-17,12
1490227960365,-20,-25,-8,1,-2,-5,3,4,12,-7,-16,-6,-3,-1,-2,0
1490227960370,53,40,7,0,4,27,2,14,-63,-15,4,-4,-7,-17,33,-12
1490227960415,-13,23,24,14,12,8,-3,1,73,1,8,25,11,-8,-25,20
1490227960512,14,38,0,0,-2,7,-12,-12,-24,-22,-32,-48,-15,-9,-19,-13
1490227960514,3,14,-4,52,15,-11,-16,17,-80,-44,33,16,-2,4,2,0
1490227960561,-5,-34,20,0,1,1,-10,4,-3,-32,19,17,-6,-19,9,-12
1490227960562,39,120,100,63,16,26,27,50,-101,43,-52,5,10,-11,-73,-23
1490227960610,30,61,-20,-47,-28,-14,-1,13,-62,-78,-84,-42,-21,-29,-33,-62
1490227960659,-61,-5,-99,9,-17,21,-23,-32,-22,47,81,27,4,-2,27,64
1490227960707,-89,-48,-87,-86,-36,-28,-12,-7,2,0,-19,-95,-11,5,14,-24
1490227960756,-40,-64,-71,-69,-3,-8,-14,-32,-76,-36,-128,-118,-77,-11,-3,-22
1490227960804,-2,-34,-26,-33,-8,-5,-11,26,36,-33,-7,113,23,5,-12,-15
1490227960806,-98,-75,50,127,19,-7,2,-31,115,26,-106,-20,-4,2,60,38
1490227960854,-106,-37,-48,-112,-79,-27,3,21,2,-40,45,11,18,-20,10,0
1490227960902,104,3,51,75,90,-29,42,36,111,82,-8,64,41,41,-18,90
1490227960951,12,-57,-27,121,-18,18,-44,31,-58,-61,-70,-106,-7,-8,38,-53
1490227961001,-46,-50,-111,-31,-5,-8,-13,22,-58,-22,84,73,-34,-33,-2,-36
1490227961048,-92,-74,-96,-123,-48,-43,-5,-44,83,12,-21,-41,6,-50,-21,-3
1490227961097,50,46,-9,7,-6,-30,5,5,-37,10,-97,-32,7,53,-5,14
1490227961099,-128,-63,112,113,43,-23,-15,5,70,58,-31,-92,-1,25,18,17
1490227961146,4,97,38,-5,-8,0,6,8,-76,-82,9,49,28,26,13,43
1490227961195,24,-36,44,-8,-19,-34,-16,0,-57,-96,-105,-36,-43,-64,-33,-30
1490227961243,-52,17,49,-53,0,-12,-53,-24,21,-18,-73,-35,-1,39,15,4
1490227961245,-22,-96,-66,-120,-30,21,-8,-2,38,2,-39,-3,-14,-32,-55,-19
1490227961292,-35,-9,19,59,13,-48,14,3,20,35,3,-11,-17,28,-6,13
1490227961341,12,19,13,17,27,-2,19,-5,-16,-10,-20,-34,-45,-1,-14,-18
1490227961390,10,10,67,-4,-25,3,-14,29,34,-1,-37,-24,6,19,0,-2
1490227961439,-8,-12,21,45,29,-17,-15,-26,1,-12,113,-27,-20,10,-4,8
1490227961487,-35,-14,2,4,16,4,31,-19,34,12,29,26,10,-11,28,25
1490227961488,14,65,-128,-86,22,14,-9,-23,-13,-81,-74,-91,-41,-26,15,35
1490227961536,26,71,86,97,-15,-73,-39,13,12,99,119,115,92,-29,-12,-1
1490227961585,6,-38,11,68,10,-128,11,0,-21,-30,-102,-118,-34,-37,-71,-4
1490227961634,42,32,61,38,6,-62,-38,17,-23,-46,-7,12,32,25,45,-22
1490227961683,11,8,17,-11,-12,-16,-32,-9,-3,1,2,46,4,-2,18,-8
1490227961730,4,-17,-47,-48,12,-8,62,0,1,4,-1,47,76,-67,8,7
1490227961732,14,-58,-19,-28,8,21,-23,6,-28,-30,19,1,-9,-32,20,5
1490227961780,2,-26,-20,-44,2,5,-30,1,15,-22,20,52,-25,-9,-60,9
1490227961829,-4,50,2,18,55,5,-63,-12,8,36,-3,11,-48,-34,-40,1
1490227961877,-1,1,16,7,-15,-25,-10,3,11,15,5,-2,-7,37,20,6
1490227961925,-27,-6,-19,-27,-11,20,3,-12,19,8,20,-12,6,17,-3,23
1490227961927,-32,-24,-34,4,-5,-19,53,8,-17,3,32,13,2,10,49,-11
1490227961975,-17,-31,-16,-38,-15,32,9,1,-2,-13,-22,2,22,15,-12,-13
1490227962024,-24,-69,-10,-10,-25,-65,0,5,-16,-5,-19,-8,18,-60,-31,-12
1490227962072,36,27,16,6,-5,25,-11,-7,37,28,-8,5,-26,51,11,11
1490227962121,91,-23,20,-46,-18,11,14,-2,-103,-62,-18,12,-16,-14,-23,-13
1490227962169,-22,-52,17,-17,12,-43,-13,-5,25,-15,-23,2,-1,-93,40,22
1490227962170,41,41,0,-1,-5,50,-12,18,16,-4,-14,-1,-11,40,-10,-12
1490227962219,-41,-6,0,-8,9,-64,3,0,16,-20,-30,1,3,48,-19,11
1490227962267,-84,39,38,11,26,20,23,-9,82,-1,50,31,-18,30,-25,15
1490227962316,82,-15,24,15,9,-3,1,4,-80,-11,-5,18,-6,-16,-12,14
1490227962364,-40,-51,-85,-7,40,16,30,-17,-11,9,-16,-38,-11,-16,31,-29
1490227962365,69,47,49,25,-12,11,-27,7,-23,-37,15,-33,10,20,-3,27
1490227962413,53,35,10,-5,0,14,-13,-31,13,-23,-32,-30,-29,-12,-7,-4
1490227962462,6,-7,-13,1,31,13,-22,-3,-47,7,15,23,63,32,23,-4
1490227962512,-44,-6,-6,-16,-10,5,-49,-10,-19,-24,5,12,-14,-14,11,-11
1490227962560,33,24,-14,19,9,-1,11,-12,20,16,-8,-27,-13,7,-13,12
1490227962608,-2,-16,-15,-37,7,10,10,-4,55,3,-7,-11,1,4,-11,-8
1490227962614,33,-7,3,-12,-24,4,-2,4,-12,14,17,45,44,-10,-46,-10
1490227962657,-26,-20,-12,-26,-8,-4,11,-1,25,3,-1,-14,-6,-1,0,1
1490227962706,13,0,1,14,-1,-3,9,-4,-33,-5,-10,6,-11,-18,-15,-12
1490227962755,2,-16,3,-10,-6,5,13,7,21,-14,4,-3,-17,-7,20,-2
1490227962804,-25,35,5,-10,-11,0,1,-4,3,43,1,-9,-10,2,-10,-4
1490227962852,-13,-15,-2,8,30,36,-87,13,-4,24,4,-7,-6,-23,-98,-10
1490227962854,-4,4,-7,1,7,17,50,15,-15,23,-9,-7,-4,0,12,-12
1490227962901,8,19,5,-17,-21,-33,-2,-7,-40,13,10,12,16,2,-1,-6
1490227962950,2,12,-1,1,6,8,2,-1,10,18,-13,0,-4,-18,-7,2
1490227962999,2,-6,6,3,7,7,6,8,-5,7,5,1,-2,5,12,7
1490227963047,-62,-7,-7,2,18,7,-16,-20,10,-15,-11,-6,-14,31,20,12
1490227963049,4,-1,-7,-17,-17,-23,-6,-11,-1,-6,-8,-3,-6,10,23,7
1490227963096,-60,0,-4,4,9,33,2,5,4,10,-12,-25,-24,-7,4,-11
1490227963145,36,41,56,55,20,2,31,-5,-23,12,-40,-7,-11,-2,-21,8
1490227963194,-5,-32,15,-27,-9,-7,-18,-11,33,34,-7,15,-21,-11,30,7
1490227963242,-17,63,25,20,27,27,-13,-9,46,55,12,11,-4,-1,16,16
1490227963292,-38,37,35,-65,-33,-4,-13,-19,59,56,-12,20,-1,5,9,12
1490227963295,53,33,40,-12,8,19,-1,-5,-70,-68,-26,36,14,3,-14,-17
1490227963340,-65,-15,14,-31,-19,-19,11,-1,12,36,41,-31,-18,10,-5,3
1490227963389,-114,60,31,73,53,17,-4,10,46,22,-79,-40,-9,14,25,38
1490227963438,127,53,-33,-11,-37,-1,-9,-4,-93,57,10,-45,-53,-4,10,52
1490227963486,20,127,86,127,82,21,10,23,-65,-94,103,120,28,2,6,-54
1490227963534,-49,-128,-32,-87,-38,-7,-13,-7,79,90,8,-47,-7,-12,22,-13
1490227963537,81,74,61,-24,-38,-8,-21,-50,-52,-77,-30,9,8,-24,-58,11
1490227963584,-46,-94,-26,-91,-19,19,-8,-6,-7,-12,17,-3,-33,-18,7,-7
1490227963632,-75,-101,-65,-28,-32,-25,-44,14,17,50,-18,-52,36,8,36,-11
1490227963681,-42,7,34,60,53,32,8,-18,40,21,21,67,36,-5,15,6
1490227963729,56,127,127,109,74,3,-20,8,-24,7,-128,-82,-19,28,9,27
1490227963732,59,33,-101,-72,-42,-25,-59,4,27,-88,27,-46,1,-12,76,29
1490227963779,61,65,23,114,53,30,10,15,-49,-6,61,-45,-10,7,17,-21
1490227963828,-7,-93,-69,-34,-27,4,-13,11,-16,-17,-46,-25,-33,-29,-3,-1
1490227963880,-64,-77,-56,39,28,-27,4,-1,-12,8,-94,-80,-8,-11,5,-19
1490227963925,17,-35,1,7,-12,10,-6,-1,25,58,10,34,38,-1,9,-4
1490227963973,-23,-35,-40,-8,-32,-37,-12,-1,66,51,104,34,63,27,17,37
1490227963975,66,100,95,117,39,20,-9,20,-34,-49,-128,-72,-4,-15,-4,6
1490227964022,-46,-111,-107,-98,-41,38,24,-16,32,2,-21,-44,-2,-7,-81,-9
1490227964071,-17,-44,-58,-46,-35,8,8,1,14,31,68,-6,13,4,16,3
1490227964120,-15,-48,-95,-101,-33,-80,-6,-18,-25,-10,28,68,-4,30,-28,-10
1490227964168,-15,-8,11,32,4,-77,31,-4,-19,-37,-105,-90,-51,-17,2,-10
1490227964216,6,12,-31,19,64,15,-55,-16,-5,34,28,1,-11,29,36,26
1490227964218,-9,14,-2,-20,-2,11,-34,-3,-14,-9,-12,28,5,-75,48,-11
1490227964266,8,15,23,31,31,-44,-1,10,-7,12,8,22,-10,-83,-29,1
1490227964315,12,-17,2,22,22,-36,7,11,17,-31,-5,-49,-9,29,31,-1
1490227964364,9,0,-24,-25,-27,39,-9,-11,-12,-7,3,7,28,-56,-2,-2
1490227964414,5,-17,20,5,-16,38,30,5,-24,-16,0,37,10,-9,-33,-5
1490227964417,10,-21,-1,-3,-74,43,-6,-1,22,-27,-13,-43,35,-32,19,1
1490227964461,-10,9,-16,-19,17,34,-14,0,9,15,5,8,2,-26,-42,6
1490227964510,8,7,10,-8,-30,4,32,6,-5,9,-3,-11,-27,-1,65,4
1490227964558,-23,-1,-9,8,26,54,36,4,2,2,2,17,13,14,-6,4
1490227964607,-17,8,4,6,25,-3,1,-8,4,4,16,15,-35,16,53,0
1490227964656,1,6,0,6,-4,0,41,13,22,9,3,-15,-27,-109,7,0
1490227964658,-11,-4,-10,-37,-20,8,18,-1,1,-32,-26,-36,-18,116,-1,5
1490227964705,-38,-6,-6,-17,-2,-58,7,-9,27,29,20,19,12,-56,-1,4
1490227964754,-33,-33,-40,-10,1,-98,-10,-22,-20,11,7,-1,-20,-59,2,-15
1490227964802,60,31,24,6,0,78,14,18,1,16,-3,14,0,12,43,6
1490227964851,-8,18,12,37,18,69,12,4,-31,-17,29,-46,-7,20,-6,8
1490227964899,-20,9,-15,-27,1,6,15,-29,-6,-18,12,5,-2,-9,26,-7
1490227964901,16,28,-28,-30,-16,9,-22,5,54,-65,3,23,18,20,-2,22
1490227964949,-9,-16,15,9,14,-5,-9,-7,2,-79,-90,-6,-36,-26,-35,-4
1490227964997,14,-19,-17,-1,11,7,-57,-1,9,33,13,28,20,27,-47,-22
1490227965046,7,-14,-34,22,17,-8,-7,-14,4,37,7,-9,15,8,25,23
1490227965094,42,-3,-14,-24,-18,22,2,9,-68,-19,-7,-8,-2,37,19,-11
1490227965096,13,-33,-41,-14,30,3,7,-11,-4,-11,2,10,23,-15,-17,17
1490227965144,29,25,29,13,-9,-5,9,-7,-24,-19,-27,-23,-27,-26,12,19
1490227965192,15,27,26,4,1,7,-2,10,-6,1,4,16,11,-4,-18,-13
1490227965241,-4,-1,-20,-21,6,8,-11,-14,-13,-18,4,-9,-8,-29,-17,2
1490227965290,5,-1,3,0,-4,-10,-19,-18,0,7,-1,0,-1,-15,0,0
1490227965338,22,-10,2,-12,-15,-32,8,0,-2,15,5,19,11,-12,-15,2
1490227965340,-29,-2,5,19,14,11,1,-6,16,-7,-4,-11,-7,-12,6,0
1490227965387,0,-23,-4,-3,-6,-2,8,5,-8,-26,3,3,18,17,1,-10
1490227965436,22,16,-8,3,0,-4,-27,2,-17,8,-4,-13,-31,1,26,-6
1490227965485,-45,24,-6,-7,-2,-12,-5,-20,73,45,7,11,17,-10,-27,17
1490227965532,21,-14,1,7,17,12,3,5,4,-2,-4,6,10,0,19,3
1490227965535,-2,1,-3,-15,-31,-5,-8,-3,-4,4,-9,20,44,4,8,-9
1490227965582,-2,6,10,-4,-1,-8,48,0,-9,-12,10,11,0,-19,46,0
1490227965631,-5,-6,-8,17,22,26,7,-2,25,-3,-2,5,13,7,3,7
1490227965680,-2,16,-5,-8,-3,-17,5,2,9,5,11,13,0,-10,9,9
1490227965729,4,-6,3,-3,-12,2,-12,9,10,-17,-6,7,14,-5,-10,2
1490227965777,-22,-6,6,9,5,5,-1,3,38,-6,-5,-8,-11,4,-3,1
1490227965780,26,11,11,-2,2,33,50,3,-12,10,27,21,10,-3,26,3
1490227965826,-94,-40,-45,2,-2,8,-28,-32,32,-1,32,-40,-10,-2,20,31
1490227965874,17,-31,-6,0,4,-6,-7,12,2,52,-18,5,-2,-9,14,-8
1490227965923,8,-97,-52,-14,-11,-10,-57,-13,6,-29,-12,-17,5,6,23,7
1490227965972,35,4,-53,-55,1,-2,-27,4,22,-47,6,31,7,11,58,44
1490227966020,26,32,-1,-7,-39,-19,-58,-35,-51,-30,34,13,34,11,-40,11
1490227966021,-34,-20,46,94,22,6,4,5,-52,-64,-74,-7,-25,-21,10,-16
1490227966070,3,43,127,10,6,1,-42,-6,40,66,-64,-1,17,9,28,14
1490227966119,39,-41,-35,-58,-14,-8,4,20,-62,61,122,66,-8,-22,-18,-48
1490227966167,-118,78,127,110,13,1,63,-15,127,127,127,127,84,25,12,17
1490227966216,-11,-68,-128,-19,-11,-12,-50,-22,48,35,83,-128,-48,-2,33,62
1490227966219,-10,-96,-53,-22,-38,-4,2,-11,6,32,91,15,-12,-7,-2,-34
1490227966266,54,54,109,-17,-37,-8,14,-27,30,45,-80,51,21,-4,-10,26
1490227966315,-49,-9,-53,90,4,-1,-12,-44,47,-61,-71,-103,-44,-15,-11,12
1490227966364,63,75,97,31,12,42,64,48,127,42,-89,-31,-5,-9,-16,-25
1490227966412,-61,-94,-48,-77,-46,-10,-23,-28,-14,9,27,117,24,19,-20,13
1490227966461,46,97,83,77,50,26,38,56,-61,37,127,80,32,12,14,-18
1490227966464,29,64,127,49,6,3,-49,12,13,-51,-7,25,14,-6,37,11
1490227966557,-15,3,50,94,43,-14,-3,30,27,58,73,8,47,34,10,4
1490227966558,76,36,8,56,32,-24,11,22,23,-8,4,-9,23,22,-5,-10
1490227966606,20,-7,20,-30,-46,1,1,-10,-29,-36,-36,-69,20,-4,-22,-1
1490227966655,-25,29,66,114,33,18,7,0,61,38,-19,18,39,-8,14,24
1490227966703,-2,-16,-103,17,8,12,13,-5,-12,8,66,50,-17,21,-18,-16
1490227966704,46,6,-22,-28,-11,38,7,9,-39,27,67,86,35,5,4,-6
1490227966753,-13,-30,-21,-23,-3,-13,23,6,9,-27,-52,-26,11,8,-32,20
1490227966801,22,1,67,-10,-4,-16,1,-4,-13,-22,-25,-14,-31,-86,4,-4
1490227966851,-8,3,60,-53,16,58,-18,-6,11,22,-13,50,26,18,-20,2
1490227966898,2,34,26,56,-10,-16,44,3,8,16,-4,-8,17,-37,-38,10
1490227966899,-11,-8,58,39,18,-40,-2,-2,9,-24,-38,1,5,6,-12,9
1490227966947,41,-7,-36,-46,23,-33,-41,6,-37,-35,10,5,15,78,18,-20
1490227966996,-16,9,11,-22,-30,-116,13,-8,29,8,-7,43,105,42,24,19
1490227967046,-28,-28,-16,9,36,17,1,-21,27,-2,17,46,-29,-76,6,11
1490227967094,-15,2,-8,10,2,-32,3,-3,-6,-19,-2,-15,-9,-46,-1,-13
1490227967142,-13,-4,3,8,-1,17,-27,-15,-24,-7,5,14,14,12,-2,-11
1490227967144,6,8,7,18,32,38,48,13,-9,6,1,13,21,73,-23,-9
1490227967191,38,14,13,5,5,-55,-19,1,2,20,-16,-35,-26,-69,0,7
1490227967240,17,-2,-15,13,20,-23,-6,-7,0,-2,-9,0,-11,19,-17,3
1490227967289,29,0,-4,-6,4,24,-85,13,-35,-11,-10,-6,9,-83,-36,-11
1490227967337,-12,-33,-35,-3,10,65,-19,-20,25,19,-14,-31,-24,86,22,0
1490227967385,23,-1,8,-2,-4,-34,13,-2,-20,7,-18,1,11,-4,9,5
1490227967387,6,30,15,32,7,-29,1,0,20,-28,17,-2,-1,-32,6,0
1490227967435,-22,-15,-30,-10,-21,-1,24,-7,-28,1,40,-2,3,25,8,-7
1490227967483,6,13,42,42,7,50,13,-30,-34,-13,9,13,8,26,-21,-28
1490227967532,-57,20,-13,-8,-14,-46,14,-4,-3,-13,-6,59,23,-6,12,-3
1490227967580,10,-25,-18,16,5,-4,52,-30,-17,5,15,-5,1,-3,7,20
1490227967581,85,-2,-20,-4,-5,11,-9,-6,-14,66,-19,-14,-2,-1,-9,10
1490227967629,5,-7,-11,5,8,15,10,28,-13,26,-6,-8,-14,-16,14,-16
1490227967678,-4,-8,45,20,-10,-46,-11,-22,20,21,-16,3,3,44,10,16
1490227967775,-16,-8,-5,-26,-11,-1,-36,-2,-13,-14,7,14,3,-19,-7,33
1490227967779,-1,34,60,34,7,-2,16,17,0,-1,-5,6,20,-1,-30,-40
1490227967824,-4,2,41,23,23,9,25,8,61,44,-1,6,-7,11,2,1
1490227967827,-9,8,-12,-2,-5,-6,-27,-15,23,-11,4,-9,1,14,7,4
1490227967874,-26,10,33,-28,-11,-1,12,-2,-20,-8,-16,42,21,20,30,-6
1490227967922,26,4,-1,3,3,3,-5,-7,-23,-2,2,-9,-5,-22,-42,-2
1490227967971,-6,8,14,18,0,1,6,-1,-1,12,4,-21,-11,2,7,4
1490227968068,-39,4,14,7,-1,-22,-5,2,14,10,2,-13,-3,20,38,10
1490227968070,-45,-21,0,14,26,-17,1,1,24,2,1,-2,-7,20,-21,5
1490227968071,3,-33,-10,-6,-2,-10,-6,-9,3,-16,-1,4,-12,-37,-12,-10
1490227968119,-11,40,12,5,12,-2,-10,3,6,13,8,-11,-32,-39,-4,-6
1490227968166,-11,21,7,-3,7,33,22,-4,15,-7,4,-13,-18,-18,-13,1
1490227968215,27,-16,2,43,80,-3,-7,-1,-20,-37,1,4,-3,4,-6,-11
1490227968263,1,1,-5,-12,-13,-11,-9,9,-2,-2,-4,-1,6,29,33,4
1490227968265,-17,11,1,3,21,-5,5,-1,10,15,0,-9,-26,-10,-1,-2
1490227968312,12,-19,-5,-4,-14,-4,26,-6,1,-4,5,0,6,-1,-12,-5
1490227968361,17,1,-5,-10,-21,-1,9,9,-18,-13,-11,-5,1,-7,-12,-7
1490227968410,7,3,-2,-4,-9,2,-24,-7,-16,-4,0,4,5,4,7,-11
1490227968458,-6,-2,-2,-9,-11,29,3,1,-12,-9,7,27,28,11,2,5
1490227968506,-20,-9,-13,5,2,-19,-23,-23,-1,2,1,-8,1,12,-9,5
1490227968509,8,17,81,46,19,12,1,3,-40,-31,-92,-28,-29,-37,-28,-15
1490227968557,25,-4,21,18,7,-13,-71,6,30,14,-28,-1,-9,-18,27,1
1490227968605,112,-9,-45,-60,-18,-7,-14,7,-98,-30,-22,-27,-5,22,35,4
1490227968655,-30,53,0,-20,6,15,41,18,58,16,6,45,18,-19,-18,-18
1490227968701,-71,-4,-23,8,-4,0,-7,23,75,52,31,29,2,4,1,10
1490227968704,-81,-65,20,-31,-20,-4,-56,-14,-91,13,-9,24,11,8,18,5
1490227968752,-55,-49,-103,26,-6,6,13,7,59,-65,-41,-116,-26,-21,-8,-18
1490227968800,102,10,-12,-4,7,35,22,24,-97,-12,126,-1,-41,-3,-9,-51
1490227968849,-3,-5,-53,-35,17,11,16,35,-12,-27,-15,-26,-8,-74,-46,-75
1490227968897,-78,-19,81,-122,-25,-4,2,15,-14,65,46,1,16,18,10,-19
1490227968945,17,-41,87,-91,36,-43,-17,-43,-30,-98,-108,-39,-44,-18,-7,-13
1490227968947,-77,36,-48,-25,-21,-16,-20,12,123,-33,-76,-9,-3,4,28,5
1490227968995,8,21,118,33,-15,-11,-21,-52,37,40,-69,54,55,26,10,11
1490227969044,-64,-128,-128,-104,-55,34,56,-16,-69,6,71,-99,-59,-34,-6,14
1490227969096,-25,127,95,124,75,12,40,43,47,-69,-21,-8,-4,-29,-16,13
1490227969189,119,4,81,89,27,5,-3,3,-123,-63,-62,-55,3,14,-7,-14
1490227969190,-35,42,-4,11,-23,-27,-50,-42,-72,20,-5,52,18,-5,16,30
1490227969192,-66,47,71,-8,17,15,13,13,105,77,-16,18,-24,-5,17,4
1490227969239,-23,-21,32,16,5,-5,44,-4,33,-6,1,12,21,17,-43,21
1490227969287,108,31,-13,-30,-7,-12,-25,5,-47,46,97,80,9,-7,24,-12
1490227969336,-23,-8,-50,-47,2,-7,-23,15,37,-34,39,-14,-25,-44,1,-9
1490227969384,-47,-15,-9,48,14,-9,-11,-1,24,8,-30,25,-34,24,-35,1
1490227969385,25,-5,-56,-95,-28,33,50,16,-28,-41,-59,-49,-7,13,-34,-10
1490227969433,-56,-22,32,12,22,0,2,1,19,7,-55,-17,16,-5,-18,-16
1490227969482,23,30,-43,-106,-16,21,1,10,-20,-52,-16,95,-20,-18,-35,-16
1490227969531,-11,-40,-46,-12,-36,-21,-36,2,13,-4,28,16,10,25,47,2
1490227969628,15,0,43,69,10,38,18,4,-21,-26,-88,-104,-12,-25,9,1
1490227969630,17,47,89,18,-18,0,9,3,9,25,-2,21,-19,26,-14,6
1490227969633,4,26,38,12,-19,25,-6,-18,-15,1,-19,3,12,-24,61,34
1490227969677,-33,-4,-66,-28,-45,15,-66,-4,-18,-8,-59,-50,78,9,-30,-21
1490227969726,5,13,47,26,-19,-97,-14,-14,-10,-18,-42,-62,31,60,-18,-8
1490227969775,-1,-6,-16,-28,11,19,26,-10,23,8,12,-8,-11,-84,42,14
1490227969823,10,-16,-10,-1,-3,-23,-8,6,-8,-8,9,-16,-8,19,8,10
1490227969872,-8,-7,10,21,-10,96,7,-6,1,1,6,-2,-14,119,14,0
1490227969873,14,2,5,-2,39,-52,19,2,15,4,9,6,-21,-44,9,10
1490227969921,8,9,4,5,4,-12,23,13,28,3,4,-3,-37,-27,-40,4
1490227969970,10,14,25,15,-5,-11,35,1,-29,-13,-26,-12,-24,11,11,-13
1490227970020,0,-3,-3,-8,-24,-1,-7,3,8,0,3,9,27,9,49,-2
1490227970066,5,11,14,19,0,11,6,-1,0,4,-2,5,-8,-35,2,6
1490227970068,17,28,17,4,17,-81,-5,1,-32,-15,-28,-4,15,-12,-18,-2
1490227970116,12,8,18,26,24,119,25,13,7,17,6,22,-2,94,-13,3
1490227970165,-55,-31,-16,-22,7,-45,-12,-6,-9,-28,-21,-11,-6,-76,-25,0
1490227970214,36,14,4,4,-9,-1,-17,14,-63,-33,23,26,27,-72,11,1
1490227970262,-50,-25,-30,-55,-19,-17,-43,-22,14,20,26,15,-10,-95,26,14
1490227970310,24,2,19,2,7,10,-13,5,3,19,8,24,-6,41,3,-29
1490227970313,-39,-57,-19,4,3,-8,-22,-3,56,13,42,27,-1,-10,28,11
1490227970360,36,27,-14,18,-12,-14,-10,13,-28,-41,58,10,5,16,7,5
1490227970408,-57,18,15,-10,7,9,3,12,22,-9,2,-8,-13,-38,-13,5
1490227970457,-19,-14,29,32,-11,-5,18,15,55,1,-40,9,-2,16,-13,24
1490227970506,41,39,17,-5,2,-8,3,19,-66,-59,6,42,0,-12,17,-32
1490227970555,35,-11,-10,-39,-12,21,-4,-15,-55,-20,-25,-14,1,-11,3,38
1490227970556,4,-53,-31,-16,21,3,1,-1,-26,12,33,-21,-7,24,22,-3
1490227970604,72,16,-16,-28,-4,-1,-26,-3,-48,-15,-17,7,-5,-24,4,4
1490227970652,-30,-5,-5,19,3,6,-1,-7,34,11,6,9,3,9,15,24
1490227970701,-65,-19,-38,-11,6,-16,13,2,17,0,33,-9,7,19,-21,40
1490227970749,30,29,-1,30,5,-5,13,-7,-19,-29,-32,-39,-14,-31,-41,-22
1490227970751,-15,-9,14,0,-8,17,15,-6,-4,-3,-14,-5,1,33,3,5
1490227970799,11,6,-15,1,-2,-7,-22,-17,-31,-3,7,-7,-1,-6,-39,7
1490227970847,27,5,14,-18,-15,11,7,11,-22,-2,24,20,-9,-26,-19,-12
1490227970896,0,-11,-21,-16,-5,9,-15,-4,4,3,-5,-3,-13,-26,-3,-7
1490227970946,15,4,5,10,5,0,21,4,0,3,-3,-1,0,-17,-7,-5
1490227970993,19,-5,-3,0,-10,-18,-4,-4,-6,0,2,5,0,6,13,5
1490227970994,-3,-3,9,21,26,5,33,-7,2,-9,-10,3,7,-3,7,-3
1490227971043,-60,-7,0,0,0,-18,-4,-21,50,12,0,-5,-4,7,22,7
1490227971091,-5,16,-16,6,-1,-7,2,-9,-11,12,-4,-19,-25,1,-3,5
1490227971140,28,3,2,-6,0,5,-2,6,-1,5,4,-1,8,8,-1,-3
1490227971188,-9,-3,-3,-10,-16,-2,-29,-5,14,1,2,12,30,12,-26,2
1490227971190,3,-4,-2,11,22,-13,21,2,-2,-3,2,2,2,2,4,-2
1490227971237,24,8,-3,6,8,9,1,6,1,3,-2,11,14,-8,-21,-6
1490227971286,-6,2,-3,-14,0,17,-6,-9,11,1,-4,24,25,-1,12,12
1490227971335,17,-1,3,12,12,-4,-9,12,-4,-3,-1,-7,-2,-2,15,0
1490227971384,-16,-4,-5,-17,-33,2,5,-2,6,-5,-4,-7,-4,-6,-5,-3
1490227971431,-1,5,2,-8,-19,10,-7,-14,-15,-3,1,14,27,27,-4,5
1490227971432,-24,-4,2,0,6,21,10,-8,-7,-3,0,-8,-8,7,10,-1
1490227971481,1,5,-1,24,23,19,56,9,-16,-1,-2,-10,-22,-13,-10,-10
1490227971578,-14,-5,-2,-3,-5,-5,18,0,-31,6,1,2,-5,18,27,7
1490227971580,-1,-2,4,18,31,-3,-39,-7,11,-3,-5,-13,-19,-8,5,2
1490227971629,-22,-6,3,-7,-6,6,15,4,21,-4,-5,6,-2,-18,-8,-2
1490227971675,-4,2,5,11,11,1,-42,-1,8,-4,-6,-5,0,-8,43,5
1490227971679,-34,-2,3,-3,8,3,11,-12,26,-7,1,12,8,8,-10,8
1490227971724,-15,1,1,-22,-18,7,4,8,26,-9,1,33,39,-2,2,-9
1490227971773,40,5,1,-14,-36,-8,-25,-6,-19,-3,-2,12,23,-8,-13,-5
1490227971822,8,2,3,18,12,3,7,3,10,-2,-2,-10,-6,-12,-3,13
1490227971870,15,-3,-2,1,10,-2,-8,-5,-50,-5,-2,-14,-24,-21,18,-9
1490227971872,26,-4,-3,-9,7,-5,3,7,17,4,-1,-17,-34,-27,-23,-1
