1490653982188,111,40,-99,-112,84,102,74,68,71,13,106,102,-24,-103,-95,-37
1490653982237,-125,79,-46,90,-128,8,-46,-62,-116,-21,-48,-128,-12,2,1,-16
1490653982238,-36,14,127,-56,127,73,89,104,-90,-121,-37,59,-128,-97,-91,-110
1490653982286,69,48,-10,-41,97,42,38,-88,86,90,-52,124,36,9,100,127
1490653982335,16,-13,-97,95,110,38,-16,20,13,108,97,-110,-61,3,-29,-121
1490653982384,1,-19,5,-47,-114,-124,-123,19,12,24,28,-93,87,127,73,116
1490653982432,76,-5,-110,76,0,75,46,87,-24,-20,-128,-78,35,-43,-55,68
1490653982480,14,-27,99,-59,-39,-2,28,-47,-19,-45,-38,-16,-26,-7,66,-128
1490653982482,7,63,35,-41,-24,-1,-115,-102,73,-65,-5,16,113,-103,-37,2
1490653982530,-15,47,56,-9,77,104,25,-106,76,-32,4,123,-78,-38,-88,45
1490653982579,-11,-52,-128,-54,-21,-119,-90,34,-5,-16,51,43,52,43,-23,6
1490653982627,49,45,102,20,-9,64,-62,-22,2,127,54,33,-17,-96,-1,14
1490653982676,28,-84,75,55,-59,28,-77,-40,-6,-11,-29,27,-57,28,74,37
1490653982677,32,59,48,-124,-90,11,17,51,11,25,-41,-116,116,-70,-103,-79
1490653982725,5,17,2,72,-37,52,39,-48,-21,13,127,11,14,-19,-76,20
1490653982774,80,-72,-89,45,26,-128,51,12,74,-16,-125,-87,-128,-13,-60,-42
1490653982822,67,-23,22,-41,125,83,6,54,-21,-128,-79,-63,68,-38,-77,-33
1490653982871,-92,14,127,107,127,20,87,-26,-74,-74,4,44,-60,-9,33,-33
1490653982919,-106,96,88,-22,74,31,-15,-25,-5,127,124,-19,73,90,60,10
1490653982920,-6,75,-33,-30,42,-105,-95,-128,-55,-28,48,-69,-109,-87,127,-7
1490653982969,119,75,-9,7,-82,127,-119,-28,127,-90,116,-15,-128,106,-128,45
1490653983017,18,73,-35,48,-43,27,-45,116,107,127,-26,-41,-26,2,-32,101
1490653983067,28,77,122,-31,-4,14,-89,-76,16,-7,127,-43,-4,98,-113,-36
1490653983114,-11,-70,-62,125,-3,-128,21,-67,3,-39,3,-55,-6,2,58,61
1490653983116,-20,-26,105,-10,-111,99,-57,47,-73,-84,101,102,-33,32,127,-114
1490653983164,-83,-122,-104,79,115,-33,-46,-112,-14,0,-80,4,19,-51,-66,-62
1490653983260,7,34,-30,24,-4,25,61,89,-20,38,-20,-18,-31,2,-50,-41
1490653983262,4,-13,-12,-28,-1,-2,-3,-34,25,6,-74,24,0,-9,78,40
1490653983310,-56,-35,41,8,19,-75,-25,-28,-17,7,16,24,27,66,-38,2
1490653983358,2,-80,35,19,-22,64,-20,-33,103,36,-36,4,29,22,-7,3
1490653983407,-30,83,-121,1,-44,-55,-72,1,-5,50,82,13,7,-23,1,23
1490653983408,77,52,127,127,69,-89,6,-27,117,-105,-71,-48,-64,-10,55,-8
1490653983456,-60,-97,66,19,15,79,23,-2,-6,-128,-22,46,-13,-35,-45,-4
1490653983505,-21,127,69,68,-47,-79,10,-2,-23,112,7,-87,-4,-48,-22,-28
1490653983554,-52,29,0,59,-90,-30,-46,-79,-39,62,17,-60,-53,-22,-12,73
1490653983602,-49,54,122,-22,127,109,59,26,-87,-110,-128,43,127,-70,-14,-8
1490653983603,46,-34,-128,85,-93,73,7,24,-25,3,127,-2,11,-53,28,70
1490653983651,-53,-13,-23,-128,43,41,12,-71,-35,-103,-126,112,-126,-72,-68,-12
1490653983700,45,-33,-49,86,97,-88,-22,15,28,-16,76,-83,-81,-109,-128,-90
1490653983749,66,-12,53,-64,56,-12,89,72,29,127,67,-57,41,55,-13,6
1490653983797,-42,-41,-90,65,53,-36,-48,61,25,-61,-2,-10,91,60,-13,-87
1490653983798,-13,-16,-109,-25,-90,-97,6,117,-10,29,29,-31,-128,-53,-55,-10
1490653983846,-28,-31,23,28,-59,65,49,32,7,-6,-63,-32,104,-26,-48,100
1490653983895,-28,22,29,-56,-64,116,99,43,-16,-11,11,45,60,-102,-9,26
1490653983944,-28,69,26,-2,-15,-87,-20,-38,-2,27,13,-61,101,-10,-33,-45
1490653983992,28,9,-65,106,99,118,91,127,40,-26,115,-118,20,39,11,-12
1490653984040,-45,84,26,-33,-31,-99,-128,39,-1,-48,-3,122,38,-35,70,-71
1490653984042,-7,-29,26,127,127,35,66,-83,28,0,-36,-1,-105,83,-119,-1
1490653984090,-10,-59,32,34,58,-128,-97,-51,-19,-35,-89,-73,-73,-75,-83,-88
1490653984139,33,-49,-124,-110,-30,-6,61,90,5,-7,6,85,-16,53,74,-58
1490653984187,-18,1,-67,-24,-90,-34,121,-47,13,34,96,-89,10,99,127,25
1490653984236,39,93,20,103,-34,32,-75,86,41,-52,50,-63,70,18,62,-23
1490653984284,6,3,60,73,-77,-24,0,14,-8,32,-80,78,66,-34,-36,6
1490653984285,-25,-1,19,127,34,98,10,-128,22,-3,27,-74,-19,57,-11,55
1490653984334,13,36,-58,98,127,79,68,89,-25,-102,-45,-48,-127,-74,-77,-53
1490653984382,4,6,127,12,-99,30,19,-17,-12,37,-114,-103,-107,8,66,4
1490653984431,-8,-53,-64,11,19,82,67,61,14,67,47,-26,-101,-59,-65,37
1490653984479,30,46,54,-65,74,-55,-57,-3,-23,-27,-117,3,-121,-25,-70,-116
1490653984480,-18,-12,-9,-80,-91,-91,-100,76,-30,-28,-99,43,19,-128,-74,-127
1490653984529,18,-47,-63,-2,-23,-19,101,-47,2,85,-94,-128,66,-48,24,92
1490653984577,-46,-38,-47,-92,88,-14,-44,-109,-11,-36,127,85,84,101,63,53
1490653984626,10,96,-88,110,-30,-36,10,33,26,11,124,-23,49,35,11,-55
1490653984675,-64,-27,-60,3,56,-94,-114,-128,-12,8,63,-1,-128,112,80,-35
1490653984723,-15,70,-26,-11,-64,15,-67,27,12,0,65,-15,125,-80,-59,-101
1490653984724,4,1,46,68,24,-23,10,57,-8,63,-37,23,-27,-11,-77,-25
1490653984772,36,62,-15,-91,81,69,30,-93,18,127,8,74,-128,14,-49,-54
1490653984821,-44,60,-59,-68,-36,-25,-81,102,104,-56,-2,-61,-11,43,127,127
1490653984870,-32,-68,78,-56,-128,-70,-80,-43,1,58,37,-69,20,29,-105,-109
1490653984918,-14,8,-45,60,127,-126,-51,-67,-5,64,45,-37,-86,36,-1,55
1490653984967,18,41,67,4,111,10,55,121,12,-36,75,97,51,77,113,45
1490653984968,-29,-121,-96,-101,-128,-108,-128,66,-40,-51,12,16,-68,-50,-17,-15
1490653985016,-10,-31,-22,66,127,-29,-72,-86,-23,2,-76,-72,-91,88,110,27
1490653985065,58,93,127,-27,-128,127,22,71,-30,-89,-99,19,49,-128,-128,-46
1490653985114,27,-46,98,127,21,-75,23,-49,23,-19,-102,-85,-22,61,-18,-47
1490653985162,47,63,8,55,30,25,70,43,36,84,115,117,-21,103,25,15
1490653985164,21,-74,-79,-11,74,-43,-8,-61,-6,81,43,87,43,60,28,-19
1490653985211,33,-33,-69,17,107,-92,-38,44,74,-79,-128,36,-86,-121,-47,-8
1490653985260,37,-94,-46,65,-128,-15,-13,-50,26,27,-82,-13,-119,96,-46,69
1490653985309,3,-10,63,54,-67,-24,10,-56,2,22,-29,-128,124,63,108,84
1490653985357,0,-12,2,-21,-19,52,-19,7,5,13,37,-25,127,127,115,10
1490653985406,1,81,127,-11,106,89,21,63,0,-42,-81,-7,18,-66,-27,-20
1490653985407,-1,8,51,-114,-120,-81,5,107,0,-81,-85,6,-127,-77,-22,-2
1490653985503,0,-6,33,-29,-52,-21,-59,40,0,114,67,85,31,18,-32,-88
1490653985552,0,-68,-42,-44,-62,-25,-19,-20,-1,37,-9,-60,-45,75,19,-13
1490653985554,26,-66,-77,117,62,19,-29,86,23,-6,-7,-46,-44,-43,-60,-63
1490653985601,-6,50,12,-7,3,21,-18,-73,0,0,28,-9,-11,-13,34,4
1490653985649,-46,45,-6,-11,31,20,-21,-21,11,-8,3,-24,-36,8,6,47
1490653985651,-16,20,19,-39,-29,-30,-40,-46,-33,-8,36,29,49,32,65,103
1490653985699,19,3,-8,19,27,-28,-8,-7,5,34,-51,-41,-81,-53,-17,34
1490653985748,-16,-8,-24,7,-62,-69,-5,9,-36,35,-1,31,11,14,-15,-39
1490653985796,47,61,33,88,16,-3,-21,-44,61,-60,-72,-91,-9,-26,-35,52
1490653985845,-39,-20,74,70,-13,48,-43,-72,49,33,-55,-96,2,-27,20,33
1490653985847,72,-34,-22,-63,-20,16,25,49,-1,91,80,-75,85,17,1,-43
1490653985894,-76,-88,-91,-10,-43,-51,-21,-57,-114,86,13,-65,-49,-40,-14,-37
1490653985943,-42,-71,-1,34,5,-68,10,-25,-6,99,-21,-128,24,44,16,-22
1490653985992,-23,67,114,90,-128,-3,9,-97,-2,26,67,-107,111,43,29,111
1490653986040,-7,-13,-102,6,107,99,116,59,4,-50,12,-58,29,-37,-128,-38
1490653986088,-4,-37,40,-113,-31,6,-35,-103,-1,14,26,112,-113,-69,-38,-86
1490653986089,-4,-33,25,-15,127,-69,-122,-15,0,43,75,-76,-91,16,54,6
1490653986137,-56,-39,35,26,77,19,-7,-28,-5,99,53,-90,-37,62,10,-78
1490653986186,-77,-128,-128,127,43,-128,-98,-75,27,71,107,-107,8,94,75,-7
1490653986237,-12,0,-105,-36,6,14,4,-80,1,-43,63,-74,-86,-73,-86,-37
1490653986283,54,50,50,-90,-19,118,118,103,18,126,112,90,-80,-45,-38,-19
1490653986284,-33,-46,-80,-126,82,127,34,-43,-18,-68,-6,-44,-15,-58,-68,25
1490653986332,24,28,52,-79,72,52,-6,34,-26,-50,-34,111,-71,-109,-74,-50
1490653986381,16,41,25,-70,-86,-11,75,98,98,81,127,4,15,-33,-36,69
1490653986430,-11,62,3,69,34,124,72,65,28,24,7,-107,-56,85,43,41
1490653986479,-5,6,28,-85,-19,-38,-88,-54,-10,0,22,-50,-57,-58,-19,-128
1490653986528,-14,-50,-63,-128,-57,-40,-69,-10,-20,25,-24,-60,1,22,-106,-128
1490653986531,-42,-16,-16,-103,-75,-55,9,18,45,61,95,-38,-72,9,46,127
1490653986576,5,20,23,111,-48,-47,14,-44,-16,-64,-93,-111,100,96,-128,-86
1490653986625,6,-69,-126,2,-110,94,81,1,-11,45,45,28,82,-88,-12,-128
1490653986674,80,-60,92,-91,-24,-82,3,90,-72,-63,-103,-23,-116,-64,65,-21
1490653986722,-31,-27,-51,-27,-72,-68,2,8,30,-18,-89,-28,-93,-110,7,14
1490653986771,-15,59,55,25,-95,38,16,-20,29,33,89,-91,126,100,81,-115
1490653986772,-4,-11,33,-77,54,23,-89,-73,-8,73,-35,-46,-50,-57,-11,-45
1490653986820,-5,-107,-13,-88,-94,-93,-44,-98,48,41,-66,77,67,71,4,104
1490653986869,-1,-20,29,110,-128,-72,-106,-128,-48,-16,-56,31,-23,47,15,44
1490653986918,-42,-64,-59,1,115,127,127,85,0,97,127,-18,0,-30,-7,65
1490653986965,-14,0,84,85,-128,-128,-128,-109,-24,-62,-128,-128,61,64,56,29
1490653986966,-67,-59,-124,77,13,-52,-119,-71,22,99,13,51,-25,37,69,29
1490653987015,-38,-112,-128,68,8,-70,-68,-19,9,28,-12,-128,-78,26,-4,-6
1490653987064,44,25,120,-71,-64,2,15,-35,-32,-20,-23,15,-128,-92,-45,-53
1490653987112,14,-6,-36,-60,102,-43,-58,62,-5,-38,83,-48,18,48,-43,-115
1490653987161,-55,-12,-40,127,21,-60,-76,-41,-8,1,58,-21,-15,106,46,13
1490653987209,27,123,117,52,-20,116,38,16,-14,-64,-9,39,-112,-34,-5,26
1490653987211,21,-9,81,-115,-31,-117,-21,84,-5,23,53,83,-35,78,-64,-38
1490653987259,-45,-47,-111,-56,-63,-43,-78,-82,-2,22,38,118,51,11,-23,-9
1490653987307,30,-16,-46,44,50,-26,-11,-24,32,63,5,-92,74,90,57,27
1490653987357,-60,58,-97,-128,29,41,-5,-17,26,-57,37,78,-20,0,-63,23
1490653987405,-9,105,127,72,30,7,3,30,54,-74,-114,-73,127,0,-1,-38
1490653987453,33,0,-25,-70,-123,-66,-12,-9,31,30,50,-24,-104,23,33,-1
1490653987455,-1,-40,59,36,-97,71,-52,-26,5,54,43,-58,27,-29,-81,2
1490653987502,40,60,98,28,127,114,38,3,-10,-58,-103,39,-59,-92,-62,-32
1490653987551,-43,87,120,116,127,127,8,-12,7,-47,-2,38,-70,-91,-32,31
1490653987600,26,17,-20,-118,53,111,127,-12,51,-62,-97,85,-89,-27,3,43
1490653987648,41,-69,51,53,-58,-97,-34,-12,30,-23,-85,43,-66,26,48,-3
1490653987650,32,37,0,53,31,39,50,106,5,40,25,-18,2,9,-69,-101
1490653987697,-9,14,111,4,-74,65,-42,-31,18,-76,-128,-29,-86,-115,-11,-67
1490653987746,17,-67,60,101,49,-10,18,-38,-38,-34,-24,-8,-26,-20,-75,-17
1490653987795,18,-75,-7,-36,21,-37,-45,-25,-17,-80,-73,-12,-38,-38,43,-3
1490653987843,-11,32,17,98,-42,5,8,19,23,66,82,-73,127,97,-13,23
1490653987892,-14,1,11,-109,98,95,27,55,31,-68,105,83,-96,-50,31,30
1490653987893,-67,78,29,-18,45,-37,-23,-5,-9,48,96,-15,32,37,-40,107
1490653987941,-84,-59,-98,-124,98,-24,-14,35,-32,43,85,-72,127,77,-92,-37
1490653987990,-26,29,-98,-111,35,-6,-13,-33,3,-18,8,11,-76,-65,-26,13
1490653988039,76,21,55,6,23,-1,5,-10,127,-8,82,-62,127,-128,57,91
1490653988087,22,43,90,-60,-33,89,127,-45,1,-74,-78,127,-3,-82,-21,116
1490653988135,25,97,54,-19,-128,56,-24,15,-1,-52,-20,18,79,25,65,64
1490653988137,37,-7,85,-13,-9,39,-22,20,-14,-19,-66,-44,113,-34,-7,2
1490653988185,4,-5,69,-51,82,-20,-8,-8,109,43,1,-117,-30,-45,-54,21
1490653988235,-21,-20,6,127,-73,-63,-57,-115,22,52,127,-6,-121,1,22,-33
1490653988331,12,-28,81,44,-59,-2,-20,127,-117,-34,-17,-10,-40,-64,54,-65
1490653988332,-24,-15,36,-4,6,4,-60,-117,101,87,32,-75,-53,80,108,90
1490653988333,-66,-108,-123,-43,-128,-98,-51,-82,34,34,103,-29,84,100,-21,99
1490653988381,34,-89,-55,64,-21,-25,71,-15,-6,-40,-128,-128,93,16,17,35
1490653988430,63,-10,76,-14,-90,-4,-40,127,-3,34,72,47,127,32,119,-77
1490653988477,11,36,127,83,-12,57,38,81,-7,-3,-84,-128,-83,-28,-37,-90
1490653988526,-23,9,-39,33,-128,-6,-12,-5,9,38,127,118,84,67,65,2
1490653988574,24,-4,-22,-77,-44,87,-41,73,1,10,26,44,-5,-68,-35,-31
1490653988575,3,-7,120,56,127,13,37,5,-27,-17,-39,-81,-128,-128,-128,-46
1490653988624,28,3,1,0,46,124,112,91,21,-21,-83,54,103,-43,0,-105
1490653988673,23,72,-3,6,127,50,25,-25,-6,-51,1,-68,-128,-38,8,25
1490653988721,-2,49,14,-17,-12,32,30,70,20,89,74,-53,-80,33,-37,4
1490653988769,-27,-21,61,-36,-115,-102,-104,-33,24,-10,-118,-76,126,-29,32,107
1490653988771,-21,-30,-27,2,-128,-72,-57,-75,26,74,30,-57,-99,29,-38,-23
1490653988819,-10,-50,62,-11,-35,30,51,72,-1,66,-120,-48,-66,-64,-126,-128
1490653988867,-75,-49,-125,106,-85,106,27,-78,34,65,127,19,72,62,51,2
1490653988916,-7,-24,4,-109,12,-82,-117,-18,-1,69,27,79,45,60,88,127
1490653988965,47,-20,-6,-128,120,101,108,-30,-11,-57,14,65,-88,-34,-97,58
1490653989013,14,31,49,-92,-104,-4,-66,-70,-31,28,29,102,127,26,99,-47
1490653989015,0,-9,-9,-9,-80,-41,1,82,1,-27,-21,-96,8,-83,-78,-82
1490653989064,-25,1,-47,127,-50,-68,-59,-128,16,58,1,-128,-110,-31,-25,90
1490653989112,-36,0,99,106,-15,102,-17,-98,24,86,43,-93,44,-4,87,-85
1490653989162,18,112,47,-128,-60,117,47,41,-69,-72,-128,97,38,-78,-128,-93
1490653989209,45,-12,122,-44,-82,-109,-18,-16,-46,-50,-92,23,-26,44,-52,-86
1490653989256,-33,-93,-49,-83,127,-20,-75,-103,15,46,47,-128,-117,127,107,75
1490653989258,35,41,-71,-56,-48,-19,51,20,-47,-64,-107,83,-71,-37,-85,-89
1490653989306,39,70,123,-45,1,1,-61,-45,40,-2,25,-113,-3,-5,14,4
1490653989355,52,15,-64,-52,51,-38,82,68,0,-39,82,127,71,80,-48,-37
1490653989404,-61,-82,-86,-7,120,-33,35,15,-56,65,127,-84,-24,50,-34,-18
1490653989452,-35,78,37,104,-81,52,26,12,-109,-28,-123,-128,24,-128,-108,0
1490653989456,42,-64,-38,95,47,-21,7,-1,-9,37,56,-59,-96,13,11,-25
1490653989501,16,0,-34,87,-70,98,39,7,39,-71,-14,23,-103,-73,-50,2
1490653989550,-40,28,22,43,36,-7,-18,25,-14,42,71,-32,82,-26,26,61
1490653989599,9,66,60,-65,39,7,-9,-60,6,-8,-21,104,12,-1,-4,39
1490653989647,4,-54,72,-11,48,57,-22,-34,11,-24,34,80,35,-30,-1,-34
1490653989697,5,-73,42,-4,-18,-33,-29,-40,1,63,65,-49,-17,85,75,-28
1490653989700,0,-45,-94,43,-80,-85,30,4,1,22,-53,-113,3,35,13,93
1490653989745,35,41,6,86,12,36,-7,-42,-11,8,52,111,36,29,9,7
1490653989794,-27,-117,-119,-72,-44,-84,15,-3,28,60,3,26,-22,-6,6,-8
1490653989847,-12,13,36,25,62,42,28,-15,68,65,-26,-104,-7,0,34,13
1490653989892,51,-74,-128,124,-94,29,-40,29,18,-42,8,-65,-85,-89,-45,-4
1490653989939,-104,-103,13,-64,18,-31,-37,-16,-115,85,107,-12,81,126,-6,22
1490653989942,1,23,58,-114,69,68,26,25,73,-1,-39,-38,95,99,116,105
1490653989989,-86,-58,-23,44,-53,-77,-93,-37,-76,1,50,9,104,51,64,-4
1490653990037,-4,-60,-52,64,-109,-50,-34,-65,-51,-22,-89,-2,-37,24,24,15
1490653990086,17,101,127,-29,127,-23,-32,1,-13,-55,-87,112,62,-115,-4,-60
1490653990134,-19,-45,-22,-128,107,117,-62,-98,-66,53,47,-58,-81,-32,-52,14
1490653990138,45,34,12,-97,-103,-67,-41,-94,18,-22,10,-34,127,79,105,61
1490653990183,-8,-1,1,-111,-128,-31,-48,-25,19,-65,-67,26,127,-111,-64,-128
1490653990232,-47,-11,50,31,-35,-85,-35,-70,26,6,5,47,61,60,16,104
1490653990281,-16,-10,10,-90,48,-36,-86,-88,-13,-29,-56,-108,68,-19,-20,66
1490653990330,59,63,-9,19,105,12,91,127,-42,-53,54,112,101,-123,-73,-64
1490653990378,69,63,127,-45,-128,24,-40,-33,-20,-33,-68,112,102,-20,41,-83
1490653990379,27,-18,86,-9,-84,-104,-85,41,3,17,-5,-26,68,42,7,-6
1490653990427,-25,33,-103,-51,-58,-11,-106,82,7,-27,108,47,93,-41,35,-48
1490653990476,21,-1,70,-57,104,127,100,65,-15,0,-107,-18,-128,-64,-42,-46
1490653990525,-44,-79,-106,-42,17,-96,-44,-119,26,7,31,61,5,36,-35,94
1490653990573,-24,10,108,36,5,-17,34,-121,11,-12,5,-128,-128,-4,-72,-59
1490653990622,-17,-33,-96,30,-50,-42,-69,42,-37,16,9,-74,97,73,-36,-102
1490653990624,12,35,83,29,-64,-91,-34,40,24,51,-6,-42,54,67,44,-68
1490653990671,-6,-47,24,-1,127,127,-19,-101,-41,-105,-114,76,-13,-45,66,105
1490653990721,-24,-3,66,23,72,-2,-94,-99,-1,-51,-118,-15,-67,38,73,63
1490653990769,8,6,105,-89,-10,-17,-25,-82,-25,-25,-128,90,95,39,-29,-36
1490653990817,15,-58,-89,-128,25,7,23,4,27,69,36,127,83,-63,-74,69
1490653990820,-32,1,20,-49,-81,-8,-41,78,2,76,95,-54,-97,-23,35,-5
1490653990866,27,29,-128,78,-99,100,96,-128,48,-21,127,47,83,60,95,110
1490653990915,44,28,79,-67,-128,39,-128,-54,-43,-106,-119,-99,-75,-97,-70,-117
1490653990964,35,62,117,51,-71,38,38,111,-2,11,52,127,-38,81,5,-128
1490653991013,-1,-12,-98,-34,82,40,21,65,-6,66,24,90,-128,-87,-66,-58
1490653991061,2,51,127,127,-128,-51,4,104,2,30,66,-98,127,26,-35,91
1490653991064,-118,-52,-37,66,-74,-117,-107,-67,4,-3,-90,-67,57,116,104,58
1490653991110,54,-110,33,41,50,-29,-5,7,25,74,-124,-61,-125,19,-83,-37
1490653991159,-31,-31,23,-45,-23,-63,-24,-123,-21,10,-86,85,61,8,30,95
1490653991208,-10,16,-9,-77,73,-4,32,-50,5,17,-65,-128,-61,85,36,95
1490653991257,-68,-72,-128,-66,61,-108,-35,-86,15,49,127,-8,-128,67,-40,-14
1490653991304,-23,-62,-126,22,33,-75,-58,-98,43,112,127,62,60,127,76,42
1490653991305,-4,75,95,46,28,91,82,27,-17,-54,-103,-30,35,-54,-24,-80
1490653991353,-15,-16,-39,-23,-8,-3,-7,33,-103,-99,-87,-118,39,-124,-43,-40
1490653991402,15,29,-45,-99,74,79,-7,44,-68,-80,-128,-64,127,-123,-26,-21
1490653991451,7,87,98,-128,-95,73,59,-23,33,-45,-100,45,-128,-77,-60,-1
1490653991499,35,79,-44,-11,55,127,45,65,17,-18,55,-60,26,-8,-48,-80
1490653991501,-32,2,56,-35,75,-44,33,-15,-100,51,-97,-90,-33,10,46,69
1490653991548,-32,-98,-1,103,-32,-41,-57,-87,-116,48,3,-128,-46,-5,2,6
1490653991598,71,23,68,80,66,74,-37,7,19,27,53,86,26,54,42,52
1490653991646,8,20,-34,88,25,-13,15,5,-10,-66,-89,-22,-60,-62,-120,-115
1490653991695,24,39,46,-108,-79,-2,14,-40,45,105,-68,-107,42,-4,-37,46
1490653991743,17,-83,-75,-59,-3,-22,66,-4,-13,-92,8,37,-93,-24,12,32
1490653991746,-27,-105,19,50,-128,-128,-86,21,27,3,5,-81,75,78,53,-115
1490653991793,12,-66,-128,-11,-79,-13,-11,1,-2,116,87,8,97,-34,-36,-17
1490653991842,52,64,105,43,127,52,118,127,-29,-95,-128,124,-119,-112,-50,17
1490653991890,110,25,126,88,77,68,-28,35,71,-35,-128,-33,-19,28,24,-103
1490653991942,-54,27,56,72,51,24,33,43,57,-16,77,-65,71,81,77,127
1490653991987,-128,66,127,31,-53,-37,18,12,-103,-18,-109,-91,-30,-36,-42,-128
1490653991988,58,-78,-128,127,-128,-110,14,-24,-35,66,88,-10,111,19,-36,3
1490653992036,-83,-122,-121,127,-108,-106,-88,-43,-58,-3,29,-51,26,99,119,-18
1490653992085,20,-84,-87,20,-121,-34,-44,-12,-3,17,-3,7,-46,-42,-29,-35
1490653992134,-42,63,127,-6,-81,35,-100,-65,16,-76,-30,-66,-75,-70,-57,-73
1490653992182,-100,-83,3,127,19,8,53,127,-111,-1,67,-40,-39,-53,-46,-91
1490653992184,2,54,-11,19,-45,23,-86,2,-99,-111,-128,-54,127,-97,-51,-15
1490653992231,1,-53,-69,-30,102,-70,0,-27,-23,-35,-93,127,30,-92,58,-84
1490653992280,6,-90,-63,-61,9,-51,19,59,14,61,69,104,-61,124,92,97
1490653992329,-30,-35,-8,53,53,40,1,-77,30,-9,-123,-16,-84,21,-47,127
1490653992377,-28,50,-66,-103,-97,-106,-61,-7,31,-17,-95,38,109,72,58,10
1490653992426,74,36,-47,-9,-92,-123,-32,16,1,37,-100,38,62,100,59,-34
1490653992428,19,-6,57,26,127,26,102,63,11,-20,-52,-128,99,77,60,-102
1490653992475,-3,18,59,111,-44,-31,6,112,3,-2,40,61,-35,-90,-6,-23
1490653992524,-26,-32,-97,-92,-96,-48,-45,-51,-1,8,13,-96,-10,11,-42,-48
1490653992573,-17,-46,49,-106,116,9,102,71,-68,26,-45,-96,-78,-46,-102,-128
1490653992620,1,-22,-31,-28,-73,19,25,-110,-17,22,103,14,27,33,13,127
1490653992623,-6,-63,16,62,-128,-62,-128,-11,14,37,-47,-77,8,80,63,59
1490653992671,30,-5,-90,50,-71,4,92,53,-63,-61,-128,114,75,-38,-100,-128
1490653992723,-8,49,106,127,-20,-7,-48,-128,105,69,47,-118,65,127,127,127
1490653992767,35,-29,91,93,9,32,68,60,-2,37,57,23,-3,13,-88,59
1490653992816,10,84,-18,-99,-57,-31,-58,-128,30,-30,17,95,-79,62,-58,105
1490653992865,21,28,127,-95,-7,94,101,80,-76,3,-113,-128,-111,8,-102,-119
1490653992914,10,-83,-83,119,43,56,59,26,39,-55,50,16,42,93,74,37
1490653992915,21,-70,108,75,-30,-64,-28,64,36,22,-128,-13,48,117,71,29
1490653992963,17,73,-9,-128,-128,49,-16,-72,46,2,80,21,63,-58,-17,127
1490653993013,67,80,60,-128,-28,-66,-29,74,-38,-63,-127,103,-36,-39,125,-56
1490653993061,13,112,127,17,110,41,-56,-83,27,35,-69,-92,-128,44,-17,-34
1490653993108,-66,35,-62,106,34,-10,6,-71,23,22,114,-119,-3,83,57,46
1490653993111,-21,45,-116,-43,-30,53,-18,-54,72,97,54,62,-98,-8,71,82
1490653993158,-47,-102,62,-83,-128,-128,-128,-128,-12,-24,-128,-29,127,-1,28,53
1490653993206,47,52,44,112,86,69,121,85,-10,-57,-46,86,-115,-83,-29,64
1490653993255,-34,40,4,-61,56,33,-56,-121,-9,33,79,-98,94,-35,-45,-5
1490653993303,-13,-53,-101,-109,14,-35,-115,-48,-19,-16,31,-101,4,25,16,-21
1490653993354,-12,-31,-50,52,4,-123,-32,-30,-29,-77,-122,32,-5,-73,-54,-9
1490653993355,88,71,85,-24,-67,127,118,121,70,42,46,123,-101,36,43,-45
1490653993402,-43,-57,-68,98,-128,-128,-128,-128,14,59,39,73,-53,11,22,-4
1490653993450,-41,52,118,-20,97,90,63,-42,-56,-7,-89,-115,-13,-31,-23,49
1490653993499,-36,-80,-9,-128,-32,-33,-8,0,-17,109,90,36,127,37,30,3
1490653993547,69,34,-107,-22,-15,-8,-18,58,7,12,-34,47,16,-8,-31,-43
1490653993550,-29,26,50,-27,-22,-41,11,64,31,-95,-20,38,54,9,13,101
1490653993596,-31,19,-7,45,62,55,9,9,-21,43,50,-20,-60,-39,-9,-17
1490653993645,71,40,127,28,85,86,68,51,-29,25,-40,-125,-69,-107,-53,-61
1490653993693,16,60,64,-19,30,43,54,-71,-24,-30,-87,109,-60,-59,-62,83
1490653993742,40,54,-29,-80,0,-2,27,38,-17,10,31,37,-19,43,12,-20
1490653993790,-1,18,23,-63,49,53,-30,64,10,50,-43,14,60,127,95,13
1490653993791,-26,-29,-31,-108,-31,-13,-85,-7,27,51,36,-7,90,42,77,21
1490653993839,31,19,-86,-40,-41,34,51,53,-76,-53,-52,78,-41,-33,-5,-57
1490653993888,42,-72,-87,-20,-106,36,59,83,-15,-7,83,-15,21,4,-8,-33
1490653993937,-128,-52,10,68,-29,-35,-85,-128,15,127,80,-58,50,76,36,69
1490653993985,-34,-22,1,37,-7,-71,-99,-101,-127,49,7,-90,67,77,-55,-97
1490653993987,60,-58,-31,-48,-36,-3,8,-24,-70,-17,12,79,85,-9,-31,21
1490653994035,8,-25,87,-7,-99,43,78,55,127,127,119,67,85,60,89,94
1490653994084,-25,79,56,127,-34,99,-71,-66,16,20,75,-128,-11,42,75,9
1490653994181,-33,-32,-26,-121,66,20,18,-6,-46,118,89,-89,-125,56,-21,-4
1490653994182,-17,122,-16,-7,94,-123,-63,-5,-100,-7,-120,-11,-29,97,63,-9
1490653994229,51,-33,3,71,-102,-62,12,80,-5,-101,-91,-67,-128,-102,-74,86
1490653994231,-54,24,42,-18,1,118,-112,81,-73,-10,-5,-21,76,32,-58,-73
1490653994279,-27,-56,-128,31,-128,-39,-81,-128,-26,-24,-81,-73,87,-33,43,44
1490653994327,-49,37,-16,31,-83,35,-14,-105,-17,44,-95,-46,-106,-7,32,73
1490653994376,-1,-74,-24,-89,21,41,21,119,-53,-7,117,88,-118,-67,-2,-81
1490653994424,51,-57,82,-63,63,-62,52,8,13,47,-22,-82,47,28,4,-49
1490653994425,27,-29,-101,-28,-47,17,54,44,-29,26,94,-45,39,53,91,-33
1490653994473,-35,42,-9,-27,-51,27,15,-126,-22,12,-92,87,-22,88,-62,-45
1490653994522,14,-66,77,49,50,-76,-72,50,-22,51,-1,-91,-59,84,-73,-103
1490653994571,10,40,13,-93,100,110,46,-57,25,36,-13,-60,-56,-72,-13,-14
1490653994620,-26,46,26,-42,94,110,111,24,32,-4,81,127,-92,-80,13,85
1490653994668,25,2,-70,-86,93,63,29,68,34,-15,-120,-116,-67,-79,44,98
1490653994669,-19,4,10,-47,-53,-88,-44,-99,-27,-85,-70,-99,14,5,-42,55
1490653994717,1,-8,76,31,-117,-7,38,-84,-8,-18,3,-76,-99,115,2,-105
1490653994766,46,-6,35,-73,-89,108,94,20,-20,50,47,3,-38,-48,-77,-126
1490653994815,6,5,65,39,-51,76,-25,-24,9,11,-126,127,65,83,127,127
1490653994864,16,59,127,-107,-128,79,17,-33,1,-110,-108,107,116,-128,-111,86
1490653994912,-9,35,-64,47,-66,-31,78,-80,28,-16,114,-102,127,41,-23,62
1490653994960,-13,-3,121,41,-15,-1,72,-27,95,120,98,119,21,24,29,81
1490653995009,-5,108,48,-18,21,125,60,65,-35,-2,-43,-128,-49,-72,39,106
1490653995011,40,-53,70,-17,-20,-11,-74,86,-25,-39,-14,17,-38,-70,-65,-81
1490653995059,-38,2,102,127,127,47,-27,-116,31,-3,-22,-46,-16,83,77,127
1490653995107,-28,50,2,127,-108,-36,-31,0,66,91,127,-118,-28,126,62,-22
1490653995108,-27,4,15,19,86,-53,-72,-116,43,52,114,6,-128,65,34,-25
1490653995156,-9,13,8,-76,-4,-15,52,-42,-16,50,127,122,11,66,-55,-37
1490653995205,33,46,18,-128,-58,92,127,41,-40,-111,-43,31,-128,-22,-109,9
1490653995254,13,-105,-90,-21,88,-104,-1,-2,27,-25,5,57,-21,-116,-14,27
1490653995304,-70,-111,-71,33,-19,-90,-66,-26,14,70,60,-53,9,111,104,46
1490653995350,-110,-66,-119,-107,-75,-86,-65,-56,-101,-86,127,96,-37,22,-32,22
1490653995355,5,-43,24,77,-48,-39,-30,41,14,99,127,-35,-94,90,-20,-9
1490653995400,73,-21,11,31,-117,-6,12,-18,105,88,82,61,-19,11,-55,-27
1490653995448,127,-74,127,21,27,40,-6,26,127,-25,-31,-20,18,24,35,-10
1490653995497,-74,64,77,75,78,78,84,-19,-123,110,49,37,105,9,1,-38
1490653995546,-31,-46,31,-17,-15,-4,-12,-73,-62,-27,-39,-51,-37,-21,10,89
1490653995594,53,127,80,-32,-63,0,-2,94,-4,51,57,34,-43,-48,-50,-81
1490653995596,6,-56,-75,-108,-69,2,70,16,-27,-22,40,-59,2,62,-1,-27
1490653995644,79,98,-102,67,103,23,-5,50,-1,-113,56,96,-95,-118,-71,-42
1490653995692,-56,-69,11,20,-11,100,-44,-28,16,50,-31,18,-68,-20,32,35
1490653995743,-7,86,103,-87,116,41,-28,49,-26,-73,-67,71,-59,-88,43,-61
1490653995789,-14,3,-51,-10,-58,-53,17,16,113,37,111,-11,-17,35,-40,88
1490653995790,-21,-70,-117,-69,-100,-20,-65,-92,-4,97,102,-36,47,-89,-53,-19
1490653995838,23,54,44,-45,103,51,-86,-61,77,-23,91,114,-10,-23,-25,88
1490653995887,-59,-27,49,31,3,-121,-94,23,-106,-128,-105,-68,-61,-7,114,-35
1490653995936,-28,49,34,127,-6,40,-96,-60,-99,-66,20,-79,86,100,79,12
1490653995985,13,-126,-61,49,-105,-68,7,63,8,20,5,-14,126,14,-25,-38
1490653996033,98,-91,-98,-67,-49,-44,-69,71,126,36,73,127,-50,-43,17,25
1490653996034,-7,84,-93,-128,48,32,2,-128,14,63,106,127,99,78,-20,-78
1490653996083,-79,61,113,22,63,127,7,-69,71,-17,83,-86,-20,50,74,71
1490653996131,-112,29,88,73,23,-101,-67,-58,6,-41,-102,-12,109,91,45,-67
1490653996180,-54,6,71,92,45,73,-30,-44,-90,-15,-99,-124,0,-30,-37,74
1490653996230,-59,14,-53,-83,-71,-40,-6,-26,-9,53,43,-19,70,37,-42,-128
1490653996277,22,12,-99,-128,30,43,55,72,33,70,124,127,20,49,101,52
1490653996279,47,23,32,-55,-93,3,-40,-105,17,-1,-2,-73,26,35,89,78
1490653996326,-110,-59,-113,-39,106,-107,-127,-78,-22,-6,80,-34,68,70,62,7
1490653996375,12,-45,58,100,127,18,-107,8,4,-33,-59,87,50,-13,75,-21
1490653996423,79,11,78,85,-40,46,72,85,12,22,36,71,54,-83,14,-20
1490653996471,-10,-46,-39,-100,96,-18,-14,112,9,80,22,-96,-83,74,68,79
1490653996473,-1,-21,34,127,46,-44,-29,53,-17,-53,-103,-125,-60,53,32,-8
1490653996521,34,18,-41,73,-128,100,92,28,45,-28,9,-47,-99,-32,-24,19
1490653996570,0,-19,2,-24,-36,-5,-12,7,24,-71,-77,122,-40,-104,-54,26
1490653996619,9,49,105,57,-128,-23,-128,-86,38,22,39,-128,93,0,18,-46
1490653996667,33,-32,15,-128,-128,44,32,127,53,18,-107,127,127,-56,-2,-17
1490653996715,-56,-56,-84,-84,127,-46,-43,-58,-49,-83,-81,-14,-81,25,53,103
1490653996718,9,81,92,68,-51,-2,-35,38,-46,39,90,-103,-79,-20,-72,-74
1490653996765,-2,-10,-34,62,74,31,85,107,24,-82,-35,-53,-47,26,-1,-59
1490653996814,-64,29,-12,62,-128,37,52,27,59,43,-1,9,127,37,20,107
1490653996863,91,60,127,-55,-116,110,-2,75,-50,-14,-71,8,88,-47,39,-44
1490653996911,-34,-57,5,-122,-22,-48,57,10,30,-92,-85,22,-5,-108,-46,71
1490653996959,-47,-3,72,-17,25,-53,-128,-112,6,5,117,19,-128,10,85,74
1490653996964,-44,15,-56,51,22,-128,-128,-125,54,-11,32,63,66,68,85,87
1490653997009,20,53,127,77,-77,30,-76,-95,-19,-47,47,-88,-95,-5,-57,-98
1490653997057,-27,49,-117,-72,-31,-47,-51,41,19,-88,-128,82,-85,4,-35,91
1490653997106,-3,-43,-52,84,104,-92,-18,-128,-23,-48,13,-112,97,32,-45,-96
1490653997155,19,25,-88,127,-26,-1,26,21,-22,-73,54,-73,-115,-39,-1,22
1490653997157,-26,-84,-76,-19,127,-10,-55,-87,31,46,-86,-69,-32,44,95,-60
1490653997204,35,44,96,37,-52,19,-40,127,-56,-118,-104,28,127,-56,-7,63
1490653997252,28,-17,127,-21,29,52,127,-14,-17,-46,-67,-30,52,-17,-56,18
1490653997301,24,-3,16,-107,81,-23,55,-19,-18,127,121,64,-105,81,-2,-76
1490653997350,22,-16,-47,96,43,-105,-68,-15,14,46,22,-114,96,29,33,-8
1490653997398,-36,12,-50,-119,-6,21,-56,-55,-5,-65,28,117,38,1,42,10
1490653997399,-81,-97,-109,19,-71,11,-4,-31,-117,42,-71,-128,29,-43,-66,-69
1490653997448,127,10,89,6,16,64,61,28,125,-46,62,1,-67,-49,3,-35
1490653997497,28,-26,-31,10,-11,-3,-59,-78,103,-27,25,22,36,30,92,47
1490653997545,-58,60,-45,90,0,-43,13,-26,-110,38,-53,95,39,1,-36,-11
1490653997593,2,-10,-69,24,-39,-31,-4,-110,-119,1,72,-10,41,30,39,37
1490653997594,18,-120,-23,-46,48,49,20,63,51,23,-53,96,-37,-83,-36,-25
1490653997642,33,105,-49,-107,-25,51,-58,-75,30,-117,21,46,-92,-99,-106,-128
1490653997691,4,-52,51,-33,-33,-5,-20,-45,42,98,98,-107,85,51,76,68
1490653997740,-41,14,-75,11,-17,-58,-27,-41,-8,49,16,87,-29,-71,-102,-50
1490653997789,-5,-14,122,23,85,32,-42,-41,25,-5,-113,105,36,51,41,27
1490653997837,3,-3,-85,32,4,-31,-6,111,-25,-41,-19,-97,-37,-66,-19,-83
1490653997838,28,-59,-41,-77,-41,-3,40,6,-6,105,86,87,50,74,-32,37
1490653997886,-34,14,1,70,106,-2,-109,4,-33,8,-106,-108,-89,84,-3,11
1490653997935,56,14,-14,-39,50,45,7,-48,9,127,127,59,127,124,9,10
1490653997984,-100,-50,45,103,-128,-115,-85,-42,-128,-19,95,-128,82,81,-41,-38
1490653998032,14,-86,-78,-20,-50,-76,-47,-80,-13,61,62,15,43,51,-4,69
1490653998081,117,-11,-107,-109,-99,-56,50,2,117,27,3,-28,84,32,107,53
1490653998084,115,113,113,119,30,68,17,-85,122,51,-15,4,-71,96,6,102
1490653998131,-106,96,16,56,20,109,13,-43,-83,-34,112,-95,-128,14,97,-33
1490653998179,-69,7,1,30,68,23,-8,-38,-54,29,64,125,-61,1,40,-128
1490653998227,-14,-48,-99,-46,-73,16,44,87,43,9,-30,-27,-39,-46,6,-90
1490653998275,-17,101,127,-27,-85,111,70,-119,1,-65,72,6,83,-125,-108,-74
1490653998277,71,44,-66,30,-15,80,74,49,46,58,29,-54,87,-11,8,87
1490653998325,-27,-36,-64,102,-52,-97,-97,46,-1,-78,-105,-72,6,43,77,95
1490653998374,-14,31,80,8,-51,-5,-36,-128,-51,42,40,-28,-128,3,-17,-102
1490653998424,33,21,-27,-80,-43,119,91,-109,8,-18,-63,83,-103,-104,-128,54
1490653998473,23,71,21,-128,20,51,54,82,-15,17,31,-28,-43,47,47,-40
1490653998519,5,-11,-128,3,68,-102,-109,6,11,-3,45,-30,-65,59,83,115
1490653998521,-3,38,59,120,72,5,-37,-128,-13,5,-31,-34,96,38,-22,-128
1490653998569,44,31,117,-31,-10,-2,37,-46,7,52,-69,68,-93,-29,-128,21
1490653998617,22,-21,-90,-73,-77,49,-43,-40,-28,9,-10,17,-128,-70,-46,-84
1490653998666,9,23,-60,-63,-94,40,47,113,-48,-14,39,-63,-9,-23,-89,-66
1490653998715,-31,-99,59,0,127,127,127,-41,22,21,-112,-27,-128,-40,-61,127
1490653998764,-26,-12,107,-37,-11,-40,-52,-36,6,-87,-105,78,127,127,109,36
1490653998766,-66,-37,-75,127,-128,-113,-86,39,21,17,7,-128,104,92,-7,23
1490653998812,21,-29,-96,45,97,-5,21,-56,-20,47,102,-11,-73,-102,-28,97
1490653998862,41,-64,68,56,5,115,127,99,110,127,122,-128,-95,99,85,37
1490653998910,6,102,123,-110,82,90,108,-107,0,69,127,127,39,43,82,65
1490653998958,-37,58,-20,31,56,-70,-21,8,3,-128,73,124,119,-33,-24,-50
1490653998960,-54,-54,-100,-128,-42,-34,-128,-128,0,33,52,33,-19,11,57,62
1490653999007,4,6,125,127,-72,92,106,3,18,-26,-88,-64,-99,-19,6,58
1490653999056,14,-23,-56,32,13,65,52,78,55,127,31,107,-94,111,40,-25
1490653999105,15,-83,-21,24,-84,-92,59,116,-8,-114,-128,-69,-78,-49,-36,-76
1490653999154,24,66,76,-128,-74,84,-58,-42,-10,63,110,7,38,37,37,-25
1490653999202,-2,19,-40,-91,43,-37,-62,-70,30,37,101,14,19,16,12,42
1490653999204,5,35,-40,-32,19,44,25,54,31,20,-11,-75,60,64,39,23
1490653999299,9,-30,29,-53,19,-35,-40,-16,-24,-12,-54,-9,34,-32,-28,3
1490653999300,-103,-108,-76,-84,-77,-113,-71,-74,-79,43,51,1,92,-19,-15,-7
1490653999348,67,-31,-91,-96,-114,-103,-8,-31,73,5,75,91,-110,56,-25,-31
1490653999397,127,-82,-30,-83,-97,-84,-22,-15,112,80,79,33,43,86,47,41
1490653999445,-114,-7,79,98,28,-65,-101,6,-86,-98,-60,-79,61,-3,-47,-16
1490653999447,-48,24,65,106,57,72,8,-18,9,-28,-14,-71,30,-19,17,-21
1490653999495,-72,-88,35,-27,-75,-32,-62,-45,-82,63,25,83,53,93,25,12
1490653999543,52,21,-98,-1,40,72,84,109,67,-74,-71,29,-33,-46,-33,41
1490653999592,76,-30,28,-128,-46,-11,-58,61,33,33,-15,-116,-80,47,26,37
1490653999640,-47,10,97,-46,-50,22,19,42,26,-21,-73,9,2,-65,-38,52
1490653999642,-1,8,-6,110,-39,-21,-76,-28,3,-7,70,68,8,29,15,55
1490653999690,-13,19,53,99,50,104,73,24,-41,-70,-71,-70,-10,-8,-11,-19
1490653999739,-2,-15,14,-1,25,25,47,-34,-4,50,23,1,127,27,20,-75
1490653999788,15,93,127,-19,-12,6,0,45,-9,-49,70,52,97,97,-5,22
1490653999836,-20,-16,-7,-74,59,-29,-2,-49,-33,11,-128,63,-82,-78,48,-68
1490653999884,9,31,-47,-61,104,55,36,11,-5,25,92,14,114,42,-7,-26
1490653999886,-7,-55,13,-23,-23,15,-42,41,-85,-18,-84,-128,-91,-68,-91,-128
1490653999934,-128,-95,-92,121,-55,-91,59,61,-57,-56,83,-2,-105,18,-77,-107
1490653999982,46,-68,-97,127,-10,-93,-73,-15,-118,-4,18,-2,55,76,1,-85
1490654000031,-2,44,47,19,42,73,92,-1,-44,61,-126,-99,-53,84,9,11
1490654000079,-72,-106,-80,96,-42,63,70,-110,8,17,59,11,101,-29,3,66
1490654000127,127,-37,30,-18,-74,47,7,-37,127,-72,-106,-85,-128,-38,-52,22
1490654000129,-22,14,-100,107,-81,-128,-83,-29,-54,15,-53,-128,72,95,53,42
1490654000177,32,55,78,-14,-56,76,61,-26,-99,50,86,109,3,-27,-85,-76
1490654000226,13,90,-36,-7,127,-43,49,-7,-10,-50,-58,68,15,127,-13,-20
1490654000275,-36,25,127,-128,-95,-7,-77,122,-124,-66,-127,72,127,-117,-13,-106
1490654000323,-19,-43,-101,127,36,-8,101,-27,-9,-26,-57,-74,-86,0,-75,-128
1490654000325,-30,-36,-128,65,109,-112,-107,-22,57,67,-21,-110,-98,80,31,30
1490654000372,3,46,55,90,85,-38,-37,-128,5,4,49,-25,21,69,78,-36
1490654000421,20,42,95,52,-128,-21,-90,127,-42,-11,-75,127,127,-81,-110,-122
1490654000470,-12,-26,47,20,100,87,-54,-85,-14,-56,-50,-25,14,-60,54,-20
1490654000519,-33,-15,-62,60,54,-68,-128,35,66,44,17,81,-72,10,127,125
1490654000567,-18,-68,-77,-18,-75,23,58,-88,-25,-39,-55,12,47,-19,2,-43
1490654000569,-54,-29,-78,-75,-59,-101,-52,-123,37,56,-30,-128,-128,15,38,87
1490654000616,-9,35,113,63,122,111,127,40,-6,-71,-77,-57,-41,6,-95,-128
1490654000665,-28,-10,-79,-70,-101,-38,-99,22,32,104,72,-90,48,123,14,-76
1490654000714,21,-23,14,-66,73,84,127,65,-9,7,59,-52,-8,-100,-128,-106
1490654000762,-14,-27,107,127,-122,-52,-44,-35,-30,-16,-128,50,35,-13,86,75
1490654000763,-3,-30,102,117,-117,-100,-92,-85,-3,56,-114,-99,-96,63,88,-55
1490654000811,16,-25,-24,-120,-128,-89,25,62,12,-42,94,98,-82,0,-40,91
1490654000860,-44,97,-121,-81,110,51,-86,-128,42,-71,-5,9,-25,6,60,127
1490654000910,52,92,127,54,16,18,16,103,-25,31,-59,-128,47,-66,18,6
1490654000957,-34,24,37,-128,-128,-59,-60,-111,48,32,-75,-64,-103,-120,-128,24
1490654001005,28,-59,126,102,127,127,117,93,6,40,-128,8,-127,11,-28,71
1490654001007,22,-15,28,29,-128,-74,-64,-43,38,54,78,-2,67,33,109,99
1490654001055,43,53,-60,-67,-16,3,43,110,-19,-60,75,81,-128,-128,-46,-111
1490654001103,-56,64,70,-128,-96,-49,-57,-76,-13,21,61,111,127,77,56,75
1490654001152,-11,-3,-33,-128,127,-44,31,-8,15,55,20,-17,-3,17,-29,-25
1490654001201,13,-82,116,-128,-68,26,78,-66,-16,-40,-105,127,-62,-49,-76,66
1490654001250,-13,14,-34,88,-48,-10,-47,54,26,85,50,-128,-128,123,46,2
1490654001252,0,17,-97,94,94,-22,-15,-7,25,108,99,-123,42,86,2,-16
1490654001300,-46,-30,-63,-20,122,-25,-4,-48,-11,-20,74,-92,-128,72,21,27
1490654001348,-11,29,13,45,127,-12,-18,-9,6,110,44,-27,127,8,-13,-10
1490654001397,112,-19,18,5,-128,13,64,55,108,3,-29,95,-122,-52,72,18
1490654001444,121,81,16,-127,66,63,24,6,15,42,48,-19,77,-42,-91,-45
1490654001446,-22,22,117,-62,111,96,41,-5,0,51,66,68,127,127,87,70
1490654001493,-41,-37,-31,74,-95,-10,40,15,-37,11,12,-54,52,32,-6,-73
1490654001543,86,70,58,-33,-1,74,14,19,62,45,-8,22,-13,-16,23,19
1490654001591,25,-105,-9,55,-29,28,-67,-10,9,33,106,1,56,76,78,97
1490654001642,12,89,19,52,87,-14,-1,-36,-2,40,25,60,-77,-83,-11,42
