1490821374413,-83,-104,-17,70,-5,70,65,-51,-29,-111,-30,-62,-98,-100,-98,-5
1490821374461,117,69,1,64,13,-108,-12,35,-56,51,10,-33,101,-11,85,59
1490821374462,-86,0,-27,51,28,73,93,77,127,16,-55,-127,-93,-32,78,-14
1490821374510,-128,4,-22,8,-105,-83,87,-6,52,5,13,-53,-71,115,-96,-62
1490821374559,-19,0,-48,-99,-43,-40,88,43,30,-1,31,-9,114,50,30,-65
1490821374608,-63,1,37,25,63,63,-42,23,38,40,-27,110,49,53,78,121
1490821374657,127,2,48,-10,-89,-48,-78,-38,-128,42,8,45,24,44,-79,33
1490821374705,-9,53,21,-38,109,-99,-6,-24,-8,8,-29,-14,-128,-75,116,62
1490821374706,93,-16,-3,-96,110,84,20,-22,62,3,11,95,33,-18,111,91
1490821374754,86,16,45,11,18,94,-4,-14,-122,-87,-34,-102,-90,-105,-71,-56
1490821374803,19,33,50,110,31,100,89,126,-5,28,2,69,-32,30,113,-3
1490821374852,-29,-16,-30,14,-103,71,70,-60,-29,101,-6,-94,-71,-50,-96,-11
1490821374900,-19,-90,40,91,76,-49,-32,-50,31,-29,9,-15,55,44,59,94
1490821374902,-19,-16,0,-28,42,56,-90,22,-26,-69,-15,65,127,-82,-34,-128
1490821374949,-21,-3,-104,-120,-57,-39,-36,-46,7,-102,-42,-76,-82,-128,-123,-30
1490821374998,-12,113,7,-25,-28,40,62,9,8,108,9,36,-22,-10,26,22
1490821375047,-20,-113,-29,-79,4,10,-65,-19,-8,-128,-55,82,-48,-13,49,-6
1490821375095,11,-37,-14,71,31,-114,29,4,-3,-51,18,51,44,-4,12,5
1490821375143,-21,98,-54,-106,-128,-97,3,-30,-12,49,-17,32,95,-22,-15,-2
1490821375145,54,-42,-16,-28,-30,79,29,30,-44,-111,-71,-88,-99,-22,-5,-2
1490821375193,-14,120,16,-119,-74,-2,-17,-7,-16,57,30,18,34,4,-14,-19
1490821375242,-22,-100,54,30,70,58,41,12,20,-61,38,32,40,22,12,15
1490821375290,-7,55,-26,-36,25,12,3,-9,-21,20,15,0,-6,-18,-8,-5
1490821375338,-42,-39,-46,-11,27,-12,-23,-22,7,-51,-6,-18,7,28,-16,-4
1490821375339,39,-87,53,19,19,29,18,6,9,-110,-35,-94,-10,-37,-9,5
1490821375388,-56,-26,70,7,16,-8,24,-6,35,-58,-55,63,26,-41,5,15
1490821375436,-95,72,1,47,-12,16,-7,-13,-9,55,31,18,-8,14,5,16
1490821375485,-90,10,-8,-50,-4,-32,9,-6,5,6,16,-25,14,-36,22,8
1490821375534,27,7,1,-40,-9,-16,-8,-18,-110,-10,-6,71,27,-18,21,-7
1490821375582,-94,7,-46,-12,24,-7,17,-12,13,33,16,-98,-32,-27,-16,-6
1490821375583,87,-6,38,4,5,27,4,8,33,13,3,18,23,49,18,29
1490821375632,-8,-11,-12,-10,-18,5,-12,-12,27,11,61,5,-21,4,-5,-7
1490821375680,37,-1,64,39,-4,-2,-1,-4,11,-8,-63,-33,3,23,5,-5
1490821375729,-25,0,-33,-32,1,7,-11,13,19,-6,12,21,9,1,5,4
1490821375778,-7,-11,38,20,-4,7,11,32,-3,4,-21,-13,1,9,1,-8
1490821375826,18,1,26,-8,5,0,0,3,95,-1,18,-7,-10,0,-10,0
1490821375827,91,-9,-54,-9,-15,7,-3,27,11,2,-14,-48,1,5,5,-9
1490821375875,-125,1,11,6,-2,10,-3,-13,-52,6,-21,9,-7,-7,-1,8
1490821375924,-30,5,-7,6,3,78,-2,-8,-49,-10,-4,10,2,24,-11,-12
1490821375973,-64,1,9,12,4,-17,11,-2,-14,1,-26,-7,11,-16,-30,-24
1490821376021,37,69,-12,0,6,-14,-25,8,-4,72,7,-4,-3,-4,7,43
1490821376023,25,-52,-18,-34,-31,3,-14,-24,-7,-36,8,1,-10,-43,-27,-7
1490821376070,-22,-67,6,-2,-5,-15,-7,0,17,-49,12,27,36,14,-1,-2
1490821376119,43,-67,7,2,-25,-31,0,-30,-58,-91,-28,-24,-7,39,12,20
1490821376168,51,-128,-18,9,-38,3,3,3,-8,-33,40,40,55,70,3,-4
1490821376217,-84,122,-15,4,103,64,31,-2,27,-2,-13,12,22,-32,-21,17
1490821376265,39,121,-21,-17,-3,-52,-60,-11,-55,126,18,66,53,18,-2,-19
1490821376266,1,-47,-14,-74,-69,-39,12,38,-38,-40,-8,-50,96,65,52,-44
1490821376314,-30,-114,13,17,10,-31,45,-28,94,-95,-17,-83,-128,-60,65,14
1490821376363,60,36,28,74,127,15,12,15,13,-1,-5,26,56,97,25,44
1490821376460,-23,-128,25,18,-112,64,77,27,127,51,-17,-90,99,-59,-43,33
1490821376461,-79,-41,1,-3,-121,-66,-50,-1,26,20,11,-34,91,-6,-9,-4
1490821376508,-32,-5,17,-16,80,-68,46,34,-37,-92,-10,6,20,29,-7,-12
1490821376557,87,-4,-14,-29,-15,49,10,-25,-112,-4,18,80,52,8,-83,-30
1490821376558,68,-66,12,3,-88,-52,-44,28,27,32,-4,-13,8,-53,76,-4
1490821376606,29,39,39,81,43,-79,-127,-7,85,32,-2,20,1,121,-19,-1
1490821376655,-38,-2,-3,18,10,-11,-114,-78,-5,41,-24,-114,-66,61,42,-17
1490821376703,63,-12,24,70,49,-71,-44,12,-21,19,28,101,112,124,93,12
1490821376705,23,-21,-4,-13,-102,-90,-51,-50,-51,3,-16,-45,-95,-5,-17,-27
1490821376753,-20,-6,-15,-30,32,-6,86,-18,95,1,12,31,-20,94,30,29
1490821376801,-9,-2,-18,-23,-48,22,14,1,-13,0,-2,-25,-26,-112,-110,-42
1490821376850,-84,1,1,-4,-78,44,-14,-36,71,-3,-18,-49,-26,-22,-1,3
1490821376899,-36,-1,-11,15,-61,-57,22,-9,71,-1,-21,-42,-19,15,-3,36
1490821376947,-2,93,0,4,10,15,64,-25,-13,119,7,-13,8,-50,-69,20
1490821376948,-11,-97,-11,-8,90,53,-3,3,-6,-91,3,19,-29,-7,31,-5
1490821376996,-48,-61,-4,-39,-28,-55,-11,-56,-53,-37,17,0,4,44,46,29
1490821377045,20,-21,-5,13,-5,-13,-60,-23,-27,53,3,27,18,19,14,-8
1490821377094,-51,55,25,45,25,1,-37,-1,87,24,-2,-7,5,-19,-3,2
1490821377143,50,27,7,14,3,-4,8,0,-6,-50,2,-9,-18,18,38,-32
1490821377191,2,-5,8,-2,-9,4,67,30,9,-34,8,5,11,5,0,28
1490821377288,27,5,-11,-9,6,4,42,-4,9,-13,-11,-17,-13,-28,-65,14
1490821377289,67,-58,-3,20,-15,-53,-55,-18,11,-58,-19,-43,-4,29,57,17
1490821377290,-58,-31,-21,-47,-35,4,-17,-31,-27,-22,1,38,42,-3,55,-1
1490821377338,102,-39,-15,-66,10,76,72,46,-72,-21,-22,-58,-46,-60,-87,-38
1490821377386,-6,40,8,-2,-32,29,71,44,-81,-47,0,-37,-96,-42,-64,-33
1490821377387,-128,-69,-15,90,71,-128,-128,1,108,55,103,127,4,93,21,79
1490821377436,-89,81,-2,-123,-128,-91,-107,-55,19,-128,-30,-100,-36,36,39,35
1490821377484,-46,-62,-29,-1,-14,-55,-110,-60,12,39,-41,-113,45,-13,-66,-66
1490821377533,-37,2,-12,-44,-8,100,127,40,-58,-62,-22,-104,39,51,-116,12
1490821377582,110,-11,11,-55,22,-99,-53,-39,-15,114,-14,-57,-122,-49,33,17
1490821377630,-128,127,-8,65,-11,104,-11,18,10,-120,-40,-73,-119,-103,-10,21
1490821377631,-95,73,54,119,127,70,-57,6,-9,105,29,96,53,29,31,25
1490821377679,-20,10,86,105,117,62,127,68,70,55,3,-50,10,-27,61,-5
1490821377728,-68,28,21,29,92,44,105,-67,-24,20,45,79,-78,-60,-105,-48
1490821377776,-104,-3,5,-8,-85,-64,28,15,126,9,-4,36,-1,38,-11,51
1490821377825,-70,-2,-27,-108,-128,-99,-54,-9,-39,10,-91,-128,12,-128,-3,-36
1490821377878,121,0,43,127,85,127,83,67,-24,0,35,73,53,-95,-50,77
1490821377880,84,94,41,33,-75,127,116,71,60,96,36,83,107,96,48,94
1490821377923,-40,-28,-2,-54,-81,-112,-128,-128,-9,-1,17,32,-36,109,2,63
1490821377972,-30,50,13,-62,62,48,73,3,-82,-55,-5,4,15,18,-76,-55
1490821378020,81,-122,-41,-52,-79,26,71,55,-7,-40,79,23,101,-61,6,23
1490821378069,-60,-28,-19,-28,-44,-68,-96,-60,-14,57,5,51,21,18,-59,-59
1490821378071,-41,-104,10,-9,-10,34,98,38,-1,-64,-29,11,35,-9,-47,-36
1490821378118,-17,91,-27,75,127,22,3,8,35,15,41,52,-128,52,127,7
1490821378166,55,59,95,127,115,83,49,75,-11,-12,-82,-128,-116,-65,58,-18
1490821378215,-14,56,-22,-51,43,-29,-26,16,-21,13,-45,-128,-128,-128,-128,-67
1490821378265,-28,-128,-34,-78,-28,-29,-47,-22,7,24,46,67,117,90,63,8
1490821378314,9,-128,45,-32,-40,-12,42,15,10,-67,10,61,127,97,35,15
1490821378316,27,57,65,73,127,127,102,35,-2,-34,-75,-76,-44,-40,-76,-26
1490821378411,-42,-21,-44,-73,-69,-127,-71,-39,-16,22,19,-29,107,26,50,13
1490821378413,24,56,-7,6,125,10,10,7,8,-69,35,35,-120,82,-5,16
1490821378460,30,86,-26,-95,-50,-33,11,-1,10,-21,-57,-68,17,-20,0,7
1490821378508,27,-108,60,127,11,103,15,10,-15,87,-90,-128,-128,-107,-65,-28
1490821378510,-2,-1,-67,-128,-101,-56,-18,4,-11,-10,28,124,36,3,-9,-12
1490821378557,39,127,110,-20,18,7,2,9,24,36,-30,-67,-23,3,-58,-4
1490821378607,-1,75,9,45,60,52,39,26,-8,110,52,37,5,13,16,10
1490821378654,-30,-104,13,49,-13,-36,0,-9,12,-101,-11,13,47,-19,23,5
1490821378703,-64,-22,-26,-23,31,34,-25,-7,23,-86,9,-18,-21,13,-4,-2
1490821378751,46,-33,66,28,4,-77,2,-9,-3,39,13,-24,10,-98,0,-6
1490821378752,18,12,21,17,-26,-52,-15,3,14,17,7,-43,-87,-70,-19,-11
1490821378800,-20,-30,10,34,46,6,12,0,17,8,-4,-21,-96,-50,-27,-11
1490821378849,-35,-27,-46,27,21,15,-5,-14,-10,3,77,-5,2,9,2,18
1490821378898,-53,8,-39,5,0,41,2,-14,28,-4,-16,10,32,34,13,21
1490821378947,70,-21,32,70,14,1,1,7,-2,2,29,6,8,19,18,-1
1490821378995,33,8,-16,-61,-39,-8,5,13,-44,5,38,42,6,-2,-6,-9
1490821378997,-64,-48,-26,5,-4,1,-1,-3,-5,-9,-28,-12,5,-13,2,4
1490821379044,26,10,-4,34,7,7,8,-1,-13,-5,52,20,4,-3,-3,-14
1490821379093,-2,5,-37,-16,-5,-5,-5,-9,-2,5,8,4,5,-3,5,32
1490821379142,88,-5,-43,-14,-9,-15,-24,-28,84,-5,25,3,-22,-14,7,21
1490821379190,-102,-11,16,20,0,1,-8,-27,-31,-7,-1,-12,-10,-12,-5,1
1490821379192,-35,14,44,7,-6,-4,-1,6,-60,-17,-21,-1,-8,-15,-11,-1
1490821379239,-22,5,10,-5,-11,22,9,13,-6,83,7,29,54,1,-5,-27
1490821379288,11,-5,-19,-11,-31,-20,-17,-4,2,-113,-22,21,15,47,98,47
1490821379337,-5,-114,51,75,42,67,34,20,78,-29,23,46,78,33,41,33
1490821379385,-79,105,-3,-37,-30,-65,-30,0,25,47,-16,-18,28,-80,-80,-13
1490821379433,13,53,25,-8,-27,-22,-3,17,-20,-26,13,40,-43,31,17,1
1490821379435,-7,61,-6,-32,-128,33,13,-7,-51,-128,-8,-31,-101,-56,-47,-24
1490821379483,22,12,-15,60,127,77,-13,-17,-59,-12,-29,-71,-97,-24,57,15
1490821379532,39,-18,-35,33,35,-54,-128,-37,-2,-45,9,35,110,127,11,-23
1490821379580,-35,103,13,41,-53,-24,5,5,62,75,21,-10,19,-85,30,13
1490821379629,36,3,32,84,-19,-6,-74,-43,-69,-11,-37,-74,-71,-41,52,-1
1490821379677,-74,-21,15,-12,-5,38,-16,21,4,26,8,127,65,-110,13,-16
1490821379679,-80,13,2,-4,83,60,-22,-47,67,32,5,-14,-72,-22,-34,21
1490821379727,51,-52,-9,-62,-112,-17,-122,-52,-55,-30,1,10,79,111,110,47
1490821379775,68,-38,-36,-64,38,-10,92,29,-21,0,4,15,-27,127,-122,36
1490821379824,72,-28,-12,17,60,-16,-17,12,-52,-19,-23,-65,-128,-16,-29,-17
1490821379872,16,54,20,40,113,-21,-3,10,20,47,-11,86,89,24,63,-13
1490821379874,-6,2,-32,-110,-127,-76,15,24,38,14,-3,-5,33,-36,-38,-14
1490821379922,-4,2,-15,-5,-50,-97,-15,-59,89,6,24,73,61,59,26,22
1490821379970,8,2,17,67,76,9,12,-16,36,0,33,57,20,47,-17,-12
1490821380020,-116,39,-14,-41,-74,27,-47,-14,127,14,-19,11,10,-33,-57,-13
1490821380068,-13,-73,-17,-3,45,-2,-41,-41,-28,-128,-10,-3,-19,35,58,17
1490821380116,-24,-25,4,20,-6,44,-30,14,-2,18,3,-22,-31,-11,-66,-5
1490821380117,-24,-46,-8,-28,36,-38,-39,-11,40,-54,-6,4,4,35,93,16
1490821380165,28,17,-6,-9,40,37,-24,9,51,27,6,1,6,7,32,9
1490821380262,-7,57,4,-7,-9,13,56,4,-81,-15,-17,-24,10,-49,-62,-47
1490821380263,-7,9,4,17,-25,-15,0,7,42,38,9,-19,-30,-17,31,13
1490821380311,30,36,6,-20,17,-26,-36,-16,19,14,-13,-2,2,-9,38,11
1490821380359,-13,-12,-23,-56,-40,24,18,16,53,-107,-16,-62,-33,-83,-18,-10
1490821380360,-32,49,-11,-27,22,-8,-13,-6,-4,-26,1,27,-15,-19,-22,5
1490821380409,-33,-1,21,47,54,54,59,33,-3,19,-9,13,-11,-22,-13,-12
1490821380458,-122,-90,-32,-84,-79,84,13,-56,119,-44,-18,-72,-12,93,23,53
1490821380555,88,67,52,86,-26,-33,0,49,-27,-15,-41,-22,-29,-41,-32,-35
1490821380556,-44,5,-1,66,92,127,-3,11,-21,-16,37,127,118,-40,-39,33
1490821380557,105,-18,-2,12,-43,-1,-46,-21,-128,14,41,127,70,91,113,46
1490821380604,-73,-60,-37,-118,-92,-128,-53,16,127,55,10,40,5,127,-27,17
1490821380653,29,65,-20,-97,-29,-29,-19,5,39,-99,-43,-96,-103,-6,-6,-11
1490821380702,99,23,7,16,-79,102,3,0,6,36,49,-4,120,-38,118,41
1490821380751,-79,-128,17,45,99,-128,-128,37,-109,24,-19,-5,-77,127,52,-9
1490821380807,116,7,-65,-128,-128,53,-55,-6,-47,97,30,37,65,-89,-18,3
1490821380810,-96,65,-2,127,127,-22,2,-30,-22,29,-9,-128,-128,36,4,-64
1490821380848,-45,82,50,53,-51,110,79,61,-8,-2,19,127,127,127,34,-7
1490821380896,48,39,-4,-61,61,45,117,26,91,2,38,51,-1,-53,-99,-38
1490821380945,-80,-13,34,56,-128,-62,5,22,127,-11,-41,-63,-20,-29,-98,-23
1490821380993,124,-1,50,115,69,-107,-117,-58,-128,0,6,-9,-56,113,96,54
1490821380995,77,-2,-24,-43,100,-115,-128,-32,-29,-8,11,11,34,114,127,-29
1490821381043,30,63,-3,-19,34,-82,109,105,-57,30,-39,-79,-91,-128,-128,-91
1490821381094,1,44,36,6,-39,-19,3,-8,127,94,42,70,116,-8,41,43
1490821381140,-127,-39,-12,-52,-49,29,31,-120,-31,42,-52,-28,-81,42,12,24
1490821381189,-10,-85,-12,-22,-90,-68,15,-21,6,-2,14,127,104,85,-58,-8
1490821381237,-8,-4,-3,-67,103,15,3,60,-2,-49,-31,-43,47,51,-20,6
1490821381238,27,34,116,127,-87,127,127,69,0,-21,-42,-58,-127,-120,-35,26
1490821381286,-19,92,-73,-76,-91,43,-12,-10,19,5,55,-15,-122,5,103,25
1490821381335,1,-36,54,127,-98,-3,-42,5,26,30,8,-66,-76,73,76,69
1490821381384,-14,-35,10,74,104,9,43,-9,-16,-30,-72,-103,-128,-37,-29,-17
1490821381433,-5,-14,-90,-93,-128,-128,-122,-46,0,3,7,-99,-68,-60,-70,-44
1490821381481,1,-48,-8,-10,19,-10,8,5,35,-79,23,26,77,80,69,35
1490821381484,-2,109,17,13,13,13,24,5,-2,11,-37,-30,31,10,-23,2
1490821381530,-19,16,-5,-35,5,-25,-22,-25,9,-29,-13,67,70,14,21,11
1490821381579,-54,10,46,-40,-120,-32,-12,-8,-24,31,-69,-98,-60,-65,-33,-16
1490821381628,43,-24,3,-40,-69,-8,-6,12,-20,-34,0,6,127,17,11,7
1490821381676,-34,80,-34,-56,75,-6,-26,-12,19,69,-88,-117,-121,-81,-54,-21
1490821381678,-51,-13,42,31,-47,-4,-10,-25,19,-37,-34,-3,-2,-28,1,10
1490821381725,-105,-62,26,15,-71,-12,10,17,-80,-57,104,104,33,43,6,-4
1490821381774,45,-9,-42,-12,33,-10,2,-1,60,-8,27,-9,38,-17,-19,-20
1490821381823,70,25,44,22,-6,-13,-1,-5,19,-98,-50,41,20,10,19,-6
1490821381873,26,36,55,62,7,-9,-1,6,-7,20,36,-48,-34,-21,-19,-18
1490821381920,-14,-13,-18,-38,8,10,-1,-18,4,10,16,-17,-15,1,1,3
1490821381922,48,8,8,29,-5,-24,-8,9,0,11,23,-22,-6,0,1,7
1490821381969,16,1,-40,-44,-35,-12,-3,3,-15,0,-34,-36,10,3,3,5
1490821382018,-24,7,8,22,-26,-7,-19,-14,-1,0,19,-23,0,16,14,9
1490821382067,-13,-7,-26,29,6,0,-3,-6,-2,-7,-25,1,-1,0,-13,0
1490821382115,8,-10,-67,-9,21,3,-5,0,-37,1,38,25,2,2,-1,-2
1490821382164,-27,10,5,27,10,7,1,2,-4,7,-33,-52,-1,5,0,-4
1490821382166,3,-8,7,-9,9,7,12,24,9,-1,19,61,2,-10,2,-13
1490821382213,-2,-45,-9,-15,-1,-7,-7,-1,-10,-18,-24,-11,-1,-10,-1,-5
1490821382262,62,13,14,9,8,-8,-4,20,84,-8,-6,2,12,-15,-3,-2
1490821382310,-24,-4,-26,1,-11,-1,0,4,-101,-1,-20,-13,-6,4,-7,-7
1490821382359,-1,16,2,0,26,32,6,46,-38,95,8,-7,-14,-16,-6,-66
1490821382361,-33,92,-18,-5,-7,-25,-23,-30,-10,99,21,29,-16,-12,-10,-14
1490821382409,-4,-104,-4,5,-22,-27,-45,-18,0,-66,-19,-10,11,-3,2,8
1490821382458,31,-95,-9,34,64,23,17,19,-12,7,-10,-18,35,31,11,28
1490821382506,-21,93,44,70,48,18,48,3,74,47,21,-47,47,57,46,30
1490821382555,20,20,-5,-23,-16,-106,-69,-45,-56,4,-4,16,-7,7,-24,-28
1490821382603,-6,-73,-27,-79,-54,-70,-82,-44,64,78,-40,-81,-72,-19,11,-18
1490821382605,-110,-78,29,113,3,120,103,-13,88,48,27,52,109,-128,-71,-22
1490821382653,-24,-29,29,127,127,60,48,10,-43,-10,26,35,-65,71,48,5
1490821382700,67,47,-2,-43,-8,-84,-62,8,-105,-15,-36,-44,-31,-7,14,-20
1490821382749,69,41,-6,-18,-113,-120,-100,-27,-6,-5,-12,-30,-28,-7,70,35
1490821382798,36,127,7,102,104,95,68,14,24,-2,30,89,14,122,92,9
1490821382846,-56,-128,-40,-120,-90,29,-17,-71,46,-71,9,53,94,-2,19,40
1490821382847,-25,-51,17,-41,-116,88,41,-23,115,63,20,16,23,-43,-109,8
1490821382896,-24,13,-35,81,127,-47,-56,-27,24,57,7,-24,-128,76,98,52
1490821382944,10,21,17,-16,124,10,-98,-17,-37,7,-36,-59,-63,-65,12,4
1490821382993,-16,-5,7,31,29,-92,44,-75,122,-4,8,40,91,70,-22,55
1490821383041,-7,-1,9,-45,-1,71,-44,13,92,1,3,25,95,-83,55,23
1490821383042,-48,0,-18,-73,32,99,114,51,-11,-3,13,19,5,-48,27,26
1490821383091,48,96,-7,-1,-54,-36,-21,10,-65,-100,6,-24,63,48,-23,-24
1490821383139,-37,-95,14,0,-8,21,-41,29,3,-77,3,24,-15,7,43,15
1490821383188,-2,-51,-19,-33,-15,16,18,-11,-8,-118,-23,5,-46,-80,-69,-37
1490821383285,-17,29,1,32,8,34,43,-25,-15,11,1,41,61,38,29,0
1490821383286,-14,19,6,-2,13,-24,-44,0,-21,-22,2,-6,11,1,-4,-24
1490821383287,-16,93,-32,-8,-41,7,-3,-19,-5,9,5,-1,0,8,-18,9
1490821383335,-21,44,-14,-18,-32,-55,-41,-40,-41,-38,-8,1,-9,-21,-27,-9
1490821383383,18,-70,4,19,-13,-43,-12,-14,-25,-75,-8,-2,-9,3,10,-8
1490821383432,-23,-20,4,8,6,13,21,11,54,44,4,33,-1,-67,-24,-16
1490821383480,36,-44,3,17,-19,-43,-29,-14,-12,-65,-1,-23,-18,21,21,4
1490821383528,-5,-19,-27,-59,-44,-28,-49,-25,31,-3,-10,7,-14,19,68,22
1490821383530,-22,19,-2,34,-9,11,-27,-3,35,8,-10,-24,29,17,-14,3
1490821383578,66,81,31,-41,-89,-48,39,20,-99,-10,-29,-54,-33,48,9,-27
1490821383627,73,-23,-21,-59,-53,-84,-75,-2,-39,-79,-10,-72,-12,87,72,-27
1490821383677,24,18,-20,8,86,125,84,15,-64,127,5,-42,-44,-35,-57,63
1490821383724,0,123,22,-14,-103,19,55,112,68,13,21,35,-15,-42,120,64
1490821383725,-107,-8,31,91,112,-59,109,-54,105,91,-44,2,-55,49,56,24
1490821383773,71,108,8,62,-24,127,29,-25,-111,-69,-17,22,-40,-121,-82,-27
1490821383821,-67,29,11,20,-70,-92,55,-56,59,34,56,29,-14,80,-23,46
1490821383871,-33,63,-61,-128,120,76,27,73,-42,-128,9,101,38,-128,-107,-20
1490821383921,40,83,36,37,44,113,25,25,15,-69,-19,55,54,-40,-67,-28
1490821383970,1,-37,15,-13,87,19,38,-13,-35,-7,-14,95,35,84,57,-24
1490821383971,-89,44,34,72,34,60,-128,-105,54,49,-37,56,-89,-63,-15,72
1490821384017,-69,24,-47,-121,-67,37,43,-68,-57,6,61,46,127,25,-120,-49
1490821384066,67,-1,-42,3,-106,-128,25,-23,-16,-3,11,-68,70,28,89,46
1490821384114,-79,3,-31,-66,-128,-126,-16,34,-110,4,-14,-89,-17,94,124,-26
1490821384162,-48,3,6,-1,-39,-122,-75,-77,-83,-1,-64,-119,70,84,109,34
1490821384163,33,0,61,122,61,-121,-100,48,12,0,-100,-128,-104,90,-22,-106
1490821384212,-84,19,-55,-65,11,-64,-37,-61,-5,60,-13,23,-128,127,127,39
1490821384260,-3,20,15,-53,-37,-67,-128,17,-49,103,7,35,40,42,104,-18
1490821384309,4,127,-5,4,62,51,59,-32,45,86,-9,106,120,24,-125,58
1490821384358,-38,-110,-23,-79,99,37,17,-57,48,-121,28,49,40,69,11,-10
1490821384406,1,-41,-47,-79,14,-76,-95,-8,2,-23,27,20,-11,112,31,-5
1490821384408,21,24,-15,79,56,99,127,49,23,-1,-14,27,-65,29,28,-2
1490821384457,3,116,-90,-65,-117,-100,-59,-28,-25,64,-13,-128,-56,-90,-102,-43
1490821384504,9,127,-12,-5,88,-41,-11,-19,-16,3,-117,-76,-19,-23,-44,-15
1490821384553,-4,-52,-111,-90,-128,-21,-8,-17,-11,-15,99,-2,-33,-89,-64,-22
1490821384602,-13,3,-5,-84,21,-63,-25,-17,-5,-8,-93,-31,82,61,26,17
1490821384650,10,-9,-14,39,-8,-12,17,7,4,-4,4,-76,68,11,-8,-3
1490821384652,35,84,54,-50,-46,-67,-47,-21,-20,-17,9,-37,-16,-1,-12,-8
1490821384699,43,-81,22,120,56,48,35,13,2,9,84,88,-10,0,-14,0
1490821384748,-4,-40,-2,-60,-32,-3,-9,-11,13,-59,-24,-46,-32,-9,-15,1
1490821384797,-21,14,39,75,3,-38,-22,-1,-36,59,-61,-17,-27,-15,-10,-12
1490821384845,1,-106,30,71,40,30,-7,-6,3,-127,22,105,127,47,15,9
1490821384847,-68,-14,-5,3,1,32,32,5,12,-62,-11,86,29,42,-3,-3
1490821384894,-71,-108,12,117,80,56,37,14,-46,-10,25,-128,-20,-1,-25,-11
1490821384943,26,-78,-66,-90,-12,-7,6,9,-102,22,39,15,-11,-33,-23,-13
1490821384992,125,39,-51,15,-26,-41,-13,20,75,11,5,-110,-20,-24,-6,-16
1490821385041,-2,39,-26,-28,-32,-13,3,-17,-17,23,-7,16,-2,1,9,-3
1490821385089,127,9,-48,-10,-12,-21,-15,5,-100,28,49,-24,-38,-6,7,-15
1490821385091,58,-5,-13,5,66,32,15,3,-21,-35,12,65,18,9,9,-7
1490821385138,12,2,15,55,7,-14,-14,-23,0,-5,3,-7,-14,-3,-3,3
1490821385187,-28,9,-8,-67,-19,-1,-9,-12,26,-5,-24,-33,1,-2,-7,16
1490821385236,60,-20,-79,-49,13,-4,9,28,-34,-5,50,24,15,14,16,16
1490821385284,-10,-16,-59,-1,-8,3,8,2,-39,7,-67,19,-2,-10,-1,-13
1490821385333,-20,0,-17,35,-2,8,-6,-3,22,-8,31,26,2,11,-7,-7
1490821385335,20,25,24,8,-6,-8,-15,3,-8,-18,0,-21,2,-24,-18,-20
1490821385382,81,-4,31,13,6,1,-6,-10,68,-12,-44,-43,-23,6,-2,-9
1490821385430,-40,10,68,16,1,1,9,13,19,-9,-10,-22,-5,-25,3,3
1490821385479,-69,-3,-29,-19,0,22,-3,1,-101,-2,7,-6,-1,27,3,4
1490821385527,-50,1,-5,-6,2,-7,-1,-3,-88,-27,-22,7,5,-2,2,-13
1490821385529,13,39,-52,-13,-33,16,32,28,41,37,24,-24,-27,-51,-58,-36
1490821385577,-65,74,-29,6,1,3,-16,-39,32,29,-1,26,19,29,18,54
1490821385625,35,-73,16,-30,-56,-15,-13,47,-1,-85,-17,-46,-23,-2,19,-23
1490821385674,37,-128,-8,-11,-6,-7,3,7,-64,62,28,13,-16,-7,11,-10
1490821385723,14,102,-6,-17,28,-67,-36,-6,88,48,16,42,-64,68,56,34
1490821385771,30,8,10,3,21,-15,-33,-20,14,18,-2,-23,-30,17,32,32
1490821385772,107,5,0,-14,-61,-2,7,21,-71,2,19,65,50,4,-63,-23
1490821385821,-69,84,32,10,32,-21,43,-29,42,-41,6,-31,84,-25,-29,40
1490821385869,65,-28,-33,-20,-9,83,8,62,3,54,-11,-52,-41,-79,-17,-53
1490821385918,93,97,-51,-71,-56,20,21,-16,48,6,-34,24,101,18,-82,14
1490821385967,97,-90,-37,-17,-128,-42,-40,15,-86,-29,44,27,20,66,87,0
1490821386015,-35,-125,26,83,-5,25,79,52,77,-35,-28,-106,-14,-48,-32,37
1490821386016,65,-105,-21,-74,74,-36,10,37,-80,-128,-10,52,85,127,38,-19
1490821386064,-25,-115,6,-51,-72,60,3,-29,14,117,14,15,95,114,94,44
1490821386113,-36,23,-10,26,-27,-76,31,-32,17,19,6,5,50,49,-70,-56
1490821386161,105,-91,39,-64,-34,-19,100,48,1,-78,-41,-45,-128,-46,-43,28
1490821386209,-41,69,-33,-69,-92,-73,-64,-42,-56,51,-19,-49,33,-11,5,-9
1490821386211,-72,11,13,28,3,-17,-37,-19,-13,10,-3,-64,-32,71,-14,-47
1490821386259,57,9,3,-25,19,31,10,17,83,-4,16,83,-3,36,17,7
1490821386308,65,1,27,127,127,101,-20,-18,18,0,-10,-3,-119,7,9,45
1490821386357,56,2,-5,37,-15,42,127,48,-78,0,0,-79,-9,9,-128,-1
1490821386406,-37,87,17,15,43,92,-36,8,108,89,-23,-24,29,-79,72,11
1490821386454,-25,-102,23,-57,33,-5,-86,-9,50,-128,19,76,75,77,46,21
1490821386456,-36,-91,-24,-59,-26,-25,-98,-67,-2,-58,5,-1,-35,52,74,47
1490821386503,48,-12,4,-10,-51,-7,0,44,88,28,6,3,92,27,46,11
1490821386551,-39,-8,-5,21,-24,-34,-14,9,-14,-14,8,4,65,26,85,55
1490821386600,77,0,10,13,1,12,23,7,27,-21,5,7,-31,4,-26,-21
1490821386649,-79,18,-17,-17,20,-9,-39,-21,19,-18,3,-7,-19,9,23,-43
1490821386650,-56,-40,3,-17,-37,-29,-68,-39,83,-35,2,10,28,64,67,44
1490821386698,-40,-20,-5,-7,-12,-12,49,3,15,-1,16,11,50,69,24,-4
1490821386749,-55,-21,9,26,7,-62,-78,-16,1,27,10,13,1,1,47,14
1490821386796,-59,-7,-8,-4,-38,-15,9,-9,-73,-17,-5,18,2,-30,-98,-50
1490821386845,56,-13,-7,35,15,21,16,19,-39,3,-5,-5,-2,-66,-53,-23
1490821386892,-88,-11,-20,-13,-67,43,-108,-36,95,-4,-10,7,46,-38,36,24
1490821386893,6,-32,-14,-25,-17,91,11,2,-26,-8,39,84,127,10,-38,11
1490821386941,39,-23,-2,-83,93,10,-124,-43,-115,6,39,81,-15,12,-11,-33
1490821386990,-64,-29,-47,-128,-106,50,-119,-70,47,25,-8,6,82,40,39,28
1490821387039,-67,76,15,127,80,-34,91,-34,90,34,34,-128,-38,48,-115,81
1490821387088,91,-34,-22,6,48,-84,-91,-56,-128,-10,26,21,107,48,32,28
1490821387136,63,-44,-20,13,-128,-47,9,-16,67,54,8,-1,39,48,29,-23
1490821387185,16,-74,-3,-96,-67,10,-59,-13,-65,-80,-3,-13,-45,15,60,-34
1490821387187,-13,66,-38,-32,26,-34,110,43,-79,-120,-12,-111,-128,-128,-128,-125
1490821387234,32,118,59,96,-52,127,-53,30,59,69,-41,-128,-128,-105,87,14
1490821387283,-19,55,34,125,83,127,127,52,-25,38,-7,-4,-62,-42,-103,28
1490821387331,-69,23,-38,-47,-8,-78,-36,-56,127,10,40,41,-28,38,21,68
1490821387332,-118,1,13,20,-22,45,-44,-38,70,2,2,55,86,-25,-2,-65
1490821387380,-62,2,-14,-63,-71,20,-1,-6,-87,4,17,48,127,-17,-46,18
1490821387429,103,3,-15,10,39,-59,91,100,58,-1,-18,-86,-128,77,-109,40
1490821387477,39,34,22,73,-8,-50,15,-50,18,111,29,-12,-128,83,-15,127
1490821387526,28,76,76,87,108,91,19,56,-10,115,28,127,-113,116,114,14
1490821387575,-69,-65,-38,-67,-42,-128,-43,-48,-47,-56,9,59,111,2,60,-17
1490821387577,52,-34,38,-56,-32,-12,-128,-74,3,20,-37,-22,51,30,0,19
1490821387625,-16,-62,-81,-114,42,34,59,22,14,-37,59,34,-59,-66,-47,-4
1490821387672,-35,-75,27,127,85,-92,-128,-59,24,-31,-2,22,96,59,92,16
1490821387721,59,108,95,68,53,31,53,80,-32,-113,-113,-128,-86,-128,-106,-59
1490821387770,-16,-19,55,76,47,42,62,29,14,-14,15,99,51,115,32,7
1490821387818,-15,-35,44,75,54,-104,-61,-8,43,13,-6,15,-14,-91,-50,4
1490821387820,-21,-3,-88,-99,-127,1,10,-24,53,12,101,86,56,86,25,59
1490821387868,-26,-12,-71,68,73,14,10,-11,5,-103,-18,59,-109,9,-78,15
1490821387918,16,106,64,85,84,46,15,5,-1,49,49,48,-45,110,54,31
1490821387966,-62,68,-104,-128,-128,-128,-105,-35,-32,-81,-50,-128,-128,-128,-65,-63
1490821388013,10,-111,-47,-4,-11,20,14,13,-21,-39,71,44,19,32,20,4
1490821388014,12,-35,82,97,-29,23,14,0,15,-30,2,-57,102,59,24,11
1490821388062,-28,35,-8,-67,-77,-51,-19,-13,21,-20,30,88,36,18,12,2
1490821388111,30,81,12,-14,1,-10,0,6,-12,-52,14,71,63,50,30,10
1490821388160,-18,-26,-60,-24,-1,-12,4,-3,-67,-123,-11,45,20,34,5,-4
1490821388209,-47,-128,-29,53,7,22,1,-1,-1,3,-13,-16,-16,0,12,3
1490821388257,-30,-35,-40,74,101,55,18,11,16,-5,-47,6,5,27,-23,-10
1490821388260,20,32,-29,-52,-30,-49,-15,5,-49,6,-3,27,52,-11,19,0
1490821388307,-62,-2,3,-50,-39,-39,-34,-33,-28,-68,-36,-4,-23,-9,-1,-7
1490821388355,71,-6,-20,-15,13,8,3,2,11,39,-3,8,-33,0,-1,-3
1490821388404,-69,-2,48,2,-24,-4,0,-2,-4,21,-20,-46,-5,-7,-6,6
1490821388452,-9,-15,1,-10,0,8,5,-9,67,-3,-1,1,2,1,2,16
1490821388501,40,-12,-37,-8,44,13,4,13,15,1,27,17,-13,2,-1,-10
1490821388502,4,-10,-72,14,5,-3,-13,-6,-28,18,38,-55,-15,18,-11,-18
1490821388550,27,-7,-25,-7,-15,5,-5,2,0,-5,3,9,3,-14,-14,-10
1490821388599,-10,25,-10,-41,21,32,6,1,14,63,-25,-1,0,26,-1,14
1490821388649,-2,-6,18,38,-33,-26,-16,1,-14,1,-21,11,28,2,2,-16
1490821388696,-61,-4,-46,-28,2,-23,1,-1,15,-4,36,24,9,-6,2,10
1490821388698,0,-4,-34,-28,-10,-4,0,-2,127,-2,13,10,8,1,1,3
1490821388745,-7,-2,-3,4,1,-4,-6,-10,-49,-2,6,-9,-6,-17,-5,14
1490821388794,-12,-2,-8,22,-3,-14,-6,-2,-14,0,13,10,-3,-18,-11,-7
1490821388842,44,-35,-14,-9,-14,-12,-15,-20,-33,-13,18,-6,-7,-15,18,-13
1490821388891,20,17,21,20,9,-14,-24,-19,25,7,-33,-3,21,27,-11,0
1490821388939,19,-87,73,32,21,35,29,1,-21,-94,-19,20,4,-3,-35,-46
1490821388941,30,-113,-30,-23,1,-24,4,15,-67,-35,4,-5,-17,-24,4,6
1490821388992,-16,43,2,0,-5,-16,20,-30,7,96,19,90,-33,75,-5,18
1490821389038,51,52,-6,67,56,63,75,39,-17,18,36,-21,-38,75,-4,-12
1490821389087,-13,-5,24,-28,30,-62,-31,-28,108,0,-25,58,127,44,-2,33
1490821389135,39,64,37,-48,-73,-16,17,40,66,-26,5,70,70,80,22,-5
1490821389183,-11,-11,-2,-128,-106,23,18,-35,22,-65,-7,35,116,-7,64,20
1490821389184,-128,-12,-6,-17,87,79,40,-14,-9,11,30,39,99,63,73,-14
1490821389232,-50,-16,8,27,14,-5,-96,-14,21,92,-20,-104,-68,-54,92,-6
1490821389281,84,105,-64,-2,-53,-127,-57,-69,-128,10,-64,-128,-92,12,4,-92
1490821389330,90,-77,35,45,125,84,37,60,-59,-11,8,21,-13,-86,-61,-64
1490821389378,-6,127,34,84,76,-71,92,23,-54,21,24,40,-75,-29,-33,51
1490821389382,96,-48,32,26,88,31,66,9,-69,-65,-2,43,-107,-89,-112,-44
1490821389428,15,-27,16,-88,-66,114,127,110,39,-6,-24,-88,-39,-128,-92,-10
1490821389477,59,127,30,108,35,62,-126,11,-36,112,25,37,-18,-93,-21,92
1490821389525,-8,35,-4,-36,-128,16,-44,-33,23,13,-3,-44,-23,13,7,10
1490821389574,-1,-1,-9,20,-14,-128,41,21,-20,-5,11,-4,-7,47,-81,-58
1490821389622,-102,-1,17,32,49,75,59,-16,-21,1,-26,7,10,-59,9,11
1490821389625,27,1,6,20,-21,-40,21,16,-39,20,14,34,101,29,69,32
1490821389671,-19,18,17,41,-87,72,96,26,-59,-30,13,19,96,-16,-57,-43
1490821389720,10,-59,0,-78,-23,-17,-82,-60,97,-125,11,47,66,61,94,60
1490821389817,101,-37,1,-31,26,61,-44,1,-37,-74,24,-14,35,49,63,-6
1490821389818,40,53,5,17,15,21,19,24,-55,6,55,7,12,19,-4,-4
1490821389818,34,8,-11,25,7,44,42,9,-23,29,-1,33,9,35,1,24
1490821389866,-64,-40,2,-10,-25,-17,1,-25,20,31,-13,-22,-12,-1,9,-1
1490821389963,15,65,5,31,-6,-29,-29,38,2,21,6,2,9,-15,-30,-9
1490821389965,12,-46,-5,12,7,-2,-13,-13,4,-14,-26,-30,-13,-14,3,-10
1490821390013,-80,-53,25,42,32,-2,28,-22,31,-46,-1,23,26,41,24,42
1490821390060,-3,6,-10,-15,10,-48,-20,22,-79,32,-9,-1,22,-35,-27,-34
1490821390062,-56,-79,-7,-33,-37,-4,15,1,-26,-33,13,15,18,39,5,-5
1490821390110,-88,7,-4,-14,-36,-73,-62,-14,-105,5,-21,-71,-50,9,0,-47
1490821390159,127,-31,0,98,65,123,94,34,-40,94,-13,33,41,-37,-91,-47
1490821390207,-29,-47,-99,-128,-63,-23,-68,-102,-49,4,30,93,73,48,62,60
1490821390256,0,-72,-4,-62,-128,-88,-80,-57,127,-7,-72,-53,29,-46,-101,11
1490821390304,-60,-63,43,-54,49,127,127,-35,65,17,57,125,32,-108,-83,-12
1490821390306,99,7,-10,63,105,82,-107,26,-52,71,56,66,59,-103,127,4
1490821390354,-61,46,-16,15,81,60,57,4,89,-128,-82,42,3,-75,-128,-63
1490821390403,-54,123,60,75,47,58,79,60,-72,-95,-30,-108,54,-101,-6,-98
1490821390452,116,42,33,126,48,45,59,-20,-86,-65,-9,-84,-117,-46,-40,-5
1490821390549,-128,-4,0,-15,19,-6,-87,-3,111,127,28,-28,-22,28,48,59
1490821390553,63,19,86,-29,-19,44,5,104,66,43,-38,71,-5,88,95,28
1490821390554,-9,-22,22,26,-97,-128,-31,-69,-119,10,72,61,118,127,92,-8
1490821390599,46,-9,-82,-25,-5,-123,-128,-7,79,11,45,103,-45,65,126,54
1490821390647,-3,-5,27,72,-21,-128,-92,-40,-121,2,-69,-128,11,48,-36,-63
1490821390695,-81,-3,-25,15,-10,-128,-84,-128,2,3,-2,-42,-2,-49,85,2
1490821390792,108,127,18,25,32,127,127,53,-75,28,-53,34,46,-128,17,28
1490821390793,117,-5,-4,-35,42,-14,-28,-36,-22,40,42,19,80,127,127,58
1490821390793,73,-8,13,-6,-68,40,-14,-33,21,-10,-18,50,52,80,-79,53
1490821390842,22,-77,-22,-10,-126,-75,-50,-70,-27,-46,-9,4,13,56,58,56
1490821390891,-34,-63,-56,41,98,82,109,1,-78,-42,-12,55,0,39,-76,-83
1490821390939,-29,1,1,-63,48,38,38,6,119,-18,28,19,70,127,-40,58
1490821390987,38,21,77,127,-52,127,127,83,-22,-32,-95,-128,-128,-127,-60,-64
1490821391035,13,-14,41,50,108,116,-57,45,14,-10,90,29,127,-71,-85,-53
1490821391084,0,5,-56,-128,-128,-81,18,-5,7,4,18,51,24,46,-50,10
1490821391085,2,2,-14,-55,-125,-128,-37,18,-32,-6,-93,-128,-87,15,34,-8
1490821391134,-14,-3,-80,-47,-128,0,-85,-35,26,1,-46,-28,73,-40,6,18
1490821391182,-10,1,62,107,127,3,-18,-23,12,-1,-15,-94,-44,-72,-35,1
1490821391183,-36,-1,88,47,62,64,54,17,12,-111,127,116,16,90,25,-2
1490821391330,9,33,9,-46,45,-36,-30,-3,3,100,-22,25,-128,52,43,31
1490821391334,-51,-25,-49,-113,-128,-58,-1,-23,-3,121,-52,-101,-59,-102,-50,-26
1490821391338,71,-12,9,68,127,11,-9,13,-6,-15,69,61,10,20,-6,5
1490821391377,6,-65,-19,-11,-39,2,5,-3,51,-61,-18,-78,-103,-35,-26,-8
1490821391474,12,-4,-76,-125,-86,-90,-56,-16,-41,-90,-44,-35,-42,-40,-31,-8
1490821391475,26,86,-86,-118,-114,-65,-29,-17,9,-94,-23,-46,-27,-94,-33,-8
1490821391523,-2,29,100,-22,10,36,10,3,9,-66,-72,70,12,103,38,22
1490821391572,-9,22,-72,-49,-35,-58,-52,-34,-30,1,45,41,55,-2,16,-1
1490821391573,-12,-70,23,3,-9,-1,2,-5,-11,-47,-3,36,60,-4,-27,-2
1490821391623,2,-126,-21,51,90,23,10,6,33,7,0,-71,-126,-22,-24,-16
1490821391669,-4,19,4,-15,-24,-2,-9,11,11,91,21,7,3,-18,-9,-4
1490821391671,18,20,14,-59,9,3,-3,-7,5,-12,-28,35,-12,-20,-14,-5
1490821391719,-49,-61,9,-17,-12,19,6,-1,9,-56,-14,15,29,21,0,-7
1490821391769,67,8,12,-29,0,23,2,-1,31,22,-10,-2,-2,-5,1,16
1490821391816,-13,24,-5,-61,-28,8,0,-6,-22,18,26,-29,-31,-29,-7,2
1490821391914,-17,16,2,-40,30,-1,4,15,45,11,16,13,-27,-38,-18,-6
1490821391916,-17,-12,-10,-51,4,-5,-3,0,27,-18,38,33,-28,-10,-15,-5
1490821391918,1,2,-6,4,-9,0,-5,-7,-23,-6,-13,16,0,11,2,10
1490821391964,-2,-14,21,-10,-17,-19,-9,-8,6,-18,-31,-28,9,-3,6,8
1490821392012,52,-1,2,25,2,-9,14,7,-52,11,-32,-17,-4,-5,-3,-12
1490821392060,-67,-39,2,0,-4,-16,2,21,-14,-15,-1,-16,-7,-30,-13,-24
1490821392108,-12,31,-10,2,-1,-10,-7,-19,-24,16,-22,1,-15,-3,30,5
1490821392109,-53,35,-23,2,-9,-23,-39,-31,18,46,5,15,-6,0,14,33
1490821392157,-17,109,39,22,10,21,23,-2,6,-27,-19,36,29,-21,-47,-4
1490821392206,9,-67,12,-32,-1,-48,-27,18,94,-43,-7,19,-27,44,37,4
1490821392255,-45,76,-12,-61,-26,-68,-40,-6,48,-112,11,8,86,30,17,-15
1490821392352,61,50,37,-2,-50,30,70,42,-49,77,-25,-35,-22,25,-46,1
1490821392352,14,23,37,-18,-47,4,44,75,77,8,-3,55,77,42,-5,-4
1490821392353,98,28,-2,-36,65,-35,-40,36,-83,85,11,-3,-75,51,79,-4
1490821392402,110,-100,49,127,127,118,58,79,-97,-31,-18,-39,-128,-117,30,-24
1490821392450,-60,-51,9,52,113,-22,-3,9,-77,-63,3,-88,-85,-87,-16,-63
1490821392499,-27,122,-2,11,-128,-76,-67,4,49,89,10,6,127,31,91,-36
1490821392547,-6,-128,1,17,-83,12,13,6,-128,-85,12,-23,-49,-34,73,-29
1490821392549,38,-46,9,92,112,-82,-21,-40,-121,-42,23,-34,-59,65,-1,52
1490821392596,-59,-70,23,3,-1,-93,114,2,4,-30,-27,22,-22,-8,-128,-79
1490821392646,50,-40,-4,37,114,65,85,86,-28,-16,11,117,73,33,-51,-10
1490821392694,-63,55,-23,-128,10,-72,-94,-11,109,116,-5,-34,55,69,10,4
1490821392743,121,-10,19,100,113,61,-52,-10,-88,-67,13,13,-112,77,122,40
1490821392791,-76,46,-18,-55,-52,97,59,-18,61,32,-25,3,66,-7,-19,2
1490821392793,-38,20,8,67,-22,-89,-55,7,74,6,-18,12,127,26,14,-29
1490821392841,34,7,-8,-58,-58,20,-18,18,5,0,-2,-58,-67,63,116,52
1490821392889,-30,0,-9,-52,-115,-48,-40,21,104,3,-4,-68,-15,17,8,-11
1490821392940,-128,1,-9,1,45,50,47,-13,45,1,0,48,27,-38,-46,14
1490821392986,66,30,-22,-32,-4,-13,5,-2,-58,-7,11,1,-43,-7,23,15
1490821392990,-96,124,1,-30,-55,-31,-9,-35,11,-7,-9,-52,-59,-20,6,3
1490821393036,80,54,-8,38,49,43,60,19,-83,-9,7,33,1,-46,-27,-17
1490821393085,44,85,26,67,19,30,55,36,-3,-10,-39,-48,-51,9,-20,-29
1490821393133,5,-67,0,-5,23,9,12,8,-17,-59,7,-5,13,-2,-5,21
1490821393230,31,-33,11,-2,3,-61,57,-36,-26,-1,13,2,8,-15,-104,-13
1490821393231,56,-39,-7,-5,45,67,20,5,-23,-6,-7,10,-22,-16,39,-18
1490821393232,-69,3,3,39,83,87,20,-9,27,13,5,42,28,-38,44,11
1490821393279,126,10,2,-49,-45,-59,74,52,61,-50,8,-20,-38,-49,-128,-44
1490821393328,34,-26,-14,-24,45,33,-24,-58,33,38,7,-16,-38,78,127,48
1490821393376,-66,-9,-8,-21,-23,-14,-12,-35,56,3,4,-25,-38,11,-93,74
1490821393425,121,-71,-18,-3,13,-77,-53,-47,4,46,4,-94,-97,-3,-28,-5
1490821393522,24,45,-17,-76,-23,-89,-62,25,-47,-73,17,81,-56,8,70,-49
1490821393573,7,112,59,127,-61,116,96,19,-88,51,-1,-61,127,12,-67,41
1490821393574,5,1,-36,29,42,88,127,-25,73,-25,41,42,87,-61,-23,-12
1490821393575,46,37,-16,-73,-53,28,69,-12,13,24,-10,-128,-128,-37,77,3
1490821393620,78,-10,-53,-91,-49,75,13,62,40,-66,24,-32,-7,-78,-91,-79
1490821393668,48,22,18,-46,-43,100,68,114,19,-79,-24,45,-121,-104,41,32
1490821393669,-128,-16,63,39,76,45,0,20,-46,-11,6,35,-86,-84,-31,8
1490821393717,-65,-11,-3,21,109,101,91,30,31,11,6,103,-47,-31,-33,-42
1490821393766,16,-83,-50,31,5,-43,-128,47,-120,-99,56,123,127,-6,110,-57
1490821393815,-30,95,10,3,3,38,-52,64,-29,3,-40,58,86,-77,-122,-27
1490821393864,-31,-17,-15,50,-3,-25,-85,-8,-38,-2,59,-106,-74,127,-26,44
1490821393913,97,9,-38,32,-55,-128,-75,-71,112,3,14,7,-41,93,10,78
1490821393914,41,1,-55,11,-43,-13,113,-50,-24,-9,-5,-102,-74,-39,100,62
1490821393961,-6,4,-19,-80,-101,-128,-117,-39,60,77,2,32,55,11,-7,71
1490821394010,36,-15,10,-38,-128,-54,-73,15,-77,-15,-18,-125,1,48,-22,0
1490821394059,3,124,-7,90,-43,12,115,92,-15,122,42,53,-114,-1,15,-54
1490821394108,-2,28,-63,-67,127,-68,-26,-77,-22,29,61,60,-64,-24,114,39
1490821394156,-49,-102,-28,-54,104,-4,-64,-73,19,-42,27,-14,-17,-10,-84,34
1490821394157,42,-58,-3,-7,66,127,122,40,36,-3,-83,82,48,100,127,80
1490821394206,18,127,61,23,61,121,-106,-28,-13,18,-99,-128,24,-112,-13,-8
1490821394254,34,71,78,127,127,127,105,48,-12,-19,42,82,-113,-57,-20,-27
1490821394303,-21,-106,-51,-40,75,67,-19,-51,7,-59,9,-5,73,72,44,39
1490821394351,10,-42,-50,-3,127,57,6,-24,-10,1,45,74,-92,-113,56,41
1490821394354,2,4,-28,-8,0,-6,-66,-16,41,-44,-67,14,11,32,55,13
1490821394400,-17,2,-73,-94,-128,-95,-19,-18,9,24,52,-122,46,-128,-74,-5
1490821394498,-10,-100,46,-105,-121,-128,-70,-15,10,-37,-34,-110,48,-40,-19,-21
1490821394501,-5,26,-66,-43,6,-19,-25,-6,-39,-24,-16,-23,45,51,8,-18
1490821394548,28,29,47,99,6,-4,2,8,-12,-5,-38,101,1,-1,41,2
1490821394596,25,-40,33,93,34,53,19,27,-7,-43,-16,-46,-73,-18,-33,-15
1490821394597,19,90,-17,31,-40,11,1,-2,14,-36,-9,12,-1,-44,-30,9
1490821394645,5,17,-23,-24,-46,-4,2,-5,-3,-23,-42,-6,125,11,11,7
1490821394694,41,-92,-2,107,58,-25,-4,0,-7,-83,14,38,9,30,35,6
1490821394741,1,-29,-25,-55,-45,8,-6,-8,30,11,16,44,35,4,-2,-7
1490821394790,-4,47,3,36,24,-30,2,-8,-2,25,-3,34,47,-50,-8,10
1490821394838,-8,-6,-5,-50,-7,-12,-8,-2,-3,-2,86,87,-1,-2,-4,-2
1490821394840,-18,-18,36,9,23,12,17,-7,-8,-53,-12,-40,17,25,15,-4
1490821394888,-50,-8,49,-21,-46,-21,-26,-22,-1,15,93,67,-17,-4,10,-6
1490821394936,-55,21,-9,-14,-13,7,-4,-32,-17,-7,25,-25,-26,-1,-15,1
1490821394985,-11,-20,-37,-17,24,-7,2,-3,-47,18,-42,-34,33,-8,-1,2
1490821395033,-42,9,-55,63,10,-2,6,20,-30,-6,1,-18,-10,5,26,10
1490821395082,-25,10,7,8,-10,-27,0,3,-3,4,-70,-50,34,-23,-17,-21
1490821395131,-90,-1,81,33,2,2,-10,-10,23,-17,-33,5,11,0,-13,2
1490821395132,-16,-28,-73,18,30,-2,-1,-8,-39,1,-18,8,-27,37,8,-13
1490821395180,12,-2,43,-22,-26,-4,-4,1,-45,-3,12,-13,3,-6,-12,-39
1490821395229,-61,-13,32,13,-17,-1,-6,-23,22,2,-9,32,7,9,2,9
1490821395277,-116,2,-9,-21,3,2,-8,-2,-31,-1,-5,-2,-1,6,16,4
1490821395279,66,-4,20,-23,-4,-24,-7,-33,17,11,62,13,8,-14,-20,-18
1490821395327,44,12,-9,-2,-8,-23,32,42,-29,-2,-19,-2,4,-27,-37,-38
1490821395376,50,3,29,7,6,3,18,30,26,-64,-19,-8,-6,-15,-11,-14
1490821395424,-45,-16,-44,-14,-26,-31,-41,-32,-60,13,-29,-7,-10,14,4,-6
1490821395472,-56,82,0,42,46,7,21,-9,38,-26,0,-17,-54,-27,-11,15
1490821395473,-3,-128,-6,-2,-3,-43,-16,21,42,-111,31,47,54,56,27,28
1490821395521,-38,-95,-13,-23,-3,-76,-58,18,-3,-25,-12,26,-42,15,38,12
1490821395571,-89,50,9,16,-89,-12,-54,-84,48,67,-20,-3,29,-56,-45,52
1490821395619,80,67,-2,-116,-128,-2,9,-20,-42,13,-40,-99,73,-75,69,12
1490821395668,47,-97,-20,-98,-82,-106,-117,-67,7,-60,0,-91,-94,78,40,41
1490821395716,-43,-72,-28,-26,-34,-61,99,34,-128,-125,11,-69,-8,24,-126,-68
1490821395717,-54,-32,14,-71,-123,60,99,19,-3,-12,6,-51,-15,-45,-90,-19
1490821395765,-59,44,-8,-35,8,60,-53,-7,55,-52,33,79,92,32,-19,12
1490821395814,71,94,26,121,127,-50,67,9,-53,116,27,85,-52,-49,-111,-8
1490821395863,-89,127,6,19,82,15,13,-27,120,106,22,111,-41,99,-27,13
1490821395912,43,-128,-1,2,-59,-42,-66,10,-105,-128,-10,-3,-70,-75,-32,-60
1490821395960,-52,-93,20,-114,-8,-4,-41,34,-105,-82,-41,-119,73,-92,-15,-76
1490821395963,-128,122,-45,17,-128,-15,16,-50,121,102,-19,-92,-109,-33,0,2
1490821396009,48,52,18,60,-18,52,67,-7,-13,10,5,69,31,13,-2,-4
1490821396058,-53,10,-36,-16,-84,79,-36,-72,33,-10,9,4,114,-64,17,64
1490821396107,23,7,10,-24,-14,-114,-4,-5,-89,4,-47,-52,-95,-128,-17,-67
1490821396155,-44,4,14,36,15,11,13,24,65,0,1,4,-5,44,41,16
1490821396156,-40,0,-36,-33,-94,-60,-82,-23,12,1,-1,-73,-73,-7,-37,2
1490821396205,-49,1,17,5,73,75,29,21,40,-1,-18,5,10,-33,45,-3
1490821396253,23,102,7,10,7,48,2,26,-106,109,-15,-47,-5,-33,-100,-43
1490821396301,115,-22,3,29,31,-20,-35,36,-46,-26,19,31,-28,66,54,32
1490821396398,-18,114,-32,-37,3,-20,41,7,67,-58,-6,4,34,-56,-11,-13
1490821396400,-50,0,35,55,44,61,32,20,-34,-44,-18,-25,23,20,-6,-64
1490821396401,2,-49,-17,-9,-35,4,-12,-33,-22,-58,-10,-16,1,9,53,5
1490821396447,65,30,6,21,22,13,16,16,-52,104,3,50,-8,-13,-30,-23
1490821396496,27,116,-8,17,9,-13,-44,19,0,31,4,-4,13,-3,34,17
1490821396546,43,-56,-3,10,1,-1,-11,-10,-12,-5,18,-31,-38,-17,-15,1
1490821396594,-66,7,-12,-6,-2,22,31,5,-14,-11,-19,-12,10,13,-11,3
1490821396642,-53,3,17,10,-4,9,2,2,60,3,-2,-16,9,58,28,28
1490821396643,-61,-41,-12,-36,1,6,-58,-29,-57,-2,5,12,25,-17,-63,7
1490821396691,-36,2,12,71,64,85,-2,-13,88,35,-4,39,-37,-65,-16,-3
1490821396788,112,-97,-24,-74,-128,41,64,29,85,-9,-16,13,54,-5,125,34
1490821396789,-52,-64,-27,-117,-59,-99,-30,14,52,-108,-62,-120,-103,6,-12,-43
1490821396837,98,-9,3,65,-27,-93,-12,45,-96,-95,-14,77,113,-104,34,-55
1490821396838,116,-102,-104,-128,-128,-82,-112,-91,-60,-44,-36,30,75,56,45,19
1490821396886,38,-103,-98,-100,-44,-71,-95,-86,-35,64,20,-5,-8,106,56,73
1490821396935,-102,118,-5,87,-34,-52,73,-54,50,-44,-78,-100,-122,-102,-114,44
1490821396984,127,23,67,103,13,117,78,127,-72,18,-65,-79,-37,-29,3,-69
1490821397033,127,23,13,65,94,97,-128,40,-99,-52,4,-48,7,-31,71,-52
1490821397129,124,-58,-8,-80,-6,83,126,52,-30,88,121,127,117,88,66,60
1490821397184,-49,-128,-39,-102,-59,-128,-128,-23,-128,19,17,-14,42,45,36,-72
1490821397191,80,119,11,71,111,-25,-38,27,-128,-13,-8,-122,-100,-128,-121,-22
1490821397193,18,-128,-78,-63,-19,-108,-128,-128,42,113,53,75,32,127,85,65
1490821397228,34,-9,-21,-44,-104,-128,76,21,-49,-100,-18,-13,37,-67,-22,-107
1490821397276,-82,37,-13,108,-50,-44,-75,26,-33,112,35,-76,-44,98,-45,-7
1490821397324,43,34,-57,-12,-2,-45,13,42,-20,-73,4,-44,-59,-46,-29,-56
1490821397326,-9,-40,23,-27,-58,34,-2,37,-65,-54,-33,55,53,-44,-64,3
1490821397374,-19,89,35,37,98,57,11,56,118,82,36,127,127,19,-56,29
1490821397471,127,-38,-24,-44,-62,-54,-47,-23,-61,5,-42,-28,-128,-57,86,-14
1490821397473,-9,-57,-7,32,-96,30,-112,-41,0,-22,121,48,-10,-5,57,-5
1490821397568,5,-16,9,8,106,20,39,35,45,-22,20,7,-74,76,16,126
1490821397569,-1,1,32,15,57,54,-67,22,-33,-59,3,3,127,-44,93,-1
1490821397617,29,-66,26,-3,47,126,-27,-1,-3,-102,-55,-56,-121,-126,-68,-28
1490821397666,2,108,50,64,19,-37,-2,31,7,24,-52,-69,75,72,90,13
1490821397667,4,110,-52,-106,-108,-91,-7,11,8,127,-82,-92,54,27,6,3
1490821397715,11,-22,4,-11,53,43,-15,-44,35,98,46,92,-3,85,26,84
1490821397763,13,-73,-37,127,127,81,81,26,4,-3,88,-110,-128,-23,17,5
1490821397765,26,-90,-52,-33,-87,71,127,59,-29,-66,5,-25,-128,-96,-93,-28
1490821397861,-16,44,127,43,-100,-128,-21,-44,-2,-25,-121,-128,-111,-79,-34,-1
1490821397864,0,56,18,68,80,90,29,4,1,3,58,39,-22,53,35,-9
1490821398056,-18,11,-56,-128,-48,-128,-110,-49,-24,-6,-52,79,32,-11,-11,-10
1490821398061,0,43,-35,-7,-96,-47,-8,1,-10,94,29,-19,65,22,16,-6
1490821398064,11,4,-59,-52,-12,11,7,-6,-25,-38,13,34,19,4,18,21
1490821398068,18,12,4,-8,41,-33,-27,-16,-54,26,-89,-87,-19,-40,-19,-24
1490821398104,13,-46,-77,-51,6,5,7,5,8,-30,58,101,-12,-8,1,1
1490821398153,2,57,-60,-34,2,-8,-15,3,13,111,-23,-90,-67,-14,-24,-11
1490821398154,-24,127,28,-3,-4,1,-1,1,60,126,-69,84,87,31,19,22
1490821398202,-53,-108,71,-96,-17,20,5,-2,29,-95,31,-37,-9,2,-2,9
1490821398203,14,-55,14,-38,-22,-5,4,9,4,-5,23,42,-4,-22,-14,-3
1490821398252,106,-13,18,19,-19,0,1,28,-70,31,7,43,-26,-3,-4,-4
1490821398300,-29,17,-70,-74,14,-5,-16,-12,-4,-10,3,7,-25,15,20,-1
1490821398349,-8,9,73,22,-48,-21,-20,-31,17,-2,72,3,12,10,18,37
1490821398448,103,-2,-37,-32,26,23,19,25,-5,-6,59,47,-39,-20,-24,-15
1490821398451,-89,-2,-77,-21,-5,-9,-12,-9,17,4,-101,-39,-16,3,6,7
1490821398452,2,-14,31,-5,6,-4,-2,-9,-53,2,53,-3,-12,-9,-4,-25
1490821398496,28,11,-82,28,-6,22,14,32,47,-9,49,-4,-6,7,-6,2
1490821398544,8,14,-103,-12,1,-2,4,10,19,1,-67,-13,7,14,-3,-6
1490821398593,-25,-2,62,4,4,-1,-4,-4,-4,-1,64,9,-3,-21,-4,-9
1490821398641,52,2,12,-15,4,16,11,-2,-113,-13,-79,-45,14,-13,-9,-22
1490821398642,24,1,28,6,-4,3,-9,12,-69,4,-25,0,-6,6,-11,-16
1490821398690,11,-5,-9,-25,2,-1,-9,-20,-14,-17,-60,-38,-17,-5,-26,-8
1490821398739,10,-11,35,26,8,21,11,14,8,6,-1,-3,0,-14,-15,-24
1490821398788,-32,-3,-8,5,-6,-16,-4,14,17,-5,-26,-16,-6,-10,-2,4
1490821398885,34,-7,-9,9,-7,9,-1,10,-18,6,-6,-1,-5,10,5,1
1490821398886,26,5,-7,10,7,-1,22,2,36,-1,-9,-4,-6,-10,-6,-22
1490821398888,-31,-1,14,2,-5,-6,-9,24,-22,-2,-10,-7,-15,-15,-15,-53
1490821398982,-63,-2,-12,-10,-5,1,-18,-67,-73,5,-18,-4,-7,3,20,20
1490821399079,38,1,19,-9,-28,-10,-19,-2,-34,-3,2,-2,14,-24,-35,-1
1490821399081,-35,77,-24,3,8,4,14,38,11,43,-6,-3,5,-10,-8,19
1490821399083,22,-60,7,-3,-13,27,50,42,3,46,0,32,45,-15,-79,-32
1490821399130,16,-117,-4,2,-26,-47,-30,-22,-67,-128,21,30,-37,23,32,-1
1490821399131,84,-87,7,112,113,-32,-103,8,32,-64,2,-18,-78,85,107,18
1490821399178,51,44,12,-39,-4,82,65,12,-72,68,1,23,-32,-128,-82,-16
1490821399323,-43,16,-63,-94,1,7,-64,-8,5,36,-51,81,56,-49,-12,-4
1490821399324,-15,127,-8,-14,125,-81,-6,24,-125,112,-17,-91,-57,33,41,-41
1490821399325,10,-128,0,10,-72,5,50,-46,91,-123,6,-45,-97,-41,-29,-13
1490821399326,-128,50,-16,65,127,61,-45,33,49,41,-3,60,-8,113,-1,-13
1490821399373,-57,31,24,-115,35,50,-85,-49,-32,-12,-40,-82,-83,-84,-25,19
1490821399421,-104,-27,-37,-96,-37,-70,-33,-81,16,17,5,-31,43,-23,-27,-12
1490821399470,-49,-8,26,114,92,117,67,25,15,40,8,-37,-95,-93,119,2
1490821399519,-75,-30,58,96,20,127,73,31,-71,-3,-7,50,-56,-44,-40,22
1490821399567,-10,9,-25,-102,-65,52,77,-29,-9,-34,-35,-53,-8,31,-43,-31
1490821399568,101,-52,1,-40,-9,88,-14,-23,-90,-15,11,40,47,72,-67,15
1490821399616,-74,27,8,47,36,25,-18,27,-78,19,-29,-94,-124,-72,10,-31
1490821399665,-20,11,-5,-43,-39,-15,-4,9,-8,-4,-16,-75,-23,-77,-57,-37
1490821399715,-102,0,-6,14,-24,14,-24,-54,64,-3,22,-22,4,107,29,65
1490821399763,35,1,33,69,71,40,92,56,34,-1,-8,89,126,31,-15,5
1490821399811,-85,77,-8,-12,-71,60,44,-14,56,61,15,-1,-10,66,-8,-2
1490821399812,111,9,-4,-6,-10,57,4,23,-93,106,33,35,43,30,22,27
1490821399860,-49,-80,18,55,44,4,-11,-31,76,-128,-5,64,16,-89,-41,32
1490821399909,-55,-10,-1,-16,32,-21,-23,-14,47,-43,3,-53,-16,50,-53,8
1490821399958,45,-60,-11,5,0,12,40,22,15,-22,1,31,35,-46,1,14
1490821400006,121,-58,-3,5,3,13,0,4,-128,-39,-6,-14,29,8,47,-19
1490821400008,21,-11,4,1,11,-31,-29,-5,-71,-43,-19,-6,0,-19,-24,-8
1490821400055,-71,9,-12,8,-45,48,22,-8,-64,-18,-39,-59,-31,-67,29,-10
1490821400104,67,-2,5,13,4,45,-18,6,-44,-14,16,74,28,-42,12,-9
1490821400153,-52,-24,-9,-90,-69,-57,42,-37,-89,-21,1,1,16,2,-32,18
1490821400249,68,-19,-2,-32,-66,13,-96,27,34,47,-9,-34,-110,13,12,-12
1490821400254,-52,-59,20,-78,69,-128,20,-5,127,-76,-61,10,-29,40,66,-34
1490821400255,-112,87,43,81,-39,28,127,17,43,-75,-68,-108,-74,-107,-128,-4
1490821400299,88,41,7,61,84,76,-101,102,-81,-22,-46,-128,-127,-75,62,-24
1490821400348,-1,-63,-50,-128,-128,-91,36,6,-83,41,12,-5,127,103,-51,-95
1490821400396,66,-27,-5,41,-9,-90,68,37,-62,39,60,64,123,104,-63,-74
1490821400445,-44,15,-23,-72,-65,22,8,-37,29,-66,-4,4,28,-91,-47,0
1490821400493,62,127,-8,25,84,102,56,18,79,-65,-71,-108,-119,-59,-85,19
1490821400495,-104,100,107,127,127,-74,60,10,120,106,24,78,-79,74,90,23
1490821400543,-72,21,4,-25,-128,-128,-127,-106,-42,35,25,-27,46,102,-13,-17
1490821400591,-31,13,9,-2,-60,127,88,40,-37,12,-19,-109,-100,-120,-98,-67
1490821400640,122,87,-39,85,63,76,6,123,-21,79,43,-6,127,107,24,-42
1490821400688,-79,-26,-37,-37,11,-49,-100,-15,65,-100,-64,-65,-128,-128,-55,-87
1490821400737,47,56,48,69,97,127,121,24,21,34,43,127,127,40,14,62
1490821400739,-6,-67,3,56,21,37,33,-7,38,31,12,-36,-128,20,-44,26
1490821400883,-51,-44,-66,-62,-9,-65,-18,-21,-43,-3,105,54,25,-71,60,-21
1490821400885,-98,-22,-18,-104,-105,-97,-84,-20,4,-60,-120,-102,-37,-128,-54,-21
1490821400886,67,121,-15,93,34,49,121,66,-39,26,-37,34,-128,-71,-63,-5
1490821400932,-38,-31,20,115,109,4,33,4,54,-29,59,127,86,29,-58,38
1490821400935,22,-4,-2,-44,90,52,-62,-33,-43,-12,58,0,50,-62,9,-3
1490821400981,11,-4,-29,81,4,-14,84,79,4,-40,0,-58,-105,-35,6,-52
1490821401030,-45,15,-70,-128,-128,30,-16,-66,-15,62,17,38,84,-91,-14,-32
1490821401079,-7,52,-14,32,78,-43,-126,-54,-8,79,-9,-15,-48,85,-60,-12
1490821401127,24,16,97,-74,-73,19,18,53,-27,-76,-98,-9,79,-118,47,-23
1490821401128,-40,-3,115,-37,-128,-43,-128,-60,-8,107,-43,57,-18,127,127,66
1490821401225,42,-37,8,124,-5,12,51,83,-26,-112,36,-121,-68,-86,-77,-69
1490821401227,28,-28,6,80,-52,7,-69,11,-4,-27,-92,-30,-11,-16,84,20
1490821401275,-7,-1,-78,-29,71,118,67,-13,-14,91,68,-37,-128,-7,57,4
1490821401323,-21,5,-66,-83,-3,-42,25,16,-34,74,40,127,51,34,83,15
1490821401370,25,-62,-59,6,41,-20,-52,-20,20,-34,-6,127,114,27,36,48
1490821401371,-1,-1,40,33,-80,53,36,-6,-30,99,57,18,-46,16,-20,-16
1490821401468,-19,-70,-34,70,125,-20,-41,-22,-6,-49,82,79,43,64,31,-1
1490821401470,35,125,-20,59,-31,48,37,25,-17,32,-27,-29,7,-66,-26,-24
1490821401566,28,76,123,127,69,126,27,14,-37,-17,-45,-44,1,-36,-12,14
1490821401567,-28,-58,-34,-112,-70,-75,-16,-7,10,-37,47,55,-29,-24,-17,-4
1490821401614,9,6,14,38,22,-3,-26,-14,-25,7,10,102,114,46,40,10
1490821401615,5,-51,34,-40,-64,-5,-14,0,23,-84,4,-21,51,17,7,8
1490821401666,-43,3,-46,-124,-27,4,7,0,1,102,72,35,-45,-38,-25,-18
1490821401712,39,127,28,-73,-32,9,-3,-3,33,106,-39,73,-22,11,-8,4
1490821401764,-12,-71,39,10,-61,-13,-29,-11,-4,-128,18,-17,16,23,11,0
1490821401810,-28,30,-75,-14,4,7,22,13,-29,-21,-43,-45,25,-8,-1,-15
1490821401811,47,13,-4,25,-75,-18,-17,-5,-67,-7,9,35,25,4,-3,-16
1490821401859,63,9,-25,-88,-2,14,-1,20,59,-5,5,-14,-64,-1,-29,-4
1490821401907,-50,-3,21,-4,35,5,-2,-5,38,-12,-6,58,32,7,8,2
1490821401956,-51,-21,-20,-13,7,-13,-6,3,-23,-7,42,-4,5,4,4,-5
1490821402005,-38,4,-33,-47,6,11,19,10,-29,-9,-44,27,7,4,-13,-6
1490821402101,58,9,25,11,-3,0,-2,5,29,0,-35,-12,-9,1,2,1
1490821402102,100,-1,-49,-12,33,2,13,16,-10,14,5,19,-17,2,-11,-8
1490821402103,34,-21,47,47,-8,0,-1,15,25,-1,-11,-27,-23,1,17,7
1490821402151,-58,1,-13,-12,-21,-3,-6,-13,-31,-2,-8,-17,15,11,9,2
1490821402248,-5,-8,34,-1,0,-6,-3,1,4,4,-26,-16,-1,0,-6,-1
1490821402249,43,-15,5,1,10,8,0,-2,-36,-8,11,-8,6,4,-2,0
1490821402297,-82,3,68,19,-1,-12,-20,-25,40,-14,3,13,2,0,14,21
1490821402299,66,-12,-17,-2,5,-2,0,-11,21,-12,23,10,-5,0,5,18
1490821402346,-6,10,9,-4,-6,-2,11,-16,-34,-8,23,-3,-2,0,-16,22
1490821402395,25,-2,-20,-2,5,-4,-9,11,-35,-14,-29,1,-2,-2,-12,-29
1490821402444,-32,-10,-21,-2,4,2,-9,-52,21,-9,5,0,0,-3,20,3
1490821402492,-4,15,-17,13,4,21,47,-7,42,-9,-16,-9,-8,-27,-93,-49
1490821402494,2,41,-9,-5,19,4,3,16,-51,120,13,26,12,19,24,-7
1490821402541,48,-128,1,35,-19,-35,-50,1,-58,-55,15,18,74,19,14,0
1490821402590,-92,22,-39,-10,32,19,0,-45,79,-101,1,15,-6,2,15,29
1490821402736,-21,54,30,28,-32,-23,-54,-12,29,39,-15,-41,-79,74,70,30
1490821402738,-35,105,-13,-21,-8,-90,-65,-88,12,-15,24,67,25,-55,4,36
1490821402740,42,-37,27,107,46,95,-34,-16,74,21,-7,13,-87,11,-7,26
1490821402743,10,28,-10,-67,-83,-58,93,-45,-68,3,-11,20,68,53,-104,-42
1490821402787,59,-62,24,83,70,57,1,9,44,12,36,99,68,5,96,51
1490821402834,29,103,-18,-111,-65,-22,-57,33,-7,0,5,-15,78,77,86,5
1490821402882,-59,-93,-26,-24,-112,110,94,40,99,-95,11,-96,-79,-27,-107,-12
1490821402931,9,-15,-12,-20,127,51,-50,-21,6,-43,35,85,60,126,-7,-2
1490821402979,97,-128,0,-128,-97,-93,-128,-50,-34,-123,-27,-128,-128,58,109,10
1490821402980,-114,-104,37,-22,-34,13,-68,-49,11,-17,-60,-107,52,-116,-28,-30
1490821403029,97,64,-49,-36,-112,73,110,81,-5,70,13,51,81,-124,-81,-60
1490821403077,5,49,-9,17,10,127,125,-18,-87,37,-5,-59,-1,-118,-75,1
1490821403126,61,-5,34,121,127,-27,1,61,-38,7,36,110,-29,39,-6,-38
1490821403276,125,0,55,74,105,-12,-26,2,42,0,37,60,-40,-40,-19,10
1490821403280,-128,-1,-6,17,34,59,-85,-86,127,-2,-14,-10,32,56,99,97
1490821403418,26,-1,-13,65,72,41,29,4,-61,0,6,9,59,21,31,-9
1490821403420,41,0,-14,-49,14,-97,-9,-23,-53,0,-7,-23,-44,-60,-8,-24
1490821403422,-40,-1,7,36,91,86,78,-11,-42,0,23,70,-6,-12,-124,-28
1490821403425,40,0,4,-11,-20,6,75,16,-9,0,-23,23,34,2,-116,14
1490821403466,-57,104,12,19,1,14,57,23,-13,97,17,37,37,-45,-65,-13
1490821403471,-20,-93,12,45,27,60,29,13,119,-107,19,56,-30,-82,64,18
1490821403472,-57,-91,33,14,4,38,-18,-7,-12,-63,-9,3,4,23,52,-3
1490821403516,82,-97,-15,-56,-117,-85,-128,-8,-66,-2,-8,-15,-13,41,35,13
1490821403565,-73,-7,-8,10,-15,41,46,-23,76,42,14,44,56,23,-32,20
1490821403613,6,8,-3,-18,11,6,5,0,-12,-1,3,30,17,32,41,2
1490821403615,6,-19,1,34,47,40,-32,-21,-17,-8,19,33,36,-16,-20,14
1490821403663,79,-11,-12,-36,-67,-7,83,3,73,6,23,-38,-48,16,-10,3
1490821403712,-93,42,-27,-63,26,46,-33,-11,34,14,-9,47,-56,-59,10,-50
1490821403760,-86,-36,-25,-119,-96,99,-45,-53,-86,-28,0,-92,-77,-126,-87,-45
1490821403809,89,-105,-26,-45,-24,-127,-75,73,-122,-52,-51,-124,-128,48,-46,-39
1490821403857,-62,64,3,4,75,115,93,17,49,28,4,-27,-15,-73,108,-6
1490821403859,-46,-27,-74,-104,31,-39,22,-21,-96,10,19,12,65,43,97,-17
1490821403906,88,127,22,28,-67,56,-63,30,-71,-5,-43,-112,-65,-128,-77,26
1490821403955,-44,-70,-11,-82,-114,5,-44,33,-42,-55,-26,-34,-37,-63,-37,0
1490821404004,36,-122,39,127,113,23,123,120,14,70,-10,127,-59,65,89,-28
1490821404053,-10,-107,-90,-123,3,-50,-21,50,-27,7,100,85,95,76,-90,-84
1490821404101,91,125,46,102,-57,-121,-24,16,28,67,-43,-128,-128,-12,-60,-50
1490821404102,-64,127,-5,-28,-51,-114,-128,-84,116,48,15,-76,123,127,127,108
1490821404150,108,-128,-26,-98,27,3,-5,-41,-103,-128,23,-10,-33,94,-75,-53
1490821404199,12,-12,-37,-24,16,100,81,127,0,-35,48,127,84,3,-46,-28
1490821404248,45,-5,-47,-64,25,87,51,7,-47,-10,21,1,-7,-84,-45,-96
1490821404296,-51,2,1,-8,-91,44,-89,17,127,-5,22,-128,-128,-44,63,-61
1490821404297,-22,0,12,13,127,51,46,-40,79,-6,-8,59,-116,96,39,118
1490821404345,-54,-1,16,-52,-122,-16,66,27,12,-2,96,69,92,27,-108,-100
1490821404394,17,0,-50,-108,-91,-44,-119,-3,6,-2,-44,-27,66,-128,-64,-37
1490821404443,-16,-74,-15,-32,-17,2,-57,-29,-10,51,-5,-97,58,21,-10,27
1490821404491,4,-31,-67,-29,-8,-69,25,-27,4,-39,3,6,30,11,-57,39
1490821404541,-12,14,7,98,123,37,40,40,16,45,-3,-41,-13,-122,-63,-26
1490821404543,-1,100,62,91,76,127,96,-11,13,57,10,127,127,127,86,61
1490821404589,2,36,-122,-102,-78,-128,-44,-44,8,-8,92,113,-82,-35,-7,38
1490821404686,18,3,65,2,100,53,64,12,29,-4,5,77,127,122,-54,18
1490821404687,-15,6,-1,88,-47,-126,-117,-22,10,1,-90,-128,-128,-3,110,-44
1490821404735,-18,84,23,-35,-59,4,48,-15,3,60,-67,-90,-128,-128,-82,20
1490821404784,18,-2,-14,33,64,64,41,8,-17,82,-13,9,-13,81,56,17
1490821404785,6,-64,-4,-108,-86,-120,-80,-4,5,-105,0,93,84,12,-26,10
1490821404832,-16,-87,-24,-6,-38,-66,-108,-67,-15,-87,4,-113,-37,-54,45,-20
1490821404881,6,-9,16,125,127,4,-52,6,5,-50,12,125,59,97,60,23
1490821404930,23,18,31,103,2,84,75,35,11,72,45,-20,-128,24,9,-10
1490821404978,2,22,-24,-106,34,-31,-12,-14,-6,53,-3,-13,52,-50,-46,-13
1490821405027,-1,-36,-50,-55,-103,-55,-35,-16,-40,20,-72,-128,-128,-101,-60,-22
1490821405029,0,9,-68,-80,15,10,6,-13,15,-101,3,2,-62,-32,-15,10
1490821405076,5,-36,-40,50,29,27,24,13,18,-1,-1,19,58,47,32,9
1490821405125,4,13,87,67,-47,-20,-37,-17,-25,-5,-60,-90,-29,1,6,-5
1490821405174,25,61,31,9,-20,-27,-10,11,-6,124,-22,43,-10,-18,-8,-13
1490821405222,-11,-63,113,-25,-46,-2,-15,-5,-13,-128,-115,-24,41,22,10,3
1490821405226,-14,-23,22,30,9,12,1,1,-19,32,33,-4,14,13,25,5
1490821405271,73,36,66,-18,-42,0,-8,7,-1,10,-34,37,14,16,0,-5
1490821405320,-20,0,9,-6,8,-19,-20,-19,-32,4,13,-14,-63,-32,-10,-1
1490821405369,-23,4,-7,25,27,14,5,-2,29,12,-9,22,22,5,-8,-5
1490821405417,-8,-9,93,69,12,1,0,-4,1,-5,20,-32,-40,-1,0,2
1490821405465,5,-8,-2,58,12,-6,1,0,9,-8,-56,-26,10,-4,1,0
1490821405466,-34,-11,-49,-22,-16,-13,1,-7,-18,5,30,34,11,12,0,-7
1490821405563,7,4,-18,-9,5,-5,-3,0,6,5,1,-13,29,-16,-8,-4
1490821405564,13,-8,-31,-24,20,23,8,17,-5,-2,69,26,-49,3,-7,6
1490821405612,40,2,18,-5,-6,-2,15,15,-17,-7,-29,-17,20,-3,5,3
1490821405660,50,-5,-6,8,-4,5,7,5,-23,-2,38,-2,6,13,1,-7
1490821405661,-58,1,-24,-15,-5,-7,-22,-15,-18,1,26,28,2,-2,-4,3
1490821405710,-13,-1,5,-20,-21,-17,-8,-1,-15,8,32,-1,-1,-12,-2,-1
1490821405758,-45,5,-1,-33,-11,-6,5,-2,54,-11,-6,-3,7,-11,-21,6
1490821405808,-10,18,-45,-1,-11,2,7,4,-21,-10,-3,-2,-6,1,31,24
1490821405856,-3,5,-11,14,12,-2,-17,2,32,29,15,27,6,13,3,-9
1490821405904,-10,27,-14,3,60,14,31,-20,-31,40,-19,-57,-67,-79,-91,-56
1490821405909,14,-128,61,66,50,22,-1,7,53,-99,0,65,96,-13,-10,6
1490821405954,14,101,-18,-35,-128,1,0,12,-25,106,14,-3,74,-10,-32,13
1490821406018,29,15,6,68,127,17,33,-8,15,30,36,114,96,96,12,12
1490821406051,-45,9,23,26,-97,10,71,33,7,13,15,3,23,62,-49,-41
1490821406100,-2,69,37,127,127,60,23,41,-48,113,10,-1,-37,58,-32,-50
1490821406148,-59,-37,29,127,127,36,9,-13,89,-116,81,127,51,112,64,48
1490821406197,-21,-84,26,72,-118,-86,-44,-8,24,26,1,-84,50,29,83,24
1490821406198,-28,-119,-21,-33,-71,-47,-50,35,124,12,34,61,85,77,87,47
1490821406246,-39,-72,-14,28,-71,60,41,-44,53,-47,30,-1,127,-1,6,82
1490821406343,-10,8,27,8,-109,1,9,-14,-45,-1,-15,-88,-41,-113,-108,-65
1490821406344,-68,2,-87,-128,83,-128,-122,-31,82,-7,-53,-90,67,41,22,32
1490821406347,-6,29,-37,-128,-128,-102,-56,-27,-65,74,-24,-94,-57,-21,-66,-22
1490821406396,-7,-83,-4,19,99,12,-4,-35,70,-107,49,127,127,104,22,35
1490821406441,94,117,54,35,43,123,36,41,-12,70,32,99,-3,56,92,-2
1490821406538,-86,-14,-7,6,84,31,51,0,2,-41,37,58,-66,22,-38,15
