1490821855082,-30,-104,-70,19,44,-12,-60,-73,67,111,81,61,-98,-108,-55,17
1490821855130,2,-57,-5,-24,58,-40,-15,6,-46,-82,-15,13,-72,-21,-21,-11
1490821855131,43,8,5,-27,85,30,-60,-9,-72,19,-26,55,39,-46,-78,-1
1490821855179,-77,18,48,123,-70,-62,-8,10,-12,-48,-95,-109,-40,25,127,-39
1490821855228,30,-53,11,115,81,-14,-34,-4,-55,-13,45,-54,127,-81,52,47
1490821855277,51,32,7,-55,-79,-88,-27,-35,70,-17,-32,-50,56,78,48,-83
1490821855325,27,127,-18,-119,2,16,87,39,-12,105,26,81,26,-33,-30,-58
1490821855373,1,105,-23,-39,-24,23,-62,6,-36,-93,-29,39,68,52,73,45
1490821855375,-67,-78,37,77,90,-37,-23,16,50,-34,-29,35,-128,1,-55,-80
1490821855423,-81,-40,-7,-42,-128,-72,73,21,-47,7,-17,116,97,-84,39,-9
1490821855472,30,-24,-1,64,10,102,28,-44,-75,-4,-5,-109,6,-76,-59,15
1490821855520,-95,-3,25,-55,-76,-39,95,49,10,-38,-11,-128,-128,90,-44,1
1490821855568,109,-21,88,103,54,48,59,5,58,84,106,-49,-75,-128,-53,49
1490821855570,92,65,-63,-79,-38,127,-17,18,-34,-7,21,-5,42,105,-21,11
1490821855618,43,80,-40,-128,56,28,4,33,34,40,-53,-111,-39,-33,5,-16
1490821855667,-101,-91,36,127,7,-94,41,-9,-128,-128,-15,-56,-52,-97,-1,-73
1490821855763,-23,24,-6,-14,32,-64,121,4,100,86,-46,-60,-44,-98,-9,18
1490821855766,-57,-4,-25,39,-2,108,-128,-22,-56,-46,52,120,119,118,119,15
1490821855812,63,-77,-69,-38,77,-109,-63,-9,12,-95,42,47,-107,-82,-33,50
1490821855814,-32,56,-1,120,93,-68,-127,28,13,2,-35,-47,-56,64,-60,49
1490821855862,19,118,80,81,-6,8,115,-73,37,-39,-38,-13,127,81,127,-32
1490821855910,43,-61,-101,-10,-85,88,127,-23,120,0,-1,-68,-40,-69,40,-87
1490821855959,72,-98,-2,-87,-8,53,83,-61,14,-24,-63,-98,-3,125,16,-12
1490821856007,-110,-31,-76,36,-7,-42,-53,35,-27,-20,-17,104,0,13,63,30
1490821856009,18,127,127,-128,-11,76,88,-7,-14,86,60,79,10,63,65,19
1490821856057,-82,-99,14,113,-1,45,127,97,46,-117,-73,-76,0,-43,-86,68
1490821856105,-22,21,48,4,-29,96,-5,2,-119,36,-88,-84,1,127,53,2
1490821856154,-55,86,51,-37,1,-9,-70,1,-45,-23,108,12,-7,57,-30,8
1490821856203,11,21,-113,127,2,-54,-1,-29,19,2,-20,127,-59,-43,-72,-20
1490821856251,26,-6,-30,-26,-2,10,28,-104,-46,52,-72,-56,-33,16,24,-72
1490821856252,-6,7,-10,-27,73,-19,-20,17,-125,-23,1,5,28,-57,24,9
1490821856300,16,46,-24,-6,-1,71,-10,-10,51,43,56,13,2,-19,11,13
1490821856349,-16,113,58,10,3,3,-16,24,-60,21,-19,-14,-4,-1,9,8
1490821856398,27,18,-3,-12,-24,-39,12,18,33,110,-12,18,-4,-59,-6,21
1490821856447,1,-28,34,32,-1,20,-9,3,19,-50,28,2,-11,3,-7,-3
1490821856495,7,-66,-17,-3,4,-6,-24,-16,4,-7,2,19,14,6,3,-7
1490821856496,-1,-29,-4,-2,21,20,-14,-36,1,38,-7,-30,1,-14,-8,-20
1490821856544,0,-66,-14,-16,-8,3,-10,-24,3,-25,22,38,48,42,29,-9
1490821856593,32,-128,19,20,-31,37,6,14,9,-29,-47,-21,-116,-39,-44,-9
1490821856642,-7,67,-38,-21,14,-33,8,7,-95,88,4,71,9,-17,-32,9
1490821856690,27,2,19,-5,92,50,51,-3,5,1,2,7,4,-39,-38,-9
1490821856691,-89,101,10,-91,35,30,33,2,-36,53,-44,-42,-32,21,50,-23
1490821856739,102,24,-7,-24,-53,19,-5,26,108,57,-5,-20,-29,-90,74,-3
1490821856788,-66,-99,-8,-18,2,-24,5,-18,-9,-128,-14,-60,-36,17,-44,2
1490821856885,-4,-5,-15,-71,-108,-67,-13,-28,-84,-66,-7,73,86,23,-11,-11
1490821856933,-81,42,-4,-114,-127,-61,-53,-48,73,81,4,-21,26,-114,28,72
1490821856982,54,-93,-13,47,-5,-38,-56,-25,-53,-105,5,-23,31,-23,-12,0
1490821856984,33,41,19,48,11,109,-56,28,15,49,-17,31,127,68,4,-16
1490821856985,-88,14,-19,21,34,-11,34,-15,36,15,-30,73,111,66,-30,-12
1490821857032,64,4,-6,-49,82,112,19,45,-42,0,43,21,50,-53,-43,-37
1490821857080,51,0,86,58,-22,-81,127,87,16,3,-5,-72,38,94,-84,-17
1490821857129,-38,2,-24,26,127,87,-38,-49,-111,75,-27,-57,-106,107,-9,-25
1490821857177,-101,-128,52,22,45,53,63,-9,74,-111,24,63,-84,18,86,10
1490821857179,-97,42,77,92,80,-9,28,-28,109,16,123,48,102,-87,-64,-19
1490821857227,-48,-9,-44,65,-20,68,4,-12,66,22,-15,16,-8,9,24,23
1490821857275,-55,-22,-2,-15,-52,70,28,-13,-76,-17,-49,-98,-110,65,30,-3
1490821857324,103,78,19,19,3,-23,-78,29,-35,-66,-36,6,-29,-48,-51,-11
1490821857372,-65,-1,-32,-15,41,-66,-14,-21,80,-5,-19,-7,100,-124,-31,-26
1490821857373,-25,43,16,-9,-2,25,-56,-26,-23,78,14,53,-18,34,-25,7
1490821857422,57,-4,-4,-24,-28,-26,-40,1,35,-10,-12,-11,-18,-15,11,5
1490821857470,-55,-61,4,-23,25,-31,-52,-38,-5,15,17,18,-57,-11,6,10
1490821857519,0,-21,1,32,23,-116,-9,-8,-34,52,-7,-17,-22,-88,41,-9
1490821857568,61,25,1,-66,-85,-51,31,-4,16,4,-9,-9,-35,0,-56,9
1490821857665,-56,-78,-14,-69,-2,-6,-48,-20,-12,86,31,87,-50,3,21,24
1490821857666,-128,-49,41,0,99,103,25,-29,-22,5,-49,4,-128,-17,47,-5
1490821857713,-22,-56,-15,-128,21,-34,-28,-18,-31,-122,25,40,-12,92,15,48
1490821857715,-19,25,-35,-30,-50,-104,11,1,47,-92,-21,29,-1,22,-98,-66
1490821857764,113,-19,-4,10,-57,-43,-82,-26,-40,127,18,-29,46,-44,-20,-8
1490821857812,110,-40,-18,-31,87,-45,-91,1,-29,45,-23,-26,-33,-23,2,-1
1490821857908,-95,-54,12,65,38,57,-14,5,61,60,20,33,31,67,-2,33
1490821857909,-19,-50,-50,-128,-100,-36,27,32,-63,2,30,67,74,19,68,-13
1490821857910,127,-35,26,100,32,-37,64,94,-51,43,-8,35,48,-35,-40,37
1490821857958,-77,-126,-98,-99,56,122,62,-71,-63,127,4,77,-63,37,-21,23
1490821858007,-3,72,56,-55,-78,1,-64,3,26,74,-42,-71,-20,-39,-72,-50
1490821858055,127,-82,-45,-33,92,-14,63,9,-16,-82,55,90,-95,1,-108,4
1490821858056,-2,79,-47,-23,-46,-69,-54,-25,-70,124,-13,-30,-95,84,0,-38
1490821858104,41,-38,37,47,26,111,68,60,-63,-61,-31,-35,-44,-42,51,7
1490821858154,26,113,-1,33,69,-43,112,-7,37,89,40,77,10,61,-11,10
1490821858205,64,-37,21,-118,84,31,-16,11,78,127,4,15,61,38,82,-10
1490821858252,-19,-22,10,-55,-120,-93,-46,9,-43,-23,-42,-105,52,-47,-120,-36
1490821858300,-101,17,44,104,-22,-21,-34,-15,-76,-10,63,121,99,95,52,67
1490821858306,35,-8,8,-50,-8,-41,-66,-52,14,-19,4,91,19,79,50,22
1490821858349,3,46,-47,12,-59,104,-48,28,34,-6,83,127,102,71,36,13
1490821858398,0,-49,-68,-58,-128,55,97,0,15,-56,41,37,30,55,41,23
1490821858446,-15,47,32,39,-120,-54,20,2,1,-15,-26,-23,2,-9,-51,-2
1490821858494,42,-19,2,-14,34,-46,40,7,2,18,-25,-83,-51,-45,-8,-5
1490821858542,50,43,-21,42,91,-4,-76,-27,-99,93,11,76,-65,25,87,19
1490821858543,45,9,61,58,-52,67,-58,-1,12,-75,20,6,33,71,14,3
1490821858592,-74,6,5,71,77,81,17,8,-42,39,-12,-97,-30,1,7,5
1490821858739,0,88,-40,-38,35,-86,-11,-10,13,-33,1,120,0,-94,5,6
1490821858747,-38,-17,-14,-49,-59,-48,-30,-8,51,-88,-1,26,-78,-24,7,-7
1490821858750,56,90,-15,-95,-25,21,-17,-4,-23,33,23,-15,-82,-46,-14,-12
1490821858753,2,-7,38,11,10,-5,24,25,55,96,81,6,-32,-26,34,10
1490821858788,-34,-16,-42,34,5,30,-4,-1,-61,-59,-66,2,-67,51,23,0
1490821858836,7,-30,25,120,61,56,-24,14,-28,23,115,-110,-112,38,-63,-18
1490821858884,84,48,-11,-69,-49,-26,11,0,33,5,-88,-120,58,48,19,-27
1490821858933,5,-49,19,30,-64,37,120,-15,-70,-62,-24,-66,6,4,62,-2
1490821858981,21,-45,12,41,23,-9,-57,18,-25,-27,-8,53,66,26,-45,4
1490821858983,-30,27,-29,-22,8,-28,-19,-16,37,-46,-77,27,29,17,14,-2
1490821859031,-21,-15,-4,-3,25,27,22,4,-11,9,-47,11,-8,10,14,16
1490821859079,-24,-50,12,29,15,-27,8,-6,-9,28,7,-9,-12,-51,10,5
1490821859128,-65,-6,0,0,3,7,-3,-6,69,67,4,0,-12,29,0,37
1490821859176,62,26,-15,-14,-12,-10,27,0,43,10,16,8,7,6,20,6
1490821859178,71,-15,4,-26,0,6,-24,31,18,-57,-7,-12,-5,-5,-1,1
1490821859226,-128,14,2,22,19,37,24,-7,-128,-64,2,-21,-29,-12,-21,24
1490821859276,-92,7,-11,16,0,-74,-71,-45,-70,-113,3,5,3,2,6,13
1490821859323,-31,-84,-12,11,-8,-59,45,34,-41,14,3,2,2,61,46,-3
1490821859372,-2,-88,7,-48,-59,-5,-79,-11,-2,0,-17,-8,-43,-35,42,-3
1490821859420,32,108,6,77,95,48,25,21,37,42,-5,-59,-77,11,-27,6
1490821859421,-44,66,47,115,30,76,22,2,20,-9,-25,-77,-39,87,63,-4
1490821859469,-31,39,43,-6,40,43,98,-2,-38,-3,-1,12,-55,-90,-5,2
1490821859520,44,-31,-22,-35,-128,-111,13,-1,7,-24,14,37,95,-5,-10,6
1490821859567,20,15,8,23,93,54,-48,16,98,41,-9,-80,-63,-9,-35,-19
1490821859615,28,2,-14,-8,-52,0,43,24,-21,-29,38,97,126,-26,-21,6
1490821859663,-5,-31,-22,1,62,-37,-49,-31,-28,44,22,59,91,15,85,29
1490821859664,2,12,30,-2,6,-102,-57,14,-2,1,-18,-32,19,-62,-17,-20
1490821859713,23,5,20,105,-106,-76,10,0,-117,57,0,-87,-112,-58,21,6
1490821859761,70,45,-31,-33,49,-13,-27,2,-7,25,25,127,33,48,31,-12
1490821859811,114,4,-62,-66,-105,-128,11,-8,-4,-4,14,-83,-7,-62,-3,-10
1490821859859,-43,85,94,10,67,-1,-7,15,-70,61,38,101,47,76,-10,-37
1490821859860,12,-83,-51,-128,-13,-72,64,-9,83,-19,-44,49,-19,-66,-10,4
1490821859956,-86,-93,41,20,77,127,16,-7,24,-28,23,54,-23,-26,38,14
1490821859959,57,11,5,25,-28,-6,-76,-53,-11,-14,23,58,-11,127,-6,7
1490821860005,-61,-7,-62,24,17,88,30,9,12,1,30,59,-81,31,6,15
1490821860054,30,23,57,-4,38,55,35,-5,21,47,31,52,12,26,11,11
1490821860102,-21,-47,-46,-95,-72,-50,-20,-13,11,17,-11,-53,12,-7,-39,2
1490821860103,-72,9,12,8,58,-33,-8,18,85,-34,-69,-8,-37,-58,-72,-8
1490821860151,-37,6,-40,11,-114,111,-14,-16,48,10,-20,60,-99,127,20,23
1490821860201,-38,-16,-3,-9,38,-45,-48,9,39,-84,0,-65,41,-45,-24,27
1490821860249,-18,-19,0,7,-51,55,22,-6,-39,19,23,32,-9,35,39,5
1490821860298,-45,6,9,22,-31,-45,-14,-31,57,21,1,-2,28,-40,-24,3
1490821860346,-21,-14,-15,-57,-57,37,-4,-10,-22,-32,-28,-4,1,70,15,-1
1490821860348,-7,-3,-4,30,15,-20,-6,-2,-52,3,33,6,10,17,-95,-53
1490821860396,-8,53,25,25,19,-50,-80,-41,15,72,-2,5,-40,-39,-15,6
1490821860444,123,-65,-18,79,-98,127,105,57,-79,-14,-26,-83,-32,-89,14,32
1490821860495,-100,71,11,32,-33,-68,-36,24,8,5,-13,50,115,49,-24,-8
1490821860541,32,40,-42,20,2,22,-54,-32,-102,-22,10,-29,8,-92,-103,14
1490821860542,37,-37,33,109,17,66,103,1,-41,16,-8,-76,-128,-128,-32,-7
1490821860590,-63,-30,-4,32,-29,-28,-21,-13,-8,20,-3,72,82,71,43,-4
1490821860640,-51,-45,-17,29,40,-57,42,10,61,26,-26,-86,-73,-76,-79,-66
1490821860688,116,127,4,54,-78,61,105,8,-127,-91,34,-105,-29,-85,5,-16
1490821860737,39,127,56,1,89,76,65,31,-35,73,-40,-18,47,-68,-72,-21
1490821860785,-70,-20,7,-51,43,-94,-101,-103,-44,-115,-53,56,127,127,2,17
1490821860786,121,127,-17,105,-84,38,-31,34,-2,84,58,39,120,43,-28,44
1490821860834,13,3,-32,-97,51,20,-61,-10,-41,53,54,69,-128,59,36,-11
1490821860932,-107,71,-21,-110,-103,-6,112,18,121,-39,-23,-10,2,-128,-91,-14
1490821860934,-25,-128,-55,-118,-128,-97,-31,78,114,-68,-86,-28,60,97,121,-30
1490821860982,-50,-106,8,-52,-104,-12,24,-54,-28,-1,6,-65,127,-80,1,-62
1490821861029,-26,-27,-24,89,65,-35,80,23,7,-28,2,98,-54,50,-128,43
1490821861030,-15,34,96,66,111,-18,23,40,42,-39,-68,-78,-17,-69,-52,-23
1490821861078,-7,-14,-6,93,13,101,82,87,9,55,49,-66,-8,-50,31,-30
1490821861127,23,-27,-10,-78,-71,-86,-94,-12,-16,-4,38,51,29,-21,-13,6
1490821861176,-4,-22,-17,71,127,51,-26,2,15,14,19,127,-18,122,9,28
1490821861224,-26,59,51,-7,42,-16,62,7,23,-17,-73,-128,-46,24,-58,-16
1490821861273,-71,-19,-42,-98,-10,-39,55,-12,105,-7,-21,18,-101,-114,-97,-44
1490821861276,47,-24,-3,-62,-40,-10,10,2,10,13,-14,84,106,-5,15,-6
1490821861322,72,11,-37,115,35,60,-17,21,-7,8,36,-110,-49,38,5,-2
1490821861373,-1,-17,102,62,99,89,-26,15,-2,-10,101,25,82,117,39,37
1490821861419,-25,43,-36,24,-23,-88,-29,-25,30,-45,-3,74,100,-66,-32,12
1490821861467,-47,-68,-65,-114,-71,0,65,-2,1,-15,8,5,11,-1,48,3
1490821861468,-33,-5,16,104,-113,-4,-22,13,-81,-57,1,32,-127,-14,-13,-2
1490821861516,-23,15,35,9,-37,98,29,-13,-28,-22,-58,-128,-39,4,43,6
1490821861565,-89,-112,-9,56,127,107,67,16,69,45,6,-108,55,-45,-38,-27
1490821861614,58,-43,83,21,28,76,127,0,-50,-104,-29,-2,1,36,47,-21
1490821861663,-40,14,-12,86,-79,-40,-102,-6,3,33,-28,14,-34,-38,-107,4
1490821861665,-12,-66,-14,-26,-60,4,-64,-5,-12,-128,26,46,-18,0,-20,6
1490821861712,-13,86,-45,-7,-1,9,10,3,-107,-84,35,12,65,29,25,26
1490821861760,26,-36,21,27,14,9,17,-24,89,-50,-33,18,33,11,19,16
1490821861809,67,-58,9,4,17,27,0,-1,14,70,15,-46,-9,-9,0,13
1490821861858,20,15,0,-21,1,-21,15,6,56,38,-15,27,22,33,19,37
1490821861906,121,56,62,-35,-17,-10,-10,-6,18,-8,-61,-36,-3,23,9,-2
1490821861907,-70,-19,-32,8,14,25,10,-28,-21,64,64,26,0,0,15,27
1490821861955,115,0,11,4,-11,22,-1,-4,106,-14,-43,1,-19,2,-3,-22
1490821862005,-2,-91,-28,-13,-13,-2,19,16,-113,-59,-9,-6,-8,-26,-38,-29
1490821862054,-116,78,-15,-27,-19,-14,-41,15,-88,64,28,19,-2,-11,12,17
1490821862101,-19,-74,-6,-3,-7,-22,15,0,-2,-47,39,45,43,19,-30,22
1490821862149,-1,47,-26,-22,-42,-16,19,12,1,51,-10,3,21,13,-40,-51
1490821862151,-1,84,2,66,9,-26,16,19,0,-37,-11,-45,-37,28,4,-7
1490821862199,-1,53,18,-24,-47,-60,-33,-9,0,41,-3,98,86,19,-14,-17
1490821862248,-52,-17,-30,42,93,-29,6,-7,-1,-31,4,-121,-14,56,13,18
1490821862297,-25,71,-9,-67,-96,-10,4,-32,56,61,13,100,81,16,24,17
1490821862345,111,-51,-45,-128,-74,78,-10,12,-63,-8,40,86,14,53,-7,-15
1490821862346,-49,-28,32,-8,-55,-51,-30,32,-128,-33,-10,-72,26,-61,-73,-60
1490821862395,0,-25,-28,21,-26,-18,-18,-3,-112,10,-5,-48,43,-96,-57,-24
1490821862443,46,46,44,78,92,14,5,-6,91,23,27,9,-22,-97,-9,17
1490821862492,-84,11,-44,56,21,23,30,-17,55,-3,-68,-72,-128,50,20,0
1490821862540,30,4,-4,-90,-69,-17,-32,39,-86,-2,-20,15,-63,-45,-13,-71
1490821862588,24,92,5,49,88,26,-70,-7,-72,89,34,59,5,3,38,10
1490821862590,48,-5,8,8,-55,-62,-65,-32,9,-82,0,70,70,68,57,31
1490821862638,107,35,50,-21,-110,98,-5,-13,13,-55,28,25,-26,67,8,33
1490821862686,-60,-25,52,32,59,-41,34,-24,9,25,40,17,31,79,-55,-15
1490821862735,-45,44,-12,16,15,-50,65,74,-17,62,28,44,1,-61,0,-20
1490821862784,41,44,8,70,-62,22,-39,-18,-74,-64,-10,-65,-98,100,-62,-44
1490821862834,-39,-49,-27,-30,70,-80,9,-29,-13,-18,-3,-16,105,-64,-13,-22
1490821862835,101,22,25,6,-14,71,67,42,-53,26,-39,-17,15,7,-11,-16
1490821862881,-15,-10,3,63,1,-110,24,-4,-29,22,7,-10,73,-128,-14,-11
1490821862930,-59,-11,-46,-88,-60,-91,-31,-39,-76,16,22,-5,-54,-36,-12,-10
1490821862979,-73,6,1,22,-58,10,-57,14,55,10,14,74,-58,-53,35,28
1490821863027,79,20,8,82,-65,90,-15,-8,39,-28,-4,-26,-22,72,8,14
1490821863028,48,43,-7,-31,-2,6,10,-8,15,-20,-31,-95,29,92,72,51
1490821863076,-87,41,51,37,93,0,-6,-44,72,-67,-12,40,-21,38,0,34
1490821863126,-43,-74,7,-23,67,-20,24,13,92,71,9,19,-83,-79,-14,14
1490821863175,71,-55,-19,19,11,6,-42,-10,-77,-38,5,67,93,-87,-38,-23
1490821863223,-64,-43,9,68,7,120,98,30,61,-87,-73,-112,92,-39,-14,19
1490821863281,124,48,81,127,80,88,29,127,34,121,17,41,-128,-90,-2,-27
1490821863281,39,-22,-57,-73,-4,-30,-19,34,-87,48,-26,11,74,26,35,-53
1490821863320,-89,-92,-20,-62,-67,-118,-128,-105,-66,4,-72,26,-97,77,32,-1
1490821863369,24,-26,24,-57,47,126,38,-69,-35,63,43,40,-83,-78,67,87
1490821863418,73,-11,28,61,-2,119,-55,5,-82,-42,-9,92,94,-87,48,-13
1490821863466,-59,87,-14,54,-128,-128,-13,-84,99,62,16,-118,109,88,81,107
1490821863514,105,76,29,34,-57,-9,-54,-40,-105,35,-14,-55,27,-18,-116,2
1490821863516,-82,-30,40,-43,-85,-39,-16,-12,-3,-48,-60,-49,79,-91,44,7
1490821863564,-77,87,-63,-56,88,102,127,-20,-71,8,9,16,28,69,-68,-48
1490821863613,-92,40,-26,-21,106,-88,-71,-7,2,-51,23,26,1,45,33,-36
1490821863661,16,-123,-35,54,72,46,-88,41,-7,-99,22,41,-89,-22,85,81
1490821863711,-87,100,1,-82,-5,122,44,-77,62,84,-65,-37,-105,-94,-11,33
1490821863714,21,-74,-29,62,-128,-78,-79,66,-67,-53,-9,3,127,14,-67,-37
1490821863759,17,-28,-58,-128,-47,-128,-1,-61,1,7,-52,101,8,-41,-17,12
1490821863808,-54,3,127,-32,-74,-21,-108,0,2,-8,9,-24,-36,-13,91,57
1490821863857,73,-18,116,108,76,83,-78,15,18,-5,-61,-63,-38,-64,12,-23
1490821863905,20,-38,6,127,20,23,70,4,6,-11,0,4,19,8,-77,19
1490821863953,7,33,-50,-128,-56,-18,-27,-24,23,-44,-50,76,33,-57,37,1
1490821863955,3,29,-12,-70,-14,3,20,-31,4,10,8,4,-68,24,6,19
1490821864003,-32,-26,6,61,12,49,-1,-7,-33,-18,30,120,22,96,33,13
1490821864052,8,-75,-53,-108,29,12,14,5,26,-76,-67,-121,-73,-21,-21,-25
1490821864101,-77,-2,-23,63,5,12,1,1,-68,-22,2,83,16,22,22,6
1490821864149,44,20,-13,63,103,76,42,16,10,-8,-33,20,-65,7,3,-5
1490821864197,103,-102,-29,74,1,-61,-20,-2,40,-3,91,95,17,-68,20,30
1490821864199,-17,18,-3,-15,-12,-115,6,13,-64,61,57,2,24,-99,-2,-18
1490821864247,38,89,-13,32,-45,70,35,26,57,75,-24,42,-52,71,-13,-14
1490821864295,14,-112,-43,34,52,52,-7,19,-97,-77,28,-17,30,44,-9,-1
1490821864344,-11,-63,76,56,3,21,0,-25,-69,-77,-59,-80,-23,-42,6,-11
1490821864393,18,50,-73,21,-64,28,29,47,-116,93,-20,-78,-20,-16,20,-18
1490821864394,-51,3,13,-33,-18,-11,2,-9,29,62,51,11,31,-9,2,31
1490821864539,19,-31,-74,-33,-4,-11,-33,-17,-1,-18,37,23,-15,-3,-29,-8
1490821864540,-7,-32,76,1,-37,-31,-28,4,9,-56,-41,7,-1,-6,-12,3
1490821864541,-127,26,-41,-7,3,-18,-1,-1,-34,-25,11,-21,-20,-3,-9,4
1490821864589,-1,-11,25,12,-18,-21,-1,-21,-14,-55,19,9,0,-8,11,3
1490821864636,28,-5,-6,12,16,21,2,-26,1,31,8,-6,-3,-15,0,-7
1490821864637,-26,44,-24,-6,12,25,8,4,44,19,-28,43,18,14,-4,5
1490821864685,118,-46,-14,5,-3,19,3,-5,85,-31,-1,-24,-14,3,-14,-10
1490821864734,-128,20,-35,-12,-11,-17,-52,3,-119,46,-11,4,-12,-7,18,1
1490821864783,-46,-86,-30,8,-4,5,9,-3,-38,8,8,-22,-22,-14,20,10
1490821864831,-11,127,21,24,-3,19,-22,-7,-3,-68,-29,0,-19,-24,-28,-1
1490821864832,-4,-128,9,-16,-32,-96,-8,-17,-1,-5,-14,-19,-28,-4,17,-32
1490821864882,-4,50,9,-59,-45,71,5,8,0,-3,-7,14,14,-8,-52,-60
1490821864929,-59,17,-3,-61,-126,2,-7,19,-42,-70,17,34,113,7,9,-24
1490821864978,-27,-68,-3,67,19,96,96,3,8,-3,-5,-41,-49,-106,-16,8
1490821865027,-2,48,24,44,97,28,4,6,60,45,-8,1,-64,38,20,30
1490821865075,30,-29,8,-66,-13,19,-73,-38,-28,-18,-25,-59,-77,62,88,30
1490821865076,23,35,6,54,35,80,46,16,44,39,-2,80,118,-69,-9,21
1490821865124,-11,46,0,119,44,-102,-50,-11,3,56,-5,-16,18,-6,12,30
1490821865173,127,21,5,26,63,-42,-73,-1,12,11,-53,-38,-32,-16,1,-30
1490821865222,17,5,-10,-20,4,-54,-86,-66,-64,-2,6,-48,-33,18,-8,13
1490821865271,-86,4,46,3,-62,8,18,33,-65,2,4,-31,38,-68,-28,-3
1490821865319,51,1,26,-14,34,-48,60,3,-2,1,37,36,-10,29,16,43
1490821865320,-31,15,-1,-53,13,-18,33,-15,-18,-5,-30,-39,-39,-27,-28,-28
1490821865368,64,-28,-44,-7,5,38,87,-3,65,-5,-13,10,-6,-60,9,67
1490821865417,58,-4,22,-5,-24,-28,0,0,93,14,47,43,81,-30,-8,66
1490821865465,50,8,-39,-13,-45,-53,-25,30,-26,-14,-26,58,-5,-57,8,-40
1490821865513,-70,-2,3,0,-31,70,16,-3,-51,-24,-6,-5,-108,95,-15,-32
1490821865514,-117,-5,21,24,45,-30,-14,-21,-64,15,24,5,127,3,-9,17
1490821865563,65,-48,-21,14,23,54,-8,4,-14,-11,3,9,60,45,-40,-48
1490821865612,-67,21,27,1,-31,-57,-21,-12,38,-16,-10,-81,21,-91,-26,-6
1490821865661,26,-83,-20,12,9,48,-18,1,49,-39,15,45,11,71,-15,-17
1490821865709,51,-34,0,19,91,127,-2,-1,7,-26,5,-7,70,2,7,4
1490821865757,-67,10,4,19,4,-105,-8,11,26,21,-22,-48,25,-66,-26,-21
1490821865758,113,-98,-11,-118,-1,103,35,15,-78,48,3,35,7,46,-26,-55
1490821865807,-84,21,-17,63,54,-13,-5,17,69,-24,4,51,16,44,-15,1
1490821865856,-66,8,36,25,127,-78,-33,-47,75,-13,-44,-97,-128,126,72,-10
1490821865904,-80,34,85,90,112,64,-72,-36,-39,101,84,127,-84,-94,6,45
1490821865953,25,-78,-13,-106,-125,-46,-104,-15,-70,68,-19,-49,-13,-41,70,-1
1490821866003,-57,26,-31,51,99,-66,-65,1,-23,109,42,27,-64,-13,-38,-57
1490821866004,-104,-62,13,77,74,111,32,14,127,87,31,78,80,-50,83,12
1490821866051,-70,81,36,-38,3,116,55,-81,-128,122,-2,-23,-128,-109,-69,70
1490821866099,20,57,101,91,-128,56,-15,67,-69,42,-128,-128,-19,-66,-96,-75
1490821866148,88,89,-73,-42,26,64,120,49,14,-111,22,27,19,-90,-111,-86
1490821866196,14,108,35,87,-72,29,41,13,-90,67,-34,-128,120,66,14,30
1490821866198,-1,-122,-50,-119,126,-11,13,-41,-92,-73,19,118,98,-3,73,14
1490821866246,-50,127,-5,38,23,96,92,6,11,-1,-10,11,-38,-69,-16,-60
1490821866294,122,85,-34,57,-128,48,7,35,-126,95,38,-66,118,101,92,108
1490821866343,-43,-109,12,-50,-49,62,17,2,-65,-81,0,69,48,91,85,-4
1490821866392,-63,79,-35,-80,30,-120,-94,44,37,59,-13,57,-10,127,22,-13
1490821866440,-12,-98,37,127,-70,39,105,-26,23,-66,34,-99,-128,-128,-83,-6
1490821866443,-72,-3,-46,-128,-128,20,-31,33,77,0,16,92,89,-123,-119,-33
1490821866489,-88,-1,-17,-32,108,86,115,-17,-97,-2,-74,-31,-44,-45,-1,2
1490821866538,0,1,-56,-104,-128,-128,-128,-15,-24,1,-38,-56,-2,25,0,-27
1490821866587,69,1,-2,-3,80,13,9,2,-125,-4,-14,-46,-40,-5,-21,15
1490821866636,15,-2,63,127,46,53,-6,10,93,-1,-27,-44,-20,-6,-5,1
1490821866684,88,-1,-21,61,22,57,28,25,89,-20,127,15,-73,-23,-35,-1
1490821866685,26,-14,76,51,-75,-31,-58,-23,-17,-22,-96,127,82,127,59,22
1490821866733,14,42,13,103,113,71,36,15,0,90,32,-86,-44,-41,-12,2
1490821866782,3,37,-13,-25,2,-43,-25,-9,-26,-5,-46,17,45,61,49,24
1490821866830,3,-54,8,112,107,56,33,18,-1,-6,35,-62,-86,-67,-54,-8
1490821866878,-58,-30,-41,-75,-112,23,5,1,-29,10,72,71,-18,71,11,-5
1490821866880,-112,-50,-47,-51,85,-24,-12,14,-93,-122,-102,-11,116,-70,-36,-17
1490821866928,31,39,20,-128,-51,-38,-11,-7,101,25,-68,57,-45,-24,9,-5
1490821866977,-5,108,-39,-52,-5,4,-3,-8,-16,60,18,1,-27,13,1,10
1490821867025,39,70,-29,-17,11,67,-15,19,-94,74,68,-56,-27,44,-4,-5
1490821867074,-49,114,36,2,-46,-36,-1,-25,-84,-36,0,50,98,25,32,20
1490821867122,-77,-62,39,64,57,14,16,3,-73,-58,-47,-15,-2,5,-20,-6
1490821867124,26,-27,-35,-18,-25,12,-5,-4,-15,-20,51,33,-17,15,14,19
1490821867172,28,-107,-36,-25,34,45,13,33,-47,-66,29,61,-4,23,-8,-11
1490821867220,11,8,6,5,28,11,-3,-21,-11,-38,-28,-30,3,7,4,33
1490821867269,-72,42,10,9,-9,-7,-2,-12,-32,82,-42,11,4,11,-8,-30
1490821867317,-18,42,30,4,5,1,4,11,-92,-53,25,24,20,24,4,-5
1490821867318,85,-31,-20,-14,6,-12,-9,-13,70,-122,46,19,4,-17,-8,4
1490821867366,-72,-35,60,2,4,-8,2,-2,67,-23,7,16,10,-3,5,7
1490821867415,63,-4,-12,10,-1,-2,-8,17,-74,-20,19,11,2,5,8,-15
1490821867464,-90,-120,-52,-14,2,9,6,11,-88,-94,-2,-11,-2,3,-9,-4
1490821867513,-37,23,5,-6,-8,2,6,8,4,-25,-36,-21,-15,-1,3,-1
1490821867561,-3,-25,-1,0,0,-1,26,-2,8,0,5,-4,-19,-14,-15,-13
1490821867562,-5,3,6,-3,4,79,-4,-20,-1,127,17,8,-18,-61,-35,34
1490821867611,-89,55,7,-10,-17,-1,-11,-17,-26,32,11,4,5,-52,-11,-10
1490821867659,52,-31,-4,21,-35,-86,-22,24,-54,3,17,69,21,-72,-54,-66
1490821867708,14,16,34,43,76,92,0,-7,-80,-80,-34,-93,-68,-4,49,23
1490821867757,102,21,-1,67,58,-109,-83,18,-46,-37,4,-20,-22,32,10,-16
1490821867805,-104,-97,-23,-93,-22,-6,-58,-24,54,-9,40,22,-1,83,66,32
1490821867807,-83,-88,-13,-41,24,42,55,-43,59,-84,-9,19,50,44,43,17
1490821867903,-57,35,-20,-121,-76,-16,6,-37,15,52,-25,42,13,28,34,31
1490821867904,26,16,9,55,76,31,16,10,6,18,12,79,89,40,96,15
1490821867952,35,6,-19,-59,37,-72,-53,-25,-4,6,10,5,-16,59,54,39
1490821868000,-9,3,5,-23,20,17,-54,4,-14,2,-3,4,-42,-103,-67,-49
1490821868002,-90,1,14,11,-57,21,-49,-13,-86,1,-4,19,-15,-4,-2,-1
1490821868049,-90,0,-33,48,17,-17,-9,-20,-76,1,59,30,2,77,22,-42
1490821868098,-40,6,22,9,-37,37,25,8,-36,-121,7,36,112,44,-93,-5
1490821868147,17,11,-17,51,98,-18,52,-1,122,42,18,19,-10,-82,-21,-12
1490821868195,-92,-30,-12,74,27,-74,-29,-28,-96,-128,0,116,23,-17,66,17
1490821868243,-35,-85,37,59,104,110,122,94,17,9,-34,-45,18,-51,-14,-27
1490821868244,-44,11,15,-36,-27,-83,17,-6,127,28,-1,6,-33,-58,4,21
1490821868293,-20,-4,10,-5,18,-14,3,20,-60,23,-30,-45,-18,-18,6,1
1490821868342,0,-30,0,-23,-36,-24,-11,-26,-113,-35,11,12,-1,40,10,-2
1490821868390,-5,65,-4,21,20,0,-6,-15,-34,23,28,38,30,33,15,14
1490821868439,-55,29,16,53,-16,8,37,4,40,-91,-23,-97,-37,-2,-24,-2
1490821868487,10,-68,-30,2,-8,75,-61,0,-48,18,27,18,9,34,79,33
1490821868488,79,-34,-40,-35,20,-97,-73,-16,-30,66,25,70,28,-80,1,11
1490821868537,57,104,10,57,33,-51,-23,-47,39,-57,-5,0,-46,33,-27,12
1490821868586,-76,-40,-68,-6,15,-69,-23,12,-5,-52,32,3,-31,51,56,10
1490821868634,-93,-16,-11,100,-99,-44,-51,-50,31,-39,-14,-17,-85,67,10,32
1490821868682,44,-2,-76,-128,-123,-64,-48,0,-40,-37,-27,-82,15,-21,45,-9
1490821868684,-72,46,-11,-82,1,79,-15,4,42,61,16,45,-111,-10,24,-7
1490821868732,-51,-128,-5,-128,-21,55,39,-3,-8,33,-57,102,56,-36,-21,10
1490821868781,-32,59,-37,119,-12,-99,-43,-19,-15,-62,-52,-95,-128,32,-9,13
1490821868829,71,-48,-66,-108,-46,-65,79,6,-97,-14,30,34,79,0,-89,-110
1490821868881,83,-103,-6,-33,-128,-120,-96,-13,-46,65,-32,55,93,45,32,-53
1490821868926,86,120,56,127,-66,122,127,-41,-27,-85,-6,-125,-2,-128,-39,71
1490821868928,32,54,85,84,127,-31,-41,25,-88,-98,-52,-49,-128,36,122,-28
1490821868975,-21,58,-11,67,108,9,28,43,-38,95,18,37,-86,66,-52,4
1490821869024,-82,56,-25,42,-128,127,-47,-26,124,57,79,76,-33,-123,-7,43
1490821869073,-40,-55,-86,-128,-51,-115,77,46,-19,-119,-58,-42,98,-1,-73,-9
1490821869121,-128,85,87,75,-92,46,49,33,-30,103,-40,-119,47,-95,-84,-50
1490821869169,115,13,29,72,26,54,-45,-2,59,22,78,1,6,127,-44,76
1490821869171,-122,-53,9,-128,-86,-77,-127,4,64,-51,-47,-26,77,-22,100,1
1490821869219,11,-8,-90,-128,-31,-91,-8,-6,63,-21,29,126,41,117,22,74
1490821869270,7,-13,-13,-30,-84,-19,90,-59,98,-4,3,91,-15,41,-14,14
1490821869316,14,-5,96,28,94,59,-43,-1,13,-3,-9,-14,-121,33,-26,25
1490821869364,75,-32,51,-26,84,26,53,14,49,-35,-29,94,-13,63,34,14
1490821869366,15,54,-18,-58,11,-44,46,4,3,44,37,16,-79,7,-40,-28
1490821869414,-5,-14,49,127,-32,-13,23,-15,14,36,-12,-66,9,-10,6,25
1490821869463,-4,9,-52,-126,-119,-19,-36,4,-11,7,56,48,15,30,5,-6
1490821869512,55,-55,-38,-13,24,27,25,19,-3,-41,-15,97,22,-9,4,-6
1490821869560,-43,25,55,55,19,-12,-6,0,-59,22,-98,-90,-67,-71,-23,-17
1490821869608,12,-3,98,87,32,31,22,11,-110,-2,-33,-19,2,-12,-26,-5
1490821869610,-45,-37,-78,-69,-15,-27,-10,-23,15,-10,-73,-1,17,9,9,23
1490821869658,9,92,-30,36,-1,-5,-17,-12,100,123,20,25,47,12,-10,9
1490821869707,11,-81,-62,6,-52,-20,-2,-15,-19,-48,108,20,-2,-15,7,2
1490821869755,-85,-32,31,-1,35,-82,8,-17,37,39,28,12,22,-78,11,22
1490821869804,127,11,-72,52,9,46,11,-2,84,17,-63,-9,32,52,20,8
1490821869852,-41,-34,-26,-25,-2,2,3,0,39,65,18,26,2,-39,-19,5
1490821869854,18,52,49,25,2,-29,-1,-1,-95,-78,-64,27,32,43,22,-7
1490821869901,-100,31,-32,27,30,24,13,12,94,85,88,-68,-27,-3,-9,27
1490821869950,38,51,20,-70,-27,5,-3,-2,7,39,39,32,-3,7,7,-2
1490821869999,-58,-40,-24,-7,20,7,-5,-12,-3,-64,-4,40,16,1,4,-15
1490821870096,67,-94,-80,1,14,8,6,6,-25,-79,62,50,22,8,21,16
1490821870098,-66,-36,53,40,7,-5,-5,1,-107,60,30,-62,-19,-2,-11,-4
1490821870099,-80,49,-15,-14,1,5,3,13,-65,-128,-16,53,32,15,5,7
1490821870145,-79,-7,-6,-13,-5,18,-3,-7,0,-104,14,31,10,8,1,5
1490821870194,-101,-117,-9,-41,-9,1,-5,13,-73,-31,15,4,-8,5,6,10
1490821870243,52,-114,13,6,3,5,11,13,-39,-103,39,15,-11,-14,-16,-24
1490821870291,-37,-24,66,23,-8,-1,3,17,-39,44,-4,3,-2,3,4,-3
1490821870293,-3,-8,15,16,2,10,1,7,-9,-41,-13,-1,6,1,-6,-2
1490821870340,1,23,-13,4,3,-19,-18,9,3,-26,-7,10,-4,-11,-10,-11
1490821870389,18,-113,14,8,7,-79,-10,-5,-66,-86,-25,-59,-43,15,39,-11
1490821870438,-9,-109,31,46,65,-61,-72,-11,-55,-36,-1,-10,-15,20,-4,-26
1490821870486,24,105,15,-55,-56,18,-4,-14,-5,89,17,127,120,36,28,-1
1490821870488,3,27,11,6,13,-43,-93,14,90,19,-1,-48,-117,-33,5,25
1490821870535,-10,25,-41,-51,-128,99,38,2,-85,33,5,-83,-20,-116,-11,-11
1490821870584,-3,-114,-37,-120,-66,-48,-14,0,-83,-76,-3,72,-57,57,55,-11
1490821870634,-10,73,52,72,44,64,-127,-18,127,76,-47,-22,35,18,32,16
1490821870683,-12,-90,-55,9,-20,-114,-65,-21,-30,-112,-2,-23,-78,-103,-66,-75
1490821870729,-93,19,31,104,127,19,59,1,-26,23,25,12,-17,-9,-22,13
1490821870730,-15,-4,54,-32,-101,41,1,13,-93,8,-6,3,4,-20,59,-30
1490821870779,87,-2,-13,34,34,64,-43,-2,-33,3,-4,113,62,60,24,18
1490821870828,-4,-3,36,-5,-76,-26,3,-39,-108,0,15,-42,-55,-13,-20,-14
1490821870877,-23,28,3,-63,-8,-8,-22,-24,74,29,3,24,28,-3,-32,-16
1490821870925,81,-54,-40,-26,-78,-46,-16,28,14,-86,-39,-74,-62,-92,-22,-55
1490821870974,-6,66,-2,31,24,-37,-15,5,73,-15,-4,-42,-54,-43,-11,-17
1490821870976,24,4,-11,-4,-51,-33,4,2,60,24,34,24,19,8,-6,11
1490821871023,-83,-57,14,-12,-21,-3,18,35,5,62,37,51,-28,-2,-10,-24
1490821871072,20,23,-13,-44,35,-69,-44,-26,-128,-45,15,67,33,80,90,30
1490821871121,-40,7,-40,-23,10,-46,-78,-10,-78,14,19,-22,16,-15,0,-6
1490821871168,50,6,-3,-5,-8,15,29,23,-113,3,-12,3,-24,-73,-35,-40
1490821871170,58,-25,-2,-11,0,-11,-28,32,-87,10,14,9,0,-17,-21,-15
1490821871218,-84,7,-14,-16,21,-26,-19,-17,-20,-41,-22,-13,3,11,10,-5
1490821871267,32,-10,-36,-73,-66,-46,-46,6,6,1,9,-56,24,-11,41,6
1490821871318,-80,-12,5,-19,71,-70,-69,-34,-54,52,2,95,6,-60,-51,-47
1490821871365,76,85,36,105,33,-69,-5,32,-26,91,-38,-38,-45,22,4,-43
1490821871413,-127,-32,-15,-3,3,-50,-52,-32,-11,19,-6,58,94,78,65,8
1490821871415,54,-48,-26,25,-80,106,96,36,66,-95,-3,-2,51,0,-51,47
1490821871463,-102,121,30,98,-29,-19,3,-52,-77,90,-27,-62,82,-38,6,-28
1490821871510,-34,68,-16,66,-113,-61,-32,-21,35,-78,-32,-85,-81,-7,-28,-24
1490821871559,-91,16,-14,38,-85,13,-67,-35,75,-6,49,11,-7,-33,61,20
1490821871608,127,-128,10,-47,98,91,33,26,47,64,14,30,70,-29,-24,29
1490821871656,101,-37,87,19,-80,127,-2,-40,-62,61,-2,-25,60,-7,79,42
1490821871657,-15,-22,14,-37,31,13,-104,20,-85,-84,-31,-84,80,16,35,-30
1490821871705,-85,127,-29,-4,127,-53,35,7,-9,40,-49,84,-83,-68,-27,-35
1490821871754,-24,73,35,64,44,89,71,39,10,34,-37,-32,2,-61,12,82
1490821871851,127,-114,-10,-33,-94,23,53,108,-87,59,46,-30,-57,47,-44,-51
1490821871852,-53,109,-12,46,-128,17,-58,-26,-33,55,-69,-72,-57,-34,-62,-18
1490821871900,-23,-110,-54,-82,-73,36,-27,-84,81,21,0,-19,127,127,127,127
1490821871948,79,67,37,56,-128,55,105,113,-76,89,-11,-35,127,3,-87,-79
1490821871950,118,-92,76,110,127,114,0,28,-52,-51,11,127,-119,-45,-28,22
1490821871998,-80,-14,-16,-114,-77,22,34,-46,88,-23,50,-21,82,90,49,59
1490821872047,-91,-16,-17,-96,-106,-86,-52,-21,70,-3,-6,48,96,1,-28,-58
1490821872095,70,-4,-27,-29,45,-76,30,20,-48,3,65,110,108,127,103,-6
1490821872097,18,0,82,-53,-127,4,74,25,29,-3,-76,96,58,43,-105,-36
1490821872144,-10,-9,69,89,127,21,-94,11,-43,-82,-125,-128,-107,-51,-58,3
1490821872193,17,4,85,106,27,108,127,17,18,12,44,-26,-128,-37,-61,14
1490821872242,-17,21,5,-40,-80,-43,41,19,4,7,-26,-24,-96,-62,-10,-11
1490821872291,-5,23,73,28,11,45,26,26,-53,-46,-115,-81,47,-28,28,7
1490821872338,-31,-61,-128,-125,70,-27,-1,2,-16,47,127,126,65,24,34,-15
1490821872340,9,-21,-54,-30,-3,40,29,16,4,34,5,-23,44,24,25,8
1490821872388,-32,-6,8,9,-128,-106,-56,-7,-2,15,-7,21,29,8,33,-11
1490821872437,-105,50,17,-63,8,-2,-9,17,-43,-11,-7,76,100,28,19,3
1490821872485,42,-85,35,118,-7,12,8,-7,-108,-83,-2,-15,18,39,8,23
1490821872582,-106,26,-25,-27,-24,5,-8,-10,-14,-41,13,-42,-61,14,0,-7
1490821872583,94,-85,-47,30,5,16,24,17,80,-62,8,81,20,27,11,10
1490821872584,-102,3,-26,30,46,-20,38,18,47,-10,23,-9,45,-68,-27,-16
1490821872679,19,-91,27,3,30,14,0,-11,-66,24,-18,17,78,35,15,14
1490821872680,-3,78,28,57,39,38,6,-15,38,91,-65,-90,5,34,-3,-6
1490821872729,-17,13,-1,45,13,1,12,9,63,-13,13,-26,16,5,6,4
1490821872777,-11,-42,13,58,-2,6,9,-4,-18,-16,-91,12,10,6,-2,-10
1490821872826,7,92,-18,-61,-25,17,-2,30,32,43,11,33,-15,9,-1,6
1490821872827,7,80,19,24,2,13,42,49,-55,-50,-18,29,9,-8,1,7
1490821872875,72,46,71,-15,-21,18,-8,9,-5,-73,8,28,18,17,-6,-11
1490821872924,-50,-7,-33,26,20,0,10,-16,-90,-29,15,-11,-2,-12,-8,-25
1490821872975,-23,-75,-35,13,16,-19,-1,-32,96,-9,11,-26,2,-11,7,7
1490821872976,-60,-82,-2,-10,7,41,4,6,-40,-51,7,2,10,25,3,-8
1490821873023,-10,75,1,-2,-6,-13,-4,16,34,-38,-13,-11,7,19,10,5
1490821873070,11,-67,20,-11,-4,-1,1,8,-59,-100,-67,10,10,0,6,4
1490821873119,-48,14,-7,19,-8,5,1,-13,-84,127,5,-8,-30,-17,-13,-11
1490821873168,-21,97,1,-7,-6,8,-3,-11,-9,-24,0,-23,-14,-18,-23,-5
1490821873216,4,66,38,29,13,1,9,-2,-7,111,-1,-7,-9,12,0,-18
1490821873218,-43,-65,8,15,-47,5,27,-31,-28,-80,-17,-14,-2,7,41,-3
1490821873266,71,-128,-4,7,5,-19,-8,12,31,-87,-31,-12,-2,27,-18,20
1490821873314,-17,24,-5,-24,4,-15,12,-16,13,126,23,81,77,51,-9,-1
1490821873364,12,11,33,23,-68,80,96,13,-45,-108,-50,-128,-82,-93,-18,-52
1490821873412,-128,5,2,0,-59,-57,-72,-21,79,80,3,23,-1,6,-32,10
1490821873461,-22,-33,-24,-59,-26,57,-1,-12,-20,-17,15,79,92,-78,-33,22
1490821873462,11,5,-2,26,-84,-18,-47,-23,-68,-38,-62,-120,0,58,-22,-18
1490821873509,-128,-39,-20,-26,16,5,-28,2,-44,-80,8,-3,-83,-39,-46,-34
1490821873558,-33,-33,-105,-99,-78,17,-22,-43,74,50,-7,68,-115,-104,-67,-10
1490821873606,103,35,20,-10,-27,-28,-37,-24,7,26,10,7,-72,105,-1,38
1490821873655,-118,8,9,67,36,-40,-39,-32,127,-3,-7,-38,-35,-37,51,43
1490821873656,-128,2,9,-31,86,68,59,11,-24,-4,10,19,-7,-79,-62,-27
1490821873704,97,1,2,-11,-40,54,-26,-43,-106,-2,43,71,98,-14,118,69
1490821873753,9,-1,-14,-37,-19,8,2,12,-42,-1,-29,-112,-57,-32,-20,-5
1490821873802,60,107,28,46,31,94,86,69,45,-42,-15,-56,121,41,-11,-4
1490821873850,-14,-19,-38,32,41,-3,12,-55,31,92,67,117,83,72,87,89
1490821873898,-49,-48,-37,-75,-70,-31,0,-10,-38,7,17,59,9,65,9,-36
1490821873901,-87,87,41,125,28,19,-11,12,56,-21,49,61,-64,-21,-3,15
1490821873948,-72,-17,-43,-97,-51,-36,2,-28,22,28,-27,-64,-22,6,-15,-18
1490821873996,122,8,1,-21,35,39,11,34,11,4,5,-1,-1,2,-26,-30
1490821874045,-47,-25,30,-26,-62,-32,6,18,-109,-16,-20,7,-17,28,-22,-14
1490821874094,64,-57,10,6,12,17,28,-11,-26,-2,-17,-22,9,-33,-29,10
1490821874142,1,55,-19,26,35,-34,-12,1,-61,-7,-2,-18,-4,1,1,-21
1490821874143,-58,-10,-25,-13,-22,-23,-15,-22,69,-43,-1,-35,-39,70,67,22
1490821874191,-128,4,-29,13,11,14,-19,-66,-29,-23,8,47,42,-7,-14,-10
1490821874241,38,-9,25,50,46,65,35,-3,-39,33,-2,55,-37,-50,-19,-17
1490821874290,-37,-43,-22,30,62,70,-50,-23,-26,-95,-12,-19,-59,4,17,55
1490821874338,-122,-26,-42,-85,83,63,39,43,127,-12,17,76,-72,-47,-20,7
1490821874339,75,-33,-75,-74,-47,-100,-45,-16,103,-57,10,35,126,84,10,51
1490821874388,10,-13,-16,118,37,-60,-54,-8,17,-5,-15,-89,-64,-20,34,0
1490821874435,-70,54,127,127,89,127,127,88,-25,100,-102,-128,-128,-117,-71,-69
1490821874484,-8,39,31,0,-72,-127,29,18,-87,5,-41,-4,-123,69,-3,14
1490821874533,-122,-27,26,53,-58,-43,13,-63,33,-21,-57,-128,124,-39,-110,-49
1490821874585,101,-117,-30,-86,-105,-13,54,36,-108,87,-18,22,-106,-124,-61,-86
1490821874587,20,86,-12,40,49,117,71,23,45,4,30,-58,-114,-128,-110,46
1490821874630,-32,88,42,84,68,-97,-29,3,54,40,20,82,46,127,-2,69
1490821874679,82,-1,13,-77,30,123,32,-42,12,-68,27,127,-28,47,109,90
1490821874728,-19,91,1,66,56,-46,-128,-44,-47,76,8,-58,6,81,27,-26
1490821874776,-81,-85,-53,-68,0,-7,-32,-23,-20,-33,-27,-109,-51,90,127,57
1490821874825,-34,-27,-57,-98,-116,-15,-100,-67,80,-69,-41,12,77,-87,1,105
1490821874874,-128,-128,-16,-33,-34,73,38,-23,30,15,67,127,-41,96,30,2
1490821874875,32,9,99,56,-4,31,-79,24,-78,-89,-69,80,66,-5,-21,-26
1490821874925,-100,-77,25,26,127,37,42,-12,22,-32,93,59,-70,55,-46,26
1490821874971,-128,-9,-47,-122,-127,-128,-28,-128,-45,-32,-44,10,104,85,-103,21
1490821875020,7,-14,-36,-19,-118,-6,5,40,-9,-3,24,-21,-106,-75,-25,-3
1490821875021,101,-1,16,-2,127,-25,56,-51,33,3,-10,-30,36,12,-18,38
1490821875069,18,-1,-79,52,2,-63,-65,-6,108,-1,14,-88,19,92,93,11
1490821875118,-26,-31,52,-39,15,-84,-73,-28,-4,-17,82,127,45,127,51,7
1490821875167,39,4,-56,-93,-14,-49,-99,15,-13,15,-16,71,19,24,59,-18
1490821875215,54,7,35,-14,-14,69,47,44,-44,-69,-104,42,96,-52,-18,-4
1490821875264,9,60,16,46,-83,-33,-12,9,7,10,14,-87,-13,-34,14,10
1490821875266,-18,36,-33,47,120,13,4,-17,-7,-85,10,-10,-96,-34,-15,-8
1490821875313,-8,-5,50,-45,31,43,28,-1,-33,-24,-30,-11,67,10,6,-4
1490821875361,-48,-24,74,-28,-74,-59,-7,4,-8,-81,-7,72,71,38,16,-8
1490821875410,95,4,27,-50,4,31,11,16,-90,5,59,26,-63,-12,-4,-2
1490821875460,-128,-111,32,116,127,87,18,-10,-70,-67,-5,68,-9,18,-2,-1
1490821875508,-10,21,-3,-12,-84,-65,-34,-18,-10,-65,5,-23,35,16,2,-4
1490821875510,-77,-59,-3,127,89,103,47,21,-40,72,28,41,-58,85,10,22
1490821875557,-17,61,-34,-98,-66,-109,-12,-2,-60,28,-53,50,20,-49,-13,-9
1490821875605,20,38,15,36,-23,36,23,36,-45,62,16,44,90,75,14,2
1490821875654,53,9,-11,-8,-45,-43,4,-1,-72,-87,-25,-18,-50,-32,-9,-27
1490821875702,93,3,-34,0,22,19,4,-1,62,-2,56,1,9,0,-16,-16
1490821875703,34,-37,88,28,15,7,8,11,-32,-103,-9,-19,18,3,11,-8
1490821875751,17,1,17,-10,-7,15,-2,-10,56,14,-32,-18,-8,3,5,15
1490821875800,9,98,35,11,11,31,1,-14,10,-83,-31,38,20,27,2,23
1490821875851,-65,92,-23,-67,-34,-21,-10,-15,-20,55,-28,9,-6,-6,1,9
1490821875898,99,-25,-73,-13,-3,0,1,-1,119,-75,27,19,0,-1,11,-22
1490821875946,-71,-23,-38,-3,12,6,2,6,-99,-54,-29,11,10,8,-1,-4
1490821875948,32,-92,-22,30,29,19,8,7,61,-39,9,-60,-24,2,-6,16
1490821875995,-86,-103,13,15,-1,0,9,-2,-103,-89,-8,12,11,2,11,-3
1490821876044,-38,87,-21,-8,-11,-9,-1,-13,-8,118,7,19,-10,1,-6,-5
1490821876094,-4,16,10,-6,22,-21,-5,-2,8,-11,-18,11,-37,-6,47,-9
1490821876142,-2,106,-6,-31,-25,-21,-23,-28,-4,54,39,28,40,8,-9,26
1490821876145,-5,-64,-18,-28,-14,-15,-9,-1,-10,-87,-10,0,1,-11,-14,-12
1490821876192,-11,111,31,32,33,44,-42,12,42,-47,11,6,-39,25,22,-20
1490821876239,83,71,9,-34,9,-3,50,15,-22,108,-1,55,45,-27,-76,-3
1490821876336,36,-85,-6,76,72,28,37,20,-44,-35,11,8,-37,84,64,24
1490821876337,-26,-39,-23,-65,-32,3,33,-26,-28,-53,-24,-52,-70,7,36,6
1490821876384,-24,-2,-10,74,-35,26,37,-16,16,-2,-15,-49,-123,-19,11,30
1490821876386,-13,-52,26,-70,-19,-108,-29,28,-10,-19,56,113,126,52,27,6
1490821876434,-42,45,5,125,96,99,46,-4,118,86,-18,-128,-94,-115,5,17
1490821876483,-46,-23,-21,46,-97,39,73,20,-34,37,82,67,77,41,-3,-40
1490821876532,127,-50,12,-18,28,46,-13,47,-122,16,-18,-17,10,-3,30,4
1490821876580,-5,-32,-1,-71,-127,-29,-7,-50,113,17,-17,18,64,-9,-7,24
1490821876628,-4,-35,-59,47,-92,64,-33,9,-68,14,58,-27,-98,-48,-2,-9
1490821876630,-110,18,-12,-120,29,-60,-22,-47,-74,1,-23,-17,-81,22,-2,3
1490821876678,-125,-35,38,-43,-69,-63,-72,-28,127,-34,-47,-75,-15,21,27,15
1490821876727,-29,-4,-85,-80,-80,-93,-39,-21,49,18,-25,-78,-27,62,-8,5
1490821876776,-45,-4,-43,-46,-28,37,-34,-27,-96,-1,7,-25,-52,-22,-27,-24
1490821876824,-81,-5,2,-27,32,49,92,2,-17,-1,7,23,-78,-107,-108,-11
1490821876827,42,2,3,44,39,33,21,13,34,0,-8,-21,-62,-82,-49,-18
1490821876874,65,2,-50,-66,-15,2,-27,-1,-115,118,6,52,95,74,17,6
1490821876922,60,-102,8,-4,37,26,4,1,-51,-70,17,13,36,26,38,0
1490821876970,-48,-17,31,23,-8,19,-80,-15,-26,-14,39,23,-55,-15,34,-1
1490821877019,-63,-60,16,30,47,45,-4,-26,1,-43,-14,39,26,-43,-20,1
1490821877068,-23,28,-3,63,-9,60,31,-13,27,-39,-12,-50,-33,7,43,59
1490821877069,64,26,-38,-50,18,-32,-31,-8,69,-77,-22,-11,29,-10,13,30
1490821877117,78,75,-1,19,13,7,54,45,-97,-11,-7,-21,21,3,-3,-12
1490821877166,103,-22,-10,-71,-34,-9,-52,-31,-31,-34,-12,5,69,104,97,41
1490821877215,-28,19,22,47,-5,-40,-67,-34,-94,31,-46,-48,-51,-31,-52,-56
1490821877263,-128,-39,-17,-48,-52,-62,-58,-32,54,11,34,84,57,10,-31,-1
1490821877311,-128,55,-23,-90,-122,-40,60,-10,101,-85,-83,-128,-56,-128,-102,-47
1490821877313,-42,-26,16,127,127,-38,63,6,51,29,94,127,-33,69,21,45
1490821877361,-26,-12,67,108,80,125,83,45,56,94,-6,-125,-92,-81,-29,2
1490821877409,90,-58,-27,-103,-108,96,127,109,-127,-93,-84,-55,-76,-128,-92,-38
1490821877458,50,127,-7,127,-19,-14,6,-15,64,47,8,-91,-61,-128,-100,30
1490821877506,-94,90,77,-8,91,113,37,-85,-63,-60,-121,-84,-65,-113,-84,-52
1490821877508,38,-75,56,14,101,109,58,86,-38,-16,9,74,-78,-83,-101,-69
1490821877555,-17,33,15,-128,-59,-17,31,12,-50,87,96,127,84,12,127,112
1490821877604,-120,12,-9,75,-4,-121,-128,-83,103,53,-101,-108,-8,84,88,23
1490821877653,-94,108,3,9,127,-82,-53,-37,-56,-26,-6,-66,-128,51,-59,-30
1490821877702,93,-15,3,55,109,-15,-49,20,-108,42,-91,-128,-65,-37,-6,9
1490821877750,-93,-33,62,63,-113,101,127,25,74,-90,0,1,107,-81,2,-71
1490821877751,43,-67,-5,95,-23,-123,-57,-38,61,68,53,-23,-78,84,56,61
1490821877800,-53,71,-54,-128,127,87,1,15,-67,109,72,127,-104,4,60,10
1490821877849,-10,97,-20,69,-128,70,22,-62,56,97,-28,-128,-63,-41,24,65
1490821877897,-2,30,-64,-106,-128,-58,-37,0,13,-6,-40,127,127,70,28,-30
1490821877946,-49,-44,-86,-41,103,73,-22,11,60,-29,32,57,39,82,102,54
1490821877995,-25,-5,-99,51,-13,-23,19,7,29,3,12,59,52,13,94,5
1490821877998,-68,2,100,77,-125,-47,-26,-27,-85,-6,-47,-22,62,-24,-59,-10
1490821878044,-23,-4,-114,-62,52,67,86,3,6,2,68,-48,-128,0,-49,0
1490821878091,-4,0,-37,-100,-61,101,69,28,-44,1,-47,-57,-107,-44,-115,-18
1490821878140,10,-1,61,127,-20,26,-18,-27,11,-1,-5,-63,46,-29,23,27
1490821878188,55,32,-41,-95,92,-51,-37,-8,0,16,10,71,127,127,116,9
1490821878189,-9,-14,-8,-85,-23,3,-11,6,-28,-57,-29,-128,24,-92,-83,8
1490821878238,90,-36,8,42,-100,-93,-77,-10,86,-28,-15,105,67,44,-2,-3
1490821878286,-15,58,103,99,6,38,6,-7,-18,115,-4,40,47,-17,-18,4
1490821878335,37,98,92,32,48,3,10,16,-12,3,-97,-64,-77,-20,-41,-13
1490821878384,2,-22,34,57,-45,-28,3,-14,13,-46,30,-3,78,98,46,14
1490821878433,8,-17,48,40,55,12,4,10,-29,-7,20,-65,-40,-34,-9,-21
1490821878435,-56,-34,-117,-70,-46,3,-5,-6,-61,-56,33,-53,-98,-34,-17,0
1490821878482,-73,-30,113,121,61,44,21,-11,-94,-97,-29,46,-17,82,2,-8
1490821878530,3,15,27,7,70,-128,-14,-10,-28,65,-13,3,89,-92,11,26
1490821878579,115,-110,-123,-28,106,6,8,21,81,47,34,0,36,9,2,16
1490821878627,43,6,-3,77,1,-7,10,12,-5,30,-56,-64,-24,-1,-3,-11
1490821878631,-64,75,-7,9,-15,-7,-2,-9,-32,21,119,-61,-33,6,-12,-22
1490821878677,108,127,66,-30,6,9,-6,13,-53,9,-42,41,23,-9,-3,3
1490821878725,-30,0,-3,0,13,20,2,-13,38,-64,27,30,9,22,16,27
1490821878774,0,-56,2,-32,-14,-8,-6,5,-25,-112,-16,6,12,-2,11,9
1490821878823,59,0,48,-8,-8,-5,3,6,-33,-3,-62,-23,16,-4,3,-6
1490821878871,106,-1,2,26,8,-3,-5,2,82,15,-26,-42,-25,-16,-10,-32
1490821878872,-78,-7,-18,-13,-4,9,2,-10,-128,-57,-37,16,5,3,-5,-9
1490821878921,-83,23,-3,-14,-4,6,2,7,-128,46,33,-3,-5,-11,-4,-3
1490821878969,-31,45,-38,-8,7,5,-7,22,46,75,20,19,11,0,-2,5
1490821879018,-31,52,-16,-1,-9,15,11,15,-36,-90,16,12,-4,12,4,12
1490821879066,12,0,-19,9,-17,-7,-14,-2,-7,35,30,27,4,14,12,7
1490821879114,21,48,4,-50,-86,-28,-5,-5,-34,59,-6,11,-18,-37,33,7
1490821879115,2,-94,-15,-87,59,4,0,-7,-25,-64,-15,-11,-1,14,3,-8
1490821879164,39,-55,-1,43,-44,15,101,13,38,-31,18,77,67,43,-41,-10
1490821879214,4,78,10,53,91,42,-4,0,-16,72,-7,73,127,32,41,29
1490821879261,-20,9,0,-41,-78,13,4,-3,56,95,-8,-26,-85,-32,13,-6
1490821879309,-51,-50,-2,74,93,-35,-13,-7,91,-67,6,-12,69,71,60,26
1490821879310,37,-4,-7,7,-35,45,66,-7,-21,38,21,2,44,-70,-61,-21
1490821879359,53,34,9,-42,-120,10,-36,0,-128,-16,-50,-91,-32,87,62,-19
1490821879408,40,9,28,84,7,12,20,15,-68,-14,-10,-3,71,16,45,18
1490821879457,79,-35,-11,-67,-35,30,12,17,-69,-7,-4,22,56,-35,-18,-15
1490821879505,94,45,0,78,-89,-49,-7,65,-108,49,-74,-128,-65,-72,-28,-52
1490821879553,-83,16,-20,-26,127,-31,19,-57,19,-2,-46,-21,-128,-24,-23,-21
1490821879554,79,-6,20,94,53,63,-7,-23,-77,-2,-20,29,94,30,-3,14
1490821879603,74,0,-15,91,82,-1,-2,-9,-16,2,26,-14,-76,-6,41,-1
1490821879652,-65,0,-12,19,-63,-64,-21,0,2,-2,19,-4,-1,-10,0,-26
1490821879700,-65,-1,24,-18,-111,-74,-3,-11,-37,0,-33,-113,-71,21,-9,-5
1490821879749,127,127,-1,-54,27,18,-33,-16,-31,99,-24,27,43,77,-13,6
1490821879797,52,-63,3,-19,10,40,40,1,86,-33,-4,70,28,5,-25,37
1490821879799,12,-61,14,52,33,1,36,13,-62,-49,-5,13,-14,45,48,-13
1490821879847,27,33,-39,-11,69,43,-1,5,-38,-48,25,53,39,50,34,22
1490821879895,105,27,4,-41,-33,51,6,-7,-86,23,-11,-56,-49,-12,-34,-33
1490821879944,16,-3,8,72,19,-52,-39,-3,-44,39,27,-1,38,16,35,6
1490821879992,-92,13,-11,-1,-21,-39,-72,-5,21,-18,-5,-24,11,25,24,3
1490821879993,-13,-36,-19,-19,-1,0,3,2,-47,3,5,38,1,6,4,-8
1490821880042,81,-6,4,8,2,-23,-30,12,-63,-28,-22,11,20,27,53,4
1490821880090,-93,-21,59,45,12,1,-14,-18,-33,-11,-45,-43,-4,31,75,6
1490821880139,48,-28,25,21,29,-11,36,18,-128,9,0,16,-7,-20,-32,-47
1490821880188,92,-26,-38,-59,-39,40,-25,-35,-57,10,-17,-33,48,58,84,40
1490821880236,-15,-2,-72,-71,19,-44,-59,-9,-41,3,75,76,16,32,52,6
1490821880285,-79,12,15,-9,107,112,39,-10,30,-31,-19,6,-30,4,-44,-27
1490821880286,-111,2,8,95,39,-28,14,22,27,103,0,-106,-120,-94,-44,29
1490821880334,-105,-63,16,-49,-24,80,-4,-55,79,13,-33,66,52,-128,-69,1
1490821880383,-82,-5,52,81,89,107,-12,-38,127,111,4,45,-75,-16,24,21
1490821880432,-4,67,49,72,-110,-128,-48,-19,38,102,18,-57,22,-15,48,40
1490821880480,-116,-86,8,33,-58,102,83,-2,80,-7,-98,-119,-55,-30,-63,52
1490821880481,48,16,-46,-118,-118,-87,-58,41,-100,70,-100,-43,-2,-84,-121,-78
1490821880529,-62,16,51,44,41,94,91,61,-20,32,59,120,-30,66,-65,-61
1490821880578,-73,-104,-109,-97,-122,55,83,-6,65,-118,71,20,105,-83,-63,57
1490821880627,1,98,103,37,-5,64,9,2,46,1,-46,27,-16,-45,127,20
1490821880675,47,-46,-54,-128,-100,91,113,26,55,68,-42,9,-49,-104,-70,9
1490821880677,-66,83,-32,-103,-55,-100,12,38,-79,83,-83,-128,22,-83,-85,22
1490821880725,-52,-60,9,21,55,-5,31,-41,-18,13,103,127,-95,127,3,11
1490821880773,-81,63,-94,-128,-112,-128,-68,-51,-4,61,-91,-94,-25,-90,-41,-87
1490821880823,-7,-48,121,127,52,56,-38,29,-70,-82,-13,-107,-98,-33,-66,-72
1490821880871,52,88,-21,-128,7,-128,-106,-81,-29,-98,78,127,-54,127,120,69
1490821880918,72,-25,-94,-91,-43,-128,-76,-27,41,-62,-73,22,58,83,65,-44
1490821880919,-23,-44,-4,-20,-47,-44,32,-45,71,9,-25,-85,-81,104,77,28
1490821880967,-30,2,-25,-22,-69,-42,-38,-29,-3,-5,-12,-19,43,29,-70,6
1490821881016,36,-11,101,-16,93,-86,44,-12,-30,1,15,-29,-111,127,104,-9
1490821881066,-48,-2,33,-2,127,56,-88,-9,77,4,98,127,-1,-3,-16,17
1490821881114,9,13,49,51,42,61,40,-2,36,9,-10,-27,-66,34,55,-5
1490821881162,-52,5,0,-76,-20,5,50,-45,-18,15,-46,99,52,64,9,-15
1490821881164,26,-49,-127,-91,-128,-114,-52,-24,-4,68,12,-102,75,24,-9,1
1490821881212,-77,30,96,127,95,76,-128,6,14,-44,-76,-97,-110,-86,58,52
1490821881260,-4,30,106,74,98,87,91,-24,13,-3,-8,-47,-84,-114,-22,-35
1490821881310,-21,-23,-64,47,15,92,-4,7,7,33,127,127,60,72,62,34
1490821881358,-5,-13,-23,-128,-128,-45,-64,-35,-24,-34,-25,-128,-122,-128,-128,-45
1490821881362,-15,28,79,68,-4,15,70,38,-20,-62,-113,-3,127,18,24,1
1490821881407,1,-21,-77,-59,-25,-93,-17,-49,-42,31,-90,-39,46,-54,-82,-23
1490821881456,-7,-30,2,23,44,83,11,28,27,-36,-41,-116,-80,-63,-1,-14
1490821881504,11,4,80,22,30,43,-26,6,9,-12,-29,-9,99,121,68,28
1490821881552,43,-5,-11,45,93,56,42,17,-31,1,36,-49,-46,40,17,7
1490821881601,-26,13,-39,82,69,-62,-27,-31,-4,46,-35,-15,50,42,13,-3
1490821881603,-26,-80,37,-10,-92,-40,-20,-9,6,56,115,56,11,2,4,-7
1490821881650,4,75,44,1,0,19,24,-5,16,101,-9,72,34,10,27,22
1490821881747,-122,-61,-37,4,14,22,7,2,19,-9,65,10,18,-6,-8,-5
1490821881749,-38,-128,-18,-69,-34,-52,-16,-6,-128,-128,6,46,35,-36,1,5
1490821881796,-111,17,51,-26,-26,-11,1,-26,-18,49,-28,-24,1,14,11,14
1490821881797,10,-103,-46,33,29,-22,9,4,-69,23,48,-10,-11,-11,5,-5
1490821881845,127,-80,-31,-41,10,33,7,-5,-72,-4,-51,48,25,1,11,-11
1490821881894,34,-100,-15,16,7,36,7,6,0,-43,37,21,5,27,-3,8
1490821881991,90,-48,11,36,21,3,7,15,-51,-48,-62,-27,-16,-7,-10,-18
1490821881993,-4,-69,-49,-51,20,6,9,28,-94,-69,-22,44,8,-2,5,-4
1490821882040,-31,-81,21,11,-8,16,-7,-14,43,-121,-80,-1,17,17,3,13
1490821882041,54,127,31,23,-15,-20,-16,-26,-99,75,-33,-35,-3,8,14,-16
1490821882089,-78,55,19,21,-4,-23,-10,5,-85,30,4,8,12,12,9,27
1490821882138,-11,-64,-57,-21,-3,-2,-6,4,-3,26,50,-30,-14,-5,-9,-17
1490821882186,-13,7,41,5,6,-20,-5,9,42,-5,-29,18,26,-6,-3,-2
1490821882235,-23,87,-3,0,6,17,9,1,-72,10,-10,-10,-25,16,3,11
1490821882283,-7,-99,46,8,-32,-4,-6,-14,-22,-12,-13,-1,-16,-2,-7,11
1490821882285,-75,68,-5,-7,-6,-8,-4,15,-59,52,-36,-8,-23,0,35,0
1490821882381,4,21,9,-33,-10,12,29,1,17,10,-22,3,10,-8,-24,9
1490821882383,16,124,2,6,0,35,0,-26,22,89,14,19,-6,-5,30,7
1490821882432,18,-110,3,63,68,5,9,11,12,-128,17,14,-61,19,4,8
1490821882478,6,-60,14,25,75,10,-17,-16,-10,-125,-9,-99,8,-64,-2,35
1490821882479,-18,52,-33,-16,14,-62,-27,0,-8,55,23,69,57,-28,-10,-18
1490821882527,-31,-18,-30,23,-104,-47,23,-15,33,-28,12,61,71,47,4,9
1490821882576,49,66,12,46,28,46,66,-4,51,59,20,16,-18,-17,-53,24
1490821882625,-45,10,19,31,-37,49,54,-7,21,-62,-6,-46,25,5,-5,-3
1490821882674,-10,-18,-11,-91,-128,-107,-15,-2,-32,20,-8,-25,126,1,-35,-43
1490821882772,-59,-10,64,117,124,85,25,-2,-22,-71,-7,-70,-29,16,-2,-25
1490821882778,-16,14,-32,-101,-100,45,-44,15,36,-33,12,6,16,-66,-1,3
1490821882781,51,12,16,111,70,38,84,4,64,18,60,103,85,63,-83,4
1490821882821,26,29,7,-23,108,13,33,21,35,76,-29,-95,-122,-52,-5,-29
