1490228881886,33,21,23,2,30,-96,36,-22,-18,-9,-11,-21,-22,28,-73,-2
1490228881935,17,-2,-2,-5,-10,13,27,28,-33,-3,3,-10,8,-26,32,-21
1490228881937,-16,-14,-8,4,2,-5,-23,16,-1,-6,-11,-30,-27,15,-19,-14
1490228881984,23,1,-3,-6,0,18,6,3,-24,-7,-5,-3,-7,-6,-6,1
1490228882033,16,10,3,27,34,32,25,10,2,10,7,-5,-11,-15,-28,4
1490228882082,-41,-2,-13,-31,-7,-20,-24,-22,61,10,23,38,16,51,35,35
1490228882130,-37,-1,7,6,-9,-44,-17,-30,17,5,-6,17,16,-16,-1,13
1490228882178,-7,-9,-6,-3,3,7,10,1,-40,-8,-14,-13,-16,-9,3,-25
1490228882179,-29,14,2,-42,-70,-41,-17,-24,-13,-23,-19,29,51,45,38,8
1490228882228,-44,-17,-12,-8,-27,-16,2,-19,14,9,-6,-13,14,8,28,4
1490228882277,31,1,-7,-3,-8,-10,-38,-3,15,7,6,-8,-18,-34,-14,-5
1490228882325,-8,-9,-12,-2,9,-10,-5,21,-30,0,4,-27,-36,-24,-17,5
1490228882423,-13,-3,-5,5,6,65,20,-9,-3,-6,-3,-25,-18,-47,-21,-3
1490228882424,-30,-8,-7,-6,-1,2,-20,-19,42,4,-8,-6,-8,3,27,20
1490228882426,17,-15,-17,2,7,23,-14,1,-21,-1,11,8,-10,-29,17,40
1490228882472,28,1,-9,-5,3,0,-13,16,63,3,-2,14,-1,-4,-29,0
1490228882520,29,37,13,-7,-1,-8,0,20,-53,-17,5,-2,-10,6,26,5
1490228882569,1,6,-7,-9,-17,-40,-34,-59,80,7,1,-3,-4,27,5,19
1490228882617,-42,4,18,32,4,-13,-41,-26,-18,-41,-26,-26,-16,-18,-6,-29
1490228882618,-15,18,-13,-27,-10,-10,-23,-44,1,-64,-21,1,-12,-12,9,38
1490228882667,85,41,30,-16,12,24,-64,56,-39,-33,-36,-14,-1,-6,-28,-65
1490228882715,-12,-41,-34,-29,8,41,113,30,127,56,56,-25,-12,9,-81,-17
1490228882764,-128,-40,-83,-39,-47,-29,27,-13,60,-46,35,30,2,-9,-4,71
1490228882812,46,44,-80,-18,20,7,6,15,28,12,-22,-46,4,7,9,-4
1490228882814,56,27,-113,100,35,33,64,9,-63,-6,102,10,18,16,-88,-16
1490228882861,-123,-37,71,-94,-34,-15,-33,-39,-42,-60,22,77,-6,-12,-48,-1
1490228882910,10,80,-29,81,25,-21,21,-13,-48,41,-109,-94,10,33,-31,-6
1490228882959,102,54,127,113,-37,-39,-81,-17,48,-128,72,93,34,16,13,3
1490228883008,-86,-15,7,-97,-38,2,-7,-8,33,90,127,60,58,39,117,85
1490228883056,-8,-57,-128,55,30,41,-7,-21,-105,-57,52,-103,-18,-43,-41,-29
1490228883058,-128,-55,-10,-18,-39,-30,39,47,81,21,41,31,49,47,39,56
1490228883153,51,34,-11,98,25,-22,-26,60,39,7,74,-55,-1,1,37,-18
1490228883156,-78,-54,-53,-9,-8,-8,50,60,-26,30,7,37,9,39,-72,-76
1490228883203,39,108,4,-128,-57,-32,1,20,67,-105,-14,52,-44,-13,-15,56
1490228883299,98,85,90,97,22,-2,-27,-14,-29,73,23,57,26,-27,-9,-62
1490228883300,70,-43,16,45,-41,-29,-42,-12,-53,55,83,65,46,-37,-37,-21
1490228883301,-81,35,33,5,20,19,12,-1,-46,78,11,45,11,-13,53,-37
1490228883349,12,-105,-68,-123,17,16,77,6,11,61,22,33,-40,-31,3,49
1490228883446,-44,-67,-58,-95,-67,-42,-25,34,-95,-93,-61,-9,-75,-34,-12,-86
1490228883447,-7,1,-30,-68,-51,1,-53,-73,87,70,89,44,88,38,69,40
1490228883494,53,52,-61,-86,1,10,54,-4,58,78,55,60,42,-6,-43,17
1490228883496,-14,61,5,-26,-28,-21,3,-39,59,77,-10,66,83,20,10,-13
1490228883544,-95,29,127,127,55,42,16,31,4,-13,-126,-13,42,31,-1,6
1490228883593,103,24,-79,89,-22,-1,-35,7,-26,-74,-16,-118,74,-49,-12,-4
1490228883641,-29,-47,-73,45,-16,26,-17,-36,-23,-13,82,-92,-46,24,19,25
1490228883690,22,-23,-128,54,27,7,3,-14,-13,0,34,37,22,3,-18,-11
1490228883738,15,31,66,-63,-45,14,33,37,6,26,25,43,-103,-12,-11,9
1490228883739,13,-27,-8,3,41,24,-11,-16,7,-12,4,-60,-52,-31,21,20
1490228883788,5,4,-29,36,-6,-31,-14,-1,25,7,39,41,-8,10,-23,7
1490228883836,0,-3,-15,-25,-34,33,42,26,1,-7,-17,-11,2,-63,-38,-7
1490228883885,4,-4,5,36,-53,48,4,-2,-25,-4,-15,-25,83,65,44,-21
1490228883934,-17,5,5,-91,-37,-24,-27,-13,-3,7,4,82,62,47,47,4
1490228883982,19,41,-28,-67,127,30,-14,20,12,37,22,1,-83,-92,1,16
1490228883983,-15,-29,23,34,4,4,17,-38,-31,-1,41,72,24,-25,5,12
1490228884032,-3,-26,-16,-78,-120,-3,36,-11,-57,-36,-69,-17,43,60,-83,-69
1490228884080,-42,-56,-42,-55,47,63,-44,-50,-14,-14,10,-10,-71,-66,36,8
1490228884129,58,-41,-59,-32,48,-43,117,52,-15,-24,11,33,-15,-74,-37,-9
1490228884177,-73,-25,-24,3,57,-31,-98,-64,37,3,-17,-41,28,17,51,24
1490228884179,-9,-17,-63,29,77,21,21,2,-17,0,6,26,-47,71,-14,-6
1490228884226,18,9,7,-29,-24,39,-43,-6,-32,-7,-3,30,91,27,19,2
1490228884275,-22,6,25,18,-53,100,35,-14,20,2,19,63,-39,-111,-5,30
1490228884372,4,6,-17,-44,-15,-22,16,18,-4,15,12,-7,-7,-9,-8,-19
1490228884374,10,6,-8,25,-12,28,22,-4,4,9,1,16,-41,36,11,0
1490228884469,17,16,5,6,47,5,13,63,-17,6,13,19,-39,-16,-20,-33
1490228884470,3,-3,-7,-1,-24,-39,18,5,12,6,6,-14,-15,-44,-14,10
1490228884473,-14,21,-1,-1,-22,-16,-38,-125,22,-33,-9,-13,4,44,36,74
1490228884519,-86,-27,-13,-12,-31,23,-29,-64,11,51,-3,1,30,122,-31,-10
1490228884568,-16,32,31,89,28,17,33,116,-45,-34,-54,-13,-31,9,-4,49
1490228884618,116,-22,63,34,-11,54,43,30,-17,-29,1,-2,20,62,58,79
1490228884667,-102,-24,37,-22,81,3,3,-56,72,32,-38,21,8,-44,-54,38
1490228884668,-79,50,-66,26,-8,3,-42,-95,-113,-54,-16,-20,27,-32,-58,-35
1490228884714,114,22,-15,40,47,22,92,74,93,75,14,-59,-11,-8,-42,61
1490228884763,-65,-29,-22,-60,-35,-22,-2,-19,-79,-17,50,68,19,-9,126,-68
1490228884812,44,73,88,28,-8,3,-112,71,69,27,53,89,34,-9,52,22
1490228884860,-4,-119,-55,-23,-32,-6,29,-12,39,-2,-11,-28,-3,0,-80,40
1490228884861,64,49,28,24,18,6,58,73,-24,-12,29,36,26,5,-8,-10
1490228884909,0,80,-9,30,19,38,-79,32,-108,-6,-58,-76,-10,-13,44,-43
1490228884957,-70,16,-30,-46,-27,-48,-20,-27,-52,-57,-19,2,5,5,23,21
1490228885006,-40,-16,-30,-92,-14,7,-44,-2,30,-1,-9,13,10,-3,-22,3
1490228885055,20,-7,-13,-12,-11,-61,-41,-10,45,6,0,-24,18,59,-3,29
1490228885103,37,60,46,22,-22,-30,-43,82,10,-35,-18,-17,-17,-8,-3,-95
1490228885106,16,9,11,1,14,43,-3,-51,-125,-22,-16,-16,-16,-8,7,63
1490228885153,0,7,0,6,14,34,-9,-114,60,38,3,11,5,37,9,-25
1490228885201,-64,-18,-4,5,3,31,-10,-32,78,17,5,-4,-14,-28,-5,114
1490228885250,-21,9,-4,2,-8,-28,-10,52,51,23,-1,-6,-20,-28,-9,36
1490228885299,30,12,14,16,15,32,19,13,15,-6,5,9,-6,-23,-5,-24
1490228885347,66,16,9,11,-7,2,-10,3,-117,-36,-3,-5,9,20,-1,-5
1490228885349,44,6,-6,9,16,18,-27,5,-61,10,7,18,23,23,43,30
1490228885396,127,84,19,17,26,54,11,105,-75,-87,-20,-19,1,-25,-97,-111
1490228885493,-94,13,34,-3,7,11,15,15,-19,44,96,29,12,7,20,-17
1490228885495,-50,45,14,30,10,1,-7,8,-93,-93,-39,-86,-24,-25,-12,-7
1490228885542,59,-44,11,4,14,28,-30,-5,29,69,-77,7,2,10,84,37
1490228885543,34,46,-32,-68,-16,-45,23,-20,-50,-47,-14,81,3,0,-55,39
1490228885591,-62,-55,51,-81,-29,-39,-45,-63,62,54,42,86,10,55,85,31
1490228885640,108,-51,-90,-98,-61,-34,-23,31,-121,-54,41,-91,-55,-40,-77,-112
1490228885689,108,-68,-110,46,18,13,-67,18,-128,-63,93,-120,9,15,63,5
1490228885737,40,44,127,15,24,44,63,4,127,37,-128,60,46,0,-54,9
1490228885786,-128,-90,74,-77,7,-18,-10,33,-78,92,-62,54,-41,-87,-51,33
1490228885787,-75,-55,-56,-13,-33,-29,-15,-109,116,72,-35,4,3,-23,-12,55
1490228885883,-81,42,60,35,4,9,-12,22,-50,-29,-8,76,6,-39,-127,-10
1490228885885,72,-55,106,97,24,25,-23,-49,29,-70,-127,-47,-21,-51,27,28
1490228885933,-38,90,92,99,32,-2,61,33,-83,-77,56,50,31,20,26,13
1490228885981,81,66,-46,-128,-29,7,27,63,-58,-40,98,50,-17,40,-14,-53
1490228885983,108,30,73,112,34,-9,71,103,-128,-59,-97,-12,20,4,15,34
1490228886078,-23,-41,-117,30,58,39,31,-74,-91,-100,-3,-120,-112,-36,-44,-23
1490228886080,-121,-61,84,-40,-20,-39,-115,-90,90,122,-128,-64,-71,-21,-1,0
1490228886128,98,105,109,-101,-54,-7,24,-61,-6,73,-63,96,80,7,17,20
1490228886176,-40,67,62,82,30,-2,12,4,32,-3,-71,29,-27,-1,34,44
1490228886225,-67,-60,-55,-89,-103,-25,-15,12,-45,8,127,113,-13,14,-20,-49
1490228886226,21,-73,-112,-69,-68,-29,-29,20,-48,26,14,-108,-44,-9,66,19
1490228886274,-9,-21,-37,-18,39,1,-13,6,56,89,87,38,-54,5,45,1
1490228886323,-47,-83,-9,-32,-8,-4,-3,-20,5,13,30,10,11,40,-33,7
1490228886372,37,46,60,127,-32,8,38,30,-15,-63,-68,-110,-94,-44,-43,-18
1490228886420,-26,11,19,34,-82,-42,-37,-13,5,-21,3,-40,100,26,80,13
1490228886468,62,21,33,49,-29,26,34,41,-10,-22,-55,-43,110,-8,10,-7
1490228886470,11,6,-4,-10,8,-24,47,-5,-2,8,22,55,1,-35,-28,-1
1490228886518,1,-6,1,-13,1,9,-25,-3,-4,7,11,-15,-37,-8,0,-4
1490228886566,-14,-16,-38,-89,-25,127,-24,-5,-10,1,-7,34,92,73,-67,-17
1490228886615,-9,-8,2,-2,-67,-81,-36,-25,17,7,15,31,-40,-75,-23,12
1490228886663,11,11,34,18,-36,-45,9,-3,1,-6,-28,-50,79,71,28,12
1490228886664,20,7,-30,-11,71,67,36,17,-32,-35,-31,-100,-4,-19,-55,-12
1490228886715,-4,5,24,49,106,11,-19,-23,-14,-14,-5,19,-56,40,81,24
1490228886761,13,12,10,31,-18,-59,74,27,6,20,42,62,59,-7,43,12
1490228886810,-9,-11,27,9,-117,-89,-128,-18,-31,-17,-15,-42,-6,-30,-10,-23
1490228886859,-5,-8,-6,-24,-28,-26,19,25,19,-2,49,70,-78,-128,93,35
1490228886907,-5,15,-21,-47,59,3,28,-2,1,17,41,92,-52,-45,-7,-19
1490228886910,0,-22,-15,-20,0,-25,-12,20,-19,-31,-91,-95,72,68,45,-25
1490228886956,-5,25,16,90,-14,-69,-35,-8,17,5,11,-7,31,23,-31,-1
1490228887005,-43,-16,-23,4,40,111,-1,-28,26,11,19,40,44,-19,38,30
1490228887054,12,24,1,7,-3,57,58,19,9,8,6,4,-10,-44,-2,18
1490228887103,-6,2,1,1,-6,-62,11,10,-23,-9,-11,5,-46,-45,-26,-32
1490228887151,-67,-1,5,0,-26,0,-6,-33,-19,10,-7,-3,1,4,-43,-22
1490228887152,49,23,12,-1,14,-60,-16,4,7,3,8,37,-20,-44,-19,-14
1490228887201,3,46,40,-34,-6,-47,49,-1,23,-64,44,13,-9,-71,-22,-38
1490228887249,-49,32,40,18,25,84,-7,22,36,13,-57,-36,-13,82,-38,-46
1490228887298,12,0,13,-65,-29,-6,-2,-11,-30,5,-28,10,4,-17,6,17
1490228887346,29,63,92,33,7,-24,10,41,85,-32,-59,-81,-34,-48,-59,-11
1490228887348,-79,-24,2,101,12,-39,-12,-71,32,34,105,-92,11,14,58,43
1490228887395,8,16,-82,-3,-17,-16,-92,-28,-40,10,-40,-89,-39,-21,31,-41
1490228887445,26,51,-23,100,61,20,-13,32,62,-18,34,-65,11,-1,-25,-4
1490228887493,-15,31,17,-43,-24,-18,17,0,7,82,22,23,-2,-11,-11,49
1490228887542,28,56,55,15,-4,2,6,-32,29,-78,-99,-75,-25,-11,44,-19
1490228887590,53,60,-35,-33,-10,4,17,61,-128,-82,50,95,-28,-4,26,-51
1490228887592,-87,-57,-128,-128,-49,8,-19,-5,70,-96,-23,-55,-29,4,-15,23
1490228887639,-2,32,79,49,19,-28,-12,-87,104,36,-28,-14,20,20,-6,25
1490228887688,6,17,31,50,22,28,15,58,-16,-36,-17,48,5,-6,-2,-59
1490228887737,-37,8,-11,-30,-10,12,6,-32,42,-6,-3,3,-19,-14,-8,-8
1490228887786,16,-24,-10,-33,9,1,20,-6,-15,29,21,-7,13,2,13,-7
1490228887834,-9,12,-11,-4,-7,20,85,15,-5,10,38,26,11,-4,3,40
1490228887836,-65,-32,9,47,45,27,-27,-14,13,-10,2,-4,-16,-14,33,12
1490228887883,14,-6,-9,-5,-34,-29,-88,-2,49,4,-13,-6,7,-3,-63,5
1490228887932,18,-10,10,20,8,-22,32,0,0,-4,-23,-23,-30,0,-29,-28
1490228887980,-30,19,-10,-4,0,-23,-3,-4,-23,13,-26,-2,-32,4,7,12
1490228888028,64,-3,-1,5,0,20,20,29,19,18,-1,-3,5,1,33,3
1490228888030,27,-5,16,-25,-20,-6,1,30,20,-7,30,22,39,-12,56,6
1490228888078,-4,9,-7,-1,-2,15,5,-16,55,9,-6,3,0,-3,-12,29
1490228888127,-59,6,-17,-8,-16,-32,-73,-38,-25,-12,-18,-11,-5,-4,30,12
1490228888176,-54,-6,3,9,2,-11,6,-23,111,46,13,11,-2,19,26,29
1490228888224,33,-10,-18,2,-2,15,8,43,-48,-37,-14,-19,1,22,26,2
1490228888272,-51,-12,11,1,8,31,44,23,-4,5,-51,-8,-9,-32,-58,-19
1490228888274,-94,-52,-8,-28,2,8,7,-14,-5,-7,-9,14,-2,21,13,-1
1490228888370,116,35,20,-28,-24,-19,0,-20,-86,-48,-34,-19,-21,-33,-54,-14
1490228888375,92,7,-69,-9,-12,-6,-4,19,-60,-15,8,-67,20,43,71,5
1490228888420,-114,-106,-67,-39,-7,0,-88,-41,26,-14,-95,-104,-30,11,56,-25
1490228888467,89,78,-65,12,-16,-7,-5,34,-128,-107,-34,-27,-16,-24,-62,-23
1490228888516,101,21,41,91,1,3,43,-9,-100,-67,84,29,24,24,-3,-18
1490228888518,86,-2,47,64,50,32,57,23,-59,97,81,112,-12,-30,-72,8
1490228888565,42,-74,-53,-84,-12,-4,9,57,60,127,127,127,64,44,1,-49
1490228888614,-11,6,80,98,9,27,21,39,89,-89,-82,-123,-23,-31,65,-54
1490228888663,-63,7,52,-35,-66,-18,-60,-49,127,-48,68,121,34,-17,-50,86
1490228888711,20,-31,-80,24,27,-1,11,21,-40,59,5,71,-40,-48,-43,50
1490228888713,-40,58,39,-60,18,1,21,48,111,117,-128,-65,-30,6,41,-19
1490228888760,11,20,-59,-107,-11,24,29,82,-90,-83,127,-7,-21,23,52,-44
1490228888810,-37,66,98,98,-51,-99,-1,-70,44,60,65,38,-63,-31,-19,45
1490228888861,-87,28,77,118,31,0,49,22,101,-7,-94,16,44,-17,-100,61
1490228888906,95,-9,21,-20,-2,-9,-7,127,-29,53,106,40,8,-7,41,-80
1490228888955,-60,-36,-94,-121,-4,-15,-18,4,10,15,9,28,-105,-48,-1,9
1490228888964,-7,84,43,-60,2,33,34,-1,92,2,64,112,37,79,37,16
1490228889004,-90,-92,-128,-12,-2,-8,-52,-9,5,85,102,93,-6,-1,59,38
1490228889053,29,8,16,-57,39,42,-7,-27,-97,-35,86,126,38,-26,17,-26
1490228889101,53,44,51,42,10,-28,0,21,55,113,65,28,34,17,-34,15
1490228889150,10,-21,117,47,24,15,-12,-70,-34,-28,70,94,37,3,-1,3
1490228889152,6,25,17,-5,-119,5,-7,25,-30,23,75,8,36,-21,-30,-27
1490228889200,-77,-128,-128,-93,20,-1,13,5,-22,27,-75,-103,-34,2,-10,-5
1490228889249,-42,-58,-80,-59,-23,-39,23,3,-44,-54,-128,-90,-4,21,-18,-37
1490228889297,-10,-60,-35,-88,-128,-22,-1,-18,-34,12,16,35,74,9,22,-8
1490228889346,24,36,36,54,61,-40,40,25,23,18,40,25,8,49,-2,10
1490228889395,-13,-13,-16,28,109,-28,36,-15,13,1,15,-27,-76,35,-45,3
1490228889396,-29,-14,2,-26,26,-17,-27,-17,9,1,22,-24,-66,-47,0,-5
1490228889443,1,21,9,-25,-4,31,38,8,-15,16,8,-44,-120,-56,-44,-22
1490228889492,25,23,29,19,-34,101,6,6,-13,11,-30,-25,62,-36,-17,16
1490228889540,8,8,21,35,45,67,-53,4,23,36,24,24,-11,85,-2,15
1490228889589,5,-16,4,37,37,102,33,17,10,8,10,-67,-71,78,-1,26
1490228889637,-28,-10,-3,6,-55,-4,-3,-18,-23,-16,-24,7,120,-14,3,0
1490228889639,30,-41,-1,23,-30,45,3,38,-14,-62,-2,19,82,28,-105,-43
1490228889686,-19,4,47,89,84,17,-51,-4,-2,-4,-39,-55,-24,21,0,-8
1490228889735,46,-8,-30,7,18,-34,25,45,-8,-7,7,36,16,-78,103,-12
1490228889784,-4,3,-5,-12,5,-12,-42,36,17,20,22,26,-75,11,86,4
1490228889832,37,-6,12,39,25,-70,-51,-16,-31,-34,-21,-27,-18,34,73,-4
1490228889834,1,-12,-55,-127,76,124,-15,-10,14,-1,1,9,34,-76,-21,5
1490228889882,-1,-6,-15,-14,36,9,72,7,-23,-5,8,6,-10,-21,-70,-21
1490228889930,10,-13,11,-4,-37,11,23,3,-3,-9,-22,-15,-22,17,-55,9
1490228889979,26,19,20,15,-22,-98,-5,18,-9,2,15,25,-35,-98,3,-19
1490228890027,19,3,-8,-15,-26,70,11,-8,32,19,11,8,-51,-7,-7,35
1490228890076,-22,-2,7,11,-14,-27,3,-13,-1,4,-15,-42,34,75,-25,-8
1490228890077,30,28,12,11,-38,-41,-11,14,25,-21,-13,9,13,-26,22,14
1490228890125,17,17,10,22,21,-103,12,24,66,27,-14,-17,-64,-64,-2,10
1490228890174,38,8,-21,-20,-38,-18,10,-8,-79,21,32,-13,19,-127,7,-17
1490228890222,-123,38,15,-26,-46,72,11,36,29,-18,13,38,53,77,-25,-41
1490228890271,47,15,-24,-12,25,-5,-41,-39,41,29,39,29,-5,-35,16,74
1490228890320,81,80,54,38,43,-49,-32,13,-57,-72,-75,-32,-68,-51,-15,-55
1490228890323,17,33,79,85,-1,-38,3,9,116,56,-60,-1,-7,-26,60,48
1490228890369,78,-87,-43,-21,36,18,-12,63,-67,-31,-65,-128,-65,-4,-16,-17
1490228890418,-44,81,-86,-93,-13,8,2,-20,75,-102,16,-3,-7,4,-7,13
1490228890466,17,-51,-25,-27,-38,-19,30,27,-47,32,-3,-59,-27,7,-11,6
1490228890514,-5,-66,-128,-65,-10,-9,-21,17,55,107,127,-4,5,8,71,0
1490228890516,-95,-30,-34,-56,-12,10,-23,-14,11,-43,-62,-69,-25,-9,61,-18
1490228890564,-30,-40,28,57,12,1,54,-11,17,-6,15,32,3,-8,16,10
1490228890612,30,22,-30,-26,-13,-1,-23,-25,-63,17,7,-25,-16,-14,-17,-42
1490228890661,54,-4,23,-12,-14,-12,6,33,18,24,-17,-23,-27,-47,-32,-16
1490228890712,42,27,41,34,16,11,-4,51,-74,-26,-4,13,3,-5,-40,-45
1490228890759,-74,-25,-42,66,21,40,16,17,103,3,19,-32,-30,-1,45,29
1490228890807,2,-1,-18,-41,-6,-20,-10,3,38,15,3,21,13,3,-3,14
1490228890808,-58,-18,5,39,-21,-42,-1,2,-3,-5,-21,-2,17,25,-35,-9
1490228890856,61,-36,5,-12,13,39,15,28,22,22,3,52,-16,-56,30,3
1490228890905,-43,-8,-13,-24,-19,-11,-11,-19,-35,-24,0,-7,20,16,1,-40
1490228890954,-3,4,-9,-21,-20,-11,21,23,-53,-16,-8,-3,-9,5,-44,-22
1490228891002,-26,-11,-2,-6,-38,-25,-26,-2,-31,15,4,-2,19,0,46,-1
1490228891005,-50,-6,13,-9,-6,-8,-18,22,-9,-16,1,-4,5,21,-27,-25
1490228891051,1,31,0,2,10,15,-29,-12,7,30,1,-1,6,-6,48,17
1490228891100,-1,-10,1,6,16,32,6,-15,32,-15,-2,-2,-4,-10,-7,28
1490228891149,-17,-1,4,-3,-5,-13,16,-15,33,-9,10,6,2,-15,-12,20
1490228891197,31,8,-7,-6,-10,-9,-7,4,-70,-1,2,3,4,1,9,-12
1490228891198,-7,3,0,-1,3,6,-11,4,-17,-3,-7,-4,-6,-4,18,-25
1490228891247,-6,-2,-3,-3,1,-7,5,2,16,-2,-1,-7,-11,-11,-17,1
1490228891295,0,-10,-17,-16,-6,-6,37,-3,92,24,18,4,5,6,-6,20
1490228891344,27,6,6,2,-10,-4,-24,-2,3,26,10,13,7,18,61,20
1490228891393,62,6,-8,-36,6,29,-35,10,42,-8,10,46,26,19,35,9
1490228891443,-37,-41,-71,-23,-2,24,-16,-9,-117,13,41,-57,-6,-45,46,-23
1490228891445,-71,-37,-80,-47,6,20,90,-14,90,5,-11,-43,-37,-35,-64,-48
1490228891491,-84,7,82,126,35,6,49,-1,90,7,-32,36,-3,-19,-33,47
1490228891539,127,57,10,127,18,43,9,-26,-79,-17,-39,-123,-46,-102,-88,-31
1490228891636,-128,13,79,0,38,-15,-16,-36,124,10,-8,89,-10,-42,47,37
1490228891637,-113,-71,69,70,37,21,33,-60,113,65,-123,-76,5,-23,-59,28
1490228891639,45,-28,17,70,-42,-34,-12,21,-13,-27,30,-30,-2,9,-53,-60
1490228891685,82,26,86,81,-3,5,-3,32,-59,-41,-44,-79,4,22,28,55
1490228891734,-113,52,55,63,62,24,60,17,118,-41,-57,81,9,9,-88,-9
1490228891782,46,69,-52,10,44,14,-38,73,-72,-64,-36,-44,-41,23,6,-66
1490228891832,-128,-113,-116,-15,-18,-40,-7,-64,16,86,7,-104,-33,-23,-86,30
1490228891879,-117,-73,40,-31,-47,-43,-79,-57,40,-18,45,69,-1,3,92,5
1490228891880,-123,-128,-85,-70,8,9,42,5,98,88,20,-31,-9,-59,-52,-28
1490228891929,-63,-46,-25,-1,6,54,33,-47,103,48,-20,0,21,44,6,123
1490228891978,-128,36,30,29,-1,19,23,-30,127,35,-33,37,9,-9,11,71
1490228892028,127,49,-12,46,-52,28,-39,4,-26,-6,41,-43,9,3,49,37
1490228892076,-76,-53,6,71,122,18,24,-58,88,111,56,-2,-73,-42,17,19
1490228892124,75,127,127,-17,-18,-7,-4,-39,-92,37,-124,95,106,-1,-20,2
1490228892126,-22,-98,-60,-111,-1,-31,-55,31,-36,-19,114,2,-27,33,40,-15
1490228892173,52,77,127,127,66,30,47,-13,127,-51,-121,-50,-60,-24,-78,25
1490228892270,-41,-19,-128,-89,-48,-5,-21,16,-44,-11,127,-106,-51,-55,9,-43
1490228892272,-13,-79,-80,-97,-121,-61,-79,-15,70,36,-128,90,81,56,5,-7
1490228892318,19,-32,127,9,1,10,9,-21,-99,16,-111,-44,-31,-1,-28,-2
1490228892319,-56,-47,-31,7,1,-12,21,-42,67,91,80,70,80,-11,4,14
1490228892367,20,19,-46,-37,22,-1,26,-35,51,-48,-10,102,71,40,79,67
1490228892464,-16,28,93,127,-41,-9,0,-8,4,3,28,-4,-87,-77,-13,-13
1490228892514,36,57,41,19,-48,-30,-83,22,-46,-49,-114,-127,47,9,-57,-62
1490228892517,-56,-26,-32,-31,-48,-16,46,29,17,34,64,52,-48,50,26,-8
1490228892571,1,-14,-22,-70,-83,-42,-38,-7,0,24,32,70,-53,-47,-43,-17
1490228892574,-6,3,29,30,-57,-43,-75,-26,1,-8,-12,-35,12,59,11,11
1490228892612,-6,-2,4,30,71,13,15,-7,-9,-6,-22,-15,4,-33,41,10
1490228892660,-17,-16,-16,-14,71,-18,-84,-36,14,5,-4,-32,-85,-25,14,-9
1490228892709,-4,-12,-26,-38,-64,-32,113,14,22,35,53,70,-84,-22,-30,9
1490228892758,17,5,12,-28,109,-10,20,12,6,4,0,31,11,45,19,14
1490228892806,-12,-28,-54,-61,46,94,50,20,-25,-22,-29,-13,81,58,-39,-6
1490228892810,-37,33,3,-23,-33,23,-57,-20,-1,46,-34,-43,10,-41,37,-5
1490228892856,30,1,23,32,-18,-128,-49,4,9,-20,18,50,45,-22,65,36
1490228892905,-15,8,50,86,-100,-79,-24,-6,3,-39,-52,-69,-65,46,47,-11
1490228892956,-37,-9,-33,-56,-37,4,-35,-44,9,-4,-22,-21,-6,79,75,18
1490228893002,7,-11,-49,-28,65,32,37,5,-5,11,2,-41,-44,109,-64,6
1490228893003,23,5,19,48,-2,-81,-14,22,-8,-31,28,74,4,-4,-116,-13
1490228893051,9,-5,7,4,-90,0,46,3,5,-14,-16,-41,54,-91,-8,2
1490228893104,9,9,15,-18,-56,-23,25,17,3,-5,6,36,-1,52,5,0
1490228893148,-14,29,2,-7,17,-4,9,-15,-5,29,7,13,-102,-27,-45,-16
1490228893245,20,12,22,29,-8,42,23,24,-3,0,-16,-31,38,4,63,5
1490228893246,-28,17,6,10,6,-29,-42,-11,34,7,9,-3,-27,-13,-5,11
1490228893247,35,19,2,8,-8,-6,16,10,23,19,9,20,26,-89,11,14
1490228893294,-29,-4,58,-13,-30,36,36,23,48,26,-51,29,33,22,-13,8
1490228893343,57,-33,21,18,8,13,-30,25,10,9,-77,-117,-40,-94,21,-28
1490228893392,-56,5,38,74,6,127,-2,-55,87,-19,-4,-67,-22,127,-18,8
1490228893441,20,-15,-46,-18,1,-69,18,66,-99,14,120,-14,-8,-85,-61,-70
1490228893488,-26,21,-39,55,5,-18,-22,-34,-92,-29,17,-7,-1,-22,0,-21
1490228893490,-94,-13,-41,-43,-18,5,-22,-32,13,75,16,40,53,-9,2,-18
1490228893538,94,26,-53,-86,-4,12,13,-16,-41,-93,33,29,-22,-12,34,21
1490228893586,32,24,127,43,15,12,10,39,44,-43,-128,-25,11,-20,-40,21
1490228893635,31,9,12,28,-40,-22,-79,-44,66,43,-68,0,20,17,-11,53
1490228893683,-19,-15,-78,-119,-34,-6,-8,-9,-22,-26,19,58,5,-11,5,6
1490228893685,40,59,89,20,9,8,73,11,-54,-26,-92,-44,-8,-7,-33,-21
1490228893733,7,-62,-14,93,24,-8,-40,-7,38,-24,-22,-56,-14,-28,-10,-43
1490228893782,-90,-55,-1,-42,16,10,23,-19,50,27,127,89,-43,9,13,23
1490228893830,61,65,70,25,15,24,36,48,51,-2,1,-6,1,-2,-29,-18
1490228893879,-4,20,-24,-39,-5,11,-28,22,-1,17,35,54,50,-25,26,-12
1490228893927,50,-36,-56,6,-21,-7,-49,-17,-45,-15,-6,-74,-35,-33,-24,-23
1490228893929,26,-5,39,21,2,20,88,45,36,19,30,17,-21,6,-13,12
1490228893977,-63,16,26,26,24,11,39,-28,-85,-56,2,63,26,-10,60,11
1490228894025,44,12,-13,3,0,-17,-56,-7,50,4,-16,11,21,5,-3,31
1490228894074,-47,2,9,12,-4,-23,-54,-21,39,29,18,18,10,-2,-28,13
1490228894123,20,-7,13,27,37,54,20,10,-44,10,27,20,-16,6,10,-4
1490228894124,-5,-14,-15,-4,5,11,51,18,45,-3,-13,16,4,-5,-54,-12
1490228894171,43,2,4,-5,-4,-29,41,1,-51,13,25,-11,10,18,25,35
1490228894220,3,17,12,12,-10,58,54,15,72,-5,5,-2,13,17,26,10
1490228894269,20,9,-16,-24,-26,-12,3,25,-59,-16,-18,3,-17,-13,-25,-13
1490228894318,6,0,-7,-8,12,-32,-22,-28,17,-8,3,-5,-10,-25,-52,1
1490228894366,1,2,-6,-11,0,10,-77,-16,-34,1,6,16,2,11,88,17
1490228894368,30,-12,-4,4,-11,-30,-9,-24,-53,-10,-5,7,12,20,36,-7
1490228894415,17,9,-4,-16,-12,-7,47,21,22,0,-9,-19,-7,-1,-11,-12
1490228894464,110,15,-11,-2,-12,-21,-39,-34,-89,-24,10,7,7,14,-39,19
1490228894513,68,9,-5,-48,-19,1,-7,-7,66,11,0,10,4,1,16,-7
1490228894562,-18,-5,0,37,10,27,4,21,-47,-6,17,16,15,1,21,22
1490228894609,-90,-45,-32,-10,-1,20,37,-11,-10,10,43,5,14,32,-4,-7
1490228894612,25,32,37,7,-10,-23,-44,-3,83,20,6,7,-3,-20,52,23
1490228894663,57,38,17,9,16,19,-50,-6,-40,-21,3,59,27,9,43,40
1490228894710,33,-19,-15,-26,5,-9,-30,18,62,16,-16,-30,-21,4,66,25
1490228894757,39,21,-90,-31,-5,18,37,-21,-10,-97,-110,-88,-78,-41,-47,-61
1490228894804,-128,-28,37,15,-1,-12,122,6,25,-65,-67,-55,-10,-37,-103,-23
1490228894806,-14,-60,80,-41,-22,-61,-61,-34,108,24,-81,-72,4,49,16,71
1490228894854,35,121,127,127,-4,1,4,10,46,-10,-22,38,1,-6,17,41
1490228894904,1,78,22,102,61,23,-59,-5,-106,-79,-68,-115,20,45,19,-19
1490228894951,12,-9,43,80,25,41,-15,27,74,105,127,102,73,41,76,40
1490228895000,-108,-92,-54,-74,-7,63,-33,-81,88,-11,-49,-60,-59,-59,-71,-45
1490228895048,46,-78,-80,-128,-70,-42,-22,0,-128,-25,21,101,-7,39,30,-70
1490228895050,127,23,8,127,30,35,29,21,-128,-122,-110,-120,-71,-79,-81,-93
1490228895098,70,0,-106,94,-27,-33,-52,-10,-60,124,127,14,54,39,41,-41
1490228895146,45,-37,-44,-128,-32,33,-38,-16,118,96,107,127,-13,16,24,29
1490228895195,86,59,92,-73,7,-9,8,35,-13,40,104,127,-63,-98,-85,22
1490228895244,-79,-35,-113,-53,5,23,3,-68,47,49,68,12,-44,32,39,7
1490228895292,29,31,82,109,53,53,17,25,-15,36,76,77,54,16,62,-12
1490228895294,37,-75,-20,-36,0,25,-11,24,127,40,-30,-55,30,29,9,41
1490228895342,-116,-55,-78,-24,25,6,27,42,-39,32,104,89,28,-14,-4,-10
1490228895390,-86,-113,-94,-107,-1,-23,-59,-60,11,-4,69,44,56,83,58,16
1490228895439,8,72,13,-31,-29,2,4,17,-128,22,33,59,76,0,2,-56
1490228895487,46,-72,-23,-67,-46,38,17,-9,127,-21,-86,-99,-1,-54,-42,-9
1490228895489,-11,109,62,127,95,74,6,27,-4,-128,-118,-111,-65,-32,71,-10
1490228895536,100,69,-94,62,95,-14,-28,65,-128,-99,-76,-114,-66,-7,23,-61
1490228895633,-110,-71,-69,-70,-82,23,-38,-86,-11,45,48,39,-42,-17,21,38
1490228895635,13,-8,-70,-98,-66,-8,-2,-5,-75,-89,-21,-31,67,11,-39,-1
1490228895683,49,101,127,127,5,34,53,1,127,56,-128,-78,5,-3,15,58
1490228895731,-28,-58,30,-42,-22,17,-13,-3,-48,-38,26,22,8,-6,17,8
1490228895733,-11,-2,-47,-20,114,-5,-34,-17,22,7,33,-34,-49,4,-16,11
1490228895781,-39,-52,11,-66,-71,-17,-67,-19,32,-30,11,9,52,9,24,31
1490228895829,-23,-10,-28,92,55,-5,-88,-26,-5,37,65,1,26,33,4,10
1490228895878,26,7,12,47,-2,-39,17,26,-30,-17,15,-15,26,6,-51,-58
1490228895926,14,29,46,1,-3,1,53,31,42,30,44,79,21,40,22,9
1490228895976,28,13,21,-39,47,8,17,18,8,-16,-76,-30,53,-29,15,8
1490228895977,20,22,9,-35,-110,-54,-23,4,-42,-18,-16,-75,-83,22,40,-6
1490228896073,48,17,-11,-87,-66,103,52,56,-33,-12,-17,-14,35,113,-83,-26
1490228896074,31,27,8,-14,-5,118,-6,-6,-27,11,15,96,28,32,-42,-11
1490228896121,11,12,21,11,-51,8,24,44,-3,14,17,-59,-127,-60,-16,-20
1490228896169,16,38,41,18,-46,-65,20,31,-32,20,-6,22,75,-17,-25,-3
1490228896172,0,-29,16,-14,-104,-67,-65,-24,-2,-17,-16,35,16,75,-17,-14
1490228896219,-19,-34,-9,100,18,8,-54,-27,24,-16,-31,10,-87,-53,-33,-20
1490228896268,10,-9,-76,-116,127,53,-8,21,40,22,22,37,-21,14,99,55
1490228896316,-62,-15,-34,-33,24,-10,-75,-35,3,3,-32,32,70,7,-23,12
1490228896365,1,-31,35,22,-100,28,48,28,-12,-8,19,61,12,-91,-13,5
1490228896413,-2,-5,-21,-65,10,-8,69,-4,9,5,7,3,-55,1,-11,18
1490228896414,4,7,27,25,-52,-50,-31,-13,-1,13,-17,-21,-23,59,13,2
1490228896462,20,9,47,80,35,4,-49,3,-27,-5,-4,-56,-43,-45,-37,-11
1490228896513,-10,-19,-31,-44,-48,74,36,-7,3,5,29,34,-11,-44,-31,2
1490228896562,-1,14,12,-8,-38,16,40,-2,-28,-2,18,-7,-99,-34,-26,-28
1490228896609,4,0,6,18,35,25,39,5,23,-5,-8,3,11,-82,-18,13
1490228896657,23,-3,-4,1,-32,14,39,4,5,12,14,-11,8,-42,-30,28
1490228896659,18,27,16,-11,-50,-53,12,-8,-20,-18,8,19,34,-106,-10,-4
1490228896707,12,3,46,38,-5,70,-3,46,-28,53,-49,-28,-7,95,43,-16
1490228896755,58,67,8,43,18,35,-10,7,43,-39,43,37,36,65,-1,4
1490228896804,57,82,23,-64,2,126,-14,-2,-73,-33,66,85,10,106,69,-15
1490228896852,17,59,69,-77,-46,-108,-7,-54,-36,-28,-100,-103,-24,-61,-30,36
1490228896855,-36,37,22,5,39,2,8,-74,86,-37,-72,-29,-38,-23,18,93
1490228896901,33,-64,-77,-35,52,-11,-31,15,-106,-42,-98,-104,-42,-42,-9,-3
1490228896950,-37,-36,-49,-21,3,4,52,18,43,10,18,32,-5,-11,-47,-62
1490228896999,28,-13,-114,-110,-36,-16,-19,-4,-128,-54,30,-35,-42,-15,-48,-6
1490228897048,11,66,22,92,-8,-6,0,15,1,63,116,11,45,12,7,-15
1490228897096,-37,6,91,33,-11,-10,-35,-28,22,40,-49,127,31,23,95,15
1490228897097,-67,9,40,-20,-16,-33,-26,-79,53,-20,-48,-41,-6,17,-43,40
1490228897145,-43,22,-7,-75,-10,-19,105,6,-33,1,127,85,18,34,84,9
1490228897194,-51,-65,-65,-3,0,10,10,4,30,30,47,-24,2,-11,-39,2
1490228897243,-85,66,-21,4,-10,0,-5,-21,87,-88,-44,-64,-14,5,4,44
1490228897291,127,-21,4,-27,-5,-18,-20,60,-36,16,10,-28,-23,15,12,-31
1490228897293,65,-60,-1,48,37,-23,2,62,57,11,-33,-16,-19,-14,49,-11
1490228897340,-15,35,-30,-25,6,-34,-66,-25,19,-4,1,-26,-13,-10,-29,-43
1490228897389,-33,20,7,2,-29,-2,-35,40,-35,32,20,26,23,-10,2,-26
1490228897438,-4,-29,11,21,-36,-11,57,-4,0,21,29,26,33,-37,52,41
1490228897486,20,11,-4,6,-18,-6,-23,-11,18,3,22,-19,-4,15,9,-2
1490228897535,-9,9,-21,13,19,51,-35,-2,7,12,4,18,12,2,-7,2
1490228897538,-46,-3,8,18,-16,-6,42,0,14,-2,6,10,4,-19,-78,-13
1490228897587,-57,-14,-1,15,2,-3,-30,-12,26,-32,-12,-12,-3,-15,-20,4
1490228897681,-56,-20,-24,-37,-58,-43,-29,0,-8,-21,6,23,25,33,-39,-11
1490228897682,-41,-13,-6,-10,9,-9,-16,-14,13,14,7,-9,-3,3,-51,-12
1490228897730,-9,-19,5,10,4,-69,-16,7,23,-31,-14,6,-23,-6,-3,5
1490228897778,49,-4,-4,21,21,56,42,11,-76,-23,3,-11,-14,-9,-5,-13
1490228897779,16,52,4,11,21,72,-39,16,-55,47,5,22,8,20,47,9
1490228897827,-57,-12,-9,-14,10,-33,13,-15,-101,-25,26,8,7,-7,-5,-11
1490228897876,-26,-44,0,1,9,54,15,-18,-62,-44,-24,-36,-11,-3,26,11
1490228897926,-28,12,34,30,0,-9,1,-22,94,43,4,-6,-7,-13,-29,2
1490228897973,-46,-2,1,-39,-28,-24,102,4,30,5,-32,-8,-6,-34,-92,4
1490228897975,6,40,98,54,25,-28,-9,10,-29,17,14,54,11,-9,19,-23
1490228898023,12,31,-3,53,20,-4,93,39,-81,-44,-42,-6,-8,-6,-26,-27
1490228898072,-19,64,-14,34,-15,-49,-61,-8,68,-41,87,11,21,27,48,5
1490228898120,114,-73,-61,-98,-41,9,41,0,47,14,37,10,0,6,-97,-53
1490228898169,-92,-39,-34,-71,-52,-47,-17,14,101,40,70,85,-21,-33,-48,-17
1490228898217,117,6,32,79,-5,14,26,1,-73,37,4,13,17,18,-13,-47
1490228898219,-21,-5,-97,23,41,-7,-31,-16,127,23,88,-82,-6,-11,-11,38
1490228898267,21,58,-10,53,28,27,41,-6,120,127,85,127,71,27,7,95
1490228898316,45,23,-49,91,38,42,58,36,48,-25,-8,-71,-16,-35,50,42
1490228898365,79,98,127,27,-65,-57,-19,13,-57,-85,-126,70,9,12,-65,35
1490228898412,85,-1,114,90,-14,-47,-64,7,73,88,15,-42,-70,-69,-9,-32
1490228898509,26,11,39,-56,-15,36,-7,20,-69,-45,96,66,50,-10,-2,-41
1490228898511,-10,-111,-82,-112,-66,26,-2,-18,-118,-17,-79,-128,-66,-25,11,-48
1490228898513,68,58,28,67,15,-17,57,52,117,28,-80,16,43,10,41,46
1490228898560,-13,47,85,84,5,-32,40,5,105,0,44,-32,-33,-8,-12,65
1490228898608,-109,-34,-43,12,-33,-37,-64,-23,-49,-84,-3,-128,-53,-81,-21,-50
1490228898656,-81,-75,-124,9,-26,61,56,37,-41,-79,-54,12,-12,-14,-11,-68
1490228898657,24,38,-98,5,26,27,87,3,-88,-68,16,-18,12,31,-63,5
1490228898705,35,-44,-62,-127,-65,12,-17,21,-100,-32,32,85,-26,-11,-32,-105
1490228898754,20,1,106,-54,-21,-33,-46,12,-68,102,67,52,59,76,19,-21
1490228898803,-46,82,107,46,42,70,-6,-4,94,58,-48,127,127,39,46,41
1490228898852,20,22,52,113,-7,-20,32,16,74,65,35,13,51,-31,-84,-33
1490228898899,73,12,30,-107,-36,-30,-11,11,-43,-10,-126,-77,-63,-14,7,-6
1490228898901,39,-53,-46,0,-16,22,19,28,-94,-76,26,11,38,11,6,-32
1490228898949,-47,-63,-128,-102,-80,-97,-88,-98,-82,-119,37,-1,-16,33,15,-8
1490228898998,127,80,-30,66,63,-59,-7,39,-31,-76,-128,-91,23,12,-28,-12
1490228899046,-7,-11,-62,-58,2,62,-1,-1,15,-44,-56,-128,-69,-30,-10,27
1490228899096,52,45,127,46,60,53,47,51,83,-7,123,127,42,0,14,50
1490228899143,29,127,101,-68,-46,4,-34,-3,81,-5,-101,19,4,-41,46,39
1490228899145,60,13,-33,78,40,-2,19,25,5,-40,127,36,-85,-6,19,-26
1490228899193,-13,-34,-79,-128,-71,49,33,-34,-76,14,11,-128,-55,43,15,-6
1490228899241,-46,-24,18,26,-110,13,-26,-6,-39,-25,-81,-117,-13,-8,48,-24
1490228899290,25,43,-71,25,-36,-42,-54,22,-56,-66,-60,-32,-31,13,-20,-34
1490228899339,2,-14,5,34,0,66,46,11,23,-29,-26,64,-95,-60,-10,20
1490228899341,5,-29,-24,-79,-25,-29,-8,-5,-67,-17,-42,-41,47,24,-64,-34
1490228899388,-8,11,46,26,-29,30,25,-13,37,18,40,90,121,-23,-11,27
1490228899436,9,8,-9,-54,-32,-70,-36,16,7,-8,-20,-50,-87,16,6,-31
1490228899485,-21,-17,-46,19,47,-63,29,-16,40,20,14,1,-40,-34,-82,1
1490228899534,-48,38,34,-8,-11,54,34,9,-13,5,-26,-43,80,-22,38,-25
1490228899582,3,-10,12,-48,-32,77,70,2,-6,-1,14,20,7,127,90,65
1490228899584,16,2,24,35,-69,-36,-18,6,0,31,37,41,-109,-14,45,-7
1490228899632,-2,-11,-3,-20,29,61,-45,5,0,-22,-55,-107,-52,127,-21,-1
1490228899728,21,-56,18,40,-89,27,47,-25,42,-27,9,25,75,-56,42,28
1490228899730,3,-43,6,1,68,-81,49,22,34,-50,-3,29,-54,-5,34,39
1490228899777,-21,-22,-56,-89,91,98,-53,-36,12,-15,15,4,-27,-25,2,21
1490228899780,-9,37,-4,2,56,72,-39,-7,-25,16,9,-13,-17,-23,-57,-9
1490228899874,45,-38,-18,-43,-9,-68,71,49,3,-11,43,81,-33,-11,-52,9
1490228899876,5,18,-13,-45,-63,-4,-18,8,26,34,39,105,54,-3,-20,-3
1490228899924,-7,18,9,45,33,98,-29,-1,-26,15,64,50,-128,-90,38,-31
1490228899975,-16,37,-1,-1,-22,30,34,-23,-4,6,-20,-50,54,-40,-63,-22
1490228900020,10,-1,3,27,12,64,63,15,7,-2,4,-2,-42,-27,-31,20
1490228900022,5,-3,-24,-12,26,-73,-3,3,6,20,-6,-13,83,18,39,-6
1490228900070,-10,-5,-3,-23,-47,-29,-24,-15,8,13,1,1,4,-45,-24,-2
1490228900119,35,7,0,7,13,12,-13,2,-33,-6,0,14,-36,85,20,-12
1490228900168,-37,38,57,19,-16,-64,6,-19,-9,-29,-27,-5,-26,7,-23,-10
1490228900216,6,54,-40,-23,9,-77,-20,15,12,-67,17,44,2,-24,6,13
1490228900265,34,34,-40,-69,-27,-68,-17,-22,-70,-30,-68,-66,15,70,9,-27
1490228900267,-21,20,77,50,23,117,15,16,5,-42,-122,-25,-2,81,-61,-51
1490228900314,-24,-20,111,11,-13,30,6,-23,37,96,21,-46,-19,26,10,42
1490228900363,0,-9,-22,23,-20,127,2,-52,-17,31,112,51,46,27,-24,1
1490228900411,-95,35,6,-76,-12,-34,-9,10,70,120,57,64,75,-25,81,92
1490228900459,64,58,54,40,45,-32,-42,-28,-59,-90,-12,11,-21,-14,9,-44
1490228900461,90,7,-42,11,63,14,-10,58,26,-31,-53,-7,15,-36,-32,31
1490228900509,-48,-126,-104,-66,-46,-4,43,100,63,123,4,-18,-5,-12,-15,-58
1490228900558,-29,48,74,55,-39,-22,-41,15,73,32,-3,18,29,27,61,26
1490228900607,32,-21,21,-128,0,-14,98,23,-88,-65,-65,116,12,19,-72,-43
1490228900655,2,66,125,82,7,-7,-54,-8,5,-34,-72,-7,-13,6,24,7
1490228900753,-13,35,35,-50,-15,21,-53,-8,96,-43,-12,-26,-26,-15,15,57
1490228900754,4,-15,-12,8,11,-3,47,31,26,-10,-9,-20,-10,-8,-108,-73
1490228900801,52,7,22,86,66,6,6,59,-1,6,0,37,29,16,15,-23
1490228900850,52,-9,-4,-25,-22,-9,93,38,-89,-32,9,20,15,-3,73,26
1490228900852,-124,-29,-27,-32,-28,-69,-115,-104,53,-4,-20,52,-8,21,69,18
1490228900903,80,2,-8,-16,-18,16,14,27,-76,6,13,-10,23,-5,-102,-23
1490228900948,-21,-17,-4,62,38,4,18,-1,33,-3,16,-59,-22,-49,-18,-22
1490228900955,47,29,-8,25,71,-37,20,21,12,-7,12,3,4,42,-29,8
1490228900996,-58,-39,48,17,-77,-19,0,9,68,39,60,55,49,11,28,-3
1490228901045,7,21,-5,40,52,-8,-37,3,33,2,-2,-14,-25,7,-55,13
1490228901094,-15,-16,-51,38,30,24,1,-7,9,-4,-39,-55,-6,-31,-98,-32
1490228901142,22,-32,26,32,43,-30,-39,-4,82,4,37,-1,34,-35,11,30
1490228901143,-19,-36,-1,-64,-32,-15,-5,-12,-62,-21,15,-53,-27,1,-2,-17
1490228901191,38,35,-25,-21,-24,-26,-66,-3,-29,30,3,-9,4,32,20,-5
1490228901240,-103,-6,-52,-32,-3,-16,22,-5,104,27,-5,2,-44,10,-39,17
1490228901289,-13,-15,58,34,18,10,92,22,15,20,68,78,102,54,-27,10
1490228901338,-87,0,-12,-35,-31,-34,-7,-19,11,3,0,28,6,-31,-6,0
1490228901386,23,10,27,-10,-4,8,67,21,-128,-27,-52,16,28,-16,-54,-20
1490228901389,-66,11,53,-6,-5,-15,-91,-39,-52,-22,-12,85,49,19,53,-3
1490228901483,-7,55,44,74,75,102,100,45,17,-99,-127,-105,-66,-36,-33,-16
1490228901484,-62,-75,-109,-80,-44,-69,-29,11,14,-7,-59,-15,-71,24,21,-29
1490228901532,-52,-11,36,-38,-25,-22,-18,10,102,67,37,-19,63,72,-18,6
1490228901581,11,9,-28,93,54,89,2,-11,-60,110,127,70,68,3,-5,2
1490228901629,-54,-14,68,30,30,3,10,21,-29,27,-5,20,7,-55,-83,-12
1490228901631,33,35,16,78,40,38,9,16,15,-29,-32,-97,2,-8,-30,36
1490228901679,-86,-44,-65,94,53,-14,23,-8,68,-40,-29,-81,-21,28,29,15
1490228901776,-79,-55,-10,7,-22,-62,-87,3,12,-77,-124,-66,-84,-3,4,-47
1490228901777,88,-40,-29,5,-11,42,3,62,-79,12,37,-59,19,-36,-7,-16
1490228901825,127,96,-95,23,20,29,-59,97,-27,-7,127,81,4,-27,-19,-61
1490228901827,34,24,-79,-117,-45,-49,34,-32,-71,-41,-128,-27,-30,5,34,31
1490228901877,44,-41,-13,-50,-38,25,45,-20,-56,-7,80,-59,-1,-17,-50,76
1490228901923,85,-52,15,-13,5,-18,34,68,127,82,2,-43,-31,32,46,27
1490228901971,102,46,-12,-28,92,64,118,64,-23,-6,-75,-30,-42,-4,-92,6
1490228902020,-10,62,94,-33,-38,0,51,-5,-19,-15,-33,-24,72,70,80,103
1490228902069,33,-17,125,-31,-47,-37,53,49,110,127,127,127,68,15,54,20
1490228902070,-67,-74,17,-17,98,24,-25,-41,127,-63,-67,127,-17,6,57,37
1490228902118,-89,64,-85,91,53,36,56,39,82,-24,66,-3,-34,12,-24,73
1490228902166,29,-62,9,93,58,24,-50,-4,-128,127,127,67,-53,0,92,-27
1490228902215,58,-37,61,47,56,125,127,52,11,16,-66,-73,-25,-29,-90,32
1490228902264,-11,56,31,59,29,57,0,-9,-22,-85,-67,-52,-27,-41,-34,40
1490228902312,27,-16,-60,40,41,-53,80,35,39,83,-21,-92,-41,-27,-16,-23
1490228902314,-128,-112,-67,-80,-67,-56,16,-77,90,-20,104,12,41,15,-58,31
1490228902361,-19,-77,-88,-126,-104,36,-37,-56,18,53,33,55,-25,74,55,-15
1490228902410,-88,4,127,119,-76,-26,-43,-52,-34,-34,-128,11,42,-47,-4,-52
1490228902462,-15,-52,-8,104,60,7,10,42,-43,1,-96,-90,-84,-52,-20,-17
1490228902507,-59,10,-101,-53,-4,31,42,-20,50,-5,-22,-66,-1,26,-7,33
1490228902509,-29,20,51,-113,-27,-85,-83,-48,16,47,53,70,-18,-1,20,-7
1490228902557,-48,-62,-22,29,-53,44,-17,-19,88,7,-79,-98,-82,-68,-15,41
1490228902606,18,77,-83,-36,27,19,47,55,127,99,98,27,7,-23,3,26
1490228902654,60,-70,81,85,102,-15,-118,43,45,-14,-78,-57,-10,29,45,-6
1490228902703,46,-16,81,80,-56,-36,-54,-39,-76,57,85,108,-2,40,-15,-49
1490228902800,-128,-26,-128,-102,2,12,90,-42,26,-57,11,-61,-33,-89,-94,16
1490228902802,-11,-85,-113,-39,65,25,-21,-34,-71,39,-6,-10,14,-34,0,-55
1490228902805,45,74,98,11,14,28,61,69,41,109,60,25,-78,-53,-10,-17
1490228902849,10,56,-128,-100,-79,-4,-71,-9,-53,-57,-70,-51,95,84,23,-9
1490228902898,-35,-22,-7,-63,-55,-89,-92,22,-35,52,13,95,51,58,21,-58
1490228902946,11,85,-48,127,-73,58,76,-2,-32,-100,-119,-98,12,53,-15,-11
1490228902947,-2,-97,-44,-58,-25,-43,-63,-26,3,88,104,118,-2,-42,-21,-5
1490228902995,-34,-74,-66,-58,52,0,30,-1,30,-32,27,-41,-90,-77,-20,31
1490228903044,0,-10,-128,-90,-33,-8,36,2,-59,-103,-56,-84,72,6,-57,-48
1490228903093,10,50,93,83,34,26,-1,18,-17,-69,-104,-68,-34,-28,-19,-19
1490228903141,-25,-22,19,-7,78,11,35,-11,-6,6,23,45,-17,-30,-13,12
1490228903189,3,-39,-55,-15,-22,-64,-49,6,-20,-9,-5,-5,-65,11,-25,-24
1490228903191,9,-14,-14,3,-11,-86,9,-22,-25,19,-21,17,-15,-35,1,-6
1490228903240,-28,6,8,38,-43,27,39,2,23,32,15,18,70,10,3,-11
1490228903288,-28,-47,-53,-50,-27,-8,-21,-27,25,10,10,-42,-27,-2,30,11
1490228903336,-9,8,-2,-37,-62,46,-40,2,4,1,-12,-1,-21,-89,41,-2
1490228903385,24,-3,18,80,-85,-17,2,34,-11,-48,-52,-39,90,127,-24,-4
1490228903433,24,-16,-22,-30,-54,-21,24,-4,3,-15,-10,78,46,21,-5,-7
1490228903435,-12,37,-49,-97,85,-45,-21,-17,44,13,11,7,-25,-114,16,45
1490228903483,14,-19,-24,6,101,53,-62,-15,5,-1,-5,-44,-18,59,-4,11
1490228903531,-1,-1,15,50,-92,12,0,11,18,4,-26,-56,46,86,-24,-11
1490228903580,-7,22,54,70,-74,-99,68,24,-16,6,23,56,52,-1,-10,-7
1490228903628,-18,-7,-23,-30,107,88,44,-21,22,21,14,31,-13,-23,-61,9
1490228903630,2,7,-13,-1,121,64,-62,-26,-12,-4,-2,49,-60,-95,-23,15
1490228903678,8,-9,-11,17,127,32,-4,0,-3,-20,-20,-40,-63,-17,46,15
1490228903727,-15,-1,16,14,4,-26,-30,-20,10,6,19,26,-52,-33,18,-11
1490228903777,16,37,4,18,-31,7,1,15,-9,18,-21,-21,50,67,14,-13
1490228903824,17,14,32,54,-33,15,-17,16,-3,22,-7,0,15,-19,27,-2
1490228903872,5,-3,22,-22,0,-10,13,-3,-16,-3,3,-15,-46,15,-22,-17
1490228903874,-51,-61,-36,-20,-45,57,-70,-18,4,13,21,11,-3,112,73,8
1490228903924,25,38,-5,-10,1,-32,-36,-14,59,4,18,-18,-21,-18,-6,6
1490228903970,38,11,8,44,56,20,1,7,7,8,65,44,49,65,-22,8
1490228904019,6,-71,11,-7,-13,-35,-68,-22,-57,-69,-75,-3,8,43,81,6
1490228904068,-28,-59,49,17,8,41,49,-5,12,32,-7,21,-5,20,-42,-6
1490228904116,41,-111,-128,-57,9,84,-56,24,-113,17,-71,-116,-44,33,48,-22
1490228904119,21,-13,-4,-44,-1,-6,11,-16,47,23,71,34,21,52,-67,-21
1490228904165,-55,-10,-47,107,11,-83,-70,-56,51,35,89,-48,-46,-51,22,-21
1490228904214,6,30,86,67,42,6,-5,6,-43,-6,-8,-9,-30,-75,-18,1
1490228904262,35,-76,-53,-33,-26,17,-14,8,64,97,-56,-32,-25,78,-20,22
1490228904310,-38,11,7,77,3,-19,73,44,127,31,127,67,26,3,6,9
1490228904312,75,93,11,-59,17,15,18,53,16,-49,1,110,35,3,50,-30
1490228904360,90,127,35,-62,17,5,22,-3,-82,-90,-71,-2,-7,-15,-68,4
1490228904409,43,-48,-69,-56,-27,-11,-42,-88,-27,43,96,-34,6,2,-4,-5
1490228904457,-71,2,24,65,46,8,-4,-3,98,-12,10,2,7,5,18,15
1490228904514,3,-24,-68,-5,28,15,61,-38,75,-27,31,33,-26,-15,-49,2
1490228904555,-16,20,-9,-19,-4,1,-21,37,94,-42,-112,-128,-6,21,25,32
1490228904556,47,0,60,3,-18,-4,-38,41,-48,85,127,127,17,1,42,-4
1490228904608,66,30,8,-1,-6,-6,54,5,6,77,124,-23,-22,4,-29,11
1490228904652,-35,-52,-92,-26,22,41,12,2,-71,10,12,-64,-27,9,50,30
1490228904701,9,-27,-37,69,35,18,-11,21,-23,-18,-66,-128,-50,8,-17,18
1490228904750,-26,-12,11,-13,3,-42,-2,10,97,8,75,93,45,30,26,65
1490228904799,46,54,8,66,29,25,-49,16,-2,-69,-78,-25,8,-2,76,-24
1490228904800,-59,-37,-79,-42,-2,2,44,-29,-7,-1,6,-10,-31,-29,-47,-17
1490228904848,35,0,-9,4,-22,-27,-77,-1,-17,24,46,-9,34,20,-22,-39
1490228904896,28,14,58,-25,-9,14,19,10,-14,18,23,60,31,-9,-42,22
1490228904945,-21,7,-5,-46,3,14,-39,-10,82,25,26,29,-1,7,81,34
1490228904993,0,-22,-20,-6,-32,-32,-13,5,-37,-4,3,-58,-43,-6,43,-13
1490228904995,-51,-9,-10,16,28,7,14,-11,14,-4,-18,-8,-32,-7,47,18
1490228905042,70,28,11,34,84,100,51,10,40,-11,-15,-12,9,-38,-28,-12
1490228905091,5,-5,-24,-56,-99,-15,-27,-6,-29,-10,-32,17,85,28,18,10
1490228905140,-36,-21,-37,-27,-29,-39,-37,-11,-28,10,20,5,23,37,34,-3
1490228905189,12,38,-19,-38,4,-60,-56,-24,31,23,-13,-67,-41,11,-1,2
1490228905237,54,-2,2,40,8,-22,12,15,11,11,-9,10,-10,-15,39,11
1490228905239,-19,-10,7,-8,-1,6,-44,6,-23,-9,-4,-1,-8,0,13,-25
1490228905286,18,19,5,22,70,-16,2,9,57,16,12,-15,-22,-53,23,20
1490228905335,9,-13,-3,16,1,-16,-2,-23,-46,-10,-8,-22,-36,11,-37,-20
1490228905384,12,1,-4,11,21,16,17,-4,-8,-14,-9,-7,2,5,-7,-1
1490228905432,19,6,6,-19,-30,8,-28,1,-31,17,12,11,9,30,42,13
1490228905434,32,7,-3,-11,-18,-8,-5,1,-19,4,-7,-6,4,-19,-30,13
1490228905481,5,-1,-2,-28,-30,0,43,-5,-62,-20,-15,-15,3,-7,-13,-5
1490228905530,116,20,23,17,-5,-13,75,70,-2,5,-4,-6,5,-3,-30,-21
1490228905579,-99,-27,4,15,9,11,-71,-36,122,-26,-2,1,4,43,88,30
1490228905627,-107,-49,25,39,-9,-36,-14,21,63,7,-59,19,19,39,-42,6
1490228905675,-11,29,40,90,51,28,-14,-10,49,34,56,-41,-20,-76,-59,-26
1490228905677,105,-87,-120,-64,-63,-63,-78,-44,-58,-27,87,-71,-7,24,50,43
1490228905725,23,73,-47,19,-27,-60,-24,-29,22,31,40,65,12,9,29,47
1490228905774,87,103,127,4,31,29,103,-3,73,38,-61,-14,8,-25,-43,18
1490228905822,66,2,23,74,23,-17,-28,6,6,-52,-28,-90,14,60,-87,-30
1490228905872,12,72,56,69,56,28,68,97,127,103,-15,95,49,34,22,25
1490228905919,35,-128,-128,-128,-85,9,-94,30,47,80,118,42,33,54,54,52
1490228905921,-34,21,-26,29,-34,84,15,-34,-69,-27,-38,-54,41,-15,-36,3
1490228905969,-63,-11,-78,-128,-71,-74,-73,-68,7,-81,-55,44,59,119,12,-17
1490228906018,-17,-72,-39,-127,40,0,66,15,15,93,65,6,-68,-87,-23,-4
1490228906067,-38,78,91,68,-7,-15,52,-63,29,-84,-84,-20,101,84,20,10
1490228906114,70,40,95,58,1,-14,-40,-1,-128,-116,-128,-7,29,60,37,-88
1490228906116,69,38,-61,47,92,34,-7,23,-1,-100,-78,-127,-92,-66,-79,-30
1490228906164,-114,-43,-97,-97,-34,33,45,-42,21,3,72,86,8,9,15,-4
1490228906213,10,-18,-95,24,89,81,40,-47,45,-7,-60,-79,-88,-128,-108,24
1490228906261,75,18,66,73,16,56,90,46,-113,81,18,15,29,-5,1,-27
1490228906310,111,91,-59,4,-6,14,-86,90,-94,-84,2,-36,16,0,127,25
1490228906358,-55,63,62,-128,-123,37,-10,47,93,-48,79,54,45,98,62,42
1490228906361,-89,23,41,72,60,10,117,-54,66,-63,-26,-17,-15,-37,-15,90
1490228906407,-59,-111,-2,-30,-58,-19,-31,-39,31,108,79,52,-55,-49,-45,-70
1490228906456,94,-17,-7,114,97,-34,-38,70,-128,-73,-26,-94,-52,-28,-31,-128
1490228906505,14,-128,-45,-36,-44,-29,-40,-31,-49,-2,-70,-72,-60,-45,-17,21
1490228906554,71,74,-18,-52,13,39,44,-78,-25,58,-13,127,82,14,127,-60
1490228906602,-47,22,-100,-89,-91,-34,-87,77,-18,-79,17,-19,7,-11,-37,-81
1490228906604,39,-21,-40,-78,-3,-28,-54,-22,65,-39,45,70,-60,-24,-84,53
1490228906652,-2,46,-50,50,-54,-49,-109,20,11,-86,-46,25,32,18,68,-10
1490228906701,-17,67,16,-32,-42,-35,-117,-84,47,-47,6,1,-21,-64,-16,22
1490228906749,94,-59,53,11,127,31,82,63,83,32,-76,-128,-49,-41,-86,-25
1490228906797,-69,-30,72,-56,-32,43,45,4,32,92,26,-17,-83,-46,-47,37
1490228906799,62,-58,-79,-61,70,18,35,43,69,-128,-118,-44,70,52,-5,-6
1490228906894,-100,-5,50,61,60,73,46,52,7,-2,-87,8,-1,9,-33,-38
1490228906896,96,-8,107,127,79,21,-17,38,-1,-49,-5,-36,30,45,-20,-37
1490228906944,-61,-97,-104,-125,-13,-11,-91,-39,53,91,69,89,-4,-25,-14,-29
1490228906993,51,-41,-38,27,101,66,83,63,-8,80,88,127,21,-9,-56,30
1490228907041,-52,-61,-74,-106,-49,-49,-66,-64,42,-9,37,38,102,44,34,12
1490228907042,127,90,-73,-24,-41,-42,55,39,-128,-55,45,85,-111,-25,-32,-41
1490228907092,-41,52,99,83,81,6,17,-35,74,49,-95,-26,19,40,-25,28
1490228907139,9,17,-13,-33,52,68,24,13,-69,-13,-38,-70,-10,5,46,-57
1490228907187,20,5,-92,-1,-98,-73,-29,4,12,-29,37,-9,6,-20,-49,18
1490228907236,-41,-12,-42,-54,2,-9,3,0,14,42,40,8,-128,-70,-13,-13
1490228907284,14,57,-56,18,74,19,-24,-4,-1,1,28,-57,-61,-76,-82,1
1490228907285,-18,-66,-4,-9,-127,-45,8,-3,23,55,127,26,-115,65,-10,5
1490228907334,-40,-37,-44,29,61,63,-25,-12,15,4,-6,49,-6,127,20,3
1490228907383,-40,13,31,62,-6,-70,-40,-12,55,-9,-37,-121,-81,-116,22,30
1490228907432,-5,-17,11,13,-128,-26,45,-3,-11,3,29,27,26,-89,6,-7
1490228907480,-23,3,-37,-19,17,116,12,-34,31,11,-22,-41,23,36,-17,17
1490228907481,14,6,27,-8,50,80,79,42,-15,5,22,53,-17,32,-37,-22
1490228907529,3,6,15,35,29,24,-25,5,-25,19,-29,-53,-93,9,28,9
1490228907578,48,-8,-81,-128,27,22,-71,0,23,-20,26,82,-15,-11,11,-22
1490228907627,36,-14,40,56,-61,-105,-29,22,-4,-30,-32,-25,32,-38,13,-44
1490228907675,39,23,22,25,3,-39,-28,23,26,1,4,2,-38,-70,-127,19
1490228907723,-53,-39,-32,-70,46,-38,20,1,-6,5,47,45,-88,-66,15,0
1490228907725,23,23,46,68,-101,-85,-90,2,-52,-9,-26,2,96,81,44,-4
1490228907772,2,-1,29,3,1,-49,41,21,-3,-7,-88,-83,16,70,-55,-39
1490228907821,5,2,-39,-62,52,54,-2,7,14,6,42,29,-31,23,-47,23
1490228907918,-1,28,25,109,54,-118,27,10,17,15,5,34,14,55,-3,8
1490228907920,-24,-22,-6,5,-55,58,-4,-10,-19,1,1,-65,73,-1,-21,-27
1490228907967,-1,1,-4,-54,-91,52,-27,1,19,-1,6,17,24,-46,14,5
1490228907968,3,-1,-21,-25,48,90,47,-1,-10,17,0,7,-14,-56,7,-15
1490228908016,-22,-17,-3,8,-63,8,-12,-20,1,-3,-16,-12,63,-52,23,15
1490228908065,0,3,-4,5,28,-53,-4,14,-30,-15,-14,3,-14,66,-5,-16
1490228908115,15,10,6,26,80,29,26,4,56,40,51,81,24,-48,-34,19
1490228908164,40,50,12,-4,-17,-61,-20,10,-58,-56,-24,-32,-9,-50,-10,-45
1490228908212,27,65,19,-51,-19,47,-27,-37,-28,-34,-93,-96,6,53,30,8
1490228908217,-64,-53,24,45,4,-61,-66,-11,6,41,-17,15,0,-17,18,15
1490228908261,-46,25,-5,-5,-60,57,38,-54,-61,-79,-59,-69,-37,65,-26,44
1490228908309,51,-1,40,-19,-14,72,18,2,10,-19,-76,-94,-15,93,-98,-38
1490228908358,56,40,-46,19,31,-34,-46,-10,65,9,46,-12,-1,-7,63,34
1490228908406,60,-66,71,108,23,-4,-85,36,86,75,25,104,34,3,10,18
1490228908407,-83,-28,-128,-128,-49,-74,17,-100,-105,-128,-30,-106,-3,-49,9,39
1490228908455,73,-29,-100,-32,32,6,-11,36,68,25,-7,-96,-44,-25,-112,-78
1490228908504,-87,-100,-105,-128,-126,-11,43,10,22,83,119,127,49,22,60,12
1490228908553,-125,-121,-83,38,71,-25,-41,45,14,127,29,-38,57,58,68,-38
1490228908603,38,50,71,6,15,-11,-32,91,-52,-6,25,3,-24,-23,-92,-65
1490228908604,-45,-105,-25,8,-13,-4,-101,17,-75,-50,46,82,16,19,92,40
1490228908650,36,93,79,-1,-21,0,-40,-44,-45,-4,-70,68,84,31,38,13
1490228908698,-128,-73,33,36,49,24,1,14,-97,41,31,7,48,16,9,-6
1490228908747,-72,97,-60,-35,61,24,51,-1,87,41,80,39,-13,-8,-45,20
1490228908796,-66,27,79,35,26,22,50,105,71,-16,1,7,-2,1,-93,-11
1490228908844,15,8,20,-112,-30,-16,24,-54,-122,24,12,70,-18,32,-34,-21
1490228908846,-67,9,-36,-31,36,53,66,30,81,35,102,64,34,-3,38,7
1490228908942,-76,31,45,3,-17,2,-20,-18,25,-79,-58,-15,-3,-12,-40,21
1490228908944,77,22,90,43,23,-8,-67,4,5,11,-83,-6,15,20,-49,11
1490228908992,110,49,20,24,32,54,87,53,-29,-15,-20,-16,-12,-12,113,61
1490228909041,88,25,-15,27,23,21,-5,22,-128,-35,-18,-22,-11,-6,-93,-114
1490228909092,49,15,34,31,0,-34,-43,-6,-52,0,-23,0,-45,-22,-28,2
1490228909093,-22,-25,-31,-80,-31,22,43,16,-25,15,34,8,-11,-2,-31,-27
1490228909138,-55,15,24,31,39,21,-11,10,34,-23,-32,2,2,-48,-9,6
1490228909186,-71,-20,-51,-54,-28,-5,6,1,106,-5,-3,-47,-8,-23,-27,-1
1490228909235,5,1,-15,-51,-8,46,18,-15,-35,4,0,22,7,13,-37,-17
1490228909283,-25,-19,43,16,-19,-17,-74,-15,29,-15,0,26,22,19,-9,23
1490228909284,-17,-17,-6,-31,-15,18,-26,-14,-40,0,18,17,-60,-2,41,16
1490228909333,45,1,-2,33,7,-13,-49,2,-75,12,24,19,40,-8,-19,-26
1490228909381,-15,-11,0,9,10,1,2,-7,0,-12,25,-20,-26,-43,-23,2
1490228909430,48,9,-11,1,6,11,-24,3,4,-8,-13,10,13,-59,24,5
1490228909479,-64,17,11,-5,-23,61,20,-5,-5,-17,-3,23,41,42,6,6
1490228909527,-2,-21,6,18,60,-14,-30,-14,-16,-26,-2,-32,-111,-35,-21,1
1490228909529,-45,12,20,-8,-14,-50,21,22,-6,16,-9,-5,17,43,13,-5
1490228909576,-44,-29,-30,0,0,-62,-41,-37,48,-3,7,16,-28,7,-30,16
1490228909625,10,5,-6,30,67,54,44,8,22,22,16,-24,-16,-42,-15,9
1490228909674,10,12,2,-15,-74,13,-13,13,-14,6,-11,57,97,-10,23,-5
1490228909723,33,3,13,-24,-37,13,9,7,-4,-22,-1,-11,9,-4,-32,-6
1490228909773,16,-2,-4,-8,9,-8,-15,-12,2,5,-1,-4,-5,4,42,12
1490228909775,-1,11,13,4,17,-10,-20,21,-30,4,-6,-41,-38,-22,-42,-21
1490228909820,4,4,23,10,-21,27,60,3,-7,-1,1,-1,22,-9,7,3
1490228909869,-57,15,5,-57,-34,-23,-30,7,44,16,4,9,37,10,34,23
1490228909918,56,-4,20,0,-26,-10,7,12,-31,-4,2,-15,-38,10,-15,3
1490228909966,-25,-4,-5,19,52,19,-25,-16,3,2,1,-27,-11,-3,47,16
1490228909967,-2,-29,-6,5,-9,30,51,4,-4,-9,3,-25,-30,-27,-67,-26
1490228910015,41,-4,-12,-6,38,21,31,15,-31,-5,10,-3,-30,-6,-14,-6
1490228910065,20,1,5,11,-5,-22,31,25,-34,-16,-6,-9,-55,-17,48,25
1490228910113,85,7,-1,3,19,-13,-49,-2,-15,-5,-16,-9,-19,5,33,15
1490228910162,12,5,13,-14,-19,-4,-101,-14,54,5,4,0,2,7,21,10
1490228910209,4,-12,-7,-22,-11,9,5,-13,14,-5,-3,-7,5,16,42,9
1490228910211,46,2,-13,-11,11,-11,32,-7,-11,-2,3,-11,-57,-9,-25,-7
1490228910259,-20,5,3,-1,0,-3,49,-1,9,3,4,30,64,46,12,-2
1490228910307,-33,-5,3,10,-61,-6,29,4,27,5,1,-9,32,53,13,4
