1490742839330,45,-112,-24,44,-92,23,15,14,-79,-117,-11,28,30,-8,-63,-36
1490742839378,74,70,-22,-50,26,2,-83,1,104,78,57,102,90,13,85,44
1490742839379,-73,6,-28,11,-80,-73,79,22,-20,-7,-41,-128,-120,-9,-128,-20
1490742839428,3,15,-23,-62,-50,-99,-85,22,-29,-45,-2,-72,62,46,48,-29
1490742839476,-82,-44,-3,16,96,9,-7,-14,12,25,58,121,-26,109,-128,-18
1490742839525,-15,-88,-41,-68,-41,-54,-16,-54,26,-21,-12,74,20,31,86,35
1490742839574,27,127,49,54,39,6,80,33,72,32,-10,-32,93,65,24,-4
1490742839622,-45,38,-23,-42,127,102,-2,89,17,-36,-50,27,-120,-128,-98,-77
1490742839623,127,-93,4,101,-111,-101,55,-13,2,-31,24,45,75,-5,1,43
1490742839671,-25,-16,19,-37,111,125,-36,-27,-4,-64,-46,63,25,-115,70,-36
1490742839720,-95,-109,-35,-71,-71,-128,-128,-122,127,64,-21,-11,13,97,84,102
1490742839769,-72,109,34,127,119,36,127,111,-23,4,3,-38,-128,-29,-84,-79
1490742839817,6,-54,4,-1,78,-52,-64,3,-57,60,17,9,-128,-58,-13,0
1490742839818,-21,-46,-14,-77,-75,-71,-27,-86,-39,-44,20,-55,6,101,6,-47
1490742839866,28,-45,-10,54,127,72,83,88,-13,95,39,105,108,95,68,-95
1490742839915,-22,-51,-19,-89,-128,-121,-5,-51,4,105,31,40,83,78,108,127
1490742839964,101,-38,42,-18,-59,9,35,-2,-92,22,-55,-51,5,68,86,97
1490742840012,26,57,48,116,117,-15,117,108,-16,-128,-48,-116,-109,-128,-128,-87
1490742840109,7,17,-10,-33,-7,-50,-82,-22,35,-65,37,37,106,8,23,-63
1490742840110,36,51,-44,-96,-128,35,-8,-31,2,26,-40,-72,-17,-2,-27,-25
1490742840111,-34,1,-48,-81,66,109,56,0,0,-23,78,127,58,54,2,36
1490742840159,-5,26,21,69,77,53,32,12,9,-58,-21,-74,-106,-99,-110,-7
1490742840207,-4,66,-6,71,71,19,-31,-20,-2,15,10,127,127,65,5,15
1490742840255,5,78,-8,-117,-128,-63,-4,14,-8,-1,-19,-111,71,-110,-38,-42
1490742840257,-10,15,-36,-56,13,48,27,11,-7,58,-11,8,26,-5,-6,-11
1490742840305,20,-123,67,59,41,32,-40,-11,9,-122,3,53,46,55,74,25
1490742840354,49,81,-50,-32,31,35,27,1,-63,59,86,61,19,26,31,28
1490742840402,-7,23,1,-89,-40,-8,6,-2,-9,18,-14,-60,-9,-8,-42,-20
1490742840451,-22,-27,-8,12,6,6,-14,-15,7,-34,-15,8,21,-50,-11,8
1490742840499,5,-7,-14,13,49,2,20,14,-30,-66,-23,-12,-16,10,21,4
1490742840501,-66,-29,-7,21,-41,-51,-14,9,38,-27,-20,-15,65,25,19,14
1490742840549,-45,-75,-48,-24,16,43,26,11,-26,36,-21,-6,30,-38,-38,-4
1490742840597,29,28,2,-42,18,4,7,-6,-22,21,45,11,32,6,-10,-6
1490742840646,6,98,24,-3,1,-8,0,5,21,-64,27,13,29,12,39,6
1490742840695,-29,-128,-21,-42,-10,-10,-19,-7,21,-103,6,-4,-16,17,-12,12
1490742840744,40,-28,-3,26,5,23,3,0,-16,-2,-33,-47,0,24,10,1
1490742840745,33,39,-51,-71,1,-7,-7,-4,31,31,68,74,-23,-24,3,4
1490742840793,-61,18,-2,-20,-8,2,9,12,68,-3,5,17,3,28,-2,8
1490742840841,39,-5,14,40,9,-7,-8,0,-29,9,-9,-17,-14,-16,9,-8
1490742840890,29,29,-18,7,-16,17,-7,6,36,15,-6,-10,-2,-13,-38,-20
1490742840938,37,-19,12,14,8,7,17,11,45,19,-11,-59,-37,-23,-18,-7
1490742840940,-13,-5,32,4,5,8,5,9,49,15,-1,-9,14,17,4,-2
1490742840988,12,-10,-11,-47,-10,-14,8,4,-45,16,25,59,12,-11,-15,-1
1490742841036,32,5,20,12,10,14,32,42,77,-18,-1,2,1,5,-5,11
1490742841085,-51,-112,-27,-13,3,4,4,-1,-75,-122,11,12,9,-9,-5,-11
1490742841134,38,97,-4,-1,7,7,-16,-3,-13,127,-11,-4,-14,-27,-1,-7
1490742841182,7,33,0,20,52,22,39,10,9,41,-7,-2,-78,-14,9,22
1490742841183,-59,25,20,34,-11,-47,-32,-19,53,-33,-12,-60,-26,23,39,35
1490742841231,95,127,-24,-26,-31,-28,-56,6,-86,127,-4,15,27,10,-27,-54
1490742841280,12,-109,-2,-11,-40,27,-45,-34,102,-41,-14,-30,-14,-15,-9,11
1490742841329,-6,-94,-25,-22,-39,-37,7,-20,111,7,1,-33,-28,-18,-103,-35
1490742841378,-49,-49,27,47,99,127,104,49,12,-128,-5,-26,-74,-81,-3,4
1490742841426,-123,57,-15,64,97,22,-38,-57,61,2,10,-40,-16,39,92,43
1490742841427,-23,21,-3,-50,-55,-11,-58,13,-55,63,32,61,118,102,73,-15
1490742841475,-41,-46,-14,-33,-75,-57,-13,-33,-3,61,5,-16,-34,-5,-15,-8
1490742841524,-23,-36,-20,-16,-43,9,0,-14,-33,-128,44,2,-27,-56,4,-6
1490742841573,118,-18,18,10,1,-42,69,64,-108,103,14,-22,-20,8,-58,-65
1490742841621,-34,26,15,-22,-73,-45,-37,-27,-9,-128,-6,-29,-37,12,46,26
1490742841669,-30,60,16,21,45,22,10,-6,19,-5,-7,17,-14,-7,-1,-16
1490742841671,-28,80,1,0,16,-74,-54,-12,-78,123,13,44,18,81,65,15
1490742841719,-18,22,-1,20,8,8,7,-16,-111,9,-19,-20,-11,-26,-26,-4
1490742841768,64,15,16,14,-13,16,15,60,-13,-8,-2,21,58,70,31,-37
1490742841817,98,18,8,32,-25,-21,47,17,13,0,-25,-15,-1,14,-49,-10
1490742841864,62,-22,-2,-16,-1,-3,-8,-31,-54,1,26,-22,-52,-31,-4,2
1490742841866,78,23,53,65,3,39,22,35,3,3,-8,-5,42,-5,-2,1
1490742841914,-128,0,1,6,7,9,-16,-11,127,-20,10,21,25,5,34,43
1490742841963,31,7,-3,-23,-3,19,-42,-1,-9,-25,-11,7,-11,-5,20,5
1490742842011,-7,-11,-23,-37,-16,-20,-34,-26,-121,3,-1,13,-3,6,19,-1
1490742842060,-16,-12,-9,-5,7,12,33,11,1,34,14,8,-11,-11,-12,-22
1490742842108,-39,-7,-18,-20,-1,10,22,-6,127,16,10,14,1,5,4,36
1490742842109,-56,25,1,16,9,-8,17,-22,-31,22,-10,31,0,0,-1,-10
1490742842157,28,-10,8,-26,-11,-19,-28,-7,17,0,10,7,-4,27,7,45
1490742842206,35,-35,22,37,9,41,71,44,-57,-9,-24,-34,-20,-35,-8,-43
1490742842256,-97,-25,3,-14,-2,19,3,0,12,-15,-5,14,-7,0,10,-21
1490742842304,32,-103,2,4,2,-4,-74,5,-9,58,-24,-38,5,-45,-57,-44
1490742842306,33,94,-15,3,-27,-6,-68,-32,-35,19,-27,-10,38,20,63,0
1490742842352,65,7,-18,66,85,49,66,2,-76,-37,-22,-42,-60,-20,-31,-2
1490742842401,-117,-10,1,10,69,76,-6,-5,127,5,-12,26,-107,-81,28,-20
1490742842450,55,-9,-7,20,33,-126,64,50,-52,-23,1,-20,-84,-24,-1,-30
1490742842499,-67,-40,6,112,127,-53,-42,-6,-62,-55,-60,-89,-90,-101,22,-72
1490742842547,-97,-66,3,-29,-62,-45,-55,-53,26,43,-35,-2,5,81,11,-18
1490742842549,-25,-86,-67,-75,-128,-48,38,-93,38,-36,-8,-77,13,-96,-18,86
1490742842596,13,-92,22,45,55,45,-6,70,-55,80,46,127,127,-30,-3,-3
1490742842650,-128,121,17,-91,-37,62,7,7,55,-90,5,-76,-8,29,18,-15
1490742842697,38,-72,4,-4,-9,-49,-114,-9,-114,95,-2,-13,51,127,64,-31
1490742842743,-50,-50,-33,65,40,-92,-81,-21,103,-62,32,19,-98,75,89,85
1490742842791,21,9,33,-20,-90,90,80,106,-25,18,15,-29,127,-1,-41,37
1490742842792,-83,-25,-1,-15,127,84,116,-8,102,-90,43,127,97,127,76,96
1490742842840,97,4,-2,-110,-95,-115,82,-5,-90,-13,-43,2,-76,9,-122,-66
1490742842889,-120,-39,17,-26,14,30,-45,-14,5,-45,3,108,122,38,113,-15
1490742842938,113,-101,-11,-86,-116,-58,-32,-122,42,-27,0,-7,51,45,59,76
1490742842986,-83,3,5,91,96,72,-32,-109,81,74,49,83,57,56,49,73
1490742842987,25,16,-14,-37,-80,-65,-26,-12,-67,-16,-61,29,-32,32,47,-38
1490742843035,20,74,-9,-53,52,88,23,43,-43,27,25,77,-56,79,126,79
1490742843084,-18,19,1,-77,-113,-11,7,-46,-2,-1,-94,-117,122,-128,-58,28
1490742843132,26,0,11,73,-64,-28,120,79,-39,-14,9,102,5,41,-114,-128
1490742843181,-1,0,59,78,19,39,-25,27,18,4,55,113,-111,97,107,2
1490742843230,-2,11,-12,-66,-78,-8,-73,3,-12,32,-22,-60,52,-65,-110,-37
1490742843231,3,-6,16,-15,-23,79,54,-3,-5,-14,-83,-126,-103,-123,-89,-63
1490742843279,-8,-13,57,67,-22,14,-38,-12,10,4,51,115,123,103,51,44
1490742843328,37,9,43,127,102,106,9,27,6,-5,65,127,-19,115,112,51
1490742843376,16,14,-26,-110,-38,28,22,5,11,5,11,-21,-88,-34,14,10
1490742843424,-22,30,-23,79,48,28,-29,-37,-14,62,21,74,-35,-24,-18,22
1490742843426,12,-31,16,100,87,78,48,24,-10,114,43,92,62,57,48,4
1490742843474,-1,-70,-4,-128,-84,-40,-47,-20,-3,-83,-11,10,26,-16,-22,-11
1490742843523,16,-54,-9,10,38,36,18,9,11,-128,47,91,55,44,14,2
1490742843572,-11,-44,51,89,51,24,8,-3,-8,-52,-41,-84,-35,-40,-45,-8
1490742843621,8,107,-31,-48,81,-48,-23,3,13,82,13,-29,-61,-72,-46,-11
1490742843669,-8,-111,-1,127,127,79,41,25,-12,-23,32,-9,-71,-34,7,-3
1490742843674,62,-79,-11,82,8,33,16,3,-27,78,13,76,81,23,-4,6
1490742843718,-12,122,15,37,-37,-19,-4,-9,32,43,-68,-93,-76,3,13,5
1490742843767,-24,-76,-42,-80,12,-24,11,5,3,-47,-5,-13,-25,-37,-21,-17
1490742843815,-8,105,49,14,-10,-21,-28,-19,25,102,-36,-32,20,11,6,-1
1490742843864,-6,-65,-9,-26,-15,0,-17,-8,25,-61,-3,1,0,12,-7,-3
1490742843913,36,-19,16,22,22,14,-2,10,-47,-45,-19,-40,-19,-13,-10,-9
1490742843914,53,14,32,-15,-28,-3,-11,1,-76,-21,-15,-9,-12,-3,2,-13
1490742843961,-25,14,-21,23,-11,-5,-8,3,-4,7,20,-3,16,4,14,-7
1490742844010,-24,-3,4,-9,-2,3,-8,-1,65,8,32,10,-12,-3,2,12
1490742844059,70,9,6,12,-1,-3,0,7,-28,9,-9,28,10,-9,-1,-9
1490742844107,39,36,15,4,-1,-7,-8,6,10,9,-2,-6,2,2,4,-1
1490742844109,8,5,4,-9,25,37,26,19,-5,6,5,11,-25,-11,-33,-25
1490742844157,-125,-105,-1,33,-6,-1,-18,-22,7,-72,-42,-43,-29,-6,5,-2
1490742844205,-12,10,-20,3,9,-22,-11,-4,-9,43,-1,-33,7,18,-8,-3
1490742844254,-36,85,-14,11,-15,-1,-58,-24,27,113,-10,12,26,7,13,15
1490742844303,6,30,-60,0,25,66,83,33,-5,21,36,22,-34,-13,-42,-7
1490742844352,10,-5,16,38,22,-25,0,-8,28,9,33,-3,-7,-8,13,13
1490742844354,-14,-2,-30,9,-27,-27,-55,-16,14,4,14,-50,-38,48,65,-2
1490742844400,-19,-1,39,20,-19,-16,-35,-14,-61,-1,-62,0,66,32,16,-1
1490742844449,-7,0,-43,-84,-86,18,17,7,-10,1,8,47,19,-89,-54,-21
1490742844498,71,7,27,-9,-23,53,30,4,-23,12,-23,-24,-22,-7,-3,-17
1490742844547,11,7,34,55,-17,-57,-40,15,-87,18,13,-43,33,14,-4,-9
1490742844693,-18,-61,-46,-58,-82,43,39,-3,-19,-30,-16,-52,-10,-55,-12,7
1490742844694,37,88,3,37,79,20,-20,-18,108,89,25,14,17,-21,-89,-16
1490742844695,14,74,11,-16,8,-27,127,36,90,40,-12,-14,-25,-12,-91,36
1490742844696,-118,-53,-17,-41,-93,-80,-62,-15,87,-26,-13,-6,49,39,-28,16
1490742844789,-70,0,2,-6,-90,-22,14,7,54,-127,-3,19,34,59,59,13
1490742844790,24,68,-18,-24,-46,32,38,25,38,84,-3,3,-21,-14,-10,-18
1490742844791,113,-15,20,20,4,26,75,39,1,12,3,5,-30,-11,3,-5
1490742844839,-52,14,2,-9,-38,-75,-29,-16,37,21,8,-2,34,-35,-13,-15
1490742844887,127,22,-24,-18,-61,10,43,25,-12,63,-5,30,85,65,4,10
1490742844936,-128,-7,29,8,19,-96,-97,-64,110,81,9,-3,-29,17,45,37
1490742844985,58,69,-3,41,93,69,93,63,-37,51,13,40,17,4,21,-9
1490742845033,-7,-11,24,61,41,118,68,19,17,32,16,3,-8,-43,51,2
1490742845035,62,-26,-15,-128,-29,-25,-20,-28,45,-6,22,-128,6,16,-12,16
1490742845131,-57,18,-19,87,29,38,53,39,3,14,5,62,-2,-5,-7,-1
1490742845133,15,-9,-3,29,4,0,8,21,32,-65,-10,22,9,10,-13,-4
1490742845181,101,3,-9,38,5,-8,-16,5,-28,-11,-17,64,13,13,12,-8
1490742845229,-107,-2,7,-16,22,6,16,-12,80,0,26,14,1,-8,-13,16
1490742845325,-38,-13,-6,-22,8,-9,-2,-14,21,8,6,-12,3,14,36,15
1490742845326,-1,14,-11,-35,-15,-28,-30,-21,0,7,27,27,-11,19,31,7
1490742845327,34,10,7,14,-11,-39,-14,-4,19,-30,-2,3,31,60,93,39
1490742845375,0,-12,21,0,-3,10,5,1,6,-1,-12,-16,3,-7,-18,0
1490742845424,-81,18,-21,-24,-15,-7,-19,-29,51,28,6,3,-12,-5,25,16
1490742845473,10,-24,-12,-8,-9,-26,-27,-12,-13,2,-30,-49,9,-10,-22,-3
1490742845475,99,-2,14,18,-1,-6,-21,2,10,-3,21,-3,-1,30,93,71
1490742845523,-76,-9,-33,-75,-36,-17,-45,-23,-52,-9,13,29,-14,-8,24,2
1490742845570,127,11,-6,14,6,14,-33,-18,-128,9,-5,-45,-12,3,13,-28
1490742845619,49,8,4,1,17,-11,8,14,-74,-16,4,16,24,23,-11,-21
1490742845716,11,-2,19,8,-8,39,-9,25,0,7,-25,-16,-29,-25,1,-11
1490742845719,65,0,12,-6,17,48,81,31,-107,-14,-7,34,3,70,44,-21
1490742845722,-77,2,-15,-8,-94,105,-60,0,99,3,22,25,3,-113,-6,17
1490742845765,127,2,21,-9,109,33,120,88,-1,-11,-21,26,32,14,-128,-17
1490742845814,-77,-67,-62,-28,-87,-111,80,-3,117,6,42,100,127,127,48,31
1490742845862,90,44,11,74,25,65,30,5,110,6,-30,-11,-86,-94,-110,24
1490742845910,-106,58,10,-22,-55,-70,-92,39,58,-83,-21,-115,-122,27,-46,-24
1490742845911,-81,-38,7,-7,29,34,-102,-90,-50,-22,-38,108,45,-88,87,48
1490742846060,-35,18,-17,0,-28,68,-118,15,-86,10,4,-6,-28,27,-7,-20
1490742846061,75,-28,-10,41,34,-112,-128,-31,127,39,42,105,21,127,5,36
1490742846062,51,-23,-38,-114,-87,-110,-61,-15,21,42,32,28,-78,62,-34,35
1490742846106,126,-27,-12,-41,11,-82,77,-30,-75,20,20,37,99,-45,-62,-33
1490742846154,18,-111,-7,-21,-42,-19,11,-44,-30,-71,-26,18,5,-55,-19,48
1490742846156,-18,-47,-7,-22,2,8,-83,-22,127,-4,-28,49,81,-74,41,7
1490742846205,-13,-4,61,127,21,-17,14,-13,86,3,11,-86,-128,3,-18,14
1490742846253,-56,-64,-39,-8,106,127,127,121,-57,-79,1,11,-128,-89,-108,-22
1490742846301,-33,38,-12,59,59,-54,9,-22,-51,43,-55,-36,41,127,127,97
1490742846350,-82,114,89,76,120,116,127,127,-45,23,65,127,13,-59,-51,-34
1490742846398,-11,-48,-55,-118,127,-114,-83,-16,13,-49,7,-29,-52,123,-99,-17
1490742846447,53,39,30,109,39,-113,-128,-15,-35,22,-49,-82,74,37,127,49
1490742846448,-38,30,16,-70,-128,-14,-76,0,9,49,-23,11,-107,11,22,-52
1490742846496,-18,16,3,27,66,9,35,-21,-19,-13,-2,99,-26,34,-67,-29
1490742846545,75,8,28,83,50,127,120,99,4,8,23,46,39,5,-6,-14
1490742846595,23,-1,19,50,-16,127,76,61,26,-1,-3,-45,-31,-85,-43,3
1490742846596,-16,-10,25,-56,-100,-41,-31,22,-3,6,0,-47,-125,-57,10,-22
1490742846643,6,-4,29,75,90,-3,-7,-2,18,-4,-27,-30,-38,9,-12,10
1490742846691,3,-10,-50,72,-3,115,90,39,53,-38,40,-78,-103,11,34,13
1490742846788,-21,127,-71,-128,-59,-90,-113,-55,-17,127,-62,-99,26,-97,-48,-29
1490742846789,9,97,-5,-117,-4,-20,29,3,-3,85,-26,-8,86,-54,-40,-12
1490742846837,1,-21,-24,-55,-65,-34,-34,-7,-2,48,-21,-17,7,16,4,1
1490742846838,1,-52,-26,-27,12,9,6,-4,16,-11,18,85,34,24,22,2
1490742846886,18,13,-5,-12,-27,2,6,3,-34,-57,44,-7,-12,17,0,-8
1490742846935,27,-27,-46,-29,-20,-19,-13,-10,-5,-11,68,11,-17,-14,-6,-16
1490742846984,27,-25,7,22,22,3,8,3,24,31,20,17,-39,-14,-7,-12
1490742847033,1,39,33,63,8,-11,6,3,49,-1,-43,-51,-7,-10,-2,-6
1490742847081,47,64,14,-72,13,-7,3,7,-32,-93,25,9,-15,-7,-2,7
1490742847082,-79,-83,13,1,9,-4,-7,-22,35,63,-40,27,23,3,-3,0
1490742847130,-37,-30,-6,1,-23,-11,-20,-24,-40,-41,-34,-5,10,12,21,12
1490742847179,6,-3,14,-17,-21,3,4,7,-10,3,-4,-14,22,11,1,-6
1490742847228,-8,0,41,-20,-40,-18,-7,11,38,-20,-3,-15,-8,-9,7,4
1490742847276,-2,0,-5,-16,-4,-3,7,5,-27,1,8,-22,9,-9,-4,6
1490742847277,-6,-6,-35,-70,-24,0,-3,-14,31,15,-26,1,-3,-1,0,6
1490742847325,4,4,-29,-13,6,-9,-9,-4,-98,-7,36,38,25,1,-11,-18
1490742847422,-35,3,-2,-5,2,-5,-2,-17,86,6,-2,-10,-3,8,9,19
1490742847431,-10,-2,7,-28,0,12,10,11,31,0,13,26,4,5,4,3
1490742847473,-65,17,28,20,5,0,11,12,-72,14,7,-22,-11,-17,-16,-16
1490742847519,-63,17,7,11,-5,3,-4,-19,-10,-39,-10,9,-2,5,23,22
1490742847520,98,-73,-9,-5,3,-7,-17,15,-28,-59,2,-12,-10,6,9,-3
1490742847569,5,-19,38,39,-1,-5,-11,3,-27,-104,-52,-19,19,-6,-8,-13
1490742847620,-28,-101,-7,15,5,-14,-15,8,38,11,39,-27,-22,-34,-57,-31
1490742847680,-55,109,42,13,3,-40,-13,-23,6,91,-25,-19,-65,12,19,7
1490742847715,20,-25,58,23,-28,24,-16,16,86,55,-18,31,113,6,66,19
1490742847763,-12,28,19,6,-45,-12,0,12,-7,86,39,-13,-21,84,77,10
1490742847764,32,15,4,-39,-67,-66,-85,-44,-42,42,-38,-66,-41,-23,-21,-24
1490742847860,46,-38,18,34,30,29,-21,29,48,-48,-1,40,121,70,0,26
1490742847862,-65,-40,-27,-71,-60,-8,47,10,-55,-78,-5,34,2,21,38,23
1490742847910,38,-39,0,-29,39,46,20,-23,-55,29,3,48,-27,22,64,26
1490742847958,-24,16,-1,-2,9,57,0,16,-58,-32,7,3,61,-103,-91,-55
1490742847959,52,4,44,25,-120,4,7,40,100,25,-36,-49,22,-76,-48,-22
1490742848007,-98,-5,-8,-11,70,44,-43,-21,104,16,2,14,39,-18,16,3
1490742848056,51,-1,-11,-29,-82,-9,-19,-15,-84,3,12,-35,-43,73,43,43
1490742848105,65,0,-18,3,102,12,77,19,-101,3,18,18,-32,0,41,36
1490742848154,-115,2,14,59,74,68,-10,-30,65,1,-25,-10,-18,-66,-20,-9
1490742848202,-104,-1,-7,-44,-40,-35,-35,-13,-18,2,-6,21,48,23,8,-15
1490742848204,-107,-14,-21,-25,19,-40,-77,-34,127,13,14,42,41,-5,-35,2
1490742848251,-46,19,-3,-61,-28,-41,-2,-23,-22,47,-4,-9,20,20,27,5
1490742848300,-24,-10,4,10,10,6,16,19,3,11,5,11,3,-1,18,18
1490742848349,3,3,0,-25,-7,-9,-28,-3,-13,-6,23,69,18,33,29,5
1490742848398,32,-6,33,35,-6,-4,14,51,9,-12,-21,-14,14,0,-5,-2
1490742848447,-49,21,-13,-17,-8,13,-4,-18,94,-2,-7,-1,-7,-1,19,10
1490742848449,1,-1,-7,2,2,0,-28,-18,25,-12,-32,-23,8,2,2,4
1490742848495,43,14,15,-10,-15,-17,-14,-10,-75,-9,-12,-1,-1,0,-6,-20
1490742848544,79,1,-3,15,-3,-14,2,17,-36,1,0,7,19,8,31,11
1490742848592,121,2,15,2,-16,-5,-9,30,-64,-8,-22,-14,-13,-13,-23,-23
1490742848640,71,2,-20,-29,-19,17,49,-15,74,2,-4,-42,-26,-28,-14,13
1490742848642,-38,-3,17,30,52,-9,6,12,-12,-26,2,0,-25,19,31,18
1490742848690,-72,14,7,16,12,10,69,59,-64,-31,-26,-86,-88,-33,-47,-52
1490742848739,72,5,-27,-62,-38,57,32,54,-78,-4,11,50,39,-38,61,39
1490742848788,-29,-30,-30,25,-48,0,41,-2,26,-26,11,36,52,-1,29,-2
1490742848837,-84,26,-32,-83,125,33,-40,-42,-51,9,-10,18,-64,-14,-2,-21
1490742848884,-101,-2,-3,-79,31,0,64,37,-12,22,-5,-6,-51,126,43,21
1490742848886,41,-20,8,-76,-1,21,67,22,-28,41,1,-9,-102,-42,-76,-20
1490742848934,-47,-22,-10,91,32,-17,53,6,-110,37,43,30,42,8,41,-69
1490742848982,-51,110,14,-1,-18,104,77,24,-62,-40,-36,-97,76,-128,-85,-38
1490742849031,22,38,-42,-53,-11,-57,-64,-105,-82,10,28,66,-93,-45,67,-2
1490742849079,-34,32,42,120,45,-78,37,40,98,23,-12,-37,-88,-108,-128,-47
1490742849081,-118,35,12,37,-118,91,1,25,125,-26,58,29,7,-54,45,42
1490742849129,-55,-34,-23,22,-75,-128,-115,-29,-123,27,17,60,68,109,50,41
1490742849178,34,-39,11,-58,-58,-40,24,-6,63,-62,-22,-46,-54,127,86,121
1490742849227,-79,-54,-20,-15,-49,-98,-113,-111,111,-55,-2,-73,-79,2,13,-43
1490742849275,-14,-14,-8,8,-49,-128,-92,-29,-49,-9,-42,-27,38,-14,-29,-32
1490742849323,47,13,-2,-38,40,32,127,97,-49,-36,-11,96,-86,71,-20,-51
1490742849325,-6,-34,-29,-5,127,96,-14,24,-103,-107,69,108,56,-41,-89,-21
1490742849420,23,2,67,-40,22,-11,45,-33,76,59,-71,-65,-82,-14,-17,88
1490742849422,-66,73,53,53,127,127,64,74,39,18,-18,-26,-68,-46,-64,34
1490742849470,-36,-4,-48,-122,78,38,-73,-9,-37,-111,6,98,127,-12,-87,-77
1490742849519,14,12,-29,-36,-97,66,74,48,-59,-79,-3,-60,-117,-90,-69,-104
1490742849567,33,4,-33,70,25,-88,-71,-59,-38,0,-22,-55,127,80,117,60
1490742849570,-36,-82,-18,-37,65,-101,-22,-1,-3,30,3,127,92,-12,94,-15
1490742849616,0,62,-35,48,-103,70,19,4,29,58,99,36,-41,85,29,40
1490742849665,-10,0,-9,-3,-50,29,22,-1,3,1,34,48,10,60,51,2
1490742849714,-2,-21,78,65,49,28,25,9,-2,66,-46,-76,56,21,-9,-8
1490742849762,-20,105,-18,-66,-43,-61,-44,-19,61,127,33,52,29,29,27,12
1490742849763,-4,-45,-6,19,-24,57,22,8,10,-117,13,-28,-77,-50,-16,0
1490742849811,22,-113,3,115,105,65,46,28,-18,-12,-4,-71,-103,-41,-43,-18
1490742849860,-2,32,61,127,93,35,24,6,5,2,-28,53,97,69,34,11
1490742849909,31,-45,-6,-85,-25,9,23,-4,6,7,18,33,14,7,0,-3
1490742849960,1,44,35,80,-7,-2,-12,-11,-22,10,-35,-32,-33,-30,-27,2
1490742850008,-42,-6,-10,-44,-33,1,2,0,12,-2,22,21,2,5,0,1
1490742850009,-9,4,66,75,3,17,-3,2,-37,-7,-25,-44,13,12,-6,-6
1490742850055,-1,116,-14,-101,-59,-32,-21,-17,-11,80,23,-8,-17,-5,-4,-5
1490742850103,12,84,-31,7,15,-6,-3,9,-3,107,13,43,-3,-4,8,-7
1490742850152,115,-37,-30,-7,-4,-1,5,34,-10,-13,-1,48,19,3,1,-1
1490742850201,-75,-9,-20,7,5,6,12,-1,33,-27,12,53,4,-6,-11,1
1490742850249,-7,0,7,-26,-13,0,-7,0,-22,-9,-16,17,5,0,-10,-6
1490742850250,13,3,11,11,32,18,6,10,57,-13,-43,-22,-2,4,-2,-7
1490742850299,-20,-3,30,20,2,3,-7,9,74,2,-15,-33,2,14,14,17
1490742850348,76,2,-21,-25,-6,-2,-2,-5,-45,-2,14,-3,-6,6,13,19
1490742850396,-15,-13,8,-7,-8,-13,-13,-18,12,3,2,13,-10,-2,9,11
1490742850444,10,-47,-9,0,-6,-8,5,1,12,-93,28,3,2,-9,-7,1
1490742850446,-39,-11,-12,37,4,14,13,-7,-23,15,-48,-43,-21,-8,6,-7
1490742850494,-32,-20,-12,-7,9,16,6,-5,29,29,24,24,29,19,15,13
1490742850543,4,-26,-4,-20,-39,-50,-59,-44,12,-37,45,16,3,-1,-1,8
1490742850592,-14,-97,-18,31,54,36,11,-4,0,-128,24,21,2,-65,-56,-14
1490742850640,10,127,20,0,13,44,31,21,-70,102,-66,-24,-24,-5,10,-14
1490742850688,65,99,2,-47,-71,-69,-39,-21,-70,26,-14,-62,4,38,64,17
1490742850690,-35,-94,-19,-12,-46,-25,-24,-23,52,-68,5,17,50,28,25,23
1490742850738,77,26,23,33,37,22,23,24,-63,-1,-3,17,58,54,-4,-29
1490742850787,44,58,-31,40,34,11,-41,-12,17,2,36,74,46,50,8,10
1490742850835,-58,30,-26,23,26,-13,-64,-13,-18,-71,-5,-10,-119,4,-11,-6
1490742850884,74,-31,4,-36,-42,76,122,85,97,61,2,-62,-128,-111,-52,12
1490742850933,-68,-16,-59,-94,-95,-57,73,8,127,12,-13,-64,-38,-26,-77,-1
1490742850981,-111,-15,-22,-7,32,14,33,-30,107,28,-4,56,105,102,35,35
1490742850982,47,34,88,110,85,-100,-23,16,-128,-18,12,37,21,95,-14,-12
1490742851031,-11,-8,16,-1,6,-47,-88,19,-78,-26,-5,67,40,52,112,7
1490742851079,72,49,-3,33,127,76,14,4,36,31,-13,9,-93,-114,-18,10
1490742851127,3,-9,-8,-12,84,87,39,-34,-101,10,30,56,-54,43,7,-47
1490742851130,-35,-6,11,50,27,54,0,54,-20,9,1,48,26,-22,19,-32
1490742851176,-54,-2,3,-47,-27,37,8,-24,23,0,3,12,-49,-7,-44,-13
1490742851225,-102,-1,-5,15,-27,-56,-23,-37,-117,2,-4,-38,-49,-29,-47,-24
1490742851274,-75,0,2,-26,-35,-20,35,-28,-55,-1,7,8,59,6,37,0
1490742851323,30,8,7,48,-30,-32,-27,-11,35,59,40,33,31,23,69,49
1490742851371,-38,29,8,20,2,43,21,20,-95,4,-44,-24,17,-41,-77,-71
1490742851372,39,13,-2,-6,10,-28,-21,-13,-128,-19,-14,1,-9,-6,-54,-49
1490742851420,-11,41,0,2,-27,3,8,-5,91,39,-14,-28,-11,-16,-10,5
1490742851469,-72,18,-3,25,30,29,4,1,91,24,-15,-2,22,10,-1,11
1490742851518,0,0,-1,-1,15,41,66,41,-17,-9,-5,-11,-8,-5,-19,-16
1490742851566,40,19,-14,-1,6,5,23,23,-58,-1,18,20,-15,-9,-11,-8
1490742851567,-41,-2,4,-15,-5,3,-37,-31,-66,-6,15,-13,8,0,10,-3
1490742851616,34,-15,6,20,1,-6,-15,-18,95,-7,-13,-21,-11,-26,-35,-9
1490742851664,-35,-25,14,16,28,6,-11,-20,-4,20,-24,-12,-18,-19,-4,6
1490742851713,21,-6,23,16,-8,-15,-38,4,79,15,30,55,25,24,39,25
1490742851763,-128,11,6,15,3,10,13,-18,81,-8,-7,-15,0,10,44,49
1490742851810,22,-15,-21,-9,-5,-19,-21,-22,-41,-3,44,47,49,-3,-82,-28
1490742851812,-127,-12,12,52,1,16,-37,-21,95,13,-20,-45,-34,-25,20,22
1490742851860,47,-38,9,13,-97,-1,13,16,-126,-20,-28,-80,-55,-11,105,1
1490742851908,6,16,30,49,0,22,10,-40,5,-16,14,54,67,22,0,-5
1490742851957,-97,-17,-17,-128,-38,-7,-39,-11,23,14,-47,-1,-44,74,-26,-17
1490742852006,-49,24,16,35,127,-61,-62,-20,108,38,-9,-34,-34,-2,84,40
1490742852053,93,-56,-39,-92,-40,72,102,52,43,-35,0,67,11,94,-74,27
1490742852055,109,-7,57,59,-51,96,127,65,-128,-20,-39,-67,-42,-115,-64,-60
1490742852103,46,4,15,-74,-88,38,-43,-3,45,13,12,-48,122,-56,-96,-58
1490742852151,20,-9,-17,-24,-114,127,127,95,40,39,56,88,118,73,-20,62
1490742852200,-16,34,-9,-20,43,127,95,-34,31,-18,16,10,92,-61,53,30
1490742852248,-36,53,-30,-25,-46,31,-35,-3,54,-25,-58,-27,-38,-128,-83,10
1490742852250,-5,108,25,-34,127,108,113,59,-66,-28,-25,-94,-128,-128,-128,-48
1490742852298,96,101,90,120,116,-78,106,73,-55,44,-57,-80,17,82,32,-62
1490742852347,-31,-84,-22,-21,-98,-95,-79,-48,43,-48,-17,-110,-94,-97,-6,-22
1490742852395,90,-75,8,46,-24,-11,-28,102,-103,3,7,-45,-71,-116,123,-21
1490742852444,21,92,8,106,127,127,127,91,24,-2,21,105,-37,-64,-85,47
1490742852492,2,-3,2,-125,-119,88,-86,-5,-45,-72,-14,-14,-15,-105,-52,-3
1490742852494,-41,-42,-33,-53,76,-60,12,-20,-63,-99,-36,-77,51,66,-76,-40
1490742852541,5,86,127,97,93,127,-21,34,30,0,-110,-106,11,-34,-30,31
1490742852590,-19,119,-5,-46,-30,17,-3,-18,22,-13,-47,-14,-99,-100,23,15
1490742852639,-33,-83,8,-3,-128,74,-87,-9,-22,-7,37,67,123,127,120,37
1490742852688,24,-6,-11,43,99,-48,43,-1,20,15,-42,-63,29,-16,6,74
1490742852736,11,-26,20,11,114,106,74,-9,17,60,-14,40,-120,45,58,77
1490742852737,0,36,-24,-9,-16,-66,58,32,-2,-37,40,20,101,38,-44,10
1490742852785,-11,-65,34,113,127,-89,-72,-99,26,19,-51,25,127,48,106,69
1490742852835,13,1,-6,-18,-53,-10,56,28,31,114,40,64,-94,82,76,48
1490742852883,-40,4,-43,-97,-128,-125,-57,-29,40,20,5,-102,-72,45,18,31
1490742852931,-9,34,11,49,-29,127,23,-20,5,1,-13,77,65,55,64,45
1490742852933,23,0,39,34,84,90,59,-4,-6,-22,28,44,113,-15,12,-11
1490742852980,-1,1,-51,-37,-83,-57,-30,-7,-4,-11,24,-28,-66,71,72,11
1490742853029,-4,2,30,0,56,61,22,13,2,-8,40,127,19,127,96,42
1490742853078,2,25,3,9,-104,66,61,20,3,5,45,-12,12,-12,19,32
1490742853126,6,115,-6,44,64,-9,-39,-16,-29,98,51,127,84,17,-16,-15
1490742853175,17,-25,71,106,-49,7,8,3,3,123,30,31,-24,-11,-14,-2
1490742853177,-38,36,0,42,-24,7,-5,-12,6,25,25,-63,-87,-60,-21,-7
1490742853224,10,-36,67,94,23,-5,-7,-1,-22,-81,-24,49,4,23,25,10
1490742853273,21,-19,-62,-40,-12,-10,-11,3,-48,-84,-33,-48,9,7,1,-4
1490742853323,64,-11,-31,-6,9,-5,13,17,33,-17,-32,-27,6,-8,2,3
1490742853373,-40,11,11,-49,-19,3,1,-1,71,40,36,58,13,-1,2,22
1490742853418,51,-128,-29,-12,-10,0,-1,4,68,-105,12,29,7,-2,-10,3
1490742853419,-77,33,-41,-97,2,-2,5,-19,50,18,73,78,-13,-19,-2,4
1490742853467,15,-5,-4,34,16,-12,2,-10,15,22,10,-1,17,30,25,14
1490742853517,-14,1,27,16,7,-5,-11,-5,-49,-5,-71,-22,24,14,5,9
1490742853566,6,0,23,8,14,2,-1,8,4,-9,-43,22,30,-3,-16,-11
1490742853614,36,-3,3,44,30,16,-3,3,-46,7,2,-35,0,4,13,4
1490742853618,0,9,-3,-25,-16,-1,3,13,-53,-5,-27,-29,-25,-21,-21,-18
1490742853668,69,8,47,12,2,3,-2,1,-30,6,32,-9,-26,-7,-11,-16
1490742853712,38,-13,31,-15,-14,12,10,4,14,5,-15,11,8,7,-6,-8
1490742853761,-4,22,-29,2,5,4,-4,-5,48,-37,22,8,-6,-5,-5,19
1490742853809,-59,-81,-43,-20,-7,-5,17,14,-9,-67,7,-3,1,0,-11,-20
1490742853857,48,10,68,53,8,2,7,23,-74,-13,-32,1,3,1,-1,-28
1490742853858,-32,-17,-43,-13,-5,-41,-62,-62,-22,-2,11,14,-1,34,35,20
1490742853906,27,-120,44,49,55,-23,-41,-2,57,-119,22,38,37,83,96,41
1490742853955,45,103,-38,26,16,0,-31,-27,-27,127,-31,9,-104,-91,-83,-56
1490742854004,33,83,40,31,26,-7,-38,20,-100,17,-17,6,49,-47,-30,-33
1490742854053,5,32,-23,62,88,58,41,9,-8,33,17,-6,-27,57,29,17
1490742854101,38,10,57,16,-37,12,7,-5,57,19,-11,5,-73,53,34,33
1490742854102,-47,10,24,6,23,-22,-7,23,61,32,-17,30,-35,-36,-59,-18
1490742854150,-23,-38,13,31,95,52,77,-21,51,-52,-12,14,81,-66,-76,-12
1490742854199,103,4,-1,-13,-89,-54,-27,61,73,2,28,-28,-46,-10,42,19
1490742854248,-85,-43,-34,-20,-68,-68,23,-34,41,44,3,-7,67,48,41,0
1490742854296,74,6,-28,36,-55,13,-22,-20,-58,81,37,30,30,106,49,37
1490742854298,-29,14,36,127,127,-13,-2,-46,-25,-33,16,19,-62,0,-20,53
1490742854345,-17,-62,-43,-77,-98,-123,-92,-44,1,-18,-26,-80,-97,-55,-16,-11
1490742854394,40,49,-12,-43,53,-5,22,36,-39,-51,-15,24,8,-43,-40,-54
1490742854443,127,-17,3,-26,14,52,14,49,-36,21,-2,-1,37,56,127,8
1490742854491,23,-6,8,32,52,-51,-35,-3,-26,1,17,67,83,91,62,68
1490742854539,-57,-5,20,33,53,46,10,18,126,4,-4,-33,-81,-80,15,29
1490742854541,-7,-1,30,18,79,37,24,-17,79,0,15,21,-36,5,-1,70
1490742854589,-44,-3,-1,70,57,-14,17,-3,62,0,22,16,4,2,67,23
1490742854639,-40,-1,14,-6,-58,1,-7,-14,-75,0,-11,-40,2,16,41,18
1490742854687,-93,14,-10,18,33,10,0,-9,-25,43,-5,54,59,29,-27,-39
1490742854734,84,6,-15,-46,-42,-38,-32,-17,-43,-8,-9,-4,-32,-45,-75,-57
1490742854736,71,14,-23,-27,9,43,-25,45,26,-12,3,-12,-7,6,67,21
1490742854784,-70,-19,18,-2,-7,-17,-42,-13,92,-4,5,2,6,9,-4,-7
1490742854833,36,20,-10,-21,-15,-1,4,-40,-29,31,5,3,-26,-20,-9,21
1490742854882,-29,14,10,3,13,37,52,33,60,-1,0,-1,8,28,12,21
1490742854930,-84,20,-12,1,2,-13,-42,-29,115,36,5,-9,-5,4,34,4
1490742854979,84,44,-8,1,3,9,-62,-16,-64,25,-1,10,-2,3,22,-9
1490742854983,54,-12,-6,4,-3,-9,16,2,-30,-23,-29,-35,-5,-7,-32,-17
1490742855028,14,-21,-13,1,18,-14,-34,-8,120,-30,18,34,30,22,41,29
1490742855076,-31,4,1,-49,-36,-22,15,5,8,-10,-1,-2,-6,-39,-13,-25
1490742855125,25,-1,-23,-1,14,-45,-127,-54,-120,18,6,-2,24,0,13,0
1490742855174,45,-17,20,28,28,100,98,92,107,14,-12,-42,-9,-31,65,12
1490742855222,106,-21,-47,-87,-81,3,-16,35,-79,-5,13,77,20,31,42,28
1490742855224,38,39,-30,-8,-92,-97,-31,26,-85,-26,-81,-91,-128,-27,-80,-47
1490742855271,-128,-37,18,89,102,35,54,-25,57,12,5,47,-81,49,-5,0
1490742855321,38,6,-17,-72,-113,-29,30,-7,-77,24,30,-48,6,69,90,4
1490742855370,126,58,6,-69,4,-69,-20,55,-64,13,-56,-122,-1,71,83,48
1490742855418,-20,-22,-68,-128,-66,-30,-4,-35,-83,-2,82,123,36,44,-87,-29
1490742855419,-64,23,33,-6,-49,-68,-30,24,-21,-42,-67,-128,-95,-79,54,-7
1490742855467,-93,-27,-8,17,98,-53,72,-7,-6,61,41,108,32,71,-4,34
1490742855516,19,-20,-25,-63,-108,-21,-11,-60,-39,-17,5,-51,61,84,84,-14
1490742855564,-24,96,81,127,23,76,70,32,127,-68,-117,-128,-128,-77,-122,-88
1490742855612,20,12,2,-53,-17,127,127,85,-75,-51,-16,127,100,-22,-82,19
1490742855661,78,8,17,9,-58,92,48,24,92,30,36,40,89,111,112,109
1490742855662,17,23,17,-27,-108,-30,-64,16,-71,48,-58,-60,-128,26,-90,-49
1490742855710,-66,-55,-46,72,-36,-52,0,2,126,-25,-9,123,98,37,104,80
1490742855759,19,3,-20,-76,-127,-52,48,53,80,29,15,44,-44,65,72,26
1490742855808,-114,-118,-31,-78,-40,-98,-120,-122,27,-70,15,-43,-128,-92,77,39
1490742855856,63,47,95,-59,-99,13,70,10,-85,47,-23,-14,79,71,55,5
1490742855904,-50,7,-34,86,-100,5,-79,-71,-9,25,12,-128,-128,54,85,55
1490742855906,-83,33,-23,-39,127,127,124,81,100,3,87,115,78,-16,-41,49
1490742855954,-60,-12,-37,-32,-32,95,-97,-57,78,44,-21,-26,-100,118,97,83
1490742856002,37,42,27,-48,-48,95,-4,100,-25,-10,-50,-35,86,6,-78,-76
1490742856051,-48,-32,-29,-86,-81,-128,-91,-85,-9,7,-33,-2,92,105,81,-7
1490742856099,9,-28,27,76,42,-36,115,48,-44,43,52,72,89,98,-128,-56
1490742856101,9,28,72,72,-29,117,112,24,0,94,20,91,13,100,24,5
1490742856149,-10,-87,8,69,96,-36,-103,-34,34,-78,18,-74,31,-50,79,69
1490742856198,-36,43,-65,-114,-101,-89,-46,-27,13,20,13,95,-53,90,25,4
1490742856246,8,39,32,71,31,97,97,27,-2,-14,-14,-23,-5,-77,64,-29
1490742856295,-44,2,-22,-80,45,-84,-76,-94,27,-4,-19,-30,-57,64,-89,18
1490742856343,14,-2,45,71,31,-59,-60,32,-3,-3,-21,-86,-128,74,73,6
1490742856345,5,7,-5,-24,11,-21,-1,45,26,-10,66,123,40,108,51,-4
1490742856393,4,-3,23,21,1,6,61,25,-21,-1,-24,-40,-59,-11,29,-3
1490742856441,46,-4,3,13,41,-24,-117,-6,-14,-6,35,16,-48,120,122,14
1490742856492,-22,-2,-29,-13,-89,-43,-21,-15,-4,6,9,-110,-128,-56,0,17
1490742856541,-11,-2,34,86,49,71,30,-18,-10,7,-24,91,-17,75,23,5
1490742856587,-12,-10,-14,-41,47,-80,-65,-33,4,-4,-52,-91,-79,-112,-50,-5
1490742856589,-6,74,-31,-22,-15,-13,-24,-7,6,118,29,-21,-29,-21,-14,-3
1490742856636,-29,92,-53,-70,-43,-36,-27,-15,37,-47,-5,-32,-32,-34,-29,1
1490742856733,-99,-126,-17,28,4,7,-1,-8,56,-128,-16,-22,41,22,-1,-6
1490742856735,6,121,18,-5,-4,-17,-1,7,25,94,-12,37,-11,-16,0,-5
1490742856781,106,15,-25,-39,-20,-1,5,8,-59,56,54,12,-32,0,2,-4
1490742856783,85,-8,34,-23,14,-14,-12,-10,48,-95,12,-8,-54,-4,4,31
1490742856831,-33,-33,-55,-26,17,21,13,15,32,-3,-126,-72,0,3,-3,6
1490742856880,-49,-10,-2,-19,1,23,15,-10,-21,6,88,105,5,14,-25,-25
1490742856929,7,2,7,31,-2,-19,-15,-18,11,4,-7,-19,-15,-2,-10,-8
1490742856978,-30,-2,-3,-46,-9,-1,-14,-22,-15,10,-3,36,17,1,-3,1
1490742857026,30,-5,-8,-4,7,4,6,4,14,-4,-38,-42,5,1,-6,12
1490742857027,-54,-5,-15,6,0,-10,-12,-7,-5,4,53,-4,19,-4,-4,-5
1490742857075,6,-4,70,44,18,-6,-21,-12,-10,7,-48,-13,-8,23,24,11
1490742857124,-23,6,-36,-11,-15,-5,-1,-8,-4,2,5,0,-11,-12,-4,-16
1490742857173,16,-4,24,6,5,6,-5,-8,-5,15,-32,-26,-4,13,29,3
1490742857222,1,25,-47,19,24,-5,10,10,-26,119,11,20,35,31,4,-4
1490742857225,28,-93,-13,17,6,29,6,-5,-51,-71,-7,29,-4,-21,19,-12
1490742857270,-50,-8,39,27,-14,2,11,-1,99,-102,-5,35,66,36,7,9
1490742857319,85,-56,16,-96,-87,-46,-26,-5,-37,-122,-58,-82,-109,-49,-20,12
1490742857367,-108,117,4,74,52,55,50,12,48,97,44,53,-92,3,-4,0
1490742857416,-16,81,-2,-30,3,-108,-88,-47,21,45,59,111,127,87,65,3
1490742857464,-30,-8,-5,-9,-67,-114,-96,-35,-66,7,36,10,15,114,24,31
1490742857465,-27,5,6,21,-5,67,-11,19,53,5,-13,-62,-128,-60,13,-7
1490742857515,49,44,-16,-79,-58,2,-8,1,-36,26,-34,-93,-126,-86,-27,14
1490742857563,21,-10,-10,70,42,7,41,-14,-52,-22,30,15,85,-64,-70,-27
1490742857611,99,-7,17,-19,73,4,-11,23,-14,7,-14,29,49,-68,-32,-30
1490742857661,-32,-44,-28,87,-2,58,-3,-3,38,-2,11,-3,13,46,53,59
1490742857708,88,19,17,17,67,33,19,8,-14,12,-32,22,-9,58,65,37
1490742857709,-24,70,68,72,116,-107,-24,12,-43,-72,-19,3,19,73,-29,-54
1490742857757,73,45,-15,-16,-30,108,86,9,35,33,45,51,102,-39,-18,-19
1490742857806,-38,-21,-38,-8,-45,-75,-70,-52,48,23,8,-57,-69,73,61,1
1490742857855,-71,51,40,20,-82,37,29,0,56,62,12,74,127,-36,-34,16
1490742857903,-128,-20,16,83,102,-6,26,-47,65,10,-21,-11,-109,-15,-12,18
1490742857904,-95,3,-46,-48,19,-56,-89,-14,100,4,24,22,92,1,83,66
1490742857952,-53,3,12,37,42,5,-12,-44,20,-5,26,26,-11,54,29,41
1490742858001,28,-1,-2,18,59,-55,-34,-14,-51,0,-8,41,4,11,-40,-57
1490742858050,-111,5,16,29,-27,20,13,-8,-52,11,-21,-58,-23,-10,11,-8
1490742858099,-102,-6,-11,-13,7,8,19,-14,-82,-1,-44,-52,-96,-28,-3,-18
1490742858147,32,-57,-8,-55,-40,-18,-63,29,67,-28,33,22,-5,1,6,-14
1490742858149,-56,-119,6,7,-4,11,-19,31,95,-48,-10,-3,-12,-8,23,0
1490742858196,0,47,6,-7,-17,-15,37,20,-102,-88,-17,1,15,18,10,-4
1490742858246,-98,-12,-12,-8,-19,-19,-37,-74,71,24,-2,-5,-5,1,4,23
1490742858294,-8,16,-10,1,-4,-27,-67,-24,-1,0,15,37,-9,38,85,24
1490742858342,102,17,40,-7,0,-22,-28,9,-5,-5,-1,-3,6,30,7,1
1490742858391,-10,-13,-5,-7,-26,-18,-8,-21,8,-5,-3,-9,-2,-24,-30,-24
1490742858392,4,9,-6,-16,2,2,3,4,-41,21,-8,7,-7,-24,-22,-40
1490742858440,18,-34,-17,-7,12,30,1,27,31,-35,11,12,-15,-26,-52,-35
1490742858489,-71,-19,-12,-16,2,-21,-19,-40,77,1,29,21,6,-12,-28,12
1490742858538,55,-18,-7,11,12,29,8,20,84,6,2,3,6,-34,-39,-9
1490742858589,1,-10,-14,-5,-14,-8,21,12,-12,-10,-17,-27,-15,-15,-46,1
1490742858592,-82,23,18,102,57,-3,12,-8,-66,-20,-13,-19,22,3,-4,-4
1490742858637,-18,3,5,32,12,10,39,94,40,6,35,98,14,-59,39,12
1490742858683,-5,-18,17,-60,-73,26,-51,-16,-93,28,38,115,44,106,-13,21
1490742858732,127,-18,6,-3,-41,-89,-19,8,-13,-5,-26,-20,61,77,22,-48
1490742858781,12,-2,-28,-83,-29,-70,106,25,-90,1,-17,-92,-28,-50,-116,-79
1490742858829,2,7,-3,-35,-84,32,24,-39,-3,8,-22,-15,-128,-14,4,-9
1490742858830,-75,19,-34,-40,-76,-11,117,-74,-94,-14,-25,-62,52,99,-102,-78
1490742858879,111,-25,-25,-28,-128,-126,25,68,-128,-27,-23,-120,75,1,-84,-107
1490742858927,-14,-28,-14,-4,-47,-64,18,41,-28,17,-49,-90,-128,36,89,-3
1490742858976,79,4,-16,121,127,127,67,32,127,-15,-26,-70,-122,-81,16,13
1490742859025,-2,-13,2,44,119,-112,69,-27,114,64,16,127,57,72,-56,97
1490742859073,-128,-69,-85,-128,-128,-92,-81,-8,-83,-43,-47,14,15,127,71,-52
1490742859075,39,18,2,-7,-56,-32,-125,-93,127,12,-15,28,18,25,125,118
1490742859122,-35,-35,-52,-18,-7,-54,127,11,-77,35,-12,-103,-22,120,14,8
1490742859171,-95,-21,-4,17,80,55,76,8,-1,13,6,20,-22,-69,-50,-46
1490742859220,-128,-7,-10,66,-5,-93,-119,-73,76,-66,-49,-79,-55,27,107,56
1490742859268,-54,-25,71,84,62,46,77,65,-62,2,38,126,127,-43,-88,-96
1490742859270,127,-4,-69,-118,-128,14,114,71,-101,3,-15,-93,108,98,21,7
1490742859318,-88,-13,-2,48,27,-92,-128,-95,83,-1,-21,-33,-93,88,49,-29
1490742859366,9,29,35,-20,-17,-84,-102,-119,-26,-4,17,127,127,80,117,27
1490742859415,-6,-9,-23,4,-115,40,57,14,-29,-17,-16,93,27,-88,2,33
1490742859464,-20,60,2,127,-5,-10,-105,21,7,-92,-43,-100,-120,-61,-35,-58
1490742859512,-25,7,-27,-42,-34,-103,-120,-61,47,-72,-23,-105,127,39,75,26
1490742859514,37,-100,43,42,-44,37,-30,-19,-77,40,-1,91,-50,27,89,35
1490742859562,-28,-23,-84,-128,-96,59,56,45,-20,125,22,127,-79,80,-85,-31
1490742859610,-11,56,35,59,9,87,47,-35,47,-12,17,-82,-74,0,-13,-4
1490742859706,11,-64,-45,-128,-121,-128,47,24,-42,-17,-65,-122,-48,-112,-99,-64
1490742859708,10,17,-70,-116,85,-18,49,4,-2,45,19,51,-77,87,-34,26
1490742859755,-18,5,-45,-128,-128,-90,-92,-38,5,-8,35,75,12,105,100,27
1490742859756,9,-5,-20,25,-65,-96,-43,-24,-16,-3,-72,-36,26,48,28,18
1490742859805,15,-8,64,46,127,127,109,56,-20,1,21,12,-47,-128,-118,-69
1490742859853,-5,-10,7,89,127,-78,-22,-8,-4,-4,10,-30,-29,66,127,18
1490742859902,9,-5,-22,-4,73,-47,10,6,-18,-8,-50,-54,90,26,20,-17
1490742859951,0,0,-7,7,8,63,71,-7,-2,-1,-25,-65,-90,-88,-39,-4
1490742859958,15,11,-27,-18,-108,22,38,31,-2,5,3,28,-54,-52,-46,-12
1490742860000,19,52,107,66,-42,-64,-39,-16,6,31,-113,-90,99,6,-27,-7
1490742860049,7,-120,-19,7,-86,-25,-5,-5,-24,-128,35,-74,-35,-3,-13,-13
1490742860097,-1,-52,-102,-34,102,5,-2,6,24,-55,96,123,81,36,7,1
1490742860147,-70,-78,82,60,1,12,5,-4,-54,-21,-48,9,24,32,0,10
1490742860197,23,-77,8,-10,-91,-14,-5,20,6,-76,-47,-35,-12,-13,0,11
1490742860198,-8,-29,-22,-28,-10,-19,-36,-3,26,-82,86,115,98,81,74,13
1490742860244,2,22,0,-70,-47,-16,-11,-17,-12,-3,9,20,-10,10,11,10
1490742860293,-10,14,29,45,38,18,9,0,-15,20,16,-10,-10,-1,-11,-9
1490742860341,51,-1,-56,3,-12,-7,-2,1,2,-1,-33,21,-9,-13,-12,-3
1490742860390,-88,16,75,80,37,22,11,-11,9,42,-9,-23,-28,-7,-12,-4
1490742860392,-36,-29,-32,-17,1,-6,-8,-11,-49,12,32,22,-20,-13,-12,-7
1490742860439,-32,7,28,8,24,22,27,6,30,-35,-51,-15,-14,3,-1,1
1490742860487,13,61,38,46,19,9,17,7,58,13,-21,-31,-13,-3,-3,14
1490742860536,-3,-63,27,-23,-21,-23,-15,4,-22,-78,-27,17,19,14,9,0
1490742860585,-47,-29,-10,-23,-27,-17,-11,-20,-38,-32,31,26,6,2,4,7
1490742860634,32,-28,-7,-22,-24,-11,-16,-25,13,-41,-3,14,6,1,6,0
1490742860682,62,9,11,-8,10,6,11,21,32,26,25,23,18,-2,-7,1
1490742860683,41,33,-11,0,2,-1,5,-1,-14,21,-17,-27,11,-3,0,7
1490742860732,18,-20,-46,17,0,-25,-21,-20,-5,62,11,1,0,19,-3,2
1490742860780,-69,-28,-24,-37,-29,-28,-41,-32,-21,-128,-15,27,45,35,10,14
1490742860828,-4,87,19,18,-1,53,32,15,-36,73,-17,-29,-36,-50,3,-34
1490742860877,-14,8,18,20,20,-4,15,0,-14,32,-17,-20,-7,-54,-25,6
1490742860878,36,-73,11,-15,-53,29,-60,-41,-38,-35,-25,-66,-107,-91,-66,-19
1490742860926,-65,34,36,-61,-10,7,63,27,93,80,29,70,63,76,28,2
1490742860982,19,-15,-43,-39,18,-91,-1,-3,-31,25,26,33,96,30,-32,-3
1490742861025,-30,-66,15,54,-22,9,10,-18,-16,-69,23,82,73,-54,-81,-68
1490742861072,49,-4,-49,-54,55,55,56,49,-128,22,2,-79,-100,-65,-44,-59
1490742861073,-71,10,-20,-32,-39,-55,55,20,19,-38,-36,-12,62,47,7,25
1490742861121,-29,-28,23,84,101,83,-13,-26,58,1,11,-9,-7,-7,39,35
1490742861170,-108,5,19,-11,11,74,31,29,-48,-58,-24,-36,-88,-67,-90,-54
1490742861218,117,37,-36,-8,51,-84,-33,15,-37,29,-20,-42,-72,-94,-41,-48
1490742861267,-56,-15,-22,19,1,-48,-104,-46,126,11,17,25,96,-14,73,61
1490742861315,-7,-5,1,-34,9,-32,-39,-13,-59,26,-15,5,52,12,-44,0
1490742861317,60,-7,-40,-9,59,-43,-123,-11,-28,-33,-52,4,16,35,49,-29
1490742861365,55,11,8,14,-87,-65,27,21,-10,35,5,24,54,95,35,33
1490742861413,-83,3,-6,-22,-14,-97,-91,-62,84,6,-6,53,84,110,60,37
1490742861462,-97,7,1,40,3,63,74,2,114,-21,-12,-21,22,-40,3,32
1490742861513,16,-4,-25,-40,-54,-75,16,-54,-15,-87,24,-45,-3,0,-68,24
1490742861561,-43,62,-7,-44,-17,25,9,15,39,38,-17,-22,-22,-47,-36,-56
1490742861562,50,1,1,-15,7,55,54,73,44,13,14,36,0,7,4,-6
1490742861609,10,3,16,28,-26,15,21,18,-73,34,-33,-22,-10,-27,-79,-44
1490742861658,1,-14,-3,-1,-3,-22,-21,-15,-18,14,20,10,15,23,45,13
1490742861706,-62,7,6,24,7,11,-25,-33,117,-1,-16,-24,-5,-22,-8,18
1490742861754,-44,10,-6,-4,8,14,-24,13,-69,-12,-3,18,4,17,56,-2
1490742861756,4,14,-2,-11,5,0,-13,-1,-39,23,1,2,11,19,14,-2
1490742861804,-75,-30,11,21,8,3,31,-15,1,4,9,-6,7,-5,8,3
1490742861852,37,-7,4,-2,-8,-23,-10,-7,-69,-14,-12,-14,-4,12,8,-5
1490742861901,-83,5,-13,-13,-4,-18,-65,-23,-9,-2,-12,-27,1,-15,-17,-12
1490742861950,-85,5,28,31,-23,-41,-33,-37,-61,-17,-18,-7,15,55,14,31
1490742861998,-119,-36,-10,12,77,44,11,-82,36,9,12,37,36,33,75,48
1490742861999,127,-4,-9,24,-42,26,12,16,-74,23,-3,-30,-28,-40,96,39
1490742862047,83,45,35,25,30,6,47,62,-72,-15,5,-17,-56,-36,-67,-37
1490742862096,34,-11,-54,-104,-70,36,83,44,95,-24,61,14,84,40,19,79
1490742862145,4,39,45,88,73,59,34,17,-31,-3,-21,-34,-66,-84,-55,-23
1490742862194,77,45,79,56,-6,115,58,45,59,22,20,-36,-67,-106,95,44
1490742862242,109,12,-84,-128,-65,88,-52,-18,-91,32,-28,-121,-28,-114,60,-50
1490742862244,35,17,6,110,106,52,40,54,-43,-2,37,127,127,118,-40,-53
1490742862293,-128,5,38,81,-73,54,27,-5,-60,-12,-39,-86,-34,-36,-58,-32
1490742862340,-49,-20,-46,-84,-67,-77,-88,-93,-95,0,-9,-65,-41,94,127,40
1490742862389,-128,19,8,40,121,-88,20,-18,72,-24,-17,69,-51,88,-49,-34
1490742862437,-58,-61,25,56,127,-77,-6,61,102,43,6,-13,-6,-105,4,-49
1490742862438,127,-7,-31,-73,-128,39,84,52,41,48,8,-128,125,71,91,45
1490742862486,84,47,30,99,63,127,127,48,-52,21,62,10,26,-120,-128,1
1490742862535,108,21,-3,-90,-117,-85,-8,-70,-128,6,-2,123,76,112,-19,24
1490742862584,54,-7,0,-95,-90,65,-20,112,-73,1,13,-75,-128,-46,-43,31
1490742862633,-53,12,4,28,-26,90,94,3,88,-14,14,121,127,-11,-21,35
1490742862681,-61,-58,-20,29,81,-20,-54,-51,97,58,-2,39,-31,-103,-84,6
1490742862683,-32,35,0,0,-2,64,59,27,-87,-48,13,53,79,105,26,-69
1490742862730,31,-2,75,96,96,127,-53,92,-55,4,-34,-31,127,127,118,44
1490742862778,-14,-33,10,7,-45,-114,78,76,-19,-28,-14,44,-94,-128,-128,-128
1490742862827,-71,-3,-16,-29,107,-79,-57,-53,109,23,-18,-14,-53,4,-79,54
1490742862875,8,5,-21,-49,-73,-55,127,44,-31,-1,-26,-69,-57,-53,-65,-56
1490742862877,-17,9,-16,-73,-89,59,-17,-26,70,49,3,-27,17,127,121,23
1490742862925,-3,-33,-72,-86,-128,40,9,36,-38,-13,34,27,49,33,-86,17
1490742862975,7,18,41,74,127,-51,36,29,57,10,-24,43,-50,-128,-67,-3
1490742863023,34,4,10,-30,-97,62,5,25,1,-6,-23,-1,-97,-51,86,32
1490742863071,1,-33,-1,36,47,-40,-70,-63,-40,9,23,42,127,110,80,-2
1490742863119,13,-23,-61,-110,-55,-128,-102,-89,-17,11,-12,-12,-54,14,-63,-18
1490742863121,2,25,-16,70,-60,-23,83,1,-12,-20,-11,-68,-117,29,17,29
1490742863168,-30,29,37,13,127,127,-29,-30,17,-25,-63,20,15,-128,-110,-30
1490742863217,32,-5,44,-50,81,122,127,115,27,91,26,-5,-59,-22,-100,-41
1490742863266,83,43,20,-25,45,64,91,70,-57,21,-18,6,-54,-28,-28,-38
1490742863315,-12,-39,0,55,-52,-86,-23,-21,-1,-26,-38,-89,-63,-125,-78,-63
1490742863363,-51,39,-91,-77,42,-48,-34,22,32,-33,-1,-10,127,125,127,70
1490742863365,4,49,22,-43,-98,-58,-24,-16,-18,28,-29,10,23,-95,-128,-14
1490742863413,-61,22,-59,-128,-128,-52,-128,-128,-10,87,10,40,-48,-113,-16,17
1490742863461,13,-39,9,-26,127,127,81,5,-57,-82,11,60,-71,34,-112,-46
1490742863510,-13,-34,30,60,113,-98,28,-24,47,11,15,-43,-67,4,117,22
1490742863558,-9,-81,-40,-36,-28,73,62,20,11,-56,89,80,-15,43,107,37
1490742863560,-5,-66,-9,-128,-128,65,39,6,15,27,-47,-14,106,-17,-13,7
1490742863607,-15,-30,-6,26,-74,-11,-28,3,3,-34,16,-38,-46,-44,-49,-36
1490742863656,-8,-37,-20,-48,-47,-116,-58,-38,-5,19,-33,-128,-42,-23,-76,-30
1490742863753,-36,-49,43,127,127,127,102,3,54,-39,36,110,51,60,21,18
1490742863754,7,-11,45,123,127,86,30,22,2,-25,-6,-23,-111,-58,-32,-24
1490742863803,2,3,71,90,0,1,8,-2,14,-57,11,96,72,78,46,12
1490742863806,-52,0,12,-43,-71,-11,8,1,70,-20,33,-65,-79,-61,15,1
1490742863851,-16,-23,-26,86,55,6,-4,-9,56,9,24,57,31,17,10,12
1490742863900,-8,-13,77,82,108,81,37,2,-7,-40,26,-25,44,71,19,-2
1490742863949,-13,12,35,-83,-82,-38,-10,0,-62,-52,-94,-8,96,2,-2,9
1490742863997,14,-18,-2,-25,-128,-69,-23,2,51,26,-25,-89,94,-60,-18,-13
1490742864046,-61,62,-87,-74,-49,-61,-35,-18,69,38,-32,-64,-63,-45,-3,12
1490742864047,-94,-61,59,96,-27,43,8,-5,74,69,22,-19,-18,-35,-17,-7
1490742864096,-30,-81,44,100,112,19,-8,-7,-38,-87,26,18,46,86,53,18
1490742864143,14,-16,-12,36,62,25,23,12,72,-18,-1,6,22,7,-4,-6
1490742864192,48,-36,9,-86,-25,-4,-7,1,-33,10,80,74,10,4,0,11
1490742864240,-32,-19,-22,14,36,8,-7,-10,88,-19,-19,-9,-3,1,-12,5
1490742864241,-5,-16,4,6,23,17,27,13,11,-35,56,30,-21,6,-11,0
1490742864290,-6,19,-6,7,11,2,-8,6,-22,-5,24,-30,-50,-40,-32,-17
1490742864340,-75,-91,-35,-12,-33,-28,-48,-50,-58,-120,-12,20,26,16,23,-12
1490742864387,-1,-18,-12,-2,-14,2,29,29,8,-32,-42,22,43,35,11,0
1490742864436,-35,-82,-9,-14,-2,-12,-4,33,-9,-24,-23,-48,-35,-10,9,7
1490742864484,36,-3,59,47,18,4,41,12,-11,6,5,25,19,16,-9,-10
1490742864486,21,7,-7,-23,17,-9,-13,6,28,-34,-4,0,5,-4,-8,5
1490742864534,-103,-65,-1,45,68,32,37,-10,15,19,-24,10,7,0,-22,-1
1490742864583,-21,-17,27,10,50,-13,-46,11,9,-51,5,70,74,22,16,5
1490742864633,-24,11,18,98,127,29,-59,-31,-1,-14,14,27,-46,62,36,-1
1490742864680,2,-33,12,104,102,36,20,-9,-27,22,-36,-38,5,-50,7,23
1490742864728,56,20,-63,-128,-52,-22,-10,-18,20,37,-10,-48,17,48,11,48
1490742864730,-8,69,-54,-86,-36,-99,-62,-40,-47,67,11,39,117,35,2,0
1490742864778,24,0,9,46,89,-11,29,22,-60,-17,31,17,-44,55,-40,-14
1490742864827,-27,-9,-2,-7,-45,-45,-29,-3,-10,-3,-26,-32,-56,-12,14,-10
1490742864876,85,-37,6,5,-18,-11,3,13,17,-17,-25,-20,-38,-17,-15,-7
1490742864923,-26,-1,6,13,27,31,36,-3,40,14,-6,21,83,11,19,14
1490742864925,-56,12,-10,-26,-40,21,8,9,-8,41,-14,-26,-7,22,36,5
1490742864972,16,-15,3,12,3,26,-36,-23,52,-69,-43,-10,60,39,29,22
1490742865021,33,-11,-27,-37,-56,84,41,60,28,2,17,32,-65,-79,-24,-30
1490742865070,27,19,-16,-13,-18,-41,-48,-15,-45,6,53,0,-32,60,9,29
1490742865119,-16,40,0,-48,-51,-20,-44,-52,-128,1,3,-85,-86,40,-32,-19
1490742865166,-121,-51,-2,25,34,-103,-99,-64,114,2,-13,30,80,73,104,46
1490742865168,-128,8,-12,3,24,-45,-15,-16,126,30,-1,12,-44,-66,17,-34
1490742865216,-66,-26,-21,44,-35,-18,-95,-66,-48,6,-13,-27,-1,-52,17,-22
1490742865265,5,1,-2,-13,56,49,-34,-30,-50,8,-5,10,-46,-53,41,1
1490742865315,126,-1,18,5,-36,51,39,24,-86,1,-3,-23,13,23,80,50
1490742865363,72,61,3,-9,-12,-47,-13,11,-70,22,-2,7,-11,52,25,11
1490742865410,-30,8,-9,-5,-10,8,58,-18,50,11,-22,-31,-38,-64,-77,13
1490742865411,-4,-2,14,-4,9,-11,-8,0,-59,-1,-10,-11,18,1,24,-24
1490742865460,45,12,25,36,28,24,-22,-16,-40,4,9,23,17,-17,-33,-5
1490742865509,21,-12,-7,11,-11,-2,22,12,-19,-7,-2,20,18,35,-32,-17
1490742865557,-70,-3,-11,-29,3,-33,-15,-9,97,18,32,21,11,1,-1,16
1490742865606,50,6,29,27,12,37,-7,8,29,5,-16,-10,-15,2,52,27
1490742865608,81,-17,1,-12,-12,-18,-9,24,-52,-9,-20,1,9,35,76,16
1490742865655,-26,5,5,2,6,-7,17,-4,104,4,9,10,5,4,-13,0
1490742865704,-31,1,21,29,-13,1,-3,-11,57,8,-6,-30,-24,-24,-33,-7
1490742865754,7,-1,-5,-7,16,12,40,50,-61,-1,6,3,1,1,-4,-35
1490742865802,70,-6,-27,-18,9,13,61,32,-49,-19,-28,-56,-16,-20,-7,-44
1490742865849,-108,-19,18,41,9,73,67,-13,81,-8,-7,15,6,26,-34,51
1490742865850,85,24,-3,-11,-37,-51,-13,10,127,3,21,46,35,-21,-60,-28
1490742865898,124,4,-15,58,54,86,-105,-19,-102,-9,-3,32,4,-105,28,-19
1490742865947,-68,-39,-16,-26,-27,-11,-5,8,127,25,14,-24,-39,22,28,54
1490742865996,69,1,23,59,-20,46,-11,-27,49,-3,-36,30,64,-98,-71,-59
1490742866044,-94,-6,-48,-107,-51,-54,94,-27,39,4,-24,95,-30,27,-44,-15
1490742866045,75,10,28,-101,-49,-128,-80,-18,51,26,-35,-1,32,-64,40,105
1490742866094,75,-1,60,127,127,97,-29,-3,7,18,-17,86,40,123,54,-37
1490742866143,77,-1,1,-97,-111,-110,-29,-48,-43,-11,-46,-128,45,-25,45,-18
1490742866191,47,8,-9,40,33,95,112,111,84,40,-6,-31,-128,31,58,0
1490742866240,-35,5,-20,53,-27,70,67,103,-41,0,-6,-58,-79,20,-63,-117
1490742866288,16,-50,-54,-77,127,105,39,-105,35,21,56,46,-70,-80,-123,-1
1490742866295,-119,-7,-27,-128,-78,-107,-57,-2,77,-41,-10,-105,99,127,72,60
1490742866337,-91,11,-44,-66,75,34,63,-44,-5,9,-1,-9,127,15,-57,26
1490742866386,-84,0,-13,35,89,120,-84,-18,76,-16,-37,32,-25,-128,-23,68
1490742866435,-8,18,38,17,-42,38,-128,22,-11,-9,41,68,28,59,62,22
1490742866483,-46,-5,11,112,116,34,-56,18,15,19,61,-56,-73,-14,56,-55
1490742866532,-59,-8,-65,-87,13,-16,111,3,1,-20,64,100,-30,80,-128,-11
1490742866536,107,-16,-48,-95,-128,28,-89,56,51,53,-2,6,88,-50,19,-67
1490742866629,-66,18,17,-59,1,122,-23,-38,19,-32,-23,-31,-49,-83,-88,119
1490742866631,-98,3,-54,92,66,-128,-93,-79,40,90,9,-128,69,73,41,-14
1490742866679,34,-18,-60,-45,-29,-65,-128,-41,-123,-65,56,116,48,-10,41,37
1490742866727,-89,-43,46,10,-128,-128,-64,-22,-34,20,-44,-50,62,123,78,44
1490742866728,-119,-15,-45,-36,-18,47,127,23,-96,-23,-21,51,-128,-128,-128,-124
1490742866776,95,-23,120,57,118,25,-22,15,81,63,-28,37,120,105,49,95
1490742866826,-109,-88,-20,-9,-97,-117,-57,-67,110,-82,-26,-128,-107,-128,35,21
1490742866874,-18,-47,-50,-32,-108,-38,-91,-88,-65,80,62,92,81,81,127,82
1490742866922,63,5,25,81,17,42,76,-11,-22,-61,-4,-4,-114,-49,82,32
1490742866972,-12,-43,-81,-128,-73,25,-31,-1,2,-80,35,52,36,-122,-45,-1
1490742866973,12,41,19,26,-48,-106,-86,-28,-49,30,-29,-80,-128,33,19,-7
1490742867020,-4,17,45,38,-56,0,13,20,-38,9,2,-62,17,73,-108,-63
1490742867069,-8,-27,-53,-23,96,-29,47,6,-6,-17,14,44,117,-94,-36,-15
1490742867118,-4,-6,36,98,119,127,107,-17,-6,13,-49,-29,-49,29,65,7
1490742867166,-40,1,-67,-88,52,-122,-56,-45,4,-1,35,-20,23,94,42,15
1490742867214,7,9,36,98,-35,1,-45,4,0,3,48,-7,14,2,-9,0
1490742867216,-8,-8,34,-123,-40,-65,-47,-30,0,-4,-20,49,-42,37,30,23
1490742867312,-6,60,-11,93,92,23,32,13,-14,37,1,9,-59,-65,-35,-7
1490742867315,11,-11,54,70,62,37,7,1,0,-3,-76,8,127,23,9,13
1490742867363,-2,-1,-55,-128,-80,-79,-28,-14,-36,-2,-60,-64,-13,-30,-30,-15
1490742867409,-80,3,33,-81,-88,-66,-20,-38,60,-11,12,-27,-29,-39,-32,12
1490742867411,-73,17,-23,-55,-22,21,14,-3,11,-5,-3,74,-17,-9,-7,-15
1490742867459,-42,82,-15,23,-44,15,-28,-32,54,-6,34,-21,-87,-19,-11,6
1490742867507,8,-41,53,108,61,56,18,8,2,-35,48,43,-30,-8,-1,13
1490742867556,-50,127,56,32,0,-6,6,-11,28,33,-5,-3,81,25,2,9
1490742867604,73,-40,-1,-28,-38,-36,-40,5,-32,-13,3,-8,14,16,4,-15
1490742867653,75,-5,27,39,-25,-8,2,-2,-41,-15,-8,-12,-17,-11,-2,-16
1490742867654,39,117,18,38,65,48,20,10,-46,62,-16,-62,30,-8,-19,-13
1490742867703,-48,-2,12,31,40,89,69,-22,74,-16,-3,81,127,77,4,39
1490742867751,-51,-31,-6,39,48,-27,81,55,44,-21,-8,0,5,-13,-38,-18
1490742867800,35,71,-7,-53,-114,-3,-14,1,21,-22,-6,-33,7,37,59,18
