1490743837655,6,-72,-7,-8,26,4,35,8,-10,-26,-5,-31,-89,-32,-77,-19
1490743837703,70,38,7,9,10,-19,-55,-30,-51,-4,-10,-7,15,5,25,-17
1490743837705,6,-15,-9,-8,-18,-19,-43,-26,-89,15,-3,-21,-9,-18,-39,-28
1490743837753,-79,1,5,8,1,22,71,27,-65,-39,-12,-28,-22,-27,-80,-32
1490743837801,82,12,-3,-19,-3,-17,-16,14,-88,-11,-5,-8,22,60,86,6
1490743837850,52,-20,-16,-16,24,42,-21,38,-77,-62,-30,-24,-34,-55,-67,-55
1490743837899,-16,19,39,15,-15,-58,-24,-3,-54,31,-11,14,13,98,6,-23
1490743837947,-107,-32,0,61,70,-81,62,16,73,-26,-4,34,-11,-96,-74,-2
1490743837948,-59,21,9,-70,-112,96,94,33,-6,14,21,27,100,-6,-42,-2
1490743837996,35,0,-8,-27,-35,-73,24,-38,-34,28,7,-82,18,-13,60,55
1490743838045,-31,16,43,127,127,127,124,23,-120,-6,12,-26,-74,-122,-104,-99
1490743838094,81,-46,-28,0,-63,-80,-16,51,-60,1,2,-19,25,91,-33,30
1490743838142,33,-18,-22,37,91,-81,-117,-92,94,10,7,-43,-119,66,99,53
1490743838143,-119,-40,-21,-42,-10,-3,5,-9,42,7,54,70,127,127,52,4
1490743838191,53,27,57,57,58,86,108,-1,-122,8,1,-112,-128,-31,-7,26
1490743838240,-60,-52,-36,40,72,-5,-110,45,37,-18,-45,-16,-84,-48,-22,-79
1490743838289,31,37,70,35,43,114,104,46,21,22,-8,-26,-3,-72,-123,2
1490743838338,53,-31,-48,-54,12,66,-91,-8,-96,41,26,41,12,84,127,55
1490743838385,-86,-37,-34,-120,-10,-3,44,-31,110,47,40,57,-14,-112,-112,17
1490743838387,-72,-20,-31,-36,-49,-17,-59,-66,72,13,28,59,111,127,49,31
1490743838435,9,-20,-30,13,20,-128,42,75,-12,4,14,28,5,117,110,-3
1490743838484,-56,-9,-23,-86,6,-115,-87,-55,50,-44,-52,-128,-128,-96,31,37
1490743838532,8,34,70,119,42,101,96,29,32,7,0,-72,-56,-10,-10,-39
1490743838580,22,82,27,65,51,21,-4,-12,-13,105,21,40,48,127,100,29
1490743838629,-6,44,-27,-42,17,2,-98,-43,19,-40,61,32,127,49,27,33
1490743838631,-2,6,17,63,69,36,36,3,0,6,-40,-121,-113,-54,16,-1
1490743838679,22,-37,-26,-91,-16,-4,-3,20,-1,-21,39,64,63,21,7,-2
1490743838727,43,-101,72,121,3,-6,-44,0,-23,-11,7,-8,27,-2,60,21
1490743838776,-8,-26,-5,0,-19,-11,0,6,15,-85,-37,9,-4,-33,-20,-18
1490743838824,-23,40,48,83,-2,-1,9,-4,-6,118,1,-117,-32,-19,-7,-9
1490743838826,-51,-18,-35,-32,-4,2,-7,-2,17,27,-1,51,-7,-9,-16,1
1490743838874,-31,-29,-30,-21,18,9,8,-14,-15,51,17,60,40,16,4,-1
1490743838922,84,4,3,-13,-29,-2,-21,15,-52,-23,-31,-18,14,3,-40,-1
1490743838971,-6,26,13,-5,-10,-33,16,12,-26,2,7,-33,-56,-55,-16,16
1490743839020,-56,-14,8,2,-15,-45,-17,-10,82,16,-10,3,-8,1,13,23
1490743839068,-51,-12,18,-9,-18,-23,2,-31,18,-3,-51,-25,20,-11,-4,-5
1490743839069,19,7,103,43,-4,-24,-5,-11,34,5,10,27,4,1,0,-2
1490743839117,9,-3,-38,0,4,18,10,0,17,4,18,5,1,11,3,2
1490743839166,-47,6,4,-53,-23,0,-5,-7,27,2,-9,-2,-8,-14,-9,0
1490743839263,-38,3,-7,9,5,13,12,8,22,-9,14,5,-12,-9,-16,1
1490743839264,-2,8,-10,-12,-6,-7,-22,-3,-35,-10,-21,-2,7,29,61,21
1490743839265,14,-3,-18,16,9,27,21,-4,22,0,11,12,18,12,46,19
1490743839312,16,-29,-2,1,7,18,16,7,-3,-86,-6,4,18,18,27,17
1490743839361,12,35,-43,-27,-71,-41,-18,6,3,27,-1,-38,40,27,-12,-23
1490743839410,43,28,25,26,2,29,9,9,11,-36,-3,-12,-40,-19,3,-2
1490743839459,-62,-103,22,5,-59,6,4,-5,-36,-60,-9,-39,-5,-6,-24,-2
1490743839507,-20,34,9,-25,-21,-63,-37,-50,3,51,2,36,55,23,0,14
1490743839509,-16,87,1,21,56,51,38,36,25,34,14,-13,-68,26,9,-1
1490743839556,38,3,8,-13,-26,-7,-21,4,-33,-25,-31,-22,-21,-67,-59,-14
1490743839605,24,127,-24,-29,90,-32,-58,-30,39,95,18,11,-84,-4,-17,-20
1490743839654,8,60,20,46,-3,12,-4,-23,39,-15,-3,-25,5,-7,15,41
1490743839702,-33,-28,13,41,77,11,-75,-50,24,54,33,68,10,16,65,55
1490743839750,-46,29,1,0,-31,-29,9,-4,-128,24,-34,-39,-102,-78,-24,-22
1490743839752,65,-45,4,-3,-6,33,66,42,-25,29,-6,-15,3,-7,-60,-49
1490743839800,-42,-7,2,60,66,16,59,-9,48,-28,-17,-38,-89,0,51,23
1490743839849,-128,25,40,-3,47,-78,-41,-18,118,26,-9,41,8,38,-14,39
1490743839897,-73,-34,-31,-27,31,52,19,-14,10,12,36,27,-25,8,-88,-39
1490743839946,-43,6,2,60,49,48,99,21,32,-4,-24,-33,-56,0,27,29
1490743839947,7,-14,-2,1,-3,-18,-30,-9,-38,18,-10,-12,-3,43,60,0
1490743839995,5,-39,-11,10,-16,-34,-100,-31,43,24,4,-13,-10,-17,13,13
1490743840044,50,48,17,1,-21,-44,-45,-27,82,-70,8,13,12,63,101,99
1490743840092,17,-8,9,14,11,5,26,10,-27,1,4,12,-6,-40,-42,-3
1490743840141,30,-19,16,14,18,43,27,13,10,-6,-18,-13,-8,-10,-18,-6
1490743840189,-63,-14,-4,-26,-11,-12,-7,-11,97,-4,-6,0,-2,-20,-35,-3
1490743840190,-30,-5,-12,2,4,-23,-28,-26,8,6,15,13,-10,-12,-41,-4
1490743840239,-84,-20,0,-1,7,33,75,59,-56,13,-29,-27,-18,-20,-38,-10
1490743840289,28,14,18,45,-2,-46,-54,-19,37,-24,15,13,14,27,52,23
1490743840337,-77,2,-6,-32,8,25,9,17,-114,-5,14,-11,-18,-34,-53,-67
1490743840385,-28,18,7,17,40,40,-14,-9,25,-4,15,4,14,-42,28,36
1490743840433,36,7,-11,-33,-30,-36,-79,1,-63,33,33,30,-10,30,24,-35
1490743840434,8,2,-18,24,52,-97,-88,-47,78,29,20,-38,-35,-4,36,70
1490743840482,-8,-51,-23,3,-39,89,127,52,-1,36,7,-2,110,-74,-58,-10
1490743840531,-40,-27,-31,-2,-82,-94,61,38,-25,-27,13,-9,15,29,-60,-17
1490743840580,95,-21,54,113,109,64,14,42,-62,2,-38,-13,-110,-24,12,-5
1490743840628,81,11,0,-23,-17,-5,39,16,-52,9,13,72,98,-55,-114,-18
1490743840630,32,21,28,35,-10,-4,-70,11,2,-60,-22,31,-66,-48,58,-35
1490743840677,-7,-34,-22,-88,-23,47,20,-33,72,-44,9,7,60,32,81,63
1490743840726,-82,45,-22,42,54,79,78,6,-30,49,21,52,90,-87,30,5
1490743840775,24,86,70,23,127,100,125,102,80,-80,-37,10,-128,-128,-128,6
1490743840823,45,-8,0,-13,-125,-120,84,8,-57,22,18,-9,-14,127,-76,-82
1490743840872,-17,-8,-19,35,-8,-83,-17,-8,5,-57,-24,-92,-106,-61,-114,-87
1490743840873,-27,26,1,66,105,-64,-38,18,67,-28,-23,-94,-50,-7,-32,-8
1490743840921,-62,-10,30,81,87,-79,-10,-21,-21,74,-30,-45,-9,58,73,35
1490743840970,37,-87,-2,-102,-128,-8,15,43,-69,-11,75,103,127,119,100,-17
1490743841019,-45,45,0,37,95,35,-32,-82,-23,17,-20,-85,-25,-111,75,49
1490743841068,56,37,1,7,-50,127,100,47,39,88,90,127,12,-66,-100,-78
1490743841116,-2,49,-6,38,97,47,-34,-32,11,47,54,70,85,87,24,41
1490743841118,12,36,-14,45,-94,-110,-41,-26,-45,-83,-47,-60,-82,-41,31,-15
1490743841166,-15,4,-27,-65,-102,-21,-33,-60,-25,13,-27,-31,0,-57,-38,-8
1490743841216,-38,-31,-35,-69,-69,-128,-40,-43,-30,-1,-45,-37,-39,-54,-8,-33
1490743841264,-32,-1,-9,9,8,46,-16,-6,19,5,-14,-22,112,27,31,13
1490743841312,6,-15,54,16,8,78,71,15,2,-4,-30,-76,-105,-122,-81,7
1490743841313,-4,0,26,44,-31,-8,-7,-3,-3,-7,11,-53,-49,-2,20,0
1490743841360,27,4,22,20,92,15,17,10,6,-5,4,26,-97,11,-6,-3
1490743841457,-21,101,-7,-72,-26,-6,10,3,0,105,4,74,97,26,-5,-1
1490743841458,-28,-38,-9,-12,-23,-21,-2,-7,11,-64,23,1,7,-12,-44,-10
1490743841506,12,-31,-2,-15,-58,-16,-18,-6,-29,-47,1,-3,57,13,29,4
1490743841554,-29,-21,-6,-8,49,27,28,15,0,47,-24,-45,-46,-37,-44,-17
1490743841556,12,13,35,19,0,-12,2,-2,-8,-38,34,61,51,25,16,9
1490743841604,55,-57,-56,7,24,37,24,9,-52,9,-16,-30,-37,-24,-11,-18
1490743841653,27,11,-15,-32,-21,-1,-9,3,-33,20,13,24,21,23,18,9
1490743841702,-3,127,12,-47,-50,-22,-11,-1,23,60,1,-67,-35,-26,-8,-3
1490743841752,18,-39,-33,15,1,-13,-12,-4,-30,-4,-21,-60,-30,-15,-2,-5
1490743841758,14,-20,80,93,41,17,1,1,-26,-1,4,-7,14,-2,4,-10
1490743841799,5,17,-35,-50,5,2,-12,-14,-17,32,-7,6,8,14,7,5
1490743841847,6,11,10,-9,-12,0,-3,-10,-27,-4,23,39,-2,-5,-14,-11
1490743841896,-14,-18,-34,-7,6,8,3,-4,18,39,-6,-21,-13,-3,2,12
1490743841993,-36,40,-7,-12,3,-4,-2,2,72,86,3,16,-7,-1,7,9
1490743841995,15,-57,-11,4,19,10,13,0,-27,-128,-11,12,15,0,12,0
1490743841996,25,-16,7,18,34,14,7,5,-25,-12,12,-1,21,15,3,13
1490743842046,8,-42,24,9,5,16,27,-25,-48,55,6,17,-11,-69,-21,33
1490743842091,-74,-30,-36,18,-6,0,-8,-21,25,14,-36,-3,-46,-4,1,-1
1490743842188,-25,21,0,-29,-48,-7,-8,-1,46,-11,5,38,34,16,36,9
1490743842193,23,-30,-14,-37,32,2,-35,-5,-1,-39,21,54,-15,82,97,20
1490743842238,-19,53,35,-7,-53,-15,-50,1,-5,-16,-19,-33,-21,-59,50,-5
1490743842243,-40,4,1,31,-15,-58,-58,-20,-48,-33,-4,-5,12,50,9,8
1490743842287,29,-9,-13,-39,0,21,19,7,13,24,8,2,2,24,-10,6
1490743842336,-118,-5,14,13,78,91,103,-5,36,-8,45,4,-121,-37,-6,11
1490743842384,-36,11,24,29,22,27,57,15,25,79,-26,26,65,-1,12,23
1490743842432,-17,-9,6,17,28,-12,23,4,30,-28,21,3,-79,-32,-54,-38
1490743842434,-109,33,15,-22,-86,68,27,-20,61,-40,15,9,18,-81,-17,25
1490743842481,-93,17,-16,12,-38,-53,3,-4,24,-10,4,4,50,14,-34,-12
1490743842531,-1,-62,-9,-9,22,80,93,24,-35,52,-26,8,-5,-89,-79,-14
1490743842578,-80,-5,-12,-21,-38,2,2,8,53,-24,13,2,-13,5,-25,20
1490743842627,17,31,15,20,4,-71,-80,-1,-63,-9,5,-7,-40,0,65,-19
1490743842675,2,-101,14,-6,31,-46,-61,-4,-3,-100,-5,-3,-10,38,72,10
1490743842676,-60,43,-33,6,12,31,42,14,-23,44,-7,6,-36,-29,39,-7
1490743842725,-13,11,34,4,21,72,1,15,-50,1,2,21,22,-80,4,-13
1490743842773,42,29,18,5,-29,-23,-51,-10,-70,-18,1,-19,-9,4,95,8
1490743842823,-77,-7,3,17,25,10,-26,-25,29,-7,-32,-18,-39,4,-23,-7
1490743842872,-74,-17,-16,-7,0,-18,36,6,71,5,26,1,0,6,3,-4
1490743842919,-37,-2,-8,10,3,-18,-10,-14,23,-1,-5,-16,-21,2,10,26
1490743842923,1,10,13,-12,-4,-8,12,1,-43,-9,-5,21,-10,-35,-60,-27
1490743842969,-28,-4,-18,-2,-8,7,7,-6,40,6,15,-6,-6,1,-26,-2
1490743843018,-104,0,-14,-21,-23,-29,-47,-24,-85,1,-5,1,5,3,23,-1
1490743843066,22,2,-9,-4,-4,-10,-3,9,8,-2,11,29,16,26,9,14
1490743843114,-50,9,2,13,5,-14,-14,3,-84,-8,7,7,2,23,44,18
1490743843115,-15,-16,4,-1,-3,1,-8,10,23,0,-11,-10,-5,-12,-7,-1
1490743843163,93,-8,-9,-16,-9,0,1,0,-28,-3,-9,-10,-6,-9,-26,-3
1490743843212,65,10,15,27,10,6,18,16,-19,1,7,-31,-6,-5,-62,-31
1490743843261,-81,-14,-3,-32,-40,33,118,41,-3,-10,-19,4,11,-46,-78,-36
1490743843310,12,11,-11,2,-16,-20,2,2,22,-19,11,-2,-47,13,0,-1
1490743843358,-128,21,-34,41,-43,9,-18,-30,114,35,27,17,103,99,99,85
1490743843360,-12,-10,4,-4,-26,-70,-110,-43,-75,-26,2,-19,62,58,10,-46
1490743843408,-36,-5,44,44,65,-29,59,59,107,17,3,-15,-87,-36,-48,2
1490743843457,68,-22,-14,42,58,-47,-41,12,11,1,-21,-78,-45,-73,34,-26
1490743843505,-120,-1,-13,60,-3,48,-53,-67,120,2,7,-19,25,45,14,41
1490743843554,107,-4,-5,-24,-63,28,34,56,-32,-5,1,-28,-39,127,100,38
1490743843603,9,71,-11,-41,-1,64,116,-27,116,-27,-49,-34,-128,-128,-128,-45
1490743843606,-94,28,22,0,103,100,58,-41,-92,53,46,-44,-40,-75,-40,-48
1490743843652,13,-13,26,-15,-40,-87,-128,-23,33,-83,-55,-31,-49,47,112,-67
1490743843700,68,27,11,-44,102,113,106,67,17,9,77,53,-10,1,5,57
1490743843748,-33,-28,-25,-80,97,87,47,49,19,-55,-7,127,-42,-46,-77,-113
1490743843796,-1,-1,18,52,103,72,97,86,-110,39,-37,38,-73,72,-27,7
1490743843798,11,53,30,4,39,112,127,82,-79,-64,-29,-62,-31,-128,-92,-94
1490743843846,58,-7,4,88,25,-128,-128,-94,2,-92,-26,-14,17,-84,1,-66
1490743843895,-4,-17,-34,18,76,-84,-113,11,-2,13,17,45,25,0,-34,-43
1490743843944,-25,-113,-85,-37,-41,11,-2,-2,-22,23,18,2,1,105,75,21
1490743843993,8,23,-14,-42,-5,53,-52,-88,-1,62,-27,-92,82,89,9,13
1490743844044,1,-97,-5,-70,34,-50,-12,32,-14,-118,5,34,-9,88,31,-42
1490743844045,-20,43,-23,51,-128,-38,-2,-4,-17,-6,6,3,-73,-58,-47,-52
1490743844090,24,14,0,29,-33,89,79,29,12,-14,32,35,127,-52,4,68
1490743844138,-5,3,60,-29,-89,3,-7,-10,20,3,26,67,69,114,113,50
1490743844187,9,5,-18,-1,78,29,-6,-12,23,1,47,107,-8,21,46,31
1490743844235,-2,3,89,49,30,54,8,-11,-17,5,-80,-128,-128,-61,-16,-15
1490743844236,18,-9,12,92,-22,56,30,25,1,-40,-14,8,49,3,12,-3
1490743844285,3,127,-14,14,-8,-30,-31,-9,-44,18,-18,44,54,44,21,9
1490743844336,-2,37,23,1,-69,-48,30,10,16,-1,7,14,26,27,-2,-4
1490743844383,7,-34,41,66,35,6,1,-1,22,-26,-12,-42,24,23,29,9
1490743844479,-28,8,-51,-67,-66,-21,-11,-12,-15,63,23,89,62,-27,-26,-8
1490743844480,21,-29,37,106,79,53,19,17,10,-128,-61,-81,102,23,9,11
1490743844481,25,-27,7,22,-46,-46,8,4,-96,-58,27,30,-93,-13,-14,-11
1490743844528,-12,-39,18,13,0,-23,-13,-10,-10,-8,20,-3,-19,-21,5,8
1490743844577,-3,-8,-52,6,21,25,9,-2,3,5,-29,48,26,8,-13,-8
1490743844626,25,0,-17,-65,-7,-15,-6,-2,-5,5,-43,-19,6,-6,8,11
1490743844677,-1,-3,39,10,2,6,-5,-11,-54,-6,-53,-6,12,7,0,-4
1490743844723,10,-1,29,-14,0,1,10,3,-8,-13,-32,21,20,-1,-9,-15
1490743844724,12,-3,-4,19,5,4,14,5,16,9,28,-5,2,5,1,-1
1490743844772,-29,-10,-41,5,15,10,0,-10,-39,5,81,5,-23,-2,-6,1
1490743844869,48,2,-15,15,-2,-6,-7,-2,34,-2,1,3,-1,0,1,6
1490743844871,37,-3,31,11,-6,-1,3,10,49,-11,-21,-4,2,1,0,-1
1490743844918,9,-6,-27,-4,2,6,13,5,-27,-37,-16,4,-2,-1,-4,-7
1490743844920,4,-7,1,-11,1,-3,-7,-3,13,-27,-16,8,-1,-3,0,6
1490743844967,12,-88,-6,-6,-3,-9,-14,-6,-25,-95,25,0,5,5,-14,-4
1490743845016,-6,62,-6,3,-7,1,8,6,-29,71,-7,-16,4,18,18,2
1490743845065,16,-12,17,-1,-7,-14,25,11,-23,12,0,-6,23,-21,-56,-20
1490743845114,-20,-40,-14,10,-41,-23,-53,-25,28,18,-20,-47,-50,-32,18,14
1490743845161,-46,-58,-29,-57,-77,-69,-48,-22,48,27,33,39,105,113,42,17
1490743845210,-13,7,-4,9,28,-6,0,-4,-1,-55,-25,-43,-68,-10,-1,-1
1490743845211,94,2,10,-32,-102,-69,-8,12,-38,-40,-51,-26,16,15,-29,-31
1490743845260,-38,-26,-17,-18,-83,10,54,1,-40,-28,20,9,10,2,-63,-8
1490743845309,94,34,-30,-18,41,-102,13,33,8,-44,-15,17,30,71,16,-15
1490743845358,-95,15,9,3,-16,38,-3,-10,46,127,16,44,104,-11,-10,8
1490743845407,105,-46,50,63,12,19,7,32,36,-78,-40,-48,-41,-17,-10,-13
1490743845408,-55,10,29,53,82,4,-38,-8,-46,-50,3,20,-25,-47,-17,-13
1490743845455,6,3,-13,-64,-57,-34,-44,-53,50,20,21,35,18,59,0,51
1490743845503,62,40,-31,-24,-7,17,-6,5,1,-1,12,-39,-37,-112,-64,-28
1490743845552,-28,-48,7,21,8,-2,-11,-20,67,-19,-2,5,19,19,10,22
1490743845600,-17,17,2,11,-15,-17,-14,-8,-107,19,-8,15,-23,-11,-12,-33
1490743845601,87,44,9,11,10,-31,-37,-13,-75,16,15,-27,-2,-35,7,7
1490743845650,33,65,10,35,-7,-31,17,9,62,-5,-9,-39,-10,13,3,23
1490743845699,56,6,7,21,30,-39,-33,18,-27,-32,-9,16,18,-4,-21,-36
1490743845748,76,-28,5,10,3,23,23,12,-58,-4,20,-6,6,22,4,9
1490743845796,-75,12,-21,7,-6,-15,-8,-37,-64,-36,-2,-8,-9,18,18,-4
1490743845844,49,-14,-12,-6,-2,7,19,14,31,-1,-7,-3,-25,-3,12,5
1490743845845,-73,2,0,-23,-18,-17,-8,2,-13,18,10,-13,5,12,4,-8
1490743845941,24,-3,0,2,10,-11,9,37,-31,11,23,26,-2,-9,-16,-2
1490743845943,-12,-49,3,-20,3,2,-40,-7,57,-35,-7,-5,8,3,25,24
1490743845991,-1,36,9,24,5,11,-10,-1,-53,-20,-1,-17,-8,3,8,-2
1490743846040,-51,-19,-25,-2,19,12,21,24,47,-10,-5,-28,-17,3,0,9
1490743846088,63,-9,3,13,11,26,70,42,-40,23,3,14,10,1,10,0
1490743846090,31,1,0,-12,1,11,68,19,64,-2,-2,32,18,-36,-40,-12
1490743846138,-60,-2,6,18,15,-32,-15,-35,-52,-11,-1,32,72,93,37,40
1490743846186,-71,-28,-22,-41,-84,-24,2,4,-53,-11,-22,-13,31,-67,-72,-40
1490743846235,-55,-4,7,-1,-20,53,41,1,31,5,32,4,81,30,21,1
1490743846283,-81,18,2,-3,9,92,92,92,-41,-31,-6,-90,-128,-76,-128,-112
1490743846285,-89,28,0,-57,-55,-99,-85,-43,99,-12,-41,-68,73,119,126,33
1490743846333,116,-3,-10,-104,66,-14,102,7,-2,16,3,2,-80,12,-128,-33
1490743846381,-48,-12,14,69,80,5,-32,11,-81,4,-27,79,106,-65,-3,-3
1490743846430,-23,21,-19,44,100,114,109,57,-35,-57,25,82,29,-128,-103,-108
1490743846478,-15,-7,-34,-108,-101,-96,-40,-39,-2,-3,0,-92,1,120,77,57
1490743846526,-14,1,38,-78,61,-79,79,27,75,37,3,37,-69,37,-76,-31
1490743846528,42,-24,-15,12,-128,-13,-108,-81,-49,16,18,-14,92,127,119,89
1490743846576,69,7,22,40,-95,-74,126,42,-65,-8,-9,23,106,92,-36,-13
1490743846625,-63,0,-53,110,32,-26,-105,-47,-39,12,22,-105,-128,-22,113,109
1490743846673,-41,25,38,36,-48,105,77,48,46,-19,-35,-105,22,-35,-128,4
1490743846722,51,3,10,-33,102,97,82,25,14,-25,5,75,-16,-112,-72,-53
1490743846770,36,3,-30,-88,-40,-64,-95,0,-21,48,39,16,-42,77,127,23
1490743846771,-32,-60,1,52,69,-93,-53,-16,-11,-8,-57,-44,-70,-3,-5,-25
1490743846820,-9,76,-7,-34,28,106,39,20,-1,3,-3,106,63,-10,1,5
1490743846869,25,9,-34,-23,-107,-128,-40,-8,-15,-12,-24,-99,-14,-77,-42,-64
1490743846920,-7,17,-19,-46,51,81,-4,-4,-22,-19,-8,92,-17,32,19,-1
1490743846965,13,-14,20,-3,7,67,26,-21,-21,-1,-5,-49,-96,-10,-78,-58
1490743846967,10,15,39,-13,127,-14,-30,-1,1,5,-5,46,12,17,3,4
1490743847015,1,-2,-20,50,91,54,-2,6,28,-26,71,80,-4,53,37,17
1490743847063,-13,-16,-1,11,20,3,-3,6,1,-3,22,85,74,84,69,26
1490743847112,6,9,-49,-18,-5,-31,-26,-13,3,-9,43,56,56,46,23,6
1490743847161,-32,-54,18,21,-12,12,-8,-4,1,-33,-51,-17,-52,-21,-4,-7
1490743847209,64,-73,3,37,11,25,4,11,53,28,84,30,-1,-13,-10,14
1490743847211,-39,-78,-62,-39,6,-3,3,-6,15,-85,8,18,13,-2,11,4
1490743847259,-101,31,113,51,-2,-2,-2,-18,75,-11,-97,-3,-18,-9,-2,9
1490743847307,-16,-14,-5,-33,-13,17,-11,1,78,6,-7,8,14,27,13,6
1490743847356,31,11,54,-5,-60,-15,-12,6,5,14,26,9,-28,-10,-4,-4
1490743847404,10,-4,22,25,5,-20,-5,8,0,-7,-30,-42,-25,-17,3,1
1490743847405,18,-1,-47,3,-12,3,6,1,11,5,5,-2,-15,9,5,2
1490743847453,-17,9,-29,-1,10,6,-4,0,31,-5,40,-19,-1,9,-4,2
1490743847550,21,-8,0,-20,11,3,-1,2,63,14,-7,0,-5,3,-3,10
1490743847551,-115,-9,-49,7,5,-2,-3,-24,31,14,8,-3,-7,1,5,9
1490743847600,38,13,-13,0,12,5,3,7,-37,-3,-2,9,-3,-4,-7,-10
1490743847648,18,0,13,16,0,-4,-7,7,6,1,-1,-5,0,6,-3,11
1490743847649,-3,-1,-19,2,0,5,-3,-10,28,5,18,22,-1,-5,-3,6
1490743847699,23,85,10,4,1,8,0,0,-43,44,-41,-14,-8,-15,-12,-16
1490743847746,-51,-71,13,9,11,7,10,4,-21,43,15,-4,-7,-3,-14,1
1490743847795,73,82,-4,-8,-1,-17,-28,-7,94,4,-29,4,1,9,25,9
1490743847843,50,42,-18,11,-9,-2,-4,-8,15,-3,-17,-18,-7,-2,18,9
1490743847941,-21,-86,0,0,-9,-4,-10,4,-47,-36,39,-2,-7,-13,-12,-17
1490743847942,41,0,10,28,-11,13,26,-2,-54,15,6,9,28,12,-14,8
1490743847943,46,7,-7,10,7,-10,-43,-36,75,43,-21,-16,41,5,-6,-10
1490743847990,-3,17,9,-10,-34,-19,25,-3,33,-12,-2,29,54,-20,-74,-23
1490743848088,-45,107,24,-5,46,58,29,-12,103,127,-62,-51,-112,-94,-19,9
1490743848092,-31,-38,24,63,95,34,109,54,-16,-42,15,30,-37,-18,-46,-23
1490743848094,-42,-11,34,23,-30,-10,24,9,74,-12,12,-12,13,106,49,18
1490743848136,-8,-30,-2,29,62,84,16,-28,-95,-4,-3,-69,-92,-47,-59,-30
1490743848185,-31,-5,44,-16,4,1,73,12,-60,10,27,28,36,16,-7,-3
1490743848233,-61,-7,-55,-22,-111,-39,-21,-33,67,114,7,-30,7,-15,77,32
1490743848282,-43,11,-34,-62,-94,-21,-3,13,38,-50,-20,-63,-2,40,-31,-16
1490743848330,-40,-15,-1,0,-109,-21,-40,-31,-15,21,35,11,50,-39,-22,29
1490743848331,41,-64,-14,-4,-11,-83,-85,-24,-128,0,-29,-50,-94,-31,41,-79
1490743848380,1,3,-25,-26,-48,-15,-44,25,-66,48,1,27,27,11,18,-1
1490743848429,5,23,0,-2,97,27,-3,-15,-21,49,-6,-3,-35,8,-27,-7
1490743848481,123,-28,11,37,69,73,26,8,53,-61,8,24,8,-55,3,4
1490743848527,-33,0,14,36,9,81,64,21,-30,80,21,9,-10,25,26,21
1490743848623,-7,65,10,12,3,27,-23,-26,89,103,5,14,-1,40,90,54
1490743848626,-33,27,2,-13,-20,10,30,22,-20,24,10,15,45,24,-38,-21
1490743848628,-67,-10,6,20,9,-8,-21,-2,-21,-7,-5,-14,-8,4,12,5
1490743848675,13,1,6,-17,-19,-10,-14,-13,35,6,-5,-16,18,3,2,14
1490743848722,-11,-7,-8,8,0,-10,-27,-8,109,-19,1,-6,-8,-8,43,28
1490743848769,0,-14,0,4,4,10,5,-2,-11,-7,-14,-13,-9,5,4,-2
1490743848770,-51,1,19,14,-9,-10,1,-6,26,0,-3,6,3,0,5,12
1490743848818,-5,-2,-9,4,-7,-8,-30,-14,-37,2,-7,-16,-12,-25,-23,-13
1490743848867,-128,-13,-15,-27,-7,-34,-33,-38,114,-12,1,-7,-11,1,-1,26
1490743848916,-1,-2,18,35,7,-15,18,-1,4,4,8,23,3,-10,-37,2
1490743848965,17,-2,32,43,-3,23,5,-13,55,-9,-16,23,67,-38,7,28
1490743849013,50,-2,-12,-36,-9,0,7,13,66,3,6,-8,-63,-36,19,-18
1490743849014,-102,-17,-3,23,45,8,-3,-22,-77,-6,-5,-7,-1,-8,37,20
1490743849063,125,43,41,29,-14,39,-73,7,-35,21,-7,-14,63,3,-44,-36
1490743849111,-77,-28,-27,-82,12,-66,-56,-26,-82,-33,-69,-64,-119,-92,-41,-49
1490743849161,-32,17,-5,-87,-21,97,25,20,121,-84,50,119,83,-84,-22,-7
1490743849211,-24,-48,-24,39,-54,-41,17,-13,-31,28,27,-42,-71,-48,7,-5
1490743849256,41,37,-25,78,88,124,17,13,-98,-42,26,-77,-110,-77,-29,-58
1490743849258,42,0,4,-98,-32,65,8,3,-50,-26,19,7,-19,-56,-44,-38
1490743849306,-25,-60,41,86,-47,-100,-67,-11,-46,21,-15,-85,-8,127,-4,-33
1490743849355,45,60,-11,-60,-73,23,127,34,-62,127,4,82,118,97,-66,-14
1490743849403,-37,37,-54,-45,-100,54,15,-25,127,112,100,99,127,127,119,126
1490743849452,27,66,-18,-49,65,91,6,26,-3,-97,-24,52,-2,-128,-112,-65
1490743849453,-98,-63,-29,-34,-99,-97,1,-57,103,54,35,11,-89,85,106,81
1490743849502,57,0,-3,58,-3,-53,3,-2,-102,-28,-49,-128,-17,82,36,0
1490743849552,39,9,-24,-67,-128,-107,32,-8,-20,-10,1,37,49,-56,-50,-63
1490743849599,43,-48,62,47,62,-52,-128,-12,-49,16,-34,-15,17,91,94,28
1490743849647,12,71,4,-38,42,114,50,74,13,2,-22,31,61,24,59,11
1490743849695,-23,2,-5,-28,-37,-85,-49,-50,-23,27,-44,16,26,-11,-35,-35
1490743849696,-26,12,-51,-42,-128,-115,-52,-88,9,-30,16,-13,-84,-65,-99,-72
1490743849745,43,-12,59,17,75,76,102,90,-26,0,-15,107,56,-40,-61,-51
1490743849793,1,-1,-11,-10,10,-128,-30,-38,38,3,7,-70,-26,117,94,60
1490743849842,30,-4,-21,12,-14,2,-43,-41,24,1,8,-106,-128,95,74,30
1490743849891,13,5,2,41,30,105,-45,-19,24,-3,-33,-28,50,-30,14,48
1490743849893,-9,-6,-42,-62,-10,-26,51,3,52,-2,26,15,-116,-67,-30,0
1490743849941,6,-2,23,5,-46,40,30,4,-11,4,-8,-55,-51,-57,-16,8
1490743849988,-10,-3,-11,-11,-83,11,46,9,14,-2,50,56,89,82,71,30
1490743850037,13,1,55,96,127,70,36,27,-11,0,7,-5,10,49,27,8
1490743850086,-2,0,12,-56,-10,-17,11,7,3,-3,44,112,53,20,56,9
1490743850134,8,7,-22,-7,-16,12,-2,-1,6,-1,38,-32,-102,-6,21,1
1490743850135,-17,-21,29,68,98,59,22,10,20,-42,26,26,31,7,6,2
1490743850184,-2,71,9,-19,44,50,18,9,-5,115,19,7,-20,-34,-29,-8
1490743850233,0,-2,-9,15,65,55,19,8,2,26,69,62,-13,38,13,6
1490743850285,21,63,25,17,-13,-25,-10,2,-12,65,-26,-74,-41,-27,-15,-9
1490743850330,-3,-43,-18,-53,-11,-11,-2,2,12,-30,34,0,-5,-14,-13,-1
1490743850378,27,-6,-30,-1,19,3,-9,4,9,12,9,29,-40,-14,-22,-10
1490743850426,62,-5,36,35,-39,-13,4,19,-6,24,37,61,16,-12,-6,-9
1490743850427,-42,-1,-6,44,29,7,-14,-3,-29,6,3,20,16,10,-2,-5
1490743850476,27,8,-13,13,-14,-3,1,-7,-8,-4,-28,-8,25,12,11,-7
1490743850525,-40,-2,40,60,5,-1,6,3,25,-9,1,34,15,3,10,6
1490743850573,33,-6,12,-3,9,1,2,1,16,6,-42,-5,17,11,17,13
1490743850574,-14,2,-16,-8,-18,-4,0,-5,-65,7,18,-30,-16,-9,-6,0
1490743850623,-32,-1,53,-29,-53,-25,-27,-19,75,13,16,-14,-1,10,47,42
1490743850671,16,-5,-64,-50,-24,-7,3,5,5,2,15,-2,-13,-6,-19,-15
1490743850720,62,-1,-32,-9,13,-2,9,12,-19,10,39,-15,-4,-1,-8,-13
1490743850770,36,-8,25,20,3,7,8,13,10,7,-11,-19,-8,1,-4,-1
1490743850817,26,5,-11,-4,9,5,7,1,5,-6,-1,17,-4,-1,-11,-13
1490743850819,44,4,-42,-13,9,-5,2,9,-20,85,-17,-8,12,0,4,-5
1490743850866,-117,-32,-6,-2,-10,-3,-6,-9,48,2,-12,-14,-6,-9,3,10
1490743850963,75,-35,-14,5,25,13,18,5,29,0,38,11,-3,3,-1,12
1490743850964,-39,43,-1,-46,-44,5,49,16,1,66,-6,-23,-39,-23,-3,6
1490743851013,-46,-4,17,8,-1,36,-8,6,-17,-25,-37,-2,-69,-44,2,-11
1490743851060,-81,60,24,31,77,24,6,-31,-3,-103,-59,-78,-72,28,-3,-8
1490743851061,-25,37,3,15,23,14,-18,2,-24,-33,-17,13,-18,39,27,-12
1490743851158,-32,21,-1,-44,-99,-33,6,-1,-57,-49,20,81,127,14,-39,-5
1490743851159,92,58,-14,17,74,-49,-58,-13,-43,-14,11,43,45,43,19,5
1490743851208,51,29,-22,-14,122,-10,-5,-20,-27,6,-7,-6,0,9,3,-5
1490743851255,-30,-71,-13,14,-5,58,47,-22,-23,56,38,29,58,-18,-29,24
1490743851256,4,11,30,43,118,87,20,6,69,120,-33,-61,-107,-67,-37,-12
1490743851305,102,-117,-3,-10,45,-13,-46,25,27,-103,7,-7,-44,28,60,-1
1490743851353,-93,-9,-18,14,-32,127,32,-27,99,24,24,89,127,-6,-44,12
1490743851402,76,16,15,-1,80,77,63,16,-7,28,1,52,75,39,32,11
1490743851451,-59,12,-2,17,58,3,-33,-18,-52,7,4,1,-38,-2,-27,-12
1490743851500,-63,14,5,-28,-37,-34,-32,-51,76,6,10,25,9,1,18,16
1490743851502,69,-22,8,23,33,14,-39,-44,-12,-20,-8,-42,-18,-94,-28,19
1490743851549,-1,21,-36,-20,4,-42,27,10,-3,29,21,26,-25,24,-19,-36
1490743851598,0,-85,15,16,-55,75,37,5,17,-6,18,10,57,24,71,9
1490743851646,-85,21,11,27,22,-25,18,-3,-59,7,2,-10,-45,-18,-61,-16
1490743851696,59,-20,1,15,33,22,37,42,4,23,5,-11,-20,-72,-38,-19
1490743851791,17,41,13,-14,-11,22,38,12,-51,5,2,-8,-16,10,0,-6
1490743851792,-29,-18,1,10,16,-2,-36,-1,21,16,-7,19,11,24,61,26
1490743851793,-28,17,-12,-8,-7,-23,-23,-15,-43,1,-12,-22,-36,1,14,-4
1490743851841,-21,-11,16,2,3,17,26,-4,82,-23,-9,22,12,-8,-5,-2
1490743851890,-62,-15,-11,10,-37,1,-16,-18,50,-6,-20,-21,-33,3,-19,-8
1490743851938,30,8,-8,-21,64,-4,10,11,63,28,6,16,46,-22,-33,-15
1490743851939,-40,-26,-7,9,-126,4,14,22,1,-8,0,-4,-119,12,10,7
1490743851987,-38,4,2,-6,127,4,4,-5,-27,-6,-6,8,127,5,10,15
1490743852036,-51,-2,-7,-24,-43,9,-1,0,-10,-13,-10,-6,-44,-12,-13,-6
1490743852085,-29,-5,-9,27,-12,19,4,-7,105,26,19,0,-8,-29,26,29
1490743852137,-33,-20,-7,-11,6,-37,0,-18,-117,3,9,-45,-38,-24,-77,-25
1490743852181,122,20,15,-9,7,10,-44,8,103,3,-20,-1,24,15,54,50
1490743852182,-62,-8,-12,-10,-17,-14,-26,-46,-46,9,33,4,-39,4,-14,-3
1490743852231,-80,-27,-9,23,-33,-12,23,-10,-31,17,2,-65,51,-8,26,32
1490743852280,-4,26,-3,-41,-85,-8,35,-12,6,-22,-10,84,118,-6,17,15
1490743852328,45,38,61,40,86,119,0,-13,102,16,25,120,-82,-99,21,118
1490743852377,21,-91,-22,-128,-54,-71,-26,-10,47,-10,-1,92,81,44,59,25
1490743852425,-40,-18,7,62,77,26,-58,17,-67,58,48,70,5,115,77,-47
1490743852427,-76,30,-82,-103,-16,-83,88,-7,-3,-54,-11,-113,-98,-50,-60,23
1490743852477,-44,-50,-21,-73,-26,-55,-91,-53,6,15,-4,7,42,102,81,97
1490743852523,12,-38,-39,-70,-91,-72,-77,-57,62,29,11,-5,-74,64,72,43
1490743852572,-128,-77,-46,-34,83,-93,-62,-89,1,-22,-41,-68,-128,-52,25,47
1490743852620,40,58,30,-2,-90,33,117,39,-52,-31,52,21,104,-34,-128,-102
1490743852621,34,-20,39,-55,-85,95,117,126,49,35,51,36,56,37,-86,-33
1490743852670,19,-8,25,-52,-128,10,28,29,71,-50,-38,90,35,1,27,28
1490743852718,-44,-45,-10,-53,77,60,33,-31,75,-14,9,-1,-128,-102,26,48
1490743852767,9,-73,-44,-128,-14,-74,-44,-83,20,-21,32,71,23,100,73,68
1490743852817,-17,-107,-19,-32,8,-104,-79,-28,-11,-69,16,-17,-13,57,-51,9
1490743852866,40,35,-6,-63,-24,68,-27,-41,-2,39,-6,21,-5,-128,-84,-48
1490743852868,48,27,22,27,-78,107,-11,10,4,1,10,-1,-66,-59,48,16
1490743852913,-21,5,7,-52,-53,17,-72,8,1,-1,-13,-34,25,-82,-66,-77
1490743852962,3,11,-8,-32,37,-55,-50,14,-11,0,54,84,-20,-28,-50,6
1490743853011,23,7,49,49,-10,62,58,41,-72,-4,-104,-128,-91,-46,-39,-62
1490743853059,-10,-2,-16,-20,62,46,-28,-32,42,7,17,44,-4,14,20,16
1490743853060,-50,-5,-84,-72,-128,-128,-112,-72,6,-6,-4,2,76,32,8,1
1490743853108,24,-2,-5,36,58,-39,12,50,1,2,56,-15,-1,117,118,-8
1490743853157,8,-1,33,23,-51,-61,17,5,5,2,47,63,33,66,13,0
1490743853206,-4,4,26,75,56,64,-69,-6,33,-1,-1,-31,127,-45,-48,0
1490743853255,2,7,12,-61,-113,-33,-55,-19,-22,1,7,-33,-60,-22,46,-3
1490743853303,-22,4,15,-7,23,4,44,19,26,1,72,127,63,112,28,12
1490743853306,28,-5,29,69,50,56,3,5,-9,4,-40,-75,-55,-25,15,2
1490743853352,0,0,15,88,117,48,12,18,-1,-2,-24,37,85,75,46,11
1490743853401,-49,1,-10,-53,-86,-41,-28,-4,5,-7,-55,2,15,-37,17,4
1490743853450,-7,14,-3,-89,-39,-46,-28,-21,14,13,5,55,-29,4,8,-3
1490743853498,-34,1,-13,-55,-60,-94,-72,-34,25,12,-8,15,14,12,14,8
1490743853546,11,44,49,32,62,29,15,8,-55,16,29,48,-15,-10,-7,-5
1490743853548,-13,-7,13,25,23,13,17,5,-27,-11,-4,17,-23,-14,-16,-7
1490743853596,-24,-2,-44,-42,-16,-11,-8,-5,16,-3,-39,7,47,15,16,5
1490743853645,13,2,37,75,25,14,4,2,-21,2,-20,-44,-8,4,-1,-1
1490743853694,-12,-7,33,-11,15,4,8,6,18,-1,-43,29,11,-7,-4,-7
1490743853742,22,-1,68,-7,-2,-5,-14,-3,41,-5,127,-20,14,2,-1,5
1490743853744,32,-3,-58,-4,4,3,6,6,7,8,28,32,-1,3,6,4
1490743853791,11,3,-11,-16,-21,-4,-2,-7,-34,12,7,-8,2,3,-3,1
1490743853840,-44,-9,8,11,-3,1,0,-4,46,-13,-24,17,20,9,7,5
1490743853888,38,-7,-46,27,5,4,-1,-2,-45,-1,-9,-18,2,2,3,-3
1490743854037,-18,2,46,42,23,2,3,-2,-23,-1,-22,17,25,10,1,0
1490743854038,0,1,6,-28,-17,-10,-4,-3,1,-3,31,8,3,-2,-9,-5
1490743854039,-38,3,-18,11,-3,2,-1,-2,-9,4,14,-15,-12,-5,-6,-6
1490743854040,-17,-1,-23,1,10,-2,-8,-3,43,0,22,4,-3,9,-3,6
1490743854084,48,-7,-12,-4,4,11,-3,-4,-73,2,21,4,-5,0,3,-3
1490743854132,-1,4,-12,-4,0,-3,-11,-14,50,3,23,4,-4,5,43,10
1490743854181,38,-11,-2,-13,-10,-5,-4,3,-2,-49,-18,1,-4,-3,-23,-6
1490743854229,5,-31,-12,11,6,3,6,-3,6,-19,-2,0,7,15,2,-15
1490743854230,-16,31,41,26,38,70,47,10,22,43,-26,-8,-37,31,57,25
1490743854278,-18,-15,-23,-20,1,-13,-64,-26,-12,18,-18,-33,-32,9,-10,2
1490743854327,40,-26,-9,-40,-69,23,34,32,22,-24,16,30,30,-20,7,-14
1490743854376,-11,51,11,16,47,16,54,-14,0,-49,-18,-31,-20,7,-21,-13
1490743854424,-45,-17,-8,3,18,9,0,-17,21,43,21,24,42,-7,-37,-11
1490743854473,64,1,15,-26,-33,18,-3,16,-43,63,-40,-53,-67,-42,-8,-11
1490743854475,-36,-59,-18,-6,4,-22,-20,-26,-5,-55,-7,7,-57,-22,-50,-18
1490743854523,4,-8,4,-20,14,-69,-10,-13,-87,-54,-7,24,34,-32,-105,-33
1490743854571,-108,-9,-18,-19,0,-23,-31,-44,116,3,-1,-34,-82,93,7,43
1490743854620,-66,-10,38,84,58,81,79,1,-47,-2,-20,-15,24,-79,-58,-26
1490743854716,69,-6,2,-3,-83,-72,-112,-20,-106,64,-11,-10,114,41,89,-4
1490743854717,90,-122,42,66,99,56,-10,-16,-38,-128,-15,-32,-77,-25,90,-17
1490743854718,-34,-101,13,5,62,105,86,42,68,-80,-10,-9,-35,-66,-62,-22
1490743854766,18,16,-13,-43,-25,-43,-82,-14,1,-2,20,48,72,64,76,43
1490743854815,79,-14,9,3,-32,2,15,7,-47,54,-11,-9,-3,51,-28,-73
1490743854863,-69,74,-23,-38,-6,7,37,-4,-16,105,47,23,-7,24,28,37
1490743854911,127,34,2,-8,-75,2,-72,-9,13,-7,-5,-11,61,-4,42,25
1490743854912,-39,-9,14,9,-10,-78,3,19,84,-10,-5,20,23,-12,-57,-10
1490743854962,0,3,-28,-3,23,21,11,-10,7,-5,-6,-4,-25,-43,22,20
1490743855010,44,-8,-14,1,3,27,9,21,28,-21,-17,-5,-23,-36,-41,-37
1490743855060,-48,1,-10,-21,-2,-5,-1,-11,34,-4,-1,6,3,5,17,8
1490743855107,-88,-17,-6,3,21,-22,-26,-23,39,-8,-6,-5,57,-3,-3,6
1490743855109,32,3,-11,-25,-5,1,-10,5,34,7,25,26,-20,-8,5,17
1490743855156,102,9,12,-12,17,9,1,4,76,0,-23,-24,12,6,14,8
1490743855205,-100,-2,4,8,12,2,-21,-22,40,-8,-15,-22,-9,-9,-18,-20
1490743855253,67,-15,-17,-8,-9,-20,-38,-11,-17,-12,20,7,2,28,41,8
1490743855302,-6,12,-1,13,-4,-30,-7,-18,22,1,-9,-12,-3,-5,-42,-25
1490743855350,-18,-6,-33,-40,-20,-31,-2,20,-20,-8,9,0,-1,-14,-84,-27
1490743855351,127,5,1,-8,11,74,46,18,-53,5,24,13,-7,-34,3,-15
1490743855448,61,3,-6,-26,-13,-32,-51,-39,-34,14,2,48,59,79,91,37
1490743855451,-94,-12,-28,6,95,46,-55,-71,81,0,-13,-12,-78,-7,-16,33
1490743855498,78,23,30,12,-73,73,-40,-5,-114,-4,19,-29,64,-107,65,34
1490743855547,-104,-1,-26,-44,80,80,30,32,72,-12,-12,64,53,-7,11,-13
1490743855549,13,14,-18,-110,-128,-128,-18,51,45,29,-4,7,13,32,-96,-49
1490743855595,127,23,-9,-54,23,-59,-86,30,-4,2,22,97,-126,-4,76,-16
1490743855643,23,-19,-72,12,-59,-93,107,50,-49,0,38,76,43,8,-16,-97
1490743855692,-44,116,12,-18,109,127,79,-29,36,-22,19,89,77,-128,-97,73
1490743855741,-112,35,-10,75,25,127,97,32,92,-10,-35,25,-100,-57,-46,-45
1490743855789,75,-36,-40,-47,29,20,-47,57,-128,77,52,-8,-101,127,74,9
1490743855793,28,42,2,25,-32,-11,35,31,-79,-73,-17,-36,-53,-124,-97,-7
1490743855839,4,-23,35,40,-58,-22,-73,-23,23,90,-25,20,127,127,107,33
1490743855887,-117,-92,-23,26,-105,-128,-22,-29,117,47,-29,-9,81,20,-39,5
1490743855936,30,-117,17,22,49,-128,-128,-111,-87,13,-35,-34,-36,125,79,28
1490743855985,-32,-41,-29,-86,-128,8,-127,-86,31,15,15,37,121,36,-7,-72
1490743856033,-100,-11,7,-107,-128,36,-25,-75,14,91,-60,-79,7,127,122,61
1490743856034,-14,-64,-57,-121,-126,-115,-16,5,-18,50,69,58,87,125,127,62
1490743856082,45,-30,47,40,88,67,3,50,-23,108,-55,-46,7,115,113,27
1490743856133,67,48,8,-5,-27,-79,-17,-24,-106,25,-72,-128,-128,-105,-107,-65
1490743856180,14,20,24,68,-43,-98,-69,-12,-8,-17,-22,-90,-128,-68,33,-29
1490743856228,56,-6,71,63,97,83,49,56,-41,-10,-11,101,120,-105,-114,-62
1490743856229,19,-9,17,-28,29,-19,100,19,58,-26,18,57,94,127,-27,8
1490743856277,25,3,36,110,102,109,50,29,41,3,11,-42,-47,-39,15,18
1490743856326,28,6,-17,-14,28,72,59,11,-36,0,25,13,36,3,61,3
1490743856375,16,-4,-28,-27,46,-41,-39,-14,-120,-8,6,-73,-119,45,50,48
1490743856423,-14,8,42,40,65,-78,81,39,16,-4,7,82,127,35,-29,-58
1490743856471,-4,-15,-33,-44,-124,94,35,3,-50,3,-27,-102,-95,-94,-67,29
1490743856473,4,-5,-24,-66,-21,-59,-52,-46,26,4,-16,83,47,-57,-12,5
1490743856524,-10,-10,8,95,127,123,115,-1,23,-8,65,64,-112,-74,-8,-6
1490743856570,-51,5,-58,-75,-68,-95,-32,-18,14,0,-25,39,-32,29,-20,1
1490743856618,2,1,-29,-46,-32,-16,25,15,5,-4,46,-30,3,-33,71,38
1490743856715,-1,-12,-16,-1,46,109,34,-21,-5,0,16,-94,-128,-117,-74,-29
1490743856716,-4,11,120,127,-5,40,25,11,5,5,-75,-53,102,127,76,27
1490743856717,-23,-5,-11,-47,50,-117,-109,-57,-20,-7,55,81,16,127,52,20
1490743856765,4,4,-10,29,81,-25,17,8,2,-2,17,-10,56,26,14,5
1490743856813,-8,-7,-43,-65,59,42,6,0,1,0,32,-22,-128,-36,-13,-10
1490743856864,10,8,34,-34,-110,-38,-25,-12,4,-3,-37,-65,-60,-31,-22,-5
1490743856910,-28,-3,16,76,38,26,4,-10,-5,4,4,-16,13,-25,-17,-11
1490743856912,46,-5,14,-5,25,-12,-8,15,-25,8,2,-29,-56,-48,-14,14
1490743856960,-8,6,11,67,82,26,6,6,65,-6,19,72,19,39,7,18
1490743857008,-17,2,39,-7,-48,-16,0,-11,92,11,28,-23,-24,2,12,9
1490743857105,-7,3,57,44,29,25,17,3,-46,-8,-48,8,-19,-10,-24,-24
1490743857106,75,-6,35,31,21,2,-5,20,-45,-1,-14,-16,-24,-3,-7,-10
1490743857154,13,-3,0,-5,-11,3,-7,-7,-42,3,9,-30,-13,-11,-3,-3
1490743857155,-18,-2,-49,-19,-4,2,3,2,-11,-2,4,5,-9,-9,-9,-8
1490743857204,-48,-16,-64,0,11,3,-2,0,-32,1,25,-16,-8,-12,-2,-4
1490743857254,51,12,0,-33,-13,-6,-14,-11,-25,-17,-12,15,-14,1,5,0
1490743857302,-22,-6,-54,-28,-6,-1,-7,-9,22,-12,12,-3,-6,-7,-2,15
1490743857398,-3,38,-6,-6,0,-2,-6,-9,-48,-55,-25,-12,0,7,4,-7
1490743857404,15,-80,1,2,-13,-3,0,1,-31,-46,23,-5,3,-3,-6,-7
1490743857406,14,-11,5,10,5,17,20,7,7,12,20,-2,-4,-2,1,-8
1490743857448,-18,-9,-13,-2,26,17,2,-10,-37,40,-8,11,-11,-22,7,2
1490743857497,30,-88,-19,-27,2,-45,-34,-6,24,-3,12,-19,-12,-33,-11,-10
1490743857545,2,22,5,-7,-2,45,49,37,4,40,12,-15,-78,10,-20,-7
1490743857593,61,-16,9,-5,-16,-67,5,40,-36,40,-13,-2,8,87,4,-37
1490743857594,-23,-15,-42,-60,18,-67,-3,-12,-68,-9,20,51,49,-19,4,-35
1490743857642,79,14,16,28,-79,17,-34,-6,48,-76,17,74,127,96,92,55
1490743857691,42,30,-10,-45,-61,-70,-5,38,-128,-4,6,-23,-122,34,-41,-49
1490743857740,10,-34,-4,71,78,61,-12,-32,-52,-32,15,14,53,-77,-50,-3
1490743857788,-72,38,18,58,58,-22,-22,-30,9,-4,-50,-74,-45,-49,2,-22
1490743857838,42,-11,2,-13,-52,-4,11,-17,-93,76,39,-7,4,31,29,33
1490743857839,-35,-51,13,45,-8,10,8,-33,-128,-58,9,22,127,22,-17,-16
1490743857886,32,-32,-22,-33,-89,-75,-61,1,-16,13,-27,-71,-128,-71,-37,-17
1490743857935,33,7,-9,4,-76,-82,-80,-21,28,19,-10,-34,23,63,92,66
1490743857984,-128,-128,-35,-42,-77,-87,-28,-11,74,-95,11,-2,-43,14,-1,13
1490743858035,-33,-43,-8,24,83,-2,-72,-55,-128,-12,1,2,-118,-26,-45,-27
1490743858081,-93,-23,11,-5,28,122,-18,-15,-23,20,15,42,71,9,71,-8
1490743858083,127,42,20,46,15,54,41,46,-61,-4,-11,-38,-11,-61,-79,-48
1490743858130,-16,-13,-7,-22,-54,-10,20,-7,45,-7,5,-7,52,41,49,13
1490743858178,28,27,0,-18,-45,28,25,21,-2,36,-7,-17,-9,49,3,19
1490743858227,45,11,3,-3,21,33,45,37,-48,-1,-2,34,2,-58,-115,-34
1490743858275,-10,-9,-12,-6,-23,7,9,7,2,-10,17,-23,-28,-28,-3,15
1490743858276,65,4,7,13,7,0,-32,6,50,-2,11,23,15,60,46,26
1490743858325,-2,12,3,-20,-11,3,48,17,-29,9,-11,5,40,35,-2,-2
1490743858374,-8,-30,-4,-6,0,16,21,25,-69,-1,-4,13,-3,-9,16,-5
1490743858423,-78,3,7,0,31,-8,-25,-26,26,-2,-5,3,7,2,12,18
1490743858471,-113,-23,16,32,16,17,32,7,123,-11,1,-30,9,6,8,17
1490743858519,-39,-27,5,-7,-12,1,29,-4,-13,0,8,17,5,26,28,25
1490743858520,-17,10,-12,-15,-16,-53,-60,-33,1,6,20,-3,6,-26,26,28
1490743858568,-27,7,12,13,2,29,-12,-8,-20,-18,-13,-7,-3,19,21,16
1490743858617,55,-10,-1,-15,-14,-24,-9,-2,28,-26,-5,-2,2,0,42,5
1490743858666,70,127,-10,10,13,5,7,5,-23,108,10,13,4,3,-37,-19
1490743858715,90,43,21,16,-11,21,-34,22,-4,36,-9,-10,-15,27,32,-9
1490743858717,44,-24,-14,-8,14,3,-7,-20,-53,-11,-5,-28,-58,-66,-44,-24
1490743858764,36,-28,-27,-69,-20,-37,-26,-22,64,13,18,5,-25,-8,71,60
1490743858813,78,-35,45,116,30,40,67,57,92,10,-14,-68,-28,-6,114,54
1490743858861,13,-27,15,54,98,38,38,37,-111,-23,-13,58,-42,-39,-14,-35
1490743858910,9,-6,-25,-63,-108,-47,-70,0,-45,-5,17,-24,51,-3,-94,-46
1490743858958,13,1,-8,-36,-87,19,110,38,-105,-39,-18,-2,59,-6,-75,-12
1490743858961,94,-44,31,117,99,-33,18,34,-85,7,32,3,52,17,25,0
1490743859007,7,56,23,-11,-64,-67,-92,-75,-76,-14,-2,68,99,89,127,109
1490743859056,74,-57,-19,21,3,-128,-1,15,0,57,41,30,-30,127,23,-13
1490743859105,60,90,113,100,17,106,63,123,-34,52,-9,-3,127,-76,-31,-24
1490743859153,-41,-80,-29,-43,5,-69,-88,-19,108,11,5,-51,-105,-40,-14,12
1490743859201,9,113,-19,45,-89,123,127,84,-72,-99,-102,-114,6,-15,-128,-128
1490743859202,-20,-33,-40,-60,-43,25,-10,-34,-57,68,6,27,27,127,104,-5
1490743859251,-90,27,34,14,47,50,65,11,1,-46,28,35,-20,-128,-128,-28
1490743859300,-15,-4,-51,-23,34,-55,59,97,31,-66,37,127,-54,4,-41,-19
1490743859349,-44,15,-4,-54,-70,-43,-62,-84,47,28,39,88,127,127,55,53
1490743859399,76,12,-4,86,55,-79,-77,42,-8,93,10,37,-9,127,49,-14
1490743859400,24,91,-6,15,65,127,104,70,7,-111,-3,-84,-61,-128,-75,-34
1490743859446,12,-52,36,3,-14,-35,-43,-62,21,34,-18,47,-62,-77,-64,15
1490743859494,5,-15,35,45,-107,-106,-87,-73,-30,6,-59,-114,-17,13,-23,-42
1490743859543,-28,-21,5,-67,102,123,33,-33,21,13,4,-17,36,-69,6,8
1490743859641,-6,-13,13,-4,14,127,115,127,-45,-2,-4,-15,4,-40,-42,-71
1490743859641,1,-3,40,103,66,-21,-64,-16,14,8,25,11,-91,86,-64,-15
1490743859643,2,-6,-12,-53,73,97,102,106,-33,-4,-28,-60,-17,-52,-86,-79
1490743859690,-10,7,-41,-128,-115,12,15,-4,10,-1,55,13,114,100,50,20
1490743859787,36,4,28,50,-96,-91,-49,-29,18,13,51,72,4,-17,26,44
1490743859788,-14,4,58,24,-82,-41,-49,-26,32,4,-9,-114,-46,22,-1,23
1490743859837,-1,13,78,121,5,20,-50,-6,-22,4,-25,-30,4,44,-2,-4
1490743859886,-6,-5,-24,-29,80,98,96,14,19,-8,-14,-26,83,118,-4,34
1490743859889,-59,-6,-45,-3,-36,-103,-128,-96,6,8,30,-65,2,-51,-11,11
1490743859933,61,-13,-17,-5,54,-49,-10,13,-10,16,0,21,24,-2,5,15
1490743859982,61,29,47,22,-38,-60,-26,20,-45,-17,1,39,72,84,39,-17
1490743860079,0,-38,-31,37,127,124,68,37,62,-52,109,74,-25,57,37,19
1490743860080,-89,-90,-22,-101,66,19,11,-11,14,-93,11,45,-68,-24,-6,0
1490743860081,11,94,0,20,-56,-128,-76,-32,-86,127,-38,37,103,86,90,20
1490743860128,27,62,14,-62,3,28,10,-3,-26,105,-14,83,37,-20,-28,-15
1490743860178,-7,-44,45,36,-3,-11,7,-5,56,13,-12,-117,-35,-22,-17,-7
1490743860228,16,66,51,51,14,-3,-8,-1,-84,-106,-12,56,82,28,23,-14
1490743860275,26,27,-23,-13,-62,-10,-1,-1,-24,10,-5,-54,-50,-28,-4,-11
1490743860323,7,37,36,14,-21,-6,13,9,44,97,-15,-53,-4,-14,-4,8
1490743860325,45,-6,-16,-40,-36,-24,-7,-17,-91,-57,28,-4,44,14,-3,-3
1490743860372,41,-28,-23,-21,-4,4,3,12,21,-34,32,11,10,20,-7,9
1490743860421,-68,16,11,57,17,4,8,-5,59,5,-68,-14,8,-2,11,7
1490743860470,31,12,51,-16,-13,-6,-8,4,-63,-12,-62,31,18,3,6,-15
1490743860518,16,-12,-26,-24,20,0,-11,1,21,0,44,21,3,-4,-2,-1
1490743860615,53,-4,-66,-3,-1,-3,-2,8,7,-4,1,-67,-24,-4,2,4
1490743860616,-9,-3,37,-5,-2,-3,1,3,-58,3,3,-14,-22,-13,-11,-16
1490743860617,9,-4,-15,-6,-8,0,-4,-2,-61,0,19,-3,1,1,-6,-12
1490743860666,-48,40,22,18,0,9,15,8,66,14,-38,0,4,11,-6,-7
1490743860713,-15,-3,-4,-1,-14,-9,-10,-8,-30,28,3,6,-9,-7,3,3
1490743860761,87,35,2,9,14,12,3,1,4,16,-15,-5,-8,-25,-24,-30
1490743860762,37,-79,-7,-41,-34,28,15,2,-31,-82,-21,-38,-83,-72,-27,-13
1490743860811,-7,18,19,41,38,27,38,18,-3,38,3,-34,-83,-13,-35,-20
1490743860860,35,20,-11,-18,-87,-37,0,-27,-1,50,22,99,127,11,-4,-18
1490743860908,-42,33,40,13,80,6,-12,22,-37,-65,-7,59,21,59,31,14
1490743860957,-10,-15,-21,-81,69,-27,3,-13,6,37,-13,12,42,3,12,26
1490743861006,-40,7,12,61,66,121,45,4,-10,43,0,-10,-19,-115,-68,-7
1490743861103,42,-126,-35,-61,-109,-30,3,15,-28,-128,-21,-81,-124,-63,19,-2
1490743861103,-67,-124,44,56,47,48,-13,-42,81,-112,-31,-44,-70,-64,-20,5
1490743861104,92,-3,13,48,122,92,23,119,-34,-35,1,29,-9,-107,-98,-63
1490743861152,28,29,-9,-14,-24,-31,14,-8,-22,47,-8,-11,62,69,-63,37
1490743861200,64,29,21,-25,30,49,5,-14,26,29,26,56,20,-111,2,42
1490743861201,51,18,-2,-39,17,-6,-74,-7,43,22,16,57,89,89,119,57
1490743861250,-30,-2,7,18,-71,-109,-113,-79,6,37,-38,-94,-50,30,95,69
1490743861299,103,-27,-22,-8,-7,73,57,63,-94,-27,27,25,-33,20,-73,-105
1490743861348,30,-48,-15,20,23,-73,-90,17,-59,-14,45,37,64,60,23,-36
1490743861396,-15,32,6,15,31,-48,-74,-72,-5,7,-1,-5,-89,-84,-32,-17
1490743861444,-59,-11,-8,-9,38,48,-5,8,118,-11,-6,44,35,4,-23,-13
1490743861445,26,7,-17,-30,-102,-99,-30,4,30,-12,-10,-37,-2,29,39,-3
1490743861493,-60,20,11,7,45,25,65,36,73,-41,-4,25,-2,9,51,-4
1490743861542,-15,1,0,-14,-7,-3,-14,-6,76,-26,-5,-28,-22,-25,-63,-13
1490743861591,-64,-35,4,-11,-52,32,24,0,71,2,-5,-3,7,4,-39,0
1490743861640,-44,6,6,-2,37,17,24,1,-24,11,4,-5,25,12,37,9
1490743861692,-1,-16,12,21,-7,0,-10,-15,-52,16,8,5,14,29,28,-11
1490743861693,28,8,2,21,16,-21,15,6,34,26,-3,5,-20,-11,64,24
1490743861737,40,17,-6,2,-23,-45,-35,-13,-9,-6,-3,7,-23,-4,-11,10
1490743861786,-38,0,9,14,-6,9,16,12,-6,9,2,-20,-7,2,-27,-4
1490743861835,-19,-1,1,2,-8,1,13,-2,3,-10,-8,-5,-8,-19,2,-1
1490743861883,1,-4,-7,-11,6,22,-9,-13,7,4,10,-2,5,0,6,-5
1490743861884,-50,2,-11,-14,-20,-17,4,-13,66,6,-18,-4,0,-32,-30,-2
1490743861932,20,7,12,-9,11,7,22,11,-24,-9,-1,-2,0,-24,6,-32
1490743861981,-29,-37,-10,15,-2,-16,-46,-45,60,11,11,-6,-15,-1,-25,-6
1490743862032,37,3,-5,8,-12,29,20,-30,-2,-2,-7,-13,30,-10,-6,2
1490743862078,64,2,-4,-36,14,26,18,40,-128,-15,16,42,16,34,87,47
1490743862126,-37,4,6,22,8,41,-25,-7,-66,-14,-6,8,98,29,-4,-38
1490743862127,7,9,-25,-85,-100,86,-18,11,27,7,1,69,68,-59,-102,-74
1490743862176,30,13,11,66,42,42,-74,-10,-15,-13,-40,-123,-103,-85,42,16
1490743862225,-82,-37,1,118,108,41,-61,8,80,3,-28,-23,-108,80,-21,11
1490743862273,-125,-27,16,13,-20,40,63,41,-48,30,42,-79,-48,116,127,20
1490743862322,17,9,-49,59,41,29,-98,58,67,3,20,28,-62,-12,-28,-86
1490743862372,-113,1,-24,41,-6,-14,42,-26,127,-19,7,-6,68,127,48,109
1490743862375,-128,-11,-46,-127,1,22,-16,-54,87,25,38,29,-12,114,-83,-82
1490743862420,34,-7,-3,71,124,127,114,-6,-123,-56,1,-68,-126,-128,-71,-73
1490743862468,22,-32,-65,-63,-107,-108,-4,0,-76,-16,17,-66,-57,127,-32,-9
1490743862517,63,16,-22,-75,-3,24,124,-30,-116,-26,-8,-49,33,-26,-86,-33
1490743862565,-97,2,3,-4,-50,-24,-66,-49,6,-22,-32,-15,88,39,25,-35
1490743862566,86,21,74,76,-67,33,114,118,13,-25,-66,-61,84,85,55,46
1490743862615,32,46,25,4,-70,-74,-101,-15,-47,-4,-10,-84,5,113,20,-51
1490743862664,-128,102,-18,-61,-27,127,75,-30,109,105,-3,106,37,-5,-53,15
1490743862713,40,-71,-63,-42,20,31,6,8,-4,-35,44,7,-19,-78,107,-40
1490743862761,112,14,44,75,95,89,121,23,31,3,9,47,41,24,-27,70
1490743862809,-16,-93,54,82,6,24,23,22,-20,44,-24,-12,41,-7,-45,-31
1490743862810,-30,22,14,-71,127,103,20,-56,-8,-88,25,52,-128,-128,-70,11
1490743862858,58,41,10,1,9,41,79,36,30,-48,-38,-67,39,-92,-80,-9
1490743862908,12,-96,1,-42,-123,-41,-41,30,-23,-65,-30,22,37,-53,79,54
1490743862956,25,29,14,78,22,-109,-113,27,18,2,-12,12,-88,11,-69,-50
1490743863005,30,-12,-12,2,62,-116,73,91,-39,60,35,33,54,127,-77,-67
1490743863053,-29,-84,-72,-64,-124,-128,-128,-97,-34,-11,32,-43,13,127,127,48
1490743863055,31,4,40,-20,-42,120,52,90,9,17,2,51,86,5,61,-9
1490743863102,-26,27,25,-4,14,71,-23,-27,14,-6,-51,15,102,57,36,5
1490743863151,3,0,24,36,2,-30,11,-19,18,-7,-22,-51,-128,-32,-11,4
1490743863200,18,-49,46,49,106,-60,60,0,-40,18,-6,-11,-60,-46,55,29
1490743863248,-13,7,26,60,127,98,99,-1,9,14,10,-7,-121,-49,43,97
1490743863249,11,82,54,104,-13,127,79,35,3,-43,-36,-116,40,-23,-65,-21
1490743863297,-21,-39,-70,-128,-79,-81,-54,-28,-13,3,-10,31,84,76,25,-29
1490743863346,10,-3,45,92,89,83,17,7,9,9,-32,60,90,-43,-76,10
1490743863443,-5,9,17,-52,-61,78,67,18,-37,25,-51,-26,72,-82,28,-5
1490743863445,12,-6,-9,69,101,35,-20,6,-7,-2,-4,2,-128,-30,38,13
1490743863492,0,-5,-17,8,113,12,46,33,4,-8,-35,-28,-81,-62,-108,-57
1490743863495,-8,-1,34,33,-30,9,39,-1,-3,1,-11,39,-26,-61,-14,13
1490743863541,-10,3,6,11,27,-19,-28,-52,22,1,-10,-39,63,-9,-41,14
1490743863589,-8,3,29,34,-102,-68,-52,-11,-3,-2,-48,-65,83,31,-33,-46
1490743863686,-30,9,-10,-46,6,0,21,5,24,-2,41,34,77,62,43,11
1490743863687,42,-8,-14,-9,61,43,-34,3,-51,2,25,90,103,-10,4,-11
1490743863735,30,-2,15,77,127,69,70,36,-27,-5,2,62,117,24,-49,-6
1490743863736,30,-5,91,127,127,106,74,31,-4,7,21,75,76,40,-68,-49
1490743863785,-29,2,7,-16,-120,-15,-8,-34,43,1,8,-79,-112,10,3,12
1490743863834,-38,-2,-11,-48,-109,-50,-22,10,59,0,-54,-49,109,118,127,36
1490743863883,-46,0,-51,5,99,112,33,-12,78,24,33,91,-128,59,59,38
1490743863931,63,-9,-43,43,110,107,85,51,1,-7,61,28,1,-46,-61,-3
1490743863933,-8,-3,60,114,26,108,40,11,-14,-3,-32,13,-53,-42,-40,-12
1490743863980,5,-2,22,84,-19,-30,-40,-19,-12,2,14,-49,-35,7,11,3
1490743864028,-13,-1,-82,-94,-128,-64,-65,-29,-9,-1,46,34,30,29,7,0
1490743864077,23,2,14,86,11,29,-10,-21,-27,-1,22,-69,-58,22,-4,8
1490743864126,2,5,27,-81,-2,-4,10,14,7,-7,10,104,127,127,51,15
1490743864174,7,4,-36,-33,32,47,26,15,24,-10,67,127,127,118,47,26
1490743864175,50,-8,-20,-20,32,57,35,19,31,0,6,-44,-92,-79,-33,-16
1490743864224,-20,-1,-31,-59,-95,-79,-35,-14,-14,11,-23,-74,-51,-34,-34,-16
1490743864274,10,-14,15,9,-11,-16,-9,3,28,-4,6,26,32,-3,-4,5
1490743864321,4,4,-44,-4,25,38,7,3,3,1,44,33,88,5,3,5
1490743864370,-35,-6,-1,-35,10,13,5,0,87,10,16,19,0,-10,-12,1
1490743864375,-23,-4,32,-41,-10,0,5,-12,-21,-8,-22,35,41,18,10,6
1490743864418,-7,-3,-27,-2,15,9,9,13,-2,-3,46,9,8,10,-1,-4
1490743864467,108,2,37,-82,-31,-8,4,21,-31,-3,-27,64,21,8,9,0
1490743864516,-8,-11,-50,-4,57,24,16,2,-31,1,47,77,-28,-8,-11,-14
1490743864564,7,17,35,30,-10,-3,-16,-6,-37,9,-7,-3,17,10,12,0
1490743864612,86,-8,15,13,1,-9,5,7,-34,-8,-32,-8,11,-4,-9,-4
1490743864614,51,1,53,2,-6,-5,-3,0,-22,1,-82,-21,0,-5,2,-8
1490743864662,21,-2,-22,-20,-6,-1,-5,15,43,-4,-31,7,4,8,21,11
1490743864711,-59,0,25,13,-4,-5,17,-3,-15,-1,-3,-5,-2,-4,-8,2
1490743864760,62,1,2,-7,5,4,15,11,14,6,-2,-3,-5,-4,-2,-3
1490743864810,-11,1,17,-3,-5,-4,-6,-6,-41,1,-5,-1,-3,5,5,1
1490743864856,45,20,-8,4,-2,1,10,31,53,16,-13,-28,1,-25,-29,-26
1490743864857,-16,40,7,-3,-23,4,-3,-10,20,-68,26,12,-5,4,2,30
1490743864906,-35,-54,-1,4,-8,-1,-26,30,-11,-92,12,-2,-9,-4,-8,-90
1490743864954,-15,22,-16,0,-11,52,27,10,-9,106,-4,-1,29,-26,-36,-82
1490743865004,47,-35,-28,-26,-13,-2,7,9,6,-81,-17,-34,-37,-70,-23,-36
1490743865051,-27,47,14,15,-34,-101,-52,17,3,127,10,0,-25,84,53,30
1490743865053,-2,12,-22,-42,-82,-62,8,-2,-76,-42,-5,-28,-32,-52,-59,-1
1490743865101,45,20,28,16,37,73,-22,-31,-60,-17,-4,15,16,41,96,63
1490743865149,-18,-19,35,52,34,62,19,6,30,-5,-9,18,-4,10,-48,5
1490743865198,-43,-61,16,57,13,-101,-69,-85,-108,16,-16,-51,-96,10,-33,-47
1490743865247,13,48,0,-60,-86,94,5,-4,-40,4,-24,-41,-51,-62,34,-36
1490743865296,-69,12,-29,-21,38,49,99,80,88,-8,18,13,66,68,-70,-53
1490743865298,55,15,-4,0,47,10,8,38,-72,-53,20,55,42,9,17,19
1490743865346,5,-56,-21,-26,-6,94,4,-14,42,8,-8,-29,-45,-71,-31,3
1490743865394,0,19,6,17,-19,3,61,11,-48,14,11,6,68,58,-69,-64
1490743865442,113,-18,0,8,-51,-17,-77,-12,-71,11,-8,-14,-8,-27,32,30
1490743865491,1,-17,-6,9,87,-10,39,17,49,13,15,0,-8,45,-8,-11
1490743865539,-115,43,-6,-23,-30,62,30,-22,-64,17,1,-14,-32,-77,1,10
1490743865540,73,-37,32,40,41,12,16,27,11,-49,1,5,-1,-30,-23,-16
1490743865588,-123,53,0,-5,-3,-24,-18,-21,-19,-1,-25,3,-31,-11,11,-33
1490743865637,-15,-2,-12,1,9,10,-7,2,33,-7,8,-8,-3,-17,-9,1
1490743865686,-86,9,-5,18,13,18,-36,-30,56,5,-11,-36,-17,-11,-13,-15
1490743865734,15,10,-3,13,4,-5,22,2,-40,-9,-1,3,-11,-40,-26,-31
1490743865743,-99,-6,-12,-12,-7,-6,-3,-33,113,7,15,5,12,28,15,25
1490743865783,-119,-22,-13,-5,7,-31,-31,-31,8,-10,-8,4,6,7,-20,-3
1490743865832,-99,-51,22,33,6,13,39,6,-5,-30,4,-10,-9,-26,-9,-1
1490743865881,33,10,-4,0,9,6,-2,12,-25,20,3,6,7,3,24,11
1490743865929,4,-12,-1,-10,-8,-16,-19,-17,-31,-10,-12,6,-3,3,25,-3
1490743865977,-20,13,11,18,-2,-23,-21,-19,-82,-2,-2,-12,2,16,-41,-8
1490743865979,112,0,3,7,17,14,45,31,21,1,2,3,1,-5,9,6
1490743866027,-21,11,0,-5,1,6,-20,-25,-19,-12,-8,-4,-5,3,9,5
1490743866077,-76,34,5,17,7,-3,4,-15,66,32,-5,-12,6,8,21,16
1490743866126,8,6,4,-7,14,19,47,36,-35,-3,8,-2,-7,-4,-25,-28
1490743866174,52,-12,-9,-20,-1,4,-31,2,10,-2,6,4,-4,7,18,19
1490743866221,53,12,-1,-4,-1,0,11,5,13,-6,-9,3,0,-19,-17,-18
1490743866222,32,-18,-19,-16,4,8,5,1,-39,2,5,16,-2,-7,9,-12
1490743866271,95,22,3,31,37,20,72,49,2,-13,-21,-20,-10,53,17,37
1490743866319,118,14,14,-14,-19,-45,-64,-15,-127,-29,5,0,-52,-108,-51,-106
1490743866368,40,21,14,91,64,127,87,87,-57,-43,17,75,-21,-80,-44,-19
1490743866416,-36,-17,-73,-113,-85,-103,68,-66,99,61,-49,-114,-45,-128,-122,-28
1490743866418,-19,-15,16,-40,-77,71,-29,20,1,-37,-27,-108,86,65,93,-8
1490743866466,23,9,-46,-111,-13,-39,6,-18,-46,60,71,114,95,127,68,32
1490743866515,-88,-1,-49,9,-74,-106,-61,-47,-39,-18,-60,-128,-128,-45,-110,-73
1490743866563,67,11,58,98,127,127,-21,-4,1,10,31,105,-43,-67,122,112
1490743866612,62,3,-17,-73,59,71,89,74,118,-18,34,71,100,-128,-128,-38
1490743866660,-23,32,-58,-128,-83,17,33,-14,-90,68,-40,-106,59,36,-46,-27
1490743866661,-128,-84,-25,-41,-97,-60,-110,-19,126,-75,1,-97,-84,98,8,-14
1490743866709,60,-34,2,41,28,69,83,26,-88,-13,-19,-56,-97,-102,-92,-21
1490743866758,88,10,18,48,45,112,97,63,-60,19,36,14,27,106,122,41
1490743866808,-69,32,-2,30,17,127,104,35,-7,9,45,46,127,-17,-11,-13
1490743866855,-118,-39,-52,-112,-128,-128,-128,-128,109,44,12,45,86,127,110,98
1490743866857,11,-4,64,75,82,70,-34,-20,38,-25,-63,-7,24,-97,-65,38
1490743866905,-30,3,32,74,-106,-50,-1,83,38,90,-48,-87,-32,127,29,-20
1490743866954,-39,-104,-9,-22,-45,-18,54,-3,-128,4,-8,12,3,-103,-128,-76
1490743867002,4,-82,67,-28,-44,51,39,39,-23,-54,-51,-42,-83,-39,-81,-27
1490743867051,83,22,46,116,127,81,40,21,18,22,-3,-75,-57,-61,92,38
1490743867099,48,7,-18,-121,-63,-17,-95,-48,4,-5,45,127,118,80,117,45
1490743867100,-9,12,-20,-35,9,3,80,46,-15,-3,-37,-3,8,47,-67,-26
1490743867148,19,1,4,-75,-53,66,88,55,-38,9,-34,-54,-85,-94,-44,-23
1490743867197,-3,0,8,114,85,-128,-46,18,8,4,6,95,127,86,-24,0
1490743867246,21,4,24,58,-15,24,-29,10,-30,0,-51,-64,-30,-128,-97,-60
1490743867294,-7,-6,-4,-46,-57,37,60,21,-4,2,-15,6,77,48,2,9
1490743867342,-21,-5,42,43,10,-49,-93,-109,9,-2,-26,-70,-14,76,46,-38
1490743867344,-6,-2,16,127,-47,-16,20,13,23,-3,-54,-125,-94,-61,-7,33
1490743867392,-9,2,25,10,118,94,-28,-11,27,-4,18,18,-48,34,30,5
1490743867441,-8,3,-14,12,-52,-14,-44,2,1,-21,-13,127,127,92,54,12
1490743867490,2,1,-42,79,1,-24,-28,-8,10,16,110,-88,26,15,7,11
1490743867541,10,-7,-26,-30,47,46,18,20,-10,-4,57,50,23,87,23,-7
1490743867543,-12,-2,-8,-79,72,45,7,-13,3,-19,21,127,102,26,28,17
1490743867587,-5,13,-30,-69,-106,-14,4,-13,3,-1,-28,-88,-96,-35,-20,-6
1490743867636,11,-17,0,30,85,63,37,21,0,1,21,108,72,68,16,4
1490743867684,4,13,13,-65,48,65,31,24,-4,7,-15,-102,-128,-84,-52,-5
1490743867733,3,2,29,50,-90,25,-16,-12,-4,-16,-26,-79,-100,-107,-37,-10
1490743867781,11,-2,-17,61,84,43,15,17,14,7,47,3,26,35,25,18
1490743867785,48,6,53,56,71,25,23,17,-1,-8,-19,21,-22,21,7,-2
1490743867831,27,12,0,-41,-10,-5,11,0,-13,1,-9,17,-38,-52,-24,-13
1490743867880,-15,-2,-61,-41,-12,16,0,1,-3,-1,27,41,20,30,7,4
1490743867928,-31,3,-25,-30,3,9,11,2,18,-1,34,1,-29,-7,3,-7
1490743867977,10,-37,-15,10,4,-8,-10,-3,-9,-27,-17,-35,-10,-1,-2,-7
1490743868025,16,-6,-1,35,-10,-6,0,2,-34,-3,-50,-9,4,-4,-1,-3
1490743868026,-22,-6,18,4,4,-1,-1,-1,77,-9,16,7,18,1,9,12
1490743868074,-12,0,-5,2,3,-7,3,4,14,-6,-4,-24,-6,-1,1,-1
1490743868123,3,-3,58,32,5,-12,-7,-11,-16,-2,-56,-40,1,-6,-17,-14
1490743868173,20,-3,-6,-4,-10,2,1,4,-14,-10,17,21,-2,-3,-4,-9
1490743868221,25,-5,-40,-3,14,8,-1,4,-1,3,35,4,0,8,3,6
1490743868223,-12,5,2,-34,-28,-11,1,2,52,1,-2,4,8,10,13,15
1490743868269,29,0,-11,-13,-9,-19,-12,-4,1,2,-1,-8,-8,-10,6,-3
1490743868318,30,2,-9,12,2,-1,5,4,-35,-1,21,4,0,1,7,0
1490743868367,13,-5,6,-1,6,1,-7,-10,18,-5,-20,-6,-5,0,-2,-4
1490743868416,0,-9,-6,-9,-21,-10,-9,4,-34,-8,5,16,7,3,10,-13
1490743868464,13,1,10,3,-22,3,1,0,26,1,-5,-2,-7,6,2,24
1490743868465,21,5,-5,10,51,5,4,-1,37,7,2,-7,-6,-3,6,5
1490743868513,-10,15,-40,-34,1,-8,-19,7,12,7,3,-2,-6,-39,-35,-17
1490743868562,-14,-99,21,24,8,8,-37,-29,18,79,-8,7,34,33,23,-3
1490743868611,4,62,-28,-24,-60,-69,2,-5,1,98,-4,27,88,50,5,2
1490743868660,4,45,-11,-6,1,-49,-44,-7,-1,13,7,-20,-39,17,-4,-19
1490743868708,-4,7,-19,-72,-107,-73,-57,-16,-3,19,-26,-85,-75,-51,-38,-3
1490743868709,-1,31,-6,-58,-128,-35,-46,-23,2,19,3,14,-5,-55,-18,-14
1490743868757,19,-45,-7,21,-38,51,11,32,4,-39,8,24,83,35,25,-6
1490743868806,-81,-36,-34,-6,-35,59,0,-27,83,15,18,21,7,17,49,42
1490743868854,54,-19,1,-4,5,33,59,19,-33,1,-12,-34,-78,-65,-31,0
1490743868903,-66,-50,13,32,118,82,48,2,20,-28,-6,-8,-79,-67,-14,4
1490743868905,-114,15,13,14,36,-5,-16,-37,46,-32,-4,-8,-52,0,12,29
1490743868954,-25,-112,-7,-1,-16,-13,2,11,11,-120,-12,-33,38,7,-5,2
1490743869001,-4,-36,20,20,23,25,7,17,1,11,33,56,122,45,38,21
1490743869049,-43,-16,-8,-22,-74,-53,-17,14,24,13,-2,-2,-19,-23,-30,-21
1490743869098,35,8,9,12,17,-3,-13,8,-10,-24,-19,-5,-19,-34,-65,-13
1490743869146,-55,36,12,-4,-24,-22,-5,-12,44,62,-8,15,17,70,81,46
1490743869147,37,23,3,-11,13,0,-4,-1,-51,-8,2,5,-3,-17,-112,-52
1490743869196,7,-7,9,21,-1,-4,5,-15,26,-7,-23,-11,-30,-19,-9,-3
1490743869245,1,1,13,29,-5,-39,-4,-14,-16,-7,-3,-14,-6,7,12,1
1490743869293,23,11,-10,10,40,19,13,12,-9,18,14,27,26,25,3,2
1490743869390,-20,-9,2,0,0,18,2,-1,19,0,-5,-1,10,4,4,5
1490743869391,35,-24,-4,-13,3,-42,-17,7,-41,-81,-10,-23,-13,-10,-5,-11
1490743869392,4,13,-6,-20,-4,3,-5,-3,-2,31,9,35,0,-6,-1,-4
1490743869440,-12,9,5,-5,-6,9,5,0,9,-43,0,-1,-4,-6,-4,-6
1490743869488,3,-27,-20,-6,1,-42,-16,0,16,-11,-12,38,5,-1,-4,3
