1490138081634,-73,-3,-50,-2,89,-4,29,-48,59,-22,-42,30,-10,10,15,-3
1490138081683,-30,22,1,35,-73,-10,-1,-44,42,87,-30,-123,-72,-9,-14,40
1490138081684,1,-26,-12,-111,-128,-8,16,-11,-24,-24,-7,-66,-70,-67,-22,15
1490138081732,50,74,83,17,30,-4,-14,29,-72,19,23,25,26,40,34,-46
1490138081781,32,33,-31,113,82,22,0,21,-43,-84,-57,-78,-70,-99,-23,-69
1490138081878,-29,79,49,127,127,54,18,-41,32,-104,-66,-65,-77,-14,38,73
1490138081879,-46,-119,-128,-113,-70,-37,-17,-43,-64,12,-78,79,-5,-81,-38,-49
1490138081926,-4,44,127,-85,-60,-46,-25,57,-101,-117,11,13,-56,21,-5,-24
1490138081928,84,48,71,47,9,36,32,56,-53,30,-29,86,127,-4,3,11
1490138081976,33,23,-103,75,83,5,30,27,-70,-10,-60,-9,-64,19,-6,26
1490138082024,14,-89,-66,-97,-128,-32,7,-14,0,21,-33,-33,-71,-72,-26,-13
1490138082073,-12,-92,-90,-18,-16,-44,-23,-1,-44,-18,-93,-84,-128,-11,-50,-42
1490138082121,2,-31,-26,-5,-9,-75,-33,-49,-12,-15,100,-76,-54,61,17,-22
1490138082123,-92,-41,-52,-68,-28,15,14,-27,95,-21,-104,61,127,-13,-6,44
1490138082171,31,68,79,-73,-128,-41,3,4,-14,-67,-54,127,110,-38,-32,-21
1490138082219,1,37,68,29,-81,-14,-3,-9,8,-21,5,-128,-63,-3,6,20
1490138082268,-94,-64,-67,-51,-56,-103,-41,-46,11,-4,81,114,118,15,11,-7
1490138082317,40,50,15,53,-30,31,0,11,-9,-20,-55,-44,47,-5,2,-9
1490138082365,20,11,10,-17,-67,-17,-5,14,-58,27,127,125,13,-22,24,14
1490138082367,9,16,26,-54,24,82,5,11,14,-2,-2,51,-74,-95,-37,1
1490138082414,23,31,111,117,116,41,32,25,-15,-50,-80,-50,-79,-53,-1,-21
1490138082463,6,9,-1,-62,-61,67,-2,-6,-2,4,-19,15,59,51,-32,-24
1490138082560,-12,-26,-36,38,48,-105,-12,-37,-2,-31,-29,28,-82,-18,-34,-22
1490138082561,9,48,12,30,15,-37,12,32,-22,-54,-6,-19,5,-20,5,-51
1490138082563,-9,-3,10,33,14,1,-9,56,-5,11,17,61,4,-33,6,-21
1490138082609,6,3,44,46,89,69,-61,-4,-15,-31,-54,-19,-89,-76,34,-53
1490138082658,-7,-44,-25,-128,13,-43,-3,-1,2,2,-5,-97,-26,-106,-14,23
1490138082755,-46,-21,-3,-53,-36,-63,34,49,-45,5,45,-72,124,-114,-36,18
1490138082757,-15,7,21,-6,30,127,-24,17,-27,14,-1,-34,83,115,-3,0
1490138082804,58,13,-14,-110,-91,29,51,5,59,-8,-31,19,-19,25,-8,12
1490138082806,19,3,-28,-48,-20,7,-52,19,13,-6,-34,-12,-54,1,4,-30
1490138082853,6,-6,15,36,79,1,-46,-125,6,14,48,62,56,1,-22,-56
1490138082902,-7,-34,-54,7,-100,5,4,107,-17,-13,-39,-109,-91,-97,-21,59
1490138082951,5,38,119,127,14,14,22,-18,-4,6,37,-69,38,31,-29,-18
1490138082999,3,-13,-26,-43,52,5,22,51,-3,15,31,112,-21,-82,28,-1
1490138083048,-2,8,-26,-36,-52,24,18,-37,-7,-2,35,127,73,35,6,31
1490138083049,9,-23,-84,-60,-128,-93,-37,-2,-24,3,7,108,119,48,64,0
1490138083097,-55,103,127,120,75,-28,15,-9,-23,-83,-49,0,0,-94,-33,-47
1490138083146,21,-36,4,25,81,-10,-13,13,-14,18,-25,-64,77,91,3,-31
1490138083194,87,-7,-60,3,-72,69,64,16,-71,-16,16,-77,-36,-87,-13,-22
1490138083243,-34,-19,-30,74,-128,-54,-16,23,32,55,95,-7,74,2,-20,0
1490138083244,-13,27,51,23,-10,26,-11,-27,52,-53,39,108,-57,-8,-17,15
1490138083292,14,-13,-77,-78,71,-14,-10,53,32,17,58,119,84,18,20,-2
1490138083341,-25,39,32,61,83,-24,-53,-75,35,-48,4,-128,-110,-33,1,87
1490138083389,68,-44,-30,-73,-49,6,-3,14,41,76,29,32,56,26,33,11
1490138083438,-31,-108,-87,-128,-128,-97,-36,-74,48,50,70,127,95,34,24,74
1490138083486,-5,-54,-72,-74,-33,-26,-26,-34,62,-3,126,-36,-29,-19,-66,41
1490138083488,-24,52,66,80,84,3,-4,45,56,61,95,-36,80,9,6,-20
1490138083584,-33,115,95,2,-64,-19,-12,-54,56,38,50,71,49,-23,-21,58
1490138083586,47,127,-64,-104,-82,22,66,31,-10,-39,-84,-56,59,16,39,47
1490138083633,34,0,75,6,58,7,-9,101,-75,-82,-103,-72,-87,-27,12,-60
1490138083682,-26,-37,-127,-17,29,-19,-50,17,26,-23,125,-26,-65,1,31,33
1490138083730,-38,27,90,127,127,30,45,26,43,-86,-77,-128,-128,-81,-58,1
1490138083732,25,-24,93,109,10,14,-50,-7,-44,9,-71,-24,63,54,78,30
1490138083827,28,-3,22,7,-91,-21,4,-92,-7,63,116,98,85,14,-30,40
1490138083829,71,81,53,-57,-79,24,37,89,-19,42,-68,70,84,1,36,-64
1490138083877,-48,0,-13,87,127,16,-14,11,41,-1,44,116,17,23,-32,-15
1490138083925,-6,-16,-125,-84,-61,-40,-34,33,-46,2,80,75,-18,3,17,16
1490138083927,-2,7,47,-104,7,21,20,6,-95,127,-39,-9,0,-19,-8,-88
1490138083974,10,-42,27,23,1,-18,-34,39,21,113,36,40,46,0,-13,-11
1490138084023,9,-72,41,94,93,13,-14,36,-32,-32,15,-116,-36,-7,21,26
1490138084072,-34,67,50,0,30,-25,-8,25,-18,-73,-107,-29,-93,-23,-10,-125
1490138084122,17,-41,47,52,-58,13,10,-65,-8,101,56,-44,-42,-38,-41,1
1490138084169,16,79,-1,127,84,20,9,27,28,-9,77,-76,-90,-8,27,-22
1490138084172,16,19,-76,-79,20,-35,14,61,-52,-120,-19,57,98,22,11,-48
1490138084218,41,55,-1,-51,33,63,36,-33,17,103,127,51,12,51,-1,-11
1490138084267,26,23,47,29,75,12,-2,83,-43,-55,127,90,15,6,-8,15
1490138084316,9,-20,-20,-103,-99,-43,-20,43,-13,-59,82,72,90,57,1,-17
1490138084364,-26,95,-98,-21,17,15,32,-24,36,91,-12,-115,-128,-41,-15,44
1490138084413,25,-66,11,127,44,31,46,-23,-17,-22,38,-128,-119,17,-13,-21
1490138084414,2,127,127,93,40,40,-34,13,35,-6,7,44,99,38,51,43
1490138084462,-21,45,-6,82,88,12,-16,30,6,-71,-19,-16,-108,-74,-47,18
1490138084511,-12,-11,59,-20,-128,56,-2,-31,-3,-5,24,-128,-127,-31,-1,-3
1490138084559,-4,41,77,11,-123,-13,4,35,-7,-45,14,41,119,-20,-14,-16
1490138084608,1,-25,-72,8,-18,27,11,-5,-4,68,101,112,63,-5,-26,25
1490138084656,-24,-66,-56,22,-2,17,2,13,19,20,-37,-128,-78,-29,-23,-20
1490138084658,2,14,72,-37,-50,-38,-9,-17,2,52,25,58,61,-12,-15,-1
1490138084706,-19,36,65,55,58,-72,10,55,-19,-46,-61,-59,-115,-109,-32,-45
1490138084755,-19,1,31,80,71,17,-44,-30,-5,-32,-53,7,-99,-88,-29,21
1490138084803,-23,-6,8,-50,-48,-44,-1,-27,-7,-5,12,67,-19,-77,-5,-9
1490138084852,21,7,-27,8,-19,-77,25,8,-18,-7,1,3,28,88,-43,-17
1490138084854,-15,19,65,67,106,68,14,-25,23,22,5,-17,-60,-45,39,19
1490138084902,7,18,-2,16,-37,-31,-13,44,-17,-6,-12,-13,44,101,-31,-98
1490138084950,7,-36,-72,-69,-20,52,30,45,-21,-3,-2,-29,-57,-26,-4,-43
1490138084999,16,6,27,98,5,-35,56,69,23,-15,-18,65,96,37,0,-23
1490138085048,11,17,46,-58,100,64,-105,-23,-25,-12,4,29,-31,-67,4,30
1490138085096,13,-26,-90,-128,-123,-120,12,39,-10,7,25,-25,-62,-54,3,55
1490138085098,-19,26,8,7,3,-17,43,16,1,-47,13,38,48,-6,-22,25
1490138085146,-2,-8,-28,-10,17,57,45,-47,8,0,29,-25,-68,127,72,22
1490138085194,-2,-1,-79,-58,-9,-21,-17,42,7,7,-41,-26,7,-29,-47,-69
1490138085242,-26,3,13,36,-17,-61,-23,-46,10,-16,8,85,69,57,35,51
1490138085291,11,1,-52,-128,-128,-93,4,43,-11,13,41,43,99,80,55,0
1490138085293,6,1,17,11,100,47,3,3,-2,13,-18,-79,13,-39,11,7
1490138085340,-8,-4,22,-97,-99,10,26,4,-18,0,-39,-111,-68,-65,8,-23
1490138085388,-7,-45,-77,-112,-128,-128,-12,-22,-34,-18,-14,127,70,-16,-6,-26
1490138085437,19,30,36,110,3,65,36,40,-2,-19,-22,-73,-106,-77,-33,-9
1490138085486,1,29,117,95,127,50,-23,-37,62,60,-54,-41,-31,35,31,48
1490138085534,-3,12,1,51,-6,-21,-18,7,-6,34,-10,23,121,39,-3,-24
1490138085536,-34,-84,-100,-91,-69,-20,-4,7,-32,-64,39,45,45,-47,-115,-79
1490138085583,0,20,54,127,57,11,-5,-20,19,-19,-117,-68,-128,-71,8,11
1490138085632,30,17,110,-26,-46,1,7,-53,-27,-5,-87,-93,41,-12,3,-81
1490138085681,-9,-25,-35,108,124,17,3,-20,62,46,15,-128,-67,82,44,97
1490138085729,-42,-70,-128,-64,-82,-102,-33,-38,-54,-26,70,9,101,-28,-14,-21
1490138085731,28,32,84,21,93,-4,14,14,-74,-66,-62,-34,59,15,0,-59
1490138085779,50,-46,-85,-24,-47,-51,-40,-51,36,95,11,68,61,-58,-14,52
1490138085827,-29,24,-86,109,92,50,-2,21,46,-23,-74,-113,-128,-53,-43,-11
1490138085876,-7,-61,2,0,-91,-69,-14,6,-28,45,-28,97,102,32,-36,-46
1490138085925,45,92,124,68,52,51,58,39,61,-29,-50,-19,-70,30,61,74
1490138085973,-16,26,59,-50,-70,-26,-34,-16,0,10,-8,87,20,26,53,22
1490138085975,34,53,-77,-56,-69,32,23,-4,3,-11,43,21,14,-18,-35,2
1490138086022,32,-3,19,-25,-24,-18,-18,-31,30,-24,66,-17,-75,-7,-65,39
1490138086071,-88,117,-82,40,-65,-36,-48,19,120,61,-17,-59,11,-12,-47,22
1490138086120,16,-109,-26,-39,5,14,13,45,-29,49,-13,-120,-54,0,16,-85
1490138086168,25,-5,-9,45,-46,-50,-15,34,26,-94,-38,-74,-94,25,33,-45
1490138086216,-29,3,58,-43,105,19,-37,21,-7,-42,-83,-11,-68,-12,46,37
1490138086218,54,-52,36,24,-3,12,5,-38,87,80,88,48,11,4,-21,100
1490138086266,-13,51,67,-85,-2,14,-65,-13,-50,-81,-79,-29,-3,23,70,-2
1490138086315,-11,-1,-46,-64,-88,-24,-4,-9,10,2,52,62,-11,19,30,-7
1490138086364,34,26,87,24,40,37,47,39,40,-77,-104,-27,-48,-22,-24,23
1490138086461,-19,38,-13,23,79,12,18,13,30,-19,-5,5,0,16,-12,20
1490138086464,60,40,90,78,3,-17,7,-24,-81,97,56,-46,44,-2,-3,-10
1490138086467,-40,-99,102,68,24,7,20,8,-10,-17,-108,-90,-92,-36,15,-6
1490138086510,-7,-43,64,-15,-80,-40,-82,-62,-43,-77,72,115,102,11,52,-45
1490138086558,50,-88,-13,56,69,42,-15,34,-1,-52,-28,-83,-89,2,16,-34
1490138086607,-79,-34,-128,-128,-79,-57,11,32,5,-114,-88,-67,-86,-68,-51,-61
1490138086655,-1,2,3,69,73,69,9,47,42,-29,41,105,85,46,35,-40
1490138086656,-17,11,119,-121,-128,-4,3,-98,25,-64,-98,127,127,2,-13,16
1490138086704,40,48,127,-37,93,50,2,0,14,53,-84,-87,-90,13,2,26
1490138086754,-25,-42,-30,-58,-102,-23,-4,13,-7,-17,-17,-46,-18,-12,-30,-14
1490138086802,-16,12,-6,66,28,38,9,20,31,6,81,127,127,127,61,30
1490138086852,-9,-53,-76,-128,-128,-53,14,37,18,15,127,100,127,19,8,-18
1490138086899,0,12,-25,82,37,48,12,-35,-23,-46,-51,-128,-128,-103,-24,-4
1490138086902,-8,38,-78,-56,85,61,56,9,17,-2,9,48,-9,-92,-9,4
1490138086952,-6,-10,-3,-86,20,29,10,9,2,32,127,57,-101,-21,-15,5
1490138086997,-1,0,75,54,60,51,22,0,-9,-14,-3,-92,-18,-58,-18,-16
1490138087046,-13,-12,64,127,87,-80,-76,-12,2,3,48,-17,127,60,33,-7
1490138087094,3,0,-24,-56,-13,-48,-24,-10,-22,-35,7,10,20,22,-58,-12
1490138087096,-10,-15,-14,-39,-30,-66,-3,-1,5,10,14,20,-15,-5,48,9
1490138087143,14,20,21,32,42,46,2,14,-17,-25,-87,-95,-66,-12,-49,-38
1490138087192,-5,-19,-53,-58,-15,-128,-48,-16,0,8,9,32,63,11,21,3
1490138087241,2,6,-2,17,20,-67,11,36,-3,-20,-20,-6,-8,88,6,-15
1490138087289,-4,5,24,24,-11,-62,-1,-1,4,5,4,11,58,14,-33,-5
1490138087337,6,-1,-10,-3,39,16,7,-9,-2,3,25,5,11,19,-1,-8
1490138087339,-2,-6,-15,-17,-56,-15,-2,-1,1,6,7,-16,-43,51,-23,18
1490138087387,4,1,0,44,77,46,21,-63,-4,-2,-3,-33,-14,-104,20,-53
1490138087436,3,16,16,11,54,54,57,91,-11,-16,-10,-26,-45,-38,26,-10
1490138087485,-1,-4,2,15,-2,-23,-5,-84,0,1,8,26,55,84,-9,-56
1490138087534,-5,-7,-26,-49,-22,-104,-19,-18,3,9,1,9,0,-17,-8,14
1490138087583,1,-3,-10,-21,61,33,-32,2,0,-13,1,19,-54,61,28,11
1490138087585,-1,-10,-12,7,-15,6,14,18,2,-5,-3,-5,5,-11,-19,10
1490138087631,-6,-2,20,-54,-64,-72,2,-13,4,-1,13,21,34,-32,-3,22
1490138087679,2,-14,-5,-23,-23,5,22,-1,-4,-25,-74,-50,8,-25,-5,33
1490138087728,-11,-10,-87,-81,-107,-75,-30,12,-9,-19,66,126,99,-15,-2,32
1490138087776,19,37,102,105,127,100,21,13,-4,22,-50,-53,-85,35,-14,-15
1490138087777,-15,-28,-66,34,29,-13,-16,-24,-4,44,52,29,-57,-46,-11,-1
1490138087826,-13,-14,-76,-128,16,-19,3,-8,42,16,30,67,127,39,18,-3
1490138087875,15,48,86,75,54,27,12,5,-8,-26,-33,-101,-113,-88,-26,-3
1490138087924,15,-23,-1,-113,-118,-38,-6,123,-5,18,-50,87,95,21,13,84
1490138088021,-38,-11,-7,72,-95,23,18,-38,14,37,55,27,48,-32,-64,-66
1490138088024,-7,37,96,93,99,54,-36,0,-22,-36,5,-46,-70,-28,-49,-37
1490138088026,22,50,39,-38,-45,59,68,16,4,1,28,-69,47,54,11,18
1490138088070,27,41,41,-56,-81,5,-13,-25,25,20,50,127,107,34,19,6
1490138088118,-9,13,46,31,-11,-37,11,11,71,54,-36,16,-10,28,56,65
1490138088167,-40,-32,-100,-104,-95,-52,-37,-7,17,21,83,95,1,49,20,-2
1490138088215,-63,-82,-111,-81,-70,-29,23,-37,-12,-32,-56,-80,-55,-12,-14,30
1490138088216,59,-30,34,82,74,-24,-22,22,-26,-1,51,60,48,-9,-47,-23
1490138088264,29,13,-77,-66,25,-32,-33,-88,-2,-70,16,11,75,31,23,63
1490138088313,-17,-40,-89,-106,-128,-38,42,20,16,15,19,-122,-7,-95,-71,-20
1490138088362,-36,-10,-82,-68,-81,-89,-61,32,88,-20,-47,27,-40,-41,-19,-22
1490138088412,-9,-40,-76,66,65,14,2,-15,12,90,66,28,-42,-3,6,-40
1490138088459,87,9,127,5,86,85,29,43,12,-1,14,83,82,23,35,26
1490138088462,83,-51,-57,42,-3,-29,-46,49,-22,-1,1,127,127,14,10,-9
1490138088511,-88,23,75,-32,48,39,42,-28,112,-58,-77,-41,-59,17,22,79
1490138088557,65,-25,-97,-77,-82,-35,4,-12,-109,-39,-38,-84,-68,-54,-36,-20
1490138088606,63,82,-27,-19,-57,-37,-4,66,-57,-23,-49,-83,-107,-62,-27,-17
1490138088655,22,56,-38,-15,55,20,-11,-1,-68,-79,-13,-53,10,24,26,32
1490138088703,-27,-88,86,-43,-66,-9,-34,90,51,86,-43,-52,15,35,72,18
1490138088705,70,-12,51,9,-113,-33,-54,-17,10,14,-90,73,35,35,80,2
1490138088753,12,0,56,-67,-76,6,41,30,-7,-81,-69,-56,38,-9,-17,57
1490138088801,-27,66,58,12,70,13,18,-59,42,-40,93,-117,-108,-11,-43,-23
1490138088849,-50,-93,-128,-27,-94,-5,-5,-1,8,91,92,89,112,29,19,19
1490138088897,-20,31,-3,7,71,15,-43,-3,24,-65,-37,16,48,21,-11,-32
1490138088898,32,34,127,0,-56,0,1,50,30,-82,-128,-117,-56,-47,11,30
1490138088947,1,-49,-24,47,1,-19,-7,23,-31,27,23,-99,-77,37,28,58
1490138088996,16,-6,-52,32,108,32,-3,-30,34,-92,-79,115,48,-14,-59,11
1490138089045,-34,-41,-33,-69,-33,-19,7,-10,-118,-73,127,69,115,8,-25,-22
1490138089094,62,71,-6,127,109,-20,-33,17,7,-54,-19,53,62,-6,64,50
1490138089141,-43,107,-10,49,-128,-12,-12,82,10,-55,84,59,127,48,2,-78
1490138089142,6,23,127,28,-97,50,-12,-18,-12,103,-97,96,8,45,4,7
1490138089191,-44,-9,-53,-109,-110,-98,-1,48,21,-50,-5,97,85,-31,-37,-5
1490138089239,39,-37,-19,53,-43,-27,-32,-92,-23,119,-100,-103,13,-5,7,31
1490138089288,-40,-100,81,17,67,-16,-33,-88,9,81,82,68,54,76,36,9
1490138089337,-8,15,48,104,83,56,19,-11,-53,-47,-80,-128,-128,-41,-18,-18
1490138089435,-36,-11,-35,-68,3,-46,-35,-92,-22,-8,127,45,92,-10,4,20
1490138089440,-17,8,-70,-128,-128,-28,-11,-12,9,30,127,124,100,93,25,11
1490138089442,-89,110,-31,-123,-128,-92,-34,-43,11,-2,-62,2,-40,-96,-51,23
1490138089489,26,-18,91,47,-25,91,-13,21,13,63,55,88,126,77,27,25
1490138089532,11,15,52,17,37,-13,-9,-5,-17,6,17,70,40,46,-2,-13
1490138089580,-3,7,46,24,0,49,0,-11,21,34,76,48,22,-3,20,13
1490138089583,-16,-54,-55,-78,-37,-29,-10,-16,-4,47,-20,74,52,-40,-23,-21
1490138089629,-4,-7,10,-62,-22,67,15,20,-11,-23,17,29,10,35,7,-4
1490138089678,0,5,17,11,-55,-56,71,29,9,11,8,48,46,86,5,-18
1490138089727,-6,-7,-7,-15,-24,-25,17,-2,9,-25,-3,-31,-23,-54,-16,43
1490138089776,10,-6,1,-12,6,105,-33,31,5,9,-9,-4,0,5,-40,-2
1490138089824,3,25,1,9,57,15,-26,-11,-1,10,10,4,40,42,-8,10
1490138089826,-13,-29,4,7,37,3,-16,-13,-20,-8,-5,23,6,43,-18,-8
1490138089874,3,29,4,14,21,-82,-32,24,13,-15,-10,4,-9,-19,-1,1
1490138089923,-2,-30,-10,0,-7,111,35,-38,-10,1,20,31,55,-28,-57,-26
1490138089971,-8,41,33,22,50,47,-47,-33,-14,-20,-16,-71,-83,-107,44,16
1490138090019,-9,13,-13,-11,-48,-54,9,2,-14,11,-29,28,71,84,-51,-103
1490138090067,4,14,-24,-29,-51,-68,96,-5,19,3,18,48,81,87,-5,-10
1490138090068,-15,15,15,51,104,96,-18,-5,-22,-9,-3,-37,-73,-72,-8,-35
1490138090117,11,10,-15,60,70,113,64,-37,-15,-42,-12,-69,-96,-83,3,21
1490138090214,-10,4,14,20,-24,-19,31,7,4,1,16,2,30,39,-11,14
1490138090217,-6,-11,-7,-30,30,12,0,-10,5,30,14,80,58,80,21,7
1490138090263,0,-40,-51,-43,-6,-9,6,5,-12,26,10,8,-12,63,-26,-40
1490138090265,-16,7,-15,-60,-93,-53,36,7,6,-13,49,119,127,88,-25,3
1490138090312,15,10,19,-72,-118,44,28,11,-4,-3,-6,86,89,-67,-26,16
1490138090362,-22,-45,-124,-56,-4,-64,-42,-49,28,49,67,109,127,118,40,31
1490138090410,-13,1,51,-70,4,-12,-1,-3,14,12,21,91,92,109,11,33
1490138090461,-7,15,42,-82,-99,-58,-13,-18,36,-28,-38,-48,-73,-76,-7,3
1490138090507,-45,-47,-128,-62,-128,-128,-66,-34,8,46,127,127,127,127,41,37
1490138090510,-16,2,-40,64,-34,-35,12,11,35,14,-5,60,58,-15,-13,7
1490138090556,-48,-14,-45,-121,-110,-107,-57,-29,40,73,100,88,91,59,92,18
1490138090604,47,-51,-90,-42,24,-45,-34,-2,-6,-49,-41,-61,-95,-34,1,-1
1490138090653,-47,-39,12,78,70,13,-9,-16,-20,48,102,-120,-58,42,10,9
1490138090702,70,10,-13,-54,8,31,13,35,-12,17,20,69,-36,-54,-77,1
1490138090751,85,34,102,-117,-128,23,9,62,-67,-80,-126,-54,52,-110,-48,-32
1490138090752,76,12,-22,-36,-22,2,6,22,-56,-14,12,95,78,16,13,9
1490138090799,-61,-22,3,96,27,-59,-10,-26,-13,-20,14,22,10,-7,-8,1
1490138090849,-103,-30,45,102,29,-11,0,1,21,-5,18,-128,-114,-47,-12,-8
1490138090946,-22,-22,-106,10,79,37,35,-11,6,-22,-128,-122,-95,-28,-16,-66
1490138090949,30,43,75,40,36,-8,-44,16,-10,16,-80,25,-18,-24,32,28
1490138090951,-52,-26,-71,21,-24,-71,-44,-43,-23,-36,-126,17,-9,-50,-24,-26
1490138090995,-15,26,114,53,-31,21,23,28,15,-39,-122,-61,-35,-5,29,33
1490138091043,-19,-35,81,14,-17,26,26,-20,-14,52,-19,45,63,39,23,3
1490138091092,22,55,81,9,22,28,-33,-1,-35,-79,36,-41,-106,0,13,-20
1490138091141,-2,-8,-97,-100,-94,-67,-39,-37,-31,62,66,24,-13,2,4,41
1490138091189,19,-42,32,-73,16,26,1,13,24,75,-1,115,11,-2,16,56
1490138091190,10,122,117,105,37,37,25,-6,-51,18,-30,-42,-12,9,-10,-27
1490138091238,36,-22,-64,-13,-77,-6,-2,22,-24,-5,81,60,60,13,10,-10
1490138091287,10,41,26,63,50,-7,-33,26,21,-66,-100,-127,-112,-16,41,-27
1490138091336,17,-3,82,53,56,21,0,40,8,-4,92,-32,-42,1,8,21
1490138091384,-55,-59,-122,62,23,-4,24,-46,59,-12,23,20,-9,-21,-42,-4
1490138091386,29,86,116,-64,-51,-6,1,-59,-91,-63,-66,127,127,-8,-38,2
1490138091433,56,88,127,66,45,17,37,10,-39,42,-92,-107,-31,55,16,-74
1490138091482,-18,-81,13,-18,-55,-27,-37,-68,-25,73,110,127,24,26,39,6
1490138091531,-68,11,-5,-104,-28,-2,23,-86,71,-127,-34,-61,-59,-28,-25,-93
1490138091579,-8,93,28,11,13,-1,32,18,44,-68,-71,2,21,23,1,55
1490138091627,102,52,72,127,125,49,26,120,-6,-45,29,-106,-51,16,49,46
1490138091629,-20,-128,-1,104,-9,-3,1,-2,35,32,51,53,10,50,-9,0
1490138091677,-86,-3,44,32,-2,6,24,-40,19,12,2,-68,25,42,-12,-30
1490138091726,31,-8,-103,-89,-112,-49,-21,-29,-43,46,127,100,73,-36,-21,20
1490138091775,-48,-43,-91,-67,-61,15,25,-2,20,55,-49,97,21,15,30,-11
1490138091823,-17,-35,-56,-74,-61,22,-19,1,52,28,90,80,-35,69,98,47
1490138091872,-13,39,119,99,109,-7,-22,-11,18,-2,8,-41,-31,25,-35,-26
1490138091875,59,96,127,-46,-54,75,75,74,-29,-29,-99,-128,-128,-90,-37,2
1490138091921,-2,-20,-101,-78,93,-62,-25,-62,-7,9,5,-113,-128,-47,-33,5
1490138091969,-2,14,71,94,-9,43,-2,18,23,28,127,101,64,31,56,13
1490138092018,-18,33,111,99,31,15,40,-18,62,37,44,127,127,86,39,28
1490138092066,4,-23,-128,17,-51,34,6,18,-22,4,-49,-106,-104,-76,0,-10
1490138092067,6,-8,14,-47,-71,-43,5,16,3,-23,-16,-40,-15,28,-48,-1
1490138092116,-11,-18,-23,-13,-5,0,-17,-16,-1,13,66,123,106,20,-35,-6
1490138092167,-26,1,-19,2,87,24,-1,-72,11,-6,-4,-5,-23,-38,-24,52
1490138092213,28,12,10,39,15,-10,-7,53,-15,-13,-59,-64,-30,-35,-31,-46
1490138092262,35,12,21,-13,-36,-37,32,78,13,5,9,8,21,-27,-25,29
1490138092310,-1,-4,-2,-12,14,101,78,28,2,19,22,16,26,-20,15,-36
1490138092312,-32,1,3,27,74,34,-55,-3,17,0,-17,-8,-7,-8,28,49
1490138092360,-1,3,-61,-69,-123,-115,43,8,-17,-31,-12,17,21,44,-59,-16
1490138092409,10,-15,7,54,31,-2,20,3,-1,-17,-35,-42,-72,-98,-12,18
1490138092457,-3,-17,-21,-10,1,46,6,6,-7,-1,-4,14,60,-19,-30,1
1490138092506,1,27,-3,72,3,93,1,2,16,-60,-57,-98,-71,-52,-16,11
1490138092555,5,-25,-5,-44,-76,87,46,-40,0,13,-9,50,31,-8,-32,10
1490138092557,-20,12,45,13,65,37,29,-79,6,-5,3,15,59,65,6,-112
1490138092605,-14,34,-14,-3,29,73,15,-34,36,-5,3,-31,-66,68,83,34
1490138092700,5,6,24,20,4,-25,-56,0,2,9,7,-6,27,32,-21,-124
1490138092701,6,-3,-10,-3,17,31,-12,80,9,-5,-14,-34,-48,-61,-6,127
1490138092749,8,28,8,-6,16,-12,-16,-4,-17,-32,-8,2,34,25,2,-1
1490138092750,-1,-20,-21,-2,14,-14,46,-4,11,-6,-23,-15,-21,5,40,9
1490138092798,-12,8,95,92,71,17,8,24,14,-5,6,-47,-59,4,-12,-20
1490138092847,-12,-14,-22,-6,-16,-29,-51,-21,14,32,103,127,127,106,36,3
1490138092896,23,10,0,-97,-27,32,47,1,-9,8,-33,-69,-75,-52,-13,-15
1490138092944,4,17,26,7,44,-32,-14,15,20,0,-19,-17,34,40,-15,-18
1490138092992,5,14,-53,10,-64,-71,-62,8,-33,-17,-41,-123,16,8,-15,-16
1490138092993,-2,27,-11,55,-16,15,15,-48,-22,-18,-47,-55,10,-87,-18,-9
1490138093042,7,-66,-72,-51,24,-17,-18,-3,65,55,85,-113,-118,61,13,31
1490138093090,-22,12,37,47,8,15,13,34,11,1,-68,-25,9,11,-9,-43
1490138093140,9,9,64,102,27,23,4,-2,13,56,89,127,51,50,10,32
1490138093190,65,84,2,-86,-23,62,58,-7,-6,-33,88,121,118,26,0,84
1490138093285,-56,-75,-34,-39,-88,-121,-71,-43,-74,-49,33,10,32,-47,-41,-47
1490138093287,-17,-74,-128,-71,111,-16,-24,-1,34,23,-90,-93,-122,-83,-9,-6
1490138093289,-24,53,65,108,19,45,36,8,37,-16,11,-73,-42,53,-32,-36
1490138093335,-36,25,-18,36,89,37,7,-9,18,76,84,98,85,109,34,-34
1490138093383,47,49,-103,-98,-86,-64,-102,-67,-20,-100,49,73,-31,-6,16,4
1490138093431,18,27,35,-58,-18,8,26,117,-50,-14,-55,-21,-54,-6,16,-34
1490138093432,-18,33,48,-77,61,23,-1,20,-54,122,-100,-27,-8,-22,14,38
1490138093481,58,-31,-67,53,22,34,30,39,-50,28,90,100,127,64,-30,-33
1490138093529,34,80,-58,-38,-71,-13,39,-67,41,-88,-85,-87,-75,-36,-8,10
1490138093578,-29,-29,17,109,42,-3,-23,-5,46,-23,15,-42,-26,17,35,-8
1490138093627,49,82,18,-61,-86,-54,-28,-7,-22,-104,0,37,6,20,38,-31
1490138093679,42,-73,-88,22,87,42,19,94,5,-36,10,-47,19,16,-4,-37
1490138093681,-98,94,-67,-31,-10,-38,-56,-96,61,110,127,64,39,-2,69,47
1490138093725,3,13,-10,-2,-18,-4,-6,19,20,-108,-128,-1,10,0,-20,0
1490138093773,-23,7,117,20,32,56,100,42,18,52,58,127,127,24,-2,51
1490138093822,34,2,-17,-112,-71,-30,-32,-128,-33,0,-30,-14,-10,29,35,-28
1490138093870,-56,-79,-84,-23,18,-1,52,54,63,93,101,-32,35,9,9,-40
1490138093871,4,50,85,9,-24,-17,-18,-96,-64,-82,35,49,-43,-14,-16,48
1490138093919,30,126,27,-17,-44,23,4,87,4,-102,-101,-80,-104,-25,-43,-59
1490138093968,-57,-128,-125,34,-7,-15,-11,-9,-18,5,89,9,-68,-59,-28,-52
1490138094017,13,-17,-43,100,85,30,13,-53,94,91,-22,8,92,81,49,34
1490138094066,-25,12,77,-65,-52,34,-4,54,-75,-24,-103,51,127,28,12,-110
1490138094114,-12,2,101,-42,84,38,42,30,36,-41,44,3,-115,16,-10,5
1490138094116,2,-55,-7,-99,-128,-50,-52,57,-17,-121,36,103,85,-113,-65,-69
1490138094163,-42,-50,-99,35,71,-10,12,1,-23,-1,-7,-5,-128,-106,-70,-12
1490138094212,-46,-117,-84,-41,51,71,45,43,90,44,72,30,-117,-4,14,63
1490138094309,22,60,16,82,85,67,14,4,1,-9,113,-16,91,87,37,12
1490138094310,-46,-71,-62,-128,-128,-116,-95,-98,-4,-23,42,71,62,-23,23,-87
1490138094357,10,37,127,51,39,24,47,13,-4,16,-102,-40,-33,5,17,1
1490138094358,8,-62,3,11,-102,-115,-49,7,-25,18,-15,75,29,-14,-20,-37
1490138094407,-17,-3,-69,-42,-15,-5,13,-12,7,-12,-123,-114,-123,-90,-21,-2
1490138094456,-20,34,-6,-113,46,-24,47,-3,54,12,-8,42,-70,12,-24,44
1490138094504,28,20,33,-38,-37,83,27,51,-31,-40,-30,-47,11,-25,-28,-21
1490138094552,-27,-55,-26,-12,-12,-56,11,2,10,28,99,100,80,78,40,-17
1490138094553,5,-4,16,-2,7,-61,-39,2,-11,9,-27,63,91,-8,-8,20
1490138094602,6,2,-28,39,-29,-30,7,-23,-1,11,52,63,119,-25,1,-2
1490138094650,8,7,5,40,62,120,-11,-15,-10,-14,-12,2,11,20,29,15
1490138094699,5,4,-5,-57,34,52,-53,-34,0,-5,-26,-44,-115,-11,52,22
1490138094748,-9,8,-10,-25,-60,-56,34,-37,13,4,11,30,76,-14,9,22
1490138094796,-4,-20,-29,-7,-4,-7,16,48,21,28,11,1,10,127,22,-3
1490138094845,-8,-17,-17,24,85,61,-7,-4,-1,-12,-21,-49,-127,-128,23,15
1490138094848,-2,-7,11,14,21,26,-23,0,-15,0,30,-3,20,-10,-10,-21
1490138094894,-4,9,28,-15,-30,25,-26,81,39,-1,4,38,-10,-43,-11,123
1490138094943,3,5,-7,-30,-26,58,-14,-41,-3,-1,-14,-10,24,6,-25,-66
1490138094992,-9,-24,-27,-15,21,-7,-37,-35,3,9,17,-5,52,16,5,-31
1490138095040,-21,-14,-16,-35,-87,-83,-41,5,20,6,-8,28,73,54,10,40
1490138095041,4,6,12,26,50,6,5,5,-20,-25,-12,-9,21,39,3,-6
1490138095089,18,28,40,62,31,60,0,-41,-10,-5,-24,-76,-97,-69,-34,-19
1490138095138,12,-7,6,-6,-27,1,13,57,-19,-11,-10,2,-16,8,13,10
1490138095187,2,-36,-45,31,55,-41,7,-1,-8,-3,35,-67,73,121,16,3
1490138095235,2,-10,-28,-24,5,-21,25,19,-16,-12,-3,44,-24,12,-2,12
1490138095236,-10,-5,-4,-75,-66,-65,18,-30,6,30,67,41,73,12,1,10
1490138095284,4,9,71,-21,67,26,12,3,-1,-12,-58,13,9,-10,-16,-3
1490138095333,42,48,127,127,108,127,49,22,-46,-64,-115,-94,-107,-123,-67,-27
1490138095382,47,-29,-24,55,118,44,31,27,23,51,45,3,34,79,21,35
1490138095431,-90,-91,-94,-97,-127,-128,-70,-79,24,55,123,127,92,84,0,10
1490138095484,75,1,-58,-55,-54,37,18,10,-24,-34,0,-30,-75,-87,-6,-8
1490138095486,41,74,127,127,-27,92,37,81,-17,-94,-126,-116,-51,-78,-17,-29
1490138095528,-13,-46,78,101,127,9,6,3,60,75,48,112,40,42,25,50
1490138095577,-5,11,-22,-43,-33,-23,-9,-12,-29,-6,44,-51,17,-13,-34,-21
1490138095625,-36,-65,15,-35,-64,-71,-10,29,-5,-69,2,-121,65,-3,-1,-15
1490138095674,-6,-12,-25,-11,-13,-9,-22,-21,-13,0,-42,33,4,-59,-53,10
1490138095722,3,-52,-104,-79,-85,-69,5,-53,-58,-35,81,9,32,1,-4,-39
1490138095724,77,-29,16,6,12,13,-25,12,-16,19,-63,-54,13,20,32,1
1490138095772,10,-43,-31,29,22,2,-6,-6,6,6,127,-42,-36,22,-12,5
1490138095824,-55,-5,-10,79,102,51,-1,6,13,55,15,127,16,12,15,-15
1490138095870,44,-52,-40,-53,-94,-33,-20,20,-24,-66,70,80,10,-11,-30,-37
1490138095918,-4,37,118,127,29,58,-4,4,-33,-49,-58,-26,46,24,29,39
1490138095919,11,22,-6,37,92,-4,-19,-12,-16,-66,79,38,-9,-21,-29,0
1490138095967,23,-17,11,8,-19,-12,-53,-36,-32,52,101,-89,-88,-13,23,63
1490138096015,46,14,112,104,111,74,25,-16,22,-46,-103,-120,-128,17,5,94
1490138096064,-19,-42,-34,-22,-80,-57,-40,-9,-44,-100,-61,-79,-99,-40,-13,-6
1490138096113,-35,-58,127,99,63,34,14,-35,12,95,72,127,127,47,-13,46
1490138096161,27,67,-7,-127,-128,-38,-6,-35,-19,-54,-86,-30,38,-15,-24,-23
1490138096163,-13,13,118,33,61,38,41,24,11,-18,-74,-63,-86,-33,2,10
1490138096211,-73,21,-52,29,-13,-15,-70,-47,58,-39,120,127,88,50,95,98
1490138096260,23,-74,-128,-11,-47,12,2,-38,16,24,117,-100,-70,2,-21,9
1490138096308,2,125,52,127,127,87,49,-1,-51,-61,-98,-128,-125,-16,0,-10
1490138096361,20,-15,-40,-30,127,42,32,35,20,127,49,44,-52,28,10,-38
1490138096405,-99,-108,-65,-61,-44,-64,-39,-72,91,-23,58,-43,10,-2,-19,0
1490138096408,57,27,127,84,58,0,29,26,-104,-101,-128,-48,-18,-11,-16,-32
1490138096454,-114,-39,-18,-128,18,-26,-27,-12,-15,-38,-126,127,73,-1,-12,127
1490138096503,15,-101,-17,-86,-121,-45,-63,-37,-80,72,45,-53,-52,-75,-5,-23
1490138096552,-63,-64,109,109,-15,4,0,-46,-5,-93,37,47,55,40,-34,-23
1490138096600,-16,17,71,63,33,-18,0,37,-52,127,14,-40,62,28,8,-52
1490138096602,-11,-10,-45,90,-22,-60,-2,-16,0,7,90,49,-5,58,38,17
1490138096649,53,79,49,-7,-37,55,3,72,26,1,48,-16,-23,30,59,5
1490138096698,-17,-15,15,-109,-108,-40,10,-32,14,13,-81,69,-22,-37,1,12
1490138096751,12,63,30,-91,-128,10,-11,-3,25,-50,-38,-34,118,32,10,37
1490138096796,3,4,-76,5,14,9,3,1,28,62,108,111,102,75,42,44
1490138096845,11,10,96,-61,-12,-7,6,31,-13,7,7,62,110,86,8,-11
1490138096846,-12,-67,-106,-32,-57,-69,-33,-21,-18,-14,-10,-64,-52,-33,-15,6
1490138096893,11,48,120,127,117,5,-3,-10,16,66,127,127,127,103,26,17
1490138096942,15,4,7,58,97,64,-22,38,-24,-7,-24,-103,-117,-128,-29,-28
1490138096991,-20,-9,-32,-4,-9,72,0,26,-5,10,44,47,25,-17,21,2
1490138097038,14,22,25,1,34,23,12,-23,-10,-14,-28,-17,-69,-79,7,49
1490138097040,1,4,19,26,20,-42,-14,6,7,-35,-22,-47,-59,1,3,1
1490138097088,-15,-30,-8,14,3,26,-10,18,2,-16,0,-28,-34,-101,6,-21
1490138097140,-5,-9,0,-32,-27,-30,-4,-6,8,4,3,29,20,7,5,11
1490138097186,-22,-5,9,41,42,-45,-2,-28,38,23,7,-20,-20,87,6,34
1490138097235,15,3,16,32,46,41,-8,36,-32,-13,-11,-15,2,-56,-23,-46
1490138097283,-1,-22,-14,-43,-45,-2,42,-3,3,29,24,32,81,-21,-3,23
1490138097296,5,6,-12,12,11,-47,-16,-13,-18,72,-22,7,14,92,-3,57
1490138097334,14,34,41,24,76,22,6,22,-23,-29,-8,-52,-78,1,-69,-15
1490138097381,11,5,8,7,1,6,-11,-17,31,-4,11,-16,-37,-75,-4,7
1490138097429,-1,-9,-42,-24,6,4,-35,-19,14,-13,-8,-13,-16,21,37,25
1490138097478,-1,-6,-22,11,24,49,9,2,-8,-3,25,57,-13,-12,0,-59
1490138097526,-28,-12,22,57,11,5,-24,-42,12,17,34,90,51,12,-12,21
1490138097528,11,24,-39,-83,-100,-37,-42,38,-37,-58,-62,-9,-39,-69,-11,-72
1490138097577,-6,39,87,95,127,87,62,-57,16,-11,-85,-128,-128,-63,-30,33
1490138097625,-50,-6,50,45,71,43,38,-26,39,-38,19,-20,57,59,14,-23
1490138097673,-22,21,86,127,-77,-66,-28,-24,-12,-44,19,34,74,51,-1,42
1490138097722,-43,-52,-49,-128,-75,31,13,46,-22,-56,-57,88,36,-128,-64,-70
1490138097725,22,-86,-113,-84,60,-64,-10,-18,-29,39,127,-59,-128,-4,-24,-13
1490138097771,-22,-20,-108,-88,-53,-39,22,-34,-58,26,-22,78,66,-27,-32,12
1490138097820,-4,71,73,-17,63,63,-15,-2,71,-28,13,120,-10,57,-1,33
1490138097868,27,-6,7,122,109,127,58,-30,26,-92,-39,-128,90,-40,48,27
1490138097917,-4,1,-11,1,-99,-28,15,-58,-38,-11,-13,75,12,-88,-49,-2
1490138097965,16,85,80,-77,-33,30,18,58,70,88,83,102,127,103,38,67
1490138097966,-75,-36,-33,-70,-128,-119,-13,-7,-16,17,-83,-25,60,3,-31,-31
1490138098014,25,7,-51,-46,-26,-36,10,-55,-58,-56,-85,-105,-73,-68,-32,23
1490138098063,66,32,18,75,31,5,18,96,-39,-33,41,127,127,105,28,-20
1490138098112,21,22,-26,-47,-11,7,-8,41,4,-85,5,-115,-41,6,13,19
1490138098161,13,87,73,119,98,55,-7,-15,-81,-5,-91,-128,51,-16,7,76
1490138098209,11,-25,-101,-128,-125,-14,-4,-81,37,-48,-17,-27,-31,-6,-14,14
1490138098213,-36,28,-41,-42,-38,-51,-30,-72,54,-26,75,34,-49,-15,48,60
1490138098260,2,-15,48,-40,-61,-41,-19,46,-68,-89,-112,-83,-64,-39,-13,-108
1490138098307,44,-19,-29,58,-58,6,-7,-14,-43,17,113,15,81,-9,14,4
1490138098356,8,-50,-128,-3,-16,-60,-23,97,5,87,78,-22,55,87,6,-102
1490138098404,28,-28,3,26,10,20,-35,-9,-43,-70,-1,-26,-77,-43,-8,28
1490138098405,5,-1,-99,82,90,49,39,11,8,32,44,117,83,56,-26,-5
1490138098453,35,52,8,24,69,5,32,-19,-52,38,52,-103,-128,-54,-46,-61
1490138098502,56,-65,42,-46,20,14,3,34,-70,89,-64,38,94,-8,13,-92
1490138098552,1,-10,22,-43,-101,-16,19,54,20,-36,20,78,40,27,7,-22
1490138098600,15,95,-98,-47,-83,0,40,-19,-37,-75,-128,-128,-99,-55,-38,-47
1490138098648,65,-25,32,89,82,-11,-21,27,-16,-79,-85,-37,25,11,24,-33
1490138098654,-34,-92,122,-60,9,9,4,-9,0,44,-98,-111,-48,-39,-9,-33
1490138098697,6,79,-11,69,41,24,6,-15,26,-67,-3,-2,-51,5,41,21
1490138098746,43,7,-45,-128,61,-2,-3,-7,-10,-2,-8,-60,39,-13,4,55
1490138098795,40,-90,-114,-116,-128,-24,-12,18,-3,104,127,127,127,35,11,17
1490138098843,60,-16,-128,-128,-94,43,41,46,38,15,60,81,59,-1,3,39
1490138098891,-93,26,60,56,-29,-15,-69,-90,34,-80,-56,-93,43,37,34,45
1490138098893,-13,115,102,1,-128,12,31,18,33,-65,32,-53,-10,-20,-64,-37
1490138098941,-6,26,-76,56,40,-21,5,-3,-30,-11,29,-7,48,43,29,-7
1490138098989,-72,18,74,-12,127,80,3,14,23,73,-63,-128,-128,-38,2,-11
1490138099038,0,12,29,86,113,113,60,13,-12,41,124,-70,-128,18,-6,26
1490138099086,21,-83,21,-5,22,-76,-63,35,-23,54,112,85,59,30,19,-9
1490138099088,-24,-52,-36,-48,-79,-91,-48,-44,-18,27,107,50,-33,77,-33,24
1490138099184,-42,-26,-98,-116,-128,-59,-27,-72,11,7,75,73,66,32,25,39
1490138099188,-26,2,-72,-7,3,-87,-12,-52,-2,-21,-49,-94,-59,7,2,-10
1490138099239,-2,33,24,33,72,71,-33,-21,18,3,-22,-90,-19,17,39,24
1490138099282,-10,-5,-5,60,37,2,-15,-22,-1,10,61,127,127,54,-10,-12
1490138099330,23,32,79,-9,-77,-79,-6,-9,-20,-22,-113,-116,-68,-91,1,15
1490138099331,4,-30,51,127,119,-85,-26,34,-22,-1,6,-36,7,122,19,-22
1490138099379,-31,-13,-39,-40,-51,-60,-29,-90,-4,25,18,17,14,-39,12,29
1490138099428,-13,11,33,64,70,47,34,42,1,-16,-51,-88,-87,-106,-49,-43
1490138099477,-4,21,-12,-20,25,24,-1,10,3,-57,-18,-15,-32,106,41,-15
1490138099525,-46,30,18,31,20,-7,-23,-29,28,-16,-14,-60,-57,-50,44,27
1490138099527,18,-5,-26,-40,7,9,13,38,-20,10,31,71,127,46,19,-30
1490138099575,10,1,-17,-72,-128,-86,10,23,-41,-2,11,35,117,36,-12,-19
1490138099623,36,-32,-21,-77,-41,-13,43,36,-21,-14,-54,-26,-43,-53,-47,-49
1490138099672,-1,-4,-50,-9,54,71,35,-17,1,-9,52,-1,-31,36,5,3
1490138099721,18,8,-2,8,-66,25,-19,2,-10,-8,9,49,92,99,54,-3
1490138099769,-3,34,-22,-99,-65,13,21,8,-5,6,85,127,78,20,-11,51
1490138099770,-12,-21,-69,-96,-90,-86,-57,-38,9,8,-37,36,13,-13,-17,43
1490138099818,16,-12,-9,-63,10,30,14,-55,-3,31,27,90,68,44,-26,8
1490138099867,41,63,125,127,127,127,28,49,-3,-18,-57,-128,-122,-16,26,10
1490138099916,-8,-21,-29,-110,-29,28,19,10,14,-16,-11,-90,-128,-73,-16,-23
1490138099965,-38,28,23,110,91,19,2,29,8,42,-29,-112,72,43,14,-55
1490138100013,2,-12,-92,8,79,4,50,77,-14,0,58,-81,-92,-66,-32,-80
1490138100015,6,19,-61,-16,-79,-39,4,-9,33,36,26,52,7,-29,-8,127
1490138100062,-31,-17,87,121,115,27,-46,22,0,17,76,120,57,73,54,46
1490138100111,-21,-9,-16,-58,-68,-87,-29,-97,8,57,127,85,111,115,32,19
1490138100208,7,36,64,-17,70,23,10,-74,-32,-59,-77,101,127,71,6,42
1490138100209,-32,-12,65,18,71,13,-7,-9,55,-1,127,127,74,29,-55,11
1490138100211,-33,-25,-43,-36,1,15,24,22,33,16,31,118,127,30,2,9
1490138100257,-29,-65,-48,-105,-128,-113,-63,-105,-30,4,-22,-20,71,-30,-16,-71
1490138100306,51,64,-51,-65,-86,-30,21,-12,-22,10,-43,-48,-50,-99,-71,-71
1490138100356,5,-70,81,81,-92,-92,-7,53,-2,-19,-7,98,127,60,-27,31
1490138100403,6,13,65,-79,-45,-4,24,-9,7,-38,-95,-32,71,32,6,17
1490138100451,11,-6,78,90,-19,76,-22,67,20,75,102,4,48,41,37,-12
1490138100453,-54,-3,-73,-119,-38,-15,-17,64,56,-8,-49,28,-88,-53,-15,-84
1490138100501,2,36,-2,-1,85,38,33,12,-24,-39,67,-104,-127,-25,16,63
1490138100550,96,110,-101,-88,-89,-14,-4,-92,-53,80,75,-10,127,-16,-25,-67
1490138100599,-20,-26,-69,-38,-17,39,56,37,38,-3,24,-79,-55,-22,-53,31
1490138100648,10,-2,65,109,73,69,69,101,6,-116,-23,-36,-108,-30,-14,0
1490138100696,24,-44,127,55,57,77,68,63,-1,93,-56,-47,-100,16,33,-57
1490138100701,-81,98,14,-102,-124,-73,-23,-30,-5,-35,-76,-33,-2,-53,-22,12
1490138100746,16,-62,37,97,118,2,1,2,31,54,46,86,95,36,27,-62
1490138100794,-22,-56,-119,-113,-8,-8,-17,1,-5,-71,-17,127,-92,-56,-79,0
1490138100842,73,-31,127,113,114,51,24,15,-36,39,-96,112,127,73,49,6
1490138100890,-10,61,66,17,23,-14,-8,49,7,35,73,8,-25,5,-54,-22
1490138100892,-27,-45,77,83,34,26,46,-102,-33,-123,-113,-100,-60,-23,-3,50
1490138100939,72,127,127,-39,-10,30,32,-43,58,-128,-128,127,127,48,-3,14
1490138100988,-13,-43,-128,44,-72,-34,-31,-26,7,-32,84,-126,-92,-31,0,80
1490138101037,58,-40,-97,-10,-25,-106,-45,8,-85,-85,-93,34,127,-4,-42,-69
1490138101134,18,30,117,20,36,33,-4,126,39,97,127,127,127,98,42,27
1490138101136,3,7,-24,-56,104,-24,0,-13,-42,-51,-17,91,-62,69,33,5
1490138101137,-8,45,-65,-65,-49,-36,-28,-8,32,-41,-103,-16,-43,-2,32,81
1490138101183,0,18,89,5,99,19,-19,37,-27,2,79,-69,-83,-33,-18,-14
1490138101232,7,55,111,-117,-128,7,-75,-77,-56,-25,-56,17,99,60,57,44
1490138101282,-12,-3,-83,62,31,-39,-35,-40,-26,47,-84,-95,-127,-58,-5,-43
1490138101330,2,-27,18,48,45,50,40,-16,-6,-24,-36,64,93,-15,-44,-18
1490138101377,1,-35,-8,-81,-128,-65,7,25,-24,19,57,-37,103,6,-26,8
1490138101378,22,44,22,-17,-47,24,48,30,-30,-39,-89,-128,-112,-44,-17,-47
1490138101427,38,6,35,13,52,53,-1,21,28,67,-25,110,105,-53,15,31
1490138101475,22,16,55,73,43,71,20,28,5,0,-13,-64,-16,-24,-3,-5
1490138101524,23,68,46,76,35,54,62,57,-22,-81,-33,-79,-66,-68,-13,-20
1490138101572,0,-3,-63,-97,-91,-77,-21,18,-20,-9,-27,-6,10,-19,-39,-29
1490138101574,-19,-15,-48,-55,-86,-9,19,-7,-3,-13,-5,-18,-21,-46,-15,11
1490138101622,11,-3,0,30,56,59,0,9,3,9,26,27,55,87,2,18
1490138101671,-27,-15,20,25,72,21,-17,2,13,3,16,41,24,63,10,0
1490138101719,-3,-14,-27,-59,-73,-80,9,-12,-14,-15,-14,-8,52,-59,-59,-12
1490138101768,-11,11,-6,2,24,58,-48,-22,24,-32,-2,-36,-51,-80,15,17
1490138101817,3,-7,-27,-84,-21,-4,29,-12,-15,-5,-10,-26,-63,-31,-25,-5
1490138101818,-12,-10,0,8,-53,-85,5,-25,11,4,-9,7,14,0,29,13
1490138101866,-11,21,31,81,82,68,-54,-46,-14,-4,-25,-65,-52,-48,-5,-77
1490138101915,18,1,-3,26,-79,-16,18,-13,-14,-3,-22,-66,-26,-50,11,-4
1490138101964,7,-8,-8,30,25,3,10,-9,-7,-11,9,-38,42,16,-15,-6
1490138102012,11,0,-5,-17,10,-88,-37,-118,-9,-15,-26,-101,-75,10,17,-72
1490138102061,-10,-4,-43,-100,-43,-26,9,18,-1,-9,41,127,37,1,-47,28
1490138102063,0,-37,-8,-63,-107,-11,17,12,-5,15,-47,-61,-32,-15,-11,7
1490138102157,-5,-43,60,-89,-60,9,-16,-25,-11,6,-126,-110,-128,-93,-25,-9
1490138102159,-15,-18,14,-36,21,-61,-19,-14,-4,-20,-35,-8,49,33,20,21
1490138102207,-21,-4,12,-5,-21,-16,-18,-15,13,38,127,127,127,108,39,6
1490138102255,3,13,49,112,68,49,0,26,-8,-4,61,-105,-128,-90,-19,-6
1490138102256,36,-29,-112,-85,-54,-65,-37,7,-90,-56,-128,-30,8,-76,-41,-41
1490138102305,15,37,125,104,113,91,48,19,16,34,82,66,119,50,22,14
1490138102353,-22,-37,-128,-105,-111,-82,-17,-11,-77,-46,-40,-37,-97,-67,-9,-21
1490138102450,18,6,-48,124,64,11,5,24,18,6,20,73,-102,-21,-4,20
1490138102453,-6,27,-111,-58,127,110,21,0,34,-15,47,-107,-110,-29,9,22
1490138102499,52,63,-27,-82,-28,-10,-23,-12,27,56,103,122,127,72,41,-20
1490138102502,-20,5,34,68,5,-11,-2,3,28,-46,-52,36,98,29,11,31
1490138102548,34,0,-41,-85,-87,4,8,-10,-9,-19,-53,-83,-79,-93,-33,7
1490138102597,70,32,49,66,2,-3,12,5,-66,-5,-47,-69,-99,-48,-8,8
1490138102645,-57,3,52,-84,-128,-34,-19,-57,14,-23,20,85,-31,-17,-2,10
1490138102693,-51,-48,-57,-107,-81,-7,10,19,-62,-48,-73,-22,-51,-90,-67,-102
1490138102694,-6,-28,57,33,12,-9,-27,6,43,39,73,59,93,47,25,54
1490138102743,16,-64,-9,36,-3,-10,-33,-24,-16,91,-22,-20,-64,-23,41,0
1490138102792,-33,-47,-48,-82,-52,-36,-17,-41,27,29,4,27,-26,-6,-4,18
1490138102842,-64,17,35,43,-13,-16,-9,-23,2,11,-18,13,-67,0,-1,19
1490138102890,-8,43,77,-32,-15,-9,-11,-12,-1,-40,-34,53,1,3,10,20
1490138102938,-25,-34,-113,-121,47,-2,12,27,-65,115,118,-102,-99,-37,-29,-5
1490138102940,-2,11,109,33,-40,-5,18,9,-14,41,-79,67,-8,-16,-12,-12
1490138102987,-15,-81,-20,-128,-15,-14,-7,-71,-10,44,16,2,-103,-7,-18,18
1490138103035,38,-24,13,15,53,13,3,68,-11,60,-48,125,100,16,-11,-9
1490138103084,-99,-36,2,-36,-44,-14,-26,-57,58,-26,17,8,-10,-4,3,18
1490138103133,33,82,20,23,-2,-41,16,16,-51,-61,72,63,115,4,-14,-30
1490138103181,-5,30,28,-73,-125,-4,3,5,-21,34,-128,-18,15,8,7,50
1490138103182,5,72,31,65,79,1,-20,-60,37,-68,127,-86,71,36,27,40
1490138103230,20,47,-128,-23,103,5,49,14,-41,-9,-80,99,52,8,-7,-61
1490138103279,73,64,-48,-27,41,9,50,112,-20,-65,50,51,-57,-2,11,-44
1490138103328,82,42,-16,54,35,8,-3,15,33,-23,-52,56,-62,-2,7,73
1490138103377,-81,-127,112,-2,-117,-7,-2,-77,-58,69,3,21,-20,-80,-91,-128
1490138103379,49,20,-34,96,-82,-71,-22,67,-10,-50,122,127,43,-12,6,3
1490138103425,-76,47,-128,-64,-62,-48,-20,-85,35,-98,-70,27,16,-28,-64,10
1490138103474,22,-79,30,-36,103,26,20,4,-39,-44,2,-103,-92,-50,19,-29
1490138103523,29,99,9,-39,46,77,17,-30,13,90,89,117,22,48,67,-13
1490138103572,5,-33,-59,-107,-128,-56,-25,40,9,-12,102,114,57,10,-7,14
1490138103620,-13,56,127,127,71,37,3,10,9,-47,-128,-128,-128,-51,-6,2
1490138103621,11,-19,-34,-126,-37,43,18,8,-12,-22,-11,78,65,61,-4,8
1490138103670,21,-11,-89,-76,-41,-28,-3,44,-58,-12,79,-12,-42,-55,-7,-16
1490138103718,-23,-28,-19,-17,-128,-47,-24,-38,-16,-18,-16,63,89,-26,-25,26
1490138103767,8,26,12,-42,32,90,-11,-8,19,0,-8,11,-22,-14,-4,-29
1490138103815,17,10,4,18,13,-11,23,4,15,11,1,-25,-2,29,61,24
1490138103863,-21,-12,-11,-64,-88,-97,32,35,23,-17,-19,-45,-49,-38,-25,-5
1490138103865,8,10,29,18,-36,-29,2,9,-6,-19,-37,50,46,2,46,3
1490138103913,2,-24,-19,9,9,57,-33,15,-29,36,38,0,10,16,20,-50
1490138104010,13,-8,25,51,55,-53,-36,-18,11,9,-11,-27,-47,-37,-33,-5
1490138104011,2,26,5,20,82,27,-34,29,-4,2,11,-44,-112,-123,52,-14
1490138104059,21,55,37,77,124,108,-16,18,-1,-15,-24,-3,-78,-28,29,24
1490138104060,-26,2,15,49,61,-62,3,-16,-16,-20,14,64,48,53,-46,-40
1490138104108,-16,4,-14,-41,-52,-51,-3,-28,-8,-6,2,39,87,-20,-9,-9
1490138104157,-16,8,48,28,-16,127,38,-15,-15,1,47,-59,8,55,28,-5
1490138104206,-18,-8,-43,-75,-25,20,19,7,-14,-28,36,73,83,28,-12,36
1490138104254,4,-22,26,64,96,62,59,36,-19,9,-12,-82,-97,-61,-59,-88
1490138104303,-5,-9,2,23,21,11,-18,-12,3,3,18,45,66,4,26,4
1490138104305,8,2,-6,55,-67,-65,-4,10,-6,-1,-7,-60,-12,-11,-33,-3
1490138104352,5,28,36,59,74,1,-17,-4,-12,-41,-33,-18,-101,-30,-36,-21
1490138104402,-13,-15,0,44,86,38,44,-22,18,4,97,127,127,79,-20,6
1490138104452,9,28,45,66,36,49,-2,33,21,49,8,-79,-90,-34,-18,15
1490138104499,26,39,2,-42,34,-104,-100,35,-12,5,-65,-64,-31,-87,-85,-71
1490138104546,-33,-53,-85,-128,-128,-83,-64,-21,-10,-38,-93,-128,-70,-50,24,-10
1490138104549,58,-42,-120,-80,-128,-113,-27,70,-14,-4,-13,23,-2,2,-37,-40
1490138104595,-7,24,72,63,123,12,27,2,13,-23,64,-74,-80,-5,-16,44
1490138104644,-27,-23,-36,-82,-86,-27,5,-31,-62,-36,-17,127,88,-21,9,-25
1490138104693,1,-12,35,-88,-58,90,41,-2,82,32,49,127,78,39,32,43
1490138104741,83,4,-5,102,127,58,16,87,-6,81,52,112,66,69,24,-18
1490138104743,-42,-35,-31,-84,-2,-19,6,-12,-94,30,127,97,127,44,24,32
1490138104791,-15,-6,-58,-89,-75,-14,-15,-53,5,-11,-30,-106,-97,-52,21,-30
1490138104839,-36,-60,-8,19,-110,17,2,-28,40,6,76,11,33,73,3,-33
1490138104889,-33,53,-34,-128,-67,12,31,10,-1,47,54,113,127,44,-20,-10
1490138104937,-41,-51,16,24,-11,-54,-26,-6,25,23,-21,-16,-37,-19,1,14
1490138104985,-17,-105,26,-31,-10,-8,5,-7,-65,-21,39,9,2,-3,-10,-32
1490138104988,-39,-5,50,66,16,-13,-25,4,61,-25,-123,-77,-43,-45,-22,20
1490138105034,-75,63,-92,-86,-34,-8,-13,-25,24,97,-28,6,-102,-21,-13,-58
1490138105083,19,-52,4,21,-14,10,-4,-2,28,49,41,-13,-66,-9,-24,61
1490138105132,19,-48,59,18,-43,-38,-14,-42,12,60,46,14,51,11,27,30
1490138105180,81,32,27,42,51,53,44,64,-50,11,-95,-72,-53,2,-10,-37
1490138105182,-29,5,57,55,-23,20,28,-2,21,-65,-114,-20,43,12,-9,6
1490138105229,-24,-50,-31,-49,-68,-40,-23,-16,53,22,16,-24,-34,-27,8,37
1490138105279,23,3,82,-86,-59,-5,11,35,13,17,-100,-13,18,-14,-27,-48
1490138105327,-26,12,12,108,114,12,-19,-6,33,-46,-66,-41,-19,-11,-17,0
1490138105375,0,98,48,56,-6,-34,-44,12,-1,-72,-91,56,13,13,11,52
1490138105423,17,41,21,-128,-96,-45,12,127,-6,47,-7,-6,-76,-5,26,69
1490138105425,122,112,13,-55,-10,74,68,47,-109,-86,-73,-64,-89,-109,-59,-16
1490138105473,-63,93,36,111,72,8,1,-72,40,-89,-29,-128,-23,-39,-24,-42
1490138105522,-24,-73,22,63,26,22,-22,-79,-60,112,127,6,127,38,-32,-39
1490138105572,-15,71,97,100,118,-29,-9,85,42,-114,-41,-85,-70,-17,17,37
1490138105620,-13,-66,-66,-128,-128,-47,-3,-128,14,127,110,127,-62,-29,-53,28
1490138105668,-6,-95,40,-30,-112,-1,-25,0,-7,12,82,56,115,54,55,31
1490138105670,-9,-66,-107,117,127,-35,7,27,69,-77,-85,-128,-59,-67,-6,-28
1490138105717,39,45,3,20,-19,87,74,26,33,-52,63,-18,-54,-38,34,21
1490138105765,-71,66,-124,-16,85,-71,-34,-11,31,92,115,79,52,-27,-37,-24
1490138105814,-58,-81,-49,-82,-88,-80,-18,16,19,7,-44,70,12,-73,-17,12
1490138105862,-13,-4,-2,-39,-125,-53,-33,-73,-18,-16,-102,-128,-128,-117,-21,15
1490138105863,84,85,77,65,121,127,89,51,-56,26,-73,-91,-92,-22,-3,-16
1490138105912,-17,54,113,113,123,70,2,4,11,-34,-76,-99,-106,0,5,3
1490138105961,-31,-7,-128,-128,-128,-73,-38,13,-30,-53,54,68,90,0,6,-62
1490138106009,17,39,81,-61,-79,77,28,46,-1,-7,-33,41,-14,-52,-25,-20
1490138106058,-51,-52,-58,59,20,-70,-72,-38,15,-30,-99,97,9,-25,7,45
1490138106106,0,1,25,61,104,47,48,1,1,-13,35,22,57,75,-1,-1
1490138106107,2,0,1,-16,-3,-8,-27,-21,-1,0,-8,-14,11,17,-42,-22
1490138106155,-16,-30,-33,-32,-32,23,23,4,7,25,36,26,17,3,-2,-23
1490138106204,5,-28,-39,-66,-26,-3,3,0,-4,-7,-33,-47,-33,-5,37,3
1490138106254,-5,33,8,21,4,39,8,-11,-3,-52,6,-27,4,-71,-2,6
1490138106350,-1,-17,-17,-3,25,-23,-54,-36,-6,15,38,71,-35,-37,-62,8
1490138106354,-6,-37,1,4,-26,8,11,11,-11,-1,-47,-86,-78,-87,-12,-14
1490138106357,0,-37,-42,17,11,59,60,-22,3,46,22,-54,-14,-30,-61,3
1490138106404,-1,-9,-36,-36,-67,-96,-27,-6,-1,12,28,45,7,-8,8,-34
1490138106448,5,2,9,42,49,32,-20,-10,9,1,-15,-85,-93,-78,20,31
1490138106497,5,52,56,127,127,99,43,1,1,-7,-3,-38,-3,-27,19,-2
1490138106545,-14,-27,35,45,20,48,11,-26,7,35,-39,-75,21,30,33,7
1490138106546,-24,-1,-15,-128,-107,-75,-25,15,12,5,-1,127,90,-45,7,-13
1490138106594,50,32,71,95,85,80,21,24,-21,-8,-42,5,-61,-45,43,-27
1490138106643,50,10,-28,-116,-119,-93,-50,15,2,15,7,127,95,3,-11,14
1490138106697,-10,-39,-63,-54,0,-14,9,4,-7,-17,82,48,-55,-111,-15,5
1490138106741,15,-28,-78,45,1,19,63,-22,71,30,71,127,127,43,-6,37
1490138106788,-29,-34,2,78,12,-90,-22,-7,11,-36,-117,33,116,-7,-11,26
1490138106789,-21,110,127,-2,63,127,42,17,76,-31,-47,-85,11,55,24,33
1490138106838,-39,17,-7,85,61,-27,0,12,-40,-73,-51,-125,-57,-57,-31,-69
1490138106887,101,59,62,46,73,97,34,57,-128,-102,-111,-116,-108,-105,-68,-81
1490138106935,-56,62,59,98,109,71,13,-16,46,84,127,5,-4,21,16,16
1490138106984,-30,-55,42,37,50,-61,-32,-9,60,63,54,127,127,89,17,-27
1490138107033,-34,-1,-30,-70,-76,-31,-6,47,-70,-47,118,-59,-88,-1,-6,-41
1490138107035,49,-38,-77,-99,-99,-56,1,4,27,11,-76,16,-82,-49,2,1
1490138107083,-47,-14,48,127,127,90,29,16,72,12,105,-72,-43,-50,-37,19
1490138107131,-22,58,-90,-34,-41,-45,-18,-38,-10,44,19,127,127,10,7,-11
1490138107180,2,-36,-79,64,61,35,11,31,19,-3,29,76,-27,40,26,39
1490138107227,45,40,58,-70,-98,-4,3,49,-59,4,-64,-93,-53,-55,-5,-41
1490138107229,-15,6,46,104,72,42,9,1,-39,-66,47,-119,-89,1,4,21
1490138107276,2,-54,-89,-128,-128,-53,-18,1,-39,-39,-34,-3,-31,-19,-1,-28
1490138107325,-65,69,-47,-36,-48,-26,-12,-1,62,33,-100,-69,73,28,2,21
1490138107374,5,2,-39,76,14,-5,-1,36,-25,-42,-15,60,26,-19,-20,-16
1490138107423,51,-32,33,-17,52,-2,-1,-17,3,20,78,23,22,24,8,2
1490138107472,13,0,23,34,32,5,1,-38,0,-69,-88,-15,36,3,3,37
1490138107474,32,0,-45,33,19,-17,10,20,-55,-87,23,65,-20,-32,-18,-41
1490138107521,-13,-19,-39,-8,0,14,-8,-3,-4,33,-49,-38,-55,-22,8,3
1490138107569,-26,12,31,100,81,40,-4,-18,41,46,48,49,68,45,27,30
1490138107618,25,-39,9,-7,-42,-34,37,55,-40,-97,-79,-39,-21,-8,-30,-14
1490138107667,-20,27,26,79,26,19,19,-18,13,-54,18,22,50,29,16,13
1490138107715,38,-12,-57,-108,-99,-16,-4,17,-15,0,-95,-97,-99,-50,-19,-23
1490138107716,-11,18,-34,-14,0,7,14,29,17,30,22,29,46,14,0,-9
1490138107764,-2,-39,-25,17,5,6,1,0,-1,1,23,27,-3,-29,-17,-10
1490138107813,-29,38,-72,-91,-22,-19,-8,-24,-16,57,19,-73,-58,-13,5,-3
1490138107862,-12,-1,-36,-30,-14,-31,1,11,9,-20,-13,0,16,13,7,-43
1490138107911,-9,-34,10,22,-26,-28,12,-29,29,-20,10,16,5,2,11,25
1490138107913,-2,11,-7,9,13,-27,14,11,2,-28,5,-24,-24,12,-4,12
1490138107959,-6,-57,-3,-16,-21,-8,-30,7,21,-92,-9,5,2,-3,21,-12
1490138108008,6,-20,-30,-2,15,16,-11,25,0,-1,13,7,45,43,18,6
1490138108057,13,-6,6,-27,-5,-34,34,44,-4,39,45,-23,-6,24,-7,-52
1490138108105,75,77,36,-31,23,27,-8,65,4,-28,6,14,-5,-24,-4,18
1490138108154,-12,-84,11,23,16,-11,-20,12,11,-6,23,23,34,52,28,-13
1490138108155,0,-56,-8,6,30,34,0,-22,0,116,-9,4,5,-13,-8,38
1490138108203,-6,35,-33,-9,-41,-41,6,0,-9,-32,33,18,-4,-11,-12,-24
1490138108252,-11,-6,28,21,3,39,16,10,-8,-7,-2,20,16,-18,-11,-17
1490138108304,-8,-52,-14,-10,-27,-30,-7,64,22,31,35,19,23,-1,19,-12
1490138108348,20,-78,13,-3,6,-30,5,51,-10,-18,-75,-50,-13,6,-24,-35
1490138108349,-10,7,-45,-15,-3,-21,-12,-14,-5,33,-8,-4,2,-14,-9,-6
1490138108398,-3,-61,-6,10,30,38,-4,2,-1,127,15,10,44,21,12,13
1490138108447,-1,12,2,6,-13,19,7,-5,-1,10,-7,5,2,18,45,-3
1490138108495,2,1,9,16,20,-2,-31,-3,-11,27,10,3,20,13,-23,-3
1490138108544,1,22,-8,-8,-11,0,11,7,7,3,7,6,-2,0,-7,7
1490138108592,-2,8,7,0,-7,-5,-7,-7,1,0,0,2,-3,3,-4,3
1490138108595,2,4,-8,-3,-8,-1,2,2,2,1,2,-3,-3,-5,-4,-5
1490138108642,-8,-2,2,4,-2,2,6,7,17,1,1,2,0,1,-3,-10
1490138108691,24,-4,-1,-3,-1,-4,-6,-8,-10,13,-1,-2,0,-5,-28,3
1490138108739,-6,0,-2,0,1,-2,-7,6,11,-4,-1,1,2,1,1,-5
1490138108788,1,-6,-2,-1,2,9,-8,-12,8,-3,-1,-1,3,4,-1,2
1490138108836,-1,-1,2,-2,1,-1,-1,-3,0,-21,-6,-3,-5,-1,-6,0
1490138108837,-1,-5,-2,4,0,-2,-2,-5,-2,7,-3,0,-4,-2,1,-5
1490138108885,2,-2,2,2,-5,-23,-14,-5,2,0,2,-1,-1,18,4,-1
1490138108934,2,11,1,-2,2,10,-6,8,-1,-8,2,-1,-3,-8,-1,1
1490138108983,-2,-4,-3,-4,1,4,5,0,-2,6,1,2,0,-3,-5,-9
1490138109031,2,21,2,1,-1,-4,6,3,0,-3,0,-4,-6,-7,-5,-4
1490138109034,-3,0,0,-2,-2,-2,4,-3,-3,4,-1,-2,3,-2,-20,-2
1490138109082,-2,-7,-3,0,1,0,-11,-3,1,2,-3,-2,2,3,0,-1
1490138109131,0,-1,0,-1,0,-4,-6,-2,0,2,0,-1,-2,-2,5,-4
1490138109178,-16,5,-2,-4,-3,-4,7,3,41,10,3,0,1,0,-10,-6
1490138109226,6,-6,-3,-1,2,3,-2,1,-2,6,-2,4,0,3,4,-2
1490138109275,-25,5,-2,0,-4,1,-4,0,24,3,2,3,0,3,10,3
1490138109276,-7,-6,-3,-2,-1,0,1,4,7,6,0,0,0,-2,-5,-2
