1490138740930,-34,26,-83,-80,76,9,-32,-28,-24,16,-4,-13,-92,-31,-4,2
1490138740978,10,-128,37,53,3,-12,2,59,23,75,30,59,31,23,0,-22
1490138740980,77,56,25,62,42,-3,-1,-24,47,-113,-47,31,66,1,10,30
1490138741027,-88,-63,-62,-126,-106,-5,10,-35,-27,-65,73,127,127,30,0,5
1490138741076,11,-55,-38,-57,-9,-30,10,33,-11,-23,86,37,-102,7,-29,-18
1490138741125,-1,44,-37,-128,-90,-43,1,13,20,-19,-28,126,127,26,-3,-3
1490138741174,-16,-4,-107,-106,-22,-62,-2,-65,-32,-48,13,-28,-82,-20,-28,-65
1490138741222,-10,50,111,-92,-97,34,6,49,54,17,-24,112,127,65,5,-5
1490138741223,-17,-6,48,72,62,37,18,-10,-80,-16,4,71,37,52,18,77
1490138741271,-69,16,-20,-110,-126,-108,-103,-43,61,12,76,42,25,20,38,63
1490138741320,50,-49,-83,-108,-79,-106,-34,71,-35,3,-2,-43,-93,-23,4,-8
1490138741369,71,3,-25,127,127,41,17,-46,-13,-44,12,-128,-118,-54,-29,-44
1490138741417,-10,27,80,51,65,90,15,7,14,1,15,26,55,32,35,29
1490138741419,-67,49,56,5,30,11,-1,28,-22,-38,28,50,26,74,66,23
1490138741466,-31,-35,-70,-103,-90,-58,-6,-13,-33,-62,-38,68,-15,-23,-21,-42
1490138741515,-18,-86,-113,-47,-12,-107,-26,-21,-30,31,55,15,121,56,-2,-29
1490138741564,35,78,127,127,127,101,17,78,-5,-40,-1,-113,-84,12,32,-27
1490138741612,49,23,-74,-128,-128,-25,-25,0,-27,-25,20,43,-7,-5,1,-15
1490138741660,-42,-70,-128,-128,-121,-92,-45,-79,-5,-15,105,85,127,107,-20,34
1490138741662,6,5,-41,-93,-17,-28,2,39,-59,-58,-119,-107,-128,-122,-51,-40
1490138741710,-22,27,78,-105,-58,-55,-3,-7,26,30,-11,127,127,62,41,-30
1490138741759,7,-7,43,-54,53,117,-8,-14,-15,-3,77,66,25,-11,-13,35
1490138741807,4,-15,-74,46,-29,-74,8,18,-6,-8,33,27,81,16,15,-24
1490138741855,2,-3,-71,13,-57,14,6,-9,-14,-24,-59,-39,-63,-56,4,-29
1490138741857,4,-23,-38,-15,-44,-42,11,22,-11,5,-32,11,-24,30,-80,-16
1490138741905,30,19,23,-97,51,-31,-16,25,-3,-3,37,-83,60,66,27,-16
1490138741954,-13,-8,7,-15,46,50,-43,-38,13,-6,36,19,-13,-77,-3,11
1490138742002,-11,-15,-38,-114,-14,27,53,16,1,11,23,-1,34,13,27,-3
1490138742051,6,-6,-37,-90,-39,39,2,21,5,-3,-5,-1,-31,-14,-37,-5
1490138742099,0,-30,-58,-103,-92,-22,9,-23,-22,-23,-3,113,127,52,7,1
1490138742101,-9,2,1,75,0,-1,-4,7,-1,10,11,-1,-2,-35,-17,-14
1490138742149,-52,-18,-6,-75,-76,-120,-4,-9,4,21,90,127,127,127,47,10
1490138742197,10,-25,-63,-128,-128,-104,-51,-8,-20,-101,3,127,127,127,27,-8
1490138742246,38,30,13,30,-110,-108,-61,-26,30,19,56,-102,78,100,56,18
1490138742295,39,-51,-61,25,47,53,95,12,-34,69,-39,69,6,12,5,5
1490138742343,-58,-59,14,109,55,-32,-10,-11,26,-60,-62,19,43,-105,-61,-18
1490138742344,-28,-67,-54,-67,-25,-38,-73,-64,24,20,-117,-71,-2,-49,-22,1
1490138742392,-45,13,0,-72,-34,-39,-32,15,3,51,117,127,127,42,-17,-1
1490138742441,39,-29,-91,70,36,10,-23,14,22,-44,32,18,-79,-95,-21,-51
1490138742490,-23,23,-90,-127,48,25,7,60,-3,-57,8,33,-60,27,7,-8
1490138742538,44,47,-35,-30,-72,-40,23,16,-65,-36,25,-109,-23,-68,-47,-75
1490138742540,2,-84,-13,47,97,-5,-11,-21,-43,31,-49,-102,-98,-11,-10,-27
1490138742587,8,62,104,86,100,59,62,65,-11,-35,-102,127,127,55,35,32
1490138742636,36,44,64,62,57,-4,-35,29,16,9,82,71,15,25,4,36
1490138742685,86,40,-99,-128,-121,-14,11,42,-62,11,-78,-6,45,-62,-53,-31
1490138742782,-54,-16,-39,18,27,-16,-14,-8,99,39,-15,53,47,22,-26,8
1490138742783,-25,-1,92,9,0,11,2,8,-32,-12,112,63,-31,-1,-16,-29
1490138742785,54,106,-98,95,80,-37,-45,-38,-43,-75,-108,-120,-121,-57,-11,43
1490138742831,-41,-55,-5,-97,-75,-27,-22,31,3,-38,-120,-43,-26,-9,-9,-11
1490138742880,20,7,-43,18,53,16,-11,16,-49,-13,82,93,106,15,19,-22
1490138742929,33,34,-59,-27,-7,-70,-57,-14,-15,39,-10,16,20,33,32,47
1490138742977,-79,-8,-46,63,58,12,7,-13,87,-26,57,101,78,23,7,60
1490138743025,62,63,-87,95,87,20,55,87,-83,58,-71,-128,-22,-34,-39,-91
1490138743027,-4,-90,16,82,81,32,-8,-11,-25,30,106,-96,-74,-1,16,-25
1490138743075,-12,77,65,-115,-59,13,5,-3,18,-84,-69,23,-22,37,23,98
1490138743123,-2,-32,-56,25,26,-31,-36,-12,5,-55,21,-59,-31,6,21,11
1490138743172,-40,-1,71,77,68,0,-6,-30,-27,11,-47,127,47,23,-8,-10
1490138743220,-34,28,33,-6,127,48,31,-8,23,13,-128,60,-15,0,-3,65
1490138743222,-72,-48,-24,-89,-128,-73,-34,-106,-40,-12,-88,38,127,-9,-1,2
1490138743270,-8,20,-38,29,127,44,1,-47,34,26,-55,-112,-128,-55,-20,26
1490138743319,-15,48,-42,-49,87,14,-7,-62,-1,-46,-111,-128,-80,-34,-39,4
1490138743367,22,8,-109,-77,-73,-32,13,4,2,38,127,30,47,44,-2,46
1490138743416,59,-31,79,61,10,-42,-6,-5,-52,29,88,-49,-103,1,-13,-98
1490138743464,-77,-58,-14,11,22,-87,-53,-29,-38,80,15,127,127,45,25,-39
1490138743466,-8,1,14,83,-128,-17,-13,-58,36,64,71,-18,-82,1,13,59
1490138743513,40,-2,-53,-69,0,-57,59,3,-10,-102,-85,-50,-63,-55,26,31
1490138743562,14,10,32,-128,-128,-74,-31,113,44,68,5,109,119,69,45,1
1490138743611,19,-63,-97,-82,-9,68,33,26,-50,-29,-69,-95,-128,-125,-62,-62
1490138743660,18,73,127,25,-10,46,29,3,59,106,127,63,47,109,108,78
1490138743708,24,3,0,-9,-1,24,-18,36,-9,-11,54,123,42,14,-31,21
1490138743709,1,15,42,79,48,-8,-1,7,33,53,68,60,65,75,21,31
1490138743757,-15,-62,-123,-20,-4,1,-17,-52,8,34,-4,35,71,67,-7,63
1490138743806,25,33,57,-66,19,53,22,35,15,60,120,70,57,50,33,20
1490138743855,-3,-16,-72,-72,-2,16,-12,-8,-10,-17,-61,-62,-24,-108,-11,3
1490138743903,-12,23,-66,-104,-60,-66,-5,-9,-6,-36,34,65,100,127,32,12
1490138743904,9,18,21,95,117,3,33,-26,3,-27,-17,-32,-13,112,-21,16
1490138743952,-3,4,25,81,35,0,-6,-3,6,-6,36,33,2,-56,7,-26
1490138744001,15,-4,6,41,33,52,37,22,3,-5,-6,5,0,-56,20,17
1490138744050,-15,4,-22,-111,-26,-25,-21,4,4,-3,13,43,38,127,-6,35
1490138744101,-37,-24,-16,-26,-57,-85,2,-18,22,6,-12,-39,-53,46,-7,11
1490138744147,14,-3,10,19,-5,-105,-7,12,-6,4,-1,-8,39,2,-28,-14
1490138744149,13,17,64,127,122,71,15,-9,-13,-9,-64,-123,-111,-51,-28,-16
1490138744196,1,7,19,34,37,49,-19,-4,-1,9,-7,73,96,-23,12,-6
1490138744245,3,28,104,127,127,93,17,-5,-34,17,-11,-128,-115,-26,17,-12
1490138744293,-2,-12,-73,-128,-109,-20,-23,-12,7,9,98,127,127,42,-2,1
1490138744342,-50,-72,-45,16,-70,-116,-29,-59,23,29,70,2,25,59,-1,7
1490138744390,14,52,127,127,127,96,28,36,-22,-53,-119,-128,-128,-125,-34,-11
1490138744391,29,37,108,21,-50,98,32,36,-7,17,-38,-58,-67,33,16,6
1490138744440,2,54,28,19,71,-4,-33,-7,10,-27,65,-74,42,64,30,20
1490138744489,-20,-35,-78,-54,-90,-107,-58,-36,-8,13,125,110,64,39,53,-23
1490138744537,17,23,92,105,119,17,-6,26,-37,5,16,127,115,78,31,-11
1490138744585,-6,68,5,-81,-48,63,54,42,24,47,28,-27,-4,-18,-2,-19
1490138744587,59,46,82,127,125,58,17,53,48,32,65,60,98,46,26,20
1490138744635,-28,-75,-62,-4,29,-3,5,6,2,31,79,59,-10,-7,-10,-11
1490138744683,16,16,73,115,112,77,32,50,-16,-70,-128,-128,-70,-78,-17,-28
1490138744732,12,-32,-49,-11,7,-27,-15,6,0,7,68,97,94,33,3,-27
1490138744781,0,65,88,20,-52,4,20,31,5,-44,-102,-96,50,-5,21,-5
1490138744829,3,63,72,51,35,4,6,20,-61,-47,36,118,127,49,3,-77
1490138744831,-7,70,36,127,127,71,6,21,1,29,14,-107,-128,-24,2,-37
1490138744880,-98,-54,100,9,-31,-41,-55,-94,30,-8,-66,127,91,85,80,81
1490138744928,-10,-25,-48,-70,-43,16,23,14,-6,-56,73,-28,84,49,16,36
1490138744977,7,11,-5,27,-93,-24,-2,-9,-27,5,43,12,-61,-28,13,-7
1490138745024,16,73,12,-38,-88,-7,-3,20,-47,-12,15,9,-40,-43,-13,-8
1490138745025,-11,-51,53,29,126,40,47,-12,-1,62,-24,41,39,16,1,-10
1490138745074,45,83,33,-66,-76,-14,-28,-17,47,4,22,70,110,29,26,112
1490138745123,-21,20,-6,-73,-68,-32,-13,-56,-60,-66,-121,-64,-109,-63,-27,3
1490138745171,-8,-48,-15,127,81,18,26,16,-8,51,-81,-128,-54,-3,-10,-13
1490138745220,48,26,54,127,60,42,27,41,-77,-24,-21,-79,-58,-10,18,11
1490138745274,17,33,99,101,13,10,-22,-13,-1,30,-21,127,127,35,-4,21
1490138745277,-42,9,-21,-47,-78,-40,-25,-28,8,27,61,17,-14,-25,-18,4
1490138745317,-55,-72,64,-63,-62,-37,-27,-98,5,-31,14,94,71,38,54,-3
1490138745366,30,-116,-128,-128,34,5,-11,33,-9,-75,-68,-94,-89,-21,-12,15
1490138745415,15,34,82,-25,-51,-1,-34,-3,38,-24,-128,-114,-16,-45,-22,-14
1490138745464,-64,41,-33,32,127,29,-5,-68,11,7,-2,-19,-70,68,31,3
1490138745513,4,-47,-58,-62,-82,-38,-22,-54,-34,93,-9,-17,34,-16,-13,35
1490138745518,120,112,124,127,-69,-18,19,73,-64,-37,40,-64,-27,-28,-90,-102
1490138745562,-17,29,80,36,-7,87,107,16,6,-14,-110,-4,-128,-38,-36,-17
1490138745610,-48,-65,-99,58,38,13,-23,-76,73,34,127,67,64,55,85,74
1490138745659,-17,26,99,73,14,-35,25,-18,-53,-10,-128,-128,-33,-52,-44,-21
1490138745706,61,-75,-72,-128,-125,-35,-31,42,-76,47,-14,55,7,9,9,20
1490138745708,-2,-4,-28,-51,-26,15,-5,30,-36,-7,97,-37,20,42,19,-69
1490138745756,11,72,57,4,-7,1,-12,16,64,28,16,-2,13,41,30,18
1490138745805,-21,28,72,127,127,44,-3,-30,18,38,75,127,127,127,66,31
1490138745902,28,18,33,42,78,-34,-14,10,5,-60,-128,-128,-128,-73,-66,-23
1490138745904,13,-14,-59,-127,-115,-46,8,-9,0,16,105,77,60,40,19,27
1490138745950,-36,-75,-110,-128,-128,-113,-53,-41,1,-10,-50,103,71,-105,-21,-21
1490138745952,25,36,45,-8,17,59,64,80,8,-47,5,3,51,53,17,-5
1490138746000,2,34,85,59,-5,-50,-8,-15,19,0,-23,-60,64,16,24,33
1490138746049,-28,0,72,92,93,104,1,-19,6,-17,-25,-51,-61,-11,11,16
1490138746097,14,10,9,83,59,-8,3,33,-15,-15,-63,-119,-59,-29,23,-4
1490138746146,3,-17,-49,-83,-103,-76,-13,-6,-10,6,15,56,-11,-118,-2,-22
1490138746194,-5,-8,-45,-88,-128,-128,-19,20,-8,-5,-8,-61,-59,45,35,-21
1490138746196,1,9,-7,9,-19,17,-1,-18,-1,-6,-47,-93,-93,-16,-53,30
1490138746244,6,-17,-38,-40,-39,-75,-6,20,-13,-17,-1,3,21,4,35,-24
1490138746292,-16,5,21,7,30,8,27,12,16,20,26,31,9,45,-59,22
1490138746341,9,11,19,60,97,91,42,2,7,-7,-26,-53,-113,-90,48,30
1490138746389,1,1,-4,2,-26,6,-17,10,-2,0,-7,-79,3,-6,-9,-7
1490138746391,4,-4,-33,64,45,-23,13,6,0,-6,-2,-78,66,80,22,7
1490138746439,-27,-55,-93,-123,-128,-114,-26,-53,-15,-11,-16,77,97,-49,-16,-24
1490138746487,-31,-24,-45,-123,12,-21,-9,-18,-23,-16,-54,-111,-110,-128,-1,-31
1490138746536,46,35,98,55,42,55,-6,7,2,-9,-99,-50,-3,-14,-5,2
1490138746585,-18,15,60,127,-77,-56,-21,-26,34,37,73,9,74,25,17,17
1490138746633,6,24,90,87,127,94,37,18,14,7,-60,-54,-33,-22,3,7
1490138746635,19,46,89,55,81,58,-18,10,13,-19,-32,40,-11,6,28,14
1490138746683,5,7,-52,-29,-32,-14,-17,-3,-17,-9,-5,-65,-97,-50,-5,-14
1490138746731,28,82,122,108,113,91,25,24,31,23,-43,59,75,60,9,17
1490138746828,-16,-17,16,85,66,-23,8,10,41,-33,-63,42,127,42,3,24
1490138746829,-16,-58,23,-47,-86,-4,19,76,-11,-18,-44,-94,9,-50,-42,-74
1490138746877,-58,-18,43,37,-82,-90,-55,-59,8,30,76,-53,25,36,19,37
1490138746878,-33,-57,-37,-70,-60,-27,-1,7,39,40,-27,6,-21,15,3,-4
1490138746927,51,63,80,21,-23,-15,-14,13,-12,-28,99,127,59,30,53,-12
1490138746975,-5,-3,-128,-60,-48,-14,-19,-31,-14,-6,-19,74,88,70,9,11
1490138747023,4,-4,17,42,27,-2,2,6,-9,32,118,50,34,-11,1,2
1490138747072,-84,2,41,85,14,33,-18,-30,87,-34,24,-5,-70,-4,1,-18
1490138747073,20,3,61,20,43,-6,-5,39,-65,-4,51,40,15,-21,-9,-53
1490138747121,92,23,82,61,9,9,28,31,-22,-26,41,-74,-56,0,-12,2
1490138747170,-53,-60,-95,-128,-26,16,8,16,-8,37,-2,-89,-106,-66,-16,16
1490138747219,-7,-5,-13,-100,-119,-62,-15,-19,78,-19,0,3,-22,-28,-18,-1
1490138747268,-39,42,94,-8,-37,0,-13,-48,80,69,92,8,51,5,20,76
1490138747316,-56,30,95,97,29,51,8,15,18,-3,-2,55,60,33,2,-57
1490138747317,-45,-51,-114,-97,13,8,27,-20,-34,7,-23,-108,-28,-24,-28,-4
1490138747365,-72,-64,18,28,-22,-16,8,-55,-15,10,-34,46,-2,23,-1,-26
1490138747413,-58,10,118,14,-1,-5,-8,15,67,-5,-57,-9,43,-6,4,-10
1490138747462,67,15,-47,-26,82,57,24,-1,41,47,26,10,6,11,5,48
1490138747511,11,80,6,-71,-71,-49,49,37,47,-109,-115,-66,24,-13,7,-68
1490138747515,73,3,91,120,55,51,-3,23,1,-17,100,52,1,32,14,-14
1490138747561,-77,9,17,-58,-26,-27,-76,-33,0,21,64,-22,-8,18,75,58
1490138747609,4,-54,-15,-7,-62,-63,-38,1,-4,-34,93,64,73,-17,-40,-39
1490138747657,-20,62,111,54,80,19,49,-25,3,-128,-121,12,-58,-24,-38,-2
1490138747706,-30,-9,1,-23,13,38,10,-57,64,9,1,109,127,-21,-48,-13
1490138747754,0,9,-43,74,8,4,-39,-128,1,-40,33,5,-31,71,60,73
1490138747757,53,91,87,91,0,88,29,58,46,48,32,98,127,58,34,-60
1490138747804,-5,-3,45,65,105,19,1,-69,20,23,27,-67,-5,12,-15,-6
1490138747852,90,-20,5,-49,-74,-36,28,34,-85,26,40,-37,-8,-8,-28,-7
1490138747901,-115,-25,-120,-128,-97,-52,-1,-1,14,-2,36,67,54,-19,17,1
1490138747950,31,83,127,-72,-31,38,22,16,-27,-95,-128,-107,-100,-79,-16,13
1490138747998,50,-31,-94,-40,-19,-77,-23,-33,21,-12,-75,-52,-38,-18,-13,-16
1490138748000,7,61,84,-89,-88,-121,-57,18,-20,20,29,97,101,22,28,-9
1490138748047,-15,-35,-6,124,127,-17,-34,-65,-21,-2,-38,-128,-128,-50,-9,24
1490138748099,53,-62,-50,-88,-107,-28,52,38,-93,-81,-8,71,69,-11,-19,43
1490138748145,-35,-6,-3,23,55,22,-23,-47,31,29,62,127,127,45,18,20
1490138748193,-49,37,79,46,54,47,16,-20,35,-59,-91,-85,-68,-13,32,20
1490138748195,16,12,59,-45,88,29,5,24,6,4,-15,-15,-128,14,44,1
1490138748242,-4,-13,16,25,-119,-4,2,23,24,18,13,47,51,-45,-26,-10
1490138748291,5,6,6,31,-18,16,-19,-6,-18,-16,-10,-52,118,119,-20,19
1490138748340,16,6,5,17,48,-48,-21,28,-2,0,13,-37,-43,-25,46,13
1490138748388,-6,18,-9,7,-30,-6,-5,-17,-4,-15,49,101,57,70,-12,7
1490138748436,8,34,33,32,103,-52,-67,16,3,14,-57,-75,-83,-27,37,-12
1490138748485,13,0,-14,-12,-99,-38,-2,44,-21,-45,-22,-69,-98,-128,-71,-49
1490138748487,-11,9,-39,-40,-49,-78,28,-15,26,-23,16,24,53,55,12,3
1490138748535,-2,-8,17,2,36,47,-47,-38,7,28,-17,-9,-13,37,-25,9
1490138748584,10,1,26,12,16,-22,33,-8,-2,8,-21,-16,-3,54,24,-22
1490138748632,3,24,-4,10,29,19,-11,8,21,-5,-17,12,-23,-36,10,8
1490138748680,9,-1,-39,-72,-44,-34,17,38,12,19,46,67,91,55,0,6
1490138748683,-5,-20,-8,30,9,-12,-5,-9,4,18,29,13,-8,-44,8,26
1490138748732,9,11,26,98,60,-25,-10,-19,-14,1,30,-40,-8,-48,-12,-18
1490138748780,-19,52,37,28,44,45,-4,-9,15,-22,83,127,116,57,-3,24
1490138748827,-11,-5,-44,-128,-112,-91,-28,3,-6,-16,14,61,-3,-10,-31,21
1490138748875,-2,9,117,89,12,43,28,-9,-10,10,-43,-128,-125,-101,-35,10
1490138748973,-11,6,75,127,127,88,9,-22,-1,63,34,-3,-98,19,41,-14
1490138748975,-49,-59,-128,-128,-128,-107,-37,-19,-7,4,83,127,127,51,15,12
1490138748982,-29,-15,-105,-72,-107,-104,-32,4,-13,-45,0,31,70,-66,-30,-22
1490138749022,-12,2,50,-44,-41,21,-8,17,16,23,-77,-63,-44,34,-1,-11
1490138749071,-4,7,-30,71,47,-2,-14,-13,-27,-90,-113,-82,-72,-115,-76,-6
1490138749119,17,51,-31,-98,49,-37,-7,25,26,3,86,92,126,94,41,-8
1490138749120,-21,19,-25,5,-69,-17,44,-18,13,0,50,67,-5,-26,-3,21
1490138749168,68,-4,59,90,59,91,39,20,-36,36,33,29,22,66,30,-23
1490138749217,-13,-14,69,105,32,18,-16,-16,29,32,32,80,36,41,12,55
1490138749266,68,24,11,-70,-15,-2,28,38,-80,-9,-94,-91,-77,-49,-24,-12
1490138749315,23,75,-2,108,72,-13,-17,17,-40,-56,19,73,66,5,-27,-31
1490138749364,-26,30,-37,-99,-48,-25,1,-15,-34,-7,-49,-35,-88,-13,-26,-41
1490138749367,37,-58,100,76,45,-13,-8,-68,-99,-7,-8,-128,-11,-51,-14,-27
1490138749412,-16,-5,-54,-123,-92,-4,7,12,28,4,55,127,127,43,26,24
1490138749461,71,118,10,27,31,20,18,17,-12,60,59,-26,-128,-12,-5,-20
1490138749510,-42,7,43,6,1,11,-30,-31,3,-1,65,-1,-58,-31,33,-1
1490138749558,-42,-109,-128,-114,-54,-77,-84,22,-37,-40,-79,-18,3,-34,-10,-13
1490138749560,-21,-1,-90,31,84,41,33,38,43,34,-128,-71,38,-13,-25,-13
1490138749607,1,-62,-31,74,20,32,41,-25,29,66,31,14,25,17,-15,33
1490138749657,-87,-6,19,46,99,20,2,3,-63,-36,-102,-98,-128,-60,-31,-66
1490138749705,8,-41,93,-9,13,-19,-54,15,-51,59,-14,-10,-22,54,60,-23
1490138749754,-4,24,-128,-51,22,-6,19,89,-15,58,125,-74,-104,-36,-17,-43
1490138749802,25,36,81,-77,-128,-62,-24,-11,-21,16,-69,11,15,-22,-11,27
1490138749804,5,-37,121,127,86,29,-27,-2,69,58,116,127,127,65,45,26
1490138749851,50,-55,-19,-80,-58,-8,-19,-42,-24,-31,-58,-102,-21,-51,-22,-28
1490138749900,29,117,127,49,-101,-16,-28,-75,-88,-88,59,53,127,-23,45,60
1490138749949,33,48,2,92,59,1,-37,-116,33,25,-29,-97,-72,13,31,116
1490138749998,26,-94,-83,-106,-104,-42,-6,11,28,-51,22,-54,-31,-84,-84,-61
1490138750049,-80,15,54,-114,-72,-122,-69,-47,5,-50,23,99,107,29,9,4
1490138750062,45,127,127,55,-13,6,12,80,-71,-16,-119,-25,-26,-14,-31,14
1490138750096,7,-22,-71,-90,-128,23,31,5,49,35,127,127,127,109,24,10
1490138750143,-2,85,-7,-85,-118,-69,-43,6,-20,-32,-23,109,55,68,7,-7
1490138750192,-62,-13,82,127,127,51,-24,-42,35,-40,-120,-125,-69,-42,-3,50
1490138750240,36,50,105,122,127,99,29,54,-21,26,56,127,101,45,15,-25
1490138750241,76,117,10,36,127,127,116,30,34,-77,-92,-128,-113,-18,19,45
1490138750290,-7,-44,-4,127,-108,-99,-52,-39,0,24,-7,-74,88,67,28,7
1490138750339,17,11,-46,95,127,50,27,34,-74,-2,-62,-128,-128,-82,-62,-68
1490138750388,-5,-24,-69,-51,-93,-99,-4,-21,5,4,2,106,119,113,22,-11
1490138750436,0,39,111,80,107,77,-17,-12,-28,7,-85,-98,-121,-128,20,7
1490138750484,-5,39,50,-9,42,21,-52,5,25,-7,-49,-49,-7,34,57,51
1490138750486,-7,4,27,17,28,-5,-10,-15,17,27,78,-38,14,53,25,24
1490138750535,1,3,-92,-88,-4,3,59,35,-12,-30,16,-36,-7,-1,-9,-26
1490138750582,2,-3,50,62,35,-69,-7,38,2,-5,5,8,-8,-36,-4,-15
1490138750631,12,-5,-76,-76,-87,-69,-37,-36,1,21,57,39,58,10,13,-27
1490138750679,-6,-27,-9,11,9,-13,-34,17,9,0,15,18,38,34,49,0
1490138750681,22,11,-6,-2,-53,-11,-24,27,-21,-18,-4,-14,-19,-36,-7,-10
1490138750729,-2,-56,-22,-26,-55,-74,6,0,-7,27,6,62,44,-11,8,-15
1490138750777,10,6,-53,-110,-45,17,-21,18,-7,-23,-21,-65,-77,-49,2,4
1490138750826,0,16,23,15,-3,22,-4,-2,-6,-17,-9,75,14,-16,-31,-10
1490138750875,12,-3,8,86,2,-10,10,-26,-20,-7,38,46,80,79,-15,7
1490138750923,0,11,35,7,30,10,-58,3,6,44,61,119,37,8,45,-4
1490138750926,2,21,28,43,99,29,69,6,-4,-7,-14,-17,3,-35,-56,-13
1490138750972,-36,-27,-76,-113,-104,-70,-53,-58,-20,-62,-93,-66,2,-62,-20,4
1490138751021,14,56,127,91,127,85,52,18,-3,-25,-89,-128,-128,-114,-33,-15
1490138751070,-10,40,73,106,56,-34,-18,-32,-17,-14,-92,-128,-128,15,-1,28
1490138751119,-14,7,-61,-17,14,18,-10,-17,13,-6,8,-25,-34,-10,-7,-4
1490138751167,7,-61,-92,-87,-34,28,28,12,-4,-16,-6,-80,-102,-44,-13,-12
1490138751169,2,8,18,70,17,61,12,-16,14,-5,-57,-82,-19,-8,-4,9
1490138751216,-20,19,110,62,50,-11,-19,23,12,-22,95,83,93,92,21,-19
1490138751265,-1,-12,29,-108,-126,-16,43,-3,14,14,-82,117,69,22,-28,39
1490138751314,-65,-72,-106,-99,-97,-45,-22,-32,7,21,73,42,52,10,2,-6
1490138751362,11,-10,-103,-65,-109,-50,-40,7,7,-14,-116,-7,-1,-60,-6,14
1490138751364,-70,3,28,127,127,107,15,-16,76,90,127,-57,-51,67,35,15
1490138751411,-47,-58,1,-54,-68,-75,-31,-12,-55,-71,-23,3,-31,-32,-31,-32
1490138751460,18,32,85,-85,-83,-32,-14,-10,24,4,-73,-111,-49,-45,-5,13
1490138751509,-26,26,127,124,-58,-5,3,16,-9,-12,41,-89,13,-27,0,-12
1490138751557,-31,37,-4,69,110,20,9,-38,-28,-10,-61,-77,-91,-61,-32,14
1490138751605,21,-16,-40,-7,103,41,6,-34,-7,-18,4,-10,-18,22,-8,54
1490138751607,-2,-57,-111,13,45,-13,-17,-31,-13,72,100,25,-19,-23,-25,-54
1490138751655,28,119,65,30,34,13,7,48,-40,-91,0,-31,6,12,-21,-28
1490138751704,-79,-37,6,-44,-2,-72,-26,-100,12,-11,68,81,23,-8,5,15
1490138751753,-50,75,55,73,114,36,1,-18,57,-39,114,127,30,30,-9,68
1490138751850,-9,-50,-128,-100,-102,-34,-3,-37,5,2,68,-57,-45,-20,-12,-18
1490138751854,61,52,92,126,98,69,72,45,16,-99,-128,-120,-103,-38,6,27
1490138751857,15,-12,12,48,7,-5,8,11,-7,-7,-7,-65,-1,-13,-16,-1
1490138751899,-5,-47,-128,-16,20,10,6,70,-6,51,56,99,46,29,3,-44
1490138751947,18,-41,-65,-128,-125,-61,-47,18,-38,59,-15,27,-25,-62,-39,0
1490138751996,-84,-47,-18,-128,0,-28,7,-32,-56,-3,72,103,57,9,-19,-39
1490138752044,-1,43,-98,127,-2,55,12,-16,72,58,65,-128,54,50,20,95
1490138752093,-7,69,89,94,-65,-32,-30,24,45,51,84,-6,-55,21,5,50
1490138752098,-31,26,52,36,70,13,16,-36,15,-40,-113,-107,-22,-74,-48,-27
1490138752147,-52,54,-28,13,63,33,21,-6,57,-31,104,-9,-37,73,36,12
1490138752191,3,24,-88,-24,30,-15,9,10,-17,59,127,127,65,58,29,-7
1490138752288,-37,-65,15,-104,-128,-23,31,-19,77,-19,-8,127,127,24,10,21
1490138752337,-56,-81,-22,-15,-105,-74,-47,-34,24,-94,5,-25,93,-22,-16,-83
1490138752339,-54,-128,-128,-128,-128,-128,-69,16,-26,81,127,21,-33,-17,18,-18
1490138752340,-2,9,-128,64,85,39,7,-47,-30,54,127,103,-50,20,-33,17
1490138752386,-6,-6,-36,-37,-79,-83,6,12,9,3,50,-25,-32,-33,-27,8
1490138752435,39,94,49,21,-73,46,2,4,-25,-97,-55,-128,-116,-128,-16,10
1490138752484,30,54,127,125,127,127,62,44,21,27,-29,-46,-112,-7,30,30
1490138752580,-13,-101,-128,-126,-88,-23,27,-5,-25,45,41,10,31,-19,-51,57
1490138752583,-15,-22,-79,-88,-128,-43,-34,-3,-8,-20,-36,-54,-9,2,43,-4
1490138752584,4,-22,-63,-105,-128,3,-17,-51,-2,18,127,50,-11,3,29,-118
1490138752630,2,-5,-15,41,108,-1,8,58,-24,-2,-16,-27,-67,-5,-20,-56
1490138752678,-6,-16,-31,-21,-1,22,-17,-13,-5,15,45,12,14,10,6,-42
1490138752726,-8,-32,-42,-19,-62,-100,-23,36,-4,25,30,11,38,-26,-67,-42
1490138752727,15,-17,-34,-39,-19,-71,-15,-19,0,65,83,34,7,37,93,15
1490138752824,-22,16,26,47,48,19,-36,-52,37,-19,10,5,59,20,-50,19
1490138752825,3,39,36,98,127,9,2,-8,-10,-13,-38,-36,-88,2,-51,31
1490138752873,10,-29,-21,-25,-67,-40,46,-10,-9,18,-11,19,36,21,4,-19
1490138752922,-3,-13,22,54,48,51,3,-4,3,-13,1,-32,8,47,-16,-4
1490138752971,5,11,15,-7,-3,18,3,23,2,-21,2,39,36,28,-7,16
1490138752973,4,36,32,95,5,-10,45,18,1,67,-7,-77,-69,-6,7,-29
1490138753020,-4,-16,36,29,124,69,10,-24,11,4,42,126,115,76,-9,8
1490138753068,7,37,59,127,103,55,-12,-3,17,48,65,-78,-13,21,27,-41
1490138753117,-14,1,7,12,35,-25,-27,-16,18,-19,72,58,45,-6,33,47
1490138753217,-25,-28,-88,-78,-98,-94,-40,-26,1,38,91,39,50,4,16,-19
1490138753218,30,32,34,81,68,-10,6,58,1,44,127,95,112,115,64,-27
1490138753220,-27,-62,-22,10,53,-18,-62,-25,3,-6,36,84,39,-41,-13,4
1490138753264,-4,36,94,-8,17,9,-7,-33,-23,-73,-84,-29,-86,-11,-8,-60
1490138753312,7,16,-22,105,54,-6,5,38,-12,18,123,127,127,78,13,-45
1490138753361,-28,86,-71,-83,-69,-75,-18,10,-20,57,72,-89,-110,-36,-52,-52
1490138753458,12,-39,25,38,56,68,17,54,-17,21,65,51,40,71,52,-24
1490138753459,50,-28,71,105,78,37,20,16,-27,-20,-18,127,120,64,14,-26
1490138753459,-31,-40,60,8,-10,32,16,58,14,-1,5,-93,10,13,-2,-6
1490138753508,30,31,42,-122,-94,-23,50,115,1,5,-4,-86,20,-22,3,-107
1490138753556,-34,37,25,-25,-9,-4,-28,-96,20,-42,-97,-83,75,2,14,124
1490138753653,35,25,84,103,34,82,18,-45,82,88,74,88,127,30,42,90
1490138753654,25,26,-57,119,88,52,18,16,-40,-27,-2,-31,-96,-27,-32,17
1490138753654,27,-24,-35,-128,-75,-32,10,33,-30,-24,28,-22,-23,-18,-15,-23
1490138753702,-88,-27,56,-65,-112,-98,-18,-107,8,54,21,91,62,36,18,11
1490138753799,-19,34,57,81,-1,-2,19,70,27,4,-87,3,-24,1,18,-8
1490138753801,15,-19,-91,127,15,30,27,61,3,-58,-6,-87,-94,10,17,44
1490138753897,2,-54,31,-100,-35,-25,11,-34,6,13,0,116,45,-18,-16,-78
1490138753901,-5,15,-29,-102,-13,-32,-31,2,-13,25,114,20,23,26,-17,-17
1490138753902,31,39,1,21,-22,17,3,-23,-24,9,127,18,27,-35,-8,12
1490138753947,-11,-83,-8,-78,-103,-43,1,7,-11,121,-31,-58,-25,6,9,-31
1490138753995,-5,-81,-126,-61,-41,5,1,16,-8,54,3,-98,-90,-87,-46,-16
1490138754043,-5,-51,-107,-31,-31,-44,-8,-4,14,10,100,63,44,17,6,24
1490138754140,-6,34,-10,-71,-42,-44,-18,-63,20,-68,-69,-20,41,19,14,34
1490138754141,13,33,-45,-22,-20,-57,-38,39,-42,-44,18,31,-69,-28,-28,-29
1490138754142,36,80,25,-37,-77,19,11,-21,-4,-47,45,127,94,97,57,28
1490138754189,42,-33,-22,-61,-23,11,35,122,-27,-18,63,28,46,-21,-35,-34
1490138754238,-4,-7,80,45,-10,-35,-2,24,-26,40,13,77,79,0,-11,14
1490138754290,55,-60,-17,98,107,55,37,33,-8,-9,-2,-118,-104,-57,-37,38
1490138754336,-28,56,107,127,35,58,27,-52,94,-34,-46,-128,-44,19,21,44
1490138754339,5,-47,22,68,-59,-13,-3,-33,-57,35,5,-128,-52,-63,-63,-80
1490138754433,-55,-22,45,107,110,6,3,-31,72,42,66,-23,-63,77,44,-47
1490138754434,69,46,-99,-67,-88,-37,-9,-10,-94,-70,6,-128,-110,-66,-16,32
1490138754482,-59,-47,-31,-128,-88,-5,-32,-52,37,-30,-10,127,108,-19,-2,35
1490138754530,-24,-61,127,127,127,126,23,38,17,-75,-128,73,99,66,17,-38
1490138754531,27,25,-55,26,124,28,3,-1,-27,-36,-128,-128,-125,-118,-35,-18
1490138754581,-61,1,-57,127,-85,-55,-40,-75,10,-65,-112,-127,-106,3,30,81
1490138754629,2,9,18,110,95,-3,-17,12,4,36,103,58,56,89,57,21
1490138754677,-23,-37,37,47,35,0,-15,-19,-65,-29,-84,-100,-82,-58,-14,-109
1490138754726,25,-12,-75,-43,-46,-10,23,-1,-6,-53,-107,-39,-57,-38,-4,17
1490138754823,53,110,127,127,127,127,56,8,-5,-29,-101,-128,-128,-91,-53,-4
1490138754824,-19,-64,-97,-119,-108,-85,1,-77,-4,20,95,-12,117,15,1,22
1490138754825,9,-35,-28,53,-115,-39,25,6,-12,7,15,80,59,-18,-25,10
1490138754872,-3,25,106,79,82,102,-13,-3,18,-1,-19,0,-52,14,-11,40
1490138754921,8,3,11,-27,30,39,-17,-4,-21,-20,-69,-102,-103,-25,-17,-45
1490138754970,-21,-25,-16,-66,-89,-22,-23,-23,-7,-9,-2,-14,-33,-61,8,-2
1490138755018,12,26,27,14,76,68,-5,44,-16,-53,-94,-113,-101,-31,-15,-37
1490138755020,-10,13,4,30,69,73,-10,10,-3,-14,-15,-21,-64,-62,-10,7
1490138755067,14,-11,-27,-12,-24,-11,8,26,-15,23,9,1,26,77,-31,-12
1490138755116,-5,56,40,73,66,-24,-22,-13,13,-15,-3,22,40,-41,13,38
1490138755165,-11,36,28,-9,-53,-108,-30,-17,-6,0,5,-5,-24,43,21,-14
1490138755213,-23,-20,-44,-128,-26,-40,-24,-29,15,36,29,125,72,19,-16,20
1490138755261,4,-4,5,77,77,83,10,-18,1,-19,-8,-47,-53,-70,-19,9
1490138755262,22,-4,69,-31,61,61,10,43,-20,-3,-77,-64,-83,-45,-27,-32
1490138755311,3,-10,-22,33,62,-10,10,7,-3,-20,-13,-91,-73,16,14,5
1490138755360,-20,-58,-84,-128,-126,-55,-40,-15,-8,-2,22,55,51,24,-1,22
1490138755408,18,42,74,101,29,69,33,10,-33,-45,-110,-102,-90,-78,-53,-60
1490138755456,5,42,124,67,61,71,11,-11,24,12,58,-45,89,84,12,24
1490138755457,17,-7,5,-128,-78,-24,10,21,-3,55,65,127,74,75,29,-4
1490138755506,12,60,64,2,24,48,17,14,26,33,-6,71,56,50,9,17
1490138755555,-12,-64,-121,30,32,-20,-8,-6,-14,-28,1,77,-88,-63,-23,-28
1490138755604,42,-64,-21,-5,12,39,17,38,-38,-11,-75,-26,18,-13,-14,-8
1490138755653,10,14,107,49,32,88,8,3,-6,-26,-120,88,57,-78,-14,-45
1490138755701,-40,8,84,-66,-9,33,-7,-16,36,33,81,55,-25,-19,5,4
1490138755703,-35,-30,45,26,81,50,2,24,60,80,90,114,-50,20,13,-8
1490138755750,-35,-37,-128,-71,-122,-128,-15,-3,-38,12,-62,-26,103,57,-20,-27
1490138755798,17,-64,60,127,-33,-25,-5,-3,14,57,100,34,23,-60,-28,-31
1490138755847,-32,-78,-26,-124,-91,-46,2,-18,-25,9,-44,-117,-93,-32,-29,21
1490138755895,-19,19,-67,-79,-31,-23,-2,-19,-35,100,127,107,26,26,9,43
1490138755896,-19,-4,48,-67,-46,-13,22,9,23,4,7,-5,36,-8,-5,-23
1490138755945,-64,-55,64,46,63,36,2,-15,85,-9,-8,67,59,43,21,16
1490138755993,1,-5,-107,5,-31,4,39,-42,-5,-4,115,-64,-80,-9,-7,-5
1490138756042,-3,22,19,19,39,-9,-41,-36,30,-1,66,98,106,68,60,39
1490138756092,-6,11,127,100,28,-34,-35,-5,24,-84,-106,-82,-28,-12,-7,22
1490138756142,-44,62,-128,-125,-124,-62,18,100,54,-45,-128,-82,-53,-97,-18,-15
1490138756144,-31,-128,-38,48,121,60,24,-27,-2,3,-50,-113,-128,-27,13,21
1490138756188,-25,-2,-33,-49,-96,-54,-9,14,83,91,21,40,7,0,-2,-42
1490138756237,30,54,127,111,108,17,-21,-11,7,40,59,11,69,50,62,55
1490138756286,14,-5,76,125,83,58,17,-10,16,10,47,-2,-25,6,28,0
1490138756334,19,127,90,-27,-49,-13,-10,-2,9,2,-71,65,85,-2,-8,24
1490138756335,-30,-51,58,31,-27,13,3,-36,-29,59,57,127,127,11,-29,45
1490138756383,36,50,72,-68,15,-33,-21,41,-1,33,109,17,54,14,2,-12
1490138756432,-50,-109,-76,-22,-63,4,-10,-46,48,87,81,77,54,43,26,-61
1490138756482,41,13,9,-128,-110,-17,10,21,-42,-56,-35,1,-59,4,15,20
1490138756531,33,-58,3,-85,61,17,-26,52,-8,-49,-103,-62,96,38,16,-2
1490138756578,62,104,127,-28,35,66,56,-1,-58,63,-125,-128,10,9,-23,-16
1490138756581,-1,-100,-33,-39,42,-12,8,97,68,28,-37,55,89,67,10,25
1490138756635,-19,25,98,-65,-128,-47,-15,-21,-39,-47,-64,-55,63,-17,15,40
1490138756676,-35,-14,-44,-13,-19,-79,-19,9,-72,-35,-92,-79,-66,-56,-41,-23
1490138756725,-11,54,108,127,73,10,14,-36,40,-38,-62,-68,18,16,0,0
1490138756773,3,-32,-26,56,107,19,-6,-63,-6,35,27,108,107,34,6,-36
1490138756821,-42,0,108,59,50,71,-9,14,-48,35,115,-50,-64,-23,27,-24
1490138756822,17,-81,-29,20,16,106,-6,-27,3,-1,-4,-60,-73,-46,-23,15
1490138756871,25,-73,12,81,76,-12,0,-2,62,26,27,126,93,40,32,42
1490138756920,4,-49,-11,102,92,45,-4,29,-20,-10,-88,-58,-111,-60,-39,-17
1490138756971,4,41,75,-128,-123,-44,-14,-14,19,11,0,98,82,19,59,17
1490138757017,-12,-8,40,113,-62,-74,-38,-24,-4,26,88,111,127,69,14,0
1490138757020,-13,0,-96,-97,-90,-13,6,-4,-12,-43,-77,-92,-56,-6,-39,-12
1490138757066,-3,-29,-64,-103,-77,-43,-26,5,-4,-6,-18,-52,11,5,23,-13
1490138757163,2,5,26,17,28,66,-10,-8,-1,3,3,60,55,-7,0,-22
1490138757164,-12,5,-70,-87,-26,-51,19,-10,-14,-19,-82,1,-91,-31,-24,-16
1490138757213,2,15,118,110,127,68,25,-27,37,46,55,30,68,95,110,69
1490138757260,48,-6,0,12,37,89,-3,15,-6,-2,-62,-79,38,25,-35,9
1490138757261,-20,-42,20,-15,-118,-100,41,-38,19,-1,11,56,86,64,-19,30
1490138757310,29,16,21,-37,33,22,25,88,-26,-29,12,57,71,63,-50,-37
1490138757359,-7,0,-10,20,110,84,-22,-5,14,8,-5,-62,-39,8,14,22
1490138757407,-10,20,3,-3,-28,1,-11,-27,17,9,-12,-13,-5,24,11,18
1490138757456,-10,-41,-54,-94,-81,-128,1,-8,-15,74,24,66,-27,13,15,6
1490138757504,-13,-26,-3,15,42,-2,-32,-29,4,6,23,4,0,-28,43,-12
1490138757505,-7,-11,-35,-7,49,28,5,-5,14,24,70,127,0,-53,-17,0
1490138757601,-13,-25,-25,-31,-61,19,3,-1,-7,8,100,67,113,27,9,13
1490138757603,-19,8,-12,5,-5,-33,-14,-27,8,27,127,127,43,36,4,27
1490138757651,14,-20,95,31,80,61,17,36,-22,-21,-84,-28,-128,-112,-36,-58
1490138757699,24,57,17,-9,73,87,15,13,-4,-49,-112,-124,-121,-63,-37,14
1490138757704,-5,-28,2,46,43,-29,-26,-16,40,16,117,127,125,115,73,59
1490138757749,-20,-40,-92,-48,5,-74,-43,-23,53,72,116,97,99,107,64,35
1490138757800,-2,-40,3,-128,10,77,28,18,-16,-58,-57,-110,-109,-116,-28,-11
1490138757846,5,13,65,-24,-5,76,43,12,21,13,96,109,73,108,41,31
1490138757895,-14,32,71,61,72,1,-9,-8,-26,-48,-74,-114,-41,-59,-36,8
1490138757943,-20,-80,-117,-128,-61,-115,-37,-14,10,43,127,123,127,64,32,-52
1490138757945,26,-8,-71,-92,-128,-102,-33,7,-43,-11,-128,-128,-79,-60,-40,-12
1490138757992,-42,-27,67,5,21,-9,-18,23,-8,19,31,43,16,26,44,-58
1490138758041,42,91,82,117,102,83,34,17,-40,-64,-42,-93,-92,-64,-35,5
1490138758090,-70,-18,-23,3,-43,-78,-45,-65,-20,-20,31,6,-8,-32,-8,-8
1490138758138,-22,-70,-44,45,86,37,29,-16,4,6,9,30,-37,51,-4,-10
1490138758186,-3,87,-58,-50,-14,-12,-14,17,-71,-87,70,-40,-44,-25,-22,-56
1490138758235,46,9,48,27,-4,22,13,27,68,23,76,102,67,7,15,13
1490138758236,7,-23,-2,-112,-128,-92,-35,7,-69,37,89,-36,127,23,2,15
1490138758334,-27,11,118,5,7,19,-42,-49,30,-4,-125,-46,-49,20,35,30
1490138758338,69,89,113,119,102,62,56,73,-42,-46,-17,-70,-97,-27,-22,-22
1490138758383,-72,-16,-13,-106,-104,-36,-34,-50,76,52,-21,-5,111,-2,16,17
1490138758388,37,59,-20,-105,-36,10,26,31,-50,2,-13,79,-7,-6,-47,-19
1490138758431,0,-29,63,-6,0,20,-1,-11,-10,3,103,32,104,36,16,18
1490138758479,-12,-100,-128,-113,-95,-63,-23,-3,-76,-57,127,127,68,-40,-18,-21
1490138758528,-59,-25,25,-59,-61,-19,-32,-30,27,11,41,74,27,3,-3,-21
1490138758577,39,7,32,53,-5,19,12,14,-16,-41,-39,6,8,-5,8,-1
1490138758625,75,2,127,-5,-17,68,72,95,-27,-67,-89,-68,-57,1,0,-37
1490138758626,-7,58,17,116,68,12,3,62,14,2,89,64,42,47,-11,12
1490138758675,20,75,-64,55,109,8,-90,-50,-20,-6,-77,-113,-128,-51,27,-14
1490138758724,-10,-50,-61,-83,-36,12,-5,20,73,58,-6,62,-68,-30,22,-1
1490138758773,-83,-108,-73,-93,-19,-14,2,-64,84,66,67,65,52,96,-2,58
1490138758821,29,5,78,19,-41,-10,6,44,-91,-30,-128,-109,-96,-80,-20,-55
1490138758823,51,4,54,127,113,-18,-36,-25,-33,-6,-75,-82,52,35,38,-3
1490138758869,-93,-23,127,40,37,24,-31,-16,15,-70,-59,4,-72,-3,7,27
1490138758918,-29,89,20,53,30,77,36,-46,-25,-51,99,-102,-76,-128,-109,25
1490138758967,-78,-72,127,38,67,-9,-15,-10,65,-53,-117,36,-80,-23,11,55
1490138759016,14,-32,-25,19,-21,-49,-51,-8,3,25,10,-5,127,13,50,3
1490138759064,-6,10,-81,27,15,56,41,36,42,23,127,127,86,66,22,7
1490138759065,-42,-23,18,-37,-101,-95,-69,-62,21,3,59,-38,-30,70,33,-27
1490138759113,-3,-31,-69,-77,-107,25,39,43,58,62,-86,-9,-6,2,6,10
1490138759210,-12,-10,29,-89,-35,27,27,3,-11,1,59,-79,-47,13,18,-27
1490138759211,64,29,124,127,127,121,26,49,-7,23,-13,-73,-11,30,12,5
1490138759260,-15,-23,-41,-84,-104,-50,-36,-23,-6,0,42,46,9,-24,21,-43
1490138759308,-3,11,17,69,21,-32,-8,-17,3,22,61,83,97,79,24,21
1490138759311,3,-31,64,127,127,86,18,5,15,63,17,-80,-22,5,5,4
1490138759405,7,20,7,52,51,98,10,41,1,-10,-31,-56,-3,-43,-44,3
1490138759406,13,18,16,-11,31,20,89,23,-7,-24,-22,0,-3,22,9,-38
1490138759503,11,-32,-9,-15,7,-13,-33,-4,-11,-12,14,17,21,-26,29,-17
1490138759504,-6,13,-7,-30,-66,-52,56,6,-2,-33,-35,-15,-32,42,4,41
1490138759505,-5,18,2,18,53,6,4,6,5,-10,-15,4,18,88,-7,-18
1490138759555,-6,7,-4,19,-13,82,9,26,5,-7,6,15,-8,1,33,-25
1490138759602,-17,1,3,16,17,68,-38,-41,-10,3,-28,-8,-31,-128,28,31
1490138759650,-4,2,-13,-29,-37,-7,4,-26,11,27,17,67,127,127,-15,28
1490138759858,14,-14,-5,-3,-1,27,-19,55,-5,-13,-9,-26,-38,-74,-2,-15
1490138759860,-5,8,-10,-39,14,34,3,-6,2,25,7,7,-17,-17,-9,8
1490138759860,-7,5,0,41,-12,-39,-47,1,7,9,-11,-70,-46,-26,75,23
1490138759861,-10,16,9,-20,64,43,-7,-4,13,-5,2,104,-47,19,-23,12
1490138759892,-2,-11,-10,15,122,44,12,-11,5,28,78,89,73,41,-7,2
1490138759894,-13,-32,-64,-26,-73,-10,6,-8,-2,-1,10,-56,-24,-2,-23,-16
1490138759942,-7,32,19,-100,-127,-48,-39,-2,-37,13,-42,-128,-103,-73,-20,-47
1490138759990,20,54,60,81,-2,37,12,24,-27,-22,-79,-80,-114,-78,-27,-27
1490138759991,-6,0,-118,-124,-128,-42,-4,30,15,-14,12,127,127,85,-2,-3
1490138760039,-11,-46,90,127,124,94,29,-22,36,74,127,-28,-66,31,28,21
1490138760088,-10,-8,-49,-3,-89,-82,-31,-19,11,24,-5,116,126,68,91,-9
1490138760137,-10,-29,25,-56,-106,9,-17,-9,-5,65,99,108,96,53,-19,-11
1490138760185,-3,-67,-22,113,44,23,-3,33,23,22,-11,-50,74,-15,26,36
1490138760186,21,81,127,127,108,17,13,-31,11,21,-10,-31,-24,26,18,-28
1490138760234,-45,60,-68,39,41,-6,30,1,35,-24,127,109,-36,74,33,5
1490138760283,-45,-42,57,-28,52,-10,-28,-30,-25,-6,-78,-62,-81,-54,-41,-19
1490138760332,-5,-25,4,1,-11,-28,27,-13,-8,-33,10,-111,2,50,25,-18
1490138760381,-8,-3,-46,-85,-40,-36,-19,-22,-30,16,-24,36,-12,25,18,32
1490138760429,29,-4,47,-128,-128,-116,-38,42,27,-64,-128,9,57,-23,-19,-16
1490138760430,-6,-26,-85,-60,-122,-75,-40,-80,-74,-2,-10,-33,-23,-12,11,18
1490138760478,43,5,2,50,89,88,43,-3,6,48,127,15,127,79,-16,92
1490138760527,-23,33,77,22,49,22,-4,72,20,22,42,-76,-99,-17,-29,-26
1490138760576,-52,-1,-46,-78,7,37,40,17,33,-24,-59,16,-31,-29,-19,-42
1490138760625,-44,2,-80,-128,-57,-23,-12,36,81,-14,-72,-60,-30,12,19,-50
1490138760680,-22,-4,-45,-12,-2,-25,-36,-96,-21,24,-43,15,-5,5,25,40
1490138760681,14,-65,5,-84,-84,-103,-52,9,-54,60,12,-67,-74,-53,-4,-9
1490138760722,-32,1,-112,-106,-111,-32,16,-24,67,22,94,127,66,13,13,86
1490138760771,-17,-26,34,-61,-104,-45,-1,26,26,-83,-116,20,107,56,13,14
1490138760819,82,-55,8,-128,-23,-93,-55,-69,-22,-16,19,35,-93,16,8,-2
1490138760867,19,16,69,35,-50,38,19,24,-46,38,-28,-27,85,-6,6,42
1490138760869,13,45,-33,1,24,11,2,6,-15,74,41,-88,12,33,24,-7
1490138760917,21,33,-17,-54,-72,-4,18,-14,-28,-36,-72,-69,-19,-36,8,-73
1490138760966,-56,-50,65,26,-23,-24,-17,-11,24,-14,-115,-88,-109,-38,-8,-11
1490138761015,-9,55,13,48,35,-28,0,22,0,29,-25,-87,-64,-10,-14,26
1490138761074,-11,39,83,-12,26,49,1,-41,80,-12,-33,127,116,66,50,105
1490138761112,43,-102,-73,-63,86,-36,-7,-16,34,-10,25,-97,-128,-80,-22,1
1490138761113,-30,48,-121,-75,-128,-3,-3,40,-51,-42,-109,-126,-94,-88,-66,-9
1490138761161,12,-8,-8,16,7,1,3,-10,-19,46,48,127,55,66,27,-37
1490138761209,74,56,127,1,-85,34,15,-50,-1,-17,16,127,127,127,78,110
1490138761258,59,77,46,91,93,5,39,34,23,-34,-71,-87,-55,31,32,-6
1490138761307,-16,-3,-98,-106,-128,-62,-4,-101,-66,0,92,82,127,-2,27,57
1490138761355,-116,-128,-128,-126,-113,-96,-57,-39,2,126,127,127,119,47,-7,-26
1490138761404,9,-12,127,113,127,103,49,99,21,70,12,28,-51,-75,8,-89
1490138761407,-47,-101,-128,-126,-96,-110,-100,-78,4,94,109,119,113,28,44,29
1490138761454,11,64,122,127,-9,-7,-40,-19,38,3,-1,-128,-24,-31,28,55
1490138761502,-25,-10,15,-9,-53,-71,-54,-12,-2,-26,-50,-46,-73,8,46,21
1490138761550,-33,-3,-86,-78,-30,-17,-2,-14,10,15,-54,7,-12,-87,-26,35
1490138761552,-42,-30,-92,-48,26,-89,-38,-11,-6,-55,9,5,-61,6,21,-17
1490138761599,-2,28,8,90,18,-1,29,-2,-2,6,127,107,127,36,-28,8
1490138761697,23,6,-20,-40,-80,-41,-2,15,-13,6,6,-46,-31,-25,-2,2
1490138761700,7,3,25,65,47,51,25,12,5,2,-16,-63,-54,-52,5,2
1490138761746,-2,-39,33,122,127,43,-8,-12,18,42,111,122,104,127,18,-22
1490138761794,-17,12,24,5,56,-18,-23,-74,21,-9,3,-45,-32,9,69,48
1490138761796,-14,-14,-42,9,-2,-28,-9,0,-34,13,29,58,21,40,37,-74
1490138761844,24,-13,6,-21,-30,-50,1,-1,-9,-6,-39,-41,-24,-68,7,44
1490138761893,-28,3,13,21,65,94,11,-16,-4,-13,-28,-53,-85,-93,-97,-28
1490138761941,-9,19,-6,-3,-5,-7,40,15,-16,-29,-11,-11,-54,-59,-46,-21
1490138761992,-7,-36,-41,-32,-5,-26,-11,-35,-14,83,48,6,13,-5,11,55
1490138761994,7,-14,-21,-7,-41,-31,61,35,-2,-26,3,-2,24,21,-7,-28
1490138762039,15,10,34,23,32,81,-60,-18,21,-6,7,80,75,71,41,-6
1490138762087,-10,15,-35,-47,1,-14,13,-22,7,4,15,0,-34,-4,-21,-5
1490138762136,-14,3,21,11,-33,-13,-16,6,-4,-2,-42,-83,-52,-6,-13,-43
1490138762184,6,-33,-35,-69,-34,-2,15,-26,2,12,50,43,81,68,-24,29
1490138762232,24,26,76,-40,2,-16,-1,-6,-19,-47,-98,-118,-128,-117,-61,0
1490138762234,-1,2,-90,-102,-80,19,16,-26,-30,-28,-51,46,-128,-113,-69,-38
1490138762282,24,-18,26,-118,-94,-25,-2,26,-41,-43,-113,-52,-48,-114,-78,-61
1490138762333,30,38,127,107,108,61,45,22,-15,-27,-70,63,114,65,-10,34
1490138762380,-40,-83,-128,-128,-128,-105,-78,-39,-11,-29,-23,7,117,42,18,-23
1490138762429,4,51,43,127,127,32,12,9,2,18,127,-66,73,111,27,28
1490138762477,28,26,-4,-128,-128,-12,2,13,-42,-55,-95,107,64,-51,-1,-35
1490138762481,31,18,0,53,77,51,11,-1,-17,-104,-87,-111,-128,-117,-60,10
1490138762526,6,31,12,-10,39,86,16,20,18,54,12,80,-42,-71,-35,5
1490138762574,32,-10,89,-87,-55,74,70,53,-5,62,25,127,93,-14,0,-12
1490138762671,-96,-62,-88,-128,-128,-128,-52,-44,52,-59,48,75,75,5,1,-41
1490138762672,-15,24,56,127,32,-3,46,15,22,7,-38,4,55,-33,-18,-54
1490138762673,-9,-40,100,74,67,58,21,29,-5,-7,-66,-123,-103,-64,-52,27
1490138762721,74,67,16,-128,-103,64,37,38,4,-28,2,-1,-128,-91,-47,-16
1490138762770,97,-5,-6,-16,-78,-9,-15,-15,1,-93,-62,35,15,-43,-4,10
1490138762819,24,-13,15,108,-40,34,21,42,3,38,-13,-38,118,24,1,-35
1490138762867,36,12,25,-12,79,-41,-49,-7,-52,-48,-97,-12,13,-30,-8,-81
1490138762915,-25,-23,53,15,-30,-26,-57,-84,22,-25,-10,-67,43,47,57,126
1490138762916,-18,-48,-11,20,27,-16,-70,-35,54,70,127,26,16,65,66,62
1490138762964,8,21,-8,-122,-128,-69,-17,-72,-34,82,41,26,-48,-60,-50,-103
1490138763013,34,46,54,-46,-55,48,79,91,-65,-65,-84,-118,-116,-100,-25,-70
1490138763062,58,28,112,52,35,11,-8,57,-4,30,-54,96,116,10,-15,-29
1490138763113,-31,-41,-68,-6,-95,-28,-9,-24,25,59,68,72,50,22,-20,-48
1490138763159,-28,20,-17,-59,-114,-13,6,-17,29,55,95,87,127,68,9,58
1490138763162,-35,-36,-99,-9,-25,-27,-10,-2,51,29,-128,-128,-128,-39,-19,82
1490138763209,2,-128,-44,-92,-128,-23,18,37,13,20,-63,1,102,-27,-11,-55
1490138763257,-77,-57,-124,-36,127,36,3,-91,-25,102,127,103,-111,46,-16,47
1490138763306,68,-2,-15,63,59,-8,-34,-12,-34,-20,-49,11,-9,16,4,7
1490138763354,-33,-92,-14,101,42,59,6,-2,15,22,41,-74,-37,13,30,12
1490138763355,2,77,-100,-43,28,38,-36,-38,-49,-86,33,6,-102,-97,-54,-39
1490138763403,90,71,59,97,-1,30,14,9,-4,8,96,57,-1,35,-23,15
1490138763452,-48,-117,-55,-58,-8,-121,-79,-22,-65,7,127,86,87,66,31,-80
1490138763502,58,70,106,66,53,67,31,13,-3,15,104,127,127,83,3,29
1490138763598,40,-46,-51,-128,-9,17,44,83,2,16,33,-51,-1,62,20,22
1490138763599,12,-82,-77,-75,-63,-17,14,20,22,-76,-44,-72,-55,-89,-51,-48
1490138763600,-55,-33,-16,-56,22,-51,-6,-18,15,53,-27,-34,-77,-56,-37,-29
1490138763648,-16,-1,-7,99,0,-78,-68,-45,18,-24,-39,-26,96,2,7,51
1490138763696,-7,-12,-71,-14,20,28,-22,32,-34,29,56,127,127,-17,15,6
1490138763744,2,5,-25,-89,-45,24,7,10,-8,9,90,37,35,16,22,17
1490138763793,26,17,24,-5,74,47,-4,5,-37,-16,-79,-60,-64,-109,-25,-34
1490138763841,9,-30,-94,-81,-83,-60,0,-8,-29,-5,31,59,44,-41,-3,-70
1490138763842,7,-31,-113,-116,2,-32,-24,-16,-21,-11,22,42,-25,40,-27,-28
1490138763892,4,23,38,48,21,3,15,-15,-3,-12,-30,52,36,-49,5,18
1490138763940,-6,8,31,23,59,85,-22,-12,1,-11,-45,-50,-56,4,6,5
1490138763989,-17,-63,-24,-47,-92,-86,15,10,-7,20,2,-21,-20,-34,2,-25
1490138764037,1,8,-1,13,32,-40,-30,27,12,1,38,14,4,-44,30,14
1490138764039,1,7,-3,-10,-53,43,51,-22,1,1,-17,7,13,13,35,48
1490138764086,-6,12,17,8,17,37,-24,-56,-4,19,12,16,-35,-89,95,43
1490138764134,2,-15,-82,-108,-123,-124,11,46,-30,1,-22,2,40,39,-66,-59
1490138764183,15,4,6,-21,-15,-25,-2,3,7,18,2,1,25,35,10,30
1490138764232,-3,11,13,17,26,13,2,23,-12,3,0,-8,-10,34,-31,4
1490138764280,-35,-31,-12,21,-18,48,45,-23,5,17,10,38,44,16,-13,9
1490138764284,-22,-18,7,5,-22,4,-41,-25,22,-7,-35,-30,-28,6,47,-10
1490138764330,-1,4,3,4,-21,0,-35,-22,-13,-22,16,82,89,24,1,2
1490138764379,1,20,-57,26,-20,-4,30,-12,0,-17,2,-5,71,22,-36,8
1490138764427,-10,27,26,102,35,-2,5,41,18,40,105,127,103,75,-10,-15
1490138764475,7,22,54,17,99,104,17,22,-46,-25,-107,-128,-128,-110,-68,-37
1490138764477,-21,-64,-120,-89,119,29,9,-30,23,92,127,127,-71,11,-12,51
1490138764525,-26,-115,-128,-128,-128,-128,-97,-48,30,8,74,15,127,105,-7,33
1490138764574,-19,-25,-31,35,-64,30,5,-1,-28,-51,-79,-128,-72,-103,-37,-15
1490138764623,-22,12,44,-37,127,72,0,-8,-35,17,21,69,-27,2,14,-3
1490138764672,20,61,39,59,79,42,12,-22,55,6,35,82,-51,37,14,16
1490138764719,-14,21,125,53,91,85,20,10,-35,-24,-51,24,47,-10,6,-48
1490138764722,-14,8,17,-53,39,77,47,72,-69,-79,-76,-101,-38,-38,-2,-2
1490138764768,32,0,-3,-75,-31,-33,16,49,54,68,-2,11,113,58,12,35
1490138764817,75,-46,-35,-45,-42,35,-14,30,-34,20,9,-43,-104,-88,-24,-46
1490138764866,-69,-51,44,75,37,-64,-58,-55,88,69,117,116,112,85,45,104
1490138764914,-31,35,-44,-76,-116,-37,35,12,-30,-33,-20,88,44,-47,-31,71
1490138764963,-13,56,36,85,44,5,21,-18,9,44,110,88,24,17,-34,3
1490138764964,-39,-47,-48,-29,-75,-66,-43,-32,15,1,15,12,28,5,12,44
1490138765012,27,69,117,127,127,88,83,16,-59,23,2,-118,-122,-64,-45,-53
1490138765061,21,8,25,81,18,-61,-40,36,31,-41,-76,-85,7,19,62,37
1490138765110,8,114,-58,-91,-128,-59,-47,46,-51,-19,-58,-65,-89,-69,-9,-4
1490138765158,-40,0,-9,-46,-113,-57,-54,-67,23,47,-22,64,-59,31,60,72
1490138765161,-19,-70,50,47,34,17,-4,-31,10,76,26,73,52,-13,9,27
1490138765207,11,8,-37,38,27,10,28,-9,73,-77,85,-108,-65,-1,-3,54
1490138765256,69,-7,-6,47,54,-14,1,103,13,70,127,112,75,8,-4,-35
1490138765304,16,69,-46,-89,-65,-4,-3,72,34,30,60,33,11,-14,8,-70
1490138765353,-34,-27,49,110,-60,-39,-14,-123,1,-38,-31,-21,68,-3,6,-35
1490138765401,26,93,104,63,41,-24,-33,37,77,55,-41,-82,-11,10,25,35
1490138765402,0,-32,-87,-112,-75,-6,-26,-52,-21,14,-86,47,127,27,57,1
1490138765451,24,35,-14,107,127,78,58,-17,-2,-27,39,-126,-128,-89,-65,51
1490138765499,90,5,53,115,53,24,19,65,15,-22,4,32,123,65,38,16
1490138765549,-21,-76,119,127,127,34,-23,-44,7,60,-8,-101,-29,45,44,31
1490138765598,15,76,45,91,36,5,-6,31,16,-57,-128,-84,-13,-7,-38,11
1490138765645,23,-13,-21,127,127,-14,20,101,-101,8,-12,-128,-60,-53,-31,49
1490138765648,-33,2,44,43,40,47,-1,37,10,-100,-128,-104,-89,-8,22,38
1490138765695,12,-46,-19,-128,-128,-57,-73,6,23,-3,114,-47,67,28,49,2
1490138765744,19,-27,-66,-1,65,20,-41,-29,-1,55,-47,-118,-128,18,62,86
1490138765792,-40,-87,-87,127,104,-32,-33,-53,-2,-7,111,-23,-45,40,59,31
1490138765840,-14,-20,17,67,65,26,1,31,0,14,26,57,118,52,19,52
1490138765841,-20,-78,-62,-128,-128,-48,-4,4,4,25,56,127,127,2,-40,50
1490138765889,-21,-19,113,91,72,63,-19,-20,-27,3,-40,-58,-42,-46,-29,4
1490138765938,-6,22,-8,-67,-8,-10,58,22,5,7,34,43,117,16,0,-12
1490138765987,16,3,44,62,43,-7,27,32,-7,0,19,75,21,-5,6,-34
1490138766036,16,-22,-1,-21,49,115,-21,8,-26,-3,-24,-51,-71,-82,5,-15
1490138766085,2,8,4,31,44,-52,-33,9,-2,-22,-12,-15,-59,-42,51,-9
1490138766093,14,18,-4,-30,-85,34,25,16,9,21,16,73,96,-29,-18,-27
1490138766133,-15,7,16,1,21,12,-16,-18,9,-2,-20,30,82,-20,-10,3
1490138766182,-12,-4,21,-5,25,30,-21,-12,-8,1,11,34,32,127,6,8
1490138766231,6,-6,-1,-12,-43,-92,40,13,-5,1,19,20,31,43,0,3
1490138766279,4,23,13,-7,7,16,-9,3,-5,-5,-5,12,67,85,-1,30
1490138766327,-18,-5,-15,-50,-85,-82,45,-4,23,9,9,21,5,-21,3,8
1490138766329,11,-12,12,23,39,29,47,5,-7,0,-12,0,-7,-12,-16,4
1490138766377,14,-17,-1,30,57,17,31,23,-29,22,14,1,-15,-18,-33,-40
1490138766426,19,32,2,37,30,4,32,39,5,-16,6,-27,12,15,-2,35
1490138766475,8,-44,-23,-2,21,5,21,38,-32,35,24,16,4,11,-12,-19
1490138766523,28,38,-24,-56,-54,-7,-25,33,-25,-59,-20,-53,-77,-45,-33,-56
1490138766526,-10,4,-7,-31,-15,-8,32,-4,7,31,34,1,-55,-47,-22,-12
1490138766573,-14,-20,42,2,-1,-18,-24,-13,13,31,27,87,85,40,30,24
1490138766622,-7,1,-29,-98,-124,-100,-25,-13,2,-19,-21,67,110,15,6,32
1490138766671,34,12,3,-87,12,-34,21,27,12,-23,-108,-128,-27,-27,30,33
1490138766719,-4,-36,-15,13,-69,-95,-41,-24,-26,14,120,34,92,72,31,26
1490138766768,-18,26,75,89,127,83,41,11,41,127,127,127,127,127,64,68
1490138766771,-16,6,-12,-128,-128,-51,-28,21,-16,16,61,23,-67,-10,12,-26
1490138766816,-36,14,-88,-45,18,1,-30,-13,21,-16,44,40,50,34,-15,-26
1490138766864,45,-31,127,89,111,116,24,41,16,-7,-28,-96,-78,-10,10,21
1490138766913,30,42,-81,-14,0,51,4,30,24,2,24,5,-9,-92,-13,-14
1490138766962,8,9,127,127,107,71,21,10,26,21,25,-86,-87,-11,27,10
1490138767010,101,77,96,110,56,3,-9,32,25,91,54,7,-11,7,-11,21
1490138767011,57,-43,-51,33,18,-55,16,60,-74,-78,-112,-101,-82,-74,-36,-33
1490138767060,-42,-2,-37,-43,-102,21,25,-28,-47,-42,-59,-125,-80,-79,-23,13
1490138767108,-12,4,-8,72,70,29,-5,-5,16,70,75,71,71,80,66,32
1490138767157,-27,23,32,47,-31,-56,-16,-97,31,-24,-45,14,116,0,16,-16
1490138767205,-10,17,-115,-128,-128,-50,-50,4,-20,-39,104,63,26,-35,-4,-24
1490138767207,-13,-80,-38,44,95,45,14,14,-5,46,15,127,127,49,-2,-25
1490138767255,-24,-11,-4,4,-47,-10,-7,11,5,-10,55,68,39,25,3,-26
1490138767303,30,18,87,118,127,57,20,52,-36,-53,-70,-18,-17,12,8,-29
1490138767352,10,-54,51,53,88,37,12,22,22,66,-28,78,101,44,7,25
1490138767402,-2,-70,20,94,94,27,-6,42,-3,-17,-22,-104,-33,-3,8,-5
1490138767451,29,-9,-79,-113,-119,-37,-7,-8,-31,-2,52,-17,-41,-14,-15,9
1490138767453,12,32,17,92,5,3,11,12,38,-17,-37,85,92,37,15,39
1490138767499,-25,18,48,-47,-36,-35,-23,-24,-6,7,-40,56,-14,21,5,-7
1490138767547,0,-36,-76,-128,-69,-13,-1,45,16,-22,-60,24,37,-20,-7,5
1490138767596,7,64,15,46,29,5,11,-8,-21,-38,-30,-98,-128,-26,-11,-31
1490138767644,-16,-14,-27,-79,-6,-3,1,-15,-8,-51,-7,15,2,5,-7,-22
1490138767647,-26,-24,-32,2,-14,-6,-12,-56,34,-44,24,-4,15,24,7,42
1490138767693,5,-32,-76,-77,-7,-10,-1,16,-4,-8,14,-78,-45,-29,-14,-39
1490138767742,-6,-58,-9,41,2,-9,-7,-10,-8,66,67,92,61,20,6,-11
1490138767791,12,38,104,114,64,41,15,6,-20,-28,-71,-64,-26,-1,-3,1
1490138767839,-3,27,15,20,29,3,-3,-30,-5,-13,-17,76,16,11,3,-10
1490138767887,15,-64,-19,-85,-23,1,0,19,-18,22,-37,-45,-78,-40,-11,-1
1490138767889,43,-5,-79,-66,-4,-13,2,34,8,-55,-34,-53,-32,9,3,11
1490138767937,-13,21,-26,-29,-22,-11,-9,-39,15,-25,16,36,56,-14,2,28
1490138767986,62,-61,-44,-19,-4,-26,14,44,-13,45,27,17,-24,-4,4,-10
1490138768034,-18,-11,0,-14,-4,-1,-17,-15,9,28,-16,29,19,-12,6,33
1490138768084,6,-84,-44,-89,-47,-29,4,-11,12,57,-18,-45,-11,2,-6,15
1490138768136,-5,11,1,29,-4,-3,1,-62,5,8,-8,-53,-15,-16,-9,15
1490138768140,-3,21,0,1,-7,-10,1,-2,-23,-42,-24,56,35,13,-5,-19
1490138768181,-10,-27,-35,-27,8,15,5,11,-2,38,43,15,-4,-15,-5,11
1490138768229,29,27,-40,-19,-3,-34,3,8,-4,28,21,-23,23,-3,-3,13
