1490227838979,18,29,-45,-112,30,-90,19,-42,-27,-41,1,-20,-16,-5,-39,-18
1490227839027,21,-6,2,10,0,10,32,22,22,9,-2,-4,6,-3,-21,-2
1490227839029,-45,-21,-7,-14,-21,0,9,-22,-52,-20,-8,2,-14,-22,-36,-24
1490227839077,-18,-8,-1,9,-8,0,-9,-3,13,8,-3,1,11,17,19,10
1490227839126,-68,-5,-50,19,21,3,-2,-7,69,8,-21,-4,1,3,-4,3
1490227839174,57,7,6,9,-1,8,1,9,-29,2,11,5,6,-21,0,-10
1490227839223,-6,-4,14,8,-13,-4,-28,-18,-17,-21,-6,7,18,11,2,-14
1490227839271,11,9,0,-5,-8,6,81,16,-6,-5,-5,2,3,19,-9,6
1490227839272,-9,-18,-1,0,3,-23,12,-3,-20,-9,2,0,-8,-4,-12,2
1490227839320,-10,-2,1,11,9,5,-1,9,3,3,-1,7,10,-2,-36,-1
1490227839369,-40,-2,-3,9,-7,-16,24,-18,-50,-11,-2,-13,-3,-5,-1,28
1490227839418,17,23,-3,-6,-7,7,-7,9,-39,31,0,4,-3,-15,-21,-25
1490227839466,-11,-4,0,1,14,11,5,-9,18,14,3,-4,-5,-4,-19,-7
1490227839467,32,-8,-10,-10,1,-8,-50,-5,13,6,-4,7,-4,-1,41,-3
1490227839515,-36,-20,-3,-2,-3,-16,-40,-27,-6,8,9,13,-8,-4,34,-7
1490227839564,-21,-12,-1,-2,6,20,8,-3,30,14,3,3,-5,-5,-69,0
1490227839613,-9,-6,-5,-5,-6,-6,-34,-6,6,-7,-3,2,6,-9,-22,-12
1490227839662,1,3,3,0,-10,1,13,12,19,10,4,-4,18,-10,-67,-5
1490227839709,42,14,-3,5,8,15,-22,4,-32,-12,-19,-17,-8,-6,-15,-9
1490227839712,0,0,-36,-24,-12,-26,-18,-24,73,16,4,-6,-10,-8,-15,14
1490227839759,29,-20,-45,-36,-20,-16,-18,11,-15,-53,-16,-93,-32,-30,-82,-30
1490227839810,61,64,101,13,8,23,50,-3,-25,-22,0,53,-1,9,11,36
1490227839856,-50,19,-29,26,-1,32,56,-23,14,13,100,61,7,-10,11,-2
1490227839905,-128,18,-30,-56,-8,5,-77,14,28,1,-24,-6,-25,-4,65,-17
1490227839907,-26,-44,-49,27,-17,-23,-55,-47,57,42,-36,-59,-12,4,30,43
1490227839954,127,81,50,84,-20,-30,1,-11,-128,0,49,20,23,-1,-22,-39
1490227840003,-53,0,26,-16,-37,-37,-31,-69,126,22,127,102,27,6,-17,91
1490227840051,1,-34,56,-5,42,39,-22,4,-110,-51,-73,47,6,18,54,-39
1490227840100,-38,-6,51,39,11,30,-17,4,-64,25,-66,-13,-11,-11,-3,-28
1490227840148,14,25,57,85,27,8,6,3,109,55,-43,3,9,14,37,11
1490227840149,127,74,4,-29,11,33,64,-22,-81,-16,-52,61,24,6,-8,35
1490227840198,-46,-43,-128,-100,-30,7,34,-51,-120,-109,45,-79,-33,-20,-40,15
1490227840246,-62,-76,-94,-93,-83,-37,-17,-14,-83,16,48,23,56,46,24,66
1490227840295,96,127,-3,52,-47,-64,-32,54,-67,56,-21,0,24,41,60,55
1490227840344,127,-34,-12,35,0,8,50,32,-20,-64,-36,22,30,13,23,-25
1490227840441,-71,-83,-128,-120,-53,-18,48,5,69,-23,-79,-16,37,8,-81,-32
1490227840442,-106,69,57,18,-8,13,72,-3,-7,33,-33,-34,-9,-25,15,0
1490227840444,37,5,10,6,53,9,-83,35,101,67,55,67,35,16,104,14
1490227840490,-14,-128,-128,-119,-65,-11,-18,9,-49,7,-37,-61,-21,-22,-19,-47
1490227840540,71,-32,23,-14,-31,-32,35,30,87,104,121,64,-22,-9,35,28
1490227840587,-55,-78,-103,-110,-15,10,8,-24,25,43,72,-52,-25,17,29,24
1490227840588,51,3,75,90,16,-75,-12,32,-11,30,-12,-24,11,18,-27,-36
1490227840636,-12,78,90,47,47,18,30,5,-11,-28,-77,-22,39,39,24,22
1490227840685,38,20,85,88,-2,63,53,16,-30,-94,-128,-125,-5,-17,-12,-8
1490227840734,-2,-40,-11,17,23,-35,-36,-10,-10,22,9,-15,-52,-12,-26,-10
1490227840783,-43,-18,-93,-19,13,44,33,-24,2,13,-57,-23,-4,-8,39,31
1490227840831,-16,28,44,18,-38,-34,-94,-33,15,-10,-58,-16,-46,-44,78,54
1490227840833,-31,24,-3,-30,-26,-12,-2,-46,38,66,-22,-32,26,19,43,4
1490227840880,6,-30,-2,-39,-83,-20,-30,12,-12,-19,-4,4,53,65,-32,-17
1490227840929,22,14,-18,-40,16,37,-4,9,-15,19,8,20,-61,-37,-70,-20
1490227840978,-16,18,-8,47,-8,-83,-4,-8,4,-11,-17,-70,-102,-12,13,-26
1490227841027,-56,-35,-1,-83,-8,-11,-7,1,-20,6,12,-18,-22,-1,-6,3
1490227841074,9,-29,7,29,-25,44,10,22,-5,-50,15,9,-102,-39,-24,-25
1490227841123,0,-87,-45,46,-15,7,82,20,-32,-53,-51,45,34,41,11,-8
1490227841124,1,1,15,-39,-14,-8,-62,-11,-9,-6,-9,0,71,23,19,-10
1490227841173,11,-7,-36,-86,-93,38,-7,-1,-5,-7,-11,29,40,92,30,3
1490227841221,12,-13,-6,-5,19,-77,-18,4,0,-15,11,30,44,-47,-24,-8
1490227841269,5,16,0,-30,-22,125,57,3,21,34,36,50,-20,91,-98,7
1490227841318,5,-12,-3,8,10,9,-17,8,-7,-10,3,-26,-27,-71,9,3
1490227841320,33,12,10,8,27,-82,13,5,-21,6,-1,36,27,-114,86,-10
1490227841368,-22,-81,-26,-34,-25,83,-17,-7,-11,24,-21,-1,11,-48,5,21
1490227841465,-7,8,-10,-2,27,92,21,-9,60,-12,12,9,-31,78,12,55
1490227841466,-24,-13,4,14,17,110,3,16,-68,-27,7,23,17,96,25,-18
1490227841513,21,41,30,51,4,0,-37,-30,12,-20,-44,-70,-24,-95,10,23
1490227841515,-50,91,64,54,14,-94,-44,-39,-17,-46,19,25,-13,-22,-45,16
1490227841562,-30,7,-85,-29,5,-90,-4,-16,-27,-7,-8,-53,-25,20,-62,3
1490227841612,83,41,59,2,-5,-86,23,52,60,18,-39,-13,-21,-84,11,-74
1490227841660,21,-25,-47,-29,5,-11,-45,-11,-15,48,33,-6,0,26,36,-5
1490227841709,35,-83,-52,-14,-9,31,21,-23,12,-11,-46,40,0,2,48,9
1490227841757,17,19,-71,-51,-22,3,28,-4,18,39,-14,-36,-10,-1,-21,13
1490227841758,64,74,59,34,18,-6,-32,-33,5,50,43,74,33,26,-24,-31
1490227841806,59,9,-27,28,25,39,-4,-1,-15,-22,25,0,-15,-1,-12,-1
1490227841855,-97,-56,10,-2,30,-69,22,-44,34,37,47,54,16,-20,-22,10
1490227841904,-60,29,-30,5,5,28,37,-2,87,-8,19,2,-10,9,24,99
1490227841952,2,-10,-25,-49,1,14,-15,12,49,-3,-39,-5,-8,-1,7,-23
1490227841954,-128,-87,-5,3,2,-19,-13,-6,-32,-55,-7,-14,-27,-35,-3,-44
1490227842002,-69,48,13,14,6,23,28,0,-20,-29,16,15,4,-6,27,3
1490227842050,64,9,5,27,3,-6,-24,-28,-4,-14,-1,-4,-5,-23,13,1
1490227842099,-103,-70,-22,4,-7,-10,-44,-20,-10,7,-3,0,10,-29,38,13
1490227842148,-33,11,-3,-24,-10,-27,-1,1,-13,-4,-4,-4,14,42,12,19
1490227842197,-6,3,11,8,-21,-51,15,1,52,9,8,10,16,-78,-47,-3
1490227842245,33,13,15,7,16,50,38,18,-55,-20,-2,-12,-1,-10,-23,-2
1490227842293,61,11,20,29,18,8,22,3,-45,-33,-1,-20,-7,35,-26,-12
1490227842295,51,27,-8,-7,9,-15,-6,6,-44,10,-3,-12,-12,9,31,4
1490227842343,-47,-28,-7,-14,5,18,36,-15,36,-10,1,0,7,10,-7,15
1490227842392,-2,-18,-9,6,-9,-23,0,13,21,13,-9,13,-2,1,15,0
1490227842440,-5,-8,0,-7,-11,-16,2,-3,1,-19,-6,10,12,-8,20,1
1490227842441,-72,-14,8,-12,3,18,-29,-24,59,1,14,-7,-14,-31,6,19
1490227842489,42,21,-8,28,2,-1,-46,3,-60,-31,-37,9,-3,2,-43,4
1490227842538,78,3,-22,-11,-5,2,65,34,36,38,44,30,11,2,-1,10
1490227842587,-44,-43,-47,11,2,-13,-8,-5,-46,43,36,22,-1,-18,-14,5
1490227842635,19,-16,-11,-18,-1,6,27,6,12,-22,24,-21,4,5,2,-15
1490227842637,20,-28,-64,22,2,0,-10,46,-32,-48,-60,-55,-18,-33,-32,-60
1490227842684,-76,-48,-26,21,16,29,29,12,-82,45,-28,31,15,22,19,-31
1490227842733,-38,64,44,3,6,-4,-27,-34,5,7,-15,11,-8,-7,2,28
1490227842782,-20,-45,36,-19,-20,-16,2,-56,44,-36,-90,7,6,14,-34,83
1490227842830,-1,-45,19,-57,-3,-24,29,41,107,120,51,60,-3,-19,10,96
1490227842879,-70,-88,-118,64,-4,-19,-4,-16,77,54,-61,-79,-29,7,-23,46
1490227842881,57,-12,79,30,-19,23,50,15,-58,-13,127,91,25,3,-10,-18
1490227842928,93,-71,-63,25,-70,-21,-19,-15,67,55,79,87,40,-7,-2,-14
1490227842977,-50,70,43,-35,36,8,58,-54,-14,40,-1,59,-47,-28,-4,14
1490227843029,65,-24,-23,32,46,-14,6,6,-128,39,115,15,-7,30,49,48
1490227843073,-65,-18,55,-17,11,-3,-24,-19,-65,115,81,73,-20,17,42,55
1490227843076,-95,-114,-89,-128,-43,-50,-35,-10,20,69,16,95,3,15,65,10
1490227843122,-25,-43,127,0,-27,39,-15,-28,14,124,77,51,113,41,-41,24
1490227843171,-18,10,-64,-74,11,-24,43,53,-121,-128,-128,-128,-70,-27,-58,-76
1490227843220,-71,-98,-128,-123,-28,21,42,-15,-25,-17,127,-21,-91,-39,9,-5
1490227843269,-18,-69,-128,-90,-78,-47,-88,-40,19,-35,-36,-107,-59,-25,0,-20
1490227843366,64,32,54,76,21,-43,-38,37,-56,-76,-67,-83,-53,6,-33,-37
1490227843368,27,2,-43,-58,-13,10,27,-9,-34,-78,-23,-44,-15,-33,1,14
1490227843369,-8,54,105,-8,40,20,36,-8,0,-22,-75,-4,-51,36,-16,-10
1490227843416,-45,-21,-37,-81,21,-9,8,-23,63,84,109,85,3,3,6,28
1490227843470,-18,-17,-18,8,5,-36,9,-1,1,8,14,-11,-20,1,-3,-7
1490227843513,-30,1,-10,-13,16,-10,5,-4,22,11,6,7,-42,31,11,-6
1490227843561,2,19,40,38,27,1,-61,-2,-6,-7,-3,12,25,19,17,7
1490227843563,-33,-13,-10,-3,1,-2,-12,-24,-2,-4,-19,-54,-39,-14,58,13
1490227843610,11,6,5,-39,-94,-27,-9,-6,-8,-14,-10,9,44,-15,42,14
1490227843659,45,19,9,42,87,-26,114,29,-21,-27,-2,-11,-52,-86,-118,-41
1490227843708,-9,-2,10,8,50,-10,15,5,7,5,-25,-52,-3,-1,8,-6
1490227843756,-12,14,14,109,-105,-9,-6,-1,9,15,-18,-58,58,81,31,9
1490227843805,-69,-7,-29,-25,47,111,-83,-35,-19,20,-36,1,91,-51,-61,-16
1490227843806,5,-19,8,-15,-128,43,-6,-12,-15,-12,-1,9,58,100,-70,-34
1490227843854,-2,4,17,-19,-25,-128,77,20,1,-17,-16,-49,24,49,3,-12
1490227843903,-9,-39,-44,-79,43,123,-37,-11,20,-12,7,33,17,74,37,9
1490227843952,-1,6,26,31,-76,-113,-10,25,-1,13,-15,9,-10,28,75,3
1490227844000,-11,-3,-23,-2,93,110,-99,-20,16,-1,7,7,-9,-1,103,17
1490227844002,2,-8,-10,-33,-12,-97,-66,7,-7,-3,5,6,-10,-23,-128,-18
1490227844049,15,11,14,14,-51,-19,82,17,21,0,3,-5,46,-98,94,39
1490227844098,-13,-16,-13,-25,17,74,100,0,-5,16,13,7,12,39,-76,-11
1490227844146,-16,12,6,14,29,-92,91,-3,13,-24,-4,-8,-31,-49,-25,2
1490227844197,56,22,11,12,25,49,14,14,-55,-4,14,25,-22,68,-32,-19
1490227844243,-48,-45,-41,-47,-29,53,4,-19,48,-11,15,2,-13,13,-1,18
1490227844245,12,44,-9,-12,0,45,-16,2,8,-32,0,-26,34,99,32,26
1490227844292,-23,-50,-32,-41,-22,-114,-24,-38,55,48,-14,1,-6,-124,-41,-36
1490227844341,-93,-59,46,1,-12,-7,-28,-26,19,51,63,18,14,17,23,42
1490227844390,16,-104,-86,-30,-13,-9,-13,-18,-70,-39,-13,-34,-4,13,-23,6
1490227844438,51,28,39,31,9,39,-18,3,-46,-37,-71,-42,-42,-20,-4,-4
1490227844439,8,3,6,11,5,-9,38,5,-11,50,94,19,6,6,34,-16
1490227844488,90,73,-29,-26,9,33,11,16,27,-48,-57,11,-12,33,-27,23
1490227844537,-107,27,-37,-15,5,-24,-78,-8,26,21,19,-56,-11,12,58,-14
1490227844587,41,-14,-26,12,11,-34,-4,13,22,-38,3,-14,-13,-18,-12,-22
1490227844634,99,87,60,9,41,16,20,-8,-43,17,-13,-17,-24,-2,-52,-14
1490227844682,14,5,31,3,-37,11,-2,-5,-5,38,0,37,54,19,16,-24
1490227844684,27,-21,-11,-17,-20,-35,48,-1,-28,-21,1,16,-9,-30,9,17
1490227844732,-45,-28,-7,12,21,-8,-32,-14,-43,-5,-19,3,21,29,34,16
1490227844780,-15,-26,-15,-24,-5,12,15,16,16,-11,-14,-20,-14,19,-15,-7
1490227844829,-18,-16,-21,-9,-5,-29,-61,-12,25,3,-5,-41,-15,5,-3,-1
1490227844878,40,24,6,3,12,25,31,14,6,30,-2,-2,-13,-12,-43,-8
1490227844926,-35,-2,22,75,3,23,-10,8,-3,-4,13,54,-12,10,15,12
1490227844927,8,-1,2,-56,48,-13,9,-4,-16,27,11,-44,25,1,-32,1
1490227844975,42,-26,-12,30,-17,17,17,16,-11,-21,-12,41,36,-10,24,-1
1490227845024,-20,-14,8,1,73,52,8,3,-21,-75,-3,-53,-13,11,1,-5
1490227845073,-36,12,-13,-49,-16,0,7,-15,23,34,-1,1,4,3,29,2
1490227845121,-12,11,0,43,-5,-6,10,-19,-5,9,2,44,20,17,12,12
1490227845124,43,54,7,-7,-24,-13,-16,7,-11,14,-1,-24,-20,-9,-21,-9
1490227845170,26,11,-5,1,4,-15,45,30,23,15,-3,-7,-12,-2,-17,-8
1490227845219,-2,-42,-36,-14,7,14,5,4,-35,-13,-17,-46,-23,-12,-34,-24
1490227845268,-35,-48,-55,-49,-17,-9,-22,-14,76,-10,10,2,-2,-11,-90,13
1490227845316,-8,-42,4,8,2,-5,-13,8,33,47,34,38,0,-13,23,-7
1490227845365,-93,-4,-49,-39,-42,-28,-31,-33,81,71,21,22,22,33,46,43
1490227845366,75,84,13,40,2,-1,-20,-15,-35,5,33,-32,-15,0,45,-4
1490227845414,-85,-33,92,69,12,4,-23,-11,57,46,95,3,1,4,45,37
1490227845463,13,42,38,22,4,13,63,26,13,-32,49,17,5,-12,-1,-45
1490227845511,-1,-16,-2,45,-7,-13,-27,20,-69,-41,-31,-18,4,-2,3,9
1490227845559,-33,-9,-47,-20,-6,-11,14,3,-69,-42,-107,-14,-2,0,-9,39
1490227845560,5,-71,127,-2,5,18,-24,78,15,-40,-112,-53,-13,-14,6,-69
1490227845609,31,17,127,86,2,8,-22,5,-87,-8,-80,-38,-11,15,105,34
1490227845706,14,-73,-122,-47,-26,3,-73,22,-63,-7,-36,22,-10,-40,3,32
1490227845707,36,-32,-89,12,-6,-6,-8,-6,127,55,-17,27,-18,-12,-14,19
1490227845756,-21,-37,-72,15,-20,-11,31,-63,82,26,26,-44,-15,-16,-1,17
1490227845803,-7,58,35,26,48,-14,40,87,127,127,127,127,22,41,-14,4
1490227845804,-21,-24,-87,81,37,53,71,15,-62,-75,-109,-92,-73,-22,-51,-13
1490227845852,-81,-93,-18,-4,26,6,56,56,31,-60,-99,-73,-83,-42,38,-46
1490227845901,-66,-44,60,50,1,-40,-44,-29,-120,-103,41,-11,31,20,11,4
1490227845950,127,37,-128,-128,-28,-1,15,-3,-52,-39,-44,26,-29,-24,-2,6
1490227846000,-21,59,66,-51,2,51,51,51,-39,-28,-100,-1,18,-4,9,-9
1490227846047,39,4,-39,3,-29,-30,-16,-26,60,36,-29,-20,22,58,43,31
1490227846048,-44,-30,-60,113,25,-12,37,6,127,54,127,-78,-52,-42,-37,4
1490227846098,35,49,89,19,27,-16,60,1,63,20,19,82,-29,-29,16,25
1490227846147,15,20,22,-63,-9,3,-65,-3,42,6,-47,35,1,-2,118,30
1490227846194,-11,-33,-52,29,62,4,9,-6,14,-2,50,-41,-6,21,34,18
1490227846242,-3,34,12,8,40,-22,-16,-11,21,44,127,92,54,43,-19,0
1490227846243,2,2,-6,1,-4,13,7,-7,9,-7,-9,25,44,50,-79,-30
1490227846292,21,22,-19,-34,14,57,35,9,11,-2,-14,-26,-10,-11,-7,-5
1490227846340,-49,-38,-50,-37,79,65,-12,-8,-17,-11,8,7,-45,-12,30,-8
1490227846390,-10,37,17,10,-27,-25,-5,1,34,8,-28,-62,91,-14,15,16
1490227846438,8,33,-20,-70,-39,43,55,6,0,-12,-9,24,-4,-9,28,1
1490227846486,-4,-11,-12,3,-52,-92,39,-8,27,11,-51,13,-57,-37,6,15
1490227846487,0,29,52,39,-70,81,-59,-2,-3,22,24,15,20,75,-53,-13
1490227846535,1,42,-16,-9,-7,95,60,-7,-19,24,26,56,89,31,-6,-18
1490227846584,19,-6,5,-19,17,-48,-56,-18,16,-1,10,-9,-62,-110,-28,18
1490227846633,12,-9,1,-6,111,3,-31,21,-6,-34,-31,-58,-21,17,-14,-9
1490227846681,18,1,10,47,-61,-59,4,-2,-13,-6,-13,-33,68,17,10,-2
1490227846729,-10,-49,-30,-23,50,5,96,-20,37,-15,11,27,13,15,112,33
1490227846731,3,11,0,5,-24,25,-101,1,-7,1,10,-4,-43,-21,-75,1
1490227846779,28,0,-10,-9,-10,6,87,-2,-20,1,24,15,-40,-11,41,-1
1490227846828,-28,-19,4,-6,-19,-37,22,-10,44,25,-5,-15,16,-6,-8,-16
1490227846877,-40,-26,1,-8,-2,62,48,-12,6,32,-9,25,1,-120,58,6
1490227846925,11,74,55,27,5,54,12,9,-14,-30,-46,-26,12,111,-5,14
1490227846927,10,-49,4,-7,13,-27,-68,-4,-13,39,-39,10,-29,-58,127,43
1490227846974,-37,43,-10,2,16,87,2,5,26,-41,-1,0,10,47,-48,26
1490227847025,-2,54,-38,25,-50,-1,-5,46,6,-10,25,22,31,-8,25,-6
1490227847072,43,97,-13,-12,-24,1,26,43,46,-80,-113,-30,-5,-10,-15,-10
1490227847123,45,-39,9,70,8,-47,0,6,-24,5,33,-21,-12,-22,-7,-16
1490227847170,35,52,51,-14,-30,0,-14,-31,38,-12,5,74,44,17,20,28
1490227847175,25,109,-8,-18,18,25,7,10,19,-28,57,18,-9,-14,11,-26
1490227847219,38,69,46,52,13,27,1,-18,2,-32,-88,-52,-24,19,22,-1
1490227847267,-3,-16,0,-44,30,-4,-5,-20,-26,-42,-33,-19,-24,-38,32,-1
1490227847315,-93,-60,-104,-67,-18,2,-14,3,20,38,11,-26,-21,-27,-42,-14
1490227847364,-47,4,0,-33,-22,-42,-33,12,-71,-19,-12,19,35,57,48,-34
1490227847412,33,-2,34,16,10,12,-5,-10,0,-15,-23,-73,-29,9,-52,2
1490227847413,-37,-2,45,73,65,26,28,-9,40,34,-35,14,-10,4,-15,-4
1490227847461,10,-27,-3,-10,-4,15,14,22,-14,11,-10,-24,-14,-47,-19,5
1490227847510,33,-3,7,-15,-2,47,-17,-14,14,11,14,18,-17,-2,54,3
1490227847559,-17,22,33,38,4,9,27,-15,24,3,-16,-4,-11,0,-27,-5
1490227847607,16,4,-3,16,24,-15,-7,16,-42,-10,-1,2,-4,9,9,-14
1490227847608,-4,-22,-8,-6,29,-5,-19,5,27,-3,2,-16,-28,-9,-33,-4
1490227847656,36,0,-14,3,-9,44,33,20,-32,-16,-2,3,-26,0,-9,-12
1490227847705,-5,-31,-14,96,1,6,18,3,16,-15,-21,36,-49,-17,-28,5
1490227847754,34,-25,5,-32,-24,-10,-21,-3,-34,-33,-3,-12,8,-12,69,-8
1490227847803,-56,-10,-14,1,7,-6,-89,-29,29,17,-2,-20,-19,13,-28,15
1490227847851,24,-20,4,27,21,4,72,38,-19,-16,0,38,-2,-6,-104,-21
1490227847852,-1,9,2,-2,-33,-9,-3,-6,-10,5,12,26,42,23,26,7
1490227847901,-8,35,-8,9,29,1,-11,-7,-20,27,-6,-1,-16,24,42,-7
1490227847949,-31,-37,-2,-4,-10,-33,11,2,48,-5,5,-1,-41,-9,-46,3
1490227847998,14,-12,-10,-10,-8,2,-31,-7,5,0,10,-1,-12,-2,55,-3
1490227848047,74,17,12,19,12,9,12,19,-99,-40,-16,-8,6,20,23,8
1490227848094,-43,4,26,-12,-2,-13,16,-19,40,17,76,47,-14,-6,-11,33
1490227848100,27,-20,13,-5,11,-19,-61,12,2,-32,29,-29,-10,-11,8,14
1490227848144,32,-1,14,7,-16,-22,22,19,33,-90,-65,12,19,15,27,14
1490227848193,-7,34,-5,-21,-11,-9,-8,-25,98,65,37,13,-1,14,-80,16
1490227848241,6,-26,36,-17,9,17,80,-1,32,83,48,79,13,-13,-27,-44
1490227848291,-1,-38,-124,-33,-22,-19,-40,-29,69,-22,108,-51,-22,-35,-74,24
1490227848292,51,8,33,-25,-18,3,56,0,-117,-97,26,-12,-9,4,-19,-87
1490227848387,-98,-62,50,17,-10,-26,17,-21,-18,-13,44,-36,3,7,46,-8
1490227848389,-25,29,50,-66,19,12,23,-69,22,-77,-76,9,-1,-5,-5,-8
1490227848436,-6,-35,105,12,-29,1,-2,74,-19,-30,-84,56,-6,-5,33,-16
1490227848485,49,6,-65,60,-5,12,-94,35,67,55,47,26,8,15,-15,33
1490227848533,-74,-85,13,0,15,51,5,115,92,-34,-128,-86,-8,-13,67,-69
1490227848536,-6,-28,-98,-107,-43,-12,15,-10,24,114,11,-46,-65,-19,-20,2
1490227848583,-39,-18,78,56,42,-25,-38,-14,101,14,78,127,25,24,58,28
1490227848632,123,82,20,39,-18,-34,-37,-2,-128,80,57,74,19,26,-1,-3
1490227848680,21,-76,-113,-128,-68,-13,-17,-27,55,75,-12,85,-9,-41,-42,16
1490227848729,75,25,43,127,60,-10,29,9,-128,-113,-128,-86,-3,11,-16,-12
1490227848730,45,50,28,15,-10,23,17,-8,25,103,125,86,48,17,19,52
1490227848778,53,-105,-1,-128,-63,14,6,-1,-49,-48,-51,-84,32,0,-6,-22
1490227848827,-7,10,10,24,-14,-62,-38,-37,-60,-75,79,-63,-52,-63,-16,-11
1490227848875,-47,-101,3,66,13,-1,-9,-15,-1,-16,2,80,51,-12,6,19
1490227848924,-25,22,-24,-10,-46,-82,-15,-18,-17,-113,-128,-120,-79,-55,42,-13
1490227848972,14,14,102,-29,4,-33,-15,-4,35,63,77,88,10,76,58,22
1490227848974,39,-18,-116,35,37,-22,-3,-4,-19,-10,27,-23,-78,-50,-21,-20
1490227849021,-18,-4,32,-28,-21,-1,-19,-9,9,-12,-11,-1,3,-8,24,-2
1490227849072,-15,-7,-56,-86,-18,-53,17,18,21,31,0,34,27,19,-30,7
1490227849119,-1,-21,46,50,26,-59,48,5,-1,19,65,77,-34,-22,-30,-3
1490227849168,19,12,65,24,48,12,78,25,-6,33,17,10,-50,-8,-14,-20
1490227849216,17,10,3,57,-23,-59,-55,12,-4,-40,23,41,39,-19,33,-6
1490227849218,22,32,58,11,-27,-18,-49,-3,2,45,-7,-42,-73,84,71,22
1490227849265,-28,-12,-27,10,118,68,21,-8,19,10,-1,-13,-39,79,-47,-18
1490227849410,-9,-12,16,-13,-28,-61,-3,-13,5,-29,-39,36,103,11,-18,-13
1490227849411,5,6,-8,-37,34,10,48,9,0,-1,-9,27,61,92,9,-9
1490227849414,16,-10,-15,-9,24,-17,2,10,-19,-6,11,49,33,-30,-1,-20
1490227849415,8,-11,-13,-24,49,22,-4,1,-3,4,11,-8,-41,-56,-32,-14
1490227849461,10,5,-10,-64,12,37,10,0,26,7,8,18,37,-67,-34,3
1490227849509,7,12,8,22,-10,-31,-48,7,8,-5,8,17,-6,-27,-12,7
1490227849557,22,10,6,17,11,-6,21,3,5,6,-2,-3,-11,12,-3,-2
1490227849655,11,24,11,5,-27,-19,32,12,-32,-10,1,-28,-14,25,16,-21
1490227849655,-54,-36,-6,-14,-10,-35,-21,-17,1,14,-13,10,20,-24,-4,-1
1490227849657,26,55,1,26,28,71,-9,5,28,-4,5,-9,-10,127,-12,8
1490227849704,-2,-8,-56,-75,-15,-44,9,-7,27,-8,5,-50,8,-98,-31,3
1490227849752,-4,-80,-49,8,-20,-92,-9,13,65,2,-30,0,-5,-122,-26,27
1490227849801,-26,-87,41,7,-11,-120,7,0,29,23,63,13,0,-107,-21,-12
1490227849850,-2,-42,58,46,-7,39,17,35,-38,22,-2,12,12,42,70,-16
1490227849899,29,101,-17,-18,-21,-35,55,56,19,-110,-44,20,3,65,1,8
1490227849905,36,15,-24,-34,-34,-35,-48,-3,37,5,97,94,32,9,-34,8
1490227849949,-27,-31,32,-18,-6,-12,-63,-17,-69,3,-57,-18,-25,37,57,18
1490227849997,56,41,37,34,-9,9,5,-24,28,45,9,-14,-1,39,4,-25
1490227850046,-108,-7,68,8,67,22,39,1,21,47,74,53,0,-6,3,-2
1490227850097,30,-24,-48,-41,-16,15,-39,-24,-65,3,-41,25,33,-3,-23,2
1490227850098,40,36,74,-19,-9,36,29,2,10,-11,-58,52,48,15,12,-4
1490227850142,-46,-10,-43,-37,-22,-21,31,-14,39,57,22,-43,15,-31,35,9
1490227850191,-61,-45,33,13,16,34,23,22,36,-7,34,8,-19,14,-45,-27
1490227850240,33,-3,-32,-31,5,-32,-91,11,-5,3,-5,-16,-6,28,67,14
1490227850289,70,15,26,25,7,21,-20,16,71,18,37,33,-1,12,13,-3
1490227850337,-5,-31,-16,-80,-66,-42,-58,-14,10,39,-2,4,68,1,6,11
1490227850339,-107,-15,10,22,3,-6,-73,-23,53,12,3,1,-46,-28,55,-1
1490227850436,8,14,29,6,9,5,53,15,-15,4,13,7,13,-7,-5,-13
1490227850440,26,0,0,0,-23,19,13,-10,-15,-8,-13,-20,41,17,-44,-1
1490227850485,8,11,-4,-39,-10,-8,20,-5,27,30,7,-23,-13,15,23,13
1490227850534,-79,19,-10,30,1,-23,1,-8,35,21,6,12,10,2,49,16
1490227850581,0,-9,6,23,33,15,-10,6,54,18,8,-17,-24,-3,-29,3
1490227850582,-36,18,-2,-3,6,-13,22,-1,29,-2,-8,-41,-10,4,-40,0
1490227850630,0,-35,-18,19,-6,-34,59,18,-27,-34,-8,35,10,-5,-13,4
1490227850679,22,19,18,3,4,-11,0,2,-51,11,3,-5,39,-11,-42,-29
1490227850728,47,9,-5,1,18,17,-54,5,-2,8,-2,-14,-38,-4,42,0
1490227850776,-26,-1,-7,-7,24,2,-62,-31,20,-7,5,26,25,24,20,8
1490227850779,-76,-41,-36,-1,-7,-10,-24,3,-66,2,-39,-15,-20,-3,45,-3
1490227850826,-14,34,35,57,10,9,34,-22,110,-1,-3,14,9,14,3,63
1490227850874,-75,-34,42,-26,-16,-28,-46,-29,61,28,-40,-41,-10,-18,-13,0
1490227850923,-72,-100,-107,-43,-9,-4,-28,-25,50,-58,46,26,14,-12,74,37
1490227850971,106,67,-36,-55,28,-5,-35,-28,-128,-75,-80,-5,-19,-24,38,-15
1490227851020,-65,-30,-53,40,1,-5,-66,12,-118,83,127,75,5,-4,25,-45
1490227851022,67,-79,-89,-49,-15,-6,-22,-24,52,54,76,16,-2,14,-13,-15
1490227851069,-29,-55,-128,-46,-6,1,-47,25,75,9,-85,-48,-30,-1,-28,-14
1490227851121,-65,-16,-73,-105,-35,-5,-12,45,-128,-53,-14,-59,-29,-6,-16,-5
1490227851166,-44,-80,-49,16,18,6,32,51,-2,76,66,-98,-11,-13,-2,-1
1490227851214,-5,-78,-114,-126,-22,15,58,-4,60,-6,-27,-68,-38,-15,11,-38
1490227851216,-89,-83,91,20,-7,6,-73,78,-24,19,2,-31,8,7,-8,-33
1490227851264,34,114,110,-31,-7,-18,47,58,60,-85,53,96,0,-20,6,-9
1490227851312,29,20,-128,73,24,7,46,23,-7,-52,-35,-116,-61,-11,-88,-4
1490227851361,-128,-48,18,98,17,-19,1,-57,-3,-88,-89,-103,-47,6,8,-4
1490227851458,19,65,35,109,18,10,38,5,52,-5,-128,-68,19,17,-12,0
1490227851459,-87,76,127,49,-1,10,104,54,106,-37,-82,-30,0,32,-14,-18
1490227851462,106,17,-106,-128,-91,6,30,26,-117,-17,121,80,0,-65,-21,-34
1490227851556,-43,-2,69,35,-25,-25,-53,4,50,70,40,9,-22,9,6,-22
1490227851558,67,127,64,15,30,-34,-23,-15,22,-54,-38,-15,26,17,-28,22
1490227851605,-91,-16,127,-1,-19,-1,43,-35,-14,-17,44,20,35,5,14,41
1490227851654,65,52,62,125,9,23,10,5,-8,93,53,39,12,-27,-38,13
1490227851702,82,127,21,127,74,29,-29,43,6,-109,-121,-107,-52,12,23,-11
1490227851704,-32,-26,25,1,4,18,4,13,17,27,-67,-98,2,58,58,-29
1490227851752,-77,-108,-75,-116,32,-34,-4,-20,-2,-53,-78,-46,-97,-27,-45,-24
1490227851848,29,14,58,85,66,39,35,-10,3,21,-25,-44,-12,67,-12,24
1490227851852,-26,-8,36,60,7,-56,-11,-5,-13,-12,-34,-59,-14,14,-27,-7
1490227851897,-45,0,41,3,-53,5,-13,-30,3,29,-7,52,13,-7,-23,1
1490227851899,-27,0,-45,-128,-54,-13,-38,-14,16,24,69,63,4,32,19,11
1490227851947,3,16,2,-12,-12,38,-7,14,-40,21,13,30,19,23,-12,-9
1490227851995,13,15,49,62,38,-43,47,18,3,-20,-37,2,-8,-2,33,7
1490227852044,4,-8,-45,-58,32,35,5,2,19,21,43,69,88,9,2,11
1490227852093,6,6,27,73,-9,-128,-61,9,7,-5,-66,-96,-3,-48,-24,14
1490227852141,23,5,11,-6,-21,127,19,16,-24,-21,-9,2,-72,97,19,-6
1490227852145,-33,-7,4,80,-14,-72,5,6,8,-12,-36,-4,37,-45,-1,-18
1490227852190,4,3,18,-12,-80,31,25,-3,5,-10,-10,-43,9,10,-34,1
1490227852239,-4,10,5,28,-37,-37,-13,-7,-2,-11,-15,19,60,34,-41,8
1490227852288,-19,-10,-25,-59,-33,-23,5,-15,23,18,1,-26,-32,-9,-10,4
1490227852336,6,14,6,3,25,-8,11,5,20,-1,-12,7,36,18,-19,-9
1490227852384,30,23,-6,11,7,16,41,-10,-2,-37,-16,-10,-34,-5,35,-12
1490227852385,24,-5,1,-20,-58,-54,3,20,-27,-47,-15,-5,52,31,-77,-17
1490227852482,-37,4,10,-8,16,-96,62,-5,13,42,14,3,32,-128,67,5
1490227852484,-14,-7,36,3,-11,127,0,3,-83,-41,39,30,8,124,-53,-33
1490227852534,18,10,-35,-33,-26,-84,11,1,53,-24,-59,75,41,-115,21,44
1490227852579,92,78,52,26,35,17,17,17,32,-14,1,-43,-58,11,-5,9
1490227852581,-3,-6,-6,52,26,23,-62,-13,-8,-8,-20,-11,11,10,69,27
1490227852677,-125,-84,54,-4,6,-16,-21,-61,56,35,-68,-64,13,-48,-24,-5
1490227852678,23,-61,18,-42,-33,22,58,40,70,-1,-4,8,-10,-13,-43,4
1490227852726,112,84,32,51,41,-3,10,-4,-78,-69,-38,-21,-2,4,26,-4
1490227852777,79,87,87,21,-18,-12,-57,18,-39,11,-72,73,-2,2,109,16
1490227852823,-24,-77,-19,62,44,17,-38,0,98,84,9,-24,-8,-29,-37,1
1490227852824,-14,20,-2,-40,-18,-6,104,14,-35,-14,127,24,-30,-24,-73,-17
1490227852883,-17,-110,3,-2,15,-22,-4,25,42,26,63,42,10,-24,33,0
1490227852922,64,20,-4,40,-17,8,15,22,-2,-58,-56,-79,6,9,-53,3
1490227852970,-39,17,-21,-47,-9,17,-84,-3,64,-22,-23,20,2,-4,28,-33
1490227853019,-9,24,-9,-18,2,-12,-25,-8,-12,46,22,5,-11,-1,3,6
1490227853069,12,12,-15,4,5,-22,50,15,-13,-16,-5,45,30,29,41,15
1490227853070,99,32,-15,-53,-42,-13,-43,-8,-119,-29,-23,-25,-6,18,20,-6
1490227853116,-40,-3,35,-1,-5,-1,20,10,-4,35,49,46,34,7,-6,-4
1490227853165,38,-15,-6,-35,-28,-48,-43,-22,-74,-5,-32,0,-25,9,-18,-13
1490227853214,-49,-7,-13,15,29,-11,4,-12,6,-9,5,-27,0,13,-11,0
1490227853262,-73,-1,4,26,8,6,-12,-20,30,-6,-10,-13,9,6,-23,8
1490227853264,-22,-10,-16,-15,-45,10,-16,-1,-5,3,4,-22,27,8,-13,-1
1490227853312,59,21,0,-21,-1,27,2,18,1,7,5,3,-15,-22,43,-9
1490227853360,-10,-6,5,5,-9,-28,-23,-8,-52,-19,6,15,-1,-32,1,-9
1490227853409,-8,-19,2,40,-34,1,-8,-3,-35,-28,15,88,67,57,28,10
1490227853506,66,27,-8,-26,24,-9,-41,6,-8,0,-2,-17,-32,-23,103,19
1490227853509,-19,-26,-1,-8,-8,-10,30,-20,-16,-39,-14,-29,-24,-16,-1,-8
1490227853511,-5,-15,6,18,19,-14,23,29,-4,-9,-10,-27,-34,-18,-17,-9
1490227853556,-11,5,3,0,22,16,-83,-11,-30,3,20,19,18,3,-18,5
1490227853604,-13,25,12,20,-20,-28,8,-11,-40,-11,-28,-27,-18,22,23,-21
1490227853653,35,-5,35,43,46,3,-48,-2,-124,1,50,-54,-17,-21,82,-2
1490227853701,-39,41,28,70,3,16,-28,10,28,-8,-95,-48,-6,-7,-45,-45
1490227853750,76,-26,13,-48,2,5,-36,3,-43,-20,40,-11,-26,-2,-19,2
1490227853752,-75,-27,-61,11,22,0,-45,-8,75,4,37,-26,14,-12,43,18
1490227853799,-18,-71,-91,-86,-25,-9,59,-15,-23,71,46,11,27,3,-24,61
1490227853851,81,-63,-53,127,38,10,-64,5,68,21,-54,-39,-29,-15,32,42
1490227853897,116,4,-86,-87,-10,-9,-59,-86,-63,41,31,-15,0,-6,54,82
1490227853944,32,-30,-110,-71,-11,6,27,-10,-3,-6,70,52,8,1,-68,-30
1490227853945,127,85,-48,23,26,17,38,46,-117,-56,127,87,28,13,54,-17
1490227853994,-4,20,127,127,22,7,-43,-59,86,46,27,97,13,6,15,32
1490227854042,-53,17,51,-56,-38,-2,-1,50,-78,-55,-32,-71,3,-14,-67,-22
1490227854091,46,59,4,-107,-21,3,66,-7,-74,-57,-91,-128,-21,-15,67,-27
1490227854140,105,-11,18,53,55,25,-14,45,7,-4,127,27,23,5,34,13
1490227854188,10,-34,-27,-96,-75,-18,-75,-21,-128,-21,-14,12,-19,-9,-1,12
1490227854189,26,-36,127,22,-51,-24,46,32,44,69,-128,-70,-6,-17,-68,55
1490227854237,38,52,-30,-71,-51,-10,-38,-17,-125,-52,127,77,15,25,89,-11
1490227854286,-65,-76,-116,3,56,7,-70,-54,4,4,45,-116,-26,-14,73,28
1490227854336,-128,8,68,127,32,30,-21,11,109,-29,-92,-86,-72,-52,8,-7
1490227854383,30,52,80,91,16,-28,1,33,-14,-20,-91,-74,-30,45,2,17
1490227854384,49,20,-5,-43,27,-47,52,-21,-33,-35,-78,-60,-24,15,15,19
1490227854432,-14,-12,57,46,-44,-29,6,0,-63,76,33,54,56,-21,21,19
1490227854529,11,37,62,43,27,-5,-40,30,5,101,47,127,8,-11,40,2
1490227854531,46,60,73,67,5,27,6,-17,-88,-107,-120,-128,-20,-34,-59,-9
1490227854579,-31,27,98,-8,-25,-13,10,-24,66,79,92,92,34,-23,11,36
1490227854627,-8,-70,45,11,33,30,-7,2,50,8,127,6,-65,73,66,46
1490227854629,48,104,107,9,-36,-7,43,24,-30,-94,-90,-112,37,14,-44,-30
1490227854676,-16,4,-34,-19,-22,-45,-18,-16,-32,38,45,0,19,-94,11,-2
1490227854725,-42,-60,-99,-41,19,12,-16,36,8,21,11,-36,-43,-56,8,-23
1490227854774,9,13,-20,13,52,-40,-23,8,2,12,15,-40,23,19,8,-1
1490227854825,2,22,-21,-39,0,-52,16,6,-25,5,46,11,7,33,39,-17
1490227854871,25,-11,-19,13,3,18,25,22,-53,19,-9,-25,-56,5,-38,-14
1490227854873,-11,-16,34,34,12,-25,-25,-9,30,3,26,18,33,-77,-13,3
1490227854920,33,22,-7,-58,-69,-128,-75,1,-31,-4,-2,39,-77,-104,9,-29
1490227854969,-10,-16,-5,-5,31,63,38,-13,23,5,18,0,-25,-33,-11,25
1490227855017,3,-21,-9,-80,-44,-15,18,14,-23,-19,39,-7,-56,-10,-45,-34
1490227855065,-15,-60,-17,15,119,112,21,-19,8,-13,27,65,-77,-60,-5,-1
1490227855067,15,-9,-6,-23,-20,15,18,9,6,-64,19,-6,27,10,-9,3
1490227855116,21,26,20,58,-69,-49,-5,9,4,20,-34,-10,68,13,-51,7
1490227855164,-9,16,2,7,55,56,-77,-22,5,7,5,-28,-37,16,-30,14
1490227855214,3,11,3,15,16,-18,82,8,3,3,-2,18,56,40,80,8
1490227855261,-6,-7,-5,-11,-28,-24,-77,-7,7,-9,-22,-11,5,-4,-100,-3
1490227855309,27,13,-18,-9,-8,-17,-107,2,-17,-21,-2,5,-31,9,16,10
1490227855310,-18,-2,-9,17,2,43,13,-20,10,-1,8,-38,-29,-21,9,-4
1490227855358,-48,-44,-11,-26,-13,-36,-54,-38,7,1,45,62,-16,12,20,31
1490227855407,71,32,36,56,22,127,-41,43,-9,52,127,83,20,112,-21,-36
1490227855456,-24,17,103,-21,-42,-5,37,-10,20,-8,-50,-7,44,-72,-47,-12
1490227855553,45,-52,-38,-34,29,-7,-2,-28,-43,8,71,60,12,-46,43,9
1490227855554,17,-73,-73,27,-15,-44,17,10,-2,49,-8,51,27,36,44,-9
1490227855602,-36,9,127,14,42,27,-20,18,14,-6,-128,-54,-4,19,-56,4
1490227855604,46,-52,-24,-99,-34,-20,-80,-7,-26,-85,-128,-49,-18,33,23,-16
1490227855651,-9,27,19,-5,-8,-43,-62,-27,5,-97,-43,-48,-12,-19,-37,-2
1490227855700,45,69,65,29,19,50,21,33,-22,-37,55,15,9,4,21,-12
1490227855748,-5,-34,18,4,-1,-29,-8,-36,-18,80,-8,30,-15,-19,34,9
1490227855750,-57,-108,-102,-26,-7,6,90,-18,65,22,118,24,45,8,25,2
1490227855798,-20,6,-10,-47,-20,15,4,-10,48,34,13,-31,3,-5,-69,-16
1490227855846,-22,29,8,21,-9,-12,0,-34,-33,14,-63,-15,-1,3,-11,-28
1490227855895,28,-19,2,-11,2,21,8,-2,38,-11,8,14,3,-11,-8,-1
1490227855944,-17,-41,15,-45,-20,-36,-38,-4,29,-7,59,-12,5,2,3,14
1490227855992,47,80,34,-8,14,-5,-42,-1,-32,-36,-21,-15,-19,-16,3,-1
1490227855994,-15,-17,-4,27,41,64,5,-4,22,-8,47,-16,-11,10,17,6
1490227856042,-46,-1,1,-28,-19,-47,-1,-3,8,-12,-11,-23,-27,-27,16,12
1490227856090,51,-12,-5,-10,-35,35,-28,10,-64,6,18,47,35,-15,-14,2
1490227856139,-9,12,13,9,13,-33,-17,24,-38,-4,-26,-22,-12,17,39,0
1490227856188,-4,4,-7,4,13,21,41,-8,6,3,16,-7,-10,-24,11,-12
1490227856284,-11,-3,4,16,35,6,30,3,9,-13,3,40,-13,26,33,6
1490227856287,10,-6,-4,7,-17,-4,67,10,-9,-21,-23,-28,-31,-3,-38,-11
1490227856288,-21,2,-7,6,-23,24,27,10,6,-12,-24,-35,-13,6,-27,-10
1490227856334,-10,-1,9,23,-19,-15,35,5,-10,14,5,-14,-18,-3,-80,4
1490227856383,-62,5,6,-26,-18,-28,-51,-50,-15,3,-4,-14,12,30,-12,12
1490227856480,88,15,-30,-23,-17,-16,-14,21,0,0,-14,26,8,24,13,-18
1490227856481,-29,-24,3,-21,-17,9,43,6,22,-8,12,39,65,2,-15,-7
1490227856483,-13,-11,-7,22,-4,15,-10,-13,-64,-26,54,27,10,-6,-81,-2
1490227856577,-1,13,19,-4,4,4,-16,9,-73,-12,-53,-53,-46,-8,-5,-21
1490227856578,48,22,-31,51,-3,-11,-1,-5,14,1,28,-45,-8,3,50,2
1490227856626,-18,34,-31,-26,24,14,41,23,78,3,-20,16,2,7,-27,7
1490227856674,13,-52,105,-36,29,25,-7,22,30,29,-49,64,-18,-33,-21,3
1490227856676,-64,-125,-57,-100,-36,4,15,-77,-25,3,-7,30,-11,2,64,54
1490227856725,-84,6,34,-3,-18,-12,-94,40,-59,-42,-91,-61,-9,0,-27,-60
1490227856784,13,127,93,47,-3,-11,41,1,96,-31,-79,4,14,12,38,86
1490227856821,-90,-17,82,84,50,19,82,-14,-73,39,70,122,62,22,-28,-22
1490227856869,127,-13,47,51,11,-17,-32,-33,-128,55,-10,-48,-12,-16,40,-4
1490227856870,-49,-128,-128,-80,1,16,53,-121,127,120,127,97,-5,-29,-47,-27
1490227856918,-23,44,72,-11,-28,7,71,37,-62,-101,-72,-60,-12,11,56,-57
1490227856968,39,76,71,48,-26,14,-51,15,-128,-36,-19,-24,18,4,25,-10
1490227857017,27,20,101,-128,-45,-36,76,42,31,56,127,127,38,1,-102,-68
1490227857067,-13,-30,-40,27,-9,-53,-63,-36,124,117,127,-37,-25,-5,72,44
1490227857113,-128,-128,-19,-128,-58,-34,32,-48,-50,52,-40,-24,21,-27,8,23
1490227857116,111,66,66,98,52,5,-47,10,54,67,-19,-1,35,13,46,127
1490227857162,-20,54,16,61,38,9,-1,63,4,-32,-54,4,11,64,59,-48
1490227857211,-40,-128,-72,-104,-1,-43,0,-5,65,72,-49,91,52,0,-62,-5
1490227857260,57,-79,-111,-88,-5,-14,11,17,-111,12,127,-14,-71,-39,-73,-46
1490227857309,-77,-102,-118,-128,-56,-35,19,-43,-56,63,81,59,-54,-8,96,46
1490227857357,52,49,99,68,48,-6,-39,14,36,18,-107,-90,-5,2,20,34
1490227857359,22,21,17,-19,-82,-36,-26,-12,-51,-128,-115,-64,35,-1,27,-14
1490227857406,6,36,5,75,53,-77,-80,-9,-3,28,127,-32,-61,-19,29,-28
1490227857503,-15,-26,-101,74,68,106,27,5,-14,-18,6,-55,17,16,-17,-2
1490227857506,-11,16,41,17,-72,-34,12,-20,4,4,22,-3,58,-48,-11,33
1490227857552,-67,-16,29,-42,-16,-31,-46,-35,11,10,56,92,2,28,7,-4
1490227857554,25,57,9,-57,-20,-27,11,-4,-43,-92,-108,-63,8,31,44,-10
1490227857601,-33,-33,-53,1,-43,-14,-31,-6,19,1,-18,26,37,-11,9,24
1490227857650,-25,-38,-39,-45,-17,-6,3,-6,37,47,113,127,5,-45,-37,9
1490227857747,-17,-43,-88,-15,-71,9,-20,-9,-3,31,105,48,-19,-15,38,-4
1490227857748,3,3,41,-80,-114,-13,-26,-4,-28,-23,-60,-33,127,82,5,-15
1490227857797,1,41,42,78,-33,37,82,6,1,-11,-77,-18,39,-1,-11,-18
1490227857798,-44,-2,-5,-44,-11,11,-96,-21,31,24,53,52,-128,-17,28,8
1490227857846,10,-3,-38,-50,11,-92,59,-23,-25,-14,11,-31,-15,-52,-115,1
1490227857894,-9,-29,-24,28,89,98,64,9,43,-6,-19,-37,9,35,-3,5
1490227857991,-21,-22,-23,-59,49,-10,-6,-4,5,1,17,23,-51,12,-4,1
1490227857992,-21,-4,-1,-17,23,-9,-20,-14,4,-8,-15,-57,13,15,55,9
1490227858039,18,20,12,28,14,32,85,21,-7,5,2,29,-34,1,-17,-7
1490227858040,-32,-9,-8,-24,14,40,83,-10,26,7,5,-1,18,-28,52,24
1490227858089,12,1,-1,33,-34,-13,47,3,-5,1,7,-1,6,-33,10,0
1490227858137,13,16,4,-6,-19,-24,-36,8,18,-7,-6,-8,-9,-44,28,-8
1490227858186,-16,-9,-11,0,12,21,-93,2,46,-2,20,-14,-25,-17,-40,-12
1490227858236,11,40,6,-11,-28,-128,-35,1,10,-37,-10,29,-8,-77,-33,6
1490227858236,9,8,51,29,21,68,38,-35,-41,51,9,11,-7,52,10,41
1490227858284,-9,-19,44,21,-6,127,-31,-2,5,48,67,34,18,105,49,33
1490227858334,-30,0,-70,-75,9,-125,-49,-2,45,41,-53,-29,-18,-98,-3,-32
1490227858381,38,-11,-35,-38,11,-20,-12,13,-13,-9,100,52,26,19,4,-3
1490227858430,-3,-107,32,-15,-25,-53,23,48,-33,18,-39,-54,-20,-55,-37,-47
1490227858527,-81,26,27,90,-13,25,2,-28,26,24,113,17,-12,8,42,24
1490227858528,-60,-55,14,6,8,-20,-24,31,-16,31,-125,5,6,-42,-29,8
1490227858530,17,58,107,55,3,-11,-18,-21,-38,-92,-95,-30,25,-3,11,23
1490227858584,11,34,59,-8,10,-9,34,-2,-3,60,-36,-58,-39,-35,-53,-43
1490227858625,73,50,55,63,9,-13,-10,-3,-87,-41,-24,-1,-15,-14,35,-17
1490227858674,45,15,62,25,23,-13,-2,13,-31,-10,80,76,23,19,23,-19
1490227858722,-31,5,-22,1,-9,3,-41,-22,32,-18,-28,27,-10,17,68,32
1490227858724,69,27,33,26,16,2,-59,20,-80,-8,-18,12,-7,17,32,2
1490227858772,-34,1,-33,-20,-23,7,33,2,74,-8,100,57,55,19,-56,5
1490227858821,-34,-10,36,61,16,1,43,13,17,-6,55,-23,-8,-12,31,0
1490227858869,-52,-4,23,-3,-9,1,1,-5,-4,6,26,1,-9,-4,-30,-2
1490227858917,49,4,-7,-3,16,-6,26,16,-8,-5,-5,18,8,8,50,6
1490227858918,-22,5,21,4,-50,-15,6,7,1,-4,8,4,35,7,6,-4
1490227858966,-17,-20,-14,9,10,-17,-6,1,15,21,3,-13,-19,0,-10,-7
1490227859015,-112,-15,-4,-19,2,5,19,-37,58,10,32,-7,-8,6,26,17
1490227859065,-12,-3,-21,30,13,5,26,0,6,-9,-30,-43,-21,-6,-24,-18
1490227859113,-9,-11,-16,-18,-9,-10,19,-8,9,-10,-1,-5,-3,33,-6,16
1490227859161,-16,9,18,3,-11,-4,-34,0,58,5,-8,-1,24,-5,8,-3
1490227859163,12,4,-9,-25,-24,-11,19,12,10,-3,-20,-1,2,-11,-94,-27
1490227859210,-90,6,99,43,1,-14,-29,-6,41,-4,-68,4,-7,-12,-58,-4
1490227859259,64,59,-3,-44,15,16,-9,-1,-12,29,108,23,-15,-2,-18,-4
1490227859308,-39,-3,-17,-22,4,5,64,17,23,-10,-19,0,8,25,-19,-12
1490227859356,27,-7,110,-23,-17,9,-11,9,-17,39,-128,68,26,-9,-36,-27
1490227859405,-72,-34,-128,-10,8,6,88,52,-106,-98,-23,-76,-48,-21,-30,-9
1490227859407,115,33,-31,1,-11,-16,8,-21,19,7,60,67,11,2,21,18
1490227859454,9,-51,-75,17,-12,15,-37,37,-66,11,-40,-77,2,-20,-2,55
1490227859502,108,-19,-83,26,21,-4,-3,1,-45,11,25,59,-6,22,18,48
1490227859552,-12,-17,17,-84,-24,-12,-28,53,93,38,14,10,-14,-22,-74,53
1490227859599,-11,2,90,-96,-97,-69,-71,-93,-18,-64,-60,38,-14,26,-24,46
1490227859601,94,107,50,18,-15,-11,3,-65,-124,-61,127,93,46,-21,-8,-125
1490227859649,-87,-125,-128,-12,-3,-8,-1,57,80,-16,16,-128,-35,-6,10,66
1490227859698,102,127,12,-39,28,13,10,-78,-128,-66,-55,39,-4,7,-22,-60
1490227859747,127,-75,-118,-93,-17,-6,-13,28,-15,127,103,32,33,-14,-3,-79
1490227859795,12,-42,-26,5,38,52,64,23,-36,45,-2,42,38,20,-79,33
1490227859843,2,106,127,-14,28,24,10,15,39,51,-49,127,46,21,80,-14
1490227859845,19,51,89,7,58,39,-50,-15,113,101,127,43,21,7,41,75
1490227859892,23,-111,-80,-110,-53,7,17,-60,-73,14,22,70,46,16,2,71
1490227859941,20,35,-37,-32,-42,-51,-37,-40,10,-15,18,-53,48,32,-17,19
1490227859990,-53,36,94,-7,-27,19,12,-20,-40,49,-87,127,75,-14,-24,8
1490227860039,-10,-47,22,-74,-25,-40,-90,-24,51,37,59,28,-104,12,86,3
1490227860041,-89,-78,-73,-128,-24,-6,-52,-4,-34,10,-75,-63,-62,-45,-52,21
1490227860088,-65,-72,-125,-90,-58,-28,-54,-26,31,-85,-57,-116,-41,-15,-30,-25
1490227860136,46,78,127,127,87,33,-12,24,2,-5,-42,-23,-8,-27,-37,6
1490227860185,-45,-56,-72,16,-89,-4,-45,-5,22,15,95,-20,39,76,63,33
1490227860234,0,20,-1,79,36,-7,-62,-10,13,4,79,49,2,1,56,22
1490227860282,-19,-41,-60,-20,71,-3,-47,-24,6,13,15,8,-33,-45,65,4
1490227860283,25,32,66,44,-106,-77,6,2,-11,1,-6,32,7,75,-5,-6
1490227860332,0,18,15,83,-67,-71,-28,9,17,7,12,-10,-2,30,-29,-2
1490227860380,-4,0,-5,-65,54,-8,-15,-21,-14,-3,-18,3,-13,4,-8,-2
1490227860429,18,4,4,-18,25,19,-13,15,11,-16,-14,9,14,84,14,-5
1490227860478,-19,-8,-21,15,-63,103,-7,-9,25,11,-13,-22,88,59,37,27
1490227860526,4,-8,-5,17,-85,5,-3,19,15,5,-18,-11,46,-79,-46,0
1490227860582,10,-24,-6,-53,44,-36,44,0,-33,-23,-36,-29,32,63,-13,-21
1490227860585,-5,7,17,14,-18,70,26,19,17,-16,-14,30,12,-76,36,-1
1490227860624,-8,4,13,11,64,28,35,-5,-12,7,6,-42,-15,89,20,-10
1490227860673,6,31,7,28,-108,-77,-75,0,-23,4,-53,-105,37,71,29,-32
1490227860721,-8,-26,-25,-36,-15,-60,-6,-7,3,-11,-14,9,94,9,-30,1
1490227860722,-23,-22,-16,-30,60,64,-21,-7,9,-26,3,11,-7,-47,-42,-2
1490227860770,-17,10,-3,22,26,27,1,-10,4,12,-4,15,-38,-19,60,9
1490227860819,44,16,8,23,0,-81,90,0,6,20,-21,-24,3,0,-49,2
1490227860867,-10,15,-5,-3,3,-17,77,-9,3,12,7,45,69,-36,127,26
1490227860916,4,-4,4,4,-3,116,-8,-12,-7,15,6,-40,-64,67,-73,14
1490227860964,-40,-12,-1,5,-7,-80,15,-27,3,-10,-10,1,19,-42,11,0
1490227860966,21,-7,1,7,-29,79,6,22,-12,-17,-24,-24,23,27,-36,-1
1490227861014,49,17,6,-6,5,38,-15,-10,-92,-11,14,-19,-20,52,19,18
1490227861063,53,6,-2,15,13,30,25,19,8,24,-6,-91,-17,54,-36,-31
1490227861111,-76,13,11,1,-10,98,-8,5,-8,29,-38,77,23,51,3,-25
1490227861160,39,-6,-23,6,27,127,-6,-1,1,43,38,-3,-30,55,-38,-16
1490227861208,17,75,104,93,-10,-97,-9,-6,-39,-98,-82,-75,2,-128,29,-50
1490227861211,-60,-81,37,-92,-39,0,41,11,-9,-74,-121,-69,-45,-4,-18,-8
1490227861258,-3,73,13,120,50,-8,10,-11,19,-45,36,-76,-21,-29,-1,-39
1490227861307,-45,-42,-63,21,31,0,11,-34,106,4,-38,19,-21,-36,-20,37
1490227861355,-1,35,-53,-28,0,51,-58,-13,-41,-63,-35,-18,-1,-12,61,41
1490227861403,68,-40,96,-35,-21,6,16,2,-4,46,-104,-46,-11,-22,-34,-23
1490227861404,-83,-66,-20,-42,-12,-5,-70,-41,-19,49,56,89,70,0,-37,-11
1490227861452,47,-23,42,28,-23,5,29,11,-11,10,-47,28,5,8,36,25
1490227861549,16,0,63,33,5,-2,41,-6,30,41,-28,25,0,36,-4,4
1490227861551,-16,21,-63,-19,15,25,51,-7,50,-9,13,-25,-5,-1,-55,-44
1490227861599,-12,24,-25,50,-1,-12,-8,4,-15,2,1,-9,-20,-17,-17,12
1490227861647,22,-11,-40,35,-11,12,6,3,-31,-12,-54,-32,-6,14,47,-1
1490227861648,28,-8,-23,-9,-1,-23,-31,-16,-30,-20,7,-24,-29,-30,-29,7
1490227861696,-40,14,1,-24,-12,-3,11,9,9,-18,22,40,-3,22,46,13
1490227861745,-4,5,9,17,9,8,1,-14,31,29,32,2,18,15,2,13
1490227861794,-30,-23,-19,-14,-15,-14,-18,-12,6,-13,-14,-5,5,-11,-49,-31
1490227861843,-21,-4,-2,-13,-18,11,39,-5,35,-1,23,28,6,32,-2,12
1490227861891,-38,-5,11,23,27,18,46,5,-26,2,4,-16,-19,-3,-23,-13
1490227861892,18,2,-15,-15,3,-6,27,-8,-3,-4,9,-31,-14,-8,-4,10
1490227861940,-14,-8,-21,-48,13,-26,-39,-19,36,10,10,-12,3,-12,17,4
1490227861989,-4,2,9,15,6,17,-6,3,2,-13,-13,-5,-5,-5,8,-7
1490227862038,48,0,-10,4,9,9,15,13,-47,-11,10,3,-10,-8,-52,-16
1490227862086,-1,-21,-16,-21,-11,9,15,-5,-41,-12,-16,-23,-8,3,-13,5
1490227862092,8,-11,-2,-2,-9,-8,14,2,42,17,25,32,12,3,24,0
1490227862135,16,-4,11,29,-10,-8,-54,-13,-20,-5,-1,-8,9,3,13,-6
1490227862185,23,7,-25,-23,-19,-14,-18,12,57,-5,-29,-1,8,7,-3,-6
1490227862233,77,-5,-2,11,2,16,-26,20,-94,34,-28,-44,0,-10,-9,-13
1490227862281,-16,40,36,28,23,10,14,-21,-128,-59,-46,-2,-20,-18,10,-72
1490227862329,43,-29,2,-17,-5,19,-21,-4,6,-8,-19,-16,14,-1,4,57
1490227862331,-62,1,86,-39,24,13,29,23,31,4,-81,1,-17,-2,-12,-50
1490227862379,-80,-43,-35,-46,-2,-1,19,4,-52,53,115,-16,6,8,24,13
1490227862428,110,34,-128,-76,-7,-21,10,76,-12,8,-20,-45,0,13,64,-18
1490227862478,-20,-57,-66,-15,-2,20,47,-5,50,3,-94,-98,-13,-20,-30,-5
1490227862525,-83,-25,84,101,2,20,85,24,108,2,-100,16,-17,-5,-120,0
1490227862526,106,-57,-92,-3,-14,-15,-32,-50,-128,-128,38,-26,-31,-24,-3,-5
1490227862575,-128,127,78,73,53,37,-32,-15,57,-19,-56,69,22,3,-3,50
1490227862623,-128,-54,-28,-42,-92,-37,-40,-19,117,80,-20,-52,15,5,18,-20
1490227862719,-85,84,-128,-84,-31,-22,26,-54,-15,-10,77,-100,-44,-27,-102,-7
1490227862721,-115,-21,80,16,66,60,16,12,-3,13,4,50,-35,-26,-100,-114
1490227862769,57,15,-42,58,66,31,-41,15,42,19,78,-49,-12,5,77,-9
1490227862772,-3,-48,-46,-20,-55,-31,-9,35,-99,-89,-128,-90,-50,-16,-28,-50
1490227862817,14,60,106,-7,5,-6,0,-62,-42,93,29,81,-8,-9,56,19
1490227862866,-86,-17,-79,-71,30,58,30,-22,55,69,-50,15,5,-39,-16,53
1490227862916,19,-36,81,-59,-18,19,-33,32,56,31,-34,-8,-24,-6,-50,-14
1490227862964,-12,55,-49,-53,6,18,-46,-72,-35,-54,68,80,15,-20,22,-16
1490227863013,-65,-83,-97,-84,-19,-42,-60,15,-7,-93,-27,-4,6,-17,36,-57
1490227863015,88,-41,-91,-40,39,-11,-24,28,-36,15,-34,-17,-24,24,23,-45
1490227863061,-24,11,41,-1,14,-14,-11,26,33,126,3,70,6,35,-24,-22
1490227863110,47,-18,42,104,-63,-15,-15,-29,-72,-67,45,37,-8,-23,-61,-8
1490227863159,-20,4,-27,36,24,2,27,-9,32,-40,-96,-95,12,-12,20,18
1490227863207,-3,50,76,98,82,-7,27,20,52,17,-44,-76,46,14,-14,-9
1490227863209,-21,27,77,-10,-29,-4,51,-25,17,50,-35,-16,-24,1,-14,-8
1490227863256,26,13,-24,-61,-65,-33,-22,2,-11,-69,-43,-50,-97,-34,-16,-5
1490227863305,14,-12,-12,-3,-36,-22,42,21,23,15,18,31,36,23,-32,-12
1490227863353,13,-14,-23,2,-18,-2,17,19,5,7,23,-36,-71,-37,-24,14
1490227863402,-34,-24,-73,-23,70,65,-53,-27,22,4,5,28,-15,25,77,30
1490227863450,24,1,-24,-58,13,-36,16,-7,-5,14,27,72,31,-27,2,-4
1490227863452,-43,-13,-10,1,22,16,-1,4,-12,-3,-16,9,-66,-29,-13,-6
1490227863500,5,11,24,24,-42,-17,6,-24,-10,-9,-22,-55,6,104,-17,16
1490227863549,8,27,41,52,9,48,-46,-8,-6,15,30,12,-118,-26,15,-7
1490227863598,21,-15,-33,-15,94,59,16,19,0,-9,-3,-69,-74,-70,3,-14
1490227863646,-48,-4,-3,-51,59,38,35,-24,57,28,19,-17,-82,-38,-40,52
1490227863695,18,-6,-26,-48,-14,8,59,3,-17,-2,15,70,-46,-12,-10,-27
1490227863697,18,-12,12,34,-9,-75,-7,-8,-3,-2,19,61,13,-69,29,11
1490227863744,-13,-6,9,-45,-10,38,-16,-39,1,-1,4,5,-33,-31,9,9
1490227863792,-15,7,2,-34,-87,-23,-26,-27,-19,-10,-20,-2,89,74,26,17
1490227863841,18,-2,-2,6,6,-102,-9,9,20,7,8,13,-6,-30,7,11
1490227863889,-14,-11,-30,-11,97,62,15,-16,2,3,-17,20,-25,5,-70,-8
1490227863891,5,20,-7,4,34,68,66,3,13,8,4,-24,-40,-43,64,-1
1490227863939,-6,-11,2,26,44,-35,-104,2,-21,-24,-30,-28,3,42,-86,-18
1490227863988,47,15,13,1,-5,-76,48,14,-27,-7,-18,-18,45,-110,127,-7
1490227864037,-10,-12,-4,-29,-24,90,17,-2,17,12,3,33,29,25,40,5
1490227864085,-20,-12,-9,4,42,-26,-93,-8,24,22,14,-8,-9,91,11,4
1490227864133,-72,-8,-14,-12,8,75,9,-4,12,-18,5,19,10,25,51,-22
1490227864137,127,-6,-41,15,-30,-62,1,20,-128,-32,56,-16,-28,-85,55,-4
1490227864183,23,-27,0,-59,-22,2,-3,-2,-8,25,-22,33,4,-128,-6,18
1490227864232,28,10,-65,-40,-6,90,3,-31,40,13,86,4,1,127,-11,1
1490227864280,29,-32,3,26,-1,5,60,17,-19,3,-8,-14,1,-29,-86,-36
1490227864329,-39,-22,48,-51,-39,-56,-109,11,-7,-29,-123,-35,-1,0,40,-8
1490227864377,-25,-6,-100,-17,24,-26,30,-17,33,-18,38,-23,-31,-13,38,33
1490227864379,-59,18,41,20,9,-3,-1,4,-42,-76,-34,-31,-18,-4,-66,-19
1490227864426,66,86,2,48,21,25,51,16,13,-28,-30,3,2,-37,-3,8
1490227864475,19,-104,-26,32,3,4,-34,-32,-20,65,-8,-34,13,7,15,-24
1490227864524,117,43,31,-28,-2,-1,55,-22,-22,19,12,5,-1,-5,-24,16
1490227864572,67,-7,-44,-44,-5,-11,11,10,104,51,11,-69,-32,-21,-29,-42
1490227864574,-80,-38,-79,-31,-18,-18,-3,-30,71,-4,14,32,-11,0,-8,24
1490227864621,50,37,95,-35,-43,2,-12,10,29,25,-59,15,26,-13,-39,-3
1490227864670,-81,-46,-50,-2,-14,-26,11,-6,19,21,25,-14,1,-4,-22,-22
1490227864719,25,23,30,31,-1,15,7,16,-11,-4,13,42,39,2,24,-3
1490227864768,-33,-24,-7,4,5,11,11,-5,-43,-10,-27,-33,-48,-35,-55,5
1490227864816,37,-12,-20,-22,0,-9,-32,4,-30,-5,15,0,8,32,16,19
1490227864817,21,7,-4,16,-26,-25,-29,8,-12,-5,-5,-7,29,7,28,11
1490227864869,25,11,-7,20,25,31,15,11,32,19,8,-13,-39,13,13,-18
1490227864914,0,-16,-1,-16,-20,-17,-15,-10,-31,-7,3,-5,-7,-37,-28,7
1490227864962,-34,-10,7,8,17,50,-29,-12,4,-5,1,-13,-13,-13,18,0
1490227865012,10,-26,8,-13,-48,-23,-4,3,23,-12,32,63,44,5,-10,-10
1490227865059,13,-16,-19,4,-17,-25,11,9,-41,-25,-12,-17,-34,-3,-8,-14
1490227865062,-3,73,12,-7,5,-14,-33,-7,21,71,0,-32,-23,-17,29,-2
1490227865113,-58,-42,-9,-18,-5,6,20,-12,55,-33,3,6,33,15,-7,22
1490227865158,19,-5,6,-5,5,-20,18,12,25,16,2,3,19,25,69,6
1490227865207,14,-5,1,4,-11,-7,-19,10,-39,-5,-8,-3,-6,-20,-15,-9
1490227865254,69,-10,-8,-13,-8,-37,-27,10,-25,17,-1,-26,-15,10,67,1
1490227865256,-70,-16,-19,2,14,28,-25,-18,18,-2,1,-3,14,21,25,-2
1490227865304,-38,0,-19,7,-13,20,14,-17,-78,0,31,6,9,-67,-4,-20
1490227865354,-95,-9,-16,-9,-4,21,-45,-31,-63,61,73,36,1,19,-19,11
1490227865401,-44,-72,-121,4,-15,-17,-31,-25,-24,-89,-36,-48,1,9,15,-15
1490227865450,72,36,-56,27,0,9,47,27,-76,-50,-78,-48,-17,-22,1,1
1490227865498,64,54,48,81,37,20,20,18,80,44,-30,19,44,15,-11,6
1490227865499,-69,-13,122,43,-2,1,17,0,-89,61,82,37,14,-21,26,17
1490227865547,127,46,-126,-97,-37,-7,-12,5,-106,-44,-64,-97,-38,-13,19,41
1490227865596,114,120,65,102,19,-6,6,-8,-111,-101,-102,-49,5,-4,34,13
1490227865645,-67,-15,-59,-52,-14,-24,12,11,78,64,45,-52,-5,4,-40,-4
1490227865693,10,40,86,-19,30,33,36,-41,127,127,34,127,19,-19,17,9
1490227865695,126,63,68,43,-8,22,26,65,-36,-58,-78,-40,-39,-27,-78,-41
1490227865743,-24,-64,-66,9,-38,-19,-11,-61,-56,-16,56,53,11,-4,-16,-12
1490227865839,14,34,-117,-102,7,2,6,32,-66,-59,66,103,13,-11,11,34
1490227865841,53,22,75,70,27,24,-19,54,62,-9,-45,-66,39,7,13,-44
1490227865889,15,-65,-53,-33,-66,-61,46,11,11,57,47,13,44,53,17,-8
1490227865937,-76,5,22,97,12,-26,-84,-35,72,22,84,6,6,14,25,76
1490227865987,37,-68,-37,-95,-44,2,-13,16,-29,43,3,111,42,8,-18,-23
1490227865988,-109,-16,-12,-15,52,61,42,-22,-12,-43,-110,-128,-125,-61,-22,-14
1490227866035,-96,127,127,101,27,10,9,-12,123,-89,-86,14,10,6,-47,117
1490227866084,-54,-52,-55,-31,-32,-24,-11,-106,-41,31,-37,47,2,-38,16,-18
1490227866133,3,7,-53,-73,-19,19,2,54,-23,-13,108,91,78,-12,-54,-7
1490227866181,-74,-113,-67,-47,-28,-2,-27,-65,-83,48,-55,-69,-19,0,53,21
1490227866182,17,22,-25,-118,-88,-6,18,11,-1,-51,-65,-13,18,23,-23,-23
1490227866230,15,-64,40,-13,-25,-3,8,41,-80,-34,4,-28,32,-28,10,-49
1490227866279,101,127,89,79,127,83,54,55,-16,-11,30,115,52,14,29,18
1490227866327,-59,2,109,127,-4,-16,5,-27,61,98,127,43,24,57,17,34
1490227866375,-19,-16,-96,-78,-54,-68,-43,-20,70,-37,-117,-15,9,6,-127,-25
1490227866376,55,12,-38,33,45,-13,96,31,-89,-128,-128,-90,-93,-6,-13,-23
1490227866425,37,29,97,107,24,8,-36,25,26,31,66,-42,-60,-71,8,14
1490227866474,39,9,-41,16,12,15,-36,16,22,39,75,-57,11,-6,-7,6
1490227866522,19,89,127,127,90,24,65,8,37,26,-95,54,-12,1,29,6
1490227866571,20,-10,43,22,13,31,-56,4,13,-8,28,-69,-15,20,52,-6
1490227866621,-1,-45,-43,-73,-15,-7,8,19,0,-16,-30,7,-2,-12,17,-2
1490227866622,-14,-24,9,28,-97,-77,-9,-17,-8,44,-5,-20,73,-20,-8,-6
1490227866671,19,37,26,14,70,33,51,20,-2,12,-1,-53,-76,-22,-102,-19
1490227866718,-5,17,25,21,34,57,-5,-1,3,-7,-13,-33,-15,-21,-26,-13
1490227866769,-9,-50,-23,-22,66,-59,-15,-2,-8,24,70,64,-6,-73,-66,-20
1490227866815,26,25,-19,-27,-54,2,58,4,-27,-4,0,-20,-95,-87,54,-26
1490227866863,-10,5,20,60,59,59,12,0,7,-25,-37,-66,95,37,3,0
1490227866871,8,-11,9,-6,-126,-74,41,9,-4,21,-11,-80,52,46,-55,14
1490227866912,12,9,3,11,13,-43,-44,-4,-7,-2,22,65,23,4,78,16
1490227866961,-2,-2,15,-7,-76,-26,21,24,11,-8,-13,-21,85,100,13,4
1490227867010,-10,-16,5,35,77,21,54,-8,8,9,15,22,-128,-36,19,-2
1490227867058,-6,-15,-6,6,33,26,-2,-7,-3,-5,-3,-47,-36,1,-42,-2
1490227867059,15,6,-5,-25,-8,-1,-58,-6,-9,-8,-16,-13,22,5,29,-7
1490227867107,-40,-20,-55,-51,-14,22,-6,-11,-29,-7,-18,-5,-63,-33,-29,-24
1490227867156,20,2,-24,8,-18,-128,-72,9,-35,-8,-1,-3,-9,-45,4,-9
1490227867205,-39,4,-87,-63,-24,-42,1,73,-35,-37,-38,-64,-15,-85,47,-46
1490227867254,-54,-25,-24,-34,32,67,-47,-19,6,20,18,-37,-10,116,27,11
1490227867302,50,-14,-13,-18,-29,-67,33,-16,4,-23,-16,49,33,15,16,-2
1490227867306,20,80,20,11,3,-37,80,41,-46,-30,32,62,63,-21,-27,-7
1490227867351,42,69,37,-13,10,-64,-22,47,-85,-33,63,8,6,44,7,-41
1490227867401,-11,10,53,64,20,32,39,-24,-18,-60,-76,-96,13,56,-39,32
1490227867449,13,47,71,72,27,-14,53,10,11,3,-69,55,-8,-22,27,78
1490227867497,-20,36,113,-39,-36,18,-18,-21,87,3,-23,11,51,8,-34,36
1490227867546,-58,-76,-42,76,39,17,4,46,54,86,-5,-12,-12,2,7,-70
1490227867547,44,42,37,116,27,28,28,-8,23,27,127,-16,2,-17,-2,-11
1490227867595,40,21,28,35,44,5,47,61,15,-35,11,-32,7,31,12,-62
1490227867644,-66,17,56,31,-22,-9,3,-14,35,-66,-101,-13,30,-22,15,17
1490227867692,7,3,86,-23,-20,-7,-4,-30,17,-37,-49,67,17,26,-40,12
1490227867741,88,-18,-21,-73,-25,-13,-10,-21,-67,-48,-24,2,-14,-33,-32,-16
1490227867742,1,-8,-3,-12,3,0,22,3,45,43,-19,38,-9,-3,-8,12
1490227867792,43,1,26,28,-11,10,9,-9,12,18,35,-6,11,10,24,4
1490227867839,-24,25,48,25,-17,-10,-39,-36,20,-11,22,23,3,-4,58,22
1490227867887,10,-12,2,24,16,-14,39,9,-14,-5,-11,-8,5,10,17,-7
1490227867936,-34,1,25,38,9,8,-12,32,-51,-23,-54,-29,-10,-9,7,-25
1490227867984,22,-15,-18,-17,6,-16,41,15,-31,-12,13,13,-5,-3,-82,-21
1490227867985,-47,-6,-12,9,23,-3,37,-6,29,25,32,-35,-32,-20,6,9
1490227868033,15,-4,10,-10,13,-5,30,22,-7,20,-15,15,3,-10,-10,-2
1490227868130,51,6,8,10,-12,-9,-2,8,-5,-7,-13,-10,16,0,-18,-14
1490227868132,-6,3,9,7,61,37,-50,-10,18,12,13,27,12,13,67,7
1490227868179,-10,6,-3,-18,-37,1,14,1,-26,-7,-12,14,50,-7,0,-6
1490227868181,-19,2,6,12,3,22,19,10,2,-5,10,-17,-28,-2,0,-6
1490227868229,18,18,6,-11,-13,-13,20,7,38,2,-7,35,53,-4,-8,-3
1490227868277,14,-4,-2,16,41,-10,-7,3,38,6,-3,-2,-6,-7,8,15
1490227868326,-36,-6,-2,-9,-23,20,-10,-9,28,-3,-3,12,14,7,-97,-8
1490227868375,76,8,3,4,4,-3,89,14,33,2,0,-14,-11,-80,19,15
1490227868423,-43,-10,-5,-5,-25,-17,13,-13,-14,-2,2,29,53,25,5,9
1490227868425,-56,-9,10,17,36,-2,33,-11,13,6,6,3,-11,4,11,9
1490227868473,-7,-15,-9,-26,-26,3,2,3,-19,7,9,20,32,-26,-22,-22
1490227868521,75,12,-1,14,28,-4,-16,1,-26,1,1,-11,-22,-11,-31,-19
1490227868570,-35,-6,-7,-7,13,1,36,3,22,-4,-2,5,23,32,35,9
1490227868619,0,0,7,-1,-36,29,-15,9,-39,-12,-8,-4,38,3,-5,-15
1490227868667,-15,3,-4,-25,-11,-10,36,14,23,15,6,18,5,25,-21,-7
1490227868669,90,15,11,17,15,14,19,27,2,2,0,-2,-12,-21,-57,-14
1490227868717,9,-10,-5,-15,-27,-6,-3,10,0,2,3,-15,-12,-7,-28,-12
1490227868765,-81,-8,4,32,59,11,18,-16,40,-8,2,1,13,1,19,36
1490227868813,-20,7,-8,-21,-13,-26,-26,-5,11,-8,-12,-17,-39,-18,22,6
1490227868861,-11,-3,0,31,20,24,18,-15,23,5,-2,3,7,11,-16,8
1490227868863,-14,-12,1,-5,2,-20,-11,-9,-4,8,0,9,13,-7,0,-1
1490227868911,3,3,5,18,29,20,17,-1,12,1,1,9,4,-9,-18,3
1490227868961,-21,3,4,-20,-52,-52,-48,-15,35,-8,-5,-10,-2,44,54,6
1490227869009,-54,-9,-5,0,-27,1,15,-16,48,8,-8,5,7,-5,-6,15
1490227869057,-56,-8,1,24,29,1,12,3,59,5,0,4,8,-2,19,13
1490227869106,-18,3,9,1,-11,9,47,18,-33,-9,-7,11,7,6,-23,-18
1490227869109,12,1,-1,-8,-5,0,11,4,-30,-11,-10,-26,-62,-2,15,-7
1490227869155,17,0,2,-8,-26,-5,-22,-1,26,3,2,24,42,-3,-25,-2
1490227869203,35,-1,-1,-32,-1,-4,-45,16,-20,-5,4,3,-9,-10,46,-6
