1490228987040,-22,5,33,33,24,13,33,-29,-29,19,-35,-39,-10,79,-44,11
1490228987137,-71,-38,-41,-31,-18,-5,25,-9,51,4,8,45,60,-1,4,12
1490228987139,-10,-3,23,-10,-26,11,26,22,-27,-52,-55,-29,-30,-26,-19,-20
1490228987141,-6,20,-48,-4,7,-6,-70,-5,-69,-39,-56,-59,-18,17,58,4
1490228987186,1,-16,-17,-17,2,20,-21,-20,38,12,3,4,-41,-31,21,-4
1490228987235,-51,-41,66,37,-24,-31,-34,-22,86,14,-16,24,59,16,16,37
1490228987284,-112,-31,-16,47,-23,-35,18,-15,80,-21,-34,-58,-13,14,-32,4
1490228987381,50,-13,1,47,31,9,-31,2,-8,27,-21,-86,2,-17,48,58
1490228987382,11,62,71,42,10,-5,33,1,51,1,2,-24,-18,-10,-1,15
1490228987384,23,-48,-114,-41,12,-4,1,-5,13,8,7,-26,-14,14,49,-14
1490228987430,-128,40,96,95,80,17,22,-6,-117,-14,-37,63,-2,-18,-17,24
1490228987479,28,-6,-31,-48,17,7,1,26,-87,-15,-51,-96,-1,1,-39,-39
1490228987527,8,51,70,127,47,16,-86,-68,-115,-36,-17,-56,2,18,111,0
1490228987528,-104,-35,105,40,-27,-4,28,-12,86,52,35,124,44,17,27,29
1490228987576,-110,61,9,113,28,8,-30,-57,86,-81,-111,-70,-18,8,22,98
1490228987625,-66,-95,-33,-7,-32,-17,-56,-62,84,58,64,54,24,-10,-50,-67
1490228987674,18,46,34,97,21,-5,58,40,-86,-109,-128,-101,-72,-50,-15,-40
1490228987722,107,-46,-1,-12,12,7,5,50,-28,-24,98,35,51,2,-77,0
1490228987770,62,48,19,-11,-43,-12,68,-8,-89,20,-86,76,-6,-3,-22,-43
1490228987772,-58,-53,79,34,-4,-32,61,-16,61,56,-70,33,17,15,23,9
1490228987820,-25,-11,12,-39,-6,27,-9,54,67,-108,-115,-128,-59,2,33,-1
1490228987869,-128,-45,21,67,6,25,15,-23,-45,7,-29,109,101,17,63,7
1490228987917,127,126,80,78,-4,8,-23,26,-117,-80,-9,-55,78,22,1,-63
1490228987965,-43,-71,-25,-71,17,-14,1,-40,44,79,70,-22,-77,-28,-68,-4
1490228987967,10,84,105,-2,23,21,19,15,21,-61,-128,-128,-8,-35,-22,-33
1490228988015,-22,70,2,-43,46,28,63,33,-37,-29,-2,25,-11,-25,22,-20
1490228988064,-26,-51,-15,-8,-63,3,-2,-5,-46,-34,-10,-49,38,-14,-20,-4
1490228988112,9,22,-29,22,-3,23,15,8,26,7,-38,-6,5,-35,-48,1
1490228988161,-43,-47,-6,88,44,33,-19,-13,72,9,10,-46,67,22,-30,24
1490228988209,15,2,5,-41,-122,-55,-57,-2,-46,-43,-76,13,97,48,69,-22
1490228988211,-7,7,-51,27,-10,15,-49,-23,9,15,52,-58,-21,-7,54,2
1490228988307,-25,-8,-28,-21,43,17,-7,-24,-13,-4,16,51,-28,2,5,-6
1490228988308,29,24,18,-5,-31,-11,2,16,-6,-18,-17,-3,40,-18,-12,1
1490228988404,34,-2,-15,-41,21,19,27,6,-14,6,6,57,19,32,30,-5
1490228988406,-3,-4,8,7,-2,-26,4,1,-18,-14,2,-6,-6,59,20,-11
1490228988453,4,27,18,59,-39,1,-15,9,-5,5,-19,-33,45,-38,-36,-13
1490228988454,-25,1,-35,-14,81,29,27,-3,-5,2,39,36,-74,0,-1,-11
1490228988502,-42,-34,-16,-22,-77,33,50,2,-3,-20,-11,5,29,7,-48,10
1490228988551,64,6,43,53,-9,7,-7,33,-22,4,6,-8,-48,-26,-65,-30
1490228988600,19,-22,17,12,-6,-16,-45,-11,-3,-14,13,37,20,-66,-16,16
1490228988648,-3,6,-3,-16,12,0,7,-36,17,-30,-11,-54,118,61,15,-4
1490228988649,16,-1,-64,-101,34,127,-7,13,-28,11,5,4,39,-29,61,-21
1490228988697,-52,10,-14,3,9,-31,-12,8,-2,7,-2,-12,-26,-62,74,23
1490228988746,40,18,57,71,-43,-105,63,40,-23,4,-4,7,76,-46,-99,-5
1490228988795,9,5,-2,-13,-6,71,-9,-3,9,21,13,24,-22,-59,-16,-14
1490228988844,8,3,11,8,-11,2,-16,6,-27,2,-4,15,92,89,-39,-10
1490228988892,9,9,11,12,-18,-60,-40,2,-39,-17,-26,-94,-10,32,55,-4
1490228988893,-27,-11,-3,-10,-35,-65,-10,-16,25,-16,-34,-33,-50,73,31,13
1490228988941,26,28,8,8,22,-25,34,-1,-31,-17,-10,0,-24,-45,-12,12
1490228988990,-9,-18,2,-5,18,77,68,-4,12,16,23,17,20,30,-37,0
1490228989040,-6,-39,-10,-16,-12,44,-16,-2,-8,20,10,1,-21,9,7,-7
1490228989087,-31,-24,24,38,20,-26,-23,-41,-17,4,-29,-34,-55,-6,35,-6
1490228989136,43,-46,-19,1,19,-7,31,5,-30,18,18,50,25,-57,25,16
1490228989138,-64,25,13,0,3,0,-5,1,10,14,-13,32,15,13,12,-15
1490228989185,-101,-88,-29,-34,53,-39,3,-24,51,-22,17,18,5,8,-9,27
1490228989234,2,3,3,-15,-24,-9,-15,-9,-22,-56,-11,-6,3,-9,18,0
1490228989284,-21,-47,75,20,28,3,-47,22,6,60,-29,-29,6,0,22,46
1490228989330,37,11,-128,12,-39,-9,-23,-49,19,40,-17,-61,16,4,11,-21
1490228989333,-128,-117,-14,29,15,8,34,-7,15,-17,-24,7,-2,1,-15,-1
1490228989381,108,30,4,35,4,9,-47,-2,-13,0,63,17,-37,-1,25,7
1490228989429,-12,-69,-125,-88,-4,-16,20,-7,39,-29,-92,-4,3,-10,-34,-12
1490228989477,-80,26,100,24,19,4,37,43,47,24,-4,12,12,4,10,6
1490228989526,31,40,52,35,25,7,-3,20,-20,-35,-59,-51,-39,3,-12,-7
1490228989574,66,58,83,56,17,-19,-58,38,-21,-4,-98,7,22,21,42,-16
1490228989576,20,-66,-85,-66,-45,-8,-43,-7,6,26,-28,-75,-44,-11,0,-26
1490228989624,-1,33,34,21,5,5,3,-50,-128,13,40,12,24,-6,-23,27
1490228989672,-25,-4,-3,-20,-23,1,3,8,24,12,-31,-4,2,0,2,-3
1490228989721,-43,-48,-9,-3,-18,-19,-12,-8,-53,-3,-4,-4,6,1,-9,-7
1490228989770,9,20,-14,0,12,-1,1,-11,44,-4,-11,-11,-12,4,25,8
1490228989818,23,-5,41,35,14,7,-10,-8,-75,12,-11,7,17,20,63,4
1490228989819,-15,11,-6,7,-2,-9,-8,10,2,-4,13,3,3,11,-3,-27
1490228989867,-18,-6,-4,-8,6,19,24,5,-1,-13,-1,5,-17,-23,-28,-3
1490228989916,14,10,9,9,4,3,27,-3,-22,12,7,17,-4,-1,-51,-14
1490228989965,13,-13,-6,-8,-5,0,-11,20,-8,8,9,2,-16,-4,16,-17
1490228990013,-18,-1,-2,5,3,2,15,-1,24,3,1,4,-6,-19,0,16
1490228990015,68,12,12,-1,8,3,15,6,-6,2,1,0,-5,29,-1,2
1490228990063,-27,-1,7,6,-8,-1,5,-6,0,-21,-11,2,27,15,11,10
1490228990111,-3,5,16,22,37,32,12,-6,-37,-18,-9,-11,-10,-16,-1,-1
1490228990161,-81,-8,-4,21,-19,-19,-16,-24,55,-15,-26,-18,1,26,23,30
1490228990209,40,10,3,-3,1,38,9,14,-77,-31,-38,-28,-22,-3,24,-6
1490228990259,-124,-9,51,23,15,-16,-7,-7,18,-12,-22,-10,-45,-56,-32,-16
1490228990261,42,40,-15,6,2,-17,11,6,-59,15,31,-28,-37,-36,-51,-33
1490228990306,57,-17,-24,-3,-15,9,-25,11,-12,-1,6,12,28,19,42,-1
1490228990358,-37,15,74,-56,-24,26,1,28,117,96,11,62,10,-10,78,5
1490228990407,10,0,-2,-57,-23,-15,26,24,72,-36,-43,-18,-43,-36,-4,12
1490228990453,72,20,15,39,10,-9,-5,11,-2,53,90,30,12,-4,-7,-15
1490228990500,-34,-9,12,52,22,-1,21,46,19,-11,-50,-46,-14,-6,-64,-52
1490228990502,-53,-9,30,65,-9,26,21,18,-4,-44,118,24,7,18,24,27
1490228990550,127,-10,-67,-42,-40,-11,-61,-51,-128,-3,-68,-93,13,-8,-12,22
1490228990599,-117,-56,-109,-83,-66,-35,7,-29,-3,56,59,-12,7,16,-1,-2
1490228990647,64,107,66,38,63,30,26,-20,-102,-66,-8,-3,2,-8,-11,-56
1490228990696,-5,78,109,29,-7,4,-41,-47,127,88,30,85,56,-13,43,82
1490228990698,-96,19,60,30,65,10,30,-64,22,76,110,4,33,4,-5,27
1490228990747,93,33,-76,-92,-59,-41,-5,1,-88,-41,33,44,54,55,27,-34
1490228990794,-128,49,-49,54,27,12,-26,62,68,14,-37,-92,-88,-43,-19,13
1490228990842,89,3,-47,16,-19,-8,16,40,-102,-22,-64,-66,27,20,-11,-63
1490228990891,58,75,126,77,16,37,28,0,126,112,-123,-57,-18,32,-32,70
1490228990940,-28,56,-52,6,46,4,53,12,-28,-65,-37,7,-1,-16,-26,2
1490228990944,55,-128,-70,-93,-36,35,14,28,-9,82,-126,76,19,-13,0,-17
1490228990989,-3,-3,-50,-63,-20,1,-14,0,37,-64,-5,72,-17,-21,-30,-5
1490228991038,28,21,8,-76,-5,-9,31,-4,-36,-17,28,30,-66,-25,9,3
1490228991086,26,-85,-11,-79,-65,-26,-57,-11,4,-7,-51,-38,-75,-48,-62,-28
1490228991134,-9,35,43,59,10,-12,55,10,2,23,24,-1,-25,14,31,13
1490228991136,19,-14,-35,-6,-79,31,37,12,0,75,57,54,84,-7,-37,-9
1490228991184,17,10,7,-62,-26,2,-22,6,9,-9,-9,2,17,11,21,-9
1490228991233,-16,-10,-22,-20,-7,18,18,0,2,-18,-1,-8,-76,-22,2,5
1490228991329,23,-4,14,52,7,-17,-20,7,-11,-1,-9,-27,-7,-25,21,-6
1490228991332,2,3,-15,-21,51,0,-18,-23,5,-12,-18,10,4,-21,-49,-12
1490228991378,0,2,-6,-22,-46,0,-28,-12,13,1,1,-29,27,-15,22,37
1490228991379,-22,-6,-19,-81,67,-3,34,12,5,2,19,33,-34,-4,7,-5
1490228991427,6,8,12,26,-15,17,-28,19,20,1,3,14,-49,0,26,-1
1490228991476,9,37,13,4,48,-60,18,25,0,21,-3,-17,-3,-79,-5,7
1490228991573,-6,-2,12,19,33,103,-30,-4,-8,-12,0,-17,57,108,-63,-26
1490228991577,15,-17,-19,-45,98,-104,-63,7,-19,-17,18,105,-85,-35,-56,-35
1490228991622,26,-20,-3,69,-39,-38,57,18,27,-4,-41,-42,99,-65,91,35
1490228991623,22,-3,10,19,-7,-86,-36,12,18,-4,16,55,-33,-22,4,-4
1490228991671,-28,-6,-40,-58,14,34,-27,-15,-2,7,-11,-22,-4,-15,-36,11
1490228991720,12,24,18,29,17,-77,-30,-1,-36,-9,-21,-40,-21,22,-14,-21
1490228991769,4,-1,-1,33,-12,-40,14,-11,-3,2,2,2,7,-84,-33,-2
1490228991817,-5,11,-6,-16,70,-26,-32,2,5,11,-5,-32,12,-26,-28,1
1490228991819,-6,6,0,-20,4,44,57,-5,1,8,-1,7,31,8,71,17
1490228991867,6,7,16,46,-21,-3,3,1,1,7,0,-11,25,-15,12,9
1490228991915,-8,14,4,-1,5,2,-10,20,7,6,-1,15,-33,77,10,-9
1490228991965,6,-7,-6,-15,-56,-115,-34,-12,5,-6,4,14,-7,-112,18,-6
1490228992012,38,33,3,0,8,25,15,-17,-59,8,17,9,10,40,-58,-11
1490228992060,-5,-45,-9,29,33,-22,-9,-11,-25,11,-22,29,6,80,-8,2
1490228992061,-76,-24,47,-24,-7,-11,-33,-62,100,56,8,73,16,-39,13,11
1490228992110,-2,23,11,-4,11,4,18,5,-67,-12,11,16,17,-20,-22,-38
1490228992160,36,-7,17,-12,0,-8,-16,16,-24,94,92,39,24,-28,27,-3
1490228992208,30,37,-9,4,15,1,-6,-32,29,-15,13,-26,-14,0,9,20
1490228992256,19,47,13,-18,14,1,30,4,-18,-50,-12,31,6,-23,-11,3
1490228992304,-34,-16,-93,-35,-34,-18,-24,12,16,42,-39,-17,-20,-4,17,8
1490228992306,10,-22,-4,4,13,-2,20,-7,-57,-21,-31,-4,23,21,-34,-27
1490228992354,-25,5,46,34,17,6,55,-1,49,20,-27,29,6,-5,-24,8
1490228992403,52,60,33,-33,-13,-22,30,26,-57,-25,-22,4,-10,-8,-28,-31
1490228992451,-57,21,92,101,-4,-2,-3,-28,121,49,-70,-59,2,12,6,38
1490228992499,-7,58,7,-49,3,9,-12,-14,2,19,6,21,0,2,21,-4
1490228992501,-86,-32,15,17,-6,6,-27,-8,85,23,-16,-37,7,11,-6,13
1490228992549,-21,-55,-2,31,47,6,-40,-10,20,40,7,7,-2,-17,33,-40
1490228992598,57,51,23,31,16,17,-20,-40,10,-18,-14,17,14,6,19,-6
1490228992646,-65,-58,-40,-11,-29,-11,-1,-13,-31,14,4,-2,-12,4,16,11
1490228992695,13,-20,5,19,3,18,-2,3,-46,24,33,26,-13,-10,19,-32
1490228992743,-4,5,-25,-15,-15,-10,21,-2,50,1,4,-5,-15,-28,-47,-23
1490228992745,-12,-23,-26,-12,18,26,17,24,-51,-3,9,3,15,6,23,-22
1490228992841,-45,-3,5,14,0,-7,-33,-2,45,-6,13,7,2,28,44,15
1490228992842,5,34,8,-8,-20,-2,-1,-15,-2,30,8,-6,-41,1,-38,4
1490228992891,44,-2,-6,-5,36,0,7,24,37,4,4,17,29,24,21,19
1490228992939,-2,-16,-21,6,-22,12,-27,-24,13,-2,-21,-6,1,-2,33,27
1490228992987,22,-9,1,-1,0,-10,3,-11,-19,-15,-6,-1,13,45,28,-13
1490228992988,-3,9,2,-3,4,2,-8,-9,-33,-32,7,-13,-40,-15,-20,11
1490228993036,-47,17,-2,1,2,7,-20,-21,-5,9,4,9,9,4,3,-6
1490228993085,24,15,27,29,3,8,36,5,61,32,-9,-18,8,-10,-17,-4
1490228993134,31,-12,-17,12,-4,6,-23,8,-24,-8,-21,-40,-36,-30,-22,-8
1490228993182,-14,-18,-24,-84,-18,-2,-21,-16,5,7,-5,17,-7,-8,53,28
1490228993185,-89,-46,-57,-11,-23,-35,1,-19,-10,-1,0,-40,-4,-23,13,0
1490228993231,127,57,13,59,2,-7,7,9,-27,19,65,-2,12,-4,-3,9
1490228993280,37,21,-27,13,-6,4,-36,19,42,-44,-69,-45,-12,1,38,19
1490228993329,105,29,26,-17,-2,-18,-32,13,83,10,1,34,24,26,26,8
1490228993378,-82,-12,-38,-7,-22,-5,4,38,0,-12,40,30,6,-5,8,-10
1490228993428,-6,21,116,50,38,19,33,-29,-3,3,-37,45,-14,8,-9,10
1490228993429,-104,-73,82,68,27,-23,-29,-76,3,17,-91,-51,-31,14,-11,-20
1490228993475,127,36,-54,92,5,14,-20,76,46,12,-30,-82,-50,-31,-22,10
1490228993524,97,-26,83,32,-15,9,-39,-25,-105,-35,65,29,41,-8,-39,-28
1490228993572,61,105,60,-13,-41,-9,74,59,-128,-39,5,116,70,5,6,-65
1490228993621,102,34,30,-128,-41,-17,-37,-46,117,24,-87,82,7,-12,-51,81
1490228993622,-49,-79,-41,91,19,1,23,37,99,67,-42,-117,-25,-23,-24,-47
1490228993670,-107,49,73,-10,80,-8,-26,26,-69,-43,36,93,19,33,-57,-101
1490228993719,74,89,107,10,-100,-2,60,103,-25,6,10,33,71,-11,-79,-111
1490228993768,-124,-97,-110,74,106,49,87,-25,127,114,-43,-8,-24,-18,-4,15
1490228993816,7,30,89,83,71,45,-6,22,-10,-62,-113,-126,-66,21,27,-30
1490228993864,-42,15,-109,-40,-20,-26,6,-18,100,73,119,106,31,11,-36,22
1490228993868,-120,-82,-69,-119,-16,-13,-27,-46,4,9,73,50,30,2,64,43
1490228993914,77,66,12,-4,-31,44,11,53,-54,63,46,80,61,6,-18,-39
1490228993963,-24,-75,-97,-68,-13,-34,-36,-25,-33,-20,35,-27,-64,-20,6,-5
1490228994012,-61,10,22,31,47,56,48,-38,-3,17,13,16,-44,-33,-35,-25
1490228994060,-6,24,59,-10,-87,-39,-78,-9,19,9,-6,3,71,45,85,19
1490228994108,-23,-28,11,12,50,78,-8,-11,35,48,54,51,5,-27,27,37
1490228994110,-9,-29,-3,-29,-11,0,2,20,7,9,18,33,52,20,17,-4
1490228994158,30,10,-2,6,-14,-3,1,17,-20,-12,-35,-69,-100,-37,35,5
1490228994206,-2,-15,-11,-4,33,19,9,-6,-15,7,-12,-30,50,-12,-21,-12
1490228994255,-22,-4,-14,-13,17,15,-17,-15,8,13,14,49,-56,-23,6,-9
1490228994303,-16,-6,-4,1,-11,6,52,6,24,14,3,7,112,14,37,11
1490228994307,-9,1,-19,-67,35,63,44,8,-14,-11,-13,-8,1,-15,-48,-6
1490228994352,-10,-3,-7,7,-2,-32,32,17,-21,0,-29,-58,75,2,-3,-25
1490228994401,6,-4,0,-24,-54,-112,6,15,1,0,3,28,23,-46,-1,-12
1490228994450,-42,-31,-44,-34,107,46,-32,-29,40,14,42,57,-43,-65,-12,45
1490228994499,16,11,-17,38,66,95,94,27,37,-1,-58,-58,31,124,19,8
1490228994547,3,-9,15,8,-8,-79,-107,-19,10,23,16,-11,-126,-103,94,7
1490228994549,-9,1,2,4,117,28,18,9,8,-12,-12,-41,18,35,-15,-19
1490228994596,-13,-6,-6,12,-3,55,44,-4,-12,-24,5,-2,-48,3,-39,-10
1490228994645,-12,-7,-9,-53,33,-58,-52,-14,15,8,25,43,-128,-83,57,19
1490228994694,-20,-4,16,4,-23,-50,-51,-2,15,12,-1,1,-19,93,16,-2
1490228994791,-14,0,-35,-35,108,102,57,15,6,5,28,85,5,33,-52,0
1490228994793,23,19,15,-3,-77,48,-61,-5,4,10,-10,-22,11,-80,50,18
1490228994795,-1,7,0,-6,-25,26,5,-8,9,-12,-19,-40,15,-9,25,29
1490228994845,-15,-8,4,4,-1,15,13,-5,6,1,-8,-12,16,31,-15,8
1490228994889,1,0,-1,3,6,49,8,17,-5,-5,-12,-15,-1,7,16,2
1490228994939,14,5,13,8,-18,-70,-21,-6,2,-5,3,6,12,-87,-5,9
1490228994986,-47,2,5,-3,8,26,-26,-20,-17,-72,-64,-28,-2,52,18,20
1490228994987,40,-13,-32,14,24,-25,-20,7,21,-26,-54,-75,-34,6,-23,-5
1490228995035,36,-21,15,-17,-37,-18,4,6,-62,-20,15,30,25,64,-55,-44
1490228995084,25,-11,-42,18,56,-21,-25,-15,-44,14,58,9,18,-4,33,43
1490228995132,17,17,-60,-61,-10,18,-32,35,-26,-6,7,6,0,3,11,-36
1490228995181,-3,-5,75,29,25,26,-8,42,-33,25,-26,5,8,14,-8,-23
1490228995230,31,10,-19,-19,-29,-21,-23,-17,30,13,-8,20,1,6,38,2
1490228995231,15,-32,-81,-46,-6,-14,23,75,38,33,13,74,13,-31,-36,-74
1490228995279,13,-23,-68,-40,-44,3,-17,-8,-38,-49,66,101,28,-7,-24,1
1490228995328,-4,56,30,5,52,-7,15,1,6,-25,-53,-76,-2,3,30,28
1490228995376,45,64,20,-29,-31,-5,2,44,82,33,12,-4,20,13,-9,-19
1490228995473,-92,-100,-17,-47,-20,-34,5,-22,39,53,38,50,1,17,68,65
1490228995476,35,15,39,46,47,-7,51,49,-21,24,6,-7,0,13,-12,-47
1490228995477,-18,-22,-51,-5,-37,-10,23,-9,48,6,55,30,27,2,-54,6
1490228995524,16,-1,-1,-18,26,24,5,13,93,3,-26,6,-23,-46,-1,9
1490228995619,88,35,41,43,17,12,-44,-9,-14,-5,-13,-1,12,12,47,22
1490228995620,-29,7,23,-11,-17,-11,26,-41,46,-15,-3,16,-6,7,-10,-10
1490228995668,-24,-28,-19,-36,-37,-7,-28,-40,-12,14,-10,-17,-19,8,6,34
1490228995670,5,-10,-10,11,-1,13,-1,0,34,-10,-2,6,8,-27,-71,-13
1490228995717,28,-5,-23,-18,-14,-32,-13,-3,-1,-21,-27,-2,-39,-8,-18,8
1490228995766,23,-6,2,12,-3,-3,51,-5,3,14,12,-9,9,-8,-10,4
1490228995815,34,1,-11,-13,-18,20,5,17,-29,15,7,-4,-6,-2,-5,-3
1490228995864,-32,-2,-8,-27,-5,-10,-30,-11,10,-3,-1,-17,-22,-21,-1,-18
1490228995912,-14,10,4,4,-28,-15,-38,-13,-6,22,-9,-12,-11,12,32,7
1490228995914,-21,-20,10,-24,-22,25,27,4,28,-9,5,12,28,0,-5,20
1490228995961,14,0,0,4,-8,-17,-45,9,23,-8,-3,-8,6,-11,25,14
1490228996010,4,-11,-3,-22,-29,-30,-37,-17,-22,4,-12,-21,28,13,-13,4
1490228996059,-80,-6,4,-2,-3,-2,-34,-17,-3,-5,9,-8,-6,31,12,-8
1490228996107,26,-3,-19,21,17,0,-27,-10,-3,-1,14,-12,-7,12,28,-1
1490228996156,30,7,-9,-48,-27,1,-13,-12,-93,-24,22,7,7,7,35,-16
1490228996158,-31,13,20,85,17,-15,-47,-34,-50,13,-4,4,3,11,-37,21
1490228996205,56,15,20,25,16,13,19,11,60,-24,-100,-66,-51,-13,-6,-11
1490228996254,80,2,-59,27,-18,-23,38,30,-21,-26,12,-72,-20,-2,-10,37
1490228996302,64,-35,-51,-118,-29,7,-9,29,-39,-36,-47,21,-45,-39,13,-53
1490228996351,-119,-6,82,-19,-1,-22,5,-21,107,-4,-25,27,15,-16,-25,8
1490228996352,-119,-66,-97,-73,-27,-70,-110,-62,-68,33,59,-32,-4,27,13,-54
1490228996400,-57,53,95,24,-1,18,50,-33,127,7,-82,-71,32,45,-22,32
1490228996497,32,-59,-95,-84,-47,-24,-55,-11,65,-43,-20,-22,-43,-35,12,-10
1490228996500,-127,19,56,34,-50,-34,-32,-67,127,84,127,126,56,11,28,72
1490228996546,81,80,-36,-5,51,43,-17,77,-84,-94,-17,29,-5,-7,40,46
1490228996594,-36,-51,-43,0,50,61,69,1,66,15,-63,-101,-27,-30,-40,-4
1490228996595,-95,42,127,127,69,18,2,-79,51,60,-128,-51,-2,6,31,5
1490228996644,-3,83,47,89,10,-16,8,-9,69,77,11,71,59,41,73,-24
1490228996692,-128,-128,-128,-88,-105,-82,-18,-11,29,-65,-69,-75,34,17,-72,-38
1490228996741,3,-60,-74,19,-3,17,-1,-1,-46,51,110,43,79,27,2,-5
1490228996789,46,107,-62,-128,-77,6,-35,55,-72,-126,-119,-128,-39,-26,-8,-53
1490228996792,40,127,127,127,42,-2,67,93,-96,-128,-128,-108,28,16,-80,-108
1490228996839,-32,21,-43,45,9,16,35,-11,47,-8,-34,-37,35,-21,-44,24
1490228996891,-30,-110,-85,-105,13,-16,-17,-24,-52,-34,78,92,-73,-31,-44,-12
1490228996937,-19,-44,-111,-12,-86,-28,-55,-16,-36,-61,-50,17,30,13,30,-16
1490228996985,-3,48,102,85,54,6,0,-15,-6,8,-74,-74,68,25,-11,-5
1490228997033,7,24,26,2,-100,10,19,8,15,10,58,-2,40,-10,-21,24
1490228997035,-42,-27,-62,-89,-14,-20,-38,-28,9,16,27,18,-72,9,24,13
1490228997083,-6,-29,-20,-13,-35,14,14,7,-20,0,25,36,70,-6,8,-18
1490228997131,-20,9,1,-29,20,40,45,16,8,13,11,-21,-1,-15,-38,10
1490228997181,-15,1,12,7,-35,-28,27,-1,5,0,-14,7,49,31,14,-13
1490228997230,-10,2,-4,-27,10,-4,-40,-20,-16,-12,-25,-10,38,34,55,7
1490228997277,-14,-6,-2,-12,13,-9,-26,-13,20,31,22,40,-5,1,5,17
1490228997278,-11,3,10,-23,-44,-26,-22,-10,27,-3,15,-7,-26,-16,-23,17
1490228997326,26,14,-17,-22,91,48,-8,8,-26,14,28,44,-57,-1,8,-14
1490228997375,20,-5,33,58,-59,18,-19,2,-23,-26,-57,-128,83,-4,46,0
1490228997424,-32,-30,41,78,-73,-8,91,24,-4,-14,-84,-107,66,56,77,18
1490228997521,-36,-3,-1,31,-47,4,-63,-4,7,-19,-10,43,70,7,-25,-8
1490228997522,15,-27,7,-2,-13,56,-8,3,22,-18,-13,-25,-35,32,-4,-12
1490228997526,15,-10,5,-33,83,48,-30,-8,7,-5,7,-17,10,30,19,1
1490228997572,0,6,10,19,20,-61,13,-10,-37,0,-7,-10,-19,121,1,-13
1490228997619,18,12,-5,-15,37,-4,-26,3,-14,31,27,61,-10,-55,11,-2
1490228997667,38,-7,-32,-39,-47,69,4,10,-22,-9,-38,-73,88,107,42,-8
1490228997716,-11,5,10,11,-7,-29,-55,17,0,0,-4,11,19,43,-101,-30
1490228997717,-22,1,8,29,50,23,11,-5,7,10,0,-3,3,-30,10,-3
1490228997765,-3,-9,-4,6,11,-17,4,-7,-4,0,5,14,-30,0,-2,6
1490228997814,11,-3,2,-7,-5,4,4,1,-17,4,-7,-39,-27,88,6,-5
1490228997863,-10,-1,1,22,-20,-37,-17,-4,-5,6,4,1,34,15,12,-9
1490228997911,16,11,0,9,-5,-78,-7,-13,10,3,-3,13,-44,-80,-14,4
1490228997959,-49,-63,-18,-21,-19,112,-15,-43,43,33,18,25,26,64,-26,1
1490228997961,-25,-44,-14,11,15,74,17,18,41,21,-33,-60,-35,91,4,-24
1490228998009,19,37,-32,-51,-23,-37,-42,-26,-66,-95,-34,-18,-12,14,20,10
1490228998058,24,-2,-2,24,26,1,-27,-8,59,19,-39,-34,-1,-16,28,23
1490228998106,-16,-35,-10,21,7,14,6,-23,21,37,41,-14,-21,-21,-6,8
1490228998154,83,15,-60,-16,25,-15,-4,33,-90,-29,-23,-25,3,28,-45,-50
1490228998156,-11,-39,-31,-74,1,-23,-39,-28,11,-53,20,43,4,-11,14,-28
1490228998204,-40,39,22,-3,37,-6,1,-42,-73,-27,-32,61,6,0,-10,-22
1490228998253,28,81,-77,-31,-23,-10,0,6,-34,-112,-49,-50,1,7,22,-9
1490228998301,-55,-36,17,-7,-22,-16,9,-3,53,-1,-58,-51,-7,-27,23,42
1490228998350,-21,-35,-16,-7,-7,14,-21,-39,-7,12,32,6,-26,3,-3,-21
1490228998399,7,-20,-7,-50,1,-18,-12,27,79,28,19,15,19,42,14,11
1490228998401,-22,-13,39,19,-29,13,39,-12,28,52,44,23,44,-11,-25,-3
1490228998448,48,15,-1,37,4,-2,0,36,-64,-31,-68,-24,-12,2,-21,-62
1490228998496,67,40,33,22,43,10,71,23,-58,-27,36,67,1,-6,19,51
1490228998546,-77,-55,1,15,-6,-3,-46,-16,27,-3,28,-28,12,18,97,38
1490228998595,-53,-25,-60,13,6,-6,-18,-35,2,-21,-19,-66,-32,-9,-19,-9
1490228998645,-4,19,22,10,10,2,55,-15,95,2,-15,10,11,3,4,32
1490228998692,28,38,17,6,-27,-14,-33,-29,-15,-26,-4,3,17,-3,0,48
1490228998693,24,1,-41,-5,-9,-18,14,20,2,24,4,11,1,-19,-55,-19
1490228998740,-15,7,26,16,3,8,9,-4,-8,1,-8,0,-22,14,-17,-6
1490228998788,72,28,19,4,-32,-30,-17,0,-8,-5,-8,-15,1,-11,-14,-19
1490228998836,-20,-12,-14,-21,-8,3,-6,9,11,-3,-2,-7,9,38,65,2
1490228998838,35,14,4,7,19,-10,-31,-13,-17,13,18,-6,-9,-4,-21,-7
1490228998886,-58,-2,7,-6,-9,-23,-21,-13,34,-9,-14,-8,-3,-24,-34,-21
1490228998935,-23,-4,-4,-5,-6,3,-8,-25,12,-4,7,22,14,1,18,68
1490228998984,1,-27,-7,3,0,-22,-23,0,22,-2,-15,-31,-14,11,27,-5
1490228999032,2,-10,-11,-19,-8,-8,-24,14,-5,-2,9,5,7,42,17,20
1490228999081,64,13,-12,3,-1,-4,-19,-22,-59,-3,-5,-8,6,-4,-9,-8
1490228999085,-31,-3,-3,-9,-12,-9,10,11,15,18,38,18,-5,-28,-30,-16
1490228999130,-65,-12,-1,-1,2,15,-38,-5,39,-8,-18,-11,10,-1,34,25
1490228999179,-21,-10,-14,-27,-9,16,-32,23,51,22,29,18,-3,9,4,-33
1490228999228,-38,-42,-37,2,-2,-5,65,-14,-69,-5,-3,-12,-35,-26,-24,11
1490228999276,67,10,38,-30,-13,-14,-68,-13,-51,-1,-8,-13,0,-7,67,12
1490228999278,-27,-31,5,67,16,4,13,-3,-128,-22,-9,1,-5,2,-17,-24
1490228999325,96,3,-1,36,5,-12,-20,63,64,32,-70,9,-13,-15,49,-2
1490228999374,-125,-30,-63,2,5,-15,-12,-11,113,-30,99,91,17,-3,28,69
1490228999472,-40,-18,-14,-116,-22,-4,-59,-52,59,-68,-75,-5,7,6,-9,-41
1490228999473,-65,-40,47,-35,-1,-24,-11,43,-25,-7,-89,124,-9,5,-32,-86
1490228999519,114,8,-81,20,3,41,13,45,111,-17,16,-29,-4,-31,-21,-33
1490228999568,-56,-77,3,-99,-64,-45,-69,-73,-46,76,86,-36,6,8,14,41
1490228999569,-58,14,-29,77,30,4,-45,-105,27,-83,-49,-44,-34,-28,45,50
1490228999617,66,-43,65,-9,23,3,11,-5,-37,87,126,126,0,6,35,12
1490228999666,108,124,39,62,71,38,34,34,39,48,-6,1,2,-6,27,70
1490228999717,32,69,-42,15,-6,-27,-15,31,72,13,93,-1,2,27,-49,32
1490228999763,84,-22,-57,43,-57,-22,-46,76,-106,-71,-68,-128,-55,-2,3,-88
1490228999765,88,108,79,78,54,17,49,22,81,49,-99,-45,33,13,2,65
1490228999813,-70,-36,24,-31,4,-20,-26,-23,79,-11,106,98,10,35,0,11
1490228999861,-107,-108,-128,-128,25,6,-24,-1,8,13,66,25,-52,-58,-55,-72
1490228999910,25,17,-81,-39,-4,13,18,34,-11,79,-2,93,13,1,-15,-13
1490228999958,-80,-47,-37,-96,-92,-34,2,-53,72,39,-13,92,41,7,51,59
1490228999960,-88,-57,-17,41,-39,-54,-35,-21,65,119,113,-52,-6,12,31,10
1490229000008,46,8,115,75,74,11,13,34,71,26,3,79,46,7,-7,28
1490229000056,20,2,76,71,77,21,-36,-38,21,-41,-128,-16,-10,-31,-15,29
1490229000105,-104,-42,1,105,3,-6,21,-49,22,-24,-1,-24,-13,-16,-1,20
1490229000153,6,-11,-122,-127,-92,-28,-58,-4,-83,-82,-47,-107,-109,-15,15,-50
1490229000201,20,13,-20,-29,12,-2,11,6,17,-62,-48,-6,5,-3,20,24
1490229000203,16,8,-6,-14,-72,21,-9,-17,1,32,58,35,48,-13,30,14
1490229000251,23,23,63,12,0,27,17,8,-9,-20,-46,-47,39,-63,-29,1
1490229000300,-3,-10,-16,-50,31,21,27,-2,0,18,25,21,91,7,-8,-5
1490229000348,-8,-2,-2,13,-34,5,19,-5,15,7,-5,-38,61,4,3,-4
1490229000397,4,5,-13,-21,-36,11,-15,-9,-18,-7,15,22,36,15,-67,-9
1490229000446,25,15,31,34,-52,-10,45,21,0,6,7,24,64,25,-41,-6
1490229000447,5,22,16,7,6,-28,16,-7,3,2,-10,34,30,-109,-5,11
1490229000495,5,1,-15,-33,6,24,-5,-2,-2,0,14,51,10,14,7,-1
1490229000545,-1,-9,-1,34,44,-110,-14,17,4,1,-2,6,-2,66,-25,-1
1490229000592,33,2,-8,27,-2,29,8,-17,-18,-14,-16,20,-9,-3,-50,-8
1490229000640,16,0,-23,-30,-52,-16,38,25,-36,-37,-3,-26,-46,60,-20,-36
1490229000641,-8,9,24,-4,-66,0,-10,-23,-16,-22,-52,-102,92,36,0,-1
1490229000690,-8,-4,24,25,10,-18,-59,-11,9,-3,-16,-41,23,-59,71,25
1490229000739,7,4,-14,-34,-3,9,-9,2,13,3,20,25,-98,0,0,7
1490229000787,-2,-3,-27,-43,-2,93,-13,-11,5,19,12,8,-19,22,-10,-3
1490229000836,-3,4,6,23,-61,-4,-8,-9,-18,2,-6,-2,49,40,32,-4
1490229000884,2,-9,0,4,18,-5,-4,-9,-19,-5,2,-16,-18,8,20,-3
1490229000887,18,14,16,-3,2,1,2,12,-2,9,2,21,18,71,-7,-3
1490229000934,3,6,-10,-4,6,28,-24,-8,-34,-19,9,22,-27,-61,5,-13
1490229000982,3,-2,5,12,3,-1,7,11,25,15,26,40,36,5,-8,9
1490229001032,63,20,26,57,-26,-53,-2,66,-76,-104,-64,-65,2,86,-37,-75
1490229001080,56,6,17,29,39,-44,-17,15,-9,-17,-48,-52,-10,-42,-26,-10
1490229001128,-49,4,15,-37,-4,82,3,-6,-19,-27,4,27,12,44,22,-14
1490229001129,-18,-55,-40,-55,-10,32,-51,-20,3,63,51,33,-7,-11,3,-6
1490229001177,71,87,115,88,46,11,-16,60,-33,-4,-13,24,-13,-17,-10,-77
1490229001226,-1,41,33,17,36,14,-37,-24,-46,-57,15,-5,-41,-1,-35,-22
1490229001275,98,9,-13,-21,-19,-19,-4,-20,-49,22,33,22,5,9,-18,-10
1490229001323,-96,44,42,-6,-6,-35,-20,-58,71,58,57,38,26,29,-29,-15
1490229001326,56,-69,20,29,-14,1,-35,29,-65,-15,-82,-27,10,-10,22,1
1490229001373,48,62,6,-10,10,-30,12,12,26,-41,33,18,-14,42,53,46
1490229001421,26,-3,-66,-11,5,15,-13,-22,-70,-20,43,-1,-7,-21,-2,-16
1490229001518,-128,20,59,-4,11,12,-5,-27,20,-5,-32,32,12,7,26,3
1490229001519,-56,-34,-31,15,-20,-10,14,-58,48,63,67,-20,12,9,6,-1
1490229001568,-41,38,53,22,-30,-27,-20,16,43,9,-81,-56,28,13,-8,-21
1490229001569,-48,-36,-30,22,-6,-29,-19,-5,4,-33,-51,-49,-51,-19,-30,-13
1490229001616,-25,-18,38,9,29,2,-7,-16,-5,-8,-12,15,-31,-27,-7,-28
1490229001665,-14,-18,-65,-51,3,5,64,23,8,23,66,42,15,-10,-15,-4
1490229001714,-93,-37,-50,-30,-25,17,-22,-18,74,-6,3,-49,12,-9,18,34
1490229001763,48,0,4,9,-13,0,11,17,-32,4,13,36,23,-13,-16,-18
1490229001811,12,21,-3,-24,28,7,-44,-29,55,4,-39,-12,-14,-23,22,13
1490229001816,11,2,-7,23,4,-10,-33,10,-3,-12,-33,-28,-30,9,5,-15
1490229001861,-41,-1,-2,12,-2,-27,-12,-12,14,0,34,28,0,0,-24,-7
1490229001909,47,-6,6,6,15,4,-18,26,-4,10,21,15,9,-24,-16,-35
1490229001957,-36,-26,-13,-17,18,-2,-2,-22,-6,-13,0,-14,-2,6,-9,2
1490229002005,34,8,-6,-13,-9,-3,-3,-14,-6,-2,-7,-3,-15,-22,-3,20
1490229002007,-61,-3,10,-1,-40,-19,-43,-2,65,15,5,30,61,18,31,-4
1490229002055,-8,1,-5,-11,-26,-13,-32,-18,6,-1,-15,-10,25,-2,-45,-6
1490229002104,5,-11,-14,22,57,30,47,11,51,19,2,-2,-8,10,8,27
1490229002152,-7,-1,-5,-21,-32,-24,-73,-23,13,-8,0,1,-7,-13,37,26
1490229002201,-6,-14,2,-17,-18,6,27,-8,14,22,21,34,44,3,46,-7
1490229002249,33,14,-13,10,11,38,18,-3,-48,-31,-19,-11,3,-13,-15,-18
1490229002251,24,-1,-11,1,-11,-7,13,38,25,6,-6,-11,-18,-2,-52,-21
1490229002299,-8,14,-9,13,5,7,31,2,-9,-7,-1,-4,31,18,-36,0
1490229002348,13,-4,7,-12,1,14,46,6,17,9,-24,-17,-16,-26,-27,-17
1490229002396,-83,-15,-6,-11,-9,7,-5,-33,112,14,34,37,33,-26,-1,11
1490229002445,-69,31,46,5,-7,-6,65,2,27,8,-25,14,-10,16,22,14
1490229002447,40,26,58,30,31,-4,-37,-44,90,5,-36,3,39,25,-17,33
1490229002495,-128,-103,-81,-27,-40,-62,-25,-16,0,-13,-13,-65,-3,8,-5,-38
1490229002542,-76,-3,127,10,13,13,-40,-29,-21,73,98,127,27,-58,56,19
1490229002592,125,13,-72,17,29,70,34,-24,108,52,127,35,38,31,-11,18
1490229002640,67,-54,53,21,2,10,-1,-7,-126,-15,-93,-59,-34,-36,-15,-20
1490229002688,-73,32,-37,-52,62,70,20,4,3,49,42,-9,-32,-37,-58,-8
1490229002690,95,-64,19,-128,-89,-24,40,-3,-117,-33,81,18,-11,-8,-47,-51
1490229002737,0,74,-128,89,21,-22,-11,39,-106,-117,31,-93,-119,-23,-43,-34
1490229002786,58,92,84,84,36,-9,-32,39,-105,-32,-106,109,23,17,34,7
1490229002835,123,61,1,-3,-67,-25,-26,42,-78,-67,-101,-68,24,31,-5,-14
1490229002884,64,127,-22,84,48,19,35,51,-8,-91,-67,-73,-28,-38,-50,26
1490229002932,-67,38,112,22,-11,20,23,-37,54,109,122,106,85,16,24,47
1490229002934,-128,-119,77,-81,10,-41,-9,-54,112,106,-50,-25,-28,-37,8,77
1490229002981,44,69,-126,82,83,23,46,19,-54,-75,81,-23,-54,0,-73,-29
1490229003030,-90,3,52,-27,-67,-36,-31,-34,18,-8,-87,124,75,-11,29,32
1490229003079,34,92,33,59,15,-27,-7,9,22,-45,-17,-88,-16,-13,-14,37
1490229003127,-102,-92,-50,-88,33,-61,-8,-12,78,75,64,43,-23,24,17,-13
1490229003176,66,64,-6,19,-128,-15,-26,23,-128,-57,-89,19,12,-15,11,-24
1490229003179,54,30,-27,29,52,13,13,-1,-57,-53,-62,-76,8,2,23,10
1490229003226,3,1,-39,-112,-60,-8,37,-4,-38,-83,68,38,12,-4,-48,-23
1490229003274,-32,-64,5,17,-26,-6,1,-28,102,127,127,115,50,32,2,54
1490229003323,12,-24,-42,-50,91,34,-9,4,31,-30,21,5,43,17,12,17
1490229003370,-24,-20,-62,-100,43,-4,4,-11,-22,-30,-50,-80,-30,-27,-20,-20
1490229003373,13,25,50,17,-48,-30,4,14,82,5,-3,-25,-12,9,13,28
1490229003420,18,-14,-11,-5,5,-9,-6,5,-21,9,28,7,-58,0,-3,-12
1490229003469,-19,17,29,51,32,31,-15,0,19,-3,13,51,-38,12,0,-1
1490229003517,-3,-7,-32,-44,-32,16,-14,10,-15,6,1,-21,-19,-33,-5,-14
1490229003566,23,38,51,59,-75,22,18,18,2,-9,-16,-44,121,22,68,1
1490229003614,27,2,7,1,-7,19,35,33,-12,11,8,-2,-6,18,-27,-10
1490229003616,13,12,17,41,-49,-38,-12,13,-3,1,-2,-5,-14,-21,39,7
1490229003664,3,13,9,-27,-17,38,37,0,19,6,1,2,-30,-11,7,-8
1490229003712,16,-7,41,83,-43,24,-72,-18,-48,-31,4,-18,81,120,-32,9
1490229003761,-4,-14,4,38,26,-52,-7,4,8,-14,-32,2,-37,-18,2,-4
1490229003809,-14,-3,-4,-34,3,6,7,-2,12,1,-4,-58,8,47,46,33
1490229003810,19,15,15,71,25,-30,16,11,-33,-28,-42,-75,60,66,-40,-29
1490229003907,0,-3,-3,1,-34,-89,12,-10,5,12,5,13,-105,-32,1,-5
1490229003909,-3,4,32,58,-10,-47,-40,4,0,2,1,26,-45,-2,42,-2
1490229003957,19,6,10,30,4,-60,-24,37,-13,-12,-40,-48,68,85,71,-14
1490229004005,-1,7,11,2,23,62,31,15,-16,11,22,53,-26,-28,-4,-11
1490229004053,-5,-14,-17,-17,11,59,28,2,13,11,10,15,-5,56,26,7
1490229004055,-4,2,5,4,6,29,-18,-10,6,1,-17,-37,-23,30,39,16
1490229004102,14,13,10,-3,-28,-48,-1,-3,-3,2,1,-21,-23,15,9,6
1490229004151,-10,-10,-4,-7,4,-3,54,-2,6,-5,1,8,-9,-52,-27,5
1490229004200,-1,-14,-3,1,2,15,10,-3,2,10,-1,0,-13,-5,-8,3
1490229004249,-49,-40,-21,-4,16,-104,-4,3,-16,-14,15,19,-4,-45,35,-11
1490229004297,30,0,11,1,-16,69,38,12,30,-12,21,24,31,43,-57,-18
1490229004300,-10,12,29,12,25,100,3,1,0,-20,8,23,-2,37,-3,32
1490229004394,15,6,-1,14,0,-52,1,-18,-10,18,-15,-38,-21,8,-5,-29
1490229004396,21,-35,34,23,8,4,-25,23,-24,-42,-71,-46,-8,-33,23,-14
1490229004444,60,-14,3,-2,18,18,-37,-11,-40,32,-14,35,-8,14,25,-6
1490229004496,21,68,73,19,-13,-36,-55,35,-85,-82,-44,-6,1,5,28,-7
1490229004500,-23,-45,83,7,24,14,17,46,-22,32,-25,32,31,-18,-16,-37
1490229004542,94,52,-10,-54,-13,-11,58,2,-3,25,66,16,10,-13,5,-25
1490229004590,24,-9,88,26,27,18,57,67,-57,-8,-78,-9,-8,-22,-49,15
1490229004687,51,73,105,73,26,12,-44,-10,90,53,-92,-111,-36,16,25,10
1490229004688,25,50,19,58,30,-3,66,58,-55,-67,-21,-13,-11,26,-41,5
1490229004736,4,-11,49,-5,30,6,-20,-19,-34,74,37,71,1,17,5,5
1490229004737,84,78,-28,-56,-6,6,-51,-1,-43,-120,-25,-8,-25,-13,38,6
1490229004785,75,10,84,40,35,-5,-69,4,-80,-109,-62,78,-32,3,88,30
1490229004833,-5,-66,-38,-11,16,-5,-4,4,14,20,74,38,-4,4,-54,-18
1490229004882,33,-6,0,17,-41,-31,-28,23,-71,22,1,-14,-1,17,8,-47
1490229004931,29,-40,23,-3,-22,-25,-30,-5,-5,-38,6,-5,-14,26,-5,16
1490229004933,-38,-33,10,15,13,-24,-26,-4,24,40,-47,-32,15,21,84,41
1490229004981,-37,3,-1,10,-22,-2,-16,14,30,-16,-22,-34,37,12,-40,-21
1490229005029,-62,-27,-10,9,19,9,8,12,20,-1,-3,-22,-20,-12,6,21
1490229005078,-10,-20,-37,-26,3,-27,9,-30,-13,15,-31,5,-44,-39,5,-23
1490229005126,115,12,5,32,23,15,45,1,-44,6,15,-2,22,5,-78,-22
1490229005174,6,-2,-5,3,-18,-10,17,-14,0,-9,1,-2,-12,-2,-10,15
1490229005176,-33,-12,-6,13,1,1,20,-9,-23,-2,30,-8,-19,-2,-39,0
1490229005224,-12,9,16,19,-5,-21,-29,7,14,-11,-17,1,3,11,99,14
1490229005320,19,7,12,23,16,13,-5,10,21,-4,-6,17,20,-4,-2,3
1490229005325,50,-6,-13,4,8,42,74,25,-36,7,4,2,-18,4,2,-27
1490229005370,11,-1,3,14,36,-16,-1,-11,-26,8,7,-10,-30,-30,11,-9
1490229005419,6,-1,-4,-34,-15,-3,-6,-19,-3,0,10,15,14,9,-76,-13
1490229005420,-6,20,7,-5,-18,19,42,13,14,18,-12,-1,10,-12,-2,-7
1490229005468,2,5,7,-3,-31,-10,2,3,-48,-18,-10,-13,2,-6,-17,-29
1490229005516,-10,2,0,-3,8,25,41,-13,-21,3,11,0,-29,-3,-7,11
1490229005565,8,-8,-6,-26,-32,-18,-20,21,-56,-3,-10,17,46,12,-2,-8
1490229005613,-27,4,-10,6,19,35,21,18,36,5,14,14,-18,-27,-27,-2
1490229005614,-52,-11,-18,-12,1,-29,-16,-15,31,16,11,-3,4,6,2,-5
1490229005710,0,11,30,6,-2,7,-36,16,-15,4,-13,-42,-27,-20,18,-5
1490229005712,36,5,-39,-10,30,22,-22,-12,-16,-1,-24,-22,-24,-12,9,-20
1490229005760,-127,-54,40,-15,3,-9,50,-53,-67,0,-11,46,23,-9,-14,0
1490229005809,85,-26,-17,-46,-60,-71,-28,21,-107,-18,-22,-28,-25,20,22,-16
1490229005858,60,34,-34,27,16,27,-10,19,84,-3,39,57,37,-1,-49,-5
1490229005860,-39,-8,35,40,26,51,28,4,-84,-12,-96,1,-11,4,-77,-5
1490229005906,-58,-28,-25,60,19,-34,6,42,-54,13,-41,-60,7,-7,69,-17
1490229005955,89,70,43,-1,22,30,-1,54,-128,-101,77,48,5,-26,-51,-1
1490229006003,34,-49,-32,-34,-82,-61,-51,25,51,7,-84,-100,-31,-15,-8,-22
1490229006052,0,-82,-128,47,-8,-10,-80,-47,13,26,108,-59,-5,90,24,35
1490229006100,-20,-44,-38,40,4,-56,-56,-19,90,-72,-126,-34,-36,-17,-52,84
1490229006102,12,37,67,-34,-27,-49,15,-18,-128,-42,21,46,59,17,-12,76
1490229006150,127,48,-73,-66,26,-7,46,28,37,73,26,17,16,24,49,34
1490229006198,17,-95,-128,-128,-86,-41,-32,65,40,82,127,-20,-9,19,-74,-52
1490229006295,82,127,127,127,90,101,95,72,-55,-10,-101,-109,48,-10,-52,11
1490229006297,-79,107,6,-90,1,-2,-3,-101,-25,-3,-32,-5,-55,16,-55,-34
1490229006299,-40,25,22,127,63,52,22,-59,-9,-72,-62,-72,-15,-11,9,31
1490229006345,-70,97,39,71,15,7,52,21,-60,17,127,127,68,-8,-29,-49
1490229006394,28,-42,-128,28,-17,60,50,30,-48,71,-73,-128,-64,-19,56,-20
1490229006442,106,-24,10,6,-18,80,44,47,-109,6,66,64,2,-42,-28,-6
1490229006491,-128,-79,-128,-7,-1,-7,1,-40,68,27,24,-128,0,0,17,-11
1490229006539,13,53,17,-40,8,-41,14,35,30,43,72,-20,-36,46,-48,5
1490229006540,-88,-86,-49,-72,-92,6,-4,-68,93,-71,-63,-106,-69,-32,0,16
1490229006588,0,-18,-12,-1,32,-27,-2,-16,-25,64,10,-77,-23,11,18,13
1490229006637,59,-45,-45,-10,56,-21,-31,-1,-3,-7,-56,2,-53,-16,24,0
1490229006734,42,-1,24,22,-8,12,-12,38,89,51,101,98,17,39,78,32
1490229006737,10,-4,-49,-44,0,28,4,15,-128,-43,-99,0,-64,-48,-17,-32
1490229006783,16,-34,-101,-32,35,4,-30,-1,-16,17,13,-118,-69,3,40,0
1490229006785,4,64,71,-46,73,33,13,31,32,-98,-104,-24,38,-20,6,-2
1490229006833,-2,16,77,50,-16,-13,-8,5,78,56,26,43,0,-5,6,21
1490229006881,9,6,58,-4,41,12,14,9,-5,23,35,25,-56,-42,-31,-15
1490229006930,-2,25,43,47,-58,-21,-60,-43,-12,1,-29,5,38,57,55,8
1490229006978,19,41,40,62,8,31,23,9,-12,-7,12,48,53,5,20,12
1490229006981,-38,-18,-16,-50,-79,-40,23,3,2,0,15,43,-32,-55,-66,-28
1490229007028,8,9,9,5,27,32,28,8,-1,-3,-4,-10,-94,-19,17,9
1490229007076,16,6,19,63,21,-13,31,22,-4,4,-3,12,-99,-40,0,-13
1490229007125,-1,-4,16,24,14,-8,18,-2,2,4,21,-1,14,36,-56,-24
1490229007174,2,4,-4,36,62,106,-3,-6,4,5,14,19,-15,103,2,6
1490229007222,1,-25,-23,-25,38,2,63,11,12,-6,-5,15,-14,-93,-70,0
1490229007224,-8,-29,-53,-74,62,99,-53,-14,-18,-19,-40,-53,-43,47,1,-5
1490229007271,-15,-9,3,6,-31,6,-53,-17,21,9,-34,-47,48,127,-4,7
1490229007320,4,14,-14,11,89,48,31,-2,11,9,12,19,-48,-89,-8,9
1490229007369,-33,-11,-27,-60,-41,-20,11,3,11,14,33,56,36,52,6,0
1490229007417,24,2,-26,-66,46,-7,-22,1,-25,-2,9,22,-21,24,50,28
1490229007466,5,0,-4,-24,-17,65,8,13,-17,-11,3,25,2,12,26,-21
1490229007469,12,23,28,36,8,-98,108,14,-5,-10,-16,-22,-8,28,-86,-12
1490229007515,-11,-4,-3,1,20,11,-22,-7,9,-1,-22,-46,79,-15,-7,2
1490229007563,10,2,-24,-38,-63,75,-13,2,-4,3,14,8,-28,-29,27,-6
1490229007612,-15,3,-12,-8,-7,16,14,-20,-3,4,1,-4,26,-73,-19,4
1490229007660,6,2,4,1,-17,-68,18,15,12,0,-5,-8,2,64,-11,3
1490229007662,13,4,5,9,-12,-86,-6,-7,14,3,-6,-23,10,50,39,15
1490229007759,-56,-17,7,2,-20,-35,-16,-23,-14,-2,-7,15,10,25,32,-5
1490229007762,13,0,11,13,-2,31,-39,-3,34,-5,-10,1,5,38,75,22
1490229007808,15,69,34,49,-15,127,-18,53,-5,-71,-22,-22,21,99,-3,-23
1490229007856,58,41,35,0,23,16,-47,-24,9,9,-19,-2,-6,11,-4,36
1490229007904,44,-21,-23,14,11,-13,-2,40,-6,67,2,-18,-6,3,-4,5
1490229007906,5,-4,13,-18,-2,-30,40,-2,52,-24,35,22,11,-23,-57,-25
1490229007954,-73,-39,49,-5,1,-25,-27,-37,-10,8,-62,39,-8,-46,-43,8
1490229008003,-36,10,70,33,-22,-41,-11,-42,-48,-23,-21,28,62,19,-17,31
1490229008051,-30,33,29,-8,-11,8,9,-13,34,-10,-98,-58,-1,13,15,18
1490229008099,-85,-13,-25,-27,-33,-8,-13,-42,-30,-40,-55,-17,-1,-2,16,13
1490229008101,9,-5,-93,-101,-44,2,-32,0,-8,-4,39,25,-2,4,26,12
1490229008149,27,13,-19,-17,-7,-4,9,26,-2,-60,37,5,2,-21,-33,0
1490229008197,27,-24,-40,-64,-40,-11,-26,13,32,71,-33,12,1,-4,-14,0
1490229008246,38,93,127,50,-9,4,31,8,-63,-15,-34,62,55,8,34,12
1490229008295,102,-43,83,25,42,32,-17,46,-43,49,-47,16,-29,-24,28,-45
1490229008343,-9,3,0,-38,21,1,-8,-10,-18,-3,-69,-35,-3,-15,-2,2
1490229008345,-99,7,28,3,-27,6,-33,-7,12,34,44,40,26,1,57,12
1490229008392,-97,-2,-20,-27,10,4,-35,-30,28,-8,13,4,-4,-14,-80,21
1490229008441,-8,23,-17,-20,-35,-20,-7,4,-60,-19,-4,-54,-17,-2,-4,-11
1490229008490,-13,30,24,10,19,6,3,-8,28,-1,-17,-29,-4,4,74,29
1490229008539,14,3,38,19,7,24,6,-8,-41,15,27,44,10,-22,-31,-22
1490229008587,15,-19,5,28,39,27,30,34,8,-27,-12,31,-8,-11,-21,0
1490229008589,82,-24,17,2,-33,-23,-116,-9,-3,19,-26,8,53,34,71,59
1490229008684,-69,0,-25,3,6,9,13,-35,51,-7,13,-25,-34,-11,-26,4
1490229008685,-106,-30,3,-20,20,37,14,-40,47,11,-3,39,2,6,5,-8
1490229008781,-25,-11,12,13,4,14,-6,2,24,34,9,7,14,-3,-30,-17
1490229008782,25,-1,-3,6,12,7,8,27,-26,-11,-3,-10,-29,-31,-11,-8
1490229008783,16,19,-3,-23,2,-10,5,21,23,19,19,20,9,15,-31,-17
1490229008831,-9,1,-2,-11,9,-3,46,6,-9,6,14,5,-14,-7,20,11
1490229008880,-33,-1,12,-13,-40,-19,-26,-2,21,0,-3,16,29,0,18,-10
1490229008929,12,-6,-3,-6,-2,22,11,7,5,1,-11,-6,-19,1,-10,-22
1490229008978,-41,-7,3,15,11,-11,50,34,-5,-6,-4,-28,-28,17,-24,-14
1490229009027,-12,1,0,-15,12,7,-18,-4,-9,-17,-10,9,2,0,15,-3
1490229009028,-57,-9,3,-2,-10,19,19,-8,53,-18,-8,-28,-26,-16,-58,15
1490229009075,43,-5,-1,-2,14,11,34,18,-28,3,-5,4,6,9,-35,-32
1490229009124,75,22,6,0,-9,-11,32,12,10,-8,-6,-2,-4,11,-16,18
1490229009172,-2,8,34,14,-21,-16,-22,-13,-35,-13,-2,7,-3,1,24,-16
1490229009221,-83,-3,0,23,34,52,7,-17,32,-17,-10,-18,-12,13,63,8
1490229009269,60,-3,-15,-11,-10,-33,-23,-1,-96,-17,68,18,1,49,-23,-11
1490229009272,79,-9,-68,-25,-7,-2,9,9,-124,-54,32,-1,-23,-39,-4,-14
1490229009319,-84,-78,-70,-5,18,-10,0,8,-116,19,81,89,35,-10,92,-34
1490229009367,89,-65,-82,-59,-34,4,-73,-47,39,30,-16,-38,-3,10,30,14
1490229009419,-104,18,-46,11,-9,-24,-27,-79,-15,-76,-127,-75,-31,-28,-9,15
1490229009464,127,28,-29,-8,9,6,-53,35,-128,-10,-26,-37,-14,-32,42,36
1490229009465,118,-35,-53,127,8,28,53,64,69,17,-28,-7,11,15,-2,17
1490229009513,-122,-102,70,-17,-35,-37,-94,-92,-32,36,66,-23,-13,8,67,-17
1490229009562,-88,52,-47,-4,23,89,38,28,63,-77,-113,-81,-62,-15,-80,-22
1490229009611,104,113,-17,104,113,65,26,47,-123,-105,-62,-106,-65,-67,-10,-6
1490229009660,102,-57,-6,-57,-15,8,8,34,24,11,127,96,68,42,60,-35
1490229009806,45,-71,-6,44,0,-8,24,70,-37,25,0,3,-10,-22,-60,-48
1490229009809,-95,-28,-72,-36,-15,33,58,36,-48,-53,-9,-5,14,118,5,-62
1490229009811,116,19,127,48,77,25,-12,4,-83,-21,-11,58,-5,-16,-33,-29
1490229009812,-3,20,88,-6,-10,-7,20,-5,72,-32,-1,101,35,40,-25,113
1490229009857,-10,-43,-1,-111,-90,-33,-14,-31,2,55,53,76,57,5,-29,-34
1490229009903,15,-101,-18,-9,-13,7,7,87,-128,99,127,61,5,14,-3,-88
1490229009952,56,37,51,-27,61,83,77,65,-52,-94,-78,85,7,-18,18,-27
1490229009952,90,90,64,72,60,-36,17,58,66,-97,-98,95,-27,-1,-65,57
1490229010001,18,-29,4,-83,-70,-46,-34,-12,-128,-63,-125,-128,-5,-16,5,-27
1490229010050,-112,76,45,-82,-83,-82,-12,-60,37,-64,70,106,52,45,15,29
1490229010100,101,5,-85,-85,53,-19,-37,8,-128,0,17,-65,-52,18,49,-47
1490229010147,-79,26,74,65,-40,72,54,-21,83,30,73,64,37,-81,-25,-17
1490229010149,6,-5,-73,-60,34,36,-1,20,-67,-61,14,-19,-20,9,5,-43
1490229010196,54,80,60,24,-19,-4,24,22,-107,-99,-25,-99,-17,22,7,1
1490229010245,10,60,122,127,-10,4,6,27,38,-9,-127,-119,-20,-27,-25,0
1490229010294,-64,66,63,91,35,15,-3,-22,127,115,118,107,45,-4,-3,26
1490229010342,5,-16,-15,-56,-94,-52,-37,13,-60,1,27,73,27,14,34,-56
1490229010390,21,22,25,-44,48,-13,4,6,-11,4,11,71,-46,2,-8,2
1490229010393,-40,15,12,22,-12,-10,20,-26,22,-1,23,46,50,15,19,20
1490229010440,18,35,63,59,-19,4,4,7,-11,-54,-114,-117,-81,-45,-10,-19
1490229010489,5,3,-7,-13,-14,-4,-35,0,-32,-55,-46,-30,-17,-44,-14,-17
1490229010539,-16,-27,-5,48,-2,-67,-54,-24,-6,10,14,-9,-3,-17,3,-10
1490229010585,-11,-13,-32,-68,96,67,42,-2,8,-7,14,-23,73,-44,-58,10
1490229010586,12,-6,-31,-96,54,-15,-15,20,-8,-1,8,-16,38,75,38,-13
1490229010634,0,2,21,42,-54,-11,27,8,-15,5,-11,-25,-82,23,-46,-15
1490229010683,18,14,13,-63,-62,-92,-97,-15,0,15,30,-4,-2,-21,42,12
1490229010733,-30,-4,4,5,-84,48,-16,-35,-11,9,-21,-86,-58,1,59,21
1490229010782,43,12,18,48,52,94,-39,-13,-45,-36,-34,-47,-10,90,3,-3
1490229010878,15,-22,-45,-51,-73,2,50,27,-1,-27,-40,2,94,16,-47,-27
1490229010879,11,-11,-15,7,-61,-19,-25,-10,-12,6,21,32,-9,15,8,-10
1490229010880,20,2,13,-21,-10,-94,-69,7,6,12,31,59,-27,-76,-52,-26
1490229010927,27,42,22,59,-36,94,-30,11,-6,27,1,-2,11,-67,-35,-20
1490229010978,-2,-16,16,40,-51,34,-24,-11,6,-17,1,-3,36,-121,-17,9
1490229011027,7,14,16,0,30,-84,109,15,-14,-5,-27,-55,26,101,33,10
1490229011073,2,5,3,14,-39,-68,35,-13,21,15,-12,-12,-30,-6,-2,6
1490229011074,17,9,18,6,-17,-6,-63,-1,-15,5,8,-1,-75,-39,38,11
1490229011123,26,5,22,17,-41,-7,-44,9,-28,-10,-8,-3,-3,72,68,0
1490229011171,-42,-23,-23,-28,34,76,-27,-18,17,-9,-13,-24,-29,32,34,-1
1490229011220,-40,-4,-4,6,42,65,33,-13,55,12,-4,20,47,-70,-28,9
1490229011268,-14,19,-1,24,9,-69,-21,-40,70,3,5,34,10,-43,9,34
1490229011272,14,13,11,-17,-48,-52,28,-8,-69,-26,-13,8,62,-47,7,-4
1490229011317,112,32,79,59,35,-48,19,66,-6,-15,-5,29,-7,-52,-25,-17
1490229011366,1,-28,-40,-20,-21,9,-56,6,1,31,-2,17,-37,-18,7,-17
1490229011415,-54,20,48,4,7,39,44,-32,69,25,45,45,28,69,14,-2
1490229011464,1,-12,-48,-46,43,1,-10,-8,17,-31,27,8,15,-10,21,15
1490229011511,31,-41,-14,0,-15,43,2,-5,-43,-68,11,40,33,16,9,23
1490229011513,-122,-76,1,0,21,5,-21,-28,-8,59,-67,-64,-21,1,65,1
1490229011561,15,27,-18,-50,-30,16,-34,20,3,-51,35,15,-41,14,34,4
1490229011609,-30,-58,46,-24,-18,-7,1,17,-34,68,58,66,37,7,-70,-32
1490229011659,35,31,8,12,27,6,36,30,-11,-31,39,31,29,10,-24,10
1490229011707,-49,-71,-92,-34,-25,-3,48,-50,-49,60,-29,-76,-15,-16,-77,-66
1490229011755,-5,5,-7,6,56,54,-2,26,91,41,79,58,-11,-32,29,5
1490229011757,66,40,52,0,3,-22,61,65,-81,-1,62,33,-16,14,2,-2
1490229011805,6,-13,-40,8,8,-7,-85,-9,46,-23,4,-34,-16,-10,47,3
1490229011854,-41,-6,-32,23,-12,9,-2,-18,8,-33,11,-31,-1,-9,-17,-12
1490229011909,63,43,54,4,-9,-23,16,13,38,-11,-70,-11,-10,45,21,3
1490229011950,28,-23,-5,28,34,6,-110,-32,-64,-4,8,-34,4,6,101,21
1490229011952,35,30,32,13,-1,-11,21,10,19,-20,-38,10,-22,-7,-39,-13
1490229012000,24,13,-35,-36,-21,-3,12,15,-18,-37,27,18,-3,3,55,16
1490229012049,-45,-16,11,7,12,16,-7,-14,55,14,0,13,25,-2,-19,9
1490229012097,-2,-24,1,-3,25,6,6,-9,-26,20,-4,2,-3,-13,-17,5
1490229012146,-17,-11,-10,0,-27,-6,36,13,25,13,-11,-22,-14,0,-36,-20
1490229012194,16,-21,-27,2,-10,-22,-46,9,-70,4,-7,5,20,47,52,7
1490229012196,-14,0,7,11,-25,0,-17,-18,-20,-3,17,-1,15,-18,-17,7
1490229012244,-44,0,-4,3,-7,-18,-19,-25,38,-5,-2,-2,1,-1,-30,1
1490229012292,3,-3,19,32,38,8,-24,-12,9,13,9,-4,-5,15,-14,0
1490229012341,49,6,-6,0,7,14,5,-6,14,-13,-3,-14,-18,-8,-3,16
1490229012390,30,10,2,7,-2,4,-2,-15,-5,1,2,-6,-11,-19,-2,-2
1490229012439,28,9,2,6,15,29,5,7,-23,-15,7,2,-8,-4,-10,3
1490229012443,-62,-13,0,5,-5,-11,-22,-11,48,-3,-5,2,-7,27,-4,19
1490229012491,4,8,8,5,3,-1,9,20,21,-4,5,-1,20,16,37,1
1490229012537,-20,-1,-16,-3,-3,23,13,-24,3,23,8,-31,0,11,-12,5
1490229012587,-14,-43,28,-2,-5,3,-12,20,8,31,42,32,21,20,75,10
1490229012634,86,32,14,-8,1,-18,20,32,-46,-58,-25,26,2,-5,-18,28
1490229012638,58,6,-32,-29,-7,7,39,13,-46,13,12,14,22,10,28,5
1490229012682,-102,-124,-128,-89,-6,17,-38,-59,-27,-25,3,-28,-29,-26,100,-52
1490229012731,45,21,7,-14,1,-11,4,-18,-103,-28,99,66,49,46,-14,24
1490229012780,89,-40,-17,-62,-74,-29,1,-14,-85,4,-56,-3,-34,-12,19,-30
1490229012829,28,-15,106,-22,-15,-4,-35,-12,-38,43,59,60,15,-33,49,-11
1490229012876,-9,52,11,127,25,31,89,54,11,-35,104,46,64,41,-11,9
1490229012878,-128,1,72,112,85,34,6,25,58,61,-108,-40,-60,-16,53,-12
1490229012926,40,-107,2,-16,-19,10,-56,63,-78,-119,-29,-81,-38,-14,29,-4
1490229012975,-78,-95,-128,-128,-118,-36,-65,-68,32,111,112,127,32,-22,-115,-62
1490229013023,72,56,65,52,56,14,-35,39,-95,-74,-47,-14,35,-33,-38,-79
1490229013072,-4,-54,-24,-65,-18,-10,19,32,-3,-79,54,65,-32,15,24,-5
1490229013121,-83,-128,-128,-127,-12,35,39,-31,106,-60,88,-53,-93,-43,-74,-31
1490229013122,-10,-19,-27,-36,-73,-115,-115,-46,-40,125,31,41,116,97,84,-19
1490229013170,-38,100,127,116,48,-10,34,51,0,-62,-94,-80,75,13,-11,11
1490229013219,-111,127,127,58,98,5,32,-64,31,-89,28,127,61,119,20,52
1490229013267,-51,-117,-128,-126,-33,-30,-44,-74,92,35,-68,-49,-91,-39,2,19
1490229013315,32,37,-46,-40,13,2,-33,-47,10,37,115,88,-7,2,82,-2
1490229013317,-51,-36,-74,-114,-42,-43,-40,-36,66,35,102,127,26,-15,43,21
1490229013365,54,124,127,72,118,84,111,41,-71,-121,-128,-91,-26,-46,-49,-72
1490229013414,-94,104,-86,-62,31,30,50,-69,95,123,66,-27,-7,3,-18,25
1490229013463,-6,-62,90,-47,-53,-74,52,-51,61,-1,-46,66,98,36,-31,-29
1490229013512,26,89,127,53,3,15,-11,20,32,42,-9,111,42,-9,-29,6
1490229013559,-33,13,37,58,-18,24,46,7,23,-92,-128,-15,20,-48,-45,42
1490229013561,73,-55,-21,-13,8,-6,7,49,30,93,97,88,-23,-15,8,14
1490229013609,-21,-36,-57,-57,19,5,-8,1,-72,-12,-62,-99,-65,14,-30,-5
1490229013657,-64,-49,113,60,-128,-37,-3,-38,10,26,-22,64,89,13,-3,19
1490229013706,-74,-21,2,-12,-89,-9,-4,-17,-13,-9,-21,15,92,17,1,-17
1490229013754,60,79,127,127,40,18,3,39,43,1,-41,-50,65,27,-27,20
1490229013756,43,119,62,85,60,-50,18,18,19,34,97,63,-17,35,6,11
1490229013804,11,-4,-1,-22,-29,-16,-24,-17,-40,-12,-15,1,-1,9,33,0
1490229013852,23,27,42,-28,-10,-14,-26,17,-31,-27,11,110,-40,-6,14,-31
1490229013901,37,35,39,43,-64,-54,3,18,-27,-13,-16,-16,127,96,-66,-26
1490229013949,-50,-7,-38,-44,83,73,59,-4,23,-1,-17,-52,-39,-8,-23,17
1490229013997,12,22,41,38,-20,4,7,3,6,17,-1,-34,52,8,37,22
1490229013999,21,28,31,39,10,-8,-20,18,-5,-16,-23,1,-128,-26,-15,-19
1490229014047,11,7,-4,-31,-20,32,68,11,8,19,7,14,32,-6,-19,0
1490229014096,-39,-4,24,29,-11,45,2,-13,-27,-27,-24,-18,-66,-18,53,-2
1490229014144,-6,-7,-34,-78,22,35,47,-11,25,12,26,14,-21,-53,6,6
1490229014194,-6,-14,-20,-5,51,95,33,7,11,10,11,9,-20,-31,-16,8
1490229014242,-45,-17,-17,-25,-27,0,45,-26,9,-6,-4,1,-52,-11,19,4
1490229014244,-30,5,-7,1,-40,19,-6,-36,-2,-8,0,-12,-21,-49,-56,3
1490229014291,-6,-14,3,-29,-99,4,18,12,21,2,52,53,-76,-68,-47,1
1490229014340,33,7,17,16,20,-105,-36,30,5,-12,-16,16,0,5,-22,-19
1490229014388,-6,-7,-34,37,89,-40,2,-5,4,3,-1,12,-37,-39,64,21
1490229014437,13,8,-5,-28,52,4,-81,-8,9,-3,-22,-18,57,45,102,14
1490229014439,-21,-2,-19,-13,-2,87,5,-20,-1,-5,16,43,-3,-128,-3,3
1490229014486,16,30,19,20,16,-63,-6,-1,0,5,-11,-33,-24,20,-30,0
1490229014583,-28,-8,-3,3,-22,122,99,-2,17,15,7,13,7,-16,-9,0
1490229014585,1,-7,0,-22,2,34,-20,-5,31,14,15,22,7,-58,-29,6
1490229014632,16,-5,2,2,-4,-8,-3,3,7,-11,-13,-22,-43,-17,-12,0
1490229014680,-11,-4,5,-20,0,-45,-4,-3,4,-10,-26,3,38,3,-21,-28
1490229014682,-19,-20,-22,-44,-16,-5,9,0,1,-34,-65,-74,-68,3,19,-2
1490229014729,-8,67,72,52,3,127,38,-1,38,13,28,49,28,102,0,30
1490229014778,-46,-66,-70,-24,23,-86,-36,-20,52,46,23,-11,-6,-53,-23,5
1490229014827,-20,18,104,53,48,24,57,1,15,12,28,-4,13,-39,-41,8
1490229014876,-106,-19,51,4,0,6,-18,-24,17,67,16,49,-6,4,27,-7
1490229014925,72,6,14,45,34,-5,16,27,-45,9,-67,-1,12,-11,13,-17
1490229014928,-42,25,56,25,0,29,-17,48,77,38,57,37,25,-11,62,9
1490229014974,-5,-1,-11,7,-6,22,-81,-44,-29,1,53,-9,5,9,9,21
1490229015023,17,66,-24,9,-2,-9,15,-11,7,-30,93,18,-5,-9,-11,-24
1490229015071,62,11,63,55,11,-3,-3,30,2,65,91,54,62,12,48,-6
1490229015119,66,2,18,-33,-12,7,5,23,-39,14,-58,-18,17,0,-16,16
1490229015121,-68,7,26,4,-6,-33,10,-26,127,36,53,45,20,0,-10,64
1490229015168,-5,90,16,16,10,-45,-80,27,-12,-87,-124,-63,-39,27,54,-39
1490229015217,21,4,46,-14,14,26,1,1,-8,22,22,35,12,6,29,26
1490229015266,49,16,53,43,4,18,-46,-11,-44,4,49,24,-42,-38,-111,-67
1490229015318,50,54,-9,-24,-5,-6,-56,18,-52,-27,-7,1,4,-3,53,-27
1490229015363,27,52,25,30,-8,5,19,4,127,-23,-51,-36,-14,25,-13,15
1490229015365,12,58,53,27,11,1,62,-4,62,4,57,15,-2,15,24,7
1490229015412,-51,-45,-14,6,2,-4,2,-21,-71,-23,5,22,-2,-13,-13,-18
1490229015461,-57,-46,-45,40,-26,-17,7,0,33,17,-14,-33,16,5,-17,-8
1490229015510,-10,-39,-34,-28,15,4,8,-9,28,17,9,-6,-43,-3,16,17
1490229015559,46,27,12,6,12,-8,-18,10,36,0,6,-5,1,13,-41,5
1490229015607,-4,-5,-20,-31,4,5,11,30,-54,-8,15,40,-11,-5,-8,-21
1490229015609,32,2,16,-15,-9,-9,-13,-12,-22,16,12,12,20,9,52,20
1490229015656,50,3,8,26,-43,13,-6,6,9,-11,-36,-47,27,11,19,-8
1490229015705,-65,0,-10,15,25,-49,-54,2,-1,7,-10,-11,-9,20,9,12
1490229015754,-21,-10,2,-16,-5,10,-27,-23,10,6,29,40,38,18,-12,-9
1490229015802,-31,-13,-3,-23,-9,-22,-18,3,-20,-16,5,-2,-6,13,23,-9
1490229015804,-36,-3,9,15,11,7,4,-36,-12,8,7,3,-16,-3,19,23
1490229015851,25,0,-5,5,7,9,21,19,19,-3,-7,-5,-19,9,-7,8
1490229015902,10,3,1,9,11,29,-3,-9,18,-14,-5,-4,-15,-16,-10,-8
1490229015949,-65,-4,0,-10,0,-29,-21,5,51,8,-8,-11,5,19,27,12
1490229015997,-14,-9,-1,-3,24,-11,10,-27,-19,-11,-2,-18,-37,-12,2,12
1490229016045,37,11,0,12,12,3,4,19,66,-6,-6,3,-9,-1,26,-19
1490229016047,34,-6,-10,20,-2,18,15,17,49,-13,-32,-20,-14,-24,18,33
1490229016095,7,18,21,10,6,-28,-9,-16,43,12,9,15,-8,-14,-18,-39
1490229016144,-120,-51,52,19,9,8,8,-1,16,15,-65,-28,4,-10,-24,-8
1490229016192,-48,-82,-11,-26,-12,-20,-5,-10,51,21,22,44,38,32,13,33
1490229016240,41,-7,-29,26,-17,-22,0,18,30,-42,-38,4,-3,-8,54,13
1490229016242,-11,29,-46,-83,-35,-65,5,49,-113,8,127,127,45,53,-24,-39
1490229016290,100,26,24,23,-26,-77,-24,33,-87,1,-48,-123,-8,53,-27,16
1490229016339,-3,-87,62,51,40,21,-41,16,50,82,4,46,17,-30,-31,-18
1490229016387,76,82,-128,-34,-11,50,0,43,-128,-109,7,-88,41,39,78,-42
1490229016436,41,-15,-38,14,-11,-24,-58,-82,-57,-128,-128,-85,-80,-33,39,-40
1490229016484,-97,3,-28,44,-24,-43,-18,-3,-95,-39,-31,19,28,-6,58,-14
1490229016487,-108,-80,-26,-57,1,48,16,38,72,30,99,95,-64,-89,-22,-61
1490229016534,95,47,97,12,-9,-65,62,0,77,-41,-17,94,59,72,14,26
1490229016582,127,36,-34,41,68,90,103,70,52,127,-23,31,-15,-12,-1,62
1490229016631,51,-47,12,47,-9,56,99,51,-17,114,-26,-82,-18,49,-25,-6
1490229016680,-53,-91,-29,2,-35,-63,-64,-9,-73,41,96,-24,18,-2,43,-32
1490229016728,-77,-96,65,-42,-65,-102,-61,-25,-95,-121,-1,127,47,105,27,-42
1490229016729,65,3,39,-94,-27,-13,-48,23,-64,-27,-73,-78,-46,-46,-33,-60
1490229016777,-84,-21,-58,-64,-13,-59,-63,12,-42,-11,127,35,-1,40,40,-43
1490229016874,127,-21,94,39,-39,-15,25,44,-54,125,-16,127,76,50,2,13
1490229016877,-28,-82,42,17,-22,30,-17,24,110,-18,-15,30,-22,-58,-48,39
1490229016923,37,20,14,-128,-128,-19,-10,2,-120,-85,-128,-49,-46,-79,-113,-44
1490229016928,70,-36,-98,-90,-105,-42,-126,-67,-128,8,-60,5,102,45,101,-55
1490229016972,87,127,80,53,22,-6,10,38,127,95,-28,79,55,84,64,87
1490229017021,-128,-62,-6,4,43,54,19,-93,105,25,-4,-61,-66,-21,-39,62
1490229017070,35,-96,-33,-92,-55,-33,-52,-12,-104,48,106,-16,2,-36,-35,-19
1490229017119,11,-70,36,-107,-78,-16,28,30,54,71,46,123,53,22,75,31
1490229017174,-43,0,-24,-76,97,18,-16,-25,18,-56,-104,37,-110,-23,-39,-31
1490229017179,5,51,4,-28,82,33,-35,24,-76,59,-6,-70,-55,-3,-9,-29
1490229017217,14,71,21,-64,-100,-7,-5,-18,63,41,72,93,94,46,95,62
1490229017264,4,-45,-57,104,26,-31,1,15,-2,38,8,12,-24,34,-5,13
1490229017314,32,-24,-69,-105,16,7,39,25,-86,-76,-42,89,-69,-15,1,-33
1490229017362,-46,46,16,1,-23,26,-71,-18,37,91,107,-48,-58,-37,-30,-12
1490229017410,87,54,-16,54,17,23,19,41,-24,-15,-98,-56,-20,-48,-19,-31
1490229017411,32,66,127,127,78,-25,-26,14,48,101,44,71,96,45,55,8
1490229017460,-7,-21,4,-61,-19,-32,-27,6,49,99,114,88,-59,-18,-5,26
1490229017509,13,-8,-25,54,-77,-13,36,28,-31,-47,-64,56,5,23,-10,-22
1490229017558,-4,-13,-6,22,97,-33,14,19,35,9,4,-67,-62,-33,-44,-2
1490229017606,15,-31,-38,-10,-128,-23,95,14,-49,-28,-58,-116,61,54,-38,-13
1490229017607,-16,6,10,8,21,24,19,-1,-8,-10,-19,-20,55,3,-5,-17
1490229017655,7,11,18,6,-59,-28,40,11,-2,-41,-5,34,-45,-47,-19,20
1490229017704,10,12,13,9,1,-128,-37,11,19,6,17,23,-53,-128,18,-13
1490229017752,29,28,12,-19,-51,32,-36,4,-24,18,30,63,-51,-12,4,-5
1490229017801,4,-11,3,57,117,92,97,25,-6,-8,1,35,73,4,-34,-8
1490229017898,11,1,11,12,-46,-57,66,8,-5,7,-13,-24,-24,50,-30,1
1490229017899,3,-8,1,13,61,79,-83,14,-7,-24,-7,11,7,-48,40,-14
1490229017900,-13,-6,28,89,-9,-106,40,-8,9,-14,-37,-40,50,39,-27,4
1490229017947,-15,-14,7,29,-59,-20,-62,-67,3,18,23,16,-25,-90,18,53
1490229017996,-6,1,-3,-5,-4,63,-4,1,13,-1,-6,-18,23,-52,52,33
1490229018045,-5,5,30,53,-11,-72,0,1,-10,9,-1,-23,52,10,8,-13
1490229018093,-1,24,40,27,-39,-128,-60,-18,-5,-9,12,-12,3,22,12,0
1490229018095,-9,-6,3,8,25,-55,-34,-14,21,8,-3,4,29,51,14,26
1490229018142,-12,8,-17,-35,23,29,-12,1,19,6,13,24,-17,-58,38,6
1490229018191,-10,7,-5,-15,-9,31,-35,-27,9,15,10,23,-1,-30,1,9
1490229018239,2,3,7,19,32,-33,-67,-7,15,13,0,-6,4,30,43,21
1490229018288,-3,0,-4,2,-36,-30,12,1,-9,-4,3,-12,-5,-36,-6,-2
1490229018289,8,8,11,-4,-8,-88,-3,1,-14,-16,-4,-12,-9,29,-9,-19
1490229018338,7,-11,-9,4,27,-4,8,1,-9,-4,0,0,-6,-25,-26,-7
1490229018386,-21,5,37,22,5,94,34,-11,46,13,-21,-16,10,15,1,5
1490229018435,6,-16,8,-6,8,8,-19,17,-57,26,16,12,7,-96,-2,-45
1490229018484,95,-9,-30,-20,-7,-38,-55,43,-30,24,45,30,15,0,3,-9
1490229018533,23,-5,-36,-34,-8,2,-29,-61,-86,1,-110,-89,-15,-16,37,8
1490229018535,-84,-101,-48,-26,-13,9,19,-53,127,56,46,1,18,-21,-16,31
1490229018581,-10,41,55,43,28,14,83,18,50,70,11,41,20,9,-44,59
1490229018630,4,-20,-54,-21,-27,29,-40,3,26,16,30,7,-8,26,7,13
1490229018678,9,1,-17,78,-20,-5,-19,-44,6,115,13,-35,21,32,8,94
1490229018775,103,10,82,117,31,-25,-16,55,-91,-8,-12,-45,-3,-8,-30,-51
1490229018777,24,15,-5,39,24,14,-25,24,19,4,19,61,33,11,-37,2
1490229018779,7,20,-23,24,-52,1,8,-33,30,-32,-30,-34,-29,-31,-44,16
1490229018825,64,51,-32,-107,67,14,-24,-13,-87,-28,35,51,-2,-10,30,66
1490229018874,-1,15,-114,-84,-44,7,-34,22,-20,-17,-20,-38,-2,-28,-8,-26
1490229018922,36,38,-15,12,-20,8,-40,-26,13,-30,31,0,-49,-20,-19,30
1490229018970,-21,-25,28,-32,-47,-14,-42,6,45,62,-6,7,8,9,0,-20
1490229018972,18,-37,31,36,45,23,22,-39,-27,49,36,37,-6,21,44,-18
1490229019020,43,45,-48,-30,-21,-1,-2,14,1,-106,-52,-3,24,-4,42,-10
1490229019116,-5,6,17,-2,29,27,-27,9,8,31,44,26,0,-8,47,30
1490229019118,-95,-113,-97,-66,-7,0,-6,-27,126,15,13,-14,15,-23,-43,13
1490229019166,12,25,116,88,26,6,14,18,32,21,-45,-27,-25,9,2,5
1490229019214,53,7,-7,1,-11,-15,20,3,-55,3,35,-10,-5,-10,-23,-25
1490229019215,-47,13,23,11,-6,-8,-11,2,19,8,-43,-13,-9,-23,30,-19
1490229019263,-73,-6,-18,-14,-4,5,-5,-7,80,28,16,-21,-15,10,-26,27
1490229019313,14,14,8,13,42,56,15,2,-42,0,29,42,18,-13,-34,-22
1490229019361,19,14,21,24,44,-68,-61,4,-7,-15,8,42,25,-19,72,2
1490229019409,-18,-12,14,27,-21,5,-6,12,-24,-3,6,-12,15,16,-13,-19
1490229019412,15,2,11,-2,-1,-21,-16,-3,-11,-1,9,14,-6,-30,-2,-1
1490229019458,-2,23,24,34,29,-27,11,-11,13,1,9,35,-3,15,-27,-6
1490229019507,-21,-6,-11,18,37,7,-13,-2,20,16,3,-9,-31,15,-7,0
1490229019556,41,-13,-14,-25,-31,-58,-38,3,-20,-9,1,1,16,8,35,-7
1490229019605,-16,-8,-3,-10,13,31,10,5,-49,-15,-3,-11,-19,-16,-7,-24
1490229019653,-21,16,11,10,-8,3,30,-23,-17,-14,-6,-27,1,-6,-13,-10
1490229019655,20,9,-5,-1,-28,33,-30,-19,-19,-6,-1,0,26,46,14,-11
1490229019702,-46,-6,5,1,12,-18,-52,-7,-14,10,-5,3,-12,23,50,-12
1490229019751,-38,-8,3,5,14,49,-19,-20,56,-5,2,6,3,-13,-83,17
1490229019847,-1,9,5,2,16,16,25,13,-62,-9,-12,-21,-7,-15,-66,-33
1490229019849,43,-13,-9,-14,-32,-9,37,19,8,2,-8,-1,29,-11,-2,-35
1490229019897,-23,-11,-6,7,-1,6,-66,-22,66,23,19,17,7,-1,25,28
1490229019945,19,-7,-6,-5,-16,-34,25,-8,-92,-14,1,3,23,40,21,21
1490229019946,25,-9,-14,-7,79,48,37,2,36,3,8,2,-17,-13,7,-8
1490229019995,81,15,-8,-20,-44,16,51,28,-68,-12,3,9,55,-32,-32,-35
1490229020043,8,5,2,-5,-19,-25,-26,10,-87,-14,-1,-3,3,5,-28,-18
1490229020092,16,-9,-3,-11,-14,-19,-4,9,34,-8,-2,6,35,25,-8,25
1490229020093,-86,-8,-10,23,41,-1,-38,-11,66,10,4,-6,0,5,62,13
1490229020142,13,0,3,4,2,40,-45,-5,-15,6,0,3,23,48,25,-13
1490229020190,2,-7,5,10,10,7,29,-27,39,0,-1,-25,-14,15,-12,9
1490229020239,6,8,2,12,24,28,20,5,25,-1,-2,-11,-40,-43,-74,-21
1490229020288,9,3,5,7,10,16,66,43,-15,-4,-2,-10,-32,-5,0,-32
1490229020335,75,11,3,3,37,11,54,35,-19,-6,-1,6,20,34,-21,-9
1490229020337,-72,-18,-14,-1,-24,-28,-14,-7,5,17,11,13,26,29,17,-30
1490229020390,-32,0,-5,-7,5,-20,-63,-43,-9,3,11,17,4,-6,-19,10
1490229020433,21,-42,0,-15,-13,28,3,-5,-36,17,7,10,-16,-10,32,-12
1490229020483,-23,109,0,15,-14,22,14,-12,17,40,-2,-3,15,-6,20,25
1490229020531,35,-16,5,7,-43,-27,13,-6,10,-22,-3,-8,43,-2,-22,-1
1490229020579,47,-108,-20,-24,-2,-30,-39,-28,8,42,5,13,-29,-36,36,8
1490229020581,16,12,9,15,6,20,28,9,-9,-18,-12,-15,15,-8,-46,0
1490229020628,-17,4,0,-4,0,13,-29,2,19,-8,-1,-9,-35,25,21,-11
1490229020677,-9,-6,5,18,-9,-12,18,-30,-7,-27,-8,-8,-22,-32,-41,-3
