1491089090736,0,-112,-112,-111,-104,-111,36,-79,-29
1491089090736,0,31,18,65,111,42,-112,-44,17
1491089090737,1,77,37,101,114,57,-114,50,-9
1491089090737,1,59,51,120,122,51,-117,23,-3
1491089090738,2,63,47,105,103,51,-90,52,-15
1491089090738,2,5,8,11,3,-12,-10,14,-12
1491089090772,3,-14,-13,-32,-42,-22,28,-4,-11
1491089090772,3,-11,-13,-24,-37,-9,14,-43,-18
1491089090772,0,-3,11,-14,-14,15,33,-55,4
1491089090772,0,2,2,-34,-56,-22,30,-15,9
1491089090773,1,-37,-28,-26,-22,-6,29,55,-12
1491089090773,1,-9,-6,-36,-50,-21,52,29,15
1491089090774,2,38,5,-16,-13,7,27,-49,12
1491089090774,2,8,9,-13,-24,4,13,75,2
1491089090809,3,-7,0,-11,-29,-3,33,-44,-1
1491089090809,3,-1,-3,-20,-15,-22,43,19,5
1491089090810,0,8,-8,-20,-34,-10,-2,-20,-1
1491089090810,0,-14,-4,5,3,6,8,47,-8
1491089090814,1,14,1,-14,-7,-11,1,-22,7
1491089090814,1,-33,-20,-13,-4,1,0,-28,-10
1491089090847,2,31,28,28,41,24,-9,54,15
1491089090847,2,-25,-14,-12,-17,-17,18,-42,-7
1491089090848,3,6,-13,-7,5,-6,-3,18,-1
1491089090848,3,4,-1,-5,-1,-4,-3,26,10
1491089090848,0,-9,10,16,19,15,-22,9,-3
1491089090848,0,-20,-12,-4,-3,-5,-15,-18,-6
1491089090849,1,-13,1,-2,-6,-4,-13,-16,8
1491089090849,1,9,-6,-1,-1,-3,-21,11,-1
1491089090922,2,-10,5,5,10,12,1,13,-7
1491089090922,2,-18,-13,-15,-20,-17,-7,-8,-9
1491089090923,3,-13,12,0,-5,1,-11,-56,-3
1491089090923,3,42,4,-9,-13,-1,-5,13,7
1491089090923,0,12,-3,-12,-25,-11,12,1,0
1491089090923,0,-22,-22,-13,-24,6,32,-27,2
1491089090924,1,-14,-4,-2,-14,-4,5,43,-4
1491089090924,1,-15,-6,-1,10,-8,-10,-71,-8
1491089090959,2,8,15,13,14,9,-31,-10,4
1491089090959,2,46,20,8,6,4,-6,41,12
1491089090960,3,21,-2,-8,-5,-5,-8,5,8
1491089090960,3,-17,-11,1,22,8,7,-10,-15
1491089090961,0,19,13,19,26,3,-20,66,4
1491089090961,0,-26,-12,-2,3,-4,-4,-64,-25
1491089090962,2,-11,-7,2,10,-3,0,-20,-6
1491089090962,2,-26,6,10,33,10,-31,29,-6
1491089090997,3,-2,0,4,9,-9,-21,21,-3
1491089090997,3,19,-5,-5,-6,-1,6,52,6
1491089090998,0,-57,6,13,10,-6,-22,-68,-21
1491089090998,0,-2,-20,-16,-5,-1,-6,28,3
1491089090998,1,-2,-7,2,-3,5,1,-56,-9
1491089090998,1,-9,4,1,2,-7,14,60,4
1491089090999,2,22,-1,-2,-2,4,12,-2,6
1491089090999,2,-12,5,-1,-14,-4,3,-45,-7
1491089091035,3,25,14,0,12,-2,-8,-18,6
1491089091035,3,17,-7,-12,-15,0,12,14,0
1491089091036,0,-48,-23,-14,-26,-4,36,-25,-11
1491089091036,0,40,9,-1,-11,3,8,-3,11
1491089091036,1,-44,-2,-9,-22,1,9,-8,-11
1491089091036,1,15,-1,-4,-2,-7,11,-24,-3
1491089091037,2,13,-3,-6,-8,-10,2,30,4
1491089091037,2,-21,9,0,3,5,9,-3,-4
1491089091072,3,8,5,0,-10,-2,-1,17,0
1491089091072,3,-7,1,-1,5,9,-10,-57,0
1491089091073,0,-4,-3,-2,11,5,-2,37,-3
1491089091073,0,-6,-5,1,-9,-7,0,1,1
1491089091073,1,-26,-16,-8,-14,-9,17,-39,-10
1491089091073,1,-19,6,-1,-12,4,-12,11,7
1491089091074,2,13,-15,-12,-14,-4,10,34,6
1491089091074,2,25,4,5,17,-1,4,0,5
1491089091110,3,5,9,5,17,2,-5,13,-2
1491089091110,3,-32,-4,-1,-6,1,17,-48,-9
1491089091110,0,8,8,-1,-9,4,-17,-3,9
1491089091110,0,25,8,7,5,-5,-10,7,0
1491089091111,1,1,-10,-12,-2,-8,28,-1,7
1491089091111,1,41,18,11,17,4,-21,22,-3
1491089091112,2,-79,-32,-11,-30,-1,19,-29,-14
1491089091112,2,-7,-7,-6,-15,-9,7,-22,-1
1491089091147,3,32,18,2,-9,4,-16,47,11
1491089091147,3,-1,-3,-3,5,-10,27,-12,-3
1491089091147,0,10,11,4,16,2,-4,14,-4
1491089091147,0,13,-15,-8,-17,-1,6,-2,-2
1491089091148,1,-20,-9,-3,-5,-3,19,18,-7
1491089091148,1,-14,-9,-4,-4,-3,-6,-18,-3
1491089091149,2,73,33,13,31,0,-33,2,12
1491089091149,2,-67,-30,-10,-20,-3,27,-6,-18
1491089091184,3,-3,4,10,25,7,-19,34,7
1491089091184,3,0,-5,5,1,4,-3,10,-7
1491089091185,0,6,-8,-2,3,2,11,11,6
1491089091185,0,35,19,6,15,-2,-30,-60,1
1491089091186,1,-5,-10,-7,-4,-2,1,29,0
1491089091186,1,4,-2,3,8,-1,-15,-48,2
1491089091187,2,-12,0,1,7,-9,-19,18,-2
1491089091187,2,41,20,10,11,5,-14,-1,3
1491089091222,3,-44,-25,-9,-5,-1,6,42,-10
1491089091222,3,-17,-8,-5,4,6,-14,-8,-3
1491089091223,0,18,17,7,9,-5,3,27,7
1491089091223,0,22,9,9,31,2,-16,17,0
1491089091224,1,1,-1,-2,-1,-3,-6,-71,4
1491089091224,1,-9,-20,-13,-30,4,10,10,-6
1491089091225,2,-13,-11,-1,3,-9,-5,4,-2
1491089091225,2,17,21,4,8,-1,-14,60,6
1491089091259,3,28,3,-7,-21,-12,-7,-37,1
1491089091259,3,-21,-14,-10,-11,4,2,37,-4
1491089091261,0,9,13,2,-1,-1,-5,-101,-4
1491089091261,0,-24,-28,-17,-27,-11,7,-34,-10
1491089091262,1,-11,0,5,10,8,-8,36,5
1491089091262,1,10,15,2,-3,-6,-7,-30,-2
1491089091262,2,7,-8,-4,-8,4,-4,71,-1
1491089091262,2,10,2,-6,-2,-2,-13,-19,4
1491089091297,3,-7,0,-4,-9,-13,-13,-10,-9
1491089091297,3,13,8,2,3,0,-8,-34,-1
1491089091298,0,16,1,2,3,3,-14,5,7
1491089091298,0,-46,-7,-2,-2,5,5,30,-2
1491089091299,1,28,3,5,1,-7,31,-41,-4
1491089091299,1,-37,-16,-10,-19,-7,22,32,-4
1491089091300,2,-2,-8,-1,-1,-1,-1,-4,1
1491089091300,2,-11,-6,-4,-12,3,10,-69,-10
1491089091334,3,-21,10,11,19,5,2,-2,0
1491089091334,3,55,28,6,14,-7,-18,59,19
1491089091335,0,-50,-22,-9,-16,-3,0,-47,-28
1491089091335,0,2,-18,-9,-4,-1,2,46,7
1491089091336,1,0,6,3,3,5,-31,-10,6
1491089091336,1,-29,-12,-1,5,-2,-11,-20,-13
1491089091337,2,4,5,-3,-4,-8,3,6,3
1491089091337,2,21,8,4,5,-6,10,39,-7
1491089091372,3,29,2,-1,-4,5,-10,28,11
1491089091372,3,-20,-12,-11,-4,-9,-14,9,-5
1491089091374,0,-17,-6,-5,-12,0,5,9,-1
1491089091374,0,18,19,12,20,10,-2,-1,2
1491089091375,1,-22,-10,-11,-19,-3,-13,-32,-13
1491089091375,1,0,5,9,17,-9,0,-12,-4
1491089091375,2,-28,-24,-12,-10,-3,9,19,-2
1491089091375,2,3,7,3,7,0,-7,-14,6
1491089091447,3,5,-4,-6,-8,5,15,47,-9
1491089091447,3,-1,-1,1,5,10,13,-29,6
1491089091449,0,29,8,3,-2,-2,10,18,2
1491089091449,0,15,3,2,6,-6,-5,-26,1
1491089091450,1,2,-6,-7,-11,-10,8,-2,-2
1491089091450,1,-23,-1,3,2,1,4,10,-5
1491089091451,2,22,5,0,-4,-2,-2,-10,3
1491089091451,2,-62,-40,-13,-19,-4,9,31,-11
1491089091485,3,23,18,1,11,-3,-24,-64,4
1491089091485,3,8,4,2,6,4,-17,2,4
1491089091486,0,-9,6,-2,-2,1,9,52,0
1491089091486,0,-4,1,-5,-11,-9,13,-35,1
1491089091486,1,-5,0,-2,-2,-4,2,12,0
1491089091486,1,16,-24,-9,5,5,-14,42,-9
1491089091487,2,17,13,3,-5,2,-12,-19,-2
1491089091487,2,-23,-15,-10,2,-9,-3,9,-17
1491089091522,3,4,9,18,2,2,1,0,10
1491089091522,3,-20,-18,-10,-9,-2,24,10,-7
1491089091523,0,25,10,2,10,2,-9,-36,8
1491089091523,0,-5,-8,-2,4,1,9,50,1
1491089091524,2,-36,-24,-13,-11,-2,13,25,-5
1491089091524,2,8,14,1,-1,0,13,-51,5
1491089091525,3,30,4,1,10,-4,-20,-20,-6
1491089091525,3,-36,-13,-6,-26,3,27,10,1
1491089091597,0,13,5,3,3,-2,12,17,12
1491089091597,0,-31,8,-1,-4,-5,-12,19,-12
1491089091598,1,-23,-27,-9,5,13,-12,5,-8
1491089091598,1,-1,7,1,-14,-16,14,-16,3
1491089091599,2,-10,9,2,3,-1,-3,-6,-1
1491089091599,2,30,0,-2,-4,5,9,-11,6
1491089091600,3,-9,-3,-5,-6,-7,4,14,-11
1491089091600,3,-5,14,7,15,12,-33,-31,-3
1491089091635,0,20,-8,-1,12,3,-25,-28,0
1491089091635,0,7,16,12,19,-1,-10,48,2
1491089091636,1,1,-24,-18,-3,-8,12,19,-2
1491089091636,1,18,-7,-9,-20,-2,0,-73,-2
1491089091638,2,-3,4,-2,-14,-7,-15,-9,-9
1491089091638,2,-55,-14,-4,-3,0,-21,42,-16
1491089091638,1,-3,9,7,3,7,10,50,6
1491089091638,1,0,-8,-11,-15,2,15,0,-4
1491089091672,2,2,7,5,-2,-11,23,-32,-1
1491089091672,2,27,14,-4,-5,2,31,37,17
1491089091673,3,-59,-25,-11,-13,-8,19,-91,-19
1491089091673,3,-30,-13,-4,0,-9,2,-1,-2
1491089091674,1,18,3,-6,2,-1,5,41,0
1491089091674,1,-5,0,9,3,4,3,-7,0
1491089091675,2,-17,-8,-5,-2,-1,12,22,-6
1491089091675,2,1,-8,0,7,3,5,-12,-4
1491089091710,3,-15,-2,5,-4,3,18,-9,11
1491089091710,3,-12,-6,-1,6,-4,13,31,-8
1491089091711,0,17,0,4,18,6,-19,1,0
1491089091711,0,19,4,0,-5,-6,-8,4,10
1491089091712,1,9,8,3,7,-2,-20,29,-4
1491089091712,1,3,2,6,-13,7,-11,-50,0
1491089091713,2,-8,0,-9,14,-8,10,7,4
1491089091713,2,-10,-18,3,3,7,-15,8,-10
1491089091747,3,6,-2,-1,-1,4,-3,-28,-1
1491089091747,3,5,5,-2,6,-12,-8,73,2
1491089091748,0,-4,-3,-4,-8,-7,-7,-3,-5
1491089091748,0,-46,-13,-2,-9,5,-3,-27,-7
1491089091749,1,22,2,-1,5,-4,-7,19,6
1491089091749,1,11,19,4,5,-9,-7,-3,-4
1491089091750,2,-14,-16,-22,-37,-5,29,14,-5
1491089091750,2,51,6,-1,-11,-4,6,-14,7
1491089091785,3,-13,-12,-8,0,-1,5,14,-2
1491089091785,3,-5,-2,-7,-15,-1,11,37,4
1491089091786,0,-2,5,6,8,-3,-5,-82,-6
1491089091786,0,36,8,-1,8,3,2,59,7
1491089091787,1,0,5,3,-11,3,1,-4,-7
1491089091787,1,-17,-8,-7,-1,-3,18,-56,-6
1491089091788,2,36,-2,-8,-12,2,12,10,11
1491089091788,2,-34,-22,-10,-16,1,25,14,-5
1491089091822,3,-18,0,1,-3,-17,-1,-65,-11
1491089091822,3,27,20,12,5,5,-10,32,5
1491089091823,0,-33,-21,-14,-20,0,13,-17,-2
1491089091823,0,45,13,5,6,-5,-6,31,13
1491089091824,1,-33,6,-2,-10,6,1,-22,-13
1491089091824,1,11,-6,-1,4,-2,4,8,-1
1491089091825,2,-43,9,14,33,6,-21,-23,-11
1491089091825,2,53,2,-1,5,-2,-9,10,8
1491089091860,3,-2,1,6,18,-10,-14,26,1
1491089091860,3,15,-24,-7,6,5,-10,-86,-10
1491089091861,0,-20,-5,-2,-4,-2,-8,96,4
1491089091861,0,-35,-13,1,19,-13,4,-16,-7
1491089091862,1,13,6,0,3,-2,-5,-9,3
1491089091862,1,5,12,3,13,5,-15,-2,-3
1491089091863,2,-17,-3,5,-5,-2,4,22,-1
1491089091863,2,-9,6,0,-5,-1,-9,1,-6
1491089091897,3,16,-5,-9,-12,-12,15,7,-1
1491089091897,3,45,13,-4,-16,6,12,-14,6
1491089091898,0,-38,-24,0,14,5,11,27,-6
1491089091898,0,-64,-4,2,-8,2,27,-4,-8
1491089091899,1,51,7,4,27,9,0,19,13
1491089091899,1,-17,-4,-1,-9,-10,4,26,-1
1491089091900,2,37,19,4,8,-4,-25,10,0
1491089091900,2,13,-6,-6,-12,-2,28,-35,-15
1491089091935,3,-24,-14,-4,-10,-1,26,3,4
1491089091935,3,-6,5,4,3,4,18,18,4
1491089091972,0,-2,-19,-14,-22,-9,9,-27,-7
1491089091972,0,14,8,2,4,0,-15,-18,5
1491089091973,1,-4,5,3,-3,-1,-11,-59,-4
1491089091973,1,-65,-34,-18,-20,-3,-3,11,-16
1491089091974,2,5,9,10,13,-3,-8,-23,-3
1491089091974,2,22,15,4,18,-5,-9,-30,1
1491089092010,3,11,-3,-1,-15,1,-16,11,-2
1491089092010,3,1,-13,-10,0,7,11,11,-1
1491089092011,0,22,6,1,-14,-10,18,-13,13
1491089092011,0,-36,-8,-5,-3,-1,-19,-11,-6
1491089092012,1,53,30,11,16,-3,-4,24,8
1491089092012,1,-50,-18,5,7,14,-20,-9,-21
1491089092013,2,2,-5,-11,0,1,-21,29,1
1491089092013,2,30,-2,-1,-4,0,-7,-11,6
1491089092047,3,-15,4,3,-2,6,2,27,5
1491089092047,3,42,5,-8,-18,-4,3,19,9
1491089092049,0,-36,-9,0,13,5,-12,-65,-12
1491089092049,0,-22,-6,-3,-11,-5,-10,-36,-10
1491089092050,1,4,-5,-7,-8,-1,-10,6,-3
1491089092050,1,8,17,10,1,-8,-9,-7,2
1491089092051,2,-4,-4,-6,1,-10,2,4,0
1491089092051,2,22,-5,-7,-18,9,-24,2,-7
1491089092085,3,8,3,-1,-6,2,-17,-4,1
1491089092085,3,-2,-4,3,14,2,4,0,6
1491089092086,0,27,18,4,-8,-2,-3,18,8
1491089092086,0,-90,-27,-5,2,-2,3,-13,-22
1491089092087,2,18,8,9,17,0,0,-6,7
1491089092087,2,17,8,2,-6,-1,-6,16,0
1491089092088,3,-51,-16,-2,4,1,4,58,-14
1491089092088,3,-11,-9,-11,-26,-16,3,-20,-12
1491089092122,0,4,-8,-3,5,0,3,-20,1
1491089092122,0,-14,8,8,20,-7,-23,-2,5
1491089092123,1,-3,-3,-15,-25,-5,-9,-22,-16
1491089092123,1,1,0,8,15,7,21,11,9
1491089092125,2,-3,10,2,-5,2,5,-5,-8
1491089092125,2,-5,-19,-16,-31,-8,15,-10,-2
1491089092126,3,15,9,6,25,-5,8,-18,11
1491089092126,3,30,2,-4,5,-6,-42,12,-1
1491089092160,0,-10,-15,-8,-31,-1,33,9,-5
1491089092160,0,-28,-3,-2,17,3,6,40,-3
1491089092161,1,10,-3,3,9,-10,-9,-61,-9
1491089092161,1,0,13,0,0,3,-9,13,-2
1491089092162,2,-24,-22,-14,-16,9,14,-1,-8
1491089092162,2,24,23,16,22,-16,-6,38,9
1491089092163,3,24,5,-4,-1,-2,-3,13,-1
1491089092163,3,1,-8,-6,-8,0,12,-21,0
1491089092197,0,24,17,6,9,3,-12,-41,4
1491089092197,0,-15,-14,0,-4,6,9,-37,-6
1491089092199,1,-18,-5,-8,-8,-2,3,12,-2
1491089092199,1,-23,-12,0,3,0,-11,-21,-3
1491089092200,2,55,7,1,-2,-5,-17,-36,5
1491089092200,2,-39,-9,-7,-17,-8,15,-53,-21
1491089092201,3,-5,1,6,4,7,-15,2,2
1491089092201,3,34,19,8,17,1,-4,16,11
1491089092235,0,-17,-15,-1,5,-3,-11,-33,-4
1491089092235,0,8,-6,-15,-14,-10,15,85,6
1491089092236,1,2,8,5,-1,7,-3,6,0
1491089092236,1,-45,-16,-10,-5,-10,14,27,-8
1491089092237,2,0,8,-1,8,-4,-4,-6,1
1491089092237,2,-3,5,4,5,7,-20,-11,-2
1491089092238,3,-22,-8,-7,-15,0,19,11,-1
1491089092238,3,18,-2,0,3,1,-12,25,-10
1491089092272,0,-28,-3,-11,-20,-30,16,32,-16
1491089092272,0,5,-10,-8,-11,6,-5,-7,3
1491089092273,1,-3,5,5,11,-2,21,-69,-11
1491089092273,1,-15,-14,-5,-10,6,-11,79,4
1491089092275,2,-37,-13,-8,-13,7,8,-61,-11
1491089092275,2,36,16,9,18,-1,7,7,14
1491089092277,3,31,18,7,14,-3,-34,-81,3
1491089092277,3,39,-7,-13,-26,-8,6,7,1
1491089092310,0,-63,-29,-3,-15,9,32,-11,-5
1491089092310,0,-7,-6,-9,-5,-5,-11,-6,-6
1491089092311,1,-9,-7,2,14,-1,19,-34,2
1491089092311,1,20,20,-1,-10,-5,-14,30,12
1491089092312,2,-10,-6,1,12,0,8,7,-5
1491089092312,2,32,16,2,-4,-12,-19,-9,8
1491089092315,3,-41,-18,-5,2,-6,6,-2,-11
1491089092315,3,30,13,4,7,2,-4,14,10
1491089092385,0,-27,-19,-7,-21,3,-8,-29,-22
1491089092385,0,13,17,2,-5,9,-5,30,15
1491089092387,1,-5,-19,-6,-10,-2,13,-41,-4
1491089092387,1,4,-2,-1,16,-8,-15,-20,8
1491089092389,2,45,28,10,28,-5,-21,11,8
1491089092389,2,-54,-17,-2,-3,0,24,-47,-14
1491089092390,3,23,-3,-8,-25,-1,-21,42,4
1491089092390,3,13,8,4,15,-12,-18,-6,-5
1491089092422,0,11,14,9,10,8,-1,-2,3
1491089092422,0,-44,-32,-13,-22,3,35,38,6
1491089092423,1,-2,-13,-6,6,-2,-13,-2,-4
1491089092423,1,8,21,9,3,-3,-14,10,1
1491089092424,0,13,-3,0,0,-6,-33,-1,-8
1491089092424,0,0,-12,0,23,3,-21,5,-4
1491089092425,1,-56,-22,-7,-11,-12,0,44,-7
1491089092425,1,6,-18,-10,6,-5,20,-46,-15
1491089092460,2,-30,9,5,-11,5,0,25,1
1491089092460,2,7,3,-3,14,2,-15,0,-7
1491089092461,3,1,12,6,1,-6,-7,40,-2
1491089092461,3,-6,6,1,-7,5,11,2,4
1491089092462,0,21,-11,-15,-15,1,12,25,16
1491089092462,0,25,9,2,-2,-2,-6,-92,-3
1491089092463,1,8,11,5,8,-2,-9,29,-2
1491089092463,1,-23,-21,-11,-26,-15,12,-30,-14
1491089092497,2,8,3,3,7,0,12,49,13
1491089092497,2,-33,-16,-1,2,5,-7,-1,-2
1491089092498,3,16,11,-4,-2,3,-8,21,2
1491089092498,3,1,12,5,-4,9,-3,-13,1
1491089092499,0,4,-1,3,13,-22,7,-4,-5
1491089092499,0,0,0,1,0,5,15,19,0
1491089092500,1,-24,-9,-4,-5,-13,-4,-9,-4
1491089092500,1,-3,-16,-9,-8,-6,11,10,-1
1491089092535,2,4,2,8,15,14,-17,-16,-8
1491089092535,2,1,9,0,-5,2,17,-18,11
1491089092536,3,25,16,2,-6,2,-20,23,6
1491089092536,3,-75,-23,-9,-10,-2,22,-7,-13
1491089092537,0,20,5,2,11,-1,-15,23,8
1491089092537,0,9,-6,-3,-11,0,-8,-16,-15
1491089092572,1,-17,-13,8,2,14,20,-14,5
1491089092572,1,59,42,14,29,-2,-13,-2,21
1491089092573,2,-81,-34,-16,-29,-9,27,39,-27
1491089092573,2,-2,5,3,15,3,-19,-18,3
1491089092574,3,7,4,2,-11,-4,-1,7,-11
1491089092574,3,-17,-12,-1,5,6,2,2,1
1491089092575,0,25,23,2,5,-4,0,-31,-2
1491089092575,0,20,4,-5,-27,-8,24,13,6
1491089092610,1,-9,-3,-9,-3,-10,4,-26,-5
1491089092610,1,-35,-18,-3,-6,5,-8,-13,-9
1491089092611,2,-5,22,11,17,12,-18,14,0
1491089092611,2,12,-23,-4,1,-9,-18,57,-3
1491089092612,3,20,3,-1,27,-3,6,7,3
1491089092612,3,-50,-9,-9,-33,-15,20,47,-12
1491089092613,0,24,-9,-11,-1,2,-25,24,6
1491089092613,0,11,20,17,17,-5,14,-59,-1
1491089092647,1,-3,-15,-21,-24,-9,33,104,13
1491089092647,1,27,0,3,12,-4,-24,-35,-4
1491089092648,2,-25,-5,-6,-13,-9,1,-23,-9
1491089092648,2,22,5,-1,5,5,4,-28,8
1491089092649,3,31,-6,-4,-7,0,7,33,4
1491089092649,3,-33,-5,6,0,16,11,-23,-1
1491089092650,0,14,1,1,3,-1,-10,12,4
1491089092650,0,-5,-3,-8,-10,-11,1,-23,-5
1491089092685,1,-29,-2,10,5,8,-8,6,2
1491089092685,1,32,-1,-7,-3,-8,-4,-18,3
1491089092686,2,-4,-14,6,10,-1,8,-11,-1
1491089092686,2,-8,13,2,-15,7,-23,-41,-5
1491089092690,3,6,-6,-3,12,-3,-2,43,0
1491089092690,3,-30,1,3,9,6,-12,-60,-7
1491089092691,0,60,-9,-8,-7,1,13,24,5
1491089092691,0,-16,-10,-5,-1,-6,1,23,0
1491089092722,1,-3,12,4,-10,1,-5,-74,2
1491089092722,1,-11,-19,-11,-4,-11,10,19,-12
1491089092723,2,5,2,-9,-9,-2,0,29,0
1491089092723,2,-3,-1,2,-12,7,-20,-35,-8
1491089092723,3,28,15,3,7,-8,-17,17,6
1491089092723,3,-49,-13,-1,8,2,-20,8,-16
1491089092724,0,24,4,-5,-3,1,18,-20,6
1491089092724,0,21,-1,13,28,5,-14,66,7
1491089092759,1,-45,-18,-7,-11,3,-12,-51,-15
1491089092759,1,13,9,3,-3,-3,-10,-25,-6
1491089092761,2,14,17,10,16,-2,-28,-27,5
1491089092761,2,-59,-7,-5,-18,5,18,64,4
1491089092761,3,36,2,-3,6,-7,-3,-40,-4
1491089092761,3,-24,-20,-13,-18,-7,23,-2,-3
1491089092762,0,-21,1,3,-3,0,-6,104,3
1491089092762,0,63,25,0,5,1,-19,-60,8
1491089092797,1,-22,-12,-9,-17,-5,-13,31,-3
1491089092797,1,22,4,2,5,4,-3,-61,3
1491089092798,2,-50,-8,11,12,8,-14,0,-3
1491089092798,2,-18,-11,-11,-11,-10,-12,-9,-8
1491089092799,3,5,7,9,15,7,-5,31,5
1491089092799,3,25,15,13,19,2,-38,23,4
1491089092800,0,14,-4,-6,-16,-5,5,20,3
1491089092800,0,-45,-14,1,-2,-2,-19,24,-5
1491089092834,1,-5,12,1,4,9,15,-46,-13
1491089092834,1,-24,-23,-10,-12,-11,17,29,4
1491089092835,2,-40,-6,-5,-6,-8,-7,7,-11
1491089092835,2,22,13,2,4,-6,-16,-9,1
1491089092836,3,4,-9,-7,-1,-2,5,44,-3
1491089092836,3,2,2,5,11,7,5,-35,-2
1491089092909,0,53,17,5,1,1,-19,-25,7
1491089092909,0,-31,-29,-19,-34,-9,36,27,-20
1491089092910,1,16,6,-3,-6,8,-20,-58,7
1491089092910,1,11,17,-3,-23,-15,38,84,4
1491089092911,2,22,9,0,7,-9,11,-91,-1
1491089092911,2,-16,3,-2,-11,6,19,26,5
1491089092912,3,3,3,-1,3,2,-1,-14,7
1491089092912,3,4,-8,4,16,5,-10,26,-5
1491089092947,0,9,-1,-3,-1,-3,-14,20,3
1491089092947,0,3,-4,1,-8,-4,-11,-31,-8
1491089092948,1,-36,-15,-7,-1,-2,11,22,-7
1491089092948,1,44,16,7,14,8,-16,33,16
1491089092949,2,-87,-35,-18,-18,-8,16,-36,-22
1491089092949,2,31,4,5,24,11,-19,33,4
1491089092949,0,8,4,2,7,-7,-9,27,6
1491089092949,0,-3,-5,-6,-2,-5,-6,0,1
1491089092985,1,25,9,14,24,4,-3,35,-4
1491089092985,1,-4,3,5,7,10,6,-12,5
1491089092985,2,-4,-10,-8,-16,-1,13,-18,-7
1491089092985,2,-4,-6,1,-1,-3,-1,-9,5
1491089092986,0,11,11,-3,-10,1,3,11,-3
1491089092986,0,-21,-6,-4,-4,-8,6,56,-6
1491089092987,1,-3,-9,0,13,4,-15,-57,-6
1491089092987,1,48,24,0,4,-7,-13,83,16
1491089093022,2,-51,-36,-17,-22,-12,33,-71,-10
1491089093022,2,31,12,6,13,1,-6,-2,0
1491089093023,3,-41,-5,-5,-23,-3,2,-28,-14
1491089093023,3,39,14,3,7,1,-4,0,7
1491089093023,0,7,0,-3,-1,3,12,-3,5
1491089093023,0,20,-1,-2,-3,-5,-3,-5,0
1491089093024,1,-16,-16,-6,-9,-4,14,4,-6
1491089093024,1,-7,1,-7,-14,-6,-5,-52,-1
1491089093059,2,52,18,9,12,1,-13,-16,5
1491089093059,2,-7,-14,-11,-13,2,23,3,-2
1491089093060,3,-4,17,8,26,7,-5,69,-1
1491089093060,3,-62,-39,-12,-21,-11,7,-75,-21
1491089093061,0,3,8,3,18,2,-30,11,3
1491089093061,0,28,22,15,33,6,-15,41,9
1491089093062,1,-16,-1,-2,-17,-7,8,-37,-11
1491089093062,1,-8,-16,-11,-11,-8,15,2,2
1491089093097,2,32,14,14,16,7,-18,46,5
1491089093097,2,-15,-7,-6,-3,-5,0,-5,-17
1491089093098,3,-5,-11,-9,-16,1,18,-22,5
1491089093098,3,50,7,-6,-7,3,-17,-8,5
1491089093099,0,-70,-27,-5,-8,-6,13,18,-22
1491089093099,0,14,8,0,7,-7,-14,-9,6
1491089093134,1,-9,-5,-1,-1,-1,-1,-5,2
1491089093134,1,-1,8,0,2,-2,3,14,2
1491089093135,2,75,34,11,28,8,-40,23,9
1491089093135,2,-19,-18,-14,-31,-6,18,-27,-1
1491089093136,3,-43,-19,0,8,1,-4,-28,-1
1491089093136,3,22,13,3,4,-5,-3,22,0
1491089093137,0,-36,-11,-7,-11,-6,-3,-10,-9
1491089093137,0,-45,-16,0,7,0,-21,2,-5
1491089093172,1,1,5,2,-1,-6,-32,-52,1
1491089093172,1,-17,-15,-13,-5,1,6,58,-4
1491089093173,2,37,29,1,-6,4,-4,-24,15
1491089093173,2,-49,-18,-8,-15,-6,-11,-34,-28
1491089093173,3,23,-7,-2,10,-2,-27,31,11
1491089093173,3,-15,2,8,5,2,-16,-27,-12
1491089093174,0,23,-10,-9,-5,-3,-7,-27,4
1491089093174,0,4,4,2,1,8,-4,44,7
1491089093209,1,-2,-5,-4,-15,-1,-7,-15,5
1491089093209,1,11,7,5,11,2,-23,0,-4
1491089093247,2,4,-5,-4,-6,3,-14,1,-1
1491089093247,2,-8,4,5,10,-1,19,-10,-2
1491089093248,3,-28,-3,-1,1,0,4,-14,-6
1491089093248,3,31,9,1,-7,0,-11,22,6
1491089093249,0,1,-3,0,3,-2,13,-33,2
1491089093249,0,9,-7,-6,-8,-5,9,17,1
1491089093250,1,-10,2,-4,-8,-5,13,-6,-7
1491089093250,1,-3,-6,-3,-4,-8,-6,-41,-7
1491089093284,2,11,7,8,13,4,7,0,2
1491089093284,2,-10,-3,-1,1,-2,24,51,2
1491089093286,3,11,3,-3,-7,-8,-1,-54,6
1491089093286,3,-3,-8,-12,-10,10,2,51,-1
1491089093286,0,3,6,1,9,-12,-13,7,-5
1491089093286,0,6,-7,-2,5,8,2,-23,4
1491089093287,2,-7,-6,-1,-10,5,-2,-5,-2
1491089093287,2,-25,-4,-1,-7,-3,-4,-59,-9
1491089093322,3,32,5,2,4,4,-13,63,5
1491089093322,3,34,8,-1,-6,-2,-14,-78,6
1491089093324,0,-15,-21,-11,-22,-12,14,70,-8
1491089093324,0,24,14,9,22,4,-9,-2,3
1491089093325,1,-34,-20,-11,-22,-4,20,-68,-13
1491089093325,1,10,-2,0,5,5,3,64,5
1491089093326,2,8,2,4,19,-3,11,-2,0
1491089093326,2,-18,6,0,-11,-4,-18,-30,-1
1491089093359,3,34,-10,-10,-3,-9,-7,18,-7
1491089093359,3,-25,-8,4,4,6,-3,24,1
1491089093360,0,-10,12,2,-7,-8,-9,-47,-3
1491089093360,0,17,-9,-10,-12,-6,6,-65,-2
1491089093361,1,-25,1,5,10,5,6,20,-10
1491089093361,1,-3,-1,-7,-11,-5,5,3,4
1491089093362,2,-5,-7,-2,-9,6,7,-3,5
1491089093362,2,24,11,2,11,-12,-16,33,5
1491089093397,3,17,4,-3,0,3,5,2,4
1491089093397,3,6,-8,-4,-8,-4,14,-13,2
1491089093399,0,-52,-15,-8,-6,-6,1,10,-15
1491089093399,0,27,12,1,-8,7,-3,53,3
1491089093400,1,1,1,3,8,0,19,-25,1
1491089093400,1,-31,-6,-4,-7,-9,20,-8,-5
1491089093401,2,-14,-11,-9,-5,4,-13,26,2
1491089093401,2,5,10,6,7,-1,29,58,4
1491089093434,3,6,-6,-2,4,1,-16,-37,-1
1491089093434,3,2,-1,1,4,-12,12,83,0
1491089093435,0,-13,-6,-8,-13,0,12,-68,5
1491089093435,0,14,-5,-2,0,-6,-14,0,-4
1491089093436,1,7,14,4,15,1,-6,43,3
1491089093436,1,22,0,-1,-2,4,-8,-58,-14
1491089093437,2,28,9,6,8,5,11,86,12
1491089093437,2,-53,-19,-11,-9,5,-3,-13,-15
1491089093472,3,4,4,3,9,2,10,-20,6
1491089093472,3,-33,-2,0,-8,-8,-2,23,-12
1491089093473,0,-9,-8,0,-7,1,22,-23,-3
1491089093473,0,26,4,1,11,-6,-19,-27,3
1491089093473,1,-34,-12,-1,-2,-1,-9,50,-10
1491089093473,1,-14,1,2,11,6,8,-7,6
1491089093474,2,45,3,-6,-10,1,-3,-9,1
1491089093474,2,-3,9,7,14,-5,-1,-33,0
1491089093509,3,-7,-11,-12,-20,-8,-12,-19,2
1491089093509,3,-4,1,0,0,-1,0,11,1
1491089093510,0,-4,-2,0,1,-6,-17,-16,-14
1491089093510,0,17,6,0,6,-1,-22,26,8
1491089093511,1,-44,-19,-5,-9,-1,8,16,-14
1491089093511,1,-15,1,0,2,-2,-21,-1,5
1491089093512,2,-5,-3,-5,-15,0,8,-4,-11
1491089093512,2,-14,-12,-5,-13,-4,-4,-21,7
1491089093547,3,-4,2,0,1,-1,-16,-3,-3
1491089093547,3,-4,-5,-4,-5,-4,-19,-4,0
1491089093548,0,-11,9,7,13,8,-14,-6,2
1491089093548,0,48,17,4,9,-1,-14,-29,9
1491089093549,1,-35,-14,-9,-17,-3,-7,-22,-14
1491089093549,1,18,9,3,-8,5,-13,-49,8
1491089093550,2,-17,-5,7,26,-16,-1,67,-4
1491089093550,2,-38,-23,-15,-35,7,15,-57,-2
1491089093584,3,45,3,2,14,-8,-11,33,2
1491089093584,3,-27,1,-1,-3,-1,5,-31,-11
1491089093585,0,-3,-5,-6,-8,4,7,-11,4
1491089093585,0,-4,10,8,10,6,-1,40,-4
1491089093586,1,-19,3,-3,-7,-4,11,-18,-5
1491089093586,1,7,-16,-11,-3,-7,-15,-24,-2
1491089093587,2,-2,10,12,13,2,-9,18,3
1491089093587,2,14,-12,-6,-8,-5,5,19,-5
1491089093622,3,-12,-4,3,6,16,0,8,7
1491089093622,3,18,4,-5,-17,-1,11,-9,3
1491089093623,0,-9,3,-1,-2,-6,-13,-65,-2
1491089093623,0,11,4,0,9,-4,-5,29,-3
1491089093623,1,-13,-4,3,-2,-3,9,21,-7
1491089093623,1,-1,10,1,9,-1,2,34,-3
1491089093624,2,-7,-2,2,6,11,-13,-62,-11
1491089093624,2,-21,-29,-17,-33,-10,21,20,-6
1491089093659,3,38,6,4,3,2,-5,-6,10
1491089093659,3,-12,10,5,18,5,-7,86,7
1491089093660,0,26,-6,-12,-27,-16,7,-46,-7
1491089093660,0,-33,6,7,17,6,6,-45,-12
1491089093661,1,-27,-6,1,0,-3,6,53,2
1491089093661,1,32,14,6,8,4,-25,39,-5
1491089093662,2,-2,-5,-2,-7,6,4,-5,7
1491089093662,2,-20,-7,-1,11,-1,15,-44,4
1491089093697,3,61,16,7,13,-3,-22,-9,9
1491089093697,3,-38,-17,-9,-14,-1,14,3,-12
1491089093698,0,7,-2,-3,-1,-10,-25,26,7
1491089093698,0,41,3,-3,-10,-2,-15,19,-3
1491089093699,1,-23,2,6,12,2,4,-36,-3
1491089093699,1,4,-11,-4,-2,-2,28,-21,5
1491089093772,2,0,-9,-5,-3,-5,3,-4,-10
1491089093772,2,16,-1,-2,-1,-3,-7,14,5
1491089093773,3,-4,14,1,-7,0,-3,18,-1
1491089093773,3,21,2,7,14,4,0,5,5
1491089093774,0,-38,-19,-16,-19,1,34,-10,-4
1491089093774,0,20,9,3,3,-3,-9,14,1
1491089093775,1,-16,-1,-5,-3,-4,0,10,-9
1491089093775,1,-21,-11,-10,-24,-9,10,-45,-8
1491089093809,2,20,7,-1,-1,-1,9,74,-7
1491089093809,2,-31,-3,-1,-2,6,13,-4,0
1491089093810,3,30,-4,-6,4,-6,-1,-50,-3
1491089093810,3,-19,-9,1,-1,-5,-13,-50,-10
1491089093811,0,-2,2,-3,-3,-1,4,60,6
1491089093811,0,-11,-1,-4,-10,-8,-20,-11,-3
1491089093812,2,-44,-13,-4,4,-4,-3,-5,-21
1491089093812,2,-16,1,-1,-5,0,53,45,9
1491089093847,3,27,0,-1,0,0,5,2,-9
1491089093847,3,-49,-23,-7,-20,3,35,1,-4
1491089093848,0,17,13,15,22,8,-13,15,13
1491089093848,0,0,-6,-2,8,-2,-4,-32,-6
1491089093849,2,0,-5,-6,-2,-10,-22,-41,3
1491089093849,2,21,13,11,19,10,-32,31,9
1491089093850,3,26,5,-9,-20,-15,11,2,2
1491089093850,3,-31,-21,-1,3,2,-10,-30,-17
1491089093884,0,-28,-7,-4,-1,1,9,18,2
1491089093884,0,81,47,11,16,-3,-28,-11,8
1491089093885,1,-112,-60,-22,-30,-1,22,-7,-19
1491089093885,1,30,5,-3,1,-6,-10,-9,8
1491089093886,2,5,-3,-3,4,3,15,8,-10
1491089093886,2,-21,-4,6,19,-2,-11,-19,-7
1491089093887,3,29,25,9,5,-10,-28,-18,6
1491089093887,3,17,-4,-4,3,0,-2,32,-2
1491089093922,0,1,6,5,-2,8,-23,-10,5
1491089093922,0,-13,-16,-12,-6,-1,-18,-39,-13
1491089093923,1,-44,-7,4,-1,-7,1,55,-5
1491089093923,1,17,11,2,21,-3,-25,-27,1
1491089093924,2,20,-7,-8,-13,-6,-10,15,-1
1491089093924,2,-21,-19,-6,-7,9,9,71,2
1491089093924,3,-9,0,2,-2,8,-16,-84,0
1491089093924,3,32,36,9,11,3,9,25,3
1491089093959,0,-47,-24,-13,-16,-16,16,0,-4
1491089093959,0,-8,-4,-2,-5,-2,-3,-2,-7
1491089093961,1,44,12,7,21,3,-12,-15,14
1491089093961,1,-15,-5,-3,-11,-2,5,9,-7
1491089093961,2,10,9,7,7,12,-3,-6,0
1491089093961,2,28,2,-3,-5,-2,9,-3,-1
1491089093962,3,-52,-18,-6,-2,-11,-7,39,-7
1491089093962,3,29,-3,0,-2,-2,-5,-17,3
1491089093997,0,-12,5,4,0,3,18,17,4
1491089093997,0,-3,0,4,0,-2,5,-6,2
1491089093998,1,34,5,-10,-1,-3,3,33,5
1491089093998,1,-18,-7,-1,-3,-3,-5,-36,-3
1491089093999,2,15,12,9,11,3,-24,-30,-2
1491089093999,2,26,-1,-1,-4,2,3,-56,3
1491089094000,3,-2,5,-2,-2,-6,12,12,-2
1491089094000,3,-33,-26,-9,0,-1,-4,58,-8
1491089094034,0,25,7,1,1,0,-2,24,5
1491089094034,0,-18,-2,-11,-11,-9,-19,-39,-10
1491089094035,1,-14,-5,6,5,2,1,-5,-6
1491089094035,1,30,2,0,-1,3,13,-1,4
1491089094036,2,-22,4,0,-8,4,2,-30,-2
1491089094036,2,-13,-13,-12,-19,-11,2,71,-6
1491089094037,3,17,5,1,-3,6,9,-45,8
1491089094037,3,-14,-9,-1,-2,5,-3,27,4
1491089094072,0,-37,-10,-5,-9,-21,17,-38,-6
1491089094072,0,-10,14,6,1,0,-5,-8,-8
1491089094072,1,9,-12,-11,-9,1,-3,10,-3
1491089094072,1,33,13,2,5,-2,-2,17,12
1491089094073,2,-5,-10,-6,-1,4,-4,-18,-8
1491089094073,2,-36,-13,1,-3,-10,10,-25,0
1491089094074,3,64,28,4,7,-6,-12,20,4
1491089094074,3,-6,-3,-2,-1,-5,0,-33,-3
1491089094109,0,-6,-11,0,11,9,-10,66,1
1491089094109,0,-3,4,-2,2,-2,0,-30,-13
1491089094110,1,-44,-19,-2,-10,5,9,17,1
1491089094110,1,1,14,1,-1,0,-10,-31,-2
1491089094110,2,39,2,-1,1,0,3,7,4
1491089094110,2,0,-4,-6,-9,3,5,27,1
1491089094112,3,4,5,2,4,1,4,-21,0
1491089094112,3,-1,-6,-5,-11,-9,3,-6,-9
1491089094147,0,-20,1,-3,2,-6,8,0,-6
1491089094147,0,23,1,2,4,5,1,-32,15
1491089094147,1,-4,-8,-5,-14,-4,0,-1,-7
1491089094147,1,-13,-5,-6,-2,-1,15,12,-1
1491089094148,2,-18,-1,1,-10,-2,1,-64,2
1491089094148,2,22,5,3,15,-4,-6,76,5
1491089094184,3,-31,0,0,-1,-1,-3,-71,-8
1491089094184,3,33,2,-1,1,-7,9,-57,-3
1491089094185,0,-2,-5,-5,-5,2,-4,-2,4
1491089094185,0,2,-5,-5,-15,-6,14,22,-3
1491089094185,1,-6,8,10,26,8,-1,-22,3
1491089094185,1,-8,-5,3,6,5,-15,3,-11
1491089094187,2,32,22,5,15,-1,8,14,5
1491089094187,2,-22,-12,-5,-4,7,-2,-37,2
1491089094222,3,43,6,0,-6,6,9,64,6
1491089094222,3,-23,-9,-1,4,-4,-6,17,-10
1491089094223,0,2,-4,-7,-20,-6,2,-27,3
1491089094223,0,26,15,9,20,5,-14,-3,9
1491089094223,1,-20,-17,-9,-13,1,14,-46,-13
1491089094223,1,-16,-5,-9,-14,-8,3,107,7
1491089094224,2,21,10,7,16,10,-26,6,1
1491089094224,2,-68,-14,-4,-5,-9,0,-2,-19
1491089094259,3,23,3,-3,12,0,-18,-29,13
1491089094259,3,-19,-6,5,0,-5,20,-14,1
1491089094260,0,58,9,-2,1,4,9,23,14
1491089094260,0,20,1,-3,-6,-12,-27,1,0
1491089094260,1,-48,-10,-8,-13,-5,-12,-36,-8
1491089094260,1,-18,-6,-2,-2,5,-7,-27,-2
1491089094262,2,12,-4,2,9,5,-17,59,-1
1491089094262,2,0,-1,2,-4,-2,4,-26,-5
1491089094297,3,13,1,-13,-8,-12,-4,32,3
1491089094297,3,17,7,-2,0,-5,-16,-16,-3
1491089094297,0,0,-17,1,10,-3,1,-43,-15
1491089094297,0,-18,-5,-9,-18,4,14,-2,-5
1491089094299,1,39,18,7,11,-1,1,74,2
1491089094299,1,-67,-22,-13,-19,-8,8,-22,-15
1491089094409,2,-17,-5,-1,8,-8,-12,-42,-12
1491089094409,2,-9,-14,-7,-6,-5,-5,19,-3
1491089094410,3,2,0,8,7,8,-11,-41,-14
1491089094410,3,60,23,3,-3,5,3,18,19
1491089094410,0,-21,-11,-2,-11,-5,-3,-16,-8
1491089094410,0,9,2,1,10,8,4,8,11
1491089094412,1,-6,2,7,8,-6,1,-6,-13
1491089094412,1,2,3,-6,2,1,1,1,8
1491089094447,2,29,-3,-1,-3,-2,-7,32,-2
1491089094447,2,-7,-8,-2,-8,-2,-3,-4,-2
1491089094448,3,-35,-6,-3,3,2,-13,-13,-10
1491089094448,3,2,-3,-7,-10,-16,3,-52,4
1491089094448,0,-4,6,1,6,3,-6,44,-1
1491089094448,0,40,6,0,-2,0,-10,-10,3
1491089094449,2,-27,-8,-2,-23,2,-11,-32,-3
1491089094449,2,11,3,4,19,-1,21,14,0
1491089094484,3,22,9,-7,-8,-15,-17,-10,1
1491089094484,3,7,6,6,0,5,-7,39,-1
1491089094485,0,-10,-10,-6,0,-2,25,-41,-2
1491089094485,0,-51,-4,0,-7,8,-4,34,-11
1491089094485,1,5,2,-5,-5,-8,4,-25,1
1491089094485,1,-8,-15,-9,-12,-5,8,31,0
1491089094487,2,1,-1,4,8,1,-8,-46,2
1491089094487,2,34,12,-1,-9,0,8,-35,7
1491089094522,3,-9,-1,2,15,-3,-23,20,-4
1491089094522,3,10,9,1,-11,3,-5,-25,2
1491089094523,0,-16,-22,-9,-3,-10,10,-1,-5
1491089094523,0,5,0,3,10,-1,1,-17,3
1491089094524,1,2,10,-2,-1,3,-2,-4,5
1491089094524,1,5,-16,0,9,-7,-7,-31,-12
1491089094525,2,-5,18,0,5,-4,3,23,-2
1491089094525,2,0,-6,-2,-7,-1,-10,-11,-2
1491089094559,3,-17,-13,-9,-12,-2,16,-22,-11
1491089094559,3,35,5,3,16,5,-18,24,11
1491089094560,0,-10,-1,-6,-11,-13,16,-14,-7
1491089094560,0,-54,-11,1,2,0,2,11,-3
1491089094561,1,10,4,3,4,6,-11,48,5
1491089094561,1,-14,-6,-4,-11,-4,-5,-59,-2
1491089094562,2,37,3,-2,3,2,-10,41,7
1491089094562,2,-6,6,2,3,0,-11,-13,1
1491089094597,3,-1,-4,-6,-11,-1,-19,-41,1
1491089094597,3,-5,-6,2,12,2,6,3,-3
1491089094597,0,-17,-2,-5,-9,-4,12,64,1
1491089094597,0,29,9,3,0,-11,9,-87,-2
1491089094598,1,-27,-25,-3,1,2,18,33,2
1491089094598,1,29,26,5,6,-3,-14,-6,-8
1491089094599,2,-29,-1,-4,-5,1,1,-3,-4
1491089094599,2,-22,-32,-17,-26,-10,22,12,-6
1491089094634,3,6,5,1,10,2,-10,-43,-7
1491089094634,3,-11,-7,-5,-15,-5,16,14,0
1491089094635,0,29,7,7,23,6,-26,-13,0
1491089094635,0,-49,-16,-6,-17,3,3,24,-15
1491089094636,1,-5,2,-6,-8,-10,-4,25,0
1491089094636,1,7,11,7,8,4,-13,-22,2
1491089094637,2,-19,-7,-6,-13,-1,-10,-41,-9
1491089094637,2,23,13,9,19,3,-17,22,14
1491089094709,3,10,6,-3,-6,-12,5,24,-1
1491089094709,3,-29,-16,-4,-7,1,-4,-52,-12
1491089094710,0,2,-5,3,5,-1,-11,21,10
1491089094710,0,22,19,9,9,5,-34,22,0
1491089094711,1,6,-10,-8,-12,-2,6,-34,0
1491089094711,1,-7,-4,-8,-18,-6,-1,36,-3
1491089094712,2,-42,-11,-2,-4,5,-6,-18,-6
1491089094712,2,22,5,-5,-9,-5,-6,-4,3
1491089094747,3,3,2,1,1,-4,13,81,6
1491089094747,3,54,9,3,14,5,-35,-53,-3
1491089094748,0,-62,-15,-4,-7,-4,37,24,-5
1491089094748,0,30,23,7,10,10,0,43,12
1491089094749,1,-52,-22,-2,4,0,1,-10,-12
1491089094749,1,13,10,2,-1,3,11,7,13
1491089094784,3,10,-9,-10,-15,0,15,-39,-2
1491089094784,3,-28,-8,-2,2,10,9,38,1
1491089094785,0,42,12,2,-3,-16,-27,-75,4
1491089094785,0,-37,-18,-17,-12,-8,19,83,-14
1491089094786,1,-9,11,8,-4,4,-4,-79,-7
1491089094786,1,-9,-7,4,7,-4,38,22,3
1491089094787,3,-7,-25,-7,-5,5,16,-29,11
1491089094787,3,76,35,19,10,-6,-12,-29,-6
1491089094822,0,-70,-64,-27,-32,-11,2,64,-26
1491089094822,0,33,9,-4,-7,-7,-19,-4,17
1491089094823,1,48,16,-11,-1,4,-3,45,5
1491089094823,1,-80,-5,-20,-8,4,-28,56,-6
1491089094824,2,80,9,42,27,18,-4,19,14
1491089094824,2,-10,17,5,32,-11,-4,-54,-16
1491089094824,3,-28,9,-1,33,5,-47,5,1
1491089094824,3,-87,-42,-29,-30,-19,6,75,-37
1491089094859,0,10,36,11,24,2,-31,-44,-13
1491089094859,0,17,-18,44,-14,36,-17,16,25
1491089094860,1,22,-31,-67,-33,-36,-24,-6,-6
1491089094860,1,-30,24,-13,27,-9,1,57,-16
1491089094861,3,-13,2,-37,-67,-7,-1,19,-1
1491089094861,3,6,4,6,-46,29,90,25,12
1491089094862,0,38,-9,-88,-54,-14,85,-98,-4
1491089094862,0,14,52,71,-68,-8,72,-44,-19
1491089094897,1,-34,-89,3,-1,11,2,35,-4
1491089094897,1,79,-20,-62,-85,-28,-4,-41,23
1491089094898,2,-31,71,93,68,15,-81,75,4
1491089094898,2,-93,-98,-12,26,-11,-85,-28,-44
1491089094899,3,79,121,49,50,24,29,57,25
1491089094899,3,-4,-38,12,79,-9,8,-33,-9
1491089094900,0,-116,-122,-20,51,-2,23,-43,-33
1491089094900,0,25,65,26,-83,-15,-39,65,14
1491089094934,1,2,70,-18,20,45,-24,-53,-28
1491089094934,1,-82,-82,127,102,9,-40,-86,2
1491089094935,2,58,15,-128,-23,-25,21,15,-7
1491089094935,2,-128,-67,10,-24,-22,-17,90,21
1491089094936,3,84,-7,25,42,16,-57,1,-1
1491089094936,3,33,127,105,22,37,40,5,24
1491089094972,0,-121,-114,2,23,-4,52,-19,-45
1491089094972,0,35,-35,-128,-39,-60,-31,-69,15
1491089094973,1,-40,99,123,-35,12,-55,86,-18
1491089094973,1,-80,-128,59,25,4,-13,31,-5
1491089094973,2,118,122,8,-5,16,82,38,11
1491089094973,2,8,21,-24,-45,-40,97,-128,-11
1491089094974,3,-23,-116,-128,12,-58,-20,83,-18
1491089094974,3,64,78,11,-80,15,-51,-46,9
1491089095009,0,18,-52,127,36,55,-8,48,40
1491089095009,0,-17,-75,62,110,26,-37,31,31
1491089095010,1,-45,23,-54,-97,-22,97,18,1
1491089095010,1,49,51,62,-59,17,27,127,1
1491089095011,2,-91,-84,57,44,-37,-59,-36,37
1491089095011,2,-38,111,-51,-8,9,4,-92,-7
1491089095012,3,15,11,127,113,-18,56,-41,7
1491089095012,3,11,-76,-83,-30,-3,-4,70,16
1491089095047,0,-24,110,40,-128,29,-98,-41,-75
1491089095047,0,-75,-120,80,105,17,-46,92,-30
1491089095048,1,3,110,-59,-47,-13,32,9,19
1491089095048,1,37,126,-69,-56,-6,96,-51,-1
1491089095049,2,-58,-50,66,101,25,35,-61,-46
1491089095049,2,94,63,-86,-17,-20,-4,77,39
1491089095050,3,-39,-123,-33,-70,1,-15,-124,-39
1491089095050,3,72,18,56,51,3,41,20,14
1491089095084,0,44,36,6,-80,-25,8,-46,24
1491089095084,0,-80,-36,-55,-75,-31,-14,81,0
1491089095085,1,81,77,127,125,29,-8,-92,-27
1491089095085,1,-71,-99,-7,81,15,-18,98,15
1491089095086,2,62,127,-49,-82,-18,45,-17,-4
1491089095086,2,-25,50,39,-35,-21,27,8,-23
1491089095087,3,-95,-124,10,-10,-18,-28,-32,-5
1491089095087,3,54,71,-35,7,-22,-32,-80,7
1491089095122,0,28,-26,66,18,26,-56,-34,1
1491089095122,0,45,-46,-110,-47,13,58,28,-19
1491089095122,1,-128,-109,-106,-5,-10,-21,87,35
1491089095122,1,63,86,111,78,6,68,-32,33
1491089095126,2,-59,-91,-128,17,-31,-7,-44,-23
1491089095126,2,17,20,-38,-48,15,-29,-6,9
1491089095126,3,3,68,127,8,-11,19,123,17
1491089095126,3,21,-67,22,-21,12,-78,-34,-24
1491089095159,0,-73,-49,-128,-45,-36,26,79,6
1491089095159,0,18,-1,-7,74,16,-6,-128,-33
1491089095160,1,37,-125,88,-34,34,-80,113,43
1491089095160,1,86,118,28,46,-37,33,-100,27
1491089095161,2,-60,-65,-43,-43,14,51,-54,-6
1491089095161,2,-27,-105,127,98,-5,-83,-3,3
1491089095162,3,64,109,-126,-54,16,-45,32,0
1491089095162,3,-33,-128,-128,-41,-5,-55,64,29
1491089095197,0,76,112,104,15,23,-40,14,30
1491089095197,0,-35,-19,24,6,7,52,-12,38
1491089095197,1,86,91,-50,-51,-5,61,-123,-3
1491089095197,1,-81,-63,98,-78,-8,22,12,-30
1491089095198,2,-64,-104,-128,127,-25,19,119,-9
1491089095198,2,77,127,127,31,44,81,35,9
1491089095199,3,-104,-97,-28,-9,-39,-20,-35,-45
1491089095199,3,-119,51,18,-83,14,-100,-63,-21
1491089095234,0,33,106,127,-32,33,5,-3,32
1491089095234,0,-48,-69,-114,4,-9,22,43,-44
1491089095235,1,-56,-116,-60,26,-61,67,-128,-14
1491089095235,1,-20,31,13,-2,-1,55,14,6
1491089095272,2,86,100,-87,-18,8,4,-20,21
1491089095272,2,4,-47,18,29,11,-70,-16,0
1491089095273,3,-10,95,70,6,16,-56,-29,27
1491089095273,3,-82,-3,3,73,-14,-5,28,-54
1491089095274,0,-20,-33,-15,-101,-2,45,40,4
1491089095274,0,-1,56,107,99,14,127,-6,5
1491089095275,1,36,62,96,28,15,109,9,45
1491089095275,1,-20,-41,-41,-32,-29,-10,8,-35
1491089095309,2,-37,0,-2,-45,-5,-27,6,-2
1491089095309,2,-19,3,18,-97,-14,-44,-19,-10
1491089095310,3,-59,-50,9,84,31,-62,4,-34
1491089095310,3,47,-27,-80,4,-20,-35,38,45
1491089095311,0,-7,35,-7,44,-11,-47,-26,-16
1491089095311,0,42,40,29,-103,-9,-73,-30,17
1491089095312,1,42,81,50,-3,7,-18,43,3
1491089095312,1,-51,-120,-55,-22,-28,-19,-29,-28
1491089095347,2,-49,-128,-89,-27,-17,-37,30,-6
1491089095347,2,116,127,101,62,38,-37,33,45
1491089095348,3,11,14,-17,-6,8,3,-22,-28
1491089095348,3,-70,-40,-26,-110,-3,-21,-14,15
1491089095349,0,-14,-30,-30,30,-14,-28,6,4
1491089095349,0,-5,-39,-21,17,5,8,-18,-3
1491089095350,1,12,-101,-88,-41,-14,8,8,-21
1491089095350,1,-18,-96,-105,-28,-20,-25,-63,-12
1491089095384,2,50,127,127,17,26,-5,51,31
1491089095384,2,24,-16,76,52,11,10,19,-16
1491089095385,3,-14,0,-33,19,14,-4,-35,-3
1491089095385,3,-8,-44,-1,-16,-6,-15,69,-14
1491089095385,0,20,-99,-6,38,-27,1,10,-1
1491089095385,0,-69,-28,-17,-42,-4,0,26,-8
1491089095387,1,-1,-14,120,44,12,-12,1,6
1491089095387,1,69,34,83,42,56,-2,9,-4
1491089095422,2,-18,-100,85,5,-13,-1,-18,-13
1491089095422,2,-61,-121,-19,-30,-1,-9,-27,-11
1491089095422,3,59,82,100,62,-33,7,24,17
1491089095422,3,-36,-11,-77,61,12,3,-10,-36
1491089095423,0,40,67,13,9,5,-2,-64,15
1491089095423,0,-50,-128,-65,-111,-56,-7,2,-22
1491089095424,1,-40,-24,-128,-94,-35,4,7,-6
1491089095424,1,63,100,127,127,75,0,16,2
1491089095459,2,42,76,47,-57,51,-3,3,0
1491089095459,2,-23,-61,-128,-14,-29,-1,-45,-10
1491089095460,3,-33,-19,82,-45,-17,6,25,0
1491089095460,3,-51,-31,18,66,-50,-12,5,-9
1491089095461,0,-95,-81,-24,-92,-15,-2,-52,-16
1491089095461,0,114,127,127,119,62,9,19,19
1491089095462,1,39,-20,-89,48,39,-4,7,3
1491089095462,1,-57,3,-12,-96,-3,2,-20,-13
1491089095497,2,76,-14,-6,-2,5,-1,16,8
1491089095497,2,-17,-1,-17,-68,-44,-2,-39,-6
1491089095497,3,0,24,107,53,11,-3,4,6
1491089095497,3,31,93,-61,101,33,1,6,-2
1491089095498,0,9,-27,-101,-28,-14,-3,14,-7
1491089095498,0,-3,-49,-50,-48,7,-4,35,10
1491089095499,1,-10,-35,-33,-86,2,0,-28,-13
1491089095499,1,-19,-11,-22,-17,-30,-6,-21,9
1491089095534,2,10,53,-104,89,33,-2,60,0
1491089095534,2,43,22,75,127,15,3,-31,5
1491089095535,3,-11,-84,-89,-101,-44,-2,29,-11
1491089095535,3,19,-59,26,-7,20,1,-16,-5
1491089095536,0,7,-58,47,-38,-29,0,-9,6
1491089095536,0,-2,-79,-15,-24,-8,-3,26,-12
1491089095537,1,-60,-110,-81,-83,-4,2,-17,-12
1491089095537,1,60,95,103,42,-1,-1,2,15
1491089095572,2,36,77,46,91,52,2,-22,-2
1491089095572,2,-17,79,-58,-38,35,-2,28,-5
1491089095572,3,-34,-57,-67,9,-2,5,-66,-4
1491089095572,3,-5,-13,-34,-9,-33,-1,27,1
1491089095573,0,-1,65,47,11,9,2,-50,-2
1491089095573,0,-7,20,-120,-43,7,7,4,-9
1491089095609,1,3,56,16,61,13,1,14,11
1491089095609,1,-11,-34,-52,-92,66,2,21,0
1491089095610,2,-10,-21,62,63,-5,1,13,1
1491089095610,2,-19,8,42,70,50,-3,-64,-11
1491089095610,3,-6,-8,-55,-83,15,-4,39,-3
1491089095610,3,16,36,83,-36,17,-5,16,8
1491089095612,0,-16,-56,14,-28,12,1,-45,-5
1491089095612,0,15,-4,-2,-6,-37,-11,34,2
1491089095647,1,-18,-19,54,-14,17,-3,24,-1
1491089095647,1,-28,-74,-63,57,-71,-8,-86,-22
1491089095647,2,-27,-7,10,-67,-67,-8,6,-3
1491089095647,2,2,26,11,40,22,-3,12,6
1491089095648,3,-6,61,-3,51,-16,-5,4,-12
1491089095648,3,41,27,12,-92,-26,-2,17,24
1491089095649,0,-48,61,31,63,-20,-2,-20,-9
1491089095649,0,-26,-37,-39,-89,15,-5,-32,-5
1491089095684,1,28,35,39,55,-76,-5,43,9
1491089095684,1,-20,20,-27,13,-36,4,11,-20
1491089095691,2,-33,-46,1,9,8,-6,16,1
1491089095691,2,-2,-6,48,-10,-38,-1,-19,-3
1491089095708,3,0,20,22,-9,14,2,-62,-4
1491089095708,3,-1,-46,-63,-39,-4,-7,0,8
1491089095709,0,7,-16,-25,-3,-30,4,40,4
1491089095709,0,-25,-21,-7,-3,-19,2,15,-9
1491089095722,1,18,35,37,9,2,1,-48,4
1491089095722,1,-8,-37,-43,5,-12,4,41,-10
1491089095724,2,-8,-9,36,-12,1,-2,-23,5
1491089095724,2,25,75,75,70,26,0,29,8
1491089095724,3,15,9,20,16,4,0,-10,-2
1491089095724,3,-29,5,-11,-8,15,1,22,-4
1491089095759,0,-6,-28,-80,-43,-20,-4,-47,-5
1491089095759,0,19,-14,-28,-67,-2,4,39,3
1491089095760,1,17,28,66,81,12,3,30,11
1491089095760,1,-16,-12,14,-6,-3,0,-38,-2
1491089095761,2,15,-1,-56,-36,-7,-3,64,-10
1491089095761,2,-16,-8,4,11,-13,0,-75,-6
1491089095762,3,17,-15,13,25,24,-6,101,8
1491089095762,3,25,74,19,18,2,-5,-57,-1
1491089095834,0,26,28,20,9,-1,3,46,11
1491089095834,0,-12,-44,-40,-3,-22,0,-36,-5
1491089095835,1,-21,43,5,-2,16,-3,4,-2
1491089095835,1,-33,-52,4,-3,-5,-7,29,-8
1491089095836,2,37,11,-32,2,-2,-6,1,-2
1491089095836,2,-64,-18,12,-9,6,0,24,-16
1491089095837,3,19,-12,-2,-8,-19,0,-47,-7
1491089095837,3,6,27,-7,2,-7,-1,11,8
1491089095872,0,-48,-7,32,-7,3,-2,1,-19
1491089095872,0,42,-20,-35,18,4,-2,85,6
1491089095872,1,-57,-26,23,20,7,0,-10,-15
1491089095872,1,25,-13,1,-19,-9,3,-45,-13
1491089095873,0,-44,-14,12,-11,6,3,4,-8
1491089095873,0,87,51,27,20,-5,-1,-35,9
1491089095874,1,20,5,-36,-47,12,-4,25,25
1491089095874,1,-118,-81,-23,-33,-17,0,18,-26
1491089095909,2,50,37,50,32,8,4,20,-5
1491089095909,2,-17,-38,-49,3,-5,0,-121,-1
1491089095910,3,49,58,-4,-47,-9,-1,14,19
1491089095910,3,5,-9,22,35,16,1,47,-2
1491089095911,0,-36,-2,-2,-4,-10,-7,-21,-17
1491089095911,0,-64,-86,-7,4,-10,0,1,-6
1491089095912,1,98,71,-1,44,8,-4,-16,19
1491089095912,1,-23,35,58,6,22,0,24,1
1491089095947,2,58,-50,-5,-15,-12,-4,28,16
1491089095947,2,-111,-94,-50,-14,-22,4,-38,-28
1491089095947,3,20,38,12,30,14,-1,13,5
1491089095947,3,73,20,45,-1,-17,-2,9,-11
1491089095948,0,12,-5,-42,13,17,0,73,33
1491089095948,0,32,108,69,-5,10,-3,-36,7
1491089095949,1,-78,-128,-91,-46,-33,-5,-27,-30
1491089095949,1,-9,73,52,61,13,-1,-4,2
1491089095984,2,-88,-81,-5,-43,-24,3,-66,-46
1491089095984,2,48,-1,-48,8,4,-6,35,5
1491089095985,3,81,67,65,13,12,2,40,25
1491089095985,3,-115,-102,-15,0,2,2,-71,-22
1491089095986,0,-54,-82,-4,18,0,-10,11,-3
1491089095986,0,51,81,-2,-9,4,1,25,28
1491089095987,1,-37,-52,-73,-20,-21,-6,-28,-37
1491089095987,1,33,-16,-10,-14,5,-2,25,49
1491089096022,2,28,47,82,12,9,1,22,-4
1491089096022,2,-33,60,-66,-37,-7,-3,48,1
1491089096023,3,-105,-41,33,-12,-19,1,-31,-37
1491089096023,3,76,51,25,2,18,4,-9,33
1491089096023,0,-92,-67,-47,-41,-2,-4,-110,-26
1491089096023,0,22,16,59,79,-15,-2,11,3
1491089096024,1,24,0,6,-11,14,-4,26,12
1491089096024,1,-23,-38,-46,-15,-6,-17,-10,-24
1491089096059,2,-42,-33,-17,6,-2,-8,-5,7
1491089096059,2,1,-42,2,-8,0,-4,48,-4
1491089096060,3,-71,-23,34,-11,-5,14,-27,2
1491089096060,3,-46,16,7,-7,2,0,-2,-5
1491089096061,0,-6,-9,-51,4,10,-61,10,-5
1491089096061,0,42,61,50,-2,-12,-27,-22,12
1491089096062,1,13,-38,10,19,5,-21,3,-13
1491089096062,1,-18,-37,5,0,10,-46,4,-9
1491089096097,2,24,14,4,6,-10,-83,43,-9
1491089096097,2,68,13,-22,-21,-9,-17,-88,34
1491089096097,3,-2,3,13,-4,8,-5,36,-3
1491089096097,3,-3,33,23,0,5,118,-11,-2
1491089096098,0,88,75,-26,8,6,127,14,1
1491089096098,0,1,20,30,-16,2,100,24,-5
1491089096099,1,-48,-27,-42,3,2,37,-38,-8
1491089096099,1,-25,-61,-48,-20,-6,-4,24,-18
1491089096134,2,-6,-30,47,57,17,106,-50,7
1491089096134,2,47,70,22,10,5,64,21,9
1491089096135,3,27,-34,5,-23,-22,-20,-18,-13
1491089096135,3,-79,-98,-76,15,-3,-90,14,0
1491089096135,0,58,36,30,2,2,-44,9,15
1491089096135,0,58,43,55,0,11,-19,20,-12
1491089096137,1,-55,-52,-40,-26,8,17,11,1
1491089096137,1,95,63,16,22,-20,-39,12,1
1491089096172,2,-84,-39,-86,-83,-13,-45,-45,-15
1491089096172,2,-45,-37,-36,-20,1,-106,43,-2
1491089096172,3,-23,23,36,64,3,-115,36,5
1491089096172,3,11,-10,-13,-24,-4,11,-3,-6
1491089096173,0,25,25,55,-14,2,-66,29,3
1491089096173,0,-28,-128,-115,-31,-7,-22,-73,-3
1491089096209,1,-5,71,-7,3,4,-64,3,-5
1491089096209,1,82,46,77,31,-6,-14,-75,10
1491089096210,2,-16,-40,-35,33,12,-17,48,16
1491089096210,2,-34,38,66,-4,-28,-6,-12,-28
1491089096210,3,44,-43,-9,16,18,46,44,17
1491089096210,3,-27,-14,-29,-38,-1,-10,-27,-2
1491089096247,0,88,54,33,-18,6,45,62,6
1491089096247,0,-77,-128,-60,-33,-15,-23,-49,-10
1491089096247,1,33,43,12,24,2,17,-9,2
1491089096247,1,8,16,18,9,18,16,-5,-12
1491089096248,2,-28,34,-9,1,-7,-26,-9,13
1491089096248,2,30,-48,5,12,4,-22,70,7
1491089096249,3,-39,35,27,-3,0,3,-47,-16
1491089096249,3,-21,-17,-31,19,-1,-3,-40,8
1491089096284,0,15,-35,14,12,-16,-48,-8,1
1491089096284,0,13,53,24,30,13,29,-14,1
1491089096286,1,-1,20,-1,-25,-13,-53,15,21
1491089096286,1,-8,-41,-34,-27,0,21,-9,-11
1491089096288,2,38,-10,11,-2,-8,21,-44,-4
1491089096288,2,-3,80,-34,2,12,16,36,4
1491089096289,3,-25,-98,-18,-57,-17,6,-25,-17
1491089096289,3,22,-1,22,40,7,-7,34,7
1491089096322,0,-15,49,1,-44,5,11,-48,-15
1491089096322,0,12,-26,5,9,15,2,77,10
1491089096322,1,-41,-5,-27,4,-11,15,-8,-15
1491089096322,1,46,11,6,-5,-18,-12,-22,28
1491089096323,2,-74,-46,0,26,-6,25,1,-21
1491089096323,2,-23,18,16,23,10,-27,41,-2
1491089096324,3,-1,-52,-12,-12,4,5,-18,-9
1491089096324,3,-98,-3,-38,-17,-21,-42,44,-28
1491089096359,0,80,102,43,32,15,5,14,30
1491089096359,0,-99,30,20,-17,0,19,5,-14
1491089096360,1,85,-11,18,-2,-2,50,81,8
1491089096360,1,-59,-54,5,0,3,-9,-4,-14
1491089096361,2,-17,-15,-34,13,-2,-14,-60,-9
1491089096361,2,47,-7,-16,7,-13,-47,-98,-5
1491089096362,3,20,-10,7,26,11,-37,51,10
1491089096362,3,39,28,43,27,-8,-45,-39,10
1491089096397,0,2,23,-77,-49,3,9,41,-5
1491089096397,0,2,61,56,15,14,32,5,-10
1491089096397,1,-4,-63,34,-22,-9,39,-94,1
1491089096397,1,-22,87,-22,-65,-24,34,46,-20
1491089096398,2,-28,-48,-3,-14,-14,9,-84,11
1491089096398,2,5,-15,9,-20,10,30,10,-6
1491089096399,3,36,119,-48,-3,-10,54,-45,-5
1491089096399,3,7,-11,0,28,15,11,-35,1
1491089096434,0,89,-3,28,-33,0,20,5,22
1491089096434,0,-55,-78,-61,-15,-10,-24,70,1
1491089096435,1,2,27,55,37,1,-6,-14,25
1491089096435,1,-64,-106,-41,11,-1,-31,74,-32
1491089096437,2,-38,86,-44,-3,10,-5,-23,10
1491089096437,2,98,26,92,-32,16,29,7,33
1491089096472,3,-81,-43,-51,6,-8,27,37,-14
1491089096472,3,18,-44,-27,-13,7,-18,-50,0
1491089096473,0,-77,-57,84,56,1,-31,57,-14
1491089096473,0,-66,-102,29,62,3,-53,-41,-26
1491089096473,1,102,127,-34,-52,-27,-12,-69,47
1491089096473,1,-51,-50,30,-57,-6,-1,40,-32
1491089096474,2,117,-21,28,35,3,70,-15,9
1491089096474,2,43,85,70,-22,5,-34,31,-24
1491089096509,3,67,-23,67,82,16,20,-9,36
1491089096509,3,-49,-26,-89,-52,2,3,-19,-34
1491089096510,0,-108,-96,-79,-92,-17,-34,24,-20
1491089096510,0,82,45,40,48,-17,29,21,38
1491089096511,1,-100,-69,18,2,36,-90,101,-30
1491089096511,1,101,110,49,-7,-3,32,-24,36
1491089096512,2,-128,-61,29,60,-27,8,24,-37
1491089096512,2,-44,-106,-96,-56,-13,-63,-88,-26
1491089096547,3,-23,18,107,20,28,-37,110,10
1491089096547,3,76,127,101,56,46,57,21,37
1491089096548,0,-62,-51,-36,55,-20,-61,-54,-48
1491089096548,0,-55,34,-31,-6,-50,32,-115,-30
1491089096549,1,-28,-102,-128,-68,-20,1,57,20
1491089096549,1,-19,4,91,-28,21,-22,9,-13
1491089096550,2,120,127,82,43,36,33,50,23
1491089096550,2,-31,-83,-67,-10,-7,44,13,22
1491089096584,3,-55,53,-63,5,-23,-4,-92,-43
1491089096584,3,-11,1,37,-23,-13,16,13,-3
1491089096585,0,-12,-128,-9,5,4,-39,7,-21
1491089096585,0,-113,-21,46,42,-35,-58,-67,-43
1491089096586,1,111,76,-25,-93,-3,59,13,-9
1491089096586,1,19,-28,-79,-7,3,-38,70,8
1491089096622,2,45,103,106,58,-5,3,3,-7
1491089096622,2,-45,-80,-103,-42,34,9,52,21
1491089096622,3,88,-18,-42,106,-13,-23,7,28
1491089096622,3,-53,9,70,-30,1,-53,-13,-31
1491089096623,0,67,49,-125,47,-15,85,-51,23
1491089096623,0,58,72,30,-58,-14,55,13,17
1491089096624,1,-104,-128,2,-47,-11,-39,-3,-22
1491089096624,1,59,70,35,-8,-9,1,-35,9
1491089096659,2,-90,-68,-23,-49,-20,-43,44,-26
1491089096659,2,113,-88,-38,24,60,-47,105,34
1491089096697,3,50,127,89,94,3,70,-128,-19
1491089096697,3,18,-122,35,69,16,47,69,48
1491089096734,0,-74,-57,4,-25,-49,-89,-25,-36
1491089096734,0,108,113,-15,-69,-28,41,-88,38
1491089096735,1,-128,-62,89,51,57,-79,25,-58
1491089096735,1,-38,-64,-98,-19,-9,60,7,7
1491089096738,2,97,127,127,-64,53,65,-4,51
1491089096738,2,16,-23,-83,74,-60,31,28,-6
1491089096772,3,-69,-72,-85,-7,-5,-106,-15,-15
1491089096772,3,88,127,127,30,17,72,-21,53
1491089096773,0,-14,-128,-8,-32,4,-21,48,20
1491089096773,0,-128,-88,-33,-128,25,-41,-79,-40
1491089096773,2,104,-58,108,-45,-62,-60,-67,15
1491089096773,2,6,94,35,52,82,-85,18,-27
1491089096774,1,-63,-128,-128,-128,-35,35,-43,8
1491089096774,1,-13,22,-82,-36,-55,-16,-11,-49
1491089096809,2,-28,69,66,21,39,73,30,2
1491089096809,2,-73,5,93,108,0,101,-30,-3
1491089096810,3,11,-33,12,-125,6,35,42,-2
1491089096810,3,-69,-48,-28,56,-48,127,-32,-27
1491089096811,0,72,50,42,-70,34,36,31,80
1491089096811,0,-7,7,72,14,3,6,68,2
1491089096812,1,-65,-73,11,3,25,-17,21,0
1491089096812,1,43,81,-11,20,5,-53,-11,23
1491089096847,2,-102,-128,-128,-7,-34,-72,-4,-66
1491089096847,2,99,85,123,-7,3,-51,16,38
1491089096848,3,16,-56,-43,6,17,-35,-19,27
1491089096848,3,-78,42,70,56,-15,-31,-15,-27
1491089096849,1,16,44,-55,-66,6,-29,45,6
1491089096849,1,65,64,99,-57,17,9,-34,-1
1491089096850,2,-60,-83,-57,36,-4,-13,14,2
1491089096850,2,-25,-56,-128,-10,14,-20,-4,-29
1491089096884,3,16,36,127,17,3,0,-19,25
1491089096884,3,-13,-106,23,-63,17,9,0,-22
1491089096885,0,-7,48,45,32,-25,-8,-24,-9
1491089096885,0,21,24,-85,-30,13,-9,31,6
1491089096886,1,-59,-65,12,-20,-16,13,-52,-11
1491089096886,1,-71,-63,4,23,2,0,-25,-19
1491089096887,2,23,-111,-49,-53,-41,-15,-2,-30
1491089096887,2,-26,47,55,22,6,-4,31,12
1491089096922,3,89,127,31,27,71,5,13,20
1491089096922,3,-51,-51,-18,-5,-38,-4,-5,-31
1491089096923,0,-88,-128,-127,29,-17,3,-47,-23
1491089096923,0,5,13,-57,-60,-30,9,-37,1
1491089096923,1,42,60,127,64,13,4,30,8
1491089096923,1,19,37,52,73,56,0,3,18
1491089096924,2,-25,-37,-79,-61,-29,3,-9,-11
1491089096924,2,-30,-96,23,-13,-12,-5,13,-4
1491089096959,3,-30,-19,37,-128,-6,-5,23,-2
1491089096959,3,71,77,72,124,-7,-1,-21,12
1491089096960,0,19,54,-32,-19,13,-1,9,5
1491089096960,0,-30,7,-17,-69,10,-1,-9,0
1491089096961,1,11,-34,13,19,3,0,-21,-2
1491089096961,1,-31,-34,-128,-31,-11,-2,-7,5
1491089096962,2,11,91,127,91,31,-4,9,7
1491089096962,2,-43,-75,-16,-41,-23,-8,3,-5
1491089096997,3,-78,-59,-128,-30,-43,-1,6,-19
1491089096997,3,76,68,127,45,-10,-3,-20,11
1491089096998,0,-30,-67,-51,-60,-11,-8,-9,-11
1491089096998,0,6,-60,-76,-78,1,-6,-6,2
1491089096998,1,23,87,119,112,22,-3,16,8
1491089096998,1,49,30,-53,-28,28,-5,2,3
1491089097000,2,-31,-35,127,98,-22,-2,-10,-3
1491089097000,2,66,109,-49,28,25,0,31,2
1491089097034,3,-54,-127,20,-128,-56,-4,-34,-12
1491089097034,3,-16,-14,-74,-15,18,0,4,-17
1491089097035,0,124,127,-27,1,28,-1,43,46
1491089097035,0,-43,-110,110,30,-20,1,-38,-28
1491089097036,1,23,127,108,51,32,-5,15,19
1491089097036,1,51,62,22,73,-2,2,11,-4
1491089097037,2,-121,-112,-9,-97,-27,-2,-37,-16
1491089097037,2,59,114,24,70,40,5,29,11
1491089097072,3,29,-7,-26,17,12,0,-3,-10
1491089097072,3,-70,-128,-35,-117,-89,5,-28,-4
1491089097073,0,-23,80,124,82,72,2,25,2
1491089097073,0,63,83,72,64,15,0,5,18
1491089097073,1,-5,-68,-104,-67,-44,5,-55,-7
1491089097073,1,-65,-100,81,8,-9,1,86,1
1491089097074,2,56,51,-128,36,39,-4,-40,0
1491089097074,2,12,7,57,-23,-23,-1,-7,-7
1491089097109,3,-2,-33,-106,-27,3,-3,1,0
1491089097109,3,-42,-120,-128,-45,-19,-1,-7,-1
1491089097110,0,23,18,43,-4,-5,0,13,3
1491089097110,0,3,2,37,27,5,-1,4,0
1491089097111,1,54,82,100,68,0,-1,25,13
1491089097111,1,-17,-64,-66,-70,-24,-1,-43,-7
1491089097112,2,-10,19,101,-34,45,-5,33,0
1491089097112,2,6,38,4,58,-10,-2,-33,-9
1491089097147,3,-31,0,-28,-70,-17,-1,33,-5
1491089097147,3,13,29,-17,13,-12,-2,-43,1
1491089097148,0,-9,-60,-103,16,-5,-2,25,-10
1491089097148,0,2,-40,-102,-50,-12,-4,5,-1
1491089097148,1,21,39,26,57,2,-5,-14,11
1491089097148,1,11,47,74,-17,33,-6,13,-9
1491089097149,2,12,-5,-23,-60,-7,-3,45,9
1491089097149,2,-33,-53,-8,-82,-44,2,-18,-7
1491089097184,3,12,1,-47,111,-18,-4,-2,-3
1491089097184,3,15,27,-8,-80,26,0,-18,7
1491089097185,0,6,-48,-25,6,-10,3,-29,-4
1491089097185,0,-7,-14,8,-60,14,-2,32,-1
1491089097186,1,-4,-7,-37,-72,37,3,-45,-4
1491089097186,1,14,37,-16,37,35,-6,13,7
1491089097222,2,-1,34,-14,22,-68,-1,-14,-9
1491089097222,2,6,26,23,59,36,-3,-12,7
1491089097222,3,9,-21,5,23,3,2,-21,-3
1491089097222,3,-7,-110,9,1,22,0,38,7
1491089097223,0,-17,-106,-105,-61,14,0,-34,-6
1491089097223,0,-4,-128,-18,-70,-3,-6,-21,-1
1491089097224,1,18,-41,36,41,17,0,30,-4
1491089097224,1,24,22,41,123,-43,7,-20,8
1491089097259,2,12,17,-28,-59,72,-2,9,0
1491089097259,2,-9,67,-6,78,-45,0,-27,-15
1491089097260,3,6,64,-70,-11,2,2,-5,4
1491089097260,3,7,102,15,6,16,-2,8,-1
1491089097260,0,-1,73,18,-54,8,1,-13,-1
1491089097260,0,-14,32,5,12,-43,-2,23,-5
1491089097262,1,-9,32,-2,0,30,0,6,7
1491089097262,1,3,53,46,52,-6,-3,-19,-8
1491089097297,2,-7,7,29,59,-38,1,37,2
1491089097297,2,-22,1,-12,-18,-13,-1,-40,-5
1491089097298,3,-8,-3,-33,-19,-34,-4,15,0
1491089097298,3,-38,-3,19,-15,-6,-4,48,-2
1491089097298,0,13,29,23,5,-9,0,-25,-5
1491089097298,0,10,29,21,-61,24,0,42,11
1491089097299,1,0,4,-1,6,-61,-4,5,-9
1491089097299,1,-5,3,12,-25,-8,2,-24,-4
1491089097334,2,7,-3,23,44,-29,-6,-9,-1
1491089097334,2,9,-8,14,-22,10,-5,-21,-2
1491089097335,3,-14,-37,-10,-41,-10,2,25,2
1491089097335,3,20,-96,40,48,10,-1,5,6
1491089097336,0,0,-117,15,37,-14,1,-39,-7
1491089097336,0,3,-92,20,2,14,2,39,7
1491089097372,1,-7,-61,-7,-10,-5,-5,-43,-14
1491089097372,1,7,24,-29,-51,3,-1,-12,11
1491089097372,2,-11,67,42,49,1,2,2,0
1491089097372,2,-5,35,-25,-50,16,-7,32,-3
1491089097373,3,-14,54,13,28,29,-4,-13,-10
1491089097373,3,-25,81,-9,27,-28,1,17,-8
1491089097374,0,7,70,5,1,-2,-3,0,1
1491089097374,0,-19,31,12,26,2,1,-28,2
1491089097409,1,-23,12,-11,-42,-4,-3,17,4
1491089097409,1,46,20,-46,-44,-9,-5,2,-1
1491089097410,2,-62,-13,-7,-18,-2,-3,15,-7
1491089097410,2,14,32,32,41,10,-2,-51,-9
1491089097411,3,-5,26,-1,29,-17,-1,8,8
1491089097411,3,-8,-21,5,-3,31,-3,-21,-7
1491089097412,0,21,48,-19,-4,-39,3,6,-1
1491089097412,0,-13,-33,-36,-2,10,2,6,2
1491089097447,1,23,54,47,19,-18,2,-53,-8
1491089097447,1,-2,-31,-28,-12,6,1,-3,7
1491089097447,2,19,28,-12,-41,-9,-2,-15,1
1491089097447,2,-43,-79,-83,-14,-8,-1,56,-28
1491089097449,3,33,53,85,47,26,-7,20,20
1491089097449,3,22,30,36,38,4,3,4,-8
1491089097484,0,-31,-58,-30,-5,-13,-5,-73,-22
1491089097484,0,20,32,-14,15,-1,-3,14,10
1491089097485,1,-14,-20,6,-49,2,0,3,0
1491089097485,1,-24,-37,-31,-43,4,-6,-11,-17
1491089097486,2,14,8,-16,22,-11,-4,38,5
1491089097486,2,-37,-48,-47,2,-19,-3,-54,-12
1491089097522,3,27,-2,25,24,18,-1,12,12
1491089097522,3,-17,14,21,0,-4,-1,-29,-11
1491089097523,0,97,66,45,9,31,-2,34,21
1491089097523,0,-74,-4,79,4,10,2,-13,-2
1491089097524,1,19,-6,-120,-22,-22,-2,26,13
1491089097524,1,-33,5,1,5,-1,0,-17,-4
1491089097524,2,10,-15,8,-53,10,-2,20,1
1491089097524,2,18,-16,29,42,2,-2,15,-1
1491089097559,3,6,-3,11,-27,-12,-2,-39,-4
1491089097559,3,-62,-54,-51,-7,-7,-4,9,-9
1491089097560,0,43,16,-60,6,19,3,17,4
1491089097560,0,-6,23,41,5,-32,3,0,-4
1491089097563,1,5,10,99,24,9,-1,-3,-3
1491089097563,1,55,50,3,12,11,0,-55,2
1491089097567,2,-70,-66,-13,9,-6,-2,6,-13
1491089097567,2,52,32,-47,1,-14,0,-8,0
1491089097597,3,-70,-107,-23,-34,-20,-7,3,-24
1491089097597,3,0,-5,-92,-43,6,2,33,-15
1491089097597,0,67,89,59,22,1,-1,32,34
1491089097597,0,18,-17,72,-14,17,-4,-46,-7
1491089097598,1,5,11,-10,-3,-8,0,22,3
1491089097598,1,26,-11,-51,-32,-1,2,-6,-7
1491089097599,2,-61,-46,31,45,-3,-1,-29,4
1491089097599,2,48,23,13,4,2,-4,33,-3
1491089097634,3,-13,-70,-84,8,-12,-3,-17,6
1491089097634,3,26,41,101,9,-3,-3,36,14
1491089097635,0,-3,-53,-117,-56,-24,1,-39,-2
1491089097635,0,30,105,100,41,13,7,51,12
1491089097635,1,-89,-73,42,12,12,6,-72,-35
1491089097635,1,17,71,-23,11,0,-1,12,8
1491089097637,2,46,-10,-81,-62,-22,-3,45,15
1491089097637,2,12,-42,49,-8,6,-5,26,7
1491089097672,3,56,67,67,56,24,-2,34,-3
1491089097672,3,8,-4,127,20,-3,-2,2,10
1491089097673,0,-71,-68,-43,-1,9,3,-59,-29
1491089097673,0,59,77,-10,-6,5,4,6,5
1491089097673,1,-20,-13,-20,-52,2,3,-13,-8
1491089097673,1,27,-40,1,47,-15,1,3,28
1491089097674,2,-21,-30,19,9,16,3,62,-9
1491089097674,2,-72,-18,-19,-23,-2,3,-65,-41
1491089097709,3,-52,-27,-5,57,-4,0,44,32
1491089097709,3,-34,-24,-4,-20,-17,-3,-14,-16
1491089097710,0,37,36,-31,4,-4,2,11,-5
1491089097710,0,49,-6,4,-12,-1,1,-4,16
1491089097710,1,-31,35,-22,-41,2,2,7,-10
1491089097710,1,-91,-47,-47,-26,-2,7,20,-17
1491089097712,2,16,-13,110,62,-8,13,82,-2
1491089097712,2,-73,15,46,29,23,-8,-58,-12
1491089097747,3,67,91,28,24,4,-9,36,17
1491089097747,3,3,-91,-84,-36,-27,-16,-23,0
1491089097748,0,-52,19,-88,-36,3,-19,-107,-8
1491089097748,0,41,2,3,-16,-5,-12,29,12
1491089097748,1,-96,-100,22,7,-13,-7,9,-27
1491089097748,1,104,123,2,2,8,-8,10,38
1491089097785,2,-75,-16,63,-11,7,-9,1,-23
1491089097785,2,-25,-55,-29,-30,-23,-7,-37,8
1491089097785,3,-58,-50,-54,-34,-13,-13,34,-8
1491089097785,3,31,-39,-43,-10,15,-6,-74,-20
1491089097787,0,44,105,112,32,4,-9,44,-2
1491089097787,0,-56,-56,-62,-20,-2,-10,-73,19
1491089097822,1,5,-79,12,-12,7,1,28,-17
1491089097822,1,48,104,-60,-33,-17,-8,17,6
1491089097822,2,-60,-81,2,-33,29,0,-33,36
1491089097822,2,85,50,-3,56,-13,-4,32,-28
1491089097823,3,-57,-34,45,-11,-7,-1,-53,-23
1491089097823,3,-13,-40,-47,-21,18,3,82,26
1491089097824,0,28,53,20,6,3,-22,-37,18
1491089097824,0,78,28,-31,-4,-16,0,21,13
1491089097859,1,-52,-67,-49,5,-1,-2,1,-9
1491089097859,1,-7,-27,61,28,16,30,-28,-10
1491089097860,2,-83,-96,-31,6,-20,1,8,-30
1491089097860,2,34,53,34,15,29,-63,70,36
1491089097860,3,11,40,-33,-5,-8,-52,-87,2
1491089097860,3,-92,-84,-62,5,-10,-4,-23,-23
1491089097897,0,56,9,19,-5,-1,11,67,-6
1491089097897,0,-44,-16,87,57,8,57,-32,-27
1491089097897,1,90,51,-31,-8,24,61,44,23
1491089097897,1,27,56,70,-2,-10,19,34,13
1491089097898,2,-12,-8,-82,-2,-8,20,-6,1
1491089097898,2,-99,-110,-104,-49,-4,28,19,-31
1491089097899,3,97,127,21,-1,5,48,5,4
1491089097899,3,-91,-117,77,36,-10,5,-109,-20
1491089097934,0,55,77,-19,-16,-7,58,40,21
1491089097934,0,9,-18,13,-3,-9,20,2,-17
1491089097935,1,4,-27,-61,23,-5,-15,4,10
1491089097935,1,16,19,39,-26,10,-11,-26,5
1491089097935,2,-7,-57,37,-3,-1,-45,-64,-13
1491089097935,2,-37,18,-37,-31,-4,103,-41,2
1491089097937,3,53,-33,-1,15,-7,118,30,16
1491089097937,3,66,75,-37,-25,2,48,2,7
1491089097972,0,63,77,69,37,13,4,-25,5
1491089097972,0,-112,-50,7,12,2,25,-31,-31
1491089097972,1,-39,-24,32,13,0,13,87,3
1491089097972,1,14,30,-43,7,15,-13,13,-10
1491089097973,2,18,-42,15,-10,-34,-14,-17,10
1491089097973,2,55,16,-44,-17,5,-86,40,5
1491089097974,3,-71,-16,3,7,-25,-100,-67,-3
1491089097974,3,-46,-21,39,-1,2,-38,-14,-25
1491089098009,0,35,-109,5,-7,8,-64,52,5
1491089098009,0,82,127,-107,1,-8,-49,1,33
1491089098010,1,26,7,44,-1,-5,-63,-37,-14
1491089098010,1,-36,-18,64,16,14,-65,25,-5
1491089098010,2,-62,-49,19,51,15,-19,-61,-12
1491089098010,2,2,-12,-36,-34,-17,19,-28,14
1491089098012,3,5,-34,-39,-13,16,-31,-17,-13
1491089098012,3,34,28,15,61,0,-47,76,20
1491089098047,0,-20,86,7,-32,1,40,-2,-20
1491089098047,0,-10,-63,-11,6,-17,-28,-23,-2
1491089098047,1,-17,-23,-12,-3,-2,-12,-21,-8
1491089098047,1,55,47,7,-35,5,-8,105,32
1491089098048,2,-75,6,-24,-10,-24,10,-56,-44
1491089098048,2,45,19,2,-19,5,11,50,10
1491089098049,3,48,48,0,-26,1,10,-18,31
1491089098049,3,-32,-118,-27,0,-8,-4,-31,-14
1491089098084,0,-10,59,-13,-21,17,0,68,1
1491089098084,0,-20,-41,24,-9,-1,-16,-45,1
1491089098085,1,77,68,26,17,10,-6,25,-5
1491089098085,1,47,35,36,15,10,7,-36,0
1491089098086,2,-19,-4,-35,-39,-9,16,-26,13
1491089098086,2,-28,-53,1,-4,3,-17,-7,-10
1491089098087,3,-3,0,-16,3,-4,-8,34,1
1491089098087,3,-29,-17,-16,-26,-1,5,-59,-29
1491089098122,0,47,1,9,31,-10,-13,3,14
1491089098122,0,-34,23,37,14,17,-18,38,-1
1491089098123,1,-15,-22,-34,-16,1,2,0,-5
1491089098123,1,-26,-32,0,25,-6,-49,28,6
1491089098123,2,19,56,28,-1,8,54,44,10
1491089098123,2,19,-2,-9,-19,-2,-27,-15,-8
1491089098124,3,-39,-2,5,4,0,13,1,-6
1491089098124,3,17,-1,1,-1,-5,11,-19,1
1491089098159,0,-27,-64,-24,11,-8,-63,37,-18
1491089098159,0,-20,-17,21,42,16,-27,-2,-5
1491089098160,1,95,38,7,5,-6,-2,39,17
1491089098160,1,-58,-32,-8,-2,-16,23,17,-7
1491089098160,2,-10,16,-1,-4,5,15,-8,-1
1491089098160,2,5,15,-1,-48,-10,28,15,10
1491089098162,3,-22,-13,-3,1,-7,-16,-32,2
1491089098162,3,-22,-19,-47,-50,-22,106,8,0
1491089098197,0,-11,-23,0,26,9,14,-25,-2
1491089098197,0,-24,-2,9,20,-1,-9,-3,-12
1491089098198,1,16,-5,-9,-16,5,23,-6,1
1491089098198,1,4,50,21,2,4,12,-9,-6
1491089098198,2,-16,-8,-7,-14,-8,-2,-19,-2
1491089098198,2,21,-16,-10,7,-20,17,-41,-11
1491089098234,3,-16,-16,-18,-3,1,-12,29,9
1491089098234,3,-27,8,1,-26,-6,5,-84,-19
1491089098235,0,-8,-29,-1,-11,9,18,-2,3
1491089098235,0,20,-17,-7,6,-12,-14,34,7
1491089098235,1,-24,15,-25,-8,-1,-4,-79,-12
1491089098235,1,61,30,26,-2,5,-25,35,22
1491089098237,2,-1,-22,7,23,6,-28,1,-3
1491089098237,2,-19,27,6,-12,1,34,-35,-9
1491089098272,3,-31,-35,4,-11,12,-18,-6,-4
1491089098272,3,-42,70,-8,11,8,21,-61,3
1491089098272,0,31,-1,12,-4,-13,-35,-18,-6
1491089098272,0,-38,-31,1,12,1,-11,-83,-5
1491089098273,1,37,27,-1,-16,-7,10,62,5
1491089098273,1,-47,-37,11,1,-17,-53,42,-9
1491089098275,2,14,-58,-46,18,-6,-4,-11,28
1491089098275,2,21,76,-4,-4,6,34,-16,-4
1491089098309,3,8,24,-7,-22,3,21,-24,3
1491089098309,3,49,14,25,-3,-7,25,67,15
1491089098310,0,-67,-23,2,1,-3,-9,-24,-13
1491089098310,0,-34,-25,-13,5,8,-29,47,9
1491089098311,1,-1,20,35,14,-11,23,13,-20
1491089098311,1,-60,-61,-58,5,1,-49,-25,-16
1491089098347,2,105,76,40,16,6,10,-21,27
1491089098347,2,-119,-91,-37,-20,-1,-8,84,-5
1491089098347,3,64,54,89,24,18,-10,25,14
1491089098347,3,39,-35,-24,7,-19,72,-77,-7
1491089098348,0,-4,51,-12,-12,10,-24,5,-7
1491089098348,0,110,53,-10,-5,-14,28,49,6
1491089098349,1,-65,-45,20,18,-7,17,-50,-6
1491089098349,1,-85,-39,3,2,-1,5,14,-25
1491089098384,2,25,-55,-106,-60,-27,-11,-76,-26
1491089098384,2,58,50,17,-30,13,16,24,14
1491089098385,3,-71,-14,-33,12,9,-71,43,2
1491089098385,3,95,71,127,59,10,10,-32,12
1491089098385,0,-100,-16,-43,-2,3,26,2,-11
1491089098385,0,-42,-13,13,-28,-9,-59,41,-9
1491089098387,1,-24,-30,0,15,-7,1,-73,-15
1491089098387,1,18,26,-3,-22,21,41,76,30
1491089098422,2,-8,-8,-26,-46,-9,-24,18,-38
1491089098422,2,-51,-18,-64,24,-9,-11,-47,-16
1491089098422,3,-56,-86,-14,-32,3,-29,68,-19
1491089098422,3,25,24,57,26,5,4,-80,19
1491089098423,0,120,-33,12,-36,28,16,100,44
1491089098423,0,-35,88,115,55,0,14,-81,-28
1491089098424,1,58,-72,-62,-22,-32,47,61,14
1491089098424,1,-86,-127,-128,-46,-15,-123,-51,-24
1491089098459,2,-15,91,127,48,17,38,50,22
1491089098459,2,-77,-101,-87,8,9,-12,16,-22
1491089098460,3,99,40,-15,-91,-14,-31,2,17
1491089098460,3,-24,-20,105,56,9,22,-47,-25
1491089098461,0,42,8,-120,1,-21,31,28,13
1491089098461,0,-35,-84,98,47,-1,-54,-38,-11
1491089098497,1,-87,96,-98,7,19,87,89,-39
1491089098497,1,89,46,16,-101,-10,65,48,64
1491089098498,2,-111,-64,-45,-1,-38,-86,-91,-45
1491089098498,2,127,118,55,-26,25,6,-34,54
1491089098498,3,-81,-77,-33,-31,4,-62,-16,-36
1491089098498,3,62,11,-76,90,12,-49,102,11
1491089098499,0,-102,29,-20,53,16,5,2,-46
1491089098499,0,35,-45,44,20,-42,44,41,31
1491089098534,1,47,-54,58,32,1,-88,26,-5
1491089098534,1,92,127,-29,-15,18,24,-11,20
1491089098535,2,-62,-128,52,29,-15,7,45,-9
1491089098535,2,-50,-45,-57,-16,17,-123,70,-12
1491089098535,3,13,127,59,12,-15,127,52,-1
1491089098535,3,-111,-120,-89,-36,-43,83,-36,-58
1491089098537,0,21,-24,82,15,0,-8,0,31
1491089098537,0,-28,6,92,-17,35,21,-15,-17
1491089098572,1,-116,-128,-84,58,-32,-87,-107,7
1491089098572,1,95,97,57,-23,11,6,20,8
1491089098573,2,-119,-39,16,-36,-14,-56,-35,-24
1491089098573,2,14,-62,-36,-8,-14,-8,60,-5
1491089098573,3,80,112,12,4,-25,11,-31,31
1491089098573,3,-128,-128,70,20,23,-77,47,-37
1491089098574,0,78,119,-100,-12,11,127,-48,-8
1491089098574,0,-58,29,98,-7,7,-51,71,14
1491089098609,1,-13,-27,39,55,-10,81,-94,-24
1491089098609,1,57,86,-114,-65,-13,-128,-6,-2
1491089098610,2,127,102,127,-45,42,70,118,97
1491089098610,2,-118,-127,-80,-23,-29,4,-112,-42
1491089098611,3,116,127,-27,-6,57,48,-25,32
1491089098611,3,25,32,52,82,-68,59,83,9
1491089098647,0,-74,-112,44,7,5,-93,-72,-37
1491089098647,0,34,127,-128,-70,-25,8,-35,28
1491089098648,1,-61,-66,127,43,40,-88,-27,-51
1491089098648,1,-49,10,-88,13,15,78,75,39
1491089098649,2,42,-67,39,21,-32,-91,-12,-20
1491089098649,2,86,105,-105,-4,20,23,37,38
1491089098650,3,-29,27,124,-56,-13,-62,-18,15
1491089098650,3,-116,-85,-71,16,-12,-58,-10,-62
1491089098684,0,2,98,99,-6,39,-60,-17,-12
1491089098684,0,101,-128,-92,12,9,44,43,32
1491089098685,1,5,94,40,86,4,80,21,-25
1491089098685,1,25,-46,-40,-119,-13,68,-9,53
1491089098686,2,-101,-71,-52,52,-22,48,-73,-65
1491089098686,2,42,-42,81,9,-13,-2,57,-8
1491089098687,3,88,-4,10,-93,-8,49,54,23
1491089098687,3,-71,-93,-5,18,36,48,-17,10
1491089098722,0,-36,33,65,-1,-13,60,49,30
1491089098722,0,38,92,127,127,5,89,9,-6
1491089098723,1,-120,-128,-78,11,-9,16,-90,-27
1491089098723,1,39,-8,-35,-88,-10,38,-11,-15
1491089098723,2,127,104,40,52,4,29,15,4
1491089098723,2,-72,-101,28,80,7,5,-7,7
1491089098724,3,40,61,-24,-48,51,-45,34,32
1491089098724,3,-30,-91,119,82,-29,-79,-38,-31
1491089098759,0,3,-48,-114,-68,-32,-32,28,10
1491089098759,0,-39,68,91,-39,19,-21,-17,-1
1491089098760,1,50,-118,-66,-42,-42,-42,4,6
1491089098760,1,-39,-12,20,46,5,-42,-44,-20
1491089098761,2,-38,-49,-128,-12,-16,-3,28,-20
1491089098761,2,122,90,87,81,47,-14,-28,2
1491089098797,3,9,32,-64,26,-19,-6,-4,38
1491089098797,3,-61,30,32,4,-1,-14,14,-21
1491089098797,0,7,-77,-89,-60,-8,-2,-19,10
1491089098797,0,-20,-16,-61,-68,-25,0,-10,-27
1491089098798,1,6,-56,37,-1,-32,-1,-30,-8
1491089098798,1,35,75,-45,-56,25,-11,77,-18
1491089098799,2,75,82,114,93,29,0,6,29
1491089098799,2,-44,-21,-123,-20,-15,3,25,7
1491089098834,3,20,-53,-90,-72,-6,-2,-56,-7
1491089098834,3,6,-18,105,71,-39,-19,-8,8
1491089098835,0,-8,54,69,16,24,0,8,6
1491089098835,0,-3,-29,0,13,-23,6,-12,-13
1491089098835,1,-68,-6,-26,-46,-1,2,31,-24
1491089098835,1,26,91,-128,-5,12,-5,24,25
1491089098836,2,-3,-22,51,-95,30,3,-4,-3
1491089098836,2,-36,-53,-77,15,-13,4,-4,-1
1491089098872,3,-23,-7,62,24,-17,-2,-19,-14
1491089098872,3,-46,-128,127,59,8,-3,-1,-10
1491089098872,0,5,68,-32,34,-22,5,13,22
1491089098872,0,-78,-63,62,-128,-23,2,-3,-11
1491089098873,1,18,81,90,121,41,0,20,-2
1491089098873,1,56,2,-68,-74,27,0,-26,10
1491089098874,2,-91,-100,-39,-15,-31,1,19,-20
1491089098874,2,52,46,-32,25,9,3,-32,2
1491089098909,3,-8,-37,-26,33,-15,2,12,-5
1491089098909,3,-39,90,78,14,28,2,-14,14
1491089098910,0,3,-73,-71,-68,-28,-5,-25,-12
1491089098910,0,-13,-22,-5,70,7,2,-11,-13
1491089098911,1,8,29,47,-53,19,-3,37,13
1491089098911,1,12,-27,-111,19,-59,-1,-14,-10
1491089098947,2,-8,-16,-67,-12,21,-2,22,-6
1491089098947,2,3,19,22,-28,-37,6,-20,4
1491089098947,3,-5,40,62,47,50,-3,19,2
1491089098947,3,72,55,91,32,-35,-2,-18,2
1491089098948,0,-5,-4,-88,14,40,3,5,-1
1491089098948,0,9,-16,11,-5,-13,-2,-15,0
1491089098949,1,-30,-56,-59,-76,0,-4,-18,-10
1491089098949,1,15,6,8,18,-5,-1,9,3
1491089098984,2,20,37,69,105,-21,-1,-7,3
1491089098984,2,-7,-44,-104,-70,-14,-3,-6,-6
1491089098986,3,-9,-20,-17,1,-24,-4,6,3
1491089098986,3,-23,6,33,10,7,-2,-7,-6
1491089098987,0,61,72,64,35,-9,-3,-28,6
1491089098987,0,-17,-19,5,-46,36,-4,-9,-5
1491089098987,1,-27,-7,-44,3,-21,1,-10,-2
1491089098987,1,-10,-50,-43,-40,15,0,9,-4
1491089099022,2,-14,-32,-35,33,-26,3,-39,-8
1491089099022,2,29,40,52,11,6,0,49,9
1491089099023,3,8,31,42,4,15,1,-28,-7
1491089099023,3,7,24,32,-32,27,-2,11,0
1491089099023,0,-8,-18,21,-20,8,1,4,0
1491089099023,0,-21,-9,-81,28,-25,-5,-2,-9
1491089099024,1,-7,-13,-34,-16,-12,2,13,11
1491089099024,1,10,-6,26,-3,20,-7,-23,-15
1491089099059,2,7,16,-4,-60,-36,-1,10,14
1491089099059,2,17,15,37,69,71,2,8,3
1491089099060,3,-10,-5,-11,4,-53,-6,-13,-2
1491089099060,3,-2,-16,6,13,-12,-2,10,2
1491089099061,0,0,12,-23,-7,-8,-7,-19,-10
1491089099061,0,-2,-28,-19,2,-17,0,-5,3
1491089099097,1,0,-13,32,-40,-3,-3,-15,-7
1491089099097,1,9,0,-40,-9,53,0,-15,2
1491089099098,2,-16,-8,20,-1,27,4,43,3
1491089099098,2,-5,14,30,36,-41,4,27,-4
1491089099098,3,5,2,-17,15,-22,1,-28,3
1491089099098,3,-15,-16,-31,-44,4,-4,9,-2
1491089099099,0,2,-12,-20,13,19,1,-20,-2
1491089099099,0,-6,-2,30,-105,53,-3,2,-3
1491089099134,1,16,47,48,103,-25,3,11,2
1491089099134,1,-2,1,-10,-17,-6,0,-30,0
1491089099135,2,2,-2,-20,41,34,-4,-50,-7
1491089099135,2,6,6,-1,-24,-65,2,19,9
1491089099136,3,-13,-38,-42,-69,91,1,43,1
1491089099136,3,4,22,8,24,-36,-3,-42,-5
1491089099136,0,16,20,56,-19,-8,-3,34,8
1491089099136,0,12,9,-9,-10,40,-2,-13,-3
1491089099172,1,-2,-13,-51,-68,-2,2,0,2
1491089099172,1,3,4,-31,-27,40,-3,11,-2
1491089099173,2,-5,-1,-5,-19,-18,-4,-15,-4
1491089099173,2,-8,-14,1,-35,18,-2,-45,0
1491089099173,3,6,1,-4,59,-44,-4,90,3
1491089099173,3,-4,-8,14,24,-24,1,-47,-5
1491089099174,0,-9,-6,-8,-48,60,3,5,-5
1491089099174,0,6,15,24,55,-84,-8,-8,-2
1491089099209,1,-8,-16,-20,-31,28,-3,7,-6
1491089099209,1,-18,-31,-44,-63,-8,-1,34,-3
1491089099210,2,22,46,22,82,-18,1,-1,1
1491089099210,2,-4,0,19,-20,-28,-5,21,-6
1491089099211,3,-3,1,-23,1,-2,0,-10,1
1491089099211,3,9,9,26,26,6,-4,11,-1
1491089099247,0,-5,-18,-34,-4,-24,-3,-25,-3
1491089099247,0,-11,-6,-26,-27,24,1,11,-3
1491089099248,1,2,-8,9,-3,-7,-6,-18,3
1491089099248,1,1,7,9,-6,-11,-6,31,1
1491089099248,2,-12,-25,-24,-59,-6,-4,-39,-12
1491089099248,2,16,9,17,41,-42,1,5,9
1491089099249,3,-16,-7,12,32,-3,-4,-4,-7
1491089099249,3,-1,-17,-2,36,-14,-6,-33,-2
1491089099284,0,16,35,46,-39,26,-2,46,7
1491089099284,0,-4,-5,-7,6,-21,-2,-12,-9
1491089099285,1,2,-19,-41,-33,-20,1,-29,5
1491089099285,1,-15,-5,13,44,24,-2,6,-11
1491089099285,2,24,-27,3,-7,-11,0,35,6
1491089099285,2,4,15,16,1,14,-1,-5,7
1491089099286,3,-17,-8,-18,-19,24,-3,11,-7
1491089099286,3,2,12,15,26,-39,3,10,5
1491089099322,0,-3,-19,-10,16,-2,0,-11,-11
1491089099322,0,-50,-42,-51,-44,3,0,-39,1
1491089099322,1,16,41,70,49,8,-4,10,0
1491089099322,1,21,30,17,-1,13,-1,13,6
1491089099323,2,-6,-19,-34,-26,-15,-3,39,-5
1491089099323,2,-6,-17,-13,32,-21,0,-16,-9
1491089099359,3,-15,-5,-26,-20,5,4,-3,3
1491089099359,3,5,-10,14,-5,-1,-1,-1,4
1491089099360,0,-16,3,16,39,35,-4,7,4
1491089099360,0,27,20,-11,-28,0,-5,19,2
1491089099361,1,31,59,21,38,10,-3,7,-18
1491089099361,1,-30,-34,-27,-12,-35,4,-15,7
1491089099362,2,-11,-21,-42,-12,-26,1,14,4
1491089099362,2,-9,-25,7,20,46,-1,-17,-3
1491089099397,3,50,8,48,-4,-11,-6,20,11
1491089099397,3,-8,25,14,32,12,-4,15,-2
1491089099397,0,-17,14,-4,-15,-11,0,-29,-9
1491089099397,0,-36,-79,-70,-13,33,-1,-3,-20
1491089099398,1,9,55,22,26,-43,2,10,11
1491089099398,1,18,-12,17,-16,12,2,-10,-7
1491089099399,2,13,23,25,12,-3,-1,-11,11
1491089099399,2,31,48,13,-4,20,-1,-9,0
1491089099434,3,-64,-83,-56,-61,-16,-4,6,-11
1491089099434,3,2,2,-9,1,6,0,-3,2
1491089099435,0,14,4,25,29,0,-2,11,-10
1491089099435,0,-50,-7,-11,-1,4,-3,-6,5
1491089099435,1,38,13,68,26,5,-2,15,11
1491089099435,1,-19,0,0,-4,6,-2,-10,-13
1491089099436,2,-38,-56,-14,-6,-23,-1,-58,-12
1491089099436,2,24,34,-15,31,1,-1,70,7
1491089099472,3,-47,-34,-24,-16,7,1,8,-12
1491089099472,3,14,34,11,-27,11,-2,-12,-2
1491089099472,0,3,-24,3,48,-11,-2,1,10
1491089099472,0,-4,-20,-40,-10,23,-1,-53,-13
1491089099473,1,-11,6,22,-28,-15,0,5,-11
1491089099473,1,-32,-24,-42,13,8,1,25,-5
1491089099509,2,12,4,58,28,-9,-5,-29,-2
1491089099509,2,46,52,21,-10,5,-1,6,14
1491089099510,3,-15,-8,26,1,13,-1,-7,0
1491089099510,3,-39,-60,-52,-9,-24,-5,0,-17
1491089099511,0,49,40,-33,-16,-2,2,53,5
1491089099511,0,-4,4,41,-8,-16,1,-35,2
1491089099512,1,16,22,-52,13,23,0,-11,-7
1491089099512,1,-38,0,-22,-36,-27,-5,-12,28
1491089099547,2,-26,1,84,-10,16,-7,-3,-11
1491089099547,2,40,-6,-22,23,0,-3,72,4
1491089099548,3,-54,-90,-61,-21,-35,-3,-48,0
1491089099548,3,50,67,21,-2,13,-2,20,1
1491089099548,0,9,-73,11,-4,13,-1,45,20
1491089099548,0,46,71,-36,-20,-12,-6,-25,-8
1491089099549,1,-33,-4,24,11,21,-2,-23,-6
1491089099549,1,-4,-28,35,-44,-3,2,-29,-1
1491089099584,2,-61,-23,37,27,-1,-1,-31,-5
1491089099584,2,72,78,57,7,8,-3,-5,2
1491089099585,3,-13,-68,-34,17,1,-2,0,7
1491089099585,3,15,8,-85,-31,-9,-1,-10,-17
1491089099586,0,-26,11,-84,-37,-2,1,8,2
1491089099586,0,26,-28,-49,19,-27,1,21,6
1491089099587,1,42,30,41,-9,9,-2,-56,0
1491089099587,1,-31,-20,98,55,19,-3,17,-22
1491089099622,2,56,48,-67,3,-6,-2,27,39
1491089099622,2,-82,-30,0,-13,-11,5,-65,11
1491089099623,3,-79,-43,-47,-38,-2,-4,-34,-23
1491089099623,3,44,-33,41,-14,-16,3,-5,-12
1491089099623,0,6,54,53,-9,-9,2,-34,-7
1491089099623,0,-53,-73,-32,13,14,-1,28,2
1491089099659,1,59,72,-35,-5,8,1,13,10
1491089099659,1,-66,-97,-1,10,-10,-2,32,0
1491089099660,2,-38,15,18,-8,-15,-1,28,-15
1491089099660,2,-41,-48,47,4,-1,2,-74,-12
1491089099660,3,8,18,3,-12,-1,-1,83,13
1491089099660,3,6,31,-10,27,5,-7,-32,-2
1491089099697,0,73,66,-86,-36,13,0,-28,-14
1491089099697,0,-91,-89,3,-29,-16,-3,28,-1
1491089099697,1,77,75,37,59,1,-28,47,0
1491089099697,1,-36,-46,-27,-21,1,-8,-115,-16
1491089099698,2,47,-17,109,39,3,-36,28,12
1491089099698,2,-21,-43,10,-2,-12,8,11,-10
1491089099699,3,-52,-56,-66,-60,-28,29,-106,-7
1491089099699,3,-14,9,-10,3,-4,14,127,12
1491089099734,0,16,-60,-44,8,1,13,-117,-14
1491089099734,0,-17,116,-3,-37,3,-5,3,-8
1491089099735,1,-35,-114,-37,15,-1,-11,-9,-8
1491089099735,1,117,127,-8,-33,6,-14,-13,11
1491089099736,2,-94,-84,45,24,-14,-38,-64,-6
1491089099736,2,113,16,-41,9,4,-19,36,29
1491089099736,3,-67,-46,89,33,3,-22,-15,-50
1491089099736,3,90,47,-23,-9,11,-12,20,50
1491089099772,0,-100,-106,-71,-30,3,34,29,-42
1491089099772,0,109,127,81,32,-13,76,-72,9
1491089099772,1,8,-28,-77,-21,-8,47,37,-6
1491089099772,1,-59,-99,-1,-8,8,79,0,9
1491089099773,2,30,113,56,35,4,-3,8,-5
1491089099773,2,-77,-128,-59,-49,-7,-17,96,-32
1491089099774,3,49,-50,-12,-8,-6,4,-97,24
1491089099774,3,56,64,15,17,12,15,73,9
1491089099847,0,78,20,-19,-21,-12,120,-64,7
1491089099847,0,-111,-73,2,13,-14,67,-50,-37
1491089099847,1,29,117,69,-5,14,62,102,22
1491089099847,1,7,-22,40,13,-9,-34,-56,-1
1491089099848,2,-34,-26,-44,9,2,-47,41,-11
1491089099848,2,50,-9,-48,2,13,-72,48,23
1491089099884,3,-75,-55,36,33,4,-76,-53,-30
1491089099884,3,44,94,15,15,-6,-41,30,46
1491089099885,0,32,28,-43,-61,-5,-32,36,-3
1491089099885,0,-114,-103,37,14,0,-34,-13,-33
1491089099885,1,112,1,-37,-5,-7,-7,-77,29
1491089099885,1,-36,13,7,-20,-14,2,50,-29
1491089099886,2,-98,-30,-23,-19,-14,-31,31,7
1491089099886,2,124,92,19,25,-1,6,26,26
1491089099922,0,57,35,19,18,12,2,0,6
1491089099922,0,-20,42,11,-13,14,-3,-17,5
1491089099922,1,-35,-13,-13,-1,-17,-42,28,-26
1491089099922,1,-113,-128,-65,9,1,-53,-27,-8
1491089099923,2,93,84,9,-7,-2,-12,36,-8
1491089099923,2,-23,-63,7,27,0,-37,-6,-8
1491089099924,0,-23,-54,17,15,2,-52,22,6
1491089099924,0,-25,-25,-35,5,-1,33,5,4
1491089100034,1,-9,23,10,-8,1,4,-2,-5
1491089100034,1,13,26,34,40,17,2,27,3
1491089100035,2,66,22,-13,-20,-13,-19,-23,17
1491089100035,2,-17,2,5,-12,4,-32,-5,-3
1491089100035,3,-51,-60,-15,-12,-16,25,12,-8
1491089100035,3,8,38,6,36,1,-34,-20,-26
1491089100036,0,-21,-70,-10,6,7,26,32,17
1491089100036,0,-11,-28,-22,-8,-15,-38,6,-10
1491089100072,1,31,100,10,17,0,38,3,2
1491089100072,1,44,-24,26,-6,10,13,24,16
1491089100073,2,-74,-37,9,15,-18,13,-65,-29
1491089100073,2,-5,5,22,3,8,22,16,8
1491089100074,3,47,-11,-11,3,-4,-29,23,17
1491089100074,3,-47,-8,-9,22,-5,-22,-18,-11
1491089100075,3,39,-16,23,43,9,0,10,9
1491089100075,3,-11,-25,4,34,0,-34,86,4
1491089100109,0,2,53,15,15,0,-4,-97,-13
1491089100109,0,18,-21,-13,-6,4,-14,77,5
1491089100110,1,-65,-31,6,9,3,-15,-44,-15
1491089100110,1,-35,-22,-4,5,-19,1,-10,-4
1491089100110,2,15,-12,-3,32,1,-22,-42,4
1491089100110,2,5,23,-13,14,-4,-19,76,0
1491089100112,3,8,-10,-6,-16,-2,-1,42,-4
1491089100112,3,10,-4,10,-17,18,-18,-21,8
1491089100147,0,-27,-28,11,9,-4,29,-14,0
1491089100147,0,35,29,13,1,-15,7,43,5
1491089100148,1,-39,47,-36,-41,-6,42,-51,-20
1491089100148,1,-19,-36,-16,6,-12,-14,4,-6
1491089100149,2,54,-1,13,24,17,39,58,-9
1491089100149,2,-28,19,-13,-30,-3,21,-26,9
1491089100149,3,-7,-19,7,18,2,-7,-22,-5
1491089100149,3,-12,15,18,25,0,-16,-63,-6
1491089100184,0,42,9,-7,-46,-3,12,44,20
1491089100184,0,27,-23,-51,15,-5,-8,-11,7
1491089100185,1,57,11,2,-6,7,-23,72,22
1491089100185,1,-6,-11,-18,-25,-7,-1,-11,-17
1491089100185,2,1,23,18,41,12,-17,64,5
1491089100185,2,17,16,42,-7,2,-25,-128,-14
1491089100186,3,-37,25,12,-14,15,1,35,6
1491089100186,3,85,75,13,42,-8,-37,33,12
1491089100222,0,-77,-104,30,-15,-19,-19,-94,-26
1491089100222,0,7,-24,-99,-31,15,54,24,14
1491089100222,1,8,43,-18,-54,-32,12,-20,-12
1491089100222,1,-71,-48,73,26,18,-4,-7,-20
1491089100223,2,112,127,-31,4,-11,34,-21,18
1491089100223,2,-33,-18,85,30,16,-61,-42,-20
1491089100224,3,-94,-102,2,55,4,24,-33,-17
1491089100224,3,-16,-69,-128,-54,6,-67,9,-6
1491089100259,0,-43,17,54,-73,-8,-32,-18,-28
1491089100259,0,9,91,114,61,10,22,85,9
1491089100260,1,41,-70,-82,27,19,36,-49,-1
1491089100260,1,19,91,125,63,-25,-32,-3,6
1491089100261,2,-38,-49,-45,-71,-3,16,-6,-9
1491089100261,2,8,-55,3,-3,-18,-76,21,-6
1491089100262,3,-71,-81,-43,-30,-4,-27,15,-21
1491089100262,3,17,42,18,21,17,92,8,30
1491089100297,0,-45,-64,-70,-16,-13,12,-14,-16
1491089100297,0,-49,45,-22,12,-2,31,-7,-23
1491089100297,1,13,-3,103,27,-14,-49,-12,25
1491089100297,1,-70,-98,-110,-96,-3,-66,-10,-40
1491089100298,2,94,-39,127,67,40,4,127,38
1491089100298,2,95,54,-22,53,0,55,-18,20
1491089100299,3,-71,-52,67,24,-1,16,-25,9
1491089100299,3,18,38,-117,-17,-26,30,-35,0
1491089100334,0,-65,-17,-1,-30,-26,-48,-60,-11
1491089100334,0,19,-100,-101,-24,23,-98,15,-7
1491089100335,1,102,127,87,-42,23,72,15,-1
1491089100335,1,-103,-126,7,26,-15,-35,-9,-14
1491089100336,2,72,-14,-107,-40,-5,35,23,50
1491089100336,2,81,92,101,-69,12,60,-39,13
1491089100336,3,-106,-102,1,76,-24,-56,58,-54
1491089100336,3,107,16,59,-30,33,11,4,43
1491089100372,0,-4,-28,-52,39,0,-50,19,4
1491089100372,0,-103,-64,-123,32,-23,25,38,-7
1491089100372,1,-1,-69,1,-128,-2,-16,-54,-8
1491089100372,1,47,88,92,57,11,93,114,23
1491089100373,2,-84,-64,-70,33,17,9,-102,-18
1491089100373,2,16,-104,104,31,-14,-41,33,-13
1491089100374,3,-2,91,-67,-22,-28,0,4,21
1491089100374,3,11,-69,35,4,-22,-15,-5,8
1491089100409,0,-1,73,10,0,2,24,71,9
1491089100409,0,4,96,63,23,37,-56,-87,-48
1491089100410,1,107,-65,48,-26,-31,67,40,81
1491089100410,1,-47,-53,-89,32,-33,-97,-96,-76
1491089100410,2,64,95,111,-17,52,-50,48,27
1491089100410,2,72,46,35,29,-6,80,26,-17
1491089100411,3,-93,-58,-105,58,26,-21,5,-12
1491089100411,3,102,87,-50,-39,-46,6,-1,-14
1491089100447,0,-85,-128,-128,21,-49,-92,-5,-1
1491089100447,0,-78,35,61,-32,34,-100,7,-64
1491089100448,1,127,127,127,23,69,104,82,42
1491089100448,1,-128,-119,-76,-25,-24,66,-42,10
1491089100449,2,-119,-100,71,115,-35,-76,-6,-35
1491089100449,2,-38,81,-109,-118,-7,-8,-103,17
1491089100449,3,3,0,107,48,0,-15,54,-6
1491089100449,3,-84,-63,-60,-85,1,-21,-32,-59
1491089100484,0,-19,92,104,-61,15,-19,60,-23
1491089100484,0,-128,-128,97,74,-25,-54,-20,35
1491089100485,1,112,107,60,98,-10,-53,-54,-3
1491089100485,1,55,50,-32,-58,46,36,88,39
1491089100486,2,57,-42,-55,-20,-33,5,-60,-5
1491089100486,2,-57,-103,-78,-71,2,-59,95,8
1491089100522,3,-30,-4,20,43,15,-128,-28,-21
1491089100522,3,90,-27,-3,61,7,-8,37,14
1491089100523,0,8,-32,-73,23,-46,101,-78,37
1491089100523,0,85,16,42,-53,-17,60,44,33
1491089100524,1,-128,-128,-10,-19,-5,19,-16,-80
1491089100524,1,85,122,21,96,46,81,-35,53
1491089100525,2,-35,-32,-100,-72,6,71,-9,-37
1491089100525,2,-84,-109,3,45,-25,-4,-15,-15
1491089100559,3,22,25,-17,17,43,48,24,38
1491089100559,3,-16,89,109,43,-23,89,-50,-19
1491089100561,0,-8,-47,-51,-84,-17,13,-7,-10
1491089100561,0,109,90,51,32,25,34,-14,32
1491089100562,1,-54,-93,-128,-55,1,31,-60,6
1491089100562,1,-121,-116,127,-19,29,50,74,-23
1491089100563,2,78,127,-64,52,-10,0,-32,14
1491089100563,2,-78,-128,37,-22,-51,-4,-34,-28
1491089100597,3,13,93,-59,-89,15,-27,-10,2
1491089100597,3,6,65,81,57,44,-79,30,16
1491089100598,0,-43,-75,4,-2,16,-39,28,-12
1491089100598,0,-32,-88,-128,-67,-55,11,6,-22
1491089100634,1,-62,-74,-127,-17,-63,-26,-44,-50
1491089100634,1,3,17,44,28,34,-47,-4,-7
1491089100636,2,51,127,127,28,25,-19,78,25
1491089100636,2,72,-28,52,87,74,12,-19,33
1491089100637,3,-49,-128,-97,-43,-68,-19,-31,-23
1491089100637,3,-66,-128,-128,-128,-73,-40,-38,-16
1491089100638,0,12,51,70,51,33,8,7,3
1491089100638,0,-73,91,82,71,10,12,9,8
1491089100672,1,54,10,78,-27,3,-14,39,8
1491089100672,1,-47,-21,-63,68,-24,-15,-32,-17
1491089100673,2,-39,-75,96,-85,13,0,0,-14
1491089100673,2,34,105,-90,-26,4,7,-15,-26
1491089100673,3,8,-95,39,22,-25,-8,-1,23
1491089100673,3,-11,77,44,-87,-2,-10,6,6
1491089100674,0,48,60,6,106,23,-3,42,1
1491089100674,0,-20,-18,-49,-32,-6,-3,-50,-20
1491089100709,1,-15,-49,-108,-59,-34,1,5,-2
1491089100709,1,59,8,41,49,-5,-3,-1,10
1491089100710,2,-12,-6,31,-9,8,4,-12,1
1491089100710,2,18,-11,85,-52,8,12,9,5
1491089100711,3,39,65,0,112,-24,3,9,3
1491089100711,3,55,16,-35,-67,23,-9,15,34
1491089100712,0,-91,-74,-44,68,0,0,-31,-33
1491089100712,0,-32,-46,-88,-92,-31,4,1,5
1491089100747,1,11,24,74,-1,-28,0,5,-6
1491089100747,1,39,64,-83,-13,19,-9,25,5
1491089100748,2,62,75,89,80,-13,0,4,16
1491089100748,2,-42,-128,-128,-21,34,6,-24,-16
1491089100750,3,-10,-16,73,33,9,-3,-6,-3
1491089100750,3,2,10,-11,-32,-7,-3,-1,-2
1491089100750,0,-66,-40,-102,-91,23,2,29,-1
1491089100750,0,18,-9,95,32,-19,0,-11,11
1491089100784,1,-35,60,41,46,10,-5,23,-1
1491089100784,1,0,2,5,53,31,-3,-18,-2
1491089100785,2,36,-13,-71,-26,1,1,-21,0
1491089100785,2,7,53,127,-39,-2,2,35,9
1491089100786,3,-3,-41,-17,9,13,-4,-13,3
1491089100786,3,-95,-128,-27,-83,-42,-7,-10,-9
1491089100786,0,35,22,-82,63,-44,-3,-21,-13
1491089100786,0,-26,12,44,20,18,-1,26,1
1491089100822,1,40,53,57,66,12,-1,-5,19
1491089100822,1,-31,21,-34,-59,-7,5,24,-22
1491089100823,2,-3,-82,-5,-10,0,-1,-7,7
1491089100823,2,55,35,-30,54,-12,1,-51,-3
1491089100824,3,-91,-65,63,-87,5,-1,0,-14
1491089100824,3,26,43,74,127,15,-4,15,9
1491089100859,0,106,123,125,78,41,0,1,31
1491089100859,0,0,-71,-128,-66,-27,-2,-1,-6
1491089100860,1,-50,-94,-5,-41,14,2,6,-12
1491089100860,1,42,45,10,74,8,3,14,4
1491089100860,2,8,12,52,19,-22,-2,-52,-5
1491089100860,2,-29,-40,-79,-53,-13,-2,-51,-8
1491089100861,3,-20,-102,-120,-50,-7,-2,62,3
1491089100861,3,-21,-8,23,76,2,-2,7,-4
1491089100897,0,76,97,88,33,26,0,-13,-5
1491089100897,0,38,15,85,109,34,3,-10,11
1491089100897,1,-5,-33,-128,-113,-14,-5,-36,-5
1491089100897,1,21,69,127,90,4,-3,3,8
1491089100898,2,-85,-102,-99,-128,-12,-4,39,-23
1491089100898,2,-29,-31,-30,-23,-19,5,10,-9
1491089100899,3,53,83,101,119,52,3,14,9
1491089100899,3,-29,-70,-54,-105,-38,0,-1,-11
1491089100934,0,49,91,86,-24,6,0,2,8
1491089100934,0,-64,-72,-83,-66,-10,-2,-7,-10
1491089100935,1,64,117,11,43,29,1,10,13
1491089100935,1,0,-48,-6,-64,-6,0,-26,-2
1491089100935,2,-99,-117,-118,-49,-26,2,-10,-24
1491089100935,2,52,127,125,103,18,-4,-11,2
1491089100936,3,-3,-24,-34,-85,-25,-3,-25,-10
1491089100936,3,-33,-85,-61,-53,4,-6,-25,-11
1491089100972,0,-8,-38,27,-11,31,0,31,3
1491089100972,0,-3,-21,34,114,-29,-6,28,1
1491089100973,1,53,127,74,38,48,-2,-25,4
1491089100973,1,-14,-6,-60,-90,-18,-1,-18,-2
1491089100974,2,-31,-35,-28,-27,-73,-2,3,-1
1491089100974,2,29,36,40,115,67,1,1,4
1491089100975,3,-18,-73,-95,-97,-38,1,49,3
1491089100975,3,27,86,121,114,-10,3,-41,2
1491089101009,0,14,85,47,37,67,-6,9,6
1491089101009,0,4,-26,-73,-41,-51,-3,-21,-4
1491089101047,1,-6,23,18,27,5,-1,90,3
1491089101047,1,-4,-13,-87,-87,15,2,-68,-7
1491089101047,2,-26,-15,-40,-57,-9,2,-55,-9
1491089101047,2,15,32,30,64,16,-4,46,9
1491089101048,3,0,35,12,44,-17,-3,-10,-3
1491089101048,3,-17,-7,-68,-50,-37,-4,14,-6
1491089101049,0,12,63,59,2,46,-4,9,3
1491089101049,0,-11,55,-32,-18,-4,-4,12,-1
1491089101084,1,19,26,88,38,-12,-3,-58,-14
1491089101084,1,-24,-90,-44,-28,-36,-3,29,9
1491089101085,2,8,-13,53,76,23,-8,5,-17
1491089101085,2,12,6,-29,-61,1,-3,29,11
1491089101085,0,-31,-113,-54,-55,-37,1,-43,-1
1491089101085,0,-15,-56,-18,-45,-9,2,22,-3
1491089101086,1,19,9,-13,27,24,0,-72,-7
1491089101086,1,-40,-63,100,11,2,-2,22,-14
1491089101122,2,3,-103,-70,-42,-16,-1,36,7
1491089101122,2,0,-35,112,17,-18,0,-7,0
1491089101159,3,-3,-117,-92,-31,-17,3,2,4
1491089101159,3,-19,-93,37,27,19,-2,-16,-11
1491089101160,0,-15,-15,27,54,-3,0,-2,-9
1491089101160,0,5,-14,-22,-41,-32,4,-28,1
1491089101160,1,8,24,-26,-39,-20,4,-22,-12
1491089101160,1,-9,77,30,41,22,-5,-18,11
1491089101161,2,-17,56,-6,-3,-13,-2,49,-6
1491089101161,2,-38,-54,-86,-38,-14,5,7,-11
1491089101197,3,20,95,65,28,-2,0,8,22
1491089101197,3,48,105,29,23,14,0,12,-3
1491089101197,0,-32,12,-39,-37,-3,-3,-29,-5
1491089101197,0,4,25,-17,-38,-4,0,8,2
1491089101198,3,17,46,38,30,12,2,24,5
1491089101198,3,13,36,-12,-13,1,-3,2,8
1491089101199,0,13,-26,-29,31,-37,-1,-5,-15
1491089101199,0,-15,-19,-34,-47,16,-4,-8,-3
1491089101234,1,4,-44,-61,0,6,-4,-2,-4
1491089101234,1,-6,-23,76,-8,-46,0,8,6
1491089101235,2,18,74,22,20,15,5,21,0
1491089101235,2,16,55,65,47,20,1,15,8
1491089101235,3,14,-32,-14,-30,-18,-5,-32,-5
1491089101235,3,-60,-79,-109,-40,5,0,-8,1
1491089101236,0,11,-11,4,-10,-25,-2,-45,-2
1491089101236,0,18,-5,11,7,26,1,30,0
1491089101272,1,-26,10,28,7,-5,-4,-11,-1
1491089101272,1,24,-6,-6,-18,6,-3,15,-3
1491089101275,2,-25,-17,-42,-13,-5,0,-16,-6
1491089101275,2,23,21,-65,29,-16,0,-33,13
1491089101277,3,7,-8,44,15,-25,-2,29,-8
1491089101277,3,7,24,1,-17,31,-1,58,-10
1491089101277,0,13,22,0,29,11,-1,3,13
1491089101277,0,-1,20,57,13,19,3,-20,-8
1491089101309,1,-2,-16,-72,-24,-20,1,5,-2
1491089101309,1,14,-48,-1,-2,-14,-1,-43,-4
1491089101310,2,5,38,43,-23,20,-1,10,-8
1491089101310,2,-18,-31,-2,20,-14,2,10,-15
1491089101311,3,-24,-47,-14,-5,7,3,22,-1
1491089101311,3,18,54,-1,-3,6,2,-38,-3
1491089101312,0,2,12,-72,-19,2,-6,-32,0
1491089101312,0,-2,7,78,33,-28,-4,17,7
1491089101347,1,12,18,-70,-15,1,-7,-1,-9
1491089101347,1,-16,-6,77,39,2,6,-34,14
1491089101348,2,5,-27,-31,4,-17,-4,3,-4
1491089101348,2,13,3,-37,-28,5,-4,-27,6
1491089101349,3,-10,3,16,-5,8,-4,32,1
1491089101349,3,-13,-38,-32,-16,4,-4,21,2
1491089101350,0,-33,0,34,-12,-17,-2,-8,6
1491089101350,0,33,17,-9,5,15,-1,-1,-4
1491089101384,1,-43,4,34,18,3,1,-16,-14
1491089101384,1,21,-36,-29,-13,6,-1,11,6
1491089101385,2,9,32,27,17,-21,0,15,-12
1491089101385,2,-45,-29,-73,-20,6,-4,50,11
1491089101385,3,-6,19,61,-21,22,6,-52,6
1491089101385,3,-39,52,39,25,-20,-3,-26,-10
1491089101386,0,-21,-97,-75,-20,-15,-5,8,-2
1491089101386,0,-15,-99,-24,-8,-14,5,17,-11
1491089101422,1,41,84,1,7,4,-2,42,16
1491089101422,1,-95,-62,80,35,12,-2,-13,-14
1491089101422,2,89,105,33,3,-5,-1,-2,8
1491089101422,2,-11,-113,-65,-20,-11,-4,-10,22
1491089101423,3,43,69,-39,-29,-6,-6,-4,-2
1491089101423,3,21,18,3,23,24,-6,43,8
1491089101424,0,-52,-87,72,36,6,-1,-20,-16
1491089101424,0,63,109,16,-27,-13,1,-35,-10
1491089101459,1,-51,-66,35,32,-1,1,61,-14
1491089101459,1,105,113,14,-13,2,-6,0,28
1491089101460,2,-39,-80,-1,-11,3,0,-41,10
1491089101460,2,4,53,48,-1,24,-2,-4,-14
1491089101460,3,-29,-128,12,1,-11,-2,22,0
1491089101460,3,-16,-17,-58,35,3,-3,3,-14
1491089101497,0,20,47,72,1,-10,-5,-4,-8
1491089101497,0,44,50,-45,-19,-2,-1,21,3
1491089101497,1,34,-52,-7,18,9,-2,13,6
1491089101497,1,55,77,-32,-24,0,1,-54,7
1491089101498,2,10,-48,-32,-39,11,4,22,28
1491089101498,2,-82,-10,26,4,-10,0,19,-28
1491089101499,3,-41,-63,-21,-9,11,-1,-54,3
1491089101499,3,15,63,-3,13,3,5,-9,-21
1491089101534,0,16,18,29,37,6,2,15,2
1491089101534,0,-36,-71,-22,-37,-2,-8,-41,-11
1491089101535,1,-32,75,18,12,-15,-2,-34,8
1491089101535,1,59,-23,-60,-16,-17,-5,28,-8
1491089101535,2,-79,-76,-37,-17,-3,-3,-46,-26
1491089101535,2,54,47,126,61,31,-1,30,-5
1491089101536,3,13,55,-57,10,-35,-1,-24,41
1491089101536,3,-67,-68,-31,-64,-7,0,18,-15
1491089101571,0,-29,45,5,21,9,2,-29,-1
1491089101571,0,90,-70,-58,16,-1,-1,-33,8
1491089101572,1,-55,8,80,-43,7,-7,53,-31
1491089101572,1,-12,35,19,35,12,2,-66,13
1491089101609,2,49,38,54,-11,5,-20,22,10
1491089101609,2,-59,-78,-51,6,-18,-25,-4,-3
1491089101610,3,26,110,-28,4,-10,-3,-3,-27
1491089101610,3,6,-81,-12,-13,1,-6,56,6
1491089101610,0,-104,-66,-4,-19,3,9,4,-23
1491089101610,0,21,36,-15,-1,-10,4,1,-3
1491089101611,1,67,-69,-10,-21,0,-25,-11,8
1491089101611,1,-51,75,57,32,-6,-59,-75,-26
1491089101646,2,-28,-62,-103,-17,-15,-22,30,-13
1491089101646,2,7,89,43,-20,24,28,72,22
1491089101648,3,20,-64,30,3,3,32,-55,-1
1491089101648,3,11,19,16,27,18,73,2,-7
1491089101648,0,68,-52,-35,18,-28,37,51,20
1491089101648,0,-30,33,-28,-30,-6,34,-80,-4
1491089101649,1,-11,36,7,2,9,116,42,-19
1491089101649,1,-48,-28,48,9,-2,100,-3,4
1491089101684,2,48,28,-32,45,24,-10,-47,-3
1491089101684,2,-54,-35,26,-12,-12,0,-12,19
1491089101685,3,3,-25,-10,-16,-10,-61,11,-14
1491089101685,3,-13,36,-9,-23,-5,-7,7,1
1491089101685,0,-67,-3,-26,-8,-1,29,44,1
1491089101685,0,21,5,-4,-12,3,-69,5,-7
1491089101686,1,4,-17,-33,31,5,-69,-9,-3
1491089101686,1,1,-26,-2,22,-20,-89,-20,0
1491089101722,2,12,-35,-9,-33,5,9,21,-6
1491089101722,2,-41,-11,-6,8,-11,-41,-66,-9
1491089101723,3,-89,-69,-21,-47,2,-8,41,-11
1491089101723,3,123,52,38,23,0,-11,18,15
1491089101725,0,-13,-23,-47,-14,-6,25,-2,10
1491089101725,0,-47,-17,55,23,-2,-37,15,-25
1491089101726,1,3,52,21,27,1,7,28,5
1491089101726,1,-47,-76,-46,-10,-12,-10,-8,-11
1491089101759,2,23,14,-9,-32,5,-27,-5,1
1491089101759,2,22,45,33,12,23,28,45,14
1491089101760,3,-41,-62,-11,16,-26,-50,-31,1
1491089101760,3,-1,-14,-7,-11,-5,44,44,-3
1491089101760,0,12,72,13,14,2,7,-57,-11
1491089101760,0,-13,-47,-44,-14,3,-27,-32,5
1491089101761,1,46,3,24,-9,7,55,11,5
1491089101761,1,58,52,-17,-8,-12,15,-10,-1
1491089101834,2,-8,3,3,-52,-6,-55,29,-1
1491089101834,2,-56,-63,5,25,-1,-65,-17,-22
1491089101835,3,-2,22,5,18,6,-63,-9,10
1491089101835,3,-22,-83,-36,-32,-6,-63,-19,-19
1491089101836,0,13,58,58,67,3,-11,-25,4
1491089101836,0,45,17,9,-2,-2,26,-14,3
1491089101872,1,-2,11,-9,-7,1,-4,68,16
1491089101872,1,-17,-32,-47,-10,2,-55,-76,-12
1491089101872,2,30,0,36,-17,-6,8,42,5
1491089101872,2,11,29,-8,-23,0,43,-55,2
1491089101909,3,3,-7,-24,2,-3,-9,-28,-3
1491089101909,3,-32,-59,-32,3,-4,-9,40,-6
1491089101910,2,-30,11,-32,-11,-9,-21,-27,-7
1491089101910,2,62,-11,-2,-2,12,-8,23,5
1491089101910,3,-4,20,23,60,-13,-16,-41,-5
1491089101910,3,2,0,28,18,21,-5,89,12
1491089101911,0,-26,-21,0,25,-19,-23,-84,2
1491089101911,0,21,38,-15,11,-8,-31,13,1
1491089101946,1,-45,-54,7,17,11,-19,12,-9
1491089101946,1,34,57,21,35,7,9,53,13
1491089101947,2,-57,-4,16,-3,7,5,20,-9
1491089101947,2,39,-8,-32,-20,-15,-1,35,3
1491089101948,3,11,-9,-2,-13,-1,27,-14,17
1491089101948,3,-43,-3,-8,-15,2,11,3,-7
1491089101949,2,7,-15,-5,12,1,7,27,-9
1491089101949,2,-7,12,14,13,21,-10,-33,-8
1491089101984,3,-6,-17,0,-7,-5,-28,29,-10
1491089101984,3,3,-19,9,60,1,-41,-24,8
1491089101985,0,3,-9,26,50,12,-35,16,1
1491089101985,0,0,-3,13,40,2,-33,-18,7
1491089101985,1,-13,18,15,18,17,-38,36,-3
1491089101985,1,-21,6,15,15,-2,-9,12,-2
1491089101986,2,31,-18,-17,-15,-5,12,-15,3
1491089101986,2,-12,15,4,21,4,2,67,14
1491089102021,3,-2,25,4,2,-2,-24,6,-1
1491089102021,3,-3,1,-12,-11,-2,10,-8,7
1491089102022,0,-43,-24,8,11,-16,-12,8,-9
1491089102022,0,0,-5,8,19,-1,7,-11,7
1491089102023,1,2,-5,-21,10,-6,7,34,-5
1491089102023,1,-24,10,25,11,-5,17,-36,-10
1491089102024,2,32,10,16,28,6,-13,-4,8
1491089102024,2,-25,-14,0,4,-6,-14,-12,-19
1491089102059,3,28,24,1,17,-8,7,-25,4
1491089102059,3,-17,-26,-6,-5,12,-14,65,6
1491089102060,0,-4,-8,4,-16,-7,5,-14,-1
1491089102060,0,19,-1,-14,3,0,4,-16,-13
1491089102096,1,14,-6,-11,-16,0,21,-48,13
1491089102096,1,-1,3,6,2,-3,12,28,-2
1491089102098,2,19,24,3,17,-8,-35,40,-4
1491089102098,2,-20,-5,1,6,-2,4,-9,8
1491089102098,3,-6,-6,-19,-38,-7,-1,23,-3
1491089102098,3,-23,-31,-3,16,7,-18,-40,-9
1491089102099,0,44,-6,12,2,2,23,20,12
1491089102099,0,26,29,-16,1,-4,-9,-37,5
1491089102134,1,-3,-46,-20,-39,0,38,46,-16
1491089102134,1,56,85,-4,-14,-10,36,-64,22
1491089102135,2,-92,-48,-3,-52,-1,12,-15,-37
1491089102135,2,23,-10,27,29,-16,32,-48,-5
1491089102136,3,37,1,-34,-14,3,-5,-55,15
1491089102136,3,-42,-70,-21,-37,-1,-1,80,4
1491089102136,0,22,100,2,14,11,27,-96,7
1491089102136,0,-4,-86,-4,-22,-1,1,42,-5
1491089102171,1,50,125,32,45,-6,0,-70,-8
1491089102171,1,-14,-8,-14,-26,5,-9,18,13
1491089102172,2,-99,-98,-13,1,-12,-26,-40,-19
1491089102172,2,-39,-49,-21,-1,-2,-9,-76,-27
1491089102173,0,127,89,96,59,18,-9,15,10
1491089102173,0,43,-14,-31,-10,13,29,53,39
1491089102176,1,-35,-10,4,8,-15,-35,-82,-39
1491089102176,1,0,-41,-34,-48,15,-41,-49,-4
1491089102209,2,66,90,39,40,6,-7,127,40
1491089102209,2,-93,-104,91,64,-14,-50,-64,-40
1491089102247,3,3,34,-47,4,-21,4,32,7
1491089102247,3,-21,-9,59,-29,-14,-48,118,-11
1491089102284,0,25,26,-128,-71,7,0,-120,-15
1491089102284,0,-36,7,127,-7,27,13,24,0
1491089102286,1,-24,14,-58,-33,-12,13,-15,-14
1491089102286,1,-39,12,27,28,16,-19,29,-1
1491089102287,2,-20,-73,-86,40,-21,-15,8,-14
1491089102287,2,-70,-39,-77,-19,-27,4,4,-10
1491089102288,3,4,-78,-18,8,14,-50,75,-7
1491089102288,3,41,66,70,6,10,30,-29,-1
1491089102359,0,64,-15,92,28,22,26,-12,7
1491089102359,0,38,-50,-71,-40,4,18,31,18
1491089102361,1,-82,-68,-25,-49,-27,108,-81,-23
1491089102361,1,-8,-83,-68,3,-29,-79,28,4
1491089102362,3,3,-60,82,80,26,6,-57,11
1491089102362,3,-48,-32,-53,-74,-4,4,15,-35
1491089102363,3,-20,-46,38,-30,0,-39,82,3
1491089102363,3,-48,-78,-128,7,-6,-45,20,-27
1491089102397,0,-29,67,121,30,22,-3,7,0
1491089102397,0,46,47,-69,2,-22,83,-49,9
1491089102398,1,-121,-94,12,-3,31,-45,-3,-20
1491089102398,1,118,-24,68,43,-17,-71,-10,-2
1491089102399,2,-39,-128,-52,28,-27,-83,74,-6
1491089102399,2,-33,11,-49,-88,-4,-6,-54,-4
1491089102400,3,116,106,127,50,32,105,-18,17
1491089102400,3,-23,-127,-33,82,-17,-33,-54,34
1491089102434,0,30,99,-118,-102,-5,15,82,-9
1491089102434,0,18,3,117,-45,17,24,2,14
1491089102436,1,-71,-96,-111,33,3,-26,-66,2
1491089102436,1,76,109,92,23,-11,73,-11,-12
1491089102437,2,-101,-128,97,44,-11,-44,25,1
1491089102437,2,-13,-82,-128,-80,-12,-45,97,26
1491089102438,3,24,95,105,-57,-33,-29,-48,-10
1491089102438,3,-28,-20,51,70,46,12,-74,5
1491089102472,0,7,34,-43,-44,10,-50,68,20
1491089102472,0,-53,63,118,103,-38,-21,-61,-12
1491089102473,1,123,71,-83,-102,22,-15,22,21
1491089102473,1,5,-100,83,-15,5,-33,94,4
1491089102473,2,81,95,-52,84,6,49,-74,14
1491089102473,2,-27,-103,84,21,30,-103,18,6
1491089102474,3,74,75,127,3,1,86,-2,27
1491089102474,3,-74,-51,-105,-54,-39,-36,-41,-42
1491089102509,0,64,-94,127,-19,-39,53,-65,55
1491089102509,0,112,125,32,34,27,54,12,28
1491089102510,1,-117,-83,53,12,7,55,-42,-33
1491089102510,1,19,-22,-48,-64,19,-30,15,-11
1491089102510,2,33,35,-23,-93,18,-28,-24,-5
1491089102510,2,-63,-29,23,56,-12,22,6,-33
1491089102511,3,-53,-88,53,52,-16,52,-16,-9
1491089102511,3,53,-88,-77,-58,-33,57,-21,-24
1491089102547,0,-123,-128,-8,-83,-21,-56,-1,-21
1491089102547,0,127,127,-54,4,24,18,14,36
1491089102548,1,-2,-13,91,105,39,22,16,-1
1491089102548,1,-128,-86,-47,19,-43,56,13,6
1491089102549,2,112,127,48,-18,9,21,-36,1
1491089102549,2,19,-107,-48,-30,-26,1,16,-20
1491089102550,3,-108,-128,-86,7,-2,-51,-14,-25
1491089102550,3,92,127,127,54,29,-51,44,32
1491089102622,0,25,-69,67,2,32,-9,10,-7
1491089102622,0,-32,-86,-124,-58,-34,-29,-63,-17
1491089102623,1,-16,-43,-19,-69,-62,-44,13,-15
1491089102623,1,-128,-100,-69,-18,-28,-5,-37,-35
1491089102624,2,47,49,66,51,33,-3,32,6
1491089102624,2,69,70,127,105,53,-17,10,12
1491089102625,3,114,64,-128,-83,14,-18,13,7
1491089102625,3,54,12,-3,20,-14,5,1,6
1491089102659,0,-126,-95,41,35,-23,0,-29,-27
1491089102659,0,-3,36,47,-13,0,-8,1,12
1491089102660,1,5,82,-48,-39,-7,3,-5,12
1491089102660,1,-115,-48,92,30,6,1,3,-32
1491089102660,2,60,28,-128,73,14,-3,67,6
1491089102660,2,1,-67,-88,-109,-12,1,-104,-11
1491089102661,1,124,82,60,-8,-10,-2,7,62
1491089102661,1,-10,-101,-61,-49,0,-3,-3,-18
1491089102697,2,-69,-59,50,-17,19,0,-12,12
1491089102697,2,-11,-62,-92,-13,9,-3,37,-18
1491089102698,3,-16,26,-90,54,-13,-1,-4,-5
1491089102698,3,120,116,53,-40,11,3,2,50
1491089102699,0,-17,20,78,-31,-7,7,4,-6
1491089102699,0,-64,24,-24,66,-7,-1,4,4
1491089102700,1,92,14,41,-7,37,-7,5,8
1491089102700,1,-39,6,106,23,-2,2,1,-15
1491089102734,2,-97,-83,-128,-80,-46,-1,-25,-14
1491089102734,2,-26,-56,-60,-91,-17,-4,-38,-27
1491089102735,3,37,95,117,101,66,2,24,-6
1491089102735,3,22,-44,-72,-73,-14,0,-6,26
1491089102736,0,-33,-46,127,53,-4,-1,-27,-37
1491089102736,0,8,80,93,16,35,0,-6,13
1491089102736,1,9,-109,-93,-94,-58,-3,-12,2
1491089102736,1,-29,-13,99,38,13,5,-58,-24
1491089102809,2,-1,6,-83,-23,14,1,84,16
1491089102809,2,16,23,92,-33,-41,2,-24,-7
1491089102810,3,-40,-86,22,-31,17,1,16,-7
1491089102810,3,-9,70,-77,116,-21,2,-29,-22
1491089102811,0,-43,-94,21,-78,-11,0,-5,15
1491089102811,0,105,127,90,100,41,1,25,33
1491089102811,1,-43,-125,-58,55,2,0,-22,-16
1491089102811,1,-46,18,38,-97,-30,-5,-32,1
1491089102846,2,-76,-48,73,-28,-14,-3,-14,-32
1491089102846,2,54,39,68,47,27,-4,11,3
1491089102848,3,40,5,22,40,12,-2,-6,4
1491089102848,3,-62,-92,-128,-32,-3,-4,-25,-3
1491089102848,3,1,1,26,26,-16,-1,-2,5
1491089102848,3,45,46,99,74,27,2,41,1
1491089102849,0,-64,-74,-125,-52,-31,-1,-92,-26
1491089102849,0,21,-15,114,-47,-27,-1,57,8
1491089102884,1,12,52,52,25,2,-1,-6,-7
1491089102884,1,-77,-128,-79,-91,-8,1,-41,-17
1491089102885,2,127,127,127,127,87,0,37,41
1491089102885,2,-41,-104,-106,-68,-1,1,10,-9
1491089102886,3,-5,25,-19,-81,-42,-2,-44,13
1491089102886,3,2,7,-24,28,39,-6,32,-15
1491089102887,0,-13,-91,-128,-128,-38,-5,-22,-5
1491089102887,0,-90,-79,37,27,-73,-3,47,-20
1491089102921,1,94,92,127,81,106,1,34,34
1491089102921,1,-2,-26,-56,85,56,-3,22,-4
1491089102923,2,5,-11,55,35,-58,3,-41,-6
1491089102923,2,18,-5,-16,3,52,0,10,10
1491089102923,3,-67,-76,-69,-128,-69,1,-43,-31
1491089102923,3,-29,-69,-68,-21,-44,1,19,2
1491089102959,0,1,19,88,63,25,-2,9,-6
1491089102959,0,28,24,-72,-36,-21,2,-13,6
1491089102961,1,8,63,72,48,77,0,6,-3
1491089102961,1,-24,2,81,38,-14,-2,4,0
1491089102962,2,-39,-94,-89,-73,-11,-3,-5,-6
1491089102962,2,58,123,66,53,41,4,-10,11
1491089102963,3,-24,27,37,-63,38,-3,23,-7
1491089102963,3,22,62,90,80,-52,0,-20,0
1491089102997,0,-19,-12,-89,-46,7,2,7,8
1491089102997,0,21,10,-55,-19,12,-7,20,-3
1491089102998,1,-43,-55,-47,-37,-63,-1,-24,-11
1491089102998,1,0,8,-10,-15,29,-6,17,-8
1491089102999,2,-4,-29,-7,11,-25,-1,43,-4
1491089102999,2,-17,-37,-128,-37,-7,1,-9,-2
1491089103000,3,13,-40,90,78,9,-3,28,8
1491089103000,3,10,96,105,35,24,0,0,-5
1491089103034,0,26,31,-61,0,-23,-4,-30,-6
1491089103034,0,-2,-40,5,-35,-12,-4,-7,4
1491089103035,1,-37,-70,-64,-22,-25,-1,16,-11
1491089103035,1,9,22,1,-43,16,1,-12,13
1491089103036,2,-4,3,28,5,-4,4,27,-5
1491089103036,2,-7,-26,24,95,-34,-1,2,-2
1491089103036,3,3,8,15,28,-5,0,-29,-3
1491089103036,3,11,-18,-55,-35,-34,1,10,-2
1491089103071,0,-14,30,-4,-52,-3,0,-21,1
1491089103071,0,-17,-43,2,-2,32,-4,4,3
1491089103073,1,-6,-13,-109,-25,-33,1,32,-4
1491089103073,1,33,42,55,61,13,0,-15,2
1491089103073,2,6,25,40,41,7,-1,29,7
1491089103073,2,-5,26,10,-23,-13,3,-24,-13
1491089103074,3,-23,-38,-63,-99,-10,-1,24,7
1491089103074,3,-2,-10,12,51,-27,-5,-70,-14
1491089103109,0,-3,7,10,29,16,-8,-25,-5
1491089103109,0,-2,16,52,13,-13,-3,12,6
1491089103111,1,-23,-60,-106,-52,-44,0,-25,-8
1491089103111,1,-5,-46,27,-1,-27,0,20,2
1491089103112,2,6,21,72,71,25,-2,3,0
1491089103112,2,5,-5,-33,-19,-8,-2,-33,4
1491089103112,3,-14,9,-8,-5,4,-3,-1,-6
1491089103112,3,-7,-28,-73,-36,9,-5,-3,-11
1491089103147,0,6,-8,-1,-16,-3,0,-22,-3
1491089103147,0,30,82,52,-5,-15,-1,27,10
1491089103148,1,-13,-15,-30,-11,1,-4,-31,-9
1491089103148,1,-6,-63,-83,-28,-23,-4,11,2
1491089103149,2,12,53,11,2,31,-1,13,2
1491089103149,2,-12,3,3,4,25,0,-8,-12
1491089103150,3,31,13,58,37,17,-4,-14,10
1491089103150,3,-35,-10,-43,-36,-2,4,36,-4
1491089103184,0,-16,-67,-77,-29,-18,-2,-4,-14
1491089103184,0,28,24,28,43,-17,1,-9,11
1491089103185,1,-40,-19,62,11,14,-1,25,-16
1491089103185,1,-4,12,-14,-8,20,-2,-23,-2
1491089103186,2,68,42,17,-20,-13,-3,53,30
1491089103186,2,-41,-45,-45,-17,-3,0,-9,-22
1491089103187,3,7,18,-7,-6,-15,0,-17,7
1491089103187,3,-8,19,-20,7,9,0,4,8
1491089103221,0,-15,0,12,-9,-13,1,4,-13
1491089103221,0,-16,-7,24,-11,4,0,21,3
1491089103222,1,-10,6,-19,35,-12,0,14,3
1491089103222,1,7,-44,-36,-53,-15,-1,39,-2
1491089103223,2,-33,-31,-8,-2,14,-2,-51,-15
1491089103223,2,62,90,41,6,12,-5,1,18
1491089103224,3,-12,-9,-14,-21,-13,-4,-6,-7
1491089103224,3,-9,-14,14,43,-6,-3,-13,9
1491089103260,0,-25,-38,0,-23,-23,1,-53,-20
1491089103260,0,-6,14,-10,12,-1,-4,28,1
1491089103261,1,18,-20,23,-16,13,-1,-36,-15
1491089103261,1,-5,47,12,0,3,-1,13,-2
1491089103266,2,46,32,50,34,29,-4,13,12
1491089103266,2,-6,-57,1,-5,18,-5,-33,-1
1491089103267,3,41,-3,27,18,-6,-2,-13,0
1491089103267,3,-77,-40,-106,-37,-24,-2,-2,-26
1491089103296,0,26,-6,-27,2,6,-2,30,3
1491089103296,0,-59,-19,19,-13,-1,2,66,-7
1491089103297,1,2,-3,-20,-4,17,3,-41,0
1491089103297,1,12,-5,56,3,-13,0,-7,0
1491089103298,2,2,-14,15,3,-2,1,-18,4
1491089103298,2,-36,-35,-128,-7,4,1,-10,-15
1491089103299,3,-4,25,26,35,-5,1,21,8
1491089103299,3,29,5,101,0,-24,1,9,9
1491089103372,0,-10,42,45,24,2,-1,-44,-5
1491089103372,0,56,26,2,-4,-3,-6,-22,3
1491089103372,1,-33,-32,-55,-18,-2,-4,12,-12
1491089103372,1,-34,-79,-104,-37,0,-9,7,-7
1491089103373,2,-4,22,22,-30,-2,-1,-4,1
1491089103373,2,-16,26,54,58,13,1,33,-28
1491089103374,3,92,117,-9,21,5,4,11,36
1491089103374,3,-6,11,46,-4,4,-1,-7,-3
1491089103409,0,-13,-10,-128,-45,3,-1,1,-14
1491089103409,0,-6,-34,17,-12,-9,-1,-6,-1
1491089103410,1,9,31,119,34,-1,0,-35,-14
1491089103410,1,43,-26,-85,17,4,-4,8,26
1491089103411,2,-31,40,46,5,13,0,56,-3
1491089103411,2,12,-39,3,-1,-11,4,-48,8
1491089103411,3,43,4,11,16,-12,-8,6,-1
1491089103411,3,-81,-65,-42,-30,18,0,-60,-14
1491089103484,0,82,56,-9,18,9,-1,13,-11
1491089103484,0,-34,-1,49,19,-4,3,18,3
1491089103485,1,-26,-65,-15,-17,-10,-1,-1,-14
1491089103485,1,-23,-6,7,-25,-7,-3,7,3
1491089103486,3,-18,48,20,-2,3,2,66,3
1491089103486,3,-52,-23,44,20,11,1,-36,0
1491089103489,0,-46,-59,4,-12,-30,-8,-71,-34
1491089103489,0,-34,-116,-94,-18,8,-10,52,10
1491089103521,1,72,94,78,62,11,-3,8,12
1491089103521,1,38,56,45,-13,2,2,-49,-10
1491089103522,2,-47,-23,63,16,24,-1,65,-5
1491089103522,2,29,11,-32,-5,-23,2,-3,9
1491089103523,3,-104,-128,21,-20,-2,-25,-36,-15
1491089103523,3,89,17,119,44,8,-32,49,13
1491089103524,0,-49,-31,-8,-5,-8,37,-18,6
1491089103524,0,84,-34,-80,17,0,22,0,15
1491089103559,1,20,62,-11,-15,-16,63,-3,-12
1491089103559,1,-28,-66,-127,21,19,8,-19,-12
1491089103560,2,18,88,84,-19,13,25,27,23
1491089103560,2,-19,-47,9,2,19,-27,-23,-19
1491089103560,3,18,42,58,7,5,-3,-7,13
1491089103560,3,-22,30,-21,18,8,17,29,11
1491089103561,0,9,-4,55,-7,2,50,-54,-1
1491089103561,0,11,86,-123,-56,-19,127,-54,-27
1491089103596,1,-60,-112,-1,-22,-10,17,0,-9
1491089103596,1,11,59,30,5,5,-13,60,26
1491089103597,2,-53,-14,22,50,22,-61,-44,-24
1491089103597,2,74,0,24,2,-25,-86,2,6
1491089103598,3,-48,-4,-83,-52,2,-33,-59,-10
1491089103598,3,62,53,27,-26,-9,16,23,10
1491089103599,0,1,-55,-48,21,-2,-43,49,4
1491089103599,0,-11,-46,-33,-1,5,35,-22,1
1491089103634,1,-14,-56,7,-4,-28,-63,15,-11
1491089103634,1,-47,-101,-21,1,3,1,-79,-9
1491089103635,2,112,127,46,-27,11,54,81,23
1491089103635,2,-7,-76,60,71,4,-28,35,-13
1491089103635,3,2,-17,-50,-14,16,12,-14,-1
1491089103635,3,21,17,-2,-23,-12,-42,-2,-1
1491089103636,0,-52,-81,-32,21,2,-37,-27,-23
1491089103636,0,-28,32,-7,-17,-8,11,-11,34
1491089103671,1,11,6,-4,-19,1,-52,-9,-24
1491089103671,1,-90,-26,0,4,-12,-1,26,-28
1491089103673,2,127,-26,-52,-22,-25,-34,21,33
1491089103673,2,-66,30,44,-4,5,-5,-33,-23
1491089103674,3,37,3,6,56,14,-7,-10,24
1491089103674,3,35,101,42,8,2,12,-6,3
1491089103675,0,-48,-48,-53,0,-17,-15,-31,-17
1491089103675,0,-68,-80,5,-16,-9,-65,51,-12
1491089103709,1,101,55,-5,-20,1,35,-7,25
1491089103709,1,-31,-41,-60,-27,-5,26,-52,-11
1491089103710,2,32,-23,37,24,-4,3,40,18
1491089103710,2,10,93,23,-24,5,-13,-63,-10
1491089103711,3,-39,19,8,-20,6,18,100,3
1491089103711,3,-73,-103,13,37,5,-51,58,0
1491089103712,0,69,102,-14,-25,-3,-7,-116,-2
1491089103712,0,-62,-58,19,16,-1,29,82,5
1491089103746,1,49,20,-8,16,-9,-49,-12,8
1491089103746,1,-25,-2,-15,-15,0,-8,6,-3
1491089103748,2,-3,-13,20,3,-3,-23,-5,7
1491089103748,2,10,-34,-16,22,0,-19,-9,2
1491089103749,3,5,5,-27,-2,0,-13,-52,-4
1491089103749,3,34,36,26,-4,-4,21,37,4
1491089103750,0,10,-10,-12,-8,-4,-3,-34,-16
1491089103750,0,15,-4,10,-16,2,34,13,18
1491089103784,1,-36,-18,-37,-7,-5,15,-36,-22
1491089103784,1,50,23,7,0,-4,-7,49,5
1491089103786,2,-43,8,32,10,13,10,-33,-9
1491089103786,2,-34,-23,3,-16,-19,-26,13,-2
1491089103787,3,26,-6,-5,7,-9,26,1,12
1491089103787,3,4,3,13,41,12,-8,79,-2
1491089103788,0,-34,-13,-19,-15,-10,3,-29,-8
1491089103788,0,20,0,2,25,-7,-13,-28,-7
1491089103822,1,32,10,-26,-7,6,23,34,10
1491089103822,1,-7,14,6,2,-10,-3,-17,-6
1491089103824,2,14,-7,43,30,14,-8,43,5
1491089103824,2,-13,12,-18,-15,-3,20,-26,-2
1491089103825,3,-25,4,7,-14,-9,-29,4,1
1491089103825,3,-13,-13,-16,-20,1,8,24,0
1491089103860,0,-49,-36,-17,0,-5,21,28,-10
1491089103860,0,32,49,5,-35,9,10,0,-10
1491089103863,1,40,-8,-25,-24,-3,61,-17,-15
1491089103863,1,6,-9,-9,-52,-9,43,-62,-5
1491089103864,2,14,27,15,4,14,-10,53,2
1491089103864,2,-83,-42,-16,-35,-4,4,-3,-23
1491089103866,3,-25,5,8,-12,-2,28,-45,-4
1491089103866,3,22,-21,-33,-26,-15,-8,-3,4
1491089103897,0,57,32,-15,-14,-2,-33,17,10
1491089103897,0,-43,12,37,37,14,-15,-5,-5
1491089103898,1,-28,1,19,31,10,-28,6,-8
1491089103898,1,-52,-25,5,19,-8,26,-25,-12
1491089103899,2,-32,-19,-6,14,-9,9,-20,5
1491089103899,2,21,-31,7,34,5,-29,5,-1
1491089103900,3,13,26,-11,10,-5,-5,-11,17
1491089103900,3,10,6,24,11,6,-14,12,9
1491089103934,0,-20,-13,-12,5,-12,31,-36,-8
1491089103934,0,35,7,-14,-1,3,-8,13,7
1491089103935,1,-17,-18,-13,-35,-10,-20,14,-4
1491089103935,1,75,59,26,27,13,-29,1,8
1491089103936,2,-44,-17,9,1,0,33,5,-7
1491089103936,2,22,-12,8,0,14,32,19,16
1491089103972,3,-37,-26,-20,8,-14,-34,-40,-12
1491089103972,3,21,-8,-3,3,3,-12,12,3
1491089103973,0,-18,27,-4,-36,-1,25,16,13
1491089103973,0,8,21,12,15,5,-10,-28,-2
1491089103981,1,2,-13,11,9,-2,-6,41,-9
1491089103981,1,9,-2,4,-6,-7,-11,-13,13
1491089103981,2,52,20,-15,-10,-20,19,36,6
1491089103981,2,-38,-9,-21,-22,-4,37,-64,5
1491089104047,3,42,4,-11,5,1,-21,-38,-4
1491089104047,3,-30,-10,-55,-53,-11,-18,-56,-4
1491089104049,0,22,6,38,17,10,-1,60,2
1491089104049,0,33,51,44,80,-4,-1,-34,-7
1491089104050,1,-87,-66,-6,-46,6,45,104,-1
1491089104050,1,-14,16,-21,-18,-16,2,-25,-23
1491089104051,2,69,-27,-9,-8,20,-43,-2,18
1491089104051,2,-28,16,3,-14,1,10,57,-5
1491089104084,3,-28,6,25,13,4,-17,-68,-3
1491089104084,3,46,-3,-26,-12,7,-24,43,0
1491089104085,0,-17,-13,-3,-9,-14,-11,-60,-4
1491089104085,0,39,-31,-3,3,-2,-13,100,23
1491089104086,3,32,53,3,-18,-12,1,5,-1
1491089104086,3,11,32,53,50,30,36,-24,21
1491089104121,0,-12,12,36,18,-13,-16,37,9
1491089104121,0,-114,-85,-59,-21,-3,25,-48,-55
1491089104123,1,101,57,-46,28,-9,-42,36,27
1491089104123,1,-32,1,56,-47,-11,-31,14,-26
1491089104123,2,82,9,-55,-5,27,72,80,31
1491089104123,2,-65,0,56,-2,6,-52,-13,-14
1491089104124,3,53,80,66,56,6,38,32,8
1491089104124,3,-65,-66,-32,42,-2,13,-30,-21
1491089104159,0,16,-12,11,-21,-26,-20,49,-3
1491089104159,0,-3,-85,-83,-6,-7,-20,30,-7
1491089104160,1,-6,-18,61,-28,29,6,-25,7
1491089104160,1,34,102,-82,-36,-17,3,-12,11
1491089104161,2,-93,-20,44,-4,-5,26,19,-20
1491089104161,2,54,-59,-84,-52,-27,-33,35,15
1491089104162,3,-71,0,83,-20,-27,-91,-62,-33
1491089104162,3,105,101,103,105,68,30,86,35
1491089104196,0,18,13,-83,96,25,11,23,0
1491089104196,0,-25,-7,17,-5,2,32,-92,-30
1491089104197,1,-41,-128,-128,-18,-38,-18,55,-5
1491089104197,1,17,-19,-70,-128,-45,-59,-15,-4
1491089104198,2,-18,20,127,-32,43,35,-4,-13
1491089104198,2,91,97,61,104,-1,118,91,16
1491089104199,3,-85,-85,-122,-51,-3,18,-90,-18
1491089104199,3,1,-83,8,-29,-8,-80,-49,-23
1491089104234,0,43,31,3,-6,-18,33,-33,3
1491089104234,0,-46,-63,-55,-20,-6,14,-12,-19
1491089104271,1,33,-62,-29,35,6,41,56,36
1491089104271,1,-71,99,-58,9,-28,67,-71,-12
1491089104272,2,-46,-128,21,-128,-17,-84,4,-19
1491089104272,2,-66,-19,6,-72,-30,-78,-79,-11
1491089104273,3,-50,84,98,62,46,7,44,-17
1491089104273,3,-31,-97,25,65,3,23,-4,18
1491089104274,0,38,77,108,95,25,-11,54,1
1491089104274,0,78,-16,-44,14,-10,-44,-41,11
1491089104309,1,53,-43,33,-113,-36,-40,29,3
1491089104309,1,-106,-47,127,88,33,16,-38,-43
1491089104310,2,13,-62,-123,52,-12,48,67,-5
1491089104310,2,103,127,53,-56,-11,12,-8,13
1491089104310,3,-39,-104,-124,-53,2,-28,-63,-11
1491089104310,3,9,89,10,-5,-6,35,-71,-10
1491089104311,1,13,-37,-55,-19,-71,65,-20,-4
1491089104311,1,-99,-128,-112,-5,34,-91,35,-42
1491089104346,2,29,53,31,-23,-35,86,-29,8
1491089104346,2,112,127,125,27,8,36,62,60
1491089104347,3,-41,-7,-29,4,24,50,15,4
1491089104347,3,50,41,58,5,-20,-45,-46,-45
1491089104348,1,-38,-60,127,99,24,-64,20,-43
1491089104348,1,104,16,-3,-38,-17,103,50,38
1491089104349,2,-56,-52,-61,-22,-1,-71,-71,-28
1491089104349,2,10,98,26,43,-39,71,14,-5
1491089104384,3,-10,-43,-10,11,15,6,37,50
1491089104384,3,-40,-75,-91,-17,5,-91,35,-31
1491089104385,0,9,28,67,22,-11,-23,-76,11
1491089104385,0,-7,-126,-128,-55,-28,-5,56,5
1491089104385,1,1,64,127,-16,4,-27,-49,-32
1491089104385,1,127,127,120,10,11,-58,21,65
1491089104386,2,-100,-83,-47,66,-1,11,-38,-27
1491089104386,2,30,45,49,40,8,31,-5,18
1491089104421,3,87,-59,-90,-93,-15,-37,-22,15
1491089104421,3,-85,-117,-43,48,1,-35,-44,-54
1491089104423,0,44,57,12,51,-6,-20,-2,25
1491089104423,0,-48,31,-74,-53,24,-62,11,-9
1491089104424,1,115,127,125,85,16,127,-23,4
1491089104424,1,-35,-67,-67,-53,-9,10,72,50
1491089104427,2,-60,-128,-71,-82,4,-97,-18,-62
1491089104427,2,20,10,35,91,-14,63,-33,-5
1491089104497,3,123,126,-25,-88,11,53,13,61
1491089104497,3,-36,-86,-1,33,-3,88,21,15
1491089104499,0,9,38,-52,-84,-25,60,21,11
1491089104499,0,-95,-128,115,54,5,-16,-34,-49
1491089104500,1,-29,39,-128,-60,-1,-40,-18,-36
1491089104500,1,31,-74,-18,39,8,62,44,9
1491089104501,2,42,-35,28,8,-8,68,20,50
1491089104501,2,-71,-128,-128,-117,-7,-25,-45,-5
1491089104534,3,-95,-98,127,-8,-32,-11,17,21
1491089104534,3,71,127,113,28,2,-7,18,-24
1491089104535,0,-41,-6,-51,57,-1,-23,-55,-2
1491089104535,0,-128,-119,-115,-111,-70,-62,26,-31
1491089104536,1,87,85,85,89,14,-14,21,7
1491089104536,1,77,107,90,43,59,-9,-5,33
1491089104537,0,12,21,127,60,25,2,-10,-2
1491089104537,0,-54,-108,-128,-51,-13,-7,10,-1
1491089104571,1,-64,-93,-1,77,52,0,13,-26
1491089104571,1,96,73,-107,1,-7,-3,2,16
1491089104609,2,-69,-125,-128,-110,-46,-3,-1,-2
1491089104609,2,-68,-41,127,25,42,-5,-1,-20
1491089104610,3,64,84,75,27,31,-11,-10,59
1491089104610,3,-46,-128,16,70,-14,3,4,-11
1491089104618,0,-16,5,-110,-109,-27,0,-36,-28
1491089104618,0,92,127,63,102,17,-14,71,37
1491089104618,1,-111,-117,97,36,-11,2,-21,-52
1491089104618,1,90,86,106,84,5,9,2,29
1491089104647,2,13,-57,-83,-63,-19,-3,-7,-9
1491089104647,2,-36,-100,-60,-114,2,-7,2,28
1491089104648,3,26,12,-120,-13,-49,3,-17,-7
1491089104648,3,-110,-128,23,-122,-2,0,-21,5
1491089104649,3,-50,47,22,-54,12,-2,15,-22
1491089104649,3,12,72,-51,31,8,3,-20,-17
1491089104650,0,88,4,56,0,43,6,37,5
1491089104650,0,-23,-3,51,64,10,-1,-28,5
1491089104684,1,-48,-76,-128,-3,-31,-4,3,-14
1491089104684,1,-36,-55,-110,-37,-36,3,-2,-14
1491089104685,2,12,113,75,31,2,-1,-6,-5
1491089104685,2,30,-32,-125,-89,-30,-6,-5,-9
1491089104687,3,32,74,127,51,46,-6,12,13
1491089104687,3,-40,-61,91,55,58,-1,17,-11
1491089104688,0,113,127,-72,55,-29,9,-7,12
1491089104688,0,-43,-81,81,-22,-7,-2,-18,1
1491089104721,1,-55,-33,-92,-39,-5,-4,-3,8
1491089104721,1,4,20,-83,-107,-51,-3,-7,-9
1491089104722,2,-42,-128,-97,-28,-20,-8,-16,-10
1491089104722,2,-65,-74,96,-55,-11,1,-3,-21
1491089104723,3,73,117,-19,127,45,-1,10,7
1491089104723,3,4,-3,-29,-40,23,-1,-16,3
1491089104724,0,-19,-36,-36,-80,-38,0,-6,-11
1491089104724,0,3,31,63,95,23,-1,-9,8
1491089104759,1,-80,-72,-99,-92,10,3,2,-13
1491089104759,1,83,35,-45,-55,-44,2,0,10
1491089104760,2,-54,-48,84,-56,14,-5,-4,-18
1491089104760,2,116,127,61,127,65,1,-14,18
1491089104760,3,-6,-85,40,2,-9,-4,-4,-11
1491089104760,3,-84,-103,-103,-85,-34,1,1,9
1491089104761,0,-15,-20,-97,-51,-23,1,-7,-15
1491089104761,0,-31,-23,-38,-62,6,-2,6,-2
1491089104796,1,22,5,53,98,-5,-3,-4,-1
1491089104796,1,-55,-71,26,-93,-17,-4,-29,-17
1491089104797,2,70,96,95,88,29,-5,11,17
1491089104797,2,0,23,-128,-73,-3,-2,25,0
1491089104798,3,11,14,56,19,20,-1,5,11
1491089104798,3,-27,-18,68,-28,1,-2,-12,-4
1491089104799,0,-10,-24,17,29,7,-1,32,2
1491089104799,0,8,14,-33,83,-39,0,-14,-1
1491089104834,1,-29,-76,-128,-63,7,0,-5,-14
1491089104834,1,32,24,-2,73,13,-3,-7,7
1491089104835,2,13,38,90,-53,-1,0,33,10
1491089104835,2,3,28,37,77,-42,-1,6,-6
1491089104836,3,4,-5,54,-36,3,0,-19,-2
1491089104836,3,7,38,50,95,51,-2,-1,2
1491089104837,0,7,-14,-116,33,6,-4,-65,-6
1491089104837,0,-33,-55,-77,-91,-4,-4,9,-6
1491089104871,1,1,13,30,-4,-48,-1,-20,-8
1491089104871,1,-2,11,20,5,29,-1,7,1
1491089104872,2,-1,-21,-67,-94,-23,2,1,2
1491089104872,2,3,-26,-15,70,-30,5,6,3
1491089104873,3,19,55,41,-12,26,-2,-14,6
1491089104873,3,-2,2,-26,-53,-8,-3,-9,-8
1491089104875,0,-12,-7,-13,15,4,-2,-15,-6
1491089104875,0,-9,-41,-7,-19,47,-5,26,-1
1491089104909,1,38,82,100,83,-41,2,16,13
1491089104909,1,10,56,51,19,-13,-8,69,6
1491089104910,2,-17,-22,-39,-64,5,1,6,2
1491089104910,2,16,-5,-22,-27,85,-4,-38,-4
1491089104911,3,-14,-27,-66,-2,-78,-5,-18,-14
1491089104911,3,-13,-10,-31,-56,6,1,-5,-6
1491089104911,0,-8,25,-18,-40,23,-2,44,2
1491089104911,0,21,48,63,77,-14,-3,3,1
1491089104947,1,-12,-17,-21,-38,53,-2,67,-3
1491089104947,1,1,-4,5,-40,-30,1,-6,8
1491089104948,2,-15,-7,16,43,-1,-4,-32,-14
1491089104948,2,-10,4,-47,-45,-51,2,-26,-4
1491089104949,3,23,13,14,-2,23,-3,1,8
1491089104949,3,-21,6,39,53,24,-2,1,-1
1491089104984,0,-7,-27,-23,15,-26,1,-18,-7
1491089104984,0,16,15,7,9,46,-6,25,11
1491089104985,1,-13,-1,-23,-67,-77,1,-7,-10
1491089104985,1,-10,29,4,35,10,-1,-42,-4
1491089104986,2,19,4,-5,-21,14,-2,-31,6
1491089104986,2,-4,6,26,32,35,1,33,0
1491089104986,3,-11,-50,-43,-60,-20,3,13,-6
1491089104986,3,-6,-38,-16,-59,-5,0,32,2
1491089105021,0,13,6,58,76,10,-3,48,0
1491089105021,0,0,-32,-37,-30,-47,2,-9,-3
1491089105023,1,2,-22,21,-2,1,-2,-36,-5
1491089105023,1,-6,-29,-29,-20,-42,-1,-9,-19
1491089105023,2,0,-26,27,19,-7,-3,-23,-5
1491089105023,2,4,-2,9,-36,-29,-3,23,-8
1491089105024,3,0,-18,26,43,48,1,-2,2
1491089105024,3,13,-21,-6,10,-14,0,3,-2
1491089105059,0,-17,-46,-15,-30,-5,-1,-10,-6
1491089105059,0,-16,-55,-14,0,-51,-1,-23,-5
1491089105060,1,15,-28,8,52,-4,-2,35,3
1491089105060,1,-5,5,-15,-16,-12,-4,-25,-1
1491089105060,2,-2,23,32,5,20,0,18,6
1491089105060,2,-19,23,-24,-40,-2,-5,-15,-2
1491089105061,3,-1,14,9,28,-20,-6,-11,4
1491089105061,3,20,11,-5,9,-1,0,21,2
1491089105097,0,9,6,-29,-39,15,-3,11,4
1491089105097,0,-39,1,8,21,5,0,11,-9
1491089105098,1,9,65,29,23,-6,-1,-32,1
1491089105098,1,-4,10,8,35,17,2,0,0
1491089105099,2,23,13,-12,-29,-37,-3,26,16
1491089105099,2,8,12,7,8,24,-3,-29,-1
1491089105134,3,-13,-12,-5,-7,19,2,6,1
1491089105134,3,-5,13,8,-4,-22,-2,1,-5
1491089105135,0,-14,-23,-11,30,-36,2,7,-9
1491089105135,0,8,47,26,-11,-3,2,-15,-3
1491089105136,1,14,-1,2,8,28,-1,-13,-5
1491089105136,1,-6,12,7,11,-4,0,11,9
1491089105137,2,6,10,-5,-7,1,-3,-15,1
1491089105137,2,-46,-60,-67,-35,-4,-5,3,-18
1491089105172,3,23,9,-37,-7,-18,-4,-15,-1
1491089105172,3,20,25,57,31,16,-3,19,12
1491089105173,0,6,1,-1,-17,9,2,-2,-9
1491089105173,0,-4,-6,4,12,-6,3,-8,3
1491089105174,1,-16,-14,-18,-22,-17,-3,-31,-3
1491089105174,1,-22,-48,-47,-27,2,-5,-34,-6
1491089105174,2,-3,12,-16,27,-19,-3,20,6
1491089105174,2,14,5,37,23,17,-4,39,8
1491089105209,3,1,24,11,-38,-12,0,-19,-4
1491089105209,3,-4,-15,-20,24,-3,0,25,-5
1491089105210,0,-30,13,-26,-17,13,-6,-19,-6
1491089105210,0,2,-5,-11,-14,19,0,-8,3
1491089105211,1,4,12,44,22,0,1,-1,-3
1491089105211,1,-49,-48,26,-2,9,-5,-2,-22
1491089105211,2,56,33,-10,18,-21,-1,-18,23
1491089105211,2,35,68,-7,-9,19,-4,8,-4
1491089105246,3,-32,-16,-6,8,14,2,-10,-2
1491089105246,3,-24,-65,-59,-23,-2,1,36,-7
1491089105247,0,-32,-9,14,-5,5,0,-29,-4
1491089105247,0,3,22,47,45,15,-2,17,-9
1491089105248,1,4,-44,-26,-31,-6,1,67,4
1491089105248,1,-22,2,8,-27,14,-1,-81,-19
1491089105284,2,37,51,39,23,5,-6,8,14
1491089105284,2,-49,-69,-58,-40,-10,-3,-60,-12
1491089105286,3,21,91,68,42,21,-2,-11,0
1491089105286,3,5,-16,-26,28,-2,-2,-1,6
1491089105287,0,-22,-33,-22,-31,17,-2,-10,-23
1491089105287,0,28,23,41,18,12,1,-22,21
1491089105287,1,24,2,4,36,-8,-5,-23,1
1491089105287,1,-25,-6,-33,-30,-8,-3,3,2
1491089105321,2,-27,-68,-1,1,5,3,-9,-14
1491089105321,2,-23,-19,-40,-13,-17,0,37,-5
1491089105322,3,4,45,26,-18,12,1,-40,-1
1491089105322,3,37,99,6,11,5,1,-1,26
1491089105323,0,-27,-74,33,6,-26,0,-21,-25
1491089105323,0,23,30,7,4,-4,2,2,24
1491089105324,1,-44,6,-12,18,7,4,4,-14
1491089105324,1,0,-2,45,5,17,-1,25,-4
1491089105360,2,11,2,-55,-32,-8,4,-14,3
1491089105360,2,-27,-81,23,-5,-17,-4,8,-10
1491089105361,3,-30,-38,78,33,3,-6,0,-11
1491089105361,3,63,103,-88,-19,-12,1,4,18
1491089105361,0,-6,62,-16,-4,19,1,30,1
1491089105361,0,13,-3,86,42,-3,-1,-10,-16
1491089105362,1,-25,-38,41,9,-5,-4,11,1
1491089105362,1,-20,-45,-49,5,-6,0,-19,-6
1491089105397,2,41,-43,-71,3,-14,0,-35,8
1491089105397,2,28,54,30,-28,29,1,60,-3
1491089105397,3,24,50,23,2,12,0,-11,16
1491089105397,3,-32,-37,-14,-22,-42,-1,22,-16
1491089105398,0,-86,-37,-50,28,8,3,-18,-23
1491089105398,0,48,28,-73,-52,-11,-4,-21,5
1491089105434,1,-26,-75,-86,12,-16,-2,-16,-3
1491089105434,1,27,31,87,1,18,-5,-4,-4
1491089105435,2,11,70,103,14,11,-4,64,25
1491089105435,2,-32,-92,-99,-5,-21,0,-37,-18
1491089105435,3,2,38,-12,-31,-5,-3,28,16
1491089105435,3,19,-93,-128,-23,-11,1,-22,7
1491089105436,0,-87,-40,77,14,2,-5,39,-14
1491089105436,0,35,116,108,46,26,0,0,-3
1491089105509,1,45,-17,-25,6,-3,0,35,-1
1491089105509,1,-13,-51,25,8,-1,-2,-52,0
1491089105510,2,65,106,6,-42,-12,-6,-15,9
1491089105510,2,-90,-128,-123,6,-17,3,7,-15
1491089105511,3,34,115,-26,1,11,-1,11,4
1491089105511,3,67,34,127,61,24,-3,10,14
1491089105511,0,29,3,84,0,34,-3,48,16
1491089105511,0,-19,-64,-4,-29,-27,-5,-45,-4
1491089105546,1,-127,-128,-128,-40,-33,-4,-72,-44
1491089105546,1,73,19,104,2,-13,-11,57,23
1491089105547,2,45,72,56,21,1,0,53,-10
1491089105547,2,-3,-52,3,18,12,-2,-11,20
1491089105548,1,23,0,67,12,5,-13,8,7
1491089105548,1,-93,19,79,30,-3,-7,-1,-22
1491089105549,2,6,-6,-3,33,17,-2,17,-4
1491089105549,2,58,111,-61,-25,5,31,-14,17
1491089105584,3,-43,-96,9,-32,-11,23,-31,-17
1491089105584,3,5,36,-113,-17,-15,6,9,-5
1491089105585,0,-29,-63,-18,16,-13,-10,-48,-11
1491089105585,0,2,13,38,21,11,1,2,8
1491089105585,1,34,42,68,45,15,-23,48,-3
1491089105585,1,34,-21,5,3,16,-4,86,9
1491089105586,2,-63,-8,-78,-34,-29,-6,-111,-21
1491089105586,2,27,-12,-27,-33,-11,21,19,-6
1491089105659,3,-46,-53,36,18,10,25,-9,3
1491089105659,3,14,-2,-8,-6,2,117,59,1
1491089105661,0,28,6,0,-12,4,-23,-25,24
1491089105661,0,-48,-63,4,-12,-1,-73,61,-10
1491089105662,1,80,-33,-28,10,-11,-48,-83,11
1491089105662,1,-57,7,16,-4,6,-1,21,-21
1491089105663,2,-40,-117,-52,3,-6,-2,-25,-9
1491089105663,2,39,117,86,4,12,34,-15,-1
1491089105697,3,-21,2,-7,-52,13,-17,2,-3
1491089105697,3,-19,-67,-51,11,-7,-27,-8,-3
1491089105697,0,77,117,3,6,-16,36,-24,-15
1491089105697,0,-81,-62,2,4,-1,27,17,-15
1491089105698,1,40,-1,8,25,4,-35,-26,14
1491089105698,1,2,-10,0,-25,-10,-39,-37,1
1491089105699,0,22,-30,6,-7,-27,-24,-23,22
1491089105699,0,50,104,55,27,13,23,18,5
1491089105734,1,-45,-70,-54,-26,-1,-4,-2,-23
1491089105734,1,33,17,7,-28,-9,-7,12,8
1491089105735,2,29,-29,-7,15,12,10,-7,29
1491089105735,2,-60,-101,-64,-27,-9,-22,-57,-3
1491089105736,3,16,70,33,50,11,25,39,4
1491089105736,3,51,87,18,-23,-3,33,26,3
1491089105736,0,-22,-37,13,-13,-6,32,7,-1
1491089105736,0,-44,-71,-8,-19,-6,-44,28,-14
1491089105809,1,22,19,-17,15,11,0,-52,-4
1491089105809,1,-16,7,-10,-17,-9,-18,-37,-17
1491089105810,2,-46,7,5,-13,-8,-6,-42,-16
1491089105810,2,28,-5,3,23,8,-19,-7,5
1491089105811,3,30,-27,-8,-12,-14,13,30,9
1491089105811,3,41,23,7,11,7,6,41,23
1491089105812,0,-45,-2,27,35,16,5,26,2
1491089105812,0,59,14,12,3,4,50,-46,-2
1491089105846,1,20,-7,0,4,-13,6,13,4
1491089105846,1,-18,21,11,21,-3,-53,-16,4
1491089105884,2,-19,-85,-38,-23,-13,-32,15,-4
1491089105884,2,95,127,46,35,18,1,48,21
1491089105885,3,-43,-39,-22,16,-18,-4,26,-13
1491089105885,3,-17,-1,-4,14,9,-34,-29,1
1491089105886,0,7,-18,27,1,-1,23,56,12
1491089105886,0,37,79,-13,-31,0,33,-12,-2
1491089105922,1,-30,-34,11,-11,-16,-1,13,-15
1491089105922,1,-5,20,-41,-82,-12,94,-3,7
1491089105923,2,29,40,-27,-89,-9,114,-49,5
1491089105923,2,-61,-43,-39,-87,-15,68,23,-1
1491089105923,3,46,8,-61,-66,-2,21,-97,8
1491089105923,3,-16,-16,15,-18,-8,-3,-10,-14
1491089105924,0,20,-16,-29,9,5,-5,2,-1
1491089105924,0,-25,-31,6,-14,-1,-17,18,-6
1491089105959,2,-6,-8,25,62,4,-63,12,5
1491089105959,2,-4,10,13,45,9,-28,-9,-7
1491089105960,3,-9,-14,-1,21,6,-45,12,6
1491089105960,3,21,22,2,19,-6,0,-9,12
1491089105961,2,24,-12,-22,-7,-4,5,-11,3
1491089105961,2,-29,-74,-13,0,-31,-34,-22,-2
1491089105962,3,27,78,-6,15,-10,-12,28,-10
1491089105962,3,-32,-53,-42,-19,2,-1,9,7
1491089105996,0,-32,13,22,19,-11,-44,18,0
1491089105996,0,-4,-2,34,12,16,33,-31,-2
1491089105997,1,24,-11,-24,-2,6,11,25,4
1491089105997,1,17,-40,-22,-8,-13,-19,-9,12
1491089105998,2,-25,36,60,-13,12,6,59,0
1491089105998,2,56,81,-39,22,10,32,-81,-8
1491089105999,3,-85,-14,55,12,-7,-14,-78,-20
1491089105999,3,17,-50,-40,-14,-10,13,28,6
1491089106034,0,57,-25,-35,-37,1,51,-38,2
1491089106034,0,-64,-8,-9,-5,-19,2,37,8
1491089106035,1,67,61,1,-2,-1,2,-62,-13
1491089106035,1,54,49,42,-4,6,-32,1,28
1491089106035,2,-81,8,12,31,-13,-28,-17,-35
1491089106035,2,78,-15,-26,10,13,43,35,19
1491089106036,3,-27,-46,23,15,1,-26,60,1
1491089106036,3,-2,-3,-43,-2,-12,-30,-84,-3
1491089106071,0,-16,38,-42,-25,4,-20,-27,-14
1491089106071,0,-61,-128,7,-48,-11,30,8,11
1491089106073,1,-20,75,-69,20,2,16,-9,-15
1491089106073,1,21,10,91,21,-4,1,30,-17
1491089106073,2,90,-16,9,51,15,-13,-11,28
1491089106073,2,-96,36,5,-25,-9,19,-41,-12
1491089106074,3,29,-82,62,13,27,4,85,30
1491089106074,3,52,58,-16,-33,-10,28,-94,-22
