1491087900533,0,-74,-2,-45,-103,-101,-29,-21,36
1491087900533,0,2,-94,8,107,42,-32,-18,-87
1491087900570,1,49,-27,9,113,45,5,-1,-76
1491087900570,1,8,-1,13,53,24,1,11,-46
1491087900607,2,11,32,24,54,17,12,12,-32
1491087900607,2,-42,46,6,-30,-4,20,32,45
1491087900609,3,-19,16,-5,-54,-37,-20,-14,8
1491087900609,3,-41,5,-4,-34,0,21,13,12
1491087900609,0,4,-4,-2,-21,20,28,23,13
1491087900609,0,19,8,-23,-64,-17,-14,-9,18
1491087900610,1,-12,-3,17,22,14,-2,0,17
1491087900610,1,-5,-1,-14,-28,-20,-20,-25,11
1491087900645,2,-9,-21,7,23,18,11,9,3
1491087900645,2,48,-13,-9,-15,8,11,0,1
1491087900647,2,-11,6,1,14,0,-1,18,6
1491087900647,2,40,-9,6,11,-20,-19,-17,9
1491087900648,2,122,-2,-5,5,-4,-9,-19,-1
1491087900648,2,-50,0,11,23,30,36,-24,-12
1491087900682,3,-80,-2,-1,-10,1,-9,31,-7
1491087900682,3,34,8,-9,-2,-8,-3,25,16
1491087900683,0,-24,0,6,19,-3,-22,-9,-13
1491087900683,0,-67,0,-13,-9,-11,-4,-39,-17
1491087900684,1,127,9,4,1,4,24,34,31
1491087900684,1,-105,-9,-4,-11,-7,-21,-37,-17
1491087900685,2,13,0,-3,9,-3,1,31,5
1491087900685,2,69,-11,-3,-11,2,2,-9,-13
1491087900720,3,-116,-20,-3,0,-3,-26,19,-2
1491087900720,3,43,3,5,-3,0,14,-33,15
1491087900721,0,72,-7,10,6,7,8,34,1
1491087900721,0,-44,-25,-1,2,6,9,32,8
1491087900721,1,35,-9,-16,-8,-13,-4,-70,-7
1491087900721,1,57,7,10,17,14,23,32,31
1491087900722,2,-16,-13,-6,15,-6,-37,-77,-13
1491087900722,2,53,0,-6,-32,-12,0,34,5
1491087900758,3,1,-4,-7,-16,6,-19,22,22
1491087900758,3,-55,-9,-8,2,-3,12,-2,-5
1491087900759,0,37,13,6,1,-9,0,0,3
1491087900759,0,-13,7,-1,-20,-5,-3,-20,-6
1491087900762,1,30,9,5,9,1,17,-29,-7
1491087900762,1,-82,-20,-8,-1,-6,-17,19,-20
1491087900764,2,91,20,2,6,2,9,32,20
1491087900764,2,-27,13,1,3,-3,-5,-2,16
1491087900795,3,-52,-5,1,19,0,12,18,-22
1491087900795,3,79,19,4,-4,18,8,0,6
1491087900797,0,-20,1,-4,-21,1,6,-10,-2
1491087900797,0,12,6,-3,2,-11,-24,40,22
1491087900832,1,10,7,-4,-2,-10,3,-83,-22
1491087900832,1,10,-10,11,23,6,2,8,-13
1491087900833,2,-83,-22,-8,14,-12,-19,-43,-21
1491087900833,2,-26,13,18,-6,18,28,34,2
1491087900834,3,21,-18,-8,10,8,-2,-14,0
1491087900834,3,-56,-14,-7,-26,-16,-8,-3,-1
1491087900835,0,28,2,5,13,17,34,31,-1
1491087900835,0,-50,-13,-4,-1,-14,-35,-76,-58
1491087900870,1,31,29,8,-8,3,12,62,40
1491087900870,1,2,-3,-18,-18,-5,-5,-29,12
1491087900871,2,-47,32,9,8,-14,-27,-26,-9
1491087900871,2,51,49,-6,6,1,21,37,19
1491087900871,3,-89,14,2,-27,5,3,23,-1
1491087900871,3,5,1,-8,-8,-13,1,-12,-6
1491087900872,0,22,-37,1,14,6,-5,-32,-3
1491087900872,0,-47,-34,-8,15,-2,-14,-47,-22
1491087900907,1,-55,-15,3,-14,-5,14,33,0
1491087900907,1,127,-5,-1,9,5,5,-6,-16
1491087900908,2,-44,-19,-5,-11,-3,-34,-29,-3
1491087900908,2,89,-8,-6,16,-2,6,22,-3
1491087900982,0,-38,-1,-5,-5,6,11,35,13
1491087900982,0,4,-6,0,-13,2,10,28,6
1491087900984,1,12,-14,-8,1,-11,-31,-14,-13
1491087900984,1,55,10,0,-15,3,14,63,32
1491087900985,2,-69,-1,3,6,-4,-2,-26,-36
1491087900985,2,20,5,2,5,-6,-25,-8,33
1491087900985,3,-80,-5,-10,-15,1,18,-11,-27
1491087900985,3,-57,6,10,17,-6,-21,13,18
1491087901057,0,-45,5,-1,-2,4,14,36,-8
1491087901057,0,57,-7,-5,-3,-6,-5,-34,1
1491087901059,1,-18,-8,2,-4,-16,-25,-58,-50
1491087901059,1,22,9,-2,-6,9,-4,23,20
1491087901059,3,50,-17,-11,-23,-14,-13,-15,10
1491087901059,3,-44,-14,12,-3,2,-11,-43,-18
1491087901060,0,1,-50,-7,-11,-11,0,-31,-5
1491087901060,0,-61,-16,2,-15,-6,-4,0,11
1491087901095,1,51,5,6,10,4,8,30,35
1491087901095,1,-19,-7,-9,-10,-13,-4,-81,-12
1491087901097,2,-36,19,3,-10,6,10,35,6
1491087901097,2,39,-1,-3,-2,-2,1,38,9
1491087901098,3,-58,0,4,17,0,5,-1,-1
1491087901098,3,63,16,-3,-1,4,-10,-10,-5
1491087901099,3,21,-8,-9,3,-11,-31,-15,-8
1491087901099,3,-50,-21,-3,-3,1,15,15,-2
1491087901132,0,4,6,7,2,-15,-20,-33,0
1491087901132,0,-54,-7,3,10,-5,-16,-45,-6
1491087901133,1,-27,0,-2,-17,4,18,9,-18
1491087901133,1,-38,-11,-11,-7,-3,3,9,0
1491087901134,3,-39,-2,-3,34,7,-7,-55,-32
1491087901134,3,24,9,-1,24,11,7,104,17
1491087901135,0,33,0,4,-2,-5,-16,-4,4
1491087901135,0,-49,-4,1,-39,-5,9,-26,-12
1491087901170,1,-30,2,4,-37,-21,-10,-18,21
1491087901170,1,48,-3,2,-19,8,15,33,33
1491087901171,2,39,6,-1,2,1,14,11,6
1491087901171,2,-11,2,3,12,-2,-19,2,-5
1491087901172,3,14,-15,-3,8,-1,2,-3,-22
1491087901172,3,-64,-16,0,13,0,-12,-35,-18
1491087901173,0,-1,7,-2,-11,0,-12,-18,-18
1491087901173,0,23,1,-13,-2,-4,5,20,11
1491087901207,1,0,8,1,-8,-1,9,21,-23
1491087901207,1,0,-7,3,14,-13,-29,-96,-19
1491087901208,2,-5,-20,-12,-9,1,14,21,-12
1491087901208,2,-61,0,1,-8,-6,-22,-2,-11
1491087901209,3,-19,-1,-5,-26,-2,12,28,8
1491087901209,3,42,5,-5,-11,-2,-20,4,5
1491087901210,0,-75,-2,5,-1,-11,-9,-43,-16
1491087901210,0,26,9,1,-2,5,24,-33,0
1491087901245,1,-25,-4,-2,5,-1,-17,-12,18
1491087901245,1,6,13,3,-6,5,19,-37,-5
1491087901245,2,-17,-3,-3,6,-12,-13,-4,-10
1491087901245,2,69,13,8,-9,6,9,41,24
1491087901246,3,-5,0,2,10,3,-1,-5,2
1491087901246,3,36,0,-1,-6,0,-6,-6,-3
1491087901247,0,18,-5,-1,2,-6,0,16,11
1491087901247,0,7,-4,-9,-8,4,10,7,-4
1491087901282,1,28,-5,14,26,-3,-12,-5,-18
1491087901282,1,-39,1,6,3,-4,-4,-24,-18
1491087901283,2,25,-16,-13,-15,7,14,21,5
1491087901283,2,-20,-4,-2,2,-4,7,1,-1
1491087901284,3,34,4,-4,-2,0,-17,7,7
1491087901284,3,-16,-4,-1,-13,-2,4,27,4
1491087901285,0,-8,27,5,-1,6,8,-17,8
1491087901285,0,19,27,-1,7,-6,-5,26,14
1491087901320,1,-50,-1,-10,1,3,0,-81,-27
1491087901320,1,71,7,2,12,-4,-1,49,17
1491087901320,2,-28,-13,-2,-11,6,7,19,-1
1491087901320,2,9,-19,-6,3,2,-7,-19,-4
1491087901321,3,-10,-1,5,4,2,8,10,-4
1491087901321,3,-63,-12,0,12,-2,-3,2,-11
1491087901322,0,44,-5,-5,9,-3,-15,-23,7
1491087901322,0,-24,-13,-4,-6,-5,1,17,-8
1491087901357,1,88,10,0,-11,2,11,33,26
1491087901357,1,-22,-2,-4,8,-4,-11,-26,-14
1491087901359,2,6,-25,-13,-15,1,7,25,-1
1491087901359,2,11,6,1,14,-2,0,11,2
1491087901360,3,-78,-12,1,11,4,-1,-33,-13
1491087901360,3,40,-2,-3,0,-2,-10,-12,-7
1491087901360,0,-32,-1,0,1,-6,-15,-12,-8
1491087901360,0,-4,-8,0,-2,-3,-11,3,-13
1491087901395,1,76,-4,-13,-17,-6,9,-12,6
1491087901395,1,-57,8,-4,-2,-2,0,4,-2
1491087901395,2,-2,3,6,24,-2,-8,-24,-8
1491087901395,2,-25,-2,-1,3,0,-10,-1,-6
1491087901396,3,16,2,-4,-6,5,14,0,11
1491087901396,3,15,1,5,-10,-10,-9,-22,-13
1491087901397,0,3,5,-5,3,8,11,14,14
1491087901397,0,-12,19,10,0,-2,-3,-2,-10
1491087901432,1,24,5,0,12,-10,-17,27,8
1491087901432,1,-69,-15,-12,-14,-4,15,37,9
1491087901433,2,45,7,2,-2,17,2,27,10
1491087901433,2,14,-5,0,1,-9,-20,-37,-2
1491087901434,3,10,-10,-6,-11,-1,-1,-17,-11
1491087901434,3,-13,-8,-4,-3,-10,-19,-9,0
1491087901470,0,-9,-5,3,-2,-6,10,48,15
1491087901470,0,-17,-16,-2,1,-9,-24,-94,-23
1491087901471,1,19,-2,3,-2,5,22,46,15
1491087901471,1,12,72,-3,-1,7,-6,4,-7
1491087901472,2,11,25,-13,-5,-4,-8,3,-10
1491087901472,2,14,7,4,6,3,9,5,23
1491087901472,3,-97,-24,-3,1,2,9,-6,-28
1491087901472,3,78,-44,-4,0,-1,-9,-2,19
1491087901507,0,-31,-41,-6,-10,2,7,7,-2
1491087901507,0,18,-6,4,-2,-4,-7,-14,-4
1491087901509,1,23,-19,-1,19,-15,-28,-27,-7
1491087901509,1,27,-9,1,-1,7,27,52,16
1491087901510,2,-33,8,3,-8,-11,-14,-31,-23
1491087901510,2,0,-16,-7,-6,13,32,11,6
1491087901511,3,48,-2,-8,-14,4,-14,25,17
1491087901511,3,-31,-6,0,-5,-3,-7,-23,-23
1491087901545,0,33,3,4,9,-2,0,-8,2
1491087901545,0,-11,-12,-4,15,-5,-2,-38,-5
1491087901546,1,10,8,0,-10,-3,19,31,11
1491087901546,1,-8,-10,-8,1,2,-23,-50,-16
1491087901547,2,13,2,1,-13,2,7,26,11
1491087901547,2,24,0,1,10,-8,-22,-8,-11
1491087901582,3,-29,4,0,2,3,-4,-32,-10
1491087901582,3,8,-22,-2,0,8,19,31,4
1491087901584,0,-67,-6,5,-8,-8,1,-11,11
1491087901584,0,27,6,-8,-8,11,28,16,18
1491087901585,1,-82,9,1,-8,-2,-3,-8,-18
1491087901585,1,39,-5,1,17,-13,-22,-14,-14
1491087901586,2,-20,3,-2,-8,5,4,16,3
1491087901586,2,60,9,12,6,5,4,33,18
1491087901620,3,2,-7,-5,-5,-5,-11,-12,0
1491087901620,3,-2,12,2,3,3,8,-15,3
1491087901621,0,42,5,0,18,-1,-10,-26,-16
1491087901621,0,-90,-6,-4,-5,-17,-13,19,-10
1491087901622,1,21,7,4,9,9,4,-25,3
1491087901622,1,3,-6,-2,-15,-5,16,49,8
1491087901622,2,-33,-12,-8,-2,7,-9,1,-4
1491087901622,2,5,17,-2,-7,-1,3,2,-2
1491087901657,3,-16,3,5,12,5,8,37,18
1491087901657,3,70,3,1,-14,-19,-23,-42,6
1491087901658,0,-49,4,3,-1,-3,14,-16,2
1491087901658,0,-8,-13,-5,-7,4,3,41,1
1491087901659,1,-33,-14,-6,1,-2,-17,-2,-8
1491087901659,1,-60,-10,-2,12,0,6,-14,7
1491087901660,2,46,-4,0,1,-4,-8,-11,-10
1491087901660,2,4,0,-8,-7,-6,-23,-47,-20
1491087901695,3,0,14,2,2,0,11,-3,-1
1491087901695,3,-2,2,-7,-2,-4,3,20,-2
1491087901696,0,-46,2,6,10,6,-3,-29,4
1491087901696,0,35,3,-8,-22,8,17,27,-8
1491087901697,1,47,6,0,-5,-8,-11,19,17
1491087901697,1,-4,-6,2,-1,-7,-21,-26,-21
1491087901733,2,21,-1,2,20,5,20,39,16
1491087901733,2,-17,-9,-8,-1,-4,-12,-9,-11
1491087901734,3,-29,0,7,-1,-5,-6,-12,-20
1491087901734,3,-7,3,-5,-5,4,3,-9,-11
1491087901735,0,0,1,-3,-10,-9,-8,-37,-9
1491087901735,0,-2,-2,2,-22,-4,11,35,19
1491087901736,1,5,-14,-8,-32,-14,-16,-30,6
1491087901736,1,38,-4,2,-26,-2,15,-8,28
1491087901770,2,8,-13,-11,-20,-11,-4,-18,-1
1491087901770,2,-24,-12,2,21,-8,-18,-38,-15
1491087901770,3,39,8,-6,22,6,10,27,5
1491087901770,3,-72,4,-5,17,13,4,10,-14
1491087901771,0,13,0,-4,17,-6,-15,10,-21
1491087901771,0,17,14,14,38,10,3,-2,-6
1491087901772,1,-17,-2,-1,-2,5,-8,-26,-22
1491087901772,1,26,-4,-9,-16,7,22,51,12
1491087901807,2,-28,12,12,4,2,-3,14,4
1491087901807,2,-17,-5,-7,-9,-19,-29,-26,-4
1491087901808,3,-1,3,0,2,6,14,2,6
1491087901808,3,2,-1,-1,0,-3,-2,-9,-1
1491087901809,0,-5,-11,-7,-15,-11,-12,-5,-11
1491087901809,0,-8,2,1,-7,-7,5,-7,4
1491087901810,1,13,-5,0,0,7,15,27,6
1491087901810,1,3,-3,2,-1,0,-2,-15,-2
1491087901845,2,9,2,5,9,7,6,36,-2
1491087901845,2,-16,-7,-9,-9,-6,-20,-56,-25
1491087901845,3,13,-1,-1,7,-4,3,8,-9
1491087901845,3,-37,-5,-7,7,-16,-21,6,-7
1491087901846,0,29,-1,0,1,8,7,-9,-4
1491087901846,0,-18,-7,-10,-20,-5,4,2,-2
1491087901882,1,28,1,2,2,1,-5,6,14
1491087901882,1,-42,-4,-3,-5,0,4,14,5
1491087901883,2,-8,-9,-8,-8,-6,-12,-21,-5
1491087901883,2,32,0,-2,-15,3,14,23,8
1491087901884,3,-32,0,5,-9,-9,-5,-20,3
1491087901884,3,-30,-4,1,0,-7,-19,-54,-17
1491087901885,0,84,-4,-5,-13,-6,14,50,38
1491087901885,0,-31,-3,3,10,5,-1,-12,-12
1491087901920,1,-47,1,-1,10,-6,-5,19,-5
1491087901920,1,7,1,1,-9,10,9,-6,-11
1491087901920,2,-3,4,-5,-1,-1,3,-14,1
1491087901920,2,84,7,6,8,7,11,41,12
1491087901921,3,-72,-4,-6,-8,-6,-14,-12,-12
1491087901921,3,-28,-7,-2,6,-10,-5,-18,-7
1491087901922,0,2,-2,4,-1,3,-6,1,-13
1491087901922,0,23,6,2,-2,-8,-12,-21,8
1491087901957,1,20,4,4,-3,3,5,21,6
1491087901957,1,35,-5,-3,-3,-3,8,8,10
1491087901958,2,-35,-11,-6,-6,-2,-1,-20,-6
1491087901958,2,5,2,-4,-15,6,-7,4,-2
1491087901959,3,-40,-4,-8,15,-4,4,-12,-1
1491087901959,3,77,17,9,-1,5,7,26,17
1491087901960,0,-59,-11,-1,10,2,0,-26,-25
1491087901960,0,-38,-7,0,1,6,2,46,10
1491087901995,1,66,3,0,-13,-7,-8,-21,-4
1491087901995,1,4,-4,0,1,-3,-8,-28,-21
1491087901996,2,-68,4,-5,-12,-4,3,27,10
1491087901996,2,-9,-5,0,14,-4,-1,-25,-6
1491087901996,3,-10,-4,1,2,-4,-19,-3,0
1491087901996,3,-15,6,-3,-2,0,-1,-7,2
1491087902032,0,18,0,-1,-3,-1,-3,12,-5
1491087902032,0,-25,1,-1,-2,1,8,-18,2
1491087902033,1,17,-9,-4,-6,-4,3,3,-9
1491087902033,1,14,18,9,12,-6,-3,18,18
1491087902034,2,-36,-6,-6,-3,2,-4,-17,-16
1491087902034,2,15,-2,-5,1,5,9,28,-6
1491087902035,3,0,-3,-4,-10,-2,-4,-37,-7
1491087902035,3,8,-8,0,9,-4,-2,-1,0
1491087902070,0,36,7,4,6,9,24,25,6
1491087902070,0,-31,-5,4,11,-4,-14,-13,-1
1491087902070,1,31,19,4,-7,-1,-8,2,2
1491087902070,1,-36,-11,-11,-7,0,7,31,-4
1491087902071,2,22,7,11,10,-9,-8,-18,2
1491087902071,2,-4,1,-8,-2,7,11,10,2
1491087902072,3,-24,-12,1,13,-8,-17,-26,-18
1491087902072,3,-2,0,-1,-3,8,7,9,9
1491087902107,0,15,2,-3,-6,-9,-12,1,-1
1491087902107,0,6,-1,0,2,0,0,-9,-4
1491087902108,1,5,4,3,-12,3,10,-6,3
1491087902108,1,-25,-6,-8,-16,-14,-16,-20,-6
1491087902145,2,20,-5,1,-5,2,5,3,15
1491087902145,2,-39,-6,-3,-10,2,10,33,-2
1491087902146,3,-15,-7,-8,-10,-7,-13,-13,-5
1491087902146,3,43,-2,1,3,4,2,-15,-5
1491087902220,0,18,-1,-10,-14,-6,-7,-18,-1
1491087902220,0,-34,-2,3,12,-11,-3,-22,-8
1491087902221,1,15,-1,1,3,12,13,51,13
1491087902221,1,-4,-2,-4,-3,-2,-5,-1,-8
1491087902222,2,-10,0,7,14,2,0,-7,0
1491087902222,2,40,-2,-10,-17,-6,-4,2,5
1491087902222,3,-13,-4,3,5,3,15,2,-14
1491087902222,3,-46,-17,-7,-2,-5,-11,-14,-13
1491087902295,0,-19,-1,-1,9,-5,-18,-24,-5
1491087902295,0,25,5,7,0,3,9,15,5
1491087902296,1,27,0,-9,-1,-3,2,2,12
1491087902296,1,50,3,1,0,-1,-8,-37,-14
1491087902297,2,-70,-10,-4,-10,3,11,44,1
1491087902297,2,20,19,4,5,0,-3,0,8
1491087902332,3,45,10,-1,-5,6,22,39,28
1491087902332,3,-26,4,2,2,1,-2,5,3
1491087902334,0,-17,-1,-3,-8,-4,6,19,-3
1491087902334,0,-20,-11,-7,-10,-2,-15,-21,-17
1491087902334,1,-4,-10,0,14,1,8,4,15
1491087902334,1,-43,-2,2,7,2,8,-6,-10
1491087902407,3,-15,-11,-10,-8,2,-8,-13,-21
1491087902407,3,2,2,-8,-13,2,11,19,4
1491087902409,2,27,-3,-14,-15,-3,-14,-41,-27
1491087902409,2,-76,-1,-1,3,-3,4,-2,9
1491087902410,3,50,-6,7,-1,1,7,10,5
1491087902410,3,-21,16,-1,-3,-2,-9,-3,1
1491087902411,0,19,-9,-2,1,-1,6,-2,2
1491087902411,0,-55,2,-4,-10,-3,2,-29,-20
1491087902483,2,5,-10,-3,-2,0,-4,-12,-8
1491087902483,2,-66,4,3,-6,3,4,-9,-10
1491087902484,3,-39,3,-5,-5,-5,-8,-17,-5
1491087902484,3,77,-3,1,1,-2,-3,19,2
1491087902485,0,-9,7,5,4,2,8,-2,-6
1491087902485,0,8,-10,-7,-8,-1,-5,9,12
1491087902520,2,12,17,9,-2,-2,-3,11,6
1491087902520,2,6,-3,-7,8,-6,-7,2,-2
1491087902521,3,22,3,-3,2,-8,-9,-33,-7
1491087902521,3,-16,4,-2,-6,-5,-2,5,-2
1491087902522,0,50,-2,-9,3,0,4,21,12
1491087902522,0,-10,-1,7,12,-3,-12,-41,-15
1491087902523,1,-64,-10,-6,-11,-8,10,28,6
1491087902523,1,9,-7,-6,5,14,13,35,-2
1491087902557,1,5,3,5,11,-3,-1,-12,3
1491087902557,1,-26,-6,4,9,4,2,-7,2
1491087902559,2,-20,-5,-7,1,-1,-12,-24,-14
1491087902559,2,-16,-6,-3,-11,-5,0,20,17
1491087902559,3,72,-5,-2,-1,5,3,2,-12
1491087902559,3,-16,9,2,4,-7,-5,-7,-3
1491087902560,1,32,8,3,5,0,4,36,1
1491087902560,1,-26,-6,-2,-4,-3,-7,-47,-11
1491087902595,2,-1,3,0,-1,0,2,28,6
1491087902595,2,30,-11,-6,-12,1,2,13,-5
1491087902597,3,29,-4,-9,4,-5,-5,-1,12
1491087902597,3,-26,-4,-6,6,-2,-2,-2,-10
1491087902598,0,-36,-11,-4,1,2,-1,-25,-8
1491087902598,0,-37,11,5,-12,-8,-6,2,-7
1491087902599,1,26,4,2,3,4,-4,-22,-6
1491087902599,1,2,-2,-3,2,-5,5,15,3
1491087902632,2,42,-2,-7,-11,1,3,27,7
1491087902632,2,-26,-2,1,11,-3,-7,-38,-9
1491087902634,3,-45,-10,-6,-12,1,8,11,-2
1491087902634,3,26,11,8,10,-3,-13,-28,-6
1491087902634,0,3,-8,-1,-6,0,12,8,0
1491087902634,0,37,7,5,-1,5,-8,26,7
1491087902635,1,-22,-2,0,-5,-2,-3,-15,0
1491087902635,1,-31,-11,-8,-9,-11,-17,-32,-10
1491087902670,2,-2,-2,-1,-4,4,9,35,12
1491087902670,2,17,-2,-3,7,-8,5,-12,-2
1491087902671,3,-46,-2,1,2,11,11,17,-9
1491087902671,3,44,-6,-3,1,-3,-1,-10,-1
1491087902672,0,-24,-1,0,-1,-1,-4,-10,-9
1491087902672,0,-6,-1,1,2,0,-9,-7,-3
1491087902672,1,6,12,3,-3,-6,1,-5,8
1491087902672,1,38,0,-5,0,1,3,27,5
1491087902707,2,-16,0,-5,-3,-7,-7,-36,-2
1491087902707,2,12,-21,-8,-1,2,0,-15,-11
1491087902708,3,-6,8,4,7,-10,1,-1,0
1491087902708,3,7,2,-2,-8,-3,-11,2,4
1491087902709,0,-25,3,0,-4,3,5,42,6
1491087902709,0,-26,2,0,-9,-2,-3,-5,2
1491087902710,1,30,-4,-1,8,3,-7,-31,-15
1491087902710,1,-30,-3,-4,-7,-7,1,27,-3
1491087902745,2,34,-7,-7,9,-3,-14,-38,-5
1491087902745,2,-70,-2,0,-6,8,23,53,7
1491087902746,3,23,7,0,1,-3,-14,-7,-8
1491087902746,3,-7,-1,-1,5,-1,-4,-43,-3
1491087902747,0,-6,-5,-4,-17,2,7,26,0
1491087902747,0,8,6,3,24,-4,0,-27,-4
1491087902748,1,-4,-8,3,5,-6,-7,-5,4
1491087902748,1,25,2,3,-9,5,3,44,10
1491087902782,2,-42,6,3,-1,-2,-4,-10,2
1491087902782,2,25,-6,-7,6,-8,-16,-14,-9
1491087902783,3,56,3,-4,-16,6,28,22,22
1491087902783,3,-28,-12,-6,-3,-8,-14,-4,-25
1491087902784,0,7,-4,1,1,10,10,-6,1
1491087902784,0,4,2,-2,-2,-5,-6,4,6
1491087902785,1,-38,-17,-4,1,-3,-13,9,-7
1491087902785,1,65,7,0,12,7,6,-24,-2
1491087902820,2,0,1,1,-8,-5,-2,7,-2
1491087902820,2,-33,0,1,-4,-2,8,17,15
1491087902821,3,-8,1,-4,2,-3,-15,-11,-9
1491087902821,3,-14,-4,-4,-14,0,8,31,6
1491087902822,0,35,4,0,17,-11,-19,-41,-9
1491087902822,0,26,5,3,-10,1,6,2,7
1491087902823,1,-13,-6,-6,-14,9,20,21,-6
1491087902823,1,-66,-4,1,-2,-3,-5,3,2
1491087902857,2,27,-3,-2,3,-3,-11,3,-5
1491087902857,2,24,0,-2,0,-1,-6,-37,-14
1491087902859,3,-51,8,11,10,-5,-4,-7,-2
1491087902859,3,2,1,-1,5,2,-2,-31,-10
1491087902860,0,-9,-13,-6,-6,-4,-3,43,6
1491087902860,0,24,5,-3,-10,0,18,-6,5
1491087902861,1,-5,-1,-1,0,-10,-36,-38,-14
1491087902861,1,28,-1,1,5,11,16,5,1
1491087902895,2,-56,-7,-4,-9,-5,-1,14,-2
1491087902895,2,-4,4,3,1,2,-7,7,0
1491087902896,3,-53,-14,-9,-12,7,21,26,3
1491087902896,3,8,9,6,11,-7,-18,-13,2
1491087902897,0,-12,10,2,2,8,12,1,-2
1491087902897,0,15,-6,2,1,2,-7,-6,-7
1491087902898,1,-9,-4,-4,-5,-13,-16,-21,-6
1491087902898,1,5,-5,0,6,-7,-5,5,2
1491087902932,2,13,-8,-1,0,6,10,12,-2
1491087902932,2,-46,-4,-7,-6,1,0,-11,-2
1491087902970,3,45,-5,3,7,-2,-11,6,-3
1491087902970,3,17,2,-1,-3,-3,6,10,12
1491087902971,0,-30,2,-4,0,3,3,4,2
1491087902971,0,27,1,6,6,-7,-7,8,11
1491087902972,1,24,6,-7,-4,6,12,-25,-1
1491087902972,1,-21,-7,-8,-17,-5,0,13,4
1491087902973,2,9,13,8,6,2,3,-20,-14
1491087902973,2,17,-3,-5,2,-4,-3,30,10
1491087903007,3,-2,-4,-5,-7,5,0,-5,-2
1491087903007,3,-11,-9,-3,-2,-2,-6,-14,-21
1491087903009,0,-17,-8,1,10,-4,-8,-24,-3
1491087903009,0,-7,3,-2,-3,-1,5,2,-5
1491087903010,1,41,6,1,-9,-2,0,6,10
1491087903010,1,-54,-12,-4,-2,-2,-2,5,-7
1491087903011,2,25,1,8,8,-1,-8,4,-1
1491087903011,2,-11,1,-1,3,-2,-3,-33,-10
1491087903045,3,-27,-5,0,-3,8,30,46,7
1491087903045,3,43,4,-4,-25,3,-7,-5,1
1491087903046,0,-29,-6,-1,6,-6,-4,-18,-2
1491087903046,0,9,-3,2,3,3,4,21,4
1491087903049,1,73,-8,-9,-10,-7,-13,-16,4
1491087903049,1,-83,1,4,3,-2,1,5,-6
1491087903050,2,26,3,1,-3,0,-3,-12,-1
1491087903050,2,53,2,0,-6,-4,3,5,-7
1491087903082,3,-25,-16,-9,0,-2,-10,-21,-3
1491087903082,3,12,4,-1,-8,-1,-7,-26,-5
1491087903084,0,28,7,2,-1,-6,4,5,12
1491087903084,0,-77,-16,-6,-6,5,6,23,-4
1491087903085,1,18,10,0,13,-8,-14,-18,-5
1491087903085,1,67,3,5,10,1,8,3,7
1491087903086,2,-49,-7,-5,-5,1,3,13,-3
1491087903086,2,-36,-3,0,5,4,-4,-10,3
1491087903120,3,-7,0,6,-3,-12,-12,-24,-17
1491087903120,3,-15,-13,-11,3,3,5,8,6
1491087903121,0,39,4,3,-2,3,9,21,6
1491087903121,0,-16,-4,-6,-3,-10,-16,-22,-22
1491087903123,1,-24,0,4,5,7,13,6,3
1491087903123,1,2,-12,-11,-5,-8,-20,0,-3
1491087903123,2,-39,3,3,-5,6,6,-11,0
1491087903123,2,29,-13,-5,3,1,1,20,1
1491087903157,3,18,4,-2,-8,-9,-8,-21,4
1491087903157,3,11,-5,0,-1,0,4,-4,-19
1491087903159,0,-17,-3,-7,-4,-4,-2,14,11
1491087903159,0,6,4,-2,2,-6,-16,-38,-16
1491087903162,1,-50,1,3,2,-4,-4,1,-14
1491087903162,1,25,-3,-3,0,0,6,15,10
1491087903164,2,6,-4,-6,-10,5,7,-18,-11
1491087903164,2,-2,0,0,-2,-6,-12,-4,1
1491087903195,3,-4,-6,-11,-8,-3,6,17,0
1491087903195,3,-52,3,9,12,-7,-9,-21,-7
1491087903196,0,40,6,4,0,-6,-19,-2,0
1491087903196,0,-14,0,-3,-9,2,12,16,4
1491087903198,1,-14,-1,-4,0,-1,-7,-2,-5
1491087903198,1,18,2,2,-2,15,25,15,2
1491087903198,2,5,-7,-7,-5,-4,-14,-54,-12
1491087903198,2,39,6,4,10,-6,-4,38,18
1491087903232,3,-41,-1,2,1,3,4,-1,1
1491087903232,3,18,8,1,-7,1,9,32,10
1491087903233,0,0,-8,-6,-10,9,15,19,-7
1491087903233,0,-21,11,5,6,-3,-14,-23,-9
1491087903234,1,17,-1,2,2,3,4,0,-5
1491087903234,1,16,-7,-8,-1,-5,-17,-23,-4
1491087903235,2,1,2,2,11,-10,-9,0,-4
1491087903235,2,12,-7,-7,-6,-7,-1,-1,4
1491087903270,3,-5,-4,0,5,7,14,9,-2
1491087903270,3,-6,-1,-6,-7,-6,-11,-17,0
1491087903272,0,20,-4,5,5,3,3,34,-1
1491087903272,0,-2,-1,0,-3,-5,-8,-19,-4
1491087903273,1,7,5,-3,-6,-8,-8,-18,5
1491087903273,1,-44,-5,1,-3,7,16,11,-6
1491087903274,2,26,-3,-4,-2,-10,-14,-10,2
1491087903274,2,19,3,-1,-2,5,13,22,6
1491087903307,3,-15,1,1,5,3,-2,3,4
1491087903307,3,8,-3,-6,-12,-9,0,5,2
1491087903308,0,0,1,1,3,4,5,14,5
1491087903308,0,12,2,3,-4,7,3,-7,-3
1491087903309,1,31,-5,-5,2,-6,-8,-15,-3
1491087903309,1,-4,-5,-5,2,-5,-9,-10,2
1491087903310,2,-9,-1,-6,-5,-4,-7,-10,-15
1491087903310,2,-16,-10,-5,3,-3,-4,-21,0
1491087903345,3,17,0,-1,3,-1,4,8,-3
1491087903345,3,8,-3,0,15,-5,-13,-9,10
1491087903346,0,1,-1,1,0,1,6,1,-2
1491087903346,0,-42,-1,-5,-10,7,12,19,-7
1491087903348,1,-15,-6,-4,-1,-12,-18,-7,-7
1491087903348,1,-25,0,4,-2,6,16,13,3
1491087903349,2,36,2,-4,0,-3,-1,-5,0
1491087903349,2,25,3,-1,2,-5,-18,-32,-3
1491087903382,3,-14,-2,3,8,-1,-2,20,2
1491087903382,3,1,-1,-3,-11,5,12,13,0
1491087903383,0,3,1,-5,-2,-2,-2,-4,4
1491087903383,0,-1,4,7,7,5,4,1,-5
1491087903384,1,-21,-4,1,3,-4,-8,-7,-6
1491087903384,1,15,-2,-4,2,-6,-16,-53,5
1491087903385,2,-14,-4,-3,-22,4,15,40,-10
1491087903385,2,-19,-6,-2,-3,2,-2,-24,3
1491087903420,3,-4,1,5,16,2,-2,-7,-8
1491087903420,3,12,2,-1,-6,-4,-3,12,-3
1491087903422,0,-29,-8,-9,-9,-7,-7,-9,4
1491087903422,0,0,-2,-2,-10,-8,2,24,7
1491087903422,1,62,10,-1,1,8,4,0,5
1491087903422,1,-70,3,3,-4,2,4,-4,-6
1491087903495,2,-4,-7,-8,-3,-12,-17,-27,-6
1491087903495,2,4,2,6,-4,9,17,26,3
1491087903496,3,-37,-2,-7,-17,1,4,3,-7
1491087903496,3,-37,1,-3,6,-2,-6,2,-7
1491087903497,0,41,6,3,6,-10,-18,-34,-3
1491087903497,0,-46,-15,-4,0,-3,3,12,-7
1491087903533,1,1,-1,-3,-3,-2,8,7,3
1491087903533,1,25,-7,-4,-13,3,9,26,6
1491087903534,2,-23,4,5,11,-2,-14,-41,-8
1491087903534,2,29,1,2,-4,0,9,-15,-13
1491087903535,3,5,-7,-4,-7,-1,-7,3,0
1491087903535,3,-69,1,-3,4,-3,-14,-11,-19
1491087903536,0,95,-4,-7,-2,-1,6,20,22
1491087903536,0,-17,-3,-7,-10,-7,-7,3,-4
1491087903570,2,-61,-2,2,6,7,27,50,16
1491087903570,2,0,1,-3,-3,-5,-7,-26,-9
1491087903572,3,-7,-10,1,2,-3,-6,7,1
1491087903572,3,-11,-3,-2,2,-4,-6,-4,-5
1491087903573,0,-28,-3,-4,-12,-3,-3,-28,-14
1491087903573,0,40,-1,-7,-4,0,1,36,6
1491087903574,2,-16,-11,-5,-3,1,6,23,12
1491087903574,2,-27,0,-2,1,-1,-4,0,0
1491087903608,3,13,-1,-1,4,4,-8,4,-4
1491087903608,3,30,5,1,-5,1,6,12,6
1491087903610,0,9,5,0,-2,-4,-3,-6,-2
1491087903610,0,4,2,4,9,-2,-2,-26,2
1491087903611,1,-40,-5,-6,-7,-10,-4,3,-10
1491087903611,1,72,5,-4,-5,8,10,-7,4
1491087903612,2,-66,-4,1,2,4,1,9,-8
1491087903612,2,27,-4,-1,2,0,-6,-5,8
1491087903720,3,-2,4,-2,3,-7,-13,-24,-6
1491087903720,3,30,-11,-4,-5,7,16,4,1
1491087903721,0,-39,0,1,-7,-3,-3,4,-10
1491087903721,0,14,3,-3,6,-1,-5,0,2
1491087903722,1,10,-11,-2,7,-6,-6,-15,-13
1491087903722,1,-78,5,5,4,-6,-3,21,11
1491087903723,2,51,11,-3,4,-2,-11,-36,-2
1491087903723,2,-39,0,1,-8,2,20,29,0
1491087903870,3,22,0,0,-5,0,-5,10,1
1491087903870,3,7,6,0,1,4,6,6,1
1491087903871,0,-20,-6,0,1,-6,-10,-3,-5
1491087903871,0,-24,0,-5,6,-9,-14,-23,-10
1491087903873,1,12,2,2,-17,10,21,21,5
1491087903873,1,-27,-1,0,4,-6,-5,10,-2
1491087903873,0,10,2,-2,-4,1,0,6,-6
1491087903873,0,32,5,-2,-4,-1,-6,-10,7
1491087903907,1,-24,-6,-4,-9,4,11,10,-7
1491087903907,1,-53,-4,-5,8,-6,-10,-28,-3
1491087903909,2,14,-2,2,4,-3,-5,-9,2
1491087903909,2,-12,-12,-4,-6,2,7,16,-3
1491087903909,0,23,7,4,6,3,5,26,8
1491087903909,0,-30,-5,-4,0,-3,-16,-66,-18
1491087903914,3,49,5,-4,1,1,-9,-16,-6
1491087903914,3,-19,1,7,9,1,6,19,7
1491087903982,0,12,4,0,1,6,2,-2,-2
1491087903982,0,-22,-10,-2,8,-7,-14,-14,-10
1491087903984,1,-3,-6,-5,-5,3,11,26,3
1491087903984,1,-3,-3,-2,-23,-4,-4,-33,-10
1491087903984,3,3,10,2,16,-4,-7,-5,4
1491087903984,3,66,4,3,15,-5,-11,-8,-7
1491087903985,0,-55,10,3,-20,1,8,0,2
1491087903985,0,13,-7,-5,-11,-9,-5,0,4
1491087904020,1,-17,-9,-4,0,-7,-8,-13,-2
1491087904020,1,-8,2,-5,3,3,1,2,-5
1491087904021,2,-3,-5,1,30,8,5,8,-7
1491087904021,2,30,-3,-4,5,1,-9,3,-6
1491087904021,3,-3,-8,-4,-12,-11,-15,-34,-9
1491087904021,3,17,4,3,29,3,8,23,4
1491087904022,0,-86,4,5,-2,4,7,-10,7
1491087904022,0,76,14,7,13,0,-6,-13,-3
1491087904057,1,-11,-4,-1,-10,2,11,9,3
1491087904057,1,-41,-7,-11,-10,-5,-27,-50,-34
1491087904058,2,75,-6,-5,10,-8,-3,-29,14
1491087904058,2,47,18,-3,-22,21,58,109,55
1491087904060,3,49,-1,-3,-9,-7,-18,-26,-21
1491087904060,3,-40,9,17,23,-15,-30,-23,-27
1491087904060,0,-49,-18,1,-6,30,31,62,11
1491087904060,0,95,-23,-13,32,-19,-25,-70,19
1491087904095,1,97,24,10,-5,13,20,84,52
1491087904095,1,-66,-2,4,-37,8,45,85,24
1491087904095,2,52,45,20,22,14,-9,-96,-32
1491087904095,2,-36,-19,-11,-14,-21,-16,-6,-31
1491087904096,3,-27,-36,-30,-15,-10,6,16,24
1491087904096,3,91,37,17,-28,-15,-15,18,20
1491087904097,0,45,-59,-4,5,46,60,42,25
1491087904097,0,-99,-27,24,44,28,-38,-86,-89
1491087904132,1,-3,-7,14,56,-47,-66,-65,-18
1491087904132,1,-73,-46,-16,-20,-26,63,86,50
1491087904134,2,127,-7,-6,32,-64,11,-84,-17
1491087904134,2,-97,-46,-25,-41,109,-6,17,-19
1491087904134,3,76,-72,25,-8,-84,-72,-26,-20
1491087904134,3,-12,-59,9,-40,-54,-34,-75,-32
1491087904135,0,-87,-68,-30,-1,55,11,35,35
1491087904135,0,-51,-43,5,86,-66,-57,-45,-14
1491087904170,1,43,15,-14,-48,72,57,-10,-16
1491087904170,1,127,33,8,-9,17,45,70,40
1491087904171,2,-61,42,9,25,-77,-82,-35,-65
1491087904171,2,-24,48,12,-13,6,-68,67,43
1491087904171,3,-97,23,-25,38,-102,79,-29,-47
1491087904171,3,119,62,-35,-6,76,37,-24,-15
1491087904172,0,-82,82,7,0,107,-96,-33,3
1491087904172,0,-2,74,-18,-101,-114,98,111,34
1491087904207,1,-89,42,16,31,79,67,47,60
1491087904207,1,27,18,14,45,95,38,-79,-29
1491087904208,2,-124,7,0,54,-10,127,105,32
1491087904208,2,127,44,4,-42,-11,-106,-112,-64
1491087904209,3,-29,25,-3,-38,-99,-82,-51,-25
1491087904209,3,-25,-13,2,7,78,93,61,70
1491087904210,0,74,9,-1,-11,-86,-35,41,39
1491087904210,0,-25,-23,-41,-48,125,-19,41,-5
1491087904245,1,-18,-24,-15,18,-82,8,-77,-22
1491087904245,1,-5,3,-8,9,-65,-21,-105,-24
1491087904245,2,127,48,20,-48,77,37,18,24
1491087904245,2,-43,-4,-4,36,-117,-52,-37,-51
1491087904248,3,34,-17,-22,-88,108,68,46,39
1491087904248,3,-128,-49,11,105,67,16,89,-18
1491087904249,0,12,7,-13,-29,-33,-8,-22,-7
1491087904249,0,-84,26,-4,-22,-67,48,-50,-23
1491087904282,1,-49,42,-19,11,127,25,3,-1
1491087904282,1,-76,19,6,-5,-39,-128,-33,-4
1491087904283,2,22,-16,-3,-34,80,95,46,1
1491087904283,2,101,37,81,121,28,99,105,111
1491087904284,3,-50,-19,-9,-84,-65,-93,-92,-88
1491087904284,3,-20,-59,-75,-101,-92,-35,9,-3
1491087904285,0,49,-79,-32,28,85,-15,-76,-36
1491087904285,0,-96,-14,20,77,97,127,109,83
1491087904320,1,81,61,50,38,-42,127,65,87
1491087904320,1,-81,48,29,-56,62,-94,-40,-88
1491087904321,2,87,-29,-24,18,-70,-44,-91,-44
1491087904321,2,18,-64,-23,-84,-92,-85,-84,6
1491087904322,3,127,-9,20,39,77,81,127,41
1491087904322,3,0,0,2,89,6,76,77,57
1491087904357,0,-67,2,4,-84,-128,-48,-22,-58
1491087904357,0,5,-17,0,18,23,-33,37,-13
1491087904358,1,3,2,-26,-79,14,29,-55,-23
1491087904358,1,45,30,47,90,-74,-11,17,3
1491087904360,2,-77,-63,-96,-75,-67,5,56,-15
1491087904360,2,-24,9,3,28,-43,-17,-124,32
1491087904361,3,46,10,40,87,7,-43,-45,-101
1491087904361,3,32,-1,-22,-21,113,3,47,59
1491087904432,0,0,119,55,38,55,81,72,79
1491087904432,0,-110,13,-20,-95,-128,-128,-69,-96
1491087904434,1,35,-3,-42,-45,27,86,124,65
1491087904434,1,-7,38,29,89,19,90,37,17
1491087904435,2,-93,1,17,-61,-99,-122,-75,-36
1491087904435,2,-11,36,-30,-1,51,12,-39,-38
1491087904436,3,-59,-51,21,102,-4,-12,18,32
1491087904436,3,98,-33,4,26,-24,93,16,-34
1491087904470,0,-48,-21,12,-57,-30,57,95,33
1491087904470,0,89,-72,-21,-68,59,-9,1,27
1491087904472,1,-59,-29,-8,-31,78,20,-19,35
1491087904472,1,-89,-33,4,-128,-19,-128,-85,-70
1491087904474,2,47,-33,-49,-18,-21,122,-32,8
1491087904474,2,55,29,32,47,-21,-18,-62,17
1491087904507,3,17,49,-17,49,22,-10,0,53
1491087904507,3,-72,76,33,-29,-81,63,58,9
1491087904509,0,92,63,42,60,118,-19,-73,-17
1491087904509,0,28,-61,-58,-89,-92,0,-39,-54
1491087904510,1,39,-47,8,-22,-52,6,27,-6
1491087904510,1,-10,-13,-13,30,60,78,-90,11
1491087904511,3,-67,-63,-12,-17,15,-117,-57,-49
1491087904511,3,100,-9,-33,22,13,-12,-25,-4
1491087904545,0,-40,24,30,-9,-111,33,50,30
1491087904545,0,27,37,-19,-9,105,90,2,33
1491087904547,1,-16,13,24,-7,-128,-6,-16,-22
1491087904547,1,-40,-53,6,11,-23,-49,-31,4
1491087904548,2,39,-25,-3,82,127,54,-5,-7
1491087904548,2,-39,-27,14,65,4,-9,85,7
1491087904550,3,-90,3,0,36,14,-40,-21,-58
1491087904550,3,36,2,-20,-30,-122,-35,15,-17
1491087904582,0,4,2,12,-29,15,32,20,16
1491087904582,0,31,-37,-28,-51,-65,-8,-7,3
1491087904584,1,-68,-35,27,50,-47,-108,-20,17
1491087904584,1,-6,-70,-18,-87,-96,-13,-39,32
1491087904585,3,22,-82,-26,-13,-43,12,-62,-38
1491087904585,3,0,-31,-25,-73,-94,-14,49,-23
1491087904586,0,-10,-18,-10,57,-109,-101,-26,-22
1491087904586,0,10,51,-14,14,66,76,50,3
1491087904620,1,12,81,6,-13,56,34,21,14
1491087904620,1,8,51,23,36,18,64,-5,-14
1491087904620,2,6,30,-3,28,-4,-46,9,-10
1491087904620,2,-12,66,-11,21,47,36,6,-16
1491087904657,3,-7,42,-14,9,15,-45,-17,-23
1491087904657,3,34,22,-29,8,85,9,-66,-20
1491087904658,0,7,12,7,59,-87,-55,34,12
1491087904658,0,-38,8,33,8,-18,12,-32,-37
1491087904659,1,15,17,28,70,115,73,58,36
1491087904659,1,-23,-5,-10,43,58,-18,30,-3
1491087904659,2,-31,-17,-21,-99,-33,-25,-71,-42
1491087904659,2,58,10,-14,22,-7,-23,-1,9
1491087904695,3,-9,-4,-1,23,114,43,42,6
1491087904695,3,13,28,48,43,-21,24,8,13
1491087904695,0,-11,12,7,-31,-89,21,48,8
1491087904695,0,-31,5,-60,-84,-13,-86,-43,-14
1491087904696,1,10,-18,11,-5,-43,-20,-23,-9
1491087904696,1,-50,-40,-48,-32,61,-75,-45,21
1491087904697,2,-15,1,17,22,30,38,8,-3
1491087904697,2,26,20,75,92,-1,98,37,22
1491087904732,3,17,11,-7,-24,-23,19,70,10
1491087904732,3,21,0,12,-35,-41,14,14,1
1491087904733,0,-31,-10,10,72,92,-52,-46,-22
1491087904733,0,14,-7,-61,-128,-128,-39,-22,-3
1491087904734,2,-9,-49,-36,-101,-92,-98,-57,7
1491087904734,2,-41,6,12,2,65,61,52,-10
1491087904734,3,10,18,-34,-40,-112,-10,-12,23
1491087904734,3,-44,10,16,27,22,29,-29,-48
1491087904807,0,70,-15,-32,-51,-73,-27,-37,2
1491087904807,0,-29,-16,12,74,-101,-34,-6,2
1491087904808,1,-47,5,-7,-37,44,9,-7,7
1491087904808,1,-7,-14,0,21,28,25,42,5
1491087904809,2,-19,53,107,127,103,127,87,14
1491087904809,2,64,13,-48,-125,-128,-99,-34,-1
1491087904810,3,-13,24,7,31,39,30,0,15
1491087904810,3,-11,21,-20,-25,-68,-73,-28,-15
1491087904845,0,24,12,-29,-20,0,-33,-36,1
1491087904845,0,-41,12,15,-9,0,-37,-9,-21
1491087904847,1,30,26,40,56,-80,90,55,-17
1491087904847,1,5,13,-35,-33,35,-86,18,34
1491087904849,2,-30,15,-43,-84,-98,-68,-55,-37
1491087904849,2,-8,27,-4,69,102,72,11,0
1491087904851,1,-14,-31,20,56,-94,64,20,-6
1491087904851,1,-24,-52,-33,-115,65,-87,-36,-47
1491087904920,2,-23,-114,-76,-10,79,-36,-41,16
1491087904920,2,-10,-104,18,31,-98,89,22,7
1491087904921,3,5,-97,-53,-118,-38,-65,-18,-3
1491087904921,3,23,12,26,123,2,60,-5,24
1491087904921,1,22,-114,-25,-12,127,-90,-53,-3
1491087904921,1,-52,-93,-58,-120,-123,-37,-12,-24
1491087904922,2,31,54,37,37,34,50,24,-8
1491087904922,2,6,89,37,46,-16,101,35,21
1491087904957,3,32,84,46,-25,-48,14,7,-19
1491087904957,3,-18,59,-70,-88,-111,-100,-100,-27
1491087905070,0,15,5,-32,72,-106,68,13,28
1491087905070,0,7,-56,-6,23,103,73,27,2
1491087905071,1,-16,-78,-3,40,-67,96,7,-6
1491087905071,1,6,-59,9,-10,99,127,11,13
1491087905071,0,9,-3,-94,-107,-64,-103,-42,-14
1491087905071,0,-23,43,-38,3,10,-50,-11,-7
1491087905072,1,1,127,35,65,-26,-41,-3,7
1491087905072,1,7,82,34,62,-75,-51,1,15
1491087905182,2,31,0,53,-13,36,11,4,4
1491087905182,2,53,-20,-57,-79,-128,-92,-26,7
1491087905184,0,-44,21,-33,-25,30,-24,13,-6
1491087905184,0,-36,-38,23,33,67,19,4,-9
1491087905185,1,17,68,-13,-29,-113,-85,-21,-1
1491087905185,1,74,7,-12,43,3,-80,3,35
1491087905185,3,-24,14,-35,-28,19,1,-2,9
1491087905185,3,-22,-32,24,52,-72,41,19,6
1491087905257,0,14,6,-16,-58,7,-40,-19,-24
1491087905257,0,-14,-24,-11,19,55,41,24,11
1491087905259,1,41,28,8,-27,12,51,18,7
1491087905259,1,-17,22,-21,-31,-39,-44,-37,-9
1491087905260,2,-28,-60,-11,-3,-15,-24,-26,-18
1491087905260,2,29,61,-8,-22,-26,-27,-5,-2
1491087905260,3,17,37,55,15,3,-10,3,3
1491087905260,3,-50,58,14,7,6,54,35,16
1491087905295,0,24,87,7,11,39,11,-1,2
1491087905295,0,-10,113,-22,-44,-62,-17,-3,15
1491087905295,1,17,119,-6,30,44,4,-16,-13
1491087905295,1,-20,19,-7,-34,-66,-13,-21,-3
1491087905296,2,-23,9,10,6,5,11,20,-4
1491087905296,2,62,65,-16,-19,35,23,1,2
1491087905297,3,-46,46,6,-14,-22,-20,-9,-8
1491087905297,3,9,-121,-15,14,-3,33,24,-2
1491087905332,0,52,-47,5,11,-31,-54,-34,12
1491087905332,0,-44,-28,-17,-30,12,43,16,-9
1491087905333,1,19,55,3,7,-25,-6,-15,1
1491087905333,1,24,116,7,5,42,15,21,10
1491087905334,2,-20,87,19,33,4,41,22,15
1491087905334,2,59,-22,-6,-15,6,-11,-14,-14
1491087905335,3,-8,-36,-20,-14,-32,23,26,5
1491087905335,3,-7,-73,11,7,7,16,2,-5
1491087905370,0,-37,-52,-3,-10,-60,7,12,-4
1491087905370,0,-9,-9,-5,11,9,1,8,8
1491087905371,1,-38,-5,-8,-6,12,-61,-34,-7
1491087905371,1,89,-12,-9,-2,0,16,6,-1
1491087905371,2,-1,16,5,-8,1,29,20,4
1491087905371,2,23,68,3,13,-5,23,25,18
1491087905372,3,-5,81,-3,-1,-24,-29,-46,-2
1491087905372,3,7,12,4,3,9,15,7,3
1491087905407,0,15,-23,-13,-9,-3,-91,-64,-11
1491087905407,0,-24,-67,8,4,-3,18,56,0
1491087905408,1,12,-25,7,25,4,75,62,23
1491087905408,1,-17,-2,-6,-21,5,39,-9,-12
1491087905409,2,-22,10,10,8,-33,-77,-23,-3
1491087905409,2,77,4,-9,-7,-42,30,1,10
1491087905410,3,-28,5,-6,-2,-5,-1,-1,0
1491087905410,3,2,-31,-1,-3,-4,-51,-48,9
1491087905445,0,3,-26,6,16,59,93,-3,-8
1491087905445,0,-14,-1,3,16,10,-41,-3,3
1491087905445,1,-10,-22,-10,-19,-1,23,-42,-25
1491087905445,1,-53,-22,-5,-9,-54,-92,-60,-33
1491087905446,2,-80,27,-18,-32,23,57,69,10
1491087905446,2,84,39,29,35,-48,-1,7,21
1491087905447,3,-40,-5,-19,7,125,73,36,1
1491087905447,3,42,18,22,22,-73,-16,-28,24
1491087905482,0,-10,-27,0,-47,-88,-80,-69,-29
1491087905482,0,-43,-50,-18,-10,-13,-2,-61,-17
1491087905483,1,-36,-23,0,-20,14,60,59,-11
1491087905483,1,64,-11,8,24,56,-64,29,53
1491087905484,2,20,8,1,8,34,94,35,-25
1491087905484,2,-45,58,3,-19,-95,-63,-126,-52
1491087905484,3,48,29,2,-10,1,-63,6,-20
1491087905484,3,-15,-29,-29,-27,4,18,29,-8
1491087905520,0,11,-38,-1,2,5,-21,22,28
1491087905520,0,18,-35,7,5,38,29,61,28
1491087905521,1,23,-35,-14,27,-10,7,-65,-1
1491087905521,1,-3,-9,26,54,13,20,42,1
1491087905522,2,5,-111,-4,-11,-47,-44,-10,9
1491087905522,2,-128,-78,-22,-16,-29,-41,-29,-47
1491087905523,3,59,6,3,-18,-43,12,78,17
1491087905523,3,30,-83,-6,6,73,75,32,-15
1491087905557,0,-50,87,-1,30,54,19,-22,3
1491087905557,0,13,107,13,0,2,15,4,-5
1491087905558,1,30,58,-1,21,23,-34,-19,15
1491087905558,1,-72,20,-17,7,-25,19,-29,-53
1491087905559,2,34,-9,-1,-33,42,42,-4,49
1491087905559,2,14,-62,-19,-55,-46,-37,-16,-34
1491087905559,3,8,31,-3,0,-26,-44,51,24
1491087905559,3,-8,71,11,32,19,81,-68,13
1491087905595,0,18,69,14,28,-2,84,-3,-28
1491087905595,0,29,-26,-4,-15,-24,-70,28,19
1491087905595,1,-67,-50,-5,-1,-25,0,-104,-41
1491087905595,1,-108,-51,3,-9,93,44,95,18
1491087905596,2,117,2,-5,-4,-11,-5,-12,4
1491087905596,2,-93,-31,1,-16,4,44,-11,-20
1491087905632,3,-119,-69,-16,-19,-93,-32,16,-11
1491087905632,3,62,8,-6,-28,21,-39,3,24
1491087905633,0,70,-38,-1,21,23,2,22,6
1491087905633,0,-21,-47,16,43,100,37,27,36
1491087905633,1,-29,-37,6,4,-16,16,7,-9
1491087905633,1,-27,2,-15,-43,-84,27,-13,-26
1491087905634,2,-28,-20,-2,13,43,-75,7,4
1491087905634,2,-7,-9,12,6,2,8,-11,-15
1491087905670,3,119,8,-1,14,32,59,58,27
1491087905670,3,-82,5,-10,-7,-31,-30,13,18
1491087905670,0,-17,43,5,-13,-31,0,8,-51
1491087905670,0,87,54,14,12,63,26,-44,47
1491087905671,1,-64,22,-1,-11,26,-13,-28,-1
1491087905671,1,127,11,-3,-31,-22,25,-14,-24
1491087905672,2,-128,-16,-5,-23,-54,-57,3,16
1491087905672,2,16,-8,-20,-14,-13,9,-56,-35
1491087905707,3,-45,-6,-4,-26,-36,-26,6,7
1491087905707,3,52,26,13,42,-4,30,65,34
1491087905745,0,-30,-18,-13,-11,32,37,-10,-23
1491087905745,0,1,19,6,16,10,-65,-22,-8
1491087905746,1,-30,17,-3,2,12,-14,36,10
1491087905746,1,-7,-13,4,-27,-34,-51,-99,-26
1491087905746,2,36,-42,-22,-10,-43,31,12,-15
1491087905746,2,-31,-17,2,25,60,-13,50,40
1491087905747,3,-11,-17,12,-3,-11,-18,-44,-23
1491087905747,3,29,10,1,20,28,-38,-20,9
1491087905782,0,-41,4,-8,-31,-12,17,50,10
1491087905782,0,-37,-15,-23,-30,-39,38,-27,-19
1491087905783,1,70,8,9,44,40,-46,-23,-3
1491087905783,1,-72,-8,6,-3,-20,16,65,16
1491087905820,2,40,36,4,-2,-10,6,-21,12
1491087905820,2,39,34,-1,11,1,-7,28,-4
1491087905821,3,-60,2,5,-18,24,74,61,29
1491087905821,3,48,9,6,16,-7,-52,2,3
1491087905822,0,-35,-7,-13,-7,-16,-13,-34,-12
1491087905822,0,-21,18,1,-3,8,27,38,19
1491087905823,1,41,7,2,8,-19,6,-65,-40
1491087905823,1,-20,-4,-10,-24,-4,-52,-37,-9
1491087905857,2,-17,-14,-4,-10,-19,48,77,15
1491087905857,2,-75,-23,-20,-21,-28,-48,-20,-18
1491087905858,3,-3,5,8,13,50,36,-34,-7
1491087905858,3,12,-3,-4,-12,-11,-5,14,-11
1491087905858,0,-59,-2,-3,16,10,-24,-54,-21
1491087905858,0,-8,-24,-7,-22,-24,-28,33,8
1491087905859,2,-42,-14,5,8,22,-2,-9,2
1491087905859,2,35,-5,16,36,22,73,-23,-6
1491087905895,3,61,-45,-8,-11,-18,-43,21,12
1491087905895,3,-82,-30,-5,-1,-2,-56,-18,-12
1491087905896,0,73,-5,-6,5,2,-9,29,13
1491087905896,0,-31,13,2,4,5,21,22,13
1491087905896,2,15,12,-8,-31,-7,-68,-39,-15
1491087905896,2,63,3,0,1,-13,-1,3,-5
1491087905932,3,-17,-42,-3,-11,7,2,18,11
1491087905932,3,13,-11,0,33,24,-3,36,6
1491087905933,0,14,23,23,36,-3,-1,-7,3
1491087905933,0,27,-16,-13,-7,-30,22,16,1
1491087905934,1,-27,-15,-7,0,17,8,37,1
1491087905934,1,-7,2,-7,0,-6,-16,-21,-14
1491087905970,2,-20,-11,-10,-1,17,30,-1,-10
1491087905970,2,57,7,4,1,26,-28,30,3
1491087905971,3,-16,11,-8,15,-49,2,17,5
1491087905971,3,6,-30,-7,-6,10,12,-24,-11
1491087905972,0,-37,-37,-4,-14,-10,16,-8,-10
1491087905972,0,-71,7,15,8,5,-16,-22,-16
1491087905973,1,27,7,2,-15,-9,-16,60,30
1491087905973,1,81,-34,-4,-22,-5,-18,-37,-8
1491087906007,2,-35,-5,-7,14,-20,-1,-20,10
1491087906007,2,79,13,-7,-6,5,-19,-39,-16
1491087906008,3,-76,11,7,-2,-1,-8,-7,0
1491087906008,3,-5,-37,-4,-39,-1,8,72,50
1491087906008,0,-23,-31,-12,-31,0,16,-18,0
1491087906008,0,-81,-9,0,13,-21,8,15,-15
1491087906009,1,46,-13,1,26,26,-14,-43,3
1491087906009,1,-34,26,19,31,18,64,7,-10
1491087906045,2,11,-6,2,-16,47,-35,32,8
1491087906045,2,-8,-19,-2,-21,-59,-32,-48,-11
1491087906045,3,-31,-5,1,-24,-44,16,1,3
1491087906045,3,28,-10,1,9,21,28,-20,-7
1491087906046,1,-77,-24,-12,-4,-6,51,17,-1
1491087906046,1,67,3,11,-4,-8,-67,-30,-5
1491087906047,2,0,7,0,26,35,27,-1,-20
1491087906047,2,68,0,-7,9,41,18,9,34
1491087906082,3,-63,-3,-5,-11,-69,-3,-19,-31
1491087906082,3,-83,-20,-24,-14,16,-42,47,-19
1491087906083,0,87,20,3,30,-24,20,29,24
1491087906083,0,-91,-26,-19,-19,-41,-27,-89,-50
1491087906083,1,76,12,3,59,36,59,37,29
1491087906083,1,-81,16,0,-7,66,-72,-48,-25
1491087906084,2,-13,4,5,-37,-31,6,59,14
1491087906084,2,-36,6,-4,-3,-10,-36,7,16
1491087906120,3,-82,-26,-18,-19,-107,-69,-51,-49
1491087906120,3,36,-24,2,21,-15,-62,4,30
1491087906121,0,127,28,19,26,-9,67,3,19
1491087906121,0,-24,-3,-3,1,104,68,68,-6
1491087906122,1,-18,-52,21,-8,-66,-35,-71,-50
1491087906122,1,-85,-20,-14,8,49,-37,-55,4
1491087906123,2,15,-43,-4,-21,-31,12,53,26
1491087906123,2,-2,-24,4,6,-120,-85,-29,6
1491087906157,3,127,28,-15,-30,109,103,23,21
1491087906157,3,-61,-19,-18,-17,38,-61,-11,1
1491087906158,0,2,1,35,80,15,14,-45,-37
1491087906158,0,32,12,4,2,43,64,75,-2
1491087906159,1,-47,62,22,40,95,77,-108,-34
1491087906159,1,31,-7,1,-30,-67,-6,85,37
1491087906159,2,-85,21,-27,-79,-76,-84,-128,-58
1491087906159,2,106,13,-22,-62,9,45,94,23
1491087906195,3,-67,-30,26,35,82,39,-70,23
1491087906195,3,42,-22,28,63,-36,108,91,24
1491087906196,0,-61,-52,-16,-40,-53,-128,-82,-27
1491087906196,0,-54,-34,-1,-7,0,-62,-52,-59
1491087906197,1,91,7,-32,-69,-128,-26,24,34
1491087906197,1,-119,-16,26,73,71,113,-27,-38
1491087906198,2,10,54,6,42,5,39,-21,24
1491087906198,2,-38,28,-8,-48,-8,-5,-15,10
1491087906232,3,25,13,-19,-25,68,-125,-8,-26
1491087906232,3,101,3,-17,49,-29,87,-92,8
1491087906233,0,-115,31,29,-34,-25,-77,-11,-24
1491087906233,0,-32,44,-25,21,40,101,52,34
1491087906234,1,34,-48,-6,-70,-110,-128,-46,-13
1491087906234,1,-50,18,-13,12,51,65,76,-3
1491087906235,2,45,17,28,52,127,101,50,30
1491087906235,2,-23,14,33,48,-51,-50,-14,47
1491087906270,3,10,13,-10,-44,-84,30,-8,-44
1491087906270,3,-31,13,-58,-105,-97,-15,-28,-13
1491087906271,0,1,-50,-23,-28,-80,-70,-4,-28
1491087906271,0,50,-7,43,80,102,82,-8,-14
1491087906272,1,44,46,19,100,-50,118,105,32
1491087906272,1,42,44,36,-73,-110,-128,-107,-62
1491087906273,2,96,35,-15,-8,101,42,127,73
1491087906273,2,-65,-34,-58,-35,-37,13,-39,-28
1491087906307,3,57,-91,-28,-84,-22,-128,-40,-32
1491087906307,3,-71,14,40,127,118,127,62,32
1491087906308,0,-35,-26,-43,-23,-53,-122,-97,-15
1491087906308,0,53,44,22,-75,-24,-7,-48,-45
1491087906309,1,-53,28,24,75,72,90,56,48
1491087906309,1,40,-26,10,-6,49,-21,54,24
1491087906345,2,-51,2,14,49,127,127,122,52
1491087906345,2,-23,20,-9,-7,-65,-31,-63,-31
1491087906345,3,48,-1,-24,-87,-25,-75,57,-67
1491087906345,3,-56,-17,-18,-72,-27,5,57,0
1491087906346,0,15,20,11,127,125,87,51,41
1491087906346,0,66,20,36,34,-114,-70,-39,-8
1491087906645,1,13,49,-4,-44,75,49,37,10
1491087906645,1,-29,-28,-56,-85,-104,53,21,-7
1491087906646,2,-6,-56,-7,16,46,-70,-70,-44
1491087906646,2,-107,-6,3,87,-18,113,30,34
1491087906648,3,0,4,39,-35,75,-63,59,6
1491087906648,3,80,77,-7,4,47,-65,-68,-4
1491087906651,0,6,127,-5,-128,-128,-41,-72,-15
1491087906651,0,-101,37,-49,-55,127,70,108,-5
1491087906684,1,9,54,34,127,78,91,-43,26
1491087906684,1,110,40,24,18,-64,74,118,58
1491087906685,2,-39,-60,-1,-81,-117,5,-53,-41
1491087906685,2,34,-80,-16,-43,66,-118,-39,-13
1491087906686,3,-81,-110,-14,-31,-128,-66,-8,-13
1491087906686,3,-58,-47,-2,63,127,81,-87,9
1491087906687,0,8,12,-19,-37,-15,-28,-64,-15
1491087906687,0,-16,-55,-36,-33,36,-128,-53,-22
1491087906720,1,10,-9,7,6,-88,20,2,7
1491087906720,1,-25,1,9,14,119,55,37,1
1491087906720,2,13,-14,20,34,-29,29,8,-2
1491087906720,2,-6,-101,22,-3,-128,6,13,3
1491087906721,0,6,28,12,27,127,87,47,-4
1491087906721,0,0,49,19,15,17,61,18,4
1491087906722,1,-5,19,-35,-38,127,43,29,-12
1491087906722,1,-28,-68,0,-21,-120,-100,-34,6
1491087906757,2,5,17,-26,46,57,22,-5,-23
1491087906757,2,-27,36,-10,-64,-75,-18,-29,0
1491087906758,3,6,35,0,46,41,47,11,5
1491087906758,3,-15,83,22,31,-128,-61,6,0
1491087906759,0,-4,9,-22,-66,29,19,26,11
1491087906759,0,9,14,30,104,-13,66,17,-7
1491087906759,1,-5,6,25,-1,-64,-55,-15,-6
1491087906759,1,12,-27,-37,-77,-26,-49,2,-3
1491087906795,2,6,-54,27,-3,-128,98,12,5
1491087906795,2,-12,-26,-51,-6,60,-78,-17,3
1491087906795,3,-33,28,7,15,-66,-11,1,-14
1491087906795,3,48,46,-36,-22,-37,0,-14,-6
1491087906796,0,-24,57,8,-17,-13,-33,12,20
1491087906796,0,6,3,-16,3,47,85,21,2
1491087906797,1,29,-35,9,-12,62,27,25,8
1491087906797,1,-28,-38,29,24,-87,-29,-11,-4
1491087906832,2,7,-4,-14,-15,55,-39,-25,-16
1491087906832,2,-3,13,0,-13,15,25,23,4
1491087906833,3,3,38,12,22,125,33,23,5
1491087906833,3,4,32,9,-14,-76,-39,-31,-2
1491087906833,0,-8,-16,-25,-34,-37,-8,16,-7
1491087906833,0,-4,-99,-6,38,49,8,-3,7
1491087906834,1,41,-126,-2,-19,-75,-14,-10,1
1491087906834,1,-13,-84,17,-9,127,2,-2,-2
1491087906870,2,5,7,-13,-5,-67,-7,-13,0
1491087906870,2,-2,75,-12,-53,-114,-76,-41,-9
1491087906872,3,8,95,11,44,-3,28,14,8
1491087906872,3,34,55,-2,29,127,36,18,-6
1491087906873,0,13,34,8,-20,30,11,-12,7
1491087906873,0,-50,58,-32,11,-89,-43,-14,-12
1491087906874,1,-23,0,-2,-2,46,2,7,0
1491087906874,1,-12,87,-4,18,-40,19,18,15
1491087906907,2,17,-26,-8,-11,-24,-53,-26,-10
1491087906907,2,-21,36,32,12,-16,39,16,1
1491087906908,3,36,-6,-15,-10,29,-28,-20,-5
1491087906908,3,-10,40,-40,-51,-47,-80,-39,-12
1491087906909,0,34,122,16,37,80,82,28,6
1491087906909,0,-23,15,14,1,79,47,18,-4
1491087906909,1,-13,61,-18,-11,-44,-12,-40,-5
1491087906909,1,-3,-59,50,74,117,87,37,30
1491087906945,2,20,-63,-4,12,-13,24,12,-28
1491087906945,2,-42,-51,-50,-122,-112,-116,-35,-24
1491087906946,3,6,15,36,83,-20,-16,-8,2
1491087906946,3,46,-45,-26,-69,18,29,1,3
1491087906947,0,-68,-31,35,36,31,-2,-6,-4
1491087906947,0,42,-45,-9,7,64,58,-15,3
1491087906947,1,-8,4,11,-15,-116,-9,11,0
1491087906947,1,34,-30,36,18,30,-30,-8,-2
1491087906982,2,-20,-60,-24,-31,-56,12,3,6
1491087906982,2,-22,35,-11,4,-59,-63,-19,-17
1491087906983,3,20,28,-14,-60,-18,-56,-17,12
1491087906983,3,-25,-8,1,42,39,24,3,-6
1491087906984,0,19,3,7,-21,-12,-3,-2,-2
1491087906984,0,-22,6,17,25,46,19,16,6
1491087906985,1,58,-47,5,-30,-3,-23,-18,-5
1491087906985,1,2,14,-9,21,-41,12,32,23
1491087907020,2,-16,-6,14,29,-1,-24,-33,-12
1491087907020,2,3,-2,-15,-36,-5,-2,42,5
1491087907020,3,-41,-11,-17,-14,1,-3,3,-10
1491087907020,3,-11,0,21,7,-23,-7,13,-10
1491087907021,0,-5,-2,6,24,28,3,-5,6
1491087907021,0,42,11,-10,-10,-22,-1,14,17
1491087907022,1,-21,-31,-5,-1,16,21,18,-11
1491087907022,1,-40,-18,-4,-4,-2,31,11,-7
1491087907057,2,22,23,-35,-17,-38,-77,-44,-3
1491087907057,2,17,8,9,24,49,2,-6,2
1491087907058,3,-35,-3,-10,-21,-29,-17,-3,-11
1491087907058,3,10,12,-7,-9,-23,-8,-7,7
1491087907059,0,-13,-1,-5,0,-1,16,3,-7
1491087907059,0,31,10,22,35,49,36,3,-2
1491087907095,1,-44,-16,-18,3,-4,-6,-25,-11
1491087907095,1,31,-30,-25,-40,-52,-33,0,1
1491087907095,2,-4,-2,0,36,46,26,27,15
1491087907095,2,22,2,3,-28,2,-6,-14,-13
1491087907096,3,-41,-19,-1,19,-32,3,2,-4
1491087907096,3,8,-40,-30,-10,19,-15,-11,-6
1491087907097,0,4,-7,15,12,57,28,44,10
1491087907097,0,35,-36,13,6,-54,37,13,19
1491087907132,1,-7,-34,-7,7,6,7,-23,-14
1491087907132,1,-20,21,-12,-16,-28,-88,-45,-26
1491087907133,2,-3,33,-18,-2,-7,1,20,16
1491087907133,2,14,28,-12,4,30,-2,-3,6
1491087907134,3,25,-62,3,20,10,10,6,1
1491087907134,3,-61,-70,16,8,-6,7,3,-14
1491087907135,0,-43,38,5,-1,-15,-1,-7,-5
1491087907135,0,14,92,18,16,-1,-4,-1,0
1491087907207,1,19,119,-1,1,28,22,27,21
1491087907207,1,-6,107,-19,-19,2,13,-25,-32
1491087907209,2,7,47,-16,-31,-14,-34,-12,8
1491087907209,2,-14,74,19,3,-34,-11,-42,-12
1491087907210,3,19,112,-7,-10,1,19,15,19
1491087907210,3,-25,-12,13,13,18,-7,-16,-16
1491087907211,0,28,-54,-11,-9,9,41,22,9
1491087907211,0,-19,-90,20,33,24,29,-1,0
1491087907245,1,-36,-115,-19,-26,-34,-31,-26,-4
1491087907245,1,7,-89,0,10,34,9,20,12
1491087907246,2,21,-98,-7,-14,-33,-18,-43,-40
1491087907246,2,-31,-37,-6,-14,-9,-98,-38,0
1491087907248,0,-10,-86,12,15,-24,-14,-1,-2
1491087907248,0,67,28,-11,-23,3,30,38,11
1491087907249,1,-18,26,-7,-14,-7,-6,6,-8
1491087907249,1,11,66,-4,-7,-6,-22,2,10
1491087907320,2,-30,71,8,19,13,22,-6,10
1491087907320,2,-7,21,-8,-23,-23,22,40,-12
1491087907321,3,33,12,4,-4,28,-11,4,-2
1491087907321,3,19,69,-34,-11,-27,-15,-35,4
1491087907321,0,-3,127,11,-1,-16,4,12,2
1491087907321,0,-33,26,4,12,-1,-23,47,30
1491087907322,1,4,34,21,25,29,64,-30,-3
1491087907322,1,-56,-12,6,2,5,3,14,-19
1491087907357,2,15,105,-28,-19,-33,-2,-4,1
1491087907357,2,20,127,15,45,70,57,-35,13
1491087907358,3,-41,59,-11,-37,-23,-90,-12,-9
1491087907358,3,-17,-32,0,-19,-68,-34,-21,-4
1491087907358,0,-36,-100,-10,3,10,-26,-13,-3
1491087907358,0,6,-111,-4,-14,-1,20,-33,-5
1491087907360,3,-15,0,-7,12,-17,-44,10,-7
1491087907360,3,33,41,15,7,33,69,15,3
1491087907395,0,-86,1,3,11,16,31,45,26
1491087907395,0,13,-27,1,-18,-8,-104,-42,-37
1491087907395,1,-90,-1,-15,-15,-38,1,-2,-10
1491087907395,1,71,4,-4,-7,28,7,-46,-11
1491087907396,3,54,80,12,35,31,-30,-29,36
1491087907396,3,13,96,5,2,-53,2,91,12
1491087907397,0,-40,9,-14,-28,-4,-67,-38,-23
1491087907397,0,10,-61,7,12,-15,5,16,5
1491087907432,1,-43,-79,6,10,69,46,41,-11
1491087907432,1,37,-34,-3,4,-72,32,24,22
1491087907434,2,53,-88,-17,-20,30,-33,-57,-20
1491087907434,2,-82,-9,-10,-22,-34,-75,-2,-6
1491087907435,3,37,-83,-5,9,-13,108,38,4
1491087907435,3,-111,-116,1,-3,42,-59,-41,-15
1491087907435,0,116,-55,5,39,-3,78,30,21
1491087907435,0,-7,-88,12,29,-38,-29,-3,3
1491087907470,1,21,35,5,-14,94,-26,-54,-18
1491087907470,1,-49,65,-26,-20,-60,-50,56,-1
1491087907470,2,52,127,10,-22,-12,44,-2,-2
1491087907470,2,-60,92,-11,2,22,18,17,-6
1491087907471,3,113,31,10,3,-19,20,-16,-3
1491087907471,3,11,-21,8,10,31,12,52,28
1491087907472,0,19,-2,4,1,14,-12,-26,-16
1491087907472,0,49,89,-5,-2,-7,17,-17,9
1491087907507,1,-31,79,8,-11,-98,77,30,18
1491087907507,1,-29,-18,-18,-22,-39,-87,-48,-17
1491087907509,2,-52,28,-6,-4,-3,-46,25,9
1491087907509,2,10,-56,3,27,20,36,-16,37
1491087907510,3,-10,-7,-21,15,85,-2,-25,-21
1491087907510,3,-22,-45,20,-5,-15,9,1,-10
1491087907511,0,3,-114,-12,10,28,30,24,-2
1491087907511,0,36,-72,-5,-2,26,18,75,36
1491087907545,1,-120,-42,2,-13,-103,10,19,-4
1491087907545,1,112,-6,4,2,112,-5,-66,-5
1491087907545,2,-79,6,-2,17,-22,-29,77,26
1491087907545,2,-24,29,-11,-40,-38,22,-40,-42
1491087907546,3,-33,-1,-15,-10,-3,-58,1,-12
1491087907546,3,-53,40,-6,-27,-33,22,-18,-26
1491087907547,0,8,39,4,14,-2,30,-45,-16
1491087907547,0,15,7,7,38,71,40,-6,-8
1491087907582,1,33,-6,13,-11,-15,-110,-7,25
1491087907582,1,-78,15,-1,-20,-33,55,11,12
1491087907584,2,42,16,-1,2,4,-115,-90,-24
1491087907584,2,-84,-51,-16,-7,-11,46,52,-22
1491087907585,3,110,34,15,31,73,66,7,24
1491087907585,3,-23,-2,2,5,25,11,35,10
1491087907586,0,9,1,3,-13,-4,-38,4,2
1491087907586,0,-8,10,11,10,-24,-20,51,14
1491087907620,1,66,-45,-17,-22,-47,-50,-78,-27
1491087907620,1,-18,13,2,10,-14,-1,-50,-24
1491087907621,2,36,11,-10,-8,-11,37,63,36
1491087907621,2,-65,4,0,-5,-10,-50,-31,-26
1491087907621,3,-21,-9,-2,-26,7,5,11,19
1491087907621,3,22,-22,-2,14,-1,-5,-9,-12
1491087907622,0,24,14,-13,5,10,-4,-45,-15
1491087907622,0,28,-13,22,-1,45,-12,14,10
1491087907657,1,-34,-1,-7,-8,-61,26,74,-3
1491087907657,1,27,17,13,7,-11,-12,-63,10
1491087907658,2,-107,-4,-2,-9,28,27,14,-32
1491087907658,2,79,-47,-5,-5,-5,-5,11,19
1491087907659,3,55,-19,6,-3,-1,-16,-46,-4
1491087907659,3,-45,-13,-8,16,27,10,-3,-8
1491087907660,0,-23,28,-7,-19,-3,6,43,19
1491087907660,0,-7,23,-10,-12,-71,32,-4,-2
1491087907695,1,-127,2,1,0,24,-35,-42,-15
1491087907695,1,30,17,3,17,-5,7,37,-1
1491087907696,2,41,21,7,-16,-12,-25,-30,10
1491087907696,2,19,59,0,-11,4,9,-24,1
1491087907697,3,1,-17,-10,-15,-37,-17,26,17
1491087907697,3,6,-1,-6,10,7,26,29,4
1491087907699,0,-7,-10,7,15,39,41,13,-6
1491087907699,0,-16,-23,-7,0,24,26,-8,-7
1491087907732,1,21,1,-7,1,-24,-55,-12,-6
1491087907732,1,2,7,-1,-9,-10,17,18,14
1491087907733,2,73,-16,22,24,6,9,-10,16
1491087907733,2,-11,-13,-11,-15,-6,4,16,-9
1491087907733,3,-30,-2,-9,-1,9,-2,-55,-15
1491087907733,3,0,-12,-16,-26,-19,-32,-47,-15
1491087907734,0,-31,-16,-4,-2,2,-21,-3,-5
1491087907734,0,7,25,0,11,-11,-22,-36,-9
1491087907770,1,-41,-8,1,8,12,30,30,-6
1491087907770,1,2,5,-6,-16,6,-28,-14,6
1491087907772,2,-33,-20,-2,-6,-17,47,25,-4
1491087907772,2,11,-51,-3,8,-20,-42,-41,-13
1491087907773,3,13,-9,0,-3,3,40,60,-2
1491087907773,3,-35,-21,-10,-6,4,-55,-55,-18
1491087907845,0,-20,-1,9,-2,4,3,13,-1
1491087907845,0,20,-4,6,15,9,-12,-24,7
1491087907846,1,-35,-9,1,-8,-21,-15,8,-5
1491087907846,1,30,-8,4,6,15,27,20,-13
1491087907846,2,44,9,-1,18,4,-1,4,6
1491087907846,2,-83,14,-11,9,-17,-42,-43,-13
1491087907847,3,85,-27,0,21,18,-1,-27,4
1491087907847,3,-18,19,1,12,2,22,39,0
1491087907882,0,-36,-6,0,9,-4,9,19,-27
1491087907882,0,-14,-29,-4,-17,-10,-43,-37,-20
1491087907884,1,16,16,6,-8,28,8,37,-8
1491087907884,1,82,-25,-15,-37,2,2,-31,-1
1491087907885,2,-21,-30,12,-31,-36,6,-10,21
1491087907885,2,-1,-12,-3,-28,-11,8,51,29
1491087907886,0,45,12,-6,-18,0,0,-37,6
1491087907886,0,24,-3,-2,12,16,39,24,11
1491087907920,1,-10,20,4,15,7,-20,-54,-6
1491087907920,1,3,9,-4,13,-19,-23,28,-16
1491087907920,2,-6,42,5,32,12,-11,18,-8
1491087907920,2,-9,19,-4,14,10,-13,-28,-15
1491087907921,0,7,-7,-6,2,-11,-31,-42,-11
1491087907921,0,60,9,10,-6,6,27,33,12
1491087907922,1,-85,-33,-11,-19,24,10,6,-3
1491087907922,1,45,5,11,24,8,25,-25,12
1491087907957,2,-36,-4,-3,-14,-11,-6,7,-9
1491087907957,2,26,12,-3,-3,0,-39,-49,-11
1491087907958,3,23,-18,-1,-19,-16,25,21,7
1491087907958,3,-100,3,5,-9,2,-8,18,-6
1491087907959,0,12,-17,-1,2,-10,2,-8,9
1491087907959,0,-21,-5,5,11,35,17,-6,-9
1491087907960,1,0,9,-4,-4,-18,-19,-25,-6
1491087907960,1,-48,-3,-7,11,14,19,15,1
1491087907995,2,9,-13,-20,-27,-1,26,12,0
1491087907995,2,-33,-8,-11,-7,-45,-87,-91,-13
1491087907995,3,-25,3,7,10,26,72,49,11
1491087907995,3,24,-7,-5,-10,-6,-44,71,-3
1491087907996,0,28,3,-4,-6,-2,-23,-106,4
1491087907996,0,-32,-9,2,-17,8,36,90,12
1491087907997,1,98,25,13,19,-4,-9,-14,-18
1491087907997,1,-46,8,8,13,6,63,49,10
1491087908032,2,52,-5,-11,-7,8,-37,-1,4
1491087908032,2,3,9,5,13,48,71,34,2
1491087908033,3,-44,-11,-16,-14,-46,-63,-58,-6
1491087908033,3,3,-23,-5,-15,-40,69,-47,5
1491087908034,0,-18,-10,4,5,27,-100,3,-25
1491087908034,0,105,8,-7,12,-39,40,-50,9
1491087908034,1,-16,23,10,19,0,-17,55,-3
1491087908034,1,-56,4,7,5,16,10,-16,0
1491087908070,2,-4,28,11,30,-60,32,57,11
1491087908070,2,76,12,-2,-51,104,43,54,9
1491087908071,3,2,-29,-19,-18,-43,-22,-43,7
1491087908071,3,12,-23,-24,-14,-53,-54,-65,-14
1491087908071,0,-11,-4,6,27,-6,-9,13,16
1491087908071,0,-20,-1,22,35,-22,-4,14,-2
1491087908072,1,-22,17,-3,-11,42,4,-7,-5
1491087908072,1,34,2,0,-10,-53,-12,9,-15
1491087908107,2,59,1,-13,-12,91,-5,-42,-18
1491087908107,2,-112,-33,-6,-8,-128,-2,52,6
1491087908108,3,90,-2,-3,4,123,-39,-21,-20
1491087908108,3,-34,-7,5,3,-94,69,18,18
1491087908108,0,15,-69,6,-19,-57,-13,-2,27
1491087908108,0,15,-64,0,9,106,16,39,-24
1491087908109,1,-87,-61,-7,-12,-103,15,-53,-11
1491087908109,1,48,-1,32,44,127,50,23,3
1491087908145,2,18,47,-5,-7,-36,23,-76,-47
1491087908145,2,-2,9,-10,-51,-121,-10,58,7
1491087908145,3,-52,-27,-25,-24,-72,-126,-80,-25
1491087908145,3,32,69,-1,53,88,58,83,54
1491087908146,0,-86,11,-6,-8,-20,-9,-22,-13
1491087908146,0,64,23,9,-33,37,9,-103,16
1491087908147,1,-59,7,-25,7,-83,22,37,-22
1491087908147,1,61,-35,1,-5,-108,-25,-31,-41
1491087908182,2,-86,24,-6,40,86,78,109,43
1491087908182,2,63,55,49,66,29,-58,37,-11
1491087908183,3,-32,3,13,2,63,103,19,0
1491087908183,3,92,-5,-24,-4,34,-80,65,81
1491087908184,0,104,-37,1,-27,59,24,6,-73
1491087908184,0,-124,21,1,45,-128,-128,-106,37
1491087908220,1,-48,56,25,-80,-90,120,26,-6
1491087908220,1,103,-48,-6,4,127,31,-50,6
1491087908220,2,11,10,-23,34,-117,-42,-33,9
1491087908220,2,77,-14,-28,-105,-50,-9,5,-17
1491087908221,3,42,-49,-3,63,107,-76,47,36
1491087908221,3,-128,10,24,15,56,-3,-38,-57
1491087908222,0,-30,37,-2,-83,-74,-87,43,29
1491087908222,0,5,-54,-33,73,127,127,107,40
1491087908257,1,-63,-34,-29,-68,-103,-128,-73,-42
1491087908257,1,17,-9,8,-39,-2,98,23,-20
1491087908258,2,3,-9,44,120,-16,4,55,-12
1491087908258,2,67,77,-2,-50,-10,80,-73,-4
1491087908259,3,-50,-20,-22,28,17,63,127,52
1491087908259,3,94,-9,-6,54,-14,-128,-128,-72
1491087908259,0,-128,1,-19,-86,-91,105,90,-7
1491087908259,0,60,12,12,89,-25,0,-18,19
1491087908295,1,-42,37,31,38,117,127,69,15
1491087908295,1,47,-28,1,-85,-128,-108,-115,39
1491087908295,2,-7,21,-10,92,30,94,89,37
1491087908295,2,-101,-23,-32,-74,-56,-125,-128,-123
1491087908296,3,106,4,0,-29,-52,96,19,0
1491087908296,3,-118,35,-11,2,108,55,54,1
1491087908297,0,83,5,8,-16,-21,79,37,14
1491087908297,0,-107,34,-25,-69,-8,82,45,17
1491087908332,1,99,-34,-17,22,-47,-124,-80,-2
1491087908332,1,0,-28,-5,-102,-128,-86,-64,-27
1491087908335,2,-23,-15,61,99,105,5,-89,-5
1491087908335,2,-31,90,20,44,116,97,67,14
1491087908335,3,44,-28,10,-61,-76,-75,-19,-11
1491087908335,3,-20,-18,-39,66,100,47,-49,-41
1491087908370,0,-11,73,-42,-75,24,-88,40,56
1491087908370,0,-99,11,-22,-85,-38,-128,-77,-72
1491087908370,1,28,52,5,44,127,85,103,84
1491087908370,1,40,-12,47,54,-128,14,-84,-43
1491087908371,2,-47,-38,-39,-76,89,32,70,4
1491087908371,2,-47,-110,16,72,-91,20,5,-18
1491087908372,3,0,-15,58,52,76,-111,-33,5
1491087908372,3,-9,-25,-3,-32,-79,-67,7,24
1491087908407,0,-44,-77,-60,-97,-76,56,-95,-40
1491087908407,0,119,-66,63,61,76,78,57,41
1491087908408,1,26,-21,-37,-29,75,86,-65,-43
1491087908408,1,-38,56,13,-22,-40,105,127,17
1491087908408,2,39,13,-10,-17,58,-128,-126,-8
1491087908408,2,-2,-3,26,53,63,83,70,20
1491087908409,3,-47,67,6,74,99,-6,-21,-10
1491087908409,3,-10,-9,4,-77,-31,-91,72,0
1491087908445,0,10,-74,-9,7,-124,81,18,-18
1491087908445,0,47,-13,-14,96,107,-47,64,70
1491087908445,1,-30,23,-2,-46,-98,-3,18,-57
1491087908445,1,-24,-10,-37,-25,51,1,40,18
1491087908446,2,-37,-44,50,74,-7,54,37,9
1491087908446,2,17,-39,5,5,61,100,-82,-21
1491087908482,3,29,-58,-35,-39,-62,-82,4,0
1491087908482,3,-64,-116,-40,-42,-126,-34,-60,-4
1491087908483,0,2,-38,-2,5,127,81,13,-22
1491087908483,0,-5,11,54,78,76,29,38,27
1491087908484,1,18,74,9,-45,-127,-19,7,27
1491087908484,1,-19,7,-35,-62,15,-19,-26,-16
1491087908484,2,5,-17,51,108,-44,-88,-21,3
1491087908484,2,9,104,6,-78,56,-16,5,-18
1491087908520,3,-4,-39,-34,1,-81,-12,-23,-14
1491087908520,3,21,55,7,58,45,94,82,39
1491087908521,0,-17,-67,-20,25,-111,-125,-63,-7
1491087908521,0,-3,-27,-42,-85,-47,-51,-59,-26
1491087908595,1,-20,-25,46,110,19,49,24,3
1491087908595,1,22,1,-21,-9,100,46,33,25
1491087908595,2,18,90,36,-39,-70,117,59,29
1491087908595,2,-12,-4,-23,-109,27,-83,-23,-38
1491087908596,3,-8,-46,-8,-5,-63,-59,-7,-4
1491087908596,3,3,-5,-55,-51,-33,-8,-18,-9
1491087908597,0,0,13,4,25,19,-20,-30,-13
1491087908597,0,-8,-3,15,-14,-88,3,29,-3
1491087908632,1,15,46,3,-27,82,67,23,10
1491087908632,1,0,80,11,46,72,22,4,0
1491087908633,2,-23,33,-16,-15,-26,-30,-36,-9
1491087908633,2,-10,-8,-34,-25,-78,-44,-4,1
1491087908634,3,5,-13,6,-29,45,10,-5,-6
1491087908634,3,21,-16,28,19,28,39,6,7
1491087908635,3,-18,-10,11,-45,-58,-20,4,-11
1491087908635,3,1,44,-33,1,44,-17,-20,0
1491087908670,0,2,100,4,13,72,-10,19,-3
1491087908670,0,-1,89,24,50,-66,42,10,5
1491087908670,1,13,67,16,12,25,29,1,7
1491087908670,1,4,52,-15,18,-31,-59,-32,-2
1491087908671,2,-5,56,-1,-45,-28,-39,-17,-18
1491087908671,2,-5,33,-36,-4,22,8,18,-6
1491087908672,3,-10,90,40,17,6,64,4,-33
1491087908672,3,0,105,-6,-50,-128,-69,-4,14
1491087908707,0,-65,97,-45,-16,30,-25,-8,-2
1491087908707,0,65,97,10,-1,-87,0,-8,6
1491087908708,1,19,0,-22,9,127,2,-9,13
1491087908708,1,-8,-118,5,1,71,56,12,-20
1491087908709,2,6,-128,57,42,-60,-24,-11,2
1491087908709,2,-25,-128,-65,-74,21,7,14,6
1491087908710,3,-4,-81,34,52,23,25,11,-1
1491087908710,3,-21,-66,-2,-32,-69,15,-6,7
1491087908782,0,9,-115,-36,-54,-20,-48,-18,1
1491087908782,0,-11,-128,5,41,33,3,5,-7
1491087908820,1,2,-60,11,5,72,16,11,11
1491087908820,1,-24,-57,20,14,-24,11,-16,-11
1491087908833,2,12,-57,10,-33,-117,-26,9,6
1491087908833,2,-17,-111,-2,22,34,-12,-3,-3
1491087908834,3,37,-108,-75,-86,-7,-79,-20,1
1491087908834,3,-22,-44,42,63,127,48,18,9
1491087908835,0,-5,33,0,-14,17,50,2,-12
1491087908835,0,-38,109,3,-40,-85,-63,-22,0
1491087908857,1,-29,65,-46,-2,-31,11,-2,5
1491087908857,1,61,55,0,-6,16,10,-2,5
1491087908858,2,35,11,3,23,15,1,1,13
1491087908858,2,-9,-56,-4,-2,57,39,17,-16
1491087908895,1,-29,127,48,19,-108,-17,-16,20
1491087908895,1,-24,22,-18,-37,-3,-9,-17,-12
1491087908895,1,-3,31,9,36,2,-7,-5,2
1491087908895,1,1,-83,38,22,-14,-22,-6,-2
1491087908896,2,-12,-71,-34,-61,-38,-34,-17,-11
1491087908896,2,-3,-63,27,26,22,19,19,16
1491087908932,3,-25,-6,17,2,-21,-20,-6,-16
1491087908932,3,43,24,-49,-21,-16,-55,0,8
1491087908938,1,19,18,-20,-36,-48,-46,-21,-1
1491087908938,1,-50,9,0,-5,-1,-4,9,-4
1491087908940,2,-14,56,-19,-8,23,-3,6,1
1491087908940,2,33,-6,-29,-38,-44,-15,0,2
1491087908941,3,17,-16,18,28,-51,-18,-6,-2
1491087908941,3,-16,-24,-6,2,29,-31,-13,-16
1491087908970,1,23,-2,0,11,-5,5,11,-3
1491087908970,1,14,-75,-9,-16,-14,-14,6,-14
1491087908970,2,-5,-104,21,12,54,15,18,7
1491087908970,2,-1,-63,28,30,-20,-8,-28,-18
1491087908971,3,-28,47,-17,-16,-9,-19,-14,-14
1491087908971,3,56,40,-17,19,0,-8,18,19
1491087908972,0,-19,-22,-1,4,12,-5,5,-40
1491087908972,0,-20,-29,-24,-2,16,7,-2,-6
1491087909007,1,47,-47,10,1,-14,9,2,4
1491087909007,1,2,93,10,24,40,35,6,0
1491087909008,2,22,77,7,8,-40,-10,-13,17
1491087909008,2,-38,40,-13,1,-8,-10,7,-5
1491087909008,0,19,-44,8,32,-4,54,20,17
1491087909008,0,14,-8,-22,-22,28,-9,-30,-7
1491087909009,1,3,-88,-17,-22,-8,-14,9,-6
1491087909009,1,12,-128,2,-3,-16,-38,-33,-4
1491087909082,2,-25,-3,-12,-18,-2,5,-3,-12
1491087909082,2,33,-70,4,6,-9,-22,-16,-5
1491087909083,3,54,113,-10,12,61,45,33,18
1491087909083,3,-12,27,11,-15,-28,8,-10,-3
1491087909084,0,52,13,-2,-6,-4,-31,-5,-2
1491087909084,0,-8,-24,-2,6,17,34,16,7
1491087909084,1,0,5,-11,-44,27,-9,-10,5
1491087909084,1,-26,49,-14,-18,-50,9,7,4
1491087909120,2,-30,34,6,13,27,-10,-11,10
1491087909120,2,-45,45,-20,-22,-17,20,1,2
1491087909120,3,-46,27,9,6,4,-14,-8,3
1491087909120,3,-19,99,-1,7,-11,73,5,-4
1491087909121,0,17,118,-13,-12,5,-50,-5,-14
1491087909121,0,8,127,1,5,13,20,17,22
1491087909122,3,-6,-80,16,-3,-13,5,-19,-2
1491087909122,3,-12,-47,3,23,69,59,68,14
1491087909157,0,13,-53,-19,-40,7,-32,-39,-3
1491087909157,0,-54,9,3,-4,-48,-98,-11,-19
1491087909158,1,33,-3,-5,-3,-53,29,-17,1
1491087909158,1,54,-40,-5,-2,38,-24,0,11
1491087909158,3,20,15,5,-14,-5,-35,-3,-19
1491087909158,3,-57,119,-11,-24,-44,-32,-37,-30
1491087909159,0,23,-7,-1,6,-6,-6,1,10
1491087909159,0,32,-16,3,3,-4,1,-28,3
1491087909420,1,-40,-17,14,37,39,48,51,11
1491087909420,1,-14,-12,-14,-5,54,10,6,-11
1491087909422,2,5,48,-12,15,-52,-6,-14,10
1491087909422,2,-9,63,7,-8,33,33,-21,-40
1491087909423,3,-29,44,-4,-2,-83,-91,-2,-1
1491087909423,3,-7,-11,-1,2,9,-19,-28,5
1491087909423,0,37,-35,3,4,44,70,34,13
1491087909423,0,2,-89,2,5,7,-52,-15,-16
1491087909457,1,29,-107,-21,-11,-38,25,-20,6
1491087909457,1,-14,-36,13,1,28,-13,-13,-9
1491087909458,2,-23,-23,-8,-4,6,3,12,-13
1491087909458,2,51,33,1,8,-28,55,23,39
1491087909459,2,16,21,4,-15,-10,-86,-34,-9
1491087909459,2,-70,79,-1,10,-3,97,13,3
1491087909459,1,84,-3,9,6,29,-87,-76,13
1491087909459,1,17,-23,-1,4,18,3,-23,-13
1491087909495,2,-59,4,-8,-26,-53,11,-2,-25
1491087909495,2,76,17,6,-4,-7,-9,-44,11
1491087909496,3,-103,-32,-21,-41,-49,4,32,-30
1491087909496,3,69,-9,6,11,-31,48,-2,5
1491087909496,1,48,29,8,18,28,27,-4,9
1491087909496,1,-83,12,-11,-22,7,-47,-39,-5
1491087909497,2,-2,17,8,-15,-33,72,16,-32
1491087909497,2,19,6,-7,13,0,-2,66,44
1491087909532,3,31,32,6,36,10,12,15,0
1491087909532,3,-68,29,15,-2,46,-14,-82,-50
1491087909533,0,22,-13,-21,-21,-55,-20,8,-3
1491087909533,0,-11,-10,-12,-26,-28,-1,20,-5
1491087909534,1,32,-23,3,4,-11,21,-12,9
1491087909534,1,-26,7,0,35,-10,17,21,14
1491087909534,2,-4,10,15,24,71,72,-4,-2
1491087909534,2,14,-4,-13,-26,-31,-78,-16,-7
1491087909570,3,-33,55,-8,-1,3,8,53,3
1491087909570,3,43,20,-13,1,-23,12,17,6
1491087909570,0,-55,10,23,6,-1,-53,-37,-20
1491087909570,0,17,-34,-3,10,17,77,14,-3
1491087909571,1,-37,-18,14,7,21,-22,4,15
1491087909571,1,-19,-23,-10,-24,-12,-8,32,11
1491087909572,2,-2,-20,-5,-9,-9,-15,-5,26
1491087909572,2,8,-18,1,-1,-13,9,-14,-10
1491087909607,3,-15,-37,-14,-39,-18,34,-62,-36
1491087909607,3,-29,-4,13,12,2,-45,-1,20
1491087909608,0,64,-14,-5,-11,-5,-5,36,29
1491087909608,0,-37,-8,-13,-10,-19,7,-55,-9
1491087909609,1,35,9,13,-2,-8,8,26,14
1491087909609,1,37,15,2,16,12,24,11,4
1491087909609,2,-45,13,8,18,2,8,-46,-17
1491087909609,2,7,3,3,-3,-12,-67,1,1
1491087909645,3,4,-22,-13,-5,-6,-18,2,8
1491087909645,3,5,-1,2,-7,1,7,15,9
1491087909645,0,8,-12,-5,14,10,-34,-28,-16
1491087909645,0,-28,4,0,6,-3,35,27,-10
1491087909646,1,47,21,6,22,-4,8,-38,-1
1491087909646,1,-6,-4,-12,11,8,-8,12,-9
1491087909647,2,30,-3,1,33,7,-5,-9,-5
1491087909647,2,-14,2,-6,8,16,15,20,-8
1491087909682,3,-33,-18,-3,-19,7,3,20,-8
1491087909682,3,26,-43,8,-58,-32,-4,-27,5
1491087909683,0,-2,-61,-8,-83,-26,-28,-49,8
1491087909683,0,-14,-20,6,-19,-15,12,0,12
1491087909684,1,-1,23,9,14,22,27,12,3
1491087909684,1,13,26,-6,18,-2,-8,-25,-6
1491087909684,2,-23,51,0,28,-5,19,6,-23
1491087909684,2,-25,32,-4,30,34,-15,65,7
1491087909720,3,3,9,3,16,-6,5,-49,-28
1491087909720,3,-27,-1,-12,13,-13,-58,-26,-10
1491087909721,0,-19,-28,-2,-17,8,-13,40,24
1491087909721,0,37,-33,-9,-37,-23,-6,-44,2
1491087909721,1,-58,-38,-14,-47,-13,12,31,9
1491087909721,1,-6,-20,3,-5,2,43,19,28
1491087909722,2,60,-5,7,21,3,-15,-5,-12
1491087909722,2,-19,-3,3,4,-13,20,-13,3
1491087909757,3,-64,-9,2,1,59,-2,37,9
1491087909757,3,41,8,-2,-4,-29,-1,-10,-19
1491087909758,0,-68,1,-10,10,-26,-5,11,0
1491087909758,0,37,41,-12,22,15,-21,-3,-15
1491087909759,1,9,38,-5,30,-5,-2,5,7
1491087909759,1,-59,-9,8,35,9,34,-14,-52
1491087909759,2,14,17,22,27,56,-4,10,8
1491087909759,2,26,-5,-18,-26,-12,3,11,-14
1491087909795,3,-27,-1,-15,-29,-51,-69,-102,-10
1491087909795,3,73,-6,3,-5,26,11,30,6
1491087909796,0,-16,20,-3,-11,-33,-6,33,12
1491087909796,0,28,-5,17,3,-16,45,6,-2
1491087909797,1,-44,-10,-10,15,49,-25,8,-24
1491087909797,1,32,8,-7,-1,-48,32,19,28
1491087909832,2,-1,-11,8,15,9,0,-49,-27
1491087909832,2,-88,-12,18,-12,-8,-16,6,10
1491087909833,3,5,-35,-4,9,65,22,10,-1
1491087909833,3,-128,-11,-12,-26,-58,-35,13,-13
1491087909834,0,81,-23,-30,-34,-56,-49,-37,25
1491087909834,0,31,-18,-1,19,43,41,23,-6
1491087909835,1,13,45,3,9,29,12,-61,-1
1491087909835,1,-7,2,8,8,42,13,20,-11
1491087909870,2,28,-42,-8,-20,-75,8,-19,-19
1491087909870,2,-36,-6,2,-3,80,3,17,-11
1491087909870,3,-9,-23,5,-16,39,-17,-50,-10
1491087909870,3,14,23,-2,-15,-36,81,39,27
1491087909871,0,34,-14,-5,-36,-80,-109,-43,-7
1491087909871,0,22,-30,-9,5,-114,75,38,17
1491087909872,1,78,1,30,46,43,59,79,22
1491087909872,1,-8,15,-7,44,90,98,-19,-27
1491087909907,2,-14,16,-14,-35,-13,-53,-6,-17
1491087909907,2,-97,-34,-12,-34,-102,-35,-52,14
1491087909908,3,44,-30,-21,23,43,-93,14,-13
1491087909908,3,51,27,23,44,-4,27,-70,19
1491087909909,0,-74,27,6,-4,97,104,17,-25
1491087909909,0,70,-10,-40,-1,24,-91,3,-31
1491087909910,1,47,-19,26,-9,-82,-14,-6,11
1491087909910,1,-9,31,32,23,109,42,68,25
1491087909982,2,-77,46,6,21,-3,6,107,41
1491087909982,2,-38,30,7,-72,-84,42,-45,-45
1491087910020,3,10,11,-30,4,25,-50,-48,30
1491087910020,3,74,-68,-29,-44,-128,-128,-50,-39
1491087910021,0,-37,-19,7,4,-53,48,-22,-17
1491087910021,0,52,19,34,124,127,95,-24,39
1491087910022,1,52,-7,19,3,-128,-20,69,-15
1491087910022,1,-84,-22,-27,-95,79,-34,-29,1
1491087910023,2,74,-29,-52,-53,-94,-107,18,13
1491087910023,2,8,-74,7,-42,-105,-15,0,-29
1491087910057,3,-86,-46,20,71,82,60,-31,-26
1491087910057,3,24,-16,3,39,-128,11,-58,1
1491087910058,1,76,46,14,-49,-58,-29,22,-19
1491087910058,1,-115,33,-3,-20,101,58,127,31
1491087910061,2,75,64,7,38,46,52,23,20
1491087910061,2,0,-37,-15,-35,-88,118,-22,48
1491087910062,1,112,46,-10,32,-71,127,-19,-28
1491087910062,1,-60,-27,-11,-28,127,-84,104,32
1491087910132,2,56,-17,-3,-34,-48,-53,-116,-21
1491087910132,2,-7,48,-15,-43,55,61,67,13
1491087910133,3,5,-5,-22,-19,-19,-41,29,2
1491087910133,3,41,19,42,26,106,113,30,21
1491087910134,0,33,38,0,90,-14,-11,65,43
1491087910134,0,21,32,41,-37,-128,-87,-105,-6
1491087910135,1,-73,35,-32,13,91,127,120,72
1491087910135,1,-9,75,-25,-4,-128,11,12,-44
1491087910170,2,-35,-116,18,-68,-65,-67,-95,-90
1491087910170,2,13,40,3,82,44,76,103,6
1491087910171,3,-17,-12,14,21,-51,-77,9,45
1491087910171,3,-15,-13,-23,-49,31,60,14,18
1491087910172,0,-54,34,11,88,23,127,-64,-20
1491087910172,0,38,37,10,18,-104,-112,-80,37
1491087910174,0,-9,-85,1,-28,-30,96,1,17
1491087910174,0,-13,-68,-47,-4,31,-125,-86,24
1491087910207,1,-128,-41,-25,-13,-70,-81,105,-17
1491087910207,1,113,-12,47,8,58,64,-69,-24
1491087910208,2,10,-40,-24,-22,-29,-86,4,6
1491087910208,2,-63,-42,-40,-72,-112,75,81,-28
1491087910245,0,91,19,11,3,-38,-22,-43,43
1491087910245,0,16,45,34,67,83,67,13,20
1491087910247,1,-29,5,32,52,-103,103,-114,-64
1491087910247,1,34,45,-13,-12,11,28,17,11
1491087910248,2,-48,-48,-13,2,122,-83,-20,-45
1491087910248,2,-8,-16,-56,-101,22,11,-24,-46
1491087910249,3,14,-21,6,0,127,-55,-33,-15
1491087910249,3,-52,23,-18,-15,-125,-24,-5,15
1491087910282,0,-96,62,-7,1,-90,42,44,11
1491087910282,0,112,83,12,70,-15,-51,-20,7
1491087910284,1,23,30,41,-36,9,61,53,28
1491087910284,1,-32,-79,-75,-33,4,-60,-35,-45
1491087910285,2,12,-66,30,122,127,100,-13,51
1491087910285,2,-30,-71,10,-30,-89,-73,-51,-28
1491087910285,3,20,-16,14,23,124,29,86,21
1491087910285,3,15,-7,-21,-33,-127,-68,12,-38
1491087910320,0,-34,-16,2,-28,-100,67,68,18
1491087910320,0,20,38,-27,-18,122,-46,12,1
1491087910321,1,-8,-95,-16,-63,-90,55,-53,6
1491087910321,1,-6,-49,56,113,97,52,-21,-2
1491087910322,3,-16,-59,-16,42,31,35,-49,-24
1491087910322,3,-23,-34,-61,-105,-106,-63,-6,-36
1491087910358,0,-3,-37,23,85,18,26,17,16
1491087910358,0,16,-7,35,42,88,58,14,6
1491087910360,1,-3,-5,-22,2,-41,57,54,25
1491087910360,1,-2,-47,-12,-43,-21,-59,-49,9
1491087910361,2,24,-33,25,43,-92,-56,7,-21
1491087910361,2,11,61,6,-22,-127,70,39,-12
1491087910362,3,-16,-37,-11,-18,56,-34,5,13
1491087910362,3,0,53,9,49,108,15,-42,-23
1491087910395,0,2,10,-50,-128,-77,-107,-10,-19
1491087910395,0,-15,-25,5,76,-47,-13,-1,16
1491087910397,1,2,-48,-23,-89,-26,55,35,8
1491087910397,1,29,-67,90,124,36,37,-19,19
1491087910398,2,-36,8,3,20,127,25,-4,-7
1491087910398,2,19,71,8,17,-34,88,3,-15
1491087910399,3,-5,63,-58,-121,-121,-110,-46,-13
1491087910399,3,-3,59,-6,33,2,105,44,-3
1491087910433,0,-2,117,32,36,127,-39,-53,-11
1491087910433,0,6,83,23,6,-46,13,-8,7
1491087910434,1,-25,34,-31,-82,29,-48,-26,-26
1491087910434,1,-15,10,-17,-14,-45,-65,-27,4
1491087910435,2,45,109,18,21,8,110,70,21
1491087910435,2,-16,-15,12,46,127,-44,-17,-11
1491087910436,3,0,-8,16,19,-41,-18,-10,9
1491087910436,3,-3,-77,-35,-81,-128,5,9,0
1491087910470,0,1,-46,-10,0,106,28,17,-2
1491087910470,0,8,-10,27,14,-117,48,16,0
1491087910471,1,-15,-48,3,5,9,-36,4,-5
1491087910471,1,5,-94,-26,-29,127,-21,-30,-4
1491087910472,2,-26,-90,-60,-92,-110,-18,-28,-3
1491087910472,2,-15,-91,38,57,22,-14,-2,5
1491087910473,3,33,-44,54,58,-128,73,36,6
1491087910473,3,-10,33,-8,-97,-113,-72,-19,-6
1491087910508,0,5,25,-28,19,105,-36,-19,1
1491087910508,0,-25,-8,-53,-25,93,21,-17,-17
1491087910510,1,2,88,-8,-10,-61,-27,12,6
1491087910510,1,-11,57,69,121,67,62,33,6
1491087910511,2,37,56,-33,-52,-24,-13,-12,-4
1491087910511,2,-42,98,24,25,76,1,25,-12
1491087910512,3,30,81,-17,1,-31,-36,-46,6
1491087910512,3,-5,54,-43,-58,-96,-52,-17,7
1491087910545,0,-17,-44,43,70,0,68,23,-13
1491087910545,0,5,13,-53,-119,-102,-101,-15,-16
1491087910547,1,-41,66,-14,105,103,-50,-36,2
1491087910547,1,-4,94,-13,12,-34,8,-8,-8
1491087910547,2,3,-17,24,56,59,71,19,4
1491087910547,2,-36,-28,39,51,102,11,22,14
1491087910548,3,4,-90,-7,-69,-113,-6,3,-5
1491087910548,3,32,-108,51,75,-33,117,30,-4
1491087910657,0,-6,-62,-16,-53,-81,-59,-8,1
1491087910657,0,59,-84,-60,-100,-128,-106,-51,3
1491087910807,1,21,-66,68,80,127,53,31,2
1491087910807,1,2,-49,-80,-82,-36,-46,-24,-2
1491087910808,2,-34,-82,20,77,-87,95,48,-1
1491087910808,2,-14,-55,-38,-93,71,-73,-19,9
1491087910809,3,15,-2,-41,-75,-116,-61,-57,-3
1491087910809,3,3,-123,74,127,127,127,41,8
1491087910810,0,18,-46,9,-53,-63,46,27,-9
1491087910810,0,-86,32,-11,-52,-109,-22,0,-16
1491087910845,1,16,88,-40,-40,3,-8,-10,1
1491087910845,1,0,127,6,8,77,67,-6,-9
1491087910846,1,24,-77,-38,-82,75,119,-12,-19
1491087910846,1,-4,-67,-38,-57,127,127,25,-4
1491087910846,0,8,-38,-2,11,-21,-128,-11,-11
1491087910846,0,6,13,37,3,26,-80,30,-14
1491087910882,3,51,24,14,-12,-11,8,4,8
1491087910882,3,-10,-16,-45,-20,28,18,-3,-4
1491087910883,0,-7,-3,26,37,-11,5,-24,-7
1491087910883,0,9,-31,13,4,-50,16,21,-1
1491087910884,1,7,-29,-16,-25,-17,-11,-2,2
1491087910884,1,10,-7,6,22,-1,16,-2,-7
1491087910885,3,5,36,-3,28,15,57,24,21
1491087910885,3,40,20,30,26,-45,-29,-37,-4
1491087910920,0,-34,-18,-10,-16,-9,4,15,-3
1491087910920,0,7,-43,-3,14,-13,-22,-26,-10
1491087910921,1,-22,4,-9,-4,14,18,4,-6
1491087910921,1,-3,-7,10,18,35,42,4,2
1491087910921,3,-5,24,-11,-26,-43,-1,2,-1
1491087910921,3,-26,59,-7,1,15,28,8,2
1491087910922,0,-27,13,-40,-28,10,-22,-9,5
1491087910922,0,18,-99,35,22,68,53,21,-3
1491087910957,1,20,24,-2,-29,-36,-17,-31,1
1491087910957,1,-3,-74,1,-3,-4,11,27,11
1491087910958,2,34,98,-8,-8,12,29,9,-3
1491087910958,2,-23,105,-21,-29,-27,-33,-29,-12
1491087910959,3,-49,114,-4,13,-2,8,24,17
1491087910959,3,-16,13,2,2,26,36,5,7
1491087910960,0,1,2,14,25,7,-8,-28,-2
1491087910960,0,1,-27,-14,-44,-4,-6,8,9
1491087910995,1,14,-59,8,18,-5,16,-2,4
1491087910995,1,-38,-10,-9,-1,-34,-15,-21,-15
1491087910996,2,-34,-52,-8,-14,16,-21,-21,-8
1491087910996,2,4,22,-13,7,36,80,43,14
1491087910996,3,-40,-13,-2,-26,-18,-41,-28,-33
1491087910996,3,-6,36,12,8,-3,3,-6,15
1491087910997,0,2,-40,-1,4,14,29,-2,-9
1491087910997,0,-2,-11,21,33,-22,-24,-7,-14
1491087911032,1,-66,-63,-5,-18,6,-41,-18,-7
1491087911032,1,14,-57,-20,-16,-17,30,16,-7
1491087911033,2,83,-40,3,16,11,0,-35,8
1491087911033,2,-65,42,1,0,-35,-19,3,-8
1491087911033,3,72,105,3,9,42,65,23,37
1491087911033,3,-19,96,8,4,50,-48,-48,-52
1491087911034,0,-17,85,-1,4,6,-8,-26,8
1491087911034,0,66,127,-12,-30,-28,7,38,11
1491087911070,1,-22,3,2,9,-32,-68,-31,-9
1491087911070,1,64,-10,15,14,17,44,31,25
1491087911071,2,-15,-81,-17,-31,14,39,69,-10
1491087911071,2,-14,-93,23,39,63,-5,-66,0
1491087911071,3,6,-41,5,-4,-69,15,18,6
1491087911071,3,-121,-59,-32,-36,-58,-70,-6,-9
1491087911072,0,36,-37,-7,0,-49,-41,-30,-5
1491087911072,0,-40,-46,-2,-36,47,24,0,3
1491087911107,1,41,4,30,27,30,3,14,2
1491087911107,1,-32,37,5,42,114,121,61,9
1491087911108,2,-51,80,-3,-5,-30,-41,-22,-2
1491087911108,2,2,44,-27,-45,-64,-36,-94,-45
1491087911145,3,84,45,-5,6,-47,64,49,15
1491087911145,3,20,11,3,-12,-33,-104,-74,-11
1491087911182,0,-70,8,7,27,23,52,38,12
1491087911182,0,59,39,9,-9,3,67,49,14
1491087911183,1,-103,92,-14,-3,4,-54,-27,-13
1491087911183,1,80,112,-7,-15,-12,2,37,30
1491087911184,2,-4,38,24,8,42,52,-11,-7
1491087911184,2,-31,-41,-13,21,-55,-16,28,22
1491087911185,3,0,-69,25,5,59,6,30,-14
1491087911185,3,-45,-57,-14,-16,-31,-2,-54,-24
1491087911220,0,73,12,-13,9,-5,-17,-35,-4
1491087911220,0,-21,-33,2,-11,14,-2,30,15
1491087911221,1,-12,-33,10,11,-1,33,65,31
1491087911221,1,-2,-27,6,15,65,-1,-56,-44
1491087911222,2,-6,-108,-5,-46,-82,-25,20,12
1491087911222,2,-67,-23,-23,18,-25,14,32,18
1491087911222,1,-63,-84,-12,0,8,-47,-4,1
1491087911222,1,-12,-5,-16,-10,-33,44,10,-15
1491087911257,2,61,-4,6,-3,10,-48,-26,-3
1491087911257,2,18,-36,16,41,92,43,-23,9
1491087911259,3,31,-97,-15,-22,-60,-16,-45,-19
1491087911259,3,72,-79,7,-14,-52,-50,-29,-2
1491087911260,0,-76,-42,-11,4,5,85,55,10
1491087911260,0,-4,102,-12,-16,51,18,16,1
1491087911261,1,67,26,2,27,11,-63,-73,9
1491087911261,1,-121,-103,-15,-11,-29,-15,-28,-31
1491087911295,2,-44,-101,-33,-65,-84,-40,8,-2
1491087911295,2,28,-88,22,22,-62,-94,-38,-34
1491087911295,3,41,66,-1,39,76,70,35,10
1491087911295,3,29,126,15,-8,20,-20,28,22
1491087911296,0,-29,49,25,41,27,0,24,-13
1491087911296,0,56,-41,-7,-10,25,30,-10,17
1491087911297,1,-71,53,-17,-29,0,59,27,-16
1491087911297,1,36,32,17,-5,-27,-97,-91,-14
1491087911332,2,76,94,-1,8,-1,127,72,21
1491087911332,2,-86,26,-6,-28,64,-109,-17,-19
1491087911333,3,15,-4,1,-14,-86,-8,-12,-15
1491087911333,3,-18,-17,-23,-9,-9,32,28,38
1491087911334,0,-26,-17,-7,14,-23,-55,-72,-28
1491087911334,0,85,-47,24,32,-14,48,8,5
1491087911334,1,-82,-64,0,17,94,29,-2,-37
1491087911334,1,38,-27,-9,2,-37,-26,78,7
1491087911370,2,-69,28,-13,-23,6,2,-53,0
1491087911370,2,-32,74,0,21,9,30,41,34
1491087911371,3,102,65,18,-1,-17,-46,-72,-11
1491087911371,3,-24,-50,-8,-19,-71,-9,91,22
1491087911371,0,-3,-61,-11,2,-2,-33,-33,-20
1491087911371,0,-16,-11,-3,12,71,107,55,-2
1491087911372,1,-39,-26,6,12,-34,-48,10,25
1491087911372,1,-15,3,-1,9,18,59,-55,-22
1491087911407,2,-7,-28,6,1,-17,-59,12,12
1491087911407,2,7,34,-36,-37,-65,-9,-33,-16
1491087911409,3,53,26,10,41,37,58,30,23
1491087911409,3,39,38,12,14,40,-14,-19,-20
1491087911410,0,-25,-17,16,-14,70,32,24,27
1491087911410,0,2,-15,-6,-4,35,-16,21,-7
1491087911411,1,-61,-14,-24,-22,-60,51,47,-1
1491087911411,1,69,-37,-14,-53,-55,-79,-68,-17
1491087911445,2,-19,-57,11,30,-42,-33,-40,-2
1491087911445,2,1,-68,15,25,-6,-63,13,2
1491087911448,3,-18,-16,3,-25,50,30,40,6
1491087911448,3,-50,23,-1,39,10,55,57,22
1491087911450,0,18,29,-10,3,4,-6,-53,-39
1491087911450,0,5,31,-12,-23,-49,-34,-55,-21
1491087911451,1,-15,-10,-2,0,-15,-25,6,-6
1491087911451,1,-46,17,8,-12,33,58,35,8
1491087911483,2,91,33,13,7,37,-15,2,9
1491087911483,2,-29,31,1,15,-16,30,35,16
1491087911485,3,55,-6,-17,-44,-61,-33,18,11
1491087911485,3,-31,34,-3,-13,-11,33,-38,-9
1491087911486,0,0,-41,15,-10,35,-51,21,22
1491087911486,0,41,-13,6,12,3,21,-71,-20
1491087911487,1,4,-11,-8,-28,-21,-29,-55,-14
1491087911487,1,-11,-35,-1,0,-28,12,11,16
1491087911520,2,-4,15,-12,-4,-20,87,53,6
1491087911520,2,51,-42,13,-12,32,-37,-53,3
1491087911521,3,-34,-44,-2,1,9,-20,-24,9
1491087911521,3,-2,-52,1,4,13,17,-32,-17
1491087911522,0,12,-9,2,2,9,8,6,7
1491087911522,0,-6,5,-2,-15,1,34,50,9
1491087911522,1,-10,-5,-5,18,-14,-14,-27,-8
1491087911522,1,-45,34,-1,5,-6,-39,-2,2
1491087911558,2,41,19,-4,-10,1,30,21,0
1491087911558,2,0,43,5,6,-18,-10,25,8
1491087911560,3,-21,42,-2,-15,12,12,17,-18
1491087911560,3,21,26,5,27,-5,-30,-14,-4
1491087911560,0,-9,1,-10,4,18,46,27,-18
1491087911560,0,-11,-22,7,23,6,-53,16,11
1491087911561,1,6,12,3,19,-3,26,9,-10
1491087911561,1,-26,-32,-8,-19,14,-6,18,-6
1491087911595,2,-39,-6,-1,2,13,16,-10,-8
1491087911595,2,27,-1,-3,0,-5,-23,-18,-20
1491087911595,3,-23,50,9,8,-2,-2,-4,2
1491087911595,3,27,-9,-10,-13,-20,-13,13,3
1491087911596,0,-25,7,-10,3,-9,-16,-12,0
1491087911596,0,-22,18,2,4,-4,30,27,0
1491087911597,1,-1,2,11,11,24,-16,-8,0
1491087911597,1,-13,9,-14,-9,13,11,9,-4
1491087911632,2,-7,19,7,-5,-12,-7,2,-3
1491087911632,2,-30,4,-4,-13,-7,-3,-29,-8
1491087911670,3,-14,-18,-7,-25,-10,-15,7,-3
1491087911670,3,-2,-16,2,8,5,1,1,-3
1491087911670,0,33,-28,-11,24,-8,-33,-1,9
1491087911670,0,-62,21,-6,-16,-15,10,-31,-14
1491087911671,1,50,-36,-3,2,10,7,40,15
1491087911671,1,7,-12,-2,-9,-6,2,0,-9
1491087911672,2,-1,-17,6,-1,18,-10,-13,-3
1491087911672,2,32,4,0,-1,2,9,11,-4
1491087911707,3,-43,-47,-13,-51,-31,-32,-39,-28
1491087911707,3,-4,-44,-4,-43,-15,-7,16,11
1491087911708,0,74,-29,11,-11,-6,8,-6,32
1491087911708,0,6,-2,-6,-22,-22,0,-19,11
1491087911708,1,43,32,2,18,25,32,-12,24
1491087911708,1,-84,33,3,7,4,3,-4,-24
1491087911709,2,-3,-11,-11,-4,-11,-16,9,-2
1491087911709,2,-9,-3,-2,0,2,1,16,-13
1491087911745,3,7,104,1,17,8,16,9,8
1491087911745,3,11,108,-8,-4,0,-31,-10,2
1491087911745,0,-64,22,9,16,7,-6,-31,-16
1491087911745,0,-39,-53,-7,0,-1,8,42,-4
1491087911746,1,-32,-74,6,18,2,18,-27,-15
1491087911746,1,28,-20,8,36,3,7,5,8
1491087911747,2,-20,25,-2,14,0,5,21,-8
1491087911747,2,27,-33,-4,8,6,-13,1,-8
1491087911820,3,32,-12,-12,15,2,-17,-20,-5
1491087911820,3,-13,-33,8,10,20,33,27,12
1491087911821,0,-75,3,0,-17,-11,-9,-39,-21
1491087911821,0,7,4,0,-29,-23,-4,-2,3
1491087911822,1,-12,-4,-10,-31,-9,14,3,11
1491087911822,1,-61,-24,2,17,-2,-13,-13,-6
1491087911857,2,90,-14,-5,-12,6,23,33,25
1491087911857,2,-44,1,-12,10,-6,-14,-23,-13
1491087911858,3,-25,-38,11,-1,0,21,-1,-5
1491087911858,3,84,-18,5,-9,-2,-9,31,5
1491087911858,0,-17,12,6,6,-1,-15,-30,-18
1491087911858,0,-18,2,-5,6,1,18,-23,-17
1491087911859,1,54,-48,-17,-5,-4,-54,19,15
1491087911859,1,-36,-22,3,6,2,9,3,-5
1491087911895,0,35,7,-1,-19,-19,-7,35,8
1491087911895,0,-13,-10,-12,-10,-9,-7,-25,0
1491087911897,1,-33,-1,-2,0,-12,-27,28,11
1491087911897,1,-3,-1,-1,5,-15,-18,-49,-32
1491087911898,2,8,12,6,-7,9,12,7,10
1491087911898,2,34,-8,13,33,22,11,14,14
1491087911899,0,42,4,-14,7,6,-32,19,19
1491087911899,0,-11,6,0,-29,-21,-6,7,-2
1491087911932,1,20,13,0,7,13,9,9,13
1491087911932,1,25,12,20,33,41,45,5,5
1491087911933,2,-101,3,-11,-11,-43,-51,2,-31
1491087911933,2,91,29,16,-5,3,-7,-1,37
1491087911934,0,-87,-32,-3,7,41,53,-21,-22
1491087911934,0,44,26,17,32,-8,-82,-9,19
1491087911934,1,6,-2,-12,-5,15,29,-62,-42
1491087911934,1,-86,-4,-11,-43,-19,-39,40,6
1491087911970,2,33,-13,-10,-6,-1,47,24,17
1491087911970,2,-4,1,-4,-4,-23,-39,12,-1
1491087911970,3,8,3,9,2,-2,23,8,0
1491087911970,3,-16,2,-5,-10,-8,29,-6,5
1491087911971,0,11,12,0,22,34,-58,-71,-39
1491087911971,0,28,4,-12,-2,11,48,64,40
1491087911972,1,-52,-6,-19,-12,-33,-35,1,-3
1491087911972,1,83,-21,-14,5,-11,-12,-30,-5
1491087912007,2,34,20,38,5,-4,98,90,38
1491087912007,2,49,-8,-2,11,102,1,19,1
1491087912008,3,-74,9,-1,14,-43,8,20,4
1491087912008,3,41,12,28,0,-9,-84,-70,-9
1491087912008,0,19,-25,-30,-30,11,-25,-18,-25
1491087912008,0,-128,-20,-20,15,10,-12,-16,-10
1491087912009,1,-22,-21,21,7,7,32,-23,21
1491087912009,1,-25,11,2,3,-57,4,91,-5
1491087912045,2,12,14,4,13,97,49,-65,-7
1491087912045,2,78,23,-18,-47,-34,-26,26,-28
1491087912045,3,-89,-41,-16,-24,-71,-54,-5,4
1491087912045,3,98,31,-9,8,102,8,-65,-20
1491087912046,0,-13,-2,13,25,-57,-42,21,32
1491087912046,0,-72,-24,-5,-13,-34,63,7,13
1491087912047,1,118,7,5,47,127,31,-22,10
1491087912047,1,17,9,-7,-58,-111,85,90,-1
1491087912082,2,-40,22,0,16,83,-52,-22,30
1491087912082,2,-104,-30,-17,35,-15,-33,-87,-71
1491087912083,3,96,46,35,-10,14,54,25,-4
1491087912083,3,-37,-24,-1,7,-63,-88,-41,14
1491087912083,0,51,-56,24,44,-99,-3,42,-7
1491087912083,0,-19,-25,-12,-14,26,98,-41,8
1491087912084,1,-8,-77,-26,-53,-103,-120,-31,-25
1491087912084,1,5,-64,-24,-36,94,104,-8,5
1491087912120,2,9,-15,-3,41,13,31,20,35
1491087912120,2,-67,-51,10,-11,0,-102,-70,-63
1491087912120,3,122,58,-2,13,-1,116,100,37
1491087912120,3,-77,62,2,41,126,56,-12,-9
1491087912121,0,-102,79,-5,-47,-128,56,-11,-46
1491087912121,0,108,-8,-50,-92,-23,-57,28,-15
1491087912122,1,-63,18,-6,61,95,12,71,20
1491087912122,1,47,-47,-3,64,52,-8,-39,-14
1491087912157,2,-39,-93,17,-20,-11,-35,70,32
1491087912157,2,36,-55,35,6,-8,48,-63,-24
1491087912158,3,-110,-42,-15,-47,12,-4,0,-44
1491087912158,3,18,87,15,-24,-54,-83,26,25
1491087912159,0,76,76,-11,16,-22,34,68,31
1491087912159,0,21,80,11,3,-11,-59,2,6
1491087912159,1,-66,-12,-13,-18,3,38,-90,-5
1491087912159,1,57,68,25,85,69,127,-101,-34
1491087912195,2,44,104,-10,-31,46,-18,2,28
1491087912195,2,66,45,20,-68,-97,-59,2,3
1491087912195,3,-17,-20,-1,33,25,85,0,-43
1491087912195,3,2,-101,-26,-35,-51,-90,7,9
1491087912232,0,4,14,-12,10,87,62,-37,-48
1491087912232,0,-4,-13,12,57,-43,22,-11,24
1491087912233,1,-16,57,27,18,-94,4,83,46
1491087912233,1,1,14,35,4,79,-48,42,-2
1491087912233,2,20,-62,-20,-19,-128,-71,46,18
1491087912233,2,13,-56,-46,-65,71,-15,-62,-40
1491087912234,3,-38,-43,-12,23,30,48,15,-43
1491087912234,3,23,62,-22,-16,-112,-51,34,28
1491087912270,0,-83,-80,21,12,71,79,-82,-64
1491087912270,0,63,52,11,94,127,19,107,102
1491087912271,1,18,-39,-15,-119,-128,-68,19,-3
1491087912271,1,-47,-27,-49,25,4,65,-75,20
1491087912272,2,15,39,2,40,78,-106,42,-2
1491087912272,2,3,100,57,61,15,127,105,47
1491087912273,3,44,127,5,43,17,92,15,40
1491087912273,3,-72,-61,-7,-116,-98,-90,-12,-64
1491087912307,0,29,-22,-46,-24,43,69,8,23
1491087912307,0,-116,-108,25,92,74,98,62,14
1491087912309,1,52,-17,49,79,116,-117,-80,-55
1491087912309,1,-25,-21,3,-26,104,127,78,38
1491087912310,2,82,-101,-3,-52,-128,-128,2,-20
1491087912310,2,-65,-110,-62,-118,-44,-64,-50,-73
1491087912310,3,-26,-57,-32,23,-125,16,-52,41
1491087912310,3,-31,-10,49,86,58,70,116,77
1491087912345,0,-8,1,14,-68,127,-52,-127,-92
1491087912345,0,-58,52,1,2,-103,127,121,29
1491087912345,1,10,-72,-44,-107,3,-128,-92,-53
1491087912345,1,-8,-42,16,68,61,0,57,34
1491087912346,2,-6,45,0,-11,-96,29,-24,-32
1491087912346,2,34,-18,-8,10,60,-114,-22,19
1491087912347,3,-1,-29,-47,-72,-80,-82,-96,-83
1491087912347,3,1,33,20,35,75,76,30,7
1491087912382,0,21,36,65,127,93,118,112,39
1491087912382,0,14,41,-30,-107,-107,-63,-27,12
1491087912383,1,-38,-5,4,-40,-57,-36,-53,-63
1491087912383,1,46,-41,-12,42,57,-128,73,48
1491087912384,2,-55,-71,-20,-6,-1,-21,-43,-26
1491087912384,2,-2,-36,-9,40,9,95,30,-41
1491087912384,3,53,16,54,82,114,-25,70,80
1491087912384,3,-55,14,-51,-110,-123,43,-18,-58
1491087912420,0,21,36,18,53,-86,57,48,37
1491087912420,0,-47,71,20,32,61,-17,-9,-5
1491087912420,1,41,13,-13,-5,56,-27,18,27
1491087912420,1,22,-29,-21,-30,-89,-128,-25,-33
1491087912421,2,-39,-35,-31,-85,22,29,9,9
1491087912421,2,40,-21,24,61,58,101,48,11
1491087912422,3,-19,-23,-14,17,-38,110,1,20
1491087912422,3,9,-3,22,55,-87,-4,26,4
1491087912457,0,21,18,-12,-10,68,-6,-52,-33
1491087912457,0,-37,-105,-18,-40,-128,-128,-111,-47
1491087912458,1,-9,-18,-2,-21,123,66,41,39
1491087912458,1,-1,-8,0,-20,-39,127,-19,-46
1491087912459,2,-18,-14,-9,-18,-83,-108,-8,35
1491087912459,2,-20,-33,15,55,99,-7,-44,-15
1491087912460,3,23,-7,15,-22,9,95,47,9
1491087912460,3,27,24,11,39,111,25,-1,-7
1491087912495,0,-43,-75,-36,-96,-120,-65,-69,-61
1491087912495,0,1,-21,-27,2,33,-80,29,34
1491087912496,1,5,31,-4,23,83,42,11,-9
1491087912496,1,-31,79,24,44,108,109,61,30
1491087912497,2,15,98,13,-5,-58,119,0,14
1491087912497,2,53,45,31,32,79,31,-37,-26
1491087912498,3,-38,78,21,4,-76,-90,-39,-21
1491087912498,3,-38,-4,-85,-125,-107,-128,-42,-25
1491087912532,0,13,-11,-25,77,107,-9,-15,32
1491087912532,0,8,21,-10,-29,46,71,36,12
1491087912533,1,35,-18,65,127,120,127,56,19
1491087912533,1,-14,-29,34,35,23,2,-51,-20
1491087912534,2,-10,-34,-37,-128,-85,-114,-9,-1
1491087912534,2,-21,-27,-40,-26,-128,-14,-7,0
1491087912570,3,6,4,-7,-47,6,-128,-64,-30
1491087912570,3,-23,18,-26,-36,34,8,22,-1
1491087912570,0,46,-50,49,126,60,40,-38,30
1491087912570,0,16,46,23,1,67,127,46,1
1491087912571,1,-10,-53,11,-14,-128,-63,12,3
1491087912571,1,-10,-45,14,16,98,-41,-22,-20
1491087912572,2,-2,7,0,-15,-20,19,1,-5
1491087912572,2,-6,1,-23,-70,-128,-13,9,-7
1491087912607,3,1,-16,-32,44,91,19,5,1
1491087912607,3,8,-98,3,12,-95,16,18,21
1491087912608,0,-2,-13,21,39,-13,30,12,-8
1491087912608,0,-2,-4,7,-54,-108,-93,3,21
1491087912608,1,-13,41,-28,-18,-117,31,26,-12
1491087912608,1,1,-88,23,27,67,57,16,-3
1491087912609,2,-12,-24,-7,19,60,92,36,21
1491087912609,2,-5,-92,-29,-13,-72,-39,-57,-20
1491087912645,3,13,-66,-24,-30,-61,-38,-34,-1
1491087912645,3,1,24,36,5,12,20,27,6
1491087912646,0,15,110,27,77,109,67,60,15
1491087912646,0,8,15,27,21,17,118,36,-11
1491087912647,1,-3,-42,-50,-109,-72,-92,-69,-8
1491087912647,1,4,-17,-18,61,10,-11,-57,-9
1491087912648,2,-16,0,-22,-46,-68,-28,16,-7
1491087912648,2,-2,27,14,39,123,1,15,-2
1491087912682,3,-10,23,36,8,-68,101,53,5
1491087912682,3,-7,-5,-11,-35,16,-47,-25,3
1491087912683,0,-9,-44,-1,56,86,-69,-23,-3
1491087912683,0,8,-2,-10,-33,-99,-7,3,-12
1491087912684,1,-5,-11,-1,6,127,46,16,-1
1491087912684,1,-10,43,-35,-36,-37,-43,-27,-9
1491087912720,2,-1,10,1,-39,-54,-21,14,6
1491087912720,2,2,42,35,65,81,11,9,10
1491087912720,3,3,106,23,22,82,56,40,9
1491087912720,3,-6,84,-11,-15,-48,2,6,-5
1491087912721,0,2,73,15,15,-3,-10,-16,-9
1491087912721,0,-11,56,-31,8,65,-43,-16,1
1491087912722,1,4,13,18,-6,-128,-33,-6,-1
1491087912722,1,1,-8,-11,10,45,26,16,-1
1491087912757,2,-33,-36,-21,-94,-128,20,-13,-5
1491087912757,2,-2,99,-16,-10,68,-71,-23,-8
1491087912758,3,31,86,-4,96,54,6,-4,21
1491087912758,3,5,38,-6,-35,87,1,1,-11
1491087912758,0,10,26,-7,6,36,23,16,4
1491087912758,0,4,-32,44,4,-63,15,-7,0
1491087912759,1,10,-120,20,12,45,-1,15,2
1491087912759,1,-39,-107,-10,-11,-9,-1,-2,-6
1491087912795,2,62,-92,-39,-38,-12,-21,-17,11
1491087912795,2,-25,-100,-6,4,-47,-3,-1,-5
1491087912795,3,-20,-124,0,-1,56,7,3,-12
1491087912795,3,19,-128,29,4,-128,-59,-33,7
1491087912797,0,-42,-88,-1,9,-11,-11,1,-15
1491087912797,0,-8,-19,-44,-25,60,-5,1,-2
1491087912832,1,1,57,54,43,78,31,8,4
1491087912832,1,23,113,-4,19,-33,67,24,-1
1491087912833,2,25,98,-39,-94,3,-54,-23,-7
1491087912833,2,20,47,23,71,-108,-3,-10,6
1491087912834,3,-15,1,-19,-13,-8,-15,-8,-1
1491087912834,3,-38,-21,20,31,26,5,12,10
1491087912834,0,4,-85,10,14,97,43,17,-8
1491087912834,0,-48,-90,-13,8,-21,-4,-11,1
1491087912870,1,4,-16,-47,-69,-37,-5,-1,7
1491087912870,1,19,52,-32,-9,-49,-12,-14,-7
1491087912870,2,-50,120,21,67,11,22,4,-4
1491087912870,2,-17,126,33,14,48,38,-7,-7
1491087912871,3,3,122,0,-37,-32,14,-10,-7
1491087912871,3,-23,63,-47,-13,-48,-3,-10,0
1491087912872,0,-13,22,3,-2,25,20,8,10
1491087912872,0,15,52,-24,-75,-33,2,-3,-8
1491087912945,1,9,-13,22,19,-4,18,-13,6
1491087912945,1,-35,-55,-31,9,3,3,0,-6
1491087912945,2,58,-34,28,-15,-5,-14,-6,1
1491087912945,2,-10,-106,-5,-21,22,1,3,-8
1491087912946,3,-5,-76,0,-4,15,-25,-1,5
1491087912946,3,49,46,17,-20,-35,-58,-11,7
1491087912947,0,-45,-117,-47,-18,20,4,-1,-16
1491087912947,0,66,-30,63,46,-10,-10,10,17
1491087913057,1,-36,-79,-50,-57,14,-9,-1,-24
1491087913057,1,-21,-39,56,25,-34,-16,-11,-6
1491087913058,2,12,-89,7,31,-16,-18,-5,10
1491087913058,2,-15,61,-41,-91,-1,-6,4,1
1491087913058,3,-6,50,-24,80,5,-17,0,11
1491087913058,3,22,29,5,-33,11,-8,-11,-16
1491087913059,0,-9,46,4,-33,-56,-28,6,-2
1491087913059,0,4,-18,-1,49,36,-4,1,-1
1491087913095,1,-7,-5,7,7,-5,-10,2,-12
1491087913095,1,7,5,-10,-21,12,-20,-4,1
1491087913096,2,17,17,-27,-16,6,-6,3,-8
1491087913096,2,1,-34,13,14,0,-11,0,-1
1491087913096,0,-6,39,24,3,-41,-9,-18,-9
1491087913096,0,20,26,-6,8,8,12,14,5
1491087913097,0,32,-89,1,24,2,-4,-6,-6
1491087913097,0,4,-128,-13,-9,13,4,-2,-2
1491087913132,1,20,-122,-6,1,-1,7,3,-9
1491087913132,1,-5,-128,6,-19,7,8,1,-4
1491087913133,2,9,-77,6,20,13,-4,-18,3
1491087913133,2,75,-72,-6,-5,2,5,16,2
1491087913134,3,83,-44,-12,-8,-3,-5,0,-3
1491087913134,3,50,-21,-9,9,16,0,4,-6
1491087913134,0,6,127,9,20,8,18,13,-2
1491087913134,0,-33,41,10,21,1,-16,-18,-9
1491087913170,1,-35,-35,-12,-16,-4,-4,5,7
1491087913170,1,-40,2,3,-16,7,13,10,-1
1491087913170,2,-30,-82,-14,-21,-8,-20,-34,-7
1491087913170,2,-20,-20,2,12,-10,-1,-7,-12
1491087913171,3,-12,81,11,-8,6,4,4,-2
1491087913171,3,-12,3,-24,-16,10,3,6,2
1491087913172,0,-24,27,8,8,7,14,19,9
1491087913172,0,-37,-42,-10,-11,6,8,-2,-8
1491087913207,1,-43,-75,8,-2,-14,2,-2,8
1491087913207,1,5,-34,-10,-25,-9,-3,-10,8
1491087913208,2,-20,-36,-10,-13,-8,-16,-12,-20
1491087913208,2,-36,-128,-3,-11,-5,5,1,5
1491087913209,3,-1,-49,-11,-7,6,-13,-7,-5
1491087913209,3,-20,40,14,6,0,4,-14,2
1491087913209,0,-28,-15,15,13,13,5,13,-3
1491087913209,0,13,127,-1,6,12,20,23,22
1491087913245,1,-21,37,-6,-12,-12,-24,-46,-21
1491087913245,1,2,-6,-1,3,-3,2,-4,-5
1491087913282,2,-10,-95,-15,-14,-15,13,5,8
1491087913282,2,-33,-100,-9,-11,0,-23,-14,-11
1491087913283,3,36,18,21,35,-10,24,25,17
1491087913283,3,3,48,6,7,16,9,0,3
1491087913284,0,1,127,-5,-9,-19,1,2,-3
1491087913284,0,-5,127,10,-2,3,2,12,-2
1491087913284,1,-15,69,-5,-15,14,3,-17,5
1491087913284,1,-18,-3,1,-8,-21,-25,-26,-18
1491087913320,2,22,102,2,15,54,35,10,-3
1491087913320,2,-20,63,-4,10,2,-19,16,13
1491087913320,3,19,13,-8,-24,-38,-16,-22,-8
1491087913320,3,-29,-82,-1,13,21,40,28,-20
1491087913321,0,3,-128,-4,-4,-17,-16,-22,-5
1491087913321,0,16,-86,-10,-6,-5,-6,-1,2
1491087913322,2,-52,68,25,15,-54,-30,11,1
1491087913322,2,12,-13,2,-10,-34,28,-23,-15
1491087913357,3,-11,-32,-17,0,16,-22,9,28
1491087913357,3,-21,-44,-11,-12,37,23,-22,-16
1491087913358,0,28,-8,15,11,50,15,57,27
1491087913358,0,9,-3,9,-10,-22,-23,-66,-14
1491087913395,2,58,61,-12,-23,5,-18,-56,-19
1491087913395,2,33,-82,13,-5,20,49,49,8
1491087913396,3,-16,-83,-2,-9,-6,-60,-6,11
1491087913396,3,17,-72,-3,6,-15,-22,-32,-13
1491087913396,0,-35,-30,-15,-5,-42,24,58,20
1491087913396,0,-65,15,2,4,2,-43,-55,-30
1491087913397,1,6,-51,-10,-8,-43,29,-12,-3
1491087913397,1,48,36,7,22,62,26,13,-7
1491087913432,2,-96,7,5,-3,-44,-29,18,16
1491087913432,2,22,-21,-12,-16,55,-18,-25,-6
1491087913433,3,37,31,10,0,-20,35,51,18
1491087913433,3,-37,36,-13,-26,-40,-21,-18,-10
1491087913433,0,16,14,-15,15,-7,-37,-49,-42
1491087913433,0,3,38,-1,15,-12,4,8,7
1491087913434,1,19,1,-1,-16,23,-7,12,-23
1491087913434,1,20,44,30,35,6,40,9,26
1491087913470,2,-28,44,-9,-20,-6,50,8,-13
1491087913470,2,-20,68,-1,6,-42,-113,-44,5
1491087913507,3,-31,32,-16,-23,-45,-32,32,-12
1491087913507,3,2,23,2,19,45,17,58,39
1491087913508,1,6,-62,-11,-33,-45,-71,-37,13
1491087913508,1,70,21,-2,-26,-91,-60,-11,-35
1491087913509,2,26,7,-6,2,-4,-37,-24,-11
1491087913509,2,42,36,-9,8,0,52,22,14
1491087913510,3,-13,-24,2,9,37,12,-19,-17
1491087913510,3,-2,-128,2,8,-14,62,30,16
1491087913545,0,-31,-128,-20,0,-11,-101,-53,-27
1491087913545,0,100,-119,6,5,-1,17,68,43
1491087913545,1,-107,16,3,10,-22,1,-60,-25
1491087913545,1,36,101,1,-11,30,38,11,-23
1491087913546,2,29,60,-2,-3,-17,-27,-79,14
1491087913546,2,-107,54,-15,-29,10,40,38,-8
1491087913547,1,127,15,-23,-19,-20,39,-11,3
1491087913547,1,-31,-39,-1,-4,-54,-20,-8,0
1491087913582,2,28,-55,8,-8,48,40,15,16
1491087913582,2,-55,-56,-25,-20,-67,-24,-80,-41
1491087913583,3,67,3,25,41,91,56,88,5
1491087913583,3,-27,-44,-19,-14,0,-114,-47,-10
1491087913584,0,-26,29,5,-4,-27,78,-42,-14
1491087913584,0,24,69,-8,10,12,17,54,28
1491087913620,1,95,76,17,-14,45,3,-6,-1
1491087913620,1,12,47,-8,4,-18,34,19,27
1491087913620,2,-80,-21,-2,34,-6,18,47,-11
1491087913620,2,-50,13,4,-8,-46,-55,-13,-22
1491087913621,3,9,-27,-9,-14,26,-5,-44,-5
1491087913621,3,-46,-32,12,17,-18,1,-7,10
1491087913622,0,73,-110,-5,-9,47,-6,30,14
1491087913622,0,-8,-29,-3,2,-89,61,83,25
1491087913657,1,4,-31,7,15,107,-30,-36,-2
1491087913657,1,-76,-6,-7,0,-1,-54,-46,-5
1491087913658,2,-4,25,1,24,-7,85,62,-14
1491087913658,2,34,-12,-14,-64,-80,-127,-87,-33
1491087913659,3,-29,-101,-16,-5,-58,20,16,20
1491087913659,3,-6,-126,0,34,35,81,9,21
1491087913660,0,-6,-91,8,-6,1,-104,-41,-27
1491087913660,0,39,-8,12,-1,68,64,37,32
1491087913695,1,-92,31,-9,1,1,30,-16,-4
1491087913695,1,-6,66,-14,-16,-32,-37,-39,-48
1491087913696,2,-20,66,-5,-13,-28,41,54,24
1491087913696,2,4,44,9,6,18,22,-9,-11
1491087913697,0,-9,31,29,29,23,-26,-5,28
1491087913697,0,-27,-48,-12,-4,30,16,10,-3
1491087913698,1,49,-84,-9,-26,-28,6,10,-9
1491087913698,1,-21,-97,6,6,-42,-31,13,1
1491087913732,2,3,-7,-22,-24,2,1,-74,-23
1491087913732,2,20,21,7,22,35,40,38,-1
1491087913733,3,25,65,5,4,-31,-68,-10,13
1491087913733,3,-41,58,-24,-37,-11,-27,-17,-11
1491087913734,0,88,34,3,16,8,51,33,20
1491087913734,0,5,16,21,39,22,-24,15,18
1491087913735,1,-47,45,-3,-29,-11,64,48,-3
1491087913735,1,-17,37,7,-23,-2,-17,17,9
1491087913770,2,61,32,-4,5,-31,-65,-64,6
1491087913770,2,3,12,-11,-16,24,19,-1,-15
1491087913771,3,-22,16,3,21,-18,11,-32,-28
1491087913771,3,51,2,0,12,28,-5,3,40
1491087913771,0,-52,-13,0,-8,9,-8,-7,-29
1491087913771,0,30,3,11,-12,-47,-31,-8,1
1491087913772,1,-9,-9,-12,-5,38,34,44,8
1491087913772,1,-73,-5,1,8,2,-9,-26,-22
1491087913845,2,16,-19,-2,-17,-62,-18,-28,-16
1491087913845,2,-7,-32,-9,-5,68,28,36,20
1491087913855,3,13,-14,-6,22,-5,-9,-44,-8
1491087913855,3,-13,-12,-10,-15,1,42,54,5
1491087913855,0,15,-32,-9,-4,-14,-65,26,25
1491087913855,0,33,5,13,12,-15,-20,-56,-12
1491087913856,1,-12,-7,2,23,25,10,14,11
1491087913856,1,-59,-15,-4,-13,-1,-39,-19,-8
1491087913882,2,71,-25,-15,-34,-27,27,16,-2
1491087913882,2,8,-8,-7,-2,-11,-10,14,13
1491087913883,3,36,13,7,9,1,-9,-58,-1
1491087913883,3,16,-10,4,2,1,-1,22,-8
1491087913884,0,-85,3,9,5,30,53,45,4
1491087913884,0,-6,2,-17,5,-16,-26,-70,-18
1491087913884,2,17,8,-2,2,9,28,16,-6
1491087913884,2,54,-6,-9,2,-10,-18,-52,-17
1491087913920,3,-2,-5,0,-24,-38,-80,10,3
1491087913920,3,-7,-6,-4,8,1,10,34,10
1491087913921,0,-60,-18,0,-19,31,10,4,-3
1491087913921,0,16,32,19,11,-18,47,9,6
1491087913921,2,-23,-4,-5,7,4,-12,-31,-29
1491087913921,2,-3,17,3,-5,20,-3,26,5
1491087913922,3,-15,-16,-6,-6,-10,44,1,2
1491087913922,3,-7,96,14,6,-8,10,-6,4
1491087913957,0,-27,46,-3,-1,0,-13,-5,-7
1491087913957,0,62,1,-10,-24,-10,-17,3,-4
1491087913958,1,14,4,-1,-3,-23,-11,-26,-9
1491087913958,1,-44,-16,2,1,59,66,24,5
1491087913959,2,-15,-27,-5,-10,-27,-91,-69,-5
1491087913959,2,31,-31,-7,-5,-9,-17,19,14
1491087913960,3,14,-48,-3,-18,59,34,40,1
1491087913960,3,3,-48,-7,-16,-64,-26,-56,-24
1491087913995,0,-5,3,5,27,20,-23,26,19
1491087913995,0,-101,1,-1,7,6,-10,-38,-30
1491087913996,1,68,26,-28,-33,-59,5,-32,0
1491087913996,1,-26,2,9,23,-4,-44,-12,3
1491087913996,2,35,14,5,4,-8,108,32,4
1491087913996,2,-96,8,52,55,101,-37,40,7
1491087913997,3,-32,12,15,27,-10,31,-4,4
1491087913997,3,6,-39,-21,-60,4,-42,-14,-3
1491087914032,0,70,-21,-19,-12,-94,13,6,7
1491087914032,0,-59,-44,-28,-28,-43,43,31,-10
1491087914033,1,64,25,23,20,-3,-41,-16,6
1491087914033,1,-20,5,2,-1,57,35,-2,21
1491087914034,2,11,-13,10,37,-26,-46,-49,-41
1491087914034,2,-78,6,1,-21,67,23,39,14
1491087914035,3,29,-1,4,31,-11,-4,-36,7
1491087914035,3,100,6,-23,-35,39,8,12,-39
1491087914070,0,-40,-25,22,8,-68,-19,-7,45
1491087914070,0,-60,-67,-40,-61,28,22,25,-32
1491087914070,1,-11,-31,-6,-16,-104,1,44,1
1491087914070,1,23,3,6,-9,87,-70,-52,-18
1491087914071,2,-94,21,15,92,106,54,41,11
1491087914071,2,-19,26,5,-5,-118,-30,60,62
1491087914072,3,17,13,-16,-45,-8,117,-35,-21
1491087914072,3,-21,-49,12,67,28,-26,-9,-2
1491087914107,0,7,9,5,-11,-48,5,3,21
1491087914107,0,70,35,38,23,127,5,-36,0
1491087914108,1,20,-5,-44,-24,-66,-36,-11,-32
1491087914108,1,33,-25,7,-51,-128,-73,39,44
1491087914109,2,-4,-65,-39,1,127,72,13,-1
1491087914109,2,5,43,41,85,-84,-98,2,28
1491087914110,3,-79,30,11,14,-21,118,6,-14
1491087914110,3,73,25,10,-35,52,-75,-85,-22
1491087914145,0,-28,-13,-16,-74,-119,-47,72,-25
1491087914145,0,90,-28,-35,10,106,77,-4,13
1491087914146,1,-128,-25,28,75,-63,-69,-65,-10
1491087914146,1,26,-44,1,-31,-97,99,70,9
1491087914146,2,54,5,-16,3,20,64,-48,12
1491087914146,2,106,-69,-7,-18,36,-34,-35,23
1491087914147,3,-99,105,20,-17,48,-84,-88,-63
1491087914147,3,-36,47,10,40,-90,5,101,27
1491087914182,0,-56,25,-32,-19,56,26,29,-7
1491087914182,0,1,-32,-22,-43,-128,-42,-9,-7
1491087914183,1,-71,-11,14,84,127,-16,84,57
1491087914183,1,81,-25,2,-8,-128,-109,-105,-36
1491087914184,2,-80,68,37,-70,29,66,-19,-70
1491087914184,2,-74,-34,-31,36,-6,26,55,59
1491087914185,3,26,43,30,39,-18,114,92,4
1491087914185,3,-92,29,-17,-48,60,-64,114,28
1491087914220,0,127,-70,-2,-36,-98,-128,-128,-20
1491087914220,0,1,-27,-23,-26,39,83,11,-61
1491087914220,1,-86,22,15,40,13,75,30,36
1491087914220,1,28,60,17,89,107,127,47,39
1491087914221,2,-26,49,-5,30,0,-6,79,35
1491087914221,2,2,12,-14,-121,-125,-124,-53,-73
1491087914222,3,38,-55,-33,-8,73,67,55,79
1491087914222,3,-23,9,-20,73,106,-68,51,-39
1491087914257,0,-67,-99,19,-20,-28,-45,-44,-5
1491087914257,0,118,94,67,81,56,101,4,46
1491087914258,1,-3,-19,-12,-28,-49,-128,-13,-63
1491087914258,1,-128,-33,-37,-107,-106,127,26,-12
1491087914259,2,-81,64,-2,84,120,81,5,27
1491087914259,2,-21,-32,-30,16,-84,-105,-68,-56
1491087914299,3,25,-36,-2,-16,69,127,-35,0
1491087914299,3,86,1,38,58,-17,50,82,40
1491087914300,0,14,44,-12,-71,-128,-7,120,56
1491087914300,0,-25,-51,-23,-59,17,-48,-97,-83
1491087914301,1,-55,-69,24,46,-22,-50,96,59
1491087914301,1,71,-23,-19,34,11,91,-73,-11
1491087914301,2,30,-21,38,-12,32,-84,44,8
1491087914301,2,-44,-17,-30,-21,36,34,-48,-43
1491087914332,3,55,-35,-46,-72,-128,-1,-2,4
1491087914332,3,-8,-5,26,48,127,-94,58,12
1491087914333,0,68,92,11,51,62,127,-21,-9
1491087914333,0,89,107,29,-3,93,-50,30,25
1491087914333,1,-53,-92,-36,-20,-66,-67,-39,-49
1491087914333,1,-61,45,20,11,67,28,-124,-46
1491087914334,2,46,-25,-18,-12,-121,35,44,-28
1491087914334,2,-56,73,21,-60,40,-4,19,24
1491087914369,3,41,42,-37,-17,68,77,17,38
1491087914369,3,-34,-66,-27,40,-128,-125,-115,-68
1491087914370,0,-12,13,12,-43,-94,-52,-48,-21
1491087914370,0,-39,9,6,79,87,127,74,70
1491087914371,1,33,75,20,16,-94,-97,-16,-11
1491087914371,1,-19,109,-14,-128,-128,7,-24,-58
1491087914372,2,-21,57,-21,34,27,1,26,14
1491087914372,2,-18,11,23,61,-1,-70,-68,-3
1491087914408,3,-13,-60,-53,-50,-34,-119,18,-17
1491087914408,3,27,-107,22,63,101,-2,-10,-15
1491087914409,0,-54,-128,-25,-44,-76,-92,-47,28
1491087914409,0,44,-118,21,45,-69,121,85,55
1491087914409,1,4,-66,1,-10,14,-34,-41,-51
1491087914409,1,-40,-55,-15,-57,-112,-50,-59,-30
1491087914444,2,37,-53,27,56,-3,74,21,-2
1491087914444,2,-29,20,-17,-4,30,91,69,29
1491087914445,3,-13,-63,21,12,-75,-21,-97,-46
1491087914445,3,-45,18,-22,-20,41,-36,-8,27
1491087914446,0,67,14,17,1,-69,-36,7,-7
1491087914446,0,-25,-21,-13,-21,-63,0,-87,-48
1491087914447,1,7,-18,38,58,65,123,63,8
1491087914447,1,-7,-3,-35,-19,41,20,6,26
1491087914482,2,-12,-93,-16,60,119,107,-87,-31
1491087914482,2,10,5,31,8,12,-101,10,-20
1491087914483,3,49,35,-14,-73,49,116,39,16
1491087914483,3,-48,-32,9,9,-119,-55,-6,-11
1491087914483,0,-19,-28,-27,-66,-51,-116,3,-8
1491087914483,0,-11,51,-8,6,62,10,41,3
1491087914485,1,-17,25,14,11,-4,-76,-49,9
1491087914485,1,19,-3,-4,3,25,43,38,30
1491087914520,2,-21,34,-2,41,71,36,31,-7
1491087914520,2,22,-21,12,21,-94,8,43,17
1491087914521,3,33,44,1,1,53,-21,-9,4
1491087914521,3,-1,-3,2,-28,-54,48,13,-8
1491087914522,0,-27,4,-10,-44,108,-106,4,-10
1491087914522,0,-37,-39,-63,-43,-38,-128,-80,-48
1491087914523,1,28,55,-12,47,127,105,43,29
1491087914523,1,22,45,36,-1,-80,127,52,15
1491087914557,2,0,24,11,-3,-61,76,-22,1
1491087914557,2,6,-12,29,54,-18,11,39,-2
1491087914558,3,-23,80,-53,-105,-128,-128,-19,-24
1491087914558,3,-16,127,-33,0,37,-53,-3,10
1491087914560,0,32,105,2,45,72,86,18,3
1491087914560,0,-5,-15,34,20,-86,33,2,5
1491087914595,1,-1,-42,29,-1,95,-5,-15,-5
1491087914595,1,-8,-63,-8,-37,-95,53,2,13
1491087914595,2,7,-67,-30,-22,112,-68,-38,-6
1491087914595,2,-1,87,20,69,112,73,-1,9
1491087914632,3,17,-18,12,1,61,23,24,8
1491087914632,3,-20,-51,-11,9,-58,-7,-11,-6
1491087914634,0,-16,-79,35,35,73,-31,39,3
1491087914634,0,-20,-64,-39,-57,-58,-51,-50,-21
1491087914635,1,1,-9,-19,-39,-128,-76,-55,5
1491087914635,1,13,31,10,23,83,41,32,2
1491087914637,2,13,87,-7,47,46,84,21,18
1491087914637,2,-24,-17,-12,-38,-108,-55,-20,9
1491087914670,3,0,-87,43,77,127,127,26,-21
1491087914670,3,42,-104,12,-32,-111,-49,10,2
1491087914671,0,-8,-45,-7,-20,45,-128,-69,-20
1491087914671,0,-12,-9,-25,-66,-114,31,33,15
1491087914671,1,-8,6,-37,-50,58,-27,-38,18
1491087914671,1,-6,54,23,99,106,-3,-17,-6
1491087914672,2,11,34,49,29,33,63,23,1
1491087914672,2,-3,-58,16,13,47,10,13,-22
1491087914707,3,-20,-8,-55,-81,-128,-103,-12,-5
1491087914707,3,-14,-21,12,29,52,88,37,13
1491087914708,0,7,22,-26,-63,-126,-39,-13,-5
1491087914708,0,-6,16,-22,11,-46,-79,-22,-2
1491087914709,1,-4,-74,31,21,14,82,39,-4
1491087914709,1,16,-17,1,-13,86,-24,-18,8
1491087914710,2,-20,29,58,60,0,40,2,-2
1491087914710,2,-1,29,-26,-59,-37,9,3,-1
1491087914745,3,-12,79,-29,-31,-93,-55,-36,-17
1491087914745,3,-17,15,-42,-19,28,-19,-1,3
1491087914746,0,5,-8,-13,-18,-25,6,14,-4
1491087914746,0,6,-11,33,47,97,45,13,1
1491087914746,1,0,16,3,20,33,19,10,4
1491087914746,1,0,-32,-9,-19,12,-25,-23,1
1491087914747,2,4,-27,-16,-4,-97,-11,8,-2
1491087914747,2,-2,-28,16,25,76,11,0,-2
1491087914782,3,-11,-103,-8,-21,-116,-62,-44,-6
1491087914782,3,23,-117,-31,-2,-17,10,6,5
1491087914784,0,5,8,30,43,5,11,8,9
1491087914784,0,-1,89,0,-18,80,34,11,-6
1491087914785,1,-5,127,-16,-16,-48,5,-9,-6
1491087914785,1,-15,127,-1,-19,-6,-29,-10,-6
1491087914788,2,-4,7,-45,-48,12,-29,-13,-1
1491087914788,2,13,26,10,57,-30,-3,-12,16
1491087914820,3,-38,23,23,-3,71,56,39,5
1491087914820,3,-9,-34,-29,-39,-2,20,5,-11
1491087914820,0,-44,-51,-5,37,7,-17,-11,-13
1491087914820,0,39,-8,18,32,-90,-26,-23,11
1491087914857,1,45,-58,-34,45,25,13,0,5
1491087914857,1,0,-12,32,15,-17,10,-5,5
1491087914858,2,4,-112,-31,-25,-20,34,11,-2
1491087914858,2,-1,-39,-18,-14,17,-10,-10,-9
1491087914859,3,-20,-27,8,26,16,15,-3,-4
1491087914859,3,47,46,-4,-3,15,17,-8,7
1491087914860,0,0,45,-24,-79,-13,20,4,5
1491087914860,0,-68,-8,3,-6,-19,8,-1,-10
1491087914895,1,-4,5,41,30,13,20,4,4
1491087914895,1,-15,-102,1,15,8,25,1,0
1491087914896,2,9,-90,-22,-47,-12,-23,-8,-5
1491087914896,2,-41,-111,-21,-71,-2,-21,2,-5
1491087914896,3,-41,-46,6,29,12,-17,-13,-20
1491087914896,3,5,27,65,64,-15,-30,-2,12
1491087914897,0,6,68,-57,-64,-30,-37,0,-4
1491087914897,0,28,39,-22,56,0,-38,-17,-1
1491087914932,1,17,47,22,-20,26,5,25,2
1491087914932,1,-39,79,1,-4,8,-7,-3,-14
1491087914933,2,34,32,32,31,7,-6,17,-1
1491087914933,2,-2,32,-32,-33,-22,-3,-7,-6
1491087914934,3,-23,23,5,-6,-13,-19,-1,-4
1491087914934,3,1,10,-26,-1,-20,-20,-10,-9
1491087914935,0,-22,14,9,-18,-1,-18,-5,-19
1491087914935,0,20,13,11,12,-12,26,14,23
1491087914970,1,3,-3,18,15,-6,-27,-7,-2
1491087914970,1,-25,5,15,-20,-30,-28,0,-5
1491087914971,2,44,14,-13,1,-15,-10,-1,4
1491087914971,2,-1,0,10,-8,16,5,7,-5
1491087914972,3,20,11,18,12,8,8,4,0
1491087914972,3,11,8,-27,-33,3,-1,1,-4
1491087914974,0,-11,12,19,60,1,-11,-2,9
1491087914974,0,-4,16,2,-58,-60,-18,-11,-14
1491087915007,1,18,11,-8,0,13,-1,1,2
1491087915007,1,5,3,4,-5,10,5,4,1
1491087915008,2,-4,0,28,42,-11,11,-5,6
1491087915008,2,29,-8,-8,-25,4,-9,3,0
1491087915010,3,43,2,-13,10,8,7,3,2
1491087915010,3,-35,1,-3,4,-14,-7,-13,-7
1491087915010,0,0,93,-8,-32,-13,0,0,-5
1491087915010,0,-24,119,5,11,32,9,10,-9
1491087915045,1,33,61,-22,-3,-35,-11,-12,-2
1491087915045,1,16,12,27,21,-10,0,15,17
1491087915046,2,5,-32,7,3,-16,-5,-10,-3
1491087915046,2,34,-30,-9,10,13,-1,-1,-1
1491087915048,3,-10,66,3,4,16,13,2,-6
1491087915048,3,-55,13,-7,-14,-1,7,0,-2
1491087915053,0,36,-39,1,8,16,8,2,13
1491087915053,0,35,-71,-11,-4,13,11,2,-2
1491087915082,1,84,-125,23,-6,-9,4,3,2
1491087915082,1,47,-71,15,34,1,12,-6,-4
1491087915083,2,47,-116,-28,-32,-21,-21,-12,0
1491087915083,2,-5,-123,8,-7,7,-5,-14,-1
1491087915084,3,-28,-128,20,17,9,16,14,4
1491087915084,3,-30,-90,-11,3,27,20,12,-7
1491087915084,0,-29,109,27,18,19,-1,10,8
1491087915084,0,-20,43,-14,-3,-16,0,-15,-16
1491087915120,1,-17,-44,-18,14,12,4,3,-8
1491087915120,1,5,-60,4,17,4,-13,14,-3
1491087915157,2,-25,-104,-14,12,13,11,1,-6
1491087915157,2,-40,-94,-2,21,14,19,24,-3
1491087915158,3,-45,79,8,-3,-19,10,-3,-4
1491087915158,3,-5,13,-31,-19,37,12,-13,-2
1491087915159,0,-60,47,13,14,-8,-13,7,7
1491087915159,0,-7,21,1,-30,-5,-16,-32,-7
1491087915159,1,-19,-29,-13,-39,5,8,-3,6
1491087915159,1,59,17,6,16,-10,-3,8,1
1491087915195,2,-14,-43,-12,4,19,62,0,-1
1491087915195,2,-11,-3,10,-21,-54,-70,-20,3
1491087915196,3,-5,-49,-19,0,16,2,11,1
1491087915196,3,16,-16,-12,-22,-10,15,16,-3
1491087915196,0,-3,-116,6,-11,-27,-59,-1,-8
1491087915196,0,-6,-46,3,16,93,32,8,1
1491087915197,1,-36,106,2,22,-48,24,1,-11
1491087915197,1,64,95,14,-12,-28,-29,6,16
1491087915232,2,-13,-79,-8,-6,50,27,21,8
1491087915232,2,8,-85,-11,-2,-9,-44,-42,-33
1491087915233,3,-7,-27,14,2,2,6,4,4
1491087915233,3,9,60,-2,6,39,54,-31,7
1491087915233,1,-2,81,-38,-54,-5,-61,-29,-8
1491087915233,1,-11,98,12,34,-31,-9,-8,8
1491087915234,2,-3,76,1,-18,23,-7,-18,-4
1491087915234,2,-22,15,20,25,-11,9,13,-2
1491087915270,3,6,-118,-1,-3,33,74,27,8
1491087915270,3,4,-32,-8,-23,-23,-63,-32,-9
1491087915270,0,1,-85,-22,-10,-59,-3,-40,-26
1491087915270,0,-21,-78,16,14,53,-83,49,15
1491087915271,1,52,-124,6,22,-7,19,-3,6
1491087915271,1,-34,-49,-6,-11,28,18,5,-7
1491087915272,2,-12,11,-1,-11,-21,18,7,-19
1491087915272,2,60,39,-18,-16,-58,-16,-4,22
1491087915307,3,-25,12,15,18,6,-35,-2,9
1491087915307,3,-11,-31,-10,-15,12,49,9,-9
1491087915308,0,-30,2,-19,-13,1,-9,-5,-9
1491087915308,0,87,97,46,52,5,56,-39,3
1491087915345,1,4,25,7,-2,18,-17,50,18
1491087915345,1,-67,61,-4,19,-40,-18,5,19
1491087915345,2,64,37,5,-15,-19,74,13,5
1491087915345,2,-67,22,-17,-18,51,-57,-54,-36
1491087915346,3,103,96,10,11,22,-19,-25,1
1491087915346,3,-44,-35,8,-13,14,56,80,22
1491087915347,0,-67,7,7,22,-70,-78,-30,-1
1491087915347,0,47,5,-29,-26,-19,111,28,-12
1491087915382,1,-42,-65,-12,-8,-3,-76,-97,-32
1491087915382,1,-9,-12,-23,1,22,-73,-11,8
1491087915383,2,-30,14,32,24,57,-5,25,5
1491087915383,2,-85,-48,-21,-29,-47,17,16,-13
1491087915383,3,5,78,5,4,-31,23,-25,-11
1491087915383,3,58,16,-25,-40,-17,-76,-18,3
1491087915384,0,26,40,4,46,28,5,53,8
1491087915384,0,-26,54,0,-8,43,45,-19,14
1491087915420,1,-14,-2,-7,-11,-1,-39,-3,-27
1491087915420,1,-14,-128,4,-3,-39,-92,-43,-33
1491087915420,2,57,-68,-5,-6,-16,93,44,13
1491087915420,2,-10,-52,-6,40,84,-53,-31,10
1491087915421,0,12,-112,-15,-34,-111,-87,-32,-5
1491087915421,0,10,38,-2,4,12,61,77,22
1491087915457,1,-4,67,-17,5,58,-102,-93,-20
1491087915457,1,-56,121,12,22,-14,55,2,-11
1491087915458,2,35,120,3,-1,30,30,15,16
1491087915458,2,-38,97,-11,-12,-27,8,-80,-28
1491087915458,3,13,127,13,4,-6,-37,92,22
1491087915458,3,53,67,-6,-37,-12,25,0,-8
1491087915460,0,-87,-32,8,16,42,51,16,-14
1491087915460,0,108,17,-3,-12,-43,-52,-28,15
1491087915495,1,-97,-8,6,32,-2,50,19,5
1491087915495,1,51,-6,-9,-7,74,5,-45,-1
1491087915496,2,-28,-19,-13,-10,-39,1,-17,-43
1491087915496,2,-15,-32,15,-22,-8,-26,41,-5
1491087915496,3,-15,-51,-19,-6,-55,-9,-97,-10
1491087915496,3,2,-18,0,-4,29,-87,36,14
1491087915497,0,-25,13,1,17,53,68,-16,-5
1491087915497,0,9,-33,17,8,30,-51,0,-1
1491087915532,1,69,-31,-9,-35,-56,1,-23,2
1491087915532,1,19,-16,5,16,-14,78,35,5
1491087915534,2,-29,-52,-20,-13,-16,-128,-114,-15
1491087915534,2,-68,-54,5,13,19,79,120,42
1491087915534,3,111,-9,6,29,50,32,5,-2
1491087915534,3,-107,-50,-3,-10,-67,-31,-17,-37
1491087915570,0,92,-14,-8,-39,29,48,65,17
1491087915570,0,-25,-70,-5,21,-55,-35,-64,-6
1491087915571,1,12,-123,3,0,64,-63,-27,7
1491087915571,1,-32,-119,-1,14,58,112,17,-5
1491087915571,2,-12,5,-7,-2,-57,-59,-36,10
1491087915571,2,33,73,-13,-36,-59,-18,55,6
1491087915572,3,-87,111,-10,-10,30,67,10,-9
1491087915572,3,44,117,11,1,13,-61,-20,11
1491087915607,0,21,74,0,7,31,22,15,9
1491087915607,0,6,24,-6,18,9,-54,-69,-3
1491087915609,1,-17,35,-8,-33,-36,9,41,-5
1491087915609,1,-16,28,4,20,-23,9,-27,-14
1491087915610,2,-4,11,37,-2,7,49,50,35
1491087915610,2,-2,-17,0,26,2,-47,-10,-15
1491087915610,3,43,0,-11,-6,-36,54,11,-1
1491087915610,3,-5,17,-9,13,16,2,26,-2
1491087915645,0,27,35,5,-2,43,-36,-25,18
1491087915645,0,-15,-12,-2,-2,-6,47,37,-26
1491087915646,1,-31,-57,0,-20,-7,65,23,14
1491087915646,1,43,-58,-8,8,9,-81,-27,8
1491087915647,2,-8,14,6,22,1,-18,-60,-11
1491087915647,2,-62,5,13,1,16,25,20,-1
1491087915649,3,54,34,-12,-28,-5,-8,-32,-23
1491087915649,3,-22,16,-1,-5,-61,44,16,1
1491087915682,0,23,-13,-19,1,11,-36,-40,-17
1491087915682,0,14,-11,-9,-5,24,17,37,16
1491087915683,1,4,-17,5,8,-31,-33,8,-1
1491087915683,1,18,-4,-2,-4,0,-19,-44,13
1491087915684,2,16,11,4,7,26,47,19,-6
1491087915684,2,40,-49,-19,-19,14,39,11,-8
1491087915685,3,-33,-37,4,17,-23,-40,12,1
1491087915685,3,-18,-17,-9,-28,-33,7,2,-5
1491087915720,0,-36,18,9,18,3,22,-31,-4
1491087915720,0,-28,14,-5,13,-3,-60,1,12
1491087915721,1,41,28,-13,-25,13,-18,6,5
1491087915721,1,-24,41,30,36,-20,-32,-58,-31
1491087915722,2,45,8,-8,-10,26,-2,-5,5
1491087915722,2,-93,-16,-12,-15,-1,83,37,-6
1491087915722,3,65,19,2,3,-33,-80,-26,14
1491087915722,3,-1,1,-8,-17,21,43,55,11
1491087915757,0,-40,-31,-11,-7,-13,-22,3,-28
1491087915757,0,57,-9,4,-2,-15,-15,-41,0
1491087915758,1,-11,-15,3,-2,7,33,23,11
1491087915758,1,9,41,16,9,9,51,-51,-3
1491087915760,2,-20,-8,8,10,19,16,14,2
1491087915760,2,46,-5,-10,-39,-36,-36,-16,1
1491087915760,3,-59,1,-1,10,9,-5,-10,-21
1491087915760,3,-8,2,-1,14,12,-22,21,31
1491087915795,0,41,-8,-9,-10,3,36,31,-2
1491087915795,0,-79,71,10,27,-16,-2,-51,-30
1491087915796,1,73,85,-8,7,-3,-9,17,12
1491087915796,1,-45,61,1,-3,14,-24,7,-17
1491087915798,2,31,6,-4,16,-7,3,-22,5
1491087915798,2,2,-32,-8,-10,9,3,58,12
1491087915799,3,-15,-47,19,18,7,-3,-101,-44
1491087915799,3,-14,7,-9,-8,17,24,83,9
1491087915832,0,9,11,-2,-38,-26,-55,-48,-40
1491087915832,0,26,-26,12,15,-16,-31,-48,3
1491087915833,1,11,-37,-8,-16,-21,4,52,24
1491087915833,1,-7,-52,-2,13,5,-20,-70,-11
1491087915834,2,-5,-29,11,-16,-21,-16,8,-10
1491087915834,2,-9,-35,-1,-10,35,12,17,24
1491087915835,3,10,-1,20,-1,-5,5,40,8
1491087915835,3,13,-14,-12,-2,19,24,-12,-1
1491087915871,0,-52,-4,-23,-8,-53,-33,-15,-8
1491087915871,0,43,-5,-6,-13,-3,-5,-13,-14
1491087915872,1,-4,-25,9,-11,-6,1,6,6
1491087915872,1,-13,-8,5,13,8,10,22,6
1491087915873,2,-45,5,-3,15,1,-39,19,12
1491087915873,2,46,-3,-2,17,18,41,14,-1
1491087915874,3,-28,-21,-22,-19,-4,-22,-56,-10
1491087915874,3,36,-13,-1,-36,-69,9,54,26
1491087915909,0,-67,-2,1,17,82,-15,-40,-19
1491087915909,0,26,14,9,-10,-9,7,19,-8
1491087915910,1,-74,2,-6,34,16,-10,-27,1
1491087915910,1,78,-4,-10,-10,-35,57,61,19
1491087915911,2,-46,-19,-1,-44,-8,-45,-29,-10
1491087915911,2,65,18,-16,-9,-7,-22,-17,3
1491087915912,3,15,19,2,7,25,66,-3,-6
1491087915912,3,-71,-11,12,3,-23,-128,-67,-51
1491087915945,0,93,7,0,-11,-39,127,127,41
1491087915945,0,1,-8,-6,-21,68,-24,-21,12
1491087915946,1,-10,6,-1,-26,-34,-43,-7,-19
1491087915946,1,8,0,-20,-3,32,16,-62,6
1491087915947,2,111,-12,-19,-28,-78,-38,38,17
1491087915947,2,-80,0,24,51,6,-12,26,-12
1491087915948,3,-10,33,1,34,46,104,35,25
1491087915948,3,81,-11,16,5,0,-53,-12,-3
1491087915982,0,3,4,-10,11,27,-33,-54,-6
1491087915982,0,-28,10,14,7,13,88,47,19
1491087915983,1,18,-18,4,43,49,-5,-58,-68
1491087915983,1,-85,4,-8,-15,38,-42,100,9
1491087915984,2,-26,-1,-24,-43,-93,114,-46,-1
1491087915984,2,-60,-13,2,-2,-48,-124,10,17
1491087916020,3,-48,-8,-14,31,-64,30,-12,-6
1491087916020,3,57,-16,14,37,80,-8,54,78
1491087916021,0,-38,-53,-6,-43,-55,-100,-43,-37
1491087916021,0,-70,-18,-12,32,72,118,-29,-44
1491087916023,1,-29,-16,-3,-30,-5,-98,-16,-16
1491087916023,1,-45,-2,-40,-94,-86,34,44,-27
1491087916024,2,-75,72,60,79,-56,55,10,12
1491087916024,2,-19,5,-14,-9,24,-11,-5,23
1491087916057,3,-36,-3,13,16,-8,-19,-18,1
1491087916057,3,127,-22,-19,-25,-34,101,33,-13
1491087916058,0,7,12,8,-21,-73,-7,-10,-4
1491087916058,0,-16,7,22,23,17,38,0,16
1491087916059,1,24,-27,9,43,82,110,-2,-11
1491087916059,1,-80,-42,40,55,115,-59,-35,-9
1491087916060,2,-26,-28,1,-10,-25,-51,-61,-77
1491087916060,2,90,-31,-57,-102,-71,47,107,22
1491087916095,3,14,17,-9,-25,-54,-85,105,121
1491087916095,3,-32,-24,-3,5,83,-58,-103,-105
1491087916096,0,83,45,25,108,127,125,-32,31
1491087916096,0,-27,86,24,38,83,-96,-107,-83
1491087916096,1,-26,19,-11,-111,-115,-75,115,-10
1491087916096,1,-102,29,-37,-48,-120,22,-100,-14
1491087916097,2,1,4,2,61,116,-3,106,57
1491087916097,2,-70,-35,13,34,-79,-44,-83,-55
1491087916132,3,127,50,33,19,60,58,9,-6
1491087916132,3,63,6,0,15,-48,-27,-35,38
1491087916133,0,-113,-77,-74,-128,-106,-45,-120,-68
1491087916133,0,126,-3,-18,65,18,102,80,72
1491087916134,1,26,22,-3,62,-2,-15,-7,5
1491087916134,1,-85,-10,-6,27,81,1,24,-8
1491087916170,2,25,25,70,21,50,17,92,21
1491087916170,2,-23,36,8,-19,-128,37,100,56
1491087916171,3,-125,44,-26,-85,39,99,-57,-51
1491087916171,3,88,-63,-60,-32,-109,-92,-125,-56
1491087916172,0,-4,12,-12,8,69,127,127,71
1491087916172,0,-30,10,10,71,-84,-128,-48,-20
1491087916173,1,-5,-25,-12,-27,84,89,32,60
1491087916173,1,-34,45,78,97,63,92,63,36
1491087916207,2,87,-7,7,-39,-30,-128,-48,31
1491087916207,2,-32,-57,-3,21,127,3,-55,-81
1491087916209,3,-84,28,-15,-7,-101,3,6,-4
1491087916209,3,9,5,-30,-86,-95,49,-42,-31
1491087916210,0,66,1,-6,36,-28,8,67,102
1491087916210,0,-98,-16,6,-18,107,50,-128,-93
1491087916210,1,124,21,-12,-4,-93,-5,92,74
1491087916210,1,27,59,67,51,123,127,100,90
1491087916245,2,-85,-90,-47,11,-115,-128,-128,-42
1491087916245,2,-75,-12,-76,-128,-105,18,51,3
1491087916246,3,-61,-77,30,77,26,-44,-127,-89
1491087916246,3,61,-46,-42,42,7,70,72,55
1491087916247,0,-18,70,62,34,127,38,37,-67
1491087916247,0,74,-53,-8,-68,18,-128,-85,-4
1491087916248,1,-32,-53,-30,-82,-92,62,-48,-15
1491087916248,1,-1,-29,22,67,13,57,-44,-6
1491087916282,2,5,2,-55,-12,114,65,46,-44
1491087916282,2,65,38,16,-48,-126,-27,12,40
1491087916283,3,53,-26,20,-31,114,-117,-62,-29
1491087916283,3,-82,9,-12,29,77,75,62,53
1491087916285,0,43,55,40,96,19,101,16,40
1491087916285,0,33,118,72,68,-2,72,73,-7
1491087916320,1,72,15,-17,-62,-38,-68,-56,-7
1491087916320,1,-115,-58,-99,-124,-112,-120,-69,-41
1491087916321,2,41,-89,-5,-15,-22,30,16,-54
1491087916321,2,75,66,71,127,72,115,85,88
1491087916322,3,8,60,5,-59,-7,-72,-77,-38
1491087916322,3,-5,8,-32,-37,-99,38,-45,-44
1491087916323,0,-80,-3,-3,19,90,6,-53,-4
1491087916323,0,87,0,-31,32,31,39,-34,27
1491087916357,1,-47,104,43,53,93,86,52,20
1491087916357,1,-45,127,-9,-34,113,10,10,-73
1491087916359,2,-23,76,14,-46,-128,-4,50,48
1491087916359,2,5,-15,-20,-81,42,32,-66,0
1491087916360,3,-13,-121,-63,71,-33,90,10,28
1491087916360,3,-5,-84,70,78,99,-61,25,-16
1491087916361,0,-24,-118,-34,-96,-69,-65,-61,-63
1491087916361,0,-77,-128,-15,-37,18,-18,-3,-8
1491087916395,1,39,-119,-46,-17,-9,-67,-7,12
1491087916395,1,10,-70,62,35,97,45,56,24
1491087916396,2,20,22,10,94,127,13,47,2
1491087916396,2,-12,-34,-21,-117,-128,-128,-56,-11
1491087916397,3,-28,61,-20,-40,-36,93,53,-11
1491087916397,3,33,-47,39,68,93,-113,-54,-14
1491087916398,0,2,-17,-10,-47,44,-44,-51,26
1491087916398,0,-19,-4,-41,-44,-68,53,-7,-25
1491087916432,1,7,44,-14,-9,127,32,23,-18
1491087916432,1,1,-8,50,22,-128,-49,-5,22
1491087916434,2,-1,-7,-13,12,98,67,-19,-21
1491087916434,2,-2,-93,-1,-14,-79,-90,-59,-11
1491087916435,3,-12,-53,14,71,79,80,24,18
1491087916435,3,36,23,-6,-86,-45,47,17,7
1491087916470,0,16,-35,8,55,-29,53,-4,38
1491087916470,0,-17,25,14,33,85,33,66,-35
1491087916471,1,-48,-69,-27,-82,-110,-128,-113,-4
1491087916471,1,61,17,-7,63,-60,31,-6,-3
1491087916471,2,-2,3,4,8,96,25,25,2
1491087916471,2,-7,-12,4,45,-44,-13,-10,15
1491087916472,3,-20,35,29,17,87,64,55,4
1491087916472,3,24,20,-32,-37,-113,7,-31,1
1491087916507,0,-5,9,-46,-113,-128,-39,-50,-12
1491087916507,0,16,3,23,39,127,-68,-44,-15
1491087916508,1,-19,47,61,110,54,55,59,-8
1491087916508,1,54,25,-40,-93,-13,-1,12,25
1491087916508,2,-4,35,-14,-29,-105,-120,-30,3
1491087916508,2,-20,29,-47,34,-80,51,2,2
1491087916509,3,4,93,38,25,56,-42,-10,-15
1491087916509,3,-13,127,-17,-19,-40,89,26,7
1491087916544,0,0,48,23,40,13,23,12,20
1491087916544,0,-19,-37,0,-2,8,-39,-28,-42
1491087916545,1,20,-30,-10,-3,-86,101,42,20
1491087916545,1,-15,-19,33,77,127,2,18,-7
1491087916546,2,-6,-63,2,-44,-19,-92,-49,-13
1491087916546,2,-12,-29,-2,9,-86,-30,-4,14
1491087916582,3,-7,-114,-44,-43,-32,-22,-12,-1
1491087916582,3,-3,-46,27,12,-69,-24,-3,-18
1491087916583,0,4,-3,13,26,123,70,48,-4
1491087916583,0,12,18,28,43,127,127,21,-5
1491087916619,1,-9,-18,-11,-92,-128,-128,-30,2
1491087916619,1,-23,49,-61,37,39,19,-16,3
1491087916620,2,-2,31,34,48,102,98,-16,10
1491087916620,2,-8,-52,-6,3,-128,-64,10,-4
1491087916621,3,30,-46,29,33,119,48,-7,-14
1491087916621,3,-56,-32,-16,-79,-106,-27,-38,-19
1491087916622,0,27,-21,-29,-17,52,-41,32,22
1491087916622,0,-2,44,56,63,106,71,27,18
1491087916657,1,21,15,29,49,101,88,36,6
1491087916657,1,-17,-9,9,-42,-13,-18,17,-3
1491087916658,2,-33,20,-74,-66,-68,-57,-69,-15
1491087916658,2,-10,45,-34,53,-30,10,-37,-3
1491087916659,3,-8,-4,-33,-66,-31,-71,-20,8
1491087916659,3,9,-38,41,32,-42,119,31,-18
1491087916659,0,3,-4,-11,-7,-52,-30,-15,3
1491087916659,0,8,35,-13,-36,41,-9,8,11
1491087916694,1,-21,-25,-1,1,-25,-7,-2,-2
1491087916694,1,-2,-97,-32,-46,-41,-86,-47,-5
1491087916695,2,-19,-51,53,28,-35,98,53,-12
1491087916695,2,13,77,-2,-49,116,-49,8,3
1491087916696,3,-6,-16,31,127,-50,118,22,4
1491087916696,3,-17,64,-68,-125,-44,-128,-74,4
1491087916697,0,-3,22,-22,121,54,-11,-31,-11
1491087916697,0,-6,-41,13,27,13,111,32,16
1491087916732,1,17,49,-19,-85,-128,-65,-25,-18
1491087916732,1,23,-19,30,73,79,23,16,14
1491087916733,2,9,-12,-2,-51,-40,-30,2,-13
1491087916733,2,-3,-29,9,4,45,57,33,2
1491087916734,3,13,8,47,111,81,68,11,13
1491087916734,3,-8,-78,-57,-87,-83,-80,-41,-19
1491087916735,0,-14,-97,-30,-66,-5,4,6,-1
1491087916735,0,22,-92,32,61,62,23,7,17
1491087916769,1,2,0,-14,1,40,25,-7,-9
1491087916769,1,32,127,-32,4,127,42,26,11
1491087916770,2,-19,123,37,21,-45,27,16,-7
1491087916770,2,-39,110,22,-51,-95,-33,-37,-7
1491087916771,3,14,-40,-9,36,-91,-60,-23,-1
1491087916771,3,-29,-37,-12,-30,5,14,12,-5
1491087916772,0,19,-82,-30,-1,-62,-59,-19,-13
1491087916772,0,-11,40,-9,-64,-32,33,19,0
1491087916807,1,6,36,34,66,105,18,17,19
1491087916807,1,-5,-13,1,-6,81,24,9,-3
1491087916808,2,25,-7,10,-13,11,-19,-4,-9
1491087916808,2,-1,-20,1,39,46,8,-22,-1
1491087916809,3,-38,-28,-12,-82,-90,-18,-3,-16
1491087916809,3,21,-14,-10,62,36,27,12,11
1491087916809,0,-38,-18,-22,-45,-42,73,5,-17
1491087916809,0,1,59,1,19,-74,-44,-29,1
1491087916844,1,-21,22,-4,36,-51,-60,-23,-1
1491087916844,1,25,4,30,49,27,18,7,4
1491087916845,2,21,53,30,11,29,4,14,13
1491087916845,2,-29,-6,-24,-3,15,18,20,0
1491087916846,3,15,28,-17,-44,-8,-8,-14,-11
1491087916846,3,-8,24,52,66,33,-27,-1,-6
1491087916847,0,-8,32,-22,-48,-29,-42,-8,-8
1491087916847,0,19,-58,27,33,-40,-24,-4,0
1491087916882,1,2,-16,-23,-41,49,14,11,3
1491087916882,1,13,32,33,67,-5,6,-4,11
1491087916883,2,-1,-10,-17,-12,0,-15,-1,-8
1491087916883,2,-12,-30,-20,-49,8,-15,-1,-8
1491087916883,3,-26,6,15,-17,-38,-50,-17,-1
1491087916883,3,-36,-2,5,-14,-8,-16,2,-3
1491087916884,0,4,-1,7,22,3,7,18,13
1491087916884,0,-8,-2,-32,-36,-19,-24,-19,-18
1491087916919,1,37,15,-21,-12,38,4,9,2
1491087916919,1,22,13,13,-36,-12,-2,9,-16
1491087916957,2,-30,3,26,29,-9,-9,3,16
1491087916957,2,44,-38,-44,0,0,1,13,10
1491087916958,3,-12,-41,15,-43,-12,-2,-2,-4
1491087916958,3,20,-105,23,-13,-35,-7,-7,-4
1491087916959,0,-11,41,9,28,7,5,-2,-11
1491087916959,0,21,-10,-7,-18,8,3,4,6
1491087916959,1,0,-2,-21,1,1,2,-1,2
1491087916959,1,-16,-40,-16,-11,-22,-1,2,3
1491087916994,2,8,-76,4,9,14,15,13,-6
1491087916994,2,-2,-72,0,-13,22,20,7,4
1491087916995,3,-8,-39,-9,25,-17,-8,-2,14
1491087916995,3,-17,-24,10,-28,-18,-14,-12,-22
1491087916996,0,26,66,27,22,-8,-10,-6,0
1491087916996,0,17,29,10,-1,0,18,5,1
1491087916997,1,16,-13,-12,11,24,18,21,-12
1491087916997,1,82,107,7,36,21,11,-7,32
1491087917032,2,15,37,-6,-4,-27,-14,11,-3
1491087917032,2,38,4,-4,10,-11,-28,-34,-32
1491087917033,3,9,-61,26,31,17,4,4,3
1491087917033,3,-2,-12,6,-8,-22,16,6,-3
1491087917033,0,27,-38,4,7,28,-6,-14,2
1491087917033,0,32,-55,2,-4,27,15,8,8
1491087917034,1,-2,-110,-8,-9,-26,38,10,-11
1491087917034,1,-6,-1,-19,-16,-6,-59,13,-9
