1491693269088,0,-40,-51,-72,-45,-52,-56,-1,-28
1491693269088,0,9,1,23,28,4,13,-2,-13
1491693269090,1,5,-1,14,11,-2,12,-6,12
1491693269090,1,6,23,21,16,27,-2,-15,-18
1491693269136,2,-31,0,9,2,-7,28,-14,1
1491693269136,2,-16,-5,-9,-14,8,-7,4,4
1491693269137,3,-10,-10,-13,-15,-11,-1,-13,-22
1491693269137,3,-8,-2,-11,-17,-21,-11,-13,3
1491693269138,0,9,1,11,9,29,48,24,24
1491693269138,0,5,15,-8,-7,-7,-11,-12,16
1491693269139,1,-3,5,8,9,14,4,9,-9
1491693269139,1,-4,-8,-9,-5,-13,10,9,11
1491693269234,2,5,7,10,8,5,-17,-4,0
1491693269234,2,1,0,4,0,-4,0,2,-4
1491693269235,3,0,-4,-8,-6,-6,-4,23,5
1491693269235,3,-1,0,-6,1,0,5,-28,-7
1491693269236,0,17,-4,8,0,0,11,-25,16
1491693269236,0,-3,-11,-7,-9,2,4,-22,-27
1491693269283,1,1,-4,-5,-5,-9,-18,33,19
1491693269283,1,-9,-13,-5,-4,-20,-40,-19,-4
1491693269287,2,14,14,15,8,22,15,-2,-7
1491693269287,2,-6,0,-4,-2,2,13,36,42
1491693269287,3,-17,-19,-8,-7,-5,-8,-30,-15
1491693269287,3,25,23,7,1,10,9,26,5
1491693269288,2,1,5,2,0,-14,-9,-52,-9
1491693269288,2,-5,-7,-2,0,12,9,49,-10
1491693269331,3,-1,2,-4,-2,-2,-8,-18,-6
1491693269331,3,-3,-15,-8,-2,-7,8,24,24
1491693269332,0,-8,4,-2,1,-1,-7,5,-12
1491693269332,0,1,-14,-19,-5,-5,0,-6,-9
1491693269333,1,-6,-4,2,1,-2,-7,-13,-1
1491693269333,1,2,4,7,2,6,9,2,-4
1491693269334,0,-6,-1,2,0,1,-5,-3,-4
1491693269334,0,3,0,-2,-2,-2,2,-9,-2
1491693269380,1,-2,-13,-5,-1,1,1,-2,0
1491693269380,1,1,5,2,0,0,3,3,-2
1491693269381,2,-3,5,2,-1,0,-7,2,2
1491693269381,2,-1,-6,-4,-3,-3,-1,-7,-3
1491693269382,0,1,4,3,-2,3,2,4,2
1491693269382,0,0,-2,-3,-1,-2,-1,-4,-1
1491693269383,1,0,4,-2,1,1,1,4,0
1491693269383,1,-2,2,0,-1,0,-4,-6,-4
1491693269429,2,-3,-2,-1,-3,1,2,5,-3
1491693269429,2,0,1,1,-2,-3,-2,1,0
1491693269430,3,0,0,1,-3,-1,-7,-4,0
1491693269430,3,1,-2,-1,1,-2,-5,-5,-2
1491693269431,1,-1,2,-1,0,0,5,-2,-1
1491693269431,1,-3,-1,-4,-4,1,1,-2,-3
1491693269431,2,3,4,4,1,1,3,5,3
1491693269431,2,-2,-2,-3,0,-3,0,-3,-1
1491693269478,3,-1,-2,-5,0,-1,-4,-1,0
1491693269478,3,-2,-2,-4,0,0,0,-1,-3
1491693269479,0,1,1,3,-2,-4,-4,-1,-1
1491693269479,0,3,-3,-1,0,-3,-3,-1,5
1491693269479,2,2,-1,-3,0,0,1,0,-2
1491693269479,2,-1,0,-2,-3,-2,-3,-2,-2
1491693269485,3,21,2,-1,0,-1,0,2,6
1491693269485,3,-40,-8,-1,-1,-2,-4,-5,-12
1491693269526,0,-11,-1,-3,-2,-3,-1,1,-1
1491693269526,0,3,1,-3,-4,0,-2,0,-4
1491693269527,1,3,-3,-2,-1,-2,-3,0,6
1491693269527,1,2,-5,-4,0,0,-1,-7,-4
1491693269528,3,-6,6,0,-3,-5,-3,-2,-2
1491693269528,3,18,-3,2,-1,-5,-3,3,11
1491693269529,0,-2,-6,-3,1,-2,-5,-4,-5
1491693269529,0,1,-5,-3,0,0,2,0,0
1491693269575,1,-6,-6,-3,0,3,1,4,-7
1491693269575,1,4,6,-1,-1,-1,1,-1,2
1491693269576,2,5,-2,-1,-2,-3,-2,-12,-6
1491693269576,2,-6,-4,-1,-1,-2,-1,-2,5
1491693269577,0,1,4,4,-1,0,-3,-1,-4
1491693269577,0,2,10,3,-2,0,0,7,-3
1491693269578,1,-9,-3,-2,1,-3,-3,-17,-2
1491693269578,1,6,1,-1,1,-4,-2,8,-3
1491693269673,2,-2,4,-2,1,-2,1,-5,-3
1491693269673,2,-1,-2,-2,0,-2,1,-1,1
1491693269674,3,0,1,-1,1,-1,0,-2,-3
1491693269674,3,3,24,9,2,-2,-2,0,4
1491693269675,1,-6,-23,-8,-3,-1,-3,-5,4
1491693269675,1,0,0,0,-4,-2,-3,-4,-8
1491693269678,2,2,7,-1,-2,-2,-2,4,4
1491693269678,2,-9,-2,1,-2,1,-2,1,-1
1491693269770,3,0,-3,-2,-2,-4,-5,1,-2
1491693269770,3,6,-8,-4,1,2,1,-2,-2
1491693269771,0,-33,-20,-1,-3,1,-2,-1,-2
1491693269771,0,-5,-22,-8,-3,4,1,-5,-6
1491693269819,2,2,6,-7,-3,-5,-3,-8,-5
1491693269819,2,-12,-25,-12,-5,-2,-3,-13,5
1491693269868,3,-3,7,-5,-4,-7,-6,2,-2
1491693269868,3,10,-17,-2,-4,2,2,2,6
1491693269869,0,-3,23,1,0,-1,-1,-3,-11
1491693269869,0,13,-21,1,1,-2,-1,1,5
1491693269870,1,1,17,3,1,3,2,-1,-4
1491693269870,1,-6,-18,-6,-4,0,0,-2,-2
1491693269870,3,1,-1,-3,-2,-6,-3,-3,-6
1491693269870,3,6,-3,4,2,-3,-5,3,18
1491693269917,0,-1,8,3,-1,-3,-2,-1,4
1491693269917,0,-10,-7,-6,-4,-4,-5,-1,-10
1491693269918,1,-7,-24,-11,-4,0,1,-2,-5
1491693269918,1,4,13,5,-1,-5,-6,-5,-1
1491693269918,2,-2,-12,-2,0,0,1,5,2
1491693269918,2,-2,-9,1,-3,2,1,2,-4
1491693269922,3,-23,11,6,-1,-4,-4,-4,-5
1491693269922,3,4,2,-12,1,1,2,0,-1
1491693269965,0,-13,-13,-8,-7,4,1,-4,-15
1491693269965,0,-16,12,16,8,3,-1,4,-9
1491693269966,1,-9,-2,1,-1,-4,-6,-2,15
1491693269966,1,-11,-18,-3,-6,-6,-6,-10,-9
1491693269967,3,7,2,1,-1,1,2,3,5
1491693269967,3,-4,1,2,0,-1,-6,-7,-3
1491693269968,0,-2,-8,-1,-5,-3,0,-2,1
1491693269968,0,18,4,7,4,-2,0,4,10
1491693270014,1,8,-1,-4,-1,-2,0,2,-1
1491693270014,1,-1,-5,-4,-3,-5,3,-4,-2
1491693270015,2,-3,3,-1,-2,-3,0,-5,-3
1491693270015,2,-3,-8,-7,-1,-4,0,8,4
1491693270016,0,-30,-8,0,-3,-10,-7,11,16
1491693270016,0,-1,-11,-6,-4,0,3,-3,-1
1491693270017,1,4,-7,-3,-1,-3,-4,-4,6
1491693270017,1,3,0,5,-2,-2,0,-6,-4
1491693270111,2,-14,-4,-1,-2,-3,-7,-25,-4
1491693270111,2,5,-10,-5,-2,-4,-5,-17,2
1491693270113,3,-8,-6,-6,1,3,-15,8,-16
1491693270113,3,0,-8,-10,-6,-2,-14,10,6
1491693270113,1,0,6,2,-3,-4,-14,-35,-20
1491693270113,1,5,-2,2,2,-8,0,-3,-1
1491693270114,2,0,1,-4,-2,-11,-2,0,-9
1491693270114,2,-3,-16,-9,-6,-11,-31,13,-8
1491693270161,3,5,-2,0,-1,10,5,15,4
1491693270161,3,-6,-3,3,2,12,-14,-7,1
1491693270163,0,10,19,10,7,2,-3,-11,0
1491693270163,0,-3,-2,3,-3,-4,3,-21,-7
1491693270163,2,-6,-16,-23,-25,4,-32,37,-6
1491693270163,2,3,0,7,38,-7,-22,-9,-15
1491693270164,3,7,3,-16,-61,13,59,76,43
1491693270164,3,4,4,37,89,45,7,64,8
1491693270210,0,-2,-18,-33,-68,-25,55,2,10
1491693270210,0,2,-11,-31,-34,-52,-45,-24,-21
1491693270211,1,-10,-4,12,69,16,-104,-117,-74
1491693270211,1,-6,24,25,-52,-102,-69,-19,13
1491693270212,3,-13,1,-16,-68,8,38,-22,-26
1491693270212,3,9,43,38,31,-45,-26,-108,39
1491693270212,0,20,9,53,47,-1,-66,-76,-24
1491693270212,0,12,22,3,6,32,11,74,47
1491693270258,1,6,-4,6,28,40,36,36,5
1491693270258,1,-3,-4,-29,-86,43,17,-44,-65
1491693270259,2,-21,2,-2,99,6,38,-4,-12
1491693270259,2,16,-35,-31,-47,-11,-42,-75,-18
1491693270260,0,12,12,3,-75,-9,-48,-2,-25
1491693270260,0,-32,7,24,34,-31,6,31,10
1491693270261,1,25,27,-2,12,-17,11,-18,6
1491693270261,1,8,-44,5,10,-6,-19,-63,-11
1491693270307,2,11,-18,-28,26,31,40,70,31
1491693270307,2,-7,6,6,-31,30,28,5,-1
1491693270308,3,27,9,18,23,-15,7,47,28
1491693270308,3,-6,-23,-29,-6,5,-3,-34,7
1491693270309,1,11,7,-11,-37,-56,-32,-55,-11
1491693270309,1,21,20,28,78,69,23,-40,-9
1491693270311,2,-14,-15,39,29,-9,-37,42,17
1491693270311,2,-12,-20,-54,-62,-116,-48,1,-10
1491693270355,3,-20,-10,-52,-54,-13,-9,-25,-10
1491693270355,3,38,-10,-24,-8,-24,-11,19,17
1491693270357,0,-35,11,6,-13,-15,-42,-37,-24
1491693270357,0,-16,11,39,37,69,53,3,-21
1491693270358,2,13,0,17,3,1,21,-33,8
1491693270358,2,3,14,17,-6,-2,-28,5,-13
1491693270359,3,-16,-7,20,4,-112,-69,-54,-9
1491693270359,3,-17,-14,8,14,19,5,81,9
1491693270453,0,6,-12,-43,-27,68,97,11,13
1491693270453,0,-2,-7,-38,-16,7,3,8,9
1491693270454,1,-1,7,27,16,48,37,0,-8
1491693270454,1,-9,-2,-10,15,-54,-48,-24,-5
1491693270455,3,-53,11,0,12,-6,-12,9,1
1491693270455,3,2,11,26,10,0,-7,19,-2
1491693270501,0,-3,7,13,-4,5,3,-18,-11
1491693270501,0,-3,-21,-30,-28,-54,-73,-45,-9
1491693270503,1,7,3,-37,-18,28,41,47,5
1491693270503,1,-15,-8,-11,-5,18,42,15,11
1491693270504,2,1,-7,-7,6,-6,-20,-41,-19
1491693270504,2,-12,6,29,21,-9,-52,3,-7
1491693270505,3,4,0,17,13,31,42,-31,-4
1491693270505,3,-1,-3,-23,-15,-17,18,36,3
1491693270550,0,-5,-8,1,-7,-32,-40,-16,-12
1491693270550,0,-20,-24,-5,-3,-30,41,-12,-23
1491693270551,1,2,8,10,8,32,14,58,19
1491693270551,1,-8,-34,-16,-9,-11,-14,3,-5
1491693270553,1,-2,17,17,13,7,49,35,-3
1491693270553,1,-2,9,2,6,32,-31,-40,-17
1491693270554,2,3,-7,-3,-2,16,40,-32,31
1491693270554,2,0,1,7,-1,1,-27,19,-7
1491693270600,3,-33,-26,-16,-13,-49,-10,-30,42
1491693270600,3,2,-8,-3,-8,-40,-71,-17,-44
1491693270601,0,-14,-6,-1,7,62,19,1,-1
1491693270601,0,-4,-20,-4,-1,36,127,29,15
1491693270602,2,0,-30,-6,-8,-29,-15,-7,-20
1491693270602,2,18,-3,-1,5,3,-20,-5,5
1491693270604,3,1,-12,0,-8,-79,-79,-5,-16
1491693270604,3,-5,-4,-17,-9,57,59,35,0
1491693270648,0,5,31,11,0,-46,-63,-44,-10
1491693270648,0,-7,-55,-4,14,50,5,21,25
1491693270649,1,0,6,-24,-10,30,41,3,-9
1491693270649,1,5,11,9,7,21,7,-17,6
1491693270651,3,-3,-27,1,8,-11,-22,15,-22
1491693270651,3,-4,-13,-13,-10,-16,-26,-9,0
1491693270651,0,0,20,8,6,-3,42,42,1
1491693270651,0,0,27,5,-2,-45,-52,-9,-5
1491693270696,1,1,6,8,0,45,52,32,-9
1491693270696,1,6,6,6,-1,-22,-82,-84,9
1491693270746,2,-16,-27,-9,-1,38,-14,34,-17
1491693270746,2,-2,-3,-7,-7,-14,98,-23,-7
1491693270747,0,-2,39,22,3,8,-79,4,3
1491693270747,0,-4,2,-6,-11,-56,9,-30,-5
1491693270748,1,-5,-26,-14,2,34,-61,26,-10
1491693270748,1,-6,-44,-18,-7,34,59,-6,18
1491693270749,2,6,3,-6,-3,-9,64,11,5
1491693270749,2,20,93,46,22,67,71,11,9
1491693270794,3,3,-16,0,-1,-45,7,-30,4
1491693270794,3,-5,-9,-15,-16,-69,-96,-12,-14
1491693270795,1,22,2,21,11,-30,-15,21,-6
1491693270795,1,0,28,13,10,-2,-24,7,-5
1491693270796,2,-8,-22,-22,-26,-128,-66,7,-30
1491693270796,2,-8,-15,-11,-15,-73,-22,-34,-42
1491693270797,1,-4,-14,-9,-16,-28,58,60,-15
1491693270797,1,1,15,8,20,-19,-21,13,0
1491693270843,2,3,-1,6,-15,68,30,-4,-10
1491693270843,2,11,2,4,30,39,114,113,86
1491693270844,3,-11,-18,-19,-32,-94,19,-99,-23
1491693270844,3,-4,14,9,-8,73,73,-5,-13
1491693270845,2,2,-8,-8,-20,-101,15,-26,-1
1491693270845,2,-34,-18,-41,-49,-48,-63,-92,-63
1491693270846,3,-1,29,26,13,16,46,-45,-24
1491693270846,3,-15,13,34,13,-15,-63,-128,-31
1491693270891,0,33,38,37,40,21,116,120,34
1491693270891,0,32,-1,-12,-70,48,2,31,51
1491693270893,1,-10,23,41,54,16,7,-34,23
1491693270893,1,-16,-40,-89,-52,-80,-100,-89,-29
1491693270893,3,2,-3,36,17,26,-42,-39,-8
1491693270893,3,-10,6,98,65,19,-33,-38,-29
1491693270894,0,-2,-21,-64,-112,-71,-54,-110,13
1491693270894,0,-24,-31,-102,57,10,-74,-14,2
1491693270940,1,28,-10,-36,15,-119,-92,-47,-6
1491693270940,1,-53,38,70,80,40,56,37,-27
1491693270941,2,41,-1,108,107,78,-34,-101,29
1491693270941,2,-11,11,-8,-66,44,119,-88,95
1491693270942,0,-48,-19,-35,-76,-39,-74,-37,46
1491693270942,0,73,9,18,127,57,13,73,106
1491693270943,1,-25,-42,-89,-40,88,3,-33,105
1491693270943,1,6,30,13,-26,21,38,-5,109
1491693270989,2,-39,19,18,-84,-88,32,-85,-7
1491693270989,2,-29,31,-19,-66,-51,-57,-1,-91
1491693270990,3,-14,11,23,-71,-97,-14,75,-128
1491693270990,3,20,-38,-56,-45,50,6,20,-120
1491693270991,1,-5,-8,-45,-20,-23,-56,84,-87
1491693270991,1,20,-18,-18,25,44,99,30,-60
1491693270993,2,12,1,-20,6,5,-17,-44,-60
1491693270993,2,-14,-6,82,72,-8,-53,-57,-59
1491693271038,3,-15,22,18,-96,-60,-71,58,-29
1491693271038,3,-12,-22,25,35,11,50,-14,-23
1491693271039,0,26,-16,-72,-21,22,17,-66,-25
1491693271039,0,-23,10,7,-47,-43,-40,34,-14
1491693271040,2,1,18,66,47,-40,-40,127,-58
1491693271040,2,-7,-5,6,70,103,127,-74,-33
1491693271041,3,16,12,28,-11,-39,-59,-100,-96
1491693271041,3,-21,-10,31,4,-110,-10,22,-64
1491693271086,0,-34,25,-15,-66,-40,-84,-128,-78
1491693271086,0,31,-27,-59,-17,42,82,127,21
1491693271088,1,-32,-52,-75,-27,-54,-59,-128,-52
1491693271088,1,12,13,-9,-56,-37,-10,90,-36
1491693271088,3,8,-7,-96,-81,45,-25,-115,2
1491693271088,3,-7,5,44,11,34,-49,-102,-61
1491693271090,0,36,3,-21,-77,27,40,103,-28
1491693271090,0,-24,-5,-53,14,67,76,-83,-21
1491693271135,1,8,-16,1,-41,7,68,-18,28
1491693271135,1,-18,9,-44,-95,-128,-128,-80,-55
1491693271137,2,-10,-11,7,92,44,123,73,38
1491693271137,2,15,8,10,-55,4,-4,22,-24
1491693271137,3,-2,35,120,84,7,16,100,4
1491693271137,3,9,22,-45,-72,7,-25,-64,29
1491693271138,0,19,-44,-1,55,8,-23,34,9
1491693271138,0,-23,5,-33,16,-11,29,-80,-34
1491693271184,1,-13,-16,-41,-32,-24,58,75,-9
1491693271184,1,23,17,33,79,34,-31,7,24
1491693271186,2,24,26,33,-44,65,-27,-18,57
1491693271186,2,11,26,64,30,6,17,-12,25
1491693271187,0,-26,-26,-51,-5,-128,-115,1,74
1491693271187,0,-21,-7,18,22,-4,-52,48,57
1491693271188,1,17,20,66,103,125,83,53,34
1491693271188,1,27,40,40,-65,-128,-56,19,58
1491693271233,2,19,-19,-56,-13,75,64,-5,58
1491693271233,2,-10,-6,-31,-56,18,-34,62,59
1491693271281,3,-15,-18,-88,59,-36,-85,-117,-3
1491693271281,3,-7,-8,-4,-59,42,-22,97,60
1491693271282,1,36,12,-7,-74,44,98,90,80
1491693271282,1,13,7,10,80,49,-5,-88,-5
1491693271283,2,-17,27,2,-120,-98,79,-26,2
1491693271283,2,-7,-24,-62,-60,83,-29,-44,-5
1491693271284,3,-19,-30,-31,116,-59,-15,-97,-15
1491693271284,3,-3,-35,-34,-45,67,127,2,3
1491693271330,0,-2,23,8,-26,-37,-58,83,-7
1491693271330,0,-1,38,96,50,-1,-31,-78,-17
1491693271332,2,2,-4,33,71,7,101,50,19
1491693271332,2,2,-24,-107,64,-125,-96,-86,-43
1491693271332,3,-26,-13,-9,11,-28,-43,-10,23
1491693271332,3,-34,-3,48,34,16,34,-16,-23
1491693271334,3,-23,19,58,-127,-128,-82,-93,72
1491693271334,3,-11,-30,-39,127,49,-56,101,-9
1491693271428,0,17,-17,-31,-94,-49,-39,119,64
1491693271428,0,29,13,7,20,87,0,31,57
1491693271430,1,-7,34,41,-52,-126,-9,-95,-58
1491693271430,1,-23,19,5,-114,-127,45,46,-12
1491693271430,0,-18,6,32,-14,-119,-123,-100,-28
1491693271430,0,-5,-11,-51,-121,2,21,29,9
1491693271431,1,-9,-5,-24,16,20,-66,-89,-28
1491693271431,1,-4,19,85,127,24,30,59,37
1491693271476,2,31,0,6,-48,56,58,-12,40
1491693271476,2,-18,-19,-66,-47,-24,-89,10,-14
1491693271478,3,36,19,98,106,-117,35,127,10
1491693271478,3,17,24,-98,-81,63,-2,-128,-16
1491693271478,1,53,-5,-71,-79,-74,29,37,48
1491693271478,1,-21,21,126,-1,-59,89,-50,-40
1491693271479,2,-7,-11,-8,-51,-57,-15,-57,-14
1491693271479,2,4,11,1,83,88,75,20,7
1491693271525,3,11,38,77,-11,101,54,82,30
1491693271525,3,2,0,-43,-32,-113,-69,-101,-35
1491693271527,0,-20,-35,-38,93,87,89,127,41
1491693271527,0,32,-8,-69,-39,46,1,-128,-16
1491693271528,2,-2,25,42,17,-15,-11,27,0
1491693271528,2,6,38,35,-102,-64,-2,-54,3
1491693271529,3,-19,-32,-43,48,127,-58,64,12
1491693271529,3,-2,-44,-10,-28,9,-49,-5,-18
1491693271574,0,4,-32,-29,-5,106,53,61,-9
1491693271574,0,-2,8,23,2,127,-36,11,23
1491693271575,1,-2,5,29,-34,47,-57,9,-28
1491693271575,1,9,9,0,23,75,70,33,-6
1491693271576,3,-6,24,21,9,-69,1,-4,-35
1491693271576,3,9,50,12,11,-128,-75,-1,14
1491693271577,0,-9,-42,-60,-41,-128,-28,14,-4
1491693271577,0,3,43,20,-24,-99,-1,-60,-12
1491693271623,1,-10,-14,41,63,-110,73,-30,-16
1491693271623,1,-5,-59,-96,-35,-77,8,11,13
1491693271624,2,2,32,17,-7,-128,-7,-8,-19
1491693271624,2,3,42,31,-9,-32,-11,-14,14
1491693271625,0,-26,-58,8,70,117,34,1,-6
1491693271625,0,7,25,1,-28,22,-59,32,12
1491693271626,1,7,9,-8,19,-27,69,-2,5
1491693271626,1,-1,-5,-15,5,21,-104,-84,-6
1491693271671,2,1,30,12,-39,-49,87,23,9
1491693271671,2,-1,-37,46,117,66,43,36,6
1491693271673,3,2,42,-14,-124,-68,-25,-93,-29
1491693271673,3,-15,-22,-25,-5,-3,-92,25,2
1491693271673,1,4,23,3,71,-36,54,-22,-14
1491693271673,1,13,-7,72,119,50,-40,-58,13
1491693271674,2,-7,-4,-90,-119,-104,40,-75,-23
1491693271674,2,-14,-29,16,108,-38,-57,57,21
1491693271720,3,4,-7,-8,-115,-65,-73,-1,2
1491693271720,3,3,46,118,29,-35,81,21,-31
1491693271721,0,-3,19,1,19,112,-15,-18,13
1491693271721,0,-17,-38,-113,51,87,-77,37,8
1491693271722,2,16,30,104,40,-125,-57,-98,-12
1491693271722,2,2,-16,-14,-28,-128,18,-6,-13
1491693271722,3,25,24,26,-22,-60,-37,55,17
1491693271722,3,-17,-15,-21,107,45,-46,8,-16
1491693271769,0,-18,-7,-34,-21,-91,-25,-85,-28
1491693271769,0,-13,-16,-31,-59,9,-27,-87,-6
1491693271770,1,-7,-10,10,73,37,43,12,9
1491693271770,1,4,3,-30,-104,61,-81,-96,0
1491693271770,3,4,-39,-17,17,2,50,39,10
1491693271770,3,1,-5,-20,24,-51,63,18,-21
1491693271771,0,-25,-64,-13,50,127,-111,-33,-15
1491693271771,0,10,24,9,-41,11,9,-80,-8
1491693271818,1,1,79,51,48,45,31,4,33
1491693271818,1,-2,-49,-5,-64,79,78,16,-36
1491693271818,2,-2,-12,38,41,-122,-23,-8,11
1491693271818,2,-17,-85,-70,76,97,69,-66,-34
1491693271819,0,0,9,29,82,38,77,-28,20
1491693271819,0,15,68,62,-6,-2,-25,96,-8
1491693271820,1,-20,-35,-28,103,-24,-2,-120,-32
1491693271820,1,-5,17,13,-85,-99,47,2,-29
1491693271867,2,-3,-18,32,1,-43,-48,14,1
1491693271867,2,12,10,19,82,-39,-34,-101,7
1491693271868,3,-7,-32,-68,-104,120,60,65,38
1491693271868,3,-13,42,8,29,-88,-35,14,-100
1491693271869,0,-12,-5,-78,51,-9,105,56,61
1491693271869,0,-6,5,88,-44,-104,43,-8,-13
1491693271869,1,28,48,75,120,-1,97,-25,1
1491693271869,1,-4,-44,-62,50,125,-43,-60,62
1491693271915,2,0,20,-21,-128,-75,-17,-11,-70
1491693271915,2,-23,10,78,113,-128,42,88,-23
1491693271917,3,20,-56,-90,-39,-105,100,77,25
1491693271917,3,22,12,12,-18,-128,-43,107,38
1491693271917,1,-57,-22,-16,32,-10,-116,-64,-75
1491693271917,1,-4,23,15,-17,89,4,93,-38
1491693271918,2,22,-35,-19,-11,88,34,101,-13
1491693271918,2,1,-28,-27,11,65,91,110,-11
1491693271964,3,27,26,127,-79,93,-32,-68,97
1491693271964,3,20,-14,78,75,66,9,-29,11
1491693271965,0,-39,-5,64,84,45,-37,-33,-43
1491693271965,0,-42,-29,-39,-65,57,53,55,23
1491693271966,2,20,35,-18,-114,-5,-60,-12,30
1491693271966,2,-46,-15,-44,50,28,-10,-124,-47
1491693271967,3,-6,-23,-99,-22,16,-87,127,-1
1491693271967,3,-38,-27,-97,-101,-9,-8,-127,-47
1491693272014,0,5,0,-47,127,8,-29,100,15
1491693272014,0,8,4,-72,-29,8,71,-83,-26
1491693272016,1,5,-16,-70,-4,-2,-44,-36,12
1491693272016,1,9,38,11,39,0,99,90,29
1491693272017,3,-13,-8,-8,28,-11,-8,-14,-22
1491693272017,3,2,2,-62,13,2,34,-43,-4
1491693272026,0,3,-17,-65,30,-1,2,-10,66
1491693272026,0,0,58,-128,-1,-6,-11,-39,-29
1491693272110,1,1,78,-118,-13,2,90,47,1
1491693272110,1,-9,-30,-58,31,110,79,-38,-23
1491693272111,2,24,74,55,-72,67,65,-25,-12
1491693272111,2,7,-95,73,-61,127,-56,11,17
1491693272112,0,4,24,53,-54,21,-4,-22,-15
1491693272112,0,-1,9,116,-26,-13,6,-84,12
1491693272113,1,-9,-65,-22,-89,-122,102,-15,-20
1491693272113,1,0,33,73,127,38,31,-54,-13
1491693272159,2,5,-33,40,83,-13,-41,-11,-7
1491693272159,2,19,41,67,-10,-113,95,23,-3
1491693272160,3,-5,10,39,-27,-66,-14,43,-14
1491693272160,3,-15,-33,-75,94,53,-40,-8,43
1491693272161,2,1,0,114,78,7,94,124,20
1491693272161,2,7,1,-15,-16,28,-78,-100,-29
1491693272162,3,4,-20,86,48,121,-49,-18,12
1491693272162,3,-4,7,-8,-59,-91,28,101,21
1491693272208,0,-13,-11,25,-59,-15,27,-128,-69
1491693272208,0,-12,0,48,3,3,-92,-40,7
1491693272209,1,-5,0,8,46,-80,127,127,-13
1491693272209,1,9,13,57,-34,23,-128,-106,2
1491693272209,2,10,26,103,98,-43,-98,101,81
1491693272209,2,7,13,-6,-90,-19,61,26,14
1491693272210,3,-29,-22,-109,-89,52,-128,-128,-64
1491693272210,3,-4,-42,-48,63,127,19,85,72
1491693272256,0,5,-16,-50,-95,-96,-24,87,-52
1491693272256,0,12,34,42,127,-44,77,77,48
1491693272257,1,4,-2,44,-87,-3,2,-45,14
1491693272257,1,10,18,4,66,-22,47,98,10
1491693272258,3,-19,-41,-55,-12,30,-57,18,28
1491693272258,3,2,49,71,127,0,127,-43,-20
1491693272259,0,-2,-36,-102,-58,16,-75,-128,-19
1491693272259,0,-9,-31,-84,-25,-6,7,-18,-5
1491693272357,1,12,45,-20,16,31,70,45,17
1491693272357,1,-2,-21,-19,18,-28,-128,-128,-25
1491693272359,2,0,5,6,47,45,-49,62,0
1491693272359,2,5,-10,-70,-7,20,38,80,1
1491693272452,0,-2,-1,-39,24,115,25,-12,19
1491693272452,0,-3,-28,-91,4,126,7,71,6
1491693272453,1,-11,13,-71,35,127,-30,-26,-20
1491693272453,1,9,9,-16,-20,103,66,-34,-25
1491693272454,2,0,51,20,10,27,-55,-57,36
1491693272454,2,-10,-65,15,21,-90,41,49,4
1491693272455,3,12,49,115,36,-128,6,10,8
1491693272455,3,-6,4,19,-34,-128,-19,0,-32
1491693272501,1,7,-37,44,-125,-128,-67,-43,-5
1491693272501,1,-1,-23,35,81,-128,29,86,10
1491693272505,2,-22,-4,-17,30,-26,-34,-7,2
1491693272505,2,9,-2,53,5,-3,78,83,-17
1491693272506,3,-14,-2,24,-34,100,10,40,20
1491693272506,3,-2,20,22,-19,15,15,-115,30
1491693272507,0,10,-26,-5,44,-128,-64,-120,-27
1491693272507,0,36,9,-20,35,62,-25,57,74
1491693272550,1,-25,-32,-11,-85,-128,-70,-62,-51
1491693272550,1,-10,19,-9,-95,7,-35,-35,-60
1491693272550,2,-10,-3,-4,41,94,66,55,70
1491693272550,2,-65,-32,-23,-86,-20,-51,-35,-55
1491693272551,0,-23,-20,-2,-101,91,-47,-92,-65
1491693272551,0,-6,-5,78,110,-9,0,57,-3
1491693272551,1,-42,-32,-40,-9,70,96,-11,-27
1491693272551,1,10,-4,12,-14,92,-63,-63,-8
1491693272597,2,15,10,20,-46,78,17,17,13
1491693272597,2,-1,-12,-55,72,79,27,26,-16
1491693272598,3,-35,-5,-48,-54,20,-44,-128,-57
1491693272598,3,55,1,-10,7,4,29,127,70
1491693272599,1,-17,2,1,-44,62,50,-22,18
1491693272599,1,-33,-16,-67,-47,57,-15,-29,-20
1491693272646,2,-17,-20,-58,30,59,-68,-96,-2
1491693272646,2,16,-6,-20,-41,-92,-41,-79,-36
1491693272647,3,11,18,59,124,115,71,77,51
1491693272647,3,-4,-8,-37,-88,2,-36,-90,-75
1491693272649,0,6,-9,-44,-75,-20,87,36,16
1491693272649,0,-28,-21,-23,-14,86,-101,-76,-12
1491693272650,2,-8,1,58,127,10,-12,57,28
1491693272650,2,10,-5,-32,-70,-117,-38,-101,-19
1491693272695,3,-20,-47,-128,-103,80,-66,122,-2
1491693272695,3,-17,-24,-3,57,58,-31,-1,34
1491693272696,0,23,53,62,92,49,-44,79,8
1491693272696,0,1,-7,14,64,-8,127,16,-2
1491693272697,1,3,0,-17,-100,-96,-128,-128,-33
1491693272697,1,-16,-37,-53,52,82,62,-34,-6
1491693272697,3,-4,-7,35,101,50,-17,-61,-17
1491693272697,3,-2,0,13,-38,10,-50,-43,16
1491693272744,0,-3,16,30,39,-3,28,-12,1
1491693272744,0,20,6,-4,-24,-61,-55,-107,-43
1491693272745,1,48,19,44,83,-128,127,85,81
1491693272745,1,-16,-17,37,92,49,-15,-2,-21
1491693272745,0,6,-54,-51,-17,105,-48,-44,2
1491693272745,0,2,29,59,18,11,61,100,-2
1491693272746,1,-3,-14,19,-43,127,-28,-70,9
1491693272746,1,5,26,64,-56,-65,126,-52,-32
1491693272793,2,1,-8,12,-120,-60,-57,83,20
1491693272793,2,14,11,42,85,127,7,-32,14
1491693272794,3,0,7,-46,-92,-114,29,-4,16
1491693272794,3,-17,-2,16,71,-68,47,9,-31
1491693272795,1,-11,14,76,99,40,-29,-42,30
1491693272795,1,25,-23,-77,-128,-121,-79,-107,-37
1491693272795,2,-9,-27,-32,14,-77,-87,70,6
1491693272795,2,-13,-4,6,-17,62,24,10,23
1491693272841,3,-18,-5,-11,70,21,69,-22,-6
1491693272841,3,23,23,78,-38,-101,68,-44,-26
1491693272842,0,-16,-3,-74,71,76,-5,22,-2
1491693272842,0,35,-5,-2,44,50,36,36,31
1491693272843,2,38,-1,-39,-122,-42,-66,-49,-3
1491693272843,2,-8,-8,-54,-90,0,78,11,16
1491693272845,3,18,-12,-6,108,42,-62,-92,-43
1491693272845,3,-4,-1,-21,-75,-12,11,127,78
1491693272890,0,22,30,76,127,-43,47,-74,-42
1491693272890,0,-8,9,40,-52,-114,-17,12,-13
1491693272891,1,-24,-18,-72,-32,-33,-49,-33,-15
1491693272891,1,-36,-35,-76,-41,55,-128,-76,23
1491693272892,3,-6,28,90,83,-13,-15,12,-29
1491693272892,3,-15,1,-13,127,-20,53,-72,-36
1491693272893,0,1,-4,-13,15,81,9,6,54
1491693272893,0,-25,-26,-57,-98,-92,-54,-14,20
1491693272939,1,-17,14,-8,-128,47,49,-29,-37
1491693272939,1,-4,-4,-5,-128,-50,-41,18,58
1491693272940,2,-13,11,16,-70,-55,23,-49,-51
1491693272940,2,-22,-11,-33,-128,-14,84,62,-18
1491693272941,3,34,-8,-30,-31,-24,-64,-76,-35
1491693272941,3,41,14,18,85,91,45,127,-9
1491693272942,0,-49,-16,-34,-53,-28,9,-118,1
1491693272942,0,52,-19,-1,1,22,8,0,20
1491693272988,1,-24,18,46,-42,-128,86,29,-29
1491693272988,1,5,13,-12,-128,-14,26,-58,-26
1491693272989,2,-20,-2,-27,127,73,-7,-51,-11
1491693272989,2,-18,-1,-12,10,9,-93,-38,-4
1491693272990,0,30,28,92,59,79,-24,-47,-3
1491693272990,0,-56,-31,-51,42,75,-124,-128,-86
1491693272991,1,37,-7,25,-8,13,127,127,54
1491693272991,1,1,37,50,30,52,-32,-83,44
1491693273037,2,-22,-12,48,65,-36,4,-62,-68
1491693273037,2,46,20,75,-21,-77,-41,-12,15
1491693273038,3,-31,17,52,-69,-90,-75,12,32
1491693273038,3,-17,-2,-19,-53,-107,-75,-33,-9
1491693273039,1,4,-16,-25,-48,9,-36,-88,-20
1491693273039,1,7,0,23,-62,-71,79,125,22
1491693273040,2,-25,-7,-13,62,126,43,-29,15
1491693273040,2,-17,10,3,66,-128,-37,-75,-64
1491693273085,3,-5,-12,42,36,47,-31,-81,0
1491693273085,3,1,32,17,107,-74,12,44,11
1491693273086,0,25,-5,-39,-83,-67,-48,-29,5
1491693273086,0,-8,-14,-36,-64,2,88,-24,29
1491693273087,2,-20,20,79,38,-12,63,3,-1
1491693273087,2,14,11,-26,-19,-16,46,-19,24
1491693273134,3,23,-18,-75,-28,74,-18,12,-20
1491693273134,3,-22,2,36,-94,-110,55,67,19
1491693273135,0,10,-8,-35,82,101,-3,-50,2
1491693273135,0,-25,38,65,-31,41,-70,-80,-22
1491693273136,1,8,-26,-68,59,36,127,62,38
1491693273136,1,19,13,43,96,14,51,-52,-30
1491693273137,3,-38,-13,-57,-106,-55,-57,-82,-62
1491693273137,3,-43,-57,-73,101,127,-77,-53,35
1491693273183,0,82,33,31,-128,-128,-43,45,42
1491693273183,0,-7,-15,40,119,114,70,24,13
1491693273185,1,-29,-16,-47,-77,113,18,-48,-10
1491693273185,1,-5,7,-13,-75,12,-53,55,7
1491693273186,2,-66,-56,-107,-128,-105,-117,-128,-76
1491693273186,2,76,18,17,-61,-13,41,119,103
1491693273200,0,-12,-6,-12,23,127,7,48,16
1491693273200,0,19,21,24,-103,-91,58,75,-62
1491693273232,1,-28,-42,-76,36,77,-18,-42,12
1491693273232,1,-34,-29,4,68,97,-96,-49,-20
1491693273233,2,39,42,78,118,-38,13,-26,13
1491693273233,2,-44,-19,-47,-82,-74,-13,8,-68
1491693273280,1,-51,19,-11,-98,-128,-95,-85,33
1491693273280,1,-4,-70,-117,73,127,51,-60,-6
1491693273282,2,-11,4,-47,-119,-97,-23,119,13
1491693273282,2,45,45,82,44,-62,78,-94,53
1491693273283,3,22,29,-46,88,46,-37,12,-50
1491693273283,3,21,0,-5,71,7,47,-128,12
1491693273284,0,-47,-6,7,-122,-27,76,85,24
1491693273284,0,-6,-12,81,127,127,-51,-128,-50
1491693273329,1,-13,5,-7,-92,-128,77,-54,2
1491693273329,1,49,27,-20,15,-13,-74,46,72
1491693273330,2,-58,-53,-44,10,115,82,42,-26
1491693273330,2,-10,-14,-75,-102,34,-37,-25,9
1491693273331,3,61,49,127,5,88,9,90,30
1491693273331,3,-55,30,70,63,43,56,-113,-66
1491693273333,2,38,47,76,37,-11,-5,-128,-27
1491693273333,2,-57,-12,-12,93,-69,105,83,-43
1491693273378,3,-21,-43,-52,-27,46,72,-5,13
1491693273378,3,39,-6,-38,-60,-44,9,86,-70
1491693273379,0,15,8,-13,113,-19,30,68,-50
1491693273379,0,66,6,-10,-90,-77,-48,9,42
1491693273388,3,38,60,127,8,-123,54,102,35
1491693273388,3,-30,-41,-98,25,23,10,-116,-25
1491693273390,0,-15,25,32,108,70,6,-102,41
1491693273390,0,-6,-7,1,-10,-39,40,86,24
1491693273427,1,26,-7,0,127,127,50,-68,-34
1491693273427,1,-6,38,96,-128,-128,-114,73,84
1491693273428,2,74,-27,-89,-62,89,73,-117,-29
1491693273428,2,-39,-2,39,98,22,-22,-40,20
1491693273429,0,17,24,61,-53,-62,-73,30,28
1491693273429,0,-14,-3,-10,-36,127,86,-92,-23
1491693273430,1,-29,19,0,-117,-128,127,-2,-102
1491693273430,1,29,-30,20,125,127,-101,-38,-46
1491693273475,2,-1,-3,-62,-90,-100,-96,83,19
1491693273475,2,30,-7,-71,55,112,94,4,22
1491693273476,3,-34,-2,4,-75,-62,-105,-61,4
1491693273476,3,-31,-51,-87,-4,45,13,55,-51
1491693273477,1,-2,-15,-55,-110,123,-33,127,101
1491693273477,1,2,25,21,36,-86,9,-66,-72
1491693273478,2,28,-25,-66,127,127,97,9,59
1491693273478,2,-51,-23,19,-62,-119,-49,112,15
1491693273524,3,21,24,13,-34,-94,68,-5,-30
1491693273524,3,-28,0,46,-50,-14,-74,-128,52
1491693273525,0,-60,-11,-29,-41,8,-87,49,20
1491693273525,0,3,-2,-12,57,105,-57,-122,52
1491693273525,2,-25,32,11,-1,-38,106,68,-78
1491693273525,2,-6,-26,-61,98,127,-106,-40,-3
1491693273526,3,8,0,65,21,-64,101,100,82
1491693273526,3,63,60,-48,-116,-114,-19,-114,-31
1491693273573,0,-89,-25,67,103,127,57,73,-31
1491693273573,0,56,7,-85,-111,-75,112,51,27
1491693273573,1,-14,-21,3,127,-43,-23,-42,21
1491693273573,1,-7,-11,-25,-28,102,-37,-12,26
1491693273574,3,42,38,39,-39,-41,25,-92,-35
1491693273574,3,34,-45,-44,31,75,96,127,-36
1491693273575,0,-12,48,54,1,-105,-3,-127,-71
1491693273575,0,37,-22,-36,74,96,-35,64,47
1491693273622,1,-22,10,-11,17,112,25,-109,-23
1491693273622,1,7,-59,-25,127,95,67,81,46
1491693273622,2,-7,0,77,-82,4,1,-6,31
1491693273622,2,23,14,-14,-125,-128,-45,-9,-47
1491693273623,3,-57,7,-18,38,48,25,6,74
1491693273623,3,3,20,34,11,32,11,27,7
1491693273629,0,-5,-47,-44,54,106,-59,-20,-8
1491693273629,0,-35,11,9,-75,-51,-29,31,26
1491693273670,1,-36,-23,-39,-87,-75,-97,26,-39
1491693273670,1,-18,27,52,45,47,45,-62,-9
1491693273671,2,-4,-7,-67,9,-48,-33,20,-28
1491693273671,2,-13,-7,58,20,57,2,-43,-45
1491693273671,0,-6,-42,-98,-27,2,-4,29,29
1491693273671,0,-30,43,85,-105,-66,83,-16,-15
1491693273673,1,53,-24,-41,6,-45,-39,17,16
1491693273673,1,14,7,35,-128,-18,58,-26,-48
1491693273719,2,5,35,84,127,-48,-102,-30,-13
1491693273719,2,57,-38,-101,-21,-25,-112,-125,19
1491693273720,3,-34,-22,-3,-78,25,31,87,-44
1491693273720,3,16,53,40,44,-19,107,46,45
1491693273722,1,-7,48,125,127,23,-59,-33,-25
1491693273722,1,-2,-25,-128,-81,22,-48,-3,31
1491693273723,2,16,12,8,-128,-58,-59,-79,-27
1491693273723,2,31,51,102,88,78,-109,55,5
1491693273768,3,-4,-45,-96,18,127,-28,98,111
1491693273768,3,11,35,75,-109,-128,85,-1,-64
1491693273769,0,37,-31,-41,41,107,21,-51,61
1491693273769,0,-15,19,38,17,-88,35,5,-25
1491693273770,2,19,11,-55,22,-128,-37,36,-1
1491693273770,2,-31,-17,-29,5,127,55,-128,-15
1491693273773,3,3,31,70,-35,-36,127,98,-44
1491693273773,3,-22,-42,-58,57,-3,-119,-69,14
1491693273817,0,0,-23,-40,-94,83,-42,58,-10
1491693273817,0,-13,6,65,115,11,39,1,27
1491693273865,1,-2,10,-63,-45,-100,-124,3,-56
1491693273865,1,26,27,-18,-128,85,-41,-52,46
1491693273867,3,29,-51,-82,-67,51,65,-36,-36
1491693273867,3,13,60,-6,-32,-128,88,114,14
1491693273868,0,-23,-16,-38,108,119,109,24,-35
1491693273868,0,11,16,-45,60,-80,11,7,6
1491693273869,1,-14,-25,-119,-22,83,85,-16,-19
1491693273869,1,-23,-26,-126,100,71,-96,-92,-24
1491693273914,2,-3,-6,-99,-115,-128,20,-56,13
1491693273914,2,-11,-32,-29,42,75,-1,13,-28
1491693273915,0,14,47,127,-88,-46,104,10,0
1491693273915,0,-9,-28,-11,39,88,-70,-83,-28
1491693273917,1,10,-6,1,127,45,-99,-56,46
1491693273917,1,-23,-31,-42,-62,45,-26,-77,-33
1491693273918,2,-9,-33,-51,-65,57,-22,-77,-30
1491693273918,2,-13,19,-6,-27,67,-3,35,0
1491693273963,3,-3,-34,57,1,118,-6,-7,-17
1491693273963,3,19,88,67,-46,110,83,54,18
1491693273964,0,2,-16,-24,127,127,7,13,-8
1491693273964,0,-2,-37,-58,-86,53,15,-23,1
1491693273965,1,-15,18,-27,-33,55,-36,-21,0
1491693273965,1,-33,-60,-81,15,48,-22,-70,-5
1491693273966,2,59,82,127,57,115,127,102,33
1491693273966,2,16,27,-56,28,-98,22,102,-61
1491693274012,3,-27,-71,-128,-88,-88,-125,-108,40
1491693274012,3,-9,-30,69,-39,27,68,85,-30
1491693274013,0,-26,-41,-64,24,-35,-84,1,22
1491693274013,0,1,-11,91,-52,37,-38,-51,-7
1491693274014,2,-19,-22,12,-73,-100,-98,31,-4
1491693274014,2,37,92,104,-128,44,74,-36,17
1491693274015,3,-34,-103,-115,38,-100,-113,-72,-12
1491693274015,3,2,-5,45,11,-49,-92,-102,-18
1491693274061,0,5,68,-19,-66,-24,71,79,41
1491693274061,0,28,13,36,42,44,62,6,75
1491693274062,1,10,40,-43,70,-61,-31,-19,-9
1491693274062,1,-15,-60,-93,-47,-87,-50,-5,1
1491693274063,3,41,81,41,8,127,77,12,-40
1491693274063,3,47,29,28,116,23,19,46,48
1491693274064,0,-7,16,-30,30,-104,-9,-1,5
1491693274064,0,-7,-4,26,-18,-11,-30,-27,-7
1491693274109,1,-17,-13,39,56,-10,-33,18,-25
1491693274109,1,-14,-21,-34,-50,-95,-2,82,50
1491693274111,2,-13,-51,-23,-17,-21,-97,-121,-31
1491693274111,2,-38,-1,-33,-90,-40,24,68,6
1491693274112,0,14,-9,-48,88,6,37,-44,-13
1491693274112,0,0,-48,-109,-120,-128,-107,-75,22
1491693274120,1,-6,28,51,-47,22,-51,68,-14
1491693274120,1,-11,-8,16,77,25,28,30,22
1491693274207,2,-12,-1,62,84,100,69,-18,-66
1491693274207,2,-11,91,48,-49,-21,-67,-49,-71
1491693274255,3,71,8,-37,-8,25,117,72,81
1491693274255,3,-6,-5,34,81,60,-55,-57,-8
1491693274256,1,-28,19,38,-91,29,105,86,-8
1491693274256,1,16,39,32,-87,53,90,79,17
1491693274256,2,11,-21,-54,-6,-65,-69,-109,18
1491693274256,2,7,-33,-2,-67,30,31,1,-3
1491693274304,3,-23,-6,15,49,-102,-128,-97,-19
1491693274304,3,8,-27,-59,-37,-43,-13,-27,6
1491693274305,0,-4,2,26,-57,-41,35,110,-13
1491693274305,0,29,47,46,52,87,85,-84,13
1491693274305,2,-39,-41,-45,8,-105,-58,8,-26
1491693274305,2,1,-41,-32,65,67,22,39,-1
1491693274306,3,12,-53,-76,104,-77,-76,-111,3
1491693274306,3,-26,-4,-31,-36,-71,-25,91,-19
1491693274401,0,-55,14,34,-84,94,32,26,1
1491693274401,0,-18,-29,-71,-45,-87,-52,-8,8
1491693274402,1,42,23,75,-70,81,74,-14,-20
1491693274402,1,-16,35,-37,-10,-83,-33,72,-9
1491693274403,2,5,9,55,96,61,53,-3,13
1491693274403,2,2,-39,-97,-105,-76,-23,55,18
1491693274404,0,30,27,51,32,62,-24,68,9
1491693274404,0,32,69,70,62,73,48,-85,-28
1491693274450,1,28,49,-30,-39,34,1,83,53
1491693274450,1,-50,-109,-74,3,-62,-76,-33,2
1491693274451,2,30,44,-4,-30,26,19,-93,2
1491693274451,2,-18,-18,-30,-90,-69,38,126,33
1491693274451,1,-14,-20,-107,96,-85,-19,-26,0
1491693274451,1,3,82,93,-25,127,127,1,-29
1491693274452,2,6,20,69,6,68,-7,-35,-18
1491693274452,2,5,53,57,-72,109,59,30,7
1491693274499,3,-40,-46,-75,93,-50,-79,-16,27
1491693274499,3,-5,-7,-29,-96,-25,6,101,-10
1491693274500,0,-9,-17,-41,-39,63,37,-42,-26
1491693274500,0,-1,31,98,-8,66,34,-95,-44
1491693274500,3,12,30,52,6,127,126,-1,18
1491693274500,3,13,96,94,-52,54,23,-77,-23
1491693274501,0,-46,-116,-128,45,-115,-105,-6,-1
1491693274501,0,35,55,99,-4,127,12,-75,13
1491693274548,1,8,-46,-96,32,-80,-14,119,-6
1491693274548,1,-14,35,61,0,106,102,-23,59
1491693274548,2,26,40,9,58,3,-111,86,63
1491693274548,2,-11,-24,9,-32,-3,68,-52,-43
1491693274549,0,27,74,113,78,127,112,85,28
1491693274549,0,-29,-70,-128,127,-128,-119,-49,-10
1491693274550,1,-22,-13,63,-83,47,-26,-10,-40
1491693274550,1,47,19,-33,73,55,42,-7,-17
1491693274596,2,71,7,-2,-34,-43,26,-48,16
1491693274596,2,-62,6,54,74,-23,61,59,28
1491693274597,3,100,108,60,-97,107,73,64,1
1491693274597,3,-40,-99,-128,73,-128,-128,-47,51
1491693274598,1,6,30,93,64,64,74,40,27
1491693274598,1,29,8,14,-34,-46,96,-40,-30
1491693274599,2,-6,13,-91,-96,-84,-97,-64,-36
1491693274599,2,-19,27,77,20,69,127,35,-6
1491693274645,3,-28,-37,-42,-93,-17,126,12,-5
1491693274645,3,-12,-14,-28,88,32,-105,2,-15
1491693274646,0,-62,-12,5,52,-82,-59,-88,28
1491693274646,0,71,-8,-55,-113,17,70,103,-5
1491693274646,2,-10,-39,-112,-94,-94,-6,37,2
1491693274646,2,-43,-1,31,41,66,22,-59,-42
1491693274648,3,7,9,69,-68,63,115,37,4
1491693274648,3,-19,-8,-76,-128,-97,-93,-33,31
1491693274694,0,-63,8,68,127,91,127,-41,-26
1491693274694,0,92,-34,-32,-62,-3,0,75,-7
1491693274695,1,-16,24,59,106,66,51,-9,1
1491693274695,1,-21,-13,-37,-93,-66,-31,-20,-8
1491693274695,2,-23,-16,11,-122,20,-4,33,-1
1491693274695,2,-13,11,54,48,27,53,33,-17
1491693274696,3,18,4,-56,59,-122,-108,45,59
1491693274696,3,-17,1,52,14,3,30,-61,-4
1491693274743,0,53,-16,-111,110,0,-18,14,-58
1491693274743,0,-14,6,35,70,51,-128,66,85
1491693274744,1,-28,9,14,-69,61,125,88,37
1491693274744,1,48,29,35,41,-48,48,-46,3
1491693274744,3,-13,-51,-106,-120,67,47,32,7
1491693274744,3,23,30,68,-128,127,56,19,-57
1491693274745,0,-3,29,124,99,127,-45,-17,1
1491693274745,0,26,-22,-128,-117,57,127,61,4
1491693274791,1,-3,-20,4,21,-59,-112,-128,34
1491693274791,1,-44,-10,-48,-85,-47,-43,8,33
1491693274792,2,33,25,70,-37,-93,106,17,-70
1491693274792,2,42,26,-2,12,-128,4,-68,-44
1491693274793,0,-8,5,-119,-27,-80,-42,-22,-7
1491693274793,0,-22,-60,-74,-73,-112,76,18,-24
1491693274794,1,12,25,-35,57,-84,36,-5,-21
1491693274794,1,-8,15,79,-22,-110,-64,34,21
1491693274840,2,-4,-68,-40,62,-106,-43,-3,18
1491693274840,2,35,39,91,46,-23,67,-50,33
1491693274841,3,-20,10,49,-128,51,64,14,-12
1491693274841,3,-41,-25,53,103,127,-25,-59,-57
1491693274842,1,-96,-64,-57,124,36,14,-84,-56
1491693274842,1,87,29,10,25,59,-43,-44,26
1491693274842,2,-12,25,50,-47,91,74,-110,-3
1491693274842,2,37,26,-7,-56,-76,80,24,46
1491693274889,3,22,31,9,-37,90,27,7,-89
1491693274889,3,-36,-38,-53,16,-53,64,-26,-5
1491693274890,0,28,-15,20,59,72,-120,8,82
1491693274890,0,-86,-11,-30,0,68,-85,-128,-123
1491693274890,2,-25,46,108,-52,-47,59,-106,-123
1491693274890,2,-14,-33,-71,122,-52,20,51,78
1491693274891,3,-34,-8,-29,-127,76,-19,-47,31
1491693274891,3,-8,-15,-15,50,83,127,-60,-128
1491693274938,0,-33,54,76,-24,55,-76,47,-20
1491693274938,0,55,-34,-32,66,53,-3,60,-34
1491693274939,1,-39,-12,-22,-26,-91,-84,-90,-56
1491693274939,1,-38,-6,36,-84,28,14,18,-22
1491693274939,3,17,44,127,127,18,60,-26,25
1491693274939,3,-38,-27,-108,-88,19,-87,16,29
1491693274940,0,36,5,-33,40,-22,-67,36,65
1491693274940,0,-18,-30,29,96,78,46,92,-32
1491693274989,1,11,-27,-37,-89,-17,72,-4,80
1491693274989,1,12,7,38,-103,-69,9,-28,14
1491693274991,2,2,-47,-50,26,19,28,24,2
1491693274991,2,-23,-4,-31,-21,-41,-83,-57,-28
1491693274992,0,-76,-58,-123,-86,8,-32,-18,-24
1491693274992,0,29,-31,-12,-89,-56,-116,32,8
1491693274993,1,21,39,83,-128,-128,41,-101,40
1491693274993,1,-21,-6,-7,-63,72,-29,-79,-57
1491693275035,2,77,-15,-24,-22,-60,62,99,83
1491693275035,2,-75,-5,35,127,127,88,-66,-63
1491693275037,3,44,9,29,-128,-57,81,97,55
1491693275037,3,-14,-39,-37,127,51,11,-75,-33
1491693275040,0,19,71,74,-68,-115,110,-60,-4
1491693275040,0,-63,-90,-116,29,127,-119,-66,13
1491693275041,1,-10,-29,-6,-27,120,-43,84,30
1491693275041,1,65,46,71,1,-51,-47,-35,15
1491693275092,2,-36,11,13,-128,-66,-3,89,-37
1491693275092,2,81,32,42,61,-51,127,25,-22
1491693275094,3,-88,43,30,127,49,-46,9,27
1491693275094,3,-48,-42,-78,-101,-65,-95,-19,2
1491693275095,1,23,38,31,-45,-84,3,58,-55
1491693275095,1,16,-9,-82,96,42,-44,-31,10
1491693275096,2,-21,-35,-86,-68,9,-44,-44,2
1491693275096,2,8,5,80,-78,90,39,66,45
1491693275133,3,77,12,-3,41,1,-10,-48,-52
1491693275133,3,-40,19,34,-69,-69,66,-14,11
1491693275134,0,-23,-7,18,92,89,-19,-44,-61
1491693275134,0,56,19,-32,-80,-123,68,-17,44
1491693275134,2,-122,-61,-128,127,127,-124,-128,-64
1491693275134,2,82,-4,-61,-128,-27,-118,-81,108
1491693275135,3,45,-10,27,97,52,40,74,30
1491693275135,3,-10,-6,42,-57,-42,53,85,-36
1491693275181,0,-8,55,107,96,-61,102,-49,-55
1491693275181,0,-47,20,-33,96,98,115,-36,-15
1491693275182,1,0,8,-45,21,-60,-23,-65,-23
1491693275182,1,11,7,-6,35,29,39,94,70
1491693275183,3,-116,-17,-37,-24,-61,-26,-128,-24
1491693275183,3,80,-12,12,21,17,13,-28,-21
1491693275184,0,-5,-44,-33,-90,74,89,127,41
1491693275184,0,-36,12,80,-96,-82,-36,-42,-92
1491693275376,1,74,32,81,29,-18,84,36,-20
1491693275376,1,-34,-5,-35,127,85,-48,49,58
1491693275378,2,-11,-37,-53,-55,124,-62,-128,-14
1491693275378,2,-80,-27,-11,-24,-83,-25,9,2
1491693275381,0,1,-12,51,-50,-98,-97,-87,-67
1491693275381,0,25,8,-33,57,9,-30,67,30
1491693275385,1,-27,-16,32,-40,-37,2,-85,-56
1491693275385,1,-76,-29,-31,75,5,-88,-82,-16
1491693275474,2,30,11,-21,-92,-78,2,110,-5
1491693275474,2,-10,13,-21,-99,94,-58,-98,29
1491693275475,3,-23,-25,-27,9,-56,42,54,-56
1491693275475,3,4,-18,27,87,127,34,-19,-24
1491693275476,1,58,5,-15,21,-39,-39,-13,78
1491693275476,1,-52,-14,-60,-11,-117,8,7,-37
1491693275523,3,-16,-33,-29,57,-100,124,-65,-50
1491693275523,3,-4,-6,2,-57,127,-44,-83,-23
1491693275525,0,-16,-33,-65,-125,-17,-18,6,-2
1491693275525,0,-2,-32,19,-13,-89,23,-91,11
1491693275526,1,2,74,84,41,101,-30,-9,84
1491693275526,1,18,41,44,-25,-7,120,119,39
1491693275527,0,56,87,127,-96,-96,91,40,73
1491693275527,0,-89,-21,-101,93,-13,-58,-111,-60
1491693275572,1,-9,44,54,56,127,56,-59,49
1491693275572,1,50,11,-103,-103,-128,79,43,2
1491693275573,2,-39,-19,10,74,86,47,-30,-6
1491693275573,2,27,13,32,-76,113,-28,8,25
1491693275574,3,-5,4,31,89,32,51,19,-46
1491693275574,3,-7,74,111,127,-42,51,-27,-74
1491693275575,2,82,47,65,-123,-128,34,56,-60
1491693275575,2,-5,9,-14,127,45,-84,68,16
1491693275620,3,-55,-33,-7,-128,82,-82,-54,36
1491693275620,3,30,-2,4,-65,-8,-128,-27,-37
1491693275621,0,-63,-8,52,86,95,-47,-45,-16
1491693275621,0,98,87,102,-42,-128,72,-21,-4
1491693275622,3,-24,-49,-56,32,-18,100,127,43
1491693275622,3,33,-12,-105,-55,78,-66,-128,-22
1491693275623,0,-51,-9,18,109,121,88,120,-6
1491693275623,0,64,-12,12,-67,-33,-32,-9,-2
1491693275669,1,-4,63,122,10,-46,29,-38,-40
1491693275669,1,-17,-41,-45,80,-79,-10,-3,-49
1491693275718,2,-57,-5,-10,-47,64,-95,-128,-69
1491693275718,2,-19,17,-41,-96,-128,116,43,-2
1491693275719,0,11,8,-93,104,-94,-98,31,26
1491693275719,0,-81,-79,-69,127,-34,58,-108,-126
1491693275720,1,75,4,-9,-106,23,115,63,87
1491693275720,1,-107,-14,16,-58,64,18,16,-52
1491693275721,2,35,-20,-43,61,18,11,-15,11
1491693275721,2,-25,-1,-5,-104,-15,-13,-2,73
1491693275768,3,-63,-8,-4,70,18,14,-103,-27
1491693275768,3,55,-12,-76,-86,-127,14,59,71
1491693275769,1,6,15,-15,-128,-128,83,85,-21
1491693275769,1,-58,9,110,-86,50,-96,-125,-39
1491693275770,2,37,-45,-35,-18,27,-93,-37,-24
1491693275770,2,37,31,51,-15,64,123,127,-68
1491693275771,1,76,-8,-58,104,-39,2,-17,48
1491693275771,1,-15,15,21,32,8,54,97,9
1491693275815,2,-35,48,90,-63,-71,70,54,98
1491693275815,2,-32,-35,-81,-42,5,9,12,-50
1491693275816,3,13,1,15,20,66,-91,-25,-22
1491693275816,3,5,-35,-42,76,-16,39,-20,29
1491693275817,2,-53,-43,-120,-118,24,-44,-49,-44
1491693275817,2,-5,2,55,99,58,-96,-82,46
1491693275817,3,16,64,127,-24,-70,91,54,-29
1491693275817,3,32,-30,-78,-67,59,-127,4,-13
1491693275864,0,-6,9,105,106,35,77,41,-17
1491693275864,0,-9,-11,-49,85,-23,-29,-55,-1
1491693275865,1,-34,7,60,-98,-23,25,-14,-1
1491693275865,1,-28,0,-100,50,45,-32,-30,-23
1491693275865,3,-5,-26,-56,81,-77,-39,74,41
1491693275865,3,41,3,48,-94,-83,64,-22,-50
1491693275866,0,14,25,-10,-32,-16,127,-39,-25
1491693275866,0,-57,-13,-47,-73,-24,-96,-59,-6
1491693275913,1,70,6,-57,29,95,14,33,40
1491693275913,1,-6,-9,21,-25,-44,79,53,18
1491693275914,2,-1,-19,-89,85,-100,-33,37,-1
1491693275914,2,-10,11,40,-49,2,34,26,-18
1491693275914,0,16,-3,55,-87,-67,46,25,-17
1491693275914,0,47,-7,4,-48,-82,32,31,52
1491693275915,1,-90,-8,-19,-12,19,-101,-39,-67
1491693275915,1,77,67,78,-5,-30,-7,-79,42
1491693275961,2,-21,-4,-50,127,67,7,25,15
1491693275961,2,21,-18,-82,-42,45,2,37,38
1491693275962,3,-31,-16,2,-5,13,50,43,58
1491693275962,3,40,16,-17,-57,-75,-65,-24,13
1491693275963,1,-39,-77,-114,11,61,-36,-40,-8
1491693275963,1,-22,54,-7,-27,127,0,-52,-4
1491693275964,2,2,-57,-54,31,103,41,64,13
1491693275964,2,8,-15,36,-35,46,-28,-85,7
1491693276011,3,2,29,122,-38,-79,43,44,-66
1491693276011,3,-8,20,59,-72,-125,-15,-26,-49
1491693276012,0,-14,-9,127,5,-108,-73,-74,-40
1491693276012,0,-5,41,100,-85,-117,41,33,-15
1491693276013,2,-5,3,36,26,73,14,-18,6
1491693276013,2,-19,1,-45,37,106,-2,27,-1
1491693276013,3,16,-27,-30,-65,102,-50,-89,-4
1491693276013,3,-46,34,-61,116,127,78,66,-24
1491693276059,0,9,-20,-69,-68,126,30,43,49
1491693276059,0,7,-2,22,103,127,-48,-47,37
1491693276060,1,-11,52,-105,38,21,46,11,-25
1491693276060,1,-28,-41,-117,-42,-39,47,34,20
1491693276061,3,-7,-5,18,-128,-49,-82,-13,16
1491693276061,3,2,28,48,24,6,28,-35,-3
1491693276070,0,0,36,91,-78,25,-10,14,27
1491693276070,0,1,-56,-128,78,-114,-24,-84,-76
1491693276108,1,9,6,87,126,82,121,111,63
1491693276108,1,63,-17,7,-29,-39,26,13,29
1491693276109,2,-1,-4,11,-79,-11,-67,-43,11
1491693276109,2,-25,26,-8,4,30,31,11,-9
1491693276110,3,-10,4,-12,-2,-28,-49,-95,-112
1491693276110,3,1,31,47,104,45,93,77,77
1491693276111,0,-19,-16,-92,74,-86,-62,-62,-36
1491693276111,0,-11,-67,-28,-93,-106,-93,-76,20
1491693276156,1,56,1,-8,-89,-37,26,-27,7
1491693276156,1,-35,-71,-117,-39,11,-52,-74,0
1491693276157,2,18,85,115,25,86,80,51,-44
1491693276157,2,44,45,48,19,-3,12,75,58
1491693276158,0,0,41,26,10,23,57,33,31
1491693276158,0,-12,-7,33,-5,33,-64,-21,-22
1491693276159,1,31,27,3,92,-4,88,8,10
1491693276159,1,-46,-48,-26,76,-114,-128,-96,-16
1491693276205,2,-26,29,3,7,29,101,80,-38
1491693276205,2,23,24,47,6,125,91,60,81
1491693276206,3,50,23,-72,-10,-81,-95,0,8
1491693276206,3,-23,4,78,37,74,50,-46,-25
1491693276207,1,13,-36,73,-24,67,15,-29,14
1491693276207,1,-17,34,-71,37,-9,10,48,-54
1491693276208,2,49,41,113,-82,-33,-98,-87,45
1491693276208,2,35,-15,23,37,29,88,40,3
1491693276254,3,-52,2,-33,50,-30,-16,-55,-77
1491693276254,3,-28,-13,-32,-79,73,22,41,6
1491693276255,0,-19,16,29,98,-87,-59,-56,-74
1491693276255,0,18,-103,-71,42,-65,-40,17,15
1491693276256,2,4,-16,-27,87,93,26,-23,44
1491693276256,2,-7,8,40,45,-58,-37,-19,-52
1491693276256,3,-17,-43,-74,-47,-10,21,2,41
1491693276256,3,-8,-122,96,-64,-111,-109,-108,-16
1491693276303,0,72,28,0,-52,87,109,97,68
1491693276303,0,-24,-18,70,115,90,-64,-122,-22
1491693276303,1,-18,56,121,46,127,118,100,43
1491693276303,1,6,-37,-96,127,-111,-11,-55,8
1491693276304,3,-41,40,23,-122,-45,-128,-128,-28
1491693276304,3,18,-6,0,-50,73,37,89,-16
1491693276305,0,12,-18,21,14,29,16,17,32
1491693276305,0,-33,16,-70,7,45,2,49,-56
1491693276351,1,69,-69,25,2,-21,-14,-26,24
1491693276351,1,-50,10,19,-13,7,10,-60,-27
1491693276400,2,-22,26,-114,-86,-23,-41,3,-64
1491693276400,2,36,33,18,-52,29,23,69,30
1491693276401,0,-46,-85,7,7,-48,-39,-60,-41
1491693276401,0,-60,45,-43,-55,-29,7,-22,-15
1491693276402,1,-3,7,33,-57,64,47,-36,-61
1491693276402,1,36,-28,-37,11,-60,-16,61,15
1491693276403,2,-7,39,31,4,-73,-69,-20,20
1491693276403,2,-45,-39,55,2,30,58,-7,-6
1491693276449,3,-8,47,-81,-54,-128,-32,-96,33
1491693276449,3,-16,37,6,-9,52,-45,10,10
1491693276450,1,-27,31,1,12,120,100,54,-53
1491693276450,1,49,58,26,5,-95,-109,-1,28
1491693276452,2,10,-22,-35,-83,62,56,50,-32
1491693276452,2,-22,-15,9,-5,18,-103,-23,34
1491693276453,1,21,-24,87,111,71,-4,-28,33
1491693276453,1,13,-22,-52,78,62,6,53,40
1491693276498,2,-9,-38,15,11,-23,71,-43,-35
1491693276498,2,43,27,-36,3,-95,-15,-44,13
1491693276499,3,-39,-21,21,106,44,-8,-34,-28
1491693276499,3,26,1,-53,-68,-16,90,23,25
1491693276501,2,7,12,-62,-128,17,-56,3,-39
1491693276501,2,3,-41,-94,9,56,-10,16,-16
1491693276502,3,-5,58,57,-73,127,45,-12,18
1491693276502,3,10,16,-74,-27,37,49,-128,-92
1491693276546,0,-36,-98,-89,52,-115,-90,108,65
1491693276546,0,25,34,127,9,127,87,-46,-41
1491693276548,1,23,-43,-128,12,-128,6,-42,9
1491693276548,1,-38,-19,15,-82,-3,73,36,-25
1491693276549,3,-39,27,-59,-23,103,-3,18,4
1491693276549,3,0,13,98,92,-109,-128,-9,-44
1491693276550,0,64,-22,-27,-8,51,51,-9,44
1491693276550,0,3,73,121,30,106,11,30,11
1491693276595,1,-14,-67,-108,51,-128,-56,1,15
1491693276595,1,-91,-36,-30,-27,127,-7,11,-2
1491693276596,2,65,12,-41,-19,-45,-80,-10,46
1491693276596,2,17,-29,-15,-44,57,110,-15,-33
1491693276597,0,-47,13,94,-39,48,8,-85,-1
1491693276597,0,-4,12,-53,37,-97,124,24,-42
1491693276598,1,-2,-43,-36,92,29,-121,38,22
1491693276598,1,83,44,100,42,-35,-24,13,101
1491693276644,2,-23,-21,-72,-57,3,-1,2,-29
1491693276644,2,-42,10,83,-21,37,-113,-62,-30
1491693276645,3,-4,8,49,-103,107,78,70,-4
1491693276645,3,41,-15,-66,127,-80,-13,-34,-27
1491693276646,1,54,-5,-34,61,-102,97,27,1
1491693276646,1,-38,-54,-80,-112,-82,-91,-81,26
1491693276647,2,-19,-36,-4,34,-10,37,19,-23
1491693276647,2,25,-10,19,9,28,84,21,68
1491693276693,3,-30,13,57,-7,89,-13,-29,-23
1491693276693,3,36,60,94,-40,127,-36,-21,4
1491693276709,0,16,-33,-86,117,-106,34,38,37
1491693276709,0,-28,-16,-52,-39,24,-31,-57,-57
1491693276741,2,-18,34,87,10,65,-63,-15,-45
1491693276741,2,12,-47,-122,-128,-126,-120,36,33
1491693276742,3,-44,-9,75,99,47,-22,-33,13
1491693276742,3,16,41,92,27,101,72,-9,-102
1491693276742,0,62,12,-80,115,-8,-20,14,33
1491693276742,0,30,39,63,-46,-18,76,0,26
1491693276744,1,-66,-46,-128,-16,-113,-33,75,-29
1491693276744,1,-24,-10,-5,56,-87,-3,-45,-53
1491693276790,3,14,5,-12,-128,-106,-39,22,54
1491693276790,3,-1,26,40,-121,70,88,23,20
1491693276791,0,-84,-36,-18,50,-46,-55,-59,-53
1491693276791,0,-5,14,53,41,115,3,16,52
1491693276791,1,-11,12,73,-9,-1,-34,-91,-112
1491693276791,1,34,-14,-35,-83,-128,31,41,53
1491693276792,3,85,11,-25,116,111,67,69,-22
1491693276792,3,-37,57,127,16,127,97,-116,15
1491693276839,0,2,-11,-67,-40,65,-46,61,-21
1491693276839,0,-7,-52,-83,111,-59,4,20,-23
1491693276839,1,88,-6,-102,-128,-78,45,-43,74
1491693276839,1,-6,3,-116,127,-110,64,13,-44
1491693276840,0,-19,-6,52,95,-41,-88,-49,-7
1491693276840,0,11,8,115,-70,-56,120,122,77
1491693276841,1,-30,-27,-61,-80,-126,-42,-43,-28
1491693276841,1,-1,17,117,100,-85,-61,-69,20
1491693276887,2,33,70,109,7,85,125,115,-11
1491693276887,2,3,-42,-46,-82,-75,-95,-35,-32
1491693276888,3,-20,-55,-29,25,69,-96,6,-12
1491693276888,3,-24,0,71,-35,62,-47,1,18
1491693276889,1,42,47,99,-32,109,99,62,85
1491693276889,1,-71,-62,-73,46,127,-43,12,31
1491693276890,2,-11,43,15,-92,-54,113,-38,-58
1491693276890,2,9,-39,-78,74,101,-39,12,25
1491693276936,3,-49,6,-26,-23,10,38,-113,-5
1491693276936,3,8,-13,-35,15,28,-12,34,-12
1491693276937,0,7,24,-67,16,14,92,41,3
1491693276937,0,-7,0,-33,-59,-120,12,-106,-14
1491693276938,2,-59,-27,8,-25,72,62,6,-5
1491693276938,2,15,5,-95,-86,-45,-16,12,-50
1491693276939,3,44,44,60,127,-41,-57,7,-12
1491693276939,3,-14,-2,-34,-57,-99,31,8,-7
1491693276985,0,-23,-40,-62,49,114,-128,-128,-78
1491693276985,0,-46,-2,36,74,55,72,33,-2
1491693276986,1,30,87,89,-28,-108,39,121,10
1491693276986,1,33,-83,-111,-26,82,-36,56,10
1491693276987,3,-21,-14,-39,67,127,-73,-60,10
1491693276987,3,-7,11,15,-68,-43,-77,15,-62
1491693276988,0,-3,-13,23,-25,16,66,13,26
1491693276988,0,31,10,-14,-122,-82,94,95,44
1491693277037,1,-36,-8,-16,90,85,-22,-40,-11
1491693277037,1,-4,40,113,7,-72,-13,-74,-31
1491693277038,2,24,-2,-69,25,45,-17,-19,15
1491693277038,2,-20,-26,11,-23,-23,117,97,-53
1491693277040,0,12,18,8,-128,-52,38,43,6
1491693277040,0,-43,-29,-31,52,79,-111,-69,-8
1491693277043,1,14,-17,-15,118,39,48,19,33
1491693277043,1,-68,-18,-48,-94,-48,16,-50,19
1491693277083,2,28,-8,14,-14,-109,-39,80,-22
1491693277083,2,3,6,30,-21,11,-58,-24,-96
1491693277084,3,-10,-4,-2,-51,-102,-25,-27,13
1491693277084,3,15,20,65,-8,66,66,68,42
1491693277084,1,-10,-20,-98,40,100,54,34,-15
1491693277084,1,-59,-105,-61,127,38,-27,-105,-56
1491693277085,2,11,45,35,-22,-78,87,23,44
1491693277085,2,-31,26,42,103,86,74,32,-21
1491693277131,3,58,30,36,-16,-128,-3,-33,-20
1491693277131,3,76,16,52,51,66,60,100,39
1491693277132,0,-61,-57,-128,47,-10,25,-95,-60
1491693277132,0,29,15,6,-69,-37,48,-80,56
1491693277133,2,-32,-39,-84,99,127,-97,-35,-20
1491693277133,2,5,-18,-73,-81,-94,-79,-62,22
1491693277134,3,-23,9,57,-102,-1,90,48,-8
1491693277134,3,38,24,23,-86,-29,-89,15,57
1491693277180,0,-19,0,45,16,107,-72,-113,-37
1491693277180,0,-20,-29,-90,21,-62,41,50,-26
1491693277181,1,-25,-64,-76,-99,-98,18,-37,-38
1491693277181,1,-18,49,24,-73,-127,41,11,-46
1491693277182,2,26,-10,26,79,64,-46,-35,84
1491693277182,2,-3,28,19,-40,-56,69,62,-81
1491693277183,3,-24,-55,-85,89,95,22,77,62
1491693277183,3,9,43,67,20,-17,68,-2,10
1491693277229,0,43,-26,-29,-7,-128,15,37,1
1491693277229,0,-47,-1,11,-45,13,28,-86,-30
1491693277231,1,96,55,41,-25,89,99,-27,-1
1491693277231,1,-87,-28,-44,-104,-12,-31,67,9
1491693277232,3,-14,36,71,38,-70,-43,-44,-42
1491693277232,3,35,-24,-52,127,127,8,66,-11
1491693277233,0,-28,7,11,-20,33,61,35,38
1491693277233,0,11,16,41,104,-48,18,8,-2
1491693277278,1,-22,-18,-46,-91,-66,-78,-24,-58
1491693277278,1,-11,-3,11,94,27,-94,-103,20
1491693277279,2,-32,-10,12,-128,34,82,29,-48
1491693277279,2,2,-10,-70,-53,-35,48,50,-25
1491693277280,0,-26,-5,87,42,-15,-51,-3,-23
1491693277280,0,-21,-1,-49,-40,46,-109,17,13
1491693277281,1,-20,-8,49,115,12,-61,-103,-61
1491693277281,1,21,-59,-128,-87,32,76,102,20
1491693277327,2,10,64,38,-29,34,-88,-68,-26
1491693277327,2,-3,-40,25,78,-15,127,91,72
1491693277329,3,-24,15,40,49,54,51,-29,0
1491693277329,3,-45,-49,-79,-43,-15,-84,-78,51
1491693277330,1,-52,-18,-46,126,126,-40,-26,-26
1491693277330,1,-8,10,58,-58,2,-35,79,40
1491693277331,2,-4,11,-9,-128,-6,127,25,-49
1491693277331,2,55,-4,-45,39,-27,-50,-101,54
1491693277375,3,21,4,59,53,-35,66,-12,4
1491693277375,3,-54,-7,28,-30,7,0,-128,-128
1491693277376,0,-36,-17,-29,126,63,-128,-128,-17
1491693277376,0,68,20,19,-74,8,87,127,87
1491693277376,2,10,-26,-58,58,32,115,100,33
1491693277376,2,-29,-1,79,-35,11,-21,-101,-23
1491693277377,3,-30,4,19,-20,59,-39,34,26
1491693277377,3,-2,11,-69,-33,-41,-83,1,-19
1491693277424,0,1,-36,-107,-120,-78,-84,-63,-63
1491693277424,0,-22,15,66,99,99,54,12,100
1491693277425,1,14,-8,38,41,-111,-33,74,-89
1491693277425,1,-33,-72,-92,105,127,-42,-110,-26
1491693277426,3,-16,42,30,-128,-68,52,-7,-4
1491693277426,3,30,-8,37,20,107,28,-11,90
1491693277427,0,11,36,95,-35,-83,78,75,37
1491693277427,0,4,-27,31,71,-83,-61,-83,11
1491693277472,1,-26,-99,-93,-28,113,-44,-10,-13
1491693277472,1,-31,60,90,45,-128,118,-38,-16
1491693277473,2,-55,-28,-15,4,66,51,36,88
1491693277473,2,41,40,-79,-85,32,-60,12,-103
1491693277474,0,-29,87,127,-101,-75,-33,-84,-71
1491693277474,0,21,-1,11,84,83,-79,-75,95
1491693277475,1,28,-8,-94,-63,-112,74,49,6
1491693277475,1,-20,28,106,25,47,71,-73,-53
1491693277521,2,33,-30,-85,-83,124,-103,-77,90
1491693277521,2,-52,22,50,112,53,79,110,25
1491693277523,3,-8,48,-5,-128,-80,-46,-26,-50
1491693277523,3,26,-43,-69,-4,-93,55,127,-5
1491693277524,0,19,-49,-128,96,-59,77,-22,-110
1491693277524,0,-11,-13,-19,-56,24,72,-81,58
1491693277525,1,5,-4,9,-3,-40,67,-98,-45
1491693277525,1,-60,0,115,61,124,-13,70,44
1491693277570,2,44,-23,-6,-18,56,13,-107,-10
1491693277570,2,-19,29,-88,-128,-128,78,127,-64
1491693277571,3,72,-4,94,92,109,-34,52,79
1491693277571,3,-17,18,52,-128,-63,35,13,-33
1491693277572,1,16,30,-75,51,-18,-32,-25,-17
1491693277572,1,-38,-23,-109,63,127,-128,-80,4
1491693277620,2,63,79,127,-95,-59,38,0,23
1491693277620,2,-38,-58,-128,127,96,1,10,-27
1491693277620,3,42,96,126,-89,-117,107,-39,63
1491693277620,3,-10,-38,-128,12,106,10,-31,-32
1491693277621,0,-27,-60,-57,8,99,65,123,-4
1491693277621,0,42,35,113,-77,-23,43,8,50
1491693277621,2,-50,20,67,79,-92,39,-103,34
1491693277621,2,5,-65,-89,103,113,-128,-128,-128
1491693277668,3,-28,-20,11,-56,-22,119,106,81
1491693277668,3,-24,17,10,23,-128,44,-53,-2
1491693277668,0,52,37,18,80,35,118,68,-84
1491693277668,0,-47,-78,-105,20,101,-117,-101,29
1491693277670,1,-25,71,110,-36,-18,-28,13,-41
1491693277670,1,-4,-40,-11,1,-30,100,16,14
1491693277670,3,-33,4,33,58,-2,-15,-93,-28
1491693277670,3,-11,4,-41,36,60,-38,28,-32
1491693277716,0,33,-20,1,-43,15,-36,-77,-93
1491693277716,0,14,74,82,-128,-128,-57,32,-44
1491693277718,1,1,-46,85,22,-42,-73,39,3
1491693277718,1,40,23,-69,55,91,109,97,39
1491693277719,0,-22,-38,-80,-71,-48,-128,9,19
1491693277719,0,-78,24,87,-71,-116,73,-92,20
1491693277720,1,14,-18,-107,123,127,29,8,-52
1491693277720,1,63,23,55,38,26,78,62,39
1491693277765,2,-6,36,33,127,97,-68,78,24
1491693277765,2,12,-11,44,36,-37,24,11,-69
1491693277767,3,27,7,-116,-120,-86,55,-128,80
1491693277767,3,-77,-104,-16,67,114,-41,31,-59
1491693277768,1,-12,-62,-126,80,100,-128,-92,35
1491693277768,1,-63,-43,-1,-78,-128,11,32,-29
1491693277769,2,-14,-22,0,-59,-60,90,-18,10
1491693277769,2,-2,-33,-12,82,105,-53,23,-45
1491693277814,3,7,-9,-8,-72,52,-73,49,53
1491693277814,3,7,75,100,31,16,-46,-128,-34
1491693277815,0,-31,-26,42,127,127,41,101,-35
1491693277815,0,66,-5,-9,-128,-114,41,-45,64
1491693277816,2,22,4,-90,100,77,-58,-48,58
1491693277816,2,-59,-45,-93,-76,-4,-58,28,-13
1491693277817,3,23,41,82,-77,-51,34,19,-11
1491693277817,3,-28,-83,-121,20,75,-107,21,-6
1491693277863,0,13,68,127,-42,-92,61,-40,26
1491693277863,0,-31,1,-42,9,16,-29,11,-27
1491693277864,1,14,-22,17,66,-90,30,-5,8
1491693277864,1,45,37,13,-128,41,86,69,-66
1491693277865,2,-62,-35,-6,116,-19,29,-50,-17
1491693277865,2,-5,-67,-55,121,63,-42,-5,-48
1491693277866,3,42,26,25,-112,-96,111,95,40
1491693277866,3,-45,12,-64,53,45,-128,-74,-18
1491693277911,0,55,26,85,-4,58,119,92,12
1491693277911,0,-48,-3,19,65,73,67,-89,4
1491693277913,1,18,-5,-5,71,-4,-76,-10,-6
1491693277913,1,26,28,36,-55,9,93,48,1
1491693277914,3,-41,4,-54,127,67,-64,51,-95
1491693277914,3,70,47,113,6,-106,47,-56,48
1491693277915,0,13,-30,-95,-104,77,-123,42,81
1491693277915,0,-32,-70,-117,83,28,-84,29,-53
1491693277963,1,-61,30,41,-67,-42,19,-128,-37
1491693277963,1,41,-26,-27,-106,-109,28,74,-8
1491693277964,2,-14,30,40,-2,-76,127,-42,-23
1491693277964,2,35,62,29,-128,-128,120,96,27
1491693277965,0,52,4,-7,-85,-84,82,94,-5
1491693277965,0,-16,-18,-120,66,106,-87,-70,-2
1491693277965,1,7,13,-52,28,-35,49,-22,-40
1491693277965,1,-22,0,-88,1,-21,-63,43,30
1491693278011,2,19,-20,-13,13,-10,-51,-41,4
1491693278011,2,15,-6,0,-76,46,16,21,7
1491693278011,3,37,72,107,-128,123,53,53,84
1491693278011,3,-3,-50,107,115,87,-128,-99,-63
1491693278012,1,-27,25,-18,87,-128,-53,-59,-32
1491693278012,1,-38,-58,34,-55,-117,5,66,52
1491693278012,2,2,13,15,15,-35,44,-7,-18
1491693278012,2,-16,-16,78,-54,74,71,-19,-52
1491693278058,3,16,16,99,-81,104,51,-76,-9
1491693278058,3,-33,16,-17,39,127,-80,49,25
1491693278058,0,25,-60,-46,22,127,0,-5,-77
1491693278058,0,-17,40,-76,-22,110,-85,29,33
1491693278059,2,-22,-41,-63,6,24,-22,8,-33
1491693278059,2,27,35,-53,13,-42,-25,-86,7
1491693278061,3,-17,12,-27,-79,-71,61,88,-19
1491693278061,3,30,-36,48,89,16,30,26,-34
1491693278106,0,-38,-10,-30,5,-64,-91,-30,72
1491693278106,0,-9,-45,-94,-31,-55,-9,-44,2
1491693278107,1,-6,-56,9,110,-24,-6,34,8
1491693278107,1,19,9,89,-39,55,25,-93,-35
1491693278108,3,11,20,-19,-23,-2,-4,49,39
1491693278108,3,10,35,32,-65,29,71,-11,-15
1491693278109,0,6,35,69,-51,59,38,-44,56
1491693278109,0,49,29,-28,-128,4,59,12,-42
1491693278155,1,-55,-89,-71,118,-99,-101,-63,2
1491693278155,1,-6,70,-36,-99,8,40,-16,3
1491693278156,2,11,19,35,-69,54,4,-42,9
1491693278156,2,4,35,114,-31,74,47,70,14
1491693278157,0,-27,1,-46,-82,-20,6,-19,-17
1491693278157,0,12,8,-1,40,25,46,-52,-2
1491693278158,1,-10,-22,4,-4,19,-13,58,-19
1491693278158,1,-3,42,-36,-31,-36,-39,-76,16
1491693278204,2,-6,-33,-64,-31,-26,-16,-48,-35
1491693278204,2,27,-61,-16,5,-18,11,23,-1
1491693278205,3,9,60,55,-4,33,24,43,-2
1491693278205,3,18,20,-22,15,-22,10,-4,3
1491693278206,0,-34,-49,-67,35,-73,-68,-17,-31
1491693278206,0,-4,-21,-11,-4,-24,-118,-48,14
1491693278207,1,13,-5,-35,17,7,2,-7,19
1491693278207,1,-25,-41,121,-27,71,7,-10,1
1491693278302,2,-1,64,21,-38,33,-24,12,3
1491693278302,2,41,-27,13,4,33,100,73,50
1491693278303,3,12,5,-39,-5,-28,-78,-8,-10
1491693278303,3,3,-15,-50,-8,-18,68,38,13
1491693278304,1,-21,48,113,-27,-27,33,-51,20
1491693278304,1,-3,9,-35,45,-55,-22,4,15
1491693278350,2,34,-56,-15,32,-57,-24,79,77
1491693278350,2,-24,28,20,36,91,17,7,-18
1491693278352,3,12,-50,-45,-19,-87,14,11,20
1491693278352,3,-20,-9,-23,49,50,-29,-91,-88
1491693278353,0,28,-3,29,-1,61,18,47,22
1491693278353,0,-48,15,20,-4,-30,-59,-48,-1
1491693278354,3,-3,-12,-47,29,-7,45,-4,-54
1491693278354,3,17,-26,-18,-82,32,0,25,-15
1491693278399,0,-3,48,37,56,-76,-21,-19,-3
1491693278399,0,0,27,-11,-9,12,45,-12,26
1491693278401,1,8,-56,-13,78,46,25,9,9
1491693278401,1,-58,-60,-31,69,-8,18,-13,-49
1491693278402,2,5,67,78,-30,75,12,1,-1
1491693278402,2,1,-19,-51,33,-42,-34,-3,1
1491693278404,0,-31,-56,-39,56,-13,-41,-2,-11
1491693278404,0,-5,-3,18,-50,0,25,-16,-68
1491693278447,1,7,-59,-3,-13,52,44,26,23
1491693278447,1,-33,54,43,40,-66,-59,-15,-14
1491693278448,2,6,13,-2,5,122,15,-12,30
1491693278448,2,-17,-55,-56,-14,-128,-95,-36,-4
1491693278449,1,1,-12,-66,50,60,-5,-22,25
1491693278449,1,5,-53,-43,-39,-40,-16,-9,15
1491693278450,2,-24,33,-7,7,-11,18,10,-28
1491693278450,2,21,43,103,56,66,59,-4,-3
1491693278545,3,9,-22,-90,-97,58,6,17,-43
1491693278545,3,-5,14,79,1,-35,-29,12,-4
1491693278546,0,26,-48,-101,67,7,-10,12,-11
1491693278546,0,-22,-32,-11,-59,-61,-56,-53,22
1491693278547,2,59,29,101,10,82,83,69,7
1491693278547,2,-12,-29,10,89,-54,-19,-17,19
1491693278548,3,-47,-2,-106,22,-23,-15,-63,-3
1491693278548,3,31,24,64,38,112,93,46,19
1491693278594,0,-23,-18,-95,-104,-128,-44,50,38
1491693278594,0,9,32,24,-128,127,84,29,-9
1491693278594,1,-16,4,-31,-29,-128,-42,5,-19
1491693278594,1,-12,-15,6,123,6,-53,-70,3
1491693278595,3,-67,-87,-90,32,-122,-116,-83,-12
1491693278595,3,13,53,88,80,119,30,-43,7
1491693278596,3,19,1,-37,-41,-17,125,97,68
1491693278596,3,-19,69,-44,-69,-71,-79,29,-26
1491693278642,0,28,124,116,-43,97,85,-10,12
1491693278642,0,-25,17,-91,2,-70,-75,-31,-1
1491693278643,1,23,70,77,-8,26,-6,21,-30
1491693278643,1,-33,20,-59,38,-123,17,-22,5
1491693278644,0,-41,-45,-52,122,-56,-124,11,-52
1491693278644,0,-21,-35,-8,-18,-29,54,27,24
1491693278645,1,-16,-50,-77,46,-128,-82,-26,-17
1491693278645,1,72,18,92,-26,127,127,-52,-21
1491693278691,2,-7,14,26,-75,16,36,26,23
1491693278691,2,-8,-24,22,30,115,-50,-29,34
1491693278692,3,38,18,69,127,44,97,11,75
1491693278692,3,-16,-45,-78,-86,-85,-126,-86,-22
1491693278692,1,-6,-17,-106,-24,-93,-61,-41,16
1491693278692,1,16,-33,40,79,0,10,-17,-28
1491693278694,2,3,45,112,-128,83,93,13,11
1491693278694,2,-37,-28,-25,80,-128,-128,-91,-82
1491693278740,3,22,5,49,69,114,116,93,59
1491693278740,3,-16,-20,-99,-19,70,90,19,-38
1491693278741,0,10,-28,-43,126,-52,-81,-80,22
1491693278741,0,17,25,25,-32,69,-21,-23,-20
1491693278742,2,-25,-27,60,-87,27,87,-25,66
1491693278742,2,-22,-39,-44,101,-111,-10,-46,4
1491693278742,3,5,-35,-94,-121,-114,-7,-72,-49
1491693278742,3,15,24,107,-86,76,7,72,-40
1491693278789,0,-18,-16,-104,107,-121,-128,-18,39
1491693278789,0,-6,27,56,25,90,21,23,-37
1491693278791,1,45,2,5,-96,34,49,-38,40
1491693278791,1,-53,31,79,-22,67,57,53,11
1491693278792,3,9,14,44,-31,-11,-64,-30,-34
1491693278792,3,-1,-25,15,95,24,-29,-13,55
1491693278793,0,13,9,-24,66,51,-53,57,11
1491693278793,0,35,66,89,-43,87,117,36,25
1491693278838,1,-65,-87,-115,90,-83,-113,-128,-44
1491693278838,1,5,8,31,21,-32,83,-6,22
1491693278839,2,6,-16,87,-63,81,81,87,-33
1491693278839,2,7,-16,39,9,36,70,11,24
1491693278840,0,78,24,95,-38,116,11,-27,44
1491693278840,0,4,-17,-19,61,86,31,10,-48
1491693278842,1,-3,39,90,-67,127,62,28,60
1491693278842,1,-22,-36,-85,23,40,-88,-8,8
1491693278935,2,-12,4,-6,10,5,7,-46,0
1491693278935,2,-33,-31,42,-35,-27,-105,30,-37
1491693278937,3,-25,11,-128,-51,6,-110,-74,-19
1491693278937,3,5,-7,-51,-47,-19,-37,68,32
1491693278938,1,-5,26,109,127,-83,91,101,-64
1491693278938,1,54,-2,-44,22,-102,83,60,-18
1491693278943,2,-65,-94,43,29,-110,-90,-128,1
1491693278943,2,-1,-58,-4,-128,-120,10,5,-51
1491693278984,3,-7,-12,80,127,-45,-112,58,110
1491693278984,3,38,93,111,-127,-1,114,65,-43
1491693278986,0,-18,-39,-47,90,-106,-61,-19,-9
1491693278986,0,-9,26,51,-21,53,-32,-108,-66
1491693278987,1,90,42,70,124,-74,69,53,47
1491693278987,1,-49,49,122,-14,54,48,46,6
1491693278988,2,-17,-14,-6,61,127,13,-38,-70
1491693278988,2,48,0,29,-37,29,8,8,53
1491693279033,3,-45,14,-39,-90,19,-4,-47,-21
1491693279033,3,-46,-5,-60,-128,-15,74,28,-43
1491693279035,0,43,37,101,-42,25,-54,-66,-48
1491693279035,0,23,-11,-128,108,95,-10,-13,82
1491693279036,3,-41,16,24,-101,-35,-24,-87,-16
1491693279036,3,-13,-43,-67,127,64,-73,16,13
1491693279037,0,15,38,62,61,-52,119,37,67
1491693279037,0,4,-25,-37,-128,-88,-50,8,-120
1491693279083,1,-39,-44,44,89,57,88,-11,111
1491693279083,1,61,-33,-52,60,-38,53,18,-80
1491693279085,2,-52,-75,-37,79,-7,127,75,60
1491693279085,2,-13,-47,-24,-99,74,-22,-111,29
1491693279087,0,13,16,-38,-111,-41,106,127,71
1491693279087,0,-5,-33,4,104,35,-84,-96,-39
1491693279088,1,7,64,67,-128,-86,103,72,-67
1491693279088,1,-31,33,-78,62,11,-87,-73,-7
1491693279130,2,12,54,-98,64,57,-41,-55,-29
1491693279130,2,-56,88,16,-70,-62,-1,109,81
1491693279134,3,17,110,29,-19,-72,50,-36,-128
1491693279134,3,5,121,117,85,102,-98,-12,26
1491693279139,1,-23,4,12,-26,35,-87,-47,92
1491693279139,1,64,-41,-8,-128,-61,59,45,-40
1491693279140,2,-2,-15,24,-14,-36,-94,-55,-13
1491693279140,2,-14,39,86,-128,-120,121,-30,43
1491693279179,3,-38,-37,9,127,104,-128,24,-42
1491693279179,3,40,-23,-18,26,62,126,0,-6
1491693279181,0,6,-86,-90,12,-113,91,-5,-46
1491693279181,0,-35,-107,28,93,88,-42,-42,-21
1491693279182,2,30,-19,118,-49,6,48,18,-86
1491693279182,2,-22,-18,-22,-97,-105,-45,-49,-8
1491693279183,3,1,-64,-108,47,-54,30,31,50
1491693279183,3,-35,47,78,48,88,-29,9,-32
1491693279228,0,-51,3,6,-22,-19,47,-36,5
1491693279228,0,79,29,1,65,-20,-28,-15,78
1491693279230,1,-32,11,-10,7,127,-113,90,16
1491693279230,1,-22,8,-38,-112,-128,46,-87,-19
1491693279231,3,45,7,-75,120,48,-6,-1,67
1491693279231,3,-43,11,10,-47,-16,40,-59,-70
1491693279276,0,59,127,36,-34,27,-46,69,98
1491693279276,0,-23,50,-128,-81,-68,-96,-117,-20
1491693279278,1,42,78,120,58,51,40,31,61
1491693279278,1,-37,5,-88,108,104,6,46,-16
1491693279279,2,8,-72,-29,18,-103,125,-84,-40
1491693279279,2,2,-70,-28,127,107,-81,100,54
1491693279279,3,0,-10,22,-72,-62,95,-16,32
1491693279279,3,0,-36,42,83,-35,-45,-83,2
1491693279325,0,40,-5,55,-50,-36,71,66,15
1491693279325,0,-33,-37,-52,127,45,-78,-1,24
1491693279326,1,22,19,21,-128,-121,15,-94,-69
1491693279326,1,-18,-37,-68,56,-93,-1,87,59
1491693279326,0,-51,16,33,-13,-31,-48,83,27
1491693279326,0,40,12,-33,46,-47,-46,-95,4
1491693279327,1,-39,-7,-4,-46,-66,-42,-70,-13
1491693279327,1,11,57,111,-21,1,-18,27,-19
1491693279374,2,45,-5,-57,64,53,-43,34,59
1491693279374,2,-30,14,23,-104,-65,127,67,-65
1491693279375,3,-43,-32,-82,109,59,-128,-103,11
1491693279375,3,64,29,103,59,68,47,61,-60
1491693279380,1,-16,18,46,100,43,77,3,52
1491693279380,1,15,-7,-43,-118,-128,70,53,-63
1491693279381,2,-3,-7,64,127,127,32,1,-33
1491693279381,2,20,36,35,19,67,30,47,52
1491693279423,3,1,-5,34,12,42,-33,-115,-58
1491693279423,3,-50,-51,-95,60,92,-82,-70,-2
1491693279424,0,35,55,86,-109,-52,-43,-17,19
1491693279424,0,-30,-24,23,80,25,3,17,53
1491693279425,2,-88,-40,-29,93,75,-61,-108,-30
1491693279425,2,-22,-3,-17,33,37,32,-39,-90
1491693279426,3,-10,-24,-92,76,-105,18,16,68
1491693279426,3,-11,-10,13,-90,50,-76,-128,-46
1491693279471,0,14,-7,42,-41,-67,79,100,-24
1491693279471,0,72,36,119,31,73,45,-10,34
1491693279473,1,-14,-31,-112,79,84,-20,-79,-40
1491693279473,1,-39,-23,81,53,-56,66,127,62
1491693279474,3,119,91,72,-85,-53,81,-1,-51
1491693279474,3,-93,-40,-38,127,-27,-128,-124,44
1491693279475,0,-11,20,43,22,120,112,69,20
1491693279475,0,-18,-28,-79,26,-10,-40,-25,-46
1491693279520,1,12,-75,-49,-91,-28,-71,59,34
1491693279520,1,-52,-25,-7,24,95,-105,-92,-10
1491693279522,2,6,6,-65,50,-128,53,114,26
1491693279522,2,67,-15,-25,-92,-27,71,-114,9
1491693279523,0,-10,-77,-117,43,89,-45,15,9
1491693279523,0,-54,-19,-3,23,120,-67,-43,0
1491693279618,1,-37,22,19,-15,-56,97,110,-27
1491693279618,1,102,81,70,-98,-124,121,86,16
1491693279619,2,-17,125,-17,47,32,31,-100,-102
1491693279619,2,-13,82,-51,-35,-87,-61,13,-12
1491693279623,3,-79,37,46,56,127,-69,-65,-41
1491693279623,3,49,15,-128,30,49,-36,58,80
1491693279624,1,31,-96,89,84,-8,-128,-97,77
1491693279624,1,-41,-111,-75,-92,127,88,113,-60
1491693279715,2,-9,-118,46,111,-67,7,-128,-21
1491693279715,2,-1,-19,17,-109,-49,-24,80,60
1491693279717,3,62,1,51,-22,-7,127,13,-4
1491693279717,3,39,-64,-86,73,18,-118,22,69
1491693279718,0,-68,-68,27,-79,121,54,-25,-18
1491693279718,0,23,9,8,-28,-94,65,56,-43
1491693279719,2,17,95,-70,-56,-32,94,48,-16
1491693279719,2,10,78,94,22,15,-41,-49,-57
1491693279764,3,-47,5,-108,86,-18,-95,27,33
1491693279764,3,66,6,-47,-18,-103,66,94,43
1491693279765,0,23,-31,22,-30,88,-124,-42,63
1491693279765,0,-3,-94,-78,81,83,-13,-29,-28
1491693279766,3,14,-49,5,-89,-29,33,30,9
1491693279766,3,-36,48,35,16,-31,40,75,5
1491693279813,0,-20,-41,-122,-113,-18,-124,-84,43
1491693279813,0,12,-17,-34,-88,-104,80,124,47
1491693279814,1,-6,29,100,61,116,-59,52,54
1491693279814,1,11,-2,-77,112,93,-82,-87,-23
1491693279816,2,-6,25,-36,-17,-50,91,6,2
1491693279816,2,10,15,19,80,51,58,-57,77
1491693279816,1,-2,24,39,-40,85,-7,114,51
1491693279816,1,43,82,1,-85,-49,32,-128,54
1491693279862,2,49,91,-52,47,22,72,60,-103
1491693279862,2,-18,27,110,37,81,-32,-6,30
1491693279863,3,18,7,-118,-48,-26,24,-5,-28
1491693279863,3,-37,-5,31,-122,-96,-58,-88,27
1491693279864,2,-1,-81,-9,49,-54,91,-23,-38
1491693279864,2,-54,-63,-128,-34,3,-119,-39,-3
1491693279865,3,41,8,45,-66,-86,127,22,-1
1491693279865,3,0,-46,47,54,50,127,40,-76
1491693279911,0,16,20,53,34,81,-101,-68,64
1491693279911,0,-42,-55,-127,127,80,-79,51,-100
1491693279912,1,22,-42,-27,-59,-59,-40,-45,21
1491693279912,1,59,110,109,-89,-128,-26,24,30
1491693279913,3,-4,-80,-89,-27,21,-72,9,51
1491693279913,3,-33,-94,57,80,48,127,47,-30
1491693279914,0,18,-21,79,-79,-72,-32,-70,33
1491693279914,0,-1,-91,-60,-110,-88,-65,5,58
1491693279959,1,-57,-66,69,127,108,12,-9,-17
1491693279959,1,76,-7,-67,-79,-85,-25,-2,15
1491693280008,2,-53,-117,-66,117,123,-42,-36,-28
1491693280008,2,29,64,68,-37,-83,127,10,-5
1491693280009,0,-23,108,15,-86,-107,39,92,-17
1491693280009,0,16,127,89,-65,-27,22,41,35
1491693280011,1,1,99,20,-61,39,108,-60,-23
1491693280011,1,-65,-6,-119,-63,8,-128,-81,-40
1491693280012,2,29,53,-67,-4,-85,-55,5,6
1491693280012,2,64,23,-46,50,-64,10,106,70
1491693280056,3,-16,22,-63,-74,-116,-11,7,-76
1491693280056,3,-4,-11,32,127,-70,-4,-12,40
1491693280058,0,-37,-58,-70,-5,12,-90,-14,-29
1491693280058,0,-14,25,55,-72,5,98,-7,-24
1491693280059,1,3,-55,-128,127,123,-94,-18,50
1491693280059,1,2,-13,-93,-128,-84,45,44,-59
1491693280060,1,7,56,73,-126,-128,27,18,2
1491693280060,1,-65,-80,61,126,-114,-106,-36,-1
1491693280105,2,8,31,63,-85,-128,127,99,-5
1491693280105,2,-14,-4,52,-47,-111,0,-26,13
1491693280108,3,-15,-56,94,0,-103,60,-43,-55
1491693280108,3,26,46,80,40,37,25,98,26
1491693280109,2,-23,7,84,63,123,-22,-32,1
1491693280109,2,5,-46,-115,8,-52,-51,-4,14
1491693280110,3,-14,4,35,28,52,-27,50,42
1491693280110,3,-21,-21,-40,-58,86,24,-14,-21
1491693280154,0,2,31,-10,33,20,2,-4,-30
1491693280154,0,-26,-18,-67,-9,-3,-48,-86,-37
1491693280155,1,-14,-22,24,-40,-15,-18,-55,-33
1491693280155,1,47,108,86,85,74,108,94,46
1491693280156,3,1,-62,-32,-79,-103,1,-56,7
1491693280156,3,-9,-39,55,70,-3,-86,-125,-38
1491693280157,0,0,51,80,-101,91,57,88,-62
1491693280157,0,-25,-69,-98,-21,-71,-15,24,31
1491693280207,1,30,49,26,63,87,20,-40,30
1491693280207,1,-17,-52,-109,5,-119,-56,24,-40
1491693280208,2,-33,-48,-45,-42,-37,-94,-55,-24
1491693280208,2,-7,-13,16,5,59,80,17,47
1491693280210,0,0,-26,-84,50,-119,102,-8,15
1491693280210,0,30,10,26,-102,-43,-80,10,37
1491693280210,1,-41,-60,1,96,59,17,-23,-52
1491693280210,1,30,51,11,-25,103,8,24,78
1491693280251,2,-46,68,82,73,-35,-10,-60,-50
1491693280251,2,81,-23,-75,127,-59,46,92,10
1491693280253,3,-38,53,9,-53,-124,-128,-69,64
1491693280253,3,-10,4,26,62,50,104,68,-7
1491693280253,1,3,-12,-16,36,-3,-18,65,55
1491693280253,1,-43,-65,20,-34,-58,-1,12,-18
1491693280254,2,20,62,127,27,52,71,-49,16
1491693280254,2,14,23,-82,12,-99,-81,38,1
1491693280300,3,-40,13,65,51,19,93,18,-33
1491693280300,3,43,80,-96,-50,-60,-56,-68,39
1491693280301,0,-23,-103,-51,-1,-27,-52,-83,-8
1491693280301,0,-21,8,-68,-44,56,-47,59,-21
1491693280302,2,-40,-34,50,6,39,-37,-9,-22
1491693280302,2,75,19,94,67,60,16,-44,10
1491693280303,3,21,38,25,17,92,73,48,-39
1491693280303,3,-2,-63,3,-97,-128,-81,-33,-10
1491693280349,0,-1,77,23,19,51,110,40,29
1491693280349,0,-31,70,69,101,1,-28,-121,-36
1491693280353,1,-5,-35,-116,-27,-124,-87,122,78
1491693280353,1,50,-10,26,61,85,69,-64,-110
1491693280355,2,15,-26,-26,81,50,-68,69,54
1491693280355,2,-26,12,127,-24,127,127,8,-60
1491693280356,3,62,-31,-84,127,-87,-87,-91,57
1491693280356,3,-65,-61,-21,6,-58,-59,-2,32
1491693280401,0,70,20,63,11,96,59,33,-17
1491693280401,0,-29,25,-35,33,39,-25,-21,16
1491693280402,1,17,-38,-35,83,63,117,-58,-52
1491693280402,1,0,45,-98,54,-82,32,39,16
1491693280403,3,13,-38,39,25,127,55,16,1
1491693280403,3,22,109,107,-1,-49,14,-16,10
1491693280407,0,-39,-89,-128,-12,-128,-98,-109,-30
1491693280407,0,27,-36,-42,-123,-66,-24,103,89
1491693280447,1,8,48,109,-68,104,45,-18,-34
1491693280447,1,-32,-46,73,76,45,-89,-36,13
1491693280449,2,32,31,-44,-110,64,91,55,-65
1491693280449,2,6,-57,61,83,-50,60,98,3
1491693280450,0,-56,-25,-3,96,-80,-36,-47,-3
1491693280450,0,64,87,8,-43,76,49,35,27
1491693280452,1,-97,-100,-59,-84,-85,-62,-83,-10
1491693280452,1,19,66,100,-33,124,56,29,-48
1491693280495,2,20,42,63,-62,85,36,31,23
1491693280495,2,-56,5,-80,-47,-93,-47,-128,-45
1491693280497,3,13,46,8,-14,86,127,116,-48
1491693280497,3,13,-80,-117,-128,-128,-128,-18,36
1491693280499,1,19,64,36,-77,56,72,59,7
1491693280499,1,-36,-123,-108,-4,-118,-100,-66,-20
1491693280500,2,-37,5,59,76,112,64,63,41
1491693280500,2,61,-11,-33,-128,37,-43,-114,-12
1491693280544,3,10,-18,-20,10,57,-8,38,61
1491693280544,3,-18,-3,46,-65,0,103,18,-42
1491693280547,0,-68,-21,-1,118,-127,-96,36,49
1491693280547,0,-4,1,-9,-96,-73,-34,-33,-30
1491693280548,2,-8,80,23,-42,21,52,-20,-48
1491693280548,2,-54,-77,-82,-43,-112,-106,6,-45
1491693280549,3,-39,23,127,-3,92,91,62,-54
1491693280549,3,33,60,72,82,121,42,-5,5
1491693280593,0,33,-13,-90,-85,-116,-64,-89,-63
1491693280593,0,-10,7,-16,-4,-1,-46,-34,-63
1491693280595,1,17,-23,-32,61,-33,11,8,-57
1491693280595,1,-71,10,28,-97,49,66,58,-63
1491693280596,3,-53,-27,-121,-70,-128,-121,-107,-76
1491693280596,3,51,-1,-41,-23,70,82,47,40
1491693280597,0,17,-30,-10,-19,-95,-96,21,37
1491693280597,0,-19,40,90,-48,109,127,-43,10
1491693280642,1,-43,-26,-55,35,-89,16,-18,12
1491693280642,1,20,27,35,-1,-52,-77,-3,3
1491693280644,2,-18,11,33,-110,39,0,-13,34
1491693280644,2,11,-40,-86,-29,-51,-22,-38,-27
1491693280645,0,23,-28,10,13,52,96,29,16
1491693280645,0,-1,11,41,68,5,-35,-9,7
1491693280646,1,-6,-18,-73,-100,-36,-12,-34,-113
1491693280646,1,66,-20,-30,-48,-38,12,20,47
1491693280690,2,0,45,127,-19,108,105,-10,19
1491693280690,2,-59,-43,-119,12,-73,118,-47,-66
1491693280693,3,-53,-63,-94,-84,-102,16,43,10
1491693280693,3,16,37,106,21,127,127,58,36
1491693280694,0,14,5,22,61,-106,19,-37,-9
1491693280694,0,-39,-16,-17,11,-45,-24,-43,19
1491693280695,1,25,35,125,-28,115,20,74,17
1491693280695,1,-36,-53,-128,-30,-128,-79,-107,14
1491693280739,2,56,28,47,75,100,111,12,-2
1491693280739,2,39,41,-1,-70,38,-56,57,25
1491693280741,3,-4,43,98,28,-50,-9,-2,7
1491693280741,3,-32,-27,-4,19,53,-16,-5,57
1491693280743,1,45,42,111,67,90,-26,-21,40
1491693280743,1,-12,-17,-85,123,-111,49,48,-48
1491693280744,2,-68,-33,1,-90,-42,-127,-39,-34
1491693280744,2,-14,35,22,-58,52,20,61,52
1491693280787,3,-2,-3,-56,-1,-41,-39,-64,-52
1491693280787,3,1,12,123,20,127,105,2,24
1491693280789,0,7,8,-41,97,-24,-90,-43,0
1491693280789,0,-7,-40,-54,-89,-35,-6,-34,3
1491693280790,2,-18,-69,-45,-48,-103,-68,83,-34
1491693280790,2,5,24,91,-72,63,102,-54,-72
1491693280791,3,-11,-11,-73,-15,-3,-44,16,51
1491693280791,3,-29,-27,-49,19,32,9,33,-11
1491693280885,0,36,-9,0,-33,114,-41,-21,-6
1491693280885,0,39,35,39,127,68,23,-44,32
1491693280886,1,-5,-34,-128,-96,-99,32,72,22
1491693280886,1,-24,19,86,11,50,-10,60,6
1491693280887,3,-30,66,127,-30,127,122,21,6
1491693280887,3,-23,-5,-58,109,5,-32,-128,-75
1491693280888,0,12,-57,-124,-99,-81,39,30,-4
1491693280888,0,-46,14,20,-127,70,-108,-67,-8
1491693280934,1,53,12,-67,52,81,111,85,42
1491693280934,1,-30,10,32,-104,70,-81,-91,5
1491693280935,2,14,47,-57,-113,42,11,53,14
1491693280935,2,-62,-67,-107,127,14,-5,22,-1
1491693280936,1,-35,-35,2,54,4,19,29,-35
1491693280936,1,-52,-11,-59,-1,-42,-82,-106,-5
1491693280937,2,45,39,111,-43,127,127,119,-24
1491693280937,2,49,-14,-64,-17,-78,76,-54,101
1491693281032,3,-7,-13,-112,-110,-104,12,3,-2
1491693281032,3,26,-69,-67,63,-81,-52,-18,-33
1491693281033,0,21,59,98,96,51,113,-1,58
1491693281033,0,-24,17,18,-79,58,-128,-48,-26
1491693281034,2,2,-2,-128,-78,54,47,28,23
1491693281034,2,15,16,91,43,4,0,92,-4
1491693281035,3,-8,1,11,127,49,-5,-76,-26
1491693281035,3,-22,8,30,-128,-124,-57,-83,-96
1491693281080,0,-39,-71,-87,26,6,-126,-100,-46
1491693281080,0,60,16,-14,1,46,72,127,25
1491693281081,1,-68,-42,-16,-2,47,75,-128,-98
1491693281081,1,54,60,38,-93,127,83,126,101
1491693281082,2,31,4,81,83,56,60,-62,-12
1491693281082,2,-48,-15,-73,68,58,-116,-41,-30
1491693281083,3,-30,32,-2,19,-72,-60,-32,86
1491693281083,3,-16,-25,-49,-39,2,66,-45,-6
1491693281129,0,58,14,15,42,66,-59,99,-22
1491693281129,0,-62,-2,60,115,70,89,-38,-53
1491693281226,1,-1,-10,17,64,27,-116,36,-39
1491693281226,1,-6,-27,34,46,62,-91,-59,63
1491693281228,0,17,38,55,-30,-51,83,-24,-56
1491693281228,0,41,-23,-81,55,-7,-84,47,43
1491693281229,1,-27,-16,21,-73,-74,-39,-100,-21
1491693281229,1,17,-12,17,96,-128,64,127,97
1491693281230,2,-33,35,-58,-11,90,52,46,13
1491693281230,2,45,29,33,-103,-66,23,-78,84
1491693281275,3,-52,-29,-17,59,126,11,-25,-128
1491693281275,3,0,-13,-50,-59,-17,-68,-89,73
1491693281276,1,50,-45,-119,127,64,7,40,67
1491693281276,1,-3,43,25,-105,-22,-76,-70,-13
1491693281277,2,-48,-43,-51,127,14,2,53,-32
1491693281277,2,-34,-40,12,21,-53,-128,-128,-61
1491693281278,3,-14,-21,-23,16,-95,74,89,26
1491693281278,3,-10,10,62,-62,-4,11,-98,23
1491693281380,0,-20,-5,42,116,66,52,64,-80
1491693281380,0,92,10,-37,127,93,12,32,103
1491693281381,1,-68,5,80,-51,-71,17,-55,-36
1491693281381,1,-11,-40,-104,-24,14,-92,56,-47
1491693281382,0,-21,24,57,-119,-111,20,31,-13
1491693281382,0,-58,-88,-120,26,-28,-77,-53,-10
1491693281384,1,29,7,14,-24,114,-41,-75,25
1491693281384,1,-84,-5,-22,46,8,-23,-23,-78
1491693281470,2,8,-45,-108,-98,44,-85,-126,66
1491693281470,2,-26,11,47,-85,-81,-34,38,-88
1491693281472,3,-12,-18,28,23,60,2,48,-3
1491693281472,3,67,108,92,-117,-83,101,24,-27
1491693281473,1,64,4,44,-95,-70,104,16,0
1491693281473,1,-76,-16,-86,13,-29,-78,-82,-118
1491693281474,1,12,-2,81,127,52,-71,-128,-85
1491693281474,1,57,-42,-93,18,8,-29,-20,38
1491693281519,2,31,26,26,71,121,-41,46,37
1491693281519,2,24,87,87,-72,10,26,-10,45
1491693281521,3,-66,-78,-77,121,-117,-34,-80,-1
1491693281521,3,-43,-95,-47,-128,79,35,39,37
1491693281522,2,61,-2,-70,-5,-68,-7,8,60
1491693281522,2,-71,-59,60,29,-9,125,127,47
1491693281524,3,72,6,-26,-58,-28,-17,66,91
1491693281524,3,6,-8,-54,-39,21,-62,22,-46
1491693281568,0,-67,37,61,62,28,70,65,45
1491693281568,0,26,-23,-89,12,-34,-56,-57,-23
1491693281568,1,10,-46,-26,-26,-80,-114,-34,-80
1491693281568,1,53,-34,-106,78,11,-58,-97,93
1491693281569,0,1,-40,-118,25,11,5,11,7
1491693281569,0,20,22,108,-72,101,-4,102,50
1491693281570,1,-54,-18,-79,127,-6,-17,17,29
1491693281570,1,-7,39,52,-64,-70,14,2,-4
1491693281616,2,13,-26,-112,80,-67,101,-17,31
1491693281616,2,58,-8,0,56,63,-123,30,71
1491693281617,3,59,27,72,-44,-97,58,-77,-7
1491693281617,3,-32,-34,18,93,127,35,127,111
1491693281618,1,-79,-33,11,-71,-1,-31,-19,8
1491693281618,1,15,-1,10,68,33,-28,-128,-81
1491693281619,2,-42,49,103,-44,-97,-70,-76,-22
1491693281619,2,35,-122,-68,3,21,127,60,-20
1491693281665,3,30,127,127,-128,-91,89,-64,35
1491693281665,3,-80,-76,-128,63,67,-38,71,-5
1491693281666,0,62,-59,-34,-70,109,-128,-21,52
1491693281666,0,-35,66,92,-128,-128,105,-128,-67
1491693281666,2,-5,60,75,42,-102,59,94,60
1491693281666,2,0,-27,-103,96,94,107,56,2
1491693281667,3,-11,-78,-103,-36,-21,-115,-106,-97
1491693281667,3,54,78,104,-87,-66,98,-54,59
1491693281714,0,-45,5,64,102,111,-101,38,-15
1491693281714,0,78,55,-50,-128,-128,-5,-40,29
1491693281715,1,-65,-71,-72,36,-32,-117,-78,-26
1491693281715,1,21,-64,-33,73,118,123,88,25
1491693281715,3,-5,-45,-119,-15,-66,-108,83,-51
1491693281715,3,-8,-36,-58,-128,-128,-43,-44,25
1491693281716,0,-1,36,15,108,57,127,5,7
1491693281716,0,-37,-41,44,27,-65,-93,-128,-84
1491693281762,1,55,33,64,5,68,72,120,90
1491693281762,1,-47,53,57,88,53,68,39,-128
1491693281764,2,-42,-122,-128,-70,77,-128,-73,-24
1491693281764,2,18,-4,-49,41,2,-13,-48,-25
1491693281765,3,26,34,84,-61,-89,107,-57,-30
1491693281765,3,-25,26,40,109,65,8,29,37
1491693281766,0,21,13,55,27,-19,127,86,15
1491693281766,0,-35,4,-121,116,127,-128,-96,-11
1491693281811,1,-57,-53,-54,-42,-75,-25,-46,-51
1491693281811,1,111,78,100,-46,-16,18,40,43
1491693281813,2,-30,-51,-88,97,-89,-128,-128,5
1491693281813,2,78,39,127,-128,-126,127,127,65
1491693281814,0,12,29,6,-98,-96,127,127,34
1491693281814,0,5,-9,26,113,13,-64,-56,48
1491693281823,1,-7,44,120,-44,88,47,-59,4
1491693281823,1,9,21,-103,-128,-111,-28,35,24
1491693281860,2,-50,-64,-64,41,11,-93,-72,-49
1491693281860,2,30,39,88,-95,-68,94,-45,0
1491693281861,3,-83,-48,-73,120,103,-96,6,-3
1491693281861,3,3,36,90,-99,-79,50,50,-25
1491693281863,1,88,84,99,51,124,108,42,54
1491693281863,1,-70,-44,-115,123,1,-125,-45,23
1491693281864,2,19,25,52,-29,-40,74,-92,-11
1491693281864,2,-2,1,16,-63,-62,83,75,6
1491693281909,3,48,-68,-36,17,98,-54,-102,39
1491693281909,3,7,87,127,127,-24,96,0,23
1491693281910,0,-40,-14,-89,-32,32,-71,-45,-74
1491693281910,0,18,-81,-105,50,-50,-94,13,57
1491693281923,2,24,88,126,-106,-100,122,100,-34
1491693281923,2,-75,-56,-86,127,97,-112,-122,-37
1491693281924,3,-46,-5,-33,-108,-95,-98,-83,-85
1491693281924,3,63,47,54,-128,-78,72,58,50
1491693281957,0,-52,-33,2,109,12,-1,-32,-65
1491693281957,0,11,67,123,112,-17,66,-80,13
1491693281959,1,27,-18,-127,-83,-75,-13,46,-8
1491693281959,1,-54,-52,-48,66,55,-81,65,21
1491693281960,3,-39,-1,-28,-51,-63,-8,-72,22
1491693281960,3,9,63,83,-49,84,101,28,-39
1491693281961,0,-51,-95,-98,-30,-45,-71,-42,55
1491693281961,0,24,3,7,56,-113,-28,24,-70
1491693282006,1,60,46,-25,-99,43,67,92,62
1491693282006,1,-36,-106,-77,85,62,-31,-18,-7
1491693282014,2,-58,5,-19,-62,127,-93,-64,-44
1491693282014,2,9,11,-52,-51,-8,72,46,25
1491693282015,0,43,1,-20,14,-91,1,8,6
1491693282015,0,-20,20,1,-99,-116,71,-56,-52
1491693282015,1,2,-47,40,127,-80,-82,-21,-25
1491693282015,1,2,-30,69,20,-128,112,-2,12
1491693282104,2,-14,-38,127,91,-128,-28,-62,8
1491693282104,2,25,62,127,-87,-66,43,94,86
1491693282105,3,3,-22,107,27,79,123,-28,-80
1491693282105,3,28,125,109,-39,63,8,-94,-1
1491693282106,1,-35,-36,-57,-54,124,-29,-77,-48
1491693282106,1,-34,-48,-6,-110,93,-51,0,-32
1491693282107,2,99,85,127,74,127,127,106,52
1491693282107,2,16,79,84,-91,65,27,-65,9
1491693282154,3,-57,-106,-126,-20,-94,-128,44,9
1491693282154,3,-27,-79,-3,-87,29,87,-21,-25
1491693282155,0,20,38,43,-5,73,73,-6,0
1491693282155,0,-43,-31,-33,-61,61,-81,-61,-66
1491693282155,2,33,-35,-97,119,-128,-63,-52,62
1491693282155,2,-5,25,0,-46,45,17,33,16
1491693282156,3,0,78,110,101,109,104,32,-42
1491693282156,3,-76,-116,-128,11,-128,-128,-128,-25
1491693282201,0,3,43,84,-128,63,-5,27,-18
1491693282201,0,17,-38,-23,-7,86,53,11,5
1491693282203,1,-25,-31,-8,-53,-59,-54,-13,16
1491693282203,1,44,106,127,50,127,79,31,43
1491693282203,3,53,-15,64,-39,103,74,41,53
1491693282203,3,45,48,68,77,-37,8,2,6
1491693282204,0,-7,23,-44,-21,68,23,3,10
1491693282204,0,-68,-100,-94,-26,-77,-41,4,9
1491693282250,1,31,91,39,-95,111,106,32,7
1491693282250,1,-27,-50,-128,72,-128,-82,-17,40
1491693282251,2,-20,-82,-93,-48,-71,0,-86,-7
1491693282251,2,4,27,127,-1,35,16,-58,-49
1491693282251,0,-3,54,52,50,-57,-35,8,-38
1491693282251,0,0,-41,6,62,56,64,-12,38
1491693282252,1,-32,12,71,-70,-109,-97,-66,-39
1491693282252,1,-35,13,-24,-22,1,18,83,1
1491693282299,2,65,-10,8,-54,57,4,-27,64
1491693282299,2,-26,8,127,71,101,16,21,-20
1491693282300,3,-10,-42,-103,0,-57,-45,-15,-41
1491693282300,3,46,-69,-91,-92,-127,-106,-66,27
1491693282302,1,22,75,87,21,127,69,39,14
1491693282302,1,-10,-11,-78,57,-120,-98,-111,-54
1491693282302,2,10,-20,-4,-4,-32,127,115,35
1491693282302,2,4,86,92,105,104,58,-29,-45
1491693282396,3,-31,-50,-128,55,-128,-122,-59,31
1491693282396,3,43,48,-40,-52,69,61,46,24
1491693282398,0,-21,-31,82,20,99,-40,-96,-37
1491693282398,0,98,88,10,-110,83,58,56,50
1491693282399,2,8,-93,-91,50,-128,-128,-22,-6
1491693282399,2,-26,62,-17,-73,-52,-25,9,17
1491693282400,3,27,0,59,127,88,42,-65,-28
1491693282400,3,4,45,40,104,105,31,5,-9
1491693282494,0,-23,29,9,-62,-83,15,0,-26
1491693282494,0,-12,-7,19,2,11,17,16,-7
1491693282495,1,30,39,-34,19,-5,-19,-20,-13
1491693282495,1,-38,-84,-63,32,73,-37,21,-6
1491693282497,3,57,11,-35,-47,-32,82,82,16
1491693282497,3,-27,-52,49,48,-70,-53,-15,-35
1491693282498,3,28,12,-102,-109,-117,0,56,0
1491693282498,3,43,36,39,-65,-26,-1,-15,8
1491693282543,0,-57,-32,-4,24,-6,-54,-14,-5
1491693282543,0,5,-74,35,33,55,-4,3,17
1491693282544,1,3,-7,-14,17,67,4,16,-20
1491693282544,1,-40,-4,-57,-55,-114,-9,-91,-5
1491693282546,0,-58,13,51,27,18,6,-26,-51
1491693282546,0,41,1,18,-15,60,73,34,68
1491693282547,1,-9,-50,-21,81,0,-1,-17,36
1491693282547,1,-29,12,61,67,-6,-27,8,-75
1491693282591,2,30,-28,-8,44,38,-82,-128,78
1491693282591,2,-14,45,-80,-51,-4,94,80,3
1491693282592,3,26,14,-15,-46,-20,37,-12,11
1491693282592,3,-39,-2,67,54,-5,-83,20,33
1491693282593,2,-13,-5,-95,-67,-82,-12,71,34
1491693282593,2,31,-6,-47,79,46,16,8,1
1491693282594,3,-69,-11,17,99,-62,-72,-47,16
1491693282594,3,29,0,-29,-27,-22,48,3,-23
1491693282640,0,20,47,76,101,-8,-17,45,-33
1491693282640,0,3,-21,8,20,-111,6,-45,-23
1491693282641,1,32,36,127,24,127,52,87,23
1491693282641,1,5,-7,-112,-89,-37,112,-31,-4
1491693282642,3,22,50,127,-12,127,68,55,40
1491693282642,3,-14,-29,-96,63,-98,29,-94,-46
1491693282643,0,-7,-13,52,-8,27,100,-6,-9
1491693282643,0,-31,8,18,-72,-7,81,63,-22
1491693282689,1,-38,4,63,127,-21,-10,-82,-2
1491693282689,1,-8,-18,-78,-128,57,-22,65,-6
1491693282689,2,-11,-1,87,102,-47,-89,-47,-53
1491693282689,2,-12,20,-78,-29,-69,-27,-19,38
1491693282690,0,-61,-86,-126,71,-29,-102,-2,-61
1491693282690,0,-33,28,85,-48,-10,7,-44,6
1491693282691,1,62,3,-118,-128,1,82,38,-75
1491693282691,1,-52,-80,-45,85,-107,-112,-45,55
1491693282738,2,11,74,116,-6,127,127,-20,-33
1491693282738,2,-14,-80,-58,35,-116,23,-26,56
1491693282739,3,-87,-16,-20,-54,33,-50,-6,-117
1491693282739,3,93,58,75,-44,57,10,55,29
1491693282740,1,-45,-53,-127,127,-121,-128,-88,-58
1491693282740,1,26,-31,-10,-77,-47,-1,24,33
1491693282741,2,29,71,-28,-91,-21,83,67,30
1491693282741,2,-24,-78,-76,68,-78,-63,-52,-45
1491693282786,3,25,24,98,-32,93,68,-43,14
1491693282786,3,-30,34,45,90,39,-108,87,-42
1491693282788,0,42,-31,-75,-128,-63,-66,-46,-68
1491693282788,0,11,33,9,81,102,78,108,65
1491693282789,2,-9,51,105,97,127,45,51,23
1491693282789,2,3,-42,-110,88,97,-92,6,-26
1491693282790,3,34,13,50,-67,33,-32,9,4
1491693282790,3,-37,-2,27,4,42,0,-124,93
1491693282836,0,-20,-38,-10,30,-28,-94,72,-27
1491693282836,0,66,67,127,29,83,97,70,6
1491693282838,1,-8,-25,-67,109,-2,-39,-83,72
1491693282838,1,-33,-52,-86,32,-67,-35,58,-85
1491693282840,2,-21,7,28,-128,-92,8,-61,-21
1491693282840,2,8,25,127,-123,8,105,78,-33
1491693282841,3,37,14,98,40,-80,-23,11,50
1491693282841,3,-1,50,113,-101,-114,-43,-39,-17
1491693282884,0,-70,-84,-107,112,-100,50,-13,-1
1491693282884,0,-34,-4,31,-75,-127,-18,-90,-55
1491693282887,1,63,45,85,118,-8,18,49,32
1491693282887,1,-5,-5,-68,-30,-12,78,50,19
1491693282888,3,-5,-13,46,43,68,-19,-74,67
1491693282888,3,16,25,-50,-70,-109,80,127,-63
1491693282890,0,-16,17,-77,18,75,-18,38,3
1491693282890,0,34,-51,-51,105,-12,-66,-55,35
1491693282932,1,-35,9,14,-128,40,-86,20,10
1491693282932,1,14,21,52,127,29,-66,-121,16
1491693282934,2,-12,-4,67,-10,61,122,84,-11
1491693282934,2,-16,35,-24,127,62,-94,-43,-53
1491693282934,0,-50,-5,60,56,14,-26,16,18
1491693282934,0,4,-5,-61,-127,-30,-46,-128,40
1491693282935,1,-4,2,-29,-17,0,57,127,-43
1491693282935,1,-30,24,35,54,80,59,-82,-59
1491693282981,2,-23,-76,-128,101,-81,-17,-87,27
1491693282981,2,-21,43,127,41,81,92,23,31
1491693282984,3,27,24,-108,23,-53,6,-128,80
1491693282984,3,-40,-23,23,-40,-44,-41,-21,-46
1491693282985,1,50,-23,-74,-65,-53,-74,-74,-22
1491693282985,1,-36,31,55,42,31,49,82,111
1491693282986,2,39,11,26,-69,47,-73,-50,-82
1491693282986,2,-11,0,36,83,-49,7,-20,21
1491693283030,3,-43,3,-21,-62,4,-30,-5,-49
1491693283030,3,34,-66,-115,99,-25,49,57,56
1491693283032,0,5,2,-55,-39,36,-49,4,4
1491693283032,0,72,66,98,50,-85,50,96,18
1491693283033,2,9,32,-21,-101,-37,-128,-101,-27
1491693283033,2,7,-114,-128,45,-32,5,35,50
1491693283034,3,6,50,127,6,0,93,50,37
1491693283034,3,-3,10,-39,-69,-27,-101,-34,-81
1491693283079,0,-31,-15,-13,-4,-1,103,-42,-18
1491693283079,0,29,63,71,-128,77,34,32,-30
1491693283081,1,-19,5,73,79,27,-41,-6,-16
1491693283081,1,59,60,-42,-71,18,-64,-108,4
1491693283082,3,-38,-88,-38,-128,-128,-53,-43,-8
1491693283082,3,-10,5,48,15,97,92,63,5
1491693283082,0,29,22,94,-18,48,-10,-4,43
1491693283082,0,0,0,-66,40,-5,-8,-89,12
1491693283128,1,25,39,72,-13,4,10,84,-13
1491693283128,1,34,-8,66,24,47,26,83,79
1491693283130,2,-29,4,-27,48,-128,-65,-80,-80
1491693283130,2,46,-25,-47,-58,39,-15,42,60
1491693283131,0,29,0,43,-61,4,65,127,-20
1491693283131,0,-14,68,82,70,45,88,-67,-6
1491693283132,1,-36,-52,-128,34,-44,-97,-84,19
1491693283132,1,-36,-8,30,-106,10,60,54,-41
1491693283177,2,58,-30,-7,-96,16,7,-128,-18
1491693283177,2,-31,24,36,-72,-41,6,83,-76
1491693283179,3,-11,-25,-5,-127,22,127,29,-19
1491693283179,3,46,-16,-53,97,-111,-56,-55,51
1491693283180,0,-32,9,-68,-117,33,-103,12,-47
1491693283180,0,-24,-49,66,100,52,-105,-108,-7
1491693283181,1,-24,34,32,-109,16,19,86,31
1491693283181,1,-13,10,-18,-80,-31,56,-27,-55
1491693283225,2,-10,-11,-23,32,-7,75,0,-12
1491693283225,2,60,11,5,76,-19,-4,-8,108
1491693283227,3,-7,-14,-11,62,-1,-86,-61,-22
1491693283227,3,-19,11,-34,-40,-23,-20,64,-57
1491693283228,1,7,69,80,97,-71,-39,-52,-56
1491693283228,1,-33,-41,-81,-44,-109,1,-1,-22
1491693283279,2,3,34,58,-30,33,-52,-70,75
1491693283279,2,-68,-73,-92,-128,62,105,93,-67
1491693283281,3,107,41,-41,83,-38,-76,-90,55
1491693283281,3,-69,-47,-10,13,110,57,-30,19
1491693283282,0,35,12,-1,-41,-75,-59,-50,36
1491693283282,0,-67,-7,30,-127,16,66,58,18
1491693283283,2,29,-39,-38,30,-128,-87,28,69
1491693283283,2,-26,57,92,127,-103,-83,27,-4
1491693283323,3,-72,-29,-121,-64,32,62,-40,-57
1491693283323,3,98,-34,70,82,101,-62,-123,60
1491693283372,0,-62,36,82,75,84,70,114,-53
1491693283372,0,12,-29,-121,-56,82,-105,-128,-45
1491693283373,1,2,-11,45,-60,127,127,112,-5
1491693283373,1,2,-12,-101,-38,60,-61,-106,48
1491693283374,3,-59,-27,-38,127,127,-72,-71,-5
1491693283374,3,6,-48,-58,2,63,127,124,-66
1491693283375,0,-13,14,-56,-70,-128,-37,-109,-25
1491693283375,0,-41,-93,-14,37,-22,7,-95,-33
1491693283420,1,72,43,43,-128,-6,-30,73,82
1491693283420,1,-85,-64,-4,127,88,-106,-71,-47
1491693283421,0,-20,-11,-91,127,110,28,83,-49
1491693283421,0,-8,42,-18,-113,-77,-128,26,65
1491693283469,1,49,16,112,75,39,0,6,79
1491693283469,1,6,-5,28,91,102,-2,-47,-31
1491693283471,1,75,19,51,-75,17,34,-18,49
1491693283471,1,-17,15,3,76,113,-63,-15,31
1491693283472,2,27,-75,-101,-60,-123,-61,-35,44
1491693283472,2,-47,48,127,-105,-5,89,-45,-11
1491693283473,3,-29,-46,-128,85,17,-61,-128,-72
1491693283473,3,-6,29,11,-29,-89,73,8,-77
1491693283518,2,-14,-3,75,-21,-71,40,-120,-91
1491693283518,2,-31,-60,-85,-78,-24,-33,-82,-20
1491693283519,3,26,-32,-4,89,70,66,99,78
1491693283519,3,-38,76,115,-75,-62,-7,-58,23
1491693283520,0,-24,-26,-65,-73,-31,-35,-68,-94
1491693283520,0,54,-11,37,53,34,86,38,-109
1491693283521,2,45,-5,-34,-113,-53,127,-23,77
1491693283521,2,-49,-5,-24,127,97,-128,-61,41
1491693283566,3,-47,-18,14,-80,-76,51,-14,-39
1491693283566,3,57,44,100,126,-65,-37,11,4
1491693283571,0,9,25,16,116,74,43,85,96
1491693283571,0,-11,-43,-35,-110,-120,17,-57,-56
1491693283572,3,54,75,86,-100,10,51,-26,-25
1491693283572,3,-56,-24,2,36,-18,-72,-87,-59
1491693283573,0,76,19,33,-62,122,80,105,50
1491693283573,0,49,62,-62,-57,-86,127,36,41
1491693283615,1,-65,-83,-128,29,4,-128,-116,-35
1491693283615,1,22,21,54,-78,-42,-19,84,-46
1491693283617,2,-18,-13,-44,-75,7,8,-128,-55
1491693283617,2,-68,-16,22,-85,120,-39,58,-1
1491693283618,0,-2,62,113,-45,-91,32,7,70
1491693283618,0,12,-49,-83,93,84,-124,-40,-28
1491693283619,1,-50,-48,-37,15,-44,-74,-68,-21
1491693283619,1,12,5,15,-83,-93,69,-39,10
1491693283664,2,-6,42,105,48,-64,-114,17,-59
1491693283664,2,14,10,60,53,76,124,94,-11
1491693283665,3,-39,-25,-7,-19,-60,-51,-65,39
1491693283665,3,-17,-110,-128,-95,108,90,-20,-26
1491693283667,1,66,6,88,-33,39,109,10,-52
1491693283667,1,-11,-3,-106,88,17,95,94,127
1491693283668,2,-64,-62,-128,-47,-3,-128,-128,-87
1491693283668,2,67,108,67,-128,-114,-38,17,-46
1491693283713,3,-66,-97,-86,76,48,-126,-45,-21
1491693283713,3,-17,8,5,-128,13,-77,-14,-11
1491693283714,0,24,-6,-61,92,-5,87,94,53
1491693283714,0,6,-3,93,66,61,-58,-128,-7
1491693283715,2,61,47,-15,-72,-27,92,51,41
1491693283715,2,0,-77,-113,16,29,-45,-62,-39
1491693283716,3,-38,-35,45,115,90,71,-76,5
1491693283716,3,6,-5,-75,13,-45,-95,-27,48
1491693283762,0,-45,-62,47,-15,57,1,-88,-60
1491693283762,0,35,127,127,-48,-107,127,106,-19
1491693283764,1,18,-13,-128,113,53,-128,56,108
1491693283764,1,-36,11,38,-45,-5,-15,-70,-113
1491693283765,3,-2,16,-71,-79,-71,77,-33,-29
1491693283765,3,-16,-4,-23,-6,-64,-19,14,82
1491693283766,0,-11,-6,-14,127,87,-128,-107,-120
1491693283766,0,14,23,-12,-74,-68,-10,-5,26
1491693283811,1,-22,-42,-7,34,-36,15,24,1
1491693283811,1,34,25,52,96,77,-45,11,8
1491693283812,2,-66,-51,-66,-56,41,21,21,11
1491693283812,2,50,73,43,-128,-128,127,-72,50
1491693283813,0,-26,-23,-17,67,99,-90,-41,30
1491693283813,0,1,-28,-6,56,42,67,114,36
1491693283814,1,83,77,78,-103,-92,-51,-79,5
1491693283814,1,-32,-31,-33,85,76,30,127,19
1491693283859,2,14,74,103,-61,-121,24,-82,5
1491693283859,2,-73,-46,-105,23,-55,44,11,-14
1491693283860,3,57,-5,-47,-115,-59,-65,-56,-3
1491693283860,3,3,-28,-5,18,16,3,-49,-42
1491693283861,0,1,-29,-48,127,55,103,2,47
1491693283861,0,21,40,14,-90,-27,-70,-101,-1
1491693283862,1,-6,0,-16,48,-63,85,88,16
1491693283862,1,15,17,-4,69,62,-65,-37,19
1491693283908,2,-57,-17,13,17,0,54,15,-17
1491693283908,2,48,-26,-84,32,35,-7,0,20
1491693283909,3,-80,-40,-93,-122,-68,-57,-73,-47
1491693283909,3,36,124,127,-128,-105,69,40,-4
1491693283910,1,3,30,127,-40,102,-13,-30,-32
1491693283910,1,9,-42,-105,-119,-60,106,69,78
1491693283911,2,27,40,-8,-108,-110,27,-77,-12
1491693283911,2,-18,40,-43,-11,-116,-128,-15,19
1491693283956,3,-9,-83,-128,127,-76,29,-104,-81
1491693283956,3,-29,2,-58,52,-128,98,79,30
1491693283958,0,44,7,-108,-33,-128,11,-6,30
1491693283958,0,-22,-44,-39,70,-117,-85,-70,-54
1491693283959,2,-18,-21,85,63,58,93,12,-31
1491693283959,2,-25,-40,40,114,125,-22,20,59
1491693283960,3,-48,-29,127,-93,127,-75,-51,-14
1491693283960,3,23,-7,66,-108,100,-43,-120,-50
1491693284005,0,43,-43,71,61,103,42,110,73
1491693284005,0,-42,98,127,28,127,61,-93,-53
1491693284006,1,41,27,119,-28,127,17,49,20
1491693284006,1,-19,-43,17,-6,113,39,30,-14
1491693284006,3,-18,-20,-32,127,-33,-113,-41,57
1491693284006,3,3,-15,48,67,29,86,11,-39
1491693284007,0,-9,29,-93,-3,-26,-8,9,-41
1491693284007,0,-31,-3,-30,65,-93,-71,-45,14
1491693284054,1,35,23,55,73,34,66,76,2
1491693284054,1,-4,30,-31,-84,1,37,10,34
1491693284103,2,17,39,70,-13,1,-40,-24,-40
1491693284103,2,-25,-77,-87,-65,-73,-116,-41,6
1491693284104,0,-5,44,70,-36,77,62,-105,-49
1491693284104,0,31,28,-27,-18,-53,-45,72,14
1491693284106,1,-1,-29,-88,3,-3,96,-2,36
1491693284106,1,-7,18,82,-17,23,19,-21,-5
1491693284107,2,-17,20,-82,18,-93,-120,-116,-23
1491693284107,2,7,-36,71,65,84,90,81,-26
1491693284200,3,-29,7,24,25,28,90,36,-3
1491693284200,3,18,-25,-118,55,-113,-128,-96,-19
1491693284298,1,-31,20,3,-62,9,-12,38,-49
1491693284298,1,45,6,3,-82,102,97,-22,-22
1491693284299,2,41,6,32,40,38,-39,1,19
1491693284299,2,8,64,-7,3,-33,49,90,65
1491693284301,2,-23,-9,57,110,-93,-89,26,-7
1491693284301,2,26,50,35,-80,121,127,62,-9
1491693284302,3,3,85,127,52,46,28,12,-7
1491693284302,3,-13,-94,-124,29,-51,-53,-34,75
1491693284347,0,-2,13,6,-79,47,37,26,-73
1491693284347,0,19,-1,90,57,34,51,-21,-34
1491693284348,3,13,-51,21,-7,-38,48,46,24
1491693284348,3,-31,-9,30,-87,74,55,17,-34
1491693284349,3,-3,-41,59,110,-67,-43,53,52
1491693284349,3,0,49,118,-4,41,56,0,-25
1491693284350,1,-8,-10,-28,20,80,-16,-38,-29
1491693284350,1,-1,-69,-21,53,-16,20,18,-5
1491693284396,2,40,65,7,24,36,-59,6,9
1491693284396,2,5,-4,7,-16,-28,-49,-22,-29
1491693284397,3,-8,-22,-35,127,-93,-54,-5,27
1491693284397,3,1,-19,-25,-64,-49,-16,19,-13
1491693284399,2,11,12,69,8,-128,-90,-4,10
1491693284399,2,12,-29,-81,26,123,56,-47,-18
1491693284401,3,-48,-65,-23,-119,-67,-31,10,-23
1491693284401,3,16,49,18,-70,95,86,44,-23
1491693284444,0,27,6,91,48,-71,-13,-28,10
1491693284444,0,-30,22,84,-22,-69,-16,-6,8
1491693284445,1,35,-48,-107,23,55,46,23,38
1491693284445,1,38,-46,-56,-9,-94,-51,-17,-27
1491693284446,3,30,-1,58,31,97,96,55,-6
1491693284446,3,-39,4,-97,-70,-71,-18,-35,-27
1491693284447,0,24,-56,-5,102,-64,-53,-27,-76
1491693284447,0,-6,11,49,23,51,85,39,13
1491693284493,1,0,-46,-102,-84,-108,-45,-58,51
1491693284493,1,-2,6,127,127,127,76,9,32
1491693284495,2,-27,14,-22,-85,94,94,-23,-41
1491693284495,2,-4,20,26,-2,8,15,2,31
1491693284496,0,-11,-5,-30,11,127,83,72,51
1491693284496,0,-41,-15,17,-106,-36,5,9,-56
1491693284496,1,65,-16,-6,66,91,34,-33,55
1491693284496,1,15,5,-50,-13,-86,-68,-27,76
1491693284541,2,-31,2,-46,-56,-39,-36,11,-14
1491693284541,2,70,79,102,-12,98,67,7,62
1491693284543,3,-52,-22,-72,0,-98,-44,61,4
1491693284543,3,-15,-27,10,-7,-27,65,-83,-36
1491693284544,1,51,63,46,35,106,58,39,30
1491693284544,1,-3,-35,-24,65,-19,-52,21,-1
1491693284545,2,-24,7,17,-102,-92,-50,7,-11
1491693284545,2,8,-6,12,4,-57,-42,-10,35
1491693284590,3,-31,62,113,-128,78,70,19,-18
1491693284590,3,-4,-4,-75,79,-46,-124,22,35
1491693284593,0,8,4,71,127,35,94,1,41
1491693284593,0,-24,-51,-79,-91,-72,-14,-97,-81
1491693284594,1,43,12,45,88,0,48,64,-7
1491693284594,1,-24,8,-28,-32,-51,-82,-128,40
1491693284595,2,-12,43,-58,-35,99,127,88,-54
1491693284595,2,14,-56,-85,127,82,77,3,67
1491693284639,3,-63,-15,-67,65,-128,-56,-128,-128
1491693284639,3,19,-2,47,-5,46,23,67,7
1491693284641,0,73,14,-13,-94,-83,4,-15,30
1491693284641,0,-67,-80,-53,-3,-128,-28,52,-46
1491693284642,2,12,13,23,-53,33,58,31,41
1491693284642,2,-11,-10,-5,-50,-26,-35,11,-26
1491693284643,3,-93,-87,-128,-79,-128,-24,-23,-45
1491693284643,3,34,2,25,1,-15,-39,16,30
1491693284688,0,-6,-5,51,-33,41,78,56,4
1491693284688,0,35,43,-72,83,-10,29,14,56
1491693284691,1,-3,2,33,-95,-6,55,88,-25
1491693284691,1,-54,-52,-97,30,-48,-69,-75,-21
1491693284692,3,-24,4,71,88,110,76,18,31
1491693284692,3,24,20,-64,-40,88,127,7,-34
1491693284693,0,-15,0,55,72,-53,-128,-66,77
1491693284693,0,-26,-17,6,2,-54,98,66,-20
1491693284736,1,-4,-34,-24,56,18,-55,-95,-18
1491693284736,1,-40,20,-31,-128,-66,107,102,-29
1491693284738,2,17,15,32,58,48,-95,-128,-59
1491693284738,2,53,-26,-39,-56,-69,55,18,77
1491693284739,0,0,51,-119,-128,-82,34,-3,11
1491693284739,0,-49,-22,87,127,124,-59,-54,-61
1491693284740,1,6,17,-2,70,-17,18,53,78
1491693284740,1,-14,-29,12,-128,8,-54,-73,73
1491693284785,2,3,-23,65,-24,57,49,-42,-77
1491693284785,2,0,95,82,0,51,83,94,39
1491693284787,3,25,-19,-42,64,76,33,-59,54
1491693284787,3,18,20,-8,-78,-72,-102,22,15
1491693284788,1,-12,-47,-96,-33,14,-126,-81,-42
1491693284788,1,87,34,57,127,127,75,127,70
1491693284789,2,-41,-35,-116,-113,27,28,-23,63
1491693284789,2,-12,-10,-15,115,84,-74,-40,-69
1491693284834,3,37,115,116,-50,58,127,68,-12
1491693284834,3,-41,-96,-103,84,-79,-74,-62,-33
1491693284836,0,-18,20,94,-38,81,99,7,-72
1491693284836,0,-8,-28,-24,88,-83,-93,-61,-73
1491693284837,2,-26,-44,-85,88,5,-98,-95,-24
1491693284837,2,-12,-32,-49,-37,-81,51,127,-35
1491693284838,3,0,-59,4,-43,-30,69,9,15
1491693284838,3,44,-5,79,47,-105,-71,-77,1
1491693284883,0,-33,11,106,-71,5,127,-25,-4
1491693284883,0,-1,18,48,59,-72,-72,-47,45
1491693284884,1,-16,-60,-60,-95,-128,-114,-96,27
1491693284884,1,0,38,127,-66,54,112,84,18
1491693284932,3,-72,42,87,95,33,-20,55,2
1491693284932,3,16,-35,-127,86,72,42,10,-14
1491693284933,0,-32,-41,-78,-113,-106,-47,-74,-58
1491693284933,0,39,-49,-87,-127,-33,46,-42,-57
1491693284935,1,14,18,13,109,-95,-85,13,-9
1491693284935,1,-70,-9,-28,-19,69,42,-39,-64
1491693284935,2,25,40,101,116,61,79,5,44
1491693284935,2,15,0,-98,-59,28,33,104,42
1491693284981,3,16,23,91,103,37,127,-54,28
1491693284981,3,-49,10,-52,-128,-128,-128,-102,-34
1491693284983,0,30,22,-17,-85,-33,79,113,45
1491693284983,0,66,8,7,100,49,-36,-49,-9
1491693284984,1,14,-7,-89,0,10,88,92,-28
1491693284984,1,-15,-6,90,2,31,-57,-124,54
1491693284986,0,32,-61,-63,-85,-71,-69,-77,-80
1491693284986,0,-7,50,39,-18,-3,104,53,-7
1491693285029,1,30,-30,-65,120,90,-103,-126,-100
1491693285029,1,-46,-61,-120,-128,-128,-25,101,-9
1491693285078,2,6,-29,-74,-84,44,-33,-47,-30
1491693285078,2,21,33,68,104,68,80,29,66
1491693285080,1,107,69,12,-97,4,-71,61,8
1491693285080,1,-14,11,-76,83,-113,-102,-37,-30
1491693285081,2,14,13,97,39,-6,68,-64,24
1491693285081,2,-77,5,-23,-119,4,-112,62,65
1491693285082,3,28,-28,29,-37,7,12,-34,1
1491693285082,3,-19,-60,-79,67,-21,-64,-10,10
1491693285126,0,13,50,80,-2,-30,-54,-89,8
1491693285126,0,-19,1,-90,-85,-47,-52,-87,-55
1491693285128,2,-60,-9,4,127,53,5,59,-23
1491693285128,2,33,50,-4,0,8,117,-19,37
1491693285132,3,5,-47,-128,86,-45,-108,59,3
1491693285132,3,-14,-74,-27,98,-28,5,-2,9
1491693285133,3,11,17,-5,-62,-75,12,-10,-42
1491693285133,3,-59,-44,-25,-128,-72,78,-116,-37
1491693285175,0,-47,-48,-104,94,-10,-70,-75,-69
1491693285175,0,38,-57,-43,-31,-27,73,5,64
1491693285177,1,-23,68,45,-46,32,-10,36,-17
1491693285177,1,-28,-51,-8,53,42,26,24,4
1491693285272,0,-49,-45,-88,127,-79,-85,-61,11
1491693285272,0,53,-21,1,-74,-33,-81,3,-16
1491693285273,1,-6,-50,-105,-4,-106,-24,-34,46
1491693285273,1,-25,-7,-19,56,112,40,-121,-44
1491693285275,2,-38,25,51,-128,100,-34,71,-18
1491693285275,2,28,30,-84,125,31,-121,7,6
1491693285275,3,-22,-68,-81,-26,-37,58,28,-9
1491693285275,3,12,25,71,16,-44,-11,-45,37
1491693285321,1,11,-4,11,54,-34,12,24,70
1491693285321,1,0,-80,-96,-116,-41,-55,-60,-22
1491693285322,2,-16,5,-47,-2,66,4,-39,-62
1491693285322,2,-70,14,124,31,38,29,85,44
1491693285323,3,44,21,-16,71,61,125,35,26
1491693285323,3,1,96,62,-57,-20,-101,-49,36
1491693285324,2,127,90,127,-128,-27,127,-20,-29
1491693285324,2,-1,-3,-51,91,62,24,39,52
1491693285370,3,-14,-42,11,-50,-72,13,-106,-99
1491693285370,3,-32,-46,-2,95,23,44,91,80
1491693285371,0,84,32,43,127,127,127,118,72
1491693285371,0,-15,23,67,-128,-128,-128,-107,55
1491693285372,3,76,63,45,-111,-84,120,19,-31
1491693285372,3,-36,95,127,41,127,107,-42,31
1491693285373,0,15,-13,-114,73,-128,-68,27,6
1491693285373,0,-39,-65,-50,-77,-101,-46,-108,-38
1491693285419,1,-15,33,19,-68,67,-13,55,10
1491693285419,1,64,-23,-128,-30,85,113,75,76
1491693285420,2,-64,25,-9,58,93,-10,1,-105
1491693285420,2,103,7,-19,-95,-75,44,-1,45
1491693285421,0,-37,54,80,-128,16,61,-60,-29
1491693285421,0,-2,36,26,-34,-10,81,-52,19
1491693285422,1,23,45,77,77,-48,-68,-67,-7
1491693285422,1,-24,-47,-105,-127,-43,-6,127,50
1491693285470,2,-19,-58,-41,-71,-90,44,3,38
1491693285470,2,34,35,35,100,68,-30,0,-22
1491693285471,3,19,66,3,-77,-25,17,-113,13
1491693285471,3,-17,-27,-3,76,25,-30,-69,-67
1491693285472,1,-47,9,23,-2,-37,94,52,-23
1491693285472,1,0,74,66,-110,106,-128,-73,-14
1491693285473,2,-74,-67,-66,-92,-55,14,-47,-15
1491693285473,2,68,-63,-63,-6,-15,2,43,27
1491693285565,3,-34,45,35,70,27,79,-84,49
1491693285565,3,-24,-44,-49,-61,29,-2,85,9
1491693285566,0,19,16,116,44,-14,-22,-30,98
1491693285566,0,-29,16,-13,-13,-74,-69,-92,-42
1491693285567,2,9,-7,-128,99,63,-107,60,67
1491693285567,2,-50,65,127,-67,-43,70,24,-44
1491693285568,3,127,121,104,-128,-74,125,113,30
1491693285568,3,-71,-115,-90,127,-97,-118,-110,3
1491693285614,0,-57,-28,33,-52,65,87,-83,-42
1491693285614,0,8,52,95,90,32,101,105,-11
1491693285615,1,71,-114,-39,-17,31,-11,-86,67
1491693285615,1,41,127,-48,-99,-128,-15,94,56
1491693285616,3,-24,-13,-1,55,68,73,52,10
1491693285616,3,37,11,5,-118,-80,-51,30,-34
1491693285617,0,-6,-17,78,67,-22,-43,16,-24
1491693285617,0,-6,-57,-78,-74,116,-2,-51,20
1491693285662,1,-26,113,84,127,-52,26,-19,-26
1491693285662,1,-17,-55,-83,42,5,-48,-120,-5
1491693285664,2,35,-71,-86,-98,47,-4,127,33
1491693285664,2,-35,-9,-58,106,-104,-128,-80,3
1491693285665,0,-18,7,42,-21,-86,127,120,9
1491693285665,0,23,-37,-71,54,-10,-32,-7,61
1491693285666,1,-63,-91,-95,-18,-24,-128,-128,-102
1491693285666,1,53,36,14,127,28,4,70,102
1491693285711,2,7,43,54,108,114,64,-48,7
1491693285711,2,22,62,-3,-8,-124,29,79,-9
1491693285712,3,-24,-69,-96,-20,-56,-109,-10,-23
1491693285712,3,-53,-73,-61,46,23,-87,8,-56
1491693285713,1,-21,15,115,-10,-19,14,-93,-33
1491693285713,1,26,7,-47,-128,-3,99,73,-17
1491693285714,2,-33,-20,-52,53,-111,18,-18,-22
1491693285714,2,36,-62,-35,-94,-92,99,-57,-25
1491693285760,3,-19,-23,-119,-1,105,-64,-71,-12
1491693285760,3,-10,1,50,8,-20,-35,1,-9
1491693285761,0,-8,4,37,53,39,11,-36,27
1491693285761,0,30,114,127,-125,26,127,-27,-25
1491693285762,2,14,-6,21,-37,26,0,-20,-16
1491693285762,2,-43,-3,28,-59,-46,-106,-6,-104
1491693285763,3,46,72,79,-123,32,127,98,54
1491693285763,3,-49,38,14,120,-4,-95,-36,4
1491693285809,0,11,-43,-87,-89,-60,-110,36,-52
1491693285809,0,23,26,-18,-14,-8,94,61,53
1491693285810,1,-50,-3,77,38,97,-35,-24,58
1491693285810,1,9,22,9,1,-60,115,32,-24
1491693285811,3,21,17,-10,-118,-127,-7,45,1
1491693285811,3,-42,-34,-32,54,19,-36,-35,-37
1491693285812,0,-26,-10,-86,-37,-33,-80,-89,9
1491693285812,0,16,-37,-98,-27,54,47,119,65
1491693285858,1,1,24,72,76,50,26,-58,-12
1491693285858,1,-28,29,-13,-35,56,-9,-24,-12
1491693285859,2,81,18,-74,-38,-21,-14,-27,26
1491693285859,2,-25,-24,32,101,-16,-128,-69,-9
1491693285860,0,-12,89,94,-76,17,70,44,-18
1491693285860,0,12,-54,-98,127,-96,-88,-45,30
1491693285861,1,-16,-36,-128,-26,-45,44,88,14
1491693285861,1,-24,-52,-45,-35,-128,11,21,-6
1491693285906,2,9,-4,-128,-128,-128,8,-36,-7
1491693285906,2,12,90,127,99,26,97,70,-56
1491693285907,3,14,18,-114,-48,-128,-21,-27,20
1491693285907,3,-6,-49,-85,6,-20,-62,-72,-30
1491693285908,1,16,26,61,71,93,54,-60,-42
1491693285908,1,-3,40,127,18,100,8,76,-12
1491693285955,2,24,22,57,-38,57,-48,-55,33
1491693285955,2,-33,-68,89,-9,73,-47,69,-62
1491693285956,3,22,3,127,72,47,-76,56,53
1491693285956,3,10,102,127,71,59,108,25,-29
1491693286004,0,-11,-63,-87,65,31,-33,2,-19
1491693286004,0,-44,-77,-83,-14,29,-82,-128,-39
1491693286053,2,16,72,30,38,5,45,-24,-5
1491693286053,2,8,45,-78,-128,11,58,91,-38
1491693286199,3,-11,-51,-43,36,3,-128,-78,-4
1491693286199,3,32,13,-59,-52,9,-16,0,51
1491693286199,0,-16,33,103,-17,-8,21,-4,-51
1491693286199,0,-14,-12,13,-70,6,21,-7,25
1491693286200,2,-5,19,32,11,-2,-18,8,13
1491693286200,2,-7,3,1,0,-1,48,-28,-33
1491693286201,3,-21,7,45,-62,1,-62,-57,-49
1491693286201,3,3,-9,75,79,26,-14,-20,49
1491693286247,3,-26,63,94,116,52,40,6,-29
1491693286247,3,-17,-24,-58,69,-60,-71,-98,-53
1491693286248,0,-7,102,66,-114,88,11,83,19
1491693286248,0,-2,-21,106,-40,-5,-27,-85,-48
1491693286249,1,11,-23,-79,89,18,51,86,72
1491693286249,1,20,-56,-53,-41,-128,-39,-30,-19
1491693286250,3,-1,39,38,-14,-29,15,-56,-27
1491693286250,3,-21,-26,-45,20,77,76,43,18
1491693286296,0,-61,-23,-91,-83,-128,-128,-116,-68
1491693286296,0,100,0,-71,-28,28,62,100,76
1491693286297,1,-47,-29,5,-29,-30,64,-53,17
1491693286297,1,-44,36,55,45,52,44,95,-22
1491693286297,0,-42,20,50,-6,32,59,41,13
1491693286297,0,12,7,72,85,-59,-35,-54,-44
1491693286299,1,12,5,76,-75,113,91,16,23
1491693286299,1,-25,16,68,-47,-84,-50,-17,-33
1491693286345,2,-30,-83,-68,4,-128,-128,-34,-18
1491693286345,2,-48,13,28,-76,46,58,23,-15
1491693286346,3,51,-40,-16,-61,80,17,-35,-43
1491693286346,3,10,42,42,26,87,58,-17,44
1491693286347,0,-7,64,-41,1,-70,-55,-81,-3
1491693286347,0,11,9,-12,-29,14,29,83,30
1491693286348,1,-36,-16,-36,-32,-3,59,35,-23
1491693286348,1,19,-50,32,57,-14,-45,-1,9
1491693286394,2,24,35,59,118,-18,34,-50,21
1491693286394,2,-30,-52,-16,-15,81,32,-106,-68
1491693286395,3,-5,41,4,39,-128,-81,57,51
1491693286395,3,38,25,-58,54,82,81,14,20
1491693286396,1,-33,-61,-123,86,0,20,-28,22
1491693286396,1,-68,-39,-22,-21,-70,-87,-72,-100
1491693286397,2,38,24,127,127,49,-26,56,17
1491693286397,2,-31,53,54,42,93,127,-34,-19
1491693286443,3,28,70,-44,33,-6,-6,-8,7
1491693286443,3,-50,-95,-128,-107,-128,-21,-47,0
1491693286445,0,70,69,106,-68,127,127,117,-40
1491693286445,0,-40,-6,-103,4,18,-21,-100,-49
1491693286446,2,-26,14,84,-53,12,42,-69,-26
1491693286446,2,14,3,-82,121,30,57,15,10
1491693286448,3,-18,-33,24,-8,-75,-98,-106,-41
1491693286448,3,12,38,-11,-61,51,71,71,27
1491693286540,0,-3,-80,-89,-32,-125,-89,-82,12
1491693286540,0,12,90,127,52,124,63,101,26
1491693286542,1,-68,-15,-128,49,-78,48,-21,-44
1491693286542,1,41,-16,-43,49,-73,-82,38,13
1491693286543,3,-7,15,127,8,73,36,91,-22
1491693286543,3,51,116,125,-26,127,115,-103,-47
1491693286544,0,-19,-75,-128,127,-118,-42,73,23
1491693286544,0,-63,-65,-12,-34,-32,-128,-109,-68
1491693286589,1,12,31,127,15,103,0,-11,63
1491693286589,1,-7,-14,-69,-44,27,22,22,17
1491693286590,2,7,58,126,-13,127,127,67,2
1491693286590,2,-1,2,-43,31,-71,-27,-60,11
1491693286591,0,30,-2,-101,-112,-75,-15,-91,31
1491693286591,0,-3,-55,-68,-63,-51,117,25,9
1491693286592,1,15,-11,30,-59,63,127,-6,-21
1491693286592,1,13,-12,48,9,26,-36,34,48
1491693286638,2,-37,63,83,-28,89,13,-22,-39
1491693286638,2,11,8,27,73,-18,5,-22,24
1491693286639,3,12,-44,-3,37,-101,-121,-28,80
1491693286639,3,37,42,19,-95,50,102,55,5
1491693286640,2,-28,-32,62,-65,-45,-16,-25,54
1491693286640,2,-27,16,54,-6,46,74,127,-68
1491693286641,3,78,33,-23,-93,75,109,36,40
1491693286641,3,-6,21,-39,95,-57,-53,-18,19
1491693286686,0,-9,10,-21,114,57,94,30,2
1491693286686,0,-18,-7,86,-37,26,-71,-90,-59
1491693286687,1,107,39,-27,-37,79,91,96,38
1491693286687,1,-23,87,119,-88,81,125,-98,-35
1491693286688,2,-12,-106,-128,55,-66,-91,127,24
1491693286688,2,-36,-24,44,111,-31,11,-78,104
1491693286690,3,-14,-27,-76,-27,-28,-55,-120,-52
1491693286690,3,28,-21,-42,-58,-84,12,92,17
1491693286735,0,32,30,45,-81,48,61,40,74
1491693286735,0,-1,9,-23,-13,66,-3,0,-2
1491693286736,1,-44,12,-15,-86,7,-38,-60,-101
1491693286736,1,12,0,57,127,-28,-4,-8,41
1491693286737,3,-44,16,89,52,20,-51,-90,43
1491693286737,3,-45,-39,-21,-62,72,63,75,-119
1491693286738,0,-2,35,67,-66,70,-55,-43,39
1491693286738,0,0,83,97,69,127,62,-14,5
1491693286784,1,39,-12,-48,14,-110,-70,20,79
1491693286784,1,-40,-40,-65,-55,-17,30,4,34
1491693286785,2,0,73,93,15,79,-54,9,8
1491693286785,2,-38,-7,-128,2,-125,-46,-7,-38
1491693286785,0,15,-13,-25,49,51,94,-4,-121
1491693286785,0,45,81,-27,-127,58,98,84,26
1491693286786,1,-36,-3,-76,18,-74,-65,-53,-29
1491693286786,1,25,-109,-128,114,15,-43,-67,-12
1491693286832,2,-36,17,49,-119,53,-35,32,82
1491693286832,2,38,36,127,-26,127,97,-64,-4
1491693286833,3,39,-47,-108,27,0,47,0,-58
1491693286833,3,-13,-16,-34,-93,6,-112,88,84
1491693286834,1,-42,29,100,-45,7,-16,73,-13
1491693286834,1,-33,3,127,110,48,-5,30,22
1491693286835,2,73,67,84,-21,0,103,30,-54
1491693286835,2,-19,-62,-103,-89,-84,-128,6,20
1491693286882,3,-36,49,116,88,72,73,-81,-53
1491693286882,3,94,-2,-8,127,-37,-36,-128,70
1491693286883,0,-82,-52,4,-8,-39,8,59,79
1491693286883,0,-5,14,-92,15,-112,-31,-4,-128
1491693286884,2,39,16,26,-56,-58,-97,-128,21
1491693286884,2,-82,38,19,3,-37,46,106,-29
1491693286884,3,53,43,70,86,60,-42,-27,95
1491693286884,3,-27,7,-9,87,-25,-5,47,-25
1491693286930,0,-24,-120,-128,-105,-128,-71,-87,-86
1491693286930,0,17,-46,-16,88,56,51,-80,34
1491693286931,1,-17,26,59,21,-20,-122,-94,-48
1491693286931,1,-9,51,127,46,30,108,4,34
1491693286932,3,-47,-47,-81,114,-59,-40,-40,-20
1491693286932,3,20,-14,-100,-128,-31,-34,-10,-28
1491693286933,0,-15,18,65,127,-10,117,-26,62
1491693286933,0,21,62,-84,-122,-112,-15,-60,-111
1491693286979,1,-89,-84,-99,-10,-117,54,27,25
1491693286979,1,16,12,20,-108,-43,9,3,-108
1491693287028,2,-11,-38,-41,41,-114,26,7,4
1491693287028,2,-26,26,114,-37,127,101,-19,-42
1491693287037,0,-28,-38,-106,-44,-39,-57,-67,-82
1491693287037,0,29,-66,57,18,59,-40,-20,105
1491693287038,1,-21,38,-37,-90,-104,117,127,-126
1491693287038,1,-24,-75,-66,94,9,-82,-97,65
1491693287040,2,9,20,-67,-100,-37,-25,18,82
1491693287040,2,-46,-15,-29,-77,8,62,-97,-60
1491693287076,3,12,-21,36,3,96,127,-54,33
1491693287076,3,45,75,127,-114,-8,-106,-80,53
1491693287125,1,37,-7,12,42,114,-58,-28,-27
1491693287125,1,41,0,-66,-72,-77,-27,-56,-18
1491693287127,2,-18,-9,43,-28,3,56,-51,21
1491693287127,2,-14,-77,-51,108,40,-85,23,4
1491693287128,1,-25,-51,-71,88,-27,-76,-19,-72
1491693287128,1,-50,-85,-54,104,-38,-9,-104,-47
1491693287130,2,24,-19,-77,-103,-12,85,58,-25
1491693287130,2,20,-16,11,127,-59,-19,-51,-65
1491693287174,3,21,88,61,-94,-43,-44,112,114
1491693287174,3,-43,32,92,75,87,-24,-73,-107
1491693287178,2,31,26,127,90,55,15,48,-97
1491693287178,2,-15,84,71,87,99,98,37,10
1491693287180,3,7,-5,-46,-83,-92,-88,-128,-20
1491693287180,3,60,0,22,56,-70,27,-17,127
1491693287181,3,-10,35,5,-65,-79,-84,81,61
1491693287181,3,34,4,-43,-73,-34,120,0,-65
1491693287223,0,65,1,48,117,80,-52,-21,82
1491693287223,0,-82,-5,-61,-115,-68,-98,-128,-45
1491693287224,1,21,3,41,105,33,51,50,102
1491693287224,1,-16,-51,-1,87,-7,4,-87,-15
1491693287226,0,24,26,127,-24,6,-39,-19,30
1491693287226,0,4,-81,-128,127,-16,-108,-90,7
1491693287227,1,3,-65,-64,-121,-42,-16,-35,-17
1491693287227,1,-33,35,66,-56,89,127,78,16
1491693287274,2,11,65,75,83,-89,4,36,45
1491693287274,2,-7,8,69,-38,101,-36,-75,22
1491693287275,3,-20,-1,-47,90,69,48,125,-15
1491693287275,3,40,-40,-81,-79,-100,-68,-101,-48
1491693287278,1,-47,55,93,-27,127,52,-128,-97
1491693287278,1,55,48,10,8,12,43,-51,-28
1491693287279,2,-2,-51,-96,50,-60,18,111,-67
1491693287279,2,-1,-73,-64,127,23,80,43,13
1491693287320,3,0,59,127,-80,32,59,-47,-33
1491693287320,3,-28,-34,-57,43,-51,-47,127,31
1491693287322,0,13,57,31,8,-29,50,-37,-25
1491693287322,0,13,111,127,-103,33,-75,-22,117
1491693287323,2,-34,-39,65,-77,-25,-54,70,-64
1491693287323,2,63,14,16,127,112,-70,-42,38
1491693287324,3,-26,9,-12,-121,-31,70,101,67
1491693287324,3,-57,57,77,-54,32,40,-69,-86
1491693287369,0,-1,-31,-14,23,-96,-82,-128,-11
1491693287369,0,-39,-60,-84,-128,-17,63,14,-104
1491693287370,1,76,18,126,103,89,74,88,27
1491693287370,1,-25,20,-114,87,-76,-32,-34,51
1491693287371,3,-29,-2,30,104,4,2,67,63
1491693287371,3,-16,-9,4,49,95,120,117,-87
1491693287372,0,35,-15,-8,-117,-76,-48,-80,69
1491693287372,0,-72,-107,-116,91,38,9,-72,-56
1491693287417,1,99,125,117,-5,71,-54,-7,47
1491693287417,1,-45,-55,-69,31,-51,28,71,121
1491693287419,2,-33,-57,30,-65,13,20,-35,-88
1491693287419,2,18,72,5,81,-41,49,38,120
1491693287420,3,21,-58,-76,86,24,-52,62,-9
1491693287420,3,-4,-3,0,-62,-46,-20,-86,15
1491693287421,0,39,28,19,-77,93,71,80,59
1491693287421,0,-35,16,10,10,5,-9,-37,39
1491693287466,1,-93,-2,83,23,106,32,47,41
1491693287466,1,121,82,24,35,-86,-128,52,62
1491693287467,2,16,1,-117,-7,71,127,39,65
1491693287467,2,18,-10,72,97,-12,-92,-51,-120
1491693287468,0,-53,-34,-38,123,-114,-5,-5,-103
1491693287468,0,86,-8,-100,-128,-115,85,41,82
1491693287469,1,-24,-68,-106,-88,-6,-51,-128,-9
1491693287469,1,-64,72,102,-108,-72,15,105,-38
1491693287515,2,76,53,109,44,127,119,-15,-66
1491693287515,2,-93,-3,98,43,21,-72,-57,-78
1491693287564,3,-9,-89,-95,-85,-118,2,-112,5
1491693287564,3,87,-44,-99,19,37,44,-60,107
1491693287565,1,-24,-9,-4,70,-104,-32,-51,-2
1491693287565,1,-13,39,52,-64,-69,31,-7,-85
1491693287566,2,-38,-122,-128,41,-118,-128,-124,3
1491693287566,2,50,84,100,-98,101,-45,102,52
1491693287567,3,-6,66,74,25,-6,95,127,-102
1491693287567,3,65,-105,-128,-38,-44,-40,-64,85
1491693287613,0,-15,44,97,20,8,23,-22,106
1491693287613,0,-20,-7,7,6,10,127,104,-78
1491693287614,2,28,74,48,88,64,66,39,-117
1491693287614,2,-8,-80,-94,-20,-127,41,14,127
1491693287615,3,-43,-53,34,-57,127,89,-73,-45
1491693287615,3,73,32,74,-49,115,127,21,-74
1491693287616,3,95,-6,59,-96,21,22,-40,56
1491693287616,3,-55,15,9,0,91,120,34,38
1491693287661,0,25,-2,16,-31,-128,-68,18,-84
1491693287661,0,-57,-23,13,60,43,64,-33,37
1491693287663,1,-10,-19,-75,108,82,6,-32,11
1491693287663,1,19,23,25,-38,-112,96,80,46
1491693287665,0,-38,-11,-35,41,61,-42,25,-29
1491693287665,0,-12,34,43,-46,-7,16,-118,-38
1491693287665,1,11,99,127,-62,127,127,78,-15
1491693287665,1,-19,-16,-57,127,-101,-114,-77,-41
1491693287710,2,13,-66,4,-121,-57,73,67,1
1491693287710,2,-4,-51,-100,48,-29,-51,-60,-78
1491693287711,3,51,52,88,-109,-95,63,-42,95
1491693287711,3,-23,12,-19,-39,110,-38,97,-30
1491693287712,1,67,9,-126,-21,-122,-62,-9,-22
1491693287712,1,-61,-33,84,105,102,126,15,-53
1491693287713,2,53,-23,-128,-25,-31,127,-69,55
1491693287713,2,-20,-28,16,-31,-114,-88,23,2
1491693287764,3,-5,41,50,119,127,-23,22,25
1491693287764,3,-20,4,-41,29,-128,-51,-49,-10
1491693287765,0,-5,-40,8,0,4,-55,57,11
1491693287765,0,2,-18,-33,-63,-89,-19,-96,-18
1491693287765,1,-35,63,83,-128,34,-62,99,-27
1491693287765,1,49,11,37,87,8,5,-53,38
1491693287766,2,-3,16,41,103,47,48,84,27
1491693287766,2,23,-32,-105,95,15,-42,-70,20
1491693287807,3,-66,-79,-124,-67,-121,-36,-70,4
1491693287807,3,19,63,86,-29,127,98,89,7
1491693287856,0,-18,14,79,-56,-128,-42,36,39
1491693287856,0,19,42,127,48,70,-55,-91,-9
1491693287857,2,7,48,110,62,-64,61,-51,-11
1491693287857,2,-2,22,-89,29,98,-57,-10,27
1491693287857,3,-10,-73,-106,82,-119,93,-59,-41
1491693287857,3,-41,-12,-1,-5,6,-128,-128,8
1491693287858,0,3,71,92,-128,72,127,127,-41
1491693287858,0,17,-48,-42,127,-95,-67,5,8
1491693287905,1,-1,-63,-34,-83,5,-95,-35,-18
1491693287905,1,-4,30,53,6,-45,83,-5,-57
1491693287906,3,11,21,16,33,22,70,66,36
1491693287906,3,-8,70,60,-80,-105,-33,-24,27
1491693287906,0,7,-68,-113,106,-92,12,-14,-14
1491693287906,0,-5,79,102,-128,-96,118,-25,-51
1491693287907,0,-72,-114,-128,78,6,-126,-128,-77
1491693287907,0,-6,-8,20,-94,88,16,11,38
1491693287954,1,47,46,106,-97,127,57,-55,37
1491693287954,1,-4,53,73,-4,98,-43,72,30
1491693287954,2,15,-39,103,-120,37,2,84,-13
1491693287954,2,-14,0,127,98,83,4,-41,43
1491693287955,1,-18,33,-55,-107,41,13,-53,-30
1491693287955,1,-29,0,22,127,25,-45,17,11
1491693287956,2,58,42,5,3,1,59,-44,5
1491693287956,2,20,2,-88,-118,1,-7,79,39
1491693288002,3,-15,-12,-90,64,13,-53,-16,-35
1491693288002,3,-21,-81,-73,-32,14,-18,-56,-3
1491693288003,0,-28,28,-35,10,-16,33,29,-1
1491693288003,0,32,22,-51,-92,-8,57,52,16
1491693288004,2,24,26,-36,-17,-12,41,-36,19
1491693288004,2,-20,-6,28,103,-1,61,-7,-51
1491693288005,3,1,-16,-94,9,11,3,8,95
1491693288005,3,39,22,-6,69,-1,-63,-46,-54
1491693288051,0,-20,-28,-1,-28,-12,-90,-56,0
1491693288051,0,-4,40,32,83,12,54,77,-1
1491693288052,1,-55,-51,8,-86,62,-6,-9,-56
1491693288052,1,-5,-5,-83,-93,-50,-66,-14,37
1491693288053,3,-1,-46,-59,127,-36,-106,6,-20
1491693288053,3,-16,6,3,-15,73,54,-7,-24
1491693288053,0,12,95,74,-49,43,63,52,-13
1491693288053,0,-6,-59,-43,100,13,-65,-65,-24
1491693288100,1,2,-30,-52,31,-89,-19,12,7
1491693288100,1,-6,-16,5,-35,-11,32,-1,13
1491693288103,2,-2,-3,66,-19,74,-14,12,1
1491693288103,2,7,-11,-30,-101,-78,60,-25,-7
1491693288104,0,-9,-63,-98,126,-105,-58,-46,19
1491693288104,0,16,47,109,25,105,48,-12,-33
1491693288104,1,-8,7,-87,35,-72,-18,27,-25
1491693288104,1,22,-7,-7,66,-37,60,46,11
1491693288149,2,28,52,28,-67,17,-28,5,15
1491693288149,2,-26,-81,-65,-44,-117,-88,-26,22
1491693288150,3,-9,73,127,34,126,96,-6,-20
1491693288150,3,42,71,-22,64,-38,61,7,19
1491693288150,0,-32,-106,-128,-8,-128,-46,-33,-10
1491693288150,0,-9,29,3,-24,44,-128,-81,-36
1491693288151,1,-9,-27,22,46,-20,-33,3,-11
1491693288151,1,3,-35,-1,-67,-53,29,20,10
1491693288197,2,9,-10,4,-62,52,46,-1,-19
1491693288197,2,11,49,-20,50,38,73,45,2
1491693288198,3,50,-13,21,-20,-36,-50,32,1
1491693288198,3,-28,49,105,106,88,76,12,6
1491693288199,1,8,41,92,42,57,56,-45,2
1491693288199,1,-18,-15,-24,-2,3,-13,-50,-17
1491693288200,2,3,19,127,-65,73,127,49,39
1491693288200,2,-11,113,127,18,107,34,-10,5
1491693288246,3,-23,-116,-128,20,-128,-128,-63,-25
1491693288246,3,-3,9,34,-128,-57,24,0,17
1491693288295,0,2,9,37,52,89,-10,-36,-28
1491693288295,0,91,68,71,15,50,6,82,10
1491693288296,2,-28,18,8,-32,-12,-46,-3,12
1491693288296,2,-44,-82,-21,-64,-68,-56,-33,-4
1491693288297,3,41,27,-100,49,63,90,18,1
1491693288297,3,25,-99,-17,55,-64,-54,64,57
1491693288298,0,-2,48,55,108,-56,27,-49,4
1491693288298,0,4,37,62,64,61,40,46,-11
1491693288393,1,-38,-39,-43,62,-97,-60,-36,34
1491693288393,1,6,37,-56,-78,-3,-7,-52,-83
1491693288394,3,94,47,60,-39,122,90,45,27
1491693288394,3,-31,-23,-32,81,127,-47,-2,4
1491693288395,0,-7,35,47,-120,46,50,81,-45
1491693288395,0,-26,-116,-120,126,-128,-86,-128,-40
1491693288396,0,5,65,-8,25,112,19,-22,-24
1491693288396,0,3,52,70,-24,53,27,-5,45
1491693288441,1,6,55,13,-14,84,59,-1,-31
1491693288441,1,-41,-43,19,-81,-60,-75,52,15
1491693288490,2,80,-86,-128,-20,-124,-54,21,28
1491693288490,2,-60,-57,-45,-31,-37,20,-22,-29
1491693288491,1,-88,26,53,-83,75,8,-31,-58
1491693288491,1,72,2,23,-18,127,46,2,12
1491693288492,2,-31,-35,-94,73,-58,-29,54,-11
1491693288492,2,23,-64,-37,-105,-31,-52,-16,-1
1491693288493,3,-15,-6,40,-11,65,-8,53,22
1491693288493,3,6,-40,62,54,75,8,-18,-13
1491693288539,0,3,103,127,73,127,109,-8,14
1491693288539,0,-13,0,-58,-2,-33,42,87,3
1491693288540,2,-2,-37,-62,-68,-119,-128,-118,12
1491693288540,2,-37,3,-9,10,-12,72,72,-29
1491693288541,3,-30,34,54,-22,1,15,-128,0
1491693288541,3,-13,-12,28,60,32,97,65,12
1491693288542,0,65,-15,-51,-120,32,36,9,13
1491693288542,0,-27,18,111,70,-10,100,20,17
1491693288587,1,19,28,0,-31,122,94,5,-1
1491693288587,1,-52,-82,-113,84,-124,-75,-60,10
1491693288588,2,4,-9,-7,-49,-55,-51,2,-50
1491693288588,2,-19,8,-80,-37,-63,7,-81,2
1491693288590,0,-6,45,54,14,124,36,-1,-8
1491693288590,0,33,17,54,61,-33,14,0,13
1491693288590,1,-12,-6,63,83,43,-42,-8,-10
1491693288590,1,-33,-72,-78,-111,-62,1,-61,-54
1491693288639,2,23,71,76,-75,85,127,75,-10
1491693288639,2,-13,-7,-33,-117,-128,-128,68,49
1491693288640,3,-13,-78,-69,127,-7,82,-60,-62
1491693288640,3,18,64,107,-42,96,79,33,34
1491693288641,1,-15,9,39,-65,-119,-100,16,-34
1491693288641,1,34,36,41,116,88,102,-46,41
1491693288642,2,-22,-83,-128,-53,-128,-128,-3,15
1491693288642,2,-3,25,108,-125,127,78,4,-2
1491693288692,3,-30,-7,-4,127,-71,89,-22,-29
1491693288692,3,59,50,31,-84,43,-24,-24,-17
1491693288693,0,-22,-13,31,118,-87,7,61,-24
1491693288693,0,15,-44,-83,-102,-11,-17,-38,6
1491693288703,2,58,47,114,75,-29,63,57,75
1491693288703,2,-16,-39,-125,-76,-51,-28,27,-20
1491693288705,3,-28,-72,-30,18,-120,-92,-56,-27
1491693288705,3,21,34,89,28,70,110,29,2
1491693288736,0,-10,31,48,-124,77,81,14,9
1491693288736,0,-2,29,88,127,-15,-78,-15,-24
1491693288737,1,23,14,-1,-15,85,127,29,29
1491693288737,1,44,-8,-99,-74,-128,-128,-101,-26
1491693288737,3,6,26,-96,8,-73,102,-30,7
1491693288737,3,-45,-45,-124,-47,-128,-8,-1,2
1491693288738,0,38,27,72,70,57,88,-25,-10
