1491693113820,1,1,-8,-1,-2,3,3,-2,0
1491693113820,1,-2,8,-1,1,-3,-3,-1,-2
1491693113822,2,-1,3,-5,-3,-3,-3,0,-3
1491693113822,2,-3,-8,-5,-2,-8,-7,-4,0
1491693113822,0,-7,-30,-3,0,3,1,-1,-2
1491693113822,0,0,10,-2,-3,4,3,-2,0
1491693113823,1,5,10,1,-5,-7,0,4,-1
1491693113823,1,1,-29,-6,-5,-7,-10,-3,0
1491693113869,2,-2,4,0,-2,-10,-4,2,-2
1491693113869,2,-7,-23,-7,1,6,5,-2,4
1491693113870,3,-3,-32,-7,3,-4,-11,0,-4
1491693113870,3,-2,19,4,1,0,5,1,-1
1491693113871,1,1,-6,-3,0,1,1,-3,1
1491693113871,1,-3,-13,0,1,-4,-4,-5,0
1491693113918,0,-4,-27,-2,1,1,5,4,0
1491693113918,0,1,5,-8,0,-4,0,-4,-5
1491693113919,1,10,-5,10,1,1,0,0,-1
1491693113919,1,16,15,3,-1,0,-4,0,-5
1491693113921,2,-1,27,13,-2,-1,-3,5,6
1491693113921,2,-9,-30,-11,-1,-2,-4,-11,-1
1491693113922,0,-2,-31,-9,-4,-2,1,-3,-8
1491693113922,0,28,79,19,4,1,3,2,2
1491693113967,1,18,-35,-15,-4,-8,-3,0,5
1491693113967,1,-12,-13,2,-1,0,-4,2,0
1491693113968,2,17,-2,2,1,6,-3,-6,-6
1491693113968,2,-51,-53,-24,-9,-3,-7,3,3
1491693113969,1,15,-24,-12,-6,-6,-10,-12,4
1491693113969,1,12,4,-4,-7,-14,-4,-5,0
1491693113971,2,-10,-2,-3,-4,6,14,-13,-14
1491693113971,2,16,-22,-1,3,9,15,29,0
1491693114064,3,-49,-28,-9,-7,-7,-7,3,2
1491693114064,3,-10,15,2,-1,-5,-14,-18,-8
1491693114066,0,15,2,0,-1,-10,-8,-11,10
1491693114066,0,3,-1,1,-1,-4,-11,-16,-11
1491693114067,2,-3,-3,-7,-2,-2,-4,6,-4
1491693114067,2,-8,11,-2,-4,-5,-5,-22,4
1491693114068,3,1,3,-3,2,-7,-8,-7,-7
1491693114068,3,-11,-4,-2,0,1,5,-5,2
1491693114113,0,7,6,1,2,7,12,7,1
1491693114113,0,-7,-11,-9,-7,-6,9,-8,-8
1491693114115,1,8,15,10,5,10,23,11,-1
1491693114115,1,4,-2,-9,-1,0,15,0,-12
1491693114116,3,-7,-3,3,0,7,-21,-10,-4
1491693114116,3,6,-10,-4,-3,5,14,63,32
1491693114117,0,-2,3,1,-3,-9,-24,-56,-18
1491693114117,0,-6,-11,-3,-6,-7,-24,-21,15
1491693114162,1,-2,-1,2,0,3,10,-34,-3
1491693114162,1,12,10,10,4,2,-8,54,16
1491693114163,2,-3,2,11,8,10,11,16,-11
1491693114163,2,-2,0,10,7,8,9,21,-9
1491693114164,0,3,8,-1,-19,-16,-12,8,-15
1491693114164,0,5,-3,-6,-15,-3,-24,-103,10
1491693114164,1,1,-1,10,-6,13,13,70,37
1491693114164,1,-8,5,34,19,23,18,14,-20
1491693114210,2,-10,8,51,20,21,-11,-63,-3
1491693114210,2,-6,-8,7,30,30,-15,49,-25
1491693114212,3,0,-20,12,-10,5,-1,13,-3
1491693114212,3,7,-24,-84,-47,4,34,120,18
1491693114213,1,6,0,-5,7,13,-5,-77,-23
1491693114213,1,5,-4,4,11,-23,-17,-14,4
1491693114213,2,-18,-21,-42,-1,-23,-13,-43,4
1491693114213,2,-2,-2,5,6,-7,4,13,-4
1491693114259,3,-6,7,0,13,-7,2,40,-17
1491693114259,3,-13,-6,20,22,21,-1,-79,-11
1491693114261,0,4,0,12,5,-20,14,11,14
1491693114261,0,-15,-3,-39,-27,3,2,17,-18
1491693114262,2,9,0,23,13,-1,-5,96,28
1491693114262,2,-24,-13,12,6,2,11,44,-1
1491693114263,3,-23,-5,0,-4,-7,-13,-15,-39
1491693114263,3,-13,-17,-21,-5,-20,-32,-105,5
1491693114308,0,-7,-4,0,20,20,23,25,9
1491693114308,0,35,8,3,-4,8,12,63,17
1491693114310,1,-13,13,18,5,-8,-6,15,7
1491693114310,1,-27,-15,3,-6,-17,0,3,-3
1491693114311,3,5,6,-6,-2,1,3,-15,2
1491693114311,3,-11,-6,8,2,-7,-4,6,-11
1491693114312,0,0,-4,-2,-2,8,0,-19,-6
1491693114312,0,20,-17,0,2,7,2,10,9
1491693114357,1,24,15,4,5,0,2,-15,-11
1491693114357,1,-23,-1,4,-4,-5,7,22,7
1491693114358,2,-5,-5,-23,-7,2,-7,-10,-3
1491693114358,2,-10,9,8,-4,-6,-3,-8,6
1491693114360,0,34,-24,-12,-2,3,-1,4,4
1491693114360,0,11,20,15,-3,-4,-5,-13,-1
1491693114361,1,-40,-3,0,-4,-8,-12,-13,-10
1491693114361,1,12,33,8,-1,1,13,18,-7
1491693114454,2,-3,9,5,2,11,17,-13,-2
1491693114454,2,-8,-11,-4,-3,-4,-1,-9,-6
1491693114455,3,25,7,-2,1,2,14,11,1
1491693114455,3,-25,-21,-5,4,-3,-7,-2,6
1491693114456,0,5,-34,-52,-21,-11,-7,1,-17
1491693114456,0,-5,18,0,6,2,-4,3,-7
1491693114457,1,-7,14,44,-8,-8,-8,-20,2
1491693114457,1,11,-20,5,2,5,8,12,-3
1491693114503,2,-49,-27,-12,-5,-2,-3,-5,-9
1491693114503,2,-44,-37,-14,4,1,-4,-1,3
1491693114504,3,47,34,-41,14,6,6,-1,-4
1491693114504,3,2,58,6,-3,3,1,-7,-6
1491693114505,1,-39,-51,-33,-11,-2,-3,-8,-11
1491693114505,1,33,67,2,22,7,6,7,5
1491693114506,2,-10,28,8,4,-4,56,12,-1
1491693114506,2,12,-21,-45,16,11,13,11,42
1491693114552,3,-71,-35,1,2,-11,-14,-57,-32
1491693114552,3,11,-107,-96,-35,-11,-21,-20,9
1491693114553,0,77,75,-8,-7,-8,-2,16,-4
1491693114553,0,2,60,32,7,13,6,22,-12
1491693114554,3,-7,41,11,1,-7,-18,27,10
1491693114554,3,15,-27,-9,9,9,14,-28,-27
1491693114555,0,-9,39,42,14,-7,-14,5,13
1491693114555,0,4,-15,-53,19,12,14,42,4
1491693114600,1,-83,-14,52,-33,-46,-56,-87,-53
1491693114600,1,7,-2,28,-22,-14,-14,-23,-5
1491693114602,2,67,109,-18,-16,24,38,74,12
1491693114602,2,7,-83,-18,16,2,-11,7,12
1491693114603,0,-39,-45,75,4,-12,-28,-39,25
1491693114603,0,17,53,-18,-39,-8,9,65,4
1491693114649,1,14,-51,-40,-1,11,-14,10,8
1491693114649,1,3,79,22,11,15,16,33,4
1491693114651,2,-61,-45,-13,-7,-6,-26,-57,-48
1491693114651,2,20,-5,-6,-2,-1,39,2,22
1491693114652,3,-18,-8,9,12,2,1,-8,2
1491693114652,3,-9,-14,-5,2,-2,2,6,-3
1491693114653,1,24,50,93,4,8,11,0,-1
1491693114653,1,-15,-21,-5,-6,0,-3,5,9
1491693114698,2,16,32,-20,-6,-2,14,7,-7
1491693114698,2,-6,-21,-15,-9,-14,-6,14,32
1491693114700,3,-86,-51,-58,-9,-10,1,-4,-20
1491693114700,3,9,4,-3,3,-2,1,3,14
1491693114702,2,27,0,-7,25,-3,41,14,22
1491693114702,2,9,-22,-62,-24,-3,-17,-16,-25
1491693114747,3,-18,-54,-43,8,-5,-12,-21,2
1491693114747,3,-8,55,89,-2,-5,-7,-3,-6
1491693114748,0,-2,0,15,-9,-10,12,27,31
1491693114748,0,0,-3,-32,-7,1,-3,-9,-22
1491693114749,1,14,11,-22,-31,1,10,3,-7
1491693114749,1,-7,-38,-23,31,15,1,0,-5
1491693114750,2,-45,-15,7,-5,-8,-11,-20,-7
1491693114750,2,11,19,69,19,-7,-16,-2,13
1491693114795,3,-6,-14,-31,-1,1,5,1,-3
1491693114795,3,6,-49,-25,-12,-11,-1,-5,-1
1491693114797,0,19,34,40,2,-1,-38,-8,-13
1491693114797,0,10,35,-24,11,6,3,11,9
1491693114798,1,9,2,-9,30,26,49,-1,-8
1491693114798,1,-6,-24,16,7,2,11,11,8
1491693114799,3,-8,-39,-36,-27,-16,-31,-27,-6
1491693114799,3,7,46,-17,-22,-36,-40,-3,-1
1491693114844,0,-9,-68,-20,-17,-29,-59,-17,-5
1491693114844,0,-8,-25,47,14,33,33,5,2
1491693114846,1,5,114,50,11,12,33,14,-3
1491693114846,1,5,-93,-39,2,22,37,-3,-2
1491693114847,0,0,64,24,9,-3,-7,-3,-1
1491693114847,0,-6,-128,-44,0,8,-18,-10,-4
1491693114847,1,-14,25,-4,-23,-63,-91,-28,-8
1491693114847,1,3,-24,-4,-2,-2,15,7,-4
1491693114893,2,4,-79,-33,-13,-17,-12,-8,-5
1491693114893,2,-27,-22,12,-1,18,6,-3,-3
1491693114894,3,28,107,64,8,20,26,10,12
1491693114894,3,0,4,-20,-5,-7,-3,-6,1
1491693114895,1,3,72,99,23,4,-32,-5,3
1491693114895,1,-2,-85,-21,12,4,5,4,1
1491693114896,2,3,-5,11,-16,19,19,5,3
1491693114896,2,-4,77,-5,-15,-3,-17,-8,-4
1491693114941,3,-7,-86,-107,-43,2,-20,-13,-10
1491693114941,3,5,-29,-20,24,24,8,6,13
1491693114942,0,-1,-15,37,17,4,-1,3,-2
1491693114942,0,-9,-4,9,6,-3,9,-1,-9
1491693114943,2,-20,81,-35,0,-8,8,3,-4
1491693114943,2,13,5,23,5,7,18,11,5
1491693114990,3,7,65,25,9,-10,-4,2,0
1491693114990,3,-11,-44,3,-19,-24,-14,-9,-10
1491693114992,0,-14,-24,-42,2,8,13,-2,-12
1491693114992,0,20,23,27,4,-15,-2,-5,9
1491693114993,1,-10,22,-11,3,-14,-12,1,1
1491693114993,1,5,37,12,6,-10,3,8,10
1491693114994,3,-1,-24,9,4,-12,-8,9,-4
1491693114994,3,-8,14,-4,-3,-5,0,0,-4
1491693115039,0,-1,20,22,5,0,2,4,-8
1491693115039,0,-5,5,0,3,-2,6,-11,6
1491693115041,1,7,-22,-15,-2,-16,-15,-11,-5
1491693115041,1,-10,-52,-36,-14,-5,-3,36,-1
1491693115041,2,15,-18,40,11,2,-2,-14,-2
1491693115041,2,-17,12,-14,-5,5,6,13,-11
1491693115088,0,1,-13,14,-3,-25,-35,19,-7
1491693115088,0,3,23,-4,7,37,47,-23,-7
1491693115089,1,6,10,0,1,10,13,-5,12
1491693115089,1,-5,-7,13,4,22,28,-7,-3
1491693115090,2,-4,-6,-10,-5,-9,-20,-2,19
1491693115090,2,-6,13,-9,-7,-23,-11,-30,-12
1491693115093,1,-2,0,7,-1,-3,-13,-46,-7
1491693115093,1,8,-3,4,3,5,-4,-9,-3
1491693115137,2,-9,8,8,2,10,17,26,4
1491693115137,2,-3,3,-2,-3,-5,-6,17,7
1491693115138,3,4,-1,-1,-1,1,-9,-30,-5
1491693115138,3,-9,-9,2,1,2,2,44,-7
1491693115139,0,0,-12,-3,0,3,6,-29,-2
1491693115139,0,-4,-9,-13,-12,-11,-6,-1,-5
1491693115141,1,17,-4,8,3,-2,-5,12,20
1491693115141,1,-2,0,-1,-1,-3,-13,-78,-11
1491693115234,2,-15,-12,-12,-3,7,13,78,-7
1491693115234,2,-7,12,-7,-1,1,2,0,9
1491693115236,3,-2,28,1,-1,-1,-3,-8,-12
1491693115236,3,8,19,9,5,9,11,3,8
1491693115236,2,-6,-13,-1,-2,-1,8,-8,-6
1491693115236,2,5,10,8,-4,-2,2,12,1
1491693115283,3,5,-3,15,7,6,-3,-42,3
1491693115283,3,-18,-16,-15,-11,-12,-33,-33,-20
1491693115284,0,17,0,4,4,8,0,-22,10
1491693115284,0,-7,7,8,4,9,7,58,9
1491693115285,1,-9,-18,-8,-7,-13,-34,-98,-38
1491693115285,1,-29,-3,0,0,4,14,66,-9
1491693115286,3,-15,-21,-12,-5,-1,7,29,1
1491693115286,3,-12,-6,-5,-4,-4,-7,-49,-9
1491693115332,0,-21,-36,-16,-5,3,13,-70,-13
1491693115332,0,-10,-42,-9,-5,-6,-9,13,1
1491693115333,1,-3,22,-13,-10,-9,-10,-5,-2
1491693115333,1,14,33,19,5,3,3,-8,-4
1491693115337,1,-4,-94,-10,-1,7,5,39,7
1491693115337,1,7,24,4,-4,-6,-6,21,0
1491693115337,2,7,24,32,16,1,3,-10,10
1491693115337,2,-13,-6,-11,-1,-3,-7,-21,-18
1491693115380,3,-4,-36,-25,-5,-1,1,-7,0
1491693115380,3,6,5,4,-2,-4,-8,-14,-1
1491693115382,0,-4,5,4,0,0,4,3,2
1491693115382,0,8,36,2,6,-1,-4,-16,1
1491693115383,2,-1,49,38,-3,-10,-3,10,-11
1491693115383,2,2,29,16,3,-4,-7,0,1
1491693115384,3,-7,-27,-16,-8,-12,-18,-4,-4
1491693115384,3,-4,-36,-11,1,4,22,17,6
1491693115429,0,2,-11,-16,1,5,10,-6,-6
1491693115429,0,9,-6,9,-4,-12,-13,-15,-21
1491693115431,1,-3,-8,6,2,-22,-1,10,9
1491693115431,1,2,-13,-1,-5,-8,-3,5,27
1491693115433,3,-3,20,0,0,10,-8,20,-9
1491693115433,3,-12,28,17,7,7,-15,-13,-18
1491693115433,0,-1,-3,-18,-4,1,-18,5,14
1491693115433,0,-54,18,-11,-12,-9,-43,-102,-29
1491693115478,1,2,40,9,3,12,58,92,45
1491693115478,1,-9,-3,0,-4,-8,-36,-74,-20
1491693115480,2,-20,-13,-12,3,7,2,13,14
1491693115480,2,48,33,6,1,6,34,47,-10
1491693115481,3,3,17,0,-2,-5,-16,-62,-2
1491693115481,3,-43,-44,-9,1,6,17,-8,-10
1491693115482,0,-29,-12,-14,-10,-13,-19,25,-9
1491693115482,0,2,-21,-6,-4,0,-2,-26,2
1491693115527,1,18,6,-3,-2,1,-18,-31,-15
1491693115527,1,26,0,-1,0,11,25,92,3
1491693115528,2,-12,-36,-6,-6,-6,-23,-38,9
1491693115528,2,-23,-3,6,0,-11,0,33,-17
1491693115528,0,-9,-12,-8,-12,-10,-17,-64,-30
1491693115528,0,2,-10,-1,8,10,37,126,35
1491693115529,1,-7,-9,-3,8,30,74,69,-13
1491693115529,1,-14,12,3,-8,-11,-50,-89,-18
1491693115575,2,-19,12,9,1,-28,-66,-93,-68
1491693115575,2,14,10,23,29,57,72,56,69
1491693115577,3,7,19,-10,-6,-14,-7,-28,24
1491693115577,3,18,23,-8,3,13,24,-58,8
1491693115577,1,71,11,-1,-12,-9,10,-38,26
1491693115577,1,21,-19,1,-6,25,103,127,100
1491693115578,2,-7,-1,-28,10,78,63,-62,10
1491693115578,2,-24,-12,49,27,-21,-62,-125,-16
1491693115624,3,-19,1,86,88,37,31,69,24
1491693115624,3,1,-32,-36,-56,-21,-38,-112,-56
1491693115625,0,-30,14,-91,-21,-7,-36,1,14
1491693115625,0,8,-24,-44,-34,-2,15,-14,22
1491693115676,2,26,-8,46,72,36,88,118,83
1491693115676,2,13,24,-30,81,33,-57,-128,-89
1491693115677,3,13,45,70,31,0,18,80,74
1491693115677,3,-17,-14,-19,-10,-32,30,-101,-26
1491693115678,0,2,-13,63,-24,27,107,124,7
1491693115678,0,32,-27,10,23,85,84,10,42
1491693115679,1,-34,-56,-117,-52,-48,-103,-128,-65
1491693115679,1,-2,27,104,56,41,-30,82,16
1491693115722,3,8,-6,-74,31,83,26,-105,-37
1491693115722,3,-26,-16,70,71,-19,-27,106,24
1491693115723,0,-6,-15,12,-40,-100,-102,-128,-17
1491693115723,0,35,-17,-52,-128,16,44,127,13
1491693115724,0,0,9,-121,-90,11,56,108,22
1491693115724,0,-8,13,40,82,72,-39,-11,13
1491693115728,1,-10,-35,97,-10,-88,111,127,19
1491693115728,1,21,-7,-65,79,66,-112,-63,-28
1491693115770,2,-18,-44,-87,-14,39,51,73,41
1491693115770,2,21,20,-23,-62,19,11,-60,-17
1491693115772,3,-6,89,127,46,33,-100,-94,-28
1491693115772,3,-10,-3,63,-93,-88,106,-1,-20
1491693115773,1,-19,-23,4,66,56,-8,98,-16
1491693115773,1,-32,9,-46,-127,59,82,-107,-15
1491693115773,2,16,50,127,49,66,25,31,-21
1491693115773,2,24,-12,-109,-61,-53,-38,-14,6
1491693115819,3,15,5,-59,51,-109,-94,-13,14
1491693115819,3,-3,11,21,-65,34,-89,-32,-13
1491693115822,0,-18,-11,33,113,-87,-16,-27,-27
1491693115822,0,0,30,52,28,41,70,-112,-24
1491693115823,1,7,3,18,-41,115,127,126,39
1491693115823,1,8,9,-21,60,-53,21,85,23
1491693115868,2,-12,-1,13,93,46,-116,-108,-50
1491693115868,2,-32,-57,-87,-60,-128,-128,9,19
1491693115869,3,-14,-36,-96,-55,37,12,-59,1
1491693115869,3,27,63,45,17,27,126,-23,31
1491693115869,0,54,18,89,-40,-99,-80,-18,22
1491693115869,0,-46,-20,20,122,109,82,-33,-60
1491693115870,2,-1,37,-46,-112,-14,29,60,3
1491693115870,2,8,62,85,107,6,-65,-72,1
1491693115916,3,15,10,40,-48,-123,-104,33,-13
1491693115916,3,-10,-35,-99,-89,-13,-10,-17,-22
1491693115917,0,20,22,52,-2,95,127,16,47
1491693115917,0,39,40,102,-67,104,11,-38,35
1491693115918,3,22,38,121,37,25,-8,-22,-5
1491693115918,3,0,25,127,-69,-25,-74,-7,-43
1491693115919,0,-1,-46,-88,45,-77,-54,-7,12
1491693115919,0,-8,-66,-100,-72,-64,1,-13,-3
1491693115965,1,56,2,42,22,56,103,54,16
1491693115965,1,18,30,31,-120,-95,-65,-15,-10
1491693115966,2,-13,18,121,120,127,127,-84,-14
1491693115966,2,-9,-11,-28,46,-128,-99,81,-24
1491693115966,0,19,44,103,-81,22,-37,-1,-27
1491693115966,0,22,59,83,44,-23,-90,-89,-30
1491693115968,1,-34,17,40,40,110,111,-17,-30
1491693115968,1,11,-17,-62,119,12,21,91,65
1491693116014,2,8,16,3,-112,-73,-83,-121,-43
1491693116014,2,-12,27,38,-128,-104,25,127,36
1491693116015,3,-25,-23,8,103,75,53,-51,-45
1491693116015,3,-32,-20,-73,46,-11,-81,11,-5
1491693116015,1,32,82,118,16,-117,-36,-25,13
1491693116015,1,8,26,32,-71,72,77,60,-3
1491693116016,2,-39,-72,-99,127,77,31,-63,4
1491693116016,2,-31,-61,-66,-14,-23,14,-57,-9
1491693116063,3,-4,18,22,-101,-52,-100,-63,-18
1491693116063,3,83,120,127,11,-101,9,49,5
1491693116063,0,31,10,-11,25,91,85,-12,14
1491693116063,0,-40,-69,-125,2,127,-88,60,-50
1491693116064,2,36,66,127,73,-123,34,20,2
1491693116064,2,-12,-45,-74,-46,-128,47,-57,-19
1491693116065,3,-25,-51,-124,-77,58,-52,-127,12
1491693116065,3,-14,1,65,109,-63,20,16,1
1491693116111,0,25,38,113,76,127,-57,-18,-21
1491693116111,0,-2,-4,-36,1,93,93,47,4
1491693116112,1,5,27,30,-128,18,66,-15,12
1491693116112,1,23,7,-21,70,78,-22,-128,14
1491693116113,3,14,16,0,-21,-102,12,-16,33
1491693116113,3,-32,-43,10,88,-37,127,-81,-25
1491693116114,0,3,57,40,-128,-104,-31,-38,1
1491693116114,0,8,-22,-14,127,-50,18,24,-56
1491693116160,1,17,7,-49,-35,-75,-94,24,2
1491693116160,1,1,-14,69,123,-22,127,-67,5
1491693116161,2,-29,-30,-117,-110,-25,-47,-3,20
1491693116161,2,13,39,74,-63,-6,-122,-106,0
1491693116162,3,-10,-20,-32,-58,-52,16,39,14
1491693116162,3,-27,-35,-28,57,0,-128,-94,-71
1491693116163,0,-3,-17,39,54,3,-77,-10,-25
1491693116163,0,25,80,63,-63,-14,31,-128,39
1491693116209,1,-4,-10,-13,80,-45,-30,127,3
1491693116209,1,-13,-45,-71,39,20,-113,37,14
1491693116210,2,11,13,25,-74,0,127,-47,14
1491693116210,2,5,-35,14,-3,-14,-99,127,7
1491693116212,0,10,44,19,14,-16,31,127,42
1491693116212,0,2,-47,10,10,-116,-69,-80,-26
1491693116212,1,-19,-79,-28,13,-5,-27,75,-9
1491693116212,1,4,58,-12,-21,-118,-68,-79,13
1491693116258,2,-4,65,13,-7,41,69,127,-3
1491693116258,2,6,35,13,38,5,96,12,7
1491693116258,3,-15,-46,-25,19,-40,-59,-89,-25
1491693116258,3,-2,-75,-43,-44,53,29,73,26
1491693116259,1,8,69,11,35,127,-86,-43,0
1491693116259,1,5,-6,18,-33,-43,49,-30,39
1491693116260,2,-12,-39,-30,-42,21,16,-5,-58
1491693116260,2,-3,-47,2,38,-112,33,-40,37
1491693116307,3,-4,35,2,-4,-128,-27,-52,-32
1491693116307,3,-11,-88,-26,-45,20,-18,-43,-11
1491693116307,0,14,79,3,-11,55,58,44,12
1491693116307,0,8,16,34,4,127,-120,-95,-16
1491693116308,2,4,-51,-22,-62,96,-7,28,30
1491693116308,2,28,62,14,-49,107,-43,-68,-14
1491693116309,3,-15,-69,-54,51,56,98,85,18
1491693116309,3,-20,-31,-10,-48,104,-48,-22,-16
1491693116355,0,-5,34,18,-63,31,-1,-29,-15
1491693116355,0,-33,-8,-46,59,41,-6,10,-56
1491693116356,1,6,26,-10,-23,33,87,3,39
1491693116356,1,-1,1,-39,-8,127,-59,-128,-22
1491693116357,3,-11,-10,37,114,93,-125,85,24
1491693116357,3,50,41,26,79,61,96,127,40
1491693116358,0,23,-29,-66,-79,-42,49,52,56
1491693116358,0,-8,61,127,64,-128,45,127,76
1491693116404,1,-10,22,64,-128,-128,-90,-128,-109
1491693116404,1,12,-8,-87,106,-128,127,53,66
1491693116405,2,-15,-78,-81,-86,-114,-111,27,22
1491693116405,2,5,-31,49,30,-72,37,2,-1
1491693116406,0,-17,-40,-52,-22,87,-84,-80,-33
1491693116406,0,9,7,13,35,86,19,-39,61
1491693116406,1,0,-39,-69,48,56,11,-50,-43
1491693116406,1,-5,41,31,-128,40,-59,69,-41
1491693116502,2,-1,-15,67,104,61,127,31,5
1491693116502,2,-13,1,-27,-99,52,-33,-80,-68
1491693116550,3,12,-39,-21,-42,20,124,-34,-5
1491693116550,3,-17,-31,-66,-2,-3,55,-79,-24
1491693116552,1,25,105,25,59,-4,62,-70,28
1491693116552,1,-37,-38,-73,-24,4,1,-75,-64
1491693116553,2,-7,-48,-21,-1,18,-44,5,-17
1491693116553,2,12,62,20,19,5,-38,-30,-11
1491693116554,3,-23,-49,-4,11,-6,-10,-10,10
1491693116554,3,20,-15,53,-19,0,-52,19,12
1491693116649,0,11,17,42,21,9,-89,-12,-1
1491693116649,0,7,42,14,15,105,8,5,3
1491693116650,2,-17,-52,-33,22,-82,-42,-22,-5
1491693116650,2,-22,-85,-72,-18,-128,32,-59,9
1491693116651,2,-5,14,31,94,116,48,9,-6
1491693116651,2,-15,-38,-39,-51,86,-4,36,-24
1491693116652,3,-19,-12,-69,-73,-95,-100,-67,-18
1491693116652,3,-23,-51,-50,2,-119,-128,-128,-21
1491693116697,0,45,34,70,-50,86,32,8,3
1491693116697,0,17,31,14,-128,95,35,-82,-23
1491693116698,1,-16,-17,35,114,127,-81,-70,-43
1491693116698,1,-19,-1,86,-12,127,-81,-86,-28
1491693116700,1,21,12,8,79,-14,11,11,23
1491693116700,1,-6,33,2,-126,97,71,79,6
1491693116701,2,-18,-12,-62,127,116,-99,-24,26
1491693116701,2,-44,-41,-112,-128,127,13,54,-24
1491693116794,3,7,30,-18,-109,127,127,108,21
1491693116794,3,-17,-24,-49,112,114,-86,-128,-74
1491693116795,0,37,10,63,-128,111,85,86,44
1491693116795,0,-48,-21,-23,7,102,13,-14,23
1491693116796,2,-15,-14,76,55,50,113,66,2
1491693116796,2,5,-8,-49,-52,48,-48,-58,-52
1491693116797,3,0,-15,-37,127,41,-47,111,60
1491693116797,3,37,-10,-45,-128,19,-55,-85,-2
1491693116843,0,-43,-16,-65,96,12,32,-25,-9
1491693116843,0,-14,4,38,-104,14,115,-11,9
1491693116845,1,37,57,86,70,17,45,1,-59
1491693116845,1,-39,5,-74,-128,-2,-25,-49,95
1491693116846,3,22,11,11,26,7,90,-38,-17
1491693116846,3,3,46,115,65,-3,-81,-18,34
1491693116847,0,1,-16,-55,-34,-2,3,38,20
1491693116847,0,55,3,39,115,1,-3,35,60
1491693116892,1,-37,1,16,10,1,45,104,-1
1491693116892,1,-12,-21,4,-21,-1,27,51,-4
1491693116893,2,76,49,69,-8,-2,-89,-115,-5
1491693116893,2,25,-10,-49,-22,0,-30,34,-1
1491693116895,0,19,6,32,-55,-1,-2,85,-23
1491693116895,0,-31,-2,32,-78,0,51,-51,-10
1491693116896,1,-9,-4,-17,113,1,-23,-95,6
1491693116896,1,36,13,26,-79,-1,20,65,11
1491693116940,2,-32,22,15,-72,-2,20,87,-20
1491693116940,2,18,12,39,101,0,-43,-57,10
1491693116941,3,-32,-57,-88,-128,0,-1,-22,-23
1491693116941,3,21,21,57,127,-2,32,-39,10
1491693116942,1,-4,-8,-68,53,-1,20,91,30
1491693116942,1,28,7,-26,-97,-2,39,44,39
1491693116943,2,-8,-10,53,127,-1,108,-28,-10
1491693116943,2,-11,-29,2,-97,0,-105,-42,-18
1491693116989,3,0,3,-7,-85,0,-27,71,10
1491693116989,3,-18,-6,-88,39,-1,45,116,57
1491693116997,0,-29,-18,-7,26,-1,19,40,29
1491693116997,0,-20,3,47,9,-1,-4,-75,-71
1491693116997,2,-7,-20,-115,-128,-1,-120,-77,-11
1491693116997,2,-32,14,66,127,-1,7,-24,45
1491693116998,3,8,9,46,39,-1,-47,90,3
1491693116998,3,26,-8,-34,-127,-1,9,68,27
1491693117038,0,-7,-23,-7,127,-1,12,-3,-29
1491693117038,0,-13,30,21,-105,0,-22,-128,8
1491693117041,1,-13,2,91,-3,-1,22,-51,-17
1491693117041,1,-4,-42,-74,118,-1,-101,29,-5
1491693117043,3,-32,-2,-19,21,-1,-128,-123,12
1491693117043,3,-30,-10,30,75,-1,127,-26,-55
1491693117044,0,18,16,26,17,-1,47,44,13
1491693117044,0,15,2,-11,51,0,-44,-66,-21
1491693117087,1,-19,-8,-13,-73,0,-87,-31,-18
1491693117087,1,-7,-50,-92,-70,-1,72,-128,-45
1491693117087,2,-31,-20,-26,88,-1,-21,93,27
1491693117087,2,41,15,19,-72,-1,4,17,-24
1491693117088,0,-2,29,50,57,-1,42,7,0
1491693117088,0,-36,-31,-44,-54,-1,29,11,56
1491693117089,1,-11,-5,-5,-61,-1,57,-14,-23
1491693117089,1,-3,-6,13,-101,-2,78,127,-5
1491693117135,2,-12,5,-8,50,-1,-61,-128,-56
1491693117135,2,3,27,77,100,-1,47,96,15
1491693117136,3,-12,-9,-22,-79,-1,101,-74,-16
1491693117136,3,-27,12,40,96,-1,0,57,-13
1491693117137,1,-9,21,51,-108,-2,97,99,33
1491693117137,1,21,17,73,50,-1,32,-68,-8
1491693117138,2,10,-3,15,44,-1,-81,-124,-42
1491693117138,2,-24,0,-4,-83,-1,4,86,5
1491693117184,3,24,4,-28,-23,-1,96,21,12
1491693117184,3,-7,-2,22,3,-1,-97,-82,11
1491693117185,0,-12,-2,106,-124,-1,-38,40,-6
1491693117185,0,21,13,70,58,-1,-99,-48,-13
1491693117233,2,-1,-54,-106,-128,-1,36,-74,-37
1491693117233,2,2,0,-5,79,-1,89,41,-1
1491693117234,3,-35,-5,23,59,-1,-61,-112,-37
1491693117234,3,5,44,56,47,-1,22,84,26
1491693117235,0,63,3,-49,-104,-1,-15,61,45
1491693117235,0,-48,-20,-101,-20,-1,-83,-95,-32
1491693117236,1,4,-2,17,-6,-1,6,45,-25
1491693117236,1,-9,12,76,63,-1,-51,-83,-25
1491693117281,2,-16,-3,37,-34,-1,114,-13,4
1491693117281,2,2,4,-74,-92,-1,-84,19,0
1491693117282,3,-27,-53,-44,120,-1,-76,57,-19
1491693117282,3,-17,-28,-49,-18,-1,22,-89,-14
1491693117283,0,-6,5,8,29,-1,-13,63,21
1491693117283,0,26,22,55,-76,0,10,-51,24
1491693117284,3,6,4,10,-58,-1,-39,-48,-20
1491693117284,3,2,-6,12,9,-2,-55,-40,25
1491693117428,0,-33,40,71,-17,-1,-38,34,-15
1491693117428,0,-36,-29,28,127,111,14,-77,-12
1491693117429,1,19,-12,-21,-54,121,42,70,-22
1491693117429,1,30,26,7,-74,34,-14,90,46
1491693117429,0,-2,0,51,72,-110,57,53,-1
1491693117429,0,21,11,41,-86,-128,-34,52,15
1491693117430,1,-39,8,63,127,-118,89,-123,-50
1491693117430,1,37,15,24,-128,-107,74,93,83
1491693117477,2,-44,-57,-65,120,-75,-105,-120,-32
1491693117477,2,36,20,36,-80,-66,92,-24,13
1491693117477,3,15,7,-9,33,-63,8,89,54
1491693117477,3,-28,-38,-125,-41,-48,19,-103,-65
1491693117478,1,28,11,21,14,-25,48,-78,-27
1491693117478,1,-1,11,-21,-10,-18,-84,-23,-1
1491693117479,3,52,33,14,-115,-36,7,-67,-29
1491693117479,3,-17,9,76,117,-75,25,47,-16
1491693117525,0,1,-7,16,-41,-22,-83,-107,-26
1491693117525,0,-1,-20,10,-89,-38,36,77,44
1491693117526,1,-31,13,66,16,97,63,-96,-67
1491693117526,1,28,14,-13,-44,11,-98,70,37
1491693117526,0,79,45,88,127,-22,12,127,40
1491693117526,0,6,12,-7,-128,0,-30,-24,20
1491693117528,1,-16,-4,-29,119,-12,32,53,24
1491693117528,1,-19,-35,-9,48,-9,98,-33,-6
1491693117574,2,-36,13,5,-56,-102,-41,-8,-35
1491693117574,2,-23,-6,25,-8,81,73,11,-33
1491693117575,3,33,20,16,81,-22,-68,-51,-2
1491693117575,3,-28,-28,-19,-128,55,12,-1,44
1491693117623,0,20,-21,-80,33,120,-64,45,40
1491693117623,0,25,22,-9,7,-90,-14,-128,-15
1491693117624,1,-5,16,62,-41,-100,35,121,13
1491693117624,1,-7,-16,-1,73,100,-34,-12,-5
1491693117625,2,-31,3,-3,-117,-62,-99,-113,-34
1491693117625,2,-16,-3,-45,127,-50,-78,-87,-8
1491693117628,3,45,9,47,6,83,90,20,76
1491693117628,3,20,28,31,-79,-113,-37,83,-26
1491693117671,1,-29,-20,-18,3,38,67,-4,-20
1491693117671,1,63,29,41,18,-76,15,96,14
1491693117672,2,-33,25,67,97,-80,-44,-100,-41
1491693117672,2,27,0,5,-21,101,-73,0,11
1491693117673,3,-30,-41,-84,-77,95,-32,51,-8
1491693117673,3,-5,-12,8,95,77,-13,30,31
1491693117674,2,17,34,66,44,-87,10,-7,-3
1491693117674,2,-37,-2,17,-80,-39,-2,-87,-13
1491693117721,3,28,17,57,75,2,-59,-45,0
1491693117721,3,-14,-34,-101,-60,79,-57,92,31
1491693117723,0,-13,-26,-21,-30,127,45,-75,5
1491693117723,0,3,-9,-3,58,34,-20,31,-18
1491693117723,3,2,-16,-19,-42,-70,16,5,38
1491693117723,3,9,61,108,-30,-128,-41,-96,-29
1491693117725,0,-2,23,97,14,-45,75,117,-1
1491693117725,0,-19,1,-42,25,-88,-70,15,61
1491693117769,1,-26,-23,-63,-95,41,31,-51,-57
1491693117769,1,37,10,-25,-73,-38,-7,-42,18
1491693117772,2,-15,-18,-21,45,72,45,-59,-11
1491693117772,2,16,-12,11,22,12,10,41,-29
1491693117774,0,50,16,35,-80,-89,-66,-108,37
1491693117774,0,19,-38,-78,35,108,127,124,69
1491693117777,1,-38,-34,-97,-57,99,-53,-68,-2
1491693117777,1,48,34,18,23,-21,-13,-27,-14
1491693117822,2,-26,21,75,59,-106,-18,49,-31
1491693117822,2,76,24,31,-18,-15,56,5,7
1491693117823,3,5,-11,-17,-125,79,-51,39,-22
1491693117823,3,-47,-17,-5,127,127,-24,88,-7
1491693117824,1,0,-11,-17,95,26,-78,-63,-24
1491693117824,1,-23,-6,-57,-81,-48,84,12,32
1491693117825,2,7,-16,-50,26,-19,-64,-18,-3
1491693117825,2,-52,0,-23,-29,5,1,-55,-5
1491693117915,3,28,28,104,12,-128,87,118,14
1491693117915,3,-23,-1,25,20,-61,-71,-100,5
1491693117917,0,20,3,6,46,-12,25,127,4
1491693117917,0,-22,4,80,14,-34,-70,-42,34
1491693117918,2,36,7,-21,-41,-11,66,70,45
1491693117918,2,-18,-42,-76,25,-16,-14,-122,-72
1491693117919,3,-7,-30,-35,-11,-13,91,127,12
1491693117919,3,17,-36,-51,-73,15,-88,-120,45
1491693118013,0,-36,20,1,-25,-22,19,47,-25
1491693118013,0,68,68,121,24,-1,91,125,11
1491693118015,1,-7,-35,-35,9,-1,-60,-64,8
1491693118015,1,1,-11,-63,85,-9,108,24,-65
1491693118016,3,-46,1,-1,15,-85,-19,60,-24
1491693118016,3,-2,-3,13,21,95,-17,-110,-43
1491693118017,0,2,-12,-22,-24,-25,-12,51,13
1491693118017,0,-21,-4,38,33,-67,-58,-128,-38
1491693118062,1,-22,16,16,28,-41,63,127,-13
1491693118062,1,0,-9,6,-60,-63,-31,-74,-20
1491693118063,2,26,12,-14,-108,30,41,-55,35
1491693118063,2,-16,-28,-46,88,44,-88,36,3
1491693118064,0,-43,-17,-30,15,13,10,-104,-39
1491693118064,0,29,25,3,-97,-96,18,52,33
1491693118065,1,19,0,20,59,-5,-33,55,41
1491693118065,1,29,12,-7,6,49,110,76,16
1491693118110,2,-28,5,84,49,-93,46,45,-22
1491693118110,2,26,14,42,27,-51,-96,35,3
1491693118111,3,13,3,-13,-14,71,-38,-128,-9
1491693118111,3,-28,33,-60,-88,-115,72,77,16
1491693118112,2,-1,1,64,-99,-76,10,-32,-48
1491693118112,2,14,17,-48,-71,50,93,32,-3
1491693118113,3,-83,-4,6,-61,-114,8,-45,-35
1491693118113,3,-7,21,-16,45,-68,-107,52,-17
1491693118159,0,58,-10,-67,89,-128,-75,18,81
1491693118159,0,-9,24,83,-24,66,116,-28,27
1491693118161,1,32,-20,-80,-33,-125,106,-39,22
1491693118161,1,4,55,122,125,24,24,-112,-51
1491693118162,3,8,31,62,119,87,62,127,30
1491693118162,3,19,70,93,-61,105,-45,12,63
1491693118163,0,-50,-57,-63,2,102,55,77,-83
1491693118163,0,31,-40,-124,-120,118,-93,-128,72
1491693118208,1,-49,33,93,4,40,81,89,-20
1491693118208,1,10,-35,-2,127,107,38,-16,-101
1491693118209,2,-5,37,70,57,81,-120,-78,45
1491693118209,2,-43,-58,-128,-107,41,-62,40,-56
1491693118210,0,-4,-4,-55,-92,32,-33,9,-24
1491693118210,0,-48,2,-102,-65,-9,90,-128,-41
1491693118211,1,95,31,38,22,-5,-123,91,79
1491693118211,1,-36,-3,8,38,26,46,62,-19
1491693118306,2,-52,-4,94,110,-36,50,-101,-52
1491693118306,2,32,-7,25,-20,27,-117,-1,6
1491693118307,3,7,11,-9,58,-25,82,-64,-48
1491693118307,3,-30,-24,-79,-128,-9,18,-128,8
1491693118354,1,-18,-15,-49,-48,56,-104,-128,-14
1491693118354,1,6,-18,40,23,-109,30,-60,-22
1491693118403,2,54,60,-63,-122,-59,68,95,-9
1491693118403,2,-48,-12,127,127,76,1,-44,-115
1491693118405,3,-21,-57,-99,-117,20,-128,-58,-57
1491693118405,3,-36,3,20,24,-18,8,-97,-30
1491693118452,0,-34,26,-46,-128,-59,-128,-27,-4
1491693118452,0,-16,-29,-81,44,42,-79,127,47
1491693118454,1,-24,8,103,127,108,-41,-21,-60
1491693118454,1,-7,-17,-62,-82,-47,-8,-36,-14
1491693118455,2,74,50,28,50,-80,0,-41,-26
1491693118455,2,-14,-3,-70,-14,-35,-26,108,19
1491693118456,3,-41,-11,0,-41,72,81,51,-32
1491693118456,3,34,-18,-72,-26,-87,-75,35,32
1491693118501,0,-69,-25,-25,-3,-120,29,-50,-39
1491693118501,0,-37,58,96,35,-70,-32,63,5
1491693118503,1,70,-9,-106,49,44,-4,22,55
1491693118503,1,-44,-38,-112,-68,-62,104,65,88
1491693118505,1,-83,-37,9,-37,-16,-66,-31,-19
1491693118505,1,19,46,127,42,-30,107,-21,-40
1491693118506,2,-50,2,-61,-121,-53,-105,-29,-27
1491693118506,2,51,-56,-88,109,-110,100,60,-34
1491693118550,3,-34,-3,-66,-17,-26,-128,6,7
1491693118550,3,-7,6,93,-2,-38,-4,4,-18
1491693118551,0,-86,12,67,-39,127,-99,-86,21
1491693118551,0,66,32,60,104,41,88,35,-88
1491693118553,2,1,41,102,62,-84,1,-29,8
1491693118553,2,-14,31,28,-128,-44,-17,-128,-45
1491693118561,3,18,-27,45,103,83,102,127,61
1491693118561,3,44,-21,-36,28,67,-70,-95,14
1491693118598,0,-9,18,-24,50,-59,-5,-16,-23
1491693118598,0,-86,-52,-9,-32,-128,-128,-128,-11
1491693118598,1,74,-6,-73,-32,-56,-2,-56,47
1491693118598,1,57,-54,-71,-19,93,102,30,42
1491693118599,3,-18,-18,-21,22,-2,22,38,-42
1491693118599,3,80,32,123,-2,-123,51,88,8
1491693118600,0,3,33,24,-113,81,-20,-79,7
1491693118600,0,4,-59,-57,-42,-22,-23,64,46
1491693118646,1,-72,-8,3,75,127,-124,-74,-6
1491693118646,1,19,56,99,-128,-106,-98,-12,-5
1491693118647,2,-34,-8,110,127,51,112,-8,-29
1491693118647,2,6,3,-97,-76,-24,-93,86,52
1491693118648,3,82,64,92,62,-71,89,12,-6
1491693118648,3,-41,-12,10,-111,12,-128,-49,-3
1491693118649,0,-37,-11,-51,80,-5,-59,-61,-74
1491693118649,0,-36,3,49,49,65,87,5,54
1491693118695,1,16,-17,-116,-107,-128,80,33,-2
1491693118695,1,25,-44,-41,96,76,-82,-82,-14
1491693118696,2,-36,-78,-90,-128,-35,53,-51,-24
1491693118696,2,1,32,-60,25,-31,-37,-101,-24
1491693118697,0,19,-16,-51,-128,30,74,1,32
1491693118697,0,-21,-49,29,38,30,7,19,22
1491693118698,1,-24,-1,16,7,12,-59,-69,-70
1491693118698,1,-41,-68,-102,-47,76,-24,33,29
1491693118744,2,114,63,127,-9,-116,-68,-65,47
1491693118744,2,-36,9,12,43,16,-2,88,-19
1491693118745,3,55,-1,-11,-122,-57,-75,66,-12
1491693118745,3,-32,47,55,-13,-18,105,97,34
1491693118746,1,-89,-32,35,88,120,-27,-40,-9
1491693118746,1,-34,-72,-128,-128,57,69,88,-27
1491693118747,2,19,49,73,-47,9,39,98,43
1491693118747,2,-5,-23,-31,127,75,-76,-102,-38
1491693118842,3,-18,14,17,-63,90,-13,-73,0
1491693118842,3,110,65,-36,8,34,19,23,25
1491693118844,0,-112,-66,-100,-115,1,-83,-85,-59
1491693118844,0,74,4,-34,106,54,127,127,119
1491693118845,2,2,-15,-104,71,9,-32,7,58
1491693118845,2,-29,-57,-128,-59,18,-17,-43,-44
1491693118850,3,-34,-60,-3,127,-2,-115,-75,16
1491693118850,3,-12,6,99,-79,-2,25,63,-35
1491693118891,0,71,28,101,104,7,12,-63,20
1491693118891,0,-23,59,127,-42,12,101,59,-26
1491693118896,1,45,-66,-128,-56,1,17,-9,0
1491693118896,1,-33,13,22,27,4,15,-70,-2
1491693118897,3,23,21,55,105,60,71,104,120
1491693118897,3,-41,-119,-108,-71,-58,-52,-97,-4
1491693118898,0,-53,22,-11,59,-58,37,-117,-68
1491693118898,0,22,20,5,-6,-51,-61,-20,-1
1491693118939,1,8,-3,-3,-22,-56,-11,75,19
1491693118939,1,-31,-37,-40,-25,-31,-41,-52,11
1491693118940,2,40,74,43,-19,-8,119,22,-18
1491693118940,2,-22,2,-89,0,-118,-72,-45,65
1491693118942,1,-28,-25,-11,-44,-1,-15,-5,-49
1491693118942,1,-54,51,-90,36,38,-91,-105,-36
1491693118942,2,18,-37,9,-51,112,45,-13,20
1491693118942,2,36,-9,106,65,127,60,33,-48
1491693118988,3,20,50,30,49,60,-38,49,18
1491693118988,3,37,-18,-55,111,110,18,-15,-2
1491693119037,0,-92,-42,-16,-118,9,0,-13,-23
1491693119037,0,37,16,-114,40,21,-50,-39,6
1491693119038,1,-71,-93,-59,20,68,11,-115,-8
1491693119038,1,-43,80,73,29,-6,8,84,-24
1491693119039,2,72,17,-41,32,118,52,-76,-11
1491693119039,2,-29,-46,40,-111,82,76,57,5
1491693119040,3,-51,-102,-66,-66,-60,-89,-114,-42
1491693119040,3,-15,-34,-62,75,22,28,72,-15
1491693119085,0,44,-45,-13,-85,75,49,26,49
1491693119085,0,-54,45,127,-13,107,-15,-71,-58
1491693119086,2,-15,89,4,88,-78,82,19,23
1491693119086,2,-14,93,97,19,-68,42,-36,-27
1491693119087,3,-16,21,-105,-12,-45,17,-6,-19
1491693119087,3,-45,14,-20,40,-82,-86,-120,-38
1491693119088,3,35,64,102,43,20,97,-63,-20
1491693119088,3,21,-46,-63,-68,3,114,-32,19
1491693119134,0,-41,-16,-63,-85,-17,127,10,-8
1491693119134,0,-14,-2,112,78,-18,93,23,-26
1491693119135,1,30,-53,-54,-46,24,103,108,24
1491693119135,1,14,-65,28,-91,-8,-11,-50,-59
1491693119135,0,-7,-70,52,38,-2,-123,-15,-24
1491693119135,0,-27,-91,-103,78,0,-128,-95,-55
1491693119136,1,27,9,57,-66,3,30,107,39
1491693119136,1,-56,20,-37,12,-7,-97,-92,-8
1491693119183,2,23,-110,-29,6,2,-108,-15,7
1491693119183,2,35,73,55,-73,-6,-128,3,-6
1491693119232,3,-40,-93,60,110,0,-31,-38,15
1491693119232,3,47,-53,-35,-2,1,-93,127,-33
1491693119234,1,25,54,47,-57,5,-48,6,-17
1491693119234,1,26,-35,105,18,0,-9,-83,0
1491693119235,2,32,-1,-10,-12,-4,-8,68,29
1491693119235,2,20,9,-70,-53,-5,-69,48,3
1491693119236,3,-40,-53,-46,102,5,-124,-63,0
1491693119236,3,-35,7,24,-63,-3,111,66,-21
1491693119281,0,47,-4,25,20,-4,-16,-128,39
1491693119281,0,48,-51,74,84,-1,54,19,69
1491693119282,2,10,-45,-21,-65,-48,7,-111,-19
1491693119282,2,-59,68,119,91,32,118,31,-22
1491693119284,3,-15,98,48,116,-62,-96,-22,-20
1491693119284,3,-15,-71,-80,-73,-52,93,-67,33
1491693119285,3,38,-46,-9,-8,-27,-122,48,-8
1491693119285,3,-11,70,-9,3,-45,-128,-40,-31
1491693119329,0,7,-32,-35,13,84,99,31,4
1491693119329,0,1,-31,-13,-13,20,-102,-43,19
1491693119331,1,-7,4,40,20,32,58,49,11
1491693119331,1,-43,-78,6,-1,-41,-128,-91,-4
1491693119333,0,-38,-35,-67,-22,-22,-53,-33,-7
1491693119333,0,40,-43,-11,21,-41,-50,-33,-26
1491693119334,1,-55,-35,30,36,34,32,-14,-62
1491693119334,1,82,-112,-48,-67,87,41,63,22
1491693119378,2,-71,-128,-31,12,-125,66,-28,-26
1491693119378,2,29,10,-11,-9,-4,113,37,30
1491693119379,3,23,79,8,-13,-19,92,-74,4
1491693119379,3,-10,83,33,23,9,70,57,-1
1491693119382,0,27,47,76,41,105,58,59,7
1491693119382,0,-30,-49,-88,-3,68,50,26,-21
1491693119383,1,8,23,-41,-39,-99,49,-68,4
1491693119383,1,-17,38,14,2,4,22,-64,-3
1491693119427,2,-51,-40,0,-7,23,4,54,-20
1491693119427,2,-36,70,69,32,50,21,-10,-60
1491693119428,3,77,110,5,-11,107,25,70,45
1491693119428,3,-21,119,9,104,42,14,-23,-50
1491693119430,1,-46,-5,34,59,101,43,112,26
1491693119430,1,-19,76,29,42,44,49,-7,7
1491693119431,2,32,39,-33,-40,40,-12,-69,1
1491693119431,2,-45,-48,-28,-65,37,105,16,-26
1491693119475,3,68,41,16,19,13,66,-40,72
1491693119475,3,-14,-13,-25,96,34,-69,-15,-34
1491693119476,0,-1,8,35,13,-36,96,46,43
1491693119476,0,8,-23,-93,-42,48,36,-97,-19
1491693119477,2,30,26,-91,-38,-52,-84,-37,27
1491693119477,2,9,61,127,-72,98,82,78,40
1491693119478,3,-95,-98,-128,89,-122,-128,-128,-115
1491693119478,3,3,-16,34,-64,70,-6,-24,27
1491693119524,0,24,1,98,49,101,74,16,52
1491693119524,0,115,63,37,-78,5,14,102,-8
1491693119719,1,-53,60,48,51,74,28,-14,-9
1491693119719,1,-38,-56,-64,-128,-50,-110,-33,8
1491693119721,3,113,-34,-39,23,-106,50,104,56
1491693119721,3,-52,-28,6,-94,2,-58,-20,-15
1491693119722,0,-45,-13,1,-98,127,40,-115,-65
1491693119722,0,24,14,100,47,40,39,-37,68
1491693119722,1,-62,-35,-79,-128,23,-14,-13,-7
1491693119722,1,36,-18,-44,74,-113,-47,-46,-41
1491693119768,2,18,7,-17,53,-27,-39,83,-25
1491693119768,2,22,3,21,32,-68,35,10,70
1491693119769,0,-32,-75,-128,124,-128,66,-126,-61
1491693119769,0,7,-48,-24,-49,22,-128,-21,-18
1491693119770,2,-37,-39,-90,-78,-128,-92,-78,-42
1491693119770,2,-23,-14,32,65,-128,-108,-83,42
1491693119771,3,0,34,25,-55,-29,-50,28,-28
1491693119771,3,12,-50,-82,-57,-128,111,-10,33
1491693119817,0,12,68,-2,114,-77,-128,-128,-39
1491693119817,0,-107,-44,-62,-98,-128,122,70,-46
1491693119818,1,11,-11,66,-38,-93,81,23,-13
1491693119818,1,60,-11,-79,50,-112,29,77,58
1491693119819,0,45,-18,-14,-40,-35,92,-94,34
1491693119819,0,-47,-22,-30,-98,-63,-47,14,-90
1491693119865,1,-23,-64,-95,47,23,-128,-112,-35
1491693119865,1,-29,18,60,90,-3,-74,-59,-13
1491693119866,2,7,26,104,-53,-16,74,118,0
1491693119866,2,-3,-4,-42,13,-28,36,-123,-3
1491693119867,3,39,5,-40,39,22,13,86,65
1491693119867,3,5,2,44,-63,-13,67,62,-10
1491693119868,1,-66,-44,-128,108,17,-68,16,-74
1491693119868,1,-60,-4,-18,-47,-5,-128,30,83
1491693119914,2,63,42,92,89,-15,93,28,-54
1491693119914,2,105,18,28,-50,81,34,71,82
1491693119915,3,-64,-4,39,-77,43,61,-128,-17
1491693119915,3,-39,-17,-75,-3,-71,-128,-94,-66
1491693119916,0,-69,-40,-97,-57,14,34,28,39
1491693119916,0,31,-8,-16,-55,-17,16,-114,-31
1491693119917,2,-46,55,108,-68,-128,-5,26,-94
1491693119917,2,-36,-33,-122,127,90,42,-54,40
1491693119963,3,-15,-4,-17,-128,-106,47,-17,59
1491693119963,3,5,6,55,-99,-89,-14,-111,-63
1491693119965,0,48,-34,-44,112,70,-22,-81,43
1491693119965,0,-128,-4,66,-128,63,8,29,-101
1491693119966,3,41,12,55,92,127,-14,-128,-17
1491693119966,3,36,-12,-70,-128,-85,5,-107,-6
1491693119967,0,-104,2,73,-17,121,-128,42,-1
1491693119967,0,41,-23,-72,87,42,30,-50,-7
1491693120011,1,16,7,-30,-55,-49,-80,-16,29
1491693120011,1,3,33,102,118,51,35,43,14
1491693120013,2,-18,28,91,-16,-60,40,9,28
1491693120013,2,68,-17,-19,20,-18,-6,127,5
1491693120014,0,-9,-19,-96,46,123,-84,-128,-6
1491693120014,0,-31,12,95,-70,-128,126,26,-44
1491693120017,1,17,-53,-128,55,106,-85,87,57
1491693120017,1,-24,29,83,46,-30,91,-45,-72
1491693120060,2,63,1,-65,40,71,36,77,48
1491693120060,2,-40,5,-30,-119,53,-93,-111,-2
1491693120061,3,-70,-9,62,79,-128,58,121,5
1491693120061,3,12,-17,-72,-77,0,-44,-102,8
1491693120062,0,-22,-14,-8,-80,46,-7,108,-60
1491693120062,0,-60,-2,-58,127,78,-14,-116,-68
1491693120064,1,50,18,-14,30,69,15,77,16
1491693120064,1,-16,1,-86,-94,19,-28,121,49
1491693120109,2,-1,-23,12,54,33,24,-128,34
1491693120109,2,-3,13,66,29,63,-44,127,60
1491693120111,3,48,-1,-18,-16,-25,5,-94,-10
1491693120111,3,-37,61,108,-76,-23,67,41,-17
1491693120112,1,90,19,75,93,-64,39,-21,92
1491693120112,1,15,-7,-105,-8,-10,-85,-37,8
1491693120113,2,-17,-29,19,37,15,-93,45,-9
1491693120113,2,-18,22,105,-59,-112,121,111,6
1491693120158,3,-6,12,-72,-72,-88,-104,-105,-99
1491693120158,3,-20,-33,-30,53,127,42,54,48
1491693120206,0,38,43,39,-108,-128,75,-16,-19
1491693120206,0,38,-31,-109,-14,28,-102,77,72
1491693120207,2,-73,-1,60,78,127,-10,-128,-31
1491693120207,2,60,-6,-42,-128,-128,15,117,49
1491693120208,3,23,-17,-20,-5,94,-19,81,26
1491693120208,3,-47,16,61,86,17,83,-106,-1
1491693120209,0,-73,4,-42,15,-103,-47,-75,-61
1491693120209,0,127,-32,-49,26,91,-63,-27,73
1491693120255,1,-38,68,76,-1,-82,55,127,-56
1491693120255,1,28,-44,-21,127,127,56,-49,-26
1491693120256,3,-35,-30,-40,110,127,55,-19,-53
1491693120256,3,79,5,-65,-87,-91,-113,-23,13
1491693120256,0,-65,-27,-29,-128,-48,-21,-33,-47
1491693120256,0,39,-7,-48,-113,51,-22,-128,-92
1491693120258,0,12,6,99,77,66,85,-9,-5
1491693120258,0,-15,-55,-23,-50,85,-59,-82,60
1491693120353,1,-26,22,44,-14,-76,-69,-99,-46
1491693120353,1,-33,-14,-22,-72,96,-4,51,-26
1491693120354,2,43,4,-75,6,-85,72,41,-50
1491693120354,2,21,35,118,38,-128,-23,-26,-20
1491693120499,1,-31,-26,-83,-128,-39,95,118,75
1491693120499,1,71,0,49,114,8,-126,-50,-51
1491693120501,2,-4,-6,-34,-76,127,89,-121,88
1491693120501,2,-86,15,66,-82,-128,23,-25,-56
1491693120501,3,20,-10,47,43,1,91,-47,-37
1491693120501,3,13,1,-33,-13,126,-25,127,78
1491693120502,0,-88,-70,-61,-49,20,-128,-108,-66
1491693120502,0,2,-1,19,-31,14,-55,76,-1
1491693120548,2,10,11,-7,-69,66,-96,-108,32
1491693120548,2,-82,-25,3,127,92,-44,-15,-42
1491693120552,2,78,-13,-53,92,5,-9,45,77
1491693120552,2,-2,77,127,-45,-92,93,-95,-3
1491693120552,3,-37,90,127,-60,-128,127,67,-2
1491693120552,3,-27,-37,-100,40,127,-32,-45,-12
1491693120553,1,-78,-12,69,-8,-53,-33,-128,9
1491693120553,1,124,61,0,17,21,96,52,-38
1491693120645,2,-128,-113,-114,-49,127,-128,-58,12
1491693120645,2,97,60,15,-100,-110,127,-6,63
1491693120646,3,-78,-60,-128,-128,127,-128,-21,-39
1491693120646,3,54,54,46,-128,-128,64,-46,4
1491693120647,2,7,35,51,37,-116,68,11,0
1491693120647,2,-18,-4,85,16,16,35,6,-17
1491693120648,3,23,36,-8,-70,76,-78,-128,-27
1491693120648,3,-50,18,102,19,-91,127,102,-6
1491693120694,0,93,-25,-100,127,90,-128,-34,23
1491693120694,0,-22,-31,-78,-118,107,-41,2,-48
1491693120695,1,40,32,4,-11,-108,-11,-51,40
1491693120695,1,-39,27,16,-65,-19,-15,44,9
1491693120695,3,-7,-68,-125,-35,31,-45,-59,-56
1491693120695,3,15,-40,-88,-18,-128,-32,-45,31
1491693120696,0,37,-72,-98,-80,107,-18,79,-3
1491693120696,0,0,-29,-38,-121,8,-72,16,-22
1491693120744,1,4,47,77,127,-128,-51,3,-2
1491693120744,1,28,60,126,127,-5,74,-33,8
1491693120745,2,-20,-16,-25,-106,-55,19,15,6
1491693120745,2,38,-45,-56,90,77,24,-41,16
1491693120745,1,-96,-69,-42,20,47,-105,-37,-23
1491693120745,1,49,44,14,62,127,90,120,27
1491693120746,2,16,-23,-44,-128,-11,-48,-50,-8
1491693120746,2,-29,29,97,84,17,-53,-76,-2
1491693120791,3,28,10,3,17,-7,91,52,17
1491693120791,3,-76,-30,-128,-77,84,-128,-128,-46
1491693120792,0,37,36,97,70,5,124,107,54
1491693120792,0,5,-8,-51,-34,-26,-77,-43,-17
1491693120793,1,-13,-14,-94,54,16,20,-72,20
1491693120793,1,-49,-52,48,-84,46,20,-30,-63
1491693120794,2,6,80,29,15,8,-77,-76,7
1491693120794,2,5,38,-49,-99,-19,124,96,24
1491693120840,3,-12,-39,-56,46,-20,-30,-91,16
1491693120840,3,50,79,-25,31,48,76,127,-49
1491693120841,0,24,-25,-51,-86,-19,-58,-96,-7
1491693120841,0,-40,-17,7,85,-21,-9,96,2
1491693120842,2,32,-67,41,-29,23,-3,-96,18
1491693120842,2,48,51,65,84,92,112,76,-14
1491693120843,3,-23,-21,28,-42,45,-9,7,0
1491693120843,3,-3,-22,127,22,-40,20,-56,9
1491693120889,0,3,17,-14,-94,-128,-10,74,-8
1491693120889,0,-38,-60,13,96,-128,-102,-91,-10
1491693120890,1,11,-5,56,-7,-128,85,85,14
1491693120890,1,-17,-47,-128,-57,-107,-88,-80,-34
1491693120890,3,-12,7,-56,-65,16,9,-5,-11
1491693120890,3,27,-8,44,22,70,55,37,30
1491693120891,0,-23,-38,-59,-5,96,-106,-68,-34
1491693120891,0,37,93,50,-28,66,75,106,31
1491693120938,1,-31,2,62,108,44,49,26,-19
1491693120938,1,46,-29,-19,-85,127,-9,3,38
1491693120939,2,-23,-44,-13,127,120,-97,-48,14
1491693120939,2,-12,19,48,-5,90,90,33,6
1491693120987,0,5,-26,-5,-128,80,-77,-51,-16
1491693120987,0,-25,2,-20,49,-128,-55,-126,-16
1491693120988,1,-15,33,127,-31,127,114,101,-31
1491693120988,1,73,-71,-91,82,-103,-93,36,-9
1491693120990,2,-22,74,95,18,54,117,-45,-38
1491693120990,2,-47,-75,-115,75,-87,-116,-28,-12
1491693120991,3,0,21,71,69,11,-46,-114,2
1491693120991,3,-22,89,127,-28,73,63,13,13
1491693121084,1,6,-36,-108,127,-128,-64,-8,53
1491693121084,1,-13,-21,-30,94,47,-18,-128,-17
1491693121085,2,-6,-29,-56,-32,-11,39,105,28
1491693121085,2,48,47,33,-75,108,54,11,2
1491693121085,3,21,62,-23,-109,7,18,84,13
1491693121085,3,-19,21,35,85,68,-23,-54,-11
1491693121133,2,-12,39,40,40,-75,54,4,-48
1491693121133,2,-15,-37,-102,37,-126,-96,-48,14
1491693121134,3,-49,-78,-89,-49,-94,-85,-60,-22
1491693121134,3,-35,-43,-49,-110,-71,-36,-31,48
1491693121134,0,-6,-13,42,33,54,49,-25,-20
1491693121134,0,7,28,12,-38,40,17,6,-16
1491693121135,3,49,-72,-81,127,39,43,49,2
1491693121135,3,-44,23,57,18,-38,87,-40,-59
1491693121181,3,-49,18,-90,-72,-127,-110,91,13
1491693121181,3,51,-38,15,-9,95,-27,-128,-15
1491693121182,0,3,31,126,-66,90,70,118,32
1491693121182,0,60,10,-43,19,-113,1,-44,55
1491693121183,1,-22,-36,-40,58,127,25,-46,-19
1491693121183,1,-84,-10,-83,-77,-62,-25,-28,-29
1491693121184,0,34,-43,-9,80,10,46,-35,-15
1491693121184,0,4,31,-30,-95,71,69,75,18
1491693121230,1,-22,63,33,-74,-4,-77,-85,-57
1491693121230,1,-6,-123,-20,-51,97,-34,-14,32
1491693121231,2,-24,4,-75,-1,-128,-67,21,7
1491693121231,2,-24,-52,63,-56,100,56,59,-26
1491693121237,1,10,-6,-7,-83,-116,-57,-16,-3
1491693121237,1,5,52,83,52,-119,36,-32,2
1491693121237,2,3,33,-49,5,-88,-95,-5,-61
1491693121237,2,45,-21,-61,-82,-119,-56,-61,14
1491693121328,3,-9,29,127,46,124,72,32,-30
1491693121328,3,11,-66,-128,115,-125,12,62,27
1491693121376,0,-52,-68,5,-128,-94,-94,-62,-4
1491693121376,0,2,-5,-9,-75,93,48,6,-39
1491693121425,2,-23,41,92,101,32,32,-21,-12
1491693121425,2,-32,19,32,68,-44,-49,0,5
1491693121427,3,-7,43,37,56,13,21,-16,-23
1491693121427,3,60,-36,-96,-90,-26,-23,-87,19
1491693121427,0,24,4,-78,-21,-43,83,109,51
1491693121427,0,-19,-25,-20,-57,-47,-47,-18,-32
1491693121474,1,8,-30,-12,-8,99,97,48,8
1491693121474,1,-22,45,61,10,52,-84,-54,0
1491693121476,0,12,11,-18,23,-19,-128,71,41
1491693121476,0,13,51,69,127,39,64,-36,-13
1491693121477,1,-29,-4,114,116,127,50,44,-17
1491693121477,1,56,-1,-1,32,-35,43,-62,20
1491693121478,1,26,33,82,10,103,120,-23,11
1491693121478,1,-17,32,39,57,127,34,100,22
1491693121523,2,-88,-24,27,127,47,56,-33,-64
1491693121523,2,45,-11,-3,-66,-105,-128,-45,31
1491693121524,3,-70,-5,-32,-24,74,68,120,49
1491693121524,3,52,-46,-53,-77,0,114,-111,-34
1491693121525,0,88,-20,-99,-115,-98,-84,65,43
1491693121525,0,-90,-3,64,89,40,51,-46,-62
1491693121572,2,51,60,27,25,51,70,15,97
1491693121572,2,-36,-69,-128,-117,-114,-77,79,-96
1491693121573,3,-36,-17,64,-128,107,53,25,22
1491693121573,3,56,19,49,-22,73,75,74,20
1491693121575,0,-46,-30,-89,-21,-114,-40,-121,-23
1491693121575,0,-9,38,122,73,127,23,-17,6
1491693121576,3,0,-14,-34,-13,-106,-55,-72,0
1491693121576,3,-38,6,39,-56,58,-114,-64,-39
1491693121620,0,-41,23,62,127,81,88,34,-29
1491693121620,0,82,-45,-123,-120,-79,-53,62,54
1491693121622,1,-26,-35,-1,59,-12,-76,-27,-29
1491693121622,1,-39,-33,-56,95,-56,17,16,0
1491693121623,2,2,99,121,-71,61,-78,-29,-13
1491693121623,2,-47,2,48,127,-22,-43,-114,-47
1491693121624,0,-12,-43,-76,-128,-96,7,-11,23
1491693121624,0,-7,77,89,4,113,127,22,-28
1491693121669,1,-2,-17,-56,-64,-78,-12,-9,-95
1491693121669,1,-46,-16,20,127,122,93,-64,19
1491693121671,2,-29,-36,32,-106,-41,97,17,11
1491693121671,2,80,4,34,40,72,21,36,27
1491693121672,1,-25,27,74,13,127,17,-15,10
1491693121672,1,-39,-23,4,13,-45,-83,-5,-67
1491693121673,2,-1,16,23,6,-52,93,36,-5
1491693121673,2,-99,-65,-106,-51,-128,-68,-69,1
1491693121718,3,53,2,72,-43,-128,23,71,27
1491693121718,3,26,2,8,-23,-128,-46,16,-3
1491693121719,0,-88,-25,29,124,-127,-49,-82,-27
1491693121719,0,26,-11,-37,-128,-128,28,-28,7
1491693121720,2,116,6,-31,-103,86,-124,-16,36
1491693121720,2,9,6,21,12,61,104,99,-71
1491693121721,3,-27,34,-22,104,105,-55,-64,13
1491693121721,3,-55,-24,-11,-118,-44,-60,-83,-11
1491693121815,0,62,25,-10,125,-16,-111,-58,10
1491693121815,0,42,-12,-44,18,-77,72,71,3
1491693121817,1,-51,19,-31,23,106,61,-33,7
1491693121817,1,-52,-10,-32,-46,11,17,-94,-46
1491693121818,3,-17,3,-37,-128,46,7,-51,-10
1491693121818,3,0,-1,31,-38,-18,46,49,38
1491693121819,0,-101,51,78,28,48,99,69,-97
1491693121819,0,52,-47,-97,-30,78,-103,-22,83
1491693121864,1,-50,-16,-1,-89,86,-53,-8,-36
1491693121864,1,12,-5,-51,-63,-67,-7,-118,-12
1491693121866,2,-6,-11,20,-112,-29,-6,127,-51
1491693121866,2,-82,-60,-44,74,98,-33,-36,-37
1491693121867,0,-104,-17,-19,-71,127,-36,-128,-24
1491693121867,0,93,37,77,21,28,91,-40,11
1491693121868,1,-82,-37,-98,-100,-66,-99,-50,26
1491693121868,1,-7,44,82,6,-61,61,59,2
1491693121913,2,22,-14,-36,121,-36,-73,-82,16
1491693121913,2,-74,-15,64,-10,-128,104,55,26
1491693121914,3,88,70,103,47,-63,5,-58,11
1491693121914,3,-22,-13,-128,-15,-103,-72,75,49
1491693121916,1,-27,-16,-15,127,-57,68,-70,-39
1491693121916,1,59,9,16,-128,-18,68,17,-6
1491693121917,2,-49,20,-11,-114,-34,48,-18,-3
1491693121917,2,-40,-48,-53,79,-19,-66,69,-62
1491693122011,3,12,9,75,-96,6,19,-7,-21
1491693122011,3,-62,-21,-45,61,-37,-42,12,-30
1491693122012,0,-11,-8,-37,-120,15,-31,-52,-15
1491693122012,0,-49,17,32,112,-21,6,14,-6
1491693122014,2,60,7,-58,-22,1,-62,32,49
1491693122014,2,-7,-8,-29,61,40,-80,29,-3
1491693122015,3,-22,19,-37,-128,9,116,127,6
1491693122015,3,18,-15,59,127,27,-57,-103,31
1491693122059,0,-24,-40,-61,-60,4,21,-77,-39
1491693122059,0,40,53,127,-53,-128,42,4,6
1491693122061,1,4,-24,-60,-77,49,-39,-24,-28
1491693122061,1,-9,1,-34,38,67,-71,-24,-95
1491693122062,0,53,-15,25,117,33,-72,87,104
1491693122062,0,-21,-13,-88,-101,103,-52,-128,-15
1491693122063,1,-43,-17,87,56,-98,9,-71,-27
1491693122063,1,20,42,-2,4,-76,-7,-61,-26
1491693122108,2,26,20,106,36,-2,-1,38,-7
1491693122108,2,34,-35,42,117,49,-85,-114,10
1491693122110,3,36,1,-57,-57,112,-87,83,43
1491693122110,3,-93,-8,60,48,0,-19,-65,-28
1491693122111,1,-17,-77,-73,25,70,46,-91,50
1491693122111,1,20,74,94,-65,-80,127,-15,9
1491693122112,2,-41,-19,-128,97,105,-24,-34,33
1491693122112,2,24,-39,-103,-128,66,-95,-96,-35
1491693122163,3,-14,34,105,-6,-127,106,7,-8
1491693122163,3,14,-1,45,124,0,23,-15,-37
1491693122164,0,-45,39,-5,-85,66,-55,-78,-2
1491693122164,0,30,14,-21,-128,-19,98,86,28
1491693122166,2,-39,-27,-21,29,57,45,-24,-5
1491693122166,2,-32,0,5,48,59,8,-120,-118
1491693122167,3,111,33,-31,-128,-26,-6,82,63
1491693122167,3,-29,-22,3,84,45,27,-89,12
1491693122205,0,7,-26,-61,10,-128,-27,-24,13
1491693122205,0,-2,85,79,-45,37,13,-46,-7
1491693122208,1,15,3,-14,127,42,9,10,-32
1491693122208,1,30,1,-37,-43,8,22,41,-31
1491693122209,2,-21,-45,-108,-50,127,8,-50,-80
1491693122209,2,8,-10,28,59,-62,20,1,1
1491693122210,3,-36,43,98,28,-88,-77,-71,12
1491693122210,3,31,-11,-128,-43,127,26,58,11
1491693122254,0,75,58,127,-73,-128,72,22,-17
1491693122254,0,-66,-63,-66,126,70,-63,-34,51
1491693122255,1,-16,46,69,-100,108,90,86,17
1491693122255,1,11,-11,-38,-128,-77,-96,13,10
1491693122255,3,7,10,22,70,-90,19,-29,15
1491693122255,3,36,-7,64,46,91,-23,-20,-14
1491693122256,0,-68,22,58,-26,-127,88,101,-23
1491693122256,0,79,-9,-5,-73,-20,78,127,61
1491693122303,1,-53,1,-71,57,114,-106,-128,-66
1491693122303,1,-35,-40,16,51,116,-90,-55,23
1491693122304,2,17,2,-87,10,-74,-6,16,-41
1491693122304,2,12,45,60,-81,-110,70,-74,8
1491693122305,0,23,-34,-17,127,127,61,-77,1
1491693122305,0,57,48,-32,22,31,43,127,46
1491693122306,1,19,16,1,-128,-128,-16,-115,-29
1491693122306,1,-28,-8,-7,127,-47,-49,85,-18
1491693122351,2,-30,-9,62,-11,127,18,-21,27
1491693122351,2,19,18,71,-47,-128,123,81,9
1491693122352,3,-27,-11,-49,104,68,-11,-22,-40
1491693122352,3,62,-14,-68,-112,64,-66,16,56
1491693122353,1,81,-17,16,19,95,31,-26,43
1491693122353,1,12,66,104,-41,-41,127,41,7
1491693122354,2,-17,-34,-93,-54,-64,-1,94,8
1491693122354,2,-122,2,-52,9,-82,51,-128,-87
1491693122400,3,23,-26,-38,73,67,98,127,-59
1491693122400,3,97,43,37,-96,-91,18,40,58
1491693122401,0,-52,-7,78,58,84,-117,-99,-4
1491693122401,0,-66,-59,-81,-34,109,-65,-92,-77
1491693122401,2,-24,-39,-86,-94,79,-121,-63,8
1491693122401,2,97,9,10,-77,16,89,105,67
1491693122403,3,22,40,56,-100,-58,22,-96,-58
1491693122403,3,-50,-23,16,42,60,-94,-89,36
1491693122449,0,57,51,22,-46,-76,117,28,35
1491693122449,0,-22,-55,-41,127,-14,-57,17,-22
1491693122450,1,-2,-38,-75,-128,81,-54,-4,52
1491693122450,1,40,98,113,-36,-128,-29,-128,-29
1491693122450,3,37,7,98,-67,-128,122,127,-9
1491693122450,3,-50,-40,-128,112,127,3,-47,-17
1491693122451,0,102,5,19,-119,-5,-57,-121,6
1491693122451,0,-20,8,17,-57,-122,12,33,7
1491693122498,1,-42,47,73,50,4,9,33,-10
1491693122498,1,51,-18,20,60,-20,70,89,8
1491693122499,2,-103,-6,-58,-123,61,-83,-97,-88
1491693122499,2,19,-70,-42,-62,31,94,41,-12
1491693122500,0,40,-6,-35,-50,-31,-58,-51,-14
1491693122500,0,-26,-38,-122,11,62,19,58,-13
1491693122501,1,-98,-26,29,43,63,39,-67,-30
1491693122501,1,121,1,-47,-22,-54,10,50,39
1491693122547,2,-92,33,110,-13,-128,46,69,-53
1491693122547,2,-16,87,127,127,90,-63,-6,25
1491693122549,3,-29,-68,-128,-128,122,-95,-43,21
1491693122549,3,-86,-76,-117,-128,-97,-13,117,-32
1491693122554,0,78,63,66,127,-12,-16,-51,38
1491693122554,0,-40,-22,-6,36,-45,9,0,-52
1491693122556,1,41,4,-28,-38,-79,77,-64,42
1491693122556,1,-128,-77,-123,76,127,-128,18,-29
1491693122597,2,-30,23,32,-42,-73,127,65,-2
1491693122597,2,48,23,27,-104,-102,-56,74,-36
1491693122599,3,41,-11,6,127,-4,92,-105,37
1491693122599,3,30,33,-48,-127,-92,-22,-10,-41
1491693122602,1,74,-13,-92,-39,62,75,36,-7
1491693122602,1,14,32,127,-36,31,-76,-41,5
1491693122603,2,-16,23,49,100,9,40,-24,58
1491693122603,2,62,28,127,11,-128,127,25,-7
1491693122693,3,-59,-25,-69,18,124,-125,-42,-20
1491693122693,3,6,-31,-104,-128,124,-54,-109,-6
1491693122695,0,51,36,16,-117,-122,82,76,-27
1491693122695,0,-86,-67,-99,99,127,-82,-102,-13
1491693122696,2,-42,5,59,-47,62,65,10,20
1491693122696,2,107,-14,-110,23,-65,-27,81,85
1491693122697,3,-87,-24,-34,127,108,67,56,-60
1491693122697,3,36,56,127,-39,-128,113,15,18
1491693122742,0,28,-42,-57,61,-42,-1,108,17
1491693122742,0,-59,15,-63,-128,94,54,-62,6
1491693122743,1,-2,26,36,-61,82,-66,-102,-53
1491693122743,1,-83,-71,-117,-50,127,99,74,-13
1491693122744,3,-15,16,39,109,41,75,52,9
1491693122744,3,-19,5,-35,-128,-75,-76,-60,-45
1491693122745,0,-30,10,-2,-107,113,15,72,-11
1491693122745,0,-24,61,66,-73,-106,127,3,-7
1491693122790,1,-35,-66,-1,127,127,-35,7,-27
1491693122790,1,19,4,-50,-124,32,8,-25,-5
1491693122791,2,-42,14,29,-90,-51,-96,-47,34
1491693122791,2,50,-28,-30,127,127,-20,54,3
1491693122792,1,-21,-4,-2,-52,5,29,69,6
1491693122792,1,18,-70,-14,127,42,-28,-57,19
1491693122793,2,-67,39,37,-107,125,23,1,-112
1491693122793,2,101,45,-17,-106,-105,93,121,90
1491693122839,3,-86,-71,-128,-47,34,-51,-99,-24
1491693122839,3,5,23,127,46,-116,127,71,12
1491693122840,0,33,-86,-128,-54,41,-128,-73,38
1491693122840,0,-43,48,116,44,-70,3,-11,-9
1491693122841,2,45,87,88,-96,-97,-84,2,59
1491693122841,2,-17,-39,-52,-71,-82,26,19,-5
1491693122841,3,22,-5,-86,71,-103,-46,-96,-11
1491693122841,3,-70,-22,-31,-128,32,-7,42,-18
1491693122888,0,92,62,64,127,123,62,18,6
1491693122888,0,-75,-75,-81,-35,79,-99,-32,-16
1491693122889,1,5,17,-38,-67,53,78,83,-2
1491693122889,1,40,-12,21,-68,81,25,-7,50
1491693122890,2,-53,-46,-34,6,72,-50,-116,-57
1491693122890,2,78,31,60,53,28,36,62,44
1491693122985,3,31,24,37,103,45,-48,-84,-7
1491693122985,3,-34,6,-21,-68,45,-28,-8,-51
1491693122987,0,-22,-24,-96,21,-1,112,10,41
1491693122987,0,6,12,4,49,30,54,-30,-5
1491693122988,1,-50,-77,-123,-40,34,-55,-18,-2
1491693122988,1,1,48,103,38,-3,-22,-35,-24
1491693122989,3,78,55,127,118,7,127,122,20
1491693122989,3,-22,-37,-128,-25,-17,-128,-67,21
1491693123034,0,21,3,-22,-45,8,47,-114,-15
1491693123034,0,-44,-94,-105,127,17,-60,22,-34
1491693123037,1,26,90,90,-128,-13,-75,0,18
1491693123037,1,16,-67,-128,127,105,-45,52,12
1491693123037,2,-41,-45,-38,-96,127,44,77,-12
1491693123037,2,53,49,116,82,-1,110,44,23
1491693123038,1,-4,-31,-128,-108,85,61,6,-16
1491693123038,1,-39,-26,-62,-79,81,31,-121,-16
1491693123083,2,0,14,106,11,110,127,38,3
1491693123083,2,-35,31,-114,10,-10,-89,-103,-43
1491693123085,3,66,-18,-26,16,127,-3,-40,35
1491693123085,3,-18,1,27,-2,-54,-43,-53,-39
1491693123086,2,29,0,-36,-115,-91,-58,-58,-8
1491693123086,2,-23,-33,-36,87,-73,-1,-88,3
1491693123087,3,-12,46,99,92,114,127,127,38
1491693123087,3,29,-48,-128,75,-125,-91,-128,-5
1491693123131,0,-70,-40,-55,-49,-34,-44,92,-6
1491693123131,0,40,77,59,-48,94,119,67,10
1491693123132,1,-8,-29,16,54,46,54,-93,0
1491693123132,1,-33,33,112,112,124,-24,112,-32
1491693123133,3,-47,-15,20,-89,45,-45,-63,1
1491693123133,3,11,-38,119,-45,23,80,5,-18
1491693123134,0,-3,38,-76,-79,-42,-78,-28,33
1491693123134,0,28,52,101,-128,34,-3,0,-4
1491693123180,1,-41,-37,14,23,-59,-19,-27,-37
1491693123180,1,69,39,-11,34,8,54,-9,25
1491693123181,2,-4,-61,-5,11,3,-13,27,33
1491693123181,2,-12,14,18,-14,53,-10,-77,-28
1491693123182,0,-26,-24,27,82,-6,-96,-112,15
1491693123182,0,8,19,-18,-45,101,125,111,55
1491693123278,1,-17,22,23,125,-86,24,-38,-31
1491693123278,1,5,6,-58,-76,53,-77,9,25
1491693123327,2,-56,-105,-107,-3,-104,-106,-98,-69
1491693123327,2,-31,-61,78,-119,114,76,-26,-39
1491693123328,3,27,42,54,10,116,79,115,28
1491693123328,3,-27,26,81,-1,11,-29,-45,4
1491693123375,0,29,27,19,10,37,29,-22,-44
1491693123375,0,12,-18,-61,54,-35,-50,-4,-25
1491693123424,1,-12,-36,-78,-72,19,16,45,-20
1491693123424,1,14,2,84,18,74,62,-49,31
1491693123425,2,7,-56,-74,18,-84,-61,-85,-30
1491693123425,2,-48,-64,-95,-109,13,70,37,71
1491693123426,3,32,3,54,-99,-1,50,50,19
1491693123426,3,-71,21,52,62,44,29,-117,-55
1491693123427,2,-58,-100,-13,-47,-40,-128,-128,-29
1491693123427,2,7,45,102,-74,66,51,88,-2
1491693123473,3,-83,22,38,-128,-14,14,-36,-26
1491693123473,3,17,-21,-97,-1,-101,-71,127,3
1491693123476,0,0,15,-30,-7,-45,-29,-73,-18
1491693123476,0,36,-50,23,127,13,9,29,8
1491693123477,1,52,37,73,123,82,52,77,69
1491693123477,1,19,5,-43,-46,-45,85,-57,-8
1491693123477,2,-103,-13,-18,-37,-90,-83,-85,-14
1491693123477,2,9,-14,33,-8,-8,38,80,-8
1491693123521,3,35,-13,-11,19,-55,43,-53,-60
1491693123521,3,13,52,12,-12,116,44,47,3
1491693123522,0,2,16,59,89,10,73,57,36
1491693123522,0,-3,-75,-82,-73,40,-122,-65,-7
1491693123523,2,-5,-4,31,111,-86,1,25,39
1491693123523,2,8,-2,93,-42,99,61,-18,-45
1491693123524,3,-44,-55,-64,84,-76,-59,-3,19
1491693123524,3,0,-82,29,41,81,57,-16,-16
1491693123570,0,18,-110,-123,-75,26,-127,-103,-25
1491693123570,0,-8,0,119,40,86,127,57,9
1491693123619,1,2,-105,12,3,45,66,37,23
1491693123619,1,-62,-33,-85,48,-128,13,81,-63
1491693123620,3,-9,106,110,12,127,19,0,-3
1491693123620,3,-7,102,-77,-35,7,41,-30,36
1491693123621,0,7,56,56,47,86,114,26,-19
1491693123621,0,-21,72,48,5,-128,-128,62,24
1491693123622,1,33,32,-61,-92,4,73,-62,19
1491693123622,1,-41,-27,6,-110,-90,-80,-127,-69
1491693123668,2,10,26,-23,-53,99,127,105,45
1491693123668,2,6,21,69,-6,76,11,-35,39
1491693123669,3,-92,13,111,17,-86,127,20,-79
1491693123669,3,70,5,-52,119,-58,-106,-87,10
1491693123670,0,-15,-10,28,-123,1,58,77,54
1491693123670,0,15,11,-38,69,-26,18,-63,-57
1491693123671,0,-24,-18,83,31,32,37,-115,-28
1491693123671,0,0,2,-99,-92,-74,-61,-1,-41
1491693123723,1,76,-16,-30,93,73,-48,-12,12
1491693123723,1,-56,-3,72,-27,73,-92,-85,19
1491693123724,2,54,20,45,10,56,-55,105,-39
1491693123724,2,-23,6,43,-58,-16,88,-48,67
1491693123725,1,11,38,123,-85,-15,-9,-8,58
1491693123725,1,47,38,116,103,87,105,32,25
1491693123726,2,-4,-24,-105,-127,-112,-82,-96,5
1491693123726,2,-94,-24,5,-7,-26,80,-14,-29
1491693123765,3,68,-29,-38,77,-124,-30,-53,-90
1491693123765,3,-1,1,49,22,-41,119,22,-8
1491693123767,0,-15,-9,-40,86,-9,-82,-66,-22
1491693123767,0,-20,-20,-18,-103,-6,80,51,23
1491693123768,2,1,26,71,104,71,110,30,-23
1491693123768,2,49,48,43,-62,77,50,-102,-24
1491693123769,3,-71,-13,61,35,69,116,-21,29
1491693123769,3,-12,-20,-95,50,73,27,105,-21
1491693123814,0,48,14,62,-43,94,47,-35,9
1491693123814,0,73,-8,-83,127,69,-56,49,-15
1491693123816,1,-45,16,88,-118,12,-90,-114,-6
1491693123816,1,23,4,-71,72,119,39,-2,68
1491693123817,3,6,39,1,-103,-70,-5,30,49
1491693123817,3,-22,3,117,88,-93,77,83,15
1491693123818,0,-42,1,-15,-73,-128,-39,-23,4
1491693123818,0,64,-22,-5,-90,-104,-54,-13,72
1491693123863,1,-66,-5,-83,-34,-84,-54,-61,-40
1491693123863,1,95,-5,89,22,44,-46,73,68
1491693123864,2,-50,-50,-128,-63,68,96,14,-51
1491693123864,2,-4,66,114,-27,6,54,70,-10
1491693123866,0,15,49,89,7,-83,61,89,48
1491693123866,0,-93,-87,-105,86,127,-128,-68,-41
1491693123867,1,14,11,-3,-49,12,48,20,2
1491693123867,1,14,-17,-53,40,76,-99,-22,5
1491693123911,2,30,2,-24,-53,123,-70,-102,-33
1491693123911,2,29,15,43,-128,-67,-88,-18,54
1491693123913,3,-63,5,3,23,127,-8,58,29
1491693123913,3,-21,54,127,-26,-38,93,46,-28
1491693123913,1,68,-4,35,127,-22,2,-75,26
1491693123913,1,-61,16,23,-128,-128,47,-128,-73
1491693123915,2,11,35,27,127,33,-61,127,-17
1491693123915,2,-11,-24,-56,-15,127,-26,-128,16
1491693124009,3,-17,-29,-93,-64,-19,-28,37,-77
1491693124009,3,60,-21,-57,-76,-38,-15,-47,89
1491693124010,0,20,9,97,-41,-128,48,-49,-59
1491693124010,0,-24,1,13,38,54,-77,-33,49
1491693124011,1,17,21,11,-30,127,95,48,33
1491693124011,1,29,22,67,116,-46,-111,49,-8
1491693124012,2,7,-36,-121,-128,85,-19,-29,-73
1491693124012,2,-25,76,127,95,101,79,29,89
1491693124058,3,-44,-36,-25,28,-68,55,-26,-57
1491693124058,3,15,-13,-89,-128,-44,73,44,-80
1491693124059,0,-71,-20,-22,127,43,-86,-63,-5
1491693124059,0,66,29,37,-62,-8,-32,75,50
1491693124110,3,96,116,98,-77,-114,87,71,69
1491693124110,3,-126,-68,-81,36,127,42,-11,21
1491693124111,0,-38,-4,-39,-114,36,49,-70,-51
1491693124111,0,61,4,-20,47,-30,90,57,62
1491693124112,1,-95,-66,-62,11,103,-23,-108,27
1491693124112,1,88,38,67,10,-78,-51,96,-79
1491693124113,2,-82,-25,26,82,-43,-66,-73,54
1491693124113,2,-46,-27,-51,-25,80,-13,-104,-106
1491693124164,0,-10,-25,-49,-44,-7,6,-45,9
1491693124164,0,-33,8,41,-128,-93,-20,127,-20
1491693124165,1,34,-31,12,-47,-68,114,3,15
1491693124165,1,-60,-13,-23,97,63,-121,-43,4
1491693124165,2,55,-10,-36,25,76,-10,45,47
1491693124165,2,-65,36,72,-28,-37,-58,-128,-30
1491693124166,1,54,-32,-76,59,54,-28,117,-33
1491693124166,1,-57,20,32,-70,61,53,-128,-30
1491693124204,2,81,29,77,0,-69,2,-41,-69
1491693124204,2,-47,-34,-54,77,127,50,11,6
1491693124253,3,-65,0,35,-128,-25,-38,-108,-101
1491693124253,3,-48,-27,-33,-21,-74,10,120,34
1491693124254,2,-81,27,115,-97,23,21,42,-9
1491693124254,2,52,-16,-50,45,86,5,82,27
1491693124254,3,-27,-26,-23,-4,-18,-57,-42,4
1491693124254,3,-41,59,84,-31,-93,74,-60,-35
1491693124255,0,25,-74,-89,104,73,-80,-55,77
1491693124255,0,59,33,-37,-89,-89,60,83,27
1491693124301,1,-116,-13,-1,119,110,-100,-100,-27
1491693124301,1,92,17,-6,-58,-50,25,-48,-88
1491693124302,3,65,-10,-72,-57,80,49,113,-9
1491693124302,3,56,46,59,-77,-115,-31,-56,40
1491693124303,0,-60,-42,41,63,127,-93,-30,-91
1491693124303,0,-51,-30,-93,-112,109,-67,-77,-80
1491693124304,3,101,60,87,-70,-62,24,22,18
1491693124304,3,-72,28,70,75,127,127,15,0
1491693124399,0,-32,0,-49,-127,2,-110,-73,0
1491693124399,0,-29,-18,-41,42,-33,46,52,-60
1491693124401,1,9,28,38,23,-30,120,84,65
1491693124401,1,15,-28,-83,-128,-13,-128,-79,3
1491693124401,0,-36,-15,50,125,-16,104,34,45
1491693124401,0,23,53,35,-94,-115,-17,127,59
1491693124402,1,23,12,31,101,31,-62,-79,-20
1491693124402,1,-48,-36,-90,-102,5,46,71,-75
1491693124449,2,4,12,17,41,62,-79,81,-8
1491693124449,2,3,-6,-18,-26,-12,118,-112,-48
1491693124452,3,40,19,33,32,-20,50,87,63
1491693124452,3,-4,33,11,44,-10,-44,1,-71
1491693124453,1,-60,-28,-128,-108,117,-128,-69,-82
1491693124453,1,-2,4,81,56,48,127,3,14
1491693124454,2,47,6,-72,12,-73,-89,29,-11
1491693124454,2,8,-17,17,-113,99,-41,-79,-55
1491693124496,3,-3,28,-24,76,-121,99,-10,15
1491693124496,3,5,-18,-26,81,41,-62,60,16
1491693124497,0,-75,7,125,-109,-22,109,88,-45
1491693124497,0,-22,8,-77,-21,-128,13,-43,30
1491693124498,3,36,32,-22,-126,-86,2,-100,-49
1491693124498,3,-55,-128,-128,-81,127,-15,37,-86
1491693124499,0,36,31,98,15,-109,68,-100,-29
1491693124499,0,10,30,-9,114,65,-123,80,51
1491693124545,1,-69,-5,73,-19,-59,50,-103,-7
1491693124545,1,10,-29,-123,29,121,36,42,27
1491693124546,2,38,-9,-57,-128,9,-16,-55,-81
1491693124546,2,0,31,125,122,65,123,53,-25
1491693124546,0,-41,-31,0,-67,-112,63,38,-61
1491693124546,0,59,1,6,127,98,92,-3,59
1491693124548,1,30,-8,-23,-119,127,-100,-109,-18
1491693124548,1,6,34,107,-62,-126,84,14,-45
1491693124594,2,31,-23,-31,-17,-60,-14,-37,65
1491693124594,2,-45,-21,-47,51,20,72,31,7
1491693124594,3,-30,15,49,-73,-44,108,-48,-15
1491693124594,3,-67,0,-9,127,127,35,51,44
1491693124595,1,-65,15,53,127,113,51,46,15
1491693124595,1,123,-5,-19,-121,44,-29,35,39
1491693124596,2,-88,-37,-128,-60,123,-55,-77,-67
1491693124596,2,-85,-5,29,-81,-100,-20,13,-35
1491693124643,3,124,24,65,-26,-78,33,101,24
1491693124643,3,38,58,117,-105,-128,73,22,-1
1491693124643,0,25,-60,-95,127,127,-95,38,58
1491693124643,0,-14,-79,-89,-128,-65,-66,-120,-79
1491693124644,1,44,42,64,-72,29,35,108,86
1491693124644,1,-110,-6,32,115,-96,94,-65,-56
1491693124645,2,80,45,64,-96,-111,2,-75,82
1491693124645,2,-100,-4,124,127,81,6,20,41
1491693124692,3,27,-84,-128,-118,-93,25,-23,-78
1491693124692,3,-15,-64,-128,127,127,-128,-64,26
1491693124692,0,-25,47,84,-57,-91,127,-98,23
1491693124692,0,2,-20,-78,-112,-79,-12,66,-1
1491693124693,2,-59,-37,-111,66,108,-38,9,-31
1491693124693,2,60,-38,-66,-77,0,-45,-33,38
1491693124694,3,36,22,4,-7,-44,-18,-24,21
1491693124694,3,17,20,39,32,-45,32,3,22
1491693124740,0,-30,-24,-27,63,46,-43,-7,-39
1491693124740,0,6,-15,-86,-68,-58,29,79,4
1491693124741,1,-17,-34,10,110,127,-126,-83,16
1491693124741,1,1,1,-22,-120,-106,-7,-56,22
1491693124742,3,18,-30,-83,20,75,-117,-40,50
1491693124742,3,34,12,5,-41,58,64,-40,-5
1491693124743,0,-80,-61,-34,-108,-68,107,-32,5
1491693124743,0,-94,9,-67,114,115,-116,56,-48
1491693124789,1,49,60,91,-128,-128,127,-15,14
1491693124789,1,-43,-69,5,93,84,-19,-50,-14
1491693124790,2,115,92,109,-74,-105,127,127,59
1491693124790,2,20,-66,-35,104,64,-69,-118,13
1491693124791,0,-19,-8,5,127,-86,118,13,-7
1491693124791,0,100,58,80,-128,16,7,42,58
1491693124792,1,-18,20,52,118,-79,-12,21,4
1491693124792,1,-46,-42,-48,81,127,50,-96,-50
1491693124841,2,39,25,117,-87,-46,78,127,30
1491693124841,2,-66,19,56,62,61,3,-101,-87
1491693124842,3,11,-27,-18,-79,-95,-96,-82,-20
1491693124842,3,60,8,11,-35,-121,32,127,38
1491693124843,1,35,43,57,-67,-72,127,85,8
1491693124843,1,-25,-4,61,23,-15,-128,9,-27
1491693124844,2,-56,-13,-23,48,109,-8,16,-5
1491693124844,2,2,-64,-81,-92,-98,17,-28,19
1491693124886,3,-12,-7,-45,-23,83,-13,-7,17
1491693124886,3,-41,-15,-80,-117,-101,-128,1,11
1491693124887,0,42,43,29,-38,-71,91,-30,-58
1491693124887,0,15,68,127,82,-121,82,68,35
1491693124888,2,-87,-45,-125,94,116,5,-64,-38
1491693124888,2,33,19,96,-71,-128,95,14,18
1491693124889,3,-32,-6,-43,-31,0,-70,-50,7
1491693124889,3,-33,7,12,-61,-87,119,-36,-21
1491693124935,0,-15,-16,47,35,-128,-80,-27,18
1491693124935,0,0,27,38,39,0,-86,-54,-14
1491693124936,1,-28,-33,-6,-56,81,16,16,-7
1491693124936,1,-36,12,1,119,127,-115,-88,14
1491693124937,3,118,19,36,-99,81,99,39,64
1491693124937,3,-71,-9,-29,18,99,27,-28,-14
1491693124937,0,-9,40,-5,84,21,86,31,-8
1491693124937,0,-45,-39,-68,-58,66,-89,-41,46
1491693124984,1,58,-15,-62,-46,53,-12,55,-6
1491693124984,1,47,-5,-111,-45,44,-75,-28,52
1491693124985,2,29,52,108,-88,20,74,34,17
1491693124985,2,-33,-16,-112,55,30,-15,17,-14
1491693124986,0,16,-77,-96,-23,0,-128,-50,-3
1491693124986,0,2,-13,46,-71,31,66,-31,-1
1491693124986,1,-11,23,85,45,97,84,4,-8
1491693124986,1,-27,15,70,42,98,-50,-39,-12
1491693125033,2,108,3,91,-128,-36,-11,21,59
1491693125033,2,-2,24,91,-17,-115,0,-40,-35
1491693125034,3,-29,-38,85,127,-128,-37,34,-12
1491693125034,3,-5,-8,112,21,-123,124,-19,-15
1491693125034,0,-41,5,-43,-77,-124,1,-46,-5
1491693125034,0,102,8,-19,4,-125,48,23,25
1491693125035,1,-7,15,-103,-76,-128,-75,2,4
1491693125035,1,-23,-17,-78,-7,-114,84,-38,-10
1491693125081,2,-24,14,-46,-107,3,-71,-46,-7
1491693125081,2,5,-35,-119,127,117,61,-19,7
1491693125082,3,-78,-14,-80,-127,127,-12,-56,-60
1491693125082,3,51,-11,-50,-124,127,-45,31,20
1491693125083,1,9,38,-31,-11,127,-5,-17,20
1491693125083,1,35,33,26,127,121,-54,-5,11
1491693125131,2,42,-64,-60,-91,-39,-85,1,18
1491693125131,2,-30,-31,-23,11,-28,30,43,37
1491693125132,3,-23,0,1,-96,-30,120,19,-32
1491693125132,3,-12,-20,6,83,-17,-14,-51,-12
1491693125133,0,38,104,127,-41,104,42,88,53
1491693125133,0,-71,-91,-128,76,-119,-128,-105,-65
1491693125134,2,-17,-40,-92,7,-111,-41,29,-7
1491693125134,2,23,-11,-27,-30,29,-43,-26,-4
1491693125179,3,-13,86,91,122,88,78,-53,-31
1491693125179,3,12,6,1,-17,-19,-61,12,23
1491693125181,0,-26,4,127,108,116,127,2,-15
1491693125181,0,43,52,94,29,120,-25,1,9
1491693125182,1,-43,-128,-93,127,-127,-23,-34,-20
1491693125182,1,13,19,12,-105,63,77,-15,-3
1491693125183,3,63,108,127,-58,4,-7,15,37
1491693125183,3,-27,-65,-34,39,-26,-52,-37,9
1491693125229,0,26,66,50,-33,38,37,-5,11
1491693125229,0,4,-19,127,85,88,127,127,-23
1491693125232,1,47,64,-87,-128,-41,-85,-1,42
1491693125232,1,-8,-15,-38,-34,-86,-53,-52,0
1491693125233,0,-10,-2,-2,-53,102,57,45,-31
1491693125233,0,52,35,-7,34,-89,-16,40,41
1491693125234,1,3,10,92,123,-8,83,46,-12
1491693125234,1,-59,-87,-112,31,-90,-128,-79,-48
1491693125276,2,8,7,-5,8,-58,56,53,39
1491693125276,2,23,2,96,5,32,-10,43,20
1491693125277,3,28,-32,-128,-84,-128,-42,-19,-5
1491693125277,3,-22,-60,-46,-92,-77,-21,-41,-2
1491693125278,1,41,95,127,89,127,88,-83,-6
1491693125278,1,6,-28,-127,37,54,103,127,1
1491693125279,2,-75,-124,-128,-69,-128,-127,-16,3
1491693125279,2,77,112,39,-58,104,39,-34,19
1491693125325,3,-103,-59,5,-74,74,50,29,-3
1491693125325,3,127,35,4,63,-15,-7,32,10
1491693125326,0,-62,100,104,118,99,-12,-32,-25
1491693125326,0,-104,-100,-12,-77,7,62,-93,-3
1491693125332,2,120,15,-56,67,72,-81,-63,67
1491693125332,2,-107,115,87,-12,102,52,-94,-59
1491693125333,3,-39,-87,-105,41,53,59,94,87
1491693125333,3,68,-10,-27,-122,85,83,48,47
1491693125374,0,-72,0,47,83,-34,-100,-42,-41
1491693125374,0,-16,29,77,-1,69,52,-48,-8
1491693125375,1,-58,-79,-98,49,-42,-23,11,-24
1491693125375,1,0,82,6,-68,-85,-59,27,-6
1491693125376,2,4,58,12,-107,89,-18,-128,-56
1491693125376,2,62,6,15,94,-58,49,127,47
1491693125377,3,-60,27,49,-82,-89,46,-18,-14
1491693125377,3,-49,3,0,103,22,0,-40,-32
1491693125423,0,99,-1,-60,-117,2,48,-11,6
1491693125423,0,-46,1,-15,-105,-77,-105,-27,-2
1491693125424,1,5,19,63,45,-9,27,-13,-37
1491693125424,1,11,-41,79,-54,72,21,23,20
1491693125424,3,-96,46,-108,10,-127,-128,-116,-28
1491693125424,3,67,15,15,-50,-33,-4,27,62
1491693125425,0,-66,9,-63,-55,-71,-13,-7,-31
1491693125425,0,79,-46,-14,-11,63,26,36,3
1491693125472,1,-18,37,30,31,-51,-91,-52,-26
1491693125472,1,-14,35,127,99,127,1,-79,-34
1491693125473,2,17,-18,-45,91,-60,92,117,32
1491693125473,2,-23,-9,-128,-48,-128,-128,5,-11
1491693125474,0,-53,-7,-50,68,-39,-123,94,33
1491693125474,0,-16,-6,-54,-80,77,70,-39,-30
1491693125475,1,16,-19,2,-24,-21,22,46,41
1491693125475,1,-43,24,45,-21,1,-48,11,-29
1491693125520,2,65,20,127,-79,127,79,-43,19
1491693125520,2,-107,18,-23,127,-97,-23,6,-48
1491693125521,3,109,-24,-101,-88,-80,-120,16,81
1491693125521,3,-34,0,-8,-116,-68,72,4,2
1491693125522,1,-19,0,60,126,127,99,65,-8
1491693125522,1,68,46,-10,127,18,83,12,-18
1491693125523,2,76,0,-23,-124,18,127,18,4
1491693125523,2,-92,-80,-56,-43,-117,-99,-60,-25
1491693125569,3,0,-28,8,57,60,-62,-110,4
1491693125569,3,-52,-7,-27,-81,21,1,-38,1
1491693125570,0,-47,-1,127,10,114,74,24,-35
1491693125570,0,74,72,127,7,127,127,69,19
1491693125571,2,88,-19,87,64,60,77,39,68
1491693125571,2,-98,-15,-115,-90,-116,-70,-39,-56
1491693125575,3,67,22,-15,-73,22,31,59,46
1491693125575,3,-9,11,3,62,70,78,-48,-3
1491693125618,0,-89,-71,-109,-99,-128,-121,-40,1
1491693125618,0,84,85,127,28,88,43,31,34
1491693125619,1,-22,27,-26,-10,-33,-51,-10,-62
1491693125619,1,16,-2,-19,-70,83,127,47,-1
1491693125620,3,-36,-24,-16,-35,-44,-29,-112,-43
1491693125620,3,19,24,73,127,70,30,113,28
1491693125621,0,-68,-60,-126,-52,-116,-118,-68,-56
1491693125621,0,108,29,-3,-107,45,-45,-42,2
1491693125715,1,-12,8,82,-27,99,121,29,25
1491693125715,1,-4,18,-29,-68,33,-128,49,-15
1491693125716,2,-42,-20,24,-85,-38,-15,-63,-47
1491693125716,2,-76,-27,-85,-13,-94,-82,47,42
1491693125717,0,29,7,-59,60,-90,98,16,-13
1491693125717,0,-90,-35,-25,86,-18,-70,-128,-124
1491693125718,1,30,31,40,3,67,75,61,81
1491693125718,1,-79,-28,-116,1,-128,-45,-25,1
1491693125764,2,27,29,19,40,25,13,106,37
1491693125764,2,-19,-75,-106,-72,-128,-95,-107,-28
1491693125766,3,-67,-6,44,-63,94,86,56,-16
1491693125766,3,4,-60,-81,-29,-128,97,-118,-6
1491693125767,0,19,33,-35,-128,-92,-62,-32,-58
1491693125767,0,54,14,18,-8,3,23,31,23
1491693125770,1,-63,-49,-72,112,14,80,-19,-48
1491693125770,1,104,15,-58,-66,83,-98,82,12
1491693125813,2,-97,34,-3,58,100,32,-66,-26
1491693125813,2,-11,45,106,43,21,85,20,-55
1491693125814,3,-30,-20,-105,92,-80,-23,-62,-63
1491693125814,3,97,-23,29,77,-128,44,-45,34
1491693125814,2,-99,-42,5,85,113,9,-3,52
1491693125814,2,89,21,55,-72,-127,65,64,-30
1491693125861,3,-9,-11,-85,27,37,-60,-128,-19
1491693125861,3,-39,-30,-4,-120,39,-54,50,47
1491693125862,0,-28,-2,-117,-119,66,-128,19,-18
1491693125862,0,-51,-17,33,58,32,9,-84,9
1491693125911,1,116,28,69,7,57,80,91,61
1491693125911,1,36,36,3,-20,56,97,76,13
1491693125912,3,80,71,51,1,-26,-52,-65,68
1491693125912,3,-61,-82,-100,-59,84,4,-110,-21
1491693125913,0,35,-15,-15,29,38,91,99,25
1491693125913,0,-48,17,25,-23,-64,90,8,43
1491693125959,1,14,-10,-36,127,-18,-128,54,-38
1491693125959,1,-50,-17,-59,34,61,59,61,-64
1491693125960,2,-65,-13,35,-128,-81,-115,-123,-91
1491693125960,2,93,20,25,116,39,20,5,42
1491693125961,0,-4,-11,-22,-115,50,-100,-42,-47
1491693125961,0,69,67,26,34,18,110,72,13
1491693125962,1,4,-4,82,-128,-65,-30,-128,-26
1491693125962,1,-96,-58,-56,127,119,8,1,-6
1491693126008,1,-102,-36,-78,-124,89,15,-59,-10
1491693126008,1,-48,-27,15,-84,-107,-40,-17,-45
1491693126008,2,67,34,0,46,-22,23,-69,41
1491693126008,2,-6,-5,64,112,-83,65,53,-91
1491693126010,2,-13,-40,-22,-128,-113,17,127,-81
1491693126010,2,-101,-80,-128,83,77,-29,17,37
1491693126011,3,-33,24,86,68,84,-29,24,39
1491693126011,3,106,42,-8,-103,-107,44,10,-48
1491693126056,0,-19,2,35,76,39,-116,-30,34
1491693126056,0,0,-14,3,-19,-37,-76,-69,-56
1491693126057,1,-47,32,54,17,-88,14,-50,-11
1491693126057,1,105,12,-2,-44,-2,71,56,85
1491693126058,2,-3,-11,-70,63,98,88,34,-13
1491693126058,2,82,11,13,-121,-73,110,8,-11
1491693126059,3,-88,-38,-60,97,120,-128,-42,-51
1491693126059,3,-114,-30,24,65,93,-15,-24,36
1491693126105,0,30,-6,-1,-102,-104,-43,92,-10
1491693126105,0,-59,15,12,-49,-55,-3,34,-54
1491693126106,1,119,32,118,-109,-128,95,9,82
1491693126106,1,-47,-34,-65,91,22,-72,42,-38
1491693126107,3,36,-6,-46,25,82,17,-40,5
1491693126107,3,-42,-5,34,-91,46,-12,61,30
1491693126108,0,14,34,57,102,49,60,33,-33
1491693126108,0,-75,-29,102,46,-4,-57,-78,17
1491693126154,1,52,4,-128,63,28,4,78,-5
1491693126154,1,97,42,109,-29,-128,79,-6,72
1491693126156,2,-61,-58,-74,93,52,25,123,-6
1491693126156,2,-40,35,-43,-51,127,15,-128,-47
1491693126157,0,5,16,-10,-128,-103,48,2,46
1491693126157,0,13,46,70,44,-27,127,11,-61
1491693126157,1,46,19,76,59,-89,-13,-126,77
1491693126157,1,-26,-42,-68,40,26,-29,77,-12
1491693126203,2,53,-16,-79,-107,57,81,34,75
1491693126203,2,-1,-13,-118,-94,-43,-123,-65,-3
1491693126204,3,-23,-36,0,85,124,42,127,8
1491693126204,3,-27,31,38,-2,-93,5,26,-99
1491693126205,1,-86,11,106,-11,-45,53,-128,-38
1491693126205,1,11,-56,-109,-115,25,-82,-81,-52
1491693126205,2,36,0,-100,77,12,17,100,4
1491693126205,2,8,-17,75,104,91,-13,-1,56
1491693126251,3,-41,38,45,-128,-80,-128,-128,-101
1491693126251,3,66,-29,-84,127,127,-61,106,105
1491693126252,0,-26,66,127,-40,-9,68,-80,-16
1491693126252,0,72,-10,-84,41,-86,-23,15,56
1491693126253,2,-20,-12,-45,-72,-87,-15,-20,-96
1491693126253,2,70,-35,-119,9,109,-44,-58,-15
1491693126254,3,-61,20,64,-86,45,36,-78,-20
1491693126254,3,37,32,41,113,29,46,-53,-28
1491693126300,0,-48,5,35,-103,-117,-63,2,4
1491693126300,0,-16,12,86,7,-87,2,-71,-68
1491693126309,1,107,26,33,-32,-108,117,70,112
1491693126309,1,-21,13,47,26,-79,-72,-7,-26
1491693126310,3,15,64,52,105,14,-60,-28,-39
1491693126310,3,13,47,120,-128,-127,78,-44,27
1491693126311,0,29,-35,-49,127,29,-97,94,10
1491693126311,0,-48,-34,26,-128,22,-32,-50,8
1491693126398,1,-41,-15,-15,-71,-7,12,-29,74
1491693126398,1,-38,22,41,118,57,127,-9,-30
1491693126399,2,16,15,14,-123,-128,-26,-88,9
1491693126399,2,-53,16,76,73,127,-16,89,-58
1491693126400,0,-66,-30,-40,118,127,-102,-19,44
1491693126400,0,106,7,-79,-57,93,-62,-64,19
1491693126401,1,39,-6,-29,55,81,80,114,74
1491693126401,1,26,48,34,-60,-31,16,-73,-16
1491693126446,2,-55,18,70,57,-23,-58,-49,-7
1491693126446,2,-37,-44,102,27,-123,-37,-91,-3
1491693126447,3,58,23,-128,127,-8,84,17,-39
1491693126447,3,48,-45,10,84,127,102,56,75
1491693126448,1,40,3,66,42,60,-46,-38,-61
1491693126448,1,-39,-79,-71,127,111,-63,80,9
1491693126449,1,-63,27,66,73,97,42,48,25
1491693126449,1,-74,-28,-68,53,89,-34,-108,-4
1491693126495,2,61,10,97,47,-4,65,-32,32
1491693126495,2,-34,-11,-105,-74,-36,108,93,-11
1491693126496,3,-25,-11,-29,-128,-106,-65,-12,57
1491693126496,3,-17,31,127,-4,-128,66,36,46
1491693126497,2,-21,-26,-70,-85,2,-65,73,76
1491693126497,2,76,74,127,-82,-128,-31,-56,43
1491693126498,3,-97,-67,-82,-2,40,-9,70,-71
1491693126498,3,96,6,-78,-27,119,-67,-118,49
1491693126544,0,-58,32,124,-39,-111,103,-12,-64
1491693126544,0,-8,-1,21,127,3,73,-66,31
1491693126546,1,-13,-50,-125,-128,-65,-57,-14,-50
1491693126546,1,14,8,-23,15,31,-72,83,-36
1491693126547,3,68,12,12,-115,-83,25,21,7
1491693126547,3,-21,33,127,47,-107,127,-5,-1
1491693126548,0,60,-49,-106,116,127,-128,-63,-38
1491693126548,0,3,-65,-86,-128,2,29,97,67
1491693126593,1,82,68,74,-53,3,68,68,70
1491693126593,1,-47,-62,-78,-20,107,-71,-128,-30
1491693126594,2,25,42,63,19,82,76,127,-3
1491693126594,2,14,15,22,-37,-65,-33,-95,35
1491693126595,0,-80,-14,36,-6,-76,18,-24,-63
1491693126595,0,31,-1,-33,94,127,46,81,-34
1491693126596,1,7,-47,-56,-74,21,42,-128,-31
1491693126596,1,-12,54,94,62,-47,95,34,-16
1491693126641,2,-20,-56,-128,15,-27,58,15,-62
1491693126641,2,-45,-23,-46,-33,79,54,-47,-66
1491693126642,3,8,24,35,-123,-128,90,11,49
1491693126642,3,64,-31,8,127,43,98,122,20
1491693126643,1,-63,-15,-42,-16,89,-16,-128,-18
1491693126643,1,6,26,66,-29,-128,96,77,21
1491693126644,2,-33,51,-21,86,79,-56,4,-6
1491693126644,2,107,-21,-88,-128,71,2,-69,59
1491693126690,3,21,49,60,-83,-78,-97,42,-20
1491693126690,3,-112,-63,21,110,115,-41,-126,-26
1491693126692,0,85,1,-75,-115,34,-56,-58,85
1491693126692,0,-16,47,95,123,-54,-39,20,-34
1491693126693,2,13,-39,9,126,127,-37,101,72
1491693126693,2,-25,22,27,-82,17,127,7,-14
1491693126694,3,21,1,37,96,-20,-80,-117,-83
1491693126694,3,27,0,-105,-128,-35,6,28,21
1491693126739,0,-55,-43,-46,-128,-63,49,60,25
1491693126739,0,-21,-13,-36,29,-10,-49,37,22
1491693126740,1,-21,28,120,75,-96,75,-68,5
1491693126740,1,103,-57,-128,27,105,-128,-7,43
1491693126741,3,-80,-18,-128,-90,127,-55,27,-21
1491693126741,3,50,-5,28,7,-91,20,-27,-25
1491693126743,0,4,-32,-9,127,74,-63,-88,10
1491693126743,0,-70,-63,-36,-128,-25,-32,-27,24
1491693126788,1,36,49,49,-23,-85,34,21,24
1491693126788,1,-49,-2,59,100,122,19,7,-30
1491693126789,2,81,12,54,-128,-13,40,65,-9
1491693126789,2,-36,-7,-23,-88,-68,-67,62,-30
1491693126790,3,-42,-6,99,127,56,-73,-82,-3
1491693126790,3,13,1,-92,-128,-102,-102,9,-5
1491693126791,0,-31,-36,-81,48,107,105,-85,-35
1491693126791,0,25,39,92,-63,-85,87,48,21
1491693126836,1,-14,-31,-1,-3,-118,54,84,66
1491693126836,1,-15,19,11,-76,-101,34,-81,-38
1491693126837,2,21,15,84,-107,-128,87,70,-25
1491693126837,2,-21,-59,-110,73,125,-122,-92,20
1491693126838,0,80,10,22,37,-40,35,25,57
1491693126838,0,-27,33,61,127,46,78,-34,1
1491693126839,1,35,-50,-112,-75,113,-39,7,-6
1491693126839,1,-28,20,127,87,111,44,-29,-26
1491693126885,2,1,1,-54,8,16,-29,52,25
1491693126885,2,-41,-3,-97,-113,56,-4,7,-47
1491693126886,3,49,58,81,127,77,80,-41,12
1491693126886,3,6,-89,-128,56,41,-76,-40,-10
1491693126887,1,-31,-22,-26,-84,11,15,20,-8
1491693126887,1,74,58,125,-107,37,63,-7,18
1491693126888,2,-48,-13,72,127,9,-128,-65,-27
1491693126888,2,-19,46,127,17,106,44,-21,12
1491693126934,3,-4,-32,-94,59,95,-55,-35,-20
1491693126934,3,5,-12,17,70,-9,16,112,35
1491693126935,0,10,-4,-99,15,-107,-62,-13,8
1491693126935,0,-38,-21,2,-128,-128,-60,4,17
1491693126936,2,7,13,127,-114,-128,1,-86,-72
1491693126936,2,19,-15,-4,127,-76,9,62,5
1491693126937,3,-41,-29,-70,-89,-77,-30,-57,-18
1491693126937,3,-27,-35,-58,-71,-31,37,-25,-5
1491693126983,0,12,35,85,-15,32,55,-50,9
1491693126983,0,-16,-19,-102,-87,60,-128,-59,-14
1491693126984,1,29,-40,5,-32,91,84,96,25
1491693126984,1,26,19,0,74,126,-8,44,34
1491693126985,3,-16,-18,-128,108,-108,-128,-23,-51
1491693126985,3,-22,-47,-103,-128,-32,-3,-54,6
1491693126987,0,48,28,50,80,113,49,-12,25
1491693126987,0,-21,59,41,46,47,4,11,-17
1491693127031,1,41,1,127,-1,127,127,7,34
1491693127031,1,31,29,-106,21,-27,-78,84,9
1491693127032,2,-16,-52,-113,-4,-79,-128,-4,6
1491693127032,2,-30,4,40,94,48,94,-73,-13
1491693127033,0,4,12,-20,-1,124,-62,-7,27
1491693127033,0,-33,-21,-94,-104,-26,-17,0,29
1491693127034,1,39,42,17,53,80,-73,-80,-2
1491693127034,1,5,82,127,65,127,47,-23,28
1491693127080,2,13,8,-80,105,-108,95,127,28
1491693127080,2,31,-13,-2,-25,-96,-30,-41,-47
1491693127081,3,-59,4,-68,-6,-56,-123,20,-3
1491693127081,3,5,-64,9,-77,28,-8,-44,1
1491693127082,1,-7,-1,-106,-88,-101,-113,-30,-6
1491693127082,1,-12,46,115,-85,65,21,10,-65
1491693127083,2,39,-48,-120,-53,-120,-83,17,43
1491693127083,2,17,111,81,-65,112,85,4,12
1491693127129,3,1,-93,-115,-9,-128,16,13,-18
1491693127129,3,-86,-100,-128,-84,-96,-87,-69,-7
1491693127130,0,24,63,103,56,127,105,17,17
1491693127130,0,1,-37,107,127,26,0,-56,-26
1491693127131,1,29,68,79,89,77,83,30,12
1491693127131,1,12,15,28,105,-87,-35,-34,9
1491693127132,2,5,-50,38,13,-35,77,74,9
1491693127132,2,77,32,-101,-82,-128,-128,33,14
1491693127178,3,-25,-32,67,-70,68,90,-11,12
1491693127178,3,37,-45,65,69,83,127,28,7
1491693127179,0,-9,94,126,-2,127,15,-38,-21
1491693127179,0,-11,37,6,-28,50,22,26,-46
1491693127180,2,25,-26,4,-41,53,44,-70,23
1491693127180,2,-11,-5,48,-11,78,59,73,20
1491693127181,3,-5,-8,47,-116,-12,-27,-4,-48
1491693127181,3,37,-57,-106,-69,-100,23,18,22
1491693127226,0,-44,19,11,43,-62,41,26,-37
1491693127226,0,9,-41,31,53,21,14,-48,-63
1491693127227,1,25,29,114,-25,71,6,-71,39
1491693127227,1,60,-28,-35,39,27,-93,-72,-4
1491693127228,3,7,31,64,85,121,18,-13,-16
1491693127228,3,-5,-4,-46,69,82,72,44,-16
1491693127229,0,-6,-124,-116,-18,-128,-128,-57,49
1491693127229,0,-5,69,-73,-127,39,-58,-37,-56
1491693127275,1,-38,-63,-105,-128,-106,-29,46,26
1491693127275,1,3,51,104,17,123,20,17,5
1491693127276,2,-11,-15,55,36,103,-3,-39,-41
1491693127276,2,-19,-23,63,74,-10,-49,-2,17
1491693127277,0,21,-22,-104,-85,-93,-11,-100,15
1491693127277,0,-57,-56,8,-68,-48,13,32,5
1491693127324,1,42,58,8,-21,61,49,-94,-66
1491693127324,1,-14,-30,80,-28,-70,-41,113,7
1491693127325,2,-26,45,48,46,24,-21,-89,-8
1491693127325,2,-14,-21,-95,-16,-128,6,54,5
1491693127326,3,49,14,-97,-57,-102,-50,-4,21
1491693127326,3,-81,-72,41,56,-26,10,-88,9
1491693127327,1,-69,13,11,-64,-71,-45,62,-11
1491693127327,1,14,0,-17,-86,82,-39,40,23
1491693127373,2,-13,-8,-119,-57,-27,-19,2,-33
1491693127373,2,37,38,127,-49,80,51,-66,-4
1491693127375,3,-4,-38,-128,125,-113,24,96,37
1491693127375,3,-12,38,74,-76,55,19,-63,-34
1491693127377,0,-48,-86,-8,83,21,-3,2,-14
1491693127377,0,10,-17,-62,-125,-41,-88,-39,14
1491693127378,2,-14,-20,25,-85,-26,72,52,14
1491693127378,2,19,-57,-93,127,1,-44,-66,-9
1491693127422,3,14,11,2,-86,-75,-116,-128,-55
1491693127422,3,36,-35,4,95,38,127,102,18
1491693127424,0,-21,77,-90,-91,66,53,91,26
1491693127424,0,-1,-108,-97,-98,-128,-118,-9,34
1491693127425,3,110,-12,-128,127,35,-4,42,34
1491693127425,3,-12,15,9,-94,-55,-103,-115,0
1491693127427,0,-54,-41,6,105,15,11,-36,9
1491693127427,0,49,35,92,33,87,85,127,-22
1491693127470,1,-12,-32,-39,-2,23,-21,-40,7
1491693127470,1,5,-16,-70,-43,8,21,-22,5
1491693127472,2,55,36,-40,-59,-41,1,22,35
1491693127472,2,-25,30,76,-39,62,66,-65,-51
1491693127473,3,-2,17,-49,-19,-85,-36,91,74
1491693127473,3,-22,13,63,-110,87,48,85,-71
1491693127474,0,18,-57,-84,75,-116,-4,-58,14
1491693127474,0,-81,18,-61,-89,47,29,-35,-19
1491693127526,1,38,36,53,-62,-13,91,52,52
1491693127526,1,-81,30,-17,-44,62,71,-91,-34
1491693127527,2,127,59,127,16,127,121,32,52
1491693127527,2,-42,-51,-87,77,-102,-101,12,-21
1491693127529,0,-68,-46,-39,-98,-28,-67,-4,-16
1491693127529,0,113,63,59,-94,57,60,1,32
1491693127530,1,-64,-42,-109,54,-128,2,-2,-10
1491693127530,1,-15,-25,-75,127,-81,-95,-80,-26
1491693127571,2,27,23,90,-103,104,73,82,23
1491693127571,2,-10,-10,55,-80,46,3,-47,10
1491693127572,3,-54,17,81,55,127,51,-53,-27
1491693127572,3,127,70,127,97,102,-78,-29,35
1491693127572,1,-7,20,81,-65,107,107,-62,1
1491693127572,1,5,-10,-43,12,-80,52,91,34
1491693127573,2,7,-18,-12,84,-41,-106,-128,19
1491693127573,2,22,-28,-116,-99,-99,31,50,-28
1491693127616,3,-17,28,30,2,34,-4,23,-8
1491693127616,3,-20,-45,14,52,-34,-88,3,-3
1491693127618,0,41,30,22,-96,-13,10,-30,-10
1491693127618,0,-19,-31,-115,12,81,60,63,-1
1491693127619,2,-5,-15,-12,127,-30,-91,-45,-59
1491693127619,2,-15,24,73,-48,23,39,-47,16
1491693127665,3,-2,-23,-76,49,-104,-77,28,-15
1491693127665,3,30,43,54,-57,87,95,-24,27
1491693127714,0,0,-6,3,63,-55,-78,-24,44
1491693127714,0,21,5,-1,6,-6,79,53,16
1491693127716,1,26,35,127,110,76,124,-6,-43
1491693127716,1,-24,-51,-128,127,-62,-40,95,10
1491693127717,3,75,45,58,15,39,51,46,59
1491693127717,3,-29,-43,-85,-86,-128,78,48,-26
1491693127718,0,-50,-35,-63,-66,42,-21,-39,24
1491693127718,0,-50,8,71,-39,80,-87,-39,-21
1491693127763,1,43,-2,8,-126,27,30,70,-1
1491693127763,1,-8,25,-1,-82,87,80,7,1
1491693127763,0,37,-14,-98,-53,76,127,95,12
1491693127763,0,-21,10,22,75,-53,120,-32,-10
1491693127764,1,41,-1,-50,9,-128,-21,18,53
1491693127764,1,16,-61,-105,100,-101,31,-29,-30
1491693127765,2,-74,16,-56,-27,-85,98,-64,-37
1491693127765,2,-87,-22,-77,-106,-110,-2,-109,-37
1491693127811,3,56,35,59,-66,-66,104,74,27
1491693127811,3,29,-1,49,44,-113,100,65,-34
1491693127812,0,-26,-1,64,22,-128,-79,-51,55
1491693127812,0,0,-48,8,65,-119,-119,-108,-66
1491693127813,2,92,-65,-114,-79,26,-90,-20,-32
1491693127813,2,33,13,-1,127,127,-71,-48,15
1491693127814,3,-50,11,20,-73,103,46,13,-31
1491693127814,3,-5,-10,9,-27,-13,30,-103,-12
1491693127860,0,46,59,127,126,-67,123,59,52
1491693127860,0,-16,-21,-72,50,104,28,-23,46
1491693127861,1,0,-42,-117,-113,30,-85,-106,-92
1491693127861,1,55,-18,26,54,20,-65,79,84
1491693127862,2,-51,10,74,87,123,125,80,-42
1491693127862,2,-39,-16,9,12,-101,-52,-26,6
1491693127863,3,71,43,123,108,109,48,97,112
1491693127863,3,-52,19,-122,-123,-76,-95,-117,-75
1491693127909,0,16,-6,8,-19,26,60,123,35
1491693127909,0,-45,40,45,26,74,65,22,0
1491693127911,1,-9,-81,-70,79,27,-16,-60,-50
1491693127911,1,21,11,9,-72,127,-104,-28,5
1491693127912,3,-76,-12,102,-109,-128,-82,-65,-50
1491693127912,3,14,-39,-28,96,127,-97,93,0
1491693127913,0,42,-6,-128,-96,91,42,-128,65
1491693127913,0,-40,-14,82,66,-81,103,71,-49
1491693127958,1,15,-12,-81,9,-50,-61,-82,-59
1491693127958,1,27,-15,42,-103,-56,84,74,8
1491693127960,2,-53,40,66,44,-83,-58,-3,39
1491693127960,2,49,-9,-45,21,7,23,-38,22
1491693127961,0,-21,-9,-87,-69,69,-120,-33,-110
1491693127961,0,65,-10,9,28,34,47,127,95
1491693127962,1,-72,-37,-42,-20,17,19,-96,-22
1491693127962,1,82,28,37,-110,-51,-65,-122,-17
1491693128007,2,-18,1,52,46,62,53,58,-8
1491693128007,2,-22,-43,-57,-57,77,-128,21,-79
1491693128008,3,-4,6,-80,-47,-80,-33,23,23
1491693128008,3,60,5,25,-52,89,16,30,18
1491693128010,1,-51,-10,62,127,-64,116,-25,-48
1491693128010,1,17,-11,-59,-25,9,52,44,-52
1491693128011,2,-2,-40,-59,-48,30,-48,-32,-83
1491693128011,2,-84,-50,-84,72,127,-95,-86,59
1491693128104,3,-6,9,-66,-84,43,5,-55,-32
1491693128104,3,-49,20,79,54,-128,23,-71,-70
1491693128108,0,63,-23,1,39,92,-55,-4,55
1491693128108,0,38,22,-26,-128,-128,127,-36,-33
1491693128109,2,86,19,-68,101,66,-28,54,24
1491693128109,2,-70,-65,-94,-128,16,-83,62,-15
1491693128111,3,12,44,59,127,115,48,-33,41
1491693128111,3,-50,-27,-58,-125,108,-110,-128,-22
1491693128153,0,-6,11,31,64,-106,52,111,-7
1491693128153,0,-34,18,76,6,-22,-27,46,-15
1491693128154,1,38,-12,-89,21,-27,-13,67,44
1491693128154,1,-87,8,-2,-55,-69,127,-19,-15
1491693128155,3,-55,-14,74,13,-37,-51,-110,-106
1491693128155,3,78,-25,-106,-66,3,-70,14,54
1491693128157,0,-68,-33,-52,-75,127,48,-5,-40
1491693128157,0,52,-39,-61,120,127,64,-101,-8
1491693128201,1,-39,9,-92,-128,-121,117,127,90
1491693128201,1,50,-9,84,127,-36,-128,-98,-31
1491693128203,2,-105,-5,-39,75,77,41,124,26
1491693128203,2,5,-6,8,-128,53,-98,-128,-39
1491693128204,0,-91,-8,89,-128,-103,112,31,22
1491693128204,0,106,-21,-90,127,75,42,-15,-23
1491693128206,1,-3,-30,-96,-43,17,-128,-113,75
1491693128206,1,-128,-20,-67,33,80,-33,-81,-69
1491693128250,2,33,-14,5,-112,100,38,2,11
1491693128250,2,58,36,97,34,-88,-33,15,103
1491693128252,3,-18,8,-15,-70,32,-86,55,-87
1491693128252,3,122,-6,32,-73,-98,51,83,77
1491693128253,1,-11,-32,-98,-73,127,54,34,-14
1491693128253,1,45,19,36,-30,19,-52,-23,18
1491693128254,2,16,-35,-7,127,106,-15,32,7
1491693128254,2,-45,-17,16,-128,-93,-31,3,30
1491693128299,3,74,-7,-78,127,127,66,49,-42
1491693128299,3,9,-7,-27,45,77,100,-50,20
1491693128348,0,-23,54,123,-95,-38,-107,-77,-34
1491693128348,0,-18,-97,-128,98,127,47,92,-13
1491693128350,2,12,25,-21,-128,14,-20,-59,43
1491693128350,2,-127,13,73,-96,-110,8,67,-111
1491693128351,3,49,48,127,127,13,-92,37,108
1491693128351,3,-77,-67,-128,-128,56,32,120,-59
1491693128352,0,42,32,-21,-55,-52,-11,-32,13
1491693128352,0,-124,-1,91,73,127,-50,-71,-33
1491693128396,1,-3,35,94,15,98,56,-18,32
1491693128396,1,-19,-47,-101,-27,-87,84,-113,-93
1491693128397,3,18,11,105,24,42,6,31,-30
1491693128397,3,-55,14,-30,52,-1,36,-77,9
1491693128398,0,-30,-52,-26,-81,-57,-26,-1,-87
1491693128398,0,23,-25,21,59,-6,34,1,45
1491693128400,0,87,-24,-46,127,127,9,-70,17
1491693128400,0,-36,30,100,-104,-78,-26,-62,5
1491693128494,1,-96,33,59,74,-26,92,27,24
1491693128494,1,58,-37,-128,64,127,-28,-60,-12
1491693128496,2,22,63,66,-128,41,-59,6,100
1491693128496,2,11,4,63,123,-12,104,65,9
1491693128497,1,79,76,87,72,-59,-31,60,50
1491693128497,1,18,31,6,-7,-121,-34,3,13
1491693128497,2,18,-11,21,-26,-128,74,64,-51
1491693128497,2,-53,-43,-128,47,127,-128,-128,-99
1491693128543,3,8,-23,-31,-128,-15,16,127,110
1491693128543,3,-86,-24,18,98,73,-61,-107,-87
1491693128544,0,54,4,88,-3,-60,65,-96,-40
1491693128544,0,-17,7,-49,86,-36,100,59,-11
1491693128545,2,-25,-21,-79,27,-65,-128,48,-14
1491693128545,2,-52,-72,-60,-46,82,19,-116,-105
1491693128546,2,-18,-9,2,-88,-128,20,103,-28
1491693128546,2,5,24,66,125,96,21,23,7
1491693128592,3,-45,-65,-85,-96,127,-71,-98,-21
1491693128592,3,22,25,37,-126,23,54,67,-20
1491693128593,0,75,-1,-13,-49,-15,-27,-72,-28
1491693128593,0,-117,-10,-43,-110,-91,-29,-111,-58
1491693128594,3,-88,-35,20,-42,-68,-4,-125,-56
1491693128594,3,-48,-67,-128,-78,-86,-80,-101,-3
1491693128595,0,22,72,53,-127,-56,43,67,18
1491693128595,0,12,51,123,25,-117,5,-37,-15
1491693128640,1,13,-61,-128,-19,24,-52,-4,29
1491693128640,1,-34,46,22,-35,42,26,14,-29
1491693128642,2,-6,-22,-53,60,-55,15,-56,21
1491693128642,2,-12,11,52,24,-31,24,103,50
1491693128643,0,21,-44,-105,27,-1,-109,-82,23
1491693128643,0,-81,-32,-71,-71,127,-19,-7,40
1491693128644,1,42,89,127,127,-128,127,76,-38
1491693128644,1,-48,-45,-95,29,17,-126,-81,-91
1491693128689,2,-73,-36,-70,-93,112,127,127,-32
1491693128689,2,15,-33,39,-58,-97,-66,19,-25
1491693128691,3,-30,36,-5,0,126,-86,-59,4
1491693128691,3,36,57,122,14,73,50,75,46
1491693128692,1,8,26,82,-112,-128,88,35,6
1491693128692,1,14,-40,-93,127,58,-122,-25,25
1491693128693,2,18,23,72,-118,71,97,-37,17
1491693128693,2,12,-6,-15,-50,-34,86,127,21
1491693128787,3,-35,-3,-16,82,72,-66,-123,-21
1491693128787,3,62,73,127,127,-128,127,-31,-23
1491693128788,0,6,-5,-57,0,37,-85,71,-10
1491693128788,0,105,14,49,69,-36,95,-34,51
1491693128789,2,-19,90,127,-43,-107,85,-100,41
1491693128789,2,-34,-27,-94,62,-61,-40,2,-33
1491693128791,3,-13,31,-24,-44,-71,-87,-79,28
1491693128791,3,73,8,9,-114,-128,-32,-34,-17
1491693128835,0,25,-30,-20,44,-60,25,24,63
1491693128835,0,2,30,73,-128,-83,81,48,-5
1491693128837,1,-1,21,105,78,-121,-24,-46,-43
1491693128837,1,-32,-76,-120,113,10,106,41,-42
1491693128838,3,8,15,37,-79,-109,122,127,38
1491693128838,3,-16,28,98,95,-56,-1,16,21
1491693128839,0,13,37,74,-80,33,58,-43,-18
1491693128839,0,-34,-13,-30,108,31,-83,62,-4
1491693128884,1,-83,-36,-86,-83,1,36,46,3
1491693128884,1,45,-16,-128,-66,23,43,0,-6
1491693128885,2,-69,43,-71,37,10,65,-64,-21
1491693128885,2,46,-24,-128,-8,114,100,79,7
1491693128886,0,41,45,123,-31,-110,115,59,16
1491693128886,0,-41,-43,-78,-19,-128,-91,-77,-12
1491693128887,1,2,-4,103,25,-128,118,3,-4
1491693128887,1,-22,-22,71,5,-116,7,-34,-7
1491693128933,2,12,26,127,65,-126,-30,14,7
1491693128933,2,28,29,127,79,-116,65,24,27
1491693128934,3,-27,-16,105,51,-80,-9,-38,-46
1491693128934,3,46,50,65,-70,-104,84,29,-7
1491693128935,1,-13,-6,-42,-5,92,109,47,-42
1491693128935,1,20,14,-69,23,127,-11,0,81
1491693128936,2,17,-4,-67,-107,114,35,16,-29
1491693128936,2,-14,-57,-64,63,116,-48,-91,-27
1491693128982,3,-11,60,-58,-74,110,-51,-27,23
1491693128982,3,-12,-16,-30,34,112,21,22,-35
1491693128983,0,1,15,-20,-102,50,-72,35,14
1491693128983,0,92,115,22,23,-68,18,-38,27
1491693128985,2,-7,-18,66,55,45,79,3,5
1491693128985,2,-5,-11,11,-39,55,-15,-113,-22
1491693128986,3,-3,-1,-85,127,-121,-76,98,10
1491693128986,3,-30,-42,-6,-70,-10,-44,28,4
1491693129030,0,12,-15,-91,-41,26,-29,-41,-41
1491693129030,0,35,56,127,1,37,44,-5,29
1491693129031,1,-25,-7,-102,-67,7,-6,-12,-29
1491693129031,1,-2,-27,-116,13,-84,-106,15,-9
1491693129032,3,1,14,-59,-51,-63,-15,-25,2
1491693129032,3,-11,-15,1,108,33,-22,-35,13
1491693129033,0,14,-71,-7,-22,33,-43,0,2
1491693129033,0,-17,52,100,79,84,107,64,-21
1491693129079,1,28,-62,-49,116,-72,-59,-40,11
1491693129079,1,27,-3,-105,-128,-17,45,70,14
1491693129080,2,-25,-14,14,-77,103,33,54,-3
1491693129080,2,12,-18,2,21,-126,-80,-47,2
1491693129081,0,-2,29,-53,111,-29,-55,3,18
1491693129081,0,-25,-39,-58,-109,-80,35,46,-28
1491693129082,1,22,27,47,46,7,-22,49,7
1491693129082,1,-18,-14,-30,-69,-57,-54,-76,-13
1491693129128,2,9,36,106,-35,112,127,77,7
1491693129128,2,13,29,65,-86,48,25,-1,8
1491693129177,3,-42,-48,-68,54,-66,-43,-85,-36
1491693129177,3,-16,-65,73,-63,125,50,-2,-16
1491693129178,1,-16,84,127,24,70,33,-31,36
1491693129178,1,62,-57,-41,64,-77,83,62,34
1491693129179,2,-44,-47,-109,-101,-79,-128,-88,-29
1491693129179,2,-13,14,-33,5,-49,-101,-117,-1
1491693129180,3,-11,-86,123,58,112,120,41,1
1491693129180,3,8,94,80,127,69,-51,-24,5
1491693129225,0,4,-96,-75,126,-83,118,-2,8
1491693129225,0,-57,24,-65,-128,-117,-128,-35,-15
1491693129227,2,-3,-24,22,-6,15,-52,-54,-19
1491693129227,2,-45,-17,29,33,27,54,71,0
1491693129228,3,32,57,33,-40,-58,-2,-6,43
1491693129228,3,-52,-42,-119,-1,-67,-100,-100,-54
1491693129230,3,93,-10,-12,-128,-81,25,1,7
1491693129230,3,-27,38,53,-23,-9,-1,26,1
1491693129274,0,58,35,-17,-25,24,-67,17,50
1491693129274,0,-29,-16,127,67,127,70,-61,-52
1491693129276,1,-23,23,-88,127,127,41,-10,50
1491693129276,1,-42,-105,-106,-99,-118,-97,-89,-19
1491693129277,3,-56,-31,-62,-128,-123,-87,-91,-49
1491693129277,3,40,84,66,-83,103,93,59,51
1491693129278,0,-19,28,24,62,47,15,20,5
1491693129278,0,5,13,-48,-82,-109,-125,-105,-35
1491693129323,1,82,-37,8,-40,-63,25,20,44
1491693129323,1,-17,54,127,124,127,109,76,-25
1491693129324,2,-29,-41,-123,13,-128,-91,-80,-41
1491693129324,2,68,-78,-81,-98,-51,-45,-8,31
1491693129325,0,19,27,-29,60,57,93,84,35
1491693129325,0,29,-32,-77,-73,-121,-90,-100,57
1491693129327,1,-54,-35,-34,9,57,65,86,-37
1491693129327,1,66,-29,-45,-9,-124,-69,17,35
1491693129420,2,-30,19,24,-10,-43,59,-22,-49
1491693129420,2,-44,5,79,26,42,27,-58,-10
1491693129421,3,9,39,65,-89,73,-8,42,5
1491693129421,3,-4,37,25,113,16,-41,-5,-21
1491693129422,1,85,-30,101,124,-56,-24,17,54
1491693129422,1,-37,6,-72,-112,52,-7,-85,-31
1491693129423,2,94,-12,36,47,-27,-69,86,84
1491693129423,2,-33,1,-105,-51,-15,101,46,-26
1491693129469,3,-73,22,97,34,127,106,-22,-19
1491693129469,3,3,-58,-72,9,-128,-35,-75,-27
1491693129470,0,-23,21,100,27,-14,-76,-49,-32
1491693129470,0,28,2,45,-20,92,-61,-9,-19
1491693129518,2,-41,-52,34,39,26,-72,-84,29
1491693129518,2,24,10,12,19,20,47,74,-61
1491693129519,3,0,29,57,-25,55,16,7,66
1491693129519,3,-20,9,-35,-49,2,-4,-2,-24
1491693129520,0,-33,-36,-46,65,-30,-19,-62,-54
1491693129520,0,26,2,4,-29,52,94,94,67
1491693129521,1,15,22,65,10,61,-1,45,-35
1491693129521,1,-20,6,15,-38,59,-16,0,0
1491693129566,0,-18,15,-128,-91,-120,-27,60,-12
1491693129566,0,-17,-38,17,-21,44,104,-49,16
1491693129568,1,-39,-9,-23,-128,-88,-115,-69,-8
1491693129568,1,-80,-9,39,87,45,-16,-46,-20
1491693129569,2,15,10,73,88,49,112,41,57
1491693129569,2,99,49,118,-36,2,50,52,-67
1491693129570,1,43,19,31,108,120,127,95,13
1491693129570,1,-14,10,22,99,33,22,17,-20
1491693129664,2,0,22,-4,-32,31,-51,-87,9
1491693129664,2,-39,-22,-75,88,-26,-104,81,47
1491693129665,3,-47,-7,24,-81,-2,0,15,7
1491693129665,3,13,-66,-128,115,12,-100,25,-23
1491693129667,1,29,41,80,47,44,-1,-64,15
1491693129667,1,-85,-87,-102,-25,-122,-7,-26,-11
1491693129668,2,54,15,16,-76,80,52,-48,13
1491693129668,2,45,60,99,10,40,18,74,32
1491693129713,3,3,14,49,-54,50,71,-26,-6
1491693129713,3,51,-19,-63,11,-88,5,46,51
1491693129714,0,-29,-40,-28,-90,32,2,24,-37
1491693129714,0,28,-20,-96,40,-128,-41,-61,27
1491693129715,2,-79,-62,-106,41,-114,5,-95,-71
1491693129715,2,-14,40,108,-10,127,127,11,-2
1491693129716,3,32,49,92,-96,84,88,-7,-13
1491693129716,3,-47,-29,-54,-47,-70,56,-110,-38
1491693129762,0,-115,-83,-89,50,3,-67,-11,-20
1491693129762,0,12,64,82,-120,111,52,-58,-81
1491693129763,1,52,-6,-89,93,-16,58,81,35
1491693129763,1,4,28,50,-22,127,-16,-79,-3
1491693129765,0,44,43,68,8,-38,-12,3,-18
1491693129765,0,37,-59,-71,119,-102,-48,-78,36
1491693129766,1,-74,52,2,16,-128,-103,30,-75
1491693129766,1,13,-11,39,-128,-96,110,13,59
1491693129810,2,66,30,44,-34,-82,-128,13,-25
1491693129810,2,41,-1,59,91,-128,79,-7,81
1491693129812,3,16,-6,50,-54,-108,66,43,-22
1491693129812,3,28,-4,78,103,-62,34,-30,-31
1491693129813,1,-72,23,60,54,-23,63,-59,-23
1491693129813,1,-20,-42,-21,60,27,-99,-26,-38
1491693129814,2,14,-3,-63,-81,47,119,54,66
1491693129814,2,36,-11,48,96,93,-64,120,-11
1491693129859,3,-41,15,60,-62,-29,-8,-128,-17
1491693129859,3,46,37,100,70,113,-26,127,23
1491693129860,0,-42,-30,-78,-21,-23,-16,-52,-32
1491693129860,0,-96,-19,-109,-76,-4,-44,-95,33
1491693129860,2,-53,-21,-2,-68,104,-18,-104,41
1491693129860,2,54,86,127,-13,97,94,60,38
1491693129861,3,-27,-15,-72,-117,-37,-33,-128,11
1491693129861,3,116,45,96,58,-128,90,76,20
1491693129956,0,-41,-50,-72,52,127,-70,93,23
1491693129956,0,-38,-15,-4,-121,68,-108,-91,-21
1491693129957,1,7,-20,-31,-88,39,82,28,-29
1491693129957,1,-27,42,21,-85,-41,-42,20,6
1491693129958,3,127,-8,-90,9,-14,7,74,57
1491693129958,3,-128,-61,-97,-104,116,-1,17,-18
1491693129964,0,0,45,32,100,24,22,-75,-121
1491693129964,0,44,-32,-115,108,84,14,14,55
1491693130006,1,-53,-8,-42,-5,-55,-41,-103,12
1491693130006,1,43,-20,34,-89,123,103,59,-64
1491693130010,2,-26,22,101,-93,-123,-7,-78,5
1491693130010,2,13,27,-61,12,47,-13,-79,39
1491693130011,3,-37,-13,64,-66,35,-8,46,-47
1491693130011,3,44,-2,-74,-28,46,41,-20,61
1491693130011,0,-14,-27,-78,-93,74,-82,-120,39
1491693130011,0,-43,-4,31,-23,-128,39,96,14
1491693130054,1,-72,-7,87,127,58,5,-44,-21
1491693130054,1,127,63,55,-128,-44,51,75,86
1491693130055,2,-64,-23,30,127,25,34,-33,4
1491693130055,2,-106,32,82,-128,-115,-100,-25,-86
1491693130055,1,-86,1,-2,-82,-70,78,-12,-17
1491693130055,1,87,29,73,16,6,13,52,55
1491693130103,2,75,2,29,-70,-128,127,-19,-29
1491693130103,2,-109,-87,-128,6,122,-22,-125,18
1491693130104,3,46,52,66,94,110,30,-21,29
1491693130104,3,-33,0,26,-17,-28,-6,-128,-14
1491693130105,0,-93,-35,-16,35,48,2,127,34
1491693130105,0,108,6,34,-59,-128,68,24,84
1491693130107,2,-70,44,127,60,19,70,99,3
1491693130107,2,36,-20,21,-31,-68,-128,-128,-32
1491693130151,3,-17,-70,-101,127,127,120,127,-2
1491693130151,3,-31,-32,-16,-128,0,-85,-56,23
1491693130152,0,-59,-1,-13,88,85,49,91,-3
1491693130152,0,43,13,33,-58,-25,-30,-126,-26
1491693130153,1,37,77,48,-92,-128,-23,24,84
1491693130153,1,-76,-33,-6,-99,-124,54,32,25
1491693130154,3,64,29,51,-79,-54,101,31,-33
1491693130154,3,-12,-21,35,115,127,-128,-18,54
1491693130200,0,90,35,102,-9,-128,40,99,2
1491693130200,0,-63,-4,-97,-2,13,61,-45,-91
1491693130201,1,54,-5,58,63,126,-126,-36,60
1491693130201,1,-47,-18,-40,48,-94,11,90,-43
1491693130249,0,87,45,65,-128,-110,-7,41,-3
1491693130249,0,-21,-16,-16,127,119,88,71,50
1491693130250,1,13,1,-43,-128,-6,-17,86,-7
1491693130250,1,31,6,50,11,-67,32,46,36
1491693130251,2,-68,-8,-97,-24,-81,23,-91,-68
1491693130251,2,108,65,127,75,-15,-37,127,64
1491693130298,3,-40,-44,6,101,-54,78,26,27
1491693130298,3,29,55,-74,-16,127,-84,-52,23
1491693130300,1,27,-87,-78,74,13,-89,-1,10
1491693130300,1,-3,1,-103,-128,-34,28,-29,-90
1491693130300,2,68,28,94,-32,-128,88,-121,-10
1491693130300,2,-119,-3,-12,94,127,-103,76,-7
1491693130301,3,48,-12,-91,-126,66,22,-62,-82
1491693130301,3,12,21,106,52,-128,35,45,33
1491693130347,1,4,-30,55,127,108,-5,-96,-23
1491693130347,1,14,18,-62,-99,-36,-128,105,30
1491693130348,2,-35,12,81,-48,123,127,-73,-22
1491693130348,2,98,24,-56,-30,-60,61,15,68
1491693130348,3,-69,24,-1,-73,-33,-85,-14,-2
1491693130348,3,36,-59,42,56,102,127,54,-5
1491693130349,2,-11,5,-83,94,10,-42,120,20
1491693130349,2,-33,-53,-74,12,127,-26,-63,-5
1491693130395,3,-49,28,50,41,21,-28,-48,-45
1491693130395,3,-68,9,91,111,0,-4,41,42
1491693130396,0,75,20,-3,-128,-124,44,-109,-66
1491693130396,0,68,13,-85,90,59,-92,68,45
1491693130396,3,22,0,-16,-10,17,114,34,-31
1491693130396,3,85,30,-91,91,48,-66,-66,-69
1491693130397,0,-45,-34,-58,-4,-128,-22,13,13
1491693130397,0,93,48,127,50,-55,76,30,8
1491693130444,1,-45,-36,-61,-83,116,29,59,-62
1491693130444,1,9,-21,-5,-128,-63,-79,-126,-54
1491693130493,2,80,9,58,72,33,115,124,92
1491693130493,2,-74,-12,-19,-5,-53,-1,-128,-69
1491693130541,0,-32,-36,-15,59,81,-37,-89,-27
1491693130541,0,-25,2,14,-96,37,13,102,21
1491693130542,1,-32,-2,66,-52,-56,-29,-48,-100
1491693130542,1,-25,-51,-99,-45,72,-35,-120,32
1491693130543,2,125,80,52,-113,-128,101,88,39
1491693130543,2,-26,-22,-47,91,127,-75,-106,-48
1491693130544,3,0,40,98,-36,-104,96,60,25
1491693130544,3,-34,36,124,49,-17,80,113,3
1491693130590,1,78,40,28,-62,-98,31,-120,-19
1491693130590,1,-65,-33,34,83,58,-80,-39,6
1491693130591,2,-36,61,127,-39,37,127,118,3
1491693130591,2,29,-14,-10,-43,13,16,-23,3
1491693130592,2,22,-47,-44,65,10,-30,-117,-37
1491693130592,2,-5,15,17,-90,-127,108,95,-30
1491693130593,3,-54,-26,-128,-99,72,-57,-11,9
1491693130593,3,-77,-62,-48,70,47,82,-90,1
1491693130639,0,8,72,101,-78,-76,44,-45,-1
1491693130639,0,65,-8,-53,127,127,-30,24,21
1491693130640,1,-14,-11,53,-128,-126,-28,-101,-28
1491693130640,1,-8,-5,-58,24,109,-110,36,23
1491693130641,0,-61,-31,42,127,-37,-128,-20,35
1491693130641,0,-43,23,-55,-128,107,78,-50,-29
1491693130642,1,7,-5,88,122,16,-25,-80,-47
1491693130642,1,63,39,-99,-77,-94,-26,28,12
1491693130693,2,21,-19,-43,35,30,-87,84,29
1491693130693,2,-53,2,121,95,-112,-1,-68,-11
1491693130694,3,20,36,65,-100,-112,100,-44,-44
1491693130694,3,-64,-43,100,127,127,-43,18,23
1491693130695,0,98,5,-101,-128,36,127,120,64
1491693130695,0,-76,-39,-66,-48,79,-128,-128,-62
1491693130696,1,36,34,-61,-62,-50,127,127,-8
1491693130696,1,-32,-8,-48,-128,-128,35,10,-6
1491693130736,2,13,-82,-80,102,48,-113,-33,-53
1491693130736,2,1,29,123,27,63,60,-51,38
1491693130738,3,12,14,49,-36,-80,-104,-118,-37
1491693130738,3,-49,-17,-113,-56,111,-104,67,-72
1491693130739,1,-19,-27,-97,-108,87,-79,20,-56
1491693130739,1,-5,16,127,45,-96,112,21,48
1491693130740,2,-81,-40,-120,50,39,-59,-57,-34
1491693130740,2,56,34,-17,-35,-13,-31,82,59
1491693130785,3,-4,45,95,21,8,74,-13,25
1491693130785,3,-9,-31,-39,109,81,-16,-30,8
1491693130786,0,-16,5,31,-128,61,87,23,-6
1491693130786,0,-40,4,57,113,3,80,-42,-67
1491693130787,2,23,36,127,21,-18,99,-13,-26
1491693130787,2,-3,20,85,-71,10,-78,-47,38
1491693130788,3,-50,-37,-68,87,47,-46,111,-5
1491693130788,3,-5,-42,-31,-67,-6,-8,-102,-8
1491693130834,0,2,-8,-91,-113,-7,-75,58,34
1491693130834,0,-7,2,9,-77,25,70,-35,-46
1491693130835,1,-2,15,127,98,14,106,4,32
1491693130835,1,27,4,-88,-82,-14,42,-76,-15
1491693130836,3,-82,9,-1,11,-54,25,-96,-25
1491693130836,3,73,10,20,52,-114,26,24,21
1491693130837,0,-11,16,118,42,-128,1,41,-39
1491693130837,0,-49,-4,-40,-77,-128,-59,-8,-32
1491693130883,1,7,-15,-53,73,-120,-31,-78,-31
1491693130883,1,-49,24,108,29,-108,47,46,4
1491693130884,2,-18,-28,10,-27,-82,-6,-6,2
1491693130884,2,9,-9,111,-32,-63,73,16,-5
1491693130884,0,36,29,-38,52,114,-37,-120,-41
1491693130884,0,51,-21,-94,-22,113,89,127,75
1491693130885,1,13,8,-27,10,127,-23,-35,17
1491693130885,1,-31,104,-22,29,127,2,-28,-22
1491693130931,2,19,-24,-68,-23,103,-84,-25,36
1491693130931,2,-41,-34,-40,19,95,57,26,3
1491693130933,3,33,-24,-14,41,98,36,32,-6
1491693130933,3,-7,-51,40,-34,-89,-96,-7,-13
1491693130981,1,-36,4,-79,14,-54,-8,20,-9
1491693130981,1,29,-68,-1,46,-25,114,-7,5
1491693130983,2,-8,17,57,5,-51,1,20,-22
1491693130983,2,-3,-23,30,0,-37,-23,-5,-15
1491693130984,3,-19,22,66,-16,-29,81,-3,20
1491693130984,3,15,0,-4,25,-3,41,-52,-6
1491693130985,0,-17,-66,-73,-21,-26,-59,-12,14
1491693130985,0,-9,13,-110,-61,-40,-77,1,-10
1491693131029,2,32,30,84,-63,-64,39,-60,9
1491693131029,2,-24,-30,-44,27,-74,24,57,-17
1491693131031,3,-23,13,-44,-128,-68,-106,-123,21
1491693131031,3,57,-17,17,59,20,53,97,-16
1491693131032,0,-27,-13,-9,-6,109,18,15,13
1491693131032,0,8,10,26,114,73,0,-62,-21
1491693131033,2,-19,32,25,39,4,96,32,-15
1491693131033,2,12,9,42,-128,-21,-67,-34,-9
1491693131081,3,29,8,89,19,91,101,18,3
1491693131081,3,-29,-21,11,112,52,-78,-13,2
1491693131083,0,-14,-1,-90,-128,-116,-40,-6,-17
1491693131083,0,-4,-42,-17,-26,-31,13,4,-28
1491693131084,3,65,-4,-42,-94,-81,15,46,23
1491693131084,3,-2,12,-39,-35,-24,2,-10,-12
1491693131085,0,-32,-43,-30,-17,-109,-105,-2,4
1491693131085,0,-8,-5,46,113,51,77,-49,-18
1491693131129,1,14,27,15,71,67,71,98,37
1491693131129,1,3,-20,-53,-59,-128,-87,-51,16
1491693131130,2,-13,1,-17,110,46,37,11,-18
1491693131130,2,-27,-18,-11,48,21,44,-79,7
1491693131130,0,-83,-5,21,-102,58,53,30,-60
1491693131130,0,72,1,-75,40,-119,-128,-43,33
1491693131131,1,-13,-18,-15,-71,0,23,-10,38
1491693131131,1,-38,57,31,-80,-18,-55,-99,-13
1491693131272,2,57,-24,-19,-61,46,51,62,50
1491693131272,2,-21,19,120,49,127,127,37,-17
1491693131273,3,-16,-12,-66,80,2,-91,-20,-21
1491693131273,3,-24,39,-69,-84,-109,-105,-108,-21
1491693131274,1,37,21,-51,61,38,-34,-17,1
1491693131274,1,-7,-5,58,-20,45,51,1,-23
1491693131275,2,32,-15,4,78,105,106,41,-1
1491693131275,2,-41,40,-116,-111,-103,-128,-44,42
1491693131321,3,65,-80,32,-24,-12,13,-58,12
1491693131321,3,3,1,28,49,40,79,85,9
1491693131328,0,5,-30,14,43,-105,-110,-27,18
1491693131328,0,-2,-12,-10,13,52,50,68,18
1491693131329,2,-48,-37,-104,-78,-71,-66,70,6
1491693131329,2,-9,-72,95,9,23,32,13,-4
1491693131329,0,-67,-88,-55,-128,-98,124,-14,-23
1491693131329,0,16,52,104,-14,15,-59,-55,-12
1491693131370,1,1,10,-52,-62,84,19,11,4
1491693131370,1,71,37,26,5,-78,73,-40,-11
1491693131371,2,39,0,-30,12,103,15,-10,23
1491693131371,2,-81,-5,67,72,17,59,-16,-80
1491693131371,0,-33,-1,22,-63,74,89,3,6
1491693131371,0,123,1,-63,55,-128,-32,83,52
1491693131372,1,-85,4,-70,-31,-85,-46,-123,-59
1491693131372,1,-49,-24,-9,-59,-86,99,24,19
1491693131419,2,-20,-4,-18,-29,-49,-79,-25,-6
1491693131419,2,-34,-17,19,13,127,109,-2,4
1491693131420,3,-41,47,126,-31,-7,-22,-4,-35
1491693131420,3,-5,-42,-25,42,-63,-58,31,-1
1491693131467,1,17,1,14,-15,11,-43,34,17
1491693131467,1,-9,34,123,28,123,92,48,22
1491693131468,2,-8,-21,-62,127,-93,65,0,-55
1491693131468,2,15,21,95,-65,33,35,-104,20
1491693131469,3,-14,-63,-110,36,-128,-16,-4,12
1491693131469,3,-87,1,59,-23,93,16,-86,-31
1491693131470,0,32,39,27,-68,66,-18,24,-63
1491693131470,0,-21,-40,-39,82,-128,-10,-37,82
1491693131516,2,-1,22,2,27,-16,-19,-64,-36
1491693131516,2,101,80,64,-128,105,1,98,63
1491693131518,3,-37,-69,-37,105,-68,-82,-77,-36
1491693131518,3,-26,2,-23,-61,66,-1,-46,71
1491693131519,0,15,-53,26,36,43,76,48,-22
1491693131519,0,-100,-12,-51,-125,-41,-5,22,-14
1491693131520,3,-79,-39,-128,11,-98,-96,-1,-39
1491693131520,3,10,-8,35,86,45,13,-47,35
1491693131565,0,4,17,119,75,-100,-18,63,25
1491693131565,0,-71,-16,-124,-76,54,-33,-29,15
1491693131567,1,-12,-17,-53,59,-60,-36,-21,-11
1491693131567,1,-60,-15,-20,-59,13,-112,44,-70
1491693131568,0,-66,-20,24,58,19,3,-84,-16
1491693131568,0,-20,-22,-24,-80,34,78,64,0
1491693131569,1,-3,31,20,-128,-1,127,24,-16
1491693131569,1,53,-25,-78,-21,-128,-36,-63,29
1491693131614,2,-38,25,17,10,-49,-89,40,-4
1491693131614,2,72,-26,-84,127,-20,38,-51,-31
1491693131616,3,-29,56,56,-95,43,54,-10,8
1491693131616,3,-64,-39,69,3,86,83,60,-3
1491693131618,1,35,14,-10,-92,44,46,30,14
1491693131618,1,10,-17,-35,127,-64,-113,-68,41
1491693131619,2,-38,-26,-80,-128,-69,41,24,-47
1491693131619,2,22,12,56,90,21,-57,-110,30
1491693131668,3,-66,-31,-87,-90,-52,123,89,14
1491693131668,3,40,15,51,57,-26,-27,28,-17
1491693131670,0,22,-21,-87,81,-24,32,-16,-28
1491693131670,0,-34,13,29,-66,7,43,-106,-12
1491693131671,2,88,-4,-50,-105,-2,34,79,15
1491693131671,2,32,-9,-80,50,-49,22,83,-6
1491693131673,3,83,55,89,16,112,-1,-128,13
1491693131673,3,-117,-51,-80,94,-117,-51,-32,-64
1491693131712,0,58,-10,-35,-100,4,-13,-59,98
1491693131712,0,-105,-35,-10,-107,65,69,50,-28
1491693131713,1,-12,9,23,113,-108,-36,73,-23
1491693131713,1,6,51,108,37,39,56,19,31
1491693131715,2,66,25,-26,-98,-61,122,-13,-1
1491693131715,2,-40,-77,-100,-6,-59,-128,10,-5
1491693131716,3,-25,5,61,55,117,127,-6,12
1491693131716,3,67,18,-79,-128,-6,116,-28,34
1491693131760,0,-98,25,127,35,74,76,13,-27
1491693131760,0,-42,-29,-95,-1,-128,-96,3,-35
1491693131762,1,87,-15,-16,-48,-74,52,94,55
1491693131762,1,-20,19,-29,-107,-19,116,-34,-57
1491693131763,3,69,-16,-79,85,-115,-16,-58,-44
1491693131763,3,-87,-40,-48,-80,-74,-48,38,-41
1491693131764,0,54,14,42,13,65,100,-71,-31
1491693131764,0,-97,20,43,106,48,-96,17,10
1491693131809,1,47,-35,-123,-94,103,-53,-14,46
1491693131809,1,-7,20,32,-107,127,72,-77,-24
1491693131811,2,-84,-31,51,75,61,-13,-19,37
1491693131811,2,127,-5,-50,6,56,-75,76,-13
1491693131812,0,-25,-48,-128,9,16,28,54,58
1491693131812,0,36,10,33,48,-13,-4,-128,-12
1491693131813,1,-39,-14,-110,-67,90,42,71,54
1491693131813,1,-12,15,-12,125,127,-62,-42,-6
1491693131858,2,-62,-14,-27,28,122,-35,-10,-42
1491693131858,2,-17,-42,-89,21,68,1,-49,12
1491693131859,3,-128,-21,-54,-65,-53,-94,-128,-65
1491693131859,3,20,-10,53,12,-51,95,107,44
1491693131860,1,121,-13,69,127,-120,-99,-72,-43
1491693131860,1,-13,11,82,-116,-65,55,-53,-38
1491693131861,2,-49,-59,-26,87,-113,-128,-73,-47
1491693131861,2,23,12,-25,-128,-102,127,127,-68
1491693131907,3,-20,65,114,84,-121,74,-48,28
1491693131907,3,12,-29,-118,-43,94,47,111,80
1491693131955,0,54,9,-10,-48,-74,-83,-88,-44
1491693131955,0,-55,-27,20,-64,-85,105,63,-25
1491693131957,2,20,-4,-46,-67,101,-93,-44,-26
1491693131957,2,41,82,53,127,124,117,-16,69
1491693131959,3,-43,-1,15,-69,-89,81,36,4
1491693131959,3,-91,-87,-101,85,84,-71,-128,-98
1491693131960,0,-1,-23,-87,-89,106,112,47,-20
1491693131960,0,24,56,63,75,-66,25,26,81
1491693132004,1,-50,26,45,-51,11,93,44,48
1491693132004,1,8,-1,-42,82,82,-114,41,-3
1491693132006,3,82,-5,-13,-56,49,-6,-37,-4
1491693132006,3,12,51,67,22,-89,-86,-122,40
1491693132007,0,-49,15,119,127,0,20,127,26
1491693132007,0,37,-28,-114,-29,89,91,-101,70
1491693132008,0,-7,20,20,-106,-105,-33,-5,-25
1491693132008,0,-7,-47,-71,-8,7,-63,-76,-7
1491693132053,1,58,-5,-6,-58,27,38,97,73
1491693132053,1,-3,40,127,75,36,-67,29,71
1491693132054,2,-74,-39,-43,43,-78,-29,-65,-103
1491693132054,2,67,-21,-25,47,127,-58,41,50
1491693132056,1,-37,12,68,119,38,-56,-44,-41
1491693132056,1,6,7,73,-66,18,120,-23,82
1491693132057,2,-66,-15,-119,20,53,-103,-52,-87
1491693132057,2,90,-73,-115,-93,69,-2,69,26
1491693132102,3,41,33,57,-9,-103,53,-29,-27
1491693132102,3,-81,3,38,41,-56,-72,-90,-63
1491693132103,0,71,20,80,8,103,127,104,92
1491693132103,0,17,16,27,-85,-128,-109,-104,2
1491693132104,1,-93,-50,5,-41,32,-80,73,-82
1491693132104,1,30,37,-58,8,87,-112,-113,72
1491693132105,2,2,35,66,10,-13,127,112,63
1491693132105,2,-77,-3,57,98,-11,10,37,-108
1491693132150,3,95,-9,-99,-117,-82,-57,-106,20
1491693132150,3,-84,-39,-86,37,23,-70,-31,-94
1491693132152,0,-12,-31,-22,35,99,22,-52,8
1491693132152,0,-43,11,93,16,-65,127,68,-29
1491693132153,2,-7,8,-94,-17,0,-40,67,-62
1491693132153,2,12,-57,-91,-115,125,-18,-30,39
1491693132154,3,10,22,63,-9,67,18,40,29
1491693132154,3,38,0,-126,-25,69,-71,-70,24
1491693132201,0,-102,-27,-21,-5,23,-42,-96,-72
1491693132201,0,48,28,26,-64,-45,53,34,54
1491693132203,1,-61,-27,14,79,22,-3,-61,-73
1491693132203,1,93,7,-65,-128,51,80,61,-28
1491693132204,3,-54,-53,-97,16,105,-110,-88,-20
1491693132204,3,102,-25,-56,-24,-20,127,109,63
1491693132204,0,-52,-9,-22,44,11,-59,58,-6
1491693132204,0,-11,49,25,-88,-50,111,-30,-45
1491693132250,1,-89,-23,4,47,4,-116,-25,-64
1491693132250,1,49,36,14,-128,-78,1,-13,-1
1491693132251,2,-91,-49,-4,-33,-73,-35,-104,-44
1491693132251,2,40,14,17,127,-16,-1,72,46
1491693132251,0,-8,17,7,-104,-122,-55,16,80
1491693132251,0,-91,-6,-14,43,127,-89,-64,-113
1491693132346,1,-21,-90,-100,55,51,116,-13,90
1491693132346,1,-38,16,116,-99,-128,-46,104,-14
1491693132350,2,106,45,61,92,125,92,-48,8
1491693132350,2,-12,4,-45,-91,-102,-26,93,-21
1491693132351,3,-89,-14,58,120,-2,83,-17,-47
1491693132351,3,7,22,45,36,51,84,-32,61
1491693132354,1,-56,-66,-65,-15,-37,21,103,-61
1491693132354,1,38,113,124,-83,-128,97,18,-42
1491693132394,2,66,-51,-94,127,53,102,76,68
1491693132394,2,-91,-97,-108,-51,127,-106,-128,-19
1491693132397,3,-11,55,48,-128,-62,-52,-128,-22
1491693132397,3,-56,-27,81,107,37,85,70,-128
1491693132443,0,119,127,127,12,-128,73,74,28
1491693132443,0,21,8,-19,94,-125,53,17,69
1491693132443,3,-107,-128,-94,127,127,-103,-127,-72
1491693132443,3,-28,21,23,-128,-65,93,15,-49
1491693132444,0,31,43,100,40,-108,78,4,24
1491693132444,0,-50,-67,-46,-7,-47,-76,65,-1
1491693132445,1,107,96,32,-128,-128,70,65,7
1491693132445,1,-79,-103,-128,127,109,-128,-110,1
1491693132491,3,-8,22,105,85,-11,-59,9,-5
1491693132491,3,-20,29,53,-55,-80,112,79,77
1491693132493,0,-57,20,-83,-15,68,-128,-24,-107
1491693132493,0,-34,41,110,60,49,-16,-32,17
1491693132494,0,57,-20,-45,-117,27,-16,12,47
1491693132494,0,-31,36,5,-24,-80,69,-64,-114
1491693132494,1,76,25,89,-1,66,-10,50,84
1491693132494,1,-10,-83,-128,36,81,-44,-101,-68
1491693132540,2,-113,4,56,-112,-109,4,62,-68
1491693132540,2,103,-17,-9,111,111,-27,-53,71
1491693132541,3,-21,52,42,-112,-25,70,-63,-20
1491693132541,3,16,-8,88,127,-115,56,-37,13
1491693132542,1,26,-47,-10,-5,-39,22,17,-55
1491693132542,1,83,48,37,-89,-12,-71,16,39
1491693132543,2,-57,6,127,127,-101,-11,-15,-18
1491693132543,2,-33,35,10,-127,-51,17,39,38
1491693132589,3,-7,-104,-128,127,22,-48,-29,20
1491693132589,3,-35,41,41,-128,69,117,7,40
1491693132590,0,-4,-55,-75,114,-9,-101,-128,-16
1491693132590,0,23,63,39,-10,67,42,111,-56
1491693132591,2,43,21,109,110,44,27,15,1
1491693132591,2,-6,-1,78,8,60,-77,-9,3
1491693132592,3,-28,27,-128,-66,29,31,-14,-95
1491693132592,3,-59,-46,-40,61,16,-98,-98,27
1491693132638,0,-53,17,-12,-108,-82,-30,34,-55
1491693132638,0,115,69,84,127,59,119,78,117
1491693132639,1,-61,9,5,66,-19,127,-1,-55
1491693132639,1,-27,-21,-22,8,102,-105,33,3
1491693132640,3,-94,-15,-43,-12,73,-101,90,74
1491693132640,3,60,10,15,-128,-76,76,50,-27
1491693132641,0,3,-20,-25,127,97,-118,-82,32
1491693132641,0,41,12,26,-121,-21,73,-31,-5
1491693132686,1,50,21,-57,-52,54,21,39,35
1491693132686,1,-91,-63,-82,33,75,-128,-81,-90
1491693132688,2,63,62,127,-41,-128,107,17,55
1491693132688,2,-78,-38,-70,-35,-115,-5,-52,-69
1491693132689,0,16,-33,-101,-27,127,-34,-58,-11
1491693132689,0,-4,-35,-108,122,69,-52,-24,41
1491693132690,1,38,-43,-75,-98,-128,-31,-61,34
1491693132690,1,-10,37,61,127,80,-6,-63,22
1491693132784,2,27,-2,-28,-76,-96,50,20,9
1491693132784,2,53,75,46,-96,-128,86,59,61
1491693132785,3,-17,-16,-72,61,103,-128,-57,-9
1491693132785,3,-22,-32,-2,-86,39,-29,-23,31
1491693132786,1,-20,69,127,-113,-122,111,67,31
1491693132786,1,19,-27,-104,127,4,-92,-52,46
1491693132787,2,38,65,64,-78,-89,-92,106,-26
1491693132787,2,-41,-67,-91,92,87,-87,19,5
1491693132833,3,-33,-35,37,-69,-58,15,-112,4
1491693132833,3,-31,-5,-101,-75,-27,-125,-101,-27
1491693132834,0,-53,-4,95,1,-128,94,-18,-41
1491693132834,0,66,58,-19,60,-55,41,17,29
1491693132834,1,-21,-23,30,21,56,-47,12,-18
1491693132834,1,62,48,78,-51,-31,111,8,38
1491693132835,2,-1,16,-29,-52,49,-116,-77,-17
1491693132835,2,-66,-67,-63,6,-6,-42,-52,0
1491693132881,3,-25,-19,79,-39,18,-60,-107,-58
1491693132881,3,69,0,7,14,-21,38,10,34
1491693132882,0,-31,73,22,-74,27,65,21,-4
1491693132882,0,43,60,10,-98,-11,33,32,9
1491693132883,3,-26,-31,-42,14,-25,-63,-54,-52
1491693132883,3,-28,25,82,53,-125,114,46,5
1491693132884,0,-64,35,77,-44,-128,66,-6,-41
1491693132884,0,34,-63,-20,80,-128,-56,2,27
1491693132930,1,30,15,59,-111,-104,79,-36,20
1491693132930,1,-26,-8,42,65,-128,7,-73,-70
1491693132932,2,-21,-33,68,74,-124,6,-49,27
1491693132932,2,55,42,119,-127,-128,-14,48,32
1491693132932,0,-48,36,127,70,107,97,-52,-22
1491693132932,0,68,-11,-56,55,10,-48,-63,28
1491693132933,1,-47,-13,-128,127,100,-51,-2,-32
1491693132933,1,-17,26,-45,-56,107,-34,-7,11
1491693133028,2,0,-83,-128,-36,64,-68,-31,3
1491693133028,2,-11,14,-4,24,115,127,-19,-54
1491693133030,3,75,-7,-117,-73,-33,-74,28,67
1491693133030,3,-35,10,-14,51,127,-36,-22,-40
1491693133031,1,-5,55,115,72,127,127,15,-11
1491693133031,1,-62,-50,-128,-44,-42,-81,20,-45
1491693133041,2,63,-5,-78,-101,-37,-50,-9,-3
1491693133041,2,33,54,40,48,-27,52,-15,-7
1491693133076,3,-4,-10,-73,-21,-86,-4,41,6
1491693133076,3,7,33,29,49,11,27,-20,16
1491693133077,0,-71,-65,-100,-112,-93,-33,-70,-37
1491693133077,0,-14,-39,-4,-54,-77,-57,-48,-2
1491693133078,2,35,34,92,-8,118,80,-16,29
1491693133078,2,32,28,0,79,-74,3,83,21
1491693133079,3,11,-11,-47,-45,-36,-79,-75,-14
1491693133079,3,31,-24,10,-117,68,99,42,18
1491693133125,0,-18,-19,-40,94,-45,-104,-1,-4
1491693133125,0,9,53,73,31,-57,32,37,11
1491693133126,1,-56,-15,85,52,127,123,43,-3
1491693133126,1,20,39,62,13,-11,-76,-50,7
1491693133126,3,15,35,82,127,61,48,-15,-34
1491693133126,3,-61,-36,-93,-110,-84,-84,-52,-19
1491693133128,0,-22,14,78,-4,87,88,109,-5
1491693133128,0,-34,-35,-49,94,11,-128,-118,-49
1491693133174,1,42,42,77,-55,24,121,89,81
1491693133174,1,11,60,116,20,98,127,32,-19
1491693133175,2,-39,-14,-9,58,10,-30,-59,-34
1491693133175,2,4,-43,-122,19,-12,-17,-32,20
1491693133176,0,22,12,-126,93,-128,-128,-33,-4
1491693133176,0,-59,-66,-92,-128,-64,28,-81,1
1491693133177,1,34,0,90,115,120,31,2,2
1491693133177,1,-18,-36,-128,-108,-114,21,-66,-14
1491693133271,2,-16,11,8,-95,127,127,54,22
1491693133271,2,10,78,112,-46,-74,-116,84,64
1491693133272,3,7,1,63,69,75,52,-86,-21
1491693133272,3,5,-74,-81,-74,-83,32,36,-5
1491693133273,1,51,5,86,-47,54,52,79,27
1491693133273,1,6,7,100,28,127,-61,-94,-45
1491693133274,2,-31,47,76,57,-5,127,-42,-70
1491693133274,2,85,43,77,127,7,82,106,73
1491693133320,3,-89,54,-89,-128,-48,-114,-4,-20
1491693133320,3,33,-39,-53,15,-78,12,32,12
1491693133321,0,-19,-99,-102,44,-30,-12,-25,-33
1491693133321,0,0,100,94,-116,112,41,-49,-30
1491693133322,3,20,-25,54,-43,22,67,-12,16
1491693133322,3,-34,69,76,-3,119,127,39,5
1491693133371,0,79,49,101,26,127,81,37,88
1491693133371,0,-50,-58,-128,127,-128,-128,-31,7
1491693133372,1,-69,34,32,-97,-42,-47,-27,-80
1491693133372,1,51,6,-9,-15,-53,0,-3,31
1491693133373,2,-46,-32,47,-25,-7,-23,-81,-68
1491693133373,2,63,-18,103,43,122,121,79,43
1491693133418,0,3,-27,-71,43,22,63,3,-12
1491693133418,0,10,-32,-40,-96,-38,-99,-122,13
1491693133419,1,-45,-62,-70,-38,-40,21,13,-31
1491693133419,1,1,49,-50,-53,-26,37,29,39
1491693133420,2,23,38,57,-37,-93,-12,4,-27
1491693133420,2,53,-52,6,23,79,23,3,-4
1491693133421,3,-54,28,52,29,-22,-51,-31,-33
1491693133421,3,-5,-4,112,102,127,79,-21,6
1491693133466,1,4,15,81,78,111,127,16,-11
1491693133466,1,51,-61,-112,95,-110,-74,-14,-11
1491693133468,2,-37,76,53,-88,-19,-128,-98,-18
1491693133468,2,-10,-47,59,16,47,11,46,-1
1491693133469,3,6,22,13,-36,18,-36,-19,0
1491693133469,3,18,71,102,56,127,14,-21,5
1491693133470,2,9,-12,-44,-5,-42,-55,-1,28
1491693133470,2,10,4,46,48,58,46,-24,-8
1491693133515,3,-4,16,-47,-6,-8,-26,-32,19
1491693133515,3,-38,8,79,-19,20,1,3,-15
1491693133516,0,-41,-21,84,93,127,103,50,-16
1491693133516,0,103,47,-92,-49,-122,-64,17,21
1491693133517,2,-56,22,58,-46,40,19,-9,-15
1491693133517,2,69,2,10,127,41,8,-61,-12
1491693133518,3,39,3,-127,-68,-26,86,-1,-22
1491693133518,3,-67,-19,38,17,40,-55,5,-40
1491693133564,0,38,-13,-44,-85,-92,-34,-16,33
1491693133564,0,-82,-35,-21,-81,-37,10,-53,30
1491693133565,1,0,2,40,78,49,-59,44,-25
1491693133565,1,28,47,-5,-36,76,127,-16,-13
1491693133566,3,-36,-60,-67,37,-34,-66,-74,-15
1491693133566,3,89,13,-64,-128,-27,-51,22,56
1491693133567,0,43,59,57,34,97,-1,28,-41
1491693133567,0,-19,13,-70,29,-64,98,69,14
1491693133613,1,-122,-45,-66,-87,-20,76,-34,-57
1491693133613,1,40,-13,-37,-81,-88,-56,-21,62
1491693133614,2,18,90,30,-128,94,76,-1,-16
1491693133614,2,-53,-81,-44,66,-27,-128,-67,-2
1491693133615,0,0,-41,59,21,63,74,-46,13
1491693133615,0,-10,35,-13,77,-43,-99,-9,-15
1491693133616,1,-55,-40,-19,14,20,105,102,27
1491693133616,1,38,1,69,-35,71,62,37,34
1491693133710,2,48,63,4,90,67,44,54,77
1491693133710,2,-4,-2,-70,-112,-2,-54,-89,-74
1491693133711,3,35,46,76,75,55,66,5,64
1491693133711,3,-52,-42,5,100,-79,-112,10,-93
1491693133712,1,63,-26,-94,-58,-89,-110,-59,20
1491693133712,1,39,24,-3,-128,90,66,-47,-35
1491693133713,2,-63,-46,-87,127,-119,0,19,12
1491693133713,2,11,55,33,-128,-21,-87,30,-45
1491693133759,3,-5,50,127,117,127,47,-17,-17
1491693133759,3,5,-17,-128,-128,-97,26,5,17
1491693133760,0,53,-57,-79,84,-49,-128,-118,-12
1491693133760,0,-65,4,61,37,55,88,82,70
1491693133760,3,49,53,-89,16,27,-37,-17,34
1491693133760,3,-104,-27,11,-18,16,-80,-85,-62
1491693133761,0,16,-39,42,2,-34,61,84,55
1491693133761,0,-8,0,-84,-122,28,-128,-128,-42
1491693133807,1,82,27,127,-59,127,127,96,33
1491693133807,1,63,32,12,122,127,-128,-32,63
1491693133808,2,-75,-66,-128,-101,-79,-41,-51,-70
1491693133808,2,-4,24,65,-99,70,113,3,44
1491693133809,0,7,30,-43,-100,127,86,-21,-15
1491693133809,0,-82,-80,-67,127,13,18,-19,-75
1491693133810,1,-26,27,31,-92,-10,-43,-128,50
1491693133810,1,89,-11,-14,118,-112,38,84,-38
1491693133856,2,40,5,15,65,-127,86,67,9
1491693133856,2,-64,16,-106,-128,-126,-118,-126,-34
1491693133857,3,40,-30,-75,-8,-72,53,106,35
1491693133857,3,-55,-6,-70,-128,-100,-43,-19,-8
1491693133905,0,41,37,75,79,-64,-49,12,22
1491693133905,0,85,6,59,69,-68,37,-47,3
1491693133906,1,-29,2,38,-38,-32,-52,82,24
1491693133906,1,-44,-45,40,-10,-108,39,-22,-42
1491693133907,2,-11,41,21,-113,-107,23,-7,-23
1491693133907,2,-43,28,127,56,-128,49,12,-39
1491693133908,3,8,-16,-42,20,20,-107,-79,54
