1491087953070,0,-106,-96,-77,-104,-96,-7,-67,36
1491087953070,0,57,-91,17,110,46,-14,2,-36
1491087953071,1,-12,-16,9,109,-3,-64,-26,-89
1491087953071,1,80,30,11,34,-11,6,64,-21
1491087953072,2,15,75,17,34,13,0,33,-22
1491087953072,2,-57,57,-6,-52,-18,28,0,8
1491087953107,3,25,10,7,-36,27,-1,-34,11
1491087953107,3,-23,7,10,-4,-12,-5,-42,-16
1491087953108,0,24,-26,10,-11,68,37,-15,-7
1491087953108,0,-22,-22,-16,-35,-25,20,17,36
1491087953109,1,-41,-4,-4,-26,-28,-61,-42,-14
1491087953109,1,23,-5,-17,-46,-9,44,21,19
1491087953110,2,29,31,17,32,37,2,24,23
1491087953110,2,19,20,-3,-8,-32,-56,-76,-33
1491087953145,3,38,32,-1,-25,-12,17,77,43
1491087953145,3,11,26,-12,-27,-21,-19,25,41
1491087953146,0,31,15,-5,0,-8,22,22,-23
1491087953146,0,12,19,2,6,11,-2,16,-1
1491087953147,1,48,10,9,22,45,83,12,22
1491087953147,1,-75,-18,6,19,51,-17,-39,-20
1491087953182,2,16,-4,0,23,-4,-23,13,17
1491087953182,2,19,-36,-6,-12,-21,-62,-38,-47
1491087953183,3,-54,-47,-24,-24,-54,9,-4,-41
1491087953183,3,62,-87,-3,-3,8,-3,22,16
1491087953184,0,-8,-11,17,21,16,21,-16,-9
1491087953184,0,-1,38,15,11,14,-2,56,26
1491087953185,1,25,38,-8,2,56,29,-15,18
1491087953185,1,-5,63,0,18,-29,33,2,-22
1491087953219,2,-13,17,-20,-30,-49,-104,-28,6
1491087953219,2,14,9,-8,-16,-25,23,-11,-6
1491087953222,3,-15,16,8,23,6,80,46,15
1491087953222,3,-15,14,7,17,78,-42,-13,-12
1491087953223,0,-54,-6,2,9,-28,-35,-33,-10
1491087953223,0,-65,-9,-15,-25,-20,-8,12,-24
1491087953224,1,27,-9,-23,-9,-45,5,10,6
1491087953224,1,-71,-23,-10,-8,-21,8,-57,-29
1491087953294,2,16,-76,6,6,18,27,65,3
1491087953294,2,-21,-6,5,6,23,13,1,5
1491087953296,3,19,-55,9,8,5,-14,7,8
1491087953296,3,-6,-39,-9,4,9,37,-12,-2
1491087953297,0,-44,27,8,-5,-4,-27,17,-10
1491087953297,0,21,25,-9,8,1,18,18,19
1491087953298,1,4,43,0,-22,-18,-27,-15,-1
1491087953298,1,13,40,-7,0,-9,-10,1,2
1491087953332,2,26,36,1,6,-1,4,-14,-2
1491087953332,2,-15,10,0,0,10,34,7,-5
1491087953334,3,-8,16,-4,-4,-4,-35,-31,-1
1491087953334,3,8,17,3,-8,-12,-17,9,0
1491087953335,0,-55,1,-3,0,4,14,12,-14
1491087953335,0,31,6,-4,-8,-7,-11,-7,4
1491087953336,1,-36,-1,7,-15,11,0,8,-1
1491087953336,1,-13,-1,-7,-4,-17,-13,-11,2
1491087953369,2,42,2,-4,8,-5,4,-5,0
1491087953369,2,-30,-2,-3,-6,11,4,-5,-1
1491087953371,3,-4,2,-1,-2,-7,-10,-2,2
1491087953371,3,-1,-18,-3,1,-8,-10,3,-1
1491087953372,1,13,-6,-6,2,2,-7,-12,-7
1491087953372,1,-8,3,-1,1,-10,-9,0,10
1491087953407,2,10,12,1,-5,9,14,-2,-17
1491087953407,2,37,-6,-1,5,3,3,6,5
1491087953408,3,-26,-12,-7,-5,-1,-7,-25,-10
1491087953408,3,-1,10,15,8,-2,2,3,15
1491087953409,0,9,-8,2,-8,3,17,31,7
1491087953409,0,3,-11,-5,-1,-3,-5,-6,-4
1491087953410,1,-5,-10,-4,-2,-5,-13,0,5
1491087953410,1,63,32,0,3,-1,-3,20,9
1491087953482,2,24,6,-2,0,1,0,-43,-21
1491087953482,2,-4,-4,0,-5,4,8,17,9
1491087953483,3,-49,-21,-2,2,-1,-14,28,-3
1491087953483,3,-14,-35,-9,-3,-7,2,-12,-8
1491087953557,0,29,-13,-5,-3,-1,-3,-21,-6
1491087953557,0,-16,10,7,0,-2,0,1,2
1491087953558,1,-2,54,6,5,5,-5,18,-4
1491087953558,1,-41,37,1,4,-6,-6,0,-13
1491087953559,2,18,31,1,5,7,6,-33,8
1491087953559,2,-34,-11,-3,8,1,-8,-12,-9
1491087953560,3,-38,-42,-3,-7,-2,-6,-4,-4
1491087953560,3,27,-4,16,8,2,10,-44,-1
1491087953594,0,12,-35,-4,-8,-4,-10,13,-10
1491087953594,0,-14,-41,-14,-3,1,10,22,11
1491087953595,0,-90,-10,-9,-2,2,15,-28,17
1491087953595,0,52,6,-5,1,-7,-6,40,11
1491087953596,1,-27,-7,-6,-9,-3,-1,-24,-8
1491087953596,1,63,24,-1,-1,-5,2,31,25
1491087953597,0,56,-28,-12,-38,-8,-12,49,17
1491087953597,0,-14,-13,-2,2,-6,-1,-65,-14
1491087953632,1,-13,-12,-4,2,3,0,-5,-7
1491087953632,1,-16,-9,6,7,-2,4,22,6
1491087953633,2,82,-2,3,24,-2,-7,10,-11
1491087953633,2,-15,13,6,20,6,3,8,-5
1491087953634,3,-13,7,-11,3,3,12,15,8
1491087953634,3,0,-7,-2,-8,1,1,-17,6
1491087953634,0,-25,-7,0,0,-1,-3,9,-5
1491087953634,0,4,23,0,-11,1,0,-4,11
1491087953669,1,-53,25,-3,-36,-1,5,16,-5
1491087953669,1,85,29,1,-1,1,-6,-20,-11
1491087953670,2,-33,19,-3,-29,2,2,5,-14
1491087953670,2,20,40,-4,-18,-9,-7,5,-3
1491087953671,3,-38,50,2,-1,3,9,-5,-3
1491087953671,3,-27,36,4,3,1,-13,-13,-18
1491087953672,0,-13,33,-1,4,0,11,5,15
1491087953672,0,34,23,8,4,7,2,-3,-4
1491087953707,1,66,44,-14,-27,-5,-5,5,14
1491087953707,1,-51,37,3,19,4,-2,-1,-1
1491087953708,2,15,0,3,-6,-4,-5,-19,-13
1491087953708,2,-51,-18,5,17,6,-4,-7,0
1491087953709,3,25,-24,-23,-15,-12,-8,2,2
1491087953709,3,-8,34,5,-1,-7,5,2,-4
1491087953709,0,37,64,-2,-6,2,0,-8,-10
1491087953709,0,-21,77,2,-2,7,13,20,-2
1491087953744,1,-46,59,5,17,0,-3,-12,3
1491087953744,1,40,80,-18,-16,2,5,16,-2
1491087953745,2,-27,79,1,0,-5,-8,20,1
1491087953745,2,10,26,-3,-8,2,6,9,-1
1491087953746,3,11,-18,3,6,0,-4,-6,-9
1491087953746,3,-88,-76,-3,-5,-3,-2,0,-1
1491087953747,0,-20,-96,2,-2,2,-3,1,6
1491087953747,0,-17,-99,-2,-5,-7,-8,-20,-9
1491087953782,1,18,-90,-6,-16,2,5,24,7
1491087953782,1,16,-79,4,6,-4,-2,-24,-10
1491087953783,2,-12,-73,-4,28,-8,-21,-38,-15
1491087953783,2,-49,-54,-9,-12,0,15,26,9
1491087953784,3,21,-38,6,10,-3,-6,-15,-8
1491087953784,3,16,-32,-7,1,1,5,23,-3
1491087953785,0,-50,-26,-6,-1,2,-1,4,-3
1491087953785,0,18,-10,-2,6,-7,-9,-17,0
1491087953857,1,34,-3,-2,5,-4,-6,-4,6
1491087953857,1,9,-8,-1,0,2,6,8,-7
1491087953857,2,-21,-6,5,-5,-4,-3,-2,-10
1491087953857,2,20,2,-1,12,-2,-7,-23,-14
1491087953858,3,-59,-1,-5,-3,0,4,5,-4
1491087953858,3,35,-4,9,10,-5,-4,-14,8
1491087953859,0,10,-3,14,1,9,24,37,10
1491087953859,0,19,0,-1,9,-6,-28,-37,-15
1491087953894,1,4,-2,-2,-14,1,4,22,4
1491087953894,1,-45,-2,-5,6,2,9,19,9
1491087953895,2,-8,-14,-4,-12,-7,-5,-4,-4
1491087953895,2,24,-88,-2,-5,-6,-6,-2,7
1491087953896,3,9,-65,7,2,1,-8,-23,-6
1491087953896,3,-10,52,-6,-18,0,0,5,0
1491087953897,2,32,-48,-8,6,-6,-2,4,8
1491087953897,2,40,25,11,9,1,-11,-13,0
1491087953932,3,-4,3,-3,-8,-6,-1,5,1
1491087953932,3,-19,15,-9,-7,3,9,9,-4
1491087953933,0,10,28,-2,-6,-3,-10,11,6
1491087953933,0,-2,8,-3,5,-3,-5,-13,1
1491087953934,1,14,37,7,3,1,2,10,-11
1491087953934,1,-6,-3,-7,0,-12,-19,-27,-12
1491087953934,2,-2,6,-3,0,12,15,-9,3
1491087953934,2,28,-7,-6,-2,-2,4,24,10
1491087953969,3,-6,2,2,0,-6,-7,-17,-14
1491087953969,3,-40,6,-4,-4,3,5,-6,-4
1491087953970,0,-2,20,0,7,-2,-1,-3,4
1491087953970,0,-5,53,-3,-14,-6,-14,-7,-2
1491087953970,1,64,-19,-6,-15,6,27,21,18
1491087953970,1,1,-13,7,-2,-4,11,3,8
1491087953972,2,19,52,2,12,-2,-24,-16,-5
1491087953972,2,-24,55,5,-11,1,-13,-4,-4
1491087954007,3,11,50,-2,4,0,-14,-11,2
1491087954007,3,24,28,6,-2,-1,-7,5,1
1491087954007,0,-32,-20,-12,-13,-7,6,5,-10
1491087954007,0,-21,77,-2,8,-4,2,3,-1
1491087954008,1,-37,86,-6,-12,-2,0,-8,-6
1491087954008,1,20,127,-3,9,-6,-3,11,4
1491087954009,2,2,83,-4,-10,1,-1,14,-6
1491087954009,2,25,38,-3,-4,4,8,-9,-4
1491087954044,3,15,14,0,-1,1,0,-7,2
1491087954044,3,-13,45,-3,5,-7,-19,-8,-3
1491087954045,0,-9,-13,-5,-9,-1,8,11,9
1491087954045,0,16,-73,4,0,3,2,-11,-5
1491087954082,1,-31,-104,5,13,-2,7,6,8
1491087954082,1,48,-124,-6,2,-2,-8,-19,-15
1491087954082,2,-44,-16,1,4,0,-2,-7,-16
1491087954082,2,13,32,-5,7,2,-2,9,3
1491087954083,3,25,-39,0,14,4,-10,4,0
1491087954083,3,-7,-101,1,-1,0,-15,11,9
1491087954084,0,-7,-73,-8,-12,-2,2,2,4
1491087954084,0,-35,-98,6,8,-4,7,-9,-8
1491087954119,1,18,-98,-6,-8,-2,2,8,6
1491087954119,1,25,-110,8,12,7,13,-3,19
1491087954120,2,2,-128,-1,-5,5,13,1,2
1491087954120,2,4,-82,-9,-5,-8,-2,-9,-3
1491087954121,3,-21,-54,-3,1,2,1,2,-3
1491087954121,3,6,19,5,5,-3,0,-5,-4
1491087954122,0,34,42,-1,1,-3,-12,-28,-16
1491087954122,0,-24,7,-4,-12,3,11,19,9
1491087954157,1,-14,86,-2,-2,-4,-5,-7,-11
1491087954157,1,-26,81,-6,-4,-1,5,7,-5
1491087954158,2,-14,67,-2,2,-1,7,1,-2
1491087954158,2,30,104,0,4,-1,-5,-8,-11
1491087954158,0,12,71,2,0,2,-5,8,3
1491087954158,0,-10,26,-2,-3,4,4,-2,0
1491087954159,1,6,41,3,6,-4,-5,-3,1
1491087954159,1,7,126,-3,0,1,0,-5,-9
1491087954194,2,-11,46,-2,1,-1,-3,-26,-8
1491087954194,2,-71,-35,-4,-3,0,2,12,-3
1491087954195,3,3,-60,2,1,0,2,-15,-1
1491087954195,3,41,-83,4,-1,-1,-7,-2,-4
1491087954195,0,-51,-94,-9,-19,-3,1,12,0
1491087954195,0,16,-50,0,-7,-5,-3,-12,-4
1491087954196,1,-21,-25,-4,-9,-4,-4,-1,-2
1491087954196,1,3,-19,-4,-4,-3,-8,-24,-6
1491087954232,2,12,5,2,4,1,-2,6,-3
1491087954232,2,-33,10,4,6,-1,-3,6,0
1491087954233,3,-2,4,-6,-4,1,5,22,3
1491087954233,3,19,5,6,4,1,1,9,4
1491087954233,0,5,-8,-2,3,-3,-9,-6,-2
1491087954233,0,7,-8,0,-3,-4,-2,-13,-6
1491087954234,1,4,-6,-3,-4,-1,5,7,3
1491087954234,1,-26,-32,-6,-3,-3,-9,-4,-10
1491087954269,2,51,-22,2,4,-1,-1,-8,12
1491087954269,2,-74,-18,0,-7,-2,-1,6,-1
1491087954270,3,-6,-8,-1,0,1,-1,-9,-4
1491087954270,3,24,-25,-3,-3,-3,4,10,4
1491087954270,0,-4,-9,-1,3,-3,-3,-12,-6
1491087954270,0,35,2,-2,-4,-2,-5,2,2
1491087954271,1,-14,-3,-2,1,1,-4,-5,-8
1491087954271,1,6,-13,-2,3,-2,-1,3,6
1491087954307,2,-15,-7,0,-3,-3,-5,-2,-8
1491087954307,2,8,2,-9,-9,-4,-1,1,1
1491087954308,3,45,-3,-4,1,1,0,1,2
1491087954308,3,-32,-15,9,4,2,-1,0,-5
1491087954308,0,-9,-9,0,2,-1,-9,-22,-5
1491087954308,0,-22,-9,-3,2,0,-2,10,-4
1491087954309,1,16,9,4,-9,-4,3,13,6
1491087954309,1,11,-13,-8,-8,1,-2,-3,0
1491087954344,2,-12,-19,-5,-6,-2,-4,-10,-3
1491087954344,2,39,1,-3,3,0,-5,-13,-6
1491087954345,3,-27,-9,1,2,-3,-1,25,7
1491087954345,3,-51,-5,-5,3,-2,0,4,15
1491087954346,0,1,13,4,-7,0,2,3,-4
1491087954346,0,33,0,-4,-1,-1,3,28,7
1491087954347,1,-21,6,-2,-2,-6,-5,-43,-9
1491087954347,1,44,4,-3,-2,-2,-2,6,2
1491087954382,2,-48,-12,-1,15,0,-2,-17,-17
1491087954382,2,56,-3,-5,12,4,6,-10,-13
1491087954383,3,-21,-19,9,11,1,0,13,0
1491087954383,3,-5,-30,-7,-13,-5,-1,-9,-21
1491087954384,0,-13,10,-11,-4,-3,-5,10,-4
1491087954384,0,10,72,5,5,5,20,14,11
1491087954419,1,0,14,-3,0,-2,-3,10,-7
1491087954419,1,5,66,0,-6,1,3,-10,-2
1491087954421,2,4,25,-5,-6,-2,3,-14,-13
1491087954421,2,-30,-70,5,-1,-2,-15,6,14
1491087954421,3,-1,-35,-7,-14,-3,-11,-21,-4
1491087954421,3,63,-62,-1,-3,-2,-12,0,3
1491087954422,0,3,-21,0,-11,-4,-5,-12,-3
1491087954422,0,-60,20,-5,-17,-4,-14,-21,-15
1491087954457,1,0,-30,0,20,-7,-15,-10,-4
1491087954457,1,-40,-5,-4,30,3,-11,-4,-11
1491087954457,2,17,-12,0,26,11,10,23,13
1491087954457,2,12,-86,-1,4,4,10,11,3
1491087954458,3,-3,-75,0,-11,0,-2,-10,-5
1491087954458,3,19,-97,1,-10,-7,7,13,12
1491087954459,0,21,-128,1,-12,-2,-4,-23,0
1491087954459,0,-18,-15,-3,-8,-3,9,21,14
1491087954494,1,8,71,-3,-6,-3,-4,-12,-3
1491087954494,1,-4,37,-3,-6,-5,-1,-2,5
1491087954495,2,-42,46,2,-10,-4,0,7,6
1491087954495,2,17,74,0,-17,-2,-6,-22,0
1491087954496,3,4,33,-5,-20,-4,6,-18,10
1491087954496,3,-21,41,4,-17,-1,2,-14,-1
1491087954497,0,14,-20,-4,-5,-8,-11,-11,-2
1491087954497,0,-17,-29,0,15,-2,-5,-4,-1
1491087954532,1,-5,11,-5,8,8,15,29,-16
1491087954532,1,22,32,-5,36,5,-6,15,-16
1491087954532,2,-27,61,4,82,20,10,50,-18
1491087954532,2,24,120,-10,-47,-11,-5,-5,-2
1491087954533,3,-41,68,2,-19,-4,-11,-20,4
1491087954533,3,-1,-18,1,-33,-6,8,8,16
1491087954534,0,39,-78,-8,-26,-9,-9,1,19
1491087954534,0,22,-85,2,20,5,7,0,-9
1491087954569,1,-23,-21,6,6,4,2,-5,-3
1491087954569,1,-5,18,1,-9,-4,-2,-1,0
1491087954570,2,-9,52,-1,-8,3,7,-12,-2
1491087954570,2,9,21,-8,3,0,4,9,3
1491087954570,3,19,12,-4,-1,-2,1,-3,1
1491087954570,3,-42,70,1,6,0,-4,-10,-9
1491087954572,0,12,96,2,-8,-9,-9,-3,5
1491087954572,0,10,-18,3,5,4,7,-5,-6
1491087954607,1,-60,-26,-4,4,-3,-2,6,-9
1491087954607,1,17,-48,2,0,3,-1,-18,0
1491087954607,2,17,-26,-6,-18,-2,5,28,13
1491087954607,2,-4,-24,-3,-3,-2,-11,-17,-2
1491087954608,3,14,-3,7,11,2,-6,2,-4
1491087954608,3,-15,-35,-5,-12,-6,-1,14,-1
1491087954644,0,-10,-46,3,-15,0,2,-23,-6
1491087954644,0,27,-37,-4,-2,-3,-2,2,7
1491087954645,1,-1,-36,0,6,1,-1,-8,1
1491087954645,1,-7,9,-6,-7,-2,-2,-18,-9
1491087954645,2,0,43,6,-9,-5,8,12,3
1491087954645,2,12,52,5,17,1,3,7,4
1491087954646,3,14,3,-8,-3,-2,-5,-9,-2
1491087954646,3,21,6,-2,6,0,-9,-20,-5
1491087954682,0,-16,5,-4,-5,1,-2,-1,0
1491087954682,0,-2,19,1,2,-3,0,24,-7
1491087954682,1,49,11,-5,2,0,4,3,9
1491087954682,1,-27,1,1,6,2,1,7,4
1491087954683,2,-11,5,-4,-9,-5,-3,-8,-2
1491087954683,2,-2,10,-1,4,-2,-11,-26,-5
1491087954684,3,4,12,-1,7,-1,2,16,2
1491087954684,3,-35,8,1,-2,7,13,17,-2
1491087954757,0,27,0,-2,-1,-2,-5,-3,-6
1491087954757,0,-28,5,-2,4,4,9,-6,0
1491087954757,1,40,2,-1,2,-7,-3,-2,-3
1491087954757,1,-15,3,-4,4,-7,-20,-43,-10
1491087954758,2,-45,1,2,5,4,8,26,-8
1491087954758,2,-25,-7,-5,5,3,10,19,3
1491087954759,3,-30,-1,-2,-3,-1,-8,-30,-14
1491087954759,3,31,6,-1,7,-8,-11,16,6
1491087954794,0,25,4,1,-5,5,9,10,9
1491087954794,0,-43,-18,-9,-9,-8,-19,-17,-13
1491087954795,1,20,2,-1,2,1,7,18,5
1491087954795,1,-13,-10,-4,-5,-7,0,-7,-2
1491087954796,2,11,-3,2,7,-6,-12,-11,0
1491087954796,2,1,-4,2,-11,-1,3,1,-8
1491087954796,3,-41,-8,-6,-9,0,6,3,0
1491087954796,3,14,-4,-5,-6,2,3,-11,-12
1491087954832,0,15,3,-6,-9,-7,-1,28,1
1491087954832,0,-4,9,3,-10,1,2,-25,5
1491087954832,1,9,7,0,-13,-8,-6,-12,-3
1491087954832,1,-4,-3,-3,-9,0,3,-2,-3
1491087954833,3,-6,0,0,1,-1,-13,-15,-5
1491087954833,3,-19,-5,1,11,8,30,40,22
1491087954834,0,-7,-14,-6,1,-1,-11,-27,-31
1491087954834,0,46,-1,-2,7,-7,-20,-4,2
1491087954869,1,4,-4,1,0,5,18,28,5
1491087954869,1,-22,-7,-2,11,-4,-17,-9,-9
1491087954870,2,9,-7,-2,3,1,8,-15,-16
1491087954870,2,-10,-10,-2,-3,-2,-18,-5,-5
1491087954871,3,-2,-7,-4,-3,-6,-5,17,3
1491087954871,3,0,3,0,-4,1,10,41,9
1491087954872,0,3,-9,-3,-8,-1,4,-65,-3
1491087954872,0,8,4,1,0,-6,-10,-22,-11
1491087954907,1,-13,6,8,0,3,-12,26,0
1491087954907,1,26,-6,-2,1,0,3,-24,14
1491087954907,2,-19,-1,-2,1,-3,-9,1,3
1491087954907,2,24,-2,-5,0,-3,11,19,7
1491087954908,3,-35,10,-6,-5,0,1,-14,-11
1491087954908,3,-32,13,-2,-7,-1,-10,-2,-13
1491087954909,0,5,3,-1,-2,2,1,13,5
1491087954909,0,-2,-7,-1,0,-7,-2,-9,6
1491087954944,1,19,-9,-1,7,-2,2,27,19
1491087954944,1,-20,-12,-3,-14,-3,-7,-39,-21
1491087954945,2,-4,-8,-4,-1,-3,1,25,8
1491087954945,2,15,-7,-6,-13,1,8,-1,8
1491087954982,3,5,-18,-2,-22,-10,-15,-33,-5
1491087954982,3,6,-11,-3,-12,-3,-2,-9,3
1491087954982,0,-3,-18,0,-7,-2,-2,4,-9
1491087954982,0,-3,-10,-1,18,9,18,20,2
1491087954983,1,-20,-9,-9,31,5,-12,-4,-16
1491087954983,1,22,-3,4,23,7,7,14,-3
1491087954984,2,-16,-8,-5,4,-1,0,-7,-8
1491087954984,2,18,9,5,-2,-4,-6,9,7
1491087955019,3,-36,-3,-3,-10,-5,4,-22,-9
1491087955019,3,32,-16,-7,-2,-6,-14,-6,-3
1491087955020,0,-1,-15,1,-2,1,-2,8,7
1491087955020,0,-18,-21,1,-5,6,4,4,-7
1491087955020,1,11,-12,1,-1,-5,-4,-1,5
1491087955020,1,24,0,-3,-4,-9,-8,8,-2
1491087955021,2,1,0,-1,-5,1,2,-2,6
1491087955021,2,-9,-9,-1,-2,3,-1,6,-6
1491087955057,3,23,-7,1,-4,-1,-1,-37,-10
1491087955057,3,-38,-10,-2,-8,-2,7,27,-1
1491087955058,0,41,11,1,2,-2,-2,9,12
1491087955058,0,-15,23,-3,-11,-2,-1,-5,0
1491087955058,2,-7,12,-8,-4,1,12,18,-6
1491087955058,2,-5,4,-5,6,-4,2,-19,-6
1491087955059,3,23,17,6,6,9,3,15,6
1491087955059,3,4,5,-3,5,3,-3,-8,1
1491087955094,0,4,16,5,10,-4,-11,13,-1
1491087955094,0,-18,-1,-2,-7,-3,2,-24,-9
1491087955095,1,-5,3,-1,1,1,5,0,-2
1491087955095,1,-6,-1,-5,1,1,1,-14,-2
1491087955096,2,-7,-2,0,-2,-1,-2,7,2
1491087955096,2,2,1,1,-1,-7,-4,3,0
1491087955097,3,2,2,0,0,4,7,17,5
1491087955097,3,8,7,5,-3,-2,10,-2,5
1491087955132,0,-9,-6,-7,-4,-5,-17,-54,-20
1491087955132,0,10,0,-2,5,-4,-13,22,16
1491087955133,1,-10,-7,-5,-7,-2,7,-1,-1
1491087955133,1,12,-3,5,-6,2,-1,-3,-4
1491087955133,2,-10,-12,-4,-3,2,10,4,-5
1491087955133,2,-4,7,6,7,-4,0,26,13
1491087955134,3,0,-8,-5,1,3,-1,-44,-7
1491087955134,3,6,-4,-2,4,-8,-8,-8,-1
1491087955169,0,-30,-1,-1,-7,3,9,12,-1
1491087955169,0,-20,-13,-5,-1,0,-8,3,-8
1491087955170,1,-6,-14,-4,-3,-4,-1,7,5
1491087955170,1,45,-8,-4,13,-4,-14,2,-11
1491087955171,2,-15,-7,-1,1,-1,-1,-30,-11
1491087955171,2,9,-2,-4,4,5,-11,9,-4
1491087955172,3,11,6,1,-4,-1,-7,-7,-4
1491087955172,3,-20,-2,1,-15,-4,-4,-4,-5
1491087955207,0,0,-7,-7,-11,-7,-5,-15,7
1491087955207,0,9,0,6,-6,5,19,14,-4
1491087955209,1,-12,-42,-3,1,0,3,7,-4
1491087955209,1,-8,-24,0,-3,-2,-11,-15,-3
1491087955210,2,10,-9,1,4,2,-2,8,2
1491087955210,2,-17,-7,0,-1,-5,-1,-1,-3
1491087955211,3,11,-4,-8,0,-5,-16,-21,-5
1491087955211,3,-12,12,3,1,2,10,21,1
1491087955244,0,12,-61,-1,4,-6,-8,-26,-5
1491087955244,0,5,-8,-7,-3,-5,-2,3,-5
1491087955245,1,-37,19,-1,7,5,6,-4,-10
1491087955245,1,3,20,-3,2,5,-6,25,4
1491087955246,2,9,49,0,2,0,-1,-2,0
1491087955246,2,-6,24,-8,-7,-2,2,-5,-1
1491087955247,3,8,23,6,-7,-9,2,-3,3
1491087955247,3,5,6,-3,-13,-1,8,4,19
1491087955282,0,-12,-5,-3,-9,-7,-8,3,-1
1491087955282,0,7,12,12,2,3,5,-6,13
1491087955283,1,4,9,3,1,-1,0,-11,5
1491087955283,1,-11,-9,-5,1,-4,-9,-10,-22
1491087955283,2,4,7,0,2,-5,-9,1,-4
1491087955283,2,-3,-7,-9,-2,10,10,-8,-7
1491087955319,3,-4,-1,-4,1,-4,-3,14,2
1491087955319,3,-7,0,3,1,2,2,8,2
1491087955320,0,-1,5,0,0,-6,-4,2,0
1491087955320,0,-7,-5,-1,-1,0,0,-28,-15
1491087955321,1,-2,-8,-3,-6,-2,-13,-10,-11
1491087955321,1,-6,-3,-1,2,-2,4,18,3
1491087955322,2,7,15,3,2,-3,-6,-9,-8
1491087955322,2,1,2,3,2,1,0,4,6
1491087955357,3,19,4,3,8,3,9,22,15
1491087955357,3,-6,-8,-8,-10,-1,2,10,3
1491087955358,0,2,3,-2,1,0,-2,-11,2
1491087955358,0,-2,-6,0,-5,-4,-18,-20,-17
1491087955358,1,-16,-8,-3,-4,-6,-4,20,0
1491087955358,1,34,8,-1,5,2,-10,-46,4
1491087955359,2,-2,-1,0,-3,4,20,51,7
1491087955359,2,-11,-16,-3,-4,-7,-15,-54,-4
1491087955394,3,-4,-3,-8,-8,-3,-5,-16,-8
1491087955394,3,-7,-16,-8,-4,-5,0,0,-2
1491087955395,0,0,12,5,7,5,-4,1,3
1491087955395,0,-1,-43,-9,0,-2,4,17,-5
1491087955396,1,-3,-3,-2,3,-2,-9,13,18
1491087955396,1,-15,-3,-8,-1,1,8,-25,-19
1491087955396,2,-5,10,-3,-6,-5,-4,7,1
1491087955396,2,-1,-1,8,-3,-3,1,26,12
1491087955432,3,6,-1,-1,-6,-3,-4,-22,-9
1491087955432,3,-4,4,3,8,-3,-5,3,1
1491087955432,0,0,-6,-8,-4,1,1,3,2
1491087955432,0,1,6,4,-2,2,1,-2,-9
1491087955469,1,7,-15,2,1,0,7,16,4
1491087955469,1,0,0,4,3,-3,-4,-46,-8
1491087955507,2,-16,-33,-10,-19,-10,-30,-26,-15
1491087955507,2,11,43,13,13,4,4,10,8
1491087955508,3,7,9,13,-4,-1,6,2,-2
1491087955508,3,-4,-8,-7,2,1,8,16,0
1491087955509,0,6,-18,-10,-6,-1,5,0,8
1491087955509,0,-16,-25,-25,-1,-2,-4,-8,-10
1491087955510,1,-8,-17,20,27,2,1,4,-3
1491087955510,1,0,-29,-30,-14,-1,10,12,7
1491087955544,2,0,-36,-33,5,1,-24,-7,2
1491087955544,2,-8,-16,2,-8,-9,-8,15,-2
1491087955545,3,-13,20,71,0,3,-11,-34,-26
1491087955545,3,10,18,-35,2,5,15,39,30
1491087955546,0,-5,-47,6,-31,-5,10,-35,-10
1491087955546,0,-3,-44,-42,-28,-6,-5,-11,-3
1491087955546,2,4,48,79,16,6,8,14,10
1491087955546,2,11,33,-29,4,-5,-32,-8,-5
1491087955582,3,-14,-34,-39,-1,2,-1,-4,-1
1491087955582,3,11,5,-52,8,6,13,14,5
1491087955582,0,-5,-67,-5,-3,0,20,6,-10
1491087955582,0,-9,-79,13,-7,-5,6,-10,-3
1491087955583,2,-5,87,13,13,1,-11,-4,-2
1491087955583,2,4,61,32,5,5,18,13,0
1491087955584,3,-5,85,-69,-24,-10,-16,-2,-14
1491087955584,3,-2,74,86,5,-5,0,-3,7
1491087955619,0,8,110,-59,2,4,10,3,-4
1491087955619,0,-8,32,14,-12,-3,-5,-8,-1
1491087955621,1,4,-39,-47,-12,0,1,8,15
1491087955621,1,-12,-81,24,-11,-3,-6,-1,-11
1491087955621,2,-3,-83,0,-3,2,4,7,-1
1491087955621,2,0,-31,-7,15,0,-1,-7,6
1491087955622,3,-16,-1,-1,1,-4,-9,-9,-2
1491087955622,3,-12,37,56,24,-1,-4,-5,-9
1491087955732,0,54,-16,-26,4,2,7,12,4
1491087955732,0,-18,17,-2,13,-2,-6,-4,-15
1491087955733,1,2,7,11,1,1,3,-3,-12
1491087955733,1,0,13,-20,0,-6,-14,-13,-17
1491087955733,2,-3,16,20,31,4,2,13,12
1491087955733,2,7,24,24,13,7,4,-15,0
1491087955734,3,-13,3,-19,-18,3,20,33,1
1491087955734,3,-19,-25,-5,-8,-5,-11,-35,-17
1491087955770,0,-17,10,0,4,-16,-25,-35,-8
1491087955770,0,53,8,-2,3,-3,7,7,11
1491087955770,1,3,-23,-1,-31,7,22,16,-9
1491087955770,1,-5,-27,5,-29,-1,18,53,17
1491087955807,2,-19,26,17,-20,-1,-8,-19,-4
1491087955807,2,-5,-1,-15,-12,-8,-31,-52,-8
1491087955808,1,-26,71,-3,12,-1,-1,6,8
1491087955808,1,72,-5,3,14,6,-2,-5,-4
1491087955844,2,-15,6,3,11,-8,-14,-5,-11
1491087955844,2,-5,-9,-6,-1,1,3,-6,-3
1491087955846,3,-4,43,0,3,7,3,-3,-1
1491087955846,3,-25,56,-1,-5,-4,-2,0,-6
1491087955847,0,12,18,-9,8,-1,-15,-35,-9
1491087955847,0,10,17,2,12,0,8,36,7
1491087955848,1,23,-5,-2,9,-4,-3,-12,5
1491087955848,1,-62,-18,4,-19,3,-5,24,-4
1491087955882,2,108,-64,-6,-3,1,4,9,17
1491087955882,2,-118,-59,-6,-19,-15,-17,-22,-32
1491087955883,0,40,-78,-5,-3,1,-2,-11,-13
1491087955883,0,8,-26,-7,8,5,1,7,25
1491087955884,1,-46,-11,4,-8,-12,-14,-6,-12
1491087955884,1,19,42,-4,4,-6,-18,-42,-31
1491087955885,0,-66,28,-1,-2,-1,-9,0,-10
1491087955885,0,99,40,-6,-14,-9,-8,-17,-8
1491087955920,1,-24,10,12,3,-6,1,-28,-4
1491087955920,1,-23,84,-10,-15,-5,-33,16,-11
1491087955921,2,-6,17,1,-5,1,5,-17,-3
1491087955921,2,24,-14,7,-5,2,-4,13,2
1491087955922,0,75,-47,-7,13,-7,-17,0,3
1491087955922,0,-48,-48,-3,-1,1,-6,-9,-12
1491087955922,1,-39,-25,3,4,0,0,-8,-4
1491087955922,1,21,-20,0,1,0,11,1,1
1491087955957,2,50,-4,-1,-8,-2,-3,14,16
1491087955957,2,-66,12,3,5,2,2,-21,-11
1491087955958,3,51,16,-1,-5,1,-6,0,4
1491087955958,3,-62,-5,-3,0,-2,-19,-21,4
1491087955959,0,-35,18,9,-1,-2,14,31,2
1491087955959,0,14,11,-6,-18,1,5,-5,-8
1491087955963,1,12,5,-8,-4,-7,-8,2,-2
1491087955963,1,19,17,2,2,7,12,13,4
1491087955994,2,-35,24,4,0,1,9,14,-1
1491087955994,2,-75,35,-1,1,-6,-12,-4,-3
1491087955995,3,-4,19,-3,0,5,0,5,-3
1491087955995,3,-56,-34,-1,1,-4,2,-3,-2
1491087955996,0,-21,-19,-5,-4,-7,-10,-7,-6
1491087955996,0,13,-15,-2,-4,2,7,2,1
1491087955997,1,78,-18,-1,4,-5,-12,-8,0
1491087955997,1,44,-37,-4,-8,-4,12,13,17
1491087956032,2,-58,-24,-1,-2,5,6,14,-9
1491087956032,2,51,-9,8,10,-3,-2,-6,6
1491087956069,3,-45,-5,-5,-1,2,-12,-19,-15
1491087956069,3,14,7,4,-4,0,13,29,19
1491087956070,0,-1,-12,-8,-10,-2,-20,-23,-7
1491087956070,0,-17,-17,-2,-4,-1,4,12,0
1491087956071,1,17,12,-3,-6,-4,-11,7,3
1491087956071,1,2,1,1,7,-5,-5,-28,-6
1491087956072,2,-9,-12,-4,-8,6,19,18,3
1491087956072,2,-9,-17,-4,1,-3,-10,-15,-9
1491087956107,3,-87,-7,-2,-5,3,0,14,0
1491087956107,3,-36,1,0,-11,-1,0,-7,-6
1491087956108,0,49,-9,0,-2,-5,-4,6,3
1491087956108,0,12,8,1,-4,-7,-11,-13,2
1491087956109,1,14,1,3,-5,2,13,8,-2
1491087956109,1,22,-5,2,1,-2,0,-3,-11
1491087956110,2,-64,-4,-4,2,-1,-11,-35,-8
1491087956110,2,-2,-13,-8,-10,1,10,34,4
1491087956144,3,21,2,3,5,-1,-5,12,-3
1491087956144,3,-31,-1,-2,3,1,1,-18,6
1491087956146,0,65,12,4,9,-1,-7,-3,-5
1491087956146,0,-3,-7,0,14,-4,-8,-7,3
1491087956147,2,-55,-3,-1,-11,-4,-13,8,-11
1491087956147,2,45,-8,-10,-3,3,-2,-17,4
1491087956147,3,33,2,9,-1,-4,-1,12,5
1491087956147,3,-58,-7,-1,-2,1,4,-7,-11
1491087956220,0,-7,-12,-7,-1,1,10,9,2
1491087956220,0,-9,-6,-3,1,-1,-11,-15,-7
1491087956222,1,60,-7,-7,0,-3,-2,3,9
1491087956222,1,-5,10,8,0,-7,-11,5,-3
1491087956223,2,-1,-4,-3,-4,-2,5,-3,-3
1491087956223,2,-1,-9,-1,-8,6,8,14,-1
1491087956224,3,44,-4,-1,-1,-1,-3,-10,11
1491087956224,3,-26,-11,-7,-7,-4,-6,-8,-6
1491087956257,0,6,3,7,1,-1,0,-11,0
1491087956257,0,-17,4,6,9,-4,-16,-5,0
1491087956257,1,-16,-11,-6,-7,-1,5,6,1
1491087956257,1,21,-4,-3,-8,3,1,15,0
1491087956258,1,15,-6,-9,-1,2,8,4,3
1491087956258,1,40,3,-5,2,-3,-2,-7,-6
1491087956259,2,1,-10,-2,1,-4,-14,-9,-8
1491087956259,2,-71,-8,0,4,-5,-2,-14,-1
1491087956294,3,-32,-5,-3,-8,2,5,7,6
1491087956294,3,28,105,0,4,-4,-7,8,2
1491087956295,0,-3,36,-2,-2,0,7,7,7
1491087956295,0,-4,-1,-4,1,-2,-6,-6,-17
1491087956296,1,-1,-18,-1,-3,-4,1,-15,6
1491087956296,1,-46,-68,-9,-2,1,6,-8,-9
1491087956297,2,-24,-15,0,-12,-1,-5,26,13
1491087956297,2,-6,-22,-9,-10,-2,-2,1,-7
1491087956332,3,64,3,12,15,-2,-12,-22,-3
1491087956332,3,-5,-14,1,-8,-6,-4,-8,0
1491087956332,0,-19,-38,-6,-8,-1,2,-10,-8
1491087956332,0,-14,-52,6,10,-5,-1,-8,0
1491087956333,1,8,-46,-5,-2,1,2,4,-8
1491087956333,1,-17,-2,1,2,-1,-6,-28,-7
1491087956334,2,30,-1,-6,-6,2,8,12,-1
1491087956334,2,-37,28,-5,-15,-2,-8,4,-7
1491087956369,3,54,52,3,2,-3,6,34,20
1491087956369,3,-13,13,1,7,1,-3,2,-10
1491087956370,0,44,15,-4,-4,-6,-7,-6,9
1491087956370,0,14,17,-4,-5,0,3,-5,0
1491087956371,1,2,14,-7,0,-1,-9,-35,-11
1491087956371,1,-38,-2,5,-7,-5,2,19,8
1491087956372,2,32,7,2,11,0,-3,-3,-11
1491087956372,2,-43,4,3,-6,-4,4,-14,2
1491087956407,3,8,8,-5,-4,-1,-2,-13,-5
1491087956407,3,23,-21,-10,-12,1,1,1,-8
1491087956407,0,-69,-2,3,1,0,4,18,11
1491087956407,0,45,-2,-5,-3,-5,-9,-20,-8
1491087956408,1,-63,7,-2,1,-3,-1,15,1
1491087956408,1,2,-10,-4,-8,1,2,1,-8
1491087956409,2,9,7,-1,14,-2,-8,-21,-23
1491087956409,2,-12,7,5,8,1,-1,36,3
1491087956444,3,-27,0,0,0,-2,0,-14,-5
1491087956444,3,73,-3,1,2,-2,-3,18,6
1491087956445,0,-96,-6,-2,-9,3,3,-8,-1
1491087956445,0,28,-3,-2,-2,2,6,28,4
1491087956447,1,14,-2,2,2,-4,-11,-4,-5
1491087956447,1,-50,-15,-1,-11,-1,0,7,6
1491087956448,2,22,10,4,-13,-6,-6,-11,12
1491087956448,2,2,-2,4,8,0,0,-23,-2
1491087956482,3,17,-5,5,-1,-8,-12,-13,4
1491087956482,3,-52,-11,-5,0,6,10,-6,-10
1491087956483,0,29,-9,-4,-1,-8,-6,19,3
1491087956483,0,-18,0,-5,-7,2,4,4,-2
1491087956483,1,12,-8,-7,-6,0,-4,-6,-6
1491087956483,1,44,8,0,11,-8,-6,-20,9
1491087956484,2,-25,-6,-1,4,7,7,12,-9
1491087956484,2,4,14,2,6,1,3,9,3
1491087956557,3,-45,-11,-6,9,-8,-13,-19,-17
1491087956557,3,62,19,0,8,-2,0,5,3
1491087956557,0,65,5,-6,4,3,5,10,5
1491087956557,0,-24,7,5,0,3,-3,-4,-10
1491087956558,1,12,0,-4,-5,2,4,6,7
1491087956558,1,-29,22,0,-3,-1,-4,-5,-9
1491087956559,2,-7,22,6,4,-5,2,-8,2
1491087956559,2,41,-5,-4,1,-5,-13,-28,-8
1491087956594,3,24,-13,-3,-13,0,16,45,10
1491087956594,3,-73,-28,-2,-4,2,-1,-2,1
1491087956595,0,57,-28,-4,-5,4,4,6,2
1491087956595,0,-9,-13,0,-2,-5,-10,-18,-3
1491087956596,1,2,0,5,2,-5,-14,-1,1
1491087956596,1,10,-20,-10,-7,1,1,-4,-7
1491087956596,3,11,13,1,-4,2,2,-3,12
1491087956596,3,-17,-12,-5,-5,-8,-3,9,-9
1491087956669,0,3,-1,-1,1,-7,-13,-21,-4
1491087956669,0,35,1,-5,-5,-3,-3,6,0
1491087956670,1,28,6,0,-2,7,14,-12,-3
1491087956670,1,-27,-6,-4,3,2,2,4,2
1491087956671,3,-20,11,2,8,-1,-14,-30,-13
1491087956671,3,48,19,3,-2,2,11,33,11
1491087956672,0,-41,6,-3,-4,0,4,7,3
1491087956672,0,-21,-4,0,-3,-2,0,6,-1
1491087956707,1,31,-5,-4,-3,0,0,-7,0
1491087956707,1,45,19,10,11,-3,-9,-22,-4
1491087956708,2,-35,-8,-1,-10,0,2,5,-3
1491087956708,2,-12,-4,-5,-4,-2,0,5,-4
1491087956708,3,0,-8,-1,2,-2,-4,4,7
1491087956708,3,-23,-12,-2,-3,-4,-4,1,-7
1491087956709,2,-14,1,-4,2,-4,-5,-5,-5
1491087956709,2,-9,-2,4,2,3,0,-7,-8
1491087956744,3,-29,-1,-6,-7,0,1,4,0
1491087956744,3,10,-9,-3,2,0,-6,-2,3
1491087956745,0,-18,1,-5,-15,3,3,-5,-11
1491087956745,0,26,-4,0,6,0,-5,-17,0
1491087956782,2,-15,-7,-6,0,-6,-10,-10,3
1491087956782,2,27,7,0,-6,1,5,17,6
1491087956783,3,-8,-8,-5,-7,-3,-9,-2,-13
1491087956783,3,22,-25,2,1,3,8,0,9
1491087956784,0,-2,-28,-4,-2,-4,-5,0,-12
1491087956784,0,1,-58,-4,2,0,2,-4,-3
1491087956785,1,-43,-24,-3,-8,0,1,6,4
1491087956785,1,-6,-10,-9,2,-7,-14,-18,-14
1491087956819,2,9,41,6,1,0,1,-5,10
1491087956819,2,-19,39,-1,-4,-6,-8,4,-1
1491087956820,3,9,31,0,-6,-1,0,-27,-8
1491087956820,3,14,-18,0,-8,4,10,27,8
1491087956821,0,-59,-41,2,-1,-1,1,1,-10
1491087956821,0,-18,-85,-3,8,-4,-6,-11,-11
1491087956822,1,52,-45,6,8,-4,-5,-2,10
1491087956822,1,-11,0,-7,1,-3,-9,-6,0
1491087956857,2,4,3,5,13,5,0,1,-13
1491087956857,2,6,35,-3,-6,4,10,5,12
1491087956858,3,-17,41,-8,-10,-7,-7,-7,-9
1491087956858,3,-22,50,3,0,-1,-5,-8,3
1491087956858,1,31,18,4,8,4,5,9,1
1491087956858,1,-8,9,-1,-2,1,-3,-7,-3
1491087956859,2,26,-8,-2,-5,-4,-1,4,4
1491087956859,2,-50,0,-2,-8,1,2,2,-3
1491087956894,3,-18,8,-3,2,-6,-8,-3,-7
1491087956894,3,12,30,2,-5,4,7,3,0
1491087956895,0,-1,0,-4,2,-1,-5,-17,-11
1491087956895,0,17,-7,1,1,-4,3,21,9
1491087956896,1,18,-18,-4,-9,-1,3,11,3
1491087956896,1,23,-23,4,8,2,1,-11,3
1491087956896,2,-2,-14,-5,-13,-5,-4,-11,-7
1491087956896,2,1,-9,-5,-3,-4,-6,-3,-2
1491087956932,3,-5,-16,6,14,-4,-8,-6,-10
1491087956932,3,20,-4,1,-7,3,10,18,13
1491087956934,0,-1,14,-2,-2,1,1,7,10
1491087956934,0,18,26,-2,-7,-4,-1,-9,-3
1491087956935,1,-22,10,-4,-7,-3,1,-1,-4
1491087956935,1,-6,-1,-3,-2,-11,-12,-19,-10
1491087956936,2,-2,-2,-1,3,3,-1,-6,-1
1491087956936,2,10,-1,-3,-4,1,5,7,0
1491087956970,3,-23,-5,-4,-5,-1,0,-10,-3
1491087956970,3,11,-1,3,5,0,1,1,-4
1491087956971,0,-19,-8,0,-8,-1,0,7,0
1491087956971,0,-9,-10,1,0,-3,-9,-12,-7
1491087956972,1,6,-17,-1,-5,1,-1,7,1
1491087956972,1,-46,-16,-4,1,-5,-11,-5,-3
1491087956973,2,11,-19,1,10,-5,-10,-21,-5
1491087956973,2,34,-49,-5,0,2,6,2,9
1491087957007,3,-34,-5,-2,-4,-1,1,8,-6
1491087957007,3,8,6,-2,-5,-1,8,6,2
1491087957009,0,-15,26,-2,1,-1,3,2,0
1491087957009,0,10,35,-1,0,-3,-12,-19,-8
1491087957045,1,2,17,-1,-3,-2,-5,4,6
1491087957045,1,-3,13,-3,-7,5,1,-1,-9
1491087957047,2,22,-3,-2,-2,1,-3,-1,3
1491087957047,2,-23,8,4,2,-1,-1,-3,7
1491087957048,3,12,3,-3,-4,2,4,13,-2
1491087957048,3,-33,-4,-2,0,-5,-7,-12,-9
1491087957049,0,17,7,0,4,-2,-2,-1,3
1491087957049,0,5,18,1,2,1,1,-2,-10
1491087957082,1,21,10,1,-4,-3,-5,-11,0
1491087957082,1,-62,-38,2,1,0,-3,17,-7
1491087957083,2,5,-26,-2,5,-4,-1,15,7
1491087957083,2,-3,-6,0,0,6,12,14,3
1491087957084,3,10,-3,-9,1,0,-3,-7,-8
1491087957084,3,0,0,-1,2,-3,-2,0,-5
1491087957085,0,-8,-4,-5,3,-1,-5,-10,-13
1491087957085,0,6,9,3,4,-1,-7,-9,4
1491087957120,1,0,-6,1,-3,0,2,2,-2
1491087957120,1,20,9,-5,1,-7,-14,-21,0
1491087957121,2,-46,-6,-1,-8,4,14,22,8
1491087957121,2,-80,12,-1,-4,-4,-10,-15,-9
1491087957122,3,28,-6,-1,-8,4,15,12,6
1491087957122,3,56,1,-3,-1,-4,-10,-7,7
1491087957157,0,12,2,2,3,6,8,7,1
1491087957157,0,11,-10,1,9,3,14,9,-8
1491087957159,1,-48,-16,-4,9,-3,-10,-15,-12
1491087957159,1,-4,4,-1,-4,-4,-4,-1,-2
1491087957161,2,-22,12,-3,-14,-3,-4,-7,-5
1491087957161,2,40,8,2,5,-8,-14,-2,5
1491087957162,3,-15,6,7,7,0,6,12,8
1491087957162,3,-78,-16,-5,-5,1,0,-9,-10
1491087957270,0,69,3,3,-1,5,14,32,14
1491087957270,0,-16,-15,-11,3,-7,-11,-10,-3
1491087957272,1,38,2,-9,-19,9,17,12,-4
1491087957272,1,-40,-31,4,-2,-11,-22,-16,4
1491087957273,3,-18,-14,1,-2,-6,6,70,27
1491087957273,3,72,8,-12,-18,3,11,-11,-28
1491087957274,0,-17,-3,-9,5,-6,5,-23,1
1491087957274,0,29,5,0,-11,-2,-30,-1,15
1491087957307,1,43,26,0,3,0,29,-5,9
1491087957307,1,-2,37,14,40,8,-17,-30,-29
1491087957308,2,3,23,8,16,1,-38,3,22
1491087957308,2,23,-30,-14,-8,-10,5,0,-24
1491087957310,3,3,16,25,7,7,56,50,37
1491087957310,3,-6,-1,-6,-7,-1,-39,3,24
1491087957310,2,80,-18,14,6,103,106,90,50
1491087957310,2,28,31,16,12,39,5,38,30
1491087957344,3,10,9,-13,-32,-32,-83,-98,-39
1491087957344,3,41,93,-19,-13,36,27,47,-1
1491087957345,0,4,94,-14,-25,-81,-36,-76,-32
1491087957345,0,-35,103,-8,-1,-33,-72,55,21
1491087957346,2,31,47,24,74,78,-87,-75,-7
1491087957346,2,-45,40,14,-1,51,44,49,-2
1491087957347,3,0,-24,-5,8,38,9,-17,-29
1491087957347,3,-19,-49,-5,-46,-111,25,106,30
1491087957382,0,58,-56,-14,-57,-25,74,14,-3
1491087957382,0,68,-68,-32,19,-128,-112,-54,18
1491087957382,1,-121,-6,1,22,111,-17,-40,-19
1491087957382,1,31,12,1,10,65,115,26,9
1491087957383,2,-64,-9,-6,-23,-7,-128,-57,-21
1491087957383,2,73,-1,3,-11,-33,127,1,7
1491087957384,3,-73,4,2,-12,-32,35,20,-9
1491087957384,3,7,-62,10,35,88,-128,1,13
1491087957420,0,-27,-15,-12,-6,-40,33,13,17
1491087957420,0,-26,17,21,-25,-61,8,22,12
1491087957420,1,84,-14,-34,-19,45,-85,22,26
1491087957420,1,-27,14,7,15,-128,35,-72,8
1491087957421,2,-26,32,37,21,122,118,107,9
1491087957421,2,19,-26,-22,40,127,-79,-106,-56
1491087957422,3,-128,-7,0,-18,-118,-49,-30,-6
1491087957422,3,88,19,-1,-28,87,43,25,60
1491087957456,0,38,7,-13,-6,-83,-115,2,-9
1491087957456,0,-32,15,3,-23,-15,-8,30,49
1491087957457,1,-54,11,33,0,15,-25,-38,-106
1491087957457,1,6,21,-40,-46,-93,-73,-73,-5
1491087957458,2,-113,49,-1,-39,16,78,3,-23
1491087957458,2,63,44,3,57,93,75,108,58
1491087957459,3,71,64,31,75,96,99,-43,48
1491087957459,3,-54,-13,-16,-45,-54,-82,-30,-46
1491087957570,0,-29,-25,-5,-29,-62,75,-13,8
1491087957570,0,-22,-31,16,30,69,59,59,-6
1491087957570,1,-5,-6,10,39,-69,79,38,70
1491087957570,1,-86,-12,17,3,6,-60,15,-49
1491087957645,2,93,-11,-41,-37,-25,-51,-14,-15
1491087957645,2,-1,-2,12,14,-14,-42,-69,-8
1491087957646,3,3,15,-39,-85,-1,15,31,-36
1491087957646,3,-31,8,2,65,83,85,-26,4
1491087957647,0,-47,-37,35,55,-65,-128,-6,22
1491087957647,0,73,-22,-25,-60,-54,70,75,10
1491087957648,1,-15,-2,22,44,-61,75,14,22
1491087957648,1,44,76,12,37,110,45,42,-1
1491087957682,2,-20,120,5,92,-25,83,127,89
1491087957682,2,14,73,-29,-78,-62,-93,-105,-73
1491087957682,0,2,-77,-5,7,-8,86,35,49
1491087957682,0,-1,-86,-10,29,15,65,6,-17
1491087957719,1,8,-28,-9,10,68,-62,46,3
1491087957719,1,74,-12,5,-37,-127,-87,25,-17
1491087957720,3,31,-37,18,6,-5,29,-48,-22
1491087957720,3,21,37,18,-2,-101,-53,-54,-30
1491087957721,0,-64,52,-23,10,-44,14,-4,-41
1491087957721,0,-18,10,-22,-60,49,-30,-6,21
1491087957722,1,-4,-40,-18,-46,-44,-81,-49,-54
1491087957722,1,0,10,40,111,-36,127,46,44
1491087957756,3,88,14,14,-7,-64,98,88,39
1491087957756,3,1,-20,-16,-24,76,-12,-10,2
1491087957757,0,-9,12,1,8,-39,26,-25,-25
1491087957757,0,-1,83,9,30,31,10,-19,33
1491087957758,1,-95,1,-34,-49,-17,-66,-95,-49
1491087957758,1,19,-18,-5,-5,21,-118,-3,-5
1491087957759,3,-8,-20,-9,-24,-89,-68,-56,-2
1491087957759,3,-22,-37,-13,38,73,36,40,34
1491087957794,0,-30,12,24,14,0,-50,-111,-27
1491087957794,0,18,2,-26,-2,-87,-3,9,-5
1491087957795,1,6,-29,-53,-103,-50,-54,18,3
1491087957795,1,-14,-76,-4,74,123,6,0,9
1491087957796,3,4,29,43,64,127,20,64,20
1491087957796,3,-43,-10,-19,-35,-62,-97,-64,-71
1491087957797,0,19,12,-5,-41,-6,-1,10,3
1491087957797,0,-2,14,6,0,47,-37,-32,-20
1491087957831,1,-8,40,-5,-21,-88,66,33,6
1491087957831,1,-11,33,-12,-20,75,50,-23,9
1491087957832,2,-3,40,-13,0,20,-42,11,11
1491087957832,2,-6,0,-19,-97,-128,-15,-74,-38
1491087957833,3,-24,-28,-20,13,39,-31,19,11
1491087957833,3,-9,19,34,52,43,24,46,6
1491087957834,0,35,8,5,-31,-30,-64,-57,-5
1491087957834,0,6,-11,13,11,-42,42,29,9
1491087957869,1,-18,-24,-5,-23,74,4,0,-13
1491087957869,1,-10,0,7,45,17,32,4,22
1491087957870,2,1,-4,-17,-63,-100,-57,-1,-10
1491087957870,2,-7,-14,-23,-47,-22,-48,-18,5
1491087957871,3,7,51,5,42,-48,54,-18,-19
1491087957871,3,4,97,32,86,68,30,24,13
1491087957872,0,-4,47,-4,-55,-90,59,21,1
1491087957872,0,1,-8,-23,-72,-80,-122,-40,6
1491087957906,1,-22,14,-19,19,5,-21,-74,-17
1491087957906,1,12,4,-9,-23,17,47,46,25
1491087957907,2,4,-30,19,61,78,57,11,-6
1491087957907,2,-4,-50,13,26,-56,-7,6,-12
1491087957908,3,-6,-34,11,-4,77,23,12,5
1491087957908,3,10,31,-5,-6,-44,44,23,10
1491087957909,0,-20,-7,-18,-14,-50,-110,-61,-28
1491087957909,0,-10,-46,-15,-30,65,-39,-25,-19
1491087957981,1,3,-41,17,36,-3,8,-8,-5
1491087957981,1,7,-53,-3,-15,-46,20,0,-1
1491087957983,2,-2,-15,6,13,71,27,28,14
1491087957983,2,-2,2,28,48,92,-1,5,-9
1491087957983,3,6,64,-1,-41,-14,28,11,-2
1491087957983,3,-5,26,-1,-15,-101,-37,-24,-4
1491087957984,0,-9,32,-25,-29,-17,-3,10,0
1491087957984,0,-2,45,-11,27,6,5,-14,0
1491087958056,1,6,100,1,-15,21,1,6,-1
1491087958056,1,-2,109,-20,-15,-20,-6,-11,-7
1491087958084,2,1,20,32,19,-22,-22,-1,2
1491087958084,2,0,-13,21,52,75,30,15,3
1491087958085,3,-9,13,4,-5,-31,13,-3,-6
1491087958085,3,1,70,-4,-48,-49,-25,-10,-6
1491087958085,1,9,-68,-7,2,14,2,-3,-5
1491087958085,1,-16,-122,1,-5,-27,-5,5,2
1491087958094,2,33,-127,-11,-15,17,23,19,8
1491087958094,2,-5,-116,15,5,-21,-7,4,1
1491087958095,3,-4,-128,-24,-11,7,-19,-16,-10
1491087958095,3,9,-128,42,40,28,19,13,6
1491087958095,0,28,-7,32,34,3,9,4,-4
1491087958095,0,50,31,14,21,14,-5,10,26
1491087958131,1,10,-3,-18,-20,3,-18,-16,-1
1491087958131,1,-72,4,-38,-58,-73,1,11,-10
1491087958132,2,40,52,6,1,-2,-11,-11,3
1491087958132,2,-58,68,-5,-6,15,-14,-3,-21
1491087958133,3,-34,61,-20,42,10,10,11,2
1491087958133,3,21,62,4,-6,38,-3,-13,1
1491087958134,0,18,41,6,-11,-30,-8,3,9
1491087958134,0,23,51,19,17,15,11,13,-2
1491087958169,1,34,24,-17,5,6,0,-9,2
1491087958169,1,-54,68,-26,-11,13,4,-4,-4
1491087958170,2,4,51,-51,-30,-12,-5,-7,-7
1491087958170,2,-19,48,25,35,4,4,-9,5
1491087958170,3,31,-21,-9,-21,22,23,7,-5
1491087958170,3,15,-44,31,50,-26,34,4,8
1491087958171,0,-41,-52,8,1,31,12,2,4
1491087958171,0,-3,38,9,-22,-11,22,-1,-6
1491087958207,1,25,-32,-16,-7,14,11,-7,-7
1491087958207,1,33,-102,9,15,25,-3,-12,-10
1491087958208,2,-59,-112,12,-6,-4,-2,10,13
1491087958208,2,-24,-110,-40,-15,0,7,-4,-13
1491087958208,0,-24,74,14,40,-28,6,-12,-14
1491087958208,0,-8,117,14,-3,38,31,1,5
1491087958209,1,3,125,9,1,-6,15,0,7
1491087958209,1,-26,98,-26,-31,-21,5,-7,-3
1491087958244,2,-7,35,19,-9,33,22,0,-7
1491087958244,2,-7,-39,-2,34,-43,-11,2,-7
1491087958245,3,-23,-31,27,9,-19,-22,-10,1
1491087958245,3,3,-96,-5,-15,4,-27,-2,-3
1491087958245,0,-1,-57,-2,3,10,-18,-1,-9
1491087958245,0,-29,-39,-4,-39,10,-16,8,6
1491087958246,1,-17,42,-2,10,-32,-27,-3,0
1491087958246,1,-69,27,-3,-23,-23,-5,2,-11
1491087958281,2,37,110,0,-4,-8,-41,-6,9
1491087958281,2,-6,84,-13,-10,12,-16,-14,-12
1491087958282,3,-21,104,-13,-4,-14,-18,4,3
1491087958282,3,43,77,3,-4,-5,-15,-2,0
1491087958283,0,-16,-18,-22,6,-20,-2,1,-1
1491087958283,0,44,-41,10,-10,-3,-18,1,8
1491087958284,1,-7,-58,0,1,-10,-9,1,-10
1491087958284,1,10,-4,5,21,7,-14,-4,1
1491087958319,2,-2,-25,-4,-23,-3,-14,1,-1
1491087958319,2,0,-16,-5,-6,-8,-20,-5,-6
1491087958320,3,-28,-56,-11,-19,8,-9,-4,-17
1491087958320,3,20,-19,5,13,4,-9,7,1
1491087958321,0,12,-34,-26,-26,-6,-3,0,-5
1491087958321,0,11,9,14,4,-21,-11,-3,-1
1491087958321,1,-1,-63,-4,0,-4,-3,0,-8
1491087958321,1,-8,4,9,16,5,1,4,4
1491087958357,2,-3,3,12,-1,-11,-5,-11,0
1491087958357,2,-2,-17,-17,-25,-8,-1,12,2
1491087958357,3,-3,-8,-16,2,4,-6,-6,3
1491087958357,3,17,22,20,1,-3,-2,2,7
1491087958358,0,-9,18,-2,-2,-3,0,3,1
1491087958358,0,-11,28,-19,-7,6,0,-3,-5
1491087958359,1,-1,8,14,-13,-21,-1,-4,-1
1491087958359,1,18,7,-4,22,-3,1,-1,2
1491087958394,2,-1,0,-17,-38,-18,6,1,-6
1491087958394,2,0,14,3,-5,7,8,-2,-1
1491087958395,3,2,15,-5,7,8,11,8,4
1491087958395,3,15,24,5,27,-5,-7,-7,-10
1491087958397,0,11,38,5,24,5,8,6,-2
1491087958397,0,6,-71,-4,-1,10,5,9,0
1491087958398,1,-1,-81,-7,6,-5,0,1,0
1491087958398,1,-10,-120,0,-13,2,4,0,-2
1491087958431,2,-20,-113,-11,-13,-2,1,-1,-2
1491087958431,2,27,-116,4,41,8,6,-10,-6
1491087958433,3,-6,-116,-5,6,14,11,9,-10
1491087958433,3,-3,-21,-2,14,8,3,1,1
1491087958434,0,-11,92,6,6,-2,-4,-4,0
1491087958434,0,-29,3,-5,-7,-1,0,-13,1
1491087958437,1,-30,-85,4,-17,-2,1,-2,3
1491087958437,1,-41,-123,-8,-11,7,4,0,-5
1491087958469,2,2,-128,1,-2,5,-1,-3,1
1491087958469,2,7,12,-12,-14,10,3,-3,-1
1491087958470,3,20,125,7,21,8,7,0,-5
1491087958470,3,11,124,-7,-23,-8,4,2,4
1491087958470,0,8,46,7,10,-3,-6,-22,-2
1491087958470,0,-3,70,-12,-14,-5,-5,4,6
1491087958471,1,3,27,7,0,-8,-5,-9,-5
1491087958471,1,6,30,6,2,12,11,-5,1
1491087958507,2,7,7,-2,-7,7,12,4,1
1491087958507,2,-6,-36,-8,1,1,0,-1,1
1491087958507,3,-20,-41,-19,-11,-2,-5,-9,-3
1491087958507,3,-11,-11,14,4,0,-9,-8,3
1491087958508,0,-2,-12,2,3,-4,13,9,1
1491087958508,0,3,16,7,-13,-3,-2,-2,-3
1491087958544,1,26,48,4,5,1,2,7,12
1491087958544,1,5,9,-15,-5,5,9,0,11
1491087958545,2,-13,-2,-3,5,2,14,5,-15
1491087958545,2,-13,32,-1,20,16,-1,-24,-11
1491087958545,3,22,18,0,5,-2,8,24,8
1491087958545,3,-18,11,-4,-16,-25,-43,-44,-31
1491087958546,0,-8,27,-2,-14,-14,-7,0,6
1491087958546,0,15,15,6,-14,-18,-11,5,3
1491087958581,1,-3,-7,12,8,17,13,-16,2
1491087958581,1,1,43,-11,-11,29,20,25,7
1491087958582,2,-15,36,0,0,-1,1,-6,-2
1491087958582,2,11,47,2,-5,-16,-6,2,0
1491087958583,3,-1,29,3,-10,-20,-1,6,8
1491087958583,3,15,32,-11,-11,-9,-4,-11,0
1491087958619,0,-11,73,12,18,15,10,5,2
1491087958619,0,-15,72,1,4,18,23,3,11
1491087958620,1,4,60,2,-10,6,9,-17,-18
1491087958620,1,7,-4,0,5,1,-1,13,-3
1491087958620,2,21,-23,-10,0,-10,23,15,11
1491087958620,2,-22,-64,-2,-3,-12,-54,35,-9
1491087958621,3,-8,-67,-4,-8,6,-4,-14,-1
1491087958621,3,8,-52,9,13,3,13,14,8
1491087958657,0,3,-45,-2,-1,-14,-10,-38,-18
1491087958657,0,8,-29,-6,-9,20,25,30,0
1491087958657,1,-20,-32,9,-4,-12,-8,7,8
1491087958657,1,22,-18,2,11,-13,10,3,5
1491087958659,2,-11,-27,5,14,22,6,-2,4
1491087958659,2,-14,7,-3,-21,-28,-11,5,4
1491087958661,3,-11,29,-11,-14,-15,-29,-29,-30
1491087958661,3,-41,39,4,6,10,-2,28,10
1491087958694,0,84,-17,-10,-24,-21,-54,-70,-25
1491087958694,0,-24,-63,-3,6,-8,32,50,19
1491087958695,1,19,-11,-6,7,-10,4,33,18
1491087958695,1,-7,14,5,9,20,15,-2,-8
1491087958695,2,-1,40,-4,0,27,54,38,9
1491087958695,2,-30,21,16,10,29,-16,-34,-9
1491087958696,3,10,9,-11,-26,-29,-15,-37,-20
1491087958696,3,22,-16,-14,0,14,-28,20,7
1491087958731,0,-104,-35,-3,-6,-35,-17,-49,-20
1491087958731,0,30,-19,6,-16,-54,25,6,-18
1491087958732,1,-53,18,17,46,85,-10,7,7
1491087958732,1,27,-40,-6,-22,-74,-3,1,2
1491087958733,2,22,-12,-12,-19,-11,-18,40,-7
1491087958733,2,33,-88,-3,22,43,30,-63,-2
1491087958734,3,-14,-10,5,1,14,27,23,-7
1491087958734,3,-77,-21,-8,-8,1,-13,35,-15
1491087958769,0,16,42,-9,-12,-31,-63,-17,-18
1491087958769,0,54,112,1,8,8,-18,-5,28
1491087958770,1,90,67,8,-3,0,-26,12,29
1491087958770,1,-67,16,-2,6,8,-16,-2,-13
1491087958771,2,-8,-43,12,12,31,23,55,27
1491087958771,2,-46,-19,-4,4,-10,32,26,7
1491087958807,3,26,18,5,13,-11,36,-47,-8
1491087958807,3,77,90,-6,-35,-13,-48,-15,-3
1491087958808,0,-14,61,-15,3,-28,-28,-50,-20
1491087958808,0,35,65,-15,-3,37,-24,-1,6
1491087958808,1,47,80,-4,20,-11,20,-2,22
1491087958808,1,-52,58,11,-17,-18,93,53,19
1491087958809,2,58,-50,28,51,104,-17,-73,-21
1491087958809,2,-74,-58,-5,-3,-44,-19,-15,-26
1491087958844,3,-21,-87,-22,-44,-98,-65,23,-12
1491087958844,3,33,5,-9,-25,-31,-42,-24,-14
1491087958845,0,-124,52,-9,4,24,45,36,5
1491087958845,0,112,88,8,19,19,71,62,32
1491087958845,1,-61,55,7,4,50,-9,-58,-39
1491087958845,1,49,-92,4,13,31,14,3,8
1491087958846,2,-82,-109,-13,-28,-55,-59,-5,4
1491087958846,2,-49,-128,-9,2,33,-37,-21,-38
1491087958881,3,1,-44,0,0,-15,33,13,7
1491087958881,3,-2,35,9,13,-20,31,9,19
1491087958882,0,40,81,-1,-13,5,48,30,-1
1491087958882,0,-40,66,-1,1,-33,-17,-32,-15
1491087958883,1,-25,-15,-20,-30,4,-48,22,14
1491087958883,1,-13,-48,-1,40,11,43,-56,-23
1491087958884,2,23,-22,1,2,2,70,0,0
1491087958884,2,53,4,1,-11,6,-56,23,18
1491087958919,3,-48,20,14,16,-8,22,-40,-30
1491087958919,3,42,-3,-5,1,47,-4,47,14
1491087958920,0,-5,17,3,-17,-41,-15,-20,-5
1491087958920,0,-9,-72,3,-11,1,-8,3,11
1491087958921,1,-12,-128,-11,-9,0,-5,-15,0
1491087958921,1,1,-90,2,-5,-38,-2,-3,-4
1491087958957,2,1,-55,0,17,70,-15,6,-2
1491087958957,2,3,-22,12,9,-11,13,21,1
1491087958957,3,-14,38,1,-4,-37,-2,17,-12
1491087958957,3,25,51,-7,-14,-10,-26,-57,5
1491087958958,0,39,90,-8,-15,2,78,93,36
1491087958958,0,-23,77,17,26,7,-108,-102,-28
1491087958959,1,21,54,-3,0,3,-10,24,2
1491087958959,1,-100,15,0,-2,0,-8,-14,-10
1491087958994,2,47,-31,-10,2,0,26,16,0
1491087958994,2,-108,-117,-7,-9,-10,-9,-12,-3
1491087958996,3,127,-90,1,-11,-8,20,-4,-10
1491087958996,3,-38,-16,-1,10,18,-44,6,-1
1491087958997,0,-8,12,0,6,1,-22,-68,-7
1491087958997,0,-30,63,-6,-6,-41,26,18,-5
1491087958998,1,-30,53,1,5,48,28,24,9
1491087958998,1,48,3,-11,-36,-5,-14,-7,13
1491087959031,2,19,6,12,9,-16,-21,18,7
1491087959031,2,-10,3,2,11,2,38,-1,-3
1491087959032,3,-6,-5,-3,-4,0,22,30,24
1491087959032,3,36,-9,-3,6,25,-14,13,-5
1491087959033,0,-30,-27,-8,-15,-44,-63,-34,-9
1491087959033,0,13,11,3,-1,27,35,-1,-9
1491087959034,1,-11,-4,-7,-1,5,23,-19,8
1491087959034,1,-34,-15,-5,3,-10,13,1,3
1491087959069,2,-4,-15,3,-8,-13,-15,25,-2
1491087959069,2,23,-14,-10,-9,0,11,-15,-3
1491087959070,3,-12,15,0,10,4,-34,-19,-3
1491087959070,3,-1,22,21,28,12,14,7,-6
1491087959071,0,-16,-6,-4,-13,-8,3,-31,-11
1491087959071,0,35,4,-11,-7,-7,-26,-3,-2
1491087959106,1,2,-34,1,6,16,6,22,0
1491087959106,1,1,-11,-4,-10,-13,-4,-34,-9
1491087959107,2,-13,-14,-10,-10,-3,-22,18,-2
1491087959107,2,-28,11,5,-7,-5,29,-2,-13
1491087959108,3,37,-6,-5,8,-8,-30,-21,5
1491087959108,3,-9,6,8,13,-1,5,0,-1
1491087959109,0,-10,0,-2,4,2,0,19,6
1491087959109,0,43,8,0,0,-3,5,-8,-9
1491087959144,1,-53,-35,-2,-5,3,16,29,7
1491087959144,1,5,-17,-2,3,7,14,-14,-8
1491087959146,2,13,-9,-1,-6,-5,-20,-7,8
1491087959146,2,29,3,-12,-2,-1,-1,-4,11
1491087959146,3,-43,12,6,1,-2,5,-7,-27
1491087959146,3,-19,1,-10,-9,3,-4,11,-9
1491087959149,0,40,-3,7,21,-3,-24,-12,13
1491087959149,0,-44,5,-2,-9,3,23,4,-14
1491087959182,1,0,-12,-24,-31,-22,-11,15,8
1491087959182,1,-2,23,7,4,-1,-19,-24,-2
1491087959183,2,19,13,-1,-1,-4,4,5,8
1491087959183,2,-6,1,5,14,17,11,-33,2
1491087959183,3,69,11,3,-6,2,-26,23,6
1491087959183,3,-7,-12,-9,-15,-13,7,11,-9
1491087959184,0,-9,-7,-1,-2,0,26,56,11
1491087959184,0,25,-18,-8,-15,-12,-36,-40,-11
1491087959219,1,-21,-6,4,21,11,32,41,14
1491087959219,1,-10,-3,1,-3,-8,-52,-63,-10
1491087959220,2,-28,-4,-4,4,2,10,8,-9
1491087959220,2,1,12,5,8,0,18,36,19
1491087959221,3,-28,3,4,-16,-4,-15,6,-12
1491087959221,3,12,6,3,11,26,24,-20,-3
1491087959256,0,6,-7,-15,-21,-8,-14,3,-3
1491087959256,0,-14,6,-1,11,-7,-16,-8,-5
1491087959257,1,12,10,-2,-10,-22,-36,-47,-4
1491087959257,1,-7,-7,-1,6,-11,31,33,10
1491087959258,2,-33,-2,-1,-7,6,-3,8,0
1491087959258,2,17,-5,1,13,8,-3,-3,7
1491087959259,3,1,-12,-11,8,-7,3,-2,-1
1491087959259,3,-6,1,-6,-8,-6,-37,-10,-10
1491087959294,0,32,5,0,4,2,-13,-18,-7
1491087959294,0,-19,-22,-12,-19,-12,-6,11,-5
1491087959331,1,25,11,10,11,7,11,-33,-12
1491087959331,1,7,-11,-8,-6,-2,2,18,-2
1491087959369,2,-59,-4,6,2,10,42,8,9
1491087959369,2,44,-2,0,-4,-6,-10,26,5
1491087959370,3,-30,-5,-3,0,3,6,-20,-10
1491087959370,3,28,-5,-11,-13,-10,-31,-4,-9
1491087959371,0,-8,-10,-1,1,-12,-7,-1,1
1491087959371,0,-9,-9,3,8,11,41,30,16
1491087959372,1,-54,6,6,20,11,19,-23,-5
1491087959372,1,37,3,2,-9,7,5,17,7
1491087959406,2,-96,3,0,-17,-9,-30,1,-18
1491087959406,2,101,4,7,1,-11,2,-57,2
1491087959444,0,-23,-10,9,25,-5,-4,-38,-14
1491087959444,0,25,28,13,-2,40,30,31,18
1491087959445,3,-13,0,-1,-6,2,-78,-50,-17
1491087959445,3,-35,15,1,4,14,75,-30,-1
1491087959445,0,57,6,-1,-1,8,-54,41,16
1491087959445,0,9,24,18,15,-11,-12,-9,-8
1491087959446,1,-68,-7,-13,-37,-21,16,-16,-13
1491087959446,1,26,5,10,13,-3,-17,9,-6
1491087959482,2,19,6,3,25,24,58,-35,6
1491087959482,2,-24,-2,-8,-2,7,-45,-33,-23
1491087959482,3,51,1,-1,-2,-21,1,31,-3
1491087959482,3,-39,-12,-5,0,-9,-9,-33,-1
1491087959483,0,16,16,4,6,51,27,1,-7
1491087959483,0,-74,-29,-28,-36,-22,-78,28,3
1491087959484,3,-11,-17,-10,1,15,30,-3,7
1491087959484,3,-32,-1,3,29,16,38,36,-13
1491087959519,0,-27,1,8,-14,-17,-72,-36,-7
1491087959519,0,70,42,34,40,42,102,-75,-1
1491087959520,1,18,0,-8,-40,-10,-76,10,-11
1491087959520,1,-9,-43,-5,-13,-15,-40,-23,-3
1491087959520,3,41,-1,23,37,-19,20,20,19
1491087959520,3,64,63,21,45,20,67,24,34
1491087959521,0,37,18,-13,-50,63,-45,2,-19
1491087959521,0,-77,-23,-29,-48,-37,-74,28,16
1491087959556,1,83,-14,-21,-13,-49,66,-10,1
1491087959556,1,-64,-4,10,32,-26,-98,20,8
1491087959594,2,-2,7,0,0,22,102,5,-12
1491087959594,2,24,23,-24,18,70,68,-9,7
1491087959595,3,5,-8,4,-35,-62,-104,-54,-28
1491087959595,3,-85,-14,-22,-15,97,52,-8,-9
1491087959596,0,12,-3,6,4,-104,-45,42,36
1491087959596,0,-28,-22,16,25,30,-8,-65,-57
1491087959596,1,-15,1,9,39,85,89,4,34
1491087959596,1,-20,6,-6,-36,-65,-75,14,0
1491087959631,2,31,5,29,44,113,47,30,3
1491087959631,2,4,-15,-18,-20,14,0,23,-2
1491087959632,3,8,-19,-17,11,-53,-6,25,9
1491087959632,3,-36,4,-25,-78,-21,87,36,-6
1491087959633,0,17,26,37,55,14,-13,103,25
1491087959633,0,0,-25,-17,-1,-110,-55,-68,-48
1491087959634,2,17,2,4,-13,21,84,33,5
1491087959634,2,-54,4,40,98,48,124,-4,-17
1491087959669,3,34,66,22,35,122,105,-7,46
1491087959669,3,-85,-48,-45,-92,-88,-88,-71,-81
1491087959670,0,102,-15,-27,-73,38,85,-46,26
1491087959670,0,-23,-8,-18,11,46,62,91,19
1491087959670,2,-57,-8,-15,19,-85,-119,-128,-67
1491087959670,2,54,0,-21,-75,-98,-128,127,22
1491087959671,3,-62,-25,-15,-35,97,42,-10,-29
1491087959671,3,24,4,26,60,-43,-7,46,2
1491087959706,0,23,28,19,41,86,57,93,79
1491087959706,0,13,-10,23,53,-34,3,-19,-7
1491087959708,1,14,17,-54,-44,-79,-128,-113,-73
1491087959708,1,-42,-22,-19,-104,-30,-16,-7,-23
1491087959708,2,-16,-28,8,70,13,85,-68,-30
1491087959708,2,17,13,10,42,127,65,77,48
1491087959709,3,-101,-10,16,7,-99,81,59,-10
1491087959709,3,14,23,41,57,107,-58,-125,-16
1491087959744,0,39,40,-21,11,-128,-19,114,42
1491087959744,0,-63,-1,-10,-105,73,-93,-109,-56
1491087959745,1,-83,-17,-29,-31,-89,-50,-7,-62
1491087959745,1,21,83,13,17,-27,127,56,27
1491087959745,2,-24,9,18,40,75,-71,8,9
1491087959745,2,9,86,22,62,-102,72,-62,-1
1491087959746,3,56,61,-26,-98,12,-29,39,41
1491087959746,3,-14,-25,-16,-27,8,54,-102,-53
1491087959781,0,-20,-49,16,44,-21,-122,15,0
1491087959781,0,22,-7,7,-26,-39,-50,13,35
1491087959783,1,38,-1,3,38,114,41,-9,36
1491087959783,1,-10,36,-14,5,-116,127,60,3
1491087959784,2,-33,-29,-12,-91,-94,-100,-127,-13
1491087959784,2,1,-29,-4,9,18,106,31,3
1491087959785,3,20,-49,-7,22,58,-90,16,28
1491087959785,3,-46,7,4,33,24,-74,-48,-59
1491087959819,0,-14,27,-11,-83,-49,92,-19,-37
1491087959819,0,-12,-45,-4,-7,-18,-107,46,23
1491087959820,1,57,-38,5,5,48,72,-108,-19
1491087959820,1,-26,-80,-10,8,36,7,59,16
1491087959821,2,-7,12,-1,-47,-42,-22,5,2
1491087959821,2,8,-12,5,56,20,-32,95,18
1491087959822,3,5,-45,24,45,64,90,-39,-12
1491087959822,3,39,-22,-27,-24,-13,-4,-25,13
1491087959857,0,5,-23,-8,-59,-128,-54,-33,-20
1491087959857,0,-6,-3,-49,-31,-62,96,12,10
1491087959858,1,-56,-11,25,26,66,70,57,0
1491087959858,1,98,33,37,82,-88,62,87,52
1491087959858,2,-2,-37,7,16,127,-2,-11,-13
1491087959858,2,15,-62,25,-10,-128,16,-87,-32
1491087959859,3,-50,-118,-27,-88,-122,-128,22,-26
1491087959859,3,-2,-40,-27,-32,2,-44,-67,-1
1491087959894,0,18,68,-9,45,65,-8,67,44
1491087959894,0,20,93,21,46,127,12,-81,-18
1491087959895,1,-22,100,-8,-4,-128,100,83,15
1491087959895,1,13,-19,-2,-36,-83,-128,-45,-29
1491087959895,2,-17,-30,-30,3,-52,35,-5,-23
1491087959895,2,-20,1,23,15,103,104,37,26
1491087959896,3,31,11,-3,-10,-104,-74,-4,-3
1491087959896,3,5,1,8,30,-12,44,-1,-2
1491087959931,0,4,-46,-9,43,60,35,11,-19
1491087959931,0,-20,-57,-22,-100,-68,-91,-73,-7
1491087959932,1,23,5,2,59,-46,34,6,2
1491087959932,1,3,-17,16,-43,-74,-63,45,9
1491087959934,2,-15,12,-9,-39,64,127,-1,13
1491087959934,2,13,16,-12,52,-128,-81,-9,3
1491087959969,3,-6,35,-4,-27,116,-93,-36,-35
1491087959969,3,-27,13,18,56,12,20,19,6
1491087959970,0,1,64,20,58,46,59,45,-3
1491087959970,0,-25,-12,-4,-46,-47,-44,-53,-16
1491087959970,1,2,3,-6,4,11,58,107,34
1491087959970,1,26,17,8,-10,-18,-62,-71,-12
1491087959971,2,-8,-8,11,-8,-47,62,44,7
1491087959971,2,24,41,-3,62,124,50,12,-19
1491087960007,3,-7,-1,-11,-37,-104,-76,-9,-1
1491087960007,3,-19,-29,-58,-88,107,-14,-6,2
1491087960044,0,-33,-40,26,-12,6,-61,-19,0
1491087960044,0,26,-4,6,11,102,33,18,17
1491087960045,1,13,53,14,9,-53,2,17,-2
1491087960045,1,-11,-58,2,12,112,60,5,8
1491087960046,2,23,-26,2,28,-128,-2,-23,-2
1491087960046,2,-6,-34,-26,-32,76,-5,64,22
1491087960046,3,-19,51,-8,7,1,-10,-65,-26
1491087960046,3,27,23,-10,-14,-52,-8,24,16
1491087960081,0,-1,39,14,16,-18,-64,-51,-18
1491087960081,0,-8,30,-39,-15,-33,-28,-1,-9
1491087960082,1,9,8,18,-15,-61,51,5,13
1491087960082,1,-24,61,36,66,127,-1,2,-2
1491087960083,2,0,27,-12,-22,2,37,15,-9
1491087960083,2,3,0,3,-42,-128,13,43,4
1491087960085,3,-9,-27,-41,-63,-54,-95,-116,-21
1491087960085,3,-6,-38,-21,33,23,37,43,-1
1491087960119,0,6,-64,14,34,12,-29,-20,9
1491087960119,0,-8,19,8,13,20,-9,-5,-15
1491087960120,1,3,-62,24,-8,79,59,33,10
1491087960120,1,15,-76,-3,-39,-29,-55,-20,23
1491087960121,2,3,-48,-23,-19,27,42,0,-2
1491087960121,2,-33,-89,3,-26,18,-88,-44,-9
1491087960121,3,18,-42,-3,73,61,75,72,26
1491087960121,3,2,39,21,54,39,69,12,-14
1491087960156,0,-3,1,-42,-68,-88,-34,-4,-23
1491087960156,0,-1,30,21,1,28,57,19,-2
1491087960157,1,8,41,-8,-12,-17,-47,-28,-7
1491087960157,1,-10,114,18,38,-9,-11,-3,6
1491087960158,2,2,56,-14,-16,77,22,29,-2
1491087960158,2,-19,125,43,35,15,-5,0,-2
1491087960159,3,9,34,-20,-5,120,46,13,11
1491087960159,3,-10,88,0,-8,-43,-64,-53,-25
1491087960194,0,-13,-25,4,-2,-111,-43,-6,-15
1491087960194,0,13,-67,-25,31,76,42,11,14
1491087960195,1,3,-128,-4,-42,-27,-84,-44,-6
1491087960195,1,9,-128,15,20,-21,62,29,6
1491087960196,2,-21,-104,-14,-60,-51,-25,-20,-10
1491087960196,2,-1,-90,0,-60,-126,-4,6,-8
1491087960196,3,6,-60,33,118,106,83,44,16
1491087960196,3,9,-15,-18,-15,60,9,12,5
1491087960231,0,15,107,2,-9,-20,-72,-48,-3
1491087960231,0,9,2,-27,-16,-53,26,25,5
1491087960232,1,-20,-8,17,3,-6,-5,-28,-31
1491087960232,1,-27,-79,-19,-30,55,-21,-13,2
1491087960233,2,2,-92,1,5,-12,8,2,4
1491087960233,2,-1,-60,11,17,0,-10,-16,-6
1491087960234,3,6,-12,4,18,-46,13,0,0
1491087960234,3,-11,-76,20,6,-70,8,6,-5
1491087960269,0,22,-30,-1,24,69,12,9,0
1491087960269,0,5,-62,-6,-21,4,40,18,4
1491087960270,1,9,24,-12,17,-24,-21,-16,5
1491087960270,1,-30,19,2,-10,-39,7,-3,-10
1491087960271,2,1,-34,28,59,77,4,11,7
1491087960271,2,-13,-26,-6,-51,-16,-34,-19,-11
1491087960271,3,-3,-5,-21,-15,3,-32,-18,-4
1491087960271,3,-35,54,-21,-16,-65,-5,-14,-4
1491087960306,0,-23,89,-36,-9,-22,12,14,-6
1491087960306,0,10,109,18,-12,34,8,-8,0
1491087960307,1,3,93,-10,-25,-20,18,8,2
1491087960307,1,13,54,-5,-6,-20,16,16,5
1491087960308,2,-28,17,27,37,51,-2,-1,-10
1491087960308,2,1,-31,-35,-32,30,-3,-14,-3
1491087960309,3,-23,-66,-12,-28,-39,5,-8,-5
1491087960309,3,52,-91,4,-10,-5,11,4,3
1491087960344,0,-23,-98,-3,-23,-2,-6,-2,-7
1491087960344,0,5,-111,-34,-26,-19,-1,6,-4
1491087960345,1,21,23,-6,34,17,-1,-1,7
1491087960345,1,-19,88,0,1,18,-20,-4,-7
1491087960346,2,24,102,17,-26,-26,-13,-9,7
1491087960346,2,-9,106,-13,-23,-36,-1,-2,4
1491087960347,3,-2,-48,-1,15,22,12,19,2
1491087960347,3,-23,-25,19,13,30,6,0,-10
1491087960381,0,32,-54,-32,-26,34,-5,-5,-11
1491087960381,0,-60,5,52,38,-74,-24,-19,-11
1491087960383,1,15,63,0,-6,-21,-26,-14,-5
1491087960383,1,15,80,5,-10,-6,-7,-2,14
1491087960383,2,-23,97,19,14,-15,-8,-3,0
1491087960383,2,17,95,-2,23,19,9,6,1
1491087960384,3,1,43,-10,-28,3,3,6,-2
1491087960384,3,-4,37,-8,4,10,0,-1,3
1491087960419,0,20,95,-3,8,-45,-3,-10,3
1491087960419,0,7,98,1,-17,7,2,-11,-9
1491087960420,1,4,127,-6,-10,-7,-10,3,-3
1491087960420,1,10,22,-5,20,8,-3,-5,8
1491087960420,2,-5,-59,9,-1,10,19,9,0
1491087960420,2,-6,-41,8,35,0,-19,-3,1
1491087960421,3,-1,-118,-16,-12,3,-3,11,-10
1491087960421,3,18,-90,13,27,-2,10,20,16
1491087960456,0,-15,-78,-6,-19,-9,-33,-25,-10
1491087960456,0,-2,-52,1,10,-2,1,6,-6
1491087960457,1,9,3,18,16,2,-13,-5,7
1491087960457,1,-35,-52,-29,-18,5,3,-11,-13
1491087960458,2,35,-103,12,27,-18,14,7,11
1491087960458,2,-2,-26,-8,-3,4,-1,6,7
1491087960459,3,-17,-111,8,4,13,0,-3,-13
1491087960459,3,9,-105,-4,-11,8,-1,4,0
1491087960494,0,3,-77,-6,-5,-22,18,0,-5
1491087960494,0,7,60,-3,17,5,-17,-13,4
1491087960495,1,-10,101,3,-10,6,9,17,5
1491087960495,1,1,92,-8,-30,15,22,-23,-7
1491087960496,2,4,-47,17,18,-4,-13,5,-5
1491087960496,2,12,-54,-2,8,1,6,8,1
1491087960496,3,-13,-9,-3,-8,0,-12,-11,-8
1491087960496,3,55,68,10,12,9,7,10,17
1491087960531,0,-14,67,-18,-10,9,-11,-2,-4
1491087960531,0,20,92,-5,-7,-11,-4,-4,0
1491087960570,1,82,115,-8,-6,-1,-7,0,-3
1491087960570,1,-13,104,1,1,7,7,-11,-2
1491087960571,2,15,127,-17,-6,-22,18,49,7
1491087960571,2,-12,36,13,-6,-17,-55,-8,7
1491087960572,3,-73,-5,-9,10,19,37,-12,-21
1491087960572,3,-3,-18,3,-2,-1,-26,-13,-4
1491087960572,0,-30,3,5,-16,13,30,22,9
1491087960572,0,-55,-104,-11,1,-1,-2,-21,-15
1491087960606,1,2,-1,10,2,-7,-10,-24,1
1491087960606,1,-23,-43,-1,5,-2,-16,13,11
1491087960607,2,0,-11,0,7,4,6,-14,10
1491087960607,2,10,-121,-9,-14,27,48,6,-2
1491087960608,3,-26,-71,-3,-20,-37,-68,-5,0
1491087960608,3,-12,9,3,38,-13,24,27,-4
1491087960609,0,6,25,-8,-28,9,-17,-12,-19
1491087960609,0,-26,110,-9,-11,-4,-23,-25,-31
1491087960644,1,32,58,12,-5,2,30,32,9
1491087960644,1,-3,118,-8,-1,0,-11,-3,6
1491087960645,2,-9,63,7,21,-20,-44,-64,-13
1491087960645,2,36,-27,1,5,29,55,48,27
1491087960645,3,-19,39,8,-10,22,4,14,1
1491087960645,3,-14,-41,13,5,-16,5,-19,-15
1491087960646,0,25,-21,-12,-6,-12,-20,22,6
1491087960646,0,4,-70,-4,-15,-22,-14,-11,-5
1491087960682,1,-7,-88,-8,7,-13,-16,1,-6
1491087960682,1,-10,-77,9,25,59,-22,-41,2
1491087960682,2,-10,35,-2,-5,-22,32,18,-11
1491087960682,2,-4,99,-5,-12,-19,-17,-45,8
1491087960683,3,-5,29,-14,-20,-39,-14,-8,3
1491087960683,3,9,25,3,1,-2,30,36,17
1491087960719,0,-18,-40,-6,16,45,-11,3,1
1491087960719,0,1,15,3,23,11,56,41,5
1491087960722,1,0,-88,16,7,20,-5,-35,-3
1491087960722,1,-18,-107,-11,-29,-76,-54,-35,-47
1491087960723,2,0,-14,-10,-21,-1,-47,-35,7
1491087960723,2,10,76,-7,-9,-14,-39,42,2
1491087960724,3,-17,52,21,32,35,20,-38,-6
1491087960724,3,18,-52,-1,-5,5,42,79,24
1491087960757,0,-28,-56,1,16,5,52,-10,2
1491087960757,0,22,-32,2,-3,11,-6,7,-10
1491087960758,1,64,-5,-9,-14,-27,-12,-36,4
1491087960758,1,-29,-93,-5,5,-29,52,44,1
1491087960758,2,48,-62,-6,-20,65,-5,11,4
1491087960758,2,-13,-128,12,32,11,91,72,7
1491087960760,3,-39,-111,-8,-13,-32,-31,-31,-12
1491087960760,3,28,32,3,7,8,-51,-24,7
1491087960794,0,-117,107,-12,-14,-10,-10,-60,-26
1491087960794,0,44,109,2,-1,-5,12,20,4
1491087960795,1,17,127,0,-1,6,9,38,16
1491087960795,1,-18,74,-6,0,10,-2,-25,-11
1491087960796,2,16,68,7,22,-11,10,-1,35
1491087960796,2,-18,-22,3,-11,-19,45,-8,-29
1491087960797,3,-94,-128,-11,3,1,-67,10,-9
1491087960797,3,81,-40,-7,-30,-18,40,24,11
1491087960831,0,-47,90,-9,-8,-10,-47,-61,-32
1491087960831,0,-36,-25,-5,-8,-66,-3,-28,-9
1491087960832,1,-80,-51,-10,7,78,43,20,7
1491087960832,1,67,46,19,16,-9,-32,-20,10
1491087960833,2,-24,-99,-8,-29,-42,-13,43,-25
1491087960833,2,46,-17,13,16,1,9,19,30
1491087960835,3,20,55,0,4,20,46,7,-11
1491087960835,3,-120,102,-11,10,12,-15,-15,-15
1491087960870,0,34,-1,-6,-4,-18,6,4,4
1491087960870,0,66,37,9,17,17,-62,-1,15
1491087960871,1,-57,-31,-3,-8,-19,57,-20,-31
1491087960871,1,-36,-17,-2,-17,11,-89,17,15
1491087960872,2,34,-12,9,13,18,75,-21,-23
1491087960872,2,-21,-128,-4,-11,-9,-104,-120,-33
1491087960906,3,27,-103,-6,12,-7,65,74,10
1491087960906,3,29,16,-1,-15,-11,14,51,3
1491087960908,0,46,-6,-2,-12,13,-11,-21,2
1491087960908,0,-64,70,-7,-3,25,4,32,24
1491087960908,1,106,111,-2,0,-11,-8,-7,1
1491087960908,1,35,25,-6,-6,-76,28,-44,-11
1491087960909,2,-2,18,-1,6,-5,-66,58,31
1491087960909,2,12,-64,-2,-1,-4,-3,-91,-25
1491087960944,3,-53,-28,9,23,57,23,24,8
1491087960944,3,-26,-37,-5,5,17,19,-11,-3
1491087960945,0,63,11,-3,2,-22,15,49,5
1491087960945,0,-56,47,-4,-22,9,-15,-37,-12
1491087960946,1,-17,78,12,7,-25,70,18,18
1491087960946,1,-8,27,-5,-18,6,-87,-71,-29
1491087960946,2,-49,55,6,-2,5,22,-33,-11
1491087960946,2,27,46,-17,-3,2,-32,3,-8
1491087960981,3,34,31,15,-7,-17,-4,-15,8
1491087960981,3,-51,14,-6,0,12,22,7,-11
1491087960982,0,-14,-29,-7,10,0,0,40,23
1491087960982,0,-11,-17,-10,-8,26,78,32,0
1491087960983,1,50,-37,-3,-15,-21,-100,-32,0
1491087960983,1,50,-28,-2,-5,13,47,15,-12
1491087960984,2,-45,-41,-1,-9,2,-24,46,11
1491087960984,2,31,18,7,15,-11,-16,-51,1
1491087961019,3,22,30,-6,-6,-2,-15,-6,11
1491087961019,3,11,-1,0,-8,-2,28,-23,-19
1491087961020,0,10,-7,6,6,-21,-50,17,1
1491087961020,0,-19,34,-1,-8,16,6,23,-3
1491087961021,1,17,13,4,4,-11,-39,-25,4
1491087961021,1,35,-29,-14,13,19,48,38,26
1491087961022,2,-58,-53,-8,-2,11,29,-34,-25
1491087961022,2,-30,-17,-7,-29,-21,40,28,-17
1491087961056,3,58,-13,16,20,-6,-55,-9,16
1491087961056,3,12,-30,9,5,-9,-24,-8,10
1491087961058,0,-3,8,0,16,15,51,10,7
1491087961058,0,-2,18,2,10,1,-20,-18,14
1491087961058,1,28,21,-10,-34,-24,14,56,-12
1491087961058,1,-14,-6,-9,0,-9,-59,1,4
1491087961059,2,83,-17,-5,-4,-7,52,8,20
1491087961059,2,-64,-22,2,4,-9,-62,-21,-23
1491087961094,3,9,-26,2,-3,1,9,-18,-11
1491087961094,3,-9,3,10,24,11,9,0,2
1491087961095,0,-36,13,-5,-18,35,32,27,2
1491087961095,0,-6,14,-10,-8,-26,28,57,16
1491087961096,1,-75,6,-16,-24,-24,-24,-52,-22
1491087961096,1,-25,16,-1,-3,6,-13,-9,-4
1491087961096,2,21,16,-3,-3,-3,6,-47,-33
1491087961096,2,19,9,-3,13,12,-22,-13,14
1491087961131,3,10,-2,0,15,11,19,0,-21
1491087961131,3,28,7,-1,-27,-9,16,12,-2
1491087961135,0,-102,-7,-4,-1,-36,-106,-102,-31
1491087961135,0,50,9,19,0,-48,37,112,52
1491087961135,1,-19,20,-4,13,58,44,-69,-18
1491087961135,1,-33,29,-8,-5,33,39,103,30
1491087961136,2,10,14,11,8,14,-9,-61,-20
1491087961136,2,-65,-52,-18,-21,-12,-77,-75,-48
1491087961169,3,-12,-22,5,16,-51,17,43,18
1491087961169,3,37,7,-5,-18,-10,47,48,-4
1491087961170,0,-45,-18,-4,1,-5,0,19,8
1491087961170,0,41,21,-3,18,32,52,17,31
1491087961171,1,-28,16,9,-7,-5,-17,7,-35
1491087961171,1,50,-31,-20,-21,-58,-81,-111,-6
1491087961172,2,15,13,6,1,26,-1,54,27
1491087961172,2,-34,3,6,11,66,14,3,-13
1491087961206,3,-55,14,-6,-16,7,43,11,20
1491087961206,3,42,11,11,6,-8,18,43,-20
1491087961207,0,-17,-8,3,16,-27,-3,-56,-37
1491087961207,0,38,-11,-15,-8,-1,0,18,22
1491087961208,1,10,-6,-10,-16,-24,-76,7,5
1491087961208,1,-82,14,5,-7,-22,17,20,23
1491087961209,2,64,20,9,31,51,106,102,20
1491087961209,2,36,-22,-11,1,0,-50,-56,-30
1491087961244,3,-42,6,-12,-16,-6,-64,-18,-10
1491087961244,3,35,30,6,-16,-14,29,-19,15
1491087961245,0,56,15,3,-4,-98,-16,15,9
1491087961245,0,-21,4,17,6,87,35,-26,-3
1491087961246,1,13,-27,-20,11,-42,-7,62,6
1491087961246,1,26,-8,13,-3,-17,-5,-74,-27
1491087961281,2,-20,-43,-14,-38,20,-35,23,3
1491087961281,2,-29,-22,11,21,-54,43,4,-8
1491087961283,3,27,-14,-9,-12,101,86,9,27
1491087961283,3,-31,-19,-6,81,60,31,-86,-41
1491087961283,0,-57,3,9,-63,-108,-44,64,14
1491087961283,0,74,24,-5,-45,-17,8,-35,-19
1491087961284,1,-58,10,6,-9,-23,-64,21,-9
1491087961284,1,-71,-10,-2,18,46,3,-23,-26
1491087961319,2,104,1,-22,5,20,-1,6,27
1491087961319,2,2,13,10,-16,-25,-10,21,-15
1491087961320,3,54,-10,7,-7,-32,25,-61,-6
1491087961320,3,-51,-7,-2,-39,-35,-70,97,50
1491087961321,0,83,12,10,39,105,24,-36,-7
1491087961321,0,-31,19,-7,27,-29,-6,-33,14
1491087961322,1,2,-11,-17,1,-67,21,-36,-24
1491087961322,1,-72,4,-4,-8,44,-61,7,-9
1491087961356,2,37,-5,-11,9,35,43,-24,-9
1491087961356,2,-6,-47,-11,-30,-113,-97,-51,0
1491087961358,3,-5,-7,2,-2,25,-4,-68,-16
1491087961358,3,13,-12,1,13,-113,75,62,12
1491087961358,0,-2,23,-2,-20,59,42,12,10
1491087961358,0,31,14,36,76,78,70,6,-3
1491087961359,1,-42,-10,7,-3,84,-70,21,18
1491087961359,1,-20,-13,-16,-7,-46,-36,-32,-32
1491087961394,2,-59,-17,-23,-45,-103,-30,-18,10
1491087961394,2,83,5,-14,-38,-65,-15,3,-4
1491087961395,3,42,17,19,44,78,16,27,18
1491087961395,3,17,6,31,49,74,70,6,3
1491087961396,0,-9,-5,-6,-32,-67,-75,-59,-28
1491087961396,0,-72,-7,16,41,56,4,46,14
1491087961431,1,7,1,-10,-5,42,86,6,-3
1491087961431,1,63,9,-6,-45,-58,-55,-68,10
1491087961433,2,-43,-6,-17,36,66,64,20,-11
1491087961433,2,-24,-1,-10,-38,-3,-93,65,-6
1491087961433,3,16,1,-10,-8,-49,42,-16,14
1491087961433,3,-48,-7,12,11,-50,-44,-55,-9
1491087961434,0,1,11,2,-3,63,-12,36,9
1491087961434,0,14,-20,35,26,11,11,7,-13
1491087961469,1,-13,-4,-6,2,61,67,1,-18
1491087961469,1,-58,-5,1,-17,-73,-4,8,5
1491087961470,2,4,-6,1,-6,-96,43,19,-1
1491087961470,2,5,32,-27,-52,127,88,20,16
1491087961471,3,12,7,-7,60,-128,-85,-2,-10
1491087961471,3,-43,-30,-44,-93,-52,-65,11,6
1491087961472,0,13,-13,-3,-2,-49,7,-61,-47
1491087961472,0,33,15,45,110,51,89,48,25
1491087961506,1,48,14,51,70,51,102,53,49
1491087961506,1,-52,27,-7,7,-28,-45,8,-43
1491087961508,2,35,-28,-34,-79,-36,-2,-28,-6
1491087961508,2,-44,-23,-44,-1,-128,12,-39,7
1491087961508,3,57,-5,6,2,28,94,-1,-2
1491087961508,3,109,19,-4,80,127,-7,83,14
1491087961509,0,-5,25,28,-13,-93,-21,72,16
1491087961509,0,-91,-57,1,-71,78,-18,-78,-60
1491087961544,1,-60,8,-3,25,-114,-8,54,-11
1491087961544,1,64,-8,12,-40,-25,-75,-68,-10
1491087961545,2,-46,23,-5,78,127,103,48,24
1491087961545,2,17,41,-14,-61,-128,16,36,7
1491087961546,3,-55,-3,-8,-25,-38,37,-26,-20
1491087961546,3,28,12,-31,-49,123,22,-20,-5
1491087961581,0,-19,-44,48,124,-6,-93,-84,-2
1491087961581,0,-37,-21,-26,-82,-96,-59,-37,-55
1491087961583,1,-62,-34,-39,-76,62,-81,-23,6
1491087961583,1,39,46,9,68,71,127,78,42
1491087961584,2,-9,51,5,-52,42,83,-5,-36
1491087961584,2,6,58,51,127,-10,28,82,63
1491087961585,3,46,64,1,-60,11,-128,-60,-26
1491087961585,3,-35,3,-44,-56,-93,-9,31,15
1491087961619,0,19,46,-59,-68,-75,-23,36,-14
1491087961619,0,8,24,-19,-34,-32,37,-54,-11
1491087961620,1,-47,43,44,94,65,98,124,47
1491087961620,1,39,37,67,104,19,98,-57,-23
1491087961621,2,-19,19,35,42,100,-99,-36,-2
1491087961621,2,51,6,-46,-86,-112,-95,86,23
1491087961622,3,-61,-30,-68,-98,-82,-92,-71,-40
1491087961622,3,-17,22,25,69,38,67,4,32
1491087961657,0,18,-9,8,16,14,127,-68,-26
1491087961657,0,8,-21,13,-19,-19,-54,23,34
1491087961657,1,-3,-83,6,77,127,18,-61,-24
1491087961657,1,-98,-128,-19,-128,-128,-116,-67,-102
1491087961658,2,27,-128,-44,-44,42,-38,-65,2
1491087961658,2,-26,-101,-3,88,127,73,-41,-5
1491087961695,3,61,-11,6,49,9,71,70,37
1491087961695,3,20,-14,16,13,-25,11,22,23
1491087961695,0,-41,-19,48,61,116,53,115,61
1491087961695,0,48,-5,2,-10,68,-125,-111,-56
1491087961696,1,4,-5,-6,-36,-85,98,23,5
1491087961696,1,-23,-25,-23,-75,-28,-47,-75,-40
1491087961697,2,-16,-84,-6,7,-12,11,51,28
1491087961697,2,-15,-108,20,98,70,127,15,3
1491087961731,3,-8,-118,-32,-86,-72,-116,-57,-29
1491087961731,3,11,-20,28,74,79,85,25,28
1491087961732,0,-23,57,25,81,-76,54,56,42
1491087961732,0,-14,99,19,-23,-4,-45,15,-46
1491087961733,1,-1,-13,-37,-76,-74,-72,-54,-10
1491087961733,1,-44,-86,-51,-40,-69,-127,-58,-22
1491087961734,2,10,81,-10,4,36,-11,-25,-14
1491087961734,2,5,106,43,104,115,127,70,35
1491087961769,3,11,127,30,33,-32,-4,78,14
1491087961769,3,10,104,-38,-83,-100,-45,-85,-9
1491087961770,0,-9,-5,-20,-29,79,-17,-11,-13
1491087961770,0,-25,-4,0,10,-128,-9,-29,2
1491087961770,1,28,-60,-8,-105,-96,-93,-8,-1
1491087961770,1,-5,-60,-45,69,127,81,33,19
1491087961771,2,2,-37,20,40,-107,-29,-4,3
1491087961771,2,4,-27,43,28,24,76,-4,19
1491087961806,3,-2,-38,25,24,-37,-48,30,-18
1491087961806,3,23,-46,-18,-80,37,-31,-30,-32
1491087961807,0,-5,-33,-48,-43,-99,-55,15,-17
1491087961807,0,-28,24,-26,1,47,24,53,4
1491087961808,1,29,49,65,69,45,100,37,23
1491087961808,1,22,54,49,127,127,127,79,35
1491087961844,2,3,-10,-13,-101,-128,-87,-85,-14
1491087961844,2,-13,-76,-80,-128,-32,-103,-24,-27
1491087961845,3,-9,46,-25,93,127,47,-46,10
1491087961845,3,-7,6,37,-32,-103,32,21,8
1491087961845,0,12,13,26,84,122,81,34,2
1491087961845,0,2,69,-35,-55,-128,-91,-22,10
1491087961846,1,-20,-67,5,-40,-64,-24,-7,-3
1491087961846,1,5,27,-7,36,-12,-59,-7,-25
1491087961881,2,6,23,55,59,32,65,30,1
1491087961881,2,3,-43,28,12,64,39,14,6
1491087961919,3,-17,-7,-41,-70,-62,-46,-21,-11
1491087961919,3,14,24,-11,-11,74,5,-3,24
1491087961920,0,-15,54,19,18,-81,38,38,3
1491087961920,0,9,-27,-54,-44,127,-65,-42,-24
1491087961921,1,-10,-10,-1,-18,-64,-14,-6,-3
1491087961921,1,11,-31,41,79,21,84,7,10
1491087961921,2,-7,86,-29,-90,83,-98,-21,-6
1491087961921,2,-11,50,-15,1,-72,26,-28,-14
1491087961957,3,6,-60,-10,-32,-108,-21,-8,0
1491087961957,3,8,-58,8,68,110,24,40,17
1491087961958,0,3,62,36,57,-42,118,7,-13
1491087961958,0,12,-89,3,-81,-33,-81,-5,10
1491087961960,2,-5,-128,-31,-80,-109,-30,-20,-10
1491087961960,2,-1,-14,6,13,-18,1,38,16
1491087961961,3,11,9,3,17,70,50,5,5
1491087961961,3,-6,56,23,49,88,-5,33,2
1491087961994,0,-3,2,-14,-20,-87,-50,-23,-7
1491087961994,0,-14,116,-3,7,-103,-46,-17,7
1491087961995,1,-2,35,-9,-23,73,43,14,-3
1491087961995,1,-5,-34,9,-10,-67,24,18,3
1491087961995,2,0,-128,-1,4,9,-19,-2,-6
1491087961995,2,-9,-128,-9,-3,30,19,-4,-10
1491087961997,3,1,-92,15,25,-32,-1,7,-3
1491087961997,3,-1,-92,-41,-101,-55,-34,9,-4
1491087962031,0,-8,-100,-8,31,-38,-57,-40,-9
1491087962031,0,6,-11,36,73,45,89,37,9
1491087962032,1,5,73,38,42,111,38,21,7
1491087962032,1,-5,47,-10,-59,-128,-61,-19,1
1491087962033,2,-13,26,-38,-49,20,-54,-31,-14
1491087962033,2,1,98,-2,-1,3,40,12,-6
1491087962034,3,3,77,36,81,53,-6,-3,5
1491087962034,3,2,1,-3,-32,-9,7,5,5
1491087962069,0,1,-98,-12,11,23,3,3,3
1491087962069,0,8,-119,2,-6,7,-10,-9,-6
1491087962070,1,-7,-128,7,8,-30,24,12,1
1491087962070,1,-11,-31,2,10,-11,-4,-3,-14
1491087962070,2,-5,65,-12,-24,16,-18,-9,7
1491087962070,2,-5,-30,-20,-36,-43,-2,-3,-4
1491087962071,3,26,-19,15,32,41,12,10,9
1491087962071,3,6,85,-9,-53,-99,-3,-8,2
1491087962106,0,3,104,15,13,97,10,2,2
1491087962106,0,9,127,-6,26,12,12,6,8
1491087962107,1,-25,126,-18,-33,-62,-6,-6,-8
1491087962107,1,-17,97,-17,-7,-14,-8,-13,-2
1491087962108,2,-7,21,-7,-10,16,17,2,-5
1491087962108,2,36,-36,-22,12,1,11,-3,8
1491087962109,3,-61,-11,2,-57,-20,2,-1,-16
1491087962109,3,22,20,-24,19,48,-20,0,-4
1491087962144,0,-9,-15,-10,9,2,-1,-7,5
1491087962144,0,-46,-50,-4,-12,-33,-19,-11,-9
1491087962145,1,47,-67,-25,-29,-51,-21,-10,1
1491087962145,1,-30,-56,-3,32,78,10,2,0
1491087962145,2,40,-39,-10,-7,-58,19,0,6
1491087962145,2,-15,-58,5,-5,-18,-13,-6,-18
1491087962146,3,-21,-47,-2,12,-55,27,16,1
1491087962146,3,17,-38,0,-9,58,-2,1,7
1491087962181,0,-58,-61,-5,26,40,-3,-17,-16
1491087962181,0,80,-50,33,21,-8,0,-14,4
1491087962182,1,14,-38,-22,-14,30,41,12,15
1491087962182,1,11,-65,37,56,-21,35,9,-1
1491087962183,2,-13,-14,-3,3,-5,-5,4,-2
1491087962183,2,7,-21,-18,-91,-57,-40,-14,-4
1491087962184,3,13,-39,12,18,18,-35,-4,6
1491087962184,3,11,-61,3,-5,16,-6,4,8
1491087962219,0,-56,-47,-1,5,-12,26,19,-9
1491087962219,0,-10,-28,13,-5,-7,7,3,-6
1491087962220,1,2,-16,-33,-52,-4,-35,-13,-1
1491087962220,1,-11,-40,18,-15,-55,-15,4,-8
1491087962220,2,-12,-9,12,6,-16,-33,6,1
1491087962220,2,-8,-40,1,8,34,7,-10,-4
1491087962221,3,49,-37,5,20,-12,-1,-4,2
1491087962221,3,-28,-62,-19,-28,-17,-6,-1,-11
1491087962332,0,54,-62,13,-9,5,-7,16,4
1491087962332,0,-40,-39,-9,18,-10,6,-1,-6
1491087962333,1,1,-33,3,4,6,-8,2,-4
1491087962333,1,9,-49,-6,-7,-10,-20,7,8
1491087962335,2,-7,-71,10,-10,-5,-9,-12,-12
1491087962335,2,-3,-54,-7,-4,10,-12,-5,4
1491087962335,3,-33,-33,0,13,-18,-10,-10,-16
1491087962335,3,6,-24,-1,8,-27,-18,2,1
1491087962370,0,25,-50,-23,-25,-6,-10,-4,-3
1491087962370,0,-6,-59,17,11,1,1,-2,-2
1491087962370,1,12,-43,17,7,7,-4,-1,1
1491087962370,1,-12,-20,0,-17,-30,4,5,3
1491087962371,2,12,-44,-10,-4,25,-11,-10,7
1491087962371,2,-4,-100,-5,26,28,1,-8,-8
1491087962372,3,2,-15,-15,-18,-6,-12,-20,-19
1491087962372,3,8,0,15,23,13,15,3,-3
1491087962406,0,-2,-38,-25,-35,23,14,-4,5
1491087962406,0,-24,-58,10,22,-20,-14,1,9
1491087962407,1,11,23,-1,5,10,16,2,11
1491087962407,1,-8,-41,-1,12,19,-10,-9,-1
1491087962409,3,-11,-108,2,1,3,-7,-6,-4
1491087962409,3,8,-82,2,-15,1,2,-4,-2
1491087962410,0,13,-65,21,18,13,43,17,9
1491087962410,0,-15,-17,-3,7,3,1,8,5
1491087962482,1,-16,-115,-10,-1,-41,-14,-24,-13
1491087962482,1,-2,-94,-14,7,26,-4,-21,-3
1491087962482,2,-8,111,27,-6,-10,15,9,-5
1491087962482,2,-36,92,-5,1,17,0,-3,-10
1491087962483,3,1,56,18,17,23,10,5,8
1491087962483,3,0,-24,11,-4,-43,7,-1,5
1491087962484,0,21,27,-15,-8,32,-25,0,10
1491087962484,0,-7,-27,-3,-14,-23,7,-45,-22
1491087962520,1,1,-59,-14,-23,-23,-19,-14,-10
1491087962520,1,-1,41,13,4,34,30,15,-4
1491087962520,2,-4,54,7,19,21,12,21,18
1491087962520,2,-15,22,-10,-9,-41,3,2,11
1491087962521,3,-17,39,-25,-16,-4,-10,-21,-2
1491087962521,3,-9,63,5,-19,-3,-31,-17,-14
1491087962522,2,5,91,5,25,-14,-15,-16,30
1491087962522,2,-12,83,-6,-16,16,52,16,-23
1491087962556,3,-5,2,27,21,22,-13,-22,-24
1491087962556,3,-12,-28,-8,-4,17,-25,11,-11
1491087962557,0,4,-87,-11,-17,-33,-47,-27,-12
1491087962557,0,-2,-74,-10,-5,-5,18,-16,-9
1491087962558,2,-14,40,1,11,-96,-39,-17,-14
1491087962558,2,12,37,-10,-40,51,-29,3,8
1491087962559,3,-28,-55,6,27,25,51,34,-5
1491087962559,3,0,-60,6,-16,-14,-56,-37,-4
1491087962594,0,53,-1,14,28,92,81,32,27
1491087962594,0,14,-45,16,1,-83,-30,8,3
1491087962595,1,-11,-38,-17,-22,-29,-25,-11,7
1491087962595,1,-1,-18,-3,27,45,10,-10,-7
1491087962595,2,6,14,-3,-8,-51,-18,6,-3
1491087962595,2,25,-22,5,-14,47,61,9,24
1491087962596,3,10,-78,-5,-14,-25,47,35,11
1491087962596,3,-27,-126,2,17,-63,-83,-9,6
1491087962631,0,-10,-112,-3,8,114,43,19,-11
1491087962631,0,-31,-70,-3,-2,-23,-70,-23,-2
1491087962632,1,16,31,0,-18,1,-15,-3,6
1491087962632,1,26,49,-12,12,2,96,47,3
1491087962633,2,-44,58,0,-3,-52,-89,-66,-25
1491087962633,2,-10,93,-3,8,34,-25,22,-5
1491087962634,3,-10,76,0,3,-36,4,-23,-3
1491087962634,3,28,73,-13,-28,-1,-22,-4,-21
1491087962669,0,-23,-2,4,12,78,35,-1,-16
1491087962669,0,-11,-30,-14,-23,-87,35,25,10
1491087962670,1,25,-1,10,-4,-17,-70,-48,-7
1491087962670,1,9,41,7,6,33,47,10,10
1491087962671,2,-27,83,-2,7,17,50,33,-16
1491087962671,2,32,25,-9,2,7,-23,2,-2
1491087962671,3,-7,-27,-10,-8,4,-17,3,12
1491087962671,3,-8,-44,-6,-17,-49,-2,-31,2
1491087962706,0,19,55,10,6,22,-76,-30,3
1491087962706,0,-64,-8,-10,2,6,42,26,-20
1491087962707,1,65,16,-1,0,6,6,-10,-1
1491087962707,1,15,-112,-2,3,-2,-20,-13,-16
1491087962707,2,-16,-72,-5,6,-4,88,50,21
1491087962707,2,-9,-119,3,17,21,-53,-22,-5
1491087962709,3,-21,-41,-5,-11,18,-9,22,-23
1491087962709,3,5,-117,0,-10,-78,0,15,18
1491087962744,0,0,-127,-4,-9,-6,-44,-17,-8
1491087962744,0,52,10,-6,-5,-32,-71,-45,1
1491087962745,1,-44,65,0,-6,22,31,-20,-27
1491087962745,1,27,76,-1,-4,-45,-7,23,11
1491087962745,2,28,127,6,0,2,-2,-30,-12
1491087962745,2,-5,113,-3,-3,14,-27,-18,0
1491087962746,3,10,105,-2,1,17,51,40,22
1491087962746,3,-19,-50,-1,2,23,65,22,4
1491087962819,0,-35,-36,-4,2,-18,-25,-30,-4
1491087962819,0,-13,6,0,1,2,8,-8,7
1491087962821,1,13,-36,-16,-19,-35,-19,8,12
1491087962821,1,-26,6,-9,-2,15,41,-34,-11
1491087962821,2,17,-43,0,3,-22,-20,33,11
1491087962821,2,-27,40,-1,14,-44,35,-44,-37
1491087962822,3,-48,88,2,-4,29,11,-15,-18
1491087962822,3,31,117,3,-8,55,-18,28,26
1491087962856,0,-56,58,-3,-1,-1,5,-5,-12
1491087962856,0,55,-16,-7,2,-26,-17,-2,18
1491087962857,1,-13,-66,-6,2,-8,14,-5,-18
1491087962857,1,-32,30,-3,6,2,-34,-30,-22
1491087962858,2,4,33,-2,-27,-27,-15,5,-4
1491087962858,2,-14,-9,-1,3,15,37,-8,-12
1491087962859,3,43,-113,5,16,35,8,-17,25
1491087962859,3,-30,-68,0,-2,31,4,41,0
1491087962894,0,-17,-67,6,12,-6,47,3,8
1491087962894,0,84,-16,11,0,29,-35,-11,-6
1491087962895,1,-81,-27,-12,-9,-37,-24,-6,-17
1491087962895,1,-2,39,-3,-2,-26,-6,7,4
1491087962896,3,5,32,16,23,4,4,13,11
1491087962896,3,5,34,3,-16,-5,-54,-28,-5
1491087962896,0,36,-49,-7,-5,-24,24,-9,-4
1491087962896,0,-84,-94,-6,-16,19,48,41,0
1491087962931,1,-22,-8,-6,-1,-15,-68,-49,-14
1491087962931,1,-37,-126,8,13,5,42,6,4
1491087962932,2,23,44,-2,-2,-6,-21,-42,-8
1491087962932,2,12,-5,4,8,-9,-29,14,18
1491087962933,3,-27,-118,-5,-7,15,26,28,-10
1491087962933,3,-26,-49,2,9,-9,-27,-40,-14
1491087962934,0,44,-34,8,9,26,17,56,6
1491087962934,0,-24,11,3,2,-7,-31,36,18
1491087962969,1,-13,27,-6,8,8,30,-25,-5
1491087962969,1,31,40,-15,-14,-6,6,-21,-4
1491087962970,2,-36,14,-1,-12,-20,-21,10,1
1491087962970,2,18,38,-1,-7,-11,13,1,-3
1491087962971,3,51,34,9,17,46,21,2,12
1491087962971,3,10,32,7,14,9,-29,-15,-5
1491087962971,0,-64,37,-9,-11,-19,33,83,14
1491087962971,0,-46,28,-6,-12,-21,16,-28,0
1491087963006,1,33,-5,-10,-24,-21,-71,-33,-22
1491087963006,1,1,-1,-6,9,-2,-2,-47,-6
1491087963007,2,15,29,5,17,9,35,-1,6
1491087963007,2,-37,-25,4,4,6,39,15,-14
1491087963008,3,11,-34,-3,-16,-27,-88,30,17
1491087963008,3,-52,-16,-8,5,5,48,22,-24
1491087963009,0,7,-22,-5,-11,22,-38,-50,-9
1491087963009,0,-34,19,-10,4,-15,9,-14,-15
1491087963044,1,94,48,17,27,-11,37,-6,31
1491087963044,1,-59,40,-8,-22,-4,5,8,-28
1491087963045,2,70,-5,-4,-7,-4,-30,38,12
1491087963045,2,7,-24,2,-1,9,16,-23,-3
1491087963045,3,-30,-39,-2,1,-2,-61,-24,4
1491087963045,3,99,-17,1,-10,28,55,33,28
1491087963046,0,-15,-88,-2,14,-60,-45,43,28
1491087963046,0,25,-55,-8,-19,12,0,-53,-19
1491087963082,1,-17,-21,-2,2,-16,39,61,29
1491087963082,1,-64,7,-3,14,16,-18,-26,-30
1491087963090,2,19,49,15,12,19,0,-109,-30
1491087963090,2,96,42,13,11,9,27,97,37
1491087963096,3,69,-4,-12,-20,20,25,20,-12
1491087963096,3,-57,49,-6,3,-20,-5,-79,-9
1491087963097,0,9,65,-7,-11,-9,-28,15,-1
1491087963097,0,-51,37,-8,-5,24,44,74,31
1491087963120,1,79,29,2,-1,18,5,-34,-15
1491087963120,1,-24,32,13,5,-17,-41,18,-2
1491087963121,2,-23,23,5,28,29,20,-24,-2
1491087963121,2,5,16,-14,-29,-53,-31,-8,-25
1491087963122,3,35,18,-2,7,-33,41,-14,28
1491087963122,3,-68,-12,14,27,-21,-4,85,1
1491087963123,0,-15,17,-5,-27,56,-66,-121,-39
1491087963123,0,-84,-10,4,34,72,94,94,29
1491087963157,1,17,-15,-12,-31,-59,-79,-61,-20
1491087963157,1,30,17,2,7,-23,-14,-37,-10
1491087963158,2,-62,22,6,-4,-9,58,67,24
1491087963158,2,-2,1,13,-13,-33,-123,-123,-37
1491087963159,3,-61,-19,-14,-13,-2,50,8,-17
1491087963159,3,-6,9,4,-30,88,-12,-12,-7
1491087963194,0,-86,-7,-19,-10,-14,35,102,29
1491087963194,0,74,-5,-22,-58,-77,-26,-44,-8
1491087963196,1,-54,-3,-4,9,-67,-45,-37,-14
1491087963196,1,72,5,3,39,48,81,47,40
1491087963197,2,2,-12,-3,-24,-31,-59,77,4
1491087963197,2,-18,7,13,32,-57,-39,-38,8
1491087963198,3,-97,2,2,7,88,81,45,-28
1491087963198,3,117,-22,4,-15,-2,-102,-56,31
1491087963232,0,11,-41,-10,-27,-39,15,-10,-14
1491087963232,0,-27,-28,-7,-8,-4,24,-77,-14
1491087963233,1,65,32,-7,0,-23,8,21,-9
1491087963233,1,12,20,6,-12,10,-29,56,37
1491087963234,2,-6,35,6,42,53,111,2,-27
1491087963234,2,-61,6,-3,-29,38,-93,-20,-23
1491087963235,3,-21,22,13,11,29,-15,14,-15
1491087963235,3,22,10,-17,-3,-44,59,70,40
1491087963269,0,39,-16,-6,16,-72,21,-31,-11
1491087963269,0,-7,16,13,9,100,-16,-40,6
1491087963270,1,-31,-19,-14,-12,-1,-61,36,-16
1491087963270,1,20,-27,-30,-77,-92,42,-18,-24
1491087963271,2,-40,-8,-4,-50,-49,-119,-79,-7
1491087963271,2,70,-6,-1,74,13,86,68,32
1491087963271,3,-13,2,43,103,127,118,8,-2
1491087963271,3,-52,-25,-1,-59,15,-128,-5,4
1491087963306,0,97,5,-8,-9,-47,126,6,-1
1491087963306,0,-62,-12,-1,14,-43,79,39,4
1491087963344,1,-38,2,2,-7,-33,-36,0,33
1491087963344,1,55,-16,11,40,73,30,-29,-32
1491087963381,2,-13,10,-7,-20,43,14,-21,-3
1491087963381,2,59,-19,-32,-20,-101,-115,-2,-6
1491087963383,3,-26,-53,-5,-22,34,34,10,8
1491087963383,3,-60,-24,5,75,54,24,-6,-14
1491087963383,0,-13,21,10,5,-36,68,57,44
1491087963383,0,-11,-22,3,-11,65,-79,-17,-29
1491087963384,1,-122,11,-17,0,-22,117,49,-15
1491087963384,1,59,17,-4,-35,-128,88,72,-17
1491087963419,2,38,-1,21,10,127,-99,-78,18
1491087963419,2,17,-18,-20,36,-111,-44,-37,-45
1491087963420,0,-3,6,0,69,-69,-7,-12,-9
1491087963420,0,11,33,16,-19,110,127,58,15
1491087963421,0,-61,-14,-2,-43,-123,5,32,-11
1491087963421,0,4,-4,-25,-37,56,-60,36,15
1491087963421,1,29,-3,29,73,63,56,-113,32
1491087963421,1,-41,-16,-26,4,27,-11,29,-12
1491087963456,2,28,9,-3,11,-41,-118,-42,-26
1491087963456,2,-41,25,-16,-86,60,127,36,-14
1491087963457,3,-35,5,7,22,-114,-30,-6,-4
1491087963457,3,-32,10,-29,-47,-44,22,-24,11
1491087963458,0,62,29,43,86,127,127,8,34
1491087963458,0,-82,31,21,76,-96,58,-32,-19
1491087963459,1,-60,-13,-19,-98,-128,-112,-56,-52
1491087963459,1,57,-8,13,10,77,-12,12,5
1491087963494,2,57,67,-4,-44,49,100,30,-22
1491087963494,2,39,41,0,-20,-32,-50,-27,10
1491087963495,3,0,24,-33,26,-91,-86,-20,28
1491087963495,3,-58,26,-2,54,62,96,50,-22
1491087963495,0,-19,-21,36,20,-110,-87,8,5
1491087963495,0,15,-41,32,33,78,46,-38,7
1491087963496,1,45,37,-14,-28,-126,-22,56,-14
1491087963496,1,-77,-14,-27,-97,28,-117,-128,-25
1491087963531,2,51,-7,-30,69,112,-9,56,17
1491087963531,2,-11,-42,-8,-46,-114,-22,-25,-20
1491087963533,3,23,-61,23,-25,103,125,-7,-6
1491087963533,3,7,-58,-4,-29,51,87,3,7
1491087963533,0,-54,-5,8,31,-111,-84,32,14
1491087963533,0,-23,15,-25,2,-31,-31,43,-16
1491087963569,1,31,17,9,15,112,80,16,10
1491087963569,1,14,-4,26,18,-125,-68,23,-21
1491087963570,2,-7,-108,-1,-42,118,120,44,6
1491087963570,2,42,-104,-13,-32,-104,-68,18,46
1491087963571,3,-44,-57,-24,-16,-82,-56,-73,-47
1491087963571,3,-5,32,-8,2,51,98,72,47
1491087963571,0,-30,28,-20,-42,36,-120,-85,-41
1491087963571,0,13,9,25,22,-42,61,-7,6
1491087963606,1,31,-85,-7,6,-23,54,-15,17
1491087963606,1,19,-32,59,55,4,29,24,-1
1491087963607,2,5,-100,-62,-102,-126,-77,48,-2
1491087963607,2,-12,-96,13,36,127,52,37,29
1491087963608,3,18,-82,0,-1,4,-23,-34,-26
1491087963608,3,1,65,2,-3,-41,-113,8,27
1491087963611,0,-32,67,5,46,-40,77,-16,6
1491087963611,0,9,30,-1,-5,-34,-20,37,24
1491087963644,1,34,-13,-36,-47,-43,-10,4,-2
1491087963644,1,17,-27,36,90,127,105,28,9
1491087963645,2,-44,-29,0,-38,-94,-37,-36,-21
1491087963645,2,-15,32,-1,1,57,-18,21,13
1491087963646,3,30,44,7,32,98,71,34,-3
1491087963646,3,-25,-46,-20,-74,-128,-89,-52,-20
1491087963646,0,-15,46,-45,3,-53,-29,-43,-1
1491087963646,0,9,52,-4,-26,10,-7,-23,-2
1491087963681,1,10,56,32,68,103,63,85,21
1491087963681,1,-13,25,0,39,62,20,-3,-4
1491087963683,2,1,-32,38,-2,-38,-41,-64,-17
1491087963683,2,45,-10,13,43,90,88,90,5
1491087963683,3,-37,10,-30,-48,-123,-128,-71,-9
1491087963683,3,-17,-33,-25,-32,-105,-2,-36,-9
1491087963719,0,16,-12,-7,63,-6,44,31,0
1491087963719,0,6,2,-5,-56,-105,-128,-59,-3
1491087963720,1,9,-2,4,23,22,67,56,46
1491087963720,1,3,-27,-9,-12,-109,13,-52,-23
1491087963722,2,-9,-8,8,5,127,47,40,1
1491087963722,2,-28,-9,2,3,-108,-72,-29,-20
1491087963724,3,17,-11,20,9,-15,9,11,-6
1491087963724,3,-4,11,-9,-38,92,-24,15,7
1491087963756,0,11,-4,-2,-36,-72,29,12,9
1491087963756,0,-19,-5,12,40,-55,-40,20,-3
1491087963757,1,-4,0,-35,-62,-71,-96,-37,-17
1491087963757,1,-16,8,-2,17,1,26,-12,-15
1491087963758,2,19,14,-38,-60,0,11,5,-6
1491087963758,2,-5,-6,64,92,106,48,14,-3
1491087963794,3,5,99,35,39,85,85,13,-5
1491087963794,3,-6,-2,7,14,-29,-5,15,24
1491087963831,0,-19,-23,-25,-30,50,-28,-24,-23
1491087963831,0,9,-25,-66,-122,-128,-94,-49,-24
1491087963833,1,-6,-34,10,73,84,-1,5,-7
1491087963833,1,6,-7,-4,-26,-36,12,1,3
1491087963835,2,3,-19,15,40,33,57,19,29
1491087963835,2,-5,79,10,33,53,5,-1,-13
1491087963836,3,-7,19,-6,-52,-91,-53,-15,-5
1491087963836,3,6,54,16,83,58,91,67,-1
1491087963869,0,-11,-15,-40,-82,-128,-95,-75,-13
1491087963869,0,-23,-37,-50,-44,-3,-7,-29,-15
1491087963870,1,-7,37,3,42,16,28,4,0
1491087963870,1,9,43,15,28,54,29,8,3
1491087963870,2,28,86,41,59,127,127,73,21
1491087963870,2,-8,-28,-6,-42,-68,-14,17,5
1491087963871,0,5,-19,9,-58,-75,-19,-9,-6
1491087963871,0,5,-100,2,37,70,38,17,2
1491087963906,1,-36,-48,-14,-40,-114,-72,-25,1
1491087963906,1,22,-24,-57,-96,-85,-98,-35,-12
1491087963907,2,5,0,40,100,57,45,15,3
1491087963907,2,3,24,26,26,-27,-23,-15,0
1491087963908,0,-29,-27,-56,-77,-44,-128,-60,-4
1491087963908,0,-8,36,-53,-43,-44,-25,-36,-14
1491087963909,1,12,20,33,91,127,72,5,0
1491087963909,1,7,50,4,-23,-118,38,9,5
1491087963944,2,2,95,12,38,30,11,23,-3
1491087963944,2,-40,74,11,-69,-6,-33,-20,-13
1491087963945,3,8,34,-4,-1,-52,25,23,7
1491087963945,3,-24,-67,18,-36,-59,-80,-12,-21
1491087963945,0,44,-80,-66,-45,-95,-38,-48,4
1491087963945,0,-19,-50,-48,92,82,-16,-42,0
1491087963946,1,-32,-122,12,60,83,23,6,-4
1491087963946,1,27,-88,34,61,127,37,20,7
1491087963981,2,-29,-77,61,49,48,71,31,1
1491087963981,2,-2,-120,-11,-77,-104,39,12,-6
1491087963982,3,1,-121,-14,-12,94,32,21,1
1491087963982,3,-14,-11,-2,-9,-77,-37,-23,4
1491087963983,0,-3,-46,-4,-4,-6,-2,-4,-13
1491087963983,0,20,68,21,-26,-82,-22,-1,11
1491087963984,1,6,19,-11,20,79,33,9,8
1491087963984,1,20,-54,-36,-55,-17,-78,-53,-8
1491087964019,2,34,51,-3,32,19,8,8,6
1491087964019,2,10,75,53,113,127,91,50,1
1491087964020,3,17,100,-51,-118,-128,-21,-3,-6
1491087964020,3,-22,79,-8,2,14,-37,-44,-4
1491087964021,0,33,-48,20,54,19,33,14,5
1491087964021,0,27,-36,4,10,38,58,29,7
1491087964021,1,13,64,30,19,-48,-36,-13,-5
1491087964021,1,-43,9,-52,-23,66,-1,-1,1
1491087964056,2,-11,41,6,2,-60,10,-2,5
1491087964056,2,-26,-18,-20,-54,-13,-17,-12,-14
1491087964058,3,7,-58,-29,-28,-38,-24,-11,1
1491087964058,3,-29,-42,29,56,15,35,7,-5
1491087964058,0,-12,-30,27,43,10,4,-2,8
1491087964058,0,9,5,-12,-23,-17,-9,2,2
1491087964059,1,3,-22,-7,-5,-17,2,1,-2
1491087964059,1,-7,-30,-18,0,29,13,8,-2
1491087964098,2,-5,-7,-5,-19,-33,4,-7,-7
1491087964098,2,-6,-43,-2,15,59,4,1,3
1491087964099,3,42,-18,-7,-34,-38,-49,-14,-14
1491087964099,3,-2,16,-1,-13,-37,-24,-11,3
1491087964099,0,-30,-42,2,-3,-2,-19,4,0
1491087964099,0,25,-64,15,29,0,25,13,-7
1491087964100,1,-53,-32,-13,-22,-2,-7,-17,-19
1491087964100,1,15,-28,2,-7,8,-4,2,-7
1491087964131,2,-11,-34,6,4,23,3,3,0
1491087964131,2,-27,-12,8,7,-31,-5,-5,-7
1491087964132,3,18,-28,-1,-25,-36,-35,-11,12
1491087964132,3,13,-44,-18,2,-14,-9,0,6
1491087964133,0,-21,-47,0,-12,31,11,11,-12
1491087964133,0,-6,-60,3,5,12,-8,3,1
1491087964134,1,3,-28,8,5,-21,-18,-2,0
1491087964134,1,-11,-15,7,-3,-24,-11,-6,15
1491087964170,2,16,-50,-11,-15,-5,0,18,6
1491087964170,2,17,-24,-1,-15,-19,-6,-10,1
1491087964172,3,-26,-52,2,10,-5,-7,-4,0
1491087964172,3,7,-36,2,-2,26,13,1,-9
1491087964172,0,-30,-48,-2,-10,25,36,1,-4
1491087964172,0,24,-36,-11,-24,-89,-79,-42,-10
1491087964173,1,-4,-59,7,9,-14,6,33,8
1491087964173,1,-10,-34,1,-14,0,18,7,1
1491087964206,2,-1,-57,-6,9,-2,-22,-10,5
1491087964206,2,-6,-37,3,-3,22,35,29,-4
1491087964208,3,-6,-87,-3,11,17,-14,-19,-10
1491087964208,3,-14,-87,-5,16,3,-1,-6,-8
1491087964208,0,15,-73,-6,-8,-20,8,13,-6
1491087964208,0,-9,-52,14,19,5,19,4,1
1491087964209,1,46,-19,2,-13,5,0,3,4
1491087964209,1,61,15,-9,-2,-10,4,-8,2
1491087964244,2,10,-58,-6,9,50,-20,-9,-4
1491087964244,2,7,-104,-11,-1,19,9,-3,6
1491087964245,3,-41,-62,1,-3,-15,-10,-7,-12
1491087964245,3,-18,-87,4,11,8,15,19,2
1491087964246,0,48,-39,-3,-14,-25,-29,-8,14
1491087964246,0,-87,-51,-4,-2,15,23,4,-14
1491087964247,1,-11,-75,18,23,26,17,2,12
1491087964247,1,-23,-111,-2,6,-5,-7,-8,-6
1491087964281,2,-61,-24,-5,-8,-13,-8,-8,-6
1491087964281,2,32,84,5,10,14,19,27,5
1491087964282,3,10,127,-2,4,0,-17,-14,0
1491087964282,3,42,78,-6,-7,12,-3,-3,-10
1491087964283,0,46,-1,6,16,12,11,-27,-4
1491087964283,0,-4,-38,-10,-14,6,14,3,-1
1491087964319,1,-21,24,-3,-18,-32,0,-1,-12
1491087964319,1,-34,54,5,5,26,1,-3,7
1491087964320,2,-20,41,-15,-19,-40,6,1,-1
1491087964320,2,7,70,5,1,27,-25,-6,22
1491087964321,3,-10,-39,-4,1,-8,1,13,4
1491087964321,3,-6,102,8,-1,1,1,-14,-12
1491087964321,0,-38,88,4,9,-8,5,1,4
1491087964321,0,46,16,-15,-21,-27,-65,-36,5
1491087964356,1,-13,-48,-3,-4,7,17,32,13
1491087964356,1,-17,-104,-5,7,0,22,22,11
1491087964358,2,8,-106,9,22,24,-47,-14,-32
1491087964358,2,-21,33,10,11,7,52,12,-4
1491087964358,3,6,35,1,-15,-28,-17,-24,-18
1491087964358,3,2,32,-9,-12,-39,-68,-4,4
1491087964359,0,40,25,-4,2,52,18,-13,14
1491087964359,0,-23,-46,1,-12,-64,15,28,-18
1491087964394,1,26,-31,5,17,69,3,-3,6
1491087964394,1,-26,39,2,-4,3,21,-9,-16
1491087964395,2,8,35,3,0,-33,17,32,12
1491087964395,2,15,-16,-4,1,8,-74,-26,9
1491087964396,3,-52,-4,8,18,19,116,36,0
1491087964396,3,17,-39,-19,-38,-42,-57,-78,-22
1491087964432,0,10,-75,-2,0,-23,-30,6,8
1491087964432,0,-6,90,-4,-1,0,26,-9,-3
1491087964433,1,51,26,-8,-12,-6,7,20,2
1491087964433,1,-94,8,8,28,-12,-25,27,-32
1491087964434,2,29,55,2,19,15,15,46,29
1491087964434,2,-10,-35,-11,-37,14,22,0,-4
1491087964435,3,-19,8,-1,16,-12,-4,-59,9
1491087964435,3,20,9,4,-10,-29,-23,-17,-10
1491087964470,0,-32,18,4,-5,-28,-37,-33,-8
1491087964470,0,10,-14,6,24,97,39,13,-14
1491087964471,1,-3,18,-21,-39,-48,-33,-12,2
1491087964471,1,54,-49,5,3,-12,-19,-57,-1
1491087964473,2,-91,-4,-7,1,4,28,-24,-16
1491087964473,2,51,-27,4,6,15,33,20,-7
1491087964474,3,-65,4,13,0,-2,-6,25,-2
1491087964474,3,28,-58,0,-9,-40,9,-41,-4
1491087964506,0,-65,-11,-17,-11,59,-18,-5,0
1491087964506,0,-41,18,-2,18,-6,-19,-10,-8
1491087964507,1,9,6,0,-6,9,10,11,-21
1491087964507,1,0,63,7,-10,-69,-7,-16,25
1491087964508,2,63,4,1,4,50,74,29,12
1491087964508,2,-88,-23,-12,-15,-26,-90,-60,-7
1491087964509,3,110,30,-6,4,11,-53,-59,-18
1491087964509,3,-38,-98,-7,11,56,115,125,35
1491087964544,0,-58,-83,12,13,-58,-63,-99,-36
1491087964544,0,38,49,5,16,-13,38,41,16
1491087964545,1,-7,76,-2,-2,-13,-25,-13,10
1491087964545,1,39,54,8,-5,43,46,19,31
1491087964546,2,-51,-33,12,-15,-2,2,-8,-60
1491087964546,2,-26,-14,-2,8,-47,-50,-92,-13
1491087964581,3,-24,25,5,-4,39,10,39,18
1491087964581,3,56,76,-3,7,26,66,43,11
1491087964582,0,43,127,-6,-13,-24,-21,24,5
1491087964582,0,-19,18,-4,-3,-24,19,-8,-12
1491087964583,1,-57,-23,-1,2,25,-11,2,-32
1491087964583,1,58,-51,-8,16,43,73,40,20
1491087964584,2,-76,0,1,-3,-40,-51,3,-8
1491087964584,2,60,36,-11,-28,6,-12,-20,3
1491087964619,3,-91,44,-2,8,-54,-32,-20,6
1491087964619,3,73,-58,-5,-13,16,7,25,-15
1491087964620,0,23,-59,2,15,27,20,3,17
1491087964620,0,2,-42,0,19,18,55,54,13
1491087964621,1,-54,-78,-6,-12,-30,-38,-23,-6
1491087964621,1,-67,7,3,-8,4,-60,-85,-28
1491087964622,2,91,-10,-7,-10,10,29,-27,9
1491087964622,2,-13,-93,7,3,-22,-8,71,3
1491087964657,3,27,-12,3,13,60,41,-54,8
1491087964657,3,-8,102,-4,3,-26,-9,-14,-3
1491087964659,0,-61,104,-5,-33,-17,-40,-16,-5
1491087964659,0,37,63,-16,-20,-24,33,-16,-9
1491087964660,1,21,22,7,-3,-26,-58,-4,-14
1491087964660,1,-43,14,4,14,31,-14,35,1
1491087964661,2,24,-91,3,1,1,65,0,-1
1491087964661,2,-23,-119,-8,15,-12,31,26,9
1491087964694,3,26,-79,-8,-1,33,-70,-9,15
1491087964694,3,-58,25,0,-8,2,24,-56,-35
1491087964696,0,58,45,-4,10,-5,-46,35,-1
1491087964696,0,76,34,7,-2,15,12,31,19
1491087964697,1,50,10,-4,-8,-16,90,47,2
1491087964697,1,-52,50,5,5,-35,-66,7,26
1491087964732,2,-9,45,1,-20,-1,-27,-23,0
1491087964732,2,-49,-83,-1,8,22,50,-13,-9
1491087964733,3,4,-40,2,13,-5,24,19,6
1491087964733,3,13,-65,-16,-2,11,-44,-22,1
1491087964734,0,-4,-18,-9,-14,-67,-38,-39,-25
1491087964734,0,-41,80,2,-19,-5,-82,-3,14
1491087964770,1,-6,27,0,-6,-4,71,55,5
1491087964770,1,31,-1,-1,17,29,57,-31,-12
1491087964771,2,-42,0,6,13,19,59,-1,10
1491087964771,2,30,0,11,8,1,-110,-7,3
1491087964772,3,16,-22,-5,5,4,11,-7,-1
1491087964772,3,-15,-18,-12,-37,-30,-72,6,-5
1491087964773,0,64,-5,-1,14,10,-38,4,6
1491087964773,0,-31,25,0,-1,-13,19,56,8
1491087964806,1,24,9,-4,6,11,11,-64,-23
1491087964806,1,0,-11,15,29,15,18,69,25
1491087964807,2,-3,-55,-15,-3,4,45,-32,-29
1491087964807,2,-116,-43,-7,-19,2,36,-47,-9
1491087964808,3,76,-23,-10,-20,-24,-26,-2,-7
1491087964808,3,8,1,-5,1,3,-4,11,9
1491087964809,0,-14,13,3,15,31,96,96,21
1491087964809,0,-21,6,16,18,-6,-65,-48,-17
1491087964844,1,-38,-36,-10,-11,-18,-54,-52,-30
1491087964844,1,-54,-20,-13,-8,-7,39,-13,0
1491087964845,2,-25,19,4,-6,-4,-1,28,-13
1491087964845,2,44,10,-10,-2,14,24,22,6
1491087964845,3,-32,-13,11,11,0,6,31,21
1491087964845,3,8,-2,2,4,8,-21,1,-11
1491087964846,0,18,9,-9,8,-3,6,-6,12
1491087964846,0,-31,59,3,6,0,30,9,15
1491087964881,1,17,31,2,-3,-9,-15,-3,-11
1491087964881,1,5,2,-4,-26,-10,-21,-4,-5
1491087964882,2,-13,5,0,-2,6,19,-14,4
1491087964882,2,27,-15,-25,-9,-7,6,4,-7
1491087964883,3,16,30,12,-7,-21,-2,-9,-1
1491087964883,3,-9,8,5,3,20,-4,0,-4
1491087964884,0,9,-10,-7,-11,-3,-38,-25,-1
1491087964884,0,30,7,16,3,-11,-15,6,-3
1491087964919,1,-58,-3,-4,16,-10,29,-8,2
1491087964919,1,45,6,-6,-8,13,-39,8,7
1491087964920,2,-71,12,4,-1,-31,6,-13,-11
1491087964920,2,-32,-8,-8,0,32,32,-3,-9
1491087964920,3,49,14,1,-11,3,-14,-3,4
1491087964920,3,9,15,8,8,-4,0,28,18
1491087964921,0,-10,7,2,6,47,29,24,2
1491087964921,0,13,-2,-10,-32,-70,-9,-34,-17
1491087964956,1,-29,11,0,-3,3,-13,-2,-5
1491087964956,1,-41,-4,-6,-6,-29,-16,-7,-17
1491087964957,2,11,39,32,22,27,-30,-10,9
1491087964957,2,98,-15,-11,-12,5,2,50,21
1491087964958,3,-34,-3,5,10,6,37,-22,-13
1491087964958,3,-21,4,-2,5,17,-17,-75,-30
1491087964959,0,-43,-11,-1,12,3,10,-46,-28
1491087964959,0,-2,10,2,9,14,-10,14,1
1491087965031,1,3,-4,-6,-20,-44,17,39,15
1491087965031,1,-38,-17,-5,-15,14,-29,14,6
1491087965032,2,102,-10,-11,7,-45,23,23,15
1491087965032,2,-42,10,0,-9,58,-15,-88,-15
1491087965033,3,-10,-19,-11,4,7,13,33,5
1491087965033,3,-17,-6,-6,-4,-66,-21,-94,-28
1491087965034,0,104,14,-9,-25,-21,-11,86,52
1491087965034,0,-39,-15,-1,-14,11,33,73,11
1491087965069,1,35,18,9,43,7,30,-68,-20
1491087965069,1,9,-4,2,3,43,-10,10,-3
1491087965070,2,-8,-6,-10,-13,-33,-48,1,11
1491087965070,2,1,11,1,9,-4,-15,-14,-14
1491087965070,0,70,-7,-13,-18,30,53,-4,7
1491087965070,0,12,27,12,5,-22,-5,22,7
1491087965071,1,-49,-31,-29,-13,-1,42,69,13
1491087965071,1,-53,-10,14,-26,35,-19,-52,-21
1491087965106,2,8,7,14,15,-25,38,14,16
1491087965106,2,14,-20,-1,9,39,-55,-52,-6
1491087965107,3,-81,-20,-16,-37,19,-56,-17,-43
1491087965107,3,-19,38,14,0,-57,19,108,27
1491087965108,0,7,-10,-23,-44,10,-39,14,11
1491087965108,0,40,-21,7,37,-39,70,-28,-8
1491087965109,1,-30,9,-3,10,45,56,-8,-25
1491087965109,1,11,-7,-23,-36,-29,-56,-18,10
1491087965144,2,10,-16,-12,-17,-27,-13,8,-37
1491087965144,2,28,30,0,-6,-47,-13,-81,5
1491087965145,3,-77,5,14,-20,26,-72,23,28
1491087965145,3,1,4,11,47,49,127,98,-9
1491087965181,0,57,5,7,-10,-82,-97,-94,11
1491087965181,0,-63,-32,-17,-26,45,0,-18,-20
1491087965182,1,22,-5,5,36,-1,43,55,8
1491087965182,1,15,1,-10,-9,20,71,-4,-1
1491087965183,2,39,0,16,48,99,56,-1,-6
1491087965183,2,-44,-30,-12,-34,-113,-69,21,-14
1491087965184,3,-28,-43,-23,-58,-28,-3,-58,-10
1491087965184,3,29,-5,31,94,127,102,57,23
1491087965219,0,-128,11,11,30,96,-28,56,-2
1491087965219,0,95,18,-20,-6,-73,127,29,-10
1491087965220,1,70,-1,-18,-73,-71,-128,-72,4
1491087965220,1,9,8,1,-6,15,11,11,-1
1491087965256,2,-53,8,16,38,-3,127,-17,-15
1491087965256,2,-104,0,23,56,127,-84,29,25
1491087965258,3,88,-2,-21,26,-66,93,11,-9
1491087965258,3,97,-6,-11,-47,-34,-76,-35,21
1491087965258,0,-37,23,9,-3,-16,-38,-41,-36
1491087965258,0,-62,-34,-12,-13,56,-91,-49,0
1491087965259,1,-13,-9,9,19,-67,126,47,-20
1491087965259,1,-34,5,10,-3,42,-101,2,72
1491087965294,3,90,21,-26,29,3,45,-8,13
1491087965294,3,-51,-30,22,-22,-109,-8,-111,-54
1491087965295,0,-57,-44,-34,-32,56,-2,50,46
1491087965295,0,65,28,20,47,-107,115,60,12
1491087965295,1,-23,-34,14,-18,-25,-102,14,9
1491087965295,1,4,26,-14,76,15,110,36,-3
1491087965296,3,-40,36,13,46,7,63,51,13
1491087965296,3,-56,16,-2,-22,30,67,-39,1
1491087965331,0,7,-17,12,33,-11,-28,26,9
1491087965331,0,42,-4,6,-17,-98,-63,-35,-22
1491087965332,1,78,10,-3,-33,124,-75,32,22
1491087965332,1,-14,-18,-32,-5,-65,-76,-68,-42
1491087965333,2,-73,-16,3,-51,-35,99,33,8
1491087965333,2,44,30,25,124,98,76,103,98
1491087965334,3,-28,-11,2,-49,-128,-18,-42,-50
1491087965334,3,11,15,0,21,108,43,53,18
1491087965369,0,-14,15,-13,-12,-121,-28,-29,-15
1491087965369,0,22,11,1,-2,-44,55,69,10
1491087965370,1,-70,2,-1,26,94,-67,-27,-10
1491087965370,1,-75,-37,-25,-35,-106,80,17,-26
1491087965370,2,33,-22,5,-16,46,-118,-24,20
1491087965370,2,-43,-52,-13,12,13,69,-59,-20
1491087965371,3,57,28,41,93,127,99,3,40
1491087965371,3,-4,30,3,-11,-119,27,46,-19
1491087965406,0,-13,13,-23,-51,-36,15,3,-16
1491087965406,0,24,53,-16,-36,-112,-16,87,34
1491087965407,1,11,23,-3,6,38,-69,-27,-12
1491087965407,1,-18,-4,-16,-58,-45,-21,-84,-1
1491087965408,2,-69,-20,6,68,119,123,116,0
1491087965408,2,28,15,-15,-71,-80,-111,-86,-15
1491087965409,3,-21,18,7,29,37,7,59,-5
1491087965409,3,31,28,41,44,60,-50,50,9
1491087965444,0,-28,46,-12,-83,127,96,21,0
1491087965444,0,-10,-7,-37,-52,-73,-103,-36,-15
1491087965481,1,-2,18,-31,-66,-74,-47,-61,6
1491087965481,1,50,44,7,98,127,56,83,22
1491087965483,2,-14,51,60,95,-102,79,-34,16
1491087965483,2,-16,114,28,26,127,97,121,-3
1491087965483,3,25,5,-21,-71,-128,-115,-106,-3
1491087965483,3,-7,-106,-57,-100,-32,-37,-45,-36
1491087965485,0,0,-108,-2,85,63,-17,-28,0
1491087965485,0,-11,-114,-9,-32,-60,56,49,-4
1491087965519,1,-6,-97,25,37,-13,31,12,8
1491087965519,1,3,-93,22,18,62,58,-1,-2
1491087965520,2,-6,-61,-5,16,57,-9,-34,-14
1491087965520,2,37,-113,-11,-34,-18,-53,-59,1
1491087965521,1,18,48,-27,-119,-112,-19,-19,6
1491087965521,1,-34,-95,10,113,117,-9,19,27
1491087965522,2,18,-41,-14,-1,-110,22,-26,-6
1491087965522,2,-14,-38,9,-23,-47,11,14,-9
1491087965556,3,-15,1,-32,-33,-97,8,49,11
1491087965556,3,9,99,-3,-2,93,-33,-48,-15
1491087965557,0,8,65,-14,-65,-123,-64,-2,10
1491087965557,0,-17,14,26,54,79,23,-38,-2
1491087965558,1,8,58,57,90,113,127,78,14
1491087965558,1,5,16,2,-35,-87,97,78,22
1491087965594,2,-26,-27,-47,-79,-66,-101,-123,-76
1491087965594,2,-27,-7,-32,29,45,94,42,-5
1491087965631,3,0,-5,-16,-46,-92,-63,-45,-6
1491087965631,3,11,18,1,25,-23,24,-19,-15
1491087965669,0,25,58,32,54,68,92,76,20
1491087965669,0,-7,-45,-16,-50,-104,-47,-23,18
1491087965670,1,1,-37,14,20,-35,-5,-20,-9
1491087965670,1,4,18,15,17,62,64,41,13
1491087965671,2,26,38,4,24,-39,-30,4,6
1491087965671,2,-24,-10,-29,-61,18,-62,-74,-40
1491087965672,3,6,-12,6,121,109,62,-17,9
1491087965672,3,-4,-9,-17,-122,-128,-128,-4,-2
1491087965706,0,-19,-18,-59,-113,-69,-60,-52,-24
1491087965706,0,-5,24,37,117,122,33,-14,1
1491087965707,1,23,30,9,48,83,85,34,23
1491087965707,1,-7,52,17,-12,13,19,13,1
1491087965708,0,2,-77,3,9,-55,28,14,-1
1491087965708,0,-14,-88,-23,-93,-39,-109,-32,-28
1491087965709,0,-11,-82,-33,-3,-52,-75,-32,-1
1491087965709,0,2,-93,-5,-12,13,-39,-5,-5
1491087965744,1,-3,-88,-39,-69,-15,17,12,-13
1491087965744,1,3,-80,17,51,56,4,-11,6
1491087965745,2,1,-14,35,26,80,39,27,1
1491087965745,2,-3,-79,-14,-33,-87,-8,2,-1
1491087965745,3,9,-56,-3,18,22,-27,-35,3
1491087965745,3,4,-37,-28,-53,47,23,25,-8
1491087965746,0,-15,0,-4,-3,-23,-18,-11,1
1491087965746,0,8,36,-39,-54,-25,6,-4,-6
1491087965781,1,-2,3,45,61,-8,38,19,0
1491087965781,1,-5,-63,0,-2,-56,8,-3,-6
1491087965783,2,-14,-74,-10,-54,-11,-101,-42,0
1491087965783,2,-4,-113,-10,32,-19,77,2,7
1491087965784,3,-5,-68,24,15,90,11,20,-11
1491087965784,3,4,34,3,12,9,14,11,0
1491087965784,0,11,15,4,-21,-53,-4,-3,8
1491087965784,0,-11,7,5,24,-16,-5,-1,-15
1491087965819,1,-8,-31,-29,-49,-117,-56,-21,3
1491087965819,1,-5,-109,-22,8,2,-65,-31,-12
1491087965820,2,-17,-121,0,11,59,41,30,-7
1491087965820,2,36,-128,19,37,107,38,3,8
1491087965821,3,5,-13,25,13,-65,-2,4,10
1491087965821,3,-38,62,-53,-89,-48,-51,-16,-15
1491087965821,0,11,-12,9,38,35,13,4,13
1491087965821,0,-12,-60,-8,-15,-11,22,-4,5
1491087965856,1,14,79,-3,16,85,36,6,-16
1491087965856,1,-13,112,16,20,-86,-26,-20,-2
1491087965857,2,-5,127,-42,-24,-19,-33,-3,-5
1491087965857,2,-45,50,50,58,86,36,15,8
1491087965858,3,-32,59,-23,1,104,3,-16,-10
1491087965858,3,17,69,26,-40,-17,-11,-2,4
1491087965859,0,9,39,-30,27,19,24,-9,6
1491087965859,0,6,48,14,14,15,-9,1,0
1491087965894,1,33,4,-10,-35,-43,5,-9,-2
1491087965894,1,45,-10,-9,-3,-4,31,11,15
1491087965894,2,17,-26,3,18,21,-5,-6,-22
1491087965894,2,82,-10,26,32,17,20,12,6
1491087965895,3,32,11,14,-8,21,32,12,5
1491087965895,3,13,-15,-17,-16,-14,-38,-14,-22
1491087965896,0,33,-26,-9,-61,-67,-7,-1,-1
1491087965896,0,-51,-12,23,43,-37,-20,-16,1
1491087965969,1,-50,15,-9,5,28,-3,15,-1
1491087965969,1,-38,15,11,20,38,13,12,17
1491087965970,2,-15,16,-2,-1,-16,8,1,5
1491087965970,2,-15,5,-12,-36,-19,-10,-9,-11
1491087965970,3,-8,-112,-3,25,-17,6,1,1
1491087965970,3,-45,-62,-9,-42,-33,14,-6,-5
1491087965971,0,8,-62,13,12,-11,29,7,5
1491087965971,0,18,-13,5,-82,1,20,-2,2
1491087966006,1,1,-15,14,32,-39,-18,-20,5
1491087966006,1,16,-95,-24,3,-23,-5,4,-2
1491087966007,2,-35,-83,20,11,-8,-14,2,-11
1491087966007,2,3,-94,-18,-25,-28,-41,5,-3
1491087966008,2,-3,-55,15,16,-22,-7,-9,-5
1491087966008,2,-14,-48,-26,-5,-20,-9,0,-2
1491087966009,3,55,-54,-16,-17,-6,-5,12,6
1491087966009,3,-3,-55,15,18,12,-2,-6,-10
1491087966044,0,-5,-54,-2,-24,-13,-4,2,-1
1491087966044,0,2,-61,-3,11,-9,-13,-5,-4
1491087966045,1,-15,-45,-11,-3,-4,-19,-16,-4
1491087966045,1,-13,-78,-11,-12,5,19,10,-6
1491087966045,2,-3,3,3,-9,-18,-3,-2,2
1491087966045,2,1,-28,-2,28,-16,-21,-12,-3
1491087966048,3,-24,-104,-2,12,22,1,20,-9
1491087966048,3,12,-15,8,36,12,19,13,-11
1491087966081,0,0,-65,-28,-24,10,15,8,4
1491087966081,0,-11,-48,-1,5,6,6,-9,-3
1491087966082,1,-3,-88,15,17,-2,31,15,8
1491087966082,1,17,37,-12,-10,11,-23,-13,-1
1491087966083,2,57,-6,-1,-3,-5,20,11,17
1491087966083,2,15,-7,-2,16,6,4,-12,-2
1491087966084,3,46,-24,5,2,0,11,-15,-5
1491087966084,3,-4,-79,2,-12,21,5,-4,-20
1491087966119,0,-24,-102,-18,-15,15,7,-7,-1
1491087966119,0,0,-41,20,26,12,-8,0,1
1491087966120,1,-13,-112,4,14,13,13,2,14
1491087966120,1,21,-69,2,-15,-23,11,4,10
1491087966121,2,-82,-38,-13,-19,-1,-32,-20,-15
1491087966121,2,-22,-82,-6,2,-5,13,23,12
1491087966121,3,-19,-11,10,2,22,20,1,-2
1491087966121,3,22,-67,11,27,8,-6,5,5
1491087966156,0,32,-79,-5,-9,9,12,7,-5
1491087966156,0,-12,-53,-4,-16,-6,-4,-10,-8
1491087966157,1,-21,-8,13,19,-9,13,13,11
1491087966157,1,-60,-102,-22,-4,30,18,-5,-6
1491087966157,2,-31,-41,14,8,-20,-11,-6,-1
1491087966157,2,13,103,5,0,-14,-5,-13,-2
1491087966159,3,-1,127,-4,-11,26,12,14,2
1491087966159,3,12,72,-4,8,-12,-7,-3,-9
1491087966194,0,19,-30,4,-1,-1,-15,-20,-8
1491087966194,0,32,25,1,7,34,20,16,1
1491087966195,1,18,35,-17,-14,-58,8,-16,-6
1491087966195,1,0,25,14,19,31,8,-1,-1
1491087966231,2,-15,108,1,-5,-15,0,-1,14
1491087966231,2,-13,86,-22,-20,-30,-41,-31,-6
1491087966232,3,-18,-2,-10,-6,9,-17,-13,-21
1491087966232,3,6,92,10,10,23,18,15,5
1491087966233,0,-7,122,7,7,-47,-4,-12,-9
1491087966233,0,-27,89,-11,-11,26,37,22,17
1491087966234,1,9,48,-10,-12,-2,-16,-32,-6
1491087966234,1,-7,22,-4,2,-26,-26,-37,1
1491087966269,2,33,-112,22,12,34,-3,-2,3
1491087966269,2,-28,27,-9,-2,11,32,21,-4
1491087966270,3,44,24,11,8,8,-36,-10,11
1491087966270,3,8,115,-11,-9,-2,44,16,-11
1491087966270,0,-27,93,-4,5,-2,18,16,-3
1491087966270,0,-6,-58,-19,-22,-63,-43,-25,-39
1491087966271,1,-29,-75,2,-7,30,-45,-28,-9
1491087966271,1,4,-89,-4,-5,-1,-4,-2,2
1491087966306,2,3,-26,7,5,3,22,-5,-28
1491087966306,2,13,-91,4,21,-8,-3,14,6
1491087966307,3,-61,-30,-2,1,-32,38,-1,-5
1491087966307,3,0,-27,4,-2,40,5,-8,3
1491087966308,0,-56,-69,-14,-22,-30,-80,-19,-11
1491087966308,0,55,-73,3,-12,-24,50,35,8
1491087966309,1,36,98,-1,-1,18,-25,9,10
1491087966309,1,-37,53,-5,-20,22,-15,43,46
1491087966344,2,49,57,-11,1,-19,-53,-86,-48
1491087966344,2,-45,3,16,-3,23,5,-10,10
1491087966345,3,2,-76,-17,-19,-58,-25,20,0
1491087966345,3,24,11,-7,-4,-4,43,-9,-2
1491087966345,0,-8,-1,1,13,38,12,-12,-2
1491087966345,0,7,-7,0,2,-22,-12,-22,-18
1491087966346,1,25,-29,6,7,0,74,37,24
1491087966346,1,-37,-77,-33,-33,17,-72,-8,-14
1491087966381,2,26,87,17,9,-41,24,-18,-11
1491087966381,2,7,102,-4,-13,22,-16,-1,10
1491087966382,3,-43,109,-5,-1,-11,-13,-14,-19
1491087966382,3,44,84,8,43,19,22,26,4
1491087966383,0,-59,-80,-5,10,51,14,7,3
1491087966383,0,39,59,23,7,-25,46,33,23
1491087966384,1,-1,-128,-13,-15,-1,-64,-47,-4
1491087966384,1,8,-63,2,8,-46,6,17,15
1491087966419,2,26,-75,-5,-7,19,48,-10,4
1491087966419,2,-45,-41,-5,6,11,-66,-11,-9
1491087966420,3,-28,1,-16,4,1,6,14,-12
1491087966420,3,38,5,25,-12,-47,-47,9,17
1491087966422,0,54,-33,-1,11,32,78,50,23
1491087966422,0,-47,-128,-6,-12,18,-22,43,-9
1491087966422,1,-43,-39,1,11,-10,-27,-13,-9
1491087966422,1,51,19,0,13,31,83,10,-16
1491087966456,2,-20,117,4,-3,30,-27,-4,5
1491087966456,2,49,98,-27,-40,-22,-36,-27,-3
1491087966457,3,-40,121,13,-5,-52,5,-15,-12
1491087966457,3,-12,84,0,5,-3,-54,-8,-13
1491087966494,0,-36,85,-8,-12,13,34,26,24
1491087966494,0,-20,80,11,34,26,56,65,8
1491087966495,1,36,54,-1,-4,20,5,-75,0
1491087966495,1,-46,-7,2,5,-15,55,-25,-26
1491087966495,2,-40,15,-4,-20,-21,-75,1,-14
1491087966495,2,-36,-109,-5,20,11,14,21,7
1491087966496,3,-19,-47,0,-10,-9,-4,18,11
1491087966496,3,10,78,0,3,-18,-11,-30,-11
1491087966531,0,-27,101,3,18,-6,32,15,8
1491087966531,0,-20,68,-1,9,30,26,-24,-13
1491087966533,1,83,-6,-12,-13,-3,-33,-2,-1
1491087966533,1,-60,-128,-11,-10,-14,5,-40,-20
1491087966534,2,9,-118,13,11,-1,6,35,12
1491087966534,2,4,-72,-8,-25,8,3,22,2
1491087966535,3,12,-74,17,55,27,92,59,17
1491087966535,3,-29,-26,-12,-6,22,-93,-26,-2
1491087966570,0,10,-37,-7,-12,-48,-12,-37,1
1491087966570,0,-33,-19,-2,-14,-17,-34,-25,-27
1491087966571,1,9,-15,-3,-13,11,-27,29,12
1491087966571,1,1,21,-6,1,-16,74,35,19
1491087966572,2,-34,-56,-4,-20,-13,-65,-40,-23
1491087966572,2,54,21,-4,19,-10,-72,-48,7
1491087966574,3,41,69,4,4,14,47,21,-8
1491087966574,3,-52,59,19,6,2,-24,-42,-14
1491087966607,0,18,-78,-11,13,3,29,92,39
1491087966607,0,-55,-55,-3,-16,-9,76,-43,-19
1491087966609,1,-44,-99,-1,-2,-21,-82,-2,-17
1491087966609,1,75,-5,12,6,22,-5,-21,15
1491087966610,2,-11,-43,-2,-7,-1,-34,5,-4
1491087966610,2,57,-49,-20,-4,-5,-2,-9,7
1491087966611,3,52,-88,-1,5,-7,68,23,11
1491087966611,3,-83,-72,2,-26,-9,-42,-46,-46
1491087966644,0,127,-50,-2,-2,-21,27,5,12
1491087966644,0,24,-29,1,9,19,27,17,21
1491087966645,1,-38,31,-2,-1,7,-63,-42,-11
1491087966645,1,69,-14,-8,8,-8,3,14,12
1491087966646,2,-3,16,18,-1,-2,28,38,9
1491087966646,2,-70,35,-3,-5,36,55,-7,-30
1491087966647,3,-10,86,-2,-6,-10,-1,0,11
1491087966647,3,46,79,-2,-11,-31,-39,14,19
1491087966682,0,-39,91,-9,23,17,-47,-33,-22
1491087966682,0,87,81,-8,-13,-13,-20,-22,9
1491087966684,1,0,-11,-3,-3,16,55,20,-4
1491087966684,1,10,-4,8,16,-8,2,42,7
1491087966684,2,-33,11,-15,-29,-16,75,-42,-31
1491087966684,2,35,24,8,-1,-18,-113,-31,2
1491087966719,3,-11,-8,-11,-29,3,-31,-25,-29
1491087966719,3,2,-73,-5,9,14,72,75,18
1491087966722,0,37,-25,5,8,-4,-61,1,14
1491087966722,0,30,5,9,9,-18,3,7,21
1491087966723,1,-18,16,2,3,23,-22,-4,-4
1491087966723,1,-5,41,1,-11,0,27,-1,-18
1491087966723,2,33,61,0,3,8,-4,-31,-6
1491087966723,2,-74,-32,-11,-4,-16,0,5,-7
1491087966757,3,50,38,1,-2,0,25,28,22
1491087966757,3,-84,0,5,18,-5,-19,-12,-10
1491087966759,0,10,19,-7,-2,11,17,5,6
1491087966759,0,-9,39,21,28,12,8,-44,0
1491087966760,1,-36,-42,1,-8,-3,-21,-19,-7
1491087966760,1,45,-40,-3,-13,-1,28,8,7
1491087966761,2,-23,-14,-2,-2,-10,10,48,14
1491087966761,2,-14,-20,-15,-14,8,-15,-35,-27
1491087966794,3,16,39,11,-1,7,12,11,15
1491087966794,3,-3,17,-7,3,-7,-2,-34,-18
1491087966796,0,-57,3,-1,9,4,-16,-11,-2
1491087966796,0,64,28,-1,-19,-32,-8,-16,-12
1491087966797,1,11,23,10,4,-1,34,12,22
1491087966797,1,-25,-30,-18,-9,-9,-9,-11,-21
1491087966798,2,-9,2,-3,-2,-11,0,-1,-3
1491087966798,2,-37,-18,-9,0,19,8,33,-6
1491087966831,3,33,18,-12,-12,-21,-49,-52,-4
1491087966831,3,-15,6,22,22,-6,-2,18,6
1491087966832,0,56,10,1,11,17,13,14,18
1491087966832,0,-64,2,-3,4,-15,29,3,3
1491087966833,1,-10,3,-2,11,31,12,-11,-12
1491087966833,1,29,2,5,8,-7,-4,32,14
1491087966834,2,-52,11,-10,-9,11,8,8,-26
1491087966834,2,44,21,14,-14,1,0,-6,26
1491087966869,3,-57,-26,-12,5,-25,-30,-42,-32
1491087966869,3,9,-4,-13,-30,-3,17,-11,3
1491087966870,0,-9,12,7,11,-7,-67,51,10
1491087966870,0,55,-3,-3,7,5,-7,-37,-18
1491087966870,1,-74,-13,-7,-9,5,52,80,16
1491087966870,1,33,12,-2,12,-41,-44,-12,16
1491087966871,2,10,7,-2,-8,24,0,-17,14
1491087966871,2,-45,0,-10,-16,-17,20,43,-21
1491087966906,3,84,23,12,30,29,20,-32,12
1491087966906,3,15,21,17,-22,-19,-59,-18,8
1491087966907,0,-2,-5,-10,-7,-9,15,34,9
1491087966907,0,4,17,6,9,-49,1,-18,-15
1491087966908,1,-5,-16,-33,-26,54,4,4,6
1491087966908,1,-13,2,-11,-8,38,1,42,-14
1491087966909,2,83,10,18,35,3,24,-46,-23
1491087966909,2,-128,-7,-2,-38,12,1,-21,-28
1491087966944,3,2,-18,13,10,-104,-65,-1,-35
1491087966944,3,9,15,6,18,33,71,4,26
1491087966945,0,-25,-2,6,-4,14,-24,22,-9
1491087966945,0,121,-17,-14,12,9,38,-29,45
1491087966945,1,25,10,-12,-27,-15,-71,-42,-4
1491087966945,1,-128,-17,-6,-20,-56,-12,-7,-7
1491087966946,2,21,15,9,13,10,63,1,-9
1491087966946,2,21,11,13,51,112,25,21,27
1491087966981,3,-36,1,-37,-73,-60,-47,60,12
1491087966981,3,9,-2,18,1,-50,-28,-41,-20
1491087966982,0,-75,-20,-16,3,33,14,-24,-16
1491087966982,0,-3,-11,0,33,16,-32,3,3
1491087966983,1,46,0,-3,-39,0,76,80,21
1491087966983,1,10,-12,13,14,-63,-21,-20,2
1491087966984,2,-21,-17,0,-13,44,-22,-41,-3
1491087966984,2,-41,-20,-3,18,-14,6,-3,-4
1491087967019,3,46,-4,16,25,4,-21,9,-19
1491087967019,3,-18,1,-14,-26,-60,34,-10,22
1491087967019,0,54,-8,-10,11,85,65,36,9
1491087967019,0,-56,3,22,7,-83,-58,-21,-31
1491087967021,1,-22,-5,-21,-29,-52,-1,-15,34
1491087967021,1,-23,-66,-17,11,-37,-27,-7,-34
1491087967056,2,-2,-22,13,-15,-26,-33,-48,14
1491087967056,2,63,3,-7,11,104,15,76,30
1491087967057,3,-46,42,22,27,49,118,2,-10
1491087967057,3,42,24,9,10,98,10,36,-1
1491087967058,0,69,37,-11,-16,-19,34,-7,33
1491087967058,0,-44,-38,-30,-115,-52,-97,6,-13
1491087967059,1,-80,-17,23,77,37,55,-50,-38
1491087967059,1,102,6,-22,15,25,11,17,45
1491087967094,2,1,15,0,19,-83,10,-15,-37
1491087967094,2,3,24,7,13,-12,13,-31,-25
1491087967094,3,5,19,2,-23,75,-68,20,25
1491087967094,3,67,12,0,-26,30,89,45,-3
1491087967095,0,45,-1,-15,-38,-128,25,74,40
1491087967095,0,22,-10,-17,45,-51,-102,-37,-26
1491087967096,1,-128,-26,-2,7,38,54,-83,-76
1491087967096,1,43,19,9,62,17,61,-32,11
1491087967169,2,5,-6,14,-24,50,-111,-32,8
1491087967169,2,-107,-21,9,-22,-58,49,-48,-35
1491087967170,3,10,-31,-29,-78,-53,-54,3,3
1491087967170,3,-45,-15,-4,73,-92,-41,-48,-25
1491087967170,0,-22,-7,17,-4,105,127,-6,18
1491087967170,0,12,24,0,76,72,83,119,63
1491087967171,1,-19,10,-15,-75,-120,-4,-68,-19
1491087967171,1,12,-36,-55,-109,125,-11,-34,-10
1491087967206,2,33,-33,1,49,22,-27,-71,-29
1491087967206,2,-73,31,54,24,91,42,24,-11
1491087967207,3,127,43,13,117,119,127,87,71
1491087967207,3,-86,2,3,-78,-71,-128,-83,-66
1491087967207,0,3,23,-38,-53,-70,-32,-1,15
1491087967207,0,35,3,-12,-22,75,116,44,31
1491087967209,1,-21,12,-12,-31,-60,-102,-88,-68
1491087967209,1,-28,22,22,9,-48,109,9,33
1491087967244,2,-81,76,23,51,-128,-86,61,0
1491087967244,2,127,54,-41,-62,9,-74,-76,8
1491087967244,3,-92,-33,-20,-29,-67,-66,-25,-25
1491087967244,3,-19,-12,-36,-37,127,-128,-18,-25
1491087967245,1,96,79,34,64,123,14,9,5
1491087967245,1,-47,21,-8,-43,-128,-62,4,-14
1491087967246,2,-81,49,-51,-78,127,49,-103,-30
1491087967246,2,-15,70,-11,46,64,10,-19,21
1491087967281,3,25,22,-8,-112,-102,33,5,-27
1491087967281,3,21,-26,29,110,-42,76,-21,14
1491087967284,0,-40,-84,7,-2,32,-128,-12,1
1491087967284,0,-45,-113,-10,-21,-120,93,40,-28
1491087967285,1,68,-89,10,74,21,-69,-23,47
1491087967285,1,-3,-53,27,14,48,61,71,26
1491087967285,2,-42,-71,-23,-11,66,-98,-25,-62
1491087967285,2,-14,-65,-4,-43,-128,52,47,15
1491087967319,3,6,-35,25,34,101,72,-38,0
1491087967319,3,-9,-14,-24,-10,-50,-79,-59,-54
1491087967319,0,-13,-19,4,-36,-42,106,-4,-22
1491087967319,0,36,-52,6,79,127,31,4,5
1491087967320,1,14,-70,-16,-1,102,59,113,53
1491087967320,1,-12,-66,18,-70,-46,-32,-69,2
1491087967321,2,-33,-86,-13,-2,32,108,49,8
1491087967321,2,17,-64,-53,-67,-128,-95,-116,-66
1491087967356,3,0,-16,25,31,47,-42,54,23
1491087967356,3,16,-7,-24,4,66,127,-15,-3
1491087967357,0,17,8,75,90,47,65,61,21
1491087967357,0,27,-82,17,-12,65,-86,-44,-24
1491087967358,1,-33,-120,-41,-71,-128,9,-82,-43
1491087967358,1,-14,-79,-31,1,-15,-3,127,56
1491087967359,2,20,86,-27,-13,-120,41,-70,-22
1491087967359,2,-9,58,31,18,-3,-88,15,20
1491087967394,3,-32,70,-22,57,35,-43,-98,-46
1491087967394,3,-19,30,17,-13,104,19,-3,-11
1491087967432,0,68,49,47,74,-101,127,112,27
1491087967432,0,40,94,26,1,-83,-11,17,46
1491087967469,1,-32,-11,-37,-65,23,-76,-12,-8
1491087967469,1,-9,-6,-32,40,39,92,-4,-17
1491087967470,2,-21,35,-7,23,107,36,25,19
1491087967470,2,-3,68,-9,-28,-63,69,25,-9
1491087967470,3,3,37,42,-20,-116,23,35,9
1491087967470,3,20,30,7,38,-45,33,-16,2
1491087967471,0,-5,-53,-8,1,63,-37,88,20
1491087967471,0,-23,-64,-18,-25,-15,-29,-70,-18
1491087967506,1,-9,-2,-13,9,49,-15,17,9
1491087967506,1,3,19,-20,22,-61,-30,43,8
1491087967507,3,17,-14,26,22,-9,-43,51,23
1491087967507,3,16,29,23,73,-24,80,20,13
1491087967508,3,-7,-82,-34,-102,-128,16,-33,-8
1491087967508,3,2,-32,-8,20,127,25,55,-5
1491087967509,0,-20,-128,1,-7,-115,-75,-55,6
1491087967509,0,4,5,10,-19,127,42,23,-3
1491087967544,1,-3,-53,20,87,1,120,24,8
1491087967544,1,0,-19,13,-8,60,-41,-26,-3
1491087967544,2,11,37,-24,-58,-42,-21,7,-3
1491087967544,2,6,33,24,69,103,15,14,-7
1491087967545,3,-8,54,-17,-30,-54,-30,0,-10
1491087967545,3,-2,99,-8,-54,-128,-28,-33,7
1491087967546,0,-23,-24,5,47,94,-25,14,-12
1491087967546,0,-5,-10,-6,-13,-72,-29,-2,0
1491087967582,1,6,-13,13,62,46,105,37,12
1491087967582,1,-9,-128,26,63,79,4,-19,-12
1491087967582,2,-2,-71,-33,-72,-79,-45,-26,-28
1491087967582,2,-5,-128,-37,-105,-106,-69,-12,2
1491087967583,3,1,4,27,65,127,31,9,21
1491087967583,3,-1,-2,27,25,68,-12,15,-15
1491087967584,0,-4,105,-1,-3,-17,65,14,11
1491087967584,0,2,25,0,15,51,2,3,4
1491087967619,1,-8,127,-37,-53,-82,-64,-9,-9
1491087967619,1,-1,41,12,-11,-2,-11,-18,-2
1491087967620,2,2,-80,36,67,-31,55,24,-2
1491087967620,2,4,-123,-24,-44,58,-7,-2,-5
1491087967620,3,-6,-111,-17,-22,-73,-67,-33,-2
1491087967620,3,-5,-121,-32,-47,-35,-15,5,2
1491087967621,0,-8,-41,-16,-19,31,9,-11,-12
1491087967621,0,8,-121,25,30,-28,11,-5,0
1491087967656,1,-16,-33,3,60,127,81,34,-3
1491087967656,1,25,6,-4,-51,-68,-57,-26,-4
1491087967658,2,-21,30,-24,-45,-59,-38,-21,-5
1491087967658,2,8,20,-15,-4,21,17,0,1
1491087967658,3,3,17,32,18,78,23,10,-7
1491087967658,3,3,100,-12,11,-128,-9,-11,8
1491087967694,0,6,50,-20,-8,73,-4,7,-7
1491087967694,0,5,7,8,84,-22,-14,-17,8
1491087967695,1,-12,-103,-14,-42,38,-39,-14,-15
1491087967695,1,-6,-80,10,-25,44,-8,7,8
1491087967695,2,6,-81,-1,35,29,33,8,3
1491087967695,2,-9,-101,-12,-39,-46,14,-7,-7
1491087967696,3,-1,-128,-19,28,0,-5,-28,-2
1491087967696,3,-20,-128,29,2,-3,-2,-21,-11
1491087967731,0,-41,-43,14,42,116,41,18,5
1491087967731,0,23,5,-25,-23,-66,26,9,4
1491087967732,1,11,127,-6,-51,-79,-81,-32,1
1491087967732,1,14,13,-8,12,8,-10,-5,6
1491087967733,2,-9,-8,7,18,20,-1,-15,-2
1491087967733,2,-29,102,26,74,36,14,17,-3
1491087967734,3,-16,98,-7,-35,12,44,23,-1
1491087967734,3,-43,85,-42,-39,4,-18,-15,-12
1491087967769,0,19,35,-16,-21,-23,-7,-4,-4
1491087967769,0,-9,15,23,40,45,42,16,6
1491087967770,1,29,11,-22,-23,46,-7,-21,13
1491087967770,1,3,-1,-1,-1,-74,-29,-15,-8
1491087967771,2,-26,-13,-38,-10,31,27,12,-10
1491087967771,2,-3,56,7,-41,-13,-16,-8,-15
1491087967771,3,-10,-22,-7,2,24,17,24,-12
1491087967771,3,24,-60,3,4,20,32,3,2
1491087967806,0,-13,-53,37,11,54,19,18,1
1491087967806,0,17,61,6,-6,-127,-25,-29,-4
1491087967808,1,-22,92,-17,1,-22,-10,-16,-2
1491087967808,1,42,100,-14,-11,-7,5,9,13
1491087967808,2,20,111,-1,-30,-50,-11,-19,-5
1491087967808,2,-57,-56,-9,-14,70,19,10,-3
1491087967809,3,45,-30,31,28,-41,2,-3,11
1491087967809,3,1,8,34,28,-24,-4,-2,-9
1491087967844,0,12,34,-29,-44,-20,-13,-17,2
1491087967844,0,-1,-9,8,13,5,-24,-17,-5
1491087967844,1,3,-45,-4,-7,-30,-27,4,-6
1491087967844,1,-27,-91,12,-18,22,-14,11,7
1491087967845,2,42,-27,-7,-10,-14,-22,0,8
1491087967845,2,6,-42,-4,1,-29,-26,1,-1
1491087967846,3,-19,-88,-7,-20,-28,-9,12,1
1491087967846,3,7,-68,0,-11,2,-10,5,-7
1491087967882,0,-24,-24,7,7,-22,-15,-11,-5
1491087967882,0,17,-57,10,-41,-25,-5,13,16
1491087967884,1,15,-57,-12,12,-5,-2,7,-4
1491087967884,1,-25,-79,6,-10,2,-5,-9,-11
1491087967885,2,46,-123,0,27,-22,-2,-10,8
1491087967885,2,14,-90,-9,-5,-1,-7,-13,-13
1491087967886,3,-23,-87,7,11,0,5,-2,1
1491087967886,3,-5,-86,-15,-11,2,3,-10,-4
1491087967919,0,-28,-76,46,35,-16,-2,-7,-3
1491087967919,0,0,-60,-15,1,5,-12,-14,-1
1491087967920,1,-2,-82,-5,-6,-3,1,1,-1
1491087967920,1,-5,-94,11,4,-6,7,10,-2
1491087967921,2,-3,-104,-25,-11,6,12,13,-2
1491087967921,2,-7,-99,2,7,-2,-3,8,-1
1491087967922,3,-3,-64,-12,2,-6,-6,-1,-5
1491087967922,3,-7,-62,6,-13,-3,-7,-3,0
1491087967957,0,-5,-100,16,23,1,8,7,1
1491087967957,0,-7,-117,-10,35,14,-1,5,-17
1491087967959,1,-10,-120,4,11,13,7,3,-13
1491087967959,1,-6,-15,-14,8,0,2,4,-4
1491087967960,2,-55,18,5,-11,-4,0,-2,3
1491087967960,2,-14,120,-12,-7,-3,-5,2,-1
1491087967961,3,-5,-60,24,27,31,5,3,4
1491087967961,3,1,-80,-20,-7,16,-7,1,2
1491087967994,0,37,-118,7,-9,-4,-5,-5,5
1491087967994,0,14,-110,2,-6,-7,0,-5,0
1491087967996,1,25,-51,-18,-48,1,-10,-14,-9
1491087967996,1,11,-84,4,12,14,23,3,4
1491087967997,2,27,-70,-14,15,34,15,10,2
1491087967997,2,23,-76,15,17,-9,0,-2,6
1491087967998,3,-2,-64,1,6,-9,17,8,1
1491087967998,3,4,-103,2,-25,-1,-20,-3,2
1491087968032,0,-20,-60,-23,2,-12,-19,-11,-7
1491087968032,0,6,18,-2,-22,18,-7,-14,1
1491087968033,1,-9,-107,13,8,0,7,-5,-2
1491087968033,1,-2,-93,14,27,2,21,14,8
1491087968034,2,-5,-112,5,4,-3,17,-5,-12
1491087968034,2,7,-128,-13,-9,25,2,15,10
1491087968069,3,-20,-84,-5,-12,-42,-12,-34,-34
1491087968069,3,-25,36,-14,-11,-16,-44,0,3
1491087968071,0,-12,75,7,2,10,2,-11,-19
1491087968071,0,1,80,1,-4,16,23,16,5
1491087968072,1,9,115,-4,-15,-14,5,3,17
1491087968072,1,-7,92,-3,-4,-28,-19,-20,-8
1491087968106,2,-22,96,-13,-9,12,6,2,-1
1491087968106,2,-24,101,-19,-32,-5,24,10,2
1491087968109,3,10,83,13,16,26,-47,-15,-3
1491087968109,3,-1,127,9,19,2,39,27,3
1491087968110,0,1,122,-3,4,16,26,6,32
1491087968110,0,5,67,-2,-15,14,-25,3,-39
1491087968111,1,-42,57,0,2,-63,-45,-76,-25
1491087968111,1,37,14,-10,-27,-11,8,9,6
1491087968144,2,14,72,-2,-18,-45,-7,-17,-3
1491087968144,2,11,60,4,32,44,34,37,54
1491087968147,3,-5,46,2,-12,25,34,32,11
1491087968147,3,-32,-39,-9,-22,-4,-26,-16,-19
1491087968148,0,-6,-9,4,26,29,47,7,-1
1491087968148,0,14,-128,22,13,-13,-13,5,-16
1491087968149,1,41,-77,-14,-16,-23,-7,33,15
1491087968149,1,-40,-106,15,26,-16,43,19,15
1491087968181,2,46,-82,-8,-7,-6,-33,-22,-21
1491087968181,2,-58,-57,-18,-53,-41,-59,-36,-39
1491087968182,3,82,-34,14,47,52,82,50,26
1491087968182,3,-25,60,-10,-2,-17,-67,-26,-26
1491087968183,0,-1,61,3,-2,36,32,-2,-1
1491087968183,0,5,-68,-21,-2,-37,-30,-58,-4
1491087968184,1,-57,44,-2,-23,2,6,14,-14
1491087968184,1,23,-38,-7,-10,20,7,11,17
1491087968219,2,17,-29,25,35,47,21,-1,-3
1491087968219,2,8,9,3,-2,-32,-74,-42,-4
1491087968220,3,-28,48,-18,-26,-28,38,41,16
1491087968220,3,48,66,-15,10,-33,-33,-50,11
1491087968221,0,-31,53,-16,-34,-84,-99,-49,-56
1491087968221,0,58,32,-1,-21,2,69,25,37
1491087968256,1,-28,-26,4,25,20,-20,19,9
1491087968256,1,62,31,8,25,49,63,15,20
1491087968258,2,-80,64,11,-14,11,-1,25,9
1491087968258,2,-3,57,-6,5,-35,10,21,-1
1491087968260,3,-35,-51,-8,-6,15,-6,-15,-28
1491087968260,3,48,-19,-2,-20,5,-15,-37,-2
1491087968261,0,44,-128,-10,12,-40,35,65,32
1491087968261,0,-49,-117,8,20,63,-19,-34,-12
1491087968294,1,-59,-73,0,-5,-30,-49,-5,-11
1491087968294,1,52,-6,14,10,15,19,24,-8
1491087968296,2,6,38,-14,-13,1,-22,-22,4
1491087968296,2,-65,125,16,24,52,9,4,-17
1491087968297,3,-88,119,-13,-19,-8,18,5,7
1491087968297,3,8,105,-2,9,-80,-16,-3,12
1491087968298,0,3,121,-5,-28,-18,-56,-26,-28
1491087968298,0,32,-45,-8,13,1,59,74,41
1491087968332,1,47,-57,9,5,65,7,-45,-23
1491087968332,1,-56,22,-4,2,28,69,-3,-12
1491087968369,2,-5,-7,-5,-1,-23,-59,-32,-3
1491087968369,2,-84,7,-3,-8,-8,20,2,-15
1491087968370,3,17,-22,1,15,19,32,29,1
1491087968370,3,23,-53,-3,13,27,-14,-60,-23
1491087968371,0,-5,-32,-3,-5,0,49,-10,13
1491087968371,0,22,119,-16,-32,-21,-55,0,-31
1491087968372,1,-63,127,8,9,-33,-10,-62,-2
1491087968372,1,-82,-21,2,12,18,13,37,-5
1491087968407,2,1,-96,4,2,-33,33,19,14
1491087968407,2,62,-70,12,18,43,-14,-26,4
1491087968408,3,23,-65,-3,-19,-50,-12,45,23
1491087968408,3,-76,-98,-6,-8,51,56,9,-25
1491087968410,1,35,-1,3,-8,-18,-32,-53,-5
1491087968410,1,-65,2,-9,-31,-53,-88,20,-39
1491087968411,2,63,23,0,19,46,33,35,22
1491087968411,2,12,49,-5,-12,-4,33,-61,-7
1491087968444,3,33,-66,-7,6,25,-27,14,16
1491087968444,3,57,-24,0,-22,-29,-12,-18,-2
1491087968447,0,-91,-12,-1,-6,0,27,7,-10
1491087968447,0,105,-25,3,-1,-17,-52,16,23
1491087968448,1,12,24,-16,11,8,38,-23,-17
1491087968448,1,-82,-80,10,6,-1,-19,7,11
1491087968450,2,-24,-70,-2,3,17,15,35,-12
1491087968450,2,1,-103,-8,-39,-30,-15,-38,-1
1491087968481,3,3,-118,22,41,13,29,40,6
1491087968481,3,8,-43,-6,7,15,39,-4,-3
1491087968482,0,33,-110,4,-17,8,12,6,-9
1491087968482,0,-34,-91,-4,5,-4,-1,6,1
1491087968483,1,-10,59,8,-16,1,-24,-4,-14
1491087968483,1,1,107,10,-3,19,39,59,32
1491087968484,2,37,127,4,7,3,-13,-20,23
1491087968484,2,4,127,-5,3,-14,0,-18,-9
1491087968519,3,18,78,-2,8,-3,-16,12,-1
1491087968519,3,-6,78,-7,-5,4,-21,-8,-3
1491087968520,0,-9,44,-3,-13,3,59,1,-1
1491087968520,0,-21,-20,-1,-14,-40,-98,-27,-15
1491087968521,1,17,17,-1,1,33,19,18,6
1491087968521,1,16,13,-5,5,-4,-19,-24,3
1491087968522,2,-24,12,-9,-31,-16,-15,-8,-6
1491087968522,2,19,26,-12,5,7,62,7,-12
1491087968556,3,29,-28,-3,-9,-7,20,47,39
1491087968556,3,-8,-23,17,13,30,-23,-28,-6
1491087968557,0,-67,-79,-8,9,-20,3,-73,-38
1491087968557,0,-13,-19,6,-5,-17,-7,54,21
1491087968557,1,9,1,-8,-25,-31,-60,-71,-25
1491087968557,1,2,-7,0,13,-19,4,-25,-14
1491087968559,2,1,11,-7,16,34,8,29,24
1491087968559,2,-41,45,6,10,-5,5,-18,-7
1491087968594,3,-32,12,-15,-19,-16,0,-17,-14
1491087968594,3,20,33,4,-13,-14,-47,6,20
1491087968595,0,-9,12,-2,13,2,1,8,-18
1491087968595,0,-19,-34,-3,-7,22,0,7,-3
1491087968596,1,18,7,3,2,0,3,-35,6
1491087968596,1,-42,14,5,-3,-2,27,7,2
1491087968596,2,-13,-18,-8,-1,0,14,14,-1
1491087968596,2,41,31,12,11,17,8,2,10
1491087968631,3,42,5,-11,5,0,34,7,13
1491087968631,3,-33,-26,-10,-14,-20,-42,13,-8
1491087968633,0,-5,-24,-13,-29,-10,-20,18,-1
1491087968633,0,-1,1,4,17,-6,4,4,6
1491087968634,1,-31,-7,6,1,8,-3,-12,-8
1491087968634,1,76,19,-10,5,5,22,-1,13
1491087968635,2,-28,23,8,-2,-13,8,-17,-7
1491087968635,2,-29,8,13,1,10,-27,-27,-49
1491087968669,3,49,11,4,15,14,-14,11,8
1491087968669,3,59,-14,-13,-10,-6,13,-31,-7
1491087968670,0,23,18,2,-12,-9,7,62,13
1491087968670,0,-38,8,-2,9,-4,-21,-49,1
1491087968670,1,36,12,-5,-23,-2,9,-22,-2
1491087968670,1,-1,4,-3,10,16,9,17,-14
1491087968671,2,22,36,2,4,10,-26,-16,3
1491087968671,2,-27,9,-9,11,-8,52,35,15
1491087968706,3,-42,-8,1,2,-16,-47,-49,-35
1491087968706,3,25,25,-8,-6,24,24,58,22
1491087968708,0,4,9,7,18,-9,14,-25,-12
1491087968708,0,39,47,2,-10,9,1,14,11
1491087968709,1,-23,27,-9,10,13,-5,-7,-15
1491087968709,1,-50,33,-3,-7,-35,6,-32,-18
1491087968710,2,59,-3,-4,-18,24,-66,32,3
1491087968710,2,13,-32,-12,-6,-32,4,22,16
1491087968744,3,-49,-38,-4,-23,-23,2,-9,-4
1491087968744,3,41,-9,25,20,51,-4,-19,-2
1491087968744,0,7,0,6,16,-22,41,-6,12
1491087968744,0,-59,-35,-12,-20,9,10,31,-10
1491087968746,1,17,-47,-25,-25,3,-12,-4,15
1491087968746,1,-49,-25,7,13,-6,-14,3,-22
1491087968781,2,33,12,-5,9,1,-18,-63,-12
1491087968781,2,-39,2,4,-4,25,38,26,15
1491087968785,3,21,-25,-3,-10,-48,-10,23,-13
