1491089151522,0,-96,-100,-111,-105,-90,-76,-109,2
1491089151522,0,11,7,58,109,-1,72,5,-22
1491089151524,1,42,26,67,119,14,42,25,-8
1491089151524,1,24,25,52,78,22,13,21,2
1491089151525,2,23,26,44,44,29,-18,28,-9
1491089151525,2,-12,-10,-23,-37,-9,-38,-8,2
1491089151559,3,-20,-21,-32,-61,-17,-26,-5,-2
1491089151559,3,-7,-6,-7,-27,-3,-15,38,-11
1491089151562,0,23,10,0,-13,13,11,-38,2
1491089151562,0,-33,-9,-21,-33,-14,-10,-34,-5
1491089151562,1,11,-4,-1,-6,9,11,18,-2
1491089151562,1,-14,-7,-20,-33,-10,1,-12,3
1491089151563,2,30,22,10,8,9,23,28,1
1491089151563,2,-22,-22,-14,-21,-1,-4,-6,0
1491089151634,3,-10,-6,-10,-22,-6,-10,-2,5
1491089151634,3,-2,-10,-10,0,-4,-5,-25,-2
1491089151635,0,25,21,21,22,8,14,28,0
1491089151635,0,1,3,2,-5,0,-13,7,-8
1491089151636,1,-21,-14,-17,-15,-7,-4,14,0
1491089151636,1,-7,-11,-8,-5,-9,-1,-24,-5
1491089151640,2,14,19,23,34,10,17,16,2
1491089151640,2,29,7,-4,-8,-2,-4,7,7
1491089151671,3,-5,1,-3,-2,0,-4,-11,0
1491089151671,3,20,-1,0,8,-3,0,-6,9
1491089151673,0,-24,-10,3,0,0,2,43,-6
1491089151673,0,17,2,-2,6,7,-9,-8,6
1491089151673,1,-28,-5,-5,-13,-2,-15,-15,-14
1491089151673,1,27,17,6,13,-2,-21,-5,3
1491089151674,2,-14,-10,0,16,-1,-19,8,-3
1491089151674,2,-3,-2,2,8,4,-9,15,3
1491089151709,3,22,9,3,2,2,5,-5,3
1491089151709,3,-28,-8,-9,-12,-1,2,-4,-10
1491089151710,0,1,-3,0,-5,-2,27,-3,0
1491089151710,0,-6,6,3,9,9,20,0,-3
1491089151711,2,-5,-1,-3,-8,1,3,-9,-1
1491089151711,2,8,5,4,15,-3,-6,-9,1
1491089151712,3,15,4,1,6,5,6,9,0
1491089151712,3,-11,-6,-4,-5,-7,0,-13,-5
1491089151746,0,3,-4,-1,-3,1,4,-11,3
1491089151746,0,-2,-1,-3,-7,-2,4,52,0
1491089151750,1,9,5,2,5,-4,-7,-94,-5
1491089151750,1,-23,-10,-7,-7,1,3,24,-1
1491089151753,2,13,3,1,-4,0,11,-2,-1
1491089151753,2,1,3,-1,-1,-3,11,-10,0
1491089151754,3,-11,2,-1,3,-6,3,6,2
1491089151754,3,-3,-7,-2,-9,-2,-6,17,3
1491089151784,0,-19,-5,0,8,-1,-2,6,-12
1491089151784,0,3,-6,-6,-12,-2,-2,-12,0
1491089151785,1,-2,4,2,5,-1,0,10,2
1491089151785,1,18,-8,-2,7,-6,-9,-37,-2
1491089151785,2,10,2,3,-1,5,-2,29,6
1491089151785,2,1,2,-2,-5,-7,-12,-3,-2
1491089151786,3,-19,-8,-4,1,1,-3,-13,-11
1491089151786,3,6,8,0,0,6,26,15,7
1491089151821,0,-10,-1,0,4,3,17,-5,-4
1491089151821,0,-2,-8,-7,-20,-6,-4,-49,-8
1491089151823,1,-3,3,1,6,-2,-9,-10,-2
1491089151823,1,7,1,-2,1,1,-7,-2,2
1491089151824,2,30,13,6,11,-3,0,1,8
1491089151824,2,6,-4,-1,-3,2,13,33,3
1491089151824,3,-38,-17,-7,-18,-4,10,20,-3
1491089151824,3,16,4,2,3,0,-7,-9,-2
1491089151859,0,-9,5,5,3,-2,-10,19,1
1491089151859,0,13,9,4,1,2,-5,8,-2
1491089151860,1,24,4,1,6,-3,-8,-56,4
1491089151860,1,-48,-14,-5,-4,2,-3,-2,-16
1491089151861,2,25,10,0,9,9,-4,26,9
1491089151861,2,-22,-14,-3,-14,-10,-13,-32,-7
1491089151896,3,2,-6,-7,0,-6,-4,71,5
1491089151896,3,14,1,2,-5,-3,-13,-57,-2
1491089151897,0,-19,-3,1,-1,-5,-7,-22,-11
1491089151897,0,-2,-3,-3,19,8,4,12,0
1491089151898,1,1,3,3,4,-5,0,14,-1
1491089151898,1,18,11,2,7,-4,-2,21,3
1491089151899,2,3,-4,-6,-14,0,3,7,2
1491089151899,2,-4,-7,-4,-1,-2,-1,-20,-4
1491089151934,3,12,8,5,3,2,-3,11,9
1491089151934,3,-4,-13,-8,-13,-8,109,31,-13
1491089151935,0,-4,-1,-3,-8,-3,73,-37,-2
1491089151935,0,-10,2,3,-1,2,27,23,0
1491089151936,1,0,-4,1,1,7,-13,27,7
1491089151936,1,-10,4,3,5,-2,-55,-19,-3
1491089151936,2,-7,-4,-3,-2,1,-32,9,-4
1491089151936,2,4,4,-1,-9,-4,-22,-10,2
1491089152009,3,20,2,-2,4,-3,-10,22,3
1491089152009,3,-10,-6,1,2,3,-20,1,6
1491089152010,0,13,1,1,11,-8,-24,16,-2
1491089152010,0,-20,0,-2,-1,7,-17,-28,-4
1491089152011,1,-22,-12,-7,-18,-2,-5,-48,-10
1491089152011,1,33,22,4,8,2,1,41,10
1491089152012,2,-45,-28,-16,-20,-9,-21,-33,-16
1491089152012,2,20,15,8,5,-1,-7,50,12
1491089152046,3,-14,-11,-12,-16,-7,4,-34,-15
1491089152046,3,-1,-14,-3,-7,4,-5,-21,-5
1491089152048,0,2,-4,-1,5,-2,-6,4,2
1491089152048,0,8,6,1,7,-1,-6,-12,-2
1491089152049,0,-18,0,0,-5,0,-2,20,-2
1491089152049,0,9,5,4,15,4,10,-42,0
1491089152049,1,-34,-18,-9,-10,-10,-8,-24,-20
1491089152049,1,-11,-5,-3,0,2,4,33,8
1491089152084,2,15,1,-2,-6,6,-5,-97,-5
1491089152084,2,14,2,0,-3,-4,-5,33,-1
1491089152084,3,17,11,10,16,-3,5,3,5
1491089152084,3,-14,-2,-1,0,-7,-12,1,-6
1491089152085,0,5,-7,-8,1,2,-5,42,-3
1491089152085,0,-10,0,5,-3,3,-8,-7,-3
1491089152086,1,19,-16,-13,-19,0,2,3,10
1491089152086,1,-2,-8,-6,-9,-1,0,-19,-3
1491089152121,2,9,10,8,23,-4,10,64,8
1491089152121,2,-12,5,-2,-3,-5,5,-51,-10
1491089152123,3,26,11,5,13,4,17,2,4
1491089152123,3,-14,1,0,-7,0,-4,-32,-4
1491089152124,0,-14,-4,-3,-8,-4,-16,-15,-1
1491089152124,0,-8,-13,-10,-8,-9,-8,20,-1
1491089152125,1,-16,4,2,-2,4,-5,9,-2
1491089152125,1,13,4,0,7,2,-1,-13,1
1491089152158,2,0,2,5,3,-5,14,-28,-7
1491089152158,2,10,-2,-5,-2,-5,13,25,2
1491089152159,3,-4,5,3,3,4,9,1,-2
1491089152159,3,16,20,13,22,6,-15,8,2
1491089152160,0,-32,-32,-25,-46,-23,-11,-45,-11
1491089152160,0,-1,-15,0,-7,-6,-1,-7,7
1491089152161,1,11,12,11,8,8,4,68,-1
1491089152161,1,-1,-28,-18,-7,-2,-7,-5,-5
1491089152233,2,36,35,17,25,1,-3,9,14
1491089152233,2,-51,-31,-17,-12,-6,-18,-52,-22
1491089152234,3,-10,2,6,4,0,9,45,7
1491089152234,3,-12,8,7,-13,-2,-17,-83,-8
1491089152235,0,11,-3,-3,3,-6,-5,43,8
1491089152235,0,-9,-1,-4,0,5,4,16,-4
1491089152236,1,5,1,-2,-2,-7,-2,-22,-1
1491089152236,1,-2,2,-3,1,5,18,41,1
1491089152271,2,-8,0,1,-1,5,1,-31,-6
1491089152271,2,20,13,9,13,-3,11,60,14
1491089152272,3,11,15,3,-1,2,-7,-52,0
1491089152272,3,-43,-41,-20,-14,-17,-10,22,-15
1491089152272,0,-8,2,8,6,4,3,-40,-7
1491089152272,0,3,-6,-8,-9,1,2,28,-5
1491089152273,2,-20,-6,-3,11,3,1,-24,-8
1491089152273,2,0,5,2,-5,-5,-17,28,3
1491089152308,3,-14,-3,-8,-8,-7,-11,-60,-11
1491089152308,3,6,8,2,-5,-7,4,12,3
1491089152309,0,-22,-18,-13,-10,2,-2,16,-6
1491089152309,0,25,13,3,-5,-6,-4,-7,6
1491089152310,2,7,11,4,5,3,-1,22,1
1491089152310,2,4,-1,-3,3,1,-2,-29,1
1491089152311,3,-12,-1,4,7,5,1,3,-10
1491089152311,3,18,10,0,-11,-1,5,0,5
1491089152346,0,-17,-6,1,1,-5,4,-2,-8
1491089152346,0,10,-11,-5,-3,8,5,13,5
1491089152347,1,6,-2,-1,0,-9,-5,-22,0
1491089152347,1,1,-1,-3,4,-2,1,-11,-2
1491089152348,2,8,-2,-3,-2,-6,0,5,3
1491089152348,2,5,6,5,3,4,2,21,2
1491089152349,3,-12,-5,-7,-8,0,3,-28,3
1491089152349,3,-4,-3,0,3,8,14,2,-7
1491089152383,0,22,10,5,-8,-3,5,-2,6
1491089152383,0,-14,1,2,9,-1,-3,9,-14
1491089152384,1,24,12,4,11,-3,-5,12,10
1491089152384,1,1,-2,-3,-8,-2,-5,6,1
1491089152385,2,-21,-7,-3,3,-3,-8,-7,-6
1491089152385,2,7,-11,-3,3,3,7,34,1
1491089152386,3,28,14,3,5,4,-2,9,6
1491089152386,3,-26,-1,1,-2,-3,-9,-47,-11
1491089152421,0,-12,-8,-5,-13,3,0,2,1
1491089152421,0,-4,5,2,0,-2,-7,-29,-3
1491089152422,1,21,-8,-7,-3,0,-1,31,1
1491089152422,1,-10,-5,-2,-3,-6,-2,2,-3
1491089152423,2,13,7,3,3,-2,-9,0,0
1491089152423,2,8,-2,-8,-11,-7,-7,-36,0
1491089152423,3,-22,-5,2,5,0,9,10,0
1491089152423,3,15,4,-4,2,1,7,15,3
1491089152458,0,-15,-15,-6,-21,-4,0,1,-5
1491089152458,0,-9,-2,0,8,-5,1,-41,-3
1491089152459,1,-6,5,4,5,-2,-9,-40,-8
1491089152459,1,-3,-2,0,2,-4,36,-16,-2
1491089152460,2,-3,-3,-1,0,5,26,-11,-7
1491089152460,2,12,10,3,-6,2,2,0,4
1491089152461,3,-12,-11,-13,-19,-1,-11,-15,-7
1491089152461,3,11,-4,4,22,-1,-25,-10,0
1491089152496,0,14,8,2,-1,-3,-10,23,2
1491089152496,0,-13,2,6,6,9,-1,-35,-2
1491089152497,1,-32,-5,-1,-9,-8,-8,69,-1
1491089152497,1,17,-5,-6,6,-1,-14,-1,9
1491089152497,2,-4,-3,-5,2,-3,-8,25,-4
1491089152497,2,12,3,-1,-10,-8,-8,11,-1
1491089152498,3,3,-3,-2,-5,5,-7,-12,1
1491089152498,3,-7,-4,-5,-24,-9,-10,4,-6
1491089152533,0,33,4,2,24,9,8,12,12
1491089152533,0,-37,-14,-7,-20,-11,-5,-31,-14
1491089152534,1,2,2,-3,-4,-2,29,31,-2
1491089152534,1,0,1,3,7,-8,2,-49,5
1491089152535,2,4,2,-1,4,5,4,11,3
1491089152535,2,11,11,5,4,8,15,-11,1
1491089152536,3,-6,-17,-8,0,-6,-7,-19,-3
1491089152536,3,-6,-3,0,-4,2,1,12,-1
1491089152571,0,9,2,-1,-3,-5,-13,-10,-7
1491089152571,0,-3,-1,1,6,1,-12,8,2
1491089152572,1,1,-7,-3,0,0,-1,4,3
1491089152572,1,-11,6,5,6,8,-10,-19,-4
1491089152573,2,3,-1,-5,-13,2,-6,-15,3
1491089152573,2,-12,-9,-4,1,1,1,28,-4
1491089152573,3,-9,-1,4,5,-8,-2,-12,-2
1491089152573,3,15,4,-1,-1,-1,-7,82,7
1491089152608,0,-4,18,6,2,-1,-6,-52,-8
1491089152608,0,15,-16,-14,-9,0,-3,-21,2
1491089152609,1,8,2,4,11,-4,-5,26,-3
1491089152609,1,-16,-7,-2,-7,1,6,-21,-3
1491089152610,2,-30,-8,-6,-12,-14,1,11,-10
1491089152610,2,-15,-5,-6,5,-6,-10,29,-5
1491089152646,3,0,1,-1,-4,2,-4,-45,-6
1491089152646,3,27,15,5,8,1,-5,16,6
1491089152647,0,-22,-15,-3,4,-2,-8,-13,-6
1491089152647,0,-11,-12,-8,-12,-4,0,8,-1
1491089152647,1,14,14,6,-4,-7,-2,8,1
1491089152647,1,9,-8,0,3,-3,-12,-39,-4
1491089152648,2,22,-6,-4,0,1,4,57,11
1491089152648,2,-35,-3,2,3,3,-1,-2,-10
1491089152684,3,-15,-8,-6,-5,1,8,1,-3
1491089152684,3,8,5,-2,-18,1,14,-5,-5
1491089152685,0,-14,-7,0,9,2,-3,7,2
1491089152685,0,-11,-4,0,3,-3,5,36,-4
1491089152686,1,13,7,-1,1,-1,-8,-39,5
1491089152686,1,4,7,2,-6,-2,10,7,-2
1491089152687,2,-10,-8,-1,0,11,1,5,0
1491089152687,2,37,16,8,10,0,12,-18,9
1491089152721,3,-44,-20,-8,-12,-9,4,7,-9
1491089152721,3,-17,-10,-6,0,5,-3,34,0
1491089152722,0,34,24,1,-10,-8,-6,-104,-1
1491089152722,0,-35,-12,-3,-11,2,8,25,0
1491089152723,1,14,10,10,10,6,-9,3,4
1491089152723,1,-8,-14,-9,-3,-10,-14,37,-2
1491089152723,2,-8,1,-2,5,-5,-6,0,-9
1491089152723,2,17,0,2,6,-2,-5,-4,1
1491089152758,3,-9,-9,-1,2,12,-1,2,0
1491089152758,3,6,5,7,-4,-13,-8,-36,4
1491089152759,0,-9,-13,-11,-12,-12,-12,-39,-7
1491089152759,0,-16,-1,-1,-6,-2,0,21,-5
1491089152760,1,-2,-4,-4,3,6,0,22,-1
1491089152760,1,-5,10,5,6,4,-4,-5,1
1491089152796,2,6,-4,-2,-7,-1,1,11,-2
1491089152796,2,20,6,0,11,5,5,9,7
1491089152797,3,10,5,1,7,-8,2,5,-3
1491089152797,3,-7,-11,-4,-4,7,7,-15,-10
1491089152797,0,-3,-6,-6,-13,-1,-1,23,1
1491089152797,0,-6,-1,1,2,-5,-1,-17,-8
1491089152798,1,-12,-6,0,2,-2,1,16,-2
1491089152798,1,38,10,-2,-5,-3,-1,-37,9
1491089152833,2,-42,-7,0,0,-5,1,36,-12
1491089152833,2,1,1,0,10,5,-13,-34,2
1491089152834,3,30,1,-6,-19,-2,1,24,-3
1491089152834,3,-24,-4,-2,6,-2,3,6,-1
1491089152835,0,10,-5,-5,-8,-3,0,17,5
1491089152835,0,-28,-5,-1,-11,2,3,7,-9
1491089152836,1,-7,0,0,1,-2,-9,-52,-2
1491089152836,1,-6,-6,-5,4,-8,0,48,-5
1491089152871,2,16,6,5,9,6,-2,-32,7
1491089152871,2,26,4,-4,-9,-10,-8,39,-3
1491089152872,3,13,7,-2,-6,3,3,-7,2
1491089152872,3,-45,-25,-6,-3,-2,-3,2,-26
1491089152872,0,15,6,7,19,5,13,-28,5
1491089152872,0,2,0,2,-2,2,11,22,5
1491089152873,1,-18,-11,-9,-13,-8,-4,6,-3
1491089152873,1,45,10,-2,3,3,-1,24,8
1491089152908,2,-21,-2,-2,-14,-9,-11,10,-2
1491089152908,2,-7,-15,-12,-4,-1,-5,-35,-3
1491089152909,3,30,18,12,15,-4,1,9,4
1491089152909,3,-3,-4,-3,-7,-4,-1,-17,5
1491089152910,0,-5,-4,2,8,3,1,60,-6
1491089152910,0,10,2,-4,-15,-3,-1,-34,2
1491089152946,1,-27,-7,-2,3,1,0,-7,-10
1491089152946,1,-9,-3,-2,2,2,1,-42,-8
1491089152947,2,14,5,4,1,4,-8,-18,4
1491089152947,2,1,-2,-4,-12,-6,-20,-27,-10
1491089152947,3,-1,-5,0,-3,5,2,6,0
1491089152947,3,-3,5,2,5,-6,4,12,2
1491089152948,0,26,7,2,3,0,11,-1,4
1491089152948,0,-36,-9,-4,-1,-7,2,-1,-11
1491089152983,1,-17,-14,-8,-15,2,6,-37,-6
1491089152983,1,12,3,-1,4,-2,-5,49,6
1491089152984,2,-15,-11,-6,-11,-2,11,28,-3
1491089152984,2,14,14,6,17,5,3,-8,6
1491089152985,3,7,4,0,13,4,9,-4,2
1491089152985,3,-19,-9,-8,-18,-11,-12,11,0
1491089152986,0,16,8,5,14,0,-6,-2,2
1491089152986,0,-17,-7,-3,-7,0,-6,-26,-8
1491089153021,1,-30,-19,-10,-10,-8,-17,32,-7
1491089153021,1,-2,7,2,-5,8,16,-4,4
1491089153022,2,25,5,1,1,-1,-8,-12,3
1491089153022,2,-33,-7,-2,-8,1,4,64,-1
1491089153022,3,18,10,3,6,3,17,-41,4
1491089153022,3,-14,-17,-7,-4,-7,9,7,-7
1491089153023,0,-18,-18,-7,-2,-1,-32,-14,-10
1491089153023,0,48,22,5,6,-6,-9,-23,9
1491089153096,1,-37,-10,-6,-9,-9,0,-22,-22
1491089153096,1,-7,3,-1,-5,5,8,-14,-3
1491089153097,2,12,5,-2,0,-4,9,16,6
1491089153097,2,4,-16,-7,1,0,-1,4,1
1491089153097,3,11,2,0,-4,-2,-8,-6,0
1491089153097,3,-10,-11,-12,-19,-5,-17,-18,-7
1491089153098,0,-16,0,4,4,7,20,1,0
1491089153098,0,22,9,3,5,6,-1,-62,-2
1491089153133,1,17,7,7,5,-2,-14,-7,-4
1491089153133,1,1,5,5,10,8,-5,-12,-2
1491089153135,2,13,4,-4,-1,-3,-5,0,7
1491089153135,2,-40,-24,-8,-12,-12,10,5,-12
1491089153136,3,-3,6,8,7,9,6,3,5
1491089153136,3,20,14,9,14,4,4,17,6
1491089153137,0,7,-9,-11,-4,-8,-9,-21,-9
1491089153137,0,-12,-1,5,4,4,3,21,8
1491089153171,1,-11,-7,-6,-8,-6,-13,30,-4
1491089153171,1,37,14,6,3,5,-2,-8,5
1491089153172,2,-9,6,5,-2,0,-2,28,-7
1491089153172,2,-28,-5,-3,-8,-5,-3,-33,-14
1491089153172,0,-29,-17,-6,-15,-1,11,-18,-9
1491089153172,0,25,14,5,11,-1,-1,25,8
1491089153173,1,3,2,-1,-1,-2,2,-28,-3
1491089153173,1,-6,-2,-5,-11,-9,-4,14,-7
1491089153208,2,4,6,7,19,1,5,-47,1
1491089153208,2,33,11,-2,-3,-2,-6,83,8
1491089153209,3,6,3,3,5,3,8,-35,1
1491089153209,3,-42,-9,-1,1,-5,-2,-29,-9
1491089153210,0,-23,-19,-12,-22,-1,5,6,-6
1491089153210,0,-3,-4,-3,-4,-2,-2,-17,1
1491089153211,1,11,1,0,-3,-2,-2,17,0
1491089153211,1,-1,1,3,6,3,-5,32,2
1491089153283,2,-3,6,0,-11,-4,-2,-21,-6
1491089153283,2,32,5,-1,4,-4,-7,8,8
1491089153321,3,6,4,-1,5,-9,-5,-2,3
1491089153321,3,-16,-2,2,5,3,6,24,3
1491089153322,0,0,-5,-5,-8,1,5,-6,-9
1491089153322,0,6,-11,-8,-6,4,15,-3,8
1491089153323,1,-38,-6,1,-3,-6,-8,2,-7
1491089153323,1,-4,0,-1,-6,10,5,-15,1
1491089153323,2,14,15,4,9,3,-8,7,6
1491089153323,2,-5,15,4,5,-8,-11,12,-4
1491089153358,3,2,-14,-8,-13,0,10,-9,4
1491089153358,3,-3,3,-2,0,0,1,-11,0
1491089153359,0,16,5,1,1,2,-2,-6,0
1491089153359,0,-48,-20,-8,-13,-4,0,-24,-9
1491089153360,3,-7,-14,-7,-7,-3,1,-13,-3
1491089153360,3,19,-2,1,3,3,3,-5,2
1491089153361,3,26,17,5,6,-2,0,28,10
1491089153361,3,-17,-1,-4,0,-6,-1,-15,-2
1491089153396,0,0,6,10,21,-6,-17,25,-5
1491089153396,0,-32,-14,-4,-7,-4,-3,-50,-8
1491089153397,1,13,13,4,-2,2,-3,36,-1
1491089153397,1,-1,-13,-13,-17,-2,-5,-18,3
1491089153397,2,-53,-16,-3,-14,4,9,57,-9
1491089153397,2,-44,-12,-7,-3,-6,-12,17,-8
1491089153398,3,-12,-3,4,7,0,-8,-75,-12
1491089153398,3,38,18,1,-1,0,0,27,9
1491089153433,0,18,-9,3,19,-8,-7,32,-3
1491089153433,0,0,6,4,-1,1,1,-16,-1
1491089153434,1,36,19,-1,-3,1,5,26,9
1491089153434,1,-68,-41,-14,-11,-2,0,14,-14
1491089153435,2,2,15,8,-1,-5,-7,-48,7
1491089153435,2,43,-9,-8,-14,-4,5,-3,8
1491089153436,3,-32,0,-4,-2,-8,-5,-11,-10
1491089153436,3,32,-6,-5,-3,1,12,7,-5
1491089153471,0,3,7,7,6,6,4,7,6
1491089153471,0,24,-2,1,11,2,1,-5,6
1491089153472,1,-13,7,4,8,-3,-1,33,-4
1491089153472,1,-20,-15,-8,-10,-2,0,-73,-2
1491089153473,2,10,7,-1,2,-4,6,6,2
1491089153473,2,-1,5,-2,0,-2,-1,4,-10
1491089153473,3,-34,-18,-8,-11,-3,-1,36,-4
1491089153473,3,19,17,8,9,-5,-18,31,3
1491089153508,0,-7,-1,0,4,4,-3,17,-1
1491089153508,0,-13,-1,-8,-22,-10,5,-9,-8
1491089153509,1,-19,-3,-3,2,1,-9,-1,-5
1491089153509,1,-31,-10,-2,-14,0,8,-12,-11
1491089153510,2,-1,-15,-14,-2,0,-3,12,0
1491089153510,2,-7,3,7,5,8,10,-15,-8
1491089153511,3,2,-14,-10,-12,-5,6,40,2
1491089153511,3,12,11,3,5,-1,-4,-59,-3
1491089153546,0,-12,-2,1,1,-3,4,25,4
1491089153546,0,10,4,2,6,5,1,-55,-3
1491089153547,1,15,-8,-5,-3,-2,-20,-25,-5
1491089153547,1,10,11,4,-3,-4,-9,19,6
1491089153547,2,21,4,-1,-1,-1,-6,-41,-1
1491089153547,2,-15,-9,-4,-4,1,5,61,-1
1491089153548,3,16,-7,0,-5,4,11,-37,7
1491089153548,3,29,9,6,10,0,5,9,3
1491089153583,0,-49,-9,-10,-14,-7,-4,22,-11
1491089153583,0,39,9,5,6,4,-1,-81,1
1491089153584,1,-30,-9,1,4,0,-3,3,-9
1491089153584,1,-5,-5,-5,-8,-8,-10,9,-1
1491089153585,2,26,6,3,7,-2,0,20,4
1491089153585,2,-6,6,7,13,3,-2,-24,0
1491089153586,3,20,2,-10,-19,-9,8,16,5
1491089153586,3,-47,-10,4,6,3,6,-20,-19
1491089153621,0,15,2,-3,-6,-2,0,27,5
1491089153621,0,-13,-7,0,7,1,1,17,-2
1491089153622,1,32,4,0,0,0,-7,-11,3
1491089153622,1,-17,-5,-3,5,3,10,35,-1
1491089153622,2,12,-2,-6,-9,-6,-14,-16,1
1491089153622,2,-36,-19,-6,-6,-6,-7,49,-2
1491089153623,3,34,13,7,9,2,5,-6,11
1491089153623,3,4,6,-2,-5,-5,-2,-87,-10
1491089153658,0,3,-3,-4,-4,-1,12,0,-3
1491089153658,0,-10,-10,-5,-15,-5,1,4,5
1491089153659,1,-27,-3,0,0,0,-7,5,-12
1491089153659,1,11,-4,-6,-3,0,-4,2,7
1491089153661,2,31,21,11,11,3,-4,25,8
1491089153661,2,-39,-16,-9,-6,4,1,-16,-4
1491089153696,3,27,6,3,3,-6,-11,18,-1
1491089153696,3,-30,-23,-11,-11,0,-7,-13,-9
1491089153697,0,4,4,1,-8,1,12,8,3
1491089153697,0,24,3,3,13,-2,-4,13,8
1491089153697,1,-3,7,2,6,2,5,37,1
1491089153697,1,-11,4,0,-11,1,7,-37,-3
1491089153698,2,-16,-11,-9,-4,-7,-12,-14,-5
1491089153698,2,6,-6,-8,-9,1,9,-16,-4
1491089153733,3,-24,-6,-4,0,0,1,9,1
1491089153733,3,37,31,19,21,6,-2,6,-1
1491089153734,0,-11,-11,-7,-13,-13,-8,11,5
1491089153734,0,29,-1,0,-3,1,-2,6,-4
1491089153771,1,-42,-17,0,2,2,5,-4,-7
1491089153771,1,6,1,0,2,-5,-3,-17,0
1491089153772,2,10,4,1,5,3,-6,-25,-8
1491089153772,2,13,23,7,5,-6,0,11,9
1491089153772,3,-2,-1,-5,-3,2,-5,6,-1
1491089153772,3,3,-14,2,14,-1,5,49,6
1491089153773,0,14,-1,-3,-8,-2,-4,-79,-3
1491089153773,0,21,0,-5,-10,6,7,-20,-2
1491089153808,1,-29,-9,-6,-19,-5,-4,-24,-10
1491089153808,1,-1,9,5,-7,-8,5,14,5
1491089153809,2,10,-6,-6,-2,-1,1,33,-5
1491089153809,2,-3,-1,1,2,2,3,21,3
1491089153810,3,-5,7,3,1,-3,0,-33,-3
1491089153810,3,23,-8,-10,-4,3,-9,13,-4
1491089153811,0,-16,-4,1,3,3,11,11,8
1491089153811,0,23,13,0,4,-4,-10,-56,-7
1491089153846,1,-56,-2,10,12,6,8,12,-10
1491089153846,1,-12,-13,-8,-4,-6,-21,47,-3
1491089153847,2,-29,-16,-13,-15,-12,-11,-67,-22
1491089153847,2,29,17,11,10,2,14,29,20
1491089153847,3,-12,-7,-6,-18,-6,-4,-24,-11
1491089153847,3,1,0,-10,-9,-2,-6,-8,4
1491089153849,0,17,-6,-2,-4,2,4,-4,-6
1491089153849,0,-24,-14,-11,-27,-12,-9,-4,-7
1491089153921,1,12,10,1,7,4,17,16,-1
1491089153921,1,45,17,8,11,1,2,-17,15
1491089153922,2,-35,0,5,14,5,-7,12,-11
1491089153922,2,-45,-20,-5,-11,-8,-15,10,-8
1491089153922,3,46,-2,-4,-3,-2,4,11,11
1491089153922,3,-17,9,4,4,8,6,-33,-8
1491089153923,0,-3,-8,0,9,-9,-1,52,-2
1491089153923,0,-4,3,2,9,3,1,-9,-2
1491089153958,1,7,-5,-9,-15,-8,-1,9,10
1491089153958,1,-17,-16,-5,6,1,-3,22,-7
1491089153959,2,-1,11,16,24,17,2,-16,5
1491089153959,2,-15,-10,-1,0,-14,-3,55,-8
1491089153960,3,23,5,-3,15,5,10,-42,5
1491089153960,3,22,5,4,-4,1,2,51,1
1491089153961,2,17,-2,-2,-9,-4,4,2,-1
1491089153961,2,0,6,3,8,-7,-9,5,-2
1491089153996,3,0,-5,0,13,5,-5,-19,0
1491089153996,3,-1,9,6,1,5,15,-1,4
1491089153997,0,10,-9,-10,-1,-8,-13,-9,4
1491089153997,0,7,7,6,6,0,-2,11,7
1491089153997,2,-23,-9,-9,-13,-13,2,10,4
1491089153997,2,8,10,7,5,-1,-3,-23,-6
1491089153998,3,3,2,0,1,0,-4,24,3
1491089153998,3,13,7,-1,0,1,10,-8,1
1491089154033,0,16,10,0,-11,7,5,15,3
1491089154033,0,-15,-9,-11,-15,7,2,-73,-8
1491089154034,1,23,1,6,15,-5,-22,-23,-1
1491089154034,1,23,7,-7,-16,-4,-13,5,1
1491089154035,2,-14,0,-1,-6,-6,-4,-11,-5
1491089154035,2,-9,-16,-7,-6,-17,-45,14,-5
1491089154036,3,-29,-14,-5,-7,5,-6,-18,-7
1491089154036,3,-15,0,1,-6,-1,-30,29,1
1491089154071,0,54,19,10,16,4,-18,47,8
1491089154071,0,-28,-5,-3,5,7,11,-44,-11
1491089154072,1,-10,-4,-1,0,-4,27,-5,-15
1491089154072,1,-32,-27,-2,13,-12,77,-7,-7
1491089154073,2,-11,11,5,12,9,60,-53,-2
1491089154073,2,42,6,0,3,10,92,-4,3
1491089154073,3,-22,-12,4,19,5,28,44,0
1491089154073,3,26,12,3,0,-10,-15,-55,-3
1491089154108,0,-11,-5,6,18,3,-25,16,-2
1491089154108,0,-38,-1,3,9,-2,-17,35,-14
1491089154109,1,29,-7,-11,-27,-9,-10,-8,12
1491089154109,1,43,13,-13,-31,1,-9,8,2
1491089154110,2,-3,-3,-12,-43,2,20,-14,11
1491089154110,2,4,-15,-19,-39,-13,-22,11,-1
1491089154111,3,-2,14,-5,-25,-6,-30,-23,-7
1491089154111,3,21,16,-1,3,-8,-27,-7,-2
1491089154146,0,-12,-9,-3,-3,-2,-13,-59,-5
1491089154146,0,-9,9,5,16,5,-8,49,5
1491089154147,1,-27,-28,2,18,4,-11,-56,-7
1491089154147,1,-16,-20,1,22,-1,-12,-14,-5
1491089154147,2,-5,-1,4,16,0,-14,4,-11
1491089154147,2,21,4,13,21,4,3,44,10
1491089154148,3,-4,-4,-9,0,-10,-7,-4,3
1491089154148,3,-51,-14,-9,-7,-8,0,18,-11
1491089154183,0,29,16,2,-5,6,11,10,5
1491089154183,0,15,-2,-6,-8,-4,-11,-25,0
1491089154184,1,-23,-7,-6,-15,-10,-2,1,-11
1491089154184,1,-5,-2,-1,-7,11,17,1,3
1491089154221,2,-16,-9,-6,-6,-4,-7,-28,-5
1491089154221,2,23,13,7,15,0,-3,-6,4
1491089154222,3,12,11,-3,-6,-8,-6,-53,-9
1491089154222,3,26,5,6,8,2,-9,25,3
1491089154223,0,-14,-14,-1,-3,5,7,-43,1
1491089154223,0,-4,-1,1,8,-2,-7,19,-2
1491089154223,1,4,5,0,-4,-5,-14,-32,6
1491089154223,1,-12,-10,-8,-11,-10,-14,-2,-11
1491089154259,2,41,27,14,23,-4,-8,49,12
1491089154259,2,-40,-14,-10,-16,-5,-3,-23,-8
1491089154260,3,-5,-13,2,1,7,10,44,5
1491089154260,3,3,8,-6,-11,-15,-20,-3,8
1491089154260,0,46,-7,-6,1,3,1,28,6
1491089154260,0,-8,-10,-9,-15,3,8,49,-11
1491089154261,1,18,15,10,14,7,3,-71,5
1491089154261,1,-19,-11,-3,-2,-7,-11,-3,-7
1491089154296,2,-13,-10,-6,-10,-1,9,-26,-3
1491089154296,2,29,21,5,3,1,1,0,12
1491089154297,3,4,3,2,-3,-2,3,50,-2
1491089154297,3,-7,-9,-6,-6,2,3,-8,-4
1491089154298,0,-24,8,1,-1,-11,-10,-8,-10
1491089154298,0,13,-6,-4,-7,-1,7,-15,5
1491089154298,1,-13,1,-5,0,-2,6,24,0
1491089154298,1,2,-14,0,1,0,2,22,2
1491089154333,2,-11,-2,-5,-10,-3,-6,64,-1
1491089154333,2,4,-5,-5,-6,2,-6,-5,-4
1491089154334,3,-25,-9,-7,-12,-1,8,13,0
1491089154334,3,48,9,1,2,1,4,23,8
1491089154335,0,-45,-13,-3,3,-3,5,-70,-15
1491089154335,0,-45,-9,0,-2,1,24,7,-6
1491089154336,1,20,10,3,0,2,0,-3,1
1491089154336,1,-1,11,12,11,6,-1,0,4
1491089154371,2,-3,-15,-8,-6,-3,-11,37,1
1491089154371,2,30,5,-2,-6,-3,-24,-58,-8
1491089154372,3,-16,11,4,-1,-2,-9,24,-3
1491089154372,3,-13,-17,-3,10,-6,-6,-41,-5
1491089154372,0,-7,-2,3,6,6,0,6,-9
1491089154372,0,-8,-7,-6,3,-14,-16,-4,-3
1491089154373,1,-8,-16,-6,0,4,1,31,1
1491089154373,1,46,36,12,9,3,-11,-12,7
1491089154408,2,-1,-20,-9,7,5,7,28,3
1491089154408,2,-7,-1,5,-20,4,5,12,-6
1491089154409,3,46,21,4,9,-7,-1,-28,9
1491089154409,3,-62,-20,-11,-12,0,2,-62,-3
1491089154410,0,5,-1,6,9,11,13,38,-3
1491089154410,0,-4,5,3,5,6,0,20,4
1491089154411,1,10,4,0,2,-5,1,7,1
1491089154411,1,-4,0,-1,-4,1,12,31,0
1491089154446,2,-4,13,1,-6,-5,-16,-40,-4
1491089154446,2,13,-3,-2,1,1,2,-32,7
1491089154447,3,-18,-10,1,2,6,-7,16,-3
1491089154447,3,-2,-5,-4,-10,-12,-4,-10,1
1491089154448,0,1,1,1,2,-5,-2,10,-4
1491089154448,0,27,-4,-7,-2,-3,4,-8,20
1491089154449,1,29,11,8,11,-5,-24,-27,-15
1491089154449,1,-58,-19,-12,-19,-4,23,-4,-12
1491089154483,2,26,6,2,-2,4,10,11,9
1491089154483,2,-52,-5,4,8,-4,-13,-17,-15
1491089154484,3,-11,-10,-11,-20,1,-1,-13,2
1491089154484,3,34,21,12,26,10,6,15,-4
1491089154485,0,-20,-21,-14,-11,-5,0,-25,0
1491089154485,0,10,7,1,7,-5,-9,0,1
1491089154486,1,-32,-12,0,-11,1,-8,14,-11
1491089154486,1,4,1,-3,-1,-2,-16,2,-2
1491089154521,2,3,3,-1,0,-12,-10,-22,-3
1491089154521,2,16,4,7,8,11,13,39,6
1491089154522,3,-32,-16,-17,-26,-17,-9,10,-16
1491089154522,3,7,-2,4,-3,6,-1,-34,6
1491089154523,0,-27,1,-2,-3,-3,-5,39,-3
1491089154523,0,10,5,0,6,1,-3,-46,4
1491089154523,1,24,6,3,5,1,5,52,-1
1491089154523,1,19,6,0,1,3,2,-35,3
1491089154558,2,-14,-7,-1,-1,-6,-2,24,-7
1491089154558,2,3,4,4,8,-3,-4,27,-2
1491089154560,3,1,-14,-7,1,4,4,5,4
1491089154560,3,12,-2,-2,-5,-4,10,10,-5
1491089154561,0,-21,-2,2,1,-4,-9,-27,-4
1491089154561,0,7,3,-2,5,7,1,8,0
1491089154562,1,17,-7,-4,-23,-6,3,-38,0
1491089154562,1,-21,-6,0,5,-14,-7,29,-9
1491089154596,2,21,8,4,9,8,11,23,4
1491089154596,2,-6,3,-3,-7,-5,-5,-18,-4
1491089154597,3,-3,3,4,17,9,2,5,-2
1491089154597,3,-6,-4,-1,4,5,2,25,0
1491089154598,0,26,4,-1,-4,-9,-9,-68,-2
1491089154598,0,-31,-21,-13,-12,-4,1,18,-6
1491089154633,1,-9,1,-2,0,-4,-2,-38,0
1491089154633,1,23,5,3,8,5,0,-18,3
1491089154634,2,-4,3,-1,-10,-8,-7,97,9
1491089154634,2,1,4,1,2,-1,-1,-18,-4
1491089154635,3,7,-9,-10,-10,-3,4,7,0
1491089154635,3,-12,-5,-2,2,0,-1,-7,0
1491089154636,0,26,13,2,8,-1,-11,-19,4
1491089154636,0,-1,-14,-3,-7,-8,2,7,-2
1491089154671,1,-21,-13,-6,-7,1,3,1,-4
1491089154671,1,16,9,5,9,3,-3,17,8
1491089154673,2,-3,-1,-5,-10,-3,3,31,-6
1491089154673,2,-8,-1,-3,-15,-6,0,-34,-7
1491089154674,3,18,9,5,17,2,1,6,7
1491089154674,3,-30,-4,0,-3,0,-2,4,-5
1491089154675,0,2,4,-1,-4,-2,-5,-3,1
1491089154675,0,6,-8,-3,9,0,-1,8,2
1491089154746,1,7,6,2,4,0,14,12,1
1491089154746,1,-14,0,-5,-3,-9,-20,-3,-9
1491089154747,2,28,-3,-4,-12,1,8,-10,5
1491089154747,2,-26,-11,-4,-8,-2,11,16,-8
1491089154749,3,-12,2,3,10,2,-7,-30,2
1491089154749,3,8,0,-2,-11,-2,2,38,0
1491089154750,0,-40,-10,2,9,4,3,-47,-11
1491089154750,0,14,2,-2,-10,-1,4,9,5
1491089154784,1,35,2,2,10,1,0,24,11
1491089154784,1,-15,0,-1,-4,-3,2,27,-2
1491089154785,2,7,1,-1,-3,-1,-24,-5,-1
1491089154785,2,13,11,4,-2,-2,-21,-20,5
1491089154786,3,-32,-7,-6,-6,-5,-6,0,-11
1491089154786,3,-10,-11,-3,-6,6,9,-16,2
1491089154821,1,-40,-11,-4,-11,-5,2,-23,-13
1491089154821,1,49,12,1,4,-2,-3,-40,-1
1491089154822,2,-69,-48,-29,-30,-11,13,-2,-8
1491089154822,2,-16,0,5,14,-2,-9,31,-14
1491089154824,3,9,6,2,1,4,-4,-31,4
1491089154824,3,3,0,-6,-9,-2,2,-8,-3
1491089154825,0,16,13,10,17,6,4,6,-4
1491089154825,0,17,-4,-5,-6,1,12,13,3
1491089154859,1,-24,-15,-7,-10,2,9,14,-5
1491089154859,1,0,-5,-2,0,6,11,46,8
1491089154860,2,1,-1,4,3,4,-8,17,-2
1491089154860,2,-6,5,-3,-5,-2,5,-58,-4
1491089154861,0,6,-2,-4,6,-2,-1,10,1
1491089154861,0,16,10,3,11,-1,-6,-28,6
1491089154862,1,-11,-2,2,5,-1,-2,35,-3
1491089154862,1,-1,4,2,4,-1,5,-1,5
1491089154896,2,24,2,4,3,7,-8,-36,5
1491089154896,2,-19,-2,-2,-14,-11,5,43,-4
1491089154898,3,17,5,-2,7,5,18,29,3
1491089154898,3,-35,-20,-4,-11,-5,0,-42,0
1491089154899,0,6,8,2,5,-4,-8,8,-1
1491089154899,0,5,-4,-1,8,0,0,-2,1
1491089154900,1,-27,-4,-5,-20,-6,-6,-30,-6
1491089154900,1,4,-8,-3,13,-4,-3,57,-5
1491089154934,2,-25,-13,-12,-12,-2,3,-47,-9
1491089154934,2,19,4,3,3,9,7,15,8
1491089154935,3,-3,9,6,6,-5,-9,-46,-4
1491089154935,3,-5,0,-10,-19,-6,-4,1,-1
1491089154936,0,2,2,-1,-1,-8,-7,14,-5
1491089154936,0,17,-22,-10,-5,1,8,-47,-9
1491089154937,1,-15,-4,-7,-18,-4,3,58,1
1491089154937,1,-9,0,-6,-9,7,9,-39,-4
1491089154971,2,18,8,0,-12,-5,2,-3,5
1491089154971,2,-4,-4,-10,-16,-7,-3,11,-2
1491089154972,3,25,13,4,9,4,-105,-10,7
1491089154972,3,1,-4,3,8,-1,-112,5,-3
1491089154973,0,-16,-4,0,1,5,-119,21,3
1491089154973,0,-21,-5,1,-1,-6,-23,2,-10
1491089154973,1,22,10,7,23,-3,55,-16,6
1491089154973,1,-26,-7,1,10,-1,75,16,-9
1491089155008,2,-22,-10,1,1,-3,98,23,-11
1491089155008,2,-7,-12,1,8,2,46,-23,-6
1491089155009,3,1,1,3,7,-5,67,-4,1
1491089155009,3,14,-4,-2,5,-8,20,-26,-3
1491089155010,0,-20,5,4,4,-5,30,53,-7
1491089155010,0,-6,6,8,16,8,-1,-19,-1
1491089155011,1,21,1,-5,-12,-1,15,18,-9
1491089155011,1,-69,-24,-9,-8,-11,1,-7,-18
1491089155046,2,4,-3,-6,-15,-1,2,-29,-4
1491089155046,2,-7,17,5,7,0,0,31,8
1491089155047,3,-1,-1,2,7,-10,-8,-7,-7
1491089155047,3,2,-13,-10,-8,5,13,-54,1
1491089155047,0,-8,5,2,-8,-9,-13,-20,-5
1491089155047,0,-31,-6,-8,-10,-5,-9,24,-8
1491089155048,1,16,-7,-9,-8,2,-6,12,9
1491089155048,1,6,15,4,-4,-11,-7,-50,-4
1491089155083,2,1,-11,-6,-4,4,4,-19,-3
1491089155083,2,-3,-11,-9,-20,-1,11,26,-2
1491089155084,3,-11,-8,-4,-2,-4,-10,43,-4
1491089155084,3,28,12,7,2,6,15,20,7
1491089155084,0,19,7,1,8,-3,-1,-21,6
1491089155084,0,14,11,4,-3,-3,-8,-37,-7
1491089155086,1,-24,-9,-1,3,4,8,1,1
1491089155086,1,7,-5,-10,-7,-2,-8,13,0
1491089155121,2,1,5,5,9,3,0,-39,2
1491089155121,2,-23,-12,-8,-11,-2,-12,23,-8
1491089155121,3,32,10,0,-6,-5,-7,-1,6
1491089155121,3,19,2,-3,-1,2,1,13,4
1491089155122,0,20,6,0,-9,5,-3,1,9
1491089155122,0,-42,-20,-6,-5,-2,-5,8,-3
1491089155123,1,11,3,-4,-4,-3,-2,-32,1
1491089155123,1,-25,-5,-1,-5,-4,1,1,-10
1491089155158,2,25,-2,2,9,6,17,63,1
1491089155158,2,-20,-8,-1,1,6,-98,-45,-4
1491089155159,3,-3,1,0,4,-6,-47,6,-3
1491089155159,3,16,9,-1,-3,-3,-3,11,4
1491089155160,0,2,1,3,12,1,32,-8,-3
1491089155160,0,16,-6,-3,2,2,56,-6,7
1491089155161,1,1,0,-2,2,0,23,-16,4
1491089155161,1,-4,-7,-5,-11,0,0,-33,-7
1491089155196,2,-4,-4,-6,-8,-4,22,22,3
1491089155196,2,20,6,0,3,-2,-72,9,5
1491089155197,3,-27,-9,3,5,5,2,-3,-2
1491089155197,3,2,13,4,4,3,29,50,5
1491089155197,0,-8,-10,-6,-7,2,40,-32,-2
1491089155197,0,15,4,0,-3,-20,64,-4,-2
1491089155198,1,-5,3,2,-3,-2,33,-37,-10
1491089155198,1,-21,-19,-12,-11,-9,21,-10,-7
1491089155233,2,-13,6,3,8,4,-3,11,-3
1491089155233,2,1,-8,-9,-2,-3,14,7,0
1491089155234,3,13,-6,-1,-3,2,5,-28,-1
1491089155234,3,-3,8,4,3,-6,-9,-1,0
1491089155235,0,14,2,-2,2,-2,-26,7,5
1491089155235,0,-31,-1,1,-8,9,16,11,-16
1491089155308,1,23,-4,-2,1,-1,-2,-20,-5
1491089155308,1,-2,3,5,8,-5,-19,10,4
1491089155309,2,18,-3,-5,-7,-9,-7,15,7
1491089155309,2,6,9,2,5,-1,12,-26,-8
1491089155310,3,-19,-9,-5,0,3,1,20,0
1491089155310,3,20,2,0,-5,6,-7,16,3
1491089155311,0,-5,-10,-5,0,-5,-21,-52,-8
1491089155311,0,3,6,7,6,-8,-1,14,3
1491089155346,1,-7,-2,-4,-9,6,3,-7,2
1491089155346,1,-6,-7,1,5,0,-3,2,-2
1491089155346,2,-12,2,1,0,-4,-6,13,-5
1491089155346,2,24,11,2,2,5,1,7,9
1491089155347,3,-23,-7,-9,-8,-12,-5,17,-7
1491089155347,3,0,-2,-2,-2,0,-7,3,-3
1491089155348,1,-27,-7,-3,-7,-3,-1,15,-7
1491089155348,1,1,8,5,9,4,13,7,1
1491089155383,2,-13,-11,-3,0,-1,-5,-13,-7
1491089155383,2,-1,2,2,4,3,15,-19,-3
1491089155384,3,10,3,-2,-5,-1,-2,22,5
1491089155384,3,8,10,4,8,-1,-9,-20,-1
1491089155385,1,-1,-9,-7,-7,1,1,27,-2
1491089155385,1,-2,-11,-5,-11,-2,-1,-25,-4
1491089155386,2,-4,3,1,2,-1,5,-24,-1
1491089155386,2,20,0,-2,-1,-1,6,19,-2
1491089155421,3,-2,0,4,5,0,-5,-4,4
1491089155421,3,2,-4,0,3,4,-4,-9,4
1491089155421,0,2,1,-2,-3,-2,-13,28,-6
1491089155421,0,-12,-2,-1,3,9,16,-9,1
1491089155422,1,10,5,1,-3,-13,-19,-13,-3
1491089155422,1,5,-5,-7,0,-7,-9,-3,-2
1491089155423,2,-14,-13,-7,-6,0,3,14,-1
1491089155423,2,1,4,1,0,2,3,-39,-4
1491089155458,3,8,-2,-5,-1,-6,8,-14,1
1491089155458,3,8,0,-4,-6,0,6,3,-1
1491089155459,0,-1,0,-3,-3,-4,2,4,-1
1491089155459,0,20,16,7,7,0,-7,50,5
1491089155460,1,-12,2,-4,-13,2,5,-54,-2
1491089155460,1,9,-7,-1,3,-7,4,-8,2
1491089155461,2,0,-2,-4,-7,-6,3,13,-3
1491089155461,2,-22,-4,0,-1,-2,28,4,-2
1491089155496,3,-25,-8,-2,-2,2,9,-13,-4
1491089155496,3,38,23,8,21,3,1,46,17
1491089155497,0,-35,-17,-6,-20,4,-5,-90,-12
1491089155497,0,-4,-7,-4,0,-2,-14,35,2
1491089155498,1,28,12,4,6,-1,-13,-9,2
1491089155498,1,-16,-6,-4,-12,3,2,-29,-6
1491089155499,2,2,4,3,4,-5,-4,41,3
1491089155499,2,14,3,-1,-1,0,-3,-14,0
1491089155533,3,-13,0,-2,1,-7,-21,-34,-5
1491089155533,3,-49,-25,-11,-16,-1,1,-11,-12
1491089155534,0,10,4,3,8,1,3,16,5
1491089155534,0,-7,2,-2,-4,-5,-11,-15,-1
1491089155535,1,-7,-3,0,-2,3,-1,24,-2
1491089155535,1,9,7,1,0,3,4,2,-2
1491089155536,2,-29,-11,-6,-7,-5,-12,4,-12
1491089155536,2,-8,-12,-7,-3,-7,-6,-45,-2
1491089155571,3,27,14,8,21,-1,16,32,1
1491089155571,3,-16,-7,-11,-21,-5,9,7,-4
1491089155572,0,21,3,1,4,-1,17,4,-5
1491089155572,0,-32,-10,-6,-14,-3,6,4,-6
1491089155573,1,-14,-11,-4,-4,-4,17,14,-3
1491089155573,1,8,6,5,11,-1,-1,-1,1
1491089155574,2,28,14,2,7,-6,-9,39,7
1491089155574,2,-22,-11,-7,-22,-11,-12,-17,-2
1491089155608,3,2,-2,-4,-9,3,-7,12,6
1491089155608,3,11,-11,-5,-4,1,-3,1,0
1491089155609,0,10,7,4,7,6,-11,-11,4
1491089155609,0,-1,-5,-1,3,6,-70,-22,-2
1491089155610,1,0,2,3,6,-1,-96,13,3
1491089155610,1,5,17,7,17,-5,-55,10,-6
1491089155611,2,7,5,-1,1,6,-6,-25,2
1491089155611,2,9,-1,3,6,-4,37,40,-3
1491089155683,3,-4,-7,-15,-27,-3,3,-30,-13
1491089155683,3,18,12,2,-2,3,-55,-3,5
1491089155684,0,18,4,-1,-1,-7,-17,1,-4
1491089155684,0,-42,-19,-12,-11,-10,21,-19,-10
1491089155685,1,28,17,13,17,4,58,4,7
1491089155685,1,-20,-31,-7,3,1,47,13,-10
1491089155686,2,-2,-4,2,2,2,36,36,11
1491089155686,2,19,-13,-7,-12,-12,2,-29,-14
1491089155721,3,-20,-3,2,1,4,16,21,4
1491089155721,3,12,1,-7,-14,-8,-12,-46,-13
1491089155722,0,2,10,5,3,-2,-6,56,2
1491089155722,0,-11,-10,-8,-12,-2,3,-10,-6
1491089155722,2,-4,-4,2,-5,-1,-9,-97,-3
1491089155722,2,-24,-8,-9,1,-9,-21,55,2
1491089155723,3,31,19,16,17,5,-21,17,7
1491089155723,3,-33,-26,-8,0,6,13,29,6
1491089155758,0,7,-22,-3,-6,-3,-3,-1,-3
1491089155758,0,-28,-7,2,-9,5,32,35,1
1491089155759,1,-58,-2,-7,9,-3,12,-65,-18
1491089155759,1,8,14,0,12,1,12,97,4
1491089155760,2,-53,-14,1,-4,-11,52,-98,-16
1491089155760,2,50,4,-13,10,-6,44,7,19
1491089155761,3,0,-19,-24,-33,16,26,-17,-4
1491089155761,3,-17,8,26,-1,-4,-34,35,1
1491089155796,0,-29,19,0,8,13,-20,15,-8
1491089155796,0,-24,-19,-18,-18,-14,-20,-98,-19
1491089155797,1,33,31,34,3,5,40,55,18
1491089155797,1,-4,26,-12,3,17,41,-69,3
1491089155797,2,14,25,-6,-1,-17,-16,48,14
1491089155797,2,11,33,16,5,17,-4,22,5
1491089155798,3,-1,-29,2,1,-6,-15,33,-4
1491089155798,3,30,14,39,17,-5,-8,-128,6
1491089155833,0,47,35,-55,-12,-7,-14,37,-6
1491089155833,0,19,-35,-22,-10,-13,-98,-26,3
1491089155834,1,-65,27,6,-8,-2,-70,23,-3
1491089155834,1,70,42,14,-7,0,22,-26,-3
1491089155835,2,3,10,31,47,11,62,8,9
1491089155835,2,14,20,-6,13,3,127,-4,-5
1491089155836,3,24,33,-30,4,4,119,-28,-1
1491089155836,3,-71,3,27,-34,-19,81,14,-6
1491089155871,0,2,17,-24,-14,0,122,0,2
1491089155871,0,18,-30,3,5,5,71,-33,-21
1491089155872,1,69,-10,-38,11,-4,49,10,8
1491089155872,1,-63,-35,-6,-30,5,-37,43,-21
1491089155873,2,46,-24,69,25,10,-73,-6,11
1491089155873,2,-90,-77,9,38,-11,-100,31,-27
1491089155873,3,80,37,17,44,-22,-80,-60,19
1491089155873,3,-70,-104,-109,-55,-27,-52,-60,-31
1491089155908,0,-11,-13,-36,-31,4,37,107,20
1491089155908,0,-37,25,69,-8,26,-47,-10,-16
1491089155909,1,-41,-29,94,-60,-9,7,-11,-7
1491089155909,1,55,-40,-74,16,6,41,88,13
1491089155910,2,-95,-56,70,-12,0,-16,-45,-6
1491089155910,2,28,91,32,50,-18,6,1,26
1491089155911,3,55,-100,-92,-50,-1,-82,-9,-18
1491089155911,3,-31,127,127,-15,12,-74,32,11
1491089155946,0,57,-42,-108,89,34,-20,20,1
1491089155946,0,-62,55,59,-13,22,14,-42,-26
1491089156021,1,-7,54,30,22,6,25,45,-8
1491089156021,1,17,-128,-128,13,-33,-2,16,2
1491089156023,2,-6,88,-47,-107,-35,-20,-62,2
1491089156023,2,25,-59,-37,-11,-7,-73,2,-2
1491089156024,3,10,-10,-80,-21,-15,-56,-54,13
1491089156024,3,-93,-48,73,-2,20,-43,54,-69
1491089156026,0,95,30,21,-16,9,-39,3,59
1491089156026,0,21,-87,-38,56,8,-30,62,18
1491089156058,1,-44,65,18,-36,-44,-98,-56,-19
1491089156058,1,29,36,12,3,17,-101,15,4
1491089156059,2,-25,-75,-72,7,-3,-70,-81,-17
1491089156059,2,5,-8,0,-22,-1,10,41,24
1491089156061,3,-128,-77,-4,36,9,101,64,-29
1491089156061,3,117,65,47,31,-30,64,37,46
1491089156096,0,60,-13,7,-71,-8,-6,66,5
1491089156096,0,-106,-65,90,35,-9,-80,-42,-42
1491089156097,1,-30,-27,-128,-78,10,-31,64,-21
1491089156097,1,-10,-6,52,4,-22,-61,-26,30
1491089156098,2,-104,95,62,56,50,-104,88,-40
1491089156098,2,92,109,-1,64,-7,30,10,20
1491089156099,0,-4,-27,21,-63,-4,-4,-34,20
1491089156099,0,55,36,127,17,22,78,28,12
1491089156133,1,-47,8,76,32,-4,41,16,-8
1491089156133,1,-90,-128,-128,-66,-33,-46,-54,-21
1491089156134,2,76,96,31,-13,-22,36,34,-6
1491089156134,2,-68,-21,6,55,36,73,-34,-12
1491089156135,3,99,51,94,110,68,31,48,14
1491089156135,3,-18,-40,88,23,-6,-70,-67,7
1491089156136,0,-73,-128,-128,-101,-53,-128,-34,-55
1491089156136,0,68,3,55,-46,-14,-122,-13,38
1491089156171,1,25,46,-75,1,-10,-42,36,6
1491089156171,1,53,66,127,117,24,59,-61,14
1491089156172,2,-9,26,-94,32,0,113,21,5
1491089156172,2,-91,-128,-128,-128,-50,73,-8,-35
1491089156172,3,-37,-112,30,-64,-16,67,-40,1
1491089156172,3,106,127,127,11,46,49,30,17
1491089156173,0,48,-42,-63,127,23,56,14,16
1491089156173,0,-19,-44,-93,-78,-8,91,-7,-7
1491089156208,1,28,48,36,-62,-8,9,-10,-8
1491089156208,1,-1,-2,-3,86,15,49,-27,-3
1491089156209,2,-5,-82,-21,8,-29,-25,24,3
1491089156209,2,-44,-72,-124,-78,-23,-82,-54,-39
1491089156210,3,-72,94,76,-11,3,-7,0,-4
1491089156210,3,6,-31,-53,-37,19,2,-31,9
1491089156211,0,108,127,-74,48,14,-15,-2,20
1491089156211,0,-104,-56,-65,-3,1,-18,36,-25
1491089156246,1,-15,-63,64,15,-1,2,-68,7
1491089156246,1,-28,84,48,78,-17,-8,54,4
1491089156247,2,-16,-78,-44,14,5,6,-66,-13
1491089156247,2,9,28,79,18,-6,6,21,-7
1491089156283,3,20,39,-1,76,25,-12,9,-8
1491089156283,3,-9,-49,-69,-37,-2,6,13,4
1491089156284,0,-34,-16,11,-19,-19,27,17,-10
1491089156284,0,-4,38,17,-50,36,-5,16,3
1491089156285,1,9,9,-94,7,-56,-11,3,2
1491089156285,1,-12,-13,54,-6,-7,13,1,-17
1491089156286,2,-16,-20,58,9,-4,29,11,0
1491089156286,2,-3,-77,-28,-31,8,-8,-7,1
1491089156321,3,54,83,99,51,28,-10,13,22
1491089156321,3,48,22,-40,10,19,16,-15,-14
1491089156322,0,4,-20,12,-45,-8,4,-5,7
1491089156322,0,-2,22,70,17,25,-9,36,3
1491089156323,1,-61,-128,-128,-118,-53,3,-60,-8
1491089156323,1,-66,-7,37,3,-34,3,-3,-25
1491089156324,2,73,127,127,51,36,-4,18,27
1491089156324,2,-10,-12,-55,28,3,1,-8,0
1491089156358,3,-12,-61,-92,-48,6,9,-4,-5
1491089156358,3,-31,-57,-88,-54,-18,-5,-10,-22
1491089156359,0,-9,-23,-80,2,3,10,0,3
1491089156359,0,19,48,118,18,-19,3,3,-1
1491089156360,2,-7,2,57,70,-18,4,1,-3
1491089156360,2,25,-2,-90,34,-22,0,11,10
1491089156361,3,-42,-47,-100,-85,-29,-8,-11,-16
1491089156361,3,9,8,127,45,36,5,-3,8
1491089156396,0,13,39,65,26,16,2,5,-3
1491089156396,0,21,55,7,38,27,-2,-3,-1
1491089156397,1,-12,-27,-20,-32,-29,-3,1,-3
1491089156397,1,-33,-57,-128,-40,-31,4,-19,-6
1491089156397,2,-24,-69,-71,-105,2,1,-5,-4
1491089156397,2,22,40,119,73,-3,-10,-7,2
1491089156398,3,0,20,-62,8,58,-1,2,-3
1491089156398,3,4,-3,-4,-18,-56,0,16,1
1491089156433,0,-7,-9,68,71,-16,-3,-57,-9
1491089156433,0,12,16,12,-8,2,-2,26,4
1491089156434,1,-10,-6,16,-9,7,0,-6,1
1491089156434,1,3,2,68,20,-16,-2,18,3
1491089156435,2,-22,-12,-58,17,4,5,-9,-5
1491089156435,2,6,-14,-54,-30,-24,4,-2,-3
1491089156436,3,12,-13,19,-52,-16,-1,-6,2
1491089156436,3,-10,1,26,-4,21,-7,8,-2
1491089156471,0,-4,-5,6,-19,18,-5,13,-1
1491089156471,0,-5,7,-12,-4,8,-3,-15,-2
1491089156548,1,0,-8,-5,-30,-14,-1,-26,-2
1491089156548,1,5,0,-22,15,33,1,32,-2
1491089156549,2,-13,-40,-73,-85,-38,-5,54,1
1491089156549,2,10,32,66,109,-1,-2,10,4
1491089156550,3,-17,7,-19,-8,34,-7,-6,-2
1491089156550,3,20,10,-1,53,-8,0,0,8
1491089156551,0,-2,-3,-2,-4,17,1,19,-3
1491089156551,0,-18,-14,-29,-63,-38,-8,-18,-13
1491089156551,1,-12,27,21,19,29,4,-8,5
1491089156551,1,24,29,28,61,7,-1,-72,-7
1491089156552,2,26,6,-21,5,-13,1,-24,-2
1491089156552,2,-61,-31,-13,6,21,3,58,-1
1491089156552,3,-11,14,17,19,2,-3,20,-9
1491089156552,3,-27,6,-4,-18,-25,1,-17,-9
1491089156553,0,-20,-8,-23,-6,6,1,-20,-7
1491089156553,0,17,16,-20,-45,-7,1,1,14
1491089156554,1,0,-3,16,1,12,-2,29,-4
1491089156554,1,7,-10,9,49,31,-2,-4,13
1491089156554,2,3,-13,-22,-21,11,6,33,-1
1491089156554,2,-7,-17,22,9,-6,-6,-48,-9
1491089156555,3,-17,-24,29,7,2,1,6,-6
1491089156555,3,21,14,-14,-66,4,-1,8,5
1491089156583,0,-7,11,61,75,-27,-6,-41,-4
1491089156583,0,9,19,-35,-33,26,-1,42,-2
1491089156621,1,-5,-26,-33,-97,-2,-10,4,-4
1491089156621,1,-12,-21,7,49,10,1,-16,1
1491089156622,2,-3,2,-4,-22,-4,-9,1,-5
1491089156622,2,17,22,5,2,3,-2,-24,-6
1491089156623,3,22,11,3,9,4,5,-3,5
1491089156623,3,-26,-20,-30,-84,-8,3,28,-5
1491089156623,0,22,16,17,52,1,-10,-48,-5
1491089156623,0,3,11,11,41,-42,-1,-28,6
1491089156658,1,11,20,28,1,-14,-1,-26,-7
1491089156658,1,-7,-20,-20,-13,-23,-4,-11,-8
1491089156660,2,-8,-21,1,-41,-8,1,35,4
1491089156660,2,20,-10,9,72,15,-4,-62,-2
1491089156660,3,5,-2,-27,-17,-7,-5,-28,-4
1491089156660,3,-6,-17,-1,-37,6,3,31,1
1491089156661,0,3,-3,20,-11,-31,2,-9,-2
1491089156661,0,9,-1,-10,4,8,-1,25,6
1491089156696,1,0,-3,11,19,-13,-7,13,-4
1491089156696,1,-1,-12,-22,-39,-10,-3,-8,-8
1491089156698,2,-25,-21,-12,-21,15,-2,-19,-5
1491089156698,2,10,-20,2,12,5,5,6,9
1491089156699,3,15,-10,15,19,-24,-2,22,3
1491089156699,3,-2,-11,7,14,6,6,19,-4
1491089156700,0,1,-14,-3,-14,5,3,37,9
1491089156700,0,-20,-24,-16,-26,2,-5,7,-12
1491089156733,1,-5,-3,-6,10,-26,2,26,2
1491089156733,1,11,31,17,19,-11,-9,12,3
1491089156734,2,-13,18,-2,-8,12,1,1,-3
1491089156734,2,9,17,6,-2,-6,0,35,1
1491089156735,3,3,21,-6,4,-15,4,7,1
1491089156735,3,-23,-3,-39,-30,-10,-1,12,-9
1491089156736,0,6,2,10,20,-4,-3,0,-4
1491089156736,0,10,15,3,-34,3,-10,-13,-3
1491089156771,1,14,22,33,51,-2,-3,-2,2
1491089156771,1,-7,-8,-3,-9,5,-37,-9,-2
1491089156772,2,-3,0,-11,-10,-6,-80,9,2
1491089156772,2,-30,-39,-38,-14,-3,-117,3,-11
1491089156773,3,14,-7,-9,-1,16,-63,-5,0
1491089156773,3,-7,18,25,32,10,0,-11,-1
1491089156773,0,27,20,8,11,2,68,-20,2
1491089156773,0,-11,16,0,-10,-1,92,-11,-1
1491089156808,1,-11,-14,-12,-10,-1,77,-21,2
1491089156808,1,-22,-38,-47,-13,8,73,-18,-9
1491089156809,2,-18,-10,24,0,-4,63,-25,-1
1491089156809,2,15,40,17,-3,8,59,-29,-3
1491089156812,3,-37,-58,-25,1,2,40,19,10
1491089156812,3,31,101,37,5,8,37,-2,-13
1491089156813,0,30,1,-9,-8,0,23,8,15
1491089156813,0,-39,-32,-56,-28,13,17,18,-11
1491089156846,1,-5,16,36,24,-20,20,1,1
1491089156846,1,-13,-37,-9,-10,-2,11,12,7
1491089156847,2,-17,0,-12,8,7,8,6,-18
1491089156847,2,-5,-8,26,22,-8,15,94,6
1491089156847,3,60,72,6,-16,0,12,125,-3
1491089156847,3,-50,-33,8,-7,-8,44,22,-6
1491089156848,0,25,17,0,-28,1,54,-14,7
1491089156848,0,-47,-6,13,36,16,69,-99,3
1491089156883,1,15,-6,-14,-7,-6,37,-78,-3
1491089156883,1,7,-30,-33,-21,-2,38,-56,4
1491089156884,2,-21,-66,7,1,-9,96,-78,-5
1491089156884,2,43,59,7,-16,1,117,8,17
1491089156885,3,-18,22,8,15,6,122,-63,-8
1491089156885,3,-23,-44,-14,-10,-19,10,-25,-13
1491089156886,0,6,13,-14,0,-1,-30,26,-7
1491089156886,0,-17,-28,-34,-12,1,-49,-2,-6
1491089156921,1,49,42,65,32,-3,-19,7,15
1491089156921,1,26,25,11,18,26,120,9,7
1491089156922,2,10,-4,23,-26,-19,122,10,-7
1491089156922,2,21,-19,-63,-19,-20,116,-32,-7
1491089156922,3,-79,-61,-17,-27,-7,3,-10,-15
1491089156922,3,9,-10,34,47,13,-14,20,9
1491089156923,0,33,0,21,9,0,-88,-15,-4
1491089156923,0,-35,19,14,-2,11,-84,15,-3
1491089156958,1,-6,12,-28,-1,0,-18,-12,-6
1491089156958,1,-10,-25,-17,-25,-15,-76,-44,-7
1491089156959,2,-63,16,-55,36,10,37,52,4
1491089156959,2,92,11,36,-3,-5,75,-80,-2
1491089156960,3,-68,-60,-38,-46,-9,4,-21,-16
1491089156960,3,50,31,-22,4,-13,4,43,24
1491089156961,0,-36,-57,3,-11,4,-127,2,-21
1491089156961,0,29,44,42,14,-6,-128,16,-2
1491089156996,1,-13,25,18,14,12,-117,26,9
1491089156996,1,-8,-17,-28,-22,-7,-120,-11,-10
1491089156997,2,-52,-23,-29,4,-22,-65,32,7
1491089156997,2,42,44,-22,-17,-2,-6,-27,2
1491089156997,3,-37,-49,36,14,21,-2,-20,-19
1491089156997,3,-13,89,60,13,-8,-34,52,15
1491089156998,0,10,-9,-20,-16,-13,-28,-48,-4
1491089156998,0,-19,-90,-3,-18,-11,-31,46,-4
1491089157033,1,47,12,-92,5,6,-27,5,18
1491089157033,1,-84,-59,64,31,12,56,-25,-20
1491089157034,2,16,102,27,15,13,-35,-21,-13
1491089157034,2,3,-41,2,-9,-11,-57,21,16
1491089157035,3,-33,-108,-68,-21,-31,-44,-34,-17
1491089157035,3,81,88,24,-18,8,-118,24,8
1491089157036,0,45,-39,-21,-10,-2,-88,-7,0
1491089157036,0,-61,-19,10,5,8,-39,11,-3
1491089157071,1,-10,-17,30,-5,3,31,-21,6
1491089157071,1,-22,-128,-44,7,-1,61,12,-6
1491089157072,2,23,93,20,-25,-1,74,2,18
1491089157072,2,-33,-27,-46,17,1,3,3,-29
1491089157073,3,-22,9,39,19,-3,85,18,-1
1491089157073,3,82,87,28,-3,5,94,-43,24
1491089157073,0,-11,-40,38,8,-3,-41,-15,-9
1491089157073,0,-54,-11,-4,-22,7,90,30,3
1491089157108,1,-10,-24,-50,-9,-24,-32,41,-5
1491089157108,1,29,-56,-5,8,0,-98,-99,-8
1491089157109,2,-1,71,-10,-6,5,-59,41,7
1491089157109,2,-24,-33,30,22,5,-78,-15,3
1491089157110,3,71,108,27,10,8,-26,43,6
1491089157110,3,24,44,-24,-22,-8,-40,-9,0
1491089157146,0,-21,-24,27,-22,12,118,38,6
1491089157146,0,31,-63,10,47,6,-9,-26,7
1491089157146,1,-19,33,-27,-6,-10,6,-25,0
1491089157146,1,-16,-26,-11,8,1,37,30,-7
1491089157147,2,-33,-50,0,1,0,110,13,-9
1491089157147,2,22,49,-25,-22,-10,85,-1,-19
1491089157148,3,67,12,23,17,4,44,1,24
1491089157148,3,1,-60,-35,-17,-7,28,10,-10
1491089157183,0,23,107,25,17,13,120,5,1
1491089157183,0,4,-26,28,-3,-2,-11,16,-14
1491089157185,1,21,-21,10,9,7,-34,-23,-7
1491089157185,1,-17,0,-6,-2,8,-15,11,0
1491089157187,2,11,-92,-44,1,-13,-82,6,7
1491089157187,2,-40,-10,-21,-13,-13,-2,-17,-26
1491089157187,3,33,38,21,22,1,17,23,12
1491089157187,3,21,1,-5,-7,1,26,13,-2
1491089157221,0,-33,-36,-18,16,-5,-13,-22,-1
1491089157221,0,95,64,10,-4,-8,-61,9,22
1491089157222,1,-68,-55,-10,-28,12,-64,-2,-12
1491089157222,1,-21,1,-20,-15,-9,14,-5,-9
1491089157223,2,0,33,31,3,10,-19,0,9
1491089157223,2,17,-8,-17,-1,1,-34,18,5
1491089157258,3,9,-26,15,-13,5,1,2,-5
1491089157258,3,-21,-5,-14,9,-11,-41,41,-7
1491089157259,0,-8,-48,-35,-15,-11,-21,15,-14
1491089157259,0,-14,23,39,17,2,19,15,-1
1491089157260,1,3,47,15,9,-12,7,-19,3
1491089157260,1,-26,6,-3,-3,-1,27,-59,0
1491089157261,2,59,-26,-13,-5,-12,21,-25,-6
1491089157261,2,-17,-19,-16,-5,8,93,5,4
1491089157296,3,-2,32,6,-18,-3,31,-7,6
1491089157296,3,-35,16,7,19,1,-43,-9,-16
1491089157296,0,-5,-18,2,-2,1,-31,69,18
1491089157296,0,10,-38,-25,-15,-1,-43,-40,-5
1491089157297,1,-13,18,2,-16,8,-37,17,-4
1491089157297,1,8,34,18,-6,-8,27,-11,8
1491089157298,2,-40,-37,-5,7,8,-24,3,-11
1491089157298,2,-18,18,12,-8,4,-14,-53,-5
1491089157333,3,10,-16,-21,0,-15,-24,-8,0
1491089157333,3,14,-27,-15,-3,5,-42,5,9
1491089157334,0,-31,4,17,8,7,4,-33,-7
1491089157334,0,20,47,4,-5,-4,3,6,19
1491089157335,1,-8,-52,-6,-3,-3,36,3,-16
1491089157335,1,18,-8,-9,1,-2,21,-3,-11
1491089157336,2,-22,30,-10,-7,-3,21,-20,5
1491089157336,2,6,-6,4,0,1,15,34,1
1491089157371,3,30,49,24,23,6,11,-31,5
1491089157371,3,-27,-20,-8,-26,-1,32,-17,-6
1491089157372,0,-8,-18,-18,-8,-9,-30,-28,-5
1491089157372,0,34,13,3,4,-4,-7,-3,10
1491089157373,1,-33,-11,-8,-15,-7,-13,17,-2
1491089157373,1,-20,-32,2,18,4,-2,40,-1
1491089157446,2,39,23,0,-7,-5,-17,-44,-6
1491089157446,2,-23,8,11,24,-2,-30,27,-7
1491089157447,3,27,-10,2,17,-2,-13,32,0
1491089157447,3,24,29,4,-13,2,-5,0,5
1491089157447,0,-79,-34,4,-1,5,13,21,-12
1491089157447,0,-14,-15,-19,-34,-13,16,-50,-12
1491089157448,1,33,-1,5,3,-6,29,12,1
1491089157448,1,-44,-1,-33,-15,-7,14,-44,-9
1491089157483,2,-7,7,1,-7,-6,11,-4,6
1491089157483,2,-7,-26,-6,8,1,-21,31,-6
1491089157484,3,-24,-12,14,-3,10,-89,-28,-5
1491089157484,3,95,71,15,2,-12,-29,31,19
1491089157485,0,-29,-7,6,10,1,-2,-34,0
1491089157485,0,-34,-18,-25,-27,-10,29,3,5
1491089157486,2,46,9,-16,-12,5,12,2,1
1491089157486,2,30,34,19,27,4,-19,27,7
1491089157521,3,-41,-16,8,9,25,-45,15,-23
1491089157521,3,5,7,16,11,2,-30,-24,-8
1491089157522,0,35,15,0,8,-13,-5,32,0
1491089157522,0,17,-18,-5,8,-2,34,-3,-7
1491089157523,2,20,17,-4,-1,-10,15,33,0
1491089157523,2,-5,-19,-11,-30,-16,-38,-10,7
1491089157524,3,-17,-50,-20,12,5,-12,67,16
1491089157524,3,-8,57,1,5,0,0,-73,0
1491089157558,0,-1,16,21,-7,9,2,18,-8
1491089157558,0,-7,1,5,9,10,21,-14,8
1491089157559,1,-10,2,4,-6,-14,26,-29,-11
1491089157559,1,-3,-11,-6,4,2,-25,-11,3
1491089157560,2,-53,-56,-31,-5,-16,-12,-23,-16
1491089157560,2,24,16,-7,6,5,9,-16,-8
1491089157561,3,29,9,-5,-22,-9,8,11,20
1491089157561,3,-28,-22,17,4,-1,46,-17,-11
1491089157596,0,6,-14,-25,-4,-7,-16,-34,1
1491089157596,0,49,27,2,-2,-1,-5,32,-8
1491089157597,1,38,24,16,7,7,21,-46,21
1491089157597,1,-7,31,4,7,6,18,48,3
1491089157597,2,24,-48,0,-11,-8,-22,-33,-1
1491089157597,2,-40,3,-3,-15,-20,-22,-42,-11
1491089157598,3,-2,0,-19,-10,-11,-7,6,-10
1491089157598,3,-10,-104,-15,1,-1,-2,41,-6
1491089157633,0,20,72,1,11,22,14,-1,2
1491089157633,0,-32,-5,11,-7,-4,23,-13,9
1491089157634,1,6,25,-8,13,2,16,25,-20
1491089157634,1,13,40,26,0,-4,30,15,18
1491089157635,2,47,-3,-5,-10,13,2,-20,6
1491089157635,2,-53,-66,-1,14,-9,20,-40,-29
1491089157636,3,6,2,19,-9,-8,1,15,2
1491089157636,3,-76,7,-42,-4,-3,-9,-14,-35
1491089157671,0,-6,-11,13,-4,-12,32,18,6
1491089157671,0,-67,-26,9,20,11,24,16,-3
1491089157672,1,-14,4,-74,-29,-6,53,-12,2
1491089157672,1,-72,-41,-39,-16,-11,37,-30,-12
1491089157672,2,43,27,100,-10,27,42,27,2
1491089157672,2,-19,34,79,43,2,40,1,0
1491089157673,3,-17,-51,1,21,-8,2,-7,20
1491089157673,3,20,-32,-36,-33,-27,-53,-53,-18
1491089157746,0,21,62,-128,-36,0,-54,40,4
1491089157746,0,72,-19,79,-6,1,-60,-12,14
1491089157747,1,-45,-14,27,13,5,-20,54,-40
1491089157747,1,93,9,0,0,4,-14,-12,18
1491089157748,2,-51,-46,82,21,-8,-31,-1,1
1491089157748,2,72,45,-110,-19,12,-40,0,21
1491089157749,3,17,-29,55,1,7,-21,-53,-29
1491089157749,3,20,31,-40,-10,1,13,20,11
1491089157783,0,-22,-32,46,11,18,22,13,-17
1491089157783,0,-10,-24,27,-8,-28,-33,-3,14
1491089157784,1,-74,-30,-108,-37,-19,15,0,-4
1491089157784,1,-30,41,39,-68,2,50,-38,-1
1491089157785,2,58,41,0,92,11,1,30,-4
1491089157785,2,-106,-62,31,15,-7,45,40,4
1491089157821,0,-63,-22,-26,-4,4,-17,-43,6
1491089157821,0,53,0,80,2,-15,-40,3,-15
1491089157822,1,25,50,-99,-18,0,18,-18,-1
1491089157822,1,42,-58,86,-4,-3,-54,25,5
1491089157822,2,-46,-65,18,45,0,-10,-41,-5
1491089157822,2,-56,-11,-31,15,-24,-25,43,-11
1491089157823,0,-81,-26,-45,35,1,-22,12,-31
1491089157823,0,77,70,45,27,23,48,-12,47
1491089157859,1,-26,-21,-16,-26,1,33,49,10
1491089157859,1,-128,-128,-69,-19,2,-16,31,-16
1491089157860,2,2,9,24,27,-44,8,-58,-14
1491089157860,2,4,-21,-66,-73,-7,-2,23,-25
1491089157861,3,-10,-76,11,9,-42,7,-25,11
1491089157861,3,40,60,93,32,36,5,18,7
1491089157861,0,51,111,65,-10,1,43,-44,7
1491089157861,0,9,-55,-72,9,2,-54,33,-4
1491089157896,1,20,54,19,33,1,29,-31,3
1491089157896,1,-57,-62,-103,-67,-4,24,8,-25
1491089157898,2,83,4,92,20,7,11,69,28
1491089157898,2,-4,15,-98,-13,-19,34,-98,-7
1491089157900,3,36,-77,30,-17,14,-35,78,16
1491089157900,3,-83,49,-16,119,-23,57,-32,-4
1491089157902,0,1,-76,64,-105,23,-28,-28,2
1491089157902,0,63,43,-31,24,3,17,47,10
1491089157933,1,-66,-37,-22,56,3,8,-85,-9
1491089157933,1,-62,-104,-35,-44,-14,-48,1,-6
1491089157934,2,6,51,-85,-50,-39,-27,51,-10
1491089157934,2,-28,20,98,-83,37,17,-21,-4
1491089157935,3,-39,-54,-42,43,-17,-26,2,-20
1491089157935,3,65,127,121,41,6,18,-4,-4
1491089157936,0,-70,-128,36,9,-15,-57,-7,11
1491089157936,0,-11,-32,-74,-70,-19,-104,-26,-38
1491089157971,1,-10,76,96,-23,26,-93,19,13
1491089157971,1,42,-55,-101,22,3,-96,4,10
1491089157972,2,-28,9,50,-42,-13,-56,32,4
1491089157972,2,20,-112,-86,61,-5,-65,-33,12
1491089157972,3,74,43,127,-40,-3,3,45,18
1491089157972,3,41,59,48,24,-2,34,-68,-3
1491089157973,0,-73,-83,51,-46,27,-38,3,-21
1491089157973,0,-4,89,-76,55,3,-64,6,-4
1491089158008,1,-2,26,-58,-46,-11,42,-7,-3
1491089158008,1,-93,-126,-103,-26,-29,-31,0,-31
1491089158009,2,64,127,36,23,30,10,-10,22
1491089158009,2,-88,-24,80,101,48,-7,32,21
1491089158010,3,99,84,-31,-60,3,57,8,2
1491089158010,3,-8,-75,-85,-62,-8,23,30,-12
1491089158011,0,-52,-65,-12,84,-56,117,-64,-15
1491089158011,0,-114,-50,-56,-43,-2,127,33,-8
1491089158046,1,69,122,103,46,30,55,-10,12
1491089158046,1,60,73,127,48,29,48,16,19
1491089158047,2,31,-118,-128,-82,-36,8,55,4
1491089158047,2,-58,15,37,-16,-28,-31,-52,-16
1491089158047,3,-69,-50,5,38,13,4,-7,-26
1491089158047,3,-86,-9,113,-9,9,-31,22,-19
1491089158048,0,113,120,-82,22,44,-36,29,13
1491089158048,0,-57,-15,73,39,-30,15,-16,2
1491089158083,1,57,-105,-60,-4,2,-50,-6,6
1491089158083,1,-12,-5,-36,-14,-4,-7,13,-15
1491089158084,2,-1,-55,121,25,-2,-7,2,16
1491089158084,2,20,0,-87,-71,-1,2,-48,-9
1491089158085,3,-30,39,127,57,29,-22,13,-2
1491089158085,3,-15,31,99,69,-8,-9,-8,14
1491089158086,0,27,-71,-128,-115,-40,17,-26,7
1491089158086,0,30,21,127,-4,11,-5,-5,-7
1491089158121,1,-16,45,-81,-5,-31,-13,32,1
1491089158121,1,-53,-60,76,19,25,0,-34,-3
1491089158122,2,67,127,19,22,11,-9,-20,-9
1491089158122,2,-74,-114,-62,-66,-27,6,29,-1
1491089158122,3,-16,5,100,43,-20,-3,-7,-10
1491089158122,3,47,-25,19,-17,1,-2,9,12
1491089158123,0,-2,90,29,-19,13,6,-5,7
1491089158123,0,50,12,59,70,27,-1,6,13
1491089158159,1,-108,-75,-41,-70,-15,0,-13,-11
1491089158159,1,-6,-128,-128,-28,-50,-5,-33,-10
1491089158160,2,-52,-4,-107,-35,-30,-5,-6,-15
1491089158160,2,70,69,36,43,30,3,37,-6
1491089158161,3,20,84,115,76,20,-9,16,25
1491089158161,3,41,-33,-128,-50,-2,-3,-7,1
1491089158162,0,66,63,126,64,11,3,16,7
1491089158162,0,-11,74,21,-46,12,12,-18,-9
1491089158196,1,-57,-103,-83,-88,-38,-1,-12,-12
1491089158196,1,23,46,91,96,3,1,-6,4
1491089158197,2,-65,-128,-86,-36,16,4,-16,-29
1491089158197,2,71,26,2,-62,-7,-3,18,43
1491089158198,3,30,-14,93,55,4,-7,-3,-3
1491089158198,3,36,100,-128,-57,14,6,4,-2
1491089158199,0,-66,-33,104,77,16,-2,-8,-9
1491089158199,0,-29,-70,-18,12,-24,4,7,-16
1491089158233,1,27,93,34,-83,28,-1,9,-6
1491089158233,1,11,8,85,92,-20,-6,1,16
1491089158234,2,-75,-48,-95,-40,-17,-2,-16,-24
1491089158234,2,2,-73,-115,-67,-18,-6,-8,-5
1491089158235,3,-10,-52,-25,-60,-7,-1,7,-5
1491089158235,3,22,96,113,46,44,-4,22,4
1491089158271,0,13,52,59,21,-13,1,1,8
1491089158271,0,-20,-49,-40,21,9,2,-10,-8
1491089158272,1,23,-14,-66,-32,-11,-4,-9,-2
1491089158272,1,-11,-25,-49,-34,-18,-3,-4,-7
1491089158272,2,-16,11,-76,-7,4,-7,10,5
1491089158272,2,44,110,119,24,31,3,4,1
1491089158273,3,-29,-18,6,91,-12,-2,-18,-8
1491089158273,3,10,-28,-5,-68,-2,-3,7,5
1491089158308,0,-9,-39,-10,-5,-12,4,0,-5
1491089158308,0,-20,-36,-90,-19,-25,1,-13,-13
1491089158309,1,-32,2,-3,47,-12,-5,-2,-8
1491089158309,1,22,6,13,-30,-4,-5,0,4
1491089158310,2,-16,-22,17,-40,12,-6,2,-2
1491089158310,2,21,59,108,66,27,-10,13,7
1491089158311,3,-1,4,-15,5,-11,0,-1,6
1491089158311,3,-22,-38,-38,-56,-3,-1,-3,-5
1491089158346,0,17,19,-37,4,3,-1,2,3
1491089158346,0,5,6,13,3,-34,0,-6,-7
1491089158347,1,-16,-15,-60,-10,9,-4,-4,-8
1491089158347,1,7,-5,27,41,-9,0,-4,5
1491089158347,2,7,12,53,2,-13,-2,-2,5
1491089158347,2,-12,-30,-29,-27,29,0,-9,-6
1491089158348,3,1,16,3,29,1,2,-5,-3
1491089158348,3,3,-1,70,-36,-23,-3,-1,0
1491089158383,0,-32,-35,-65,4,1,-1,-12,-12
1491089158383,0,17,27,60,30,6,-2,-6,-1
1491089158384,1,4,25,41,18,19,1,-1,17
1491089158384,1,-37,-18,-20,6,20,1,-11,-5
1491089158385,2,19,-9,-32,-65,10,-7,12,2
1491089158385,2,-9,-7,45,-9,-26,-1,-13,-8
1491089158421,3,-11,-29,-35,26,-9,-1,13,1
1491089158421,3,8,28,41,47,-5,-5,-11,0
1491089158422,0,16,13,73,37,20,2,-7,0
1491089158422,0,-8,-8,-36,-38,0,-2,11,-3
1491089158422,1,8,-2,12,30,-7,-1,-2,-5
1491089158422,1,-1,-23,-40,-17,16,2,18,-2
1491089158423,2,-21,-26,-88,-79,-42,0,-3,-8
1491089158423,2,32,72,89,35,35,-2,-9,5
1491089158458,3,-4,-10,45,60,10,-1,-17,-6
1491089158458,3,-7,-28,-124,-54,-8,1,-13,-3
1491089158459,0,-1,-19,70,15,23,-4,-15,9
1491089158459,0,-39,-27,-18,8,-34,-1,43,-8
1491089158460,1,18,13,-38,-58,-10,-6,-36,2
1491089158460,1,-2,14,7,6,17,0,34,-9
1491089158461,2,23,31,26,57,20,2,-5,13
1491089158461,2,-5,-34,-58,27,37,-1,-26,-6
1491089158496,3,-9,46,33,-45,-13,-1,-66,-7
1491089158496,3,10,48,-26,21,11,-5,10,5
1491089158496,0,2,29,33,-15,-12,4,34,6
1491089158496,0,2,0,7,13,20,-1,57,-4
1491089158497,1,-11,-31,-64,-44,-22,1,9,-11
1491089158497,1,1,0,19,30,7,0,-14,2
1491089158498,2,10,29,-20,-9,31,-4,27,11
1491089158498,2,-3,22,8,7,-6,-1,-18,3
1491089158533,3,-7,-1,-3,14,6,-3,-59,-9
1491089158533,3,1,7,-6,7,-11,0,-14,5
1491089158534,0,5,31,-24,15,-33,-7,-51,-10
1491089158534,0,-6,4,-5,-60,6,-4,-20,-5
1491089158535,1,-3,3,5,-1,-7,-3,0,0
1491089158535,1,2,-4,-8,-30,-22,-3,25,-7
1491089158571,2,-9,-32,27,90,-10,0,31,-4
1491089158571,2,2,-49,-1,-39,-12,-2,43,1
1491089158572,3,-9,-61,1,-47,22,-5,35,-2
1491089158572,3,8,-42,20,19,-28,3,-5,-2
1491089158572,0,-9,-43,-8,-20,-30,3,0,-7
1491089158572,0,-1,-24,21,31,3,-6,15,0
1491089158573,1,-3,-37,-25,-57,17,-2,41,-4
1491089158573,1,3,5,37,51,-22,2,-7,1
1491089158609,2,-20,2,-18,-26,-7,-5,18,-5
1491089158609,2,4,16,-18,2,2,3,-43,-2
1491089158609,3,4,-13,-3,23,-44,2,26,3
1491089158609,3,-6,-31,-8,-34,7,-8,2,-1
1491089158610,0,4,-18,6,-12,-12,-1,-44,-6
1491089158610,0,-2,-23,-11,12,-37,-1,10,5
1491089158611,1,-3,-12,14,-6,16,-2,35,-4
1491089158611,1,-6,-2,-3,8,10,2,-69,-4
1491089158646,2,10,-7,12,30,2,-4,19,3
1491089158646,2,-1,-11,-24,-46,-27,-4,9,-1
1491089158648,3,3,16,1,32,-12,0,19,1
1491089158648,3,-13,-5,-15,-37,9,0,-43,-12
1491089158649,0,8,30,24,33,24,-2,-3,0
1491089158649,0,12,34,-2,7,-15,-1,-10,0
1491089158652,1,-2,17,1,5,-7,-2,20,4
1491089158652,1,-7,-10,-12,-17,12,-4,19,-1
1491089158683,2,-3,9,0,-7,-25,1,3,2
1491089158683,2,-15,-10,-6,-11,-7,5,-39,-7
1491089158684,3,-3,-3,-21,-3,5,-1,-3,1
1491089158684,3,2,18,-7,-27,5,-1,24,-1
1491089158685,0,8,23,33,53,12,-3,-5,3
1491089158685,0,13,7,-4,2,-4,-4,-8,3
1491089158721,1,14,35,13,13,4,-5,-6,-1
1491089158721,1,-9,-4,-22,-25,-32,-1,7,-4
1491089158722,2,-3,-16,-26,-13,10,-4,-11,-6
1491089158722,2,-22,-3,12,11,-3,1,5,-2
1491089158723,3,19,9,3,-11,-5,1,19,-1
1491089158723,3,-5,-20,-3,5,-7,86,-25,-5
1491089158724,0,-7,30,0,-11,-6,-59,5,1
1491089158724,0,9,-10,-18,-8,-3,-24,-18,-4
1491089158758,1,3,3,-1,4,14,-119,-13,1
1491089158758,1,0,23,14,32,1,-50,5,-5
1491089158760,2,-3,-9,-6,-37,12,19,-17,1
1491089158760,2,-4,1,-6,-9,-1,64,0,-2
1491089158760,3,-23,-4,-3,3,11,96,-8,-2
1491089158760,3,22,7,-4,-13,-4,46,-27,1
1491089158761,0,-13,-15,-16,-16,3,77,-19,3
1491089158761,0,32,18,17,15,-5,42,42,-3
1491089158796,1,-4,-11,14,-4,27,62,19,5
1491089158796,1,-14,-6,0,-26,-2,22,11,3
1491089158797,2,-16,-15,-15,12,5,39,-19,-9
1491089158797,2,2,9,-17,-5,-8,29,-2,7
1491089158797,3,2,0,-7,1,-6,21,6,-10
1491089158797,3,-35,-7,17,12,17,12,117,-12
1491089158798,0,28,14,11,4,12,14,121,2
1491089158798,0,-21,-49,-29,-26,-12,-3,26,3
1491089158833,1,3,40,-5,23,-4,14,-35,-4
1491089158833,1,12,-5,-8,3,-2,-6,-75,3
1491089158835,2,-18,-22,-8,-19,-2,4,-93,-10
1491089158835,2,-12,-1,-8,-10,3,-6,-89,0
1491089158836,3,-6,-27,-30,-7,-19,59,-43,-1
1491089158836,3,8,4,17,28,5,116,79,1
1491089158871,0,-14,-3,0,-17,-1,126,42,-4
1491089158871,0,41,9,22,4,-8,127,-32,2
1491089158872,1,11,34,19,13,-4,127,-38,-1
1491089158872,1,5,-18,-18,-14,7,-21,-28,6
1491089158872,2,-10,-31,-32,-4,-5,94,-40,-4
1491089158872,2,-45,13,1,19,8,23,-11,-14
1491089158874,3,-4,-47,4,-11,-13,1,29,-2
1491089158874,3,36,76,15,18,-1,118,-7,12
1491089158946,0,12,9,11,-2,8,2,-18,6
1491089158946,0,-21,-43,-57,-19,-5,-49,-5,-10
1491089158947,1,-63,-9,-13,-10,-11,-114,35,6
1491089158947,1,-6,19,28,-7,-1,-128,47,2
1491089158948,2,5,25,-9,19,15,-128,36,-9
1491089158948,2,57,42,72,21,12,-90,-37,25
1491089158948,3,25,22,-18,-12,3,-58,-28,-10
1491089158948,3,-81,-80,-12,0,-2,-61,-78,-11
1491089158984,0,21,21,-10,-16,-7,-43,-16,4
1491089158984,0,-43,-37,68,33,-15,-86,13,-9
1491089158985,1,30,-13,47,10,-7,-34,-20,3
1491089158985,1,53,81,27,20,-6,-19,-22,9
1491089158987,0,27,12,20,7,12,-30,-20,-4
1491089158987,0,-1,23,4,1,-6,0,-33,-2
1491089158988,1,-38,-55,-49,-48,-23,3,6,-21
1491089158988,1,-77,-4,7,7,0,-6,-20,-5
1491089159021,2,21,52,24,16,-6,-32,14,7
1491089159021,2,-24,-48,-31,1,2,3,17,-26
1491089159022,3,69,7,-13,-23,7,-24,6,27
1491089159022,3,-12,-43,14,-7,-9,-12,-22,-11
1491089159023,0,-28,29,-1,14,5,-4,-1,0
1491089159023,0,22,-4,46,23,11,-4,7,-1
1491089159025,1,-39,-52,-51,-2,10,-4,-3,5
1491089159025,1,-21,-54,-32,-24,-12,-10,5,-12
1491089159059,2,20,43,-8,-26,-7,-3,11,-1
1491089159059,2,38,4,-16,-12,8,-7,-34,9
1491089159061,3,3,8,26,26,-1,11,18,-6
1491089159061,3,-4,-13,15,1,-15,-17,-8,-5
1491089159062,0,-25,-62,-42,-19,-12,14,-7,1
1491089159062,0,-13,58,34,6,9,14,60,0
1491089159063,1,-38,-21,18,16,-2,28,-27,-15
1491089159063,1,22,-17,-35,-15,-5,9,0,14
1491089159096,2,14,2,-11,4,-15,94,25,-7
1491089159096,2,5,29,31,-7,-3,80,-75,-1
1491089159097,3,64,7,-21,16,8,-49,20,-7
1491089159097,3,-8,12,34,-11,11,-85,12,9
1491089159099,0,23,26,-1,15,1,-128,-22,-1
1491089159099,0,-29,-37,-48,-30,-7,-40,35,1
1491089159100,1,5,-18,11,4,-9,-42,-84,-9
1491089159100,1,-26,-50,-42,0,-8,-41,-17,-7
1491089159134,2,30,70,80,19,6,-64,16,-7
1491089159134,2,32,42,22,4,-4,-8,4,15
1491089159135,3,12,-31,-47,-26,-4,-107,-29,-6
1491089159135,3,-57,-61,1,-6,13,-39,49,-11
1491089159136,0,-15,-103,-37,10,-12,-78,-22,-1
1491089159136,0,-3,51,22,6,2,-112,47,-12
1491089159137,1,-13,1,-17,-11,-7,41,15,-5
1491089159137,1,13,14,-7,11,2,98,-60,-3
1491089159171,2,-59,-60,31,-2,7,127,-12,-8
1491089159171,2,126,104,3,-2,-14,13,17,18
1491089159173,3,-8,-28,15,2,12,-10,74,7
1491089159173,3,-6,-24,-11,-7,-11,-49,25,10
1491089159209,0,-18,42,14,12,7,-43,-34,-5
1491089159209,0,-13,-79,-65,-21,-6,59,5,1
1491089159211,1,-37,45,46,32,8,17,15,-15
1491089159211,1,-14,7,13,3,0,69,-49,-13
1491089159212,2,-14,-36,-22,-19,0,-76,40,25
1491089159212,2,-25,-3,-68,-41,-20,62,-16,0
1491089159213,3,79,45,-4,1,13,96,38,8
1491089159213,3,13,-29,23,7,-1,55,-77,-20
1491089159246,0,-35,6,14,1,1,-39,21,12
1491089159246,0,31,39,34,28,10,-43,4,-1
1491089159283,1,4,-37,-17,-4,4,-25,19,0
1491089159283,1,6,104,18,8,8,-30,38,-4
1491089159321,2,5,-47,5,-11,-12,47,-38,-8
1491089159321,2,-122,-118,-42,-8,9,-72,33,-40
1491089159322,3,14,19,7,4,-11,-53,-66,30
1491089159322,3,-7,80,29,21,-10,-85,-49,-17
1491089159324,0,-72,-36,-54,-18,-16,-59,1,3
1491089159324,0,109,72,14,-10,11,38,81,38
1491089159325,1,27,-2,20,-13,2,44,-66,9
1491089159325,1,-34,-66,-10,-20,-10,60,13,-22
1491089159358,2,27,36,2,41,3,-31,-49,0
1491089159358,2,-96,-84,-11,15,-2,-65,-18,-14
1491089159360,1,-57,14,-32,6,-9,1,-6,-4
1491089159360,1,9,-69,-17,17,18,-13,45,4
1491089159361,1,27,-17,-4,7,-10,-51,-44,-7
1491089159361,1,7,11,-28,-9,-5,-66,65,8
1491089159362,2,-42,-1,14,-17,11,16,-28,1
1491089159362,2,-12,3,20,5,14,-30,-28,-10
1491089159396,3,14,16,10,17,2,17,19,-10
1491089159396,3,44,-7,-12,-6,-5,-50,8,13
1491089159397,0,-7,5,-23,-15,-3,49,2,0
1491089159397,0,89,44,16,13,-4,-4,15,0
1491089159398,1,-72,-16,4,-20,7,62,13,3
1491089159398,1,23,54,16,16,5,32,34,16
1491089159400,2,-14,18,-1,-7,-3,-35,-13,-12
1491089159400,2,14,-2,-20,-6,-1,-12,-23,16
1491089159433,3,-8,-58,-20,-26,-4,-36,53,0
1491089159433,3,-24,-42,-2,-7,-5,-3,-9,3
1491089159434,0,5,42,35,14,15,20,-24,-7
1491089159434,0,-50,-6,-18,14,-8,-25,-11,-4
1491089159435,1,96,25,-20,-9,-19,-1,-23,22
1491089159435,1,-57,-17,31,28,10,-8,8,-7
1491089159436,2,72,-40,-29,11,2,49,29,4
1491089159436,2,-15,20,37,19,5,47,-13,-3
1491089159471,3,4,77,2,13,6,28,24,9
1491089159471,3,-27,-37,-5,-10,-10,5,13,-18
1491089159472,0,-26,-17,8,11,-14,-7,13,-15
1491089159472,0,-1,7,-26,-23,-1,20,-12,2
1491089159473,1,-34,-38,5,9,5,12,1,1
1491089159473,1,1,-21,-29,-37,-21,14,-49,-12
1491089159474,2,-35,-7,0,-10,-4,13,-26,1
1491089159474,2,60,-4,25,-15,13,-7,-23,1
1491089159508,3,5,11,-4,3,-13,3,8,20
1491089159508,3,6,58,19,3,0,9,-15,-9
1491089159509,0,14,20,-13,6,-5,-20,-7,-1
1491089159509,0,10,-34,19,3,8,6,3,-2
1491089159510,1,-57,25,-4,-1,-2,-5,-37,-13
1491089159510,1,-26,-48,-20,2,-4,-7,0,-13
1491089159511,2,51,7,-14,-29,-17,-11,18,4
1491089159511,2,10,10,6,-4,18,15,-66,-23
1491089159546,3,8,-40,12,2,6,-8,19,4
1491089159546,3,14,15,-19,-11,3,5,47,-6
1491089159547,0,9,-14,7,19,-4,-2,-55,-8
1491089159547,0,-37,-17,-32,-14,-17,-2,39,-4
1491089159549,1,-29,-42,-25,-25,7,6,17,3
1491089159549,1,84,83,44,36,-4,-1,-21,15
1491089159550,2,-94,-28,29,-24,-1,11,0,-7
1491089159550,2,-28,-50,-6,5,5,29,72,-1
1491089159583,3,47,4,-19,-24,-37,-38,-41,-2
1491089159583,3,71,44,-43,-26,15,11,-28,19
1491089159584,0,-77,-57,44,22,-1,-15,50,-27
1491089159584,0,23,43,-10,59,-11,-44,13,23
1491089159585,1,-29,7,0,-15,14,19,-39,-26
1491089159585,1,-25,-66,62,8,2,36,46,6
1491089159586,2,-39,73,-52,-21,-10,-16,-52,10
1491089159586,2,14,16,5,-35,2,-9,-63,5
1491089159621,3,10,-38,-25,-15,6,-5,-4,-9
1491089159621,3,-56,-25,7,21,17,15,-17,-8
1491089159622,0,35,-21,13,8,-1,-15,24,10
1491089159622,0,-48,10,21,25,-19,6,5,-27
1491089159622,1,17,24,-41,0,7,-5,-34,5
1491089159622,1,-11,-36,-3,-43,-11,-19,-40,-1
1491089159623,2,-25,-97,-76,5,7,-11,16,-15
1491089159623,2,-12,39,64,-4,-1,3,6,20
1491089159658,3,99,54,72,66,3,-15,49,-7
1491089159658,3,-128,32,-30,-25,-2,25,-4,-15
1491089159660,0,22,-3,-16,-28,-13,-37,8,-5
1491089159660,0,-43,-39,-49,-56,9,6,-35,8
1491089159661,1,-1,-19,45,4,-12,17,-47,-12
1491089159661,1,56,31,-68,7,-12,-17,19,8
1491089159662,2,55,-59,43,6,5,9,-5,16
1491089159662,2,-46,31,-16,23,8,52,-18,-35
1491089159696,3,28,29,-12,-8,-3,-41,29,26
1491089159696,3,120,5,68,6,33,1,37,14
1491089159697,0,65,80,-49,22,-12,8,-19,12
1491089159697,0,-63,-74,-14,-24,14,1,-17,-37
1491089159698,1,81,32,-48,36,-31,-7,53,-10
1491089159698,1,-96,-128,-59,-28,-10,-18,-87,16
1491089159733,2,48,30,3,-51,4,45,58,29
1491089159733,2,87,109,113,63,6,-9,61,-2
1491089159734,3,-82,-10,-5,30,2,44,-13,-22
1491089159734,3,-29,-23,-14,-31,13,7,16,-8
1491089159735,0,-4,-1,70,39,-9,-23,-8,10
1491089159735,0,-12,10,-85,-57,7,32,15,33
1491089159736,1,-55,-102,-28,20,-5,-68,22,-24
1491089159736,1,-17,67,76,19,-2,56,-65,2
1491089159771,2,47,90,-36,63,1,22,9,-20
1491089159771,2,17,-44,60,13,-37,-48,-80,-5
1491089159773,3,-86,-110,62,-27,35,-104,25,-39
1491089159773,3,96,67,-60,-51,-31,-33,23,30
1491089159774,0,-6,-18,-32,-5,8,25,-26,-17
1491089159774,0,-19,-54,54,42,-6,28,33,-1
1491089159775,1,36,9,19,14,16,26,10,34
1491089159775,1,77,125,107,34,5,-7,14,0
1491089159809,2,-45,-128,-51,14,-1,25,52,-4
1491089159809,2,68,-85,-11,30,-10,-9,-63,-2
1491089159810,3,-49,-58,-72,-85,-16,8,39,1
1491089159810,3,-127,-87,11,-31,-5,-39,-40,-64
1491089159812,0,83,34,75,-6,-17,44,-4,39
1491089159812,0,74,25,-95,-25,18,-26,16,13
1491089159813,1,-76,-30,92,10,-2,38,-41,-7
1491089159813,1,99,92,-49,28,-6,93,12,40
1491089159846,2,-128,-123,3,16,17,14,-54,-58
1491089159846,2,-23,-69,-80,-85,-57,-56,2,6
1491089159847,3,113,87,56,18,3,14,-13,19
1491089159847,3,-29,-93,-61,17,7,-63,-2,-3
1491089159848,0,-53,-18,6,-56,30,-56,65,5
1491089159848,0,12,69,99,81,13,39,-61,-2
1491089159883,1,-42,39,-98,-23,-13,49,13,-8
1491089159883,1,-105,-128,9,-3,-8,-57,-12,-54
1491089159884,2,127,127,5,-13,-11,17,28,21
1491089159884,2,15,11,4,26,-10,23,6,22
1491089159885,3,-72,-43,-36,-43,18,10,-5,-64
1491089159885,3,36,86,103,22,-11,-7,-50,-25
1491089159886,0,-57,-48,-128,-20,1,-104,9,11
1491089159886,0,-66,-56,19,-50,-45,-116,20,-9
1491089159958,1,68,62,125,9,-6,-106,-3,31
1491089159958,1,41,-22,-83,17,43,-57,58,14
1491089159960,2,-77,105,127,3,36,-52,-39,-34
1491089159960,2,-19,-32,-90,30,-28,-20,-8,-20
1491089159962,3,5,-70,-47,-10,-39,6,5,23
1491089159962,3,-51,10,-114,-49,5,-82,-19,-2
1491089159962,0,76,92,81,89,21,-65,59,28
1491089159962,0,-44,-62,-77,-6,-20,74,37,0
1491089159996,1,31,102,-1,-31,5,-50,-74,-4
1491089159996,1,-10,-36,-90,-1,-19,127,7,5
1491089159999,2,-50,-49,-5,-35,21,120,2,-25
1491089159999,2,60,23,30,81,12,110,32,8
1491089160000,3,20,42,58,-4,11,106,31,0
1491089160000,3,3,26,108,113,16,-14,3,14
1491089160003,0,-19,-78,-108,-83,-36,-28,-15,8
1491089160003,0,-29,-91,-26,-23,34,-48,-23,-22
1491089160033,1,-76,-21,6,-13,-42,-33,-13,-13
1491089160033,1,50,62,-29,-52,-8,-48,35,15
1491089160034,2,25,44,111,70,-6,-9,5,11
1491089160034,2,2,95,-116,-39,27,-40,-49,-24
1491089160035,0,-27,-4,92,10,-19,2,-33,-10
1491089160035,0,57,51,124,-14,21,-27,30,22
1491089160036,1,-2,-19,-126,28,14,-1,46,0
1491089160036,1,-8,57,127,-2,13,0,-19,-7
1491089160071,2,-20,-126,-128,-72,-42,2,-11,-1
1491089160071,2,-102,-63,25,37,-31,-17,-7,-21
1491089160071,3,12,34,-35,-89,13,9,-4,7
1491089160071,3,53,-25,108,106,-14,5,39,19
1491089160072,0,19,23,-27,38,35,-1,-9,10
1491089160072,0,1,-10,44,-45,23,-7,28,-3
1491089160073,1,-93,-128,-81,-46,-62,3,-3,-21
1491089160073,1,66,63,-122,-50,15,-5,-2,22
1491089160108,2,-2,-24,31,25,-44,5,-22,-1
1491089160108,2,-5,80,56,88,57,-4,33,13
1491089160109,3,50,73,-38,93,13,7,-10,5
1491089160109,3,-53,-63,-28,-28,-21,-1,-17,-10
1491089160110,0,-8,-42,-128,-21,-1,4,-19,-12
1491089160110,0,-12,-37,82,-94,-37,-4,-3,-9
1491089160111,1,17,47,-32,-60,30,1,28,20
1491089160111,1,23,114,127,103,0,-1,7,15
1491089160146,2,-35,-55,45,-7,5,3,-7,-5
1491089160146,2,-27,-39,-8,-32,-5,-1,-13,-20
1491089160147,3,52,30,-2,22,26,4,-20,11
1491089160147,3,9,35,79,62,10,2,11,-15
1491089160147,0,-50,-86,-66,-115,-12,2,-3,2
1491089160147,0,37,34,86,17,-41,-1,-17,9
1491089160148,1,-43,-80,0,7,13,-3,-1,-18
1491089160148,1,7,-97,-88,-36,-10,-3,1,13
1491089160183,2,17,119,111,51,8,-2,2,3
1491089160183,2,59,-17,-74,-93,-17,-2,11,-2
1491089160184,3,32,81,127,62,10,-1,-4,8
1491089160184,3,-48,-79,60,4,10,-5,-9,-12
1491089160184,0,-8,-3,29,6,13,1,-4,-11
1491089160184,0,-33,-14,-66,4,1,-2,-9,-7
1491089160186,1,-70,-128,-47,-40,-66,-1,-28,-20
1491089160186,1,12,101,71,27,23,-1,13,1
1491089160221,2,31,61,55,75,11,-1,-8,-1
1491089160221,2,-7,17,-61,-10,44,-5,3,4
1491089160222,3,32,-28,-43,-14,-29,-1,1,2
1491089160222,3,-102,-128,-128,-128,-34,1,-10,-29
1491089160223,0,17,36,106,78,-24,-4,-5,-9
1491089160223,0,20,86,64,43,40,-3,24,15
1491089160223,1,18,18,-28,56,21,-4,4,16
1491089160223,1,28,24,-29,-4,8,0,-12,-9
1491089160258,2,-32,-76,-99,-128,-42,1,-18,-11
1491089160258,2,-8,-79,-109,3,-2,-5,-9,-6
1491089160259,3,11,78,127,104,37,0,-2,12
1491089160259,3,-18,-37,-65,-88,-30,4,3,-14
1491089160260,0,8,10,-6,72,38,-1,7,-4
1491089160260,0,6,7,-59,-26,-56,0,4,3
1491089160261,1,-12,-6,8,-45,-12,1,0,-6
1491089160261,1,-2,-21,-21,19,35,-3,1,1
1491089160296,2,1,13,37,-40,-40,-1,-1,-3
1491089160296,2,-20,-38,-16,-29,7,3,9,1
1491089160297,3,17,28,45,52,9,-3,4,10
1491089160297,3,4,17,-96,-25,-8,-7,10,-4
1491089160297,0,2,-6,4,-71,-6,-4,9,4
1491089160297,0,2,-8,23,58,2,-6,2,-2
1491089160298,1,11,34,41,36,49,-4,-16,0
1491089160298,1,-5,-7,45,94,-29,2,-15,8
1491089160333,2,3,6,-55,-4,9,-1,20,6
1491089160333,2,5,-22,-39,-52,-11,0,-19,-6
1491089160334,3,-14,-19,-37,-47,-20,3,-9,-6
1491089160334,3,-12,-12,61,15,5,-3,4,-1
1491089160335,0,5,17,1,-15,42,-1,12,0
1491089160335,0,17,0,-28,98,-3,0,0,-1
1491089160336,1,-15,-39,1,-49,-13,0,5,-3
1491089160336,1,-2,13,-9,-8,-28,-1,5,-1
1491089160371,2,-7,-20,-78,31,29,-6,-26,-1
1491089160371,2,16,34,104,16,36,-5,27,9
1491089160408,3,-14,-4,-16,-47,24,-5,-10,-7
1491089160408,3,5,8,-5,17,-44,1,-1,1
1491089160409,0,-4,-29,-46,-43,25,3,24,1
1491089160409,0,-8,5,10,5,9,-3,11,-6
1491089160410,1,-5,-4,-36,-10,-13,0,-53,-7
1491089160410,1,3,9,-1,-21,19,1,-7,3
1491089160411,2,0,-9,-28,1,-13,-1,-10,-8
1491089160411,2,5,43,49,21,-11,0,-31,5
1491089160446,3,5,25,8,14,12,0,24,3
1491089160446,3,0,-11,-21,-30,5,-2,14,-8
1491089160447,0,1,14,-3,6,-10,1,-19,-1
1491089160447,0,-9,-8,-27,-87,39,2,-21,-3
1491089160483,1,11,-1,-19,65,-14,-5,-24,3
1491089160483,1,-42,2,-9,21,7,-2,-99,-10
1491089160484,2,23,68,56,42,-35,-2,-29,2
1491089160484,2,-12,-24,-44,-57,44,-5,6,0
1491089160484,3,10,9,29,-13,-59,-1,-46,3
1491089160484,3,1,3,-6,16,-6,-5,47,0
1491089160486,0,10,19,11,-10,0,-3,40,-4
1491089160486,0,0,8,0,-8,-15,1,-41,-11
1491089160521,1,-9,-29,-32,-28,20,-3,53,0
1491089160521,1,1,-21,15,11,16,-5,6,0
1491089160522,2,-18,-7,3,-25,-26,-2,13,-7
1491089160522,2,9,36,16,3,-34,0,30,3
1491089160523,3,10,4,-19,-46,14,0,65,7
1491089160523,3,-10,-19,10,5,-24,0,-33,-11
1491089160523,1,-10,-36,-1,-17,-16,5,-30,-8
1491089160523,1,6,-20,29,-2,7,-3,24,0
1491089160558,2,-1,-30,-6,-7,-10,-6,27,2
1491089160558,2,-15,-32,-29,-54,-28,0,-7,-13
1491089160559,3,7,-49,6,35,-4,-5,19,2
1491089160559,3,6,-51,16,-5,-24,1,-9,-3
1491089160560,1,-19,-28,-4,23,0,1,18,-5
1491089160560,1,2,3,-4,-26,-4,1,28,0
1491089160561,2,5,12,5,-1,-21,3,7,3
1491089160561,2,5,17,19,35,-32,2,-24,0
1491089160596,3,-7,6,-18,-22,7,-3,11,-7
1491089160596,3,5,26,0,-13,-4,-2,-6,0
1491089160598,0,-4,30,16,58,5,-2,-1,0
1491089160598,0,-11,0,-22,-30,-4,-8,-2,-9
1491089160599,1,13,37,6,35,-15,-1,-6,2
1491089160599,1,-4,17,-3,-28,-10,3,14,-1
1491089160600,2,2,22,4,16,-6,-7,-19,-4
1491089160600,2,19,17,-12,-9,15,-1,16,2
1491089160633,3,-25,10,-3,-3,-1,-3,2,-4
1491089160633,3,-3,20,0,0,-7,0,-36,-3
1491089160634,0,-7,8,-3,-21,-4,-3,0,-3
1491089160634,0,-6,3,0,-2,-3,1,7,2
1491089160635,1,0,-3,-8,-33,4,-9,25,1
1491089160635,1,-1,7,9,35,15,-4,-15,-8
1491089160636,2,-15,-18,-14,0,1,-1,-38,7
1491089160636,2,7,0,-2,2,-2,-4,-34,0
1491089160671,3,7,2,-27,-10,-2,-2,-38,-2
1491089160671,3,4,-6,6,-11,27,-3,-20,2
1491089160672,0,13,28,26,20,11,-76,31,-1
1491089160672,0,-19,-11,-9,18,7,75,23,-2
1491089160673,1,-2,-9,-5,15,15,-113,28,-5
1491089160673,1,10,30,5,17,-18,-58,44,-2
1491089160674,2,-3,-20,-18,-38,4,14,18,10
1491089160674,2,11,21,6,-9,28,34,53,-4
1491089160708,3,0,9,4,17,5,93,104,-5
1491089160708,3,6,2,-4,0,7,82,25,3
1491089160709,0,-5,-19,13,-6,4,71,-68,-19
1491089160709,0,-6,9,-1,-5,18,34,-47,8
1491089160710,1,-23,-33,-17,-22,-16,64,-102,-7
1491089160710,1,-8,-26,-35,-10,-12,22,-36,-6
1491089160711,2,4,4,-16,-9,-4,47,4,12
1491089160711,2,-11,-2,2,-2,-14,2,-1,8
1491089160746,3,13,18,3,11,6,16,-11,-9
1491089160746,3,-16,5,-30,-41,19,25,45,4
1491089160747,0,-5,-25,23,3,-28,121,-39,-14
1491089160747,0,-9,-33,-14,23,0,35,3,6
1491089160747,1,49,69,26,-8,7,117,-11,20
1491089160747,1,-20,-17,-5,15,7,123,-67,-12
1491089160748,2,41,30,15,8,3,44,-22,19
1491089160748,2,-32,7,25,-12,-14,-28,-46,-12
1491089160783,3,-26,-59,-42,-32,-23,-63,-28,8
1491089160783,3,16,43,7,5,9,-97,-8,-1
1491089160784,0,23,0,-29,19,8,-90,40,-2
1491089160784,0,43,32,30,-30,-4,-75,-55,-7
1491089160785,1,27,-11,-13,6,3,-27,-26,3
1491089160785,1,-28,-60,3,-13,-3,-20,1,-12
1491089160786,2,-10,24,-2,-16,-23,-49,-1,-2
1491089160786,2,-28,-58,-41,-27,8,-56,39,-7
1491089160821,3,-50,-94,-2,28,-29,-48,-26,3
1491089160821,3,95,103,37,43,9,-56,15,-20
1491089160822,0,11,6,61,6,5,-33,5,17
1491089160822,0,27,29,13,24,4,74,24,17
1491089160823,1,-60,-46,20,-34,10,21,-45,-8
1491089160823,1,44,19,-65,-5,-6,-54,50,10
1491089160824,2,0,4,11,-1,-10,-62,-46,-19
1491089160824,2,1,-3,6,-10,-1,-65,1,-14
1491089160858,3,21,13,-81,-24,-1,6,17,5
1491089160858,3,-38,-73,50,7,-2,13,-20,12
1491089160860,0,27,51,-3,10,17,-12,24,-5
1491089160860,0,-49,-24,56,10,-2,13,0,-8
1491089160861,1,-11,73,-15,6,9,-4,40,0
1491089160861,1,33,-25,-6,-4,-9,-2,-18,9
1491089160896,2,-74,-48,-34,8,3,17,15,-23
1491089160896,2,3,-55,-38,-1,-4,-5,-30,-8
1491089160897,3,55,83,36,19,6,-19,10,-6
1491089160897,3,-102,-25,16,-20,-13,-4,31,9
1491089160898,0,-6,-29,-19,-8,1,6,-2,5
1491089160898,0,16,69,29,19,3,2,-29,-4
1491089160899,1,46,56,-1,-5,-1,-12,3,-2
1491089160899,1,-37,-65,-8,-3,-1,36,3,-15
1491089160933,2,42,52,-13,5,7,4,3,25
1491089160933,2,-46,16,-3,-3,-3,-8,38,2
1491089160935,3,-7,-94,57,15,4,-8,-12,4
1491089160935,3,71,85,6,14,11,1,-29,-1
1491089160935,0,-66,-84,-83,-58,2,-11,-2,-4
1491089160935,0,-37,-51,1,-14,-20,-29,19,-14
1491089160936,1,28,78,31,-2,-3,-13,-25,22
1491089160936,1,36,-14,-20,-5,-9,-12,-52,-9
1491089161008,2,-32,-34,0,21,0,-34,-9,-15
1491089161008,2,57,25,6,-27,2,-20,-13,19
1491089161010,3,-27,-3,7,24,5,26,43,-12
1491089161010,3,26,20,43,-13,5,-43,-6,11
1491089161014,0,23,-27,-14,25,-5,11,-38,-14
1491089161014,0,44,2,-16,1,-10,-92,34,-5
1491089161015,1,-108,-15,-2,-6,3,-40,-16,-20
1491089161015,1,-2,-22,-55,-20,-9,-25,12,2
1491089161046,2,19,23,77,-2,-3,32,-21,-17
1491089161046,2,46,10,-22,3,12,91,27,27
1491089161047,3,-6,-63,-13,-8,-17,44,-64,-3
1491089161047,3,-4,70,1,14,0,44,65,-2
1491089161048,0,-52,-43,-59,-24,-13,73,-41,-17
1491089161048,0,-34,-46,-5,21,7,-39,70,-12
1491089161048,1,69,63,6,-8,-2,110,13,13
1491089161048,1,-28,-17,6,4,-5,-38,-15,-5
1491089161083,2,-2,19,15,12,2,22,-13,11
1491089161083,2,25,-14,25,16,-4,95,-48,-12
1491089161084,3,12,-24,-6,12,9,48,37,-3
1491089161084,3,-25,-71,-8,-3,1,82,20,15
1491089161085,1,-69,-31,-17,-18,-1,-128,-18,-26
1491089161085,1,46,62,10,25,-11,116,39,28
1491089161086,2,12,-28,-11,-20,-8,66,-25,-7
1491089161086,2,-3,29,-7,-9,-10,82,22,8
1491089161121,3,-2,-14,-25,1,14,-17,-49,-12
1491089161121,3,-3,-37,5,-3,11,-128,28,-28
1491089161122,0,3,-17,-4,-5,-7,-128,-34,22
1491089161122,0,-27,-21,8,-19,1,-128,3,-7
1491089161124,1,58,78,20,23,11,-128,16,8
1491089161124,1,-6,1,6,2,-1,-92,-12,0
1491089161124,2,15,9,7,18,2,-7,44,7
1491089161124,2,-24,-26,-56,-26,-16,-55,-71,-22
1491089161159,3,-33,-9,14,3,-7,-35,18,-5
1491089161159,3,-33,-34,-8,0,2,-8,-54,-13
1491089161160,0,47,33,17,-1,-5,-76,44,13
1491089161160,0,-24,0,-31,-7,-2,-52,-3,-7
1491089161160,1,-58,-44,-41,-45,-13,8,38,9
1491089161160,1,-11,-1,21,-5,-2,-65,12,5
1491089161196,2,-30,-20,-16,-7,0,-50,15,2
1491089161196,2,24,-19,6,19,7,14,-17,-13
1491089161197,3,-7,39,17,-9,-4,64,14,1
1491089161197,3,62,6,13,7,0,10,-69,0
1491089161198,0,-70,-79,-13,-1,-9,-4,54,-10
1491089161198,0,68,101,-12,-9,-13,6,-21,-2
1491089161198,1,-34,-66,13,-6,1,-3,-12,-8
1491089161198,1,7,-14,-4,-4,9,-2,16,15
1491089161233,2,1,35,9,-6,-10,-11,-14,-10
1491089161233,2,-23,-44,6,12,-3,-9,-30,-11
1491089161234,3,49,-25,-26,-12,-8,-44,9,5
1491089161234,3,-48,34,1,14,4,-4,-30,-20
1491089161235,0,-20,-15,-24,-11,-11,-44,46,6
1491089161235,0,-2,18,10,0,7,111,3,0
1491089161236,1,35,5,33,20,3,99,24,8
1491089161236,1,6,-21,-1,9,-7,-10,-10,11
1491089161271,2,-30,-8,-24,-12,-11,-35,26,-8
1491089161271,2,34,-16,6,-6,-2,-83,82,4
1491089161272,3,2,33,25,13,2,-25,-81,-14
1491089161272,3,27,3,-4,3,-13,20,-18,8
1491089161308,0,27,79,7,-8,8,14,-52,-2
1491089161308,0,-28,-9,-26,9,-4,-51,55,3
1491089161309,1,7,-36,-9,-14,-15,5,-60,-4
1491089161309,1,-107,-43,-17,-21,4,10,-5,-30
1491089161316,2,8,36,9,9,8,-15,-30,-5
1491089161316,2,51,6,18,-8,-2,23,10,6
1491089161346,3,30,16,-2,11,-6,-96,50,14
1491089161346,3,-22,-10,-18,-18,-1,-8,-26,-11
1491089161347,0,-17,-50,3,-17,-5,1,25,1
1491089161347,0,-30,24,4,11,-2,9,-68,-7
1491089161347,1,-45,-72,-24,-3,1,20,-9,-25
1491089161347,1,61,51,15,13,2,39,27,24
1491089161348,2,-48,-22,21,5,3,15,-3,-4
1491089161348,2,26,34,1,9,1,5,18,10
1491089161383,3,6,-15,-7,-3,-5,-17,16,1
1491089161383,3,27,12,-8,-1,6,8,7,-1
1491089161384,0,-51,-34,6,7,6,24,-19,-13
1491089161384,0,-1,23,3,18,-7,4,-51,13
1491089161385,1,-40,-28,-16,-7,-6,15,70,-13
1491089161385,1,-12,-18,-3,17,3,12,48,-1
1491089161386,3,10,31,-2,9,7,25,2,3
1491089161386,3,-15,0,9,-21,-18,-13,-29,6
1491089161421,0,21,-34,-1,19,6,5,32,5
1491089161421,0,-15,20,7,4,4,-7,6,0
1491089161422,1,25,42,7,-8,7,2,-14,2
1491089161422,1,-20,-26,-8,10,-5,18,9,-10
1491089161422,3,17,7,-7,-15,-8,27,-1,-4
1491089161422,3,-39,-11,-13,-38,0,24,18,-20
1491089161423,0,32,15,2,12,-3,0,-40,-17
1491089161423,0,-43,-52,-32,-41,10,8,-16,-6
1491089161458,1,55,22,16,11,18,-16,-8,5
1491089161458,1,15,4,22,22,-8,-24,27,14
1491089161459,2,-37,32,-4,10,16,-13,-25,3
1491089161459,2,-9,-12,17,24,-12,-3,-22,-7
1491089161460,3,-6,-29,-31,12,-3,-9,-27,-1
1491089161460,3,-16,-8,-2,-15,-2,32,10,7
1491089161496,0,-5,-26,-4,2,-2,-11,7,-14
1491089161496,0,41,45,-11,1,10,-3,3,13
1491089161502,1,-33,47,40,-17,0,19,-30,-5
1491089161502,1,-30,-6,-5,19,-1,-7,49,-20
1491089161503,2,13,-3,11,-6,-2,-4,27,2
1491089161503,2,19,-36,-21,1,-3,-13,-15,14
1491089161503,3,-12,-49,18,9,-10,-29,-72,-14
1491089161503,3,58,32,-9,-26,-4,10,-35,12
1491089161533,0,4,41,-6,5,5,17,55,18
1491089161533,0,52,-95,-34,-18,-7,-17,-20,-23
1491089161535,1,-25,88,2,-21,-7,5,48,6
1491089161535,1,-31,-48,19,3,2,3,-7,-2
1491089161536,2,-10,10,0,0,-16,-8,-43,-11
1491089161536,2,-18,29,-21,-50,9,0,22,5
1491089161537,3,-23,-89,22,23,-1,-8,-68,-12
1491089161537,3,23,29,-26,28,-5,0,62,12
1491089161571,0,26,-9,14,-15,-9,7,-2,-9
1491089161571,0,-89,-50,36,36,1,-20,-10,-24
1491089161572,1,32,86,-24,-25,-22,0,-20,-9
1491089161572,1,9,-16,-36,-19,-3,8,-79,9
1491089161573,2,-20,-41,-43,-27,26,-15,56,-4
1491089161573,2,-25,-11,47,11,-13,9,98,-4
1491089161573,3,4,-34,48,56,-11,-13,-36,-12
1491089161573,3,-46,-64,-79,-16,-17,25,21,-28
1491089161609,0,16,25,27,-13,-6,1,2,-3
1491089161609,0,-60,-43,11,3,15,-14,-59,-12
1491089161610,1,43,74,9,-28,-7,25,91,36
1491089161610,1,13,47,-14,12,-8,-42,-44,-24
1491089161611,2,31,-48,-77,-29,-4,-1,-5,0
1491089161611,2,-58,36,-11,-53,8,-5,-41,2
1491089161646,3,-98,-36,89,74,12,-20,-35,-14
1491089161646,3,93,-62,3,-18,15,-20,-17,-10
1491089161647,0,7,100,-7,9,9,29,-49,13
1491089161647,0,17,-44,27,50,-21,13,-8,0
1491089161648,1,34,5,-128,-39,6,-20,48,20
1491089161648,1,9,25,57,-1,7,-8,10,2
1491089161648,2,24,35,19,40,-1,-24,-70,-10
1491089161648,2,-27,-38,-34,-29,-20,20,88,21
1491089161684,3,49,8,41,14,-6,-36,26,-3
1491089161684,3,-89,32,52,30,10,35,41,7
1491089161685,0,-21,-95,-49,15,-2,-62,-41,-15
1491089161685,0,116,127,98,2,7,68,18,26
1491089161686,1,-17,-84,-83,19,0,43,-24,-19
1491089161686,1,53,54,56,-41,-37,-37,-12,30
1491089161687,2,-61,-80,-65,-29,-9,9,-22,-11
1491089161687,2,-27,-10,-74,-52,0,-26,52,-3
1491089161721,3,11,72,84,70,3,-8,61,10
1491089161721,3,-52,-94,21,41,11,28,32,-22
1491089161722,0,48,-73,7,72,-31,3,3,13
1491089161722,0,-82,-60,-65,-82,-15,-62,-51,-33
1491089161724,1,-70,23,79,4,32,14,40,-13
1491089161724,1,8,45,5,72,16,37,7,16
1491089161728,2,2,-61,41,8,0,18,33,27
1491089161728,2,-48,67,-67,72,-31,3,-65,-38
1491089161758,3,70,-128,-122,-114,-6,-3,-12,-2
1491089161758,3,7,124,118,-54,1,-3,-7,0
1491089161796,0,-60,-107,-32,26,14,-12,22,-13
1491089161796,0,57,32,-47,25,-30,61,-5,13
1491089161797,1,31,93,18,-68,-24,0,19,-1
1491089161797,1,-19,-61,-128,-71,9,-112,-41,-15
1491089161797,2,83,127,127,80,44,36,49,26
1491089161797,2,-23,27,49,74,39,29,-34,-15
1491089161798,3,-109,-107,-113,14,-24,28,-4,-21
1491089161798,3,123,-128,-126,-73,-28,-23,-48,6
1491089161833,0,17,109,22,-82,-31,7,19,-4
1491089161833,0,-27,-95,103,49,27,-28,16,12
1491089161834,1,-15,70,-86,-14,-4,21,15,4
1491089161834,1,-22,88,121,42,21,12,0,23
1491089161835,2,33,27,-128,12,-21,35,-26,-16
1491089161835,2,6,-22,63,1,-5,31,19,1
1491089161836,0,14,112,123,-31,-29,80,90,17
1491089161836,0,54,-100,-128,-34,-32,-35,-72,13
1491089161871,1,-63,-18,114,-59,16,-93,34,-5
1491089161871,1,5,50,97,127,30,89,-40,-17
1491089161871,2,-66,-114,-92,-40,6,-26,-37,-44
1491089161871,2,78,37,61,3,0,8,33,28
1491089161872,0,-29,-56,-62,-13,-1,-31,5,-9
1491089161872,0,-7,-38,90,9,24,-57,5,0
1491089161908,1,-27,57,-38,20,-26,-37,-64,-20
1491089161908,1,-29,0,48,5,2,-110,28,-13
1491089161911,2,-81,-128,-11,22,-12,-128,20,2
1491089161911,2,-49,15,-37,-14,-21,-125,-13,-38
1491089161911,3,97,66,68,-7,24,47,54,74
1491089161911,3,-15,-17,-128,-92,-16,-11,-40,-22
1491089161912,0,-49,18,127,-6,11,-102,-7,7
1491089161912,0,-6,58,127,92,7,-52,8,-9
1491089161946,1,17,-53,-110,32,30,20,32,4
1491089161946,1,-66,-60,-57,-65,-24,-3,-40,-21
1491089161947,2,54,-35,-96,-14,-6,112,-1,-2
1491089161947,2,75,33,-38,-90,-4,127,26,6
1491089161948,3,-31,-48,33,108,18,127,-37,-17
1491089161948,3,44,-1,-90,-12,-46,122,30,28
1491089161949,0,-55,34,127,47,20,115,5,-14
1491089161949,0,-22,-88,40,11,0,50,-2,3
1491089161983,1,-14,7,-91,-42,-21,-18,-14,-11
1491089161983,1,49,98,127,69,25,-66,16,3
1491089161984,2,-46,-24,-63,-94,20,-51,-18,22
1491089161984,2,31,-9,-60,-23,-9,-9,5,-1
1491089161985,3,-68,-84,28,-14,-26,-52,-5,-21
1491089161985,3,-54,-128,16,58,-15,-35,12,-6
1491089161986,0,59,127,-7,-3,26,-20,-27,4
1491089161986,0,-18,92,68,26,11,-24,14,-2
1491089162021,1,9,-47,-77,8,4,-25,0,-12
1491089162021,1,29,12,-60,-17,-2,-2,6,19
1491089162022,2,-44,-109,-45,-36,-39,-7,-18,-10
1491089162022,2,-31,-13,32,-22,21,-14,22,2
1491089162023,3,78,95,-61,-11,2,-1,-24,-17
1491089162023,3,-26,-23,-2,-10,-20,11,11,-14
1491089162024,0,26,-41,103,-7,-17,-14,3,4
1491089162024,0,64,59,73,58,45,-8,12,7
1491089162058,1,-14,-72,6,-33,-10,1,-15,4
1491089162058,1,1,47,56,12,-1,-1,2,-11
1491089162059,2,-21,-48,-120,7,-17,-6,-6,-22
1491089162059,2,-24,-22,0,-23,-33,3,-19,3
1491089162096,3,-13,-17,127,35,61,3,-5,0
1491089162096,3,-8,31,57,-52,-44,-10,21,-9
1491089162133,0,31,19,-42,9,-4,-1,9,28
1491089162133,0,34,83,-22,64,68,1,16,5
1491089162134,1,-32,-41,-27,-16,-50,-3,-39,-4
1491089162134,1,-37,-43,-71,-41,-20,1,-9,-5
1491089162135,2,-20,37,57,-15,7,0,1,8
1491089162135,2,11,-23,-106,-6,-20,-7,-2,-3
1491089162136,3,30,34,48,94,2,0,-6,-4
1491089162136,3,-24,20,102,50,35,1,2,0
1491089162171,0,20,4,5,-28,11,-6,-3,-7
1491089162171,0,-53,-93,-86,-63,-21,0,-18,-16
1491089162171,1,9,-1,127,33,14,1,10,7
1491089162171,1,56,40,100,58,22,3,14,18
1491089162172,2,-32,7,-48,-33,12,-4,-6,-4
1491089162172,2,-63,-106,-57,8,-49,0,-39,-21
1491089162173,1,-22,-34,9,-2,-69,-1,-23,5
1491089162173,1,12,25,72,81,46,-3,10,5
1491089162208,2,26,-27,-47,-26,-11,-2,-9,-13
1491089162208,2,-26,-47,-27,4,-31,5,8,4
1491089162209,3,-9,23,-30,-40,14,-3,23,-1
1491089162209,3,-11,-36,-55,-33,-24,-1,-3,7
1491089162210,1,16,59,88,64,6,-4,-1,-1
1491089162210,1,-2,-17,-37,-31,-1,-3,-10,3
1491089162211,2,0,-56,-90,-62,-34,0,-16,-9
1491089162211,2,18,60,-49,60,0,-3,-11,9
1491089162246,3,-7,16,36,14,44,-1,38,3
1491089162246,3,40,49,1,-12,-6,-4,16,-5
1491089162247,0,-6,9,38,106,5,-1,14,-5
1491089162247,0,-13,-41,-32,-67,-19,-6,36,6
1491089162247,1,-58,-128,-106,-128,-18,2,-43,-20
1491089162247,1,27,68,90,106,6,0,-32,1
1491089162248,2,16,20,-31,43,-15,-5,-13,6
1491089162248,2,9,29,86,-7,-4,-4,-14,5
1491089162283,3,3,9,-47,44,16,3,-8,2
1491089162283,3,-29,-68,4,-42,-10,-1,-15,-10
1491089162284,0,-7,14,44,14,10,1,-9,-8
1491089162284,0,8,26,36,35,17,-4,-3,-1
1491089162284,1,5,-47,-103,-82,-23,-7,13,7
1491089162284,1,12,62,65,77,14,-2,20,0
1491089162286,2,8,2,29,6,10,-5,10,2
1491089162286,2,20,30,-82,-74,-26,4,-18,5
1491089162321,3,-22,-29,-95,-11,39,-2,-16,-15
1491089162321,3,26,-6,28,17,-40,-7,5,5
1491089162322,0,-1,-12,23,8,26,-2,8,-3
1491089162322,0,7,15,-56,-8,-21,-2,-8,3
1491089162322,1,1,0,-23,-29,-2,-2,8,-1
1491089162322,1,-37,-59,-69,-106,-1,-5,17,-8
1491089162323,2,42,60,3,112,54,-2,-15,6
1491089162323,2,-7,21,20,-44,12,1,4,-4
1491089162358,3,0,-5,-22,-36,5,-6,10,-1
1491089162358,3,-13,15,-12,-39,32,-3,-13,-5
1491089162359,0,3,-3,11,-54,-26,-2,1,0
1491089162359,0,-5,19,-2,87,-1,1,-58,1
1491089162360,1,18,75,76,70,10,1,-43,1
1491089162360,1,-41,-36,-123,-93,-27,4,-11,-13
1491089162361,2,16,7,1,-62,30,-4,-15,5
1491089162361,2,-1,22,-23,-13,-33,-4,-10,-12
1491089162396,3,-27,-54,-3,-63,18,-2,53,-6
1491089162396,3,37,56,84,110,-23,0,-62,8
1491089162396,0,-17,39,-5,-13,-32,2,-10,-10
1491089162396,0,16,30,-32,0,5,-1,21,8
1491089162397,1,-5,29,-13,-38,-21,2,-10,-5
1491089162397,1,-22,24,-33,-52,-6,1,16,-9
1491089162398,2,4,55,68,74,10,-4,18,0
1491089162398,2,-8,-71,-8,-49,-23,3,44,1
1491089162433,3,6,-106,-6,18,-15,0,11,-3
1491089162433,3,-15,-75,-11,13,20,-3,26,2
1491089162434,0,5,-49,-5,-22,-5,-3,3,1
1491089162434,0,-8,-64,8,-19,-29,0,6,-1
1491089162435,1,0,-40,4,-11,17,1,13,-1
1491089162435,1,-3,-74,7,56,-36,0,-21,-4
1491089162436,2,0,-48,28,12,-2,-3,-2,4
1491089162436,2,-7,-38,-18,-47,4,-2,22,-2
1491089162471,3,6,-7,47,79,-42,-3,-57,8
1491089162471,3,8,-30,-10,-17,-3,-3,-6,-5
1491089162472,0,-16,-56,-32,-18,-26,0,-20,4
1491089162472,0,2,-3,37,26,41,-3,-30,-11
1491089162472,1,2,14,39,37,-18,-3,17,-2
1491089162472,1,2,-13,-32,-15,6,5,5,0
1491089162473,2,0,16,3,-1,-2,0,56,2
1491089162473,2,-2,40,38,11,4,0,34,6
1491089162509,3,-5,9,1,1,-23,-5,-22,-8
1491089162509,3,-9,3,-9,10,0,2,19,-3
1491089162510,0,1,-90,-18,-32,-10,4,31,-1
1491089162510,0,2,-59,20,31,3,-4,-4,-1
1491089162510,1,1,-19,-8,-16,0,2,17,2
1491089162510,1,4,-8,-3,12,-6,-4,25,-1
1491089162511,2,3,40,10,29,4,-3,-20,1
1491089162511,2,0,61,-5,-17,4,-6,11,-4
1491089162546,3,-7,81,-2,-34,8,-2,1,-2
1491089162546,3,-8,68,6,18,0,-5,24,-1
1491089162546,0,-9,62,-30,-69,-18,-2,10,-7
1491089162546,0,9,51,27,82,16,1,-3,3
1491089162547,1,2,42,15,18,-6,1,23,3
1491089162547,1,-5,13,-21,-39,-1,-2,-15,-5
1491089162548,2,-8,12,-20,14,-14,-1,-8,-4
1491089162548,2,-5,5,-9,-22,-2,-3,2,4
1491089162583,3,4,12,-3,-4,-3,0,-12,-3
1491089162583,3,-2,-4,-2,-24,-5,-4,-9,-5
1491089162584,0,-16,-12,-11,3,6,2,-17,-7
1491089162584,0,16,27,1,-2,1,1,-5,8
1491089162585,1,-11,-2,-14,-14,-5,0,15,-1
1491089162585,1,-11,-5,-7,-7,-6,0,-16,0
1491089162621,2,9,4,3,-7,0,5,-4,2
1491089162621,2,-20,-27,-35,-24,6,-7,-26,-10
1491089162621,3,2,3,16,-12,14,-76,-18,-4
1491089162621,3,-2,-18,-18,-10,-5,-106,29,-3
1491089162622,0,-8,12,33,33,-27,-127,-10,2
1491089162622,0,7,2,2,11,25,-45,-3,1
1491089162623,1,-10,-15,-11,3,-9,47,25,1
1491089162623,1,2,0,10,31,2,81,-14,-1
1491089162658,2,-23,-35,-14,-15,15,86,-70,-8
1491089162658,2,34,35,-2,-34,-8,77,-39,3
1491089162659,3,0,17,13,17,11,64,-9,2
1491089162659,3,-12,-11,-16,-23,6,64,35,-4
1491089162660,0,13,-11,-21,-13,0,59,57,1
1491089162660,0,-12,-13,-13,1,-2,37,28,-4
1491089162661,1,-7,-10,-9,5,15,35,12,11
1491089162661,1,0,4,39,21,9,21,98,-6
1491089162696,2,24,43,10,-3,2,28,45,7
1491089162696,2,-13,-13,-10,-19,5,15,-3,-10
1491089162696,3,-6,5,-21,-7,-19,6,-81,-3
1491089162696,3,-12,-21,-27,24,16,12,-81,-6
1491089162697,0,9,-1,35,-1,-3,10,-41,1
1491089162697,0,-2,1,16,30,-13,3,31,-5
1491089162698,1,-15,-11,18,-5,2,1,34,-9
1491089162698,1,7,0,-24,-10,-2,3,-12,-2
1491089162733,2,-36,-33,-22,-20,2,7,-17,-4
1491089162733,2,4,45,5,-4,-3,-4,15,4
1491089162734,3,31,1,2,-21,2,0,-67,-4
1491089162734,3,12,-23,56,17,11,2,-44,8
1491089162735,0,9,50,-33,7,0,1,-55,-9
1491089162735,0,-26,-70,-15,-17,-8,0,-12,1
1491089162771,1,11,18,-2,1,-3,-2,29,7
1491089162771,1,5,2,-25,-30,-2,0,-28,-8
1491089162771,2,-11,-19,-19,7,4,2,-10,-8
1491089162771,2,25,17,30,-7,10,-2,-19,4
1491089162772,3,20,32,29,39,35,45,13,-5
1491089162772,3,9,-19,-14,16,-57,79,-32,-1
1491089162773,0,-25,-45,-8,-5,13,101,-2,-10
1491089162773,0,23,30,-8,-11,0,127,-9,3
1491089162808,1,-19,-69,-9,-19,-10,122,15,-10
1491089162808,1,15,55,39,7,7,122,-8,0
1491089162809,2,-4,10,-13,-1,-7,121,9,1
1491089162809,2,-47,-54,-18,-16,-9,21,10,-3
1491089162810,3,8,-2,-41,-30,4,-66,-66,-8
1491089162810,3,-57,-47,-16,7,-7,-89,49,5
1491089162811,0,16,50,63,25,-7,-102,-11,4
1491089162811,0,21,29,27,23,15,-95,30,-4
1491089162846,1,-1,-49,-8,-6,-10,-88,-4,-3
1491089162846,1,-7,-5,-93,-44,-9,-102,-8,-5
1491089162846,2,-84,-31,29,-6,7,-74,12,-12
1491089162846,2,39,83,52,24,12,-79,32,21
1491089162847,3,-1,14,14,43,-1,-64,-54,-4
1491089162847,3,36,-26,33,-27,-7,-17,-14,5
1491089162883,0,33,17,-81,3,-2,-25,22,23
1491089162883,0,-74,-31,55,15,0,-23,-20,-29
1491089162884,1,-5,16,52,2,3,-19,-12,5
1491089162884,1,-30,11,-26,-26,5,-17,40,-1
1491089162886,2,36,-27,-16,-25,-7,34,-58,-13
1491089162886,2,51,-5,-98,-4,-11,108,-14,12
1491089162886,3,-8,42,37,3,8,94,93,9
1491089162886,3,-16,-8,67,27,5,8,-96,-21
1491089162921,0,0,16,-32,-11,-19,-54,2,-9
1491089162921,0,12,-38,-27,-27,-3,-64,-20,11
1491089162921,1,15,-30,-3,9,-7,-34,24,-20
1491089162921,1,26,27,-19,22,11,-49,-1,31
1491089162922,2,-68,-57,35,-1,-3,-42,37,-19
1491089162922,2,46,81,13,-7,3,-48,-19,4
1491089162923,3,48,-6,-48,-1,-11,-41,33,1
1491089162923,3,-40,-14,-5,-22,3,-31,24,-19
1491089162958,0,62,-39,-6,32,6,-6,-7,11
1491089162958,0,-47,-10,-46,-27,-7,-72,19,-6
1491089162959,1,-77,39,41,-18,-3,-69,-83,-6
1491089162959,1,62,-4,3,4,9,-33,-57,2
1491089162959,2,34,-15,6,2,-7,-93,79,7
1491089162959,2,-10,51,34,-6,-4,-98,-36,-22
1491089162961,3,2,2,-1,7,5,-118,9,2
1491089162961,3,-28,-18,-7,13,-3,-85,6,-4
1491089163071,0,3,-96,-42,-7,2,-84,-38,-4
1491089163071,0,101,48,56,18,-5,35,68,29
1491089163072,1,-50,-52,-21,4,-9,42,-35,-20
1491089163072,1,-4,9,23,-1,10,105,20,8
1491089163072,2,41,54,7,-6,12,78,61,5
1491089163072,2,-94,-111,-39,-5,-7,83,-20,-8
1491089163073,3,14,35,-15,-14,-6,47,18,-7
1491089163073,3,14,-20,-31,-8,1,24,41,3
1491089163108,0,53,53,19,-2,2,-30,-69,12
1491089163108,0,-52,-41,8,5,12,3,-2,-8
1491089163109,1,-6,-11,43,15,10,55,0,17
1491089163109,1,31,20,-8,15,4,52,47,7
1491089163110,3,-81,-85,9,-11,1,-97,40,-3
1491089163110,3,17,14,-11,-12,-18,-128,-29,-12
1491089163111,0,16,29,-21,-4,8,-128,11,14
1491089163111,0,31,27,22,-1,-11,-105,0,-7
1491089163146,1,71,42,-3,-4,9,66,48,19
1491089163146,1,-71,-28,3,8,0,24,17,-20
1491089163146,2,-4,-29,10,9,-2,-3,-21,-13
1491089163146,2,10,-30,-26,0,-9,27,-22,6
1491089163147,3,41,20,-21,-14,-5,-44,34,7
1491089163147,3,-23,-43,32,14,-2,13,13,0
1491089163148,0,46,40,-51,1,-14,-35,14,5
1491089163148,0,4,-13,11,-32,4,-63,68,0
1491089163183,1,23,19,13,28,-2,-55,-7,-3
1491089163183,1,-21,-20,-4,-24,2,106,-45,9
1491089163184,2,-35,49,44,-8,-1,-32,39,-13
1491089163184,2,-38,-60,-28,20,-2,19,1,-12
1491089163221,3,10,5,-27,-10,-15,-41,-38,-4
1491089163221,3,16,13,-14,-8,6,-59,27,4
1491089163221,0,-46,-33,18,5,2,-12,-12,11
1491089163221,0,22,4,-6,-13,-7,25,-9,-14
1491089163222,1,14,-52,-29,4,-3,70,-9,-2
1491089163222,1,107,76,10,11,2,22,9,18
1491089163223,2,-50,-42,-2,-11,-5,11,17,-13
1491089163223,2,68,71,24,1,8,-13,-51,12
1491089163258,3,-35,-16,4,6,4,-22,15,-4
1491089163258,3,-33,-67,-14,-5,-14,-53,-4,-4
1491089163259,0,58,45,7,6,3,-43,-26,6
1491089163259,0,-65,-19,8,16,-2,3,-43,-2
1491089163260,1,-5,0,-12,-4,-5,-17,28,-20
1491089163260,1,-9,5,-11,-9,7,21,8,4
1491089163261,2,-21,-39,14,-14,-4,3,-28,-5
1491089163261,2,10,61,3,17,-7,-5,11,-9
1491089163296,3,9,-15,2,-5,0,42,-33,12
1491089163296,3,-79,-24,-1,18,2,-5,13,-18
1491089163297,0,69,-8,-5,-4,7,13,-19,25
1491089163297,0,-6,1,8,-13,-12,3,0,-7
1491089163298,2,1,-5,5,-2,0,10,-9,-5
1491089163298,2,2,16,15,1,8,2,21,-4
1491089163299,3,5,14,8,3,4,-28,-27,5
1491089163299,3,-10,0,1,8,-4,-126,-1,1
1491089163337,0,-45,-36,-15,-13,-1,-40,2,-12
1491089163337,0,23,-22,-11,5,-9,-49,20,8
1491089163338,1,7,16,7,-8,-4,-12,-14,-1
1491089163338,1,-2,14,-25,-23,-5,22,39,-11
1491089163344,2,3,39,6,-31,-3,4,50,22
1491089163344,2,52,-8,5,-2,2,18,-66,-21
1491089163345,3,-25,-1,-1,-6,-9,21,80,-3
1491089163345,3,36,-10,9,8,12,32,5,11
1491089163371,0,-66,-29,-6,25,-2,8,-21,-14
1491089163371,0,40,-9,-25,4,2,18,25,10
1491089163372,1,-10,-30,-8,-22,6,10,-36,1
1491089163372,1,10,16,26,16,-16,9,-12,6
1491089163373,2,14,11,6,-3,7,37,26,-5
1491089163373,2,15,11,25,29,-3,-51,8,3
1491089163374,3,53,-13,-6,3,3,-15,32,19
1491089163374,3,-60,2,5,-18,-8,-2,-70,-17
1491089163412,0,113,-32,-69,-20,3,19,-7,8
1491089163412,0,-96,62,33,-10,-1,-60,6,-21
1491089163412,1,-2,-17,0,-5,-8,-53,22,2
1491089163412,1,-24,-1,11,6,-4,-7,-25,-14
1491089163413,2,-7,6,3,0,-9,42,-17,4
1491089163413,2,37,-20,-39,-18,6,69,11,16
1491089163416,3,14,14,13,-2,-3,33,-94,-16
1491089163416,3,65,66,9,-4,9,43,109,29
1491089163446,0,-34,-68,-11,3,-6,34,-58,-26
1491089163446,0,-52,-19,-38,-36,-1,97,81,18
1491089163447,1,-42,16,8,-10,-17,21,27,2
1491089163447,1,21,4,-23,0,2,49,-62,-10
1491089163447,2,22,15,8,-19,-1,2,78,8
1491089163447,2,-22,12,28,42,-7,-24,-19,-11
1491089163448,3,-1,-59,-16,5,5,31,4,-16
1491089163448,3,-10,-29,-26,12,-12,19,-96,-32
1491089163521,0,-32,27,32,12,3,80,33,13
1491089163521,0,59,-21,9,31,7,63,-7,0
1491089163522,1,-113,39,8,-3,6,17,-8,-32
1491089163522,1,92,26,16,9,4,-46,-29,14
1491089163522,2,-39,-88,-37,-16,-12,-68,48,-1
1491089163522,2,3,61,4,-15,-18,-70,-17,-10
1491089163523,3,49,29,23,14,6,-19,48,14
1491089163523,3,-75,-36,0,3,10,-40,-38,-13
1491089163558,0,-41,-5,14,17,16,-51,44,-6
1491089163558,0,-13,-43,-13,-17,-13,-9,-50,-1
1491089163596,1,54,57,-17,1,-4,-32,-20,-9
1491089163596,1,-20,-17,0,34,3,5,33,-5
1491089163597,2,60,33,14,-23,-10,-10,-66,-3
1491089163597,2,-60,-31,2,-32,26,22,51,1
1491089163599,0,74,63,19,-14,-10,-13,-32,10
1491089163599,0,-26,-11,-40,-6,1,11,63,7
1491089163599,1,66,-42,16,24,7,-3,48,-1
1491089163599,1,-16,-21,37,28,-3,9,-12,13
1491089163633,2,-8,25,-39,-21,-9,-4,-24,-3
1491089163633,2,-7,-41,-20,-40,-5,-12,-91,-6
1491089163635,0,17,-24,13,15,-2,37,-17,7
1491089163635,0,-80,26,6,26,0,-18,-1,-39
1491089163637,1,83,67,-10,-22,-18,-11,4,44
1491089163637,1,26,-86,-51,-27,-14,-46,-70,-12
1491089163639,3,-101,-96,-28,-13,10,7,77,6
1491089163639,3,62,48,39,-18,-7,-25,-7,-8
1491089163674,0,35,-64,-60,-18,8,-5,-49,30
1491089163674,0,24,79,-15,-2,-28,-21,19,-9
1491089163675,1,-62,-35,36,53,6,-16,-63,-17
1491089163675,1,-100,-80,-60,4,18,-7,62,13
1491089163676,3,-22,-66,-2,-51,-4,41,-58,-8
1491089163676,3,-40,-41,45,3,-11,-57,30,-26
1491089163677,0,-21,-106,-79,45,12,-24,50,-1
1491089163677,0,-19,72,-12,-10,-11,42,-17,-3
1491089163708,1,17,-17,-24,21,-24,-18,-33,-8
1491089163708,1,16,22,66,20,0,-10,11,-2
1491089163709,2,17,87,-57,-3,20,-25,6,2
1491089163709,2,75,-68,84,-19,-4,29,-1,17
1491089163710,3,-39,69,-99,-57,10,18,-56,-9
1491089163710,3,34,-43,-49,-57,-25,-20,4,16
1491089163711,0,-54,-108,-84,4,3,-6,-24,-7
1491089163711,0,-128,26,68,63,-19,1,37,-72
1491089163746,1,117,30,-35,-84,-9,35,-52,79
1491089163746,1,-60,-25,94,53,37,-20,87,-3
1491089163747,2,60,127,127,81,22,86,35,28
1491089163747,2,-76,-128,-109,20,35,25,-13,-6
1491089163748,3,29,-68,-11,19,-21,-33,-12,-9
1491089163748,3,-58,-14,-128,-67,-19,40,-17,5
1491089163749,0,-27,-128,-121,-116,-29,-41,46,-17
1491089163749,0,65,63,62,31,-3,10,-65,11
1491089163783,1,-103,80,123,94,21,-30,51,-49
1491089163783,1,40,79,33,-33,-21,73,38,41
1491089163821,2,-118,-8,-67,-25,-29,5,-27,-40
1491089163821,2,-71,-79,39,-96,12,-78,-41,-2
1491089163822,3,32,-20,43,62,-2,-11,39,23
1491089163822,3,-36,-100,-81,-74,22,-95,-36,-30
1491089163823,0,15,127,127,91,24,-2,-40,-10
1491089163823,0,122,26,-26,43,-1,-17,89,39
1491089163824,1,-128,-122,-61,5,-23,-116,-59,-70
1491089163824,1,13,98,-16,78,-4,-16,-24,8
1491089163859,2,28,-19,-128,-125,-35,-21,52,34
1491089163859,2,34,62,96,15,47,46,-67,-9
1491089163861,3,-55,-62,89,79,35,43,-19,16
1491089163861,3,12,-10,-101,-19,-20,-38,-1,-36
1491089163862,0,-5,19,-70,-64,-13,-128,-56,9
1491089163862,0,-14,24,40,-22,-3,-128,53,27
1491089163863,2,-9,57,127,13,-13,108,-59,-12
1491089163863,2,-26,-114,-110,-94,-15,-115,21,-21
1491089163933,3,30,4,-5,28,0,-102,-33,20
1491089163933,3,-10,-13,33,-7,11,12,33,-8
1491089163934,0,4,-69,118,83,11,75,-9,-9
1491089163934,0,24,99,26,-25,-3,127,36,9
1491089163934,1,-12,-82,-128,18,-45,127,-24,-6
1491089163934,1,33,74,-20,-76,8,120,-35,-14
1491089163936,2,-1,58,127,108,43,45,26,9
1491089163936,2,-16,-108,-128,-22,9,50,-19,12
1491089163971,3,4,13,-53,-42,-30,-66,31,-16
1491089163971,3,-3,-21,87,14,-12,-24,-12,-8
1491089163972,0,-11,-4,-128,-72,0,-62,5,8
1491089163972,0,14,-6,-48,14,1,-36,16,-4
1491089163972,1,47,71,-81,-68,-21,-37,-11,-5
1491089163972,1,-33,-51,-77,-88,-4,-14,2,6
1491089163973,1,-33,-52,-32,-42,-8,10,5,-1
1491089163973,1,26,54,-9,31,-11,-1,-5,11
1491089164046,2,29,45,-1,-15,9,-20,12,0
1491089164046,2,-63,-97,-57,2,-57,13,-26,-7
1491089164047,3,-23,121,127,25,47,7,9,-1
1491089164047,3,6,15,-64,32,38,-4,12,-6
1491089164047,1,5,-9,50,-38,19,-1,35,9
1491089164047,1,-84,-127,-93,1,-43,1,-25,-14
1491089164048,2,83,35,31,-64,-6,-1,15,10
1491089164048,2,5,-43,-52,-55,-18,1,-28,-13
1491089164083,3,15,-31,101,62,19,-3,10,3
1491089164083,3,22,38,-39,31,-14,7,-1,10
1491089164084,0,-50,-76,12,12,16,0,0,3
1491089164084,0,-14,13,123,2,-11,-3,11,-4
1491089164084,1,-15,-42,-34,-71,-38,5,-17,-13
1491089164084,1,-29,-44,-36,5,-10,2,-6,-25
1491089164086,0,-59,-67,-82,-101,-9,-9,-12,-18
1491089164086,0,47,81,12,58,-12,0,11,0
1491089164121,1,19,36,67,61,19,-1,12,7
1491089164121,1,-7,-32,13,-20,-4,-5,-16,3
1491089164122,2,30,80,-46,-1,-13,-5,21,8
1491089164122,2,-31,-42,-6,-7,-12,2,-11,-22
1491089164122,0,-30,-19,55,12,5,-3,-10,-5
1491089164122,0,-24,-59,-53,-79,-7,1,-1,-4
1491089164123,1,-25,-27,-82,-8,-34,1,4,-3
1491089164123,1,-6,-84,32,-121,9,0,3,0
1491089164158,2,-14,23,93,98,2,-1,-2,-1
1491089164158,2,49,127,21,32,23,-2,14,16
1491089164160,3,-13,-53,8,-73,11,-1,-2,-4
1491089164160,3,-6,8,-89,-12,8,-3,-4,9
1491089164161,0,-28,-65,-45,-18,-8,-5,-17,-19
1491089164161,0,-7,-27,15,-25,-3,0,-1,-2
1491089164162,1,11,34,24,4,15,-4,-9,3
1491089164162,1,-24,-87,-123,-3,-33,0,-11,-5
1491089164196,2,1,43,39,3,-4,-2,-8,-1
1491089164196,2,4,13,48,67,27,-3,16,4
1491089164196,3,-16,-24,-62,-30,15,-1,0,-6
1491089164196,3,27,41,96,60,15,1,30,9
1491089164197,0,-17,-23,-100,-37,-7,0,-9,-15
1491089164197,0,9,15,17,-17,-10,-3,0,2
1491089164198,1,-2,-6,2,16,-33,-1,-28,-3
1491089164198,1,-3,-1,-103,-31,23,3,-9,-5
1491089164233,2,-8,-15,7,-9,-5,-5,-8,0
1491089164233,2,3,-9,28,25,1,-4,6,-3
1491089164234,3,5,18,-47,-22,-23,-3,-3,5
1491089164234,3,1,22,-2,-48,-11,-5,-4,-7
1491089164234,0,-30,-79,-88,-29,8,0,16,-3
1491089164234,0,33,99,95,70,5,-1,11,6
1491089164271,1,27,32,37,68,28,-1,6,11
1491089164271,1,-20,-20,-52,-54,19,-3,-11,-8
1491089164271,2,-7,-38,-76,-53,-50,-2,-8,0
1491089164271,2,-30,-76,-66,-61,-38,1,-21,-10
1491089164272,3,32,53,112,67,21,1,29,5
1491089164272,3,19,44,75,44,17,-4,40,4
1491089164308,0,-27,-72,-81,-63,-3,2,-37,-12
1491089164308,0,7,30,19,43,1,-6,3,0
1491089164309,1,-14,11,-5,23,50,-4,-5,-7
1491089164309,1,-6,-23,-35,-4,12,-3,20,5
1491089164309,2,11,28,46,-31,-67,2,-4,1
1491089164309,2,0,-3,16,30,39,1,38,-2
1491089164310,3,-1,-17,-46,-37,14,0,53,3
1491089164310,3,30,87,127,88,4,-2,-119,3
1491089164346,0,-14,-11,-49,-41,34,0,40,-6
1491089164346,0,13,4,6,66,-13,-7,26,12
1491089164347,1,-21,4,-37,-46,-45,-3,-29,-16
1491089164347,1,-3,1,21,25,19,-2,-93,-10
1491089164350,2,-7,-8,-64,-51,-16,-5,32,4
1491089164350,2,-33,-27,-22,-108,-7,-1,-56,-17
1491089164351,3,17,35,82,96,38,-5,-24,9
1491089164351,3,-2,3,4,-45,-43,1,12,-2
1491089164383,0,-24,-7,16,109,30,2,22,-4
1491089164383,0,10,16,20,38,-4,-6,15,2
1491089164384,1,1,6,-61,-79,-12,-3,8,-5
1491089164384,1,1,15,21,30,-50,4,13,0
1491089164385,2,-12,-13,-2,25,20,-7,-1,-7
1491089164385,2,-5,-11,-35,-72,-8,3,-3,-1
1491089164385,3,-11,15,34,10,-7,4,14,-5
1491089164385,3,22,11,13,26,-3,-2,32,7
1491089164421,0,-1,-30,-15,-66,-16,0,7,-2
1491089164421,0,2,-58,-27,21,-4,0,15,-7
1491089164422,1,-4,-30,17,-72,11,3,-3,0
1491089164422,1,8,5,48,72,-53,-1,-51,0
1491089164422,2,-3,-8,45,23,-9,-1,-34,-8
1491089164422,2,9,-22,-13,-16,-23,-2,-8,2
1491089164423,3,3,-21,-29,-5,-22,-10,-35,-6
1491089164423,3,-1,-19,-15,-47,29,-4,89,-3
1491089164458,0,19,-51,35,27,-34,0,-17,8
1491089164458,0,-23,-92,-28,-26,-14,2,-6,-10
1491089164459,1,-10,-105,11,-5,2,0,58,10
1491089164459,1,8,-7,31,33,-2,-2,6,0
1491089164460,2,3,36,25,-6,1,0,-21,-5
1491089164460,2,-21,21,-16,-34,14,2,10,-3
1491089164461,3,-11,11,-27,5,-28,-2,-32,-10
1491089164461,3,13,42,-17,-7,-12,-2,17,6
1491089164496,0,-6,41,9,-14,15,-4,18,-2
1491089164496,0,-3,44,0,11,-10,1,7,-1
1491089164499,1,12,41,-3,18,-3,2,3,-5
1491089164499,1,14,-1,-15,-29,8,-1,27,5
1491089164500,2,-28,18,27,17,1,0,4,-4
1491089164500,2,-19,-12,-13,-4,-5,2,-30,-8
1491089164501,3,15,49,19,44,4,-2,-4,0
1491089164501,3,0,-16,-21,-34,-10,-1,5,5
1491089164534,0,12,5,17,8,19,1,8,8
1491089164534,0,1,28,35,14,-25,-1,-10,-5
1491089164535,1,8,-15,-20,-12,-6,-5,-7,-1
1491089164535,1,-18,-17,-51,-11,2,-1,-5,-10
1491089164535,2,16,42,47,10,12,-5,-4,1
1491089164535,2,-2,3,-3,9,16,6,-12,-2
1491089164536,3,9,-5,-11,-3,-1,3,-6,4
1491089164536,3,-14,-17,-14,-20,-5,-1,2,-3
1491089164571,0,-17,-8,-25,-3,-1,-1,-20,-9
1491089164571,0,7,12,1,-5,1,-4,-9,8
1491089164571,1,-35,-35,-20,-4,11,3,10,-9
1491089164571,1,2,2,-19,-11,4,16,-4,-3
1491089164572,2,-15,-15,21,9,-9,4,-6,-6
1491089164572,2,21,21,27,-2,11,-78,-4,6
1491089164573,3,-7,11,-1,-1,2,-55,35,-6
1491089164573,3,-7,-36,-63,-23,-11,74,18,4
1491089164608,0,19,10,30,10,16,-41,-41,-2
1491089164608,0,-2,17,14,-6,-20,92,-53,-4
1491089164609,1,-23,-21,-16,2,-7,56,-59,0
1491089164609,1,11,-1,2,5,19,-34,8,0
1491089164610,2,-15,-7,-64,-37,-12,68,60,-4
1491089164610,2,-4,-14,-24,-23,8,83,27,-2
1491089164611,3,9,32,42,26,27,44,22,7
1491089164611,3,-19,-6,29,-4,-15,51,1,-10
1491089164646,0,-4,-24,-72,-16,16,6,13,-1
1491089164646,0,-20,-4,14,-8,14,-20,102,-5
1491089164647,1,-4,-36,17,3,-30,41,62,2
1491089164647,1,40,69,92,21,21,-18,-34,9
1491089164647,2,-21,-21,-32,24,13,-9,-64,-7
1491089164647,2,-46,-40,-25,3,-15,-16,-83,-13
1491089164648,3,53,54,5,-3,20,-28,-47,16
1491089164648,3,-2,16,-4,3,2,-54,-36,-7
1491089164683,0,-23,-29,52,-31,-33,4,-26,9
1491089164683,0,50,8,-1,25,9,7,13,3
1491089164684,1,-47,9,46,0,-13,7,-27,-12
1491089164684,1,-31,-70,-10,13,22,1,-18,-3
1491089164685,2,51,110,63,11,-9,29,52,7
1491089164685,2,-5,-28,-83,-1,5,-2,-4,-7
1491089164686,3,12,14,67,-10,14,-9,-37,3
1491089164686,3,11,8,-21,-1,6,-6,35,-1
1491089164721,0,-10,-41,17,-11,-20,7,-11,4
1491089164721,0,-3,-10,-21,-1,-2,7,-4,-3
1491089164721,1,-17,-18,-42,-25,-12,48,14,0
1491089164721,1,29,11,-27,-11,-5,108,17,5
1491089164722,2,-14,-13,0,-6,25,13,-9,-1
1491089164722,2,-1,-27,40,39,-16,-39,40,-5
1491089164758,3,14,56,-50,-7,-21,-33,-66,3
1491089164758,3,-44,-73,-77,-39,-9,-62,25,-7
1491089164796,0,16,18,-20,-2,-5,-31,12,2
1491089164796,0,30,18,17,15,14,-18,-13,10
1491089164796,1,1,41,75,32,16,-38,37,0
1491089164796,1,21,0,40,13,4,-25,-67,3
1491089164797,2,17,-14,-79,-21,-8,-18,-18,0
1491089164797,2,-22,-26,22,-16,-23,-10,-7,-3
1491089164798,3,3,-49,-84,-18,-6,-8,14,0
1491089164798,3,-3,5,-20,-6,4,-10,27,8
1491089164833,0,-25,-10,35,23,-17,-4,-91,-25
1491089164833,0,37,66,55,5,15,-8,-1,14
1491089164834,1,-8,-24,-28,-16,-11,-5,-15,-1
1491089164834,1,-1,31,-10,-27,-21,0,46,2
1491089164835,2,-5,-34,0,28,12,-6,6,-11
1491089164835,2,-60,-28,0,25,26,5,-2,0
1491089164836,3,51,26,64,43,-19,2,11,-8
1491089164836,3,-24,-10,-58,-29,2,0,-15,-3
1491089164871,0,3,-16,16,-40,-20,4,15,-11
1491089164871,0,12,31,-17,-9,3,-1,-21,2
1491089164872,1,1,-10,34,29,23,-3,-22,-6
1491089164872,1,-46,-20,1,15,1,-7,25,-11
1491089164873,3,-12,-48,-27,-10,-6,-9,-1,-3
1491089164873,3,11,-4,26,7,5,-7,12,4
1491089164874,0,14,24,-9,-4,-2,-6,-49,0
1491089164874,0,-1,-42,15,0,-7,1,22,2
1491089164908,1,-45,-28,-78,-3,7,1,58,1
1491089164908,1,72,21,35,4,-14,-2,-24,1
1491089164909,2,-50,25,17,-9,7,-7,20,-11
1491089164909,2,-12,18,78,22,6,-1,10,-4
1491089164910,3,-49,-71,-92,-13,-20,-1,19,-29
1491089164910,3,-76,3,-77,-21,6,6,-44,11
1491089164911,0,51,39,41,20,-6,-4,22,-2
1491089164911,0,-15,7,49,30,17,8,80,3
1491089164946,1,27,14,7,-25,-4,79,-98,-3
1491089164946,1,-48,-44,-27,-17,-11,18,46,-11
1491089164947,2,42,12,15,17,-18,-15,-15,2
1491089164947,2,-9,-30,-11,-17,-4,88,48,-15
1491089164947,3,38,12,27,-24,3,-56,-38,24
1491089164947,3,10,19,29,45,7,48,-22,-14
1491089164948,0,-26,-68,1,2,3,-98,23,8
1491089164948,0,-7,-34,-90,-29,-17,-47,-14,4
1491089164983,1,29,43,34,12,23,-10,-9,-11
1491089164983,1,-56,-64,4,-19,-19,-81,-15,-8
1491089164985,2,102,103,14,12,33,-30,41,8
1491089164985,2,-24,-23,27,-21,0,-99,4,1
1491089164985,3,19,11,-42,-8,-34,-10,-21,0
1491089164985,3,44,20,12,-6,11,-105,9,2
1491089164986,0,-56,-77,-35,-7,28,8,64,-12
1491089164986,0,-13,26,-6,-6,-28,48,-62,-6
1491089165021,1,16,-12,6,0,-4,18,3,22
1491089165021,1,41,42,102,15,2,67,-2,-9
1491089165058,2,16,16,-44,19,-2,60,-17,27
1491089165058,2,38,12,45,0,1,-108,-11,-1
1491089165060,3,-54,-45,-89,-24,-8,41,-26,-10
1491089165060,3,64,4,1,17,-13,87,-33,4
1491089165061,0,-86,-39,31,-6,-22,58,40,-10
1491089165061,0,-22,40,-48,12,6,38,-36,-10
1491089165061,1,7,1,16,-18,7,72,29,9
1491089165061,1,36,44,9,25,-3,29,47,4
1491089165096,2,-60,-8,-23,-21,-1,81,-94,-13
1491089165096,2,-4,-10,0,-11,7,82,43,-3
1491089165097,3,57,25,26,28,-4,66,-24,7
1491089165097,3,-43,-26,12,-13,7,108,-29,-10
1491089165098,1,-26,3,22,-8,7,-122,39,-3
1491089165098,1,19,7,-1,-9,-1,-115,-32,-6
1491089165099,2,43,-15,-38,25,-12,-124,-18,3
1491089165099,2,-40,-8,-6,-21,-2,-115,-33,-19
1491089165133,3,7,11,12,25,-2,-108,30,4
1491089165133,3,-12,-9,1,-5,1,-96,8,13
1491089165135,0,54,20,1,-31,-11,-89,3,3
1491089165135,0,39,36,31,-15,6,53,-16,6
1491089165136,1,-58,-34,-42,12,6,30,-17,-21
1491089165136,1,20,31,-4,-2,-1,-63,-29,12
1491089165137,2,24,-3,-10,-28,3,-37,56,0
1491089165137,2,-29,-12,34,36,18,-83,5,-9
1491089165171,3,29,-13,13,-8,0,-95,-3,-4
1491089165171,3,-8,-24,-16,-1,-31,-19,-6,6
1491089165208,0,39,35,-5,18,1,20,-12,-1
1491089165208,0,-68,-7,-22,-21,-9,51,34,-3
1491089165209,1,18,17,20,-2,5,25,-23,12
1491089165209,1,3,18,-7,-27,-2,30,35,-19
1491089165210,2,14,-5,-5,9,8,22,-38,1
1491089165210,2,-20,-33,-22,-7,-17,-4,-29,-7
1491089165211,3,5,15,15,-20,-2,31,99,0
1491089165211,3,-4,-5,26,25,-19,0,-21,4
1491089165246,0,41,31,23,20,8,-9,31,1
1491089165246,0,-64,-45,-16,-2,14,-15,-11,-15
1491089165247,1,-18,-26,-12,10,-11,-18,-80,-6
1491089165247,1,38,10,13,1,4,-58,20,-8
1491089165249,0,-6,-23,6,33,-6,24,-19,12
1491089165249,0,42,43,-2,-20,-5,-3,9,9
1491089165250,1,-19,-22,-9,9,9,-24,7,-11
1491089165250,1,-22,-28,-65,-21,-21,15,-25,-11
1491089165283,2,-32,7,41,-16,3,15,-5,7
1491089165283,2,38,27,-1,0,7,12,-4,18
1491089165286,3,28,24,9,9,-18,48,-36,-2
1491089165286,3,-55,-52,-25,-20,17,10,-31,-5
1491089165287,0,-10,-35,-6,-15,-7,-38,22,-8
1491089165287,0,44,46,42,52,16,24,35,1
1491089165287,1,-10,29,-15,-20,5,87,-5,9
1491089165287,1,-4,-28,11,10,5,75,61,1
1491089165321,2,-8,28,-30,-2,-29,35,-71,-13
1491089165321,2,-1,-28,24,5,14,-41,-5,25
1491089165322,3,-9,-22,0,0,5,-67,2,-19
1491089165322,3,28,23,-25,-19,-4,29,5,13
1491089165324,0,4,-21,0,-9,6,-15,28,1
1491089165324,0,32,-16,-35,-26,-16,-42,-16,-19
1491089165325,1,-24,18,24,4,8,-32,-55,0
1491089165325,1,6,-24,-2,11,-8,-18,19,14
1491089165358,2,-66,-58,-39,12,17,-12,26,-6
1491089165358,2,73,86,21,-14,-14,12,-57,2
1491089165396,3,20,27,50,14,3,15,97,13
1491089165396,3,26,-10,21,-17,11,-14,-75,-6
1491089165399,0,0,35,-7,1,-25,9,-27,-8
1491089165399,0,-66,-84,-69,-10,-6,5,30,-18
1491089165400,1,-48,12,-17,-14,1,-5,33,-10
1491089165400,1,86,55,28,-3,11,6,-76,23
1491089165401,2,-54,4,6,-14,3,6,-30,-17
1491089165401,2,-31,-28,22,30,3,34,-24,-18
1491089165433,3,47,-16,0,1,-14,-2,42,18
1491089165433,3,-63,-23,-89,12,-8,-22,30,-30
1491089165434,0,51,-5,66,5,9,-45,-67,19
1491089165434,0,-15,29,13,-31,10,17,38,6
1491089165435,1,-16,-17,22,28,6,-18,62,-4
1491089165435,1,4,-44,-39,-3,-16,5,-53,-13
1491089165436,3,44,-39,45,-3,6,-87,11,7
1491089165436,3,-21,34,-22,12,-7,-48,29,6
1491089165471,0,-61,-8,-57,-64,-12,20,57,-21
1491089165471,0,5,-89,-18,47,-4,40,-102,-7
1491089165546,1,9,93,54,-16,13,32,79,17
1491089165546,1,-4,-41,19,22,26,14,-6,0
1491089165547,3,31,-54,-102,-14,-7,-6,-32,4
1491089165547,3,-10,57,72,-12,-15,-43,1,-19
1491089165549,0,127,-2,-25,-30,12,41,-8,12
1491089165549,0,13,43,-19,-49,-22,33,71,12
1491089165550,1,4,-26,-45,9,8,39,47,-10
1491089165550,1,-35,-49,44,15,2,8,-45,8
1491089165583,2,-1,-38,-19,0,-11,-22,-43,-21
1491089165583,2,26,-32,-16,16,-15,-53,14,6
1491089165584,3,-13,113,-12,5,-6,0,-66,-20
1491089165584,3,1,34,78,8,16,-7,56,14
1491089165585,2,6,-67,-80,20,-5,-52,-7,-7
1491089165585,2,107,121,73,18,18,9,86,24
1491089165585,2,87,-68,53,10,10,-69,81,43
1491089165585,2,-35,-48,-28,94,3,-79,-23,-16
1491089165621,3,14,96,-74,-59,-26,66,-34,-1
1491089165621,3,36,-90,-1,-25,6,-38,43,0
1491089165622,0,-42,78,12,0,16,41,-12,-22
1491089165622,0,-48,-90,11,-25,-13,-52,18,5
1491089165622,2,-3,44,-14,22,11,39,13,4
1491089165622,2,22,-46,99,7,15,-8,-70,16
1491089165623,3,-22,86,-81,-27,17,36,0,1
1491089165623,3,-61,-10,10,-74,-27,11,34,-29
1491089165658,0,-40,-74,-87,-47,13,-48,-28,-5
1491089165658,0,74,127,85,78,-54,62,-25,12
1491089165659,1,-40,-128,33,26,7,-74,24,-16
1491089165659,1,-22,29,32,20,19,32,-11,-26
1491089165660,2,-3,62,-32,-11,12,-1,6,18
1491089165660,2,-76,31,85,28,9,2,13,-7
1491089165661,3,55,69,-69,-69,-10,7,-9,2
1491089165661,3,12,-28,88,21,18,-11,-11,2
1491089165733,0,-51,-43,-44,8,-54,-10,-36,13
1491089165733,0,-18,28,-111,-100,8,55,8,-19
1491089165734,1,35,34,127,26,12,48,-15,6
1491089165734,1,-27,-84,-65,65,9,1,-32,-9
1491089165735,2,-29,-34,-82,-43,-23,-40,30,10
1491089165735,2,22,71,127,-74,-3,-52,-33,17
1491089165735,3,-32,-62,94,83,53,33,-23,-12
1491089165735,3,124,127,19,2,-38,50,41,37
1491089165770,0,-97,-115,39,-4,-5,-46,-21,-48
1491089165770,0,-54,-63,-80,-21,4,-5,5,-17
1491089165808,1,38,35,50,-64,4,-68,16,6
1491089165808,1,-97,-124,77,114,31,-120,-44,-24
1491089165809,0,-60,-80,12,-27,-16,48,-9,-28
1491089165809,0,102,-1,-103,33,39,-80,2,6
1491089165810,1,67,56,105,94,33,-82,66,36
1491089165810,1,-19,-51,-89,-26,-33,-124,-80,-8
1491089165810,2,11,-69,-64,-41,-32,-80,-31,0
1491089165810,2,-99,-18,-74,-32,5,33,20,-17
1491089165846,3,14,27,81,7,11,54,-22,1
1491089165846,3,-37,0,-38,-13,2,127,42,1
1491089165847,0,-72,-67,71,-19,-4,106,-73,-23
1491089165847,0,-17,-128,-72,27,-18,122,-7,-9
1491089165847,1,-54,-2,-1,-20,-38,127,5,-17
1491089165847,1,-45,92,-102,23,7,127,-33,10
1491089165848,0,-32,25,-63,64,1,-125,20,-16
1491089165848,0,98,127,127,52,10,-34,21,37
1491089165921,1,-67,-87,-46,1,-8,-36,-2,-21
1491089165921,1,27,-12,-39,10,-11,-72,2,-2
1491089165922,2,86,95,127,35,15,-62,-9,20
1491089165922,2,-20,-16,-53,-17,-30,-19,31,1
1491089165922,0,-89,-92,2,-39,-11,-22,-6,-18
1491089165922,0,42,44,-21,-40,-19,0,-12,9
1491089165923,1,-13,-20,31,-5,-12,-10,25,6
1491089165923,1,13,87,113,40,26,5,-4,4
1491089165958,2,8,-50,-19,10,14,-7,-25,-15
1491089165958,2,-34,-117,-66,-40,-53,-6,10,-16
1491089165959,3,-17,-26,-82,-67,-20,6,-34,-12
1491089165959,3,60,53,92,12,33,-1,18,9
1491089165960,3,35,116,111,52,29,3,-2,5
1491089165960,3,1,-30,-63,70,36,-4,-2,-13
1491089165996,0,19,-71,-42,-86,-35,-4,-7,15
1491089165996,0,-4,89,-38,57,8,3,-8,0
1491089165997,1,-15,-64,54,4,2,5,0,-7
1491089165997,1,13,108,127,68,28,-3,34,35
1491089165997,2,4,61,-88,-2,17,-4,-22,-7
1491089165997,2,0,-35,92,-57,24,-1,9,-3
1491089165998,3,-46,-110,-109,6,-49,-5,-14,-12
1491089165998,3,-16,-54,-128,-35,9,5,-4,-12
1491089166033,0,51,127,127,57,5,-1,23,14
1491089166033,0,-18,-51,1,-15,0,-1,-15,-2
1491089166034,1,-42,-66,-128,-86,-49,-5,-13,-11
1491089166034,1,-37,-125,-53,-128,-39,-3,5,-11
1491089166035,2,54,110,108,112,64,-9,-2,14
1491089166035,2,50,108,112,127,17,-2,6,3
1491089166035,3,-66,-75,-99,-79,-44,-1,-15,1
1491089166035,3,-19,-81,-65,-63,2,2,23,-14
1491089166071,0,-9,20,99,11,-25,-5,7,-2
1491089166071,0,4,18,-38,34,2,-1,-11,1
1491089166072,1,-5,18,53,9,38,1,-5,3
1491089166072,1,52,85,-69,-38,-37,-5,-28,4
1491089166072,2,-52,-105,-77,-127,-41,-2,-20,-14
1491089166072,2,46,115,87,114,71,-3,7,3
1491089166073,3,-6,-46,56,72,-14,1,-7,9
1491089166073,3,-15,-8,127,-9,8,0,-8,-18
1491089166108,0,4,-49,-116,26,-3,3,0,-12
1491089166108,0,69,12,97,-31,-23,-3,5,37
1491089166109,1,6,-46,-32,-54,25,-5,8,-5
1491089166109,1,-33,-54,-53,-63,-36,-4,14,-2
1491089166110,2,-11,20,44,94,5,-4,-10,-5
1491089166110,2,-2,26,27,-42,-11,-1,5,-8
1491089166111,3,-18,-23,-92,-52,7,3,-1,-10
1491089166111,3,54,57,6,7,12,0,4,10
1491089166146,0,-9,23,72,-4,22,-2,17,2
1491089166146,0,-6,23,64,120,25,2,8,-3
1491089166147,1,-12,-27,56,-46,-15,-2,-13,-7
1491089166147,1,-28,-71,-49,3,-9,-3,-12,0
1491089166147,2,16,37,86,68,13,-3,-6,-4
1491089166147,2,-4,-26,-35,-15,-1,-5,5,12
1491089166148,3,17,51,43,30,38,-2,-1,-1
1491089166148,3,-33,-79,-65,-61,-42,-2,5,-8
1491089166183,0,-33,-108,-128,-116,8,-5,-13,-11
1491089166183,0,-34,-7,56,-46,-34,-3,3,-13
1491089166184,1,47,73,-29,79,33,-4,19,11
1491089166184,1,43,77,127,110,28,-3,-6,7
1491089166185,2,-34,-68,-80,-64,-27,-2,19,0
1491089166185,2,-48,-120,-110,-87,-41,1,-31,-12
1491089166185,3,24,68,75,-21,35,-5,3,2
1491089166185,3,43,114,88,127,52,-5,2,7
1491089166221,0,28,33,12,60,2,-4,-43,0
1491089166221,0,-39,-76,-87,-98,-6,0,-22,-10
1491089166221,1,-22,-52,-123,-101,-67,-6,-14,-7
1491089166221,1,-20,-67,-49,-65,5,1,-18,-5
1491089166222,2,29,103,126,55,51,-6,-6,9
1491089166222,2,11,44,11,93,41,-5,3,1
1491089166223,3,3,52,8,59,-6,0,-66,-3
1491089166223,3,-20,-7,-95,-116,-24,-2,-16,-8
1491089166258,0,-22,-80,-117,-68,-54,-1,11,-4
1491089166258,0,8,-31,-39,-20,46,-4,35,-2
1491089166259,1,20,50,89,111,-60,-1,43,10
1491089166259,1,-5,-21,9,-21,21,-1,36,5
1491089166260,2,3,31,28,-19,-32,2,43,-2
1491089166260,2,-22,-39,-32,7,-25,-1,-71,-16
1491089166261,3,-10,-52,-100,-80,0,-3,-75,-11
1491089166261,3,17,45,81,108,38,-5,36,5
1491089166296,0,0,2,61,59,21,4,9,7
1491089166296,0,14,24,-22,-42,-3,-5,48,-1
1491089166298,1,-14,-20,-31,-53,-12,3,27,-5
1491089166298,1,28,14,7,24,-21,2,7,7
1491089166299,2,-31,-26,-13,-21,12,-1,-25,-8
1491089166299,2,-22,-45,-24,-64,-36,0,12,-5
1491089166333,3,22,14,19,74,16,-2,15,4
1491089166333,3,21,46,25,-7,6,0,6,-1
1491089166334,0,-18,-28,9,-12,-13,-2,38,-6
1491089166334,0,-7,-32,-8,-31,-39,1,-60,0
1491089166335,1,-7,-17,-25,-29,-2,-5,79,1
1491089166335,1,-15,1,8,-6,-18,1,-76,-8
1491089166336,2,24,15,17,16,6,-3,-38,0
1491089166336,2,-2,18,17,52,-14,-1,-21,-4
1491089166483,3,-2,-12,1,-16,2,-3,8,8
1491089166483,3,7,5,15,25,-6,-5,28,-1
1491089166484,0,-16,-8,-15,-12,-27,-3,12,-8
1491089166484,0,6,-9,-22,-20,0,3,-6,9
1491089166484,1,-20,-29,7,-22,15,1,4,-13
1491089166484,1,8,6,10,6,-14,-4,4,0
1491089166485,2,3,24,10,5,-11,1,-12,10
1491089166485,2,-4,15,3,11,3,-3,15,-1
1491089166521,3,-9,13,19,38,5,-2,-19,-7
1491089166521,3,-13,-18,-16,-23,-14,-1,-3,-1
1491089166522,0,10,5,-11,-15,-3,0,2,-4
1491089166522,0,-8,-22,-15,3,0,-5,14,-1
1491089166522,1,4,9,26,-3,-3,2,-3,2
1491089166522,1,1,-13,-8,16,-16,-3,6,-2
1491089166523,3,-2,18,-4,12,1,-80,61,3
1491089166523,3,11,30,39,22,8,39,41,8
1491089166558,0,17,30,6,1,-1,12,4,-5
1491089166558,0,10,23,4,20,4,63,51,0
1491089166560,1,-19,-19,-25,-29,8,-2,91,1
1491089166560,1,-10,-22,-26,-3,-8,-93,77,-3
1491089166596,3,8,-5,-26,-8,6,86,-101,-10
1491089166596,3,5,-5,-16,-28,17,77,-71,6
1491089166601,0,-37,-41,-25,-19,-3,87,-21,-10
1491089166601,0,34,34,-34,14,-7,5,-7,9
1491089166601,1,0,10,58,25,30,40,-4,-5
1491089166601,1,23,22,41,22,-2,43,20,3
1491089166602,2,-22,-6,-39,0,-1,102,2,4
1491089166602,2,-8,-53,-3,-1,10,100,87,-18
1491089166634,3,-6,-6,-26,-23,-3,18,-42,10
1491089166634,3,2,39,26,0,18,-36,-23,-7
1491089166635,0,6,-11,-40,-16,-12,-53,4,-6
1491089166635,0,-12,6,6,-13,3,-12,41,4
1491089166636,1,18,-27,37,6,0,-18,12,-7
1491089166636,1,53,-12,-41,9,-5,-1,-5,9
1491089166637,3,-33,-52,-3,-11,-19,-35,-65,-18
1491089166637,3,50,52,46,29,8,-17,-21,12
1491089166670,0,-27,-32,-39,-30,2,-43,-65,-10
1491089166670,0,2,-43,-1,32,-11,-33,41,4
1491089166672,1,0,12,-21,-15,-12,-5,-8,-12
1491089166672,1,14,-40,-22,-6,-5,8,18,-1
1491089166672,2,-54,36,41,12,3,-5,-4,-4
1491089166672,2,12,-17,6,-25,12,1,-24,5
1491089166673,3,-6,16,-84,0,-16,51,2,-6
1491089166673,3,-42,-54,51,12,5,44,44,7
1491089166708,0,75,75,15,11,5,117,21,14
1491089166708,0,-45,-2,14,10,3,90,-13,8
1491089166746,1,13,-11,-23,-20,-11,-3,-9,14
1491089166746,1,-39,0,-45,-40,-6,-106,15,-22
1491089166747,2,38,-6,46,37,7,-122,59,7
1491089166747,2,-3,-80,25,-13,-19,-73,-77,-20
1491089166747,3,-35,12,-32,22,7,-39,-20,-11
1491089166747,3,46,-26,-45,-33,-20,-1,-20,5
1491089166748,0,-21,1,-88,-35,-8,-3,-15,-30
1491089166748,0,-1,-40,24,-20,1,-2,24,7
1491089166783,1,74,108,127,69,19,3,49,21
1491089166783,1,-60,-67,16,-3,0,25,-9,-2
1491089166784,2,25,23,-34,-14,-4,12,4,4
1491089166784,2,44,6,-78,-15,-17,-5,-97,-12
1491089166785,3,-95,-66,-2,-24,-1,-22,11,-5
1491089166785,3,-42,-24,-13,-3,6,-30,30,6
1491089166785,1,35,62,6,-29,-6,-87,70,5
1491089166785,1,-8,-11,-44,-10,-8,32,-14,-2
1491089166820,2,16,-15,-16,2,0,12,10,-13
1491089166820,2,-40,15,37,16,8,35,57,27
1491089166821,3,70,53,43,22,8,19,-35,9
1491089166821,3,-45,-21,-23,-19,-1,18,-89,-35
1491089166822,1,-67,-73,-39,-15,-5,-32,6,-15
1491089166822,1,52,59,9,13,8,42,3,1
1491089166823,2,15,32,25,-10,-5,123,11,8
1491089166823,2,-105,-33,-20,-4,6,-32,-46,-43
1491089166858,3,0,-10,30,15,9,89,31,8
1491089166858,3,76,81,35,12,8,34,9,14
1491089166859,0,7,13,8,4,6,10,-13,-6
1491089166859,0,35,-9,11,9,-8,31,-48,-9
1491089166860,1,-15,-39,-49,-31,-18,-14,34,-5
1491089166860,1,-23,-58,-53,-25,-1,35,34,1
1491089166861,2,-77,-32,33,4,1,62,-73,-15
1491089166861,2,113,127,30,10,18,33,-21,13
1491089166896,3,5,-5,37,26,-1,92,19,-1
1491089166896,3,-86,-33,-44,-18,-12,120,-19,-14
1491089166897,0,48,-64,19,14,0,56,20,16
1491089166897,0,-22,38,0,-2,0,36,41,4
1491089166897,1,57,9,-30,3,-5,-43,-72,-2
1491089166897,1,5,7,22,-6,-13,-128,6,-3
1491089166898,2,-104,-107,-42,-25,9,-125,49,-15
1491089166898,2,-2,78,29,8,-5,-78,2,-14
1491089166933,3,50,-5,4,5,17,-123,-6,23
1491089166933,3,-37,58,34,14,-4,-32,27,6
1491089166934,0,81,-30,-20,3,-10,-113,-52,0
1491089166934,0,18,-11,-49,-26,-5,-7,68,4
1491089166935,1,6,63,30,-16,7,-19,-3,7
1491089166935,1,-36,26,38,21,9,-67,-43,-21
1491089166936,2,-3,14,22,35,4,-38,55,13
1491089166936,2,-71,-24,-16,-4,-9,-21,-73,-38
1491089166970,3,-53,-61,-33,-11,-11,-50,-36,0
1491089166970,3,89,-47,-37,-22,-7,-105,43,8
1491089166971,0,51,109,38,16,10,-81,-23,17
1491089166971,0,-18,-64,5,1,-1,-39,-25,-8
1491089166972,1,5,6,0,-2,-10,-2,40,-1
1491089166972,1,-9,-61,-28,-4,-4,-44,-14,-19
1491089166973,2,-46,-19,-33,-51,-14,-29,55,21
1491089166973,2,-16,-7,29,-2,-2,40,-9,-3
1491089167046,3,37,50,15,17,-1,86,-58,-12
1491089167046,3,-65,-36,-7,-5,-16,88,-1,-3
1491089167046,0,56,25,-41,-4,6,114,41,5
1491089167046,0,44,-27,4,-6,-12,19,-61,8
1491089167047,1,-36,-26,12,-6,5,75,53,11
1491089167047,1,27,73,17,9,-5,-14,-12,-8
1491089167048,2,-24,-28,-7,-8,-1,-10,-54,-8
1491089167048,2,-26,-24,-11,5,-5,-24,46,4
1491089167083,3,45,27,-21,-8,-5,-79,-46,-7
1491089167083,3,-2,-12,26,15,6,-76,43,12
1491089167084,0,-2,3,23,2,-6,-50,-70,-23
1491089167084,0,1,12,-41,-7,2,-44,-49,13
1491089167085,3,-3,91,-16,-3,-10,9,-52,-14
1491089167085,3,-24,-78,7,-1,1,4,26,6
1491089167088,0,43,99,13,8,2,10,25,14
1491089167088,0,-17,-27,3,-5,-6,48,71,-10
1491089167158,1,32,42,-5,6,15,4,18,6
1491089167158,1,-40,-16,9,-5,9,-2,-21,-10
1491089167159,2,20,-5,-11,5,-6,-7,5,8
1491089167159,2,-21,-8,3,-8,2,14,-29,-12
1491089167160,3,-16,-32,0,-4,2,-6,-13,-4
1491089167160,3,23,11,8,13,3,-1,-33,8
1491089167160,0,-97,-91,-13,-19,-4,17,14,-10
1491089167160,0,59,116,11,0,8,39,9,7
1491089167196,1,-36,-51,-11,4,-12,-12,14,-8
1491089167196,1,31,-7,-10,-28,-4,17,-68,1
1491089167197,2,-27,24,-11,-17,3,17,-7,-1
1491089167197,2,23,-8,11,-5,-7,-22,12,-8
1491089167197,3,-25,-4,3,-1,0,14,9,-12
1491089167197,3,20,-30,-7,6,0,-10,36,16
1491089167198,3,19,12,-5,11,-7,4,12,1
1491089167198,3,-7,-25,-17,-20,9,4,-9,-9
1491089167233,0,10,17,9,24,-12,-26,29,7
1491089167233,0,-29,-35,-15,5,7,6,3,-3
1491089167234,1,60,46,26,21,9,-8,-11,24
1491089167234,1,-42,24,7,7,4,21,-1,-22
1491089167346,2,11,7,-4,-12,1,5,-100,0
1491089167346,2,-48,-17,6,-5,-14,-10,10,-24
1491089167347,3,5,-57,-43,-10,-8,-19,-24,12
1491089167347,3,-10,44,-2,-27,1,21,-63,8
1491089167383,0,28,6,27,14,25,25,-27,-8
1491089167383,0,4,-19,13,9,-11,-11,0,14
1491089167421,1,-8,-28,16,-25,-1,-15,11,-4
1491089167421,1,-15,7,-85,0,-26,-13,23,-23
1491089167422,2,5,26,-9,-49,8,2,23,12
1491089167422,2,-26,20,58,38,22,15,17,-10
1491089167422,3,55,51,14,31,6,-2,17,-1
1491089167422,3,-4,-31,34,20,-2,-2,-42,9
1491089167423,1,-119,-43,53,31,10,-7,-11,-17
1491089167423,1,46,72,-16,-12,-14,17,-37,-2
1491089167459,2,-13,-59,-2,2,1,-29,-3,15
1491089167459,2,-64,-99,-128,-63,-18,-30,-8,-13
1491089167460,1,22,-35,-84,-22,-4,0,-26,22
1491089167460,1,16,23,-7,-38,7,-23,2,0
1491089167461,1,-45,-56,76,88,23,11,127,21
