1490743737084,89,-37,-37,-18,-38,-79,-112,-41,-14,-54,13,-108,-14,21,66,-1
1490743737132,111,16,-15,-95,53,39,93,56,29,-13,-9,68,-98,-119,-125,-94
1490743737134,-128,23,12,19,-50,57,-70,-61,15,127,-61,-44,4,105,116,36
1490743737182,-105,1,12,7,33,82,108,40,88,-106,1,53,54,-128,-126,-3
1490743737230,29,-100,12,61,-36,-70,108,14,-50,-25,-14,-94,-75,-30,-115,-54
1490743737279,84,-19,22,48,-25,18,-85,3,-57,-36,-15,39,127,-27,7,-54
1490743737328,-105,-78,13,32,26,-127,-101,-64,95,-23,18,-62,14,127,42,53
1490743737376,-87,42,21,-4,99,74,120,68,58,56,45,102,-83,-13,77,23
1490743737425,33,-17,-17,-9,-19,-45,37,60,-33,2,-18,44,-82,-15,-102,-75
1490743737426,4,127,62,111,-37,62,-60,-25,50,-122,6,-99,-81,-107,127,73
1490743737474,-8,-42,-30,-85,-57,-22,-22,30,65,63,25,63,64,18,-128,-23
1490743737523,19,27,-44,-69,-6,69,18,37,40,41,-27,32,127,50,63,48
1490743737571,49,118,38,-4,2,23,127,107,-66,-80,-81,-85,-11,-89,-8,-63
1490743737572,-7,-35,-13,-46,-87,-20,-72,-54,-6,2,25,32,60,-16,41,6
1490743737621,-121,75,28,127,83,30,-97,-82,-11,54,28,-8,-88,127,127,53
1490743737669,6,-114,-3,64,-79,-68,-66,31,-13,75,25,57,11,127,39,56
1490743737718,85,-43,-23,-98,-125,-60,-42,8,-72,-112,-24,29,91,-20,-48,1
1490743737767,-6,73,15,80,-23,127,39,16,-11,120,7,1,-122,-13,15,-5
1490743737863,-79,-11,-40,-10,21,48,115,55,7,-9,-18,-65,-105,-63,-27,-23
1490743737865,35,-92,4,-55,-98,-44,-34,25,-3,10,9,-30,44,-1,5,-30
1490743737866,-5,-43,-18,-77,80,-80,20,-4,-10,-70,10,127,77,32,-23,1
1490743737913,57,-5,-28,-11,126,78,65,24,-53,4,39,52,-71,-35,-10,6
1490743737962,14,-1,19,-3,56,23,-15,-7,21,2,12,-38,-33,6,65,25
1490743738010,-10,0,20,54,6,59,43,17,12,-4,-19,-72,15,64,-9,20
1490743738011,-22,3,-8,-103,-114,-65,-46,-13,29,0,-54,-27,-71,60,37,11
1490743738059,3,4,-17,69,-13,-35,-3,-16,17,-4,46,90,-63,1,-10,2
1490743738108,-60,-5,-5,-15,16,-15,-12,-17,15,-26,11,70,63,13,3,-35
1490743738157,18,-12,40,-48,-115,-35,-1,18,28,-24,-67,-46,9,-48,-37,-6
1490743738205,-16,-79,88,99,-70,-43,-3,-3,70,-97,-4,-12,20,-23,-24,-2
1490743738253,62,68,-16,-29,51,23,9,0,-52,58,29,-34,-45,-18,-12,-12
1490743738255,-37,100,-23,0,19,3,-9,-12,-32,57,-29,-35,-27,1,-18,-14
1490743738303,42,-54,-28,-46,-58,25,10,10,-5,-45,9,56,82,64,12,7
1490743738352,35,-10,51,44,-26,30,11,8,-15,-17,-38,2,35,-1,5,9
1490743738400,-26,-11,104,58,10,11,6,-4,24,-2,-40,-66,-82,-24,-9,1
1490743738449,16,-6,11,-1,41,-20,-17,2,-39,-9,-48,20,41,-23,-10,-13
1490743738497,-75,1,-24,0,-26,3,8,-4,46,-1,47,-39,7,21,2,11
1490743738499,45,-17,-42,-30,-14,29,18,15,-43,7,120,84,53,29,3,-2
1490743738546,-25,6,-79,-69,-123,58,13,-10,81,1,-44,-12,-128,55,-23,-6
1490743738595,-32,-4,90,-16,29,19,-5,-15,-57,-14,-17,-20,37,-2,0,9
1490743738644,60,18,-38,9,-59,-13,-6,13,-20,-11,-20,-31,-10,-8,-17,-23
1490743738694,-56,-7,-11,-1,-22,2,-1,-9,-23,5,-12,11,-15,11,12,0
1490743738695,-26,7,90,70,13,10,16,12,-74,-10,-22,-43,3,19,3,9
1490743738741,97,-1,-30,-50,-24,0,-10,7,36,-14,48,14,-17,-1,-6,-14
1490743738790,20,1,2,15,-1,-6,-10,-3,-15,1,-24,-17,-5,-10,-17,-11
1490743738839,68,-8,-33,-4,5,10,-3,6,-14,-8,-23,0,0,23,13,11
1490743738888,3,33,40,21,14,12,4,5,-28,109,-38,10,-12,-6,-12,-6
1490743738936,1,-26,25,-3,-9,-15,3,-10,-55,-11,-55,-30,-11,-17,-17,-5
1490743738937,-83,-2,-24,-8,4,-2,-8,-5,27,-17,-14,-1,-27,-28,-17,5
1490743738985,-54,-48,-8,-20,4,28,27,14,78,-44,-22,5,4,-4,2,-3
1490743739034,112,44,37,21,28,36,18,12,-42,-12,-18,11,-11,9,4,-5
1490743739083,35,-67,-7,5,-75,-55,-7,-14,-45,73,-31,-38,27,30,-15,17
1490743739131,1,127,-5,13,88,-11,-13,-18,-58,54,3,41,42,31,19,-16
1490743739179,-92,-45,-2,58,3,-8,6,-5,104,9,-13,-97,-101,13,83,16
1490743739181,-6,54,8,-4,-41,-60,-24,14,53,-32,8,37,93,100,87,8
1490743739229,-109,-30,-5,-8,-58,55,31,5,84,24,5,2,50,-41,-24,7
1490743739278,-19,-104,-11,11,9,-48,-48,-10,-37,-128,-18,-46,-61,7,53,17
1490743739326,41,127,-8,-62,-103,-27,50,45,-60,112,-26,-27,107,78,56,19
1490743739375,-85,65,-25,-75,-103,67,9,-50,25,127,-29,-50,52,-127,-29,17
1490743739376,17,-95,36,55,35,5,-28,21,-114,-20,7,53,80,34,-8,-29
1490743739424,-70,72,-24,-8,-7,-106,-84,-49,71,127,59,13,24,23,2,20
1490743739473,-78,-26,-3,22,-2,25,32,-7,-30,-64,-18,-55,-96,-86,-105,-30
1490743739521,21,108,9,26,-10,127,52,-9,-85,-4,-14,-51,-108,-91,-37,-9
1490743739570,70,-102,-1,-6,101,35,47,1,-36,-44,11,49,-39,-46,-33,-32
1490743739618,6,120,-4,-36,-32,48,-31,17,-41,62,-18,43,25,-20,-32,-10
1490743739620,-8,-69,12,-4,-16,30,54,9,32,-17,12,-48,-4,17,-49,-9
1490743739668,-31,-34,-10,-17,-11,6,47,22,54,-42,-8,12,-7,-6,-14,-4
1490743739717,-75,66,-7,-10,4,21,44,-13,-87,-63,-33,1,47,-1,-19,-12
1490743739765,52,1,-19,-74,-48,-16,26,6,29,-9,-1,-31,-1,-41,-59,-12
1490743739814,-17,-20,-13,0,5,-9,40,16,29,29,-18,2,18,-1,-17,-10
1490743739862,-50,-37,-26,-14,-21,9,25,-18,90,20,27,27,19,-7,-33,14
1490743739863,65,13,9,23,15,11,34,7,26,-7,-6,-3,-28,-32,-86,-33
1490743739911,-71,10,2,18,-6,-9,-34,-26,-36,36,16,-30,-18,-6,-35,25
1490743739960,127,-39,5,34,77,29,59,30,-16,6,13,7,-4,87,79,52
1490743740009,61,-47,-20,1,85,-48,-10,-15,66,3,31,110,94,27,61,51
1490743740057,55,-62,-5,5,-97,27,22,3,57,-31,-41,-36,-9,-114,-128,-69
1490743740059,21,81,-26,-84,-107,3,9,14,-70,-23,12,-13,-59,32,-14,-9
1490743740107,-106,-35,27,109,101,-55,-32,-34,36,77,32,66,127,106,-38,16
1490743740156,-32,-11,47,-35,-91,47,46,83,-8,90,29,119,76,18,-15,-10
1490743740204,-53,34,1,46,32,-105,-108,-86,71,-93,-11,-20,-36,-57,-62,0
1490743740253,75,-7,-70,-103,-1,127,98,38,-21,-50,15,-69,-51,-88,12,-48
1490743740301,28,81,61,24,-97,29,44,46,33,52,10,-96,109,90,109,70
1490743740302,1,-47,-22,-50,14,-74,55,33,16,1,-45,-102,-70,5,15,7
1490743740350,-128,-99,-3,-97,-17,-89,-87,-29,100,-2,-26,-29,-37,-101,-53,-32
1490743740399,-22,127,71,96,-47,70,47,66,-34,20,-6,-21,127,127,57,54
1490743740448,-85,-100,-25,-21,-118,-40,-70,-88,51,7,-16,-31,48,127,65,105
1490743740497,-110,-1,11,72,74,2,29,-16,11,35,7,86,-16,46,-128,-128
1490743740545,54,-45,2,59,-61,127,41,-25,10,45,62,91,-12,31,70,23
1490743740547,87,-10,27,73,105,-17,-59,-75,113,-64,68,95,-23,74,42,71
1490743740594,-6,23,-8,20,85,-47,-40,14,-67,43,31,92,-60,44,45,-17
1490743740646,-35,9,30,45,69,127,89,91,83,-36,-38,-10,-51,-128,-128,-79
1490743740692,10,8,-22,-70,-128,-29,32,-52,-79,-26,-49,-10,124,60,99,9
1490743740740,-17,19,45,-39,-128,38,106,84,-22,-66,-9,-118,-67,-128,-128,-114
1490743740741,5,11,13,61,127,127,54,3,56,2,30,33,-59,-71,-56,-43
1490743740789,-62,8,-75,-107,-21,-126,-47,-13,-15,-14,-21,-16,64,-84,-73,-33
1490743740838,-29,4,26,79,45,-18,-18,-40,55,-1,14,-93,38,122,55,66
1490743740887,6,7,-91,-128,-128,-103,51,21,-48,5,61,5,-78,-49,-52,-36
1490743740936,13,1,62,22,49,60,-19,28,-22,4,-107,-85,24,-31,-13,-24
1490743740983,39,9,66,127,-104,77,30,10,-17,-7,-39,-4,100,-59,-16,-16
1490743740985,16,-41,46,54,-128,62,49,-38,-13,-21,17,23,100,-67,14,5
1490743741081,36,-42,76,-57,-51,-64,-26,0,-20,3,-5,25,69,-27,-23,-14
1490743741083,7,116,-10,-22,109,-6,-5,-2,-8,122,45,127,48,35,-2,-10
1490743741130,2,56,-6,22,-22,-64,-60,-17,-22,-93,-5,-33,19,37,31,12
1490743741179,-3,-103,-52,-71,18,11,25,18,-12,-39,-73,3,-111,-54,-46,-15
1490743741181,-11,17,-3,26,17,11,21,7,63,48,-46,-84,5,7,0,11
1490743741229,-61,-11,34,15,22,-7,-6,2,-17,28,11,0,-9,10,-6,-3
1490743741277,5,56,-40,-53,-97,-51,-26,-9,-40,127,7,-44,-41,-40,-8,-5
1490743741326,10,-113,-11,17,35,40,6,8,-24,-50,-10,-42,-37,-2,-14,11
1490743741374,-41,-60,33,28,56,24,11,-2,79,-25,-31,-29,-51,-28,-34,-8
1490743741422,-7,5,-21,-57,0,-62,18,-1,-29,-10,11,78,31,-5,12,-14
1490743741423,-37,5,-37,-17,-17,-19,-48,-29,-11,7,48,17,-16,-59,-28,-11
1490743741472,-1,-10,35,23,36,-33,25,-1,67,15,-8,-68,41,-23,8,-9
1490743741521,-74,10,-52,29,21,-4,30,-10,54,-6,-27,2,-27,-23,13,-7
1490743741570,94,-1,48,12,21,-5,-21,9,-47,-11,-74,-46,13,37,-12,7
1490743741618,5,-4,-36,6,37,14,15,13,1,8,68,2,-12,-7,-3,-8
1490743741667,-32,-2,-84,-1,7,17,-11,-15,-104,7,-24,-13,8,21,12,-7
1490743741671,59,-33,-36,-10,-21,-1,2,3,11,-38,-33,-1,11,6,10,14
1490743741715,10,7,24,-11,3,7,16,-12,9,20,21,25,17,-7,-9,1
1490743741764,79,22,-1,-21,-5,-14,-2,7,-26,-34,-24,39,15,7,-13,7
1490743741813,-36,-10,-12,1,11,11,9,4,44,19,-11,-14,-50,-37,-27,-13
1490743741861,26,-36,0,17,-2,-10,-11,-11,-98,75,-10,-34,-32,22,42,-18
1490743741863,-105,-52,54,34,-60,108,63,12,-9,8,-52,-78,40,-41,28,10
1490743741910,-26,127,-32,-36,-48,-122,-112,-34,29,-36,-26,-17,-76,11,-32,-35
1490743741960,-3,-80,-24,41,-15,89,-13,-16,-40,-7,-23,-6,-31,-64,-33,-18
1490743742008,62,-6,31,39,111,-12,38,-4,-90,45,33,-26,-29,6,-10,-7
1490743742056,13,-53,9,48,127,37,24,-1,70,-97,30,94,14,91,111,65
1490743742105,-76,37,-16,-71,-128,-26,-15,-6,60,-28,-23,-48,17,45,25,9
1490743742107,127,14,22,58,43,-66,-44,21,-119,-15,10,32,-39,57,17,7
1490743742154,6,22,-73,-31,13,-122,-33,-25,44,13,-10,14,-45,101,40,29
1490743742203,35,-1,-15,-49,-116,66,28,60,30,-27,-13,-43,51,94,-3,-32
1490743742252,3,2,-14,-53,-128,-89,-70,-23,-71,7,-58,-74,48,112,72,20
1490743742301,-85,19,12,40,70,46,-29,-6,69,11,-9,-26,11,13,58,5
1490743742349,-48,99,-8,-15,-78,-26,-57,-40,-52,103,8,-2,-31,-18,37,22
1490743742351,-65,13,-12,-36,-59,-23,-65,-39,96,-54,18,36,127,24,25,36
1490743742398,24,127,-23,-10,-87,37,-20,-8,68,-77,10,19,75,-65,-22,13
1490743742446,69,35,6,8,80,67,52,20,59,-72,-7,-21,-90,-88,-47,-21
1490743742543,5,-1,15,46,96,99,78,60,21,-60,-7,-17,-65,-45,19,2
1490743742544,-81,-14,-9,-32,-73,37,72,16,-43,-68,-7,20,83,111,33,3
1490743742545,-19,95,-10,-63,-29,-45,-15,-27,-55,115,-10,-5,5,-37,-45,9
1490743742593,-85,79,-5,32,5,-20,-61,-25,14,-21,17,57,-49,17,65,21
1490743742690,-49,14,-1,30,45,-14,-41,-31,-62,-22,26,32,14,78,90,39
1490743742692,15,-59,-18,-52,-37,-17,-30,-12,-34,-23,-17,-16,11,31,88,17
1490743742739,-16,-20,-33,-57,0,-33,-27,-3,-75,7,-8,25,23,29,-48,-30
1490743742788,-51,-20,24,35,32,-27,-25,-12,16,9,29,23,-3,-29,15,18
1490743742793,-124,13,-20,12,-24,-32,-34,-43,127,65,14,22,-15,5,-21,33
1490743742836,120,21,33,34,-35,-118,-128,-57,-79,25,-1,-21,34,53,36,35
1490743742885,53,-19,-12,-34,-32,54,88,20,-80,-65,-22,-59,-27,-60,9,-50
1490743742934,87,-29,19,36,78,37,25,79,92,11,-24,42,63,33,-26,-60
1490743742983,56,-68,4,-87,-101,88,87,24,-56,-128,52,93,98,-60,-2,3
1490743743031,-97,67,-29,-17,-128,-128,-60,-47,85,-61,18,-54,0,114,116,39
1490743743032,107,90,42,82,-99,-98,-74,-17,-106,87,-21,-58,-128,-70,72,30
1490743743081,127,-81,-62,62,-19,-111,-56,44,-99,95,-22,10,28,114,40,-20
1490743743129,127,87,55,-38,49,111,16,55,-108,-60,-27,71,-35,-128,-84,-90
1490743743178,35,88,65,127,51,80,-76,56,-28,124,-22,-1,-42,-12,-39,-32
1490743743275,29,30,-5,-2,89,-30,12,15,11,94,-23,-21,-67,72,69,42
1490743743276,-5,107,5,115,82,6,-9,-33,88,77,11,-39,-56,-60,-28,-68
1490743743278,-106,60,-6,-110,45,94,61,8,60,34,-15,-40,-44,-20,48,52
1490743743325,-117,-75,-14,-106,-124,-73,-128,-114,103,99,3,70,127,127,127,115
1490743743373,64,-1,-7,20,2,120,105,31,-39,89,11,70,-35,68,-56,-35
1490743743469,74,-106,17,124,127,-23,-128,-107,-128,53,0,22,-51,5,-26,-10
1490743743471,-33,67,-38,-118,-122,96,97,34,54,-102,-16,-48,70,10,-27,3
1490743743471,-87,-29,-10,15,69,-88,-108,-63,62,-74,-28,37,33,-31,96,5
1490743743519,-5,-32,-17,-17,48,89,56,51,17,109,59,127,127,127,-97,-80
1490743743569,5,-114,33,6,-20,-126,-84,-14,-34,47,-27,-128,-128,102,103,-2
1490743743617,12,-3,-54,-3,-6,-79,-57,-56,-11,1,8,-65,-37,-39,4,52
1490743743665,38,77,-12,34,62,127,116,84,-24,-87,-15,-23,47,-27,4,41
1490743743666,32,108,31,0,-128,127,26,-28,70,107,4,-31,127,-45,71,91
1490743743714,-27,-80,10,47,64,-31,-32,-26,6,36,31,125,-86,127,-4,0
1490743743763,-1,-5,-85,-128,-128,-74,-17,1,-30,17,24,-44,3,-69,-28,-7
1490743743812,-29,-8,-40,-85,-39,-69,-100,-42,-3,9,-43,-39,-26,-37,33,-6
1490743743861,-48,-16,-31,-84,-102,-93,-106,-72,18,-7,-57,-121,-58,-43,-7,-61
1490743743911,-35,-9,26,64,22,56,0,4,49,6,-25,-53,-22,-44,-21,-7
1490743743912,-6,-3,58,110,127,117,127,67,19,1,-20,-50,41,5,-14,5
1490743743959,23,-3,54,127,48,29,-23,-10,2,1,7,13,-128,76,28,-3
1490743744006,-4,-6,-14,-106,28,-40,-25,-12,0,-3,28,86,89,59,5,2
1490743744055,4,0,-6,127,24,79,67,12,3,0,17,79,-43,21,45,6
1490743744104,40,-7,-50,-93,64,-42,21,10,-5,-5,29,43,122,95,18,16
1490743744152,17,6,-43,-74,-128,-114,-68,-24,-53,-12,-22,-27,-45,-128,-43,-30
1490743744153,51,-110,10,79,47,-28,-5,8,-26,-104,-68,-128,-73,-40,-34,-19
1490743744203,-37,50,-21,-7,26,-13,-28,-11,-14,104,37,53,83,49,13,7
1490743744251,14,-24,54,42,-40,52,12,-2,18,16,-67,-122,-23,-20,-8,0
1490743744299,-5,-60,19,82,-42,75,30,17,26,-40,22,-34,3,-21,-7,4
1490743744347,86,111,-18,-47,-25,-38,-31,-5,-61,65,-13,-38,-31,5,19,-11
1490743744349,37,66,-42,-113,-6,-22,-6,4,36,-17,60,78,-22,-20,-2,3
1490743744396,-95,-66,-27,30,11,14,-8,-12,118,-45,-8,1,-7,17,15,9
1490743744445,67,-10,-6,-11,10,-6,-5,41,-54,26,82,35,-13,-7,-15,-7
1490743744494,-98,26,-34,-45,-19,7,2,-14,88,8,-124,25,9,20,16,4
1490743744543,-17,-22,12,-54,-29,-29,-25,-23,86,-22,-16,-10,49,0,11,28
1490743744591,39,-1,34,65,1,15,9,5,-24,-5,51,-48,-59,-11,-8,-24
1490743744594,101,11,2,-64,3,-5,2,8,-15,-4,-65,26,20,-7,-11,-19
1490743744641,-66,-2,-12,-9,20,-1,2,-24,31,-9,95,43,-3,-13,-5,7
1490743744690,-1,5,14,29,13,0,-6,0,3,-7,-5,-51,-23,3,-4,-5
1490743744738,-16,-24,-52,-37,-2,16,14,14,-94,4,-2,40,12,-8,-7,-8
1490743744787,97,-6,23,-8,-6,-3,-2,11,-38,-4,-37,31,4,5,-11,-20
1490743744835,-29,-2,56,0,-1,-11,-3,-2,34,-29,-11,11,11,-4,14,18
1490743744836,-34,16,-29,-21,-11,6,5,15,-18,0,-19,-14,-16,9,-11,-10
1490743744884,-18,-19,-4,-5,-9,-12,-16,-4,-44,-34,-7,4,8,18,22,14
1490743744933,-53,-8,11,-1,-7,-10,11,-10,-60,37,-2,-12,-11,-38,-50,-29
1490743744981,47,28,-15,-22,11,-9,-15,-15,14,0,46,24,8,24,33,18
1490743745029,29,-61,10,-3,21,31,24,21,-49,-55,3,-1,-8,-47,-11,-9
1490743745031,76,-93,0,-19,-57,21,5,-25,-98,69,-35,-52,-64,-83,-81,-10
1490743745079,32,69,100,62,111,75,-2,4,-60,33,14,-99,-128,-75,11,-6
1490743745128,-5,-15,-42,-67,-70,-41,38,15,14,-51,-42,8,7,13,-14,8
1490743745177,64,-5,-31,-30,-38,-39,6,28,-6,-128,19,50,16,100,82,4
1490743745225,-65,33,22,-32,99,-89,-51,-10,40,15,1,-27,31,1,2,-18
1490743745275,-63,23,-4,8,95,9,-104,11,121,112,-21,-16,-128,-116,-92,-47
1490743745277,7,-80,-8,-16,-13,-18,-89,-39,-115,-77,-2,22,3,64,1,-12
1490743745323,-45,-34,14,25,-46,32,-27,-66,3,-49,-46,-87,-75,-92,107,96
1490743745372,-38,127,-51,-17,64,32,54,15,68,117,28,25,-68,3,-11,-17
1490743745469,11,-74,14,16,-14,-35,22,-6,-128,-73,-54,-59,-47,-47,-99,-49
1490743745470,-34,-67,17,16,64,127,127,79,-30,-7,-13,28,8,-82,-55,-12
1490743745518,-3,33,-2,-39,10,34,-106,-2,9,22,-22,11,19,-40,49,30
1490743745528,-95,76,10,46,47,-47,-87,-61,9,121,31,54,-43,-25,1,31
1490743745566,26,102,8,55,127,79,32,-25,-83,-87,-18,24,-103,-53,-95,-12
1490743745615,-74,79,-6,3,-68,-77,-92,-30,123,26,23,2,82,126,105,86
1490743745664,-28,66,38,-34,-26,27,-29,-24,40,7,19,7,42,-26,-35,-1
1490743745761,-40,-26,-11,-41,-57,-38,-38,6,-6,-44,-17,-19,-18,20,-13,-1
1490743745761,109,27,-1,27,-24,0,11,-9,-83,-30,21,-16,27,36,67,24
1490743745762,-69,-1,-1,8,23,25,-34,-12,85,22,-4,61,60,-79,-91,-20
1490743745810,-37,42,3,-21,6,23,16,-3,28,-2,-8,-8,11,13,29,19
1490743745860,29,11,7,18,10,41,18,57,-67,-4,14,21,46,-4,-4,-3
1490743745908,-82,15,15,-9,-35,-91,-90,-35,127,23,-2,49,-6,-18,-33,-2
1490743745956,57,-60,8,26,42,8,-18,-17,60,25,-2,-11,-55,15,-2,37
1490743745958,42,-71,-11,-79,-58,-82,42,38,-118,-42,-5,-13,-52,-29,-69,-61
1490743746005,-48,-74,-20,-50,-105,-39,-65,-48,69,68,-32,15,69,-4,17,7
1490743746054,-79,85,20,118,92,119,-66,-18,32,11,-13,8,-49,-11,127,12
1490743746103,69,70,-35,-71,-128,-73,-57,63,-123,-59,-57,-47,93,-49,-118,-119
1490743746152,19,113,42,35,-112,85,62,45,15,-82,7,-57,127,-20,-20,-4
1490743746200,127,20,39,102,101,127,127,96,-9,53,71,110,8,-13,-125,6
1490743746202,-113,-101,0,-29,127,40,-108,-114,127,77,49,103,88,72,-30,122
1490743746249,-12,-85,-51,-126,-112,4,-2,-27,-72,-128,-60,-46,-67,44,22,-47
1490743746298,-103,-60,-5,-27,-79,-75,119,56,70,17,1,-46,-61,65,-128,-79
1490743746347,-40,-55,-3,90,127,37,-17,76,1,4,56,80,-70,-118,6,28
1490743746394,33,-66,-31,35,92,-64,-15,81,32,106,60,-52,-11,21,34,-31
1490743746396,84,80,45,53,47,27,41,64,-82,-116,13,31,-36,-61,-54,-80
1490743746444,32,-44,-39,-125,-128,-23,-29,45,17,-25,17,10,100,36,-38,-12
1490743746493,-44,-59,-6,-128,-8,-75,107,33,-16,-2,-17,29,127,100,-128,-115
1490743746541,-10,-15,32,30,-126,-98,-99,-87,71,7,-5,31,127,34,48,26
1490743746590,-35,-65,-20,-16,-74,-69,-33,-33,15,118,12,-59,-9,120,29,4
1490743746638,-42,-53,40,50,-128,90,-14,-4,-115,-57,-74,-88,-80,-53,-39,-32
1490743746639,-68,-26,6,97,127,92,61,27,50,-57,47,110,-128,-25,12,-5
1490743746688,17,19,34,111,-55,40,3,-2,-29,61,7,-61,-78,6,24,31
1490743746737,76,-11,-8,99,121,-16,-3,45,-54,30,-16,-86,76,-7,-91,-22
1490743746786,35,-7,-41,-60,101,37,127,13,-48,11,104,127,127,-3,-61,-39
1490743746836,33,5,29,-78,-127,-10,-23,17,-18,15,-12,-4,-31,9,87,26
1490743746837,-20,-4,6,50,80,13,-6,-24,35,-1,-6,-72,-57,52,51,33
1490743746884,48,0,21,-30,127,74,63,14,-5,5,17,110,-93,38,21,17
1490743746932,-16,-4,-22,-17,-29,9,-36,-34,-7,12,13,66,125,127,63,18
1490743746980,-16,1,85,86,-106,-117,-91,-43,-24,-4,-47,-128,-108,37,26,26
1490743747029,-5,-3,11,62,-22,105,-49,9,-13,2,17,86,84,-20,1,13
1490743747077,-5,2,-6,8,-96,-40,-6,0,-19,1,36,66,84,110,34,13
1490743747078,40,5,31,64,-49,-64,35,-4,-16,7,-47,-128,-128,-105,-73,-34
1490743747126,8,3,30,0,-89,-70,-27,-2,-30,8,-27,-111,-21,-128,-31,-7
1490743747175,-30,65,-28,-70,-93,96,12,0,15,17,-44,32,-30,-19,20,9
1490743747272,-45,28,-98,-46,-1,13,-1,-10,15,3,89,101,103,37,-16,-13
1490743747273,8,-115,9,83,98,104,53,15,10,-68,20,25,40,26,7,5
1490743747321,-55,-79,-45,-104,-45,-40,-13,5,-15,-124,-8,19,67,60,29,15
1490743747322,-24,-9,-20,67,-34,10,-13,-10,-12,-15,9,86,127,18,23,6
1490743747370,-87,78,-48,-73,-77,-19,-10,-10,34,-26,53,64,22,10,23,21
1490743747419,-5,-41,26,-18,-103,27,-20,-11,-27,-75,-41,-91,-47,-54,-28,-24
1490743747468,6,15,124,62,-40,-17,-35,-5,-27,-19,9,-6,-30,36,3,1
1490743747518,-71,10,-58,-102,-31,-47,15,-8,24,0,41,81,-37,-99,-18,-11
1490743747520,79,-15,-41,12,-10,1,3,9,6,23,54,-46,-5,60,6,-2
1490743747566,-45,-2,33,-77,-24,-5,1,-2,6,12,65,96,-9,16,1,-9
1490743747614,91,-5,8,-6,-1,-22,4,10,-22,-6,0,16,14,7,19,12
1490743747663,-109,9,45,49,2,8,-15,-5,112,-11,71,-11,-8,-18,-10,-5
1490743747712,13,5,-3,-3,3,24,-7,-5,-96,3,14,17,-6,16,21,10
1490743747760,-34,13,-12,12,2,8,6,0,-38,-28,-78,-10,-22,-22,-19,-11
1490743747761,8,-2,27,-3,6,-1,-4,6,-56,19,-71,11,0,6,7,7
1490743747809,-29,-61,27,-8,-10,-10,-5,-13,53,-78,3,-14,-9,-4,0,4
1490743747858,7,-17,-17,5,19,32,-2,-7,55,-44,10,-45,-7,-2,-11,-19
1490743747955,-52,-34,-14,6,15,11,15,2,80,19,-1,-35,-21,-25,-40,-10
1490743747957,-6,-28,10,22,3,13,46,-3,3,-1,10,23,55,46,46,43
1490743748005,1,-61,34,41,53,7,35,1,8,83,-13,23,-19,45,3,-13
1490743748009,-3,-102,1,42,-37,55,29,-11,-16,47,-26,-97,-39,-86,-26,-11
1490743748053,-6,-60,-3,42,127,78,23,13,-97,-105,10,-24,-66,71,48,-19
1490743748101,54,-58,14,24,-13,-24,-32,-14,-8,-65,16,16,-11,-5,9,24
1490743748150,67,105,5,-31,28,-42,-58,8,11,9,-22,41,49,26,-23,20
1490743748198,44,50,24,29,33,57,46,-1,-28,-77,6,91,57,36,2,-7
1490743748199,13,17,-8,-41,-128,-100,30,-6,49,-38,1,11,92,60,-14,2
1490743748247,71,-28,-5,-18,-23,127,38,23,29,-5,-16,-48,-55,-102,-6,10
1490743748296,-31,13,-13,16,-87,-67,15,29,-5,104,-45,-128,-117,-48,-37,-53
1490743748345,48,-62,-9,30,35,86,77,7,-13,-61,-14,-65,-66,-127,-48,-40
1490743748394,-128,-47,11,20,95,36,-15,-63,120,-104,-14,1,-17,15,61,34
1490743748491,-77,-111,-43,10,-78,39,52,3,-16,-114,19,0,-40,-20,43,4
1490743748491,112,-3,-9,20,76,-69,-24,-13,-124,-35,-14,46,-10,67,81,16
1490743748492,-14,-98,-6,-38,-87,40,-28,-50,29,-124,-7,12,14,37,-22,19
1490743748542,85,42,-33,-1,-51,17,-115,-50,31,32,-3,-26,2,-11,-2,12
1490743748589,-60,-36,20,15,-40,-25,81,4,-8,42,29,33,127,11,-126,-29
1490743748686,-41,31,0,-49,-4,12,58,-1,92,11,12,33,15,8,96,40
1490743748686,93,14,-3,-3,-21,-52,-113,-20,27,60,0,17,21,-2,-23,-14
1490743748688,64,-25,13,11,80,68,-2,-14,40,-5,11,-20,-30,38,76,49
1490743748735,37,18,6,11,-25,26,0,-11,-20,24,6,-5,17,-18,21,-24
1490743748784,-93,1,-27,17,17,40,7,12,3,-10,-30,14,-3,3,-35,-13
1490743748833,59,-24,2,-3,-26,-18,28,-4,-128,15,22,28,1,13,-46,1
1490743748881,4,-53,-34,-21,-16,17,57,13,6,-74,-34,-48,-40,0,-33,-31
1490743748883,-117,10,16,-16,-8,9,-47,11,46,-76,-7,-16,-19,-27,-15,-1
1490743748934,-80,11,-7,31,1,-37,-59,-35,-109,14,6,6,24,31,5,-35
1490743748980,-124,-18,-12,-39,-5,1,119,-17,73,51,-8,-21,-39,-42,-102,25
1490743749029,-91,-81,-1,-25,-94,-31,-17,8,-32,-26,-11,-28,4,23,27,14
1490743749077,-82,19,3,48,112,84,46,16,47,-94,19,6,-73,-48,-57,-5
1490743749126,127,2,50,96,127,78,80,51,42,116,23,127,-50,1,14,9
1490743749129,20,-110,-17,-84,37,-84,-36,44,28,-18,8,5,-25,25,-9,-3
1490743749222,33,-53,94,51,35,96,88,95,-41,81,-13,-85,78,10,-12,-23
1490743749224,-128,48,3,-70,-25,33,-87,-94,109,-80,4,28,49,65,13,49
1490743749272,-23,-78,-26,-120,-85,-128,-128,-115,88,-47,-22,-119,-94,-45,75,55
1490743749320,-7,106,4,-72,36,26,3,4,30,93,-3,-30,-60,-42,-76,43
1490743749322,-99,-61,-61,-128,-57,-71,-86,-42,-32,12,-33,35,16,35,98,0
1490743749369,-59,-81,17,-30,-27,41,53,56,77,-68,-57,50,43,-112,-17,-35
1490743749418,95,80,6,-40,-94,27,-58,28,86,77,42,-17,47,-2,-8,45
1490743749467,-36,77,-29,-8,-43,-46,-77,-81,37,-93,-57,-96,-71,-63,125,82
1490743749515,101,-108,-46,-28,-31,-15,-32,0,-123,-35,21,85,-14,-77,-92,-107
1490743749563,-66,127,54,13,-69,127,127,50,89,-64,-26,-92,-68,-122,-124,11
1490743749565,-23,-99,-94,57,85,-51,-34,-76,40,58,24,-5,-63,15,92,85
1490743749613,93,-6,-37,-17,84,-120,-128,-36,-100,-126,-51,-87,-128,-32,90,-25
1490743749662,-38,91,18,70,48,117,62,-16,-60,-1,18,3,-24,88,8,13
1490743749710,127,-36,70,116,127,-17,-21,34,-115,-66,-71,-36,-120,3,-67,-83
1490743749760,4,62,-3,-24,39,37,35,-8,41,67,56,90,3,-12,-128,-36
1490743749807,-13,15,-8,-96,20,-66,24,46,95,86,13,40,60,122,-41,-59
1490743749809,95,89,21,-11,28,89,-122,-40,-93,6,28,48,92,58,123,63
1490743749857,-1,-18,7,-7,-50,-6,-65,-69,12,-13,-12,6,17,-128,-126,-60
1490743749905,24,8,53,-16,38,69,-61,1,-1,-1,2,31,-109,-95,84,17
1490743749954,-59,1,-56,30,-60,-128,-68,-67,-2,-18,14,72,127,114,64,8
1490743750002,-4,-4,6,46,-63,-71,-4,30,18,-13,23,-3,8,89,1,-47
1490743750004,-67,0,2,54,110,67,127,42,79,-12,34,52,-75,-48,-128,-11
1490743750056,43,-10,21,62,62,111,68,58,-32,-10,-20,-28,-102,-25,-18,12
1490743750100,-31,1,-3,-7,29,-103,-106,-63,-12,2,-64,-9,87,-21,-4,-2
1490743750151,-5,2,-63,-83,-128,-127,-60,-11,-26,3,17,54,-87,115,-45,-23
1490743750198,-41,1,-27,-92,-52,-27,15,-37,-3,8,-7,-97,56,94,113,35
1490743750246,8,-8,2,-105,-128,-76,42,34,-14,0,-10,59,2,-126,-56,-36
1490743750248,30,0,1,93,57,127,72,56,5,0,109,87,79,-4,19,-4
1490743750295,13,5,21,26,-21,88,35,-4,10,-1,21,127,117,80,-22,0
1490743750344,5,-6,17,114,-8,97,70,31,14,0,-66,-128,-116,-103,-28,-6
1490743750393,10,6,-40,-43,10,-5,20,6,-24,-6,27,35,-11,-18,-23,-4
1490743750442,14,89,114,40,35,54,26,25,10,58,58,127,106,82,47,-13
1490743750490,-9,13,52,84,24,-20,-2,0,-61,90,10,-79,-100,-64,-30,-3
1490743750492,-38,24,37,47,-23,-6,-15,-3,42,2,-76,-21,-46,-26,-13,-13
1490743750540,35,-38,11,-70,-8,4,2,-2,-49,6,-22,-37,-33,-15,-8,-3
1490743750587,-48,16,-38,-36,7,3,-3,0,39,127,-36,-18,7,-1,9,12
1490743750636,-1,-50,-27,-102,-39,15,0,-8,-2,-59,-8,-59,-37,0,-14,-10
1490743750685,24,38,82,40,-25,-11,-15,-11,-39,25,54,-52,19,4,7,9
1490743750686,-79,-24,-3,-27,36,25,8,2,56,3,-7,-24,-12,9,31,45
1490743750735,31,12,-66,-66,-47,-24,-4,7,-16,16,27,39,-16,-7,-19,-15
1490743750784,32,9,-57,-98,-23,-18,16,18,46,-1,33,81,30,8,-2,17
1490743750832,108,-2,-23,21,12,10,-12,-5,-43,0,-44,-43,10,17,24,-8
1490743750880,-73,-12,-33,2,16,10,6,-9,29,9,-52,-50,-40,-16,-26,-13
1490743750928,57,9,21,-16,-32,5,-9,1,-58,-8,-77,-38,-30,-6,6,-14
1490743750930,-2,77,0,-9,-39,-10,-8,3,14,66,58,-22,-13,0,3,2
1490743750978,0,-45,28,21,7,-7,-40,-26,24,-52,0,23,9,-8,2,12
1490743751026,1,-55,-8,2,4,2,-13,1,36,18,41,48,43,43,19,10
1490743751075,-36,7,-24,-2,21,17,71,17,46,39,0,5,6,0,-13,-7
1490743751124,-14,36,5,-5,-61,0,23,-4,-30,-71,-20,-88,-67,-8,-27,-10
1490743751181,0,-6,29,29,-26,3,9,40,-3,98,-30,7,51,43,24,-29
1490743751183,35,23,22,17,-97,67,25,13,48,-6,-31,-44,-8,-25,11,5
1490743751222,-87,8,7,78,127,80,24,-19,55,-20,34,123,53,104,-34,-15
1490743751270,20,18,-1,11,-59,-36,17,-10,-59,-70,41,98,64,55,-26,-30
1490743751319,85,-21,23,-27,36,40,-15,1,9,-17,23,-6,-92,-4,27,44
1490743751367,21,-13,58,127,127,26,1,6,64,-85,-6,9,-89,59,92,40
1490743751368,-36,-114,36,76,-18,124,88,37,53,19,5,57,127,-13,-19,-1
1490743751416,88,7,9,-39,71,78,111,39,-51,-128,27,30,76,103,-5,-9
1490743751465,31,14,30,74,-49,-42,7,-28,127,24,-18,2,6,82,46,52
1490743751514,-92,-64,20,45,4,-77,-94,-72,84,-7,12,47,-8,-3,54,15
1490743751564,-17,104,23,50,63,30,-55,2,-113,-112,-2,9,-8,3,22,21
1490743751611,-128,-89,-8,-57,-24,-75,-4,-14,103,-44,-59,8,23,49,-38,-18
1490743751613,-2,-24,-29,5,59,49,52,47,-39,40,9,22,-92,-17,-104,-71
1490743751661,-123,-83,-43,-13,-72,-91,14,-60,111,20,64,38,117,-23,-50,20
1490743751709,-43,-60,15,28,-43,-69,-117,-128,94,-111,2,-14,44,97,69,89
1490743751758,19,-124,-6,-4,27,41,80,14,35,69,10,-8,33,32,13,-30
1490743751806,-98,-6,6,48,26,-19,-1,-15,9,-3,-42,-14,-50,-27,-2,-29
1490743751854,-78,19,-17,-45,-4,-3,14,21,32,107,-4,10,0,-6,-27,-40
1490743751856,-26,47,20,-3,17,7,-33,6,-47,35,0,20,43,60,46,20
1490743751904,63,5,17,-10,18,78,62,71,-19,-50,-9,-20,-3,-23,-15,-35
1490743751953,57,-7,12,12,25,12,-7,-30,-128,60,-6,10,30,35,12,-10
1490743752004,97,-80,-35,-6,-46,17,85,36,-106,-15,-11,-39,-22,-39,-33,-27
1490743752050,-50,30,1,5,-16,-33,-45,-20,88,-23,10,20,0,-1,-5,3
1490743752051,-10,-45,42,30,35,49,107,64,-106,-79,-62,-77,-74,-52,-97,-79
1490743752099,96,-46,-12,1,-59,-87,-82,-50,-58,43,31,38,64,80,66,59
1490743752147,-128,53,-29,22,71,112,-25,-34,70,3,-42,-89,-102,-86,-48,4
1490743752196,-81,102,-3,35,-68,-1,-54,-64,-41,3,-2,-55,40,88,113,64
1490743752246,7,-61,-49,-101,-98,-92,-38,51,-123,-71,-8,-69,-128,-72,-88,-42
1490743752293,36,45,-22,-104,-90,19,49,13,-70,-80,-34,-71,-48,-105,6,-23
1490743752300,-36,-64,-73,-128,-85,-63,-74,-34,-128,87,-8,-17,29,55,-79,-98
1490743752343,47,47,63,127,127,44,53,25,10,122,40,89,-17,121,-14,-14
1490743752392,-40,-64,-29,-111,-85,-90,-76,-22,59,4,16,95,127,81,127,43
1490743752440,-61,-10,47,58,58,-128,-35,-18,-87,45,15,16,-13,-42,49,42
1490743752488,112,0,32,50,127,75,3,54,-128,-48,-26,77,5,-37,-45,-99
1490743752489,50,64,-38,31,15,61,127,111,10,-45,-23,16,-84,24,-83,-77
1490743752538,-48,101,34,-10,127,103,35,-38,38,125,-21,-47,-71,101,114,66
1490743752587,-105,-128,-34,64,7,-107,-128,-128,127,29,31,-80,-37,50,77,81
1490743752636,-93,56,-9,19,32,-67,13,-22,62,67,9,26,-17,-41,20,-11
1490743752685,-31,-85,0,63,-6,28,-114,-55,-98,34,-2,12,-6,127,-35,29
1490743752733,-20,-35,-24,-20,-7,22,31,4,-28,26,-20,-20,60,-2,-17,18
1490743752734,65,-65,3,13,48,-74,-15,-39,-36,49,-12,64,-19,117,-25,18
1490743752783,-34,-3,7,-128,-40,-82,39,-11,5,-128,-20,-41,-68,-91,-41,-40
1490743752831,-23,77,-23,-48,-51,-121,-76,-53,15,-103,-26,-128,113,91,65,46
1490743752879,15,-128,21,43,-36,-128,-15,-64,8,-51,13,-79,-90,6,-52,5
1490743752928,64,36,18,-36,-23,127,107,87,-26,48,18,62,25,-20,18,-8
1490743752976,49,-10,41,127,-85,-13,-11,38,-28,21,-42,-128,-128,-47,-5,8
1490743752978,-20,12,-47,-52,-128,-55,44,6,-29,9,-7,-39,-24,127,34,17
1490743753026,73,-8,38,80,17,-81,-53,-12,-49,-6,-18,75,-105,22,-44,-72
1490743753075,-11,-2,-14,20,38,98,29,-6,9,-1,50,82,111,-50,-21,12
1490743753123,4,25,36,27,-128,-56,24,-5,56,-25,-72,-128,-49,76,98,46
1490743753171,-9,-7,-35,-35,52,46,66,15,-55,6,-6,102,124,-60,-65,-102
1490743753219,-19,-3,-19,-128,-128,-128,-127,-64,-12,12,-9,5,-18,85,36,-20
1490743753220,-46,-17,-34,-76,-48,-100,14,13,-31,4,37,-10,50,119,76,20
1490743753269,-4,-3,-13,-115,68,37,-70,-52,-32,-1,23,-30,-26,121,57,39
1490743753318,-2,2,-24,-71,-79,-39,-23,12,102,-6,-1,45,54,-28,-35,3
1490743753366,24,15,6,96,-112,-63,-47,30,20,-17,-31,-62,-32,-16,-118,-67
1490743753414,53,1,80,70,60,-58,5,28,19,3,-36,-20,42,-12,-8,-19
1490743753416,-106,21,-63,-58,-113,-47,4,-49,3,8,-17,-8,-27,75,55,25
1490743753464,-17,-7,19,-70,28,85,20,-31,36,5,-21,-128,-50,-84,-78,-7
1490743753513,-34,-6,-55,-39,15,-75,1,3,7,2,-51,-4,127,64,26,-1
1490743753562,49,-9,61,67,63,80,33,27,-111,0,-65,-60,-87,-73,-104,-78
1490743753611,-27,3,-8,9,-126,-63,-26,-2,39,2,31,-34,9,-2,-23,-1
1490743753658,-8,6,18,-63,44,58,1,-20,-1,-5,-45,17,73,-53,-73,-30
1490743753661,93,-1,-59,-106,-15,83,-83,-64,-27,-1,11,97,127,59,23,14
1490743753756,-54,-3,-9,13,-83,53,42,11,29,1,15,-78,-118,-114,-49,1
1490743753757,-31,-6,10,72,55,-28,-38,-18,-5,-4,30,120,62,110,32,2
1490743753805,100,-22,12,43,61,-30,-33,3,-41,10,-44,42,-60,59,51,21
1490743753853,-38,2,28,35,86,48,1,4,29,-10,96,127,28,98,41,20
1490743753855,16,9,72,81,-128,24,20,7,8,-13,-27,-40,-76,-96,-18,-7
1490743753903,-34,13,21,4,-67,-112,-46,-15,-44,4,-57,-10,34,13,-33,-24
1490743753952,-5,-8,18,-108,-119,-110,-44,-18,-28,12,-77,-128,-128,-99,-58,-17
1490743754000,-15,33,14,-80,-43,-44,-1,-1,59,-128,105,127,127,77,37,22
1490743754049,57,-9,-50,-62,-111,2,-9,-13,-103,36,-1,-59,-5,-77,-20,-17
1490743754145,3,-52,0,-51,-16,8,2,1,-62,3,38,-71,-30,-38,-8,-6
1490743754147,6,46,25,-13,42,52,19,18,32,-20,-84,-53,10,49,11,10
1490743754147,-51,-31,29,-51,-20,-34,-11,-6,56,-99,12,69,21,12,20,18
1490743754195,50,36,-76,-12,-16,-24,-26,-21,-113,28,-7,-97,-3,21,19,9
1490743754244,-87,44,-8,5,-47,-19,-23,-26,119,34,-13,-121,8,10,11,38
1490743754293,49,9,-54,52,7,-7,10,14,-80,24,53,35,-8,-75,-29,-18
1490743754341,-6,-17,-2,-22,-3,-1,5,7,26,15,69,1,15,20,-4,-10
1490743754343,-4,-3,-36,4,3,3,-5,-3,-9,-22,-39,46,11,9,7,0
1490743754390,-12,58,11,34,10,-11,-12,-2,12,78,-47,-35,-15,4,-3,-26
1490743754439,17,-38,53,21,1,-5,-7,-4,-37,-13,7,-30,-4,10,2,-12
1490743754488,-21,-15,-44,-14,-4,2,-2,-12,48,58,89,13,-1,10,8,30
1490743754536,-48,-22,-1,35,-2,2,4,11,-25,-21,-104,5,10,3,6,-9
1490743754539,-26,-2,21,-5,-13,-13,-2,35,-17,-10,-26,1,2,5,28,-41
1490743754586,-44,-36,-49,-43,7,6,6,34,14,-45,44,26,-11,-14,-15,-21
1490743754634,6,53,5,-26,-25,-19,-23,-86,33,26,-19,11,41,-10,-8,2
1490743754683,-23,-21,-3,-49,-85,-54,-36,-26,29,-68,-21,-15,0,-14,33,-36
1490743754779,-34,48,8,23,-35,22,-7,-10,54,27,-20,-57,-82,49,0,15
1490743754781,-55,-11,-30,12,-5,-13,19,27,64,-22,-15,11,69,-21,-30,38
1490743754782,54,-91,8,-33,-15,23,-47,15,-35,87,-8,12,-1,13,42,36
1490743754829,58,-119,35,83,60,31,55,49,16,-73,-7,-11,-26,-6,-41,5
1490743754880,-1,-89,10,37,-1,21,-2,23,49,-71,7,-46,-44,-7,5,0
1490743754927,-64,-19,10,45,61,41,88,30,81,10,-4,-20,-34,-4,-66,-17
1490743754974,63,28,1,7,65,2,22,42,-87,106,25,40,40,56,5,-20
1490743754976,-128,-18,-7,-37,-39,-23,2,-47,55,55,-17,-4,16,23,34,21
1490743755024,-93,-120,19,39,49,81,-58,30,49,-128,-14,-10,18,-56,-61,-46
1490743755073,-37,88,15,43,38,15,5,-49,71,92,14,31,27,-26,-54,48
1490743755121,-7,7,11,-81,-56,15,88,34,-80,-2,-16,-22,-4,-58,6,-8
1490743755171,26,-79,-1,5,-21,-96,-55,12,24,-69,15,11,40,42,60,3
1490743755218,-67,8,-1,81,99,79,-33,-41,-101,26,2,-9,-49,-124,-77,-87
1490743755220,-16,-92,-24,-32,1,-61,-13,-2,-72,-74,-2,-15,-39,-120,-103,-42
1490743755268,92,36,15,24,89,-1,34,48,-53,22,-1,23,-34,43,27,4
1490743755317,48,-17,-15,-16,-30,68,96,-5,120,25,15,9,-16,-20,16,91
1490743755365,35,-4,6,-6,10,-12,31,37,7,-30,7,20,22,-20,-17,6
1490743755414,17,59,30,18,8,-8,28,16,17,121,-35,-40,23,13,-10,-7
1490743755462,-13,-94,-21,-56,-53,-2,8,-1,-67,-59,-9,-24,-18,-62,-72,-40
1490743755464,-103,9,-23,-34,18,10,-21,-28,127,35,50,83,21,5,-13,0
1490743755512,-13,45,16,-35,-19,-55,-64,-20,-93,-9,-20,-58,2,51,38,8
1490743755562,-62,-16,2,0,-16,-74,-94,-51,82,-68,-12,20,31,56,101,55
1490743755609,44,-36,-3,-6,-31,32,-10,0,48,-7,3,3,-8,17,58,40
1490743755657,121,-47,1,6,8,26,50,3,-32,39,36,51,7,-21,-52,-37
1490743755658,-56,-18,-9,-16,-64,-31,-55,-30,36,-7,5,4,81,0,-29,-11
1490743755707,121,-12,21,30,12,9,50,53,-128,-26,2,16,55,32,15,-18
1490743755755,-22,91,26,12,45,3,-1,4,-1,8,-10,57,83,35,-25,19
1490743755804,13,-55,-77,-128,-101,-63,-19,-4,-4,-69,-31,-58,-62,-46,-52,-28
1490743755853,31,-42,36,119,15,-34,9,23,7,127,62,127,127,37,-9,3
1490743755901,-8,83,-17,-46,-22,19,5,-57,107,-86,-40,29,-61,-123,87,70
1490743755902,65,39,2,40,21,72,86,29,-42,89,1,61,44,114,-111,-59
1490743755952,-74,-71,22,20,-39,-48,24,71,103,-45,-2,-67,61,120,127,65
1490743755999,5,88,-15,-73,-128,-71,42,32,120,-36,-31,-66,31,-42,1,62
1490743756048,-128,16,-7,92,115,102,81,40,96,76,26,-12,-58,91,-29,-42
1490743756097,90,0,0,-84,-68,50,-55,-12,71,-115,6,11,-60,-128,19,14
1490743756145,-9,-16,-20,109,-24,-62,70,14,-57,67,-11,-83,-91,80,32,-86
1490743756146,-128,-128,-8,21,0,-82,19,-41,104,39,29,56,103,119,-30,29
1490743756194,44,83,-47,-85,-94,125,5,-73,-35,-15,42,0,-91,18,-9,51
1490743756243,49,-104,-46,-81,93,-33,-60,-80,-79,50,-40,-83,-51,-42,22,6
1490743756293,-7,-33,-26,28,-3,74,40,4,-128,-58,-11,-42,115,-44,-65,-17
1490743756340,42,-48,5,-52,-121,-112,-87,-25,-43,80,-76,-48,70,127,127,-5
1490743756341,-48,34,49,-52,-114,104,12,-4,-5,29,-5,-43,50,-88,-89,-12
1490743756389,-77,-33,-58,26,-78,-128,9,-36,76,7,10,-53,-128,105,-38,11
1490743756438,-28,51,-59,24,33,77,54,1,-56,46,80,92,61,127,78,84
1490743756487,-67,73,19,-36,-66,-101,-13,-45,72,11,-49,-71,-35,82,45,21
1490743756535,23,-13,60,105,51,-8,32,-16,15,-12,-43,-59,-113,-40,17,13
1490743756583,-108,-38,-2,64,-79,-46,-122,-75,85,-22,40,0,-73,-106,-26,27
1490743756632,-10,16,-14,-95,50,77,27,31,-25,-34,11,50,-2,0,78,30
1490743756633,88,52,37,98,-35,-28,16,16,41,8,-1,-85,74,-31,39,39
1490743756682,18,-10,4,93,22,82,4,78,-103,23,20,85,-24,-89,-47,-96
1490743756731,28,18,56,-2,39,24,-14,2,-87,-23,16,78,58,-11,-46,-23
1490743756779,-4,12,-17,66,33,-78,11,14,-4,7,-27,-104,8,70,96,27
1490743756827,18,12,13,9,-77,-7,-103,13,20,-40,-47,-120,-106,-37,46,35
1490743756828,83,-6,-40,-113,-111,-25,79,12,-96,-6,15,-57,26,126,-65,43
1490743756876,-90,-9,-2,-48,29,-128,-128,-18,-13,12,34,113,-104,33,91,19
1490743756925,68,-13,4,-81,-92,94,57,43,75,-1,35,106,126,6,-19,10
1490743756974,18,-32,67,103,98,-86,33,34,-81,9,23,-1,7,88,20,8
1490743757023,72,-15,-47,-68,19,-63,-55,-20,48,-7,-3,-65,-110,32,-75,-75
1490743757026,-101,-2,-53,-36,-114,-34,-29,-11,-88,27,-28,-58,-8,73,98,32
1490743757073,-71,-78,-35,43,41,114,114,-15,103,85,46,47,30,25,-17,30
1490743757121,-13,-13,35,-20,42,-7,-9,10,-55,-19,37,75,83,95,97,45
1490743757170,-42,104,17,63,44,108,127,58,63,-40,-2,-20,41,-128,-128,-75
1490743757218,-8,-70,18,22,-122,-116,73,-16,98,-112,-80,-64,29,27,-32,-8
1490743757266,-128,-9,4,72,78,-1,-20,-52,27,-6,33,13,-27,35,127,78
1490743757268,-29,-89,34,-7,127,-33,-15,28,23,65,-27,61,-31,127,84,35
1490743757315,116,123,40,-62,-128,23,14,17,37,-10,4,-78,-80,-90,-34,17
1490743757364,1,21,-32,-69,-54,-44,-71,-25,-27,12,-39,-30,58,48,71,10
1490743757412,5,108,38,44,-19,20,-101,-55,57,43,15,-1,-50,-70,81,68
1490743757461,42,32,-9,76,6,4,-8,-18,-24,7,-18,-32,-26,-38,17,1
1490743757510,23,49,14,54,57,31,27,23,85,-81,-21,57,5,37,47,43
1490743757511,-128,-11,0,14,27,25,-24,-49,127,-1,59,127,67,67,32,76
1490743757559,66,41,33,-2,-47,16,43,44,-29,32,-17,-37,-57,122,-16,-21
1490743757607,19,-17,24,75,104,-10,8,6,7,-7,-26,-33,-37,-44,-35,-16
1490743757656,16,-22,-6,-10,31,-14,13,11,-81,-51,-4,1,-23,96,-44,5
1490743757705,-97,-45,-46,-74,-46,-7,15,-10,-52,49,20,12,-17,-25,4,-26
1490743757706,-109,-16,16,-16,-18,55,44,17,-2,-14,-14,27,69,12,18,-15
1490743757754,-100,-28,-11,7,-2,-10,-14,-17,-52,41,3,-5,-26,22,37,9
1490743757804,71,-30,-5,-28,-5,-30,-15,-1,-26,51,-3,22,7,1,-9,2
1490743757851,-92,-63,-15,-34,5,-123,-93,-38,69,-5,3,-9,-32,47,23,4
1490743757900,58,-19,4,-2,9,13,20,26,-72,-2,-5,22,-12,-56,-69,-42
1490743757948,-40,-2,-10,-10,-1,27,19,14,73,-52,-25,-54,-22,3,28,1
1490743757997,-2,-3,-3,-10,-2,-1,-10,-2,-6,-41,-12,-6,9,-2,6,-8
1490743757999,18,104,-1,22,-19,-38,-21,-27,-14,86,-25,-105,-16,4,42,16
1490743758046,-21,27,-8,-56,-21,-10,-13,-5,11,13,6,8,-7,13,11,7
1490743758095,-3,-43,-20,-28,4,-1,19,5,-7,22,30,28,7,2,-4,1
1490743758149,-28,23,-3,-17,8,5,6,1,-17,5,-18,21,16,10,3,-1
1490743758151,25,-34,-8,14,5,-1,5,-2,-4,-77,17,2,-9,-5,-2,4
1490743758193,32,-9,17,11,6,-5,-10,7,19,-106,25,11,4,6,3,5
1490743758242,42,-34,3,-28,8,59,44,40,-42,-57,7,61,-4,10,11,-9
1490743758290,-36,-19,-9,-30,-7,-12,-8,-10,5,0,-1,-34,-5,-2,7,1
1490743758339,-19,7,5,23,1,-8,1,-10,-26,26,-16,2,-5,-11,-30,-7
1490743758387,8,33,-25,-27,-9,-16,-25,-18,-7,30,-3,12,13,14,22,1
1490743758390,-21,-48,0,-42,-11,-14,-9,-2,28,-77,-27,-11,-5,-17,-9,2
1490743758440,44,57,56,87,15,15,6,1,-98,-3,-5,-47,6,8,12,20
1490743758488,-26,-1,0,-5,-3,-2,-14,-6,22,16,7,39,-4,-5,-17,-12
1490743758534,-43,-3,-60,6,-2,8,2,-1,2,99,51,-7,-7,9,0,12
1490743758582,-11,25,42,-16,-3,5,3,-6,32,108,7,-33,-2,-2,-8,-2
1490743758630,-29,-10,-68,-74,-20,-2,3,-13,19,-1,32,-87,-12,-7,-1,7
1490743758632,-5,8,-14,-1,20,-16,-1,-2,-2,11,-28,-4,14,-47,-1,4
1490743758680,-2,7,-12,-17,-3,-4,5,1,0,-3,-6,0,-3,9,1,-5
1490743758730,9,-23,5,3,-4,-5,-4,3,2,13,-19,2,-1,7,1,-4
1490743758778,-4,-5,-23,-13,0,1,-1,3,-5,-7,3,0,-2,0,-3,0
1490743758826,-2,-20,-6,1,-1,2,-2,-3,-3,-2,-3,7,-2,4,-2,-5
1490743758827,-7,-17,-3,0,4,0,-2,-5,2,-9,6,-2,0,-3,2,4
1490743758875,-2,8,-3,3,-7,1,-1,-1,-3,-1,2,7,-3,-2,1,-1
1490743758924,-3,13,-2,-1,3,-1,1,0,-1,0,0,4,0,-1,-2,5
1490743758973,6,2,-1,-1,-1,-1,3,16,-3,8,2,-5,1,0,-4,-9
1490743759021,-2,-2,0,2,0,-2,5,3,0,0,0,1,1,0,1,-3
1490743759070,-4,-1,6,2,3,-2,-6,-15,5,-1,1,-6,-2,-2,1,-1
1490743759074,-3,0,6,-3,-3,1,2,4,1,-6,5,3,-4,-2,-3,-8
1490743759121,3,-2,-4,0,1,-1,0,-2,0,-1,-3,-1,4,5,-4,-2
1490743759169,-11,1,-4,1,-4,-6,1,-1,12,-1,-4,-2,-5,-3,1,-4
1490743759217,-6,-2,3,6,-4,-2,-2,-1,8,3,2,-2,-2,-3,-1,4
1490743759265,-4,0,0,3,-2,2,0,8,-4,-2,4,2,0,3,3,-21
1490743759313,0,-14,-5,-4,0,-7,-2,-8,4,-29,3,-2,-2,-7,-3,2
1490743759314,2,-1,0,-7,0,-1,0,-1,0,11,3,1,1,0,0,2
1490743759363,0,-13,-4,-5,-3,-3,-1,-3,-1,-10,-5,0,-5,0,1,0
1490743759459,-3,-10,1,-1,0,-7,-4,1,-3,7,-4,0,-2,-5,-1,-11
1490743759461,1,-1,1,-1,-2,-6,-7,-3,-4,4,2,-4,-2,-5,-7,4
1490743759509,0,3,-1,-1,-4,0,2,0,3,-2,-4,-1,-2,-1,-2,1
1490743759511,-1,1,6,-2,2,0,2,4,4,-3,3,4,2,-2,-3,-1
1490743759558,1,-7,3,-4,-3,-8,-2,1,0,-3,-4,-2,3,-7,-3,1
1490743759607,-1,2,2,1,1,-6,1,1,-2,3,-1,0,-3,-3,2,1
1490743759655,-4,-4,0,-3,0,4,1,0,-3,-4,-5,-4,1,0,0,-1
1490743759704,-1,2,-6,-2,2,6,1,-1,1,5,-3,3,-3,3,0,-1
1490743759752,-2,-7,-1,1,-8,3,2,-2,-5,-2,4,0,-1,1,0,-1
1490743759754,0,0,7,0,-4,-2,3,1,0,-4,-4,2,1,3,2,2
1490743759801,1,6,3,-2,-3,2,-1,0,1,-3,-2,-7,1,4,-1,-1
1490743759850,1,2,0,-6,0,-1,2,-2,-2,-2,2,-4,-5,-2,-3,0
1490743759899,3,2,8,3,-1,-2,1,-1,-2,-1,-2,-3,-3,-7,0,1
1490743759948,-1,-1,-3,-2,0,2,-3,-2,-3,-1,1,5,3,4,-3,0
1490743759995,-1,2,1,-1,-3,1,-10,1,1,-1,-1,1,1,2,-2,0
1490743759997,-1,-1,1,0,0,-2,2,4,-4,-2,0,-1,-4,-5,-1,2
1490743760045,0,3,-8,-7,1,-1,-3,-4,-1,3,-9,-6,2,-1,-4,-3
1490743760094,1,-4,0,-3,1,1,-4,1,-1,-2,-3,-1,-1,-4,-1,-1
1490743760191,-2,2,1,-2,1,-2,0,-1,1,0,6,-1,1,3,0,-1
1490743760192,0,-3,0,-3,-1,-2,1,-3,1,-2,2,0,0,-2,1,-2
1490743760193,-3,-5,3,7,-2,-6,-2,-1,-1,-1,-3,6,2,-2,-5,-3
1490743760240,-3,0,-2,-2,-1,-5,3,-1,-1,0,1,-1,1,0,-3,1
1490743760289,-1,2,-2,-6,1,-5,-5,-2,-3,3,5,1,1,-2,1,-2
1490743760338,-4,0,-3,-2,-1,-5,1,-2,-2,0,4,3,4,-4,0,-5
1490743760386,3,-1,-2,0,1,-2,0,-1,-1,2,-3,-5,4,3,0,1
1490743760434,-1,3,-6,-9,-14,-10,-21,-12,0,0,0,-11,8,-7,-3,0
1490743760436,-4,-1,-9,-40,-32,-17,-2,0,1,-6,-9,-15,-26,-9,-12,-1
1490743760484,0,21,-3,-5,-4,1,0,3,2,27,14,6,6,4,4,2
1490743760535,-4,3,-5,-3,4,19,5,0,-4,-7,-4,4,-16,-35,-13,-14
1490743760581,-2,15,23,1,-13,-7,1,1,-4,-5,-21,-7,-6,1,-4,0
1490743760629,1,-14,-20,-1,-11,-20,-9,-4,-5,-3,-7,0,11,7,-1,-8
1490743760631,2,23,25,11,-8,7,8,2,2,21,-29,-2,-3,-31,-11,-2
1490743760679,-6,-57,-54,-25,-3,-11,-3,-3,1,-4,48,9,4,-8,-4,1
1490743760727,-7,-116,0,10,-3,-6,-13,-7,0,-10,1,8,-2,-10,1,-1
1490743760776,-1,-11,-48,-32,-8,-2,-2,-1,-1,3,67,34,-2,0,-4,-6
1490743760825,3,23,18,25,7,0,-2,2,1,18,-34,-28,-5,-2,1,0
1490743760922,-2,10,1,-2,-3,-5,3,-3,-2,12,-27,-7,-2,1,1,-2
1490743760924,-4,-8,19,-10,2,1,-1,-1,0,-5,-4,8,-2,1,2,-3
1490743760925,3,-3,-3,10,9,0,3,1,-5,-6,7,-24,-7,-7,-1,-6
1490743760973,1,21,29,8,0,3,3,3,-2,4,-1,-9,-3,-5,1,1
1490743761020,-2,10,-31,-35,-2,-1,-2,-3,0,-7,38,30,6,-1,-2,-1
1490743761069,-3,35,64,34,-3,-4,-2,1,0,20,10,-20,-8,6,1,5
