1490228635163,16,17,-28,-43,28,-79,30,-15,-17,-23,5,-5,-24,23,-18,3
1490228635274,-35,-11,3,3,1,22,27,14,44,15,2,-13,-21,-51,-15,8
1490228635276,36,3,5,12,6,19,-27,21,-42,-9,-4,-17,-16,15,5,-23
1490228635276,17,-3,-5,-25,-10,0,-9,-3,5,5,-1,10,4,-1,16,0
1490228635310,-11,3,5,-7,-4,29,6,-5,-7,1,4,3,-4,20,16,3
1490228635358,-9,-4,5,38,10,-13,-6,-6,6,-1,-5,-21,-8,-14,-10,6
1490228635407,4,-3,7,19,20,-4,3,1,2,5,0,21,37,7,-3,8
1490228635455,4,3,-7,-13,-21,-10,-1,-1,-9,-16,-8,-1,4,-10,-15,-3
1490228635456,-9,6,9,-1,-9,7,-4,-11,-2,3,3,-6,-20,-27,-14,-9
1490228635505,-2,-10,-8,-24,-16,-14,4,-1,0,6,7,-1,-4,-1,-1,2
1490228635553,27,8,2,-5,-13,13,0,-2,33,5,2,-5,-3,-22,7,4
1490228635602,-27,-6,-4,-8,-8,-20,-5,13,-11,6,3,5,5,19,-2,-10
1490228635650,-23,-5,-2,0,4,0,3,1,-18,4,3,-2,-18,-23,4,-9
1490228635651,34,10,5,-5,-4,-9,1,28,8,-2,-7,-9,-13,4,-8,-9
1490228635699,17,0,-2,-4,-6,-6,11,17,-31,-6,2,-1,3,2,-20,-25
1490228635748,21,5,1,3,2,9,19,16,6,3,5,8,12,22,21,0
1490228635797,-9,0,1,-1,1,35,4,-8,-23,-13,-3,-11,-16,-43,-11,-4
1490228635894,-9,-8,-1,1,2,4,5,2,-11,0,-8,-1,-7,5,5,6
1490228635895,25,9,2,-2,6,13,2,-18,-23,-9,-1,2,5,20,13,17
1490228635896,13,-9,0,8,7,1,-6,16,-25,-7,4,3,-1,-6,12,-23
1490228635943,-49,-7,-1,3,1,6,-38,-9,-19,-8,-5,-4,-8,-25,0,-17
1490228635992,28,7,-2,3,11,-14,40,4,-33,9,1,-3,-5,21,-12,0
1490228636041,-8,18,7,23,-7,5,-13,-2,100,-6,-23,-19,-4,11,-7,-6
1490228636089,-48,-20,12,2,-16,-25,9,15,-19,-4,-18,15,11,20,-8,2
1490228636137,-9,26,66,9,-6,-19,-14,20,-8,-21,-47,3,-12,-20,-10,-38
1490228636139,24,1,4,-31,-4,32,24,3,16,-13,-27,50,-1,-22,-27,2
1490228636187,69,17,67,45,1,-16,-22,8,-122,-34,4,44,25,1,-4,-44
1490228636235,-25,18,-20,-62,-15,-21,-32,11,8,5,5,-17,2,3,-26,-19
1490228636284,89,14,5,37,7,11,5,2,-41,-32,45,18,2,-6,3,-13
1490228636332,56,43,86,61,1,3,31,-27,25,45,-53,-9,17,7,29,7
1490228636334,89,-68,-12,48,12,-10,-1,17,-45,2,-40,-13,0,-10,-28,-20
1490228636430,50,-39,-128,53,-16,-19,18,46,-34,14,-17,-107,-19,14,-7,-60
1490228636433,44,-81,11,23,-2,-14,-37,16,119,31,-27,-16,-15,-3,23,8
1490228636479,-90,-63,-91,-65,-24,-24,14,-23,93,61,31,-38,-22,-22,-14,-8
1490228636528,127,-35,-70,-39,15,-1,-24,4,-116,-36,47,-31,-10,6,-4,11
1490228636576,127,71,17,-128,-44,6,-59,-82,-1,8,48,-2,-1,-13,36,36
1490228636578,66,26,127,-14,-6,-32,-14,-27,51,73,-128,-13,-17,-1,-19,38
1490228636625,-81,74,-37,116,28,15,27,-39,-30,-111,-32,-47,-29,-49,-15,-18
1490228636675,104,92,105,94,0,-14,11,6,-17,-13,-60,-10,42,25,22,-6
1490228636771,50,23,3,-36,-2,7,17,-5,-59,-90,-128,-37,-40,-3,11,36
1490228636772,-20,-111,-85,-84,-15,-3,-12,9,13,13,88,36,13,11,-9,-8
1490228636774,-1,-15,-51,-33,-41,11,15,13,-10,22,-28,-20,-6,-9,-2,2
1490228636820,-25,35,1,-15,-36,-57,-23,-15,19,-2,9,-64,-26,20,18,-3
1490228636917,-35,34,49,71,-2,-6,17,1,-56,-61,-30,-34,-6,12,-16,-11
1490228636966,-19,12,25,91,-1,-2,-21,-3,44,1,-49,-78,16,6,1,1
1490228636968,-19,-77,-112,-50,18,12,-14,2,-6,17,81,40,21,-7,3,7
1490228637015,5,-25,-36,-78,-39,-21,-5,-2,35,28,-14,-25,-45,36,-4,2
1490228637017,-6,7,18,-11,20,22,17,-5,10,9,-42,-22,-12,19,-4,2
1490228637064,5,18,29,-20,-5,1,23,10,15,13,-6,21,1,33,8,4
1490228637113,-11,-2,3,19,42,-23,10,12,17,10,5,-24,-16,-23,-10,1
1490228637162,-1,-2,2,-34,-65,-31,-32,-2,10,2,-3,19,45,-5,-9,-3
1490228637210,-8,-1,-1,16,-37,-14,21,2,10,8,-1,1,7,8,-15,0
1490228637259,-19,8,-4,-11,28,1,-7,-16,7,14,-4,1,-26,7,20,0
1490228637261,-1,-7,-26,-38,3,-11,-30,-3,16,3,7,21,21,-4,9,-2
1490228637308,19,7,12,9,-64,-20,8,24,-26,-7,5,-17,-20,-22,-29,-14
1490228637357,4,-22,0,40,-1,-15,-32,4,-2,-32,-8,19,45,-10,3,13
1490228637406,14,-10,6,-11,-64,5,28,0,3,-8,6,9,50,17,-56,4
1490228637454,-7,-7,-12,-27,16,-7,20,8,-1,3,4,12,-24,48,16,-2
1490228637455,-2,8,-8,-12,22,-7,-46,-2,13,18,-5,2,-28,19,-9,-1
1490228637503,1,11,5,6,16,10,28,1,3,9,7,-3,-29,-16,10,1
1490228637552,10,9,4,27,28,7,-15,3,-8,3,-1,-1,-6,51,2,-3
1490228637601,-8,-9,-13,-32,-11,-31,-36,-10,-10,-5,-4,-8,-3,-32,41,-6
1490228637650,-1,10,-2,1,24,55,27,25,10,-6,-15,-30,-27,22,3,-23
1490228637697,65,-12,8,1,-46,-56,-5,12,-9,2,-20,-3,15,-42,3,19
1490228637699,-31,-45,-13,-11,25,-2,-8,-74,-34,11,16,11,23,-9,-16,3
1490228637747,4,-5,-48,-40,-24,12,6,13,-24,3,4,14,7,-17,-8,-22
1490228637795,8,-4,-11,-2,0,4,3,13,31,-8,11,6,4,22,-15,11
1490228637844,17,-3,-7,6,18,-5,-5,10,46,32,29,31,7,3,36,12
1490228637893,14,12,-21,-12,-15,-8,-14,-11,-66,-42,-17,-21,-8,13,9,-4
1490228637941,26,-50,9,-4,-3,1,4,18,37,54,44,27,9,7,10,-7
1490228637942,-52,4,24,-17,-12,9,4,-17,10,4,-12,12,-12,-5,-6,5
1490228637990,32,13,34,14,3,-2,1,-12,-94,-5,-19,8,3,1,12,0
1490228638040,-47,-4,8,-45,-14,-19,19,32,37,42,13,14,13,22,-24,-35
1490228638137,16,13,-14,-20,-11,-11,-2,-25,3,-2,-28,-37,-21,-32,3,-2
1490228638139,73,24,12,11,4,-4,6,14,53,18,-13,-8,-4,-5,1,6
1490228638140,8,-6,-20,-14,-6,20,5,5,26,1,11,-22,-19,-23,-18,-9
1490228638235,3,20,30,30,8,1,14,3,0,-14,5,12,3,14,12,30
1490228638238,1,7,-7,7,-6,3,6,-5,-13,-31,-29,-12,-5,-6,-7,-5
1490228638283,0,-6,-14,-5,-2,-16,-10,-15,-25,-4,1,0,0,-1,-28,-6
1490228638333,13,-2,-9,-15,-15,-14,7,3,-3,-6,-6,12,3,16,-2,-2
1490228638381,-21,1,-3,-3,-6,-5,11,-1,10,11,-1,4,-4,-17,-18,-1
1490228638384,11,5,1,23,23,12,13,2,-24,-14,-3,-5,0,-3,-6,3
1490228638430,0,12,10,9,7,21,1,-6,16,17,5,-3,2,-7,2,8
1490228638478,30,0,0,-3,-4,9,15,4,4,4,4,0,3,6,-4,-3
1490228638527,-40,-35,-1,-1,-6,-16,-4,-6,59,8,8,-4,-3,-37,-6,0
1490228638576,5,20,4,-14,-3,-7,-7,4,-35,-3,-32,-18,-10,-21,-21,-18
1490228638624,-38,-8,14,-3,-8,-14,-20,-19,68,13,19,-1,0,8,16,33
1490228638626,15,35,17,9,9,36,-6,-11,51,32,-3,11,5,0,6,-1
1490228638674,-3,16,9,-10,-4,3,2,-6,49,12,2,-31,-12,0,-6,6
1490228638722,54,-5,4,-22,-16,-10,10,16,-102,-8,27,-5,9,18,18,4
1490228638771,-85,-21,-8,-64,-20,-17,-36,-23,127,85,2,13,-17,-19,-7,16
1490228638819,-73,-116,-9,6,1,-23,-1,-11,-77,-37,42,20,11,7,-7,-38
1490228638822,87,62,34,27,20,9,-1,2,-107,-46,-90,-14,-20,-4,-21,5
1490228638917,31,-6,-74,-46,3,7,-3,-25,-20,-72,-16,48,-25,-19,2,-9
1490228638919,-68,-51,-109,-15,-10,3,7,-2,-44,18,-8,-47,3,-3,-2,-77
1490228638965,-125,80,121,54,34,27,63,-14,2,-42,127,127,31,23,12,67
1490228639015,12,26,83,64,-2,1,-43,52,-92,71,-39,-1,67,25,63,-92
1490228639062,-2,28,72,-106,-19,7,15,-4,-26,54,-32,-39,-58,-2,-8,-2
1490228639064,26,2,127,127,56,7,7,14,-10,61,-14,-42,-20,-6,-2,9
1490228639112,11,27,-21,-128,-28,1,-14,-11,40,39,127,127,66,21,29,-3
1490228639162,-13,-97,-125,-84,-24,10,12,-24,91,-15,24,-128,-69,-29,-38,4
1490228639210,109,19,127,48,-1,-13,-7,80,18,66,35,-3,-20,2,-23,-19
1490228639260,3,54,48,95,5,26,-22,19,-19,-44,-73,-77,-15,-12,17,-21
1490228639261,-37,-3,-18,-128,-63,-13,-16,-21,18,-52,-35,-49,18,-16,-7,30
1490228639307,-48,-65,-114,-48,-42,-25,5,-12,37,53,48,-54,11,-11,-14,3
1490228639355,-4,28,58,-10,-14,-3,11,-15,-37,-71,-43,-10,-6,15,13,-11
1490228639404,68,24,24,90,-23,-13,-11,7,-65,20,56,29,84,30,18,9
1490228639453,42,23,18,18,14,7,12,1,33,82,106,95,24,7,3,7
1490228639501,-5,7,42,24,-37,-5,6,-8,-11,-31,-69,14,56,7,-20,-13
1490228639503,-14,-21,-5,-34,22,-2,19,2,-1,-4,-36,3,-30,12,13,2
1490228639551,8,-5,-30,10,24,0,-9,11,-1,-1,10,-10,-48,-15,9,-3
1490228639599,-11,-13,-32,-32,-9,3,0,-8,-8,3,10,54,-11,-18,5,-10
1490228639648,18,-2,-11,-12,-13,0,-1,8,-3,5,7,10,45,40,4,-3
1490228639697,-17,-4,-8,-36,-29,16,39,4,11,13,9,-25,-8,-7,-7,1
1490228639745,-10,6,7,31,5,-11,-35,-18,3,-1,1,0,7,28,-14,-4
1490228639747,5,17,5,-48,-24,3,6,-5,-5,5,18,36,5,-6,-26,-7
1490228639795,5,-36,4,27,-49,-63,2,-10,21,-21,21,74,11,-63,-11,8
1490228639845,8,-11,-17,-21,50,58,-4,9,1,-20,-4,15,54,60,-16,8
1490228639892,1,-10,-12,-19,18,3,-18,8,-7,-21,-7,-9,-9,8,3,-3
1490228639940,-5,3,12,16,-62,1,-31,1,27,12,3,30,29,1,35,5
1490228639942,-6,13,0,-8,-2,-2,21,-3,2,9,-3,1,-7,-3,29,-4
1490228640037,3,21,3,-17,-4,-2,-19,1,7,25,7,30,-42,1,-7,9
1490228640041,6,5,16,34,-27,-1,-13,0,13,3,-2,-10,-17,0,17,13
1490228640088,-7,-10,-10,-44,-10,127,9,-7,-3,-2,6,5,-10,14,-21,-9
1490228640135,-1,-3,-10,-1,15,104,14,1,12,28,1,-19,-21,49,-23,1
1490228640186,-8,-3,-3,-18,-13,-128,-18,-10,10,11,-2,10,13,-106,0,-8
1490228640187,-19,-24,-9,4,5,-33,-6,-24,59,18,-1,-1,-17,-7,13,-11
1490228640233,-11,-10,2,13,31,-8,45,-12,-110,15,32,36,23,2,7,2
1490228640282,30,6,-15,-7,-4,-49,-2,14,-5,-35,-26,-21,-10,-58,-17,-17
1490228640331,-23,15,-14,-5,21,8,-15,-18,-15,-4,-21,-46,-45,2,-26,-1
1490228640379,-105,-85,-19,-20,-9,-3,-35,-14,37,50,-7,12,18,4,-15,26
1490228640428,3,-26,-10,1,-41,-35,14,5,49,-35,-13,38,53,-24,-4,6
1490228640476,-20,-11,12,-10,-8,-27,-15,-21,-2,20,3,-17,-6,19,54,24
1490228640478,-12,30,1,5,-12,-13,2,26,-60,1,31,30,39,55,-7,-21
1490228640526,35,24,4,8,9,-2,7,-15,49,-4,49,6,-19,-17,-25,20
1490228640574,-50,-8,-31,-28,11,41,0,-50,13,-28,10,-11,-19,-40,5,-1
1490228640622,-38,-3,-18,70,43,-2,11,4,-7,-7,6,-17,-16,9,5,2
1490228640624,-30,-53,-8,-28,-13,3,2,-9,-25,6,-4,-6,-14,-18,10,4
1490228640672,27,18,7,15,11,-7,1,-3,-37,-18,-4,-6,-15,9,7,-15
1490228640720,61,50,-5,-38,-42,-12,5,31,-35,-8,-4,-4,12,-5,-23,-20
1490228640769,-23,4,8,14,3,-2,2,7,53,12,0,-8,-10,12,-6,-1
1490228640818,75,-1,0,-9,-18,-31,-13,-9,-65,7,0,-26,-10,-7,7,0
1490228640866,28,16,5,-4,0,8,4,2,2,-4,0,3,5,-3,-18,-6
1490228640867,-48,-20,0,10,3,9,10,3,-4,5,9,4,9,24,-6,3
1490228640963,-2,17,6,7,11,18,22,9,28,1,-4,1,-7,-7,-6,-8
1490228640965,-6,-37,1,-13,-9,-21,-5,-9,3,-16,2,1,7,23,0,11
1490228641021,29,11,-2,2,-1,-3,4,16,-19,-18,-7,-5,-4,9,11,0
1490228641061,-1,14,3,-11,-16,-16,0,1,15,29,1,-6,-2,13,-5,2
1490228641110,-25,8,9,10,1,5,-7,1,-13,-3,-4,8,2,8,-8,-17
1490228641111,28,1,0,1,6,2,5,-6,-66,-2,5,2,6,10,-1,-12
1490228641159,16,4,-13,-12,-2,-25,-20,-17,12,-30,3,-1,0,10,18,15
1490228641208,10,-7,-13,-31,1,20,15,11,-48,-1,-47,-46,-16,-17,-15,-14
1490228641257,80,48,9,4,0,-9,7,-17,8,19,52,17,-19,-13,-12,-1
1490228641305,-37,-119,-7,-1,-3,-2,10,15,-45,-60,7,-24,10,26,-4,4
1490228641307,-22,-1,-12,47,-8,-23,-6,1,127,34,-13,-18,-1,8,-7,18
1490228641354,88,44,-4,29,9,-12,-5,19,21,-39,-58,-11,4,-3,27,21
1490228641403,-46,5,3,-26,7,12,-10,43,93,61,-27,-4,-14,-8,34,42
1490228641453,-15,-29,54,50,22,16,53,-15,64,43,-11,55,26,2,11,49
1490228641501,74,31,72,-34,-6,4,41,16,-74,-10,-117,-79,-16,7,-13,-2
1490228641549,-52,-74,-18,82,9,39,-6,-28,18,-52,7,-16,14,-5,-36,-26
1490228641550,-85,72,57,-12,-24,-25,-10,2,-67,-35,67,37,28,-22,-41,5
1490228641598,80,-32,102,95,50,13,-2,-22,46,55,127,85,23,52,7,13
1490228641647,-48,-42,-91,-128,-53,-18,-59,30,-74,95,67,96,23,0,18,-80
1490228641696,0,71,-128,-128,-56,-21,2,-15,-60,-114,13,-13,-2,-9,9,44
1490228641744,30,-4,61,-89,-18,-24,8,13,33,31,48,126,23,3,-28,-4
1490228641792,-125,-128,-114,-128,70,16,13,15,84,41,-60,-112,-51,-34,-6,12
1490228641799,-63,-63,-69,-36,-20,-34,-42,-26,7,5,32,56,2,0,32,11
1490228641844,-52,-29,-105,-94,-23,-14,-11,31,-51,-108,-39,-28,-44,-16,-8,-42
1490228641891,16,62,-2,-9,-18,3,18,12,-33,-73,-27,-62,15,-7,-41,19
1490228642037,38,18,72,60,-30,-11,29,-6,72,113,-49,-1,29,21,-15,-1
1490228642039,-7,99,76,30,8,22,10,1,48,31,97,67,-53,-47,16,10
1490228642042,-30,13,30,26,66,4,1,-9,5,37,36,77,-6,-8,-14,10
1490228642046,1,-46,15,-37,-26,-14,13,4,8,5,11,-46,-11,2,21,8
1490228642086,1,-4,54,22,31,14,7,11,29,14,-14,21,-23,0,30,10
1490228642134,12,16,4,30,32,-10,4,0,-10,-1,8,-4,-37,-2,-14,3
1490228642183,2,-10,30,41,2,-23,-23,-5,3,9,6,-18,-7,-7,5,-4
1490228642231,0,-13,-4,-7,-23,1,-16,-4,0,-6,-14,-9,-22,-26,-46,-10
1490228642280,-6,-11,-5,-18,10,-7,34,8,-17,0,10,-12,-51,-44,25,-20
1490228642329,23,15,14,63,43,37,7,-10,-10,9,-15,-41,-35,12,10,17
1490228642330,6,17,6,2,24,19,-20,7,4,6,15,22,-38,37,48,2
1490228642378,-11,7,-4,-5,-86,4,16,-9,-7,-5,1,-44,85,63,-40,-4
1490228642426,-26,-9,-4,7,85,13,-13,-11,25,-3,23,34,0,1,33,11
1490228642428,16,-25,11,31,6,-7,-13,9,-9,-7,10,0,-1,-58,17,-1
1490228642476,-16,-7,6,24,2,21,25,6,-4,-9,0,-26,-70,-47,-37,-15
1490228642524,5,-1,17,47,-55,-57,4,-12,7,9,-5,11,65,-13,34,14
1490228642573,-13,-11,-43,-73,31,66,0,-4,4,-9,-2,4,25,79,-4,10
1490228642622,0,-3,-3,-14,42,71,-60,-19,-10,15,35,74,22,0,1,2
1490228642670,14,15,15,13,-39,-28,-70,-8,-4,5,-4,19,-11,-49,-11,13
1490228642673,-3,-6,-10,-15,-1,-66,68,-2,16,-2,1,-9,-23,-85,-33,0
1490228642719,-9,4,11,18,23,81,-2,-9,-7,-6,-1,-14,-44,42,12,-1
1490228642768,23,3,-4,-7,10,107,-5,14,-14,-7,-3,3,16,38,-11,-13
1490228642817,-4,-3,-2,-17,-8,64,-12,-1,-19,-4,-10,-14,-14,20,-16,-15
1490228642866,65,33,12,13,-6,-128,-5,-4,-42,-45,5,8,20,-92,-22,-16
1490228642915,-19,-3,-32,-39,-29,-37,20,-11,-36,-5,-10,-32,-24,3,-9,12
1490228642917,-33,42,13,15,-30,-38,-24,-18,84,0,5,-32,-16,-45,33,54
1490228643012,0,-21,-15,-21,-13,-19,29,14,-67,-8,-11,37,18,-16,-24,-22
1490228643015,-66,-51,-48,-35,-8,5,2,7,90,28,8,33,-18,-8,11,-18
1490228643064,10,-15,31,75,31,-29,-11,-26,-41,-7,14,-25,-8,37,1,-10
1490228643109,-37,17,11,-82,-44,-1,2,-5,-16,6,-11,22,50,10,-15,-16
1490228643115,45,-8,24,22,21,18,-6,5,11,-12,-19,1,-5,-9,-33,-5
1490228643158,-52,-1,12,17,-8,9,-25,-12,61,10,0,-3,-18,-5,-4,-12
1490228643207,-13,13,37,27,10,-2,-57,-34,23,-4,26,4,-9,-14,-19,12
1490228643255,47,28,-13,-5,11,24,54,1,-31,-23,-34,11,11,15,-12,0
1490228643304,-41,-25,-9,-12,-14,-21,-32,-50,10,36,13,17,14,26,28,1
1490228643352,-55,-22,12,19,7,-2,-2,6,10,-1,-14,-18,-17,-22,-33,-19
1490228643353,-7,-19,0,-12,-9,-4,-19,-10,-7,0,-3,12,12,7,-6,-1
1490228643401,-29,0,2,-7,-4,21,-1,2,29,-20,16,31,-6,-11,-2,10
1490228643450,-5,20,13,17,6,14,10,10,39,-3,-17,-34,-9,-4,-8,5
1490228643499,11,12,2,5,-4,2,2,1,-19,-7,0,7,-14,-14,-4,-1
1490228643548,16,-6,-2,7,13,16,33,8,-11,-4,-3,-19,-8,4,2,-1
1490228643596,24,12,-3,5,-1,-11,-24,-5,25,8,-2,-3,-6,-37,-4,13
1490228643598,6,11,6,43,58,-2,-6,0,12,4,-4,12,-2,2,25,8
1490228643646,11,-17,1,16,17,-8,-5,-1,12,-24,2,17,18,21,9,3
1490228643695,19,36,11,-9,-39,-32,-3,-2,1,36,5,0,23,15,2,1
1490228643745,-8,36,4,-8,-3,8,-6,16,17,15,6,-8,-2,6,4,1
1490228643793,10,13,7,7,8,11,-17,-6,26,-9,11,5,8,-6,-9,10
1490228643794,3,-11,-7,-4,-8,-17,-17,-8,-3,-3,-2,2,5,7,-8,-13
1490228643841,-12,7,11,3,0,0,-8,-4,40,10,8,10,5,-10,10,6
1490228643889,-3,3,28,7,4,-21,-14,-20,80,35,-10,26,5,-1,-9,7
1490228643938,23,19,-27,-1,17,15,10,-3,-65,1,-19,0,-2,12,19,-2
1490228643986,-22,-14,2,2,6,19,0,-3,6,58,34,31,6,-15,-16,-11
1490228644035,-5,-10,35,43,4,12,3,3,-23,-56,-39,-101,-37,-24,14,-8
1490228644036,-1,37,-30,-43,-4,11,-6,-1,48,31,13,16,9,17,13,29
1490228644085,126,64,-14,40,-9,-18,17,45,-53,-40,25,-52,1,6,-27,-2
1490228644133,-29,33,65,27,-4,22,-14,-6,-32,18,15,14,23,12,16,26
1490228644182,-64,-7,-58,4,-12,-17,-12,-29,13,11,60,49,3,21,19,17
1490228644230,-69,-15,-11,-40,14,20,11,-45,-42,21,18,-11,4,-9,13,14
1490228644279,38,-27,38,-38,-9,10,42,15,63,74,-50,-54,-35,-17,-13,11
1490228644282,119,31,-79,-46,-6,-1,2,27,-33,-77,-77,-67,-17,-6,-26,-49
1490228644328,44,-81,71,111,28,26,18,32,-42,87,92,29,29,-2,1,-37
1490228644378,12,127,43,107,10,-9,-13,0,-9,-70,84,79,36,19,9,-41
1490228644426,-128,19,65,82,49,19,26,-22,37,-50,-105,38,55,24,13,43
1490228644474,-112,-25,-23,2,-23,-14,-24,-12,23,58,3,28,-31,-32,-28,-10
1490228644475,-94,-34,37,67,46,16,-27,-15,-85,-77,-122,-115,-40,-10,18,2
1490228644523,82,37,60,50,29,9,0,9,-38,127,43,-16,-7,-9,42,55
1490228644573,12,12,-31,13,-27,-5,2,31,6,-55,-91,-90,-15,-27,-28,-52
1490228644621,16,23,-67,-101,-62,-30,-29,-10,21,29,-38,-14,-29,25,8,11
1490228644669,15,-25,63,58,3,1,-2,-2,17,15,-66,-26,-40,-2,4,-6
1490228644717,-13,-17,-28,-66,17,26,3,-17,28,11,-34,-16,3,-32,11,11
1490228644719,39,22,28,73,17,-1,5,25,-37,14,32,-1,19,18,-3,9
1490228644767,-1,0,35,42,2,-10,6,-6,32,7,-33,-17,22,34,-13,-4
1490228644815,-11,-26,-24,8,-18,-5,-11,-1,5,11,18,7,-7,8,-14,-6
1490228644864,-3,-29,-26,18,70,15,36,-12,4,-5,-39,-35,-16,-13,-18,0
1490228644913,4,12,17,29,-13,12,3,9,-2,-11,-34,-19,37,16,-2,-1
1490228644915,0,-3,3,25,30,-12,-22,4,5,4,18,-1,-51,-13,-8,-2
1490228644962,-10,-18,-2,23,9,23,-17,-3,34,15,11,8,-17,10,23,15
1490228645059,1,-7,3,36,-47,2,-6,10,3,3,-19,-13,23,3,17,-7
1490228645062,-30,6,-8,-14,-47,-19,0,-6,-5,17,25,49,86,-15,4,-2
1490228645108,3,0,2,-26,-45,44,-21,-7,25,5,-1,7,35,-2,-19,10
1490228645156,9,-8,24,2,-60,-46,5,4,-1,-5,-25,-30,81,-25,-36,-22
1490228645158,-7,-19,-33,-30,-1,56,30,12,-17,-4,-3,-4,-17,-31,-38,-6
1490228645206,9,-5,4,6,-23,29,-48,0,3,-14,-18,-29,-3,16,10,7
1490228645255,-6,-7,-27,-55,11,16,32,-2,-6,2,-8,-7,3,-25,-32,-2
1490228645352,-2,10,-16,-12,67,19,-10,-8,-3,13,9,14,-42,31,-34,0
1490228645354,4,14,1,18,-6,-44,3,10,0,8,-1,12,-14,-6,36,11
1490228645400,15,10,13,7,5,24,-24,6,-7,0,-3,3,-25,25,-29,-6
1490228645402,0,-1,-1,12,9,-20,-10,0,-4,-5,-2,-21,27,27,24,2
1490228645449,14,-2,-4,-26,-12,43,-14,10,-11,-1,-4,-18,-21,17,12,-6
1490228645500,10,9,-5,-12,-1,-1,20,2,1,-23,-3,18,-13,-35,-7,-14
1490228645595,3,14,0,4,1,-81,10,8,-12,0,18,-25,-9,-36,-14,-5
1490228645596,88,23,6,-19,-11,-31,-6,-5,-74,-17,-9,9,-1,19,13,-5
1490228645599,-45,-92,-22,-45,-24,-118,-19,-3,-3,31,-16,-6,-2,-77,4,0
1490228645645,-14,33,21,19,23,34,15,21,-63,-30,17,-8,-16,-23,0,0
1490228645695,-35,-13,-29,-1,-1,10,-25,-32,6,-6,-7,-15,-2,-1,17,18
1490228645742,47,-80,14,12,-3,-32,-9,-20,18,63,46,14,-4,-16,5,22
1490228645792,-69,-62,-80,-16,1,-13,4,-84,89,26,-14,-2,-14,8,-9,3
1490228645839,9,17,29,-15,-6,6,-22,26,24,23,35,3,-3,27,13,-16
1490228645840,-47,2,2,32,19,20,3,3,-6,42,69,38,-12,-12,18,20
1490228645888,-1,32,23,-43,-7,-1,-3,4,34,-84,-43,10,-7,9,-13,-40
1490228645937,73,-6,17,10,20,-1,6,-6,-93,-25,-5,15,9,-3,50,0
1490228645986,11,82,37,30,0,0,17,24,13,-46,8,-25,-15,4,2,7
1490228646034,14,-9,23,28,1,1,-19,-3,21,32,-5,-2,-1,-14,30,14
1490228646083,18,15,11,5,-4,2,0,-16,50,24,28,40,12,14,-4,28
1490228646084,22,18,9,-7,-9,-29,5,19,-17,0,-5,-1,9,-10,-13,-21
1490228646136,-59,-6,-7,14,16,25,5,-4,14,5,-26,-2,5,-3,25,6
1490228646180,-4,-1,10,11,-3,-14,-24,-16,-5,-4,11,11,15,-3,11,8
1490228646229,-5,13,2,6,15,9,26,-9,-32,-8,-3,14,-4,-6,2,-7
1490228646277,10,-14,-13,-20,-12,-23,-16,1,-14,-7,-11,-8,7,9,28,1
1490228646278,-14,-2,-7,10,14,63,-18,-4,-28,2,5,1,-16,-9,-2,-14
1490228646326,6,-2,-1,15,19,14,23,9,6,5,-2,-10,-13,-33,-25,1
1490228646376,20,-1,2,-4,-6,8,27,22,15,1,2,7,17,10,-9,6
1490228646425,0,-4,0,8,30,-10,11,-5,-9,-19,-10,0,11,-6,-13,-6
1490228646473,0,-1,0,-1,-15,9,12,16,0,14,-3,11,-2,-18,-21,-6
1490228646521,2,13,5,3,-5,3,18,-8,35,12,10,2,-6,-9,13,13
1490228646523,47,-2,9,2,-4,-18,6,3,10,-1,5,-18,-3,6,2,7
1490228646571,-14,-10,-4,-10,-10,7,-7,-8,13,12,6,0,-5,3,1,-3
1490228646620,-10,-5,-1,3,2,15,51,9,15,9,8,7,2,-1,-1,-4
1490228646668,17,21,-4,20,1,17,-20,-4,-34,-20,-15,-17,6,-8,10,0
1490228646718,34,0,41,-26,-6,-17,-7,-8,-57,-6,-51,28,-12,0,-5,13
1490228646814,-11,-21,-44,-2,-3,-24,-8,-7,94,23,2,28,11,10,6,-5
1490228646816,-58,-87,-49,-46,-15,1,6,16,51,44,5,-22,-2,-11,13,6
1490228646817,-51,16,46,52,7,-4,-2,28,3,-25,-29,-29,-2,6,-5,8
1490228646863,-48,-19,-12,15,5,3,-14,6,80,21,59,41,-3,-10,-12,14
1490228646912,-52,5,-24,-1,-3,-2,-23,-9,102,44,1,-3,3,5,19,-14
1490228647008,-30,-8,50,39,-5,-4,-4,7,61,59,-21,-35,12,8,2,40
1490228647010,89,69,10,44,-6,16,12,38,-74,-82,4,-39,-1,5,-3,-45
1490228647012,28,41,116,-45,-21,-10,-2,-1,72,17,-46,45,7,-5,-5,20
1490228647058,-98,-60,-53,57,-10,-5,-24,-21,35,45,-49,-115,-37,-27,2,32
1490228647107,102,37,-106,-29,31,-8,-10,-2,-56,-83,9,-49,-44,-14,6,-27
1490228647156,76,55,-75,-53,-35,-5,-5,13,45,-79,-103,-64,10,-3,5,0
1490228647203,-76,-84,24,64,-17,-16,26,15,87,18,-65,-44,-65,-2,-8,-30
1490228647204,12,-12,57,-38,20,8,16,-11,-17,9,7,33,5,-23,-24,-5
1490228647253,72,74,127,81,40,36,36,18,115,42,-14,127,85,19,7,32
1490228647302,-7,32,48,-31,-8,10,-7,21,73,83,110,127,56,-23,-5,-21
1490228647350,35,66,72,112,24,-8,5,-4,-1,46,116,55,1,9,25,-30
1490228647399,26,39,127,5,10,-9,27,7,107,80,-60,114,44,28,5,36
1490228647447,-2,-26,7,14,-32,-15,34,-3,35,29,5,28,32,19,9,8
1490228647449,-23,-57,-57,18,11,-12,-22,-9,7,-58,-69,-128,-46,-20,-7,13
1490228647497,-73,-52,-107,-128,-80,-21,-27,-33,24,55,36,89,56,-13,-21,10
1490228647546,-3,2,1,-74,-42,19,-13,2,-18,14,-16,11,23,1,25,-7
1490228647594,-22,-9,-21,-13,-17,-7,33,0,3,21,35,11,-21,10,-17,-6
1490228647644,-14,-34,-41,-97,-44,-5,16,-3,2,35,40,64,-26,-47,-66,-7
1490228647645,-2,8,8,1,14,-5,-6,1,1,-11,0,4,2,10,-10,-5
1490228647693,9,-1,0,15,69,42,-26,-7,-9,-18,-46,-33,23,12,8,-5
1490228647741,-14,-8,-56,-52,-36,9,2,-9,10,16,43,65,12,6,28,9
1490228647792,-17,-21,-30,-24,-52,-32,-17,6,13,30,90,69,4,39,49,8
1490228647839,-10,-6,-30,-12,-74,15,23,-7,16,11,17,67,79,5,9,22
1490228647886,20,-1,-27,3,5,-36,-16,1,-32,-2,-31,4,-22,45,15,6
1490228647888,-17,-14,-8,47,-20,49,26,-4,3,-3,-11,3,0,-30,41,14
1490228647938,-1,-4,8,7,-39,-40,-30,-5,27,0,-1,22,31,21,-21,15
1490228647985,-14,-5,3,10,59,9,19,-4,-18,-8,-18,-20,-42,-10,-4,-7
1490228648033,6,15,5,-3,0,-20,-14,-9,3,9,7,-11,-13,-26,-16,6
1490228648081,1,-8,-2,-30,-9,26,28,6,0,-3,-3,1,16,88,2,-1
1490228648130,18,7,13,12,-1,-43,-25,4,-5,-5,5,30,2,-47,8,-4
1490228648135,0,3,-17,-14,24,2,-6,0,4,-5,1,3,9,-7,15,-7
1490228648179,-7,-5,-3,-24,-3,-2,-7,0,4,2,0,8,4,-8,6,-2
1490228648228,-7,-5,2,-2,-7,-13,14,-5,20,7,-8,-14,5,-19,-12,14
1490228648277,-35,36,3,0,-23,-17,-32,-20,21,-10,14,12,13,13,32,28
1490228648325,-38,-2,-10,-5,16,3,7,-4,-23,-2,-16,-18,6,1,-22,-1
1490228648326,52,24,-7,10,2,7,-9,17,-31,-24,-12,-11,-6,-13,4,-15
1490228648374,-29,-46,-14,-11,-17,0,8,-14,80,94,40,38,35,1,-23,15
1490228648423,28,5,-9,-3,11,16,-2,-10,27,16,22,40,-7,-3,4,27
1490228648472,-46,9,15,-4,-7,-19,13,15,-4,34,58,49,37,36,-11,7
1490228648521,-20,-4,-47,-9,-7,8,5,-13,42,23,12,-54,-48,0,15,16
1490228648569,14,3,1,-3,-11,14,19,53,-63,-33,-25,3,10,-10,-16,-44
1490228648570,-6,4,21,-1,7,12,-6,-5,-18,-4,6,18,1,-18,7,19
1490228648618,22,-13,-10,11,7,19,1,-12,13,39,34,16,19,3,30,4
1490228648667,-96,-36,-38,-29,-6,-17,-2,-21,73,44,24,27,5,13,6,11
1490228648715,19,-2,-9,-10,22,7,0,1,-12,-25,-43,-27,-10,-6,-15,-8
1490228648763,-22,7,-11,14,4,3,-13,-8,54,-3,-1,22,-1,2,19,18
1490228648765,9,-19,15,8,9,17,15,6,-8,-19,-19,-10,2,-7,-17,1
1490228648861,6,9,5,34,26,5,-18,13,-43,22,12,-16,-12,-11,36,-2
1490228648864,-37,-16,3,-24,-14,-15,23,-12,20,18,-4,-9,6,2,-2,2
1490228648911,34,-1,-10,9,1,-6,-32,-9,-63,3,6,-8,-11,-20,-31,-6
1490228648959,-3,-7,-5,15,12,23,17,-9,8,-9,-3,-1,-6,0,-28,0
1490228649007,11,9,6,-14,-52,-13,-5,5,-6,7,5,24,46,2,16,-12
1490228649056,4,10,0,-7,-1,-18,-10,-4,-2,1,-2,-1,-11,4,30,6
1490228649058,-21,-9,-8,14,22,6,-16,3,49,-4,-1,-19,-16,5,19,9
1490228649105,-17,2,-1,-12,-7,0,-19,-16,14,3,5,-2,-2,0,-4,10
1490228649154,11,1,10,12,19,14,21,3,6,-8,-3,-12,-21,-8,-17,1
1490228649203,-12,-2,-6,-2,-8,-11,-1,2,10,3,-4,-1,0,-28,-20,2
1490228649251,16,13,1,-1,1,-1,-1,1,-6,5,0,-3,1,12,14,1
1490228649253,-33,-6,-3,0,-4,-3,-2,-13,30,-5,6,6,5,7,1,15
1490228649300,8,-1,0,4,13,-10,0,5,3,-2,7,-1,-4,4,-16,-2
1490228649349,-19,-4,-1,0,-10,-12,37,4,22,3,3,-4,-5,-17,-11,0
1490228649398,10,5,-3,-8,1,12,7,5,-8,14,2,-1,-1,-1,7,-3
1490228649446,-67,-21,-36,-30,-4,3,-7,-14,-6,22,35,23,9,29,1,10
1490228649449,8,47,16,37,1,-12,-20,-12,20,-12,5,-51,12,14,13,8
1490228649496,29,-38,-3,34,13,5,3,13,-12,-47,-46,3,-3,3,2,6
1490228649544,-14,-49,-22,-30,-14,4,-5,-29,-86,-11,-19,-36,-21,-22,-18,-14
1490228649593,-87,-33,-3,24,-2,-7,3,-32,99,33,-14,-7,-15,-4,-17,0
1490228649642,35,43,92,114,25,6,-14,10,-38,-21,-103,-59,-33,-20,-9,-5
1490228649690,-34,-4,-24,-2,11,19,-14,-28,12,-24,-23,37,-3,0,24,118
1490228649692,80,-11,-2,-97,-43,-13,11,-44,-22,54,120,48,19,15,-3,-30
1490228649740,-29,-88,39,23,-1,0,-11,-4,127,127,127,103,74,22,-4,26
1490228649788,-51,8,-128,-26,17,-11,24,-36,2,-110,-31,-118,-28,22,-20,-29
1490228649837,33,1,127,-29,-9,-4,8,64,-100,7,-39,71,-21,-14,-23,-4
1490228649886,16,70,66,5,-34,-20,2,-18,12,46,92,104,51,47,21,29
1490228649934,12,-36,9,112,6,1,42,-6,87,-35,55,7,-18,-7,-21,45
1490228649935,127,-41,-119,-95,-44,-15,-31,21,-128,-128,-116,-128,-117,-51,-58,-72
1490228649983,9,2,32,68,33,-3,56,-9,107,56,75,43,-28,27,6,54
1490228650032,5,9,5,28,3,30,-6,-24,-75,-53,86,117,18,-19,33,-14
1490228650081,39,107,1,83,85,10,-9,30,-27,-45,-115,-3,9,25,34,8
1490228650129,-83,-13,-30,-55,-60,-24,-44,-19,127,76,127,81,40,3,7,27
1490228650130,27,33,-41,80,28,-19,17,19,-2,-19,-50,-103,-11,29,-18,-5
1490228650178,11,-20,11,61,28,1,-32,-6,-15,46,65,-36,-19,-14,8,-8
1490228650227,-34,-18,46,-11,-4,15,11,-17,8,11,-18,8,-38,-5,0,0
1490228650276,2,-48,-128,-54,-6,-10,-12,4,-59,3,-23,-34,6,-7,-1,-8
1490228650325,-4,-20,-62,-60,22,-11,-8,-3,-3,-16,-27,7,-5,-2,-33,-11
1490228650374,-26,-21,-51,-23,39,15,-11,-14,-11,-5,7,4,-7,0,-2,-7
1490228650375,-38,-26,-61,-33,4,28,19,-21,25,9,39,31,-9,-47,13,11
1490228650422,-1,10,56,61,15,-13,-22,-1,-17,-23,-16,-50,-8,13,-4,-19
1490228650470,-33,-17,-21,-44,-27,-13,7,-19,14,4,-14,-12,10,-6,-33,6
1490228650519,-8,10,-19,-17,50,12,-20,-21,24,16,26,46,5,10,28,19
1490228650569,10,14,12,34,-3,-3,22,-3,-3,12,19,-10,-27,7,2,16
1490228650570,-44,-15,-26,-60,55,53,45,-12,2,4,16,6,-13,-26,-22,-3
1490228650617,4,-11,-30,-22,-36,-37,28,4,-6,-6,-13,-35,6,20,24,12
1490228650666,4,-20,1,25,85,6,-33,-9,-4,-4,2,-28,-87,-22,11,-4
1490228650714,4,-6,0,-48,-64,-19,45,2,-10,-10,8,0,15,9,4,-10
1490228650763,12,-2,-27,-32,-17,25,18,6,-13,-1,-4,17,56,8,-28,-15
1490228650811,21,25,28,46,-25,-11,-3,8,3,7,-7,-13,24,29,1,4
1490228650813,4,-3,-24,-45,52,36,2,-4,-4,-1,-7,-24,-24,-27,25,5
1490228650860,-5,7,11,18,-6,-23,-1,-2,2,4,-10,8,4,20,-24,1
1490228650909,16,-4,5,7,17,-3,-11,14,-8,2,21,38,-95,-24,-33,-17
1490228650958,-1,-1,-9,-11,16,0,4,-1,16,9,12,10,4,14,7,18
1490228651007,-13,-8,-13,-38,-4,90,0,-10,1,4,0,-8,7,50,23,0
1490228651055,6,4,5,18,11,-56,1,4,1,-4,-1,10,15,46,-16,4
1490228651056,-21,-16,-2,-12,-8,8,16,1,4,-6,-1,36,39,21,2,-5
1490228651104,-3,9,2,8,14,-8,0,10,8,1,7,8,12,-24,-1,6
1490228651201,-7,14,-17,-7,-11,-38,2,-2,6,5,-13,-9,8,-56,14,2
1490228651203,4,-40,-16,-21,-7,-32,-37,15,0,49,-2,-13,-28,-20,23,-28
1490228651252,54,24,-9,-6,0,19,-6,23,-13,-19,57,21,-5,-27,21,-19
1490228651254,-31,-32,-45,-8,-11,-5,7,10,-29,38,35,15,18,-13,-43,-24
1490228651299,-24,-63,23,8,2,6,-26,-42,50,29,1,0,15,15,43,38
1490228651348,24,-11,-15,-33,2,12,22,-5,6,-34,41,43,7,5,10,22
1490228651396,57,60,19,4,4,14,21,-20,19,-36,-3,24,2,13,-10,21
1490228651445,-45,-45,-14,-13,20,31,-19,-39,-27,-20,-33,-10,-3,-3,18,6
1490228651494,82,1,17,26,4,-1,-7,42,-8,12,12,11,11,-20,-37,-40
1490228651495,39,-19,1,3,3,0,6,16,-31,3,49,7,2,5,8,-7
1490228651543,53,-19,-39,-36,-11,-2,10,9,-48,-4,-50,-48,-10,0,-18,13
1490228651592,-22,-21,-4,29,-13,-21,-9,-21,-3,-2,-9,-16,-3,-12,1,-20
1490228651640,10,26,53,17,-2,-11,9,-7,29,6,26,7,-14,12,-11,-3
1490228651689,21,-42,-42,-17,-14,3,-25,0,-28,15,-26,-43,-8,-8,19,29
1490228651737,5,20,-3,-14,-7,-10,-1,8,-45,-20,11,-3,-13,3,8,-27
1490228651741,14,3,32,17,11,19,37,4,15,0,16,20,6,3,-19,6
1490228651787,-17,-20,-19,-35,-10,12,-1,32,12,18,0,6,16,-15,-9,-11
1490228651836,-14,-1,14,18,-5,-21,15,11,-8,-24,-2,32,42,-12,13,-21
1490228651884,15,10,-14,-46,-35,-8,-50,-14,17,6,-1,11,22,2,45,5
1490228651933,-3,-16,-4,-6,-3,0,-10,-5,17,8,1,-4,-24,-33,-24,1
1490228651936,8,2,6,17,17,9,-2,-5,16,13,0,-4,-11,-26,10,1
1490228651982,6,18,11,11,26,69,27,-3,-9,-3,11,-2,-1,6,-11,7
1490228652030,-26,-1,-8,-7,-3,-33,-5,6,11,10,-10,-10,-17,21,1,-7
1490228652079,19,20,3,1,-1,2,-19,0,-6,4,-5,11,21,-14,12,-2
1490228652129,27,-18,-5,-15,-22,-24,-25,-12,54,-5,2,-9,-7,-2,5,22
1490228652177,-28,-8,-2,9,14,-5,8,-6,-7,-7,4,-4,-2,-13,-7,-8
1490228652179,15,0,-9,-7,-10,-1,20,15,-19,-8,2,7,13,6,-8,-12
1490228652225,-8,-3,2,22,28,19,-20,-12,4,-5,-4,-7,9,19,16,12
1490228652274,-1,-3,3,4,-3,-9,2,-1,-7,-8,-3,-1,5,-2,1,-4
1490228652323,-26,-3,-6,-14,-7,-24,-23,-22,-16,-2,12,2,-6,-2,-10,-5
1490228652371,5,26,26,10,-4,14,34,16,-35,19,-22,-23,5,5,15,-4
1490228652419,-14,-8,-1,-26,-14,-14,-26,-10,30,-15,-4,24,7,-6,8,-11
1490228652421,-10,8,50,0,-6,-15,-19,0,48,25,-9,58,1,13,11,11
1490228652470,38,1,-30,10,15,34,28,1,-68,-7,6,-17,-9,3,-9,-2
1490228652518,-23,49,61,73,29,-8,-21,74,-8,-38,-37,38,-18,-41,-3,-1
1490228652568,-34,-49,52,-27,3,14,2,-16,9,32,-56,-25,-1,-1,33,44
1490228652615,126,82,-30,-34,-2,-3,-8,5,-83,-79,-5,55,-15,-16,37,-5
1490228652616,-44,-37,-46,49,-8,3,7,23,65,65,107,38,20,-21,2,-35
1490228652664,104,14,-54,-68,-22,-10,-27,28,-88,-67,-71,-62,-2,-18,38,26
1490228652713,-22,25,20,95,34,5,-5,-5,33,-19,26,35,48,37,11,-7
1490228652859,-128,-109,-48,89,19,-5,-4,-29,43,17,-45,-63,-38,-23,-38,-9
1490228652861,-7,-6,124,-40,3,16,17,68,-67,39,7,66,9,-13,27,38
1490228652862,63,34,69,-85,-43,6,5,-15,-52,-15,88,61,16,6,-16,-13
1490228652865,-60,63,-22,101,34,0,-11,-7,2,-42,8,-17,32,-18,-39,-3
1490228652908,53,30,-9,127,5,9,49,19,-3,13,-70,75,69,7,-4,35
1490228652957,-17,37,127,60,12,-1,-2,-23,91,56,-17,-9,59,5,33,57
1490228653006,-128,-58,-79,-57,-7,-2,-16,-63,-24,-12,20,-50,-23,-24,-39,-14
1490228653102,53,75,39,58,74,43,36,17,-54,-61,22,-71,-21,-35,-45,-3
1490228653104,53,-23,-15,-52,-19,-8,-33,16,-90,-26,0,1,17,9,30,-19
1490228653106,-6,-14,9,-37,-10,-9,17,-8,14,29,-47,36,-2,-2,-23,-21
1490228653153,33,6,-58,-19,-40,-15,-18,6,-55,-39,2,-54,-5,-11,-14,-21
1490228653200,54,5,19,14,-22,-24,-19,1,-33,-12,-54,-61,5,18,2,-3
1490228653250,2,-79,-77,-56,33,-7,3,18,-49,23,49,-6,-20,-21,-1,-21
1490228653298,17,24,-20,-50,-33,-3,1,1,-15,1,-8,-8,-10,-3,3,-17
1490228653299,-36,19,49,-1,-4,-34,-40,-19,42,37,15,78,30,24,14,19
1490228653348,8,13,60,74,34,13,2,8,9,-10,18,5,-20,-4,-1,6
1490228653395,16,-2,-70,13,22,-12,20,-3,30,46,110,46,-26,25,1,-2
1490228653445,-1,-10,-56,-66,-7,-6,-10,-2,-18,-6,-42,-81,-81,-45,-15,-13
1490228653493,-12,29,39,24,35,19,34,5,19,44,10,-5,-17,13,6,21
1490228653541,-2,-6,-25,-8,-4,10,-51,0,-17,-17,-27,-71,3,8,25,-19
1490228653542,-16,-4,-11,1,-62,-23,-9,-16,14,25,24,32,-6,5,-15,7
1490228653591,-15,28,71,40,22,-11,16,-1,-22,-23,-27,-3,-30,-36,-16,-15
1490228653639,8,-21,-3,-3,33,-27,-9,15,8,-26,12,36,46,-5,8,2
1490228653688,-10,-20,-25,-38,-33,-13,-41,-12,13,-9,-39,-15,-41,-18,16,2
1490228653736,-9,4,7,-7,-31,-21,-42,-5,-15,1,-8,30,-3,34,-27,-10
1490228653738,8,10,27,26,3,37,15,0,15,15,-4,-29,24,19,48,6
1490228653786,-8,2,-12,-1,49,26,21,2,11,16,26,72,4,-24,4,6
1490228653835,-9,9,-16,-42,0,5,9,7,19,11,9,13,-27,-12,-18,-2
1490228653883,5,2,8,-6,-43,-31,-4,0,1,-1,-2,7,64,6,-32,-1
1490228653932,1,7,3,-13,-19,-121,10,-7,5,3,-6,-34,-47,-128,-10,3
1490228653981,4,-2,1,-10,-14,88,7,16,-6,10,3,-7,-24,127,13,-8
1490228653983,3,6,6,-9,-12,-46,-5,4,-23,-22,-12,-1,-8,-38,-1,-12
1490228654029,-20,-8,-23,-9,-22,-57,-6,-13,19,1,-9,0,4,-28,5,4
1490228654079,-19,-1,-1,-1,16,-41,-19,-11,13,-1,49,17,-20,-4,28,2
1490228654126,-13,-18,-25,-45,-18,-13,1,0,1,-13,-30,-21,-4,-40,6,-11
1490228654175,-43,-12,10,-26,-19,32,24,2,11,13,-37,16,24,8,-24,1
1490228654223,15,21,53,13,9,-8,-13,8,40,43,2,37,18,-7,24,15
1490228654226,62,95,61,41,3,-9,-5,20,-9,-31,7,23,13,34,-6,-9
1490228654273,-1,0,60,7,10,8,-3,-23,-62,-10,29,75,23,1,27,2
1490228654322,71,-21,-18,7,-18,14,10,-11,-28,7,15,-21,8,13,-7,25
1490228654370,-45,-23,-19,-26,22,-27,-42,3,-10,2,0,-10,-20,15,24,5
1490228654419,24,68,55,4,-3,14,6,-12,-27,35,-25,27,5,3,8,69
1490228654423,25,-9,51,14,6,-6,-24,-13,-8,8,-1,17,9,13,22,14
1490228654468,-24,0,-25,2,-3,20,15,-26,2,-43,6,-37,-18,-18,-16,-11
1490228654517,3,12,-17,-35,-9,-3,21,9,52,38,8,28,-3,-10,14,-4
1490228654566,12,22,-41,-7,-20,-11,-13,-7,-67,-31,-37,-43,5,2,-25,-19
1490228654614,23,13,5,44,33,-9,-20,5,-9,-16,6,37,-10,-19,-26,-10
1490228654663,-3,-7,34,12,18,3,73,24,-15,15,-41,13,3,7,-3,-6
1490228654666,-24,-30,-16,-37,-23,-12,-14,-16,25,1,-22,-12,0,11,21,9
1490228654713,10,-7,9,9,11,13,19,2,-30,-12,1,-3,8,24,11,-4
1490228654760,-7,1,-13,18,-5,-13,-1,-8,-24,-7,2,0,-5,-10,-44,-12
1490228654809,18,-5,-17,-43,-21,-19,-5,5,-15,-17,-13,9,8,-7,-4,-14
1490228654858,19,-3,-13,4,42,15,-15,4,14,-6,4,17,-5,-13,-5,2
1490228654907,-4,0,-2,10,3,-8,49,2,2,-9,-16,-17,-12,9,-8,0
1490228654911,19,12,17,7,3,17,4,-7,0,9,21,-15,-16,-31,-15,5
1490228654955,10,-19,3,23,7,-2,-10,-5,-18,-17,-4,9,3,-16,-16,-7
1490228655004,24,-10,0,18,33,8,-27,3,22,-9,6,19,28,7,9,10
1490228655053,14,-1,5,-7,-9,3,-23,0,-3,-1,3,9,-6,0,15,2
1490228655101,-4,-12,-3,-22,-24,-8,6,3,-3,-12,-2,13,42,1,-11,-7
1490228655103,-10,6,-2,0,-4,6,16,1,-28,9,3,-8,-15,-2,-19,-13
1490228655152,16,6,3,14,14,16,1,7,35,10,4,-29,-37,-5,3,7
1490228655199,-1,-3,-6,-13,-4,3,-27,-2,4,-4,5,4,-12,-16,0,5
1490228655297,-25,6,6,-7,-8,8,-9,-26,15,3,-7,-6,-4,1,-6,2
1490228655302,-3,-15,-22,-31,-14,-33,-40,10,-7,7,-4,-34,-9,9,40,-17
1490228655345,-25,-27,7,40,31,20,8,-10,12,27,34,52,0,-9,12,3
1490228655348,-36,-25,-43,-53,-8,4,-22,-5,3,-11,-25,-6,-3,6,61,2
1490228655395,13,47,28,15,-9,-9,6,10,-29,-36,54,25,23,13,8,1
1490228655443,-22,-32,-53,24,-10,-1,-25,-2,-5,-14,-7,-3,-7,-1,18,9
1490228655492,-17,-18,65,-42,-39,12,31,2,45,28,-66,-1,6,-11,-42,38
1490228655541,57,-56,-111,-93,9,-10,16,-46,-72,7,87,50,-4,10,30,53
1490228655588,-55,19,-20,2,29,-5,0,6,51,-48,-63,-14,-30,-16,12,-8
1490228655590,-16,22,7,-16,4,-17,-2,28,65,34,6,14,3,14,25,24
1490228655638,0,-70,114,-42,-25,-8,-8,6,-73,-47,-128,-18,-13,-6,13,-34
1490228655687,77,46,-82,10,3,-19,-30,-41,-117,-13,40,7,-51,0,-26,-5
1490228655736,29,6,-42,104,-13,-3,27,31,-80,-99,-75,34,56,20,-1,28
1490228655784,-128,-3,-46,-16,16,-10,-32,-73,127,-56,-94,-95,-87,-36,13,-9
1490228655786,22,35,127,127,55,-10,32,22,-36,49,37,4,7,-23,11,-5
1490228655834,-79,-125,-84,-48,1,8,1,22,-47,4,-5,-78,-62,-18,30,-1
1490228655882,-32,15,108,109,55,-3,-9,26,-11,-84,-128,-128,-80,-20,-42,-45
1490228655931,-57,35,57,-3,40,27,28,11,58,61,69,89,20,4,11,10
1490228655979,127,46,-100,11,-21,-14,11,-13,-128,-67,-99,-37,15,-28,-28,-70
1490228656027,-101,-87,-128,-46,-29,-2,-16,-19,3,45,50,11,36,24,1,-4
1490228656029,-54,-52,88,72,6,-10,-18,-5,92,-8,-65,-48,-16,-18,-8,20
1490228656077,10,32,27,-31,-48,11,44,-2,-16,11,-17,45,-6,-1,-1,11
1490228656125,-18,-4,-56,-80,-33,-13,45,2,61,52,75,97,42,12,-9,-4
1490228656174,-23,-7,-25,-60,-19,14,-14,-21,-22,-22,-55,-53,6,-27,5,0
1490228656222,-1,1,12,44,29,19,6,2,-17,-11,-8,-13,-49,-17,10,-5
1490228656225,0,-28,-99,-40,-13,22,-8,-10,0,18,6,-34,11,-9,-2,4
1490228656273,-7,-9,-35,-13,10,-3,2,-10,-24,-38,-11,-33,-16,-19,-14,-5
1490228656320,-15,-15,-43,-44,-21,-9,-20,-15,2,8,28,23,24,9,-12,-8
1490228656370,39,23,2,31,-14,-43,34,20,-27,-15,-35,18,71,5,-18,-13
1490228656418,4,12,7,-36,-15,20,4,-1,7,2,4,42,-9,-15,-24,3
1490228656466,-8,24,4,-52,9,5,26,3,6,1,-6,-23,-78,-35,-32,5
1490228656468,13,-16,33,79,31,19,-3,-10,10,-16,-23,-60,-3,36,-11,22
1490228656517,-24,-27,-30,21,38,-4,9,-9,19,-16,-26,-38,3,22,10,2
1490228656564,0,-11,-1,34,12,0,48,22,-4,6,6,19,1,-46,22,0
1490228656613,-3,-25,-8,-21,53,-13,-31,-7,-9,-23,-12,-15,-48,-39,24,-3
1490228656663,7,16,27,72,-24,47,17,9,-8,-4,-14,-54,75,55,-40,-18
1490228656709,0,11,0,18,10,-53,-13,-3,6,18,8,2,-11,23,-13,-7
1490228656711,-15,-10,-24,23,4,-27,-37,-11,-4,-9,-3,43,1,-18,3,-4
1490228656759,-3,0,-3,-8,-12,2,-1,2,-4,8,-3,13,-12,-3,6,-5
1490228656809,-2,2,-3,3,-54,-22,14,-4,-6,-4,-7,-17,59,-2,-11,-14
1490228656857,-7,3,28,43,-49,-128,-25,-6,-9,-8,-11,-28,-2,-125,2,-1
1490228656905,-15,-8,3,-30,-58,112,4,1,3,2,8,14,-12,68,31,5
1490228656906,9,-1,-5,12,28,-50,-3,11,-12,-5,0,-12,-12,-12,6,-7
1490228656955,0,-2,-1,1,5,-61,-17,-3,1,-3,-2,10,-5,-55,11,3
1490228657003,-4,-13,-7,7,12,-7,-16,-9,-2,6,-4,-6,-13,-25,-5,-1
1490228657052,17,-1,7,-11,0,-43,11,15,7,14,12,11,-16,-8,-16,-6
1490228657100,2,4,-6,-7,-8,-26,-7,-1,4,6,16,3,-3,-74,-2,-8
1490228657149,-7,23,26,24,20,-1,-6,-16,40,4,-10,-7,-9,-3,10,16
1490228657152,13,8,-30,-29,-19,2,13,6,42,-8,-25,-11,-5,3,29,20
1490228657199,-30,-25,-25,-25,-14,-9,-8,-6,24,17,20,24,11,15,-7,-9
1490228657295,14,-13,1,-5,8,12,3,-13,-69,8,-13,35,10,5,1,-9
1490228657296,52,-7,-22,-24,-10,-19,-15,7,-45,18,-51,-26,0,23,-13,-23
1490228657344,4,-48,17,12,-10,5,48,-4,59,93,53,10,4,-8,-12,27
1490228657392,-6,1,-47,5,7,18,13,-8,-19,-5,59,28,-8,1,14,-3
1490228657394,-15,41,22,52,9,13,19,11,-10,-50,-17,-47,-8,-19,0,-8
1490228657442,15,26,53,28,-7,-8,-24,34,-31,-6,-40,-3,11,-15,-32,-33
1490228657490,-7,20,26,1,-5,2,-7,-14,12,12,8,-18,-14,-9,20,15
1490228657539,-40,-23,-29,0,22,3,-57,-36,-52,-16,-5,-13,-12,6,64,38
1490228657589,36,10,48,16,0,19,19,5,-4,15,24,15,10,6,5,-26
1490228657591,-49,-29,-6,-5,-4,-15,-17,-1,28,10,15,37,-8,-11,-24,10
1490228657637,-30,5,26,6,12,34,-1,-4,26,4,-12,0,-10,-22,7,-2
1490228657686,15,4,12,-15,-9,-21,-7,5,6,-4,-32,-1,1,8,-24,-10
1490228657734,17,-7,4,22,7,16,-11,10,15,-10,-1,-7,-1,-20,-20,4
1490228657783,20,0,6,8,6,-14,10,-9,27,2,-4,-5,-6,-14,37,7
1490228657831,1,20,-6,-9,-8,-2,10,10,-5,24,8,1,-5,46,24,-4
1490228657834,26,26,-4,-23,-33,-46,-52,-5,-5,23,8,6,32,1,28,-7
1490228657881,18,-2,4,15,11,30,28,5,-6,-3,-2,10,14,24,-6,0
1490228657929,39,7,-4,3,7,15,17,12,-6,1,4,6,0,13,4,-1
1490228657978,42,-1,22,18,31,11,12,13,-2,-2,-1,10,5,19,-4,-4
1490228658027,-3,-17,-5,-5,-1,8,-8,0,3,-19,-7,-7,-3,-24,-8,-1
1490228658075,-4,9,-5,-1,-1,7,-2,-2,-34,-2,0,7,5,22,31,2
1490228658077,15,7,-1,9,14,2,9,9,-7,8,-5,-10,-6,-5,-1,-4
1490228658124,-25,-1,-6,-8,-1,19,21,5,1,9,4,11,7,6,-3,-7
1490228658174,-17,16,37,4,4,23,17,-4,10,2,-53,-32,-19,-2,-9,0
1490228658222,11,-25,12,-79,-16,-16,7,-23,-29,-34,-18,18,4,18,22,22
1490228658319,-79,-60,-2,3,-6,-4,-3,-14,1,12,-18,-14,1,-2,0,-7
1490228658320,-21,29,12,53,14,-13,-26,7,47,-14,7,24,2,-3,-11,-10
1490228658322,58,23,41,-14,4,11,43,16,2,19,34,48,19,23,-5,-11
1490228658368,45,46,-37,-34,4,8,-3,4,-66,26,29,-18,-1,2,8,-6
1490228658417,-65,-18,-24,-16,-13,-10,14,-5,84,-41,38,19,4,-3,1,-10
1490228658466,-128,6,60,55,16,21,-1,27,99,23,-21,41,9,-4,-12,-20
1490228658514,22,-40,27,-55,-17,-22,-14,-17,-39,52,-42,-62,-17,-3,4,-25
1490228658515,-70,-7,-128,-95,-46,-22,21,9,-78,-29,-3,-90,-44,-6,-9,-31
1490228658563,74,83,85,88,-11,-25,12,26,-6,-61,36,119,33,21,-33,8
1490228658615,7,-47,21,-35,50,1,14,48,28,74,9,-21,19,13,-23,-12
1490228658661,111,61,-28,-52,-28,-11,-45,-1,-82,-51,-39,26,-3,-13,-19,-4
1490228658709,-16,56,-49,96,15,24,6,25,57,24,-37,-48,1,-9,23,25
1490228658757,17,-88,-125,-124,-32,-3,-14,-16,-19,109,20,42,-13,-4,-9,-35
1490228658759,31,-69,-16,-16,-32,-9,19,-8,67,55,127,106,35,-4,3,7
1490228658807,7,18,21,35,6,8,10,-9,-44,9,65,112,21,35,14,-8
1490228658855,-27,-74,-102,-109,-59,-28,-13,-18,-21,-47,30,-1,-4,12,-4,-5
1490228658904,-12,-83,-46,-72,11,10,-2,-8,-29,-25,-46,-13,-34,-11,10,-7
1490228658953,-5,-75,-54,-61,-56,13,-6,-4,-15,6,59,27,-17,33,23,1
1490228658956,93,75,127,127,43,-3,1,8,-69,31,51,92,16,-8,30,-10
1490228659002,-41,-22,-21,-42,-16,-39,-25,-9,-1,-29,-34,-51,-54,-24,-18,-11
1490228659051,5,23,-2,22,56,36,10,-2,11,-5,9,19,84,33,-4,4
1490228659099,-3,11,-2,19,-8,-33,-23,-12,-10,2,-31,-50,-15,1,28,-21
1490228659148,4,13,25,0,49,-5,-8,12,-7,-17,-17,-43,-42,-13,3,-8
1490228659196,-17,-14,-12,-21,0,8,-3,-13,21,22,21,52,-21,-28,-23,3
1490228659198,7,-8,1,-8,-12,11,10,4,14,-1,39,64,66,18,-12,15
1490228659246,6,24,20,18,-7,17,19,4,-7,7,-20,-56,55,13,-16,5
1490228659295,-18,-14,-56,-40,87,45,-18,-9,8,0,22,39,-62,-5,36,9
1490228659391,4,-8,-13,1,12,8,29,8,-9,9,4,23,-38,-26,-44,-17
1490228659395,-4,-18,-15,0,27,21,34,21,-2,-10,18,7,-52,24,13,1
1490228659396,-2,0,10,32,29,28,-7,-6,-9,-11,-10,30,2,-6,14,14
1490228659441,-4,-7,-3,-34,-37,6,-9,6,-22,-10,-23,-59,104,4,21,-6
1490228659489,3,15,18,66,-12,11,-9,-8,-3,-10,-15,-29,4,35,26,0
1490228659538,5,-10,16,-7,8,-25,11,12,-9,-8,18,18,-67,-22,-73,-14
1490228659587,5,17,6,16,-15,-21,-11,-16,3,-6,11,33,-21,-24,23,10
1490228659635,-2,9,14,-5,-59,-3,36,3,12,14,2,-11,-12,30,-35,-4
1490228659637,4,13,11,-13,-39,22,15,16,-1,5,16,33,-4,-48,26,-11
1490228659684,-1,-11,-9,-33,-24,-23,3,3,6,5,2,-16,-57,-20,-13,2
1490228659733,-1,4,9,37,-5,-20,16,8,0,-6,-13,-33,38,25,-16,9
1490228659782,-5,-8,7,18,-9,-4,-7,-10,10,1,2,-11,0,40,-33,10
1490228659831,-5,-7,-6,-6,23,-10,21,-11,8,4,7,15,-4,15,-7,4
1490228659879,12,8,12,29,3,28,-18,2,-4,-14,-16,-24,-13,29,2,-7
1490228659881,8,4,-2,1,-15,-50,14,-12,0,8,6,2,3,-48,-16,-6
1490228659928,-5,-37,-9,3,5,-30,-26,0,13,4,-46,-30,-19,-3,-25,-16
1490228659977,-2,-17,-32,-8,6,-4,-17,-7,11,-1,8,-20,16,7,26,18
1490228660026,28,-6,-35,-8,-6,-3,29,62,12,-17,-10,21,-3,-6,-30,-23
1490228660073,3,-14,-38,-15,20,7,-30,25,-32,18,22,15,3,-2,-25,-29
1490228660075,-19,6,35,-8,3,25,29,33,46,-27,-6,9,3,-6,-26,-14
1490228660123,13,41,22,22,-10,7,5,-9,8,1,66,19,13,-1,-10,42
1490228660173,-5,18,29,-12,-12,-9,21,-19,7,36,70,35,8,6,14,8
1490228660221,35,36,-4,-7,-21,-7,3,-3,2,3,-25,2,16,34,8,20
1490228660366,18,-16,7,47,4,3,-5,8,-18,7,67,31,19,0,3,15
1490228660367,18,-19,6,-6,7,-10,-12,-10,-37,-1,20,9,-16,0,-8,-4
1490228660368,6,-34,-19,-60,-12,1,-38,-2,-32,10,-22,7,1,22,49,2
1490228660369,12,-2,25,42,21,1,-18,-13,-7,-9,12,14,-1,-7,25,7
1490228660417,-9,4,-22,-12,1,3,-1,-9,-23,-45,-51,-41,-9,-3,-22,-2
1490228660465,-20,-7,5,-11,-3,9,21,7,14,18,-3,33,2,-6,-17,-7
1490228660514,-43,-29,-48,-10,-7,-16,26,-4,3,-8,9,-29,-14,7,-9,-8
1490228660561,-13,-15,-20,-13,-5,2,-34,5,-6,13,20,-4,-5,0,9,-12
1490228660562,6,3,6,41,21,-12,-39,-11,8,5,4,-7,4,-6,19,7
1490228660610,-5,14,31,9,27,-13,40,4,-14,-6,-15,34,1,-3,-31,-7
1490228660659,-27,-11,-14,-3,-4,3,-11,-14,36,-3,-10,-21,3,-21,-16,5
1490228660708,9,14,-6,-30,-50,-22,22,6,-15,1,-5,-6,13,34,-4,-3
1490228660756,1,-16,-14,-23,-34,11,-1,-5,7,3,-7,-29,-40,-23,-12,-4
1490228660758,6,11,-1,21,36,-8,3,1,-41,12,-5,-6,-25,-9,-19,-17
1490228660805,8,8,0,12,38,4,-7,-10,14,10,15,-1,-23,-5,19,8
1490228660854,-3,2,5,4,-5,16,19,4,13,-4,6,-23,-14,-8,-5,-4
1490228660903,-2,-14,-4,0,7,21,-7,-1,-10,-17,-9,-5,-29,-24,-19,7
1490228660953,-10,2,4,-21,-5,-3,23,-6,17,2,5,-11,-18,-17,-34,12
1490228661000,-18,-1,0,-2,-13,-11,11,2,-2,1,-4,0,0,-8,-28,-5
1490228661002,-6,-9,-13,-19,-10,-2,-22,1,-7,-4,5,2,-3,-31,-1,-4
1490228661049,37,2,1,11,-3,-4,6,8,-15,-1,-1,2,-6,-5,-16,-10
1490228661098,-13,-2,3,15,4,11,25,5,4,11,-2,-5,-10,-10,-7,-11
1490228661147,12,20,21,16,30,-3,-11,9,-17,11,31,26,-7,-5,12,2
1490228661197,68,-15,-53,-8,2,4,5,7,30,-10,9,-26,-19,-27,-27,-1
1490228661245,2,-20,-41,-22,-15,-25,8,-19,-36,-18,-29,-44,5,7,-13,13
1490228661249,19,-18,-7,18,-5,-20,-18,-13,-44,-21,-22,-62,-12,-12,-17,-7
1490228661341,16,19,44,66,19,18,15,-12,-57,30,6,85,14,8,17,59
1490228661438,-7,-28,-26,115,17,11,-3,-8,9,60,67,-63,-6,-15,0,9
1490228661439,13,0,8,30,-12,-7,-36,-25,-14,35,122,114,28,16,51,43
1490228661440,-16,48,-19,8,32,-15,10,1,119,55,63,68,8,10,-54,1
1490228661441,-54,-39,-75,-58,-23,1,24,4,10,62,118,57,-24,-16,-4,4
1490228661488,54,6,-46,63,12,4,-1,23,-26,-86,-126,-119,-27,-5,17,19
1490228661536,-11,-11,81,127,-27,-5,-3,8,-57,21,44,56,-18,-35,-34,-22
1490228661586,116,-14,-94,-49,-22,-27,-9,98,-116,7,-84,-102,-36,12,18,-105
1490228661635,-44,95,34,-45,12,-3,-19,-28,-115,-20,35,-17,-38,-6,55,4
1490228661683,92,-59,-34,-15,-18,-2,-42,13,-70,0,97,79,40,1,20,-22
1490228661685,3,57,108,103,-10,-4,51,-16,-24,-35,-69,-54,-17,-7,-12,-6
1490228661732,86,49,-42,72,105,41,2,20,-60,-100,-39,-105,-64,-20,-9,17
1490228661780,-9,42,69,86,51,20,-23,-1,127,61,-111,-99,40,29,8,26
1490228661829,-92,-83,-63,-87,-33,-14,-30,-14,100,19,-10,-13,-9,-3,25,26
1490228661877,-72,23,30,75,-24,-7,-10,-1,-62,-12,86,111,20,-19,-12,-3
1490228661879,-10,-80,-102,-73,3,-15,-8,-5,-24,8,5,32,-15,0,-11,-23
1490228661927,60,86,76,3,19,-15,18,35,-14,-28,16,55,22,36,-9,-13
1490228662024,20,46,-27,-18,21,6,-2,-4,21,-48,-66,-27,25,-5,-11,27
1490228662027,48,41,-2,-11,-39,19,11,7,-66,9,51,12,-1,0,13,-3
1490228662073,30,54,9,32,16,8,29,11,9,-8,15,16,3,18,-17,1
1490228662121,-42,-52,9,-5,-25,17,-2,-9,5,37,28,21,59,-2,2,-6
1490228662123,14,-10,-82,-51,-13,7,-9,9,-12,-32,-24,-53,-13,31,16,0
1490228662170,11,33,16,30,-17,22,3,-1,11,6,45,55,7,-23,-4,5
1490228662219,-9,5,-2,-52,3,-20,9,-10,-2,16,14,58,5,-30,-17,8
1490228662269,17,24,49,33,27,23,37,9,12,3,0,50,7,-12,-23,-2
1490228662365,5,7,36,66,87,1,9,4,21,2,-28,-27,-30,-10,-17,4
1490228662366,20,1,10,-26,16,0,-8,5,-6,-10,-8,7,-2,-1,12,-8
1490228662368,10,2,14,19,37,-1,-34,0,-4,7,-18,-28,-24,-5,4,6
1490228662414,-13,-33,-93,-78,-105,-39,12,-4,-12,-2,-7,-30,-88,-64,-4,-13
1490228662511,24,21,51,75,92,48,-28,18,-26,-9,-10,-15,-54,2,49,-22
1490228662514,6,-18,-25,-33,-15,-17,-16,10,1,-10,12,61,34,-10,12,0
1490228662560,-13,-10,-18,-38,32,69,3,0,-16,-6,-22,3,-12,91,0,-5
1490228662561,12,14,27,29,20,-41,34,9,-3,4,-12,-28,1,-29,-19,-4
1490228662609,-3,6,-5,16,-5,-36,-19,-2,-6,16,13,46,-10,2,5,7
1490228662658,1,11,-3,7,-52,-86,58,-2,16,9,10,-9,-4,-49,-15,14
1490228662707,-4,-4,5,-48,-20,127,9,5,6,4,-3,8,21,123,43,0
1490228662757,7,-2,11,43,-29,-58,-23,13,-5,-3,-2,-5,41,27,3,-9
1490228662804,-4,-4,0,-9,-8,-10,-7,-2,5,2,20,12,-7,-34,-3,1
1490228662806,3,-6,-13,11,-3,-15,17,0,2,-3,-2,5,1,7,17,-5
1490228662853,3,-5,-9,-6,-12,37,-11,2,-18,-6,-6,-2,3,31,0,-2
1490228662902,-19,1,2,31,36,-16,-1,12,25,22,13,-3,1,58,11,16
1490228662951,33,18,22,19,-4,-11,7,-2,-49,-5,0,-24,-19,-43,0,0
1490228662999,-14,19,44,13,-1,-21,7,10,101,19,2,2,-12,0,7,-9
1490228663047,-10,-31,-52,-28,-30,-4,-12,3,7,8,12,12,32,-13,12,0
1490228663049,-37,17,-10,6,6,-6,-12,-10,67,10,47,25,-3,13,1,5
1490228663097,-8,-5,18,-13,12,-4,-6,-33,-37,-9,7,-23,-21,-6,5,5
1490228663146,44,-8,-114,-16,2,7,6,14,-19,39,62,-8,2,2,-13,-15
1490228663195,-3,16,-47,-16,6,-4,7,40,-16,-63,-75,-35,-8,-1,-5,-23
1490228663242,22,-10,20,33,-3,-6,9,17,59,29,-53,-39,-2,0,13,0
1490228663245,4,-14,15,19,13,40,21,-31,-20,-42,-6,-14,-10,-2,-22,-15
1490228663292,-35,12,0,-25,-17,4,23,7,-26,-29,-112,-76,-39,0,-2,-9
1490228663388,-67,-11,18,38,11,-4,-29,-7,-6,-7,28,-8,-7,10,26,0
1490228663391,15,17,17,-14,-12,-14,-8,35,-4,-7,-46,-26,3,6,-9,-41
1490228663438,4,-18,-77,-21,4,5,11,10,-38,28,37,10,-4,-15,-9,-18
1490228663486,35,43,33,-19,2,-14,0,-6,5,-18,-24,8,-2,-10,-15,13
1490228663487,19,-8,5,13,-3,9,3,2,34,-11,-37,-41,0,-5,-14,3
1490228663536,-11,-3,-49,-36,-7,12,-42,-28,-15,1,24,20,8,9,27,6
1490228663585,5,19,25,15,-1,-20,-2,-1,-4,-5,8,28,6,6,-7,-3
1490228663633,5,-20,-22,1,-5,-18,-10,-4,-5,2,3,5,25,20,5,-7
1490228663682,15,13,16,-17,-34,-23,-4,2,20,4,-3,32,11,-19,6,-7
1490228663730,-5,1,5,18,37,46,21,5,-1,-13,-5,17,5,-13,5,-9
1490228663731,-16,0,9,26,21,3,2,1,13,-5,-9,-21,-27,4,13,6
1490228663779,24,3,-12,12,8,5,-5,-2,-40,3,-3,-33,-19,31,-23,-9
1490228663833,11,9,-3,15,10,-2,-10,-15,-20,9,-7,-13,-20,-17,-24,17
1490228663877,-33,-13,0,20,13,0,29,0,21,3,-1,2,-23,-7,-3,-1
1490228663925,28,-6,-2,-20,-37,-14,-2,10,-19,-15,-7,12,36,-3,-13,-15
1490228663926,-9,3,-1,2,12,-3,-6,0,-22,-9,-5,-9,-18,-15,-14,2
1490228663978,-6,9,1,-36,-36,17,5,7,-21,3,3,39,59,10,28,-10
1490228664023,19,-11,-11,-14,-25,-21,-9,4,-25,-4,6,-15,-18,-5,-22,-20
1490228664072,1,-1,0,-2,-4,-1,5,1,-16,0,2,8,11,-1,-12,11
1490228664120,10,2,2,-2,-23,-8,-2,-10,18,-4,-2,4,-2,3,0,6
1490228664168,-17,-10,-9,-9,5,-15,4,-3,11,8,-1,4,0,-21,-32,-7
1490228664170,-19,0,-1,-4,-2,-5,-5,-3,-19,-6,4,13,9,25,3,-3
1490228664219,-1,-1,-8,-24,-2,-15,-3,5,-39,-4,5,25,9,-20,-49,-18
1490228664267,-14,2,1,-2,-9,7,11,2,20,4,0,6,10,6,60,7
1490228664316,-16,0,0,-26,-23,9,-36,-25,16,0,-1,30,51,-1,8,3
1490228664413,-14,-2,-4,-3,-19,-12,-7,-7,-9,-1,-3,-7,7,-13,-30,-5
1490228664414,6,1,-3,-27,-30,-19,-26,8,2,1,-2,16,15,8,-13,1
1490228664415,-8,-2,-7,6,-7,-5,-15,0,21,3,4,5,-1,15,23,8
1490228664463,9,0,-4,-2,10,3,21,6,-6,-1,2,9,5,-16,-36,-18
1490228664511,39,-2,-6,-14,-31,-6,5,14,28,10,3,8,25,-8,-19,7
1490228664559,-28,-6,-1,44,61,-13,-15,-15,6,-6,-4,-17,-30,-26,-26,-5
1490228664607,14,0,-1,-25,-65,-16,6,2,-3,-4,-3,27,57,5,-13,-7
1490228664608,-16,1,0,-9,-5,-1,39,-5,22,3,4,8,-23,4,14,5
1490228664656,26,4,1,-25,-35,-22,-23,14,-26,-4,-6,1,15,4,18,-11
