1490229245269,8,24,3,18,-15,-93,28,22,-7,-33,-4,-21,-9,28,-22,-11
1490229245317,60,-6,6,-2,1,14,7,7,-66,-9,-10,10,2,-13,6,3
1490229245318,68,8,1,-4,-4,3,15,4,-2,2,-9,-12,-11,-14,-27,-20
1490229245366,2,20,-3,2,-3,-13,-21,-5,14,-7,9,5,2,-2,12,-1
1490229245415,22,28,19,26,3,14,-10,-11,-14,-11,-26,-18,-1,-1,-11,0
1490229245464,-33,-29,-14,6,6,4,-4,-12,37,30,18,-11,-8,-4,-5,-13
1490229245512,119,31,-29,-27,-6,1,-13,-6,-107,-47,11,24,11,16,34,29
1490229245560,48,21,-6,-32,-8,-4,4,43,-9,-9,-36,49,6,-8,-1,-13
1490229245562,20,-19,-43,-23,-4,-1,22,27,-78,-23,92,33,13,-8,-16,-27
1490229245610,-21,-44,3,6,5,2,25,5,-36,-21,24,-7,-18,-12,-3,1
1490229245658,54,-9,-7,13,13,9,-37,0,30,22,-46,-20,-27,-10,36,30
1490229245707,123,60,21,77,24,2,-11,42,-78,-50,-115,-56,-6,-11,-5,-25
1490229245755,4,3,15,-53,-38,4,28,-30,102,127,49,78,52,22,-5,36
1490229245757,-39,-2,-2,49,-2,-26,-5,-9,86,110,-21,-58,-29,16,3,-10
1490229245853,1,44,32,70,19,13,-40,-35,-17,18,89,7,-23,-6,50,99
1490229245855,-34,1,-22,28,44,13,19,-48,-90,-91,-107,-51,5,-7,-41,-62
1490229245902,52,75,39,19,-2,-11,0,28,-59,-41,-116,-91,-9,2,21,-31
1490229245951,10,57,-102,-22,-37,17,-15,14,-49,-98,-70,-64,-29,37,31,-41
1490229245999,15,-30,0,-62,1,-8,-25,-2,23,48,77,26,-8,12,24,28
1490229246001,-14,-23,4,-31,-37,-22,-9,-83,84,27,28,94,22,-16,-26,26
1490229246049,37,12,9,21,29,17,8,34,109,-39,-46,-56,-26,-8,-16,37
1490229246098,34,-19,27,4,-2,4,-16,38,-20,-10,-38,13,8,1,-5,-35
1490229246194,-21,-46,-59,-12,-19,-10,3,-5,-49,-48,18,-14,26,8,-9,-10
1490229246195,3,-12,-26,-5,-6,6,36,8,-7,24,2,-26,20,5,3,3
1490229246243,9,15,-23,12,82,16,-9,4,-17,-37,-81,-90,-89,-24,-15,-24
1490229246245,-13,-32,-24,-37,27,-15,3,6,48,13,30,52,12,-26,-17,-3
1490229246292,-10,1,-10,13,-44,-13,-11,-12,3,-12,-22,-18,43,21,-6,-9
1490229246341,-29,-17,23,29,3,-21,-2,-7,-10,-2,7,0,-18,-9,1,-4
1490229246390,6,29,8,-13,-23,-6,-9,-11,-4,-21,15,39,26,7,-1,8
1490229246438,-10,-10,6,1,23,24,24,8,18,16,13,16,15,4,-24,2
1490229246439,-12,3,12,-20,-7,10,-13,-17,8,1,-3,4,-16,3,4,12
1490229246487,-6,18,54,54,-24,-26,-36,-1,10,-14,-32,-26,11,8,29,9
1490229246536,34,63,22,49,-47,-29,-21,8,-31,28,9,-17,13,1,5,2
1490229246585,-18,65,-4,-31,30,47,42,-4,1,30,0,8,-9,-39,-32,-16
1490229246634,-48,-27,-10,-6,19,-8,-9,-8,4,-41,14,31,-22,-11,-2,-10
1490229246682,-7,-43,-20,-10,66,62,12,-5,12,-19,-8,-15,-21,2,-19,2
1490229246683,6,2,-9,4,-92,32,45,-5,-17,-13,8,22,28,-23,-8,3
1490229246731,-7,-4,-2,-19,46,-8,-42,6,4,11,1,6,-19,16,37,7
1490229246780,7,9,4,0,-60,-34,-12,3,8,-5,-17,-25,28,4,-1,-4
1490229246829,1,-4,0,-1,-15,4,24,-7,-15,-2,8,7,-8,-7,8,-8
1490229246877,0,5,5,5,-2,3,6,1,2,-4,-6,-3,0,-11,18,-1
1490229246878,24,14,1,-19,-5,37,-53,13,-1,0,-8,0,-23,5,-11,1
1490229246926,-27,20,15,28,11,-19,-3,-28,-5,-34,-40,-29,-31,-20,12,1
1490229246975,34,29,20,31,29,4,4,-8,6,-12,49,13,-5,20,-2,6
1490229247024,-27,17,-10,-7,10,18,-4,11,49,27,3,9,5,3,13,13
1490229247072,-55,-24,-18,-6,-8,-9,-11,-45,5,7,-18,-30,-8,2,-11,-3
1490229247121,34,20,-8,41,0,2,-18,20,23,30,15,-21,7,0,20,14
1490229247169,79,63,40,18,5,1,1,37,-50,-56,-31,-15,-7,-11,-13,-32
1490229247171,-14,24,-4,-3,-2,-10,-5,-7,0,7,5,2,2,6,-11,0
1490229247219,60,53,26,13,13,13,-4,5,-16,12,-5,-10,6,-7,-12,30
1490229247267,10,-37,-31,-12,7,-3,3,1,-32,-33,29,-5,-7,-5,-3,-49
1490229247316,5,8,21,24,-2,-16,-7,-3,41,12,-25,-13,-6,4,-6,27
1490229247364,-16,-10,22,-7,-9,-9,-7,-16,23,32,-26,-8,-8,-11,3,39
1490229247366,-34,-78,-7,-15,-4,-11,24,2,-25,10,10,0,-1,6,4,-21
1490229247414,50,28,3,37,19,1,-1,10,-36,-10,-11,-3,-9,-3,-7,-5
1490229247462,-10,-8,-22,0,-11,-5,-26,-10,2,6,-18,-17,-3,-13,-14,-14
1490229247513,44,15,-8,-1,-2,2,-5,0,0,-4,18,-5,-2,5,-5,-8
1490229247559,-37,14,-13,-2,0,-1,-4,-3,-18,-14,18,6,-4,-2,7,-19
1490229247608,-8,19,-8,-11,-7,1,-5,2,22,-11,-5,2,1,-2,-6,10
1490229247609,7,12,9,6,2,25,15,-2,80,29,3,1,3,23,7,15
1490229247657,-22,-5,3,3,-6,16,3,-13,8,-8,-5,9,-4,-19,-51,-5
1490229247706,-37,-5,-3,12,1,-13,35,0,45,-4,-4,-25,-15,-4,26,11
1490229247755,41,2,-3,-9,-23,-8,16,26,-2,2,0,10,17,-3,1,-5
1490229247803,-2,18,1,-7,-4,10,-13,7,-10,11,4,14,-1,-3,9,5
1490229247804,33,5,7,-3,32,24,-3,6,-40,-15,-4,-25,-10,9,13,-9
1490229247852,-29,3,-7,-13,-9,10,2,-16,0,5,-5,-7,3,5,6,1
1490229247901,17,1,-3,2,-21,-18,-6,-2,10,-7,-10,2,12,8,6,-2
1490229247950,4,-4,-8,0,3,-2,-17,0,-45,-13,-9,-7,-23,-23,-5,-11
1490229247999,-5,2,-1,7,4,-5,6,8,-9,-9,-8,-9,-16,-7,-24,-6
1490229248047,11,1,-6,6,7,-17,-15,-8,-1,5,-6,3,-13,1,5,2
1490229248048,39,12,13,10,7,48,25,25,57,9,3,0,0,0,40,10
1490229248096,-66,-10,4,14,2,-3,0,-19,32,4,-2,-11,-9,9,-15,0
1490229248193,8,-21,-2,-15,1,10,19,-34,33,17,36,32,10,15,9,16
1490229248194,-80,-47,-19,-16,2,-9,-22,-6,-17,-3,-3,-4,-2,2,18,-5
1490229248245,31,-35,-24,-3,-9,-2,-28,-19,-99,6,9,3,11,-6,-4,9
1490229248248,97,96,12,-4,-11,1,-5,14,-14,-95,33,8,-4,1,-16,-8
1490229248292,76,18,31,9,26,12,27,20,8,13,23,35,6,1,-4,-15
1490229248340,100,89,-48,18,-14,8,-23,23,-39,-106,-102,-108,-33,-10,-24,-9
1490229248388,127,79,-85,-21,-13,-9,-23,55,66,89,28,23,-1,5,-6,21
1490229248437,-21,-87,12,-54,-11,-13,-18,-22,62,38,-18,9,10,-1,70,72
1490229248486,6,-23,-110,-31,-10,3,-25,-7,-56,-87,-15,-53,-38,-33,11,-50
1490229248487,-115,-45,-59,-22,-34,14,-14,-70,86,-1,-116,-36,8,-3,-34,1
1490229248536,-32,47,76,0,0,5,66,31,-48,-58,-8,60,13,3,-20,-9
1490229248584,63,30,-62,14,2,-27,-36,-10,-69,-13,52,-71,-18,5,59,-21
1490229248633,-61,-88,-58,-80,-57,-20,-25,-78,52,58,104,73,19,-10,1,-24
1490229248681,64,29,-84,-33,15,33,13,14,-39,-57,-37,-81,-61,-38,-32,-1
1490229248730,-6,23,93,28,-4,-7,-18,-15,24,34,105,115,86,40,23,18
1490229248732,-15,45,66,74,14,-31,-28,-8,-63,3,76,-1,-20,11,-8,0
1490229248779,-28,-113,-29,-66,-44,-29,2,-8,-75,5,-32,17,5,8,-1,-11
1490229248828,11,-40,14,14,56,1,-5,4,-52,-43,10,31,-2,-7,24,-10
1490229248876,17,68,97,106,-2,-4,-12,-1,29,83,-25,-61,12,-5,15,25
1490229248924,78,29,-3,-18,7,10,43,43,-25,-39,2,46,49,4,-4,6
1490229248926,-9,4,-54,-43,-3,-8,-10,6,-24,-20,-16,0,-10,10,12,-25
1490229248974,-10,-20,-37,-11,-13,-8,-30,-22,-10,-3,29,9,40,13,17,-2
1490229249023,4,0,0,-15,-14,8,0,1,-21,-27,-43,-34,-35,-1,-5,-11
1490229249072,11,10,29,28,-4,8,4,11,5,9,10,-2,43,2,17,5
1490229249120,-5,-7,-15,-27,8,-5,-24,-19,18,14,29,25,-5,-1,0,12
1490229249168,-14,0,10,2,-1,6,8,-6,26,3,17,32,18,-4,5,4
1490229249170,8,-1,-9,-39,26,17,-16,-4,-3,-2,3,-12,-50,7,29,2
1490229249218,-30,-11,-7,-47,-48,-12,-2,-5,13,8,19,24,2,7,6,-7
1490229249267,-26,-8,-24,-1,13,-4,6,-11,-7,-8,-19,-39,13,15,35,2
1490229249315,-10,-4,-30,-57,89,39,-6,-5,-5,-6,22,40,-40,-10,-22,-5
1490229249363,2,-7,5,5,60,-1,-27,3,4,-11,7,25,18,0,9,12
1490229249365,5,-6,31,91,4,25,12,22,-11,-14,-31,-34,65,17,-13,1
1490229249412,-25,-25,-15,-30,-35,-15,64,-7,39,-2,19,38,-9,-9,-17,14
1490229249461,-6,-19,-16,-31,14,19,-24,-18,-2,-12,21,39,19,-1,-7,-4
1490229249511,-13,4,18,33,-59,-23,7,0,31,17,-1,17,-28,46,-17,6
1490229249559,-2,3,-21,-56,100,35,-41,4,-4,3,3,15,-41,-17,-3,-8
1490229249607,11,19,28,24,45,-10,-21,6,-13,-2,-6,-16,42,-4,1,-14
1490229249608,8,6,7,-7,-44,-36,-53,1,2,3,2,-1,0,14,25,4
1490229249657,22,-1,-13,-9,14,10,1,10,-25,-9,9,4,-8,20,-27,-14
1490229249705,2,-6,-13,-7,-13,8,65,17,-21,3,-12,-10,-25,-14,23,1
1490229249754,-30,-19,-56,-48,-12,12,-27,7,37,-4,30,9,-10,-26,0,-27
1490229249803,-5,-33,-44,-15,-21,10,-8,-35,2,-4,-1,23,-5,-34,-18,1
1490229249852,6,-34,22,10,10,10,-43,4,-16,18,-12,11,6,-20,26,-6
1490229249854,25,58,35,32,18,23,-4,56,15,-36,7,-9,5,4,-13,-11
1490229249901,-96,21,4,14,-8,1,-17,-31,3,19,-22,-26,-6,1,-6,2
1490229249948,10,33,6,-2,-4,-1,11,9,-28,-13,10,-7,2,16,-23,-58
1490229249997,-4,-32,-38,8,1,13,-8,-35,9,26,102,46,4,6,-6,5
1490229250046,12,-15,-40,2,-1,-3,-28,12,0,-4,-93,-46,-18,-4,22,10
1490229250048,25,36,37,24,14,10,40,20,22,-29,56,26,6,-1,4,-11
1490229250096,-53,-84,-25,19,1,0,2,-22,27,14,-30,-18,-16,-9,-2,25
1490229250144,45,72,25,-25,1,-10,-21,-8,-110,-63,45,17,14,8,20,-20
1490229250193,30,14,69,-117,9,5,8,43,34,63,9,-116,0,19,-13,12
1490229250242,-15,-10,-17,72,-5,0,-14,-12,2,-26,-37,52,-15,-19,-5,11
1490229250289,41,21,-6,13,-4,7,0,4,-45,-22,-29,31,11,-3,1,26
1490229250291,-12,-30,-26,-14,-14,-11,-20,-10,32,38,39,10,5,14,-2,-1
1490229250340,-24,23,-4,-11,-6,-17,4,0,3,22,29,-90,-8,-17,-12,-11
1490229250388,-68,-33,-24,28,-5,-13,-5,-32,-21,1,6,54,0,-2,11,-9
1490229250484,13,0,5,-36,4,-5,-19,-3,-25,13,15,2,1,-3,7,2
1490229250486,-53,-11,-13,1,-17,-17,-31,-11,93,31,-2,37,8,19,30,23
1490229250582,-28,8,1,74,16,5,21,-21,2,-12,-10,57,5,-7,-5,-9
1490229250583,-50,-7,6,-61,-16,26,13,-9,-8,-8,-1,-7,14,0,-7,-14
1490229250584,9,1,0,49,-15,-16,-2,-4,-18,-2,2,-12,5,15,5,4
1490229250631,15,20,2,76,-1,12,9,4,-6,9,6,120,0,-6,7,-6
1490229250680,-7,10,-4,9,24,5,11,0,31,11,-1,12,-32,-5,-12,4
1490229250731,10,-6,8,11,7,34,15,2,-10,-4,-8,-5,60,-10,3,2
1490229250733,24,-5,-1,39,15,12,-3,5,-21,-3,-11,-42,-28,-12,-16,-3
1490229250777,-11,-16,-4,24,5,-6,-4,-7,28,-13,4,55,-12,15,9,12
1490229250826,8,7,-5,3,12,10,19,9,30,7,1,16,-7,-3,6,0
1490229250875,-42,9,11,1,11,-10,-6,21,-40,-18,2,5,-4,-2,16,-21
1490229250924,-31,-5,-1,1,9,-5,12,-7,7,0,-5,3,-9,-13,-29,12
1490229250972,-69,-15,-29,0,-1,27,35,12,15,17,-10,1,-13,-15,-12,-9
1490229250974,-37,-23,-4,0,-17,-24,-28,-6,61,19,-15,1,-6,3,6,-4
1490229251021,57,-14,-12,-1,-1,8,-19,0,-79,-26,30,0,-21,-16,6,-18
1490229251070,70,-1,-22,28,-4,-11,13,1,-17,-16,-47,5,-19,9,24,7
1490229251167,-28,27,31,31,18,19,20,7,-27,-10,-52,-32,-9,-21,-19,11
1490229251217,-103,-55,-67,-36,-7,4,-21,-13,52,72,-21,-76,-6,5,26,-3
1490229251219,-20,67,40,79,30,27,12,21,-61,-110,-41,-2,-19,2,-31,-15
1490229251224,-108,-66,-30,10,19,-7,5,-59,69,53,-25,26,-4,-9,-25,25
1490229251265,-112,31,18,-9,-26,-16,-21,14,44,-11,-38,-25,65,17,5,-13
1490229251313,84,-89,44,17,19,-21,14,43,-100,-39,-60,2,-86,-26,-35,-32
1490229251362,45,37,-123,-111,-42,-14,-11,-37,53,94,122,37,18,-7,11,44
1490229251410,-39,95,51,2,29,2,61,16,-9,-61,22,60,15,5,-5,23
1490229251459,62,-71,62,21,-18,-13,28,26,23,88,63,83,-7,-32,-50,-15
1490229251461,-94,27,127,123,4,15,1,18,55,-16,-106,-37,15,21,6,14
1490229251509,-22,-18,86,86,50,42,24,28,-13,78,46,21,6,-4,6,-30
1490229251557,98,68,-67,26,4,18,-35,14,23,-29,-60,-55,-57,-3,15,26
1490229251606,-29,-88,38,19,-21,-15,-30,-25,47,77,127,30,14,1,8,38
1490229251655,-76,-68,35,16,-11,4,23,5,-10,-4,5,99,30,1,3,-11
1490229251656,103,70,-10,-19,12,-8,-5,6,-79,1,31,91,35,25,16,-19
1490229251704,-64,-70,-116,-128,-14,-25,-1,-31,-26,8,41,-42,-33,10,7,-7
1490229251753,-30,7,116,71,-7,24,2,-13,-11,-11,-51,-24,7,-7,10,16
1490229251801,18,-28,-76,-100,4,-13,-24,-7,-6,39,43,-3,-15,16,20,15
1490229251850,-55,-41,-33,-74,13,15,33,6,13,11,16,-27,9,1,-46,-19
1490229251852,19,14,29,55,-11,-6,-15,-7,-19,-9,26,112,24,-29,18,-5
1490229251899,2,28,19,18,14,31,4,9,-9,2,-44,-20,-6,13,-5,-3
1490229251947,20,0,-5,-8,19,10,10,4,-8,-7,-3,-14,-7,-3,-6,-4
1490229251997,4,14,0,19,-18,-8,18,15,5,24,0,-4,32,-6,7,-2
1490229252045,16,10,4,16,-24,1,8,7,11,2,3,42,50,-4,-8,0
1490229252093,27,5,5,23,19,-4,6,3,-5,17,27,-19,-3,-13,7,10
1490229252097,1,7,-17,43,-23,-17,-5,-12,6,3,-14,93,18,-4,2,-6
1490229252143,-30,-9,-9,55,-14,-15,12,-14,-3,2,-2,21,-77,-48,-15,-11
1490229252193,-4,-3,-8,54,83,10,-20,-3,-9,4,-2,13,-5,13,37,0
1490229252240,14,-9,-15,-70,29,36,-27,0,-2,-13,-44,-128,90,64,9,18
1490229252289,-10,2,-8,127,60,-16,-18,5,-18,-35,0,65,4,6,36,9
1490229252338,6,-9,6,-34,-52,20,7,5,-3,3,6,-27,-16,-46,26,15
1490229252342,-21,-4,9,-2,-23,-8,7,4,10,12,13,-9,1,20,-14,3
1490229252389,18,8,-4,-2,-6,-23,-22,17,-10,4,9,-1,10,20,-21,-13
1490229252435,7,3,0,2,-11,-9,16,13,-7,0,11,-3,-28,-12,-25,-11
1490229252484,23,15,-5,-1,-13,-10,11,17,-33,-11,5,-1,9,-1,19,-21
1490229252532,-26,4,3,-26,11,-13,3,-17,23,6,-2,-23,-21,-5,26,8
1490229252534,5,13,-5,-22,3,23,-36,-9,1,-7,-2,6,14,3,-5,2
1490229252581,-30,-28,1,1,-5,12,2,-6,21,33,10,3,2,-5,13,5
1490229252630,-22,7,18,28,-2,-1,5,-6,3,-48,-18,-31,-5,-21,9,15
1490229252679,-24,-46,-26,1,-14,-19,-15,-15,74,58,16,9,13,33,5,6
1490229252728,38,11,1,16,5,5,-1,4,-62,-42,2,0,-5,-6,1,-13
1490229252776,-31,34,28,13,9,-19,-11,-29,15,-8,-21,-9,-9,-10,6,-10
1490229252777,42,29,14,8,12,14,6,16,19,-49,-7,-6,-10,-8,0,33
1490229252825,-28,6,-2,13,-4,-1,2,-17,-7,-65,14,16,7,11,-20,-7
1490229252876,30,-9,-9,-20,8,14,6,-5,-7,32,7,16,2,2,-16,-15
1490229252922,0,3,-23,-12,-18,4,11,-13,60,33,29,1,2,-22,-9,15
1490229252971,-55,4,29,49,4,8,-23,-17,28,-8,-53,-34,2,6,7,6
1490229253019,49,7,25,-1,6,-1,13,29,-26,14,47,15,12,10,-4,-6
1490229253020,-5,-23,-38,-3,-8,-7,-7,-25,-26,25,26,-8,-1,6,13,-6
1490229253069,-46,-12,6,14,-8,-9,-36,-24,-3,11,11,10,7,19,17,0
1490229253118,27,67,53,51,55,6,27,3,86,34,30,12,2,10,16,22
1490229253166,9,19,15,13,5,7,11,7,43,22,2,-8,10,13,15,12
1490229253215,-6,-18,12,26,-7,-7,-6,31,-12,10,-9,-22,-9,-3,-14,-23
1490229253216,-15,-9,2,11,12,21,-5,-8,40,15,-7,-9,-8,-4,4,8
1490229253264,-2,-34,-6,-8,-13,-29,-4,2,-21,-5,8,1,8,7,-6,1
1490229253312,30,9,35,17,-11,6,-21,4,-21,-9,-15,6,-3,-32,-24,-13
1490229253361,-11,0,-5,3,9,12,15,-2,-17,2,-6,-3,-1,19,12,5
1490229253410,-38,-9,4,2,-16,-10,-10,1,9,-3,-9,9,27,0,1,-2
1490229253458,-42,-2,-8,13,15,20,6,-12,29,19,4,19,-1,1,7,13
1490229253460,52,-3,-7,9,26,-4,30,28,-9,3,-10,0,24,-11,-9,-7
1490229253508,-20,-11,-5,-11,4,-2,-4,7,2,-15,4,-9,5,10,3,0
1490229253557,-10,-5,-7,-4,-8,-2,-17,-11,21,9,-3,-11,-32,1,-2,7
1490229253605,-2,0,-4,-6,-6,-17,-5,-10,-6,-11,1,-4,6,-5,1,-2
1490229253654,-8,-5,-3,5,-1,-4,-1,-11,19,1,-6,3,-27,-12,-29,-3
1490229253702,-25,2,1,-4,4,-11,-24,-4,4,5,-2,0,17,15,24,-7
1490229253705,21,14,-2,-6,-2,12,6,8,-16,10,1,-1,-10,-8,-11,-5
1490229253751,-36,-15,-3,8,8,21,-8,-10,17,31,28,7,5,-6,-13,-7
1490229253802,-21,13,-13,-2,-6,-2,24,-6,38,7,0,-13,-13,-7,-10,-13
1490229253849,-12,-19,19,-31,-3,-14,3,-8,15,-8,-36,3,-7,1,17,12
1490229253898,35,1,-23,11,-2,0,31,-2,-84,4,22,3,-2,6,-27,-16
1490229253947,8,39,40,30,11,-1,9,20,48,3,-3,20,5,7,7,17
1490229253948,-21,-20,15,-35,-2,-1,1,4,65,28,23,43,-2,-3,-10,14
1490229253996,15,4,87,16,13,33,2,-12,101,86,-9,-14,15,-1,-24,15
1490229254044,11,-17,9,34,13,1,-32,-24,-53,78,3,-26,13,11,19,16
1490229254092,-76,4,89,40,11,17,27,6,-28,19,-113,-18,-14,-21,-34,-17
1490229254140,-80,29,-48,-49,-4,-2,1,19,23,-65,2,12,-6,5,22,25
1490229254189,117,113,27,87,50,9,19,2,-52,-128,80,11,9,5,-22,4
1490229254238,10,54,9,-28,-14,-18,-2,-3,-27,-18,-128,30,-2,10,-5,-23
1490229254239,35,-38,-34,-15,-64,-20,-4,-1,-33,-21,94,-4,47,6,9,-8
1490229254288,-33,54,75,17,-22,6,-22,-16,-52,-26,127,127,98,16,30,-9
1490229254336,-13,27,-54,0,5,24,9,-29,-109,-45,-40,-79,-4,-16,-46,-23
1490229254384,-49,-18,38,12,-20,-25,-6,-6,70,-18,-36,46,31,18,-9,13
1490229254433,50,-12,-8,52,-11,-14,-21,18,-68,86,89,16,-7,7,10,-36
1490229254434,26,30,-119,-13,8,0,13,15,108,-59,-65,-92,-35,-9,-30,9
1490229254482,-17,-98,-121,-34,-24,13,-7,-31,52,63,62,0,-13,-17,-3,4
1490229254531,-8,-17,2,-48,14,26,-17,-9,-11,65,26,78,12,15,27,-6
1490229254579,83,27,-37,-42,-31,-14,14,0,-4,62,89,43,43,5,6,16
1490229254580,-29,-1,-15,-62,-19,-26,10,4,-23,4,-6,-15,3,8,-5,-8
1490229254628,28,49,2,20,-4,20,11,6,13,-11,-82,-72,-51,-13,-21,14
1490229254677,-93,-32,-38,16,28,-5,-14,-26,-6,-14,-9,-37,-77,-11,19,11
1490229254727,27,20,-12,-28,-38,-8,-20,19,-32,-14,3,-3,-24,9,0,-24
1490229254776,-21,-28,-60,-20,10,4,-5,-13,-17,-30,-38,-41,-19,-24,-24,-16
1490229254823,1,-20,21,29,5,-10,-9,-4,-12,-23,-19,-6,34,-7,14,7
1490229254829,20,12,6,27,-20,3,3,2,-1,8,9,-2,9,1,-24,-9
1490229254873,38,36,66,29,-21,-2,-1,12,-31,-12,-47,8,28,16,-4,0
1490229254921,11,7,-16,-3,-3,5,-1,-8,-14,9,26,53,-4,-19,-15,-7
1490229254970,-4,-5,-11,-34,-22,10,20,2,-3,13,18,-4,-6,-16,-36,-13
1490229255018,10,5,3,31,69,-18,20,25,19,4,5,6,-14,-23,-6,6
1490229255020,-10,5,8,29,27,0,12,-1,1,-1,21,28,-40,18,27,1
1490229255068,8,30,17,-9,21,-14,-16,1,-11,24,-35,-76,45,-21,-48,-25
1490229255117,25,-36,13,6,-65,-34,-2,3,-8,-34,-35,-37,1,33,-24,12
1490229255167,-4,8,-15,-27,75,53,21,11,8,-1,25,75,-43,-4,6,4
1490229255263,-17,-14,11,44,-20,1,-9,-18,-6,-16,-37,-57,-15,23,5,1
1490229255267,-16,28,-12,-25,4,38,6,-12,-3,9,-1,-8,-22,2,3,0
1490229255269,9,-10,-23,-51,6,14,1,10,3,6,26,6,-16,32,11,-9
1490229255312,-3,26,11,22,4,-17,27,11,7,11,15,26,-51,-15,-1,1
1490229255360,-1,-5,-26,-29,-16,7,-29,-3,16,0,17,28,5,-36,3,8
1490229255409,4,9,0,-6,-28,-10,37,-2,-9,7,-3,11,25,3,-16,-6
1490229255458,12,-2,-6,-8,-11,-41,-4,1,11,6,4,-14,-6,-3,-3,6
1490229255506,-21,-12,-3,-10,15,17,18,-4,-1,-12,-2,-19,-33,1,9,-3
1490229255507,-17,-15,-16,4,-13,-23,-3,-14,7,16,5,-2,-6,0,-6,4
1490229255556,-23,10,-24,-22,-13,8,23,4,15,-17,-16,-2,-3,13,0,26
1490229255604,18,2,-14,1,3,21,13,2,31,12,28,20,19,15,-1,-3
1490229255652,6,-4,-16,-9,-16,8,12,11,-43,14,-4,-21,-2,7,-35,-36
1490229255701,-13,-22,-32,-13,15,-12,-23,-6,13,17,-23,-27,-12,-4,3,7
1490229255703,-9,-34,-13,2,-1,-1,14,-6,34,42,17,-12,-1,1,4,-17
1490229255750,102,-18,22,43,28,11,-19,33,-29,47,19,11,10,-3,4,14
1490229255799,16,18,43,2,5,12,17,18,-51,-40,61,30,7,-7,10,7
1490229255847,-37,30,-51,9,3,-19,4,-17,-2,-26,-23,-54,-24,-11,-6,-20
1490229255898,9,-10,6,20,4,-3,-15,-18,9,6,3,-5,-42,-6,14,42
1490229255944,22,23,34,4,-1,6,9,-2,-29,12,40,8,2,-12,-9,-12
1490229255946,1,-24,-8,-8,-32,-12,-8,0,7,31,0,15,-2,10,17,7
1490229255994,-36,12,12,39,7,-18,-15,-5,9,-11,-9,-23,-19,6,4,10
1490229256043,-5,29,34,19,-2,16,4,-6,108,58,27,6,23,4,5,5
1490229256091,-1,6,-18,-18,-20,-2,7,1,-17,3,-12,-33,-19,-42,7,5
1490229256140,52,2,12,8,6,-2,-26,20,-45,4,-17,3,-5,-17,-5,-4
1490229256188,3,12,6,16,-14,-26,-19,-10,35,23,-2,-8,-5,-1,12,6
1490229256190,-16,-11,-8,-27,-14,-30,-14,-7,-10,-7,9,19,-1,-5,-11,2
1490229256288,11,13,-10,10,11,-2,7,1,-35,-10,-15,-29,-36,-11,-27,-15
1490229256289,-11,0,6,2,18,-12,-19,-14,0,-6,-4,6,-8,-1,0,9
1490229256335,-13,0,-2,-4,-18,-6,13,4,-4,-5,-12,-2,3,-10,-14,-5
1490229256384,-14,4,10,8,2,8,-11,-12,50,11,11,-6,-1,32,49,45
1490229256385,-1,0,3,6,-1,-11,-17,5,-7,-12,-2,-6,-2,-18,-1,-12
1490229256432,8,24,2,-8,-9,-1,3,10,8,28,-5,25,15,54,22,12
1490229256481,-13,-2,-8,-11,-2,35,13,-1,-7,-9,-6,2,18,-2,-2,-5
1490229256530,0,-16,-7,12,5,-9,-8,-1,-7,-15,-4,-1,-8,-12,-9,0
1490229256579,-61,1,6,-2,10,-9,-21,-4,14,-25,-8,-2,-12,-33,-2,-4
1490229256627,33,6,-15,10,1,8,23,7,18,3,15,-5,-5,-6,-12,-25
1490229256629,-65,-43,22,-3,-20,-11,9,-11,24,10,-27,-18,0,0,-20,1
1490229256676,-22,-19,12,33,15,8,4,-7,6,-76,-7,0,6,-12,20,19
1490229256725,-29,31,-5,-7,-14,5,7,-20,38,11,13,13,-14,-7,18,16
1490229256774,-48,-20,-20,2,7,-9,-27,-11,-36,-1,5,-17,-12,-18,9,-16
1490229256823,-1,22,-7,11,24,5,46,19,3,39,20,31,0,-13,-64,-14
1490229256870,61,18,-41,-41,-13,-1,8,-4,-104,-114,17,-5,5,15,-7,-14
1490229256872,-26,0,-16,21,0,-5,32,-15,-63,-60,20,7,-7,-12,-14,4
1490229256920,-67,56,72,59,15,-1,9,-2,108,-68,-26,75,40,14,9,64
1490229256968,-76,-22,-42,-30,-19,-1,21,-5,-28,37,0,-77,-27,-8,-23,-41
1490229257017,90,103,19,43,4,19,13,60,16,-105,88,24,34,-12,-31,-30
1490229257066,9,62,46,1,-12,-38,-5,-30,-82,-79,-119,-95,-46,-24,-23,-32
1490229257069,52,-83,38,67,16,5,-16,-8,99,127,111,74,50,3,47,43
1490229257117,-63,-24,-128,-46,-6,-17,-19,-16,25,-75,-79,-49,-43,-18,-37,3
1490229257165,70,-6,-49,-72,-14,14,-13,11,-64,32,-82,9,-20,13,10,-22
1490229257213,-36,-91,-109,-128,-71,-38,-36,-6,63,0,67,57,32,31,2,6
1490229257261,-14,-39,-20,84,29,9,17,-15,39,27,-52,1,7,21,17,47
1490229257309,72,103,127,35,63,3,29,28,44,23,17,10,-27,-24,-40,4
1490229257311,0,-28,-17,5,-7,17,0,7,10,59,14,-14,60,-3,-23,14
1490229257359,11,38,59,22,56,12,-17,1,21,73,-49,41,-7,21,26,4
1490229257407,-82,-58,-9,-50,12,7,-12,-18,75,-59,-66,-19,-64,-16,-11,38
1490229257456,11,3,44,81,3,6,15,34,-32,-73,16,14,59,-18,-25,-28
1490229257505,-15,0,-21,-15,0,1,38,-13,-16,7,22,16,8,-4,-16,-3
1490229257506,23,-9,-4,9,14,-6,-16,11,-9,10,59,28,4,-9,-18,-8
1490229257554,25,29,18,-14,-19,18,3,5,-25,-12,-37,-23,-11,22,5,-12
1490229257603,-9,33,25,-3,33,34,13,-1,13,1,-16,-25,-51,-4,0,-8
1490229257651,-46,-1,26,30,36,11,-21,-32,18,11,5,14,-22,-6,15,7
1490229257700,-2,7,15,34,29,2,20,-3,-5,9,22,24,-17,-5,-19,-1
1490229257748,7,7,1,8,14,2,0,6,-9,-2,3,-13,-19,-7,-9,-14
1490229257750,17,3,18,-16,-11,21,25,-3,3,4,10,4,-16,26,-38,-8
1490229257797,-13,5,-34,-57,39,-23,-21,-8,1,36,-13,2,19,6,43,10
1490229257846,18,-20,4,0,-10,6,-17,-12,-18,7,4,4,23,-17,-10,9
1490229257895,-25,-27,-6,39,2,7,10,-13,22,-14,2,4,-35,0,6,15
1490229257944,-21,-60,-6,-9,11,20,0,3,-27,-49,-12,15,-5,-4,-7,-12
1490229257992,9,-1,-9,-6,8,14,25,4,-2,-7,-7,15,11,-22,-18,-7
1490229257994,18,15,10,-15,-41,-13,3,19,-9,3,-13,-10,60,8,17,-17
1490229258041,4,6,4,-58,-39,-29,-22,-6,21,14,-6,-5,11,14,30,24
1490229258090,4,11,2,13,34,18,-9,-4,-17,-3,-7,-30,-55,13,32,-6
1490229258139,15,13,4,12,15,7,-21,6,-11,2,6,13,-8,-16,16,-3
1490229258235,-19,6,4,4,26,7,-9,-10,10,-2,-1,-11,-29,4,5,-3
1490229258238,-4,-17,-12,-22,-13,-24,15,1,-5,2,4,13,23,-7,-17,-4
1490229258242,3,2,-15,-9,2,-5,12,2,12,-3,0,15,17,-2,16,9
1490229258285,18,11,22,13,-23,-8,-2,-6,20,9,4,-9,-3,3,-3,4
1490229258334,-8,1,-8,-19,-2,50,-9,4,31,34,4,2,8,-6,11,4
1490229258383,-37,-25,-20,8,17,10,5,3,-11,10,6,-37,-7,16,9,-4
1490229258430,-1,38,-25,-1,8,-4,6,36,-24,-43,0,40,3,2,18,3
1490229258479,-52,31,29,-34,-28,10,-6,-15,-3,-37,-18,4,14,-13,5,35
1490229258481,59,52,37,45,3,1,-2,9,1,62,50,26,23,8,-2,15
1490229258529,-1,17,-14,14,2,-21,-15,-51,2,-70,-62,-51,-32,-4,-19,12
1490229258579,-30,-58,21,15,2,4,-2,3,31,24,1,7,0,8,-8,15
1490229258626,1,7,-17,10,-9,31,17,27,24,42,74,48,18,14,29,4
1490229258674,-1,-35,-63,-51,-35,-11,-3,-6,-7,16,-3,-12,-15,20,1,-31
1490229258675,28,3,-18,-15,10,-3,-10,-25,2,2,-31,-23,-11,-12,-16,-21
1490229258724,-14,4,22,15,15,5,0,9,54,-1,-8,1,-12,-1,-11,32
1490229258772,-65,-5,66,41,29,0,32,-9,42,3,-2,32,22,-6,-8,-27
1490229258821,-51,-5,6,-2,2,10,0,-8,21,-55,-18,-10,-14,-18,-11,7
1490229258869,27,7,6,2,25,3,-4,-6,-24,5,-6,-13,-14,-2,12,1
1490229258871,40,9,16,13,8,25,19,11,11,38,9,18,-7,12,21,10
1490229258921,-35,-28,-18,-19,-1,-18,-5,-14,-5,23,8,7,11,7,-1,1
1490229258967,31,-8,-10,-3,-29,-12,-7,15,-9,0,-4,11,21,-8,0,2
1490229259016,1,2,0,5,7,17,6,7,-7,3,0,3,3,-7,0,-15
1490229259065,-3,14,-2,-5,-13,2,29,11,5,-6,-5,-9,-17,-14,-16,1
1490229259113,-1,-5,0,-18,4,13,2,-6,-19,-7,3,-23,-10,-9,1,7
1490229259115,17,-8,-2,3,11,0,-13,-5,-13,9,8,11,20,9,-8,-11
1490229259163,-15,-12,12,-14,-26,15,-7,-4,-12,-6,25,25,52,16,-8,-8
1490229259212,-11,6,-7,12,9,9,33,13,23,-12,-12,-13,-5,10,5,5
1490229259261,-20,-6,-5,5,5,-2,-5,-12,1,-1,-24,-13,0,-13,-5,-9
1490229259357,63,1,0,-1,0,-6,-16,-1,-23,-10,3,-8,-13,0,-4,6
1490229259358,0,6,8,8,-6,4,-14,2,50,0,-13,-6,-8,-7,-16,2
1490229259362,13,-7,-1,6,10,22,43,16,49,3,17,-2,3,-6,-9,16
1490229259408,-88,-29,10,8,-8,6,-6,-7,-18,-10,-37,-55,-14,-2,11,-9
1490229259455,41,1,-25,-10,5,8,6,0,-80,25,32,48,6,-1,-19,-11
1490229259504,79,29,-41,-31,6,-3,1,29,-34,-23,7,9,-11,3,5,-18
1490229259552,113,46,-35,-4,6,-10,7,-9,-65,-46,-31,-56,-23,-12,1,-16
1490229259553,-7,-16,-37,13,6,7,-29,-40,1,43,42,3,25,20,21,19
1490229259601,19,-3,-34,-15,-17,-17,-9,-14,-14,-9,-27,-47,-2,-13,2,21
1490229259650,39,81,-16,-42,-20,6,17,52,43,-56,72,31,11,1,36,30
1490229259699,39,122,-8,-49,11,-2,-19,-16,31,-60,-88,-72,-31,-9,8,42
1490229259747,38,56,87,43,15,-5,-14,-5,-26,11,65,120,52,8,-6,-2
1490229259796,-128,-30,-28,106,49,-15,-7,28,64,-79,-68,-115,-30,-4,-27,-24
1490229259797,115,89,59,-15,1,5,17,36,-55,17,49,4,-9,-15,-35,-35
1490229259845,-25,-127,15,2,-3,-10,13,-6,-8,36,64,-4,1,46,30,-17
1490229259894,-18,75,-71,119,37,-7,-18,-16,-10,-54,-93,-125,-58,-26,-7,-13
1490229259942,77,67,-112,9,-24,1,-15,16,-128,-41,-24,-120,-32,-2,-19,-104
1490229259991,-4,45,114,43,11,3,28,15,89,55,-9,-1,-2,-6,-16,15
1490229260044,-75,-124,-111,-117,-102,-20,-34,-58,-59,-89,25,12,-60,-23,9,-10
1490229260046,-56,-81,5,-89,-12,1,12,-24,-7,-13,21,41,2,1,7,27
1490229260094,67,78,93,89,17,31,23,18,-49,-6,74,35,45,5,-2,-7
1490229260137,-2,13,7,-51,7,4,-14,-3,-20,-42,-17,-58,-45,-10,-19,2
1490229260188,-1,-47,-70,-53,-11,-18,-7,-12,24,11,-37,1,-31,-17,0,1
1490229260236,-11,1,-89,-52,-28,11,14,6,-24,-78,-82,-78,12,-14,-21,-14
1490229260238,20,-6,13,4,24,-29,33,23,1,12,24,25,-41,12,25,-9
1490229260284,-9,-22,3,-21,-13,-6,29,3,36,35,20,21,36,22,3,22
1490229260332,5,8,-6,4,10,0,3,3,17,11,-2,19,23,-1,11,8
1490229260381,3,2,-1,-4,11,13,-6,7,-17,-1,-10,-10,-25,-8,7,-6
1490229260430,-22,-1,-10,-36,17,16,-1,-9,-4,0,16,31,-12,5,25,6
1490229260478,-1,-5,-7,-17,35,18,4,6,-8,6,6,-22,-15,-3,-19,-23
1490229260481,6,23,15,22,19,-1,1,2,17,-11,-3,8,-11,-22,-4,14
1490229260528,-6,15,-17,-14,-19,20,-24,-5,16,40,20,47,48,23,8,9
1490229260576,-21,-32,-4,8,49,-5,21,-8,12,-13,-29,-27,-21,-20,-12,2
1490229260625,-2,-17,-5,1,30,21,12,7,-3,-10,-21,-27,14,2,21,0
1490229260673,3,-4,-3,-13,82,17,-17,12,-2,-13,-6,4,-57,-4,2,2
1490229260675,19,4,12,11,36,-11,-4,11,2,6,1,-11,7,-15,15,-4
1490229260723,-7,-5,25,49,-44,-3,11,-12,10,9,-15,-28,-39,-22,-17,12
1490229260771,-6,4,-9,-39,-23,-10,11,-10,7,8,36,56,-3,1,-14,12
1490229260820,2,10,13,16,-8,-27,30,-3,5,9,5,-13,-4,-13,10,4
1490229260869,-2,0,2,6,-1,2,23,13,0,2,-10,-7,6,-6,10,4
1490229260917,17,1,-10,-10,4,19,-2,2,2,2,2,-8,-25,12,3,-2
1490229260919,-9,-5,-20,-21,-9,24,22,2,1,2,12,13,-5,-3,-2,-6
1490229260966,2,-6,-8,-12,-24,1,-15,9,-4,-4,-13,-8,24,-10,21,-2
1490229261015,9,0,7,5,14,8,-11,-6,-15,-8,-13,-18,-14,13,11,-5
1490229261064,-9,2,-3,-32,-42,-9,-19,4,11,-1,9,14,-2,4,9,4
1490229261112,16,38,27,30,-6,-18,-30,3,13,-8,-23,-27,4,16,18,26
1490229261160,45,39,-13,-27,29,10,13,15,-19,13,5,5,1,-10,0,-9
1490229261162,48,-29,14,-4,1,-23,-17,-12,-50,-22,-28,-11,-3,3,-17,-12
1490229261210,-33,-16,-10,16,-3,13,3,-11,15,-5,-4,-10,12,12,24,11
1490229261259,87,42,14,13,24,-21,11,5,-15,-27,5,-10,-13,0,6,22
1490229261307,-72,-13,32,42,-1,6,19,-11,37,-15,-7,-19,10,-2,20,29
1490229261405,28,29,-5,-11,-6,-6,-6,-4,14,5,-28,-11,-39,-2,6,4
1490229261406,39,54,-40,-29,-22,-16,-8,20,-36,-24,-61,-47,22,9,-10,-37
1490229261407,6,42,12,34,2,2,-33,6,3,-3,-12,-22,-1,0,-3,-17
1490229261453,-72,-10,-36,-32,-18,8,36,-11,-1,-31,9,-10,1,-9,-3,-4
1490229261502,88,63,33,22,3,5,8,12,-83,-52,-38,-37,-18,-7,-27,-11
1490229261551,15,-18,-61,-24,-1,-23,-17,-11,-30,45,21,-39,-13,3,-10,-32
1490229261599,0,-6,19,24,4,-8,-2,-6,-7,6,-8,-28,-34,-10,-41,-15
1490229261601,-16,-49,-11,26,8,-6,2,1,1,2,-4,-11,-12,12,26,7
1490229261649,15,10,-2,-29,-12,-17,-41,-20,28,6,8,26,2,3,9,4
1490229261698,-9,-10,24,15,-4,-3,-15,1,13,4,-12,-5,-18,-7,-10,-4
1490229261746,-48,-17,-12,7,11,29,15,-8,23,-3,-16,-26,-17,-10,-26,-9
1490229261795,16,2,-5,-19,16,-2,9,4,-19,7,1,-2,-13,-18,-14,-7
1490229261843,-26,9,8,4,-11,-17,13,-5,-12,-1,4,1,15,42,10,16
1490229261848,-6,-5,-1,-7,-15,-25,-3,3,-10,-10,-21,-22,-27,-14,-6,-4
1490229261893,-11,-2,-11,-9,-3,18,-4,-19,-12,6,10,14,-2,-29,21,5
1490229261941,42,5,6,11,9,34,12,13,5,-4,-1,-8,5,-20,-6,2
1490229261990,-11,6,3,14,5,-3,-5,9,8,-4,-10,2,0,-12,0,-7
1490229262040,0,-8,4,-4,-5,26,9,-12,-13,-5,6,8,12,-11,-18,-6
1490229262041,-5,9,-6,-3,-9,-4,4,1,25,12,11,-1,12,19,25,17
1490229262087,-42,-4,-6,34,31,-1,5,-8,-1,-9,-8,-14,-9,11,19,4
1490229262137,-9,4,-2,-17,3,23,6,-21,102,0,-6,14,-1,-3,-11,31
1490229262185,-9,-46,-2,-20,-12,-14,-14,-21,5,16,-3,-23,8,26,-12,5
1490229262234,-34,2,-20,21,9,-5,-14,-12,-31,-39,3,-17,-7,3,6,8
1490229262290,37,53,30,-15,6,4,-17,11,-73,6,25,40,22,13,43,-49
1490229262291,15,-97,-12,11,-7,-10,0,17,-27,53,28,4,3,-7,-15,-5
1490229262428,52,-21,-14,45,-31,-29,37,24,-19,24,-27,-81,-4,10,-47,-48
1490229262429,-4,-20,-67,-46,-13,-5,-43,-10,105,-16,-53,-51,-41,-20,36,41
1490229262430,4,103,20,12,10,9,-14,-38,-9,-66,-29,-17,-25,-13,-11,45
1490229262477,-51,89,121,110,66,17,38,-27,3,-44,-73,26,-17,-10,-27,-19
1490229262525,-124,-35,127,-7,23,13,54,-66,111,77,-13,78,42,2,26,80
1490229262526,-63,-68,-97,18,-4,0,8,-14,-76,-23,106,-45,0,10,-9,16
1490229262575,-107,-119,-80,13,5,-16,-34,-67,91,12,-21,-66,-30,-1,-5,7
1490229262623,-48,103,15,-14,5,7,4,-17,-67,-7,-103,9,1,-24,-55,-65
1490229262672,-26,-2,2,65,62,8,39,86,71,-80,-58,-69,18,5,37,27
1490229262721,48,52,102,97,58,-2,9,13,43,80,59,2,10,9,1,1
1490229262722,-56,-114,-120,-128,-51,-3,-9,24,1,70,127,127,53,3,31,11
1490229262776,-48,37,-31,-54,-33,-10,3,-1,-37,-35,79,24,-8,15,25,-12
1490229262819,39,43,12,-57,-42,-6,-31,-14,17,77,121,127,28,4,23,20
1490229262869,-20,-72,-84,-46,-28,-6,-30,-11,-36,-35,-20,-43,-7,37,55,11
1490229262916,7,46,36,17,8,21,-44,-16,87,40,-7,7,4,-19,32,49
1490229262964,19,52,78,44,-29,-4,-10,3,-5,-42,-42,5,12,-18,-9,0
1490229262965,-8,12,-11,5,-12,1,17,2,22,19,29,46,21,-8,12,-11
1490229263013,0,-11,-12,0,-53,-14,-15,0,-19,-7,8,2,7,15,-18,-8
1490229263062,15,7,8,1,-3,-20,16,16,-20,-19,-14,-1,26,-2,8,-11
1490229263111,32,9,-1,19,7,-4,-2,4,-54,-18,-14,-16,4,-2,19,-13
1490229263159,3,-3,-1,2,3,5,-19,-8,9,13,4,-20,19,25,9,-2
1490229263161,14,1,5,16,22,9,-7,9,-9,6,8,9,-33,-11,-12,-4
1490229263209,0,0,-5,3,9,4,5,4,16,5,7,12,-8,-3,15,10
1490229263258,-6,4,-2,-30,-8,-14,-14,-7,16,9,6,0,-2,-6,2,2
1490229263306,-34,7,13,-23,-2,4,23,-7,-16,1,10,-3,-11,-28,-11,2
1490229263356,17,10,8,43,74,-16,-39,-18,-10,-6,-69,-100,-11,19,62,10
1490229263451,25,-1,-25,-36,0,57,13,37,10,-12,-39,5,95,-4,-32,-14
1490229263453,-3,-14,-25,-43,19,9,13,-4,3,-31,-18,-9,71,41,21,7
1490229263456,-4,-8,-42,-49,41,7,29,1,-6,-5,24,42,-10,23,-30,-14
1490229263549,-5,5,-7,4,-10,18,20,20,22,14,5,29,32,-9,-15,4
1490229263551,-13,-6,-11,-2,17,5,24,-13,20,6,21,42,22,-35,-26,9
1490229263598,-1,-2,-22,-44,9,35,-41,-17,15,13,12,3,-36,-20,-20,15
1490229263647,5,1,8,17,-13,-37,-9,1,0,4,-2,-22,-21,5,35,2
1490229263648,-7,4,14,20,-3,9,67,-2,5,13,9,18,-3,-15,-16,3
1490229263696,-8,-9,-10,-22,-20,-3,-14,7,-25,-11,6,25,9,26,32,-23
1490229263745,-13,-8,-11,-6,0,10,16,-2,21,5,-1,-6,5,-6,2,16
1490229263890,-14,-8,5,21,-26,-11,-17,9,-17,-5,-6,-5,35,6,2,-13
1490229263892,-21,-18,-17,-5,-17,-2,-7,-3,10,-30,-23,-34,-16,-8,4,11
1490229263940,33,38,10,-20,7,12,2,8,-53,-69,23,21,-24,-26,12,-14
1490229263943,64,6,-51,-33,-1,24,1,-12,-53,7,40,3,11,6,11,12
1490229263947,-27,-1,-12,6,-2,26,18,-21,54,7,22,23,3,-19,-17,-9
1490229263990,-9,18,-5,5,27,15,0,5,-11,-17,-5,15,-9,-12,15,-17
1490229264037,-33,62,93,52,47,-25,14,17,-3,-14,-53,-18,2,1,1,-10
1490229264086,32,-8,-27,-16,-37,-10,13,-3,21,-46,-28,-37,-8,-16,-9,15
1490229264134,-23,17,-66,4,-3,4,7,-9,-47,-85,-2,-13,-13,12,7,2
1490229264137,10,19,-2,11,2,-8,-25,-30,-9,-2,18,-6,2,16,5,25
1490229264184,-37,-92,-40,-16,-9,0,-47,-19,-1,41,-27,14,18,-18,25,11
1490229264233,-61,10,4,-11,-23,-5,2,4,36,0,15,12,4,3,4,1
1490229264284,47,17,-17,1,-12,18,3,26,3,10,23,22,23,-5,-29,1
1490229264330,-35,20,56,-6,1,-1,5,3,43,25,-29,27,-26,0,-12,14
1490229264335,13,-45,-40,-33,-5,-17,-9,5,-5,-29,-12,-5,9,-6,-12,-13
1490229264379,36,8,-35,-27,-14,3,-16,-35,-6,25,23,-18,-10,-6,-5,-9
1490229264427,16,2,20,13,-3,1,-3,19,-43,-14,-23,1,-15,-12,-38,-22
1490229264476,4,7,7,-2,-8,8,13,7,20,3,17,4,0,13,-6,12
1490229264524,-16,9,-6,-2,4,-12,-5,-10,28,-9,19,19,1,-11,-11,14
1490229264526,-20,-9,-12,8,-10,-2,-10,-1,-11,-2,19,5,34,15,3,4
1490229264574,-1,-1,-6,-3,10,2,11,12,-2,-13,-19,-20,-11,12,4,2
1490229264622,-9,-16,-11,4,6,11,-15,-18,16,14,3,-2,-18,-18,4,8
1490229264673,-6,-10,8,-6,27,-1,-17,-9,16,-4,-2,-7,-2,1,12,8
1490229264769,15,18,-4,-22,-9,-13,6,2,-15,2,1,-16,-31,22,-11,-13
1490229264771,-26,50,-5,7,20,-3,14,-10,7,35,0,-4,-8,4,-8,-6
1490229264774,10,4,3,-8,-12,13,18,0,3,-12,-3,-11,-28,-2,10,7
1490229264818,12,-18,1,-3,3,-5,7,12,-6,27,-7,-4,-4,4,-12,-5
1490229264866,-22,33,6,-10,18,24,14,-10,-3,18,5,10,26,-5,-11,-1
1490229264915,0,-29,1,6,9,4,-10,15,-11,-19,-4,-2,-8,-11,-12,22
1490229264963,29,2,5,-7,17,6,-4,1,30,4,-4,5,-2,34,28,6
1490229265011,36,12,2,-12,-9,0,21,2,5,-4,23,24,23,-11,-45,-11
1490229265013,-5,-8,-9,-1,9,3,-7,0,6,-28,2,-14,-26,-8,20,2
1490229265061,-3,-55,-12,-14,-2,-15,-13,-4,-23,-12,21,26,3,1,18,10
1490229265110,-62,16,44,7,17,-8,1,-11,62,21,-14,15,-34,-22,-31,-6
1490229265160,-37,-28,-16,-8,-2,-8,-24,-18,-30,18,-21,11,-18,-13,-3,3
1490229265207,-19,-56,21,77,26,18,-6,-43,98,57,-4,-31,-4,4,54,24
1490229265208,116,3,48,-35,-18,-7,-43,-16,-35,-54,-28,25,7,0,22,16
1490229265259,-103,-45,20,6,8,9,35,-42,124,116,-38,-26,-26,-8,-9,-11
1490229265305,-16,6,-17,62,21,4,3,5,36,58,-9,4,28,15,-37,34
1490229265354,-128,1,-54,0,13,-11,38,-58,79,-12,45,36,9,-4,12,-23
1490229265402,12,-48,-63,-47,-25,-5,-15,19,-64,-21,56,20,-26,-4,14,-35
1490229265451,106,127,61,36,11,-4,45,26,47,28,88,48,28,12,32,18
1490229265453,-18,88,87,47,28,2,-46,-20,81,-74,-31,51,24,-1,21,41
1490229265500,84,68,1,-128,-29,2,-2,49,-47,-18,-51,-26,-42,-38,-4,-5
1490229265549,44,-128,9,-34,10,14,31,32,-71,107,40,-24,28,28,23,-20
1490229265597,64,42,-15,12,29,28,23,15,-33,-55,58,41,12,-1,-8,-28
1490229265646,51,-6,93,31,21,16,23,48,-31,-75,-110,4,-2,-2,-31,-18
1490229265694,-118,-104,-128,-119,-64,-37,-24,-61,26,66,74,23,26,26,56,84
1490229265696,-19,-16,-43,-77,-74,-27,42,35,9,-58,-106,-22,-31,-7,-27,-24
1490229265791,-44,-23,49,39,24,-3,-8,-22,54,43,11,-22,-23,0,13,5
1490229265793,-120,-15,57,48,11,-11,51,-43,35,-29,-9,25,-28,-27,-48,2
1490229265841,28,-17,-27,-19,-35,-9,-7,3,4,17,21,19,54,20,31,-5
1490229265889,-1,31,67,41,11,-5,-43,12,53,12,13,5,4,4,12,40
1490229265890,-6,-6,-1,24,3,11,-16,-15,10,6,-17,19,32,12,12,8
1490229265939,4,5,9,3,-27,4,-15,8,-2,0,18,23,7,3,7,7
1490229265987,14,-1,20,15,-1,1,-12,5,-21,-1,-4,-3,22,-7,-10,-14
1490229266040,-1,6,17,33,-2,-1,10,-3,6,0,-6,-20,-25,2,-12,-3
1490229266085,-13,-17,-6,-30,37,7,6,-11,-1,14,21,32,-34,-3,12,7
1490229266133,10,12,20,14,6,8,0,-1,-13,15,3,-20,-34,-13,1,-1
1490229266135,-20,-26,9,8,-17,29,-14,-15,0,-54,15,-5,-32,-2,-23,10
1490229266182,2,-1,54,73,-60,-45,8,-12,-35,-48,-41,-15,64,-1,24,-19
1490229266231,1,-4,8,12,-30,-1,-18,-3,-2,-12,-23,5,69,15,-20,-4
1490229266280,12,-11,9,25,35,10,-2,7,10,-13,11,50,32,-13,-1,20
1490229266328,5,-4,-2,-12,-2,14,24,-5,-10,3,6,18,-13,-7,-4,-5
1490229266330,6,-10,-7,-20,-4,-17,31,10,-22,10,-15,-26,-10,-23,-11,-9
1490229266425,13,9,0,23,23,-21,-25,-1,-15,-13,-10,-14,2,-24,-21,-18
1490229266426,-5,10,15,7,-35,-11,-14,-7,1,15,-7,3,38,26,12,1
1490229266476,4,9,9,13,40,40,-35,0,0,7,-1,-26,-18,-19,15,-3
1490229266524,-4,-3,-13,-29,-8,-8,5,-5,12,5,6,6,-5,-9,-16,-1
1490229266573,6,-4,-7,-2,26,-3,-2,2,-7,-2,2,3,-3,1,3,9
1490229266576,6,-3,6,-7,-24,-33,-30,1,5,-1,-11,-1,35,15,12,-4
1490229266621,-1,2,-8,-13,24,3,-12,-5,2,-13,-2,-12,-12,1,22,-8
1490229266671,21,5,-4,-19,-17,-19,-29,-4,-36,18,-7,2,26,5,-18,-23
1490229266719,-32,-1,4,15,-12,1,0,-46,0,8,32,-1,0,7,13,31
1490229266767,49,23,31,9,-3,6,-2,19,-40,36,39,23,-24,-3,-11,-2
1490229266816,28,27,-38,-26,-1,-5,-4,39,-8,-6,2,13,-11,1,-8,-10
1490229266817,9,5,-35,-29,-16,-18,-15,-13,-28,-78,8,26,6,28,-29,-4
1490229266866,31,31,-16,12,14,2,14,48,0,-30,-10,-26,3,-14,-16,-10
1490229266914,-1,32,37,62,5,35,-18,-6,35,61,39,0,7,-11,15,25
1490229266962,6,17,-39,-48,-23,-11,-26,-1,-16,-52,-21,4,-3,4,0,-61
1490229267059,-13,51,25,47,-3,-7,21,11,-11,7,-18,-36,9,-12,3,-15
1490229267061,94,33,110,43,-1,13,-21,20,-13,19,-11,21,-2,-13,43,5
1490229267062,62,6,8,-12,-10,4,-7,13,-76,3,-9,4,12,-10,-2,-18
1490229267109,-16,-36,-47,-5,1,3,-18,-3,-41,-19,4,-1,-4,16,8,-2
1490229267158,23,-8,-14,-30,-21,-25,-20,-7,39,21,6,-16,-5,-8,4,2
1490229267206,-48,-4,-10,21,4,18,5,-1,-7,-11,16,-28,-5,2,-22,-9
1490229267254,23,-8,-4,-7,2,15,28,28,-7,21,40,13,18,0,-5,-24
1490229267256,0,-52,-21,-23,-10,-19,-24,-6,-19,4,-11,-19,7,11,1,-6
1490229267304,23,-19,-34,-14,28,-10,-11,11,-39,2,-10,-21,-24,-13,-22,-23
1490229267352,-30,-3,26,40,12,3,7,0,-17,7,-12,-32,-9,2,-12,-16
1490229267401,16,26,19,0,6,0,-16,6,-21,-15,-1,14,9,-7,27,15
1490229267450,-22,-14,-24,-29,-10,-6,-14,-8,40,21,-2,-1,-1,8,9,12
1490229267498,14,-9,-9,10,14,-10,-16,5,-12,-1,7,24,50,35,20,11
1490229267500,-19,-5,-8,-2,-5,-10,0,-3,24,2,0,0,-27,-22,-35,6
1490229267547,5,3,20,15,10,26,34,4,14,5,6,-9,-6,9,-1,0
1490229267596,-36,5,-8,1,-1,7,-2,-16,30,12,4,-1,6,-6,-16,8
1490229267645,-27,8,5,-1,-6,-1,-5,-3,48,0,1,2,-10,17,25,13
1490229267695,36,-4,-6,-5,-7,-12,6,3,-55,-11,-17,-10,4,-4,-6,-20
1490229267696,-53,-11,-2,8,5,-13,12,-6,90,25,37,20,14,15,17,14
1490229267742,8,-14,-13,-11,-12,-11,-42,-19,-36,20,21,-7,7,1,47,8
1490229267791,39,-26,-32,-18,4,2,-8,5,-36,0,23,-13,-3,2,-18,-9
1490229267840,4,22,14,1,7,-3,-11,-18,94,7,4,15,-6,-7,-17,11
1490229267889,-73,-11,6,12,-3,5,-4,-31,-23,24,-10,-4,23,6,13,2
1490229267937,71,42,80,20,12,20,33,16,21,-55,-14,-1,-1,-6,-10,16
1490229267939,52,16,-36,-25,-7,-17,-27,-16,-65,-35,-8,-59,-20,1,-4,41
1490229267986,-30,-67,-54,-15,-8,-13,27,-12,-41,26,42,-1,5,36,-2,-3
1490229268037,-14,-25,93,77,21,10,10,29,101,87,69,28,5,-8,-13,4
1490229268084,71,-37,-102,-4,3,-10,-9,15,36,49,98,4,19,24,-1,3
1490229268132,-26,75,80,-67,-16,-8,-18,-23,67,22,44,39,6,1,3,38
1490229268229,61,127,15,2,-6,6,-32,7,-49,-75,80,77,25,2,14,-20
1490229268231,-31,-106,-39,-24,-26,-16,-8,1,29,11,5,-55,-36,-15,-54,-49
1490229268236,-74,-2,-1,-7,9,12,47,5,76,-2,-107,-68,-23,-15,-2,2
1490229268279,8,-11,63,56,43,10,-16,-7,-17,48,-104,-54,-13,-17,-16,2
1490229268329,-34,-89,-86,-107,-34,3,5,-23,73,115,124,93,45,36,24,-3
1490229268424,36,-7,-24,-128,-34,-9,13,27,12,-85,-113,-3,-37,-12,-17,-3
1490229268425,-54,56,15,76,28,3,5,-46,-7,28,93,-9,0,-17,-23,2
1490229268473,81,98,-99,-107,-47,-18,-18,30,-64,-103,34,125,23,3,21,-9
1490229268474,-69,-128,-46,-9,39,-9,43,9,-62,-12,-58,-19,-17,5,-45,-15
1490229268522,49,127,68,69,-2,2,-7,18,33,-87,-4,-105,-21,-34,-27,-46
1490229268571,-17,14,-56,-25,20,-10,-29,-8,-33,-14,-105,-115,-30,2,17,-17
1490229268619,-11,-53,9,-5,9,9,42,17,-21,38,-37,14,-1,-10,-14,-14
1490229268620,35,7,15,36,12,-2,7,11,-5,29,60,20,-10,-12,16,-7
1490229268668,7,41,52,105,40,18,8,14,-6,-23,-48,-29,-25,-7,-42,-1
1490229268718,12,-12,-2,17,19,-10,-15,-7,2,0,1,-8,-20,-11,15,18
1490229268766,-18,1,6,48,10,10,26,-8,20,-19,-18,-60,-22,8,-3,12
1490229268815,-41,-24,-14,-18,-8,-21,-7,-13,12,19,19,-8,-3,12,-7,8
1490229268816,15,26,-10,1,13,3,-11,4,4,12,17,-10,4,2,-19,-13
1490229268864,-17,-10,-17,-65,-32,-8,-12,-19,-21,-24,-18,-2,-11,-12,6,3
1490229268912,-18,0,2,-6,-8,-8,4,-5,18,2,-19,-30,-13,-8,9,8
1490229268961,-41,-14,-7,-31,28,2,15,-4,20,4,-1,35,20,-12,6,7
1490229269058,-30,-10,-15,-19,-24,-6,-27,-17,8,-6,-2,2,-13,7,0,1
1490229269060,-37,15,12,8,12,10,8,-22,7,4,21,45,-19,1,-53,-12
1490229269061,-8,-5,-5,-13,27,9,-8,-18,-1,-6,-22,-19,-10,16,33,-2
1490229269107,-23,-14,-20,-7,-39,-15,-20,-22,-18,-7,-2,-30,2,-1,-15,6
1490229269156,4,-4,21,56,5,12,-12,0,1,-25,-62,-74,40,72,25,-2
1490229269204,30,15,16,-30,34,4,74,24,-17,-8,-6,-11,-20,-7,-23,-7
1490229269253,19,-9,-18,-14,7,13,-29,13,-38,-5,-2,6,-3,-4,29,-1
1490229269301,-12,0,-18,-51,-13,18,2,-13,15,-3,-2,4,-10,-18,-25,-1
1490229269304,-11,-16,-6,-12,85,24,43,-11,13,-1,-14,-36,-18,-3,-15,13
1490229269351,-20,0,-6,-18,19,36,36,-13,18,10,8,-3,0,-8,-10,0
1490229269400,-2,7,6,14,-35,-7,-4,6,-6,7,-6,-17,-21,-22,0,-9
1490229269448,10,3,7,17,-13,-6,31,9,-4,3,5,18,-13,-4,6,-5
1490229269497,26,5,10,16,-4,26,-35,-5,-44,0,6,5,26,-2,-9,-19
1490229269499,-91,-37,-23,-12,-1,3,16,-13,36,19,8,2,-33,-12,-23,-11
1490229269547,48,30,21,11,21,9,20,15,-15,-15,36,45,27,-9,-3,-3
1490229269595,-35,-52,-40,-26,5,4,-5,-15,58,69,27,34,-1,9,-17,10
1490229269645,-34,-42,-26,0,-11,-12,-6,4,11,36,3,-17,7,4,-26,16
1490229269693,32,98,39,20,-19,6,15,43,-14,-106,-41,-24,22,-7,-15,-62
1490229269741,29,-17,-30,1,-1,11,23,5,-32,-22,26,-3,29,-8,16,12
1490229269742,60,29,45,20,14,-19,-12,27,-26,9,19,6,-9,-10,-13,15
1490229269790,24,-15,-19,13,-3,1,14,-12,-32,33,48,-22,25,12,22,-24
1490229269839,0,37,77,66,28,5,8,4,37,-46,-90,-59,2,11,15,-2
1490229269887,-76,-22,24,30,12,14,3,6,28,70,-24,38,27,-12,-17,-21
1490229269936,42,-86,-23,-45,-29,-2,-10,14,-60,59,-47,-11,-15,-5,-41,10
1490229269984,49,52,33,-9,-2,5,-17,-38,43,45,21,31,-1,2,-7,35
1490229269986,-61,2,-16,-19,3,-2,12,-8,-47,-59,19,18,-12,3,-11,-10
1490229270034,5,10,65,23,10,-14,2,13,10,-7,-2,24,-19,-2,15,20
1490229270082,-1,3,-9,-1,14,14,-12,1,20,-16,-29,-22,-24,-3,-3,-10
1490229270131,12,34,-19,-11,-20,1,43,12,80,-25,-48,-24,17,-3,-24,-8
1490229270179,26,-10,9,19,21,-6,-2,2,-26,-3,7,3,-11,-4,-9,-17
1490229270180,-9,17,20,3,-6,15,-11,-11,-21,-27,6,15,8,-1,4,2
1490229270229,15,7,-8,-2,2,-4,3,-2,-3,-3,14,-6,-9,15,-1,-14
1490229270277,-40,3,10,10,-7,-20,2,-18,50,7,1,-6,8,9,9,8
1490229270326,-5,6,-8,-5,4,17,26,-4,-9,-4,-3,13,8,-10,-11,13
1490229270375,39,0,-3,-9,9,14,23,17,-20,3,1,-14,-38,-25,-20,-5
1490229270423,23,4,3,15,0,-15,-23,0,-13,-2,-4,-36,-27,5,10,8
1490229270425,6,1,9,3,-11,-32,-17,-11,-3,-6,-3,-9,-39,-5,-13,-14
1490229270472,2,-4,9,-4,5,17,7,2,-6,-2,8,13,31,20,2,-5
1490229270521,-33,-13,4,10,-25,10,-26,-28,-9,-3,1,-13,10,-3,-4,11
1490229270570,0,1,-2,18,35,11,7,5,17,-1,-13,-18,-7,4,-14,6
1490229270619,-13,-11,-7,-6,5,10,-3,-10,-19,-5,3,-10,0,-3,7,4
1490229270667,-19,-11,-26,-38,-35,-40,-23,-9,9,7,8,7,3,10,-11,1
1490229270669,31,36,11,45,0,4,-25,-22,-15,-19,-25,-44,-15,-20,4,3
1490229270719,22,-15,-2,-25,-3,10,-4,-11,-28,12,44,47,14,-12,-3,-7
1490229270766,-4,5,-3,12,-24,-10,-10,-3,28,46,-16,-37,13,4,-7,-10
1490229270815,23,55,65,27,17,3,40,25,-55,-26,0,23,0,-11,16,4
1490229270863,-44,4,-65,-29,-27,-7,0,-15,6,-40,26,15,39,19,11,4
1490229270865,-17,-38,37,-6,13,-12,-4,0,-15,67,25,52,20,17,11,10
1490229270912,19,51,-33,-54,-17,8,23,8,-32,71,-3,-37,-15,0,8,0
1490229270960,-45,72,17,7,7,9,-12,-9,58,-7,-56,-23,-19,-9,14,-5
1490229271008,-61,104,16,23,-31,-12,-19,-43,-24,-111,-104,-8,3,-19,-6,10
1490229271057,36,46,26,48,33,-7,-31,18,30,-60,-128,-55,-11,-2,42,0
1490229271106,119,115,-42,-13,-52,-17,-11,23,-75,-81,3,55,44,5,-28,-40
1490229271108,-65,-29,-106,28,6,12,-13,-52,61,114,127,6,17,13,-18,75
1490229271155,40,-75,27,98,37,10,-13,12,84,34,25,-72,-11,-7,14,9
1490229271205,127,101,120,36,18,18,15,58,-49,39,16,127,40,19,-9,-34
1490229271252,-104,54,-14,-128,-57,-15,-34,-56,103,26,59,11,11,21,64,57
1490229271301,76,117,84,88,62,31,3,-17,-36,-53,-67,-13,-8,-18,1,6
1490229271349,-11,51,-34,62,-13,-16,10,30,27,3,35,-23,-2,7,-11,13
1490229271350,-74,-128,-111,-52,20,-23,-24,-38,1,60,63,-30,-35,-3,-17,7
1490229271399,7,-26,-45,58,9,-6,-8,3,12,11,-54,-79,-7,0,-2,4
1490229271447,35,85,51,53,14,5,26,26,12,-16,89,81,-8,-9,-25,2
1490229271544,-75,-11,0,13,52,10,-1,-33,34,47,27,29,7,-19,-29,-11
1490229271544,-12,4,43,8,9,-11,20,-2,31,20,-33,20,8,10,17,0
1490229271545,8,-19,-4,-14,2,0,8,17,15,60,30,70,3,-4,-14,5
1490229271593,3,-19,2,9,11,-3,16,5,-2,2,8,-24,-17,-18,-26,-13
1490229271642,6,-6,21,2,-47,-15,11,8,-14,5,28,-4,8,3,-27,-6
1490229271739,-1,12,22,-27,-12,32,-1,-1,8,7,-26,42,2,-27,-22,0
1490229271742,-2,7,-10,1,12,-6,-33,-23,19,-2,18,2,-19,11,-3,20
1490229271790,-27,-12,-2,-14,5,-1,0,-28,0,1,14,27,2,-13,-5,5
1490229271795,7,-7,5,37,58,-6,31,21,-20,-15,-38,-82,-19,6,1,-9
1490229271837,15,17,14,31,39,-3,-13,6,39,11,20,28,-11,-19,2,24
1490229271886,4,4,28,53,-42,-8,6,-2,15,-6,-29,-67,57,57,4,2
1490229271935,-25,-32,-45,-57,2,4,39,-6,14,5,17,32,44,18,-43,9
1490229271983,-11,-11,-4,34,36,-30,-40,-28,14,0,-19,-49,2,-6,20,14
1490229271985,19,-9,8,16,-41,22,29,17,-40,-11,11,20,-20,-20,-16,-26
1490229272032,22,-1,-6,2,51,-5,-19,3,-19,-21,-10,-21,-47,-3,36,-10
1490229272081,-11,-5,1,-7,-41,-5,-1,-3,16,21,12,14,17,5,-45,5
1490229272130,-4,6,6,9,56,28,6,6,14,-1,-8,-24,-33,4,16,4
1490229272178,2,9,17,45,-16,4,-15,-9,-6,1,-8,-23,-6,2,21,-4
1490229272226,24,7,9,15,-16,3,11,18,-2,-3,-20,-50,40,48,12,-5
1490229272229,-1,14,-8,8,12,-11,14,0,3,-10,14,22,-24,0,21,-3
1490229272278,14,-15,-19,-51,-28,-3,10,-4,22,5,-4,-24,-46,-24,28,16
1490229272325,12,47,-7,7,4,-6,-1,15,-99,-113,-30,-8,-12,-16,-1,-26
1490229272374,30,47,36,27,31,28,-11,26,13,-26,-1,2,5,-13,35,0
1490229272470,-37,-13,-15,11,65,23,-2,-26,12,-14,-61,-77,-37,5,16,3
1490229272472,23,-26,-42,16,-29,-21,-22,-12,-37,21,-22,-32,-4,7,6,-10
1490229272568,50,41,17,1,-1,7,2,9,30,-24,-34,2,-17,-10,18,20
1490229272569,2,-26,-51,-25,-2,-2,-20,16,-48,42,31,-7,-9,2,-20,-47
1490229272570,66,23,-42,-29,6,-12,3,35,6,-41,-22,-17,-43,5,32,37
1490229272617,-42,23,-13,-4,-12,-10,-14,-29,80,-2,-9,-23,-7,4,-12,22
1490229272665,-19,46,41,24,19,5,-3,-35,48,-3,-28,-21,-13,5,20,32
1490229272668,0,57,-16,-16,-24,-7,-19,-7,-66,-72,-61,-25,-10,-4,0,-13
1490229272715,35,-23,5,8,-17,21,23,8,18,69,2,10,4,-12,-6,3
1490229272766,-25,-79,-29,-20,-13,-21,-7,3,-27,-22,-23,16,-16,4,-13,-35
1490229272812,-8,26,5,-5,-24,-15,-32,-17,4,-40,2,-15,-9,-6,10,9
1490229272861,21,-4,-7,6,10,21,35,26,61,26,14,2,5,19,-16,19
1490229272909,-18,-25,3,22,-5,-35,-4,-14,-9,22,-11,-10,-13,-11,-18,-14
1490229272958,42,-10,-12,-4,4,21,9,24,-34,-24,9,4,-17,-5,-25,-26
1490229272961,7,13,-13,-10,2,29,27,-6,-10,-1,15,33,9,-12,-22,-11
1490229273007,-61,-9,0,-7,18,28,-1,-49,28,1,4,11,2,-2,39,14
1490229273104,-36,-3,0,-17,-11,8,-53,-21,18,-1,7,26,22,-23,8,16
1490229273153,24,3,5,5,0,-11,-2,-6,-10,-6,-3,-1,-15,-12,-23,-14
1490229273155,5,6,0,-2,-8,6,29,17,20,13,11,-1,-1,18,-10,1
1490229273155,17,-2,-3,4,-11,-17,28,14,-42,-10,-6,-14,-9,-3,-11,-18
1490229273202,-23,-17,-2,2,-8,-19,-26,-30,9,-2,-9,-5,-9,-4,0,-12
1490229273251,16,4,-5,-9,-3,-12,-2,5,-1,-1,1,31,48,15,2,14
1490229273300,20,1,-1,1,0,-9,-44,13,7,-2,3,0,-13,-24,-18,-2
1490229273348,27,5,5,17,5,-49,21,-19,-31,-4,-1,-16,-10,23,-10,6
1490229273349,8,-1,-4,-4,-3,2,3,5,12,3,0,-5,9,-2,7,-1
1490229273398,7,4,3,5,4,-9,-5,18,-26,0,1,2,9,22,-30,-14
1490229273446,-7,7,-2,3,-6,1,-9,-16,39,11,3,-17,-26,13,5,22
1490229273495,-104,-27,-9,-10,0,6,-7,-82,53,13,2,0,-7,-47,-21,24
1490229273543,3,8,-5,-4,21,26,16,17,40,3,6,8,-15,-14,39,-6
1490229273591,2,-7,3,-6,-29,-6,20,3,-61,-6,-1,21,41,35,11,-9
1490229273592,-7,3,-5,-7,7,-10,-61,-4,24,2,1,-16,-28,-5,4,5
1490229273641,5,-6,-3,-13,-38,-36,-19,-8,16,-10,-3,21,33,41,-14,18
1490229273689,36,3,2,13,20,32,20,4,-21,-5,-15,2,10,-10,-10,5
1490229273739,15,-2,0,-22,-11,-17,-5,20,-1,0,8,6,11,35,31,-6
1490229273787,25,-1,4,-10,-22,-14,-3,7,-23,3,0,16,-22,15,-39,-8
1490229273836,4,-1,-8,-15,7,-3,29,8,31,7,5,-6,1,3,5,21
1490229273837,-15,-4,2,5,9,16,-24,-13,28,8,1,1,13,-4,33,23
1490229273885,21,4,-9,0,-2,13,3,16,-65,-12,-2,-21,-19,-20,-22,-18
1490229273934,51,-10,-3,-15,-19,3,7,41,-21,2,9,18,-22,-26,-3,-33
1490229273982,-21,-4,-5,-11,-24,-22,-11,-18,38,7,6,-4,10,-4,-7,28
1490229274030,11,4,-1,4,4,-23,-30,-1,-14,3,1,2,-22,-7,6,-4
1490229274033,38,2,-3,6,16,2,3,16,-16,-8,-2,2,4,-25,-25,-23
1490229274080,19,-3,-5,0,-38,-4,7,4,-3,0,-5,1,3,9,-6,1
1490229274128,-34,-6,-9,-24,17,8,47,-5,4,5,-2,10,-4,-20,-32,8
