1490743110915,-56,-46,-10,1,-17,36,-10,-10,-29,-20,-90,-51,-89,-114,-100,-113
1490743110964,-2,6,-12,-5,7,12,19,13,9,-1,1,0,11,30,-1,21
1490743110965,-7,-2,-7,-8,-22,-2,-11,-36,5,1,18,6,2,-4,16,-4
1490743111013,9,-4,20,10,-4,4,-8,3,1,-2,1,-3,-3,14,-6,7
1490743111062,2,-3,11,-8,2,-7,2,-8,6,2,-3,-11,4,-9,-16,-7
1490743111110,-4,3,0,-5,-12,-7,-7,-9,-2,0,3,6,5,4,-10,-33
1490743111159,2,-4,0,11,7,-4,4,3,0,2,-7,3,0,-5,-6,-9
1490743111256,3,0,8,-1,3,-7,13,-3,-17,-1,9,5,-2,6,-20,-37
1490743111257,5,102,-4,5,8,-15,-9,9,-8,56,-3,4,1,-31,-1,-7
1490743111258,-9,34,-3,-3,-4,9,7,-2,4,11,4,10,-9,-5,-14,-1
1490743111306,7,-42,-11,-14,-16,0,5,14,-29,-45,-23,-20,-9,5,2,-28
1490743111354,1,4,3,1,-7,3,-13,-20,2,5,-16,7,0,-5,15,5
1490743111403,-4,15,20,42,12,-5,25,5,12,-9,53,48,8,8,4,-8
1490743111404,-19,2,-9,-4,6,-11,-17,-26,-19,-3,-31,-39,-4,8,3,-12
1490743111452,-1,87,-9,-72,-14,-38,-3,2,-2,27,10,9,0,-16,25,19
1490743111500,0,19,32,49,7,46,-7,-27,-17,-1,-100,-70,-39,21,0,-19
1490743111549,-15,10,-50,-36,-5,-61,51,-31,-4,-4,81,22,7,-1,12,45
1490743111598,-69,-2,22,16,3,-13,-24,-44,-8,-5,66,45,-6,56,-49,-16
1490743111646,57,4,-128,50,-1,2,27,19,-51,-1,72,-64,-15,29,-58,-42
1490743111648,13,1,-13,16,-11,-16,-1,5,4,-11,64,32,-2,57,2,0
1490743111695,0,-2,-65,-34,11,102,-10,-34,22,2,4,12,3,99,-30,53
1490743111744,-16,2,127,38,-8,-27,-86,-43,-49,-2,-53,-9,-4,-25,-23,0
1490743111793,-26,0,-43,-7,11,1,11,2,-35,-1,103,46,5,-5,23,-4
1490743111841,11,-1,91,10,2,-3,-6,7,-28,1,59,77,2,-3,9,5
1490743111843,78,0,-57,-81,-9,-2,70,34,-7,-2,41,-62,-12,2,-25,-19
1490743111890,-66,-4,-82,-45,-33,-9,9,-39,29,3,-43,-58,19,0,55,26
1490743111987,63,-2,77,40,12,0,-19,9,-40,1,-33,-41,7,-2,-16,5
1490743111988,-54,4,-87,-63,-32,-4,-60,-30,-62,-4,15,-50,-22,1,10,-29
1490743112037,-23,-3,111,43,-32,3,45,24,72,-2,-128,-38,-7,8,-42,-2
1490743112085,12,0,39,-6,14,-3,21,29,35,-3,127,78,-7,-2,2,-19
1490743112086,-36,-4,-96,-71,-9,45,-49,-51,-11,-2,83,-26,-22,47,5,-3
1490743112134,62,-4,109,0,2,-7,-34,12,-49,1,97,50,24,-31,21,-7
1490743112183,79,-3,88,104,15,-40,6,-1,-32,2,-68,5,-19,7,-37,19
1490743112232,-76,-5,-116,1,3,-87,4,27,18,9,-29,-87,-11,-78,-16,-39
1490743112280,97,3,111,85,38,28,-18,-8,42,-1,127,127,45,39,4,45
1490743112328,-33,-30,33,33,14,-3,-13,-49,11,-32,-12,5,11,107,16,-66
1490743112330,104,118,88,103,11,-121,-30,33,-72,87,1,-4,-16,-128,58,4
1490743112378,0,-54,-3,-38,-20,24,-27,-2,-3,-35,113,20,22,18,-45,-11
1490743112427,-21,9,-18,-17,-7,48,-35,-15,-31,-22,-103,-69,-32,27,-68,-12
1490743112475,-68,-70,-62,-119,-75,-7,-20,-108,-15,-83,25,-23,39,10,-28,-51
1490743112524,41,55,28,127,66,7,33,127,60,14,-26,-128,-34,-8,-11,54
1490743112525,18,-70,27,8,11,0,35,81,-33,-8,25,62,3,-3,39,19
1490743112573,4,4,-1,-5,88,1,27,44,43,-43,-61,-17,-9,0,60,65
1490743112622,-78,-40,-128,-128,26,2,8,-28,15,-6,70,-6,44,-3,-68,-30
1490743112671,70,101,4,19,27,-1,1,46,-25,58,11,115,11,4,-60,124
1490743112719,31,-7,8,-38,-122,-4,-16,-54,99,-35,3,11,-57,3,28,14
1490743112767,8,-60,-111,-59,-23,-1,41,119,-19,-12,58,40,-44,0,30,121
1490743112816,-65,4,32,-35,-30,-6,119,-4,13,45,45,-17,-2,-5,53,0
1490743112817,-25,11,-27,22,23,2,-89,-28,-11,29,-89,-46,52,1,24,107
1490743112865,31,1,-27,-65,-50,-5,25,-10,10,5,3,74,-12,0,7,30
1490743112914,12,-3,16,-6,60,2,-35,-24,12,2,-57,-120,-46,-1,47,38
1490743112963,-16,-2,113,66,17,1,-81,-8,-16,2,28,102,-47,-4,-21,81
1490743113011,59,-2,-24,34,66,5,-68,-27,81,0,-62,-87,127,1,-64,-46
1490743113012,16,-1,8,-65,83,-3,-11,40,-3,0,-74,-82,-71,-5,-40,-6
1490743113060,-114,-1,-86,-128,-128,3,-121,-74,-128,-1,73,74,-39,-6,-128,-114
1490743113109,45,-1,-3,55,-10,-14,127,53,47,-1,20,78,10,-7,38,25
1490743113158,28,-20,10,57,43,-2,58,12,48,4,-6,12,55,-1,80,14
1490743113206,17,12,-45,-84,-120,1,15,8,32,-96,10,36,25,2,-45,4
1490743113207,27,23,39,14,-22,-1,21,3,9,35,30,-3,21,-1,0,2
1490743113255,16,-32,11,15,27,-8,-6,34,15,24,14,-20,-12,-2,34,23
1490743113304,4,34,53,48,93,2,-26,17,22,13,-18,-57,-128,1,40,104
1490743113353,26,-10,19,18,71,0,11,-18,53,-4,10,18,57,-1,-38,-28
1490743113402,-29,15,41,12,-16,2,-7,-71,-56,-3,37,34,2,-3,-52,-67
1490743113450,33,-42,30,7,52,-4,27,33,13,-49,19,13,48,3,-27,-15
1490743113451,-23,1,-62,-22,45,0,0,66,94,6,8,-45,-39,0,-29,57
1490743113499,6,10,69,36,6,-4,81,41,-18,85,88,32,55,3,-42,46
1490743113548,-30,-35,-88,-35,65,0,5,-33,5,-90,-128,-52,124,-1,-17,-66
1490743113597,17,-11,82,71,13,64,-128,73,-34,-3,-60,1,-96,41,-121,-3
1490743113645,-51,59,-100,16,5,66,23,20,-16,-96,61,26,104,127,104,3
1490743113693,-96,-51,-2,26,-22,-85,-49,-45,-5,48,4,39,111,-12,-21,-4
1490743113695,-15,23,25,37,-70,-93,95,-106,16,-93,-3,29,-103,-67,127,39
1490743113743,49,2,-42,-4,-100,-128,-128,45,0,-28,42,16,-12,-48,18,20
1490743113792,-10,32,17,24,-22,35,99,-12,-16,69,75,54,-28,81,112,47
1490743113846,-56,0,15,-12,15,-16,-13,-103,18,-55,21,5,-5,-24,-5,19
1490743113889,19,-32,-46,-49,17,-49,-4,37,8,-34,-48,-28,-16,-42,-10,-21
1490743113890,68,-6,34,15,6,13,-5,-17,-62,2,-4,-22,-12,36,-57,-31
1490743113938,-1,-111,16,9,-5,-50,-14,-9,11,-127,-111,-44,-23,-128,13,17
1490743114084,55,-60,-93,-32,-50,-90,-67,16,-26,-30,-64,-23,0,-74,-18,80
1490743114086,12,26,-6,22,-15,-101,-14,47,18,-10,35,-2,14,-73,74,12
1490743114087,73,22,67,61,15,9,-16,57,-14,-9,-8,43,25,1,32,30
1490743114181,-15,42,26,12,-2,24,-10,-26,-24,32,70,6,-10,-6,0,-44
1490743114182,39,-47,41,15,18,6,-27,57,21,-66,-17,-8,47,-2,14,-12
1490743114184,63,125,-5,-2,-23,6,2,-29,-72,109,6,33,16,-1,17,-9
1490743114231,-10,-104,86,65,-60,2,56,-12,52,-128,31,6,-63,-4,-63,-28
1490743114280,-32,108,75,4,68,-1,-13,51,46,95,49,0,113,-1,7,26
1490743114328,-8,-38,23,13,-29,0,-64,-29,32,-25,6,7,-9,2,-2,-20
1490743114376,14,77,-29,17,61,1,15,-4,22,105,-52,-11,22,3,-10,46
1490743114378,-51,-98,-72,-48,-54,4,31,-7,16,-74,-13,-13,-64,0,-2,-50
1490743114426,-49,35,-18,-16,-110,-2,7,-20,0,-117,-29,-45,-82,-1,64,13
1490743114474,6,-41,24,8,45,-4,42,46,-51,-112,61,22,51,0,-14,-75
1490743114523,-14,10,-33,-10,15,-1,3,40,3,-21,-20,25,31,-2,-36,62
1490743114571,46,81,75,68,43,-3,-9,-4,37,20,40,10,-17,-5,10,-17
1490743114573,17,-23,-3,-23,-38,2,-38,-37,-37,34,-23,-19,-14,-1,27,26
1490743114621,24,36,-26,-6,10,0,5,-21,27,-8,-20,-6,26,0,-10,-8
1490743114717,29,36,119,37,34,-2,-4,5,7,20,72,41,35,-3,10,-75
1490743114719,41,77,-17,-15,-24,7,-31,4,35,43,-39,5,-42,8,10,9
1490743114767,-70,-29,-45,-89,31,-1,-13,-16,6,-14,5,-19,95,-3,60,-5
1490743114815,43,0,20,0,-33,-1,0,49,-31,8,-45,-38,-58,0,-32,10
1490743114816,-55,-3,37,24,24,-1,-35,-128,-21,4,47,-43,22,-4,9,-126
1490743114912,81,-2,67,15,-4,3,25,-49,33,3,76,28,-7,5,-30,34
1490743114913,-29,-1,-32,-112,-6,-7,8,42,43,-4,-37,19,-24,-6,29,38
1490743114962,43,1,60,2,-48,7,-5,-25,-4,0,17,-105,-55,1,-15,-16
1490743115010,-6,-1,11,5,1,-3,-3,-20,-14,0,4,-4,-13,-3,18,-16
1490743115011,-5,0,-65,-62,-29,-2,2,-9,36,3,-9,25,7,2,19,-18
1490743115059,11,-4,34,-32,3,1,-26,39,20,-5,22,-24,29,2,21,-42
1490743115108,6,0,49,-7,2,0,21,3,8,0,-93,-110,-9,-2,-2,56
1490743115158,13,1,-116,-68,-13,1,8,-73,-39,2,-95,30,0,3,-30,11
1490743115206,9,-3,85,-104,-18,-4,-37,13,109,-5,-93,-117,6,-4,1,-65
1490743115254,-30,0,19,80,-3,-3,38,55,-50,-3,38,126,13,1,-15,-48
1490743115255,42,-4,72,-11,6,-4,-41,18,3,5,39,-73,-7,-3,25,-8
1490743115304,16,-5,-10,-10,6,1,2,9,-53,-4,-115,-52,-18,5,0,-3
1490743115352,12,-4,-51,58,23,-6,10,-26,-24,5,-92,54,-17,1,-24,47
1490743115401,-5,4,67,-80,6,-6,-22,-24,-2,3,26,0,14,-2,-12,4
1490743115450,52,-2,-97,-62,26,-1,-3,51,-29,3,14,-22,-2,-2,42,12
1490743115497,16,5,24,24,-28,2,18,59,25,-3,-18,-54,-8,-3,-7,-28
1490743115498,69,-1,28,-87,-7,-4,22,-27,20,0,46,41,-3,0,25,76
1490743115547,-27,-3,23,-25,21,-5,17,-8,98,-4,122,69,11,-1,6,-16
1490743115595,33,-1,-26,111,11,3,14,-40,22,-1,14,16,13,-1,-22,-14
1490743115644,-58,1,-110,-27,-27,-3,-50,-6,-33,-2,-49,-72,-5,4,-6,-30
1490743115692,-75,2,-114,-64,-22,-2,23,8,45,-4,18,-57,-4,-2,-23,29
1490743115694,-40,0,64,29,8,-2,-24,-62,37,-2,-128,30,3,0,31,34
1490743115742,7,3,-39,-37,-19,3,-35,14,-18,-3,-14,-54,-25,0,-18,17
1490743115838,-59,-5,-45,1,12,1,-58,37,-33,1,-3,5,-4,0,-32,-28
1490743115840,-54,8,22,-35,-27,-6,34,4,-40,14,25,-75,-9,3,9,7
1490743115936,-57,-2,-17,-3,-17,-1,-64,-82,12,7,18,-13,-4,2,6,-3
1490743115937,5,-2,-37,-23,-2,2,28,-16,31,0,62,31,-10,1,-62,-4
1490743115939,-42,83,109,10,-7,-52,-6,-28,5,112,28,78,-3,100,-14,8
1490743115986,-21,-124,-107,-5,-19,-39,-29,-14,-114,-31,-32,-3,5,-2,-23,-89
1490743116034,-46,-2,40,55,32,3,-10,-8,-6,-15,-52,33,0,-20,58,40
1490743116083,-68,-59,-106,-23,-20,34,11,10,51,-116,52,6,-19,82,4,-5
1490743116131,-41,62,12,-5,26,0,16,-30,127,-86,-62,-27,-4,-117,34,14
1490743116180,-13,-42,-23,22,7,49,-6,7,-79,-115,-128,-53,-36,57,-5,-32
1490743116181,23,-109,127,125,1,4,13,7,-18,-128,-51,-34,-3,28,25,14
1490743116229,20,-19,-32,-22,-34,-3,32,60,-58,15,7,-55,-8,13,97,-20
1490743116278,-35,-23,-39,-51,2,-3,-22,-43,-4,-54,-77,-35,3,-1,-43,-59
1490743116327,-2,-26,-54,-59,-27,-5,-48,7,-12,-28,-123,-52,-24,-3,-55,-103
1490743116375,-24,-105,99,52,16,0,-73,40,72,-41,13,86,31,1,-10,81
1490743116376,-24,-12,-31,-16,-38,2,18,-14,-29,-21,-8,-69,-28,0,-9,-54
1490743116430,-3,-12,83,95,10,-2,-42,13,22,-56,-23,-1,8,1,28,58
1490743116473,90,35,-4,-86,89,3,26,-1,-38,-67,-81,8,25,3,28,-63
1490743116522,-47,-128,-20,-96,-29,4,77,-60,0,-38,67,42,-48,0,-46,-17
1490743116571,-63,-17,-33,23,-15,-3,-15,-23,2,-26,-36,-64,49,-2,10,98
1490743116619,-20,-15,18,4,35,-1,-31,-26,-67,40,-52,-21,34,0,-64,-25
1490743116620,-38,-41,-92,-39,49,1,29,26,38,39,-21,-61,48,-2,-44,-34
1490743116669,-33,-45,-11,-32,21,-4,-3,3,-51,-27,-33,8,-26,-1,47,-25
1490743116717,-10,-4,-79,-95,0,-1,-3,-2,42,-3,52,-18,-13,-2,-104,27
1490743116766,30,23,12,31,49,-1,-8,67,5,-24,85,127,127,-1,-82,17
1490743116814,-20,-57,-10,-21,-2,-3,50,12,-2,-43,-80,-59,-63,-5,-3,-15
1490743116863,25,19,58,-29,33,1,-38,-4,-12,-44,-26,-100,11,5,-10,-49
1490743116864,15,40,-42,-38,-39,-1,-21,19,45,59,9,71,-54,-5,37,46
1490743116912,11,33,20,47,-34,0,-10,9,4,26,-96,-23,46,2,-28,-34
1490743116961,-21,-51,-7,-23,24,3,-37,6,23,-10,-60,-19,-33,-1,22,20
1490743117010,-20,-5,-26,-53,-51,-4,-26,-12,-10,9,51,33,45,-1,55,0
1490743117057,32,43,107,68,40,-2,-78,-2,-26,-6,-55,-123,84,1,11,-25
1490743117059,-19,-49,-51,-82,-92,-1,20,-31,39,61,124,127,118,-1,-104,-39
1490743117107,-34,-10,-34,-78,54,-2,-29,1,-23,-6,-32,-21,-46,-3,53,-62
1490743117155,11,-45,-46,-37,-33,0,-17,-28,10,-7,11,34,-67,-1,4,-3
1490743117204,-1,30,76,82,99,1,-1,-7,-21,-38,-19,-54,-75,-2,-14,32
1490743117254,-32,-17,-56,-71,-15,0,36,18,-13,3,3,46,-72,6,2,31
1490743117301,13,60,97,81,11,-2,-25,29,6,-8,-51,-45,-10,3,-3,16
1490743117303,-16,22,22,-11,-36,0,37,0,-15,-8,-25,10,-4,-2,-8,27
1490743117351,-32,-60,-125,-106,-8,0,-39,-33,16,-20,42,38,-18,0,-46,-19
1490743117400,-27,-3,-2,-11,13,-2,45,2,-20,-8,-6,12,-48,-3,1,-27
1490743117448,18,-14,-65,-20,-23,-6,25,31,-15,-6,0,22,-59,-2,-86,-20
1490743117496,32,-14,-55,7,-38,-3,15,8,-23,-31,-17,-14,-22,1,113,-25
1490743117498,4,-34,5,14,17,1,-128,-4,24,22,66,35,28,0,1,-42
1490743117546,-16,-16,-17,-14,15,-4,97,-41,-6,-6,-12,-33,-5,9,103,64
1490743117594,1,-48,-32,-40,35,26,-20,-17,-2,-18,-70,14,59,4,8,29
1490743117643,55,81,55,29,10,-49,-11,-14,0,76,81,10,-25,-18,-32,-53
1490743117692,-16,-24,7,2,-5,2,-49,3,47,-25,-5,5,-1,80,8,20
1490743117740,-71,-128,-108,-124,-33,9,57,-27,-2,-50,4,-12,-25,-47,14,-10
1490743117741,17,-24,-39,-29,-3,42,1,68,-8,-15,6,15,-15,76,-32,25
1490743117789,-36,-53,23,14,-8,-2,19,-41,0,19,13,-19,-25,-93,30,-11
1490743117838,-81,-52,-97,-38,-5,-81,33,28,-32,-96,-46,-24,-12,-78,-41,-21
1490743117935,22,-44,93,69,3,-2,-48,1,-10,-32,-25,-13,-4,36,45,16
1490743117936,46,-17,27,29,24,-25,-30,-17,-8,-47,-47,-3,-5,-82,-33,7
1490743117983,87,-102,1,-2,14,-97,14,73,-12,-50,-7,8,-17,-9,-28,8
1490743117985,3,60,34,12,-18,-12,19,-60,34,-54,80,41,-15,98,-2,51
1490743118033,-10,17,-74,-30,-10,-34,-11,-6,-37,27,1,9,8,103,20,10
1490743118082,41,-3,72,35,5,17,-16,42,-59,-38,4,32,12,55,-7,-15
1490743118134,-56,16,6,-2,-3,-110,-14,-51,5,-20,109,61,-2,-70,-38,17
1490743118179,49,15,-47,-42,17,26,1,-12,27,-73,-16,-18,7,22,27,-19
1490743118180,-22,38,40,49,-15,10,24,75,-33,23,-61,-69,10,-9,24,-28
1490743118228,71,-8,0,1,-82,-16,82,102,-37,21,-19,11,-6,-17,-1,-75
1490743118277,4,26,88,20,40,2,-73,-16,13,65,-19,-21,-12,-5,17,-8
1490743118326,-74,28,35,20,75,6,-36,-45,31,35,44,-68,59,-3,-22,-47
1490743118375,-5,-6,-56,-32,3,0,14,-14,-31,1,-67,-22,-15,-4,10,-11
1490743118422,-79,-29,32,-3,37,-1,24,23,-17,94,7,20,-1,3,7,12
1490743118423,-11,-73,-48,10,-11,-3,-18,41,15,-8,-8,-13,18,-1,-14,22
1490743118472,-18,127,3,30,-31,0,13,-12,7,61,-60,-76,-59,0,11,8
1490743118521,-2,-46,-20,1,-10,2,-16,-85,3,45,-7,-13,69,7,18,40
1490743118570,17,-9,-11,-7,10,-2,-25,14,12,-67,-37,-4,-14,-4,-9,-3
1490743118666,-13,-34,0,5,-15,-1,10,23,-2,-10,-17,1,-18,-1,-4,-10
1490743118668,-68,119,-69,-29,-17,-2,-8,-87,26,6,30,40,3,-1,12,85
1490743118669,13,-16,27,2,-6,4,6,17,24,62,8,5,8,1,-38,-12
1490743118715,-4,60,-11,-1,67,-1,13,-70,2,34,40,14,50,-2,4,-99
1490743118764,-44,104,-34,17,-14,0,42,59,-20,52,13,25,4,0,-8,20
1490743118813,7,30,115,35,15,0,3,9,10,60,2,-17,31,0,-12,20
1490743118911,-30,-55,-51,-1,16,1,-64,-118,40,-5,5,8,5,-2,27,16
1490743118913,-12,-14,-1,-21,-5,2,43,37,-36,-10,-1,-7,10,-2,-44,-10
1490743118916,-15,-10,-80,3,12,-4,-76,-63,-18,2,-75,-18,-59,-3,30,-65
1490743118959,-10,4,-1,7,7,1,11,-40,-4,-5,-12,22,0,3,-44,-128
1490743119009,-6,-5,20,17,7,-2,16,109,13,-2,16,-8,14,1,-1,28
1490743119057,28,2,42,4,-3,-90,-2,1,-3,0,16,30,1,-69,3,-1
1490743119105,-86,-6,-43,-41,2,-104,16,-33,-103,0,-45,-26,-7,-72,-12,-71
1490743119107,9,1,37,-7,0,-26,-2,31,18,-1,-8,2,-9,-11,8,-8
1490743119154,-21,-3,-33,-45,-4,-8,-44,-51,-29,-1,68,-1,1,4,-1,-89
1490743119203,18,1,16,36,-3,2,30,86,-9,2,10,8,1,-2,-4,54
1490743119253,-7,-5,-14,-8,-14,-2,-12,-26,33,2,34,-17,12,-2,25,41
1490743119300,18,-1,-3,3,21,-1,-32,36,1,-2,-37,-9,-3,0,34,-12
1490743119348,-34,1,-50,-14,6,-1,-4,6,5,-1,25,19,-3,-1,-18,-6
1490743119349,-24,0,44,32,2,-1,-7,-12,11,0,-17,-38,-1,0,10,4
1490743119398,20,-3,-13,12,8,-1,-17,17,-42,-2,5,12,13,-1,-20,-46
1490743119446,-20,-2,-14,32,8,29,-16,6,11,-1,11,-10,-2,28,12,-5
1490743119496,11,0,32,21,3,9,13,23,0,2,26,-1,-27,34,24,29
1490743119544,-27,0,-108,-47,-46,-4,-21,-5,-33,-3,-117,-117,-9,-40,-29,-22
1490743119546,14,1,34,5,-9,-107,-16,-31,-18,-2,-7,1,4,46,-17,21
1490743119593,-25,3,-30,-33,12,101,-2,7,29,0,56,-24,10,111,-3,-12
1490743119642,-8,1,61,-2,4,6,21,-23,8,2,-52,89,-11,-15,23,-17
1490743119691,7,-4,91,9,-3,-21,48,-20,-51,2,-42,15,-24,-38,-32,1
1490743119739,-44,0,-94,-25,-3,-3,11,-27,13,1,-128,46,0,7,6,-14
1490743119787,29,-4,6,76,-24,9,-1,8,-42,-3,-54,13,-25,19,-61,-69
1490743119788,8,-4,109,29,11,-2,-18,-20,7,-3,20,47,45,1,-9,55
1490743119836,-21,0,-47,-2,-19,0,-11,-14,-2,-3,-44,-22,-15,-1,-4,-12
1490743119885,-78,1,-86,11,11,-5,-25,-18,77,1,72,-65,-5,2,33,50
1490743119934,-12,0,6,29,-9,7,-5,9,69,0,62,56,37,-10,63,-24
1490743119983,-43,-2,-85,-121,-46,7,5,41,42,2,62,-57,12,7,-4,25
1490743120031,57,1,94,94,22,-4,47,38,-64,-2,89,108,32,-6,-35,-66
1490743120033,127,-4,-83,-11,-21,3,-24,37,-89,-2,26,-12,-41,3,-64,-26
1490743120083,39,2,127,55,51,-4,-56,4,31,-3,68,85,-26,0,24,-22
1490743120129,28,-6,2,-48,-18,3,44,69,-104,-3,-30,-88,-16,-2,1,-46
1490743120178,0,3,68,-17,14,-3,-114,16,-88,-3,82,37,7,0,19,-40
1490743120226,-9,-1,-112,25,-22,-5,-3,2,-16,-1,-123,23,16,0,39,-24
1490743120228,34,-1,44,-8,-18,-4,-14,14,-11,0,-69,-7,-4,-7,19,-3
1490743120276,28,-2,115,85,49,0,-13,3,-104,-2,-80,50,-15,-1,8,-39
1490743120325,97,3,-105,-22,3,-4,-1,19,-97,0,-48,-10,16,1,12,-114
1490743120374,-42,6,-37,3,8,3,28,-27,-6,3,107,-31,19,-2,31,86
1490743120422,-47,-2,10,-28,10,55,-20,-15,17,1,78,16,-16,30,43,8
1490743120470,39,79,24,46,96,54,10,44,1,6,-107,-34,-47,2,-24,-30
1490743120472,74,-50,72,36,23,-23,1,63,-59,12,39,69,28,-9,37,28
1490743120519,5,-127,41,-63,-29,-9,-25,-64,66,-77,119,15,29,-1,-32,-27
1490743120568,36,72,27,-20,46,6,32,38,59,77,109,12,1,0,85,58
1490743120617,-98,-61,-6,-125,-58,-1,12,-36,55,-32,63,75,82,-2,-37,-31
1490743120665,2,-8,85,104,55,3,18,8,-11,-3,-15,14,-72,8,-34,-22
1490743120667,-79,-8,-128,-128,-19,-2,-20,-37,-4,12,-128,-128,-18,-3,-8,-32
1490743120714,0,-76,-58,-38,-53,-6,50,75,-13,-19,-19,-7,-28,-4,14,21
1490743120763,-56,-28,-36,8,-2,3,-15,-54,1,-62,-45,-44,-18,4,1,-24
1490743120812,10,-29,3,-3,-20,1,-47,2,-21,-49,-76,3,-18,-1,57,41
1490743120860,-27,-123,-128,-16,-24,0,5,-1,-27,-114,-37,-36,-65,-3,29,33
1490743120909,3,47,116,42,8,-6,14,58,36,127,38,37,-21,2,-62,-33
1490743120910,-10,-13,40,14,7,-1,-23,9,-22,-64,-63,-44,-52,0,33,9
1490743120958,-3,26,68,19,11,2,7,0,-20,-68,-23,0,-6,1,15,-27
1490743121008,-28,-61,14,73,24,-1,11,-22,-14,3,-9,-20,2,1,11,-14
1490743121055,-69,-44,-128,-42,43,-1,39,-30,-38,37,8,-8,50,-1,-56,-10
1490743121104,-13,9,53,33,-23,2,8,-29,-28,-11,-72,-31,-25,-1,-14,-58
1490743121152,5,-112,-82,-29,-52,1,5,28,-54,-107,-84,-43,-56,-2,9,-12
1490743121155,65,-12,-22,-62,48,1,18,28,38,41,98,126,31,-3,10,-45
1490743121202,-47,-16,36,40,10,5,-6,-5,-23,-22,10,-35,-37,3,13,10
1490743121251,0,-16,-63,-119,-109,-2,-24,-29,9,73,58,54,-21,0,43,-29
1490743121299,-60,28,1,62,25,-3,-12,1,-26,59,-6,-31,22,2,-40,31
1490743121347,13,48,57,62,74,2,23,-54,9,-60,-12,-24,59,2,19,-10
1490743121349,-3,16,-27,-32,-3,3,23,-9,-19,24,0,1,-39,-2,5,-17
1490743121397,-18,-61,-94,-86,-38,-1,-7,7,59,63,88,73,-21,-3,-75,16
1490743121446,-4,-22,32,29,-14,-4,48,4,14,3,-23,-39,1,0,42,4
1490743121495,28,18,43,34,55,-2,-61,22,-24,-2,-53,-25,12,0,53,-14
1490743121543,9,9,4,1,23,1,-58,-18,-10,-16,-17,-61,-19,3,21,-11
1490743121591,15,30,1,30,25,-3,62,14,18,27,-13,-65,-33,2,-53,0
1490743121593,-3,0,-11,26,-20,-3,24,8,-39,7,-6,-32,5,1,-26,-32
1490743121641,8,6,15,5,7,1,-17,-13,-17,-9,-7,11,-51,-1,-6,-1
1490743121691,-33,-11,-4,-23,-38,-2,-60,-28,-16,3,-2,-40,-88,-3,-1,-5
1490743121738,-33,11,-14,-29,-92,-4,41,7,6,-4,-7,-4,36,-4,23,-9
1490743121787,1,-8,2,-16,63,1,-25,31,-12,-4,-14,-7,127,-1,16,-1
1490743121835,-5,-16,-23,-43,9,1,-11,-5,13,9,-6,16,-2,2,-19,-18
1490743121836,-21,4,5,-12,28,-2,-61,-33,19,-2,-10,-5,25,3,-71,13
1490743121884,-7,-16,-40,-22,-10,-4,21,5,5,17,22,16,34,-4,3,-23
1490743121933,-3,25,41,14,-25,-3,10,-25,-12,-15,15,-7,-35,2,-6,14
1490743121982,30,9,17,15,10,2,-58,28,-76,-65,-72,-43,-18,-1,-6,-19
1490743122030,50,-4,33,-9,65,0,-97,80,8,-32,-11,3,-10,3,-109,2
1490743122032,-6,-65,-25,-27,42,0,127,102,-3,30,32,-17,-6,-4,119,-28
1490743122079,12,57,65,11,-2,40,126,-52,64,26,32,-14,-15,-89,103,109
1490743122129,-12,31,-71,-41,-49,-24,-2,32,13,-2,-26,-44,-25,-61,7,2
1490743122177,-11,-52,-59,-22,16,37,-72,9,-10,-76,-61,-6,20,61,-42,-10
1490743122226,-11,-3,-15,3,-30,122,-24,18,57,11,-47,-28,-21,118,7,-9
1490743122274,-15,34,1,-7,12,-128,-49,-30,6,-85,-7,-12,43,-47,1,-74
1490743122276,-108,-73,-12,-21,-13,-116,-41,-83,55,29,86,18,9,-120,31,-44
1490743122371,4,127,8,-4,31,16,-5,-22,-20,65,7,-15,25,77,7,-13
1490743122372,-20,-47,-100,-34,-29,-19,-46,21,3,12,1,-11,-1,24,45,-37
1490743122420,-2,114,32,22,9,-4,-21,-18,1,20,59,29,7,8,11,21
1490743122517,0,-95,-11,9,-11,11,38,34,-41,-34,-59,-22,-34,23,27,19
1490743122518,-82,84,-37,-16,4,-18,-5,33,-7,-57,-86,-41,-5,-12,-13,4
1490743122519,24,80,44,11,-9,-11,-19,3,25,123,-35,17,-28,14,16,22
1490743122567,85,-74,-25,-10,-10,34,-36,-47,-31,2,67,19,48,22,4,15
1490743122616,-107,-34,-57,-3,-15,-1,-9,40,59,-42,35,-4,2,-17,26,29
1490743122664,11,-4,118,57,26,-11,-18,-11,-82,-12,-23,21,10,-1,-6,-60
1490743122712,-87,24,38,-20,24,2,33,-59,-6,-16,-13,-6,48,2,71,59
1490743122714,-37,-73,62,25,-15,1,18,-14,91,-11,-19,2,10,-4,22,85
1490743122764,6,5,7,-6,23,3,12,29,72,2,21,29,20,0,5,46
1490743122811,-27,105,-39,-29,17,-2,9,33,4,-17,-9,-20,59,-1,-45,-54
1490743122859,21,-17,-30,11,-9,2,1,85,17,72,-23,6,-23,-4,22,10
1490743122908,35,-31,-2,14,-5,2,13,26,-9,-4,7,4,5,-5,12,-22
1490743122956,-11,-3,-10,7,-9,-2,-49,96,-34,17,-6,17,-29,1,-26,-10
1490743122957,35,3,-32,9,-14,-6,21,-110,-20,0,55,-3,-6,-2,-23,8
1490743123005,-34,0,-82,64,-9,0,8,74,-4,-2,-46,74,2,-2,5,46
1490743123054,-128,-1,95,-3,12,-14,7,35,-59,-1,22,-35,2,-4,8,45
1490743123206,50,2,-13,51,-24,-12,8,7,89,-1,-75,2,-65,-113,21,29
1490743123210,95,-4,4,-9,25,68,3,77,21,1,15,-49,16,71,6,22
1490743123214,0,0,19,0,20,11,7,-33,-19,-1,-20,3,15,12,-11,19
1490743123227,32,-2,-15,14,7,-128,-9,-11,29,0,24,28,5,-128,-12,-42
1490743123251,7,-1,7,-16,-18,-52,-13,-10,6,-4,-5,12,15,-71,15,3
1490743123298,-43,-1,-20,-38,-16,-20,5,23,-33,1,-39,-35,-15,-28,-27,-49
1490743123346,-67,1,-73,-52,-4,-4,-12,-32,-15,2,-24,-38,-9,-5,-3,-15
1490743123394,2,0,54,22,11,3,11,26,-9,3,-39,-55,-26,-4,-1,-27
1490743123396,-9,0,-45,-15,-12,-3,-30,17,-12,-4,36,60,-8,2,26,38
1490743123444,8,-3,-123,-128,-28,2,-43,23,74,-5,-128,-39,-13,-1,40,-8
1490743123493,-63,-3,125,17,-26,3,7,-15,-18,0,60,104,13,1,-14,-13
1490743123542,-60,-4,-38,-73,17,-6,93,-2,-29,1,102,49,-1,1,22,10
1490743123591,-28,-3,-11,107,43,3,1,26,2,2,67,123,24,-5,18,8
1490743123638,11,1,-4,91,2,-6,47,1,-11,-4,-128,-32,-12,6,-12,-11
1490743123643,-4,-1,-24,-59,-15,-1,3,56,-47,0,-22,63,8,-1,38,6
1490743123688,1,0,89,-38,11,0,6,-15,-28,4,-24,-88,-25,-4,-12,-30
1490743123736,25,-1,5,-40,-7,8,-15,15,49,-1,-44,49,-13,1,67,9
1490743123785,8,-3,34,-2,-2,3,-18,-1,-4,-2,116,35,27,3,27,3
1490743123833,-28,-1,-34,-32,-24,-2,-70,-22,-39,-1,41,-116,4,-3,60,11
1490743123834,72,-2,71,35,26,0,-2,-5,19,1,-111,37,2,-2,-4,41
1490743123883,-47,-3,-128,-83,-38,2,-6,-48,-79,-1,89,-48,-16,-1,-18,53
1490743123932,25,124,-98,-59,1,-2,-17,21,-98,127,-99,7,-6,1,-1,-82
1490743123981,-28,-83,5,-78,-2,-3,3,-88,16,-107,-26,-12,-26,-4,-7,5
1490743124031,-46,51,-101,-66,-19,3,3,67,33,34,-63,69,24,-1,-21,19
1490743124078,8,43,-71,2,-9,5,11,-46,-99,123,-55,-71,-6,-3,1,-20
1490743124083,-5,-100,127,124,39,-3,71,73,9,-128,-14,25,8,0,-47,32
1490743124126,0,-46,30,16,-26,-1,8,35,-48,-18,-105,-16,12,2,-12,-52
1490743124175,-29,-95,120,-8,-9,2,-21,-30,124,-68,-69,15,6,-1,17,116
1490743124224,-46,-9,-14,-81,-20,-4,0,0,-12,-19,-102,58,-60,-2,-21,-53
1490743124273,124,33,68,86,14,-2,-28,110,-46,-51,58,-11,2,0,25,-49
1490743124321,-52,-92,-82,-65,24,-8,28,-20,51,-59,84,59,-38,-1,-10,-11
1490743124322,-45,101,-26,-13,5,-1,-13,-18,-15,49,-30,-75,-1,2,4,0
1490743124371,-28,-66,-85,-42,-31,2,-36,-40,-5,86,-92,-17,44,1,46,20
1490743124419,4,35,-3,-39,23,-2,26,63,-89,-116,-80,-121,-36,-3,-39,-32
1490743124471,-24,13,31,15,-14,2,-10,-26,-8,-67,-53,-42,-3,-4,17,18
1490743124516,-57,-102,-17,-127,1,-3,-21,-41,52,35,29,-20,-61,2,44,57
1490743124519,-15,32,54,37,24,-1,5,29,89,115,127,93,62,4,-7,12
1490743124565,27,76,36,5,-22,1,-101,40,-47,-25,12,-73,13,-6,-20,1
1490743124614,-2,-6,41,80,9,-5,-114,-26,-27,-128,-32,26,24,0,-38,-16
1490743124663,-111,76,-128,-128,-94,4,7,-6,13,111,22,-8,-10,-1,16,81
1490743124711,0,-31,-24,13,-43,-2,-22,21,-3,97,-81,-87,-21,-4,45,-12
1490743124760,41,57,106,89,-31,-1,4,67,9,16,3,-83,31,2,22,12
1490743124762,-55,0,-99,-128,26,-4,44,70,-14,88,-69,68,-33,-3,-34,4
1490743124809,-3,-110,-35,-30,-4,1,-17,-7,-5,-64,7,-104,-49,6,96,9
1490743124858,-37,-57,30,51,-44,-3,-47,-25,13,-105,-30,-89,52,1,29,27
1490743124907,-28,-8,59,12,7,-2,-57,-60,19,-15,51,5,-71,-7,-41,-29
1490743124956,-34,-31,-13,-16,18,-2,40,42,60,-2,69,36,75,3,-55,116
1490743125004,-24,-63,-38,-61,4,-1,-23,-43,-11,-53,4,16,-26,0,-40,-40
1490743125006,-22,34,-16,-16,-21,-4,-10,-7,-1,92,-32,-44,-19,-1,17,-38
1490743125053,16,-37,31,63,-55,-1,-42,11,-40,-25,-5,-25,12,-3,29,-34
1490743125101,0,-16,-15,-68,60,2,4,-8,8,1,-19,-81,17,-2,5,3
1490743125150,34,44,109,127,73,0,64,27,9,-19,-52,-67,-39,0,8,-23
1490743125198,30,-16,-69,-61,-46,-4,55,2,8,-45,44,77,55,3,-63,-19
1490743125247,11,12,-9,6,19,2,-13,-10,-1,4,-4,-16,26,0,-30,1
1490743125248,3,15,42,-2,8,-3,-43,-2,12,34,59,70,37,-3,-86,-24
1490743125297,-7,-9,-12,22,-3,4,13,-26,7,-10,-43,-77,-34,0,13,-1
1490743125345,15,-42,-42,-23,20,-3,-16,20,1,-2,51,80,15,-6,-21,16
1490743125395,-18,-8,-41,-49,-37,-1,24,-16,3,-9,-17,-26,-9,2,5,8
1490743125443,8,13,47,92,16,0,-5,11,11,18,-33,-65,14,2,2,-22
1490743125445,-36,-31,-33,-19,-2,-1,-8,-12,19,12,-15,-22,-20,-4,-14,4
1490743125492,0,-9,18,28,28,1,-9,2,-7,-7,2,-7,9,3,5,-18
1490743125540,5,71,-22,-6,-112,1,17,-18,-30,21,33,-10,-128,3,-15,7
1490743125589,-38,-30,-72,7,61,2,-39,-43,-7,-16,-81,-39,16,1,0,36
1490743125638,-31,-16,-10,-21,16,0,-2,-32,20,59,-1,-35,45,3,3,24
1490743125686,4,-8,35,-5,6,-4,-28,-34,12,-51,83,85,-17,-2,0,-17
1490743125687,39,46,66,16,-21,1,39,15,-33,-44,23,-5,10,0,-22,-3
1490743125735,-7,8,-32,-23,93,0,-22,-21,-45,4,-119,-77,34,-3,9,-14
1490743125784,19,57,49,9,-30,1,13,-12,8,-3,-15,18,25,-5,5,-7
1490743125833,0,-59,-76,-76,-96,-3,-104,-20,17,22,16,34,24,1,-25,-1
1490743125881,87,122,127,38,19,0,0,-48,76,21,68,13,39,-1,74,86
1490743125882,-8,21,54,22,29,20,-128,13,-46,42,53,63,-6,46,-107,0
1490743125930,-36,12,46,3,41,9,32,110,16,85,107,42,-11,97,11,-45
1490743125979,4,66,92,8,28,-26,81,-52,11,-30,-43,-23,17,16,39,48
1490743126028,43,11,-4,23,1,70,19,41,28,46,26,-36,1,-34,54,10
1490743126077,-2,84,43,70,34,24,-34,-30,-46,52,-36,-6,24,-3,5,-10
1490743126125,91,101,61,7,-8,43,9,9,-40,-1,-105,-14,-3,-66,-32,-51
1490743126127,-11,-2,-44,-111,-19,91,7,-5,13,-41,46,83,8,35,49,6
1490743126175,8,127,42,11,-25,-36,36,-18,-34,85,-41,-49,-21,-77,-30,2
1490743126223,23,62,-66,23,12,127,30,4,-9,127,106,42,1,33,10,-13
1490743126272,-21,-115,-14,-35,-1,19,16,-23,-42,-115,-25,10,-1,69,-55,-24
1490743126320,-6,-2,96,95,4,-35,10,-37,76,73,47,8,20,2,39,32
1490743126322,-96,-31,-93,-55,-26,45,-25,-36,85,-67,-22,-4,10,57,-21,34
1490743126370,13,72,108,47,14,58,-5,-23,-11,22,-15,-19,-11,30,2,27
1490743126467,-40,-48,127,72,-4,-74,-29,-45,102,38,30,-6,-15,-76,-23,45
1490743126472,0,8,2,16,10,117,15,-11,-9,72,-19,58,21,22,34,20
1490743126515,-2,52,-58,-3,22,-67,37,38,-37,21,26,-34,-13,-38,-39,8
1490743126563,-4,62,32,15,-5,19,17,-29,-100,57,-61,-11,15,47,13,13
1490743126564,-56,1,-74,4,-36,42,-26,-12,10,5,75,14,-39,-17,-1,-24
1490743126613,18,26,72,-2,20,26,60,-10,-41,37,-35,-38,-19,20,5,92
1490743126661,33,-39,53,72,-49,27,-28,26,7,-63,27,23,-18,4,-41,-55
1490743126710,-12,38,19,-15,20,-28,-52,35,-24,58,-46,-41,-30,0,-94,-34
1490743126759,2,37,37,47,36,-7,23,-39,15,38,83,72,28,5,11,15
1490743126808,-35,-16,17,-17,-57,2,-14,-2,20,14,-4,-24,-7,3,22,-2
1490743126810,-26,32,-18,33,4,0,16,-43,-41,21,-14,10,-24,3,4,-84
1490743126857,36,26,23,21,73,-3,-53,45,-27,-25,70,57,47,3,-39,20
1490743126905,5,-7,-47,23,-14,3,6,-47,-33,24,3,-31,-30,2,-26,-58
1490743126954,31,-8,23,12,15,1,-22,77,4,-77,-21,-16,24,1,29,21
1490743127002,50,12,30,-27,-9,0,12,31,-19,53,20,36,-2,-1,5,26
1490743127003,-69,18,-21,-20,38,-4,-61,-30,-28,15,-34,-23,16,3,37,-17
1490743127051,42,3,56,12,21,-2,6,43,10,13,83,71,10,4,-6,6
1490743127100,-32,2,-17,-11,-1,-9,-32,-40,-4,0,-10,-15,14,0,-9,-55
1490743127150,5,-4,-1,10,-17,1,85,5,-12,0,-47,-42,-33,-1,49,4
1490743127199,25,-2,-10,7,9,2,-16,-39,-3,-2,9,-11,1,0,-27,-39
1490743127251,2,-5,45,51,-1,1,-10,15,-6,-5,-9,10,13,1,-48,-24
1490743127251,2,1,-24,-7,24,-2,17,25,15,2,-7,28,-1,0,25,10
1490743127295,-4,-1,-10,-4,11,-2,-4,19,4,0,52,2,-33,-3,-7,-9
1490743127344,9,-1,-16,-12,-18,4,-7,6,-6,-2,-16,-25,-9,2,-3,15
1490743127393,9,0,-40,-21,9,2,28,33,-11,4,-45,19,-7,0,-7,-64
1490743127441,-1,1,-34,2,11,0,-1,2,-2,2,-20,-19,-21,6,-1,-2
1490743127538,-23,-4,-56,7,-4,1,-27,-27,23,1,-19,-68,16,-1,-24,23
1490743127543,-14,-1,-6,-4,-3,1,23,-8,-6,-8,6,37,-11,-2,18,14
1490743127545,6,1,31,4,0,0,12,4,-7,1,15,8,-4,-2,22,-23
1490743127589,-4,2,3,-7,4,0,4,2,16,-2,7,11,-9,-2,1,4
1490743127636,-1,1,-15,-16,-10,0,4,-3,20,0,6,18,25,-5,-25,-1
1490743127684,-4,-5,24,-6,-8,0,9,16,-21,0,-20,-27,-17,-1,8,-7
1490743127686,17,-16,1,24,2,-1,-10,19,-9,-30,-7,-37,-12,2,1,-10
1490743127734,-7,7,-11,-26,-20,-4,-2,-24,12,-7,5,-17,-4,-1,-10,10
1490743127783,-11,-26,7,28,-14,-1,-21,-25,-8,-66,7,4,0,3,10,12
1490743127832,-7,73,1,-15,-3,-2,-10,-17,22,-1,17,10,-12,-1,18,11
1490743127881,-1,-16,-5,-13,6,7,-10,-7,-9,-47,9,23,-16,-1,-4,4
1490743127929,8,-93,0,-12,-23,-4,-10,0,-6,44,13,-15,-1,0,-1,4
1490743127931,-18,-23,-14,-4,7,-3,-27,-13,-11,-20,17,43,-4,-1,2,3
1490743127978,-4,4,-3,-42,17,1,-9,7,9,1,1,7,-13,-1,15,7
1490743128026,-11,4,5,-3,-20,0,16,-3,4,-3,5,-34,-5,3,-14,-12
1490743128075,13,1,-8,-35,10,-4,-17,-1,-1,-8,13,10,-3,-2,12,6
1490743128124,8,-1,-27,-8,-7,-3,-8,-2,-13,-1,20,-2,3,0,15,1
1490743128172,6,3,-15,-6,-4,-2,-4,-5,-6,2,23,20,12,-3,-11,-11
1490743128173,15,2,2,12,15,1,3,16,-11,-2,-50,-48,6,4,-8,2
1490743128222,25,2,-12,23,4,-3,51,0,-4,-5,21,43,-4,-3,16,31
1490743128271,-15,2,-26,-55,-21,2,-20,-15,-5,-5,-6,0,8,3,-3,1
1490743128319,6,2,47,14,6,0,16,-6,-43,-2,36,32,-7,2,-13,1
1490743128367,-3,-3,76,-25,0,-2,12,18,35,1,62,94,28,-2,-62,-11
1490743128369,19,-4,39,2,-28,-3,-46,5,-40,1,-97,-48,-26,-2,49,-33
1490743128417,-92,-2,0,-52,-21,3,10,-10,92,4,72,72,30,-3,-35,-12
1490743128466,-31,-2,15,72,3,7,-9,-27,6,0,-32,-54,-13,-2,36,3
1490743128514,98,6,-54,12,-1,-1,-50,-19,-2,-9,-127,-117,-36,-1,-6,2
1490743128563,45,-8,-15,-22,16,-4,45,27,-29,2,-118,85,7,-3,-50,-61
1490743128612,64,3,4,29,23,-1,-36,34,-9,-1,127,75,36,-1,21,-2
1490743128613,-12,-5,-128,-64,-23,-3,-72,-28,-65,2,74,-84,-10,0,56,10
1490743128660,13,0,-39,75,12,3,57,-14,50,0,48,-2,-3,2,4,3
1490743128709,49,-5,42,-29,-8,1,-39,9,-19,3,24,-48,10,-2,57,42
1490743128758,109,-1,47,101,16,-5,-57,30,-66,2,16,73,13,1,74,2
1490743128806,-72,3,102,-76,-16,1,-69,-73,-16,-5,61,-15,-21,1,2,24
1490743128807,88,-4,97,18,20,-1,-13,-29,-21,3,91,113,24,-1,19,48
1490743128856,-62,2,-84,-11,-24,-3,8,-51,77,-1,-116,-117,-15,-3,-52,28
1490743128905,-59,2,5,-35,-19,-4,35,47,91,6,19,7,32,1,12,61
1490743128953,-49,0,-10,-16,-12,-2,5,1,-79,-1,127,4,11,0,-19,2
1490743129001,-16,1,-93,-37,13,4,34,29,6,3,-123,-58,-13,0,22,20
1490743129049,-44,1,40,53,30,1,22,-40,88,-2,-59,9,-36,-1,36,50
1490743129051,94,1,118,97,-3,-38,-27,94,35,2,-32,-2,-21,-46,7,30
1490743129099,3,-5,-57,37,32,48,-23,5,61,15,64,9,26,52,-37,-21
1490743129148,-92,-128,-72,-73,-5,-42,6,-33,103,63,94,-79,-22,-21,49,4
1490743129197,-10,-25,-110,-89,20,-68,-37,-38,-9,-17,-27,-12,-12,-52,33,10
1490743129246,-78,-112,44,22,-35,84,-14,-8,53,66,65,69,22,111,-70,-34
1490743129296,48,-128,4,-12,-1,-34,56,12,-52,-122,31,-25,31,-48,38,7
1490743129297,61,23,78,23,0,-1,-22,-8,30,-18,54,22,-25,76,-32,77
1490743129343,-27,-38,-87,-38,-16,-6,-65,12,-44,-122,-128,0,25,-13,-56,-20
1490743129391,50,50,56,-49,7,13,-69,14,-3,15,57,19,-2,-11,-3,54
1490743129440,36,-66,37,88,96,5,-16,-58,-20,-128,-80,-113,-52,-4,26,-54
1490743129488,-16,95,-21,63,-27,5,-16,-21,-51,127,-100,-35,-14,-3,-63,-81
1490743129489,25,17,8,-60,-33,-3,-26,24,46,8,3,-70,37,2,34,-21
1490743129538,5,-3,-14,-36,-42,-3,10,-4,-11,63,-7,9,-124,-3,26,21
1490743129635,-25,-8,-19,-27,25,2,11,9,-15,47,-11,-14,-66,-3,7,31
1490743129636,17,-46,-3,11,-128,0,38,1,22,-7,43,0,-76,-3,-22,20
1490743129685,64,3,19,31,1,4,-58,-19,50,33,3,-18,14,-1,61,84
1490743129734,-72,16,-18,-18,63,-5,-53,-28,19,-3,-18,-51,-102,0,97,20
1490743129734,-9,-2,-70,-59,-37,-3,13,37,10,-3,20,17,32,-6,-61,-7
1490743129781,-51,2,-21,-43,84,1,-9,-41,-37,1,25,1,125,-1,11,3
1490743129830,-16,1,-12,7,0,-4,0,-37,-36,-1,-15,22,3,0,32,-28
1490743129879,65,13,3,-27,33,-2,12,21,79,19,4,-2,-59,-3,-17,44
1490743129928,22,-8,-23,-16,-128,-5,78,30,-1,-3,21,40,100,-1,-48,-20
1490743129976,-24,7,37,-21,61,-1,-44,-48,-9,-15,-29,-84,20,6,11,-18
1490743129978,-24,-12,-56,-128,-93,1,-14,-24,6,51,68,86,45,0,-128,-24
1490743130028,-4,-1,-39,-44,-7,0,2,-23,4,3,13,53,-4,-3,18,9
1490743130074,7,0,7,-1,-15,-2,3,3,-4,-8,1,8,-19,1,-4,-8
1490743130123,-21,9,9,32,9,-1,24,-54,7,-2,-3,-10,-2,-2,-15,-42
1490743130171,-9,-2,-23,-52,46,7,-19,10,-16,12,-21,-50,-85,2,-13,-37
1490743130219,-4,10,12,38,29,-11,25,-3,-1,-9,-35,-58,23,4,6,9
1490743130221,-1,-1,-10,4,56,-3,-53,-21,-5,-12,-6,-21,-61,1,9,-5
1490743130269,1,12,-1,-14,-69,-1,13,10,-8,-8,5,7,31,-5,-7,33
1490743130366,2,-4,18,-5,56,-3,31,7,1,6,30,23,75,3,-31,15
1490743130367,-23,-25,-31,-14,-6,1,-21,-10,-15,-14,-24,-37,15,-5,-16,-13
1490743130415,-14,-33,-37,20,0,-1,46,-14,-22,-8,-20,-11,-15,0,99,-24
1490743130421,38,0,-56,-18,-84,-4,-104,2,-1,-1,80,1,-124,-2,-22,-13
1490743130464,-47,-66,-98,-61,-22,4,7,-21,16,42,69,14,36,0,-124,17
1490743130513,35,-30,-11,33,27,70,41,72,28,52,16,0,-2,106,-99,-18
1490743130562,-21,-4,12,-10,9,-16,-72,-3,-46,-94,-126,-30,37,48,33,1
1490743130611,81,120,91,65,8,-112,-39,82,-15,72,-5,14,48,-124,-38,-10
1490743130659,24,-118,-11,11,22,-12,108,2,38,-116,38,63,-27,-32,17,41
1490743130661,-60,109,-74,-27,-50,-113,4,12,-46,18,-114,-95,-41,-76,-45,-47
1490743130708,37,117,-6,-14,-9,63,-27,-11,-64,-73,-111,-29,-17,95,20,-26
1490743130758,-30,-123,-119,-72,-21,120,-90,-72,66,-128,-24,-15,1,-14,7,46
1490743130807,14,-77,18,5,-5,-56,-54,-96,94,-97,64,-14,-20,40,92,102
1490743130854,-37,27,127,74,-2,-128,27,37,-7,-3,47,4,-17,1,8,-62
1490743130856,28,20,-26,-26,-11,105,51,43,-94,-15,-29,-26,2,75,-15,-26
1490743130903,-13,47,25,30,-43,35,-19,0,-2,-9,-78,2,-7,82,-29,56
1490743130951,-22,-34,-74,-28,-9,-36,37,51,-57,-82,-60,-28,-34,-7,-21,-43
1490743131000,27,4,96,37,-7,5,-5,0,15,6,17,9,-2,45,36,30
1490743131049,44,-4,80,10,-1,38,-21,14,0,41,-2,-8,48,60,-30,4
1490743131098,-25,67,-68,-33,-8,51,8,19,-58,-85,56,3,0,-30,26,-31
1490743131098,20,-71,-17,-16,10,54,2,-49,-43,-32,-83,-10,5,13,48,-19
1490743131147,29,10,19,-1,19,-26,13,-8,28,-93,-80,-58,-18,-31,-2,-20
1490743131196,-18,-25,-26,-2,-20,-6,-5,-41,24,61,116,74,10,5,-1,15
1490743131244,-86,71,59,20,8,-1,-76,-9,-10,-21,20,-17,3,0,4,49
1490743131293,49,59,-3,18,9,-6,14,19,-59,33,-4,4,-1,-1,-1,-16
1490743131341,-29,-72,32,-5,12,-1,1,-28,40,-2,62,41,1,-8,12,75
1490743131343,39,40,19,4,-6,2,-2,29,-25,29,13,12,-13,0,29,-20
1490743131391,-22,-99,10,2,34,-5,3,-37,-15,-30,-18,-3,-28,4,3,-24
1490743131487,-12,-52,-12,2,-6,-4,-23,-47,-22,-38,18,17,9,-3,38,24
1490743131488,19,107,3,7,-9,-2,-12,-18,27,12,-25,-26,-11,-3,-15,-45
1490743131536,-20,86,-24,-60,13,0,-22,80,10,33,11,59,62,4,-4,14
1490743131538,-18,-38,24,41,46,-3,31,45,24,-79,34,15,31,-1,-7,-11
1490743131585,10,6,-2,-17,14,2,0,-27,-19,-18,-71,-85,-12,1,47,-31
1490743131634,20,-19,-31,-23,6,1,35,8,-16,10,42,-21,-10,1,-27,17
1490743131683,22,-9,-43,-27,-28,1,39,-12,-26,-6,17,47,-2,0,-4,23
1490743131732,-5,-7,36,-16,-14,-2,-21,32,29,-3,17,10,3,2,26,32
1490743131781,-47,-3,-70,-45,-42,3,-83,44,39,-1,-70,-24,1,-3,19,13
1490743131784,-19,-3,4,10,3,-4,33,15,-13,-4,-26,-15,-24,2,-20,-1
1490743131829,6,-1,-28,-7,-4,-1,53,2,0,0,-57,-56,-1,-1,-12,-9
1490743131878,49,-2,-23,28,18,2,-5,57,-8,0,-24,25,27,1,23,-2
1490743131926,-6,1,36,21,-6,-3,-3,-42,-8,-1,-33,-46,-11,-3,-9,32
1490743131974,18,0,46,39,7,-2,-9,-8,57,0,127,38,13,-2,7,-3
1490743131975,38,-4,-76,27,-17,-2,-4,-5,35,3,-119,-2,21,-4,-18,-37
1490743132024,7,2,-83,74,38,-2,56,-3,-25,3,82,67,-26,-5,-60,-52
1490743132073,26,0,26,-87,-13,2,62,2,57,2,84,95,20,0,-50,15
1490743132122,-18,-3,67,33,-2,0,30,-48,-22,-1,-12,-66,-14,1,29,-7
1490743132172,70,-1,88,61,19,-2,-52,-17,-29,1,-6,101,14,-7,12,7
1490743132218,-128,0,-111,-71,-59,-3,-91,-35,-21,2,79,-128,-7,0,3,11
1490743132219,-75,2,16,87,28,-1,65,2,-1,0,-56,-5,-19,-2,-29,66
1490743132268,-44,-3,84,-47,-6,-5,-27,-18,26,-6,-62,30,-5,-2,51,-80
1490743132316,50,0,-53,72,2,3,-19,8,16,-2,70,-15,14,0,26,74
1490743132413,13,-1,102,75,14,2,-43,26,2,3,-11,41,23,-4,13,-5
1490743132417,-36,2,-59,-62,-19,-1,32,-30,-57,1,-126,-128,-51,3,-57,-9
1490743132462,-27,2,-107,-71,8,-2,11,-52,76,-2,127,36,0,-3,-93,-45
1490743132464,-31,3,35,-86,-27,-7,-19,-41,-50,-2,-119,-102,-41,5,-9,24
1490743132512,4,0,-6,-4,-15,3,1,50,-72,4,12,6,23,-1,7,20
1490743132560,1,-2,6,0,-5,0,-16,-27,78,0,-6,91,26,2,30,33
1490743132610,-25,-1,54,-6,18,2,-39,-23,34,-1,56,-6,31,0,6,-2
1490743132658,-25,0,-128,-65,-40,-2,-28,-27,-29,2,93,19,-5,2,29,-11
1490743132660,20,3,33,-4,36,4,7,41,21,-4,47,47,-30,3,-66,-17
1490743132709,-27,4,-86,-33,0,-1,54,-3,-53,3,-2,-85,-9,-5,36,-9
1490743132756,31,4,109,127,49,-1,-16,32,48,-2,60,21,-19,-9,-9,-24
1490743132804,34,-2,7,72,30,-10,-15,76,12,1,-3,1,-12,-3,-56,-40
1490743132853,-83,91,-128,-110,-40,-9,-5,-53,36,-1,73,-73,-1,-22,-43,14
1490743132901,-7,-111,38,63,26,53,-25,98,83,-10,75,64,21,6,48,-46
1490743132903,78,-9,-62,10,18,-2,4,29,-27,-108,-11,-21,17,-39,27,6
1490743132951,-25,-40,-79,-12,-55,11,4,38,92,-3,71,102,27,49,7,65
1490743132999,74,13,114,110,11,-57,71,22,10,54,73,37,-42,-61,55,-27
1490743133048,44,38,93,73,30,-1,-35,35,-88,-11,-117,-90,-66,15,-114,57
1490743133096,11,-101,-49,-53,-9,38,-53,38,6,-75,-95,-113,-61,48,28,76
1490743133144,-52,-126,-37,-128,-23,-17,109,-38,90,105,94,26,18,-20,45,20
1490743133145,-67,-22,-85,19,-14,23,-24,-44,12,-26,-58,-40,-30,10,127,-7
1490743133194,24,96,20,65,47,6,-86,18,-41,-111,-108,50,-17,-9,83,52
1490743133243,-5,-74,-53,-96,-12,0,-21,-33,70,10,99,115,127,1,-49,-26
1490743133291,5,-112,-35,-128,-40,2,31,-5,-42,-119,-94,2,-31,2,-30,-35
1490743133340,9,-58,11,87,28,-9,-27,12,2,3,74,97,96,-3,20,11
1490743133341,-13,107,8,-83,-28,1,19,-6,-7,66,20,-28,0,0,-36,-22
1490743133390,-28,-91,-53,-68,-17,-1,88,-66,41,-2,46,59,-3,-4,-120,-72
1490743133441,26,89,78,62,35,3,-50,44,-34,-63,-29,-78,25,-2,-34,18
1490743133489,7,-19,-74,-103,-44,-1,106,42,-28,52,24,16,49,0,56,-4
1490743133536,14,-61,-37,-59,4,-6,70,8,55,-19,82,64,31,2,-30,38
1490743133583,-35,-116,-64,-69,-23,1,-1,-13,52,-6,13,54,74,0,81,79
1490743133584,-12,84,21,-56,112,0,-39,-42,3,66,32,37,48,2,26,-44
1490743133681,7,47,-20,-96,27,3,4,-37,-64,-57,-77,-99,12,1,94,-42
1490743133682,-13,-9,4,-1,-76,0,9,2,38,54,127,124,71,-2,-96,10
1490743133730,-9,-3,-31,7,29,-2,-18,-17,-4,19,-9,-63,-33,1,-4,6
1490743133779,-3,-2,-2,33,-29,-1,-1,29,15,-10,-18,-16,18,-1,-1,5
1490743133827,-12,-1,-19,-20,-8,-3,62,0,9,5,4,-25,-43,1,37,27
1490743133828,1,-4,-33,-63,0,-2,-13,-18,-11,0,19,16,32,1,-4,2
1490743133877,12,23,14,0,-128,2,-12,2,-26,8,-19,21,-67,0,15,-4
1490743133926,7,-6,10,0,40,2,-14,5,6,-4,-19,-10,32,3,13,-16
1490743133974,-4,-29,-68,-60,-35,0,22,10,-5,2,-1,11,9,-4,-25,2
1490743134022,2,-13,6,4,-80,-3,2,33,15,8,-2,7,-38,-3,-6,-2
1490743134023,10,-7,-14,-29,-2,2,30,62,-11,-14,44,-18,-94,-2,-3,24
1490743134071,56,15,-27,12,52,-2,-15,40,2,12,25,-7,90,0,0,19
1490743134120,-18,10,99,89,40,-4,17,-16,-3,-26,-93,6,46,0,-8,-26
1490743134169,93,-17,-36,-43,2,0,-88,13,-25,28,5,-1,-107,0,-92,36
1490743134218,-10,69,-19,5,64,-3,10,-27,29,36,110,33,6,2,-40,35
1490743134266,6,-22,12,-2,-77,-31,104,70,38,78,77,24,-17,0,57,1
1490743134268,-43,-2,-11,-37,-117,31,97,22,45,1,-4,71,-90,38,-45,25
1490743134315,-11,-46,-47,0,5,-9,0,-29,1,-103,-14,-85,-21,87,10,35
1490743134367,1,-88,-54,-3,-92,65,-44,14,-8,4,-74,-42,-12,92,-6,-12
1490743134413,77,64,68,31,-30,38,-73,-41,8,-61,-1,17,-4,-33,30,31
1490743134461,2,63,-12,-6,3,-62,38,4,42,70,67,25,-7,-64,-5,-39
1490743134464,-64,16,-22,1,22,72,-37,-36,62,21,5,-8,13,115,-81,74
1490743134512,-79,33,-111,-48,2,127,24,-36,11,-30,89,1,15,65,-28,-35
1490743134559,-38,25,89,21,68,-22,27,83,-10,-40,-20,-1,29,48,6,4
1490743134608,-22,-15,-42,-10,10,71,18,-25,-6,-36,-56,-29,-31,81,-27,-7
1490743134656,41,-92,35,19,-21,108,11,-107,-14,-24,-75,-31,-6,57,-5,-3
1490743134704,82,12,81,38,36,127,6,19,14,40,93,45,17,107,71,48
1490743134705,15,-123,10,-1,24,15,-3,-41,1,3,60,32,19,35,-17,-2
1490743134754,-21,-4,26,23,-8,-30,-57,13,20,-43,-19,-22,-29,35,3,-25
1490743134803,-9,-27,26,23,-12,-128,1,52,40,28,3,19,5,-114,23,-12
1490743134852,-52,43,-25,-19,2,114,25,-5,46,-10,-121,-43,7,125,15,-49
1490743134901,-61,63,-37,15,-15,-6,-16,13,-47,86,55,36,-10,-71,59,-24
1490743134951,6,-82,12,31,18,-11,53,20,3,-18,-38,-11,7,51,-13,9
1490743134953,23,-36,17,16,6,-100,42,1,-79,-40,-84,-13,3,-117,-46,-56
1490743134998,23,66,-54,-45,13,102,59,16,41,6,127,69,29,102,-34,11
1490743135046,-50,-1,-23,8,5,107,-3,30,95,-102,24,-25,-26,76,5,24
1490743135095,86,34,127,65,20,-26,25,-10,5,-6,-47,-7,-4,-22,-48,12
1490743135143,57,17,-23,-87,-9,-6,43,46,-72,23,-93,-71,-5,-5,15,20
1490743135144,15,33,43,64,-16,-3,20,24,22,-28,85,85,-2,2,0,10
1490743135193,32,2,32,-21,24,-2,-69,-1,49,-31,92,40,29,-3,-6,-50
1490743135241,32,53,20,-6,22,-3,8,18,25,88,-55,-42,-14,-7,18,-8
1490743135290,-10,-25,-65,-7,-5,0,-20,42,49,78,88,-19,-20,1,-34,45
1490743135339,24,-46,7,14,20,-5,31,-14,-9,-44,-15,-3,5,-4,63,-3
1490743135388,27,-31,5,-32,7,3,-38,8,18,18,90,82,13,-2,4,35
1490743135390,6,-126,2,-3,-14,-4,-75,20,23,-128,-27,33,-1,-2,-7,11
1490743135436,-27,85,57,31,19,-2,7,-97,6,40,42,19,11,-6,-14,2
1490743135485,8,-66,-23,2,-4,-1,38,42,-15,-73,-9,-38,-42,0,-3,-23
1490743135534,25,-23,4,-21,-8,1,47,11,-16,-14,-70,-34,-15,0,27,6
1490743135583,-7,1,-21,-33,-10,-4,33,9,34,2,-17,12,26,0,-25,5
1490743135631,-35,-2,-53,-5,-14,-1,-17,-28,-8,-2,-7,-33,-1,4,25,-20
1490743135632,47,-3,34,32,6,-2,16,40,-8,1,22,9,9,2,-74,-4
1490743135680,-20,0,45,-4,2,-1,11,-15,17,2,-18,-56,27,1,12,13
1490743135729,-11,0,68,28,-30,-1,-1,-1,0,5,36,88,-6,6,-10,65
1490743135778,-19,-1,27,-6,-6,1,38,-35,12,1,8,58,24,-1,-1,24
1490743135826,-54,1,37,3,5,-1,-11,-91,16,-3,-10,-18,13,-1,12,23
1490743135828,18,2,-14,22,-4,-4,57,-14,-63,0,18,-47,-10,5,-26,-80
1490743135876,-4,0,-36,-9,4,-2,-9,-12,47,4,5,-13,2,-3,-14,61
1490743135924,42,-5,50,0,-1,-3,22,51,-42,-4,-53,-14,-16,-6,-10,-72
1490743135972,13,-7,28,-68,-25,-3,-68,-64,-31,5,-109,-22,-12,-5,13,-44
1490743136021,1,4,33,4,2,-5,-13,7,-9,-1,60,-12,-9,2,-17,-72
1490743136069,24,5,80,68,4,-4,50,38,-87,-1,22,-71,-9,-5,-80,-35
1490743136071,-31,-4,-121,-126,-45,3,-49,6,-8,3,9,-15,32,-2,30,5
1490743136119,-7,-3,61,13,-4,4,104,101,25,8,127,88,9,-3,-45,-4
1490743136167,-13,-1,-128,-117,-17,2,-17,-31,-8,5,63,-51,-14,-2,27,37
1490743136216,27,-4,-124,13,-8,0,45,8,-17,0,78,27,-2,7,16,32
1490743136265,22,-3,70,55,26,0,-26,-12,93,-1,22,62,13,-1,50,25
1490743136313,-100,4,-128,-103,-42,-3,-3,23,27,-6,64,19,16,-7,-60,-11
1490743136315,123,-1,86,110,16,2,42,53,-32,-4,33,48,14,0,-16,76
1490743136411,91,-2,-128,-44,5,-7,7,28,-38,3,-31,21,13,3,-16,-50
1490743136412,2,1,66,-67,-20,-2,-50,-123,113,-5,89,-40,15,0,37,89
1490743136461,-51,-1,-114,-53,-16,-2,23,44,-98,0,46,-85,-32,-2,-50,-84
1490743136508,-97,3,106,104,14,-1,6,-40,110,1,-78,69,44,2,-56,61
1490743136510,12,90,0,14,19,-1,81,103,8,50,-115,61,24,1,40,16
1490743136606,90,-22,-43,31,3,4,-26,64,-59,11,106,39,19,0,-1,54
1490743136608,35,110,28,62,-3,-1,-41,22,45,-112,-16,5,63,0,62,65
1490743136655,-61,29,78,13,-19,5,26,37,-1,-43,74,57,-10,2,-10,-125
1490743136704,-36,-44,-48,-110,-44,-4,0,-5,41,-61,122,-98,-21,-3,-20,1
1490743136752,-55,-5,-105,22,22,0,-73,-62,-49,-21,-101,-93,-24,-1,60,94
1490743136753,7,-47,127,-8,8,2,104,83,123,81,-50,37,0,-48,10,13
1490743136801,-37,-99,-79,-52,72,41,3,-59,-46,29,122,65,-66,71,-52,-54
1490743136850,127,89,-9,-36,-13,-96,54,28,43,74,-102,-42,3,-89,-87,-18
1490743136899,26,-5,55,76,18,78,27,42,-64,-34,-103,5,1,125,20,7
1490743136948,-67,107,-13,25,-52,-41,-62,-47,75,68,127,24,77,31,34,19
1490743136998,-121,-128,-33,-8,-23,-97,-6,-10,120,-53,22,3,18,-110,-65,-31
1490743137002,15,127,-58,52,12,-3,-35,1,2,90,116,123,11,-123,26,43
1490743137046,-4,-128,56,-23,-12,-62,-52,-44,-2,-105,79,111,58,-105,-29,3
1490743137094,16,-31,-22,-33,7,107,-11,30,-9,-34,-32,-110,-38,127,101,12
1490743137142,11,-9,33,41,37,-91,2,-73,-27,-107,-108,-31,-37,-14,-27,8
1490743137190,-49,-79,-94,-62,-12,11,51,-40,65,109,105,60,95,18,-12,64
1490743137192,13,90,127,80,33,17,-29,-17,15,-25,-54,-95,69,7,73,56
1490743137240,13,9,127,13,24,3,-81,-21,6,115,123,103,7,2,-76,22
1490743137289,-15,-77,-69,-98,-40,-3,-10,-14,25,61,-49,-55,-29,3,-58,-3
1490743137337,-18,-35,-127,-63,-46,-1,-16,-61,15,-29,9,31,39,-2,-4,-5
1490743137386,-19,-37,-20,-29,42,-3,-7,0,-15,10,-128,-110,29,-6,49,36
1490743137434,-19,-13,-22,-45,71,4,57,36,31,-29,20,-26,-26,0,-14,49
1490743137436,-8,43,-7,44,49,1,55,36,13,30,0,-59,-5,-4,-39,1
1490743137484,-62,-26,10,-35,-64,0,-82,-53,-9,1,-25,-17,14,5,37,-5
1490743137533,29,7,53,76,-67,-4,25,40,-24,-36,-48,-54,-5,1,-1,-1
1490743137582,9,-11,26,116,52,-7,48,12,1,3,10,37,-4,-6,-9,-8
1490743137630,21,37,14,-25,-68,3,-54,-12,9,-2,-56,-115,-21,-1,7,1
1490743137632,-1,14,47,70,75,-3,-43,-44,-13,-94,-13,-56,13,8,43,2
1490743137679,14,40,54,49,0,1,-66,3,4,33,20,46,-44,-3,-22,-42
1490743137728,-13,-10,-24,-42,-2,5,16,-7,54,19,1,64,-49,5,14,47
1490743137777,12,-10,-10,-51,-22,-2,15,27,3,56,-35,-71,-3,-6,22,4
1490743137825,15,0,-9,-18,-24,5,-7,-8,3,-3,16,2,5,2,-20,-1
1490743137873,11,18,19,3,-36,-6,-13,-3,-6,2,-26,-46,-32,0,61,-6
1490743137875,-16,5,32,27,-13,-2,9,12,-8,-12,2,37,110,2,-27,-7
1490743137923,3,3,-47,17,-2,5,7,-22,-11,13,5,-58,77,2,-13,-29
1490743137972,-15,-28,-11,-5,-19,1,-26,-18,1,-23,-45,4,-10,1,41,5
1490743138021,-35,13,-23,-32,-1,-1,109,-52,51,-10,-46,-31,-29,-1,-2,42
1490743138069,0,20,82,24,-20,0,19,29,24,21,91,-4,-34,0,-36,28
1490743138117,14,16,79,14,19,-4,7,25,-22,24,5,-16,29,3,-35,-35
1490743138120,-2,7,20,-44,77,-1,43,-18,-19,-7,42,57,-49,-4,-52,-24
1490743138167,11,52,69,50,77,1,-23,-6,12,-12,-26,-1,24,1,15,54
1490743138215,10,-8,-22,-18,-100,-45,-43,3,-45,-48,-88,-72,26,-64,-48,-29
1490743138264,55,44,-114,-35,26,-9,-128,-18,22,65,69,-24,10,57,-80,92
1490743138312,-12,-71,-17,-15,-64,68,64,5,5,-26,-65,25,-37,-9,11,-44
1490743138314,94,106,125,78,74,72,-12,80,39,41,78,52,51,127,49,-9
1490743138362,-16,15,55,21,-26,-128,13,-49,-3,-20,32,5,13,-100,2,31
1490743138410,-63,-91,-90,-23,-1,66,-57,-99,-33,-17,-51,-3,12,72,2,81
1490743138459,36,86,-23,-11,-20,91,7,-14,-10,-84,-70,-28,11,-68,11,-51
1490743138508,-30,-102,59,-33,38,28,42,34,81,51,47,-22,22,-1,-32,-30
1490743138556,52,-67,-9,14,-3,23,-1,7,-43,-45,-2,5,9,39,55,-4
1490743138557,-72,111,124,48,-2,116,87,-1,34,-51,56,62,36,-89,-106,-52
1490743138605,78,-7,-60,-51,-32,2,-3,-18,-97,89,85,37,0,62,-31,-44
1490743138654,-44,-1,-87,4,-4,-117,-20,7,-11,-21,34,-30,-22,-2,-3,-29
1490743138703,107,-21,44,25,11,35,12,65,-19,17,73,14,21,6,52,-34
1490743138752,-37,-38,31,7,-1,-128,-3,-2,20,33,-11,20,14,-103,-6,6
1490743138800,-1,-43,-23,9,28,104,19,-6,78,9,40,5,15,90,-16,9
1490743138803,-37,7,-8,16,4,-94,-26,3,-58,-36,-49,5,9,-30,46,-4
1490743138849,111,4,116,9,34,-6,-11,-2,35,-58,-10,-38,16,-18,10,55
1490743138898,2,-33,2,-5,-9,-21,1,-1,-13,-30,-91,-93,-33,-1,-23,0
1490743138947,-30,13,-15,2,5,2,12,-35,4,77,41,45,8,0,-18,-13
1490743138995,6,5,30,1,-4,-3,-20,-16,-19,-15,-105,7,-7,1,-26,15
1490743138996,14,29,-43,-40,15,0,16,19,-37,56,38,-48,3,-1,107,12
1490743139045,-37,32,41,31,-15,-2,8,8,-14,-71,6,29,24,-2,-26,-26
1490743139093,2,-65,-5,-6,-11,2,68,-43,15,-34,-10,22,-8,-5,22,-22
1490743139190,14,39,0,5,7,-7,4,-4,36,15,-37,-27,8,1,-35,-2
1490743139191,-65,-101,-70,-32,-8,-2,-10,-10,-41,-124,-108,-47,-23,-2,21,-23
1490743139238,35,4,-36,-43,28,0,18,15,-20,-27,52,61,-8,1,4,-18
1490743139239,-6,-6,-49,6,-2,-1,24,65,-48,0,22,7,-15,-3,4,-32
1490743139288,7,7,-98,-57,-20,3,12,-35,-48,6,53,-22,2,0,-30,-2
1490743139336,16,1,64,-1,6,-2,-26,13,-3,-2,30,51,12,-3,20,4
1490743139385,-10,-3,41,2,7,2,10,-30,18,3,-85,-23,-10,1,26,55
1490743139434,42,4,17,-49,1,-5,12,20,24,-4,44,16,2,-1,-23,-97
1490743139482,-49,-1,-47,8,6,-8,29,40,0,-2,-64,-55,-11,-7,-14,-52
1490743139484,51,4,50,66,38,-1,26,25,-20,6,-94,40,-17,-4,-11,15
1490743139532,-9,3,-95,-38,-3,2,-29,3,-32,1,-14,-15,8,3,21,-80
1490743139628,-5,0,-128,17,27,1,-49,7,3,0,46,41,21,2,51,39
1490743139630,-17,1,-37,-49,17,5,-34,-22,-21,-7,-50,-27,9,-11,-20,-52
1490743139678,29,1,127,-8,-3,7,76,20,79,7,124,97,64,-2,-23,92
1490743139681,-32,2,108,-60,0,-8,9,-10,-20,-3,55,-29,-6,0,80,17
1490743139727,-55,-4,-85,-9,-5,-1,-57,-47,42,-8,-31,-86,-29,3,-37,11
1490743139776,-64,-3,55,-13,-9,-1,23,-14,-115,-4,73,-46,27,2,12,-45
1490743139872,3,-78,-14,-56,12,-3,60,16,-4,98,21,53,7,0,1,-46
1490743139874,21,21,1,38,35,3,52,74,-41,-36,-23,-48,-34,0,8,97
1490743139921,92,105,117,89,-23,-3,-67,11,-41,72,-45,-51,-18,1,-32,-61
1490743139922,89,31,-17,31,14,0,-4,13,55,1,15,-6,-7,-5,16,-27
1490743139970,-69,-42,64,-109,-13,-7,68,-2,41,8,78,94,-2,4,80,42
1490743140019,17,-17,-67,7,3,3,101,49,21,-62,-128,-123,-33,-3,-86,-33
1490743140068,69,15,58,43,3,7,-23,29,-83,-42,-128,51,7,-10,13,-12
1490743140116,28,14,20,59,29,2,75,20,-9,-56,-30,81,33,3,-62,45
1490743140118,-33,-83,11,-13,-23,-1,-61,-78,95,27,-32,-77,35,0,3,25
1490743140165,20,7,-116,-41,-41,3,-48,5,-77,-62,127,75,18,-3,1,-41
1490743140214,98,47,-75,-128,-54,3,-83,3,99,27,95,74,24,-6,-17,103
1490743140263,-36,41,86,127,-19,-37,-7,5,-51,-97,8,-11,39,-36,49,-53
1490743140313,-93,57,-101,-128,-73,-75,-78,-69,20,98,-59,-50,-6,-128,30,-1
1490743140362,-128,85,-12,120,30,84,59,99,-35,77,27,-19,10,40,21,1
1490743140364,-41,53,-104,-20,10,-112,-23,9,-46,-37,85,11,20,-112,24,40
1490743140409,24,73,-56,-97,-5,107,1,-60,52,-72,21,51,22,116,-71,-9
1490743140457,55,-21,127,127,74,-128,26,31,-44,97,-78,-69,11,0,-4,-24
1490743140506,103,68,98,-64,26,81,-42,73,46,124,116,-6,52,4,43,101
1490743140556,-59,-128,-69,-90,1,-128,-52,-18,-12,-95,35,-35,-97,-103,-15,-19
1490743140603,-10,127,60,83,32,113,-6,13,40,1,-98,47,17,48,105,4
1490743140605,-12,-91,-126,-68,73,-38,-55,-64,13,43,108,46,-29,3,-44,57
1490743140653,12,99,116,127,31,9,-13,-14,-41,-128,-128,-128,-66,10,-31,-65
1490743140702,-2,-68,-61,71,88,-4,-128,-4,-8,43,21,24,13,10,-65,-19
1490743140750,15,21,38,16,-35,2,-29,46,43,19,46,-5,14,1,-10,53
1490743140798,12,-50,35,-109,-105,0,8,15,-58,-59,16,7,9,-3,-61,-12
1490743140800,1,5,70,8,95,0,39,-23,-7,-18,-41,2,18,2,-3,-29
1490743140848,-6,61,62,99,35,1,-66,45,24,59,42,-66,-56,-1,-23,-15
1490743140898,-35,-55,-85,-85,-53,-1,52,8,13,51,116,127,101,-3,-81,-23
1490743140945,44,-18,28,7,-89,-5,54,71,-22,-11,-50,45,84,-4,-48,4
1490743140994,-15,-7,-30,-51,31,5,4,-2,-21,-13,-49,-66,-58,2,21,0
1490743141042,-20,-7,-72,-82,-37,4,76,-24,26,20,10,51,-104,-9,-16,13
1490743141045,16,4,13,87,-16,-6,31,-14,-20,-24,-40,-85,5,8,-33,-16
1490743141091,5,18,69,127,3,-6,-84,-3,11,19,25,101,-27,2,23,10
1490743141141,-15,-3,5,-7,74,-3,-23,6,34,-16,-56,-97,14,4,53,21
1490743141189,27,15,15,57,-44,1,-36,8,30,9,-3,-15,5,2,33,22
1490743141238,-36,-26,4,-53,-14,-7,-27,-48,31,-3,-11,-10,67,-3,4,57
1490743141286,4,2,-8,-45,-23,8,34,7,-6,11,17,24,-3,-5,-11,-13
1490743141287,-14,-6,7,-21,60,6,-29,-3,2,1,-23,11,-22,1,-35,-26
1490743141336,16,30,-8,-29,-8,-1,6,-27,-9,-3,24,77,44,2,3,16
1490743141385,-6,-5,-1,-48,-20,1,3,1,8,0,66,47,19,-2,13,15
1490743141433,-8,-7,-87,-32,-3,2,-33,4,-15,2,-5,-21,-14,-3,81,6
1490743141481,3,-39,-38,-44,-49,-2,94,37,15,28,26,1,52,-5,55,48
1490743141482,1,21,44,5,-11,-1,-2,-11,-2,18,48,16,1,2,103,-34
1490743141530,-9,-31,-25,0,11,1,127,-8,18,51,2,13,-28,3,54,19
1490743141579,-24,21,-9,14,103,2,-128,0,26,-2,3,-21,-116,-4,-128,12
1490743141628,24,-2,33,2,102,-1,30,75,-24,31,20,32,55,-109,-82,-11
1490743141676,21,60,86,53,38,44,61,-35,127,83,57,12,-12,127,-9,114
1490743141726,-7,-19,-22,26,22,-76,46,-33,46,61,39,27,21,-88,81,65
1490743141730,29,127,64,66,8,-37,23,-2,-107,-76,3,-3,-50,-32,-4,-47
1490743141774,-32,-67,-123,-10,-2,-83,-32,34,6,127,87,-6,9,-98,-82,4
1490743141823,-15,127,-6,-19,-29,-123,15,-21,-9,107,-28,-11,7,2,-22,-48
1490743141872,-15,33,19,17,-2,-67,-5,41,-35,-30,-15,21,12,38,85,6
1490743141921,-12,53,-57,-17,-21,-37,-21,-20,-34,-37,-52,-40,-7,-75,-32,-56
1490743141968,-80,-81,-56,-17,1,127,-44,-52,37,-15,-88,-34,-26,70,-50,-16
1490743141970,4,-114,-24,14,12,77,45,51,-5,-74,29,-36,0,105,20,-28
1490743142018,99,-13,56,54,23,58,27,18,36,51,118,98,38,110,-11,113
1490743142066,26,32,50,-49,-23,-78,49,22,-36,24,-46,-25,-18,-35,16,32
1490743142115,-25,65,-128,-25,-12,97,-50,-51,-2,14,-44,-29,-8,-88,41,-55
1490743142163,-7,9,-10,-9,-17,-16,-17,15,0,-8,8,-16,-7,-56,-30,-5
1490743142165,-85,-41,66,12,-5,12,57,76,-6,34,15,20,0,-21,-13,-12
1490743142213,-4,4,62,27,-11,-39,-42,-34,17,-7,-1,7,15,23,-14,22
1490743142262,66,18,-13,9,9,-3,-22,-29,36,-104,-96,-15,-30,18,6,70
1490743142311,-2,-21,60,-8,36,-6,0,-12,51,12,73,37,42,6,-12,43
1490743142361,19,10,24,-6,-12,11,-20,-3,-14,30,75,27,18,3,0,35
1490743142412,1,-56,-10,-37,-18,0,-7,-7,-1,45,-9,-14,-3,-1,0,-26
1490743142416,25,10,-17,-2,-6,1,51,-35,-9,10,81,17,19,4,-33,-45
1490743142459,27,27,43,3,-4,-6,3,21,-10,-23,12,-9,-24,-4,20,-23
1490743142505,-19,12,-1,-8,-10,7,12,-30,40,56,-1,-8,-16,0,-70,25
1490743142554,-15,-35,-11,15,1,7,-59,-10,5,27,-29,1,-4,-7,-21,6
1490743142602,6,-24,32,26,6,-5,21,-30,-1,-24,-7,9,-14,8,-15,33
1490743142651,-20,-16,41,8,-8,2,-19,-39,-43,33,-6,16,-5,4,-3,-25
1490743142652,8,50,1,-5,3,-6,-34,-14,8,-15,25,18,7,0,34,-5
1490743142748,4,16,-13,-6,5,-1,18,24,-17,19,8,-5,11,3,-25,-3
1490743142749,24,0,-43,6,7,-5,17,32,-11,57,14,17,-3,3,8,6
1490743142801,36,-18,38,22,6,2,3,27,-12,10,11,-13,8,2,2,-16
1490743142846,17,-5,10,-3,-17,2,20,4,-61,14,18,-1,-17,9,-29,-51
1490743142848,-5,4,-9,-7,-9,-9,4,-13,-1,20,-22,14,-1,4,-8,-22
1490743142895,-7,15,-3,-3,-2,-2,-12,-2,3,-47,-16,-5,2,-2,7,-12
1490743142944,8,-10,-1,1,6,5,-6,-3,-3,2,10,-7,-4,2,17,-2
1490743142992,-26,14,-7,14,-8,3,-28,-10,-20,22,-24,-32,-14,4,3,-18
1490743143041,22,5,21,-2,1,1,-14,15,-53,16,-11,4,7,-3,15,-5
1490743143089,-23,41,17,6,18,-1,-19,-23,9,-93,-7,6,8,5,-5,2
1490743143091,-9,-15,11,-1,-21,0,-1,34,0,12,-42,-6,-29,2,5,-6
1490743143139,-3,-12,8,32,20,-2,70,15,72,-8,71,7,-22,-1,-58,1
1490743143189,19,-93,46,-3,20,-4,28,22,-30,-80,40,24,28,3,19,-3
1490743143237,63,9,-44,-22,-11,-5,-16,28,-89,0,-20,-23,-2,-1,2,-23
1490743143334,22,14,-15,-23,15,2,40,-30,13,22,4,3,15,1,22,26
1490743143337,-32,-20,-42,0,-11,0,-27,-11,3,30,-10,-6,-8,2,13,-8
1490743143338,-12,-76,3,13,2,-2,-37,-48,-36,-6,55,35,-10,0,-50,-28
1490743143383,73,26,54,11,-14,-2,12,58,-25,-4,38,34,2,0,8,0
1490743143431,-27,-34,5,-6,-34,2,-29,-37,4,48,-41,-6,-14,-2,-14,-41
1490743143480,20,53,45,1,42,3,3,7,-30,-57,-17,-21,30,5,8,-2
1490743143528,24,53,-1,-24,39,1,4,17,31,-26,4,-6,19,-1,37,-4
1490743143529,-16,-57,52,30,18,2,-20,-11,54,-27,86,47,4,2,-2,4
1490743143577,9,22,-26,11,-7,-3,-7,-8,-28,67,-14,-5,-9,-5,-35,-29
1490743143626,48,31,10,2,6,2,12,15,23,-84,55,35,21,1,14,30
1490743143675,-32,-62,15,-1,-6,-7,-25,-74,-18,39,6,-7,0,2,-32,-9
1490743143724,30,50,-58,-20,-3,4,7,-7,-62,-71,-106,-79,-23,5,-30,-35
1490743143772,6,56,-24,9,20,-3,12,-1,18,111,-5,25,22,-3,-2,18
1490743143774,-64,-82,30,44,4,4,-26,-21,27,37,51,48,2,1,33,37
1490743143822,26,-22,12,37,6,-1,15,57,-27,29,-51,-21,-3,-7,-18,-33
1490743143870,-10,89,11,-37,-3,1,11,-4,26,127,11,-3,-11,-2,3,4
1490743143919,-3,71,42,9,21,-4,-10,-4,-33,99,10,15,9,-7,4,7
1490743143967,24,10,-26,15,-19,-4,-116,-4,17,-82,-9,21,-28,-8,-127,-3
1490743143968,-91,-128,28,2,82,4,52,-18,34,-121,40,59,88,7,72,73
1490743144016,11,73,-51,-19,-48,-47,3,-20,-18,74,-51,-4,-61,41,-5,-28
1490743144065,7,21,-13,-10,54,39,-8,8,76,21,21,41,-103,25,-8,32
1490743144114,-7,3,-4,-31,-17,1,1,3,-11,-1,2,-14,18,-5,4,5
1490743144162,10,-1,1,-15,-52,0,11,38,-4,4,0,-19,2,-1,-33,-55
1490743144210,-2,1,-31,-23,-7,0,-2,-4,4,2,-16,-28,-37,-2,6,5
1490743144212,-9,-1,-10,-37,-30,-1,-22,-17,-16,-5,6,-9,-67,-1,-7,2
1490743144260,-4,1,-5,1,-8,-1,2,-8,-2,-1,-5,1,1,-1,-2,-6
