1490228525671,34,34,-44,-78,24,-57,37,-21,-22,-26,12,-8,10,19,-20,2
1490228525768,9,7,14,13,15,27,-5,6,-17,4,-4,5,18,-3,4,-4
1490228525769,-28,-15,-3,-4,-15,2,2,-13,-20,-19,-11,-9,-27,-11,-11,-8
1490228525771,-16,-4,9,19,15,17,6,-9,3,1,4,-12,-15,6,2,-9
1490228525817,17,-2,1,10,-6,-10,12,-3,3,-4,-9,-4,-14,-15,-33,-3
1490228525914,27,4,4,28,47,27,-17,3,-16,-6,2,13,9,5,3,-4
1490228525915,-21,7,9,-4,-20,-28,15,-13,6,-1,-5,10,20,9,-9,6
1490228525963,-29,-18,-7,-3,-14,6,-6,-17,-22,-1,-12,-4,-17,-6,-25,1
1490228525965,-20,-8,-7,25,-6,12,-45,-17,74,17,12,-11,3,22,69,11
1490228526012,38,29,19,29,8,-7,32,3,-50,-24,9,54,7,8,20,0
1490228526109,31,-2,-32,-13,-20,-26,1,-11,-86,0,10,-42,-16,-14,-24,-11
1490228526110,53,26,8,38,13,17,-22,-48,-72,-78,16,14,-2,-25,-2,-26
1490228526158,-57,-20,6,-23,-15,-15,8,-21,79,58,42,10,19,-2,-31,24
1490228526160,-99,-12,-55,48,-24,-30,-51,-51,75,18,51,-5,0,9,6,17
1490228526207,120,48,-2,-86,-13,-14,-15,14,-128,-54,109,58,5,25,-9,-45
1490228526256,-42,-60,-52,-69,-22,3,7,-2,-81,24,-57,-16,9,25,25,7
1490228526305,74,-14,-30,-78,-25,-20,-57,-4,-30,36,59,4,-21,-16,30,-11
1490228526401,-7,40,-49,78,12,-2,14,12,106,-48,38,-17,-7,-1,-9,-1
1490228526404,-93,-76,-57,24,9,12,-9,-22,90,78,-128,-99,-18,15,16,53
1490228526405,34,-28,-42,30,-1,-16,-2,73,-66,-32,50,-101,-2,0,-13,-95
1490228526451,8,118,127,90,50,34,21,-44,31,-55,-120,69,22,-3,-17,55
1490228526500,20,-9,-98,3,46,49,7,4,47,48,38,-21,26,14,-64,-34
1490228526548,-63,-52,81,127,59,35,29,-29,117,82,-91,-4,17,1,29,47
1490228526645,-93,43,78,51,-39,-12,-79,-31,-2,85,15,78,52,31,62,49
1490228526646,23,-25,-82,-60,-14,-1,27,71,-33,18,10,-8,-22,0,-8,-64
1490228526649,73,33,-95,2,56,13,123,59,-13,-43,-128,-128,-83,-38,-32,-49
1490228526694,63,126,69,35,36,37,20,64,-72,83,123,98,53,41,64,-5
1490228526743,-5,-111,111,-115,-102,-38,-1,18,-19,33,36,9,85,31,-4,13
1490228526792,-25,4,-111,-55,-58,21,15,9,49,1,93,70,-11,-23,-15,15
1490228526840,71,1,-93,-81,52,4,52,57,-27,-72,-83,-86,-61,2,11,46
1490228526842,81,32,8,98,13,9,-35,12,-126,-97,-74,-30,-45,9,-7,-39
1490228526890,-27,30,44,-23,48,-3,8,-2,-26,-18,-50,-6,-52,-34,-56,-8
1490228526938,50,50,127,65,-33,-44,-38,6,-48,13,18,14,-18,-24,27,7
1490228526987,-115,-65,-3,-11,-14,2,-6,-21,36,59,64,-17,-1,29,8,8
1490228527036,3,-23,-23,-26,-39,11,-19,-11,-4,63,121,43,27,21,15,17
1490228527084,20,2,14,16,-29,-39,-9,13,-11,-5,39,-3,-23,9,-12,-2
1490228527085,-31,-13,-13,28,-22,-34,8,-1,26,34,-6,-46,-46,-19,-21,2
1490228527133,-8,16,-19,-1,-16,-34,-14,-8,7,14,55,89,-59,-43,31,10
1490228527182,-15,-21,-3,18,81,32,-20,-6,9,2,-13,-51,-44,20,32,0
1490228527231,-15,-25,-25,42,-57,-1,-16,-8,12,-3,-27,-37,35,4,29,7
1490228527279,23,20,8,-14,70,3,-4,0,45,35,40,74,12,2,-26,22
1490228527280,-17,-7,-18,-47,-11,2,114,-3,-15,5,-18,-29,-40,-3,116,-7
1490228527328,1,-21,-35,-65,20,-1,-37,22,-18,-3,5,15,-37,-1,-28,-34
1490228527377,-10,-11,-16,19,50,0,-11,-8,10,0,14,-3,-78,-1,-36,-13
1490228527426,-3,-8,-2,-9,-32,-1,-54,-19,-37,-28,-32,-44,-23,0,-46,-26
1490228527475,-51,-5,6,-56,-112,0,-16,-10,10,-24,-37,-36,127,0,-23,-3
1490228527522,14,16,13,45,21,0,-38,5,0,9,25,42,-57,0,-124,-1
1490228527524,9,-4,-13,2,13,0,114,-7,17,14,14,-18,-12,0,114,18
1490228527572,-46,-5,6,14,21,0,-42,-3,0,-38,-6,19,11,0,-40,1
1490228527669,52,-4,-31,-11,30,111,-68,-5,-36,19,37,18,-10,120,-45,-15
1490228527670,27,37,-2,-36,-5,-128,-32,-10,8,45,37,49,0,-110,-23,-10
1490228527718,73,27,63,38,49,-70,-22,2,22,14,-33,3,15,-51,48,64
1490228527766,64,50,4,-5,12,-18,-5,-41,-73,-54,30,-52,-22,2,7,-18
1490228527768,-80,-3,1,-2,-45,-3,21,2,-36,-90,-16,-28,-8,-2,7,-12
1490228527819,-15,-32,-54,-32,-5,-5,-54,27,1,27,64,-67,-63,-1,20,-3
1490228527912,61,-10,39,-32,-41,-2,19,24,-33,64,-29,53,67,0,-13,6
1490228527914,6,-45,15,-29,-8,-3,9,50,-52,107,7,6,15,0,60,-8
1490228528010,-55,-3,-21,20,15,-39,-51,-37,18,-36,-81,-94,-4,-40,19,17
1490228528012,29,25,-5,29,-14,65,53,10,-112,-118,-12,5,-12,-12,-14,-21
1490228528013,5,-6,-87,-84,-24,-1,-23,-10,75,30,45,12,10,-22,-48,-43
1490228528059,-81,-19,28,57,10,-27,25,33,19,-21,15,-3,20,37,25,-4
1490228528108,-56,-9,15,-25,-3,28,-22,20,-37,-10,31,24,-16,1,-7,-4
1490228528157,-52,-57,-30,-49,-33,-8,-38,-12,3,-10,5,11,-5,2,6,2
1490228528205,-1,-11,-13,-27,1,23,2,3,-4,37,25,35,9,24,-43,-4
1490228528206,-37,27,31,31,18,10,-3,-27,65,-4,-20,-11,-29,6,-2,17
1490228528254,52,-1,-9,-16,-4,-2,-13,25,-41,12,9,11,9,43,10,-11
1490228528303,11,18,9,1,1,-10,31,8,-1,-25,-5,-16,-10,-4,-15,-26
1490228528352,-38,-3,6,18,17,16,25,3,53,15,0,0,-10,-11,25,-1
1490228528401,-1,15,8,-20,-7,-6,31,-32,-28,-18,-19,-7,0,4,-51,18
1490228528449,-101,-45,-17,0,6,14,-7,23,67,47,22,4,-8,-23,-39,-19
1490228528451,-12,-17,13,-27,2,-2,5,-3,113,50,-22,-10,-17,-12,3,15
1490228528498,115,-50,-35,11,-7,18,16,-1,3,9,-84,-67,-19,-18,30,59
1490228528547,-128,-17,62,11,-3,-19,55,22,63,13,50,-4,-5,0,-22,-15
1490228528596,-114,-59,-51,76,6,-4,73,50,33,11,-69,-111,-11,0,-26,-48
1490228528644,41,52,85,4,-21,-18,14,27,-114,-88,-59,-21,-3,12,-34,-26
1490228528646,34,32,62,-32,3,19,26,-21,52,-22,38,115,37,8,30,51
1490228528694,-110,60,1,127,9,22,-41,-40,106,-123,-88,-81,14,6,35,59
1490228528742,70,111,51,-5,-13,-43,-41,-20,83,-35,-105,48,15,19,21,51
1490228528839,-102,76,-7,-18,-1,-20,-27,3,-52,-15,-50,-47,28,16,-14,4
1490228528842,-27,-41,-128,-8,-27,-6,-24,-18,-92,-95,-86,-127,-33,-40,-59,-97
1490228528888,22,-11,99,-17,-10,15,22,-30,-81,-5,127,79,26,-1,-32,-29
1490228528936,28,-116,-66,-41,31,22,3,50,-126,127,74,71,42,24,51,-70
1490228528937,-89,8,-89,-107,49,-6,36,19,-27,-57,34,-55,-91,-19,30,-98
1490228528986,-41,-48,-27,127,-26,-29,9,-15,30,127,-33,14,66,12,-29,-19
1490228529034,-33,4,96,16,-1,-24,-37,-30,-11,-126,-93,55,-3,20,49,-8
1490228529083,96,69,121,114,80,62,42,89,-65,-30,-9,-24,-17,-18,11,-30
1490228529132,28,87,55,127,77,-31,18,20,112,127,127,127,64,60,28,22
1490228529134,67,127,121,119,39,-40,-6,14,-43,-71,-56,-54,35,75,64,6
1490228529181,48,38,91,102,91,35,18,43,32,40,-41,-36,-56,-35,-23,-4
1490228529230,-53,-86,-120,-78,-38,26,32,-24,24,-11,103,43,-47,13,12,12
1490228529278,-59,30,-12,-30,21,12,-42,-29,62,47,116,127,23,12,22,45
1490228529326,26,71,61,86,73,2,-16,7,-5,-15,-2,-10,-30,-25,3,-2
1490228529330,9,-12,29,-21,-56,-7,-7,8,20,24,44,71,72,34,10,12
1490228529376,-25,-13,-31,-6,67,25,3,-21,1,5,24,43,-40,-28,44,26
1490228529425,-10,-1,4,-20,-9,6,-28,-17,14,-7,7,9,21,-9,-3,8
1490228529473,6,8,22,62,51,38,55,-5,-20,-4,-29,-82,32,9,-39,-21
1490228529522,13,14,9,-12,-128,-44,19,-1,-32,-4,-16,2,8,17,10,-16
1490228529570,-11,26,-33,-25,71,16,33,5,1,34,22,21,-54,9,-100,-28
1490228529571,-1,9,-5,21,57,0,5,16,-16,-11,-15,-29,-98,7,14,-43
1490228529619,-7,-38,12,24,-76,-3,12,20,-7,-32,4,-44,-44,0,59,4
1490228529669,-19,-29,-24,-8,-9,110,-16,-33,11,-10,27,76,-52,71,52,20
1490228529717,-6,4,14,22,-7,-103,7,27,20,-15,0,-11,-12,-116,-27,7
1490228529765,1,5,-3,-17,2,9,-16,2,12,17,12,13,19,-38,1,2
1490228529767,2,5,11,29,-52,-39,-85,-8,22,34,0,-12,-9,35,-92,6
1490228529863,4,37,-11,-21,12,79,127,7,1,-24,-3,-25,-43,-8,127,10
1490228529865,-57,-12,9,-8,4,10,-20,-5,-8,-5,-5,-35,-34,3,-3,10
1490228529912,45,-15,0,-2,-6,-67,5,-1,-68,-48,1,4,20,29,-25,-29
1490228529961,93,54,-8,9,-19,78,19,49,-39,15,-27,-32,13,71,-14,-36
1490228530009,6,7,-10,-3,-5,-128,-6,-21,-71,-24,27,6,-8,-128,-16,-27
1490228530011,-9,-58,-12,41,8,-62,30,-30,117,78,84,-5,5,-56,34,97
1490228530060,-9,-18,-2,94,17,-1,-10,-21,-37,-20,3,-56,-13,-12,8,6
1490228530107,58,22,76,38,5,-3,-5,8,-17,26,14,-14,-22,-3,-5,-21
1490228530156,-21,-8,-51,-11,-24,0,-6,-24,14,34,-58,-33,-5,-3,13,-4
1490228530205,-41,51,52,15,1,-1,-6,-43,-22,11,-52,-38,-18,-3,25,-19
1490228530253,-14,2,-6,-30,-24,-1,3,22,33,-10,53,65,20,-1,0,-5
1490228530255,-57,-17,14,-14,-9,-61,-33,34,35,-22,-31,44,-1,-35,26,3
1490228530303,57,4,-22,4,12,-39,-19,28,-101,-72,5,5,5,-3,-17,-28
1490228530351,6,44,62,62,34,28,-23,-23,85,-7,-24,14,-23,21,19,23
1490228530400,-87,-26,-61,-47,-30,-2,49,-15,-5,-20,-1,-24,4,-13,-10,29
1490228530450,-13,-19,4,32,14,17,-17,-34,101,32,-24,-68,-27,-30,33,-37
1490228530452,-67,21,-9,-27,-4,-1,31,28,9,-22,-15,-9,-13,0,41,1
1490228530497,39,9,-26,-3,2,-16,12,-7,1,17,-27,-19,-29,-37,-21,-21
1490228530594,-21,-1,-6,-1,-15,-6,-45,-17,37,-9,15,15,3,58,18,21
1490228530596,5,0,12,4,6,33,29,-16,-49,-20,-4,-16,-13,5,-1,41
1490228530645,-10,-4,-4,4,-4,17,35,-20,12,14,0,0,15,-14,9,12
1490228530692,33,12,-4,28,54,22,43,10,7,1,-5,5,0,15,-19,-3
1490228530694,8,-7,-4,15,21,2,3,0,-28,-4,-5,11,15,-4,-57,-8
1490228530741,-38,-26,-9,-15,-14,5,-10,-20,36,18,8,9,15,-4,-24,3
1490228530790,26,5,-5,-18,-21,-40,-24,-22,-87,-22,-4,8,16,34,3,-17
1490228530842,-11,12,-1,1,-3,-1,-23,1,32,15,10,3,-4,-17,-14,16
1490228530887,11,7,12,3,4,0,-12,1,-95,-89,-2,-4,-6,-20,15,-15
1490228530936,-79,33,46,31,-1,-10,34,2,32,10,-12,-10,2,-6,-44,6
1490228530937,37,41,52,11,6,26,24,23,-119,16,46,-20,10,8,-29,-17
1490228530984,6,7,-26,8,3,-21,19,-24,127,84,31,58,8,23,61,42
1490228531033,68,-57,15,-17,-8,12,1,27,-66,10,3,6,0,-20,-81,-76
1490228531083,-5,17,60,-36,5,-8,27,45,-48,1,-46,96,13,33,-35,28
1490228531132,-93,14,24,-68,8,35,50,81,60,-3,57,114,19,-9,39,-9
1490228531133,22,23,22,24,3,26,-39,-48,16,109,-6,-104,-19,-25,38,21
1490228531180,-33,-99,-87,-54,-10,12,-35,9,-98,44,101,17,-6,-24,-64,-18
1490228531228,-44,27,-20,104,44,6,-20,-11,6,-24,-128,-47,-35,-24,11,-8
1490228531278,27,69,-29,-40,-21,10,69,-18,71,-31,109,5,4,-27,-65,-25
1490228531326,24,13,56,55,-21,10,-29,-29,90,39,-2,-71,-15,-11,67,71
1490228531376,-32,-19,-121,20,-68,-64,-14,58,15,-50,81,-2,-11,-2,-47,-23
1490228531377,53,-5,18,-29,26,14,23,-36,-68,-37,-16,-21,-8,-7,13,-40
1490228531423,-52,62,65,78,50,67,29,6,114,16,25,34,-3,-21,22,57
1490228531472,54,12,-106,-18,-5,-22,-46,-23,-22,-16,-51,-102,-19,7,24,-3
1490228531521,-11,-46,-21,-10,66,-13,-13,-51,-128,7,11,47,42,16,39,-46
1490228531569,-1,19,117,2,23,-6,-14,6,6,65,50,5,-26,44,25,-6
1490228531617,-42,10,-68,4,-47,-3,17,-14,-23,29,59,-85,-74,-50,-65,-8
1490228531619,-11,-7,-4,35,-23,37,-27,-26,66,88,53,67,-31,28,16,19
1490228531667,20,36,66,64,48,17,-23,21,10,52,72,33,52,8,60,34
1490228531716,12,80,127,127,35,22,11,3,-16,-22,-16,20,62,11,-6,-8
1490228531765,-30,-11,-4,-30,-10,4,-24,-4,5,-15,-21,10,-32,-14,20,12
1490228531813,3,-19,22,59,-39,-4,4,-14,-5,14,-11,-64,-70,-30,24,18
1490228531815,-27,10,17,57,55,-4,19,7,16,4,-23,-45,21,4,-51,-4
1490228531862,11,4,20,27,-42,-48,-26,-8,25,13,19,5,35,86,44,16
1490228531911,-1,-7,-15,21,52,-6,-1,-13,22,7,15,33,-1,-68,-6,21
1490228531960,-41,-16,-29,-41,-11,-12,-38,-25,0,-7,-10,-3,17,14,65,-8
1490228532008,13,-1,-9,-2,23,25,-7,-2,13,9,37,34,-61,21,-44,6
1490228532056,-48,-23,-27,0,89,10,8,4,32,7,14,20,-63,5,-45,4
1490228532058,-26,-8,15,33,-5,0,18,0,-17,-16,-39,-70,59,-3,-62,5
1490228532106,15,18,36,29,-108,-2,-11,-3,-7,-23,-46,-18,-32,1,-59,-20
1490228532154,2,-18,-29,-87,-60,1,34,13,-7,1,0,21,84,22,-74,2
1490228532203,0,-20,-12,5,-26,-24,-72,-5,-22,-6,5,-16,-10,-82,87,10
1490228532252,-24,-1,-15,-1,-18,-16,-10,-5,63,37,12,19,17,-3,32,39
1490228532254,21,-6,-23,-18,50,-54,54,2,-17,36,17,2,-1,40,-5,-3
1490228532301,17,-5,-7,-32,-14,-27,-17,7,85,7,-15,11,-10,22,-29,39
1490228532351,-12,-20,1,35,-19,-113,-26,-6,59,-3,-40,-39,-12,-71,6,7
1490228532398,-53,-80,-18,-15,-12,117,2,30,-4,-5,-13,-40,-38,127,-62,-78
1490228532447,-12,-52,-7,17,20,-114,5,-42,-50,46,-4,-8,7,-101,-25,-2
1490228532495,47,11,30,8,4,-11,-27,18,20,-12,1,47,-5,-14,44,37
1490228532497,-10,68,-28,16,12,-2,57,8,61,-70,-38,7,-8,-3,-38,-3
1490228532545,12,70,-44,8,2,1,58,26,-60,-66,77,71,8,-1,7,19
1490228532594,31,-78,-103,-10,3,0,1,-69,-87,-24,30,-17,-3,-1,-18,-43
1490228532642,-57,-14,-16,11,-11,0,17,-15,-50,-100,-49,-38,-13,-1,5,-19
1490228532692,28,22,96,-48,4,-27,47,-8,-22,4,-8,26,-2,-53,-18,2
1490228532739,84,67,-33,-13,-4,7,-6,2,-80,-103,-8,-6,7,7,-35,-38
1490228532740,-33,3,19,-13,-20,-24,-66,20,116,93,51,69,31,-25,-23,16
1490228532788,47,-25,-11,31,-7,-38,-22,20,6,-17,-42,-16,-15,29,19,28
1490228532837,8,6,-38,-12,-5,7,-27,-62,39,-6,0,6,33,-10,-5,-8
1490228532886,-62,1,-1,13,4,65,60,31,-11,13,-23,-26,-16,-15,-33,-40
1490228532934,-6,-6,-3,-46,-49,-35,-45,-14,-21,24,22,32,65,19,42,23
1490228532936,10,10,2,-16,-3,-20,-5,6,104,21,16,7,-19,-9,-8,17
1490228532984,10,3,-3,21,58,20,-8,-5,69,5,-14,-4,10,37,21,17
1490228533036,-25,-2,0,-1,2,17,32,18,36,16,9,2,-4,-4,-16,-16
1490228533081,1,-1,-11,-17,-4,1,14,-2,-1,1,-8,-27,-25,-35,-49,-6
1490228533130,76,-4,-4,-5,-3,-30,-40,-3,-82,-15,-7,10,16,-5,-24,-18
1490228533178,32,22,2,-10,-12,-16,10,21,-55,-2,12,23,21,40,11,-3
1490228533181,-81,-16,-21,20,-19,-50,-41,-20,95,-4,-10,-28,-21,-25,26,-1
1490228533227,56,3,14,-7,-4,-4,-30,-15,45,-11,-61,-11,-12,-45,-1,13
1490228533276,-14,-27,9,-28,8,-1,39,27,61,-6,-18,28,-13,-19,-26,-19
1490228533325,89,8,-26,-67,-17,-19,-53,-11,-77,-8,48,7,-10,-5,56,18
1490228533373,32,44,-33,-7,-4,-9,-30,15,-78,2,11,-32,-3,8,94,-9
1490228533421,-22,41,12,20,6,6,17,46,50,4,58,42,19,11,41,-18
1490228533422,124,50,73,29,-10,13,-54,20,72,-6,-83,14,13,-3,31,31
1490228533471,-53,-54,-11,62,5,-3,65,21,30,19,63,-52,-11,-4,-31,7
1490228533519,-19,27,-76,-98,10,11,-13,-24,13,-39,9,7,-1,-2,-40,-39
1490228533569,-1,-89,-69,20,-7,-23,-43,-27,61,2,-69,-128,-84,-28,-2,-53
1490228533617,-37,-82,-102,-45,-59,-36,3,13,46,57,127,54,46,43,6,96
1490228533620,-40,-36,-82,53,5,-23,-39,-34,60,-111,-64,-73,-38,14,-11,1
1490228533666,31,-90,-61,-28,-18,21,-15,23,51,106,93,76,33,-12,-32,19
1490228533715,39,59,64,66,17,5,14,43,-124,31,-72,-34,-5,11,-6,2
1490228533763,-117,14,85,42,6,-11,15,20,51,55,-53,63,32,-14,-6,-25
1490228533812,-5,-73,-128,-119,-48,1,34,13,-77,-56,41,-45,24,5,-18,-61
1490228533860,104,55,-52,111,-4,-39,-25,15,-78,76,19,-43,-26,-27,-39,-33
1490228533861,-40,-73,4,8,15,-20,-69,-9,24,7,74,80,-5,11,73,2
1490228533909,55,-39,38,-82,16,10,24,3,5,-9,109,78,18,-8,-21,9
1490228533958,-11,88,119,127,-19,24,39,19,14,-16,31,14,50,9,36,1
1490228534055,-62,-39,37,4,-19,-20,-8,-11,87,8,-128,-90,-17,4,35,33
1490228534057,2,-57,14,4,-31,-20,-48,-15,-25,0,-25,-51,-26,-26,35,8
1490228534104,-12,-8,8,4,29,30,-11,-14,-42,-57,-99,-82,-23,-25,-32,-28
1490228534106,22,-19,-41,24,54,-20,-44,8,1,21,33,6,52,90,53,22
1490228534153,36,45,58,42,-15,23,16,28,-3,-13,5,14,-87,-48,-26,3
1490228534202,13,57,60,29,4,38,23,7,-36,-42,53,-13,-15,37,-9,-28
1490228534251,-35,-40,-78,-71,-11,-17,4,-35,-5,-14,-6,-51,-48,-9,-5,22
1490228534299,-16,-14,-32,-57,-6,0,-31,-19,50,25,33,93,-66,-29,-30,18
1490228534304,18,-2,64,59,-8,-32,5,3,-22,11,-27,-46,35,17,18,-18
1490228534348,31,15,30,-2,-88,-38,35,23,32,14,33,75,66,67,5,16
1490228534397,-50,-6,12,54,45,16,14,-4,20,-1,8,4,-38,8,-20,-1
1490228534446,-12,0,34,21,-5,7,-17,-6,11,8,49,127,-56,-5,-50,-18
1490228534495,-10,1,-12,-65,-21,1,-7,23,-17,-9,-41,-80,56,1,2,-13
1490228534543,4,1,-32,-19,119,3,-26,-8,9,1,6,27,22,-3,-50,-1
1490228534549,2,-9,7,1,-17,0,-21,-6,-14,-1,-8,-25,-9,-3,13,8
1490228534593,14,-13,-5,-2,61,-1,-53,18,-9,-1,-4,-3,-19,-1,21,-1
1490228534641,-20,12,15,-7,-34,0,22,-12,32,14,20,-16,-24,-1,106,22
1490228534690,19,32,11,-6,4,29,60,23,4,-32,-25,4,-11,5,10,-23
1490228534739,-69,-65,-88,-106,-45,-21,45,-23,-56,-28,-33,39,6,-36,-7,-25
1490228534786,60,-5,-35,-25,22,-128,28,54,-62,-9,31,9,20,-128,-34,-23
1490228534788,16,18,35,-16,-16,-54,13,-55,-7,64,57,-26,26,-60,52,81
1490228534836,-40,21,-30,1,-17,-5,5,-118,-83,-26,-76,-52,-12,-8,-59,-11
1490228534885,2,17,-53,-111,-78,-1,6,52,4,29,9,38,48,0,-4,-35
1490228534934,79,-16,-49,-7,31,0,-34,11,21,-9,-27,-33,-46,-2,-13,-6
1490228534981,90,-53,-73,-61,-13,-1,32,-20,-85,-84,38,45,-6,-7,2,14
1490228534983,-75,10,48,-56,-42,-52,-56,-69,122,-5,8,21,-8,6,3,27
1490228535031,-128,-63,-71,-41,-1,-29,-32,13,109,15,18,-55,-16,-10,-2,39
1490228535080,68,91,45,-26,22,28,7,61,-76,-15,102,1,-8,32,25,-75
1490228535128,5,62,-1,25,28,13,0,5,102,-17,1,52,5,-25,-13,-27
1490228535177,-61,45,67,39,11,-3,7,-38,-14,-6,-16,-19,-13,-2,-4,45
1490228535225,80,11,-18,-29,-30,-2,-84,16,-44,-17,-13,17,10,15,3,-11
1490228535227,59,-6,33,49,18,17,14,8,-94,-19,-16,-53,-9,11,12,5
1490228535275,-73,-9,7,-50,-34,-14,25,-37,-48,18,14,33,19,10,48,1
1490228535323,-59,-10,11,3,2,34,-49,5,5,-31,-34,-28,-45,-19,10,18
1490228535372,25,1,16,15,-18,27,73,7,26,7,6,24,1,-16,-32,-2
1490228535420,-41,0,-3,13,28,8,38,4,90,11,11,-16,0,28,-26,-5
1490228535422,-28,-8,-3,9,-18,12,82,-18,24,-3,3,-2,-7,16,-4,14
1490228535470,-2,-2,0,13,2,2,-57,-3,12,6,1,1,-34,21,32,3
1490228535518,-15,-10,-14,-11,-30,-32,-39,29,-40,0,-16,1,10,9,33,-26
1490228535567,-4,2,-1,-5,-6,-6,-3,-3,-13,-2,2,17,19,15,-30,0
1490228535616,40,7,5,-1,-15,1,29,7,-56,-10,5,1,-7,-31,8,-32
1490228535665,-28,-13,-12,-17,-22,-35,-13,4,8,11,6,0,0,-13,-48,-18
1490228535668,-109,-35,-14,-10,6,30,-10,-17,88,15,12,13,1,4,4,13
1490228535715,-30,-13,-6,-8,-14,6,6,-18,-37,-20,22,-26,-7,-19,4,12
1490228535762,66,35,-8,16,-12,-17,-43,-8,-43,-37,-14,-21,-17,-2,6,-13
1490228535811,29,18,51,-74,0,2,11,17,25,19,-22,74,14,3,-18,-39
1490228535860,11,-17,-25,33,-4,-1,-102,-31,21,-4,20,6,18,22,42,20
1490228535908,24,44,40,32,8,36,37,9,-3,-2,69,82,23,-1,7,-26
1490228535909,-128,-96,3,-79,10,6,17,-1,27,90,10,26,-2,-7,16,70
1490228535957,16,35,-55,-83,-4,20,19,39,18,-41,98,32,15,13,-5,30
1490228536006,111,7,70,-67,-22,-1,-53,-81,-85,-11,85,73,32,12,-23,20
1490228536055,56,33,104,84,9,9,51,37,40,23,34,89,60,47,-3,-36
1490228536103,48,61,29,-61,-19,1,-15,-87,-125,-46,-11,80,7,-6,6,-6
1490228536109,88,-1,-109,104,17,-17,88,-2,-114,14,-8,-78,-11,5,-13,-39
1490228536152,71,88,66,16,-17,-12,-46,-25,9,127,56,115,17,-6,24,74
1490228536201,-40,103,102,119,87,74,11,28,67,-99,-128,-128,-22,-6,4,-14
1490228536249,-5,-128,-128,-128,-51,-27,76,42,-101,-78,-10,-93,-57,-31,-43,-66
1490228536298,-48,75,94,108,-28,22,-1,-17,30,127,-27,63,28,57,89,31
1490228536346,2,-128,-128,-125,-77,-55,-29,-19,-16,-19,69,53,-114,-18,15,-35
1490228536348,-63,0,85,109,-33,-43,-11,-23,23,-35,-30,30,-31,-15,-58,-24
1490228536396,85,98,82,33,-28,1,48,50,0,-50,-65,11,33,-1,-21,-30
1490228536445,25,51,73,114,92,-9,-59,6,46,24,-78,-32,-4,-4,19,-12
1490228536493,15,-2,-10,107,44,60,49,7,-45,-82,-94,-116,-27,27,26,3
1490228536542,-26,-11,1,-8,-11,-9,37,-7,39,31,54,38,-28,-13,38,36
1490228536590,-3,-16,-48,-32,-22,40,-30,-5,-31,-15,-51,-99,-65,6,46,13
1490228536593,8,40,100,105,-61,-31,5,-2,-37,-28,-82,-91,9,-23,-10,-35
1490228536639,-38,-23,5,-24,42,22,-52,-22,24,17,24,38,-27,-61,26,13
1490228536688,-32,-9,12,35,19,5,20,-15,11,11,-40,-9,-33,-34,-44,5
1490228536737,-30,-33,-64,-72,89,18,37,1,3,13,46,86,0,-42,-8,-3
1490228536785,14,8,0,-58,-9,-7,45,26,-19,-15,-29,-57,-1,-48,23,-8
1490228536786,30,2,-10,-44,28,60,-17,23,9,-20,11,-41,-39,95,39,5
1490228536835,2,-1,-14,35,57,20,-36,-17,13,13,11,-13,-15,20,-13,-1
1490228536883,10,-5,-1,4,-100,5,-18,1,11,-9,-16,2,9,10,13,-20
1490228536932,-6,-20,-2,22,109,1,75,10,-10,-12,-15,-69,-36,3,-55,-17
1490228536980,22,-11,-29,-41,19,-3,-19,-7,-12,-9,11,47,-39,4,-11,0
1490228537028,-17,23,14,5,55,12,-33,-2,2,9,18,18,-24,-3,-4,-10
1490228537030,23,7,10,16,-18,0,-47,6,-53,-2,-13,-1,-7,50,40,-20
1490228537078,-3,0,-14,-50,-30,22,-1,-6,15,12,-23,-57,-53,6,25,10
1490228537128,-5,-42,-16,-3,-1,-23,72,6,6,5,-17,-38,5,-10,-3,-2
1490228537175,14,39,16,7,-60,-45,-2,-6,-12,-43,-4,9,30,-41,-34,-6
1490228537224,-20,19,28,-8,-17,100,-13,-46,28,27,24,17,26,117,-12,6
1490228537274,25,-20,-66,-58,-15,-128,-8,-34,11,35,22,26,6,-128,11,-5
1490228537276,71,23,61,-35,-3,-54,5,-4,-59,-33,-105,-9,-6,-56,36,31
1490228537322,-9,50,-96,27,58,-10,-18,9,-9,-73,-7,-52,-8,-8,-1,-27
1490228537370,57,-25,-85,-97,-33,-2,-60,-11,-24,84,60,46,16,-4,6,10
1490228537419,-122,-51,26,10,3,0,-10,-23,24,64,-9,-37,-37,-63,30,23
1490228537468,9,-15,5,6,18,-8,9,33,-56,-39,90,2,-7,18,42,38
1490228537469,26,72,53,57,20,19,9,11,29,34,10,0,-12,-9,5,-12
1490228537518,21,-83,-59,23,-6,-17,-33,-10,-55,-79,-19,7,0,-2,1,-28
1490228537567,-52,22,-49,-37,7,27,-40,2,-56,-104,-57,-26,-21,11,50,-12
1490228537615,-101,-9,-84,-121,-56,-46,-59,-55,59,5,-20,-21,-15,22,-12,-3
1490228537664,22,-28,7,14,-3,-15,37,-8,93,34,16,-15,31,-4,-26,33
1490228537712,-49,5,3,-7,-11,-17,30,13,-64,-23,-32,-7,7,16,19,-7
1490228537713,-59,-48,1,1,-6,11,19,-31,-38,-38,-10,-24,-3,-14,-31,-17
1490228537761,10,5,-7,-13,-6,48,19,7,61,3,24,45,16,-5,48,13
1490228537810,-49,5,18,47,14,16,-50,-19,67,-12,-25,-43,-40,-24,4,14
1490228537859,-45,-28,-13,-7,6,30,60,8,18,25,15,-13,-12,-18,-11,-11
1490228537906,83,4,-9,5,8,-41,-43,8,-3,-12,-13,-22,-23,12,16,2
1490228537908,-44,-4,-7,27,23,3,-89,-12,46,4,1,13,-3,19,44,1
1490228537956,-11,-14,-14,-14,-8,4,26,9,-54,-6,-8,-4,16,1,-7,0
1490228538005,29,13,6,-7,6,28,54,25,31,11,11,10,5,8,7,12
1490228538101,-41,-5,-1,-2,-5,-19,-25,-4,4,6,-1,-3,-3,2,-38,-3
1490228538104,-5,4,3,1,6,-7,4,-2,39,6,-4,-1,3,15,-12,-7
1490228538150,-41,-22,-3,4,20,20,27,-12,-9,-13,-5,-9,-17,-20,15,-1
1490228538153,10,-13,3,-8,-12,12,37,7,-48,-8,-19,-7,6,3,-79,-22
1490228538199,8,7,-7,45,-4,10,10,20,44,-6,20,-10,1,-15,-13,6
1490228538248,17,-12,-8,-27,-14,-18,-35,12,-23,6,-29,9,7,10,6,17
1490228538297,-63,23,2,16,11,15,42,2,-23,-27,0,17,-9,2,-42,14
1490228538346,127,13,54,1,-13,6,50,27,-77,-13,-35,-55,-22,-14,38,-18
1490228538394,9,-9,30,-34,-2,19,15,-7,-29,31,-54,-25,5,7,31,66
1490228538396,56,-16,67,105,-3,-2,-3,25,-15,-7,-77,-60,-3,5,-22,-43
1490228538443,-34,0,98,47,-15,-9,40,-37,-3,77,14,-30,5,27,6,28
1490228538493,-38,21,98,53,9,-4,-53,-53,70,50,114,127,53,35,99,47
1490228538541,102,3,-128,-67,1,-20,-50,41,-84,-128,63,-113,-36,34,9,-56
1490228538589,-127,25,-106,65,54,28,35,-99,127,-11,-121,-60,-24,-22,-38,70
1490228538591,-31,50,-60,37,-9,-20,-95,-5,3,-78,-83,-76,-19,-22,50,34
1490228538638,-30,-19,-41,-72,-49,18,-6,16,-51,82,127,66,25,10,20,-15
1490228538687,-83,-32,14,-80,-95,-9,-33,-69,43,-77,-18,70,79,19,-7,27
1490228538736,-128,68,81,30,12,-10,18,38,45,17,73,31,-33,-8,13,14
1490228538784,3,-42,9,-15,-7,-28,-17,-27,-28,44,-94,-22,8,-2,-9,-21
1490228538832,37,11,3,3,-13,-15,16,59,118,65,15,84,43,-3,-24,16
1490228538834,-42,36,62,-17,-26,31,-20,26,-56,-59,-128,-100,-14,12,34,-38
1490228538882,83,115,98,95,55,44,26,-46,-26,-32,95,-49,31,-9,6,16
1490228538933,2,-87,-128,19,103,-4,14,-8,61,-26,-22,-36,-48,34,1,25
1490228538980,39,-40,-56,-114,-66,-42,-22,-10,-45,-13,-85,-72,-44,-35,0,-24
1490228539028,25,52,67,53,16,-39,-46,-13,-14,13,30,78,29,54,37,8
1490228539076,-6,26,58,-8,22,50,51,4,3,-24,-70,-64,-89,-53,-31,-8
1490228539077,9,19,23,127,94,69,25,24,-16,-10,19,-65,-59,-9,-22,-6
1490228539126,-4,7,28,-12,-35,-19,34,2,-7,-32,-25,27,40,6,-32,-24
1490228539174,-18,-11,-10,24,115,19,-32,-39,13,13,23,-12,-4,4,17,4
1490228539223,12,-9,6,21,-64,-61,77,9,-20,-18,-42,-51,-2,33,18,-10
1490228539272,9,-1,-2,33,42,14,5,13,-2,6,13,-8,49,-8,35,-4
1490228539273,-4,-16,-34,-34,-33,-38,13,1,-10,-10,-10,2,55,56,-61,-18
1490228539321,-13,16,16,44,-36,-56,-11,-19,13,15,-21,-26,1,-68,23,23
1490228539370,-10,9,3,34,64,85,21,7,26,6,-4,-29,-79,-11,-44,-7
1490228539418,23,-15,1,25,53,36,-2,5,-17,-23,-15,-39,65,36,52,-13
1490228539468,25,1,4,0,-7,4,31,32,-25,-12,41,-45,-128,12,-55,-39
1490228539525,16,7,37,5,-79,2,17,27,-9,-14,-6,26,-19,75,72,-3
1490228539526,-42,-7,-16,44,65,-12,4,-13,35,-12,-1,-19,-74,-32,-69,11
1490228539564,18,-10,15,45,-48,-30,-7,-9,-1,-13,-35,-14,72,6,33,27
1490228539613,8,13,2,-6,-14,16,-78,-4,-3,10,-24,4,34,9,-44,-26
1490228539662,-9,8,-3,-13,23,14,27,-8,0,4,1,20,-21,12,22,-1
1490228539711,17,5,-7,-34,-82,13,6,4,20,3,3,34,109,23,33,17
1490228539759,39,13,18,25,-12,-34,-68,10,-58,-42,-39,-34,-13,10,40,-33
1490228539762,-20,-18,26,-3,-15,-127,29,-3,38,46,-1,24,53,-64,-60,21
1490228539808,6,38,18,-43,-29,88,-16,-29,-43,-51,-43,41,16,127,-8,-53
1490228539857,73,14,26,65,9,125,-27,-1,-87,-39,11,-23,-8,127,16,10
1490228539906,38,-43,-24,-17,-24,-126,-9,4,3,-22,-56,-29,-2,-121,-17,-12
1490228539956,-96,-2,-53,-5,-7,-23,2,-48,38,48,42,19,-4,-16,10,21
1490228539958,32,-128,-17,15,21,-51,-23,-7,-102,-30,59,-33,-25,-21,-10,12
1490228540003,-98,-19,35,-31,-13,-8,-18,-43,72,-12,-4,40,-8,23,-18,11
1490228540053,-17,-52,-81,-83,-12,18,-23,-4,14,10,-14,36,-12,13,-2,21
1490228540101,-41,-4,-63,-50,-32,-6,-30,3,-20,-62,-60,-27,-10,-5,43,10
1490228540150,11,-26,-42,36,-5,7,24,3,26,24,38,-8,-9,0,-10,55
1490228540198,-54,-22,-110,-18,16,-8,19,-49,36,-20,-23,-43,-24,21,51,-34
1490228540199,-11,18,39,-22,1,-3,-8,10,3,-53,-34,-40,-21,-20,-7,-33
1490228540247,64,2,8,30,-1,-12,14,-8,-47,30,38,18,10,19,13,2
1490228540296,70,-15,8,-17,-8,7,25,1,5,48,2,17,5,-5,-40,15
1490228540344,-44,-23,-22,-9,7,-15,35,35,30,18,11,-26,3,-17,4,1
1490228540393,-10,-5,-6,-21,-28,-3,10,-32,-96,-14,-9,-4,-11,2,34,-17
1490228540441,-15,-14,-14,-28,-8,-10,-17,-2,30,-8,12,29,26,65,17,16
1490228540442,-8,-1,5,10,15,15,24,6,29,-2,-11,-18,-25,-12,-40,12
1490228540491,58,6,-2,-9,-18,9,53,15,-34,-11,15,17,23,-6,-63,-45
1490228540540,-52,-2,0,-11,-13,2,35,-2,38,-19,4,-16,3,16,36,23
1490228540588,-3,9,0,8,6,-2,31,-8,-9,-21,-14,-12,-3,30,35,20
1490228540637,-14,-4,-14,-6,-9,-13,-20,10,-2,1,7,1,3,2,7,-23
1490228540638,-3,10,2,15,-6,-3,-25,-23,-32,-6,-22,-6,-10,8,12,27
1490228540686,0,7,13,16,9,12,-32,14,18,39,49,45,0,-18,23,-19
1490228540735,-12,17,-50,-6,-1,9,16,7,28,7,35,-38,-11,-9,15,5
1490228540783,-53,-31,-14,-16,-12,-3,33,-8,11,43,-3,-13,0,14,-40,-15
1490228540832,9,-31,-34,-84,-37,-30,-22,-8,-50,-44,-33,-29,-22,-16,-59,16
1490228540880,-85,4,125,84,6,21,65,74,72,70,127,101,51,36,18,-39
1490228540881,-81,-113,6,0,13,0,-41,-79,26,101,-69,-26,16,-16,9,21
1490228540929,-41,-40,-55,15,13,-12,-84,-56,-23,-76,-60,-103,-17,6,32,22
1490228540978,29,29,2,-6,-6,-4,1,8,17,24,87,127,39,51,-33,69
1490228541028,127,-23,46,83,-12,-8,35,10,-83,-41,-25,-76,-19,-19,-26,90
1490228541076,117,106,41,99,26,10,23,13,-103,-61,-76,-5,-3,-2,-9,-12
1490228541079,15,-21,-39,-13,28,30,-15,-37,-46,19,29,-22,-2,22,2,11
1490228541124,63,-76,-24,92,107,30,41,42,81,88,72,-117,-3,-10,3,-16
1490228541173,43,63,-42,43,0,4,-15,16,76,-45,-88,-27,7,-20,14,46
1490228541222,-12,39,43,-39,28,45,5,37,78,15,-59,-35,-36,-20,-33,-63
1490228541270,-94,-54,49,67,16,7,3,-38,106,42,57,103,51,36,-25,70
1490228541320,39,-57,-119,-128,-54,-32,54,14,-67,-5,52,-47,-28,7,13,7
1490228541322,-83,17,-102,127,29,18,-62,-44,60,-24,61,-91,-6,13,86,38
1490228541369,-102,-101,-12,-122,-67,-11,-39,-64,18,113,61,44,-53,-31,-41,16
1490228541417,26,-48,-93,-9,48,50,13,36,-119,22,91,11,0,-24,38,-12
1490228541465,-50,26,101,114,-13,5,-29,0,-43,2,-75,4,55,11,56,-11
1490228541514,47,51,127,80,77,-33,-18,15,-21,-42,-101,-61,-35,-61,-32,-9
1490228541562,-19,-39,31,-57,-37,-6,-27,-4,1,44,-74,34,2,68,29,4
1490228541564,-31,-50,-76,-51,-94,25,62,1,0,-30,-47,-36,-70,-67,-10,-27
1490228541613,15,-24,19,4,-53,28,-25,6,36,14,-3,-13,76,-31,-17,-24
1490228541661,24,-8,-24,-46,64,21,-51,-1,-19,3,23,24,-67,-19,-14,6
1490228541709,9,-1,-13,-1,37,24,-29,26,4,4,27,50,65,37,38,17
1490228541757,-13,-22,-26,-32,-114,43,90,11,10,5,12,53,36,6,-20,-11
1490228541758,-62,-9,-23,-54,43,20,35,-15,4,1,32,22,-89,-56,-26,-7
1490228541807,16,-2,8,-27,-40,-6,13,15,9,9,10,40,-63,-87,-45,-4
1490228541855,39,17,-4,-56,26,-80,15,27,-10,3,-7,4,38,2,13,-19
1490228541904,-2,1,24,17,-70,-42,11,-14,13,17,19,-9,-13,-64,-39,22
1490228541953,5,2,-33,-15,-45,68,12,4,16,8,10,51,28,40,-9,9
1490228542001,-6,-1,-16,-52,-14,-57,-32,-13,17,7,12,23,-3,-60,9,6
1490228542003,-19,-25,30,105,85,-75,-18,1,18,-31,-15,-41,-114,-64,-49,17
1490228542052,-28,-17,-11,-59,-100,34,-11,-33,-2,-6,6,82,83,-117,0,4
1490228542100,-5,-12,-17,-18,34,23,9,0,-14,-8,-4,1,-66,-9,1,-15
1490228542148,-5,-4,11,-18,-76,-81,12,7,-12,7,-45,-24,66,127,-5,-19
1490228542197,23,32,25,26,-12,-18,34,11,-5,8,-4,-15,36,41,34,-1
1490228542245,0,9,0,-11,27,43,127,3,-9,10,8,12,-74,-9,20,5
1490228542247,-24,-17,-4,5,36,36,-7,-9,-3,-1,5,2,-53,-34,50,4
1490228542295,18,-6,-7,-30,-33,-113,-1,13,-5,2,14,29,-17,-104,-4,8
1490228542343,9,-10,12,9,25,-128,2,11,-38,26,7,3,-5,-39,-4,-23
1490228542392,26,31,36,27,8,46,7,-1,-13,7,-17,14,3,55,-35,-15
1490228542440,-53,-35,-4,-20,-14,119,0,8,66,-6,-19,-33,-35,127,25,52
1490228542442,14,55,-10,8,4,-128,-13,-5,-28,-73,47,50,-15,-112,-2,-7
1490228542490,-32,-23,-34,-9,18,-72,-36,26,5,41,100,5,-7,-43,42,-22
1490228542539,-91,-47,-51,-41,-4,-13,-8,1,88,-13,-28,-31,-2,1,29,0
1490228542587,-14,56,56,34,-29,-58,31,34,-49,-22,12,-30,6,-28,-21,15
1490228542636,60,-14,23,88,12,0,-26,7,-48,-12,25,-82,-18,-2,6,-17
1490228542684,-8,-52,-20,-62,-5,-12,-69,-29,127,65,68,65,26,39,-4,-21
1490228542685,55,10,2,48,6,21,40,40,-61,19,38,-26,-13,-17,-45,-24
1490228542733,7,-18,7,49,10,13,12,18,-20,-4,-51,-39,-16,-12,-3,-17
1490228542782,-91,29,37,44,19,16,-6,-29,29,-22,0,6,8,13,49,-36
1490228542831,-2,4,-1,10,17,5,6,5,28,-31,-50,0,-18,-12,-16,9
1490228542879,-9,-25,-32,-23,29,2,-62,-2,-11,43,57,22,-32,13,62,3
1490228542928,12,24,-57,4,-8,-27,-6,17,65,10,31,23,10,-13,-13,-20
1490228542930,-10,-7,-24,3,0,-13,-21,-7,-29,7,-5,-6,8,-21,-9,-23
1490228542977,0,-6,9,0,-4,-44,53,24,101,25,18,21,14,4,-100,-8
1490228543026,-90,-3,4,3,11,4,1,17,16,-2,2,-11,-8,16,60,3
1490228543074,-50,-13,-11,-20,-35,-7,40,13,-51,-11,-5,13,16,5,10,1
1490228543122,-34,-19,13,-8,-14,12,-4,-5,-21,-12,2,43,25,-5,10,-4
1490228543124,24,18,3,-11,-39,26,25,43,34,20,1,22,58,6,28,-6
1490228543172,-3,-5,-3,-16,-6,-15,11,-9,-37,4,2,-18,-23,3,17,-1
1490228543221,-44,-2,-1,-20,-23,-16,-40,-24,-14,-1,1,-2,8,-12,-14,-22
1490228543269,-18,-15,-1,-2,2,-3,-19,-14,-6,10,3,7,4,7,-14,12
1490228543318,40,8,-7,-7,-11,-33,-58,-12,-36,-14,-6,-21,-15,-4,67,10
1490228543367,24,12,9,10,-5,-15,7,-15,28,-1,23,9,7,34,17,12
1490228543371,65,-29,-74,-39,-2,2,68,-1,26,20,18,-6,-7,-1,-35,6
1490228543416,50,4,-18,24,4,9,17,17,53,1,74,21,5,-8,-55,9
1490228543472,49,9,-9,36,-1,-10,29,14,69,-7,-26,-41,0,32,-11,10
1490228543513,45,18,5,-51,8,39,-75,20,-56,11,-23,-2,-9,0,30,-20
1490228543561,73,9,48,10,4,-9,35,9,-44,-53,-21,34,19,24,0,42
1490228543563,-128,-26,-80,-86,-31,-37,9,-18,115,28,17,-3,-31,-45,-63,-12
1490228543611,111,42,53,-53,-24,-32,-37,-52,-128,18,-46,-51,-21,-1,-38,-40
1490228543659,100,32,56,57,41,92,28,55,-34,-20,47,83,25,-36,57,-43
1490228543708,-128,-40,-4,-90,-8,12,31,-66,-10,35,41,81,49,20,16,47
1490228543757,-43,-38,-7,-126,-40,-56,-75,7,108,7,-37,2,-41,-5,5,25
1490228543805,-79,-65,-49,-69,-43,-28,1,-17,-18,17,11,27,-35,18,36,66
1490228543903,121,-70,-69,-37,-55,-23,5,13,-14,-6,4,-75,1,-51,16,9
1490228543904,97,50,-92,-43,9,-23,-54,10,-128,-104,-85,-92,-59,-36,-35,-98
1490228543905,12,86,103,127,75,84,43,37,127,-100,-128,-128,11,11,-20,19
1490228543952,-128,-33,70,54,23,-10,-71,-38,116,127,84,127,63,76,114,36
1490228544001,-48,-34,-36,13,15,-9,-9,-2,-80,-82,-113,-27,6,-1,42,46
1490228544049,-40,-23,45,-68,-77,-62,-28,-99,-26,-79,-25,-14,-113,-33,-74,-16
1490228544052,121,86,-117,-93,12,-4,-2,46,-111,-86,25,-71,-4,-38,-4,-74
1490228544098,46,-58,-72,-36,19,32,22,5,-93,-83,13,-92,-90,-13,-10,-8
1490228544147,7,29,127,96,-74,-22,-22,-2,20,-10,-128,-11,44,-23,-7,-24
1490228544197,28,47,90,127,47,20,-44,8,44,-11,-49,-57,-59,10,25,19
1490228544293,-36,27,-10,70,-22,-4,22,-25,0,-53,-11,-88,28,22,-25,7
1490228544294,-32,4,62,24,52,34,-23,-13,37,33,38,70,0,-6,31,18
1490228544296,0,-8,20,-38,-60,-14,5,11,9,-29,-97,-66,58,-16,9,-5
1490228544342,1,14,25,-2,-73,-47,17,11,5,-43,-82,-66,-49,-4,3,-3
1490228544391,-7,-6,-39,-70,-70,-43,-48,-22,15,-6,-10,-27,-8,28,32,18
1490228544440,0,-10,-24,-30,-56,32,-3,-4,22,6,18,18,22,29,28,9
1490228544488,32,-5,26,12,-18,-16,-14,21,-28,-22,23,21,-4,-39,9,-17
1490228544489,6,-7,-40,-32,71,4,31,-16,37,26,45,69,1,-6,25,22
1490228544537,-10,-15,-37,-72,14,40,-20,-32,1,-6,25,-12,7,40,-5,13
1490228544586,-7,11,8,3,57,-8,-12,-9,20,8,15,20,-5,34,-32,10
1490228544635,22,0,-2,-3,-65,12,15,15,21,0,26,34,41,-1,-69,-28
1490228544684,-12,-19,-10,-47,37,79,76,-22,-20,-23,-29,0,105,-45,8,15
1490228544733,-40,-8,12,-21,-40,-65,-12,2,-10,-20,-11,-5,69,28,-21,-5
1490228544737,8,-5,-20,-50,-30,-128,14,20,6,-12,-4,45,38,31,-11,8
1490228544781,4,-37,14,7,-28,47,-53,-7,13,-3,-1,20,60,-23,-40,6
1490228544830,24,46,17,39,-26,66,85,20,-3,14,15,-9,24,-68,25,-3
1490228544879,5,32,15,-8,22,67,87,18,7,13,-6,0,10,-32,70,5
1490228544927,-14,-11,-1,27,-13,-58,-40,-2,-1,-2,-15,-44,-38,29,-19,-26
1490228544928,-11,-5,-9,-27,-9,23,18,-17,16,7,7,21,-9,-102,5,25
1490228544977,4,0,-4,-18,-19,-16,25,4,-30,-1,-12,-10,-20,37,-8,-14
1490228545024,20,1,11,13,16,77,-48,13,10,4,43,22,15,82,-5,8
1490228545073,1,-26,-18,20,20,107,-30,-4,-18,-14,-33,-16,-4,116,-14,-21
1490228545122,49,76,51,35,-3,-128,59,94,-60,-106,-111,-63,-27,-119,7,-55
1490228545218,-25,-51,-19,-12,-7,-65,24,8,41,36,15,-22,9,-58,-30,-23
1490228545219,-2,-30,-39,-5,7,-65,-14,-23,-25,5,65,-53,-17,-51,9,11
1490228545221,-21,-30,9,-20,-22,-29,-39,17,14,31,11,6,10,-11,13,-28
1490228545268,-103,17,25,-40,-21,-15,-6,-55,23,-84,-95,-43,-32,11,-2,34
1490228545317,24,-16,127,-35,-33,52,10,-92,65,40,-88,-77,-15,-14,-37,48
1490228545366,50,1,-21,3,21,12,2,12,-3,88,103,75,34,2,24,15
1490228545414,-19,9,-55,-36,5,1,10,-95,-9,-95,29,24,-10,-2,-6,58
1490228545416,15,79,56,73,18,-15,-37,-9,44,21,32,-12,-12,7,54,31
1490228545463,46,-1,-72,7,7,31,5,31,-5,-44,-80,-80,-26,-25,-45,-29
1490228545512,71,-1,-18,-19,-53,-20,-79,-14,-59,-58,-72,-27,19,8,20,-33
1490228545560,-40,0,75,72,28,25,40,11,2,5,-32,18,6,5,-21,9
1490228545608,11,-41,-25,-19,-13,-18,-8,2,15,-31,-35,-7,-4,-14,31,1
1490228545610,10,-6,-10,-9,0,1,41,6,33,18,17,5,-30,6,16,28
1490228545658,-47,3,60,16,18,26,-4,-19,-36,-5,22,39,9,-25,-26,-6
1490228545707,19,-3,14,-9,-23,-19,3,6,-40,5,-1,16,37,53,-10,-30
1490228545755,22,21,-2,-8,9,-3,73,4,-19,3,-2,14,1,-36,-17,-12
1490228545804,51,1,-2,-7,-5,-4,-85,26,25,-3,3,10,5,-9,23,-23
1490228545853,-13,6,-3,-23,-21,10,53,23,-10,-4,9,-17,-22,-1,-54,-29
1490228545854,15,9,-2,-1,-10,-14,43,4,19,3,1,-23,-19,1,-50,4
1490228545902,3,-2,-16,4,4,-2,-13,-3,22,-7,-17,-4,-4,-3,-16,33
1490228545951,11,-15,-3,8,5,-7,44,-7,-19,-18,0,-4,2,8,-64,-18
1490228546001,15,0,3,-14,-8,3,-14,-21,71,12,13,14,25,6,8,5
1490228546048,4,0,-17,-30,-19,-6,-20,-18,-5,-22,-20,-21,-2,-10,13,8
1490228546097,-17,-30,-10,-4,-4,4,-16,11,-8,-7,25,1,-13,-35,2,4
1490228546101,-13,-13,19,6,-5,-6,10,-2,78,35,20,28,13,36,-28,34
1490228546146,3,16,17,15,6,10,8,-9,-24,24,25,19,19,-4,-10,2
1490228546194,93,-49,-39,35,2,-25,-87,12,-55,29,-18,-7,-7,12,54,-5
1490228546243,-65,-18,-64,51,14,-4,-13,4,53,72,-15,-14,-8,-27,31,0
1490228546291,114,101,109,9,-8,-16,-70,-17,-115,-101,-102,40,18,24,66,-8
1490228546293,26,-45,-68,-40,-14,8,84,17,45,53,85,11,18,15,-27,54
1490228546341,3,45,71,90,20,22,1,-7,-16,-84,-128,-74,-54,-31,-25,-23
1490228546389,-21,41,1,-49,11,15,-52,-93,77,105,127,127,42,14,27,42
1490228546438,107,31,7,-108,-22,-20,-58,-40,-117,-98,-107,-14,-10,2,-51,-27
1490228546487,-53,-80,95,63,27,24,-76,-57,-77,-20,25,3,-10,-3,8,30
1490228546535,17,32,38,65,-9,-40,-25,41,-106,-99,-118,-88,-24,-39,-115,31
1490228546536,18,-52,-1,30,-21,10,-45,43,-59,-69,-33,-32,19,11,46,-24
1490228546584,-29,41,57,47,29,5,21,-59,8,-43,-101,-19,-16,-49,-61,-48
1490228546633,30,2,100,16,-13,-23,-29,8,117,127,-31,76,52,0,31,-6
1490228546682,-104,-59,-128,30,-38,-40,-5,-23,-2,-115,-34,-128,-23,11,-18,25
1490228546730,94,-78,15,63,-14,-3,8,-35,-67,15,15,54,-43,36,2,11
1490228546731,-7,-17,-84,-61,13,-17,9,15,34,-3,-57,21,-31,-25,29,-5
1490228546779,31,-90,-128,-128,-45,-59,2,17,-13,58,99,-1,-7,-14,-40,85
1490228546831,-64,-9,-27,-128,-38,-2,31,-30,33,3,106,91,47,21,-35,20
1490228546878,36,-5,-63,44,-38,-7,8,28,3,56,97,-84,12,19,38,-32
1490228546926,21,-58,-105,35,-22,-4,65,-4,-32,-69,0,-22,-34,44,-36,-35
1490228546974,-7,-4,54,36,71,62,13,11,-16,-81,-41,-64,-12,-43,-42,-21
1490228546976,21,58,86,100,40,28,37,13,-8,25,42,-40,1,50,76,19
1490228547023,-17,-3,-83,-92,37,-46,-23,-14,39,29,76,17,-23,42,84,25
1490228547072,-2,-5,-27,58,3,-14,-49,-9,-68,-70,-95,-114,-87,-29,-59,-48
1490228547121,8,-5,22,-17,-1,-16,7,5,-1,-38,-99,-94,45,-8,2,8
1490228547170,38,2,-5,0,-32,9,30,29,-27,6,3,-18,-18,-9,-16,-16
1490228547217,-2,1,0,-14,-64,-23,11,-8,-19,4,28,-45,-80,41,-28,-12
1490228547219,-11,-20,-41,21,66,-8,-5,-8,-8,20,19,70,37,-95,9,-10
1490228547267,-27,-1,5,-3,29,-29,-71,-44,-1,-1,14,13,-33,-6,11,-4
1490228547317,-5,27,21,50,-12,-78,29,4,19,13,8,-16,4,31,45,15
1490228547364,2,5,9,57,25,-28,24,19,-3,-5,-25,-30,-41,-16,-84,-28
1490228547413,25,-19,-1,-47,-20,28,-15,17,18,-8,26,87,-76,16,21,-4
1490228547414,-22,-21,3,56,-43,-9,-46,-17,-3,-25,-47,-21,11,23,-12,-3
1490228547462,41,26,16,99,62,-71,78,24,-6,-6,-18,-21,30,-17,27,14
1490228547511,4,6,8,-27,7,-57,-16,-3,24,11,12,2,-111,-22,40,36
1490228547559,-11,-22,12,27,5,-37,-88,-22,14,-2,-5,-66,19,11,11,23
1490228547608,21,22,6,-18,-39,-12,42,16,-20,24,-12,0,62,3,15,-9
1490228547656,-1,35,10,14,37,-6,-22,-14,-31,13,13,22,-11,27,76,8
1490228547658,-17,-5,-9,-7,-13,47,41,-16,2,-6,4,5,0,-10,-31,-4
1490228547706,-18,1,10,-13,-52,1,-21,-2,-13,-27,-39,8,-42,-12,21,4
1490228547754,17,1,27,-7,-21,-29,29,21,-4,-1,-42,12,20,17,-16,-11
1490228547803,-14,-8,-22,8,-2,-13,-9,-8,24,69,84,16,2,-19,-11,5
1490228547852,14,87,86,40,24,115,-20,31,49,58,85,94,24,89,16,11
1490228547900,6,-63,-23,5,27,110,39,-4,14,40,-39,-76,-9,83,-9,-22
1490228547902,-61,-12,16,39,12,-67,43,6,41,-2,-64,5,-12,-112,-32,-39
1490228547997,57,46,74,30,-8,1,15,0,-112,-65,121,71,15,3,-2,-40
1490228547999,-77,-75,-72,-55,2,20,49,2,-2,-31,58,17,-14,-11,-61,-27
1490228548047,29,48,84,80,23,-11,-22,2,-52,-50,-128,-62,-18,-15,13,-42
1490228548095,-104,-8,33,12,-4,-2,10,29,77,26,28,-43,-20,1,31,46
1490228548097,53,-54,-103,-36,-33,-9,37,21,-42,-22,-62,-37,-12,5,-61,-34
1490228548144,18,-22,1,10,14,-14,-20,50,-74,-43,-68,25,24,41,61,64
1490228548193,29,-33,15,11,11,9,18,-44,14,51,72,18,12,-6,-30,27
1490228548242,-38,0,34,25,-1,1,-3,-6,-33,-68,-51,-86,-58,-26,-36,-44
1490228548291,-32,-4,-71,-126,-88,25,-27,-8,43,29,88,38,39,4,46,29
1490228548339,24,-20,6,9,-2,2,-21,-5,7,5,-70,-52,-24,-15,-5,-9
1490228548341,-35,16,2,29,-12,5,-3,-12,-69,32,52,25,1,-9,-1,29
1490228548388,-27,-4,-18,-1,11,-3,-5,-20,23,2,41,14,17,-11,-21,13
1490228548437,-5,4,5,7,0,15,34,-3,36,-19,-11,-22,-8,-21,2,-1
1490228548486,24,-9,-12,-13,0,11,34,21,9,-6,-5,-22,-24,-24,-28,-8
1490228548535,2,2,14,5,-1,19,-15,16,35,-1,-11,21,-45,-11,-52,-56
1490228548583,-3,-15,2,-23,-36,2,-45,-14,-16,-14,11,-8,36,25,-3,-7
1490228548587,31,32,5,9,0,-27,38,10,-29,30,0,15,25,-3,-35,-13
1490228548634,-13,9,4,3,6,8,0,10,9,-3,-9,-16,-12,2,-34,-1
1490228548681,-44,-2,6,4,-7,-28,8,-9,10,1,-2,-31,-8,19,18,-13
1490228548729,46,5,-1,-9,3,3,-47,-2,38,-7,1,-3,0,-27,-9,14
1490228548777,-1,-5,-2,-15,-21,-20,-53,7,10,9,-13,-3,9,-16,-25,-34
1490228548780,-10,6,-11,-22,-10,12,-36,-22,-70,-47,-17,-27,-7,20,49,1
1490228548827,-126,13,23,75,24,-1,61,-11,79,14,5,-53,-26,0,-33,11
1490228548876,79,-2,-1,-20,-11,-11,17,40,46,32,-51,-19,3,17,30,15
1490228548924,-73,3,57,57,16,1,31,0,57,29,-44,16,20,20,26,14
1490228548973,20,-39,4,45,12,-1,-45,6,-30,12,-5,18,-10,-22,17,-5
1490228549024,-86,-45,-31,40,-11,-4,-53,-12,86,9,26,-31,-1,14,-15,-1
1490228549026,-98,26,74,39,16,13,43,-6,-43,-21,-26,10,25,33,13,-5
1490228549072,-39,-46,-50,-77,-18,-8,-27,16,107,-20,-10,-49,-38,-16,58,-7
1490228549120,-42,48,91,44,35,43,-31,-41,-109,57,72,88,16,-4,16,22
1490228549169,3,-12,-81,-104,-12,10,26,15,-128,-26,83,-6,-41,-33,35,1
1490228549216,97,-33,-82,58,-45,-44,26,78,-53,-128,-43,-100,-12,-22,13,43
1490228549220,4,-47,97,-81,-12,-32,-20,12,38,26,-71,113,31,30,14,13
1490228549266,127,119,68,-33,5,-34,-54,-4,-128,-49,-50,118,82,82,56,-1
1490228549315,-90,-55,-96,-82,-31,-21,5,-83,-63,26,83,-36,-34,-13,2,4
1490228549363,57,-11,-121,-94,0,1,54,2,4,-104,-17,-61,-68,-62,-70,-34
1490228549412,-57,-58,-45,56,-51,-25,-38,2,-74,-74,22,-71,8,-16,-44,21
1490228549461,114,107,-75,127,42,4,49,69,-6,-128,-70,-128,-27,-10,-27,-28
1490228549464,-128,-97,127,-18,-36,7,-81,-125,91,99,-24,29,20,16,54,71
1490228549509,50,-6,-79,-86,38,45,33,-14,-50,-4,-84,-114,-66,-48,-61,-23
1490228549558,108,116,2,105,97,40,38,22,-79,-38,-41,-46,-65,-5,31,28
1490228549607,19,-26,-57,-43,34,18,3,53,-14,-60,-93,-53,-37,-10,10,-28
1490228549656,-68,-20,71,-10,-40,-19,-63,-86,0,-27,48,102,9,-26,0,-6
1490228549704,-16,8,-65,70,-45,-40,20,-13,-1,-35,-47,-34,61,22,-73,-31
1490228549705,3,91,75,101,44,41,-30,-18,4,-30,-111,-102,-68,-30,7,10
1490228549753,-19,-128,-128,-128,-88,-17,-19,-1,-15,83,82,51,11,28,28,-6
1490228549802,-18,-15,-79,20,-11,-29,9,28,111,127,119,107,72,84,-5,5
1490228549850,59,-60,-95,-107,6,41,34,29,58,125,90,120,79,-9,-2,35
1490228549898,55,51,25,41,21,-15,73,45,-76,-122,-128,-113,-36,-6,-6,-20
1490228549900,-87,-107,-128,-102,-14,7,-48,-48,11,25,57,30,-18,-7,8,-10
1490228549948,9,35,72,72,74,40,39,-16,-36,-46,-128,-128,-39,-20,-31,-17
1490228549997,-27,-26,-91,-38,-103,20,-48,-20,41,71,95,100,92,-19,-5,22
1490228550045,-23,2,-88,-126,-66,-32,5,-27,-24,-57,-98,-38,-66,-15,-10,-1
1490228550095,-7,-36,-42,-28,30,67,41,15,42,17,13,30,-20,31,-40,23
1490228550143,6,-12,25,70,83,-31,-36,-24,0,-18,-39,-17,-6,-75,-13,0
1490228550151,16,30,69,85,-128,6,32,23,-26,12,11,23,87,16,25,-14
1490228550195,0,-19,-26,-59,46,79,-26,10,-4,-30,9,60,8,-39,46,9
1490228550241,8,3,35,31,50,-47,-8,-2,-16,-8,-52,-93,70,53,-4,-12
1490228550289,-16,-14,-36,-37,99,127,61,-17,10,12,15,24,-91,-16,-38,4
1490228550338,-16,0,-3,-15,55,-44,8,0,-6,5,10,-34,-60,-9,34,-19
1490228550386,-47,-24,-30,-24,-55,-81,-31,-52,-3,-5,-28,-19,-7,-67,32,31
1490228550388,8,-19,-88,-115,7,22,-35,5,-28,-19,28,-8,18,-32,-16,-17
1490228550436,-39,-16,31,51,23,10,-47,-15,33,29,5,13,-34,-50,-15,-4
1490228550484,38,-4,-21,19,44,-47,-27,15,-6,34,37,-7,-3,-35,38,-15
1490228550534,34,28,21,47,-7,51,-17,26,-4,90,104,66,57,79,-1,15
1490228550581,-11,-19,-37,-32,-32,-45,11,16,105,32,83,89,28,-53,14,30
1490228550583,-29,-39,-29,-57,-56,-83,19,-6,95,79,106,94,55,-41,-30,29
1490228550631,-52,-15,-52,-111,-39,-7,-22,-1,-45,5,-5,-29,-2,-2,45,-47
1490228550680,-37,38,9,-12,19,-43,-44,-27,-27,-69,-85,-23,-37,-66,-20,16
1490228550728,-47,29,-48,35,-3,-33,-23,16,-52,-99,-6,-4,3,7,27,-53
1490228550777,-80,-52,45,16,16,-18,45,-34,-11,-10,-85,-53,-37,-43,-45,5
1490228550825,-37,-71,27,23,8,2,29,21,-5,45,-5,39,4,20,25,17
1490228550827,44,65,16,11,-33,-14,-29,23,11,-84,-44,-53,-7,6,-22,-32
1490228550874,-4,-5,33,-6,-28,34,38,9,94,30,-21,-9,31,-12,28,22
1490228550923,32,79,50,-82,-23,-20,-31,-24,-27,-81,-4,58,22,-8,-46,54
1490228550972,4,36,24,13,6,8,-54,13,66,55,101,52,33,20,71,40
1490228551020,1,-30,-6,12,1,-9,-33,-2,-56,-18,-73,-74,-49,-11,-59,-42
1490228551069,-49,-23,-2,-5,7,8,23,3,-2,22,61,80,13,18,-5,-13
1490228551070,26,10,3,15,9,44,21,11,-98,-12,-22,-69,-47,5,48,-10
1490228551118,3,-3,15,-4,8,-5,-88,-4,-55,4,60,30,-6,45,59,-1
1490228551167,7,-1,-12,-12,-33,-8,50,4,-15,7,3,18,49,-4,8,-13
1490228551216,-27,10,12,51,47,14,44,-6,43,7,-28,-53,-18,-28,-16,13
1490228551263,20,-1,17,2,4,10,-29,-5,8,-1,12,24,6,-13,-6,-6
1490228551265,-18,-24,-3,15,17,-5,45,24,20,-11,0,-56,-42,-10,13,-14
1490228551314,18,31,19,33,-30,7,-27,-12,34,32,5,26,28,51,-7,0
1490228551362,-20,15,-1,-38,0,4,-11,-23,-10,6,-9,-6,-14,-38,-26,-22
1490228551410,-17,-13,1,-21,-18,24,32,13,-21,2,8,18,28,-21,-105,-44
1490228551459,21,-1,0,-19,-19,2,-44,-9,10,-12,-9,-19,22,23,53,35
1490228551507,-4,-4,0,-13,-23,-9,13,9,-18,5,3,21,28,-10,31,-16
1490228551509,58,4,6,27,42,6,-44,11,-16,7,8,-9,-19,-22,45,-9
1490228551557,13,-7,-5,-19,-6,18,29,6,26,1,4,-13,-25,-23,-1,1
1490228551605,-22,12,5,2,2,-6,25,-12,5,-9,1,20,22,17,-25,2
1490228551655,-16,-1,6,24,29,19,-1,-3,-22,-4,-19,13,14,-16,26,5
1490228551703,2,-16,-10,-1,-14,-24,-7,12,-23,8,17,28,14,0,-7,-5
1490228551751,-9,3,-4,-1,8,13,43,4,22,3,-3,-4,-3,7,-9,12
1490228551752,17,0,5,2,-22,-18,-20,-3,-34,-3,3,-1,4,5,24,5
