1491088538514,0,-56,-70,-41,-38,-40,-72,-112,12
1491088538514,0,15,6,0,30,-10,-4,104,-66
1491088538515,1,-6,1,5,16,23,22,56,-57
1491088538515,1,18,8,5,26,22,9,7,-52
1491088538516,2,27,23,8,-2,-8,17,-28,-3
1491088538516,2,-1,-3,0,-9,2,2,-99,40
1491088538553,3,-1,-16,-11,-16,-23,-9,39,25
1491088538553,3,7,-5,-10,-17,-2,13,72,22
1491088538554,0,2,18,-2,-4,1,-20,-72,-31
1491088538554,0,1,-1,7,-8,-4,12,60,22
1491088538554,1,-5,2,-7,15,14,19,13,-13
1491088538554,1,-23,-13,11,-2,5,-2,-29,6
1491088538555,2,37,8,6,10,5,-7,-28,-14
1491088538555,2,16,18,14,7,2,12,54,48
1491088538589,3,-21,-20,-20,-9,-6,-9,-43,-18
1491088538589,3,4,4,3,-11,-12,-7,-27,-17
1491088538591,0,-17,4,14,19,12,19,27,-3
1491088538591,0,-15,-9,-21,-22,-13,-31,-128,-33
1491088538591,1,17,1,15,10,16,22,54,50
1491088538591,1,-7,0,-9,2,0,-5,-44,1
1491088538626,2,-2,5,14,13,-2,4,59,4
1491088538626,2,13,-8,-12,-10,-2,-5,-12,-27
1491088538627,3,-11,2,-18,0,-1,-27,-114,-26
1491088538627,3,-12,7,34,23,-14,-2,77,53
1491088538628,0,-9,-6,-13,-14,9,26,17,4
1491088538628,0,-18,2,-1,-8,-3,4,37,-22
1491088538629,1,18,0,-7,-7,-12,-29,-107,-22
1491088538629,1,-4,0,22,11,11,9,50,14
1491088538664,2,3,-7,5,2,-3,5,36,-17
1491088538664,2,-7,-7,-7,-7,6,0,-17,-3
1491088538664,3,12,10,13,-11,-8,-10,-7,-13
1491088538664,3,0,-4,-31,-15,-13,-5,-30,34
1491088538665,0,-6,2,6,5,-7,-5,-48,-8
1491088538665,0,-1,-1,-9,-7,-3,3,90,9
1491088538666,1,-13,-3,6,19,3,-12,-61,-7
1491088538666,1,-8,-3,-11,-2,1,1,-14,-6
1491088538701,2,-1,-10,-1,-7,5,10,52,0
1491088538701,2,-1,6,2,16,8,-9,-70,-23
1491088538702,3,11,1,4,3,-14,-5,-24,36
1491088538702,3,-24,-9,-13,-9,-3,-3,25,-21
1491088538703,0,19,7,3,9,-3,-13,16,3
1491088538703,0,-8,-11,-10,-3,9,21,-4,-33
1491088538704,1,-1,0,9,-5,6,5,90,14
1491088538704,1,2,-8,-6,-4,-6,-19,-68,-20
1491088538739,2,8,4,-5,-3,-20,-21,-30,29
1491088538739,2,1,-6,-12,-5,1,13,37,-21
1491088538740,3,1,-1,-20,-22,-15,-4,16,12
1491088538740,3,3,3,16,6,2,-19,-58,-28
1491088538741,0,-23,7,5,19,26,2,-36,6
1491088538741,0,21,-10,1,-13,-16,13,25,-3
1491088538776,1,-1,4,0,-18,-36,-15,-29,-12
1491088538776,1,14,-4,-11,6,17,19,97,19
1491088538777,2,-19,-9,2,12,4,8,-25,-8
1491088538777,2,1,3,-2,11,20,4,19,30
1491088538778,3,-8,-2,2,5,13,3,-7,-10
1491088538778,3,-7,-2,10,-17,-16,-24,-99,-17
1491088538779,0,-7,4,-19,-6,-8,-11,-1,-22
1491088538779,0,-6,-17,-15,-13,-35,-9,11,44
1491088538814,1,-1,-4,-3,-14,-18,-18,-21,-3
1491088538814,1,3,1,-10,-4,-3,4,23,12
1491088538815,2,6,-1,4,5,41,54,36,-18
1491088538815,2,-33,1,14,26,14,-16,-29,-9
1491088538815,3,22,6,-15,-20,-20,-14,-24,-6
1491088538815,3,-1,-8,-11,1,-24,-42,-73,2
1491088538816,0,-1,0,-14,-4,-12,-21,-28,13
1491088538816,0,-3,8,17,-15,13,26,-60,-3
1491088538851,1,-25,-14,5,25,22,34,123,7
1491088538851,1,-6,-4,-6,6,13,12,-105,-27
1491088538852,2,-9,-5,-20,-27,-27,-2,59,2
1491088538852,2,2,-3,9,-5,1,-11,50,24
1491088538853,3,-12,-5,6,16,0,-5,-52,-12
1491088538853,3,-1,13,6,1,-2,1,30,-4
1491088538854,0,26,-8,2,-5,6,23,38,-16
1491088538854,0,-18,0,-20,-13,-11,-23,-74,-17
1491088538889,1,-3,5,17,2,-3,-23,-30,9
1491088538889,1,4,-5,-4,15,29,36,1,11
1491088538890,2,-3,10,7,-12,-12,-12,1,21
1491088538890,2,-3,-8,-9,-4,-22,-6,-33,-47
1491088538891,3,22,-4,-3,-9,19,27,31,4
1491088538891,3,2,1,5,0,-4,-25,-47,10
1491088538926,0,-13,-1,4,20,13,0,58,9
1491088538926,0,36,-3,0,-9,-17,-4,25,-20
1491088538927,1,-23,2,10,-2,-7,-28,-77,-22
1491088538927,1,-2,4,-4,0,-2,-24,-29,-29
1491088538928,2,0,-13,-3,-30,-6,49,78,32
1491088538928,2,-6,8,5,-4,-16,-41,-87,-11
1491088538929,3,0,-3,-8,12,14,36,57,18
1491088538929,3,-1,-16,-10,-24,-9,7,57,-4
1491088538964,0,-3,1,0,31,4,-25,-109,-47
1491088538964,0,-6,6,7,18,9,7,-27,37
1491088538965,1,-14,0,1,-9,8,4,23,-34
1491088538965,1,-1,4,-5,3,-2,-2,7,3
1491088538967,2,27,10,10,9,36,25,24,25
1491088538967,2,10,0,-4,-19,-31,-18,-33,8
1491088538967,3,0,-6,-15,-16,-32,-16,32,24
1491088538967,3,-21,-4,-10,11,13,23,50,0
1491088539001,0,0,-7,4,-12,-22,-22,-56,-13
1491088539001,0,3,-2,4,23,35,2,0,4
1491088539002,1,2,8,13,8,12,-6,-110,-2
1491088539002,1,12,4,4,-41,16,30,127,-10
1491088539003,2,-15,-8,-11,-1,-25,1,-40,-32
1491088539003,2,4,-3,-1,6,-9,6,15,13
1491088539004,3,-14,-6,-5,-5,1,-47,-84,-24
1491088539004,3,16,10,6,13,-4,32,-3,21
1491088539039,0,-5,-5,7,11,12,8,28,-6
1491088539039,0,8,1,-3,-7,3,6,-34,31
1491088539039,1,0,0,13,11,5,28,71,6
1491088539039,1,23,-2,-18,-11,-16,-24,-15,-9
1491088539040,2,-1,8,8,-20,-14,-1,-9,9
1491088539040,2,-31,-9,-4,29,16,-19,-15,-5
1491088539076,3,15,5,6,10,-3,-7,-55,18
1491088539076,3,-15,-6,-2,5,5,-18,-34,-8
1491088539077,0,-2,-10,-8,-19,-19,29,67,-19
1491088539077,0,5,-1,13,4,10,-3,-53,4
1491088539078,1,-8,8,-20,3,34,-6,-16,16
1491088539078,1,10,-8,-7,-26,-42,29,88,-7
1491088539079,2,-8,-8,-5,-1,-4,-32,-27,-8
1491088539079,2,-9,4,1,-16,8,5,-3,-18
1491088539114,3,-18,-7,0,15,-6,28,25,2
1491088539114,3,17,-3,7,28,-14,-37,-99,-2
1491088539114,0,23,12,0,6,32,-3,-32,11
1491088539114,0,2,-2,-5,-28,-43,-48,-59,0
1491088539115,1,-9,0,8,19,19,60,126,19
1491088539115,1,-9,-4,-10,2,36,-6,-81,-7
1491088539116,2,-11,-6,0,-7,-11,-3,-35,-4
1491088539116,2,-4,-6,-3,9,-8,-4,50,-1
1491088539151,3,17,5,-3,-23,-26,-50,-44,-5
1491088539151,3,-10,2,13,17,14,29,-5,-33
1491088539152,0,-7,3,-2,17,28,-1,-59,-2
1491088539152,0,-5,6,-6,-37,-62,-18,-40,8
1491088539152,1,4,-11,-2,12,1,32,81,14
1491088539152,1,-17,-5,17,16,26,-6,21,-7
1491088539154,2,-11,4,-7,-26,-11,-25,-96,-24
1491088539154,2,-3,0,4,19,42,60,103,17
1491088539227,3,-8,-15,-15,2,-15,-16,21,-1
1491088539227,3,14,-4,13,-1,-22,-32,-91,3
1491088539228,0,-4,4,-9,10,-1,12,34,37
1491088539228,0,2,5,-7,-14,25,-4,-65,-37
1491088539229,1,20,6,-5,-58,-17,13,70,-48
1491088539229,1,-21,-1,7,38,-4,3,-4,12
1491088539230,2,3,-5,-2,-16,-48,-41,-100,-15
1491088539230,2,-6,-17,-5,0,29,60,127,24
1491088539264,3,1,7,-1,12,15,-31,-128,-19
1491088539264,3,-4,2,-3,-25,-19,22,31,-18
1491088539265,0,7,-8,4,-8,-4,-7,115,24
1491088539265,0,7,-5,-11,16,2,13,-2,-25
1491088539265,1,-4,-6,-3,-38,-26,-2,-25,10
1491088539265,1,-11,11,12,38,28,-29,-128,-14
1491088539268,2,14,9,-5,11,-13,-3,74,24
1491088539268,2,-12,-18,-14,-28,-54,-30,-32,-9
1491088539301,3,-10,5,4,19,18,-27,-85,4
1491088539301,3,-3,-18,-16,-43,-9,48,106,17
1491088539302,0,-5,-6,-6,11,35,-4,-45,-40
1491088539302,0,39,23,23,-70,-28,-18,-37,-6
1491088539302,2,-11,-9,-11,-7,9,23,20,-11
1491088539302,2,-11,7,10,15,2,-22,-11,6
1491088539304,3,8,7,16,-4,42,48,-5,-25
1491088539304,3,-15,12,-17,-22,-32,-57,-55,-2
1491088539339,0,3,-7,-1,4,-4,13,34,21
1491088539339,0,10,-8,-19,-12,24,25,14,-4
1491088539339,1,-7,1,8,10,-28,18,-18,-10
1491088539339,1,8,-3,-6,18,2,8,76,12
1491088539340,2,-8,3,6,-1,2,-39,-111,-16
1491088539340,2,-17,1,-11,14,18,2,11,-5
1491088539341,3,10,-8,0,-9,5,38,91,-20
1491088539341,3,8,5,0,-24,-13,-8,-19,15
1491088539376,0,2,-7,-12,2,-4,-6,45,7
1491088539376,0,-15,-2,-3,23,23,2,-29,-4
1491088539377,1,4,-4,-1,-8,-7,-19,21,21
1491088539377,1,-13,-3,-4,-14,-25,8,-66,-37
1491088539378,2,18,12,17,3,36,22,81,19
1491088539378,2,-10,0,2,40,-22,-39,-66,8
1491088539379,3,-7,1,-9,-43,-31,14,53,26
1491088539379,3,21,-11,-22,-14,18,-12,16,-48
1491088539414,0,-13,1,1,-1,-10,-9,-75,8
1491088539414,0,-1,-3,8,14,21,41,44,1
1491088539415,1,0,5,-5,-11,-25,-93,-53,-27
1491088539415,1,-2,0,22,-1,35,74,-35,-23
1491088539415,2,-3,-7,-4,16,-16,-9,72,-10
1491088539415,2,7,1,-1,-3,-1,-11,-13,-1
1491088539416,3,-6,2,1,33,41,38,-82,2
1491088539416,3,8,-11,-8,-15,-38,-7,114,58
1491088539451,0,15,4,-13,-29,-18,-11,-57,-32
1491088539451,0,-14,-4,19,3,-11,-12,-21,-4
1491088539452,1,3,-2,-1,-4,26,2,-31,-7
1491088539452,1,-3,11,13,3,15,-12,-24,-10
1491088539452,2,-9,3,-1,12,-15,3,-60,23
1491088539452,2,-16,-8,-14,-4,-17,-25,-2,2
1491088539454,3,13,-10,-5,-46,-2,27,51,1
1491088539454,3,-3,-4,-3,24,8,-17,43,12
1491088539489,0,-24,-3,12,24,20,-5,-54,-8
1491088539489,0,23,-8,-23,-34,-37,17,68,-32
1491088539489,1,-6,-5,-3,-16,-28,-25,-20,19
1491088539489,1,2,0,-5,16,-4,-13,-16,4
1491088539490,2,5,-3,4,2,21,24,-24,1
1491088539490,2,-3,8,11,4,39,15,-12,0
1491088539491,3,-13,0,1,1,-50,-41,-14,9
1491088539491,3,7,-13,-25,-45,-15,9,31,-14
1491088539526,0,-22,-3,-3,-8,-25,-56,-99,6
1491088539526,0,23,6,10,44,51,50,57,3
1491088539528,1,-7,3,-4,-2,-16,-32,-33,-21
1491088539528,1,-30,3,10,-13,-7,29,5,-3
1491088539528,2,27,-11,1,4,26,46,97,-5
1491088539528,2,-8,-2,5,-10,-7,-17,-14,34
1491088539529,3,-2,-1,-19,-1,-4,-28,-58,-2
1491088539529,3,-8,0,-1,4,-1,5,-74,-19
1491088539564,0,4,7,1,-21,-3,-9,-7,-4
1491088539564,0,-11,-9,2,16,16,21,65,-9
1491088539565,1,8,-3,9,16,-7,11,-24,17
1491088539565,1,6,7,1,10,-11,-46,-95,-3
1491088539565,2,-16,-5,-4,-14,5,5,115,17
1491088539565,2,-2,-4,-2,4,-9,-1,-66,-5
1491088539566,3,-5,-1,0,-9,22,34,108,16
1491088539566,3,16,1,-3,-5,-12,-17,-33,-27
1491088539601,0,-2,1,1,-3,0,31,-11,-7
1491088539601,0,-16,1,-2,1,-4,-33,-35,10
1491088539602,1,5,-5,0,6,-3,17,24,-11
1491088539602,1,-9,8,8,-1,-4,-26,-43,17
1491088539603,2,7,4,-12,-11,-26,-15,-68,-14
1491088539603,2,-2,-11,-7,-12,10,39,90,26
1491088539639,3,-13,-6,-12,-3,8,-17,-71,1
1491088539639,3,8,3,11,3,6,15,27,11
1491088539640,0,-7,3,-3,-4,-12,-19,-19,-33
1491088539640,0,6,7,0,1,-8,-9,-34,-16
1491088539641,1,6,1,1,-14,10,23,17,16
1491088539641,1,-5,2,-2,4,-11,-36,29,-1
1491088539642,2,-19,-12,-4,22,-18,-25,-39,19
1491088539642,2,11,-1,-4,0,-3,2,-41,5
1491088539677,3,-3,-4,9,18,22,17,38,-10
1491088539677,3,-6,-8,-24,-36,-7,28,31,-16
1491088539678,0,-10,3,14,13,16,2,47,5
1491088539678,0,-6,1,-6,5,-25,-21,-79,10
1491088539679,1,23,-5,-3,-13,-4,-5,26,-33
1491088539679,1,17,1,-5,-14,14,13,15,5
1491088539680,2,8,4,-3,8,13,13,-1,-13
1491088539680,2,-20,-7,0,-7,-12,-25,0,8
1491088539714,3,-14,-3,-4,3,-10,-12,-43,-35
1491088539714,3,2,-5,0,6,-3,19,57,41
1491088539715,0,5,-3,-3,-8,-4,-9,-3,-11
1491088539715,0,-1,7,10,0,6,0,-22,4
1491088539716,1,-12,-1,-3,-2,-12,-19,-6,7
1491088539716,1,-11,2,8,33,24,2,-85,-36
1491088539717,2,21,0,-9,-24,-27,-19,46,38
1491088539717,2,-15,-2,3,1,29,16,10,-69
1491088539751,3,14,-10,-4,-12,4,24,37,12
1491088539751,3,10,-2,-7,6,-7,-8,-10,31
1491088539752,0,-4,4,-1,-25,-23,-5,-40,-38
1491088539752,0,9,4,-13,4,-4,-20,48,18
1491088539753,1,-11,-5,5,0,-5,10,52,1
1491088539753,1,-8,-3,-13,-3,5,-7,-66,12
1491088539789,2,-1,-1,2,-2,1,-8,13,-11
1491088539789,2,-2,-3,3,-4,-3,8,-35,-13
1491088539790,3,3,3,-13,-13,4,-6,-76,-40
1491088539790,3,27,4,13,-18,14,26,127,62
1491088539791,0,-11,-6,1,36,9,0,-41,11
1491088539791,0,-12,-9,-9,6,-11,-21,-42,-20
1491088539791,1,-16,0,-6,16,-12,-38,34,22
1491088539791,1,8,-1,-1,9,7,18,-11,-31
1491088539826,2,0,0,5,-21,20,14,49,15
1491088539826,2,5,1,7,-8,-10,-5,-3,-6
1491088539827,3,-9,-1,-8,-1,-28,-20,-88,-14
1491088539827,3,1,-3,5,3,0,5,68,11
1491088539828,0,-11,-3,-7,-19,-15,-14,-52,7
1491088539828,0,-3,-4,1,28,19,6,50,2
1491088539829,1,19,3,-5,-12,5,17,-7,-12
1491088539829,1,4,-1,-1,-7,-20,-21,-83,11
1491088539864,2,6,-1,-2,3,0,21,42,4
1491088539864,2,-13,0,-3,-6,-13,-24,-20,9
1491088539864,3,-12,-6,11,8,19,22,59,-5
1491088539864,3,-22,-4,-5,-13,0,-12,-12,-5
1491088539865,0,21,0,-1,4,4,19,50,-36
1491088539865,0,-15,2,-24,-25,-19,-29,-99,-18
1491088539866,1,13,5,23,24,-17,11,-10,52
1491088539866,1,-21,-10,-12,-4,-29,-24,-2,-10
1491088539901,2,-3,-1,10,4,-17,11,-13,-19
1491088539901,2,15,-1,-5,0,-11,-18,-2,42
1491088539902,3,-18,3,-4,9,36,3,-51,-32
1491088539902,3,7,-3,-12,-11,-8,9,34,-9
1491088539903,0,-4,-12,-12,5,6,-22,14,19
1491088539903,0,4,-1,13,-4,36,12,63,28
1491088539976,1,6,-1,-7,-5,16,4,-27,2
1491088539976,1,19,5,10,-2,18,27,67,-11
1491088539977,2,-8,3,-10,2,20,-2,-56,-5
1491088539977,2,-5,2,1,-4,-11,15,-12,-21
1491088539977,3,30,-5,-9,-5,-13,-34,-1,12
1491088539977,3,-14,1,4,-2,7,15,-33,-20
1491088539979,0,-2,-1,-3,-1,-13,-1,13,15
1491088539979,0,-7,7,17,11,15,-10,-82,-33
1491088540014,1,-11,-1,-7,-14,-18,9,47,18
1491088540014,1,4,-1,4,5,7,1,53,-11
1491088540014,2,-4,1,-4,2,-17,-7,-53,9
1491088540014,2,-2,-11,-5,-13,-18,-8,25,-5
1491088540015,3,20,4,1,-4,-6,-3,-38,5
1491088540015,3,-11,-7,-10,12,20,6,-18,-20
1491088540016,1,-6,-3,-12,5,-4,-10,79,31
1491088540016,1,-17,2,3,-4,-7,-11,-2,10
1491088540051,2,-13,-10,-5,17,26,25,-9,-16
1491088540051,2,3,3,-7,-23,-29,-26,-28,-11
1491088540052,3,-11,-2,2,12,17,16,-7,0
1491088540052,3,7,5,5,-3,-21,-7,-37,5
1491088540053,1,-32,-9,-8,-8,-26,-54,-124,-32
1491088540053,1,1,7,8,4,22,35,50,16
1491088540054,2,4,-6,-13,7,14,6,18,-10
1491088540054,2,7,1,-16,-10,-12,13,85,9
1491088540089,3,-3,-5,19,14,16,11,-12,-17
1491088540089,3,-6,3,-12,3,-12,-23,3,8
1491088540090,0,-4,-5,10,-13,-8,-5,-12,-6
1491088540090,0,-8,-2,-12,-3,-7,-14,-52,5
1491088540090,1,3,-2,-12,-13,7,16,67,15
1491088540090,1,-11,0,10,-5,-11,-19,-93,-14
1491088540091,2,1,-3,3,-4,-10,-15,-10,-7
1491088540091,2,-10,2,3,12,9,16,69,-15
1491088540126,3,-7,-4,-12,-20,-14,8,13,5
1491088540126,3,0,-4,-8,5,4,-17,-50,-6
1491088540127,0,15,-4,4,2,21,43,98,5
1491088540127,0,7,-3,-8,-4,14,1,-30,-2
1491088540127,1,4,9,11,-18,-18,-13,-3,4
1491088540127,1,-10,-4,-7,18,-9,-34,-42,-7
1491088540129,2,-1,-7,-3,14,-10,-11,-44,34
1491088540129,2,-9,3,1,1,-1,-6,-1,-10
1491088540164,3,1,0,-7,-16,-2,-6,-30,-28
1491088540164,3,13,6,1,-8,-15,-5,35,3
1491088540164,0,-15,-8,-2,-9,1,3,18,-15
1491088540164,0,-13,-10,7,21,8,27,-6,8
1491088540165,1,25,-1,-22,-6,6,7,41,25
1491088540165,1,-19,-1,6,-6,-8,-28,-59,-40
1491088540166,2,0,4,-3,1,0,-6,10,1
1491088540166,2,-1,-10,-9,-15,-14,1,2,-9
1491088540201,3,-27,-1,10,20,4,-12,-30,-15
1491088540201,3,18,2,-23,-5,4,-12,-92,-25
1491088540202,0,4,4,28,11,14,34,98,25
1491088540202,0,-19,-6,-7,-8,-6,-13,28,4
1491088540203,1,7,-4,6,-18,-6,12,21,11
1491088540203,1,-11,-5,-4,19,6,-5,-77,-54
1491088540204,2,-2,-10,1,-2,5,-12,17,27
1491088540204,2,15,6,5,5,-8,-4,31,-6
1491088540276,3,-7,-5,-5,14,3,17,-28,7
1491088540276,3,3,2,-2,-8,-7,-9,2,17
1491088540277,0,-11,-2,9,2,2,-6,-15,-15
1491088540277,0,8,7,-5,7,-6,-4,-30,2
1491088540278,1,6,1,10,2,-4,-24,-21,-16
1491088540278,1,-6,-5,-7,-14,-5,27,83,38
1491088540279,2,-13,-2,-13,-1,-15,-44,-127,-40
1491088540279,2,16,2,4,11,29,23,66,7
1491088540314,3,22,5,-2,-9,1,17,26,0
1491088540314,3,-8,-7,2,-3,-7,7,35,-1
1491088540314,0,9,-2,0,-7,-14,-1,16,-20
1491088540314,0,-1,1,-1,-2,-15,-36,-128,-12
1491088540315,1,-3,-1,-9,-2,-2,3,27,-3
1491088540315,1,-4,-9,-8,18,28,15,40,-7
1491088540316,3,-2,-8,-5,-7,-19,2,81,34
1491088540316,3,12,-1,6,3,4,14,27,12
1491088540351,0,-20,0,-14,1,5,-1,-11,-22
1491088540351,0,15,4,3,-2,-2,-23,-121,-7
1491088540353,1,-12,4,1,3,15,18,81,15
1491088540353,1,-4,-10,9,-17,4,36,23,5
1491088540353,3,-12,-5,0,-6,-24,-36,-78,-17
1491088540353,3,-1,-1,-1,-5,-4,1,27,21
1491088540354,0,-4,3,-9,-5,9,-1,-33,-18
1491088540354,0,12,5,24,-4,-2,5,2,-6
1491088540389,1,-12,3,-10,15,18,2,24,7
1491088540389,1,11,-4,-30,-19,-19,7,57,5
1491088540390,2,-16,-6,21,1,-4,-3,-11,1
1491088540390,2,28,0,1,7,39,28,79,7
1491088540390,3,-11,-4,-20,-13,-32,-49,-128,-9
1491088540390,3,-4,4,-7,-7,-8,10,72,34
1491088540391,0,0,-4,2,-1,9,6,-18,-23
1491088540391,0,-34,-8,-24,-4,-24,-17,23,0
1491088540427,1,20,6,24,-11,8,27,-18,-7
1491088540427,1,9,3,13,31,-2,-33,-77,-11
1491088540428,2,-5,-4,-18,-27,-1,5,63,21
1491088540428,2,-5,-9,-6,-15,-7,5,-55,4
1491088540428,3,-19,-3,-2,9,12,25,76,-16
1491088540428,3,-12,-4,14,4,-3,-32,-73,-38
1491088540429,0,21,5,-5,7,3,27,15,38
1491088540429,0,-7,-10,-18,-15,-24,-31,8,-1
1491088540464,1,-9,-3,-8,3,4,-46,-112,-17
1491088540464,1,1,-9,-7,-5,-9,60,109,-6
1491088540465,2,0,5,0,10,-2,-28,-62,-3
1491088540465,2,4,4,2,6,14,10,-55,-11
1491088540466,3,-6,-3,3,24,9,20,76,39
1491088540466,3,-1,-8,-4,-7,39,24,-38,-19
1491088540467,0,15,6,4,-36,-17,-21,-81,-10
1491088540467,0,-13,0,-7,24,-35,-10,32,16
1491088540501,1,-4,-5,7,7,-2,12,38,-49
1491088540501,1,-4,2,5,7,19,-23,-51,6
1491088540502,2,-5,-1,-11,-21,-37,-2,8,-11
1491088540502,2,2,-13,-4,-25,17,3,19,-14
1491088540503,3,-4,-2,-5,-9,-26,-46,-77,2
1491088540503,3,3,9,3,4,4,16,-28,10
1491088540504,0,-3,-11,8,9,18,39,56,2
1491088540504,0,-12,0,-3,6,2,4,-61,-27
1491088540539,1,4,0,-4,6,4,12,26,0
1491088540539,1,-7,-3,-3,-10,-7,-28,-26,4
1491088540540,2,-17,1,0,10,2,-18,-34,-23
1491088540540,2,-8,3,-1,-11,-10,10,32,15
1491088540541,3,19,-3,-1,-1,30,24,5,-21
1491088540541,3,-12,5,9,-8,-6,-17,-16,2
1491088540542,0,-1,-6,-7,-4,-34,-23,-24,-9
1491088540542,0,-9,2,0,-11,-11,11,56,50
1491088540576,1,5,-2,-8,-1,19,20,30,-9
1491088540576,1,-9,-6,8,21,12,-11,-76,-21
1491088540577,2,9,6,1,7,19,14,54,-7
1491088540577,2,-3,-1,-3,-10,4,4,52,5
1491088540578,3,-1,-2,-3,-7,-41,-3,-50,23
1491088540578,3,-14,-9,-7,-30,-28,-18,-1,-9
1491088540579,0,-13,-2,-3,17,17,0,-37,-18
1491088540579,0,23,2,6,37,40,3,-85,-17
1491088540614,1,-1,0,10,-23,-31,-20,37,22
1491088540614,1,-18,-8,-11,5,9,26,19,1
1491088540616,2,11,-1,-10,-10,-8,-1,33,48
1491088540616,2,-8,-7,1,-3,-5,-12,-13,-32
1491088540617,3,7,11,11,7,24,11,-12,-6
1491088540617,3,3,4,-7,3,-9,-7,6,13
1491088540651,0,-11,-3,-2,-10,-11,-8,22,-10
1491088540651,0,12,-4,-4,10,-14,-17,10,18
1491088540652,1,10,-5,-9,-1,-8,-22,-50,0
1491088540652,1,12,4,3,-16,6,0,37,21
1491088540653,2,4,6,16,32,19,6,-31,-13
1491088540653,2,-7,1,-15,-23,-22,11,55,4
1491088540654,3,-25,-7,-3,6,25,8,37,-26
1491088540654,3,29,5,-3,-13,-29,-10,-37,1
1491088540689,0,18,-10,6,-27,-15,-21,-10,-10
1491088540689,0,-3,5,-3,2,8,-2,-12,-9
1491088540690,1,-16,-1,3,5,9,30,67,12
1491088540690,1,1,-3,-8,13,14,-10,-96,-9
1491088540691,2,-2,10,-4,-76,-20,25,50,12
1491088540691,2,15,-5,-7,46,5,-17,-1,-19
1491088540692,3,-8,-3,0,-2,-3,-17,-71,0
1491088540692,3,-20,-6,5,16,17,1,57,8
1491088540727,0,3,-8,-11,-9,-30,-13,-47,-35
1491088540727,0,9,6,6,-29,-4,11,7,20
1491088540728,1,-16,0,0,11,15,7,-4,-15
1491088540728,1,30,6,3,15,-9,-34,-104,-10
1491088540729,2,-9,-2,-5,-3,14,8,70,32
1491088540729,2,-2,-12,-12,-13,-7,20,105,9
1491088540730,3,7,-5,-3,-6,-22,-14,-43,8
1491088540730,3,-19,5,0,7,-11,-11,-42,-4
1491088540764,0,-11,-5,-6,17,34,25,-10,-10
1491088540764,0,-8,-7,14,-9,-5,-7,-22,-14
1491088540766,1,7,5,9,-22,-12,-2,5,5
1491088540766,1,-7,-6,-5,-3,2,7,67,-8
1491088540767,2,2,0,-5,41,14,-35,-75,0
1491088540767,2,4,-1,2,-8,11,19,70,-2
1491088540801,3,-10,-5,-12,-4,-36,-2,-33,12
1491088540801,3,-9,-6,2,-3,1,4,-26,3
1491088540839,0,24,-2,12,16,-2,5,28,5
1491088540839,0,-15,-2,-5,-3,-9,-5,-15,23
1491088540876,1,-13,-1,-4,-5,17,-16,-5,-14
1491088540876,1,18,5,-2,-11,-19,-13,-60,-16
1491088540878,2,-19,-3,7,9,3,11,73,32
1491088540878,2,-11,-6,-7,-12,2,-13,-55,-38
1491088540878,3,-1,-6,1,-2,3,29,50,5
1491088540878,3,-5,-2,4,-12,-4,-18,-29,-14
1491088540879,0,-12,1,-8,3,5,0,-81,-3
1491088540879,0,-3,-5,2,-8,24,38,89,-16
1491088540914,1,-2,-7,-13,-3,-25,4,17,2
1491088540914,1,-4,-4,6,3,-17,-20,-6,28
1491088540915,3,26,7,1,8,24,8,17,5
1491088540915,3,12,-6,-7,-6,14,20,32,-27
1491088540916,3,9,2,-3,-1,-10,-16,-55,4
1491088540916,3,-10,-7,4,-4,-6,16,48,1
1491088540917,0,18,1,-17,-4,-3,-19,-52,9
1491088540917,0,-17,-2,17,18,32,24,16,2
1491088540951,1,-1,-2,1,5,8,-10,-16,-14
1491088540951,1,-3,5,-6,-6,-7,3,-9,-6
1491088540952,2,3,-1,-9,3,-7,-22,-11,-6
1491088540952,2,19,1,6,1,-13,1,2,3
1491088540953,3,-19,-4,-12,-5,1,-24,-87,-17
1491088540953,3,-8,-2,9,4,9,21,127,19
1491088540953,0,2,-5,6,-3,-2,0,-8,-3
1491088540953,0,-15,5,-15,-11,30,22,19,16
1491088540989,1,5,-12,7,-15,-32,5,22,-38
1491088540989,1,9,-6,-14,4,-6,-24,-77,27
1491088540989,2,-2,7,23,6,-8,-2,10,14
1491088540989,2,-31,-7,-6,21,13,1,-15,-17
1491088540990,3,15,-5,-7,-4,9,-11,24,-19
1491088540990,3,13,8,8,-2,6,-5,-84,-20
1491088540991,0,5,-1,-6,-2,9,33,114,10
1491088540991,0,4,-3,-6,-11,-8,-8,-37,2
1491088541026,1,-24,-1,2,-1,7,-1,-23,11
1491088541026,1,12,-8,-15,5,12,14,29,9
1491088541027,2,-24,0,5,6,-2,-3,-56,-25
1491088541027,2,12,11,2,0,-2,-21,-84,10
1491088541028,3,-11,-4,-8,-11,-12,6,87,10
1491088541028,3,-6,-15,-5,-9,3,10,80,-34
1491088541029,0,1,5,8,-2,4,-19,-83,-15
1491088541029,0,-2,3,-10,-14,-18,27,75,50
1491088541064,1,8,-3,0,21,9,-25,-43,-29
1491088541064,1,-17,4,14,1,-15,-11,-72,-7
1491088541064,2,26,-3,-1,3,20,30,127,43
1491088541064,2,-15,-4,-8,-7,-34,-27,-57,-22
1491088541065,3,-2,7,-4,-4,1,6,5,2
1491088541065,3,-3,-2,-1,15,18,-6,21,19
1491088541066,0,-9,3,-11,-10,-28,-21,-99,-30
1491088541066,0,-6,-3,5,-22,-1,8,8,7
1491088541101,1,-14,-9,-5,6,-6,-16,-68,-23
1491088541101,1,20,3,-4,-5,-5,8,23,35
1491088541102,2,5,-6,5,13,22,12,17,-14
1491088541102,2,5,2,9,2,14,17,1,-13
1491088541103,3,-1,7,7,-11,-2,29,-12,-15
1491088541103,3,7,1,-6,4,-38,-55,1,17
1491088541104,0,-10,-7,9,37,31,8,-35,-5
1491088541104,0,9,-1,-9,-3,-28,-28,-22,-6
1491088541139,1,8,-9,-13,-14,-16,-3,20,20
1491088541139,1,-19,8,17,-6,30,14,-36,-11
1491088541140,2,-5,4,7,-6,-19,2,-34,-7
1491088541140,2,18,-7,-13,-8,-10,-3,111,6
1491088541140,3,-2,3,16,14,36,19,-45,-20
1491088541140,3,1,4,-11,-2,-34,11,-47,4
1491088541142,0,-13,-19,-24,-19,-19,-17,110,31
1491088541142,0,0,-6,10,7,6,-10,-38,-45
1491088541176,1,6,4,11,-4,-1,6,1,19
1491088541176,1,-23,4,-3,-22,4,-9,-74,-41
1491088541177,2,56,4,-9,31,13,3,29,38
1491088541177,2,4,-4,6,16,-2,-4,45,5
1491088541178,3,12,5,-15,-16,-41,-49,-35,11
1491088541178,3,-4,1,4,-6,14,49,20,-6
1491088541179,0,-18,0,-7,-64,-25,16,26,-34
1491088541179,0,-7,-1,4,46,17,-29,-14,-13
1491088541214,1,-5,-3,12,31,30,9,-57,41
1491088541214,1,-13,5,4,-38,13,45,71,-5
1491088541214,2,-1,-4,-20,12,-43,-43,-81,-34
1491088541214,2,-17,-9,2,-12,-16,27,56,10
1491088541216,3,-4,3,7,33,28,5,-33,8
1491088541216,3,-16,-10,1,5,-9,-77,-80,10
1491088541251,0,22,2,-11,-30,18,48,28,-22
1491088541251,0,-1,1,0,-10,5,-11,17,20
1491088541252,1,-6,1,-5,8,-19,-36,2,3
1491088541252,1,-3,-5,-8,-8,10,14,-36,-3
1491088541253,2,-29,-2,4,19,36,42,65,-2
1491088541253,2,-12,-6,8,19,-7,-19,-69,-10
1491088541254,3,4,-4,-15,-33,-12,-10,11,0
1491088541254,3,-4,-8,-12,-10,-34,-3,40,27
1491088541289,0,-12,-1,12,-20,-30,-30,-91,-33
1491088541289,0,5,1,-21,-19,-4,6,-43,19
1491088541289,1,6,-3,14,-8,11,3,20,1
1491088541289,1,-15,-1,5,53,-20,-41,10,-21
1491088541290,2,-5,-2,11,44,-4,13,12,36
1491088541290,2,26,2,-16,-24,-4,-22,-71,-9
1491088541291,3,8,-9,-13,-40,3,47,107,11
1491088541291,3,0,-2,9,-9,15,1,-93,-11
1491088541326,0,-5,2,-5,-11,19,4,64,-3
1491088541326,0,-2,-1,13,21,5,11,-83,-35
1491088541327,1,-1,10,6,2,2,-19,0,8
1491088541327,1,20,-5,2,-20,-34,15,85,4
1491088541327,2,-10,-2,-4,46,-4,-33,-128,15
1491088541327,2,-12,-3,-9,-9,-1,-9,67,44
1491088541329,3,-21,-26,-16,-11,-19,5,35,-56
1491088541329,3,13,1,3,9,27,27,30,31
1491088541364,0,-33,0,-2,-33,-20,0,2,-34
1491088541364,0,34,11,2,-12,12,12,-31,-15
1491088541365,1,7,9,12,44,31,-6,-36,10
1491088541365,1,0,-7,-12,-6,-10,8,77,-6
1491088541365,2,2,0,1,9,-3,-52,-127,-21
1491088541365,2,-18,3,9,-7,7,42,27,51
1491088541401,3,-10,-8,-15,-11,-27,-23,-1,-14
1491088541401,3,3,5,5,-5,15,-22,-128,-17
1491088541402,0,-6,-20,-19,-14,8,50,103,8
1491088541402,0,-2,2,4,-1,-18,-20,-51,-25
1491088541403,1,2,-2,-5,-23,-25,3,-9,42
1491088541403,1,-16,-9,-6,0,9,0,10,-9
1491088541404,2,5,6,12,26,16,-29,-48,0
1491088541404,2,-1,-1,2,7,-3,3,-47,-22
1491088541439,3,3,-5,-12,-20,-20,9,31,-18
1491088541439,3,-4,-7,-5,2,-6,-25,-1,4
1491088541439,0,15,8,2,-13,-4,14,32,27
1491088541439,0,-9,-11,-3,-5,-2,17,33,-24
1491088541440,1,-19,8,9,13,7,-11,-124,5
1491088541440,1,3,-1,-13,-3,-13,-3,127,27
1491088541441,2,-11,-6,-1,-12,-19,-26,-128,-18
1491088541441,2,32,14,7,0,14,14,44,16
1491088541476,3,-17,-11,-7,-2,21,16,-40,4
1491088541476,3,11,4,-2,18,9,30,65,-28
1491088541477,0,-18,-3,-6,-17,-27,-42,-35,5
1491088541477,0,5,5,-10,1,3,-10,-5,10
1491088541478,1,3,6,7,10,11,13,20,5
1491088541478,1,-3,6,-5,-8,-1,-22,-107,-31
1491088541514,2,12,4,4,9,11,14,30,44
1491088541514,2,-20,-5,-8,-7,2,6,88,3
1491088541514,3,23,6,13,-3,-10,-14,-74,-52
1491088541514,3,-2,1,-7,7,7,22,26,64
1491088541515,0,-10,-24,4,-17,10,45,40,-59
1491088541515,0,4,-4,-21,-10,2,-15,-95,-36
1491088541516,1,-8,-1,-2,-1,-22,-25,13,37
1491088541516,1,10,15,14,8,-11,-26,-128,-43
1491088541551,2,10,1,-12,-16,17,15,65,30
1491088541551,2,-14,-7,17,-12,-8,-2,-6,11
1491088541552,3,11,-2,-3,9,4,-6,-18,9
1491088541552,3,2,-10,-9,-8,-9,10,81,21
1491088541554,0,-17,4,1,11,-5,-37,-69,-11
1491088541554,0,-10,-6,-2,7,1,4,-34,-24
1491088541555,1,10,-2,-7,-7,-6,3,49,14
1491088541555,1,-2,-2,7,-5,-3,-17,-80,-13
1491088541589,2,-2,1,4,-13,5,30,124,4
1491088541589,2,-32,-4,-2,15,3,-26,-72,2
1491088541626,3,15,1,-2,3,-6,-4,-56,-13
1491088541626,3,-18,-11,-9,-3,-5,17,71,-19
1491088541628,0,0,-3,-3,5,-20,-32,43,22
1491088541628,0,-6,-8,-8,-7,4,14,-2,17
1491088541628,1,-3,1,-3,10,0,-23,-77,-14
1491088541628,1,-14,-3,-8,4,18,13,3,-8
1491088541629,2,26,2,-4,-17,-18,-5,-11,-26
1491088541629,2,-19,1,7,5,-32,-19,-49,15
1491088541664,3,13,-12,-5,0,-8,3,13,19
1491088541664,3,1,-7,-11,-11,18,13,38,-7
1491088541665,0,-3,15,4,4,16,7,-20,-4
1491088541665,0,22,0,7,8,-1,-32,0,-28
1491088541666,1,-12,3,-11,-15,8,14,-6,-13
1491088541666,1,-8,-11,3,3,2,40,79,10
1491088541666,2,21,2,-3,-3,-8,-59,-128,1
1491088541666,2,-1,-8,-12,-16,4,50,127,2
1491088541701,3,-10,8,10,8,-8,-21,-62,16
1491088541701,3,-3,-11,7,-8,0,6,28,-1
1491088541702,0,2,7,6,9,0,0,10,-7
1491088541702,0,7,7,-3,-10,-4,-27,-61,-14
1491088541702,1,-22,-5,11,27,35,39,-62,-33
1491088541702,1,10,8,-22,-10,-13,-15,78,35
1491088541704,2,0,-3,12,6,-21,-1,-61,0
1491088541704,2,13,4,6,14,36,7,-13,14
1491088541739,3,-8,9,2,-12,-38,-26,-11,21
1491088541739,3,9,-6,4,15,4,18,30,-35
1491088541739,0,-18,-7,-4,1,13,6,6,2
1491088541739,0,8,-8,-8,-35,-25,-18,-11,-36
1491088541740,1,-7,-2,15,20,41,12,-23,-5
1491088541740,1,-10,16,2,3,-18,-23,-128,24
1491088541741,2,6,-11,-18,-23,5,15,85,-9
1491088541741,2,2,-2,4,31,-8,8,-21,18
1491088541776,3,-13,0,-6,-2,-9,-2,58,8
1491088541776,3,16,1,11,4,-20,-94,-128,-32
1491088541777,0,-23,2,-7,8,8,7,-125,22
1491088541777,0,-12,-18,1,-9,38,66,96,9
1491088541777,1,-10,-10,-13,-11,18,20,42,-47
1491088541777,1,-2,-4,-4,1,-24,-10,36,15
1491088541778,2,14,7,-7,-23,-21,-2,-8,-19
1491088541778,2,-20,-2,-5,20,-17,-2,-50,9
1491088541814,3,-5,-4,3,-41,-22,-37,-18,10
1491088541814,3,-7,-1,12,18,19,2,-45,-12
1491088541815,0,9,3,-20,-11,10,1,2,-29
1491088541815,0,10,1,9,-14,-14,19,36,28
1491088541815,1,2,-10,-6,23,31,10,53,-30
1491088541815,1,-12,-4,-4,0,-4,-13,-128,-9
1491088541816,2,8,-14,5,-7,-13,8,53,38
1491088541816,2,-11,1,-33,-3,1,-50,-62,-7
1491088541852,3,7,6,7,-9,-14,33,-49,-21
1491088541852,3,3,-11,-13,-19,4,40,-17,-7
1491088541852,0,-14,5,16,48,33,-9,-69,8
1491088541852,0,-4,-8,-19,-20,-27,2,46,-25
1491088541853,1,-8,2,10,4,-37,-36,-64,17
1491088541853,1,5,4,-19,-15,-7,-40,-46,-8
1491088541854,2,-4,-14,15,-12,18,49,100,-10
1491088541854,2,-2,16,9,29,23,-52,-92,5
1491088541890,3,-9,2,-14,-3,17,46,116,35
1491088541890,3,11,9,17,7,-6,-7,-93,-37
1491088541891,0,1,-2,-6,0,-9,4,61,23
1491088541891,0,16,-26,-9,-40,-7,35,31,-54
1491088541891,1,7,7,1,12,-8,-15,-34,20
1491088541891,1,-4,-8,-6,3,21,16,11,8
1491088541892,2,23,13,19,25,3,-45,-87,-26
1491088541892,2,-13,15,6,15,12,18,-2,16
1491088541926,3,4,1,-6,-22,-22,2,-1,8
1491088541926,3,-7,-4,-8,-13,-24,-61,-73,-9
1491088541927,0,-13,-10,-12,-18,19,50,71,0
1491088541927,0,-6,-4,20,14,-22,-9,-92,-5
1491088541927,1,9,4,11,11,26,25,24,26
1491088541927,1,1,10,9,7,6,8,92,11
1491088541929,2,-11,-6,-20,-64,-41,-14,-28,-23
1491088541929,2,-10,0,11,55,27,31,22,-1
1491088541964,3,19,-11,-2,11,-2,-37,-71,-29
1491088541964,3,-18,-1,-5,-5,-4,4,-65,6
1491088541964,0,16,1,-12,-6,-9,21,85,50
1491088541964,0,1,-2,-1,-21,-4,-29,-72,-18
1491088541965,1,-1,14,-3,3,-6,-13,-14,-13
1491088541965,1,19,-12,-16,-15,5,34,67,-14
1491088541966,2,-11,10,30,30,10,-58,-88,5
1491088541966,2,-3,-6,-6,-23,-19,29,38,4
1491088542001,3,-26,-10,-7,-2,-7,4,-28,-15
1491088542001,3,0,-6,-7,-7,16,30,91,-11
1491088542002,0,-4,4,0,15,-22,-25,-45,0
1491088542002,0,14,-2,8,-2,22,5,-14,9
1491088542003,1,-12,-5,-21,-17,-44,-37,-20,-2
1491088542003,1,11,-1,22,10,12,23,-15,28
1491088542004,2,7,-6,-20,-14,-2,9,-3,-32
1491088542004,2,6,7,-1,-21,3,-2,58,17
1491088542039,3,21,2,1,22,11,6,-77,-43
1491088542039,3,-7,-3,2,4,6,-2,56,12
1491088542039,0,-13,-6,-6,5,-4,3,-100,3
1491088542039,0,-7,0,-5,-5,-14,-25,75,14
1491088542040,1,1,-10,-9,-19,-5,18,-12,-31
1491088542040,1,-7,4,20,23,1,-3,-30,0
1491088542041,2,17,-2,-22,-37,-12,12,39,-15
1491088542041,2,-12,-2,4,19,-38,-25,-126,21
1491088542076,3,-2,-10,1,2,27,18,127,36
1491088542076,3,-26,4,-4,-9,0,-3,-32,-26
1491088542078,0,7,7,8,27,48,14,-26,-16
1491088542078,0,13,0,-12,-13,-11,10,35,-3
1491088542081,1,-28,1,20,23,-6,-17,-68,25
1491088542081,1,32,-8,-19,-59,-20,15,101,23
1491088542114,2,15,1,4,20,3,-19,-67,7
1491088542114,2,9,8,11,-11,16,2,26,-24
1491088542114,3,4,0,6,-15,-18,-4,43,-14
1491088542114,3,-15,2,-5,9,-6,-2,-103,9
1491088542115,0,-36,-14,-3,1,-19,-35,-7,16
1491088542115,0,3,-4,4,9,7,23,-8,-14
1491088542116,1,-15,-7,-7,17,35,-5,60,20
1491088542116,1,-2,-4,5,-1,-8,-4,-1,-25
1491088542151,2,-2,-8,-37,-23,-21,-2,28,-3
1491088542151,2,14,12,45,29,28,-12,-92,18
1491088542152,3,-5,3,-4,-39,-23,6,55,-57
1491088542152,3,25,6,-9,9,-13,-20,-59,3
1491088542153,0,-12,-16,1,2,13,38,40,31
1491088542153,0,-28,-4,-5,-4,2,-27,6,-50
1491088542154,1,-5,-6,-17,-11,21,28,46,32
1491088542154,1,-2,-4,18,26,16,-14,6,4
1491088542189,2,-23,3,5,-21,-40,-32,-101,-41
1491088542189,2,24,4,-10,7,-4,35,81,44
1491088542190,3,10,-9,-1,25,15,-4,-40,13
1491088542190,3,-18,11,3,-15,5,-62,-55,-8
1491088542190,0,2,1,6,1,-3,24,37,-19
1491088542190,0,-4,-9,-13,11,19,21,27,35
1491088542191,1,-1,-6,-8,-33,-24,-7,-13,0
1491088542191,1,-3,-3,-14,-8,3,4,-51,8
1491088542226,2,-4,1,3,-6,8,-4,-28,-14
1491088542226,2,21,0,-8,-8,-26,-3,54,-14
1491088542228,3,-12,1,2,5,24,18,-9,8
1491088542228,3,-14,-11,-3,-17,-24,-10,39,18
1491088542229,0,14,10,2,20,-1,-45,-75,1
1491088542229,0,-32,-3,-8,8,17,-22,-35,-25
1491088542264,1,16,4,3,0,-3,22,42,-7
1491088542264,1,17,1,-1,-18,-20,40,24,-6
1491088542266,2,-16,-6,5,8,-13,-11,43,34
1491088542266,2,4,-5,-15,-22,-12,-36,-126,-13
1491088542267,3,37,3,4,-5,32,-9,65,6
1491088542267,3,-5,-1,-2,-1,-4,8,-15,-1
1491088542268,0,7,6,10,32,9,-6,-24,-11
1491088542268,0,-20,-6,-5,0,-26,-19,12,-2
1491088542301,1,15,4,2,-6,-4,0,-67,-6
1491088542301,1,-2,-6,9,27,45,54,127,23
1491088542303,2,-10,-7,-12,-13,-7,-27,-95,-41
1491088542303,2,8,14,2,-48,-40,6,-79,-4
1491088542304,3,-30,-13,-1,20,12,18,81,-7
1491088542304,3,24,-11,-23,-20,-23,-30,-16,2
1491088542305,0,-18,3,5,26,20,12,-20,25
1491088542305,0,-9,0,2,23,18,-47,-48,-12
1491088542339,1,-1,-6,-9,-33,-30,9,19,-4
1491088542339,1,21,1,6,11,3,0,-61,-12
1491088542340,2,-19,-1,4,-8,-3,17,127,1
1491088542340,2,-6,-6,5,-2,20,45,14,4
1491088542341,3,-19,4,2,-23,-29,-60,-128,-40
1491088542341,3,-12,6,-16,20,18,-2,19,-6
1491088542377,0,4,-13,-7,5,-4,-4,-2,-12
1491088542377,0,-4,1,-2,-12,3,5,48,9
1491088542379,1,-2,-4,-5,30,-20,-29,-75,9
1491088542379,1,-12,-7,11,4,4,21,83,19
1491088542380,2,29,10,0,-10,18,-2,0,-6
1491088542380,2,-13,0,0,8,-21,23,8,11
1491088542381,3,0,0,-16,-19,-85,-15,-40,13
1491088542381,3,-1,-4,-4,-13,-128,-71,-128,-59
1491088542414,0,-3,-7,-4,-19,-128,83,127,68
1491088542414,0,2,-4,-7,2,-77,-72,-78,-11
1491088542415,1,8,17,29,55,62,71,-24,-3
1491088542415,1,-28,-5,-11,-13,11,-37,-4,8
1491088542416,2,-3,-16,-11,-33,-46,-68,57,9
1491088542416,2,-3,-10,-12,-55,-104,0,-2,-43
1491088542417,3,14,-2,8,31,-102,4,79,34
1491088542417,3,-18,4,7,32,-65,21,-95,-5
1491088542452,0,7,8,8,37,56,37,0,-16
1491088542452,0,-14,-13,6,-33,-15,36,77,-9
1491088542454,1,17,0,-9,-20,44,-35,18,-8
1491088542454,1,-8,1,-1,-5,77,-3,3,-11
1491088542455,2,-8,6,16,-1,65,-21,-128,8
1491088542455,2,3,1,-14,19,87,-14,63,-6
1491088542456,3,-13,6,4,21,71,-18,-49,-9
1491088542456,3,20,-8,-21,-32,112,29,123,11
1491088542489,0,-5,-4,-3,-6,25,-19,-107,-11
1491088542489,0,15,13,3,0,43,7,55,15
1491088542490,1,-17,-15,-11,-15,12,-8,-68,-29
1491088542490,1,10,2,7,6,5,31,37,0
1491088542491,2,-12,-8,-29,-18,17,-15,-31,-19
1491088542491,2,6,3,0,7,27,-11,60,36
1491088542526,3,-3,-3,-1,-3,4,-21,-32,-45
1491088542526,3,21,7,9,18,-2,24,-9,37
1491088542528,0,-16,-3,0,-9,56,-3,30,-38
1491088542528,0,18,1,-3,-1,114,3,-78,-2
1491088542529,1,-3,0,-1,-15,112,12,-22,-13
1491088542529,1,-22,-10,-7,-31,-81,5,94,9
1491088542530,2,20,11,13,7,-128,-35,-50,-15
1491088542530,2,-6,-2,-11,31,-67,-19,-48,28
1491088542564,3,-13,-7,-14,-16,-53,44,67,26
1491088542564,3,-1,-9,3,1,-16,22,37,-12
1491088542565,0,-10,-1,6,-21,-3,40,84,-3
1491088542565,0,9,6,14,16,3,-18,-92,-33
1491088542566,1,-5,6,2,-4,8,-45,-114,-8
1491088542566,1,-25,0,2,-23,23,-18,66,24
1491088542567,2,1,1,6,14,78,21,10,28
1491088542567,2,-15,-6,1,18,121,19,-33,-37
1491088542602,3,-8,-2,-13,-9,108,-29,-63,6
1491088542602,3,-11,-4,20,26,109,-12,28,6
1491088542604,0,14,7,-2,-15,68,-66,-84,-45
1491088542604,0,-27,-9,-13,-7,34,15,-11,35
1491088542605,1,22,-17,1,-1,72,93,127,24
1491088542605,1,-18,5,-10,-20,-27,1,-35,-37
1491088542606,2,23,1,5,17,5,10,-62,-4
1491088542606,2,-11,7,2,6,-43,-18,-18,23
1491088542639,3,10,9,-9,-6,-37,-52,-18,-13
1491088542639,3,3,-7,-12,-4,-77,40,28,33
1491088542640,0,-32,-7,-9,-4,-124,-3,-89,-26
1491088542640,0,34,4,-10,0,-128,-26,73,3
1491088542641,1,-8,-2,21,-3,-128,14,112,20
1491088542641,1,26,6,-5,16,23,29,-79,-5
1491088542676,2,3,-4,-18,-54,26,27,78,-10
1491088542676,2,-8,-2,5,35,124,16,-64,-8
1491088542678,3,2,-7,-1,6,-54,-17,14,-1
1491088542678,3,-15,-3,5,6,-118,-17,-60,-33
1491088542679,0,10,1,0,-10,-66,4,4,10
1491088542679,0,8,5,0,-17,84,-4,-11,-2
1491088542680,1,-5,4,0,6,108,-14,-41,18
1491088542680,1,4,-7,-11,-13,127,-13,50,-22
1491088542714,2,-8,3,12,12,127,33,25,-25
1491088542714,2,14,-3,-5,-30,-4,1,2,-12
1491088542716,3,-9,-7,-13,-16,-13,-29,15,-16
1491088542716,3,-2,-1,9,14,19,-24,-2,36
1491088542717,0,0,-5,-12,10,8,-2,-7,15
1491088542717,0,3,0,4,6,-44,-37,14,-24
1491088542718,1,8,5,-4,7,-57,5,-98,21
1491088542718,1,-38,-2,3,-20,-47,-9,-106,-16
1491088542752,2,14,-23,-17,-11,-24,40,127,-31
1491088542752,2,20,-4,-4,-3,-98,44,34,18
1491088542753,3,-13,-5,-8,-15,-67,-17,-69,-17
1491088542753,3,38,1,3,15,-5,-1,47,-19
1491088542753,0,-21,2,24,14,-29,-19,-59,26
1491088542753,0,-16,4,-8,-20,-51,-19,-47,-21
1491088542754,1,19,16,17,37,26,20,60,8
1491088542754,1,6,4,-10,-9,-48,-2,-127,46
1491088542789,2,-10,-6,-11,-15,-53,-18,77,-35
1491088542789,2,8,-29,6,-3,-4,-9,80,10
1491088542789,3,-32,-6,-16,-94,-53,56,-57,-3
1491088542789,3,7,14,4,105,-8,-52,-88,-33
1491088542790,0,-15,-17,26,101,85,72,83,78
1491088542790,0,21,20,-3,-48,-31,38,-52,-76
1491088542826,1,-6,-10,14,-28,66,82,53,41
1491088542826,1,14,22,-48,-53,-80,-89,-113,-21
1491088542827,2,3,-23,-21,-74,-35,43,-84,-3
1491088542827,2,-47,11,27,94,30,34,61,-36
1491088542827,3,15,-22,-27,13,-50,-64,65,22
1491088542827,3,-51,-50,-20,-10,-22,86,-4,31
1491088542828,0,15,9,-43,-61,-114,-85,66,20
1491088542828,0,-58,-17,-27,0,-43,-47,-78,40
1491088542864,1,65,11,59,38,58,-3,33,-70
1491088542864,1,-5,24,7,74,-75,-76,-80,-14
1491088542864,2,-19,-53,-29,-5,29,36,-22,87
1491088542864,2,18,37,52,-72,64,102,95,-97
1491088542865,3,-22,-5,-31,49,-126,-93,27,89
1491088542865,3,41,-18,20,62,127,-45,-32,19
1491088542866,0,-1,13,30,104,100,65,-15,59
1491088542866,0,-9,-43,-12,-53,-96,-97,-24,-42
1491088542901,1,-3,32,22,-49,48,92,-128,-52
1491088542901,1,-33,-47,-75,-104,-87,-16,127,62
1491088542902,2,-11,-5,7,-70,48,-7,-97,-31
1491088542902,2,78,47,54,127,59,-53,-63,5
1491088542903,3,-6,14,25,-13,-20,96,-50,-58
1491088542903,3,-52,-4,-37,-118,-77,33,-85,38
1491088542904,0,33,13,-10,79,-4,-128,44,-57
1491088542904,0,19,-63,-26,78,91,101,37,127
1491088542939,1,40,38,37,-4,-16,-15,127,-88
1491088542939,1,-18,6,13,-5,56,7,-45,-32
1491088542939,2,39,18,63,26,83,103,74,88
1491088542939,2,-8,15,-31,-102,-128,-69,-88,-103
1491088542940,3,-10,-53,-74,127,54,-103,-80,107
1491088542940,3,17,10,40,25,103,0,-7,-36
1491088542976,0,-26,52,59,74,-57,-80,-128,-32
1491088542976,0,-25,-6,-43,-77,-23,87,92,79
1491088542977,1,37,-4,-18,36,-24,-82,-55,106
1491088542977,1,-39,-12,17,-66,28,127,-73,-20
1491088542978,2,-22,-24,-59,-9,12,-57,33,-92
1491088542978,2,-34,48,113,120,127,66,-81,39
1491088542979,3,-29,9,-53,-128,-15,26,107,26
1491088542979,3,34,1,-35,-40,-56,-57,11,-45
1491088543014,0,65,13,-2,-1,61,89,-61,78
1491088543014,0,-55,10,38,69,70,-23,-73,-14
1491088543015,1,-47,-14,-10,-77,-1,-43,88,-34
1491088543015,1,49,21,8,-10,-82,-83,-19,-2
1491088543015,2,-3,12,-22,-66,15,22,-119,-21
1491088543015,2,-26,0,-58,46,-123,-53,52,82
1491088543016,3,-24,20,117,127,127,96,-128,-47
1491088543016,3,23,-12,-76,-63,-84,21,127,-3
1491088543051,0,0,-30,-36,-94,-89,-71,0,-44
1491088543051,0,61,20,-3,-28,38,-48,-73,23
1491088543089,1,-85,-23,-31,-44,-56,-9,-45,44
1491088543089,1,-25,11,42,22,66,10,-75,-55
1491088543090,2,-52,-1,-5,4,27,49,85,17
1491088543090,2,40,-35,-55,-100,-39,10,90,-91
1491088543092,3,57,35,20,60,20,-4,52,51
1491088543092,3,-82,-59,-53,-42,-43,-42,-119,42
1491088543093,0,-14,8,8,-96,31,44,31,15
1491088543093,0,32,-5,23,29,92,-13,39,35
1491088543126,1,23,12,14,-5,11,-18,31,-65
1491088543126,1,16,13,-8,126,72,45,-11,79
1491088543127,2,-44,-28,-2,101,-117,-128,-128,-65
1491088543127,2,16,-30,-91,-107,9,105,85,127
1491088543128,3,35,22,30,-25,73,127,-22,-114
1491088543128,3,-2,38,54,-5,29,-86,69,59
1491088543128,0,37,-69,-83,-8,-97,60,-47,65
1491088543128,0,-69,11,73,99,57,-18,-64,7
1491088543164,1,80,4,-33,-70,-54,-116,-59,-68
1491088543164,1,30,-1,38,-13,127,91,127,-69
1491088543165,2,13,59,41,-20,-38,62,68,5
1491088543165,2,-40,-58,-59,-31,-119,-13,-63,-70
1491088543167,3,-54,-16,-15,-57,-96,18,50,47
1491088543167,3,-27,4,23,108,35,-85,-93,-61
1491088543167,0,27,9,53,-65,51,4,62,-71
1491088543167,0,3,36,58,96,115,55,-30,-25
1491088543201,1,-7,-39,-117,-52,-127,-126,-15,110
1491088543201,1,35,38,58,3,8,61,-55,18
1491088543202,2,-47,-32,-43,96,51,-14,79,38
1491088543202,2,19,-2,21,-59,-10,19,-73,51
1491088543203,3,5,-19,-5,13,24,24,92,-39
1491088543203,3,14,-11,-5,-20,-15,46,-13,89
1491088543206,0,6,57,26,-41,-44,-35,-37,-104
1491088543206,0,7,-6,-32,-75,-12,-82,-82,25
1491088543239,1,40,4,54,127,84,24,-105,-69
1491088543239,1,-38,-28,-39,-76,13,19,49,59
1491088543241,2,-59,-36,-58,-32,-99,69,-46,55
1491088543241,2,14,21,22,-128,-76,-56,-57,-88
1491088543242,3,-10,-8,8,-102,17,79,55,31
1491088543242,3,8,-18,9,113,41,70,76,-20
1491088543243,0,-12,18,60,60,-52,-53,-88,36
1491088543243,0,-24,-28,-43,0,68,13,55,-8
1491088543277,1,-21,-28,-55,-76,-58,-52,-117,-46
1491088543277,1,46,42,43,-7,-2,-22,92,13
1491088543278,2,11,35,46,-26,3,68,-47,-99
1491088543278,2,-45,-46,-3,102,-73,-64,43,51
1491088543279,3,-28,-10,-24,-83,-35,69,-86,-62
1491088543279,3,-5,-40,-62,-7,-106,-103,-27,-96
1491088543280,0,-30,8,36,27,69,2,55,101
1491088543280,0,16,27,25,-31,5,59,1,-115
1491088543314,1,-36,-14,-48,127,114,-77,-45,124
1491088543314,1,-3,-20,0,-102,-73,92,-44,-31
1491088543316,2,33,15,-5,47,62,17,-99,-23
1491088543316,2,-25,1,-21,-38,-11,70,89,70
1491088543317,3,-4,-2,54,-19,-28,-31,80,-17
1491088543317,3,3,23,-7,-89,-9,-62,16,-36
1491088543318,0,-17,-17,4,108,92,-86,-114,112
1491088543318,0,58,17,-13,64,44,43,48,-58
1491088543352,1,-3,-12,-33,25,-103,-36,19,37
1491088543352,1,18,-3,35,63,110,38,36,5
1491088543353,2,35,11,14,-102,-26,118,74,33
1491088543353,2,-20,-16,-11,-20,-4,0,20,-97
1491088543354,3,30,41,23,-91,-50,1,-89,-28
1491088543354,3,-44,-43,-55,127,92,-49,0,79
1491088543355,0,6,10,16,-42,-92,-27,27,-46
1491088543355,0,-21,-29,-48,47,-15,-115,-128,58
1491088543389,1,-22,-13,39,39,0,20,-32,14
1491088543389,1,25,28,47,16,72,89,78,-27
1491088543390,2,-4,6,-56,-11,-82,-42,-53,-16
1491088543390,2,-11,-22,-46,-127,-111,-86,33,61
1491088543391,3,-16,18,103,127,112,93,72,-63
1491088543391,3,19,27,-33,-57,-25,-57,-117,-51
1491088543393,0,-15,-37,-60,-92,3,51,107,39
1491088543393,0,63,40,52,-56,-13,53,75,45
1491088543426,1,-69,-15,17,46,53,31,-101,65
1491088543426,1,71,17,-57,-100,-112,-23,127,-24
1491088543427,2,-9,-27,-6,-97,-47,71,66,-70
1491088543427,2,0,29,38,60,19,50,-83,-19
1491088543428,3,-20,-12,3,62,110,-57,17,28
1491088543428,3,-51,-28,-12,-48,-33,-2,15,-8
1491088543429,0,23,-36,-57,74,-15,-85,-21,26
1491088543429,0,22,15,40,-3,34,110,-48,8
1491088543463,1,11,41,52,18,-59,35,-54,-39
1491088543463,1,24,10,28,-8,17,53,-41,-27
1491088543468,2,4,-2,18,61,-10,-84,72,31
1491088543468,2,-34,-6,-5,26,73,-55,-49,-15
1491088543469,3,18,-25,-58,-99,-92,103,110,12
1491088543469,3,-24,1,22,-30,-40,72,-128,-20
1491088543469,0,10,30,23,-69,104,53,110,62
1491088543469,0,-17,-5,20,92,29,57,19,-77
1491088543501,1,40,21,-77,-128,-17,-64,77,10
1491088543501,1,-22,-11,5,127,-3,126,-73,27
1491088543502,2,19,6,42,11,20,-2,-128,-106
1491088543502,2,-33,-38,-105,-60,-34,-92,99,38
1491088543503,3,11,-14,-23,56,33,-58,-28,66
1491088543503,3,-6,26,36,-104,22,57,106,-52
1491088543539,0,-4,5,-29,73,127,51,2,26
1491088543539,0,25,16,49,-17,11,-39,-67,-27
1491088543540,1,-27,-50,-64,-7,-65,8,16,9
1491088543540,1,12,44,76,46,86,-62,-40,-2
1491088543540,2,-32,-14,-15,21,-64,-18,0,-35
1491088543540,2,-3,2,-7,-1,20,104,8,-52
1491088543541,3,30,50,85,-45,127,53,6,-103
1491088543541,3,-62,-51,-89,-6,-113,-128,-112,127
1491088543576,0,-9,-9,-33,21,41,48,125,29
1491088543576,0,-7,10,41,-3,45,98,-117,-15
1491088543578,1,20,25,86,127,92,-57,84,-73
1491088543578,1,-31,-47,-38,-72,-70,-22,-33,34
1491088543579,2,16,-2,41,56,58,60,29,-104
1491088543579,2,6,-19,-63,35,-43,-89,-16,66
1491088543580,3,16,14,13,26,-50,-9,-55,16
1491088543580,3,17,17,15,4,-58,39,-15,-60
1491088543614,0,4,4,-4,0,0,-80,-62,88
1491088543614,0,20,17,9,-32,-26,-12,105,-59
1491088543615,1,-9,-31,-70,-15,-116,-25,-29,60
1491088543615,1,-7,-24,20,18,15,85,-2,-1
1491088543615,2,-10,2,-25,-33,-93,79,-41,18
1491088543615,2,1,5,53,29,61,-81,-1,-36
1491088543616,3,-14,6,34,57,77,110,-11,-10
1491088543616,3,6,-22,-111,-7,-97,-120,66,59
1491088543651,0,-1,-11,14,-24,-15,-32,-61,23
1491088543651,0,10,20,-1,6,-12,3,60,-9
1491088543652,1,-37,-54,-104,-114,-100,13,-82,42
1491088543652,1,11,30,119,46,89,-47,-70,-60
1491088543653,2,21,35,-44,-83,-4,41,-15,-91
1491088543653,2,-16,-17,-52,70,-60,101,-4,76
1491088543688,3,0,14,8,-22,-2,-114,-38,9
1491088543688,3,-2,5,8,60,60,51,-55,12
1491088543690,0,2,2,26,-111,91,36,24,-51
1491088543690,0,-12,-27,-44,-43,-128,-35,-52,-17
1491088543690,1,-3,16,91,-43,102,22,-15,-2
1491088543690,1,-7,-32,-90,1,-66,-65,-48,59
1491088543691,2,-8,10,49,57,-10,-81,-32,-46
1491088543691,2,28,19,60,33,-102,110,9,47
1491088543726,3,-5,-31,-23,1,48,7,67,-10
1491088543726,3,4,35,-5,-20,99,28,93,22
1491088543727,0,8,16,19,14,54,17,-54,1
1491088543727,0,-1,0,-21,-20,50,-43,-23,73
1491088543728,1,-15,-2,-15,-4,19,91,50,-74
1491088543728,1,13,9,47,79,-40,-59,36,44
1491088543728,2,9,-34,-58,6,-111,97,59,53
1491088543728,2,-18,-4,9,-29,-11,-83,70,29
1491088543764,3,3,-19,-55,-102,-73,38,31,-9
1491088543764,3,3,3,34,29,8,35,62,-12
1491088543765,0,24,22,33,11,20,8,106,1
1491088543765,0,3,-2,22,53,-6,-99,-72,-68
1491088543765,1,-14,-16,-74,20,-105,37,0,40
1491088543765,1,-12,3,38,27,65,45,52,-32
1491088543766,2,-18,-11,4,5,-36,-71,-68,8
1491088543766,2,5,0,-1,-99,-12,49,14,-20
1491088543801,3,8,22,39,1,-26,-52,-20,-15
1491088543801,3,0,-5,8,30,-39,46,-52,-50
1491088543802,0,-25,-8,-12,1,-47,-110,-50,47
1491088543802,0,-14,-18,-53,-8,61,41,13,-65
1491088543803,1,45,10,36,-14,-29,11,60,-19
1491088543803,1,10,-10,-10,-57,-51,14,96,19
1491088543839,2,3,-17,12,20,35,74,-21,-22
1491088543839,2,-9,-9,-6,-12,-58,-43,-79,17
1491088543839,3,-14,8,-5,16,-8,-36,-73,30
1491088543839,3,15,11,25,-48,16,48,95,-13
1491088543840,0,7,1,-1,-36,-15,17,13,-17
1491088543840,0,8,-2,-33,-31,-10,-21,-18,12
1491088543841,1,-4,5,-20,18,6,4,11,-11
1491088543841,1,-17,-2,1,-32,-12,-26,-45,-27
1491088543876,2,-16,7,2,23,-6,-42,-50,9
1491088543876,2,-12,-20,-61,-23,17,41,41,-32
1491088543877,3,37,2,0,-28,-6,-44,20,24
1491088543877,3,-10,-9,-27,2,19,18,-24,-7
1491088543878,0,10,20,-7,2,-2,-13,10,1
1491088543878,0,1,2,29,58,48,17,18,16
1491088543879,1,-33,8,8,-1,-4,-22,-83,26
1491088543879,1,-12,3,9,-3,12,24,56,-10
1491088543913,2,1,17,12,22,22,45,-2,-1
1491088543913,2,-21,-35,-4,14,24,1,-36,12
1491088543915,3,-13,6,16,62,24,-34,-23,-16
1491088543915,3,0,-15,5,-53,-35,-25,-61,0
1491088543915,0,-21,-7,31,21,-4,-25,36,6
1491088543915,0,12,17,9,4,16,-12,-38,26
1491088543916,1,-16,-9,-13,20,11,-15,-85,-25
1491088543916,1,-10,10,53,20,3,-14,18,-7
1491088543951,2,-14,-3,-19,26,40,54,54,-46
1491088543951,2,3,14,0,-84,12,-10,-17,35
1491088543952,3,9,4,23,67,5,46,41,38
1491088543952,3,1,-6,-24,21,-31,-41,-4,29
1491088543953,0,-15,-63,-26,-4,38,-24,3,10
1491088543953,0,8,6,46,12,18,49,74,-32
1491088543988,1,4,0,45,38,109,37,27,-11
1491088543988,1,11,15,-46,-58,14,-11,-24,-19
1491088543990,2,15,-8,-32,-28,-85,-27,28,43
1491088543990,2,14,-43,3,61,-21,-108,23,76
1491088543990,3,15,13,-16,21,19,97,10,-13
1491088543990,3,51,49,74,117,89,116,44,2
1491088543991,0,37,49,25,32,-45,-115,27,36
1491088543991,0,23,41,32,8,46,73,-7,-26
1491088544026,1,10,-66,-70,-79,-3,72,33,-45
1491088544026,1,-12,-37,9,-5,52,86,72,-76
1491088544027,2,-3,10,28,-22,-34,-57,-125,-16
1491088544027,2,-2,49,90,-42,57,99,88,-57
1491088544028,3,-52,-35,-67,18,-114,-6,-11,66
1491088544028,3,-25,-7,-5,-27,-60,-26,-128,-6
1491088544029,0,-14,-19,52,37,96,-63,-12,-21
1491088544029,0,-13,13,55,19,91,76,42,-13
1491088544064,1,-27,-29,-71,-128,-72,-75,-77,-33
1491088544064,1,-10,11,15,106,105,-34,-71,64
1491088544065,2,-17,12,11,-22,-11,95,-27,-11
1491088544065,2,-15,-30,-89,36,-27,81,33,-1
1491088544066,3,-1,18,23,-53,-46,-96,-35,-31
1491088544066,3,-31,-49,-48,89,-45,56,46,55
1491088544067,0,-18,-6,-73,-54,-82,-89,-35,1
1491088544067,0,-7,0,13,98,18,107,77,-2
1491088544102,1,23,28,54,47,37,-48,-72,74
1491088544102,1,-8,-24,-128,-101,-124,-77,-33,-17
1491088544103,2,-13,2,90,-52,127,127,51,-16
1491088544103,2,10,-22,-19,-2,11,-128,-128,-67
1491088544104,3,4,11,8,-20,-77,18,124,41
1491088544104,3,28,37,95,-11,127,76,64,-17
1491088544139,0,-9,-23,-120,44,12,73,123,0
1491088544139,0,-5,-38,-6,18,-52,15,-39,9
1491088544140,1,6,19,-73,-86,-37,127,21,-53
1491088544140,1,-25,-19,38,-50,-45,75,54,3
1491088544141,2,26,25,23,-14,-21,-60,-72,-7
1491088544141,2,8,0,13,-14,-75,9,45,45
1491088544142,3,-9,-7,73,50,127,19,-4,-52
1491088544142,3,34,-4,-13,-35,-22,60,127,-55
1491088544176,0,-9,-11,-19,-44,-47,-42,-50,96
1491088544176,0,26,22,-68,-14,-94,23,113,-49
1491088544177,1,-79,-10,46,58,-85,-91,-56,53
1491088544177,1,32,18,81,80,72,20,72,-33
1491088544178,2,50,-18,-47,8,-70,-93,-96,56
1491088544178,2,54,14,15,-97,-12,49,25,-83
1491088544179,3,1,33,9,-15,-51,-70,-62,41
1491088544179,3,-48,51,45,-61,42,26,-67,-89
1491088544214,0,-44,-59,-35,-19,-110,-58,64,36
1491088544214,0,-34,-26,-5,40,22,103,-4,62
1491088544215,1,-34,-32,30,8,84,89,0,-102
1491088544215,1,66,17,-46,10,-115,-127,-128,110
1491088544216,2,49,28,91,100,127,127,101,-89
1491088544216,2,-75,-34,-112,-128,-107,-128,-128,-11
1491088544251,3,71,-9,38,127,127,77,126,88
1491088544251,3,-51,18,-23,-19,-27,-82,-47,-10
1491088544253,0,23,32,15,90,57,11,113,-15
1491088544253,0,-13,-35,0,24,-44,-125,-128,40
1491088544254,1,-21,45,-3,-36,-4,101,-46,-120
1491088544254,1,9,-64,-67,-102,-10,-112,76,49
1491088544254,2,2,-1,-26,-1,17,34,-106,45
1491088544254,2,-32,53,35,-101,-59,-61,70,-54
1491088544289,3,78,-48,-85,79,-128,-128,-92,87
1491088544289,3,-40,11,49,51,86,127,16,10
1491088544290,0,-16,-7,17,-38,-100,11,5,38
1491088544290,0,-8,29,58,41,66,111,21,-13
1491088544290,1,-14,-13,-54,-93,-65,-85,6,-17
1491088544290,1,-4,-20,-24,81,-6,9,-58,3
1491088544291,2,-24,35,119,46,100,100,2,-58
1491088544291,2,-3,-41,-120,37,-69,-110,-128,45
1491088544326,3,-44,17,57,9,127,119,125,-59
1491088544326,3,36,-10,-15,-6,-64,-75,19,22
1491088544327,0,45,-3,-10,-125,72,127,15,-79
1491088544327,0,3,15,-11,51,-67,-44,-48,99
1491088544328,1,-60,-13,13,-85,39,54,67,-96
1491088544328,1,72,18,15,-48,51,119,-121,7
1491088544329,2,-61,-5,76,62,103,-63,39,-7
1491088544329,2,28,41,-59,24,-11,-84,-52,-31
1491088544364,3,97,-25,-6,50,23,-128,8,71
1491088544364,3,34,45,64,-82,56,74,62,-93
1491088544364,0,-56,-9,-11,127,78,96,-4,-28
1491088544364,0,-25,-32,-29,-96,-17,-39,-53,58
1491088544365,1,-16,-19,-8,-66,-71,70,47,12
1491088544365,1,-104,-35,-67,40,-92,-68,-26,-32
1491088544401,2,42,29,-16,-46,-40,26,-12,-23
1491088544401,2,2,22,67,-46,58,-18,127,-77
1491088544403,3,-59,-40,-74,-96,-115,-66,-128,104
1491088544403,3,26,-13,56,91,57,76,-16,-55
1491088544403,0,29,51,-38,19,29,-44,-94,65
1491088544403,0,-3,-44,-38,14,-6,-39,-41,34
1491088544404,1,-3,27,99,-31,11,94,127,-100
1491088544404,1,-82,-26,-61,-11,9,-128,-104,101
1491088544439,2,-1,-38,-34,76,14,-91,-23,23
1491088544439,2,69,28,62,-70,114,127,127,-83
1491088544440,3,-11,8,-24,49,-26,-98,-11,83
1491088544440,3,47,27,66,-92,-44,73,-81,-35
1491088544440,0,-77,-48,-104,30,-120,-70,-28,-23
1491088544440,0,78,20,126,30,69,107,105,-74
1491088544441,1,-18,31,-99,115,83,-117,-57,53
1491088544441,1,5,-5,14,66,17,98,-74,106
1491088544476,2,-27,20,39,-102,-22,59,-9,-55
1491088544476,2,-31,-60,-72,-17,-49,-73,1,40
1491088544477,3,48,7,52,-55,-53,127,-104,27
1491088544477,3,-49,44,-31,-1,-98,-128,96,-58
1491088544479,0,62,-69,-94,-53,-69,-66,28,91
1491088544479,0,-40,3,16,73,55,-56,102,32
1491088544479,1,-5,-13,-15,13,-62,-93,-78,-40
1491088544479,1,86,32,61,-122,38,91,22,-47
1491088544514,2,-71,-9,-17,-47,-94,21,68,-128
1491088544514,2,-51,-40,-31,72,64,40,-128,65
1491088544516,3,55,45,72,-75,111,101,127,-42
1491088544516,3,-11,-55,-60,127,83,-128,22,76
1491088544516,0,35,77,62,-128,-47,-64,115,-19
1491088544516,0,-59,-23,-42,-57,-91,-41,-93,3
1491088544552,1,-33,-15,32,19,51,92,-2,46
1491088544552,1,-30,10,2,81,7,-67,123,-58
1491088544553,2,47,-23,-12,9,76,68,34,9
1491088544553,2,-11,19,54,45,46,81,-128,67
1491088544555,3,-49,-10,-4,19,35,-12,106,-74
1491088544555,3,61,-10,-10,-21,-41,-101,71,-45
1491088544556,0,-50,-4,34,39,-51,42,58,-53
1491088544556,0,1,18,25,6,47,-2,-62,58
1491088544589,1,38,-40,-50,43,56,-24,-89,-54
1491088544589,1,-12,-43,-19,-84,30,24,85,42
1491088544590,2,-12,44,73,3,93,102,27,-46
1491088544590,2,24,36,-8,-64,-61,-49,-14,-31
1491088544590,3,-50,-36,-19,85,-53,18,110,90
1491088544590,3,-26,-18,-45,-8,17,127,-98,-53
1491088544591,0,36,29,40,1,43,-40,-71,127
1491088544591,0,21,11,-6,-101,-37,37,-42,-69
1491088544626,1,-1,11,-35,66,31,-49,-18,21
1491088544626,1,-68,-48,-60,-116,-42,48,-102,123
1491088544628,2,98,32,-15,118,-70,-128,80,5
1491088544628,2,-35,-8,32,64,0,76,69,-79
1491088544629,3,33,50,28,-6,89,114,-102,-40
1491088544629,3,0,-13,-66,-98,-128,-102,123,-100
1491088544629,0,20,-57,-30,85,127,64,-104,82
1491088544629,0,-99,-75,-81,-114,-114,-128,-24,20
1491088544664,1,126,88,121,2,-35,57,-38,63
1491088544664,1,-11,29,-13,-65,-111,80,58,-91
1491088544665,2,33,-27,-7,-1,7,6,48,-17
1491088544665,2,-41,-13,-21,-30,-10,93,22,32
1491088544666,3,-68,-38,7,92,27,-9,-66,-111
1491088544666,3,24,47,89,-13,60,42,-18,5
1491088544701,0,-31,-14,-36,20,-56,-109,-32,52
1491088544701,0,26,6,99,39,65,106,127,-83
1491088544702,1,-31,-7,-121,-128,-126,-89,61,69
1491088544702,1,40,-6,41,72,104,-1,-118,-42
1491088544703,2,-12,-22,3,51,19,119,30,-3
1491088544703,2,85,76,57,-33,-32,-115,-86,-22
1491088544704,3,73,6,-11,78,81,-107,106,104
1491088544704,3,-52,-57,-85,-51,52,60,16,40
1491088544739,0,-97,10,26,-126,-87,-19,-39,-7
1491088544739,0,-44,-17,11,109,-6,-70,-66,58
1491088544740,1,68,-50,-33,-67,-34,-33,68,-102
1491088544740,1,46,38,90,127,99,32,121,-56
1491088544741,2,-1,-10,-89,-68,-50,-93,-128,56
1491088544741,2,-38,-47,-116,-104,-118,-37,-37,82
1491088544741,3,-45,8,88,-92,-10,58,-28,-113
1491088544741,3,-32,6,-22,127,38,-116,-48,113
1491088544776,0,27,-20,19,-71,46,117,-17,-36
1491088544776,0,-22,65,51,-20,-50,16,20,-50
1491088544778,1,50,-39,-55,65,-50,-56,-63,127
1491088544778,1,-40,13,39,-64,58,127,-28,-105
1491088544779,2,64,8,-13,30,-116,-109,68,-4
1491088544779,2,28,-22,11,127,127,33,127,72
1491088544814,3,-77,18,20,80,-6,108,-33,8
1491088544814,3,24,-25,-20,-93,-68,-107,-40,127
1491088544819,0,-35,9,61,127,127,-28,-30,-31
1491088544819,0,91,-21,-78,-89,-51,10,4,-85
1491088544822,1,-63,19,27,60,43,60,-128,-6
1491088544822,1,2,15,-30,-43,-128,-55,110,43
1491088544823,2,0,-33,-44,50,63,86,-126,-32
1491088544823,2,15,49,109,-13,80,33,127,-38
1491088544852,3,-24,-28,-35,-69,-70,-6,50,-32
1491088544852,3,-2,-5,-33,39,31,-128,-128,98
1491088544853,0,-66,-2,7,-93,-3,127,72,-79
1491088544853,0,4,-13,-27,-38,-38,4,66,-49
1491088544854,1,-24,-23,-29,-8,22,-123,-73,61
1491088544854,1,-59,18,11,-35,-128,3,-77,-1
1491088544855,2,-14,-66,-64,-86,56,41,41,-1
1491088544855,2,11,6,47,83,57,127,11,-35
1491088544889,3,45,49,91,44,13,-94,109,38
1491088544889,3,-46,-11,-4,40,62,127,-113,7
1491088544890,0,-18,-13,-80,-92,-128,-128,0,8
1491088544890,0,-16,-47,-55,23,7,-26,-62,31
1491088544891,1,27,53,60,-60,-31,-4,68,-112
1491088544891,1,42,5,31,127,90,105,28,43
1491088544892,2,-10,-9,-28,-16,-33,-1,49,-17
1491088544892,2,3,6,52,73,36,81,-51,21
1491088544927,3,-89,-43,-100,-107,-94,-90,-124,-28
1491088544927,3,40,-4,0,118,28,78,127,18
1491088544929,0,4,32,36,-18,-19,-20,-15,-20
1491088544929,0,10,-33,-48,83,42,-87,45,93
1491088544930,1,-51,25,48,-73,25,127,-92,-99
1491088544930,1,47,10,-17,-47,-9,-101,78,46
1491088544931,2,-12,-11,8,-5,-41,88,32,-45
1491088544931,2,39,13,-8,96,34,-15,-86,-12
1491088544964,3,6,19,19,48,108,99,35,7
1491088544964,3,-22,-21,-45,28,32,-120,8,42
1491088544966,0,13,24,48,-52,-113,62,-67,-14
1491088544966,0,-36,15,-11,74,70,-128,-126,73
1491088544967,1,23,-27,-40,-2,-69,53,-18,107
1491088544967,1,-29,23,10,-96,-105,58,46,-126
1491088545001,2,9,-19,-7,120,127,55,11,-33
1491088545001,2,12,53,36,-121,-43,-103,-8,-12
1491088545002,3,0,-39,-56,3,-81,62,16,42
1491088545002,3,-11,-21,31,-36,-2,47,12,9
1491088545004,0,29,34,40,87,84,-18,24,-51
1491088545004,0,-8,0,-28,-99,-24,0,127,19
1491088545005,1,71,22,28,-47,-36,61,-20,-85
1491088545005,1,-45,-22,-38,34,-80,-100,-52,23
1491088545039,2,3,-10,12,-40,12,81,-46,47
1491088545039,2,-4,1,16,-8,-17,-3,-55,-74
1491088545040,3,-22,5,0,-98,-51,-111,-25,13
1491088545040,3,-1,0,22,62,24,-3,-32,-12
1491088545041,0,15,8,19,-16,-75,14,-38,1
1491088545041,0,-34,-31,-54,6,88,-81,-72,90
1491088545042,1,-4,-17,-45,34,1,69,126,10
1491088545042,1,21,-23,-45,6,-27,-33,-126,42
1491088545076,2,-32,37,44,-18,-68,-54,-40,-13
1491088545076,2,67,13,16,50,34,127,115,-128
1491088545078,3,15,-24,-31,-59,44,-77,-78,79
1491088545078,3,23,8,14,-8,88,-76,127,-57
1491088545079,0,-21,-4,0,13,-115,-83,26,-37
1491088545079,0,-11,3,-17,-128,-100,114,54,50
1491088545080,1,-22,-51,-18,127,40,12,23,-36
1491088545080,1,15,66,-8,-106,-126,45,-77,-48
1491088545114,2,-33,-65,-94,-54,-56,-128,-128,106
1491088545114,2,3,8,44,97,-8,44,32,-23
1491088545115,3,13,7,25,47,127,78,-8,77
1491088545115,3,2,-12,17,-128,-128,127,70,-128
1491088545116,0,-15,-24,-34,46,91,-7,9,71
1491088545116,0,-13,-31,-13,16,-3,19,-64,-30
1491088545152,1,-7,-5,9,-34,-72,-27,11,25
1491088545152,1,-1,23,22,-71,-23,27,37,-55
1491088545153,2,15,43,24,4,20,97,7,-58
1491088545153,2,-29,-18,-16,-41,37,-75,-114,71
1491088545154,3,3,-16,-49,-71,-106,-13,32,45
1491088545154,3,-26,-75,21,28,-16,38,1,-55
1491088545155,0,-2,-3,-21,13,-35,57,49,4
1491088545155,0,-1,78,20,18,-56,-3,-19,-20
1491088545189,1,2,21,34,5,3,3,31,-56
1491088545189,1,-4,-23,-69,21,35,-35,-14,40
1491088545190,2,6,-40,-91,15,61,-68,7,4
1491088545190,2,-7,-4,-34,37,73,16,39,-37
1491088545191,3,-9,32,-51,-24,90,-67,-19,-25
1491088545191,3,-21,-65,44,51,116,-16,-17,24
1491088545192,0,-3,-13,52,-56,100,-61,-40,39
1491088545192,0,0,-77,42,-22,87,6,14,-26
1491088545226,1,42,101,93,75,127,-12,20,-9
1491088545226,1,-9,-34,38,-9,57,-111,-37,0
1491088545227,2,0,21,52,-29,-22,95,-96,14
1491088545227,2,-14,-33,-43,-37,-66,81,-15,6
1491088545229,3,-22,-25,56,-2,15,-102,17,-31
1491088545229,3,1,50,-28,81,-4,124,-34,0
1491088545264,0,5,-8,1,29,-41,-84,11,28
1491088545264,0,26,76,61,-1,30,-87,69,24
1491088545265,1,-28,-42,-90,-95,-93,9,-72,-61
1491088545265,1,4,-12,-57,-18,-74,-102,-41,92
1491088545266,2,18,30,15,-103,-37,11,15,-35
1491088545266,2,-23,-22,26,82,-42,94,25,37
1491088545267,3,11,8,66,116,126,72,82,-12
1491088545267,3,11,29,-71,-43,-8,-114,-58,3
1491088545302,0,-21,-19,-33,-93,-100,-10,118,-43
1491088545302,0,33,33,25,-18,-7,42,108,-25
1491088545303,1,-18,-35,-78,-97,-119,-81,-12,18
1491088545303,1,-11,19,22,6,-27,108,3,-1
1491088545304,2,-38,9,27,127,78,-55,-112,39
1491088545304,2,-35,34,62,-38,31,87,-66,-52
1491088545305,3,-23,-24,105,100,38,-78,-95,-19
1491088545305,3,-4,-40,-58,-14,28,27,122,-9
1491088545339,0,53,26,16,6,104,43,58,-1
1491088545339,0,9,-1,-38,60,0,14,-20,-51
1491088545341,1,-12,-48,-72,-110,-126,1,4,80
1491088545341,1,69,37,82,-42,70,114,-20,-63
1491088545342,2,1,6,-32,127,127,77,97,-42
1491088545342,2,-4,-9,-53,-125,-63,-71,-31,-54
1491088545343,3,-73,-12,-42,34,16,-55,-77,15
1491088545343,3,-26,-7,39,-83,72,84,94,-5
1491088545376,0,2,-15,-16,32,36,31,-14,20
1491088545376,0,-39,-1,28,-12,17,-11,-105,28
1491088545379,1,84,12,-20,-17,60,-69,-41,-51
1491088545379,1,-62,-9,-32,-56,-114,-115,-128,57
1491088545380,2,-36,-52,-15,24,-59,-18,-73,-61
1491088545380,2,4,6,11,24,55,58,127,24
1491088545414,3,-17,10,-22,111,-78,-61,-28,84
1491088545414,3,-26,10,52,8,52,127,-91,6
1491088545415,0,53,54,-48,-91,-67,-2,-17,-10
1491088545415,0,-52,-65,-79,-32,-128,2,-104,22
1491088545417,1,6,35,94,3,85,127,42,-69
1491088545417,1,11,23,21,-22,-16,-26,88,-36
1491088545417,2,-36,-47,-36,19,-87,-57,16,57
1491088545417,2,15,-13,4,-6,44,14,69,-33
1491088545451,3,35,41,81,4,81,127,110,-57
1491088545451,3,-7,-33,-100,44,-86,-127,51,-23
1491088545453,0,3,2,37,-39,-40,127,44,23
1491088545453,0,32,-13,-18,-24,27,-128,64,48
1491088545454,1,-8,-9,0,-47,-102,102,-20,40
1491088545454,1,-34,8,-10,35,-31,124,42,-54
1491088545455,2,64,-13,-36,-60,-17,-103,-10,14
1491088545455,2,-3,-20,-17,-44,-88,-104,-93,34
1491088545489,3,22,25,61,114,107,86,-58,-41
1491088545489,3,-5,38,19,-83,-38,53,103,43
1491088545490,0,0,-46,-76,-41,-77,-52,-69,-14
1491088545490,0,-15,11,49,90,27,-82,68,71
1491088545492,1,-18,0,-10,-55,85,95,-15,-41
1491088545492,1,45,24,32,0,-48,-22,-128,-66
1491088545493,2,-33,-16,-2,-106,-88,-69,-27,112
1491088545493,2,2,-4,29,126,116,127,17,-66
1491088545526,3,2,-2,-5,-56,17,-4,106,-18
1491088545526,3,-3,-16,-33,127,73,77,54,23
1491088545527,0,-12,35,43,71,127,-40,-43,-2
1491088545527,0,-20,20,18,-52,-86,-82,-118,-23
1491088545528,1,18,-54,-107,-42,-124,-96,-70,70
1491088545528,1,24,-13,48,-12,127,86,80,7
1491088545563,2,-3,13,23,-51,3,69,123,-11
1491088545563,2,27,11,25,81,9,-54,-128,13
1491088545564,3,-20,18,34,-40,55,-25,-10,1
1491088545564,3,6,3,22,63,35,-30,6,0
1491088545565,0,-19,8,55,63,4,41,16,-16
1491088545565,0,-12,1,-37,-116,-79,-57,75,35
1491088545566,1,-3,-6,19,89,-36,41,-14,-50
1491088545566,1,28,-25,16,-5,-73,-18,15,47
1491088545601,2,-13,23,66,8,45,110,-43,-37
1491088545601,2,-8,-14,8,-16,-53,-18,8,43
1491088545602,3,-4,37,37,-29,-51,19,-49,13
1491088545602,3,-19,-3,55,14,65,15,31,-46
1491088545603,0,-4,-6,46,10,35,64,28,-81
1491088545603,0,12,-32,-25,-24,-41,4,-32,-15
1491088545603,1,-1,-9,12,-11,-17,-38,28,-14
1491088545603,1,2,-7,6,7,-5,-57,-67,31
1491088545639,2,-25,36,-19,-20,-5,-28,23,8
1491088545639,2,-20,38,-41,19,30,77,18,-37
1491088545640,3,10,-18,-91,-31,3,-26,22,36
1491088545640,3,36,-13,-105,-26,-46,-39,-33,27
1491088545640,0,-7,7,-89,-10,-23,-12,-20,-45
1491088545640,0,-1,-55,-61,11,40,60,-1,27
1491088545641,1,-6,-10,-43,22,-6,1,35,-32
1491088545641,1,-8,-46,-76,27,-7,-39,-23,-43
1491088545676,2,-17,25,-20,-78,-30,-17,-31,39
1491088545676,2,34,39,-12,12,15,49,25,-19
1491088545677,3,26,-20,-32,-41,-21,-21,46,-17
1491088545677,3,-5,-17,1,10,-1,-12,-11,9
1491088545678,0,-8,-48,14,38,24,15,-11,-17
1491088545678,0,17,40,8,-8,9,38,-32,1
1491088545713,1,41,5,4,10,-14,-4,41,3
1491088545713,1,18,60,37,5,14,-3,-15,16
1491088545714,2,31,18,26,22,-4,-19,-24,9
1491088545714,2,7,-20,10,-6,1,20,19,0
1491088545715,3,-1,32,27,42,69,-4,-44,6
1491088545715,3,-8,2,6,-34,-19,-4,54,4
1491088545716,0,55,-6,16,46,-94,7,85,17
1491088545716,0,23,-12,-12,-49,-8,15,-59,-54
1491088545751,1,16,18,36,42,68,33,68,-16
1491088545751,1,-37,13,0,-10,-77,-42,-41,6
1491088545752,2,-37,-8,-16,27,-26,-24,-22,19
1491088545752,2,-45,-25,-3,-2,34,23,48,5
1491088545752,3,-22,4,24,44,1,20,-8,-21
1491088545752,3,14,38,10,-33,86,15,-16,5
1491088545753,0,0,16,108,18,114,23,8,-53
1491088545753,0,-17,23,-89,-67,-112,-71,-60,45
1491088545788,1,-45,-41,0,7,-29,-16,4,6
1491088545788,1,-7,-33,13,-24,73,26,-33,-22
1491088545789,2,11,-7,-1,-30,102,-13,-5,11
1491088545789,2,18,11,64,102,50,42,118,25
1491088545790,3,-25,-34,-56,-23,-76,-1,-31,-63
1491088545790,3,-2,3,15,-39,-33,-112,-37,-17
1491088545791,0,-13,-18,-9,19,25,28,-50,27
1491088545791,0,-20,-34,10,-43,58,127,53,-22
1491088545826,1,-3,14,-11,-94,-49,-3,58,-30
1491088545826,1,-38,-34,6,6,-53,-15,-74,-8
1491088545827,2,-23,1,-15,-72,-81,82,69,18
1491088545827,2,-6,-29,-88,17,-25,54,-52,13
1491088545828,3,-19,-71,-44,41,-39,-71,-80,55
1491088545828,3,36,49,58,51,86,68,59,-14
1491088545863,0,-2,12,-27,76,95,-22,23,50
1491088545863,0,12,31,123,51,100,95,89,-82
1491088545864,1,4,-19,-32,-4,-78,-92,16,99
1491088545864,1,-27,-19,16,127,-13,11,-32,-61
1491088545865,2,-1,-29,-52,-24,-64,-41,56,-26
1491088545865,2,18,-7,-21,9,120,-78,-112,61
1491088545866,3,3,22,68,-21,127,127,124,-53
1491088545866,3,-18,-36,-100,-86,-111,-83,-76,2
1491088545901,0,20,44,54,53,74,127,-67,43
1491088545901,0,-16,-14,-6,16,-128,-128,76,-23
1491088545902,1,4,31,78,-43,118,127,-14,18
1491088545902,1,4,50,64,73,104,109,95,-68
1491088545902,2,-24,-50,-89,-125,-107,-108,25,1
1491088545902,2,-16,-8,45,28,99,86,12,-5
1491088545903,3,-3,50,56,-11,-112,-128,-49,108
1491088545903,3,3,12,24,28,61,119,93,23
1491088545939,0,21,20,67,116,100,11,-96,-34
1491088545939,0,4,6,-9,-25,-1,-70,6,44
1491088545939,1,-33,-79,-72,59,20,49,36,-26
1491088545939,1,-8,25,76,-2,59,-63,-96,5
1491088545940,2,-23,-26,-110,-68,-80,98,-2,-1
1491088545940,2,60,27,-30,34,-13,-80,-116,85
1491088545941,3,14,-24,2,-69,24,2,55,-26
1491088545941,3,14,-2,-11,8,19,13,81,-5
1491088545976,0,2,29,37,-28,-91,-124,17,-78
1491088545976,0,-2,-1,22,-18,-56,127,-47,-1
1491088545977,1,-21,17,-31,-42,-53,58,103,-36
1491088545977,1,-59,-46,-39,44,-32,-25,-101,31
1491088545978,2,53,-15,-86,-68,35,-78,118,53
1491088545978,2,66,8,1,-106,-92,100,63,-87
1491088546013,3,-18,35,79,127,73,-99,-56,32
1491088546013,3,13,4,-46,-125,-77,94,-3,19
1491088546014,0,22,-19,21,77,-11,127,-128,-41
1491088546014,0,30,51,100,-60,22,35,24,-26
1491088546015,1,-5,-11,-126,64,-14,-87,-25,115
1491088546015,1,-38,-10,42,66,127,25,-29,-78
1491088546016,2,43,-30,23,18,-4,-25,95,2
1491088546016,2,-21,4,-23,-41,34,127,17,-22
1491088546051,3,16,19,40,28,16,-24,-67,-24
1491088546051,3,36,48,34,82,-44,79,42,-12
1491088546052,0,11,-29,-54,-2,-11,-75,-20,25
1491088546052,0,-11,-48,-1,32,-99,-77,-77,56
1491088546052,1,40,28,-66,-128,-49,120,81,-13
1491088546052,1,-5,-114,-121,-47,-126,-57,-128,64
1491088546053,2,48,93,112,2,48,72,2,1
1491088546053,2,-39,-6,-8,23,80,-84,93,-55
1491088546089,3,12,-4,45,-50,-47,85,-127,-52
1491088546089,3,33,14,-17,-24,-1,46,52,42
1491088546089,0,-33,-18,-4,-19,-7,-42,-24,-40
1491088546089,0,-49,-27,-45,0,29,41,-7,-27
1491088546090,1,-31,18,57,127,90,3,-128,49
1491088546090,1,-12,35,-64,-28,25,70,127,9
1491088546126,2,-54,-34,-25,-55,-114,77,-74,-8
1491088546126,2,-19,13,48,127,78,-27,8,16
1491088546127,3,-8,-32,-30,-56,27,116,46,-65
1491088546127,3,19,21,38,42,62,-128,-59,44
1491088546127,0,-23,18,50,-37,64,6,78,-36
1491088546127,0,1,-1,-54,98,2,10,-64,40
1491088546128,1,17,4,18,-33,-92,40,-3,17
1491088546128,1,-23,-15,-64,-128,-43,55,32,-22
1491088546163,2,-4,-49,-18,127,-25,-11,-33,49
1491088546163,2,1,32,38,-96,-10,69,41,-118
1491088546164,3,-13,-5,-10,32,37,-111,-31,64
1491088546164,3,9,13,23,49,-39,4,3,-67
1491088546165,0,-24,-15,2,36,84,95,95,77
1491088546165,0,-29,-19,4,-32,12,10,69,6
1491088546166,1,5,-28,-55,-64,-96,21,23,-94
1491088546166,1,-23,9,40,64,103,98,63,-30
1491088546201,2,16,26,-15,-61,-73,-122,-113,-32
1491088546201,2,0,-13,-11,-12,-109,31,-44,125
1491088546202,3,-64,21,20,-16,107,-47,-53,-60
1491088546202,3,56,-27,20,-91,-30,66,79,-68
1491088546203,0,9,26,-13,1,-16,9,13,35
1491088546203,0,-18,-36,-51,0,-73,19,-44,48
1491088546207,1,11,-3,16,12,5,-3,-85,16
1491088546207,1,-12,-8,31,-6,17,11,42,-2
1491088546239,2,-7,20,42,11,59,-94,57,-10
1491088546239,2,-9,-2,-29,70,-33,25,-18,-41
1491088546239,3,7,-16,-8,16,-37,-79,-5,4
1491088546239,3,-2,3,-15,-21,34,-15,16,-5
1491088546240,0,23,-18,25,111,72,-7,2,68
1491088546240,0,14,44,7,-94,35,-42,73,-82
1491088546276,1,-38,-12,-30,89,-54,-91,-39,31
1491088546276,1,-28,7,60,-46,-72,82,94,62
1491088546313,2,3,-31,-67,2,72,29,43,-25
1491088546313,2,-9,-15,-27,-95,-82,-24,-36,7
1491088546315,3,49,-28,-27,-15,-32,-67,-27,43
1491088546315,3,-49,-27,13,35,44,50,-13,46
1491088546315,0,25,69,21,-45,36,11,-128,-60
1491088546315,0,-21,-6,12,66,31,106,36,23
1491088546316,1,73,44,10,-52,20,-6,116,-31
1491088546316,1,-14,-22,-14,111,0,-9,-128,117
1491088546389,2,-28,8,16,-102,-115,127,127,-72
1491088546389,2,6,-13,1,127,60,-106,-78,42
1491088546390,3,-7,46,23,-105,-119,-14,21,29
1491088546390,3,45,-31,-95,95,63,-128,-128,105
1491088546391,0,-49,-3,25,45,44,110,46,-62
1491088546391,0,65,29,2,-55,-25,-122,-114,5
1491088546392,1,-20,12,79,96,93,127,-6,-27
1491088546392,1,19,24,-22,-36,-12,-64,52,-28
1491088546427,2,-8,-31,-7,4,-59,-111,22,4
1491088546427,2,-56,2,-17,-110,-89,77,127,59
1491088546429,3,13,-32,12,127,93,63,80,-104
1491088546429,3,5,18,-26,-13,-74,-111,-39,-4
1491088546429,1,15,-37,-53,-128,-90,127,33,-55
1491088546429,1,10,8,26,76,21,-32,71,27
1491088546430,0,-15,14,-4,-50,-32,95,66,26
1491088546430,0,-45,-34,-9,-74,-47,15,52,24
1491088546464,1,34,-8,-2,69,91,-128,96,-50
1491088546464,1,-7,-22,34,-116,-84,47,48,-97
1491088546465,2,40,29,-13,127,39,-98,-95,22
1491088546465,2,-13,-7,22,35,-28,124,-40,2
1491088546466,0,-74,-67,-2,-32,68,83,36,20
1491088546466,0,5,0,-9,-1,-49,28,-32,-30
1491088546467,1,87,10,11,108,80,-61,13,-19
1491088546467,1,-24,74,101,-84,3,127,85,-103
1491088546504,2,-14,9,-94,101,-88,5,-48,46
1491088546504,2,32,-72,1,44,60,-56,-59,72
1491088546506,3,-49,3,13,-20,0,106,45,15
1491088546506,3,26,65,-6,-125,14,-79,57,-8
1491088546507,0,17,-40,-21,-123,-69,-69,75,57
1491088546507,0,-22,0,33,95,72,63,39,17
1491088546510,1,-48,-20,-30,-109,5,29,-128,42
1491088546510,1,76,40,82,127,112,120,19,-97
1491088546539,2,-39,-13,-32,-117,-45,-64,24,61
1491088546539,2,-70,37,37,43,-37,-128,-77,49
1491088546540,3,63,33,-36,-113,45,59,108,-69
1491088546540,3,-58,-23,7,127,14,-11,-104,4
1491088546541,0,-24,55,75,70,56,35,-86,43
1491088546541,0,5,-27,-29,-58,-48,77,-61,-38
1491088546542,1,-42,1,13,-37,-5,-117,-36,-7
1491088546542,1,6,9,-24,-128,-50,24,74,41
1491088546614,2,-18,-56,-40,124,-74,-128,-91,-9
1491088546614,2,-41,-2,17,-66,88,25,127,-78
1491088546615,3,43,27,-8,41,-77,127,-26,18
1491088546615,3,62,0,15,105,109,-92,62,111
1491088546617,0,-79,-6,-29,-106,-88,-128,-93,26
1491088546617,0,68,4,4,-66,-20,127,127,-76
1491088546618,1,-79,-17,9,118,109,44,-35,34
1491088546618,1,-5,30,35,-25,34,-3,-33,-22
1491088546651,2,50,27,-45,1,13,-63,-63,15
1491088546651,2,43,-43,-18,64,-128,22,-6,19
1491088546658,3,-79,-33,-24,0,31,-69,-1,51
1491088546658,3,16,1,-30,-51,-32,-75,-22,-58
1491088546659,3,14,-54,-40,65,81,-128,-35,127
1491088546659,3,-26,60,76,-128,53,127,82,-124
1491088546689,0,-32,-22,-48,69,-54,-90,-105,96
1491088546689,0,-1,-29,-15,18,-21,-30,-79,14
1491088546690,1,-53,16,34,-18,-110,108,6,-29
1491088546690,1,52,-17,-2,127,54,-122,-1,-7
1491088546691,2,25,31,37,-98,44,111,127,-73
1491088546691,2,-113,-6,-14,-1,40,65,-92,-55
1491088546692,3,52,-30,-52,4,-63,-106,-9,-23
1491088546692,3,-64,-37,-17,42,53,102,50,-9
1491088546726,0,6,16,66,73,-30,-13,-55,50
1491088546726,0,34,-2,-60,-14,-7,-59,47,32
1491088546727,1,-27,-8,-3,-22,-97,38,-92,-8
1491088546727,1,0,-6,7,-6,-38,23,-45,-12
1491088546728,2,34,-8,25,-53,117,65,59,-128
1491088546728,2,-22,16,8,107,66,-103,-114,54
1491088546729,3,23,32,19,-127,-67,65,76,-65
1491088546729,3,-76,-82,-128,57,-128,-96,-69,127
1491088546764,0,-36,23,25,-64,-71,127,58,-128
1491088546764,0,10,-47,-44,-14,-21,-128,51,39
1491088546766,1,64,23,38,53,124,90,75,12
1491088546766,1,-7,8,54,-37,-46,3,-7,-89
1491088546766,2,-30,-9,-78,6,-16,16,-51,61
1491088546766,2,33,-6,-21,-46,-58,-26,-41,-24
1491088546767,3,-52,0,-12,0,-77,-32,22,25
1491088546767,3,8,16,-18,40,59,96,-128,95
1491088546801,0,6,-39,25,127,127,3,86,11
1491088546801,0,42,61,60,-48,14,127,127,-103
1491088546802,1,-32,-1,-15,54,84,-128,-99,9
1491088546802,1,18,-7,-33,-99,-104,-58,125,79
1491088546802,2,-9,-41,-52,-99,-125,18,-128,-93
1491088546802,2,-11,-54,-12,-11,66,93,93,-32
1491088546803,3,17,42,74,39,74,-1,-84,55
1491088546803,3,-28,8,23,-85,34,27,61,10
1491088546839,0,-4,-8,-9,125,41,26,-12,-47
1491088546839,0,66,40,54,19,-17,-125,-72,64
1491088546840,1,-22,-16,-68,-65,-113,65,127,-128
1491088546840,1,-49,-62,-62,62,-112,-84,-128,102
1491088546840,2,-50,13,27,59,100,71,-88,35
1491088546840,2,79,4,-14,25,-3,17,124,-22
1491088546841,3,-61,7,69,74,51,-55,-121,73
1491088546841,3,65,36,32,4,91,-6,60,-89
1491088546876,0,23,4,-49,-77,-128,-49,127,-40
1491088546876,0,-38,-1,19,-96,-2,35,-67,18
1491088546877,1,-20,-57,-86,-102,-96,-120,-105,21
1491088546877,1,-31,41,-5,-83,-93,81,-100,-11
1491088546877,2,55,-36,-15,108,84,63,79,76
1491088546877,2,-9,34,27,-86,31,-45,61,-1
1491088546879,3,12,-7,3,-36,-100,-112,2,7
1491088546879,3,2,-37,-33,-26,-117,126,-52,-120
1491088546913,0,21,70,69,-128,78,-128,-113,55
1491088546913,0,-56,-21,-33,124,-128,28,-43,-39
1491088546915,1,-11,-19,-35,54,119,-56,15,82
1491088546915,1,18,-14,-5,3,46,97,-90,49
1491088546915,2,-3,27,53,-35,-101,85,41,-70
1491088546915,2,-34,-17,-28,110,113,-73,82,62
1491088546916,3,36,27,71,-86,-48,86,66,-18
1491088546916,3,-13,-22,-58,113,29,-76,85,-46
1491088546951,0,-24,-27,-21,-46,-118,-8,-44,82
1491088546951,0,-11,30,86,29,41,116,-12,-128
1491088546952,1,1,-10,-57,38,-3,127,-24,50
1491088546952,1,-3,-10,-26,-64,24,-56,15,127
1491088546952,2,-35,10,18,-40,-89,-34,-20,-67
1491088546952,2,9,-18,-55,42,60,-89,-79,71
1491088546953,3,98,7,16,-21,85,127,127,-43
1491088546953,3,5,50,64,-61,109,83,-34,-31
1491088546988,0,-20,-36,-33,114,-6,-110,-30,54
1491088546988,0,-51,2,11,-69,-67,27,-59,0
1491088546990,1,-35,-8,-17,-56,-52,9,-9,-50
1491088546990,1,3,-18,-1,66,-24,62,17,-22
1491088546990,2,13,17,-11,2,-1,-40,-42,36
1491088546990,2,-20,7,17,-20,-37,1,-36,-26
1491088546991,3,-15,-23,-34,-56,-34,-26,23,4
1491088546991,3,24,1,-2,-38,26,20,58,-57
1491088547026,0,-10,-3,2,54,62,-5,-37,47
1491088547026,0,-17,-10,-11,-38,95,-1,23,-101
1491088547063,1,-28,-20,50,35,123,55,23,-56
1491088547063,1,58,27,2,11,116,-19,-8,17
1491088547064,2,26,-7,-15,13,47,62,75,20
1491088547064,2,-22,-13,-46,-37,-13,-89,-32,79
1491088547065,3,-22,-18,14,51,-10,113,-23,-2
1491088547065,3,-31,-8,-33,-44,-35,-63,-44,22
1491088547066,0,-14,-10,30,-4,25,35,44,-88
1491088547066,0,73,0,-1,11,-31,57,49,39
1491088547101,1,-16,24,5,13,-15,-86,-1,-6
1491088547101,1,2,-1,-15,11,-48,-55,-1,-16
1491088547102,2,-11,-27,44,24,-7,-55,-61,14
1491088547102,2,-29,0,-64,-32,-10,2,13,-45
1491088547103,3,25,-24,-6,40,0,-38,-34,32
1491088547103,3,-8,-16,30,-4,-7,10,19,-13
1491088547104,0,33,43,-14,6,28,24,-10,2
1491088547104,0,2,-25,14,16,1,33,-2,-2
1491088547138,1,-38,-39,-52,6,-6,-27,-65,27
1491088547138,1,5,34,12,6,-41,-39,-22,3
1491088547139,2,6,2,-13,-5,8,-19,-55,-12
1491088547139,2,-32,-15,-11,-11,-14,27,-17,3
1491088547140,3,-39,-30,-6,-15,-36,-60,-122,-50
1491088547140,3,82,25,2,-7,23,83,127,-41
1491088547141,0,-4,6,-12,-10,-7,14,-26,16
1491088547141,0,20,14,-20,-12,-24,5,-65,-4
1491088547176,1,-23,26,14,12,-8,-18,-44,15
1491088547176,1,-50,-35,-66,-13,-37,-64,-80,-10
1491088547177,2,26,19,11,-14,-11,-19,7,19
1491088547177,2,5,17,32,18,35,59,89,-31
1491088547177,3,23,40,6,-38,-42,12,104,2
1491088547177,3,-2,-30,-42,-18,-73,-53,21,0
1491088547178,0,2,13,26,9,-4,-24,17,60
1491088547178,0,-1,-24,6,-25,-35,-31,22,-9
1491088547213,1,30,8,2,33,35,1,74,-40
1491088547213,1,-10,19,51,5,26,13,39,8
1491088547215,2,-8,-13,-15,74,57,47,65,-17
1491088547215,2,-5,26,-51,-42,-6,20,4,-59
1491088547215,3,-3,-53,44,-14,-49,-35,4,45
1491088547215,3,-14,-39,23,-5,4,18,13,-10
1491088547216,0,-24,16,24,46,40,-11,24,8
1491088547216,0,12,71,19,41,16,38,-45,-1
1491088547251,1,21,15,-13,10,10,30,89,-1
1491088547251,1,-12,-8,20,20,20,-51,12,16
1491088547252,2,-10,-8,-13,9,-56,2,0,-30
1491088547252,2,-3,-37,1,-19,-38,-14,-24,17
1491088547252,3,0,40,-11,11,-5,-14,-17,-3
1491088547252,3,-11,3,27,-57,30,37,2,-21
1491088547254,0,7,-8,-13,-4,5,32,16,-3
1491088547254,0,-8,-9,6,6,-41,-69,-33,41
1491088547288,1,1,4,11,6,19,-5,-38,-13
1491088547288,1,-6,-15,27,76,-17,-11,-9,-16
1491088547290,2,9,42,10,-48,109,30,13,-63
1491088547290,2,16,-37,8,6,-121,-25,-3,42
1491088547290,3,0,12,-9,-11,34,-1,-7,20
1491088547290,3,0,2,23,42,88,22,-17,27
1491088547291,0,-13,-64,-8,-47,-69,-39,-10,8
1491088547291,0,-41,-24,10,14,14,23,8,-42
1491088547326,1,24,54,-10,20,47,8,-16,-6
1491088547326,1,18,-3,-13,-28,-36,-6,-4,41
1491088547327,2,15,5,-15,12,-11,-8,-16,4
1491088547327,2,6,-22,-10,-7,113,34,47,34
1491088547328,3,-20,-22,-25,-32,-94,16,40,-14
1491088547328,3,-26,-7,-10,33,74,85,-32,-33
1491088547329,0,0,-25,-16,11,-115,-114,-116,80
1491088547329,0,-10,-10,4,-4,-28,65,29,-108
1491088547363,1,12,10,-10,-15,3,38,22,-45
1491088547363,1,-28,-75,-4,13,-6,9,101,31
1491088547364,2,71,81,16,0,42,24,-32,5
1491088547364,2,-6,-25,21,7,66,-5,-18,36
1491088547365,3,-31,-29,-18,9,-18,-23,-40,23
1491088547365,3,44,27,4,-27,-50,-52,-26,-1
1491088547366,0,-18,-19,-6,-43,36,18,37,-29
1491088547366,0,-8,-6,-9,-8,-44,-32,-29,-12
1491088547401,1,6,-59,-2,-29,36,9,14,14
1491088547401,1,-31,14,15,73,100,2,11,-48
1491088547402,2,-10,4,-20,-85,-108,-6,57,9
1491088547402,2,25,86,17,-11,-5,-28,-77,117
1491088547402,3,27,71,18,15,26,-11,-30,55
1491088547402,3,-6,-45,-12,11,2,15,24,-79
1491088547403,0,-14,-28,20,16,96,109,35,-74
1491088547403,0,-17,-51,-33,-10,-73,46,-57,-44
1491088547438,1,-27,-44,-1,15,2,32,88,-37
1491088547438,1,36,108,47,-33,-21,-14,-111,39
1491088547439,2,0,-62,-44,-51,55,33,8,-55
1491088547439,2,1,25,50,66,-23,3,32,33
1491088547440,3,19,92,-16,-40,108,81,1,-28
1491088547440,3,-53,-58,-41,16,-128,-82,-15,19
1491088547476,0,-19,-111,-84,-38,-4,38,-108,54
1491088547476,0,17,63,2,21,96,44,62,4
1491088547477,1,18,15,29,-34,1,10,16,6
1491088547477,1,-3,19,33,44,93,23,105,-7
1491088547477,2,9,7,14,77,24,-19,62,-17
1491088547477,2,-37,-37,57,-2,-38,-47,28,-50
1491088547478,3,-5,0,-44,-40,-37,-31,-22,49
1491088547478,3,22,48,11,-66,81,60,19,5
1491088547513,0,1,66,-13,109,-112,73,27,-39
1491088547513,0,13,17,22,41,111,-57,42,26
1491088547514,1,-40,-45,27,100,-128,-110,-83,88
1491088547514,1,-16,-66,-76,-19,-23,-9,17,54
1491088547515,2,6,-19,73,-8,117,109,48,-8
1491088547515,2,8,38,4,-38,90,62,-14,-37
1491088547516,3,7,-5,55,78,49,16,-8,-57
1491088547516,3,-5,21,-98,-67,-47,-52,-11,73
1491088547551,0,-1,34,24,30,40,-35,-80,18
1491088547551,0,3,-48,-49,45,-57,51,21,-68
1491088547552,1,2,28,67,-1,-69,111,9,-40
1491088547552,1,8,21,36,-49,-128,9,-86,-128
1491088547553,2,-35,-76,-92,-105,-115,-43,16,89
1491088547553,2,-36,-80,-73,-72,-58,-92,-121,127
1491088547559,3,13,27,49,33,105,111,45,-65
1491088547559,3,-10,-39,-23,29,28,-89,11,24
1491088547588,0,28,101,127,114,121,96,17,-55
1491088547588,0,5,-13,-13,-40,-99,46,49,-44
1491088547590,1,-21,-51,-94,-111,-66,-52,-25,-1
1491088547590,1,6,9,-56,-17,-74,-45,-64,24
1491088547590,2,14,4,88,85,105,19,82,-49
1491088547590,2,6,8,-84,-38,-55,95,68,42
1491088547591,3,-13,-21,-44,127,33,-107,-2,69
1491088547591,3,-31,-17,-6,-84,-71,64,-54,53
1491088547626,0,5,-4,-27,-47,-16,-5,7,-61
1491088547626,0,5,62,97,77,121,-82,61,-3
1491088547627,1,18,-15,25,-81,50,84,67,-126
1491088547627,1,-3,-3,-42,-17,-12,46,92,13
1491088547628,2,-32,-11,-55,-39,-128,-128,-128,120
1491088547628,2,24,13,41,-19,-12,110,127,-22
1491088547628,3,24,43,-56,-93,-109,-21,92,-22
1491088547628,3,-3,-24,-1,1,108,16,-72,41
1491088547663,0,-19,-18,-28,-24,-44,94,-62,-80
1491088547663,0,4,0,-14,82,40,-103,41,29
1491088547664,1,2,-40,0,127,103,50,-128,-44
1491088547664,1,40,102,55,-59,-21,41,100,38
1491088547665,2,-15,-10,-17,24,-92,-54,-33,93
1491088547665,2,2,22,72,-75,65,-58,-62,-128
1491088547666,3,-15,-13,-16,-34,-86,72,-67,125
1491088547666,3,-9,-50,51,22,29,-24,98,-8
1491088547701,0,10,64,75,-32,76,36,70,98
1491088547701,0,-16,44,52,12,-17,-40,-128,12
1491088547702,1,12,-11,57,123,127,75,-20,-71
1491088547702,1,4,7,35,25,3,-95,-42,-47
1491088547703,2,-7,-40,-25,39,57,87,53,-43
1491088547703,2,-27,-14,-87,8,-84,-20,-90,119
1491088547739,3,-5,3,-49,-128,-52,61,18,-78
1491088547739,3,22,25,7,60,-15,127,32,-46
1491088547740,0,-18,-17,-88,-53,60,-81,47,59
1491088547740,0,1,-29,-6,0,17,-33,-63,-80
1491088547740,1,-34,-25,-40,-12,-21,7,48,127
1491088547740,1,-7,-16,33,1,-48,127,0,-110
1491088547741,2,74,46,49,-2,45,83,67,-102
1491088547741,2,-13,-36,-55,-9,-6,-7,-87,24
1491088547776,3,-6,35,77,-38,40,-33,46,-2
1491088547776,3,-15,2,1,85,18,-87,4,55
1491088547777,0,-31,-30,-43,25,15,91,-75,-20
1491088547777,0,-2,-48,-101,-74,-114,-92,40,-89
1491088547813,1,-14,-2,-5,-60,-58,72,27,-5
1491088547813,1,19,40,61,12,32,9,45,66
1491088547814,2,-16,29,8,85,-15,-128,-49,-28
1491088547814,2,-6,-22,4,50,121,127,74,-16
1491088547817,3,26,19,25,48,87,54,60,-59
1491088547817,3,9,-31,-49,-3,-36,17,-4,-34
1491088547817,0,7,32,25,49,-7,-24,-118,57
1491088547817,0,6,40,12,-44,-33,127,75,-24
1491088547851,1,-49,-110,-128,78,-71,-128,-24,7
1491088547851,1,-16,36,49,-54,10,-14,-98,52
1491088547852,2,20,-11,3,-22,-31,47,15,-52
1491088547852,2,14,24,34,28,123,60,42,28
1491088547853,3,6,14,20,-107,-62,88,7,31
1491088547853,3,-7,-8,9,-29,8,-94,-106,-63
1491088547854,0,-52,5,10,-22,-76,-77,-46,79
1491088547854,0,37,17,54,64,55,30,39,-76
1491088547888,1,-33,-34,-38,-23,-91,48,8,-49
1491088547888,1,-19,-30,-48,43,56,-43,113,94
1491088547889,2,30,24,9,-107,60,90,-8,-55
1491088547889,2,-3,-8,-8,-95,-128,87,43,-41
1491088547890,3,-4,24,-3,-6,-15,-122,-128,111
1491088547890,3,-30,-10,30,-7,42,127,78,-8
1491088547891,0,37,7,24,-6,-4,77,34,-28
1491088547891,0,7,5,-32,40,-5,-66,-103,67
1491088547926,1,40,12,33,-81,-61,60,85,-48
1491088547926,1,-11,-39,-24,96,73,-63,-115,-46
1491088547927,2,-56,8,12,-53,-63,-87,-8,-49
1491088547927,2,-57,-60,-22,-22,-54,102,79,19
1491088547927,3,83,41,60,-81,9,35,-7,12
1491088547927,3,87,-1,-45,51,50,90,15,-6
1491088547928,0,-27,16,38,96,39,20,-14,-128
1491088547928,0,13,-15,-38,12,-76,-128,-128,104
1491088547963,1,-84,-38,-38,80,-7,10,-48,25
1491088547963,1,39,14,102,-41,-84,127,110,-117
1491088547964,2,-24,13,-108,127,127,-112,-14,45
1491088547964,2,-20,-28,-1,-99,-73,38,7,6
1491088547965,3,54,-4,19,-15,12,35,-9,-72
1491088547965,3,32,87,37,-16,13,82,30,-32
1491088547966,0,12,-15,31,-100,45,97,41,-77
1491088547966,0,-64,-21,-25,8,83,-122,52,52
1491088548001,1,44,30,28,71,65,-111,-34,101
1491088548001,1,-41,-30,-43,-2,-24,87,-22,-74
1491088548002,2,-15,-49,-31,-128,-128,-83,-41,53
1491088548002,2,17,26,23,127,127,127,3,-20
1491088548002,3,38,0,9,-78,-99,-128,-54,-112
1491088548002,3,12,-7,-60,85,70,-128,-19,92
1491088548003,0,40,3,1,41,-12,123,-29,74
1491088548003,0,9,1,79,-33,-2,124,57,-56
1491088548038,1,-13,33,-43,-40,35,-125,-128,74
1491088548038,1,-59,1,30,-121,-113,-45,-62,36
1491088548040,2,-36,-43,-46,30,54,-17,67,-69
1491088548040,2,20,-29,-38,-15,-124,-104,-108,109
1491088548040,3,13,11,49,33,80,127,116,-65
1491088548040,3,38,-17,-19,-26,43,77,-27,-70
1491088548041,0,-8,-4,23,48,-71,71,7,-28
1491088548041,0,12,57,29,-67,-18,-34,-128,-41
1491088548076,1,-64,-62,-89,113,-9,-109,-74,97
1491088548076,1,-24,-26,31,-45,-6,91,24,4
1491088548077,2,-67,-57,-52,-56,-30,-21,-12,-43
1491088548077,2,71,40,9,-78,-51,-79,-12,-55
1491088548078,3,36,25,4,2,12,90,-25,16
1491088548078,3,-18,1,-4,91,-31,-23,45,48
1491088548078,0,18,21,39,-54,-3,-76,-74,8
1491088548078,0,-20,8,-5,-9,64,-69,78,5
1491088548113,1,-80,-18,11,8,-31,36,32,-76
1491088548113,1,82,1,-19,-18,98,70,54,-38
1491088548114,2,18,18,-14,31,21,-107,-94,127
1491088548114,2,-23,-6,1,-41,-32,127,48,-82
1491088548115,3,7,-42,-31,69,31,-94,-90,-11
1491088548115,3,-71,-47,-18,-116,-128,71,29,-98
1491088548151,0,5,35,10,89,99,-46,-33,89
1491088548151,0,26,16,9,55,75,127,-44,38
1491088548152,1,-25,-26,5,-101,-90,3,15,-128
1491088548152,1,-19,40,5,-69,105,31,-82,99
1491088548153,2,-46,-49,-54,-48,-126,-72,-31,35
1491088548153,2,31,36,104,70,107,62,96,-92
1491088548154,3,-42,37,-15,81,109,127,53,118
1491088548154,3,4,-60,-53,127,-42,-128,-128,46
1491088548188,0,80,34,23,-102,-31,127,127,-56
1491088548188,0,-56,40,35,-48,-42,86,-128,-78
1491088548190,1,24,-35,-8,91,10,-87,115,-12
1491088548190,1,-10,17,57,-68,32,118,89,-10
1491088548190,2,-1,-22,-11,-2,-30,127,-16,-22
1491088548190,2,-15,-30,6,23,-42,-128,31,52
1491088548191,3,-14,18,-87,-128,-128,-4,-104,33
1491088548191,3,-54,-2,7,127,117,-87,-73,58
1491088548226,0,92,27,11,-95,3,110,127,-128
1491088548226,0,-66,-57,-100,91,3,-85,-57,82
1491088548227,1,-28,-6,55,56,65,105,24,28
1491088548227,1,49,63,-43,-105,-128,-1,47,-85
1491088548227,2,-29,-40,-24,91,50,-77,-60,113
1491088548227,2,-11,-18,10,111,26,112,-48,-27
1491088548228,3,-18,10,-34,-83,-62,-128,-128,-9
1491088548228,3,3,-76,4,95,94,105,83,-42
1491088548264,0,-19,54,36,71,-16,2,-11,-32
1491088548264,0,48,1,-65,-128,10,-71,109,43
1491088548264,1,19,-31,32,33,-35,38,-86,15
1491088548264,1,11,12,-45,-42,-106,-43,-47,-31
1491088548265,2,-97,-80,-27,73,56,-128,-128,116
1491088548265,2,-11,8,29,-13,8,88,57,-91
1491088548301,3,63,100,127,125,127,-50,127,-41
1491088548301,3,-5,33,-27,-123,-90,55,-114,26
1491088548302,0,29,-21,-47,-113,-100,118,66,-81
1491088548302,0,-79,-46,-76,90,58,-126,-117,107
1491088548302,1,33,-47,-18,39,61,106,127,46
1491088548302,1,29,12,62,-36,127,25,72,-44
1491088548303,2,19,63,58,-47,-67,-63,-12,27
1491088548303,2,11,39,20,-33,-25,-13,-59,12
1491088548338,3,-71,-21,-63,-119,-101,67,50,-6
1491088548338,3,-55,-71,-28,65,-82,-118,-128,-26
1491088548339,0,106,70,75,-128,32,127,127,-126
1491088548339,0,-13,-27,-38,79,42,-107,-14,19
1491088548340,1,-52,13,5,-62,-28,-36,-128,93
1491088548340,1,-29,-14,6,68,22,45,100,14
1491088548341,2,-33,2,62,-77,52,127,81,-103
1491088548341,2,12,7,-65,85,-78,-33,-66,67
1491088548376,3,57,23,-9,-85,-68,-54,53,-128
1491088548376,3,-46,-58,-60,69,60,-36,-127,127
1491088548377,0,-18,6,-17,44,-81,6,-128,24
1491088548377,0,24,-8,93,-94,127,-20,127,-78
1491088548377,1,86,15,12,-61,35,127,66,-52
1491088548377,1,69,98,91,91,7,-4,2,9
1491088548378,2,-28,-1,-71,-19,-9,-79,-97,75
1491088548378,2,-37,-62,-72,3,-56,83,48,-43
1491088548413,3,-20,-29,-38,-68,-125,-82,-51,-36
1491088548413,3,-6,-35,21,104,55,85,-78,18
1491088548415,0,2,41,0,-8,-26,-128,52,55
1491088548415,0,31,-58,-53,-93,-75,127,47,-14
1491088548415,1,-30,13,50,127,73,113,-31,-20
1491088548415,1,-36,30,-49,-76,-42,-115,-71,98
1491088548451,2,1,-55,57,-50,37,87,78,-85
1491088548451,2,-4,28,4,49,-111,43,-54,-68
1491088548452,3,5,-20,-1,127,125,-56,-90,127
1491088548452,3,-47,44,88,-121,21,62,4,-56
1491088548452,0,50,27,-68,127,127,-73,26,-22
1491088548452,0,2,-11,20,-34,-72,-13,23,114
1491088548453,1,-54,-18,-56,-10,-16,-25,-123,-93
1491088548453,1,-12,-30,-37,-9,51,34,2,-2
1491088548488,2,-1,-12,17,-63,54,75,95,-9
1491088548488,2,32,30,49,67,42,57,-62,-41
1491088548489,3,-45,15,42,-73,-128,-36,-79,-23
1491088548489,3,53,39,-8,70,61,53,-88,-7
1491088548490,0,1,-64,-69,-64,-46,117,106,73
1491088548490,0,11,18,61,-75,-82,-11,-47,6
1491088548491,1,-9,19,18,112,99,-46,40,25
1491088548491,1,-15,1,16,44,53,-51,-20,-48
1491088548526,2,27,15,31,127,46,79,-47,-54
1491088548526,2,-52,-33,-45,6,-46,-59,-100,54
1491088548527,3,42,36,83,35,48,127,68,-42
1491088548527,3,-18,-19,-87,-80,-100,-117,127,-88
1491088548528,0,19,-23,14,27,-9,-26,-128,109
1491088548528,0,58,61,43,-128,18,73,105,-95
1491088548529,1,-47,-47,-73,127,-83,90,-33,25
1491088548529,1,2,-26,5,-70,24,-19,-45,40
1491088548563,2,-17,7,9,116,20,53,35,-35
1491088548563,2,-30,-12,5,-39,-70,-104,-78,-12
1491088548564,3,37,14,-8,-1,95,16,-85,58
1491088548564,3,21,13,-14,-112,-41,106,112,31
1491088548565,0,-23,15,74,-53,-15,34,52,-101
1491088548565,0,-34,-37,-52,114,3,127,-25,-14
1491088548601,1,4,-19,-20,98,71,-94,-36,90
1491088548601,1,-30,-21,-19,-64,-111,60,57,-105
1491088548602,2,-8,8,27,42,-75,-41,-15,-28
1491088548602,2,-14,-5,17,22,102,127,-26,13
1491088548603,3,25,22,23,-83,-25,80,2,-43
1491088548603,3,-12,5,-42,-14,-98,10,-115,17
1491088548638,0,-3,-11,24,-84,56,-57,-20,13
1491088548638,0,-10,1,-27,99,-9,31,-72,-67
1491088548640,1,6,-19,-38,-128,-34,-124,26,77
1491088548640,1,9,-35,20,127,98,31,-16,23
1491088548641,2,-19,-3,-32,-7,-16,26,7,-11
1491088548641,2,39,62,67,-15,30,-61,-38,-46
1491088548642,3,-50,-41,-2,-38,4,55,44,-8
1491088548642,3,28,38,1,-41,-81,105,55,32
1491088548676,0,3,-13,18,78,56,-44,-85,26
1491088548676,0,28,-1,-34,5,31,22,127,-39
1491088548677,1,-12,-7,-11,5,-42,106,-33,28
1491088548677,1,7,-15,1,38,66,-128,-93,23
1491088548678,2,-7,-6,-27,-49,-125,87,-20,-4
1491088548678,2,20,20,-12,81,121,-57,93,54
1491088548679,3,-11,-29,-22,-24,-58,-17,-37,25
1491088548679,3,-3,3,0,-29,-26,0,-30,10
1491088548713,0,15,36,47,-52,22,77,59,-44
1491088548713,0,-9,-43,-65,-56,-44,-74,-42,15
1491088548714,1,22,31,6,14,46,-114,-26,-5
1491088548714,1,14,12,69,97,-27,86,92,-57
1491088548715,2,-29,-14,-53,4,-14,-108,-69,23
1491088548715,2,8,2,33,38,-33,44,-65,41
1491088548716,3,22,-2,-60,-64,-9,60,105,-67
1491088548716,3,-44,-38,-11,127,-7,127,-14,36
1491088548751,0,20,-4,-28,-53,9,-104,-33,-83
1491088548751,0,17,15,-32,-16,46,-11,-42,127
1491088548752,1,-12,-13,44,45,127,127,-56,-5
1491088548752,1,36,51,7,-89,108,56,57,-76
1491088548752,2,-45,-30,-42,53,82,-10,-59,52
1491088548752,2,-18,-3,13,-7,86,7,44,14
1491088548753,3,24,13,-21,-79,-85,-52,38,-45
1491088548753,3,1,-29,-24,6,-84,-128,-50,60
1491088548788,0,-6,22,48,61,-17,31,20,-17
1491088548788,0,7,3,26,-60,16,-5,-7,-61
1491088548790,1,4,30,58,127,9,7,50,-7
1491088548790,1,11,2,-79,-97,-105,39,25,-108
1491088548791,2,-59,-85,-101,-30,-119,-96,-128,127
1491088548791,2,-3,8,71,-30,-77,127,108,-71
1491088548792,3,15,11,-15,97,-13,43,87,17
1491088548792,3,-14,-34,-12,-83,-59,-106,-93,32
1491088548826,0,-13,21,52,82,68,13,28,-6
1491088548826,0,11,3,-55,-67,-12,-30,-64,78
1491088548827,1,-6,-9,58,-24,13,71,28,-128
1491088548827,1,40,57,51,-50,-15,10,58,-53
1491088548827,2,-37,-46,-97,20,-38,-60,-91,84
1491088548827,2,-41,-11,6,46,8,-104,-58,-8
1491088548828,3,18,33,70,65,57,58,-82,5
1491088548828,3,-9,-4,-74,-89,-32,-8,-69,63
1491088548901,0,20,-7,42,15,89,89,80,-103
1491088548901,0,-4,-6,-50,89,-128,-95,-42,61
1491088548902,1,1,-40,-7,-31,3,-19,-81,51
1491088548902,1,-13,5,20,80,127,-11,-38,-28
1491088549014,2,28,43,76,90,56,50,-48,-15
1491088549014,2,-2,5,-2,-35,20,23,-10,-56
1491088549015,3,-25,20,58,45,-12,40,31,-27
1491088549015,3,-18,-55,-64,-46,-4,-79,33,91
1491088549017,0,-9,9,-43,-83,-67,48,69,-35
1491088549017,0,1,1,79,31,20,107,97,-76
1491088549018,1,-11,-23,-48,-107,-64,-113,22,34
1491088549018,1,-27,5,67,125,94,47,23,6
1491088549051,2,16,6,-94,-9,-128,-32,126,21
1491088549051,2,-32,-39,-21,5,-2,-40,18,21
1491088549053,3,-12,29,-3,-2,78,59,13,-17
1491088549053,3,-11,-2,37,17,2,-31,-18,-34
1491088549054,0,-2,33,40,-8,42,53,9,-21
1491088549054,0,11,-18,28,-15,1,-5,18,-21
1491088549055,2,24,28,62,6,105,41,-41,-26
1491088549055,2,-2,-10,34,-100,-32,127,87,-93
1491088549090,3,-14,-49,-84,-27,-104,-104,-91,64
1491088549090,3,9,-12,-26,34,4,65,-11,0
1491088549092,0,-23,-16,-30,-34,-73,-45,-42,39
1491088549092,0,1,12,24,26,127,127,2,-55
1491088549093,2,41,-1,1,24,-22,-35,63,21
1491088549093,2,17,-6,-21,-61,-52,63,17,-7
1491088549094,3,7,-5,-60,-78,-96,49,-50,-8
1491088549094,3,19,-25,4,77,-77,3,-35,66
1491088549126,0,46,15,9,-19,48,77,6,-31
1491088549126,0,14,4,-19,56,-18,-85,-43,4
1491088549128,1,-46,-18,-40,-60,-52,3,5,0
1491088549128,1,45,20,17,-93,-53,-64,115,11
1491088549131,2,-29,-16,21,76,-30,-22,-93,-14
1491088549131,2,-21,1,17,6,66,-1,-8,6
1491088549133,3,-5,29,-6,-39,96,8,24,-30
1491088549133,3,-41,-19,-49,-66,-93,-17,-40,5
1491088549164,0,-15,-16,-27,-63,58,43,49,31
1491088549164,0,-22,3,58,40,-105,-40,-8,-30
1491088549165,1,-18,-2,-43,-32,-79,-101,-60,-38
1491088549165,1,-23,-32,28,65,67,98,58,-13
1491088549166,2,-9,41,-16,-117,-96,43,-58,-56
1491088549166,2,-23,-48,-88,57,-75,-21,-108,111
1491088549167,3,7,-10,63,37,62,68,44,-69
1491088549167,3,8,-17,6,52,89,81,64,-25
1491088549201,0,-11,9,-37,-41,-50,-95,-71,46
1491088549201,0,42,14,27,-27,16,98,73,-6
1491088549203,1,-2,-2,14,11,50,74,5,-13
1491088549203,1,-12,-1,36,37,61,127,42,-35
1491088549206,2,-14,1,111,105,127,-18,78,-46
1491088549206,2,-33,-23,-125,-95,-128,-81,-85,100
1491088549208,3,27,0,41,76,82,34,-25,32
1491088549208,3,-2,17,-51,-39,81,64,9,21
1491088549239,0,-11,8,-10,-40,-9,-58,-40,-31
1491088549239,0,-26,-28,-36,33,-65,-1,22,64
1491088549240,1,8,-18,48,42,89,41,35,-47
1491088549240,1,-23,9,5,-35,-48,-16,58,-16
1491088549241,2,-16,6,-42,-14,14,47,-61,-8
1491088549241,2,11,28,98,84,127,80,16,-74
1491088549242,3,-74,-13,-40,-39,-128,-27,117,-21
1491088549242,3,-3,-18,-3,85,-46,-117,-114,105
1491088549276,0,47,7,34,-103,50,116,127,-74
1491088549276,0,53,-8,-89,-62,-71,-122,-110,22
1491088549277,1,42,22,23,40,46,65,39,36
1491088549277,1,2,36,67,-44,77,65,67,-58
1491088549278,2,-14,-69,-109,111,-111,-30,58,2
1491088549278,2,12,17,24,-8,21,-68,-38,79
1491088549278,3,23,17,30,-15,1,96,48,30
1491088549278,3,17,-4,19,-25,51,16,-34,-3
1491088549313,0,-27,9,41,51,127,118,69,-28
1491088549313,0,63,57,83,-36,103,-34,-2,-101
1491088549314,1,-49,-42,-125,-23,-121,-64,15,11
1491088549314,1,17,-51,-67,-92,-35,-63,-110,12
1491088549315,2,15,16,62,48,78,93,76,-7
1491088549315,2,13,-23,-40,-93,-91,-4,72,-15
1491088549316,3,-26,-11,4,32,49,-113,-100,-28
1491088549316,3,-7,-16,-34,125,2,27,-69,62
1491088549351,0,-5,5,-50,-58,-119,-11,-128,8
1491088549351,0,13,35,107,56,123,5,-16,1
1491088549352,1,3,43,39,-80,-23,-35,20,-44
1491088549352,1,-18,-53,-122,-81,-128,23,48,38
1491088549352,2,-46,-31,9,-58,-32,-106,-83,-67
1491088549352,2,10,13,21,20,32,127,122,-22
1491088549353,3,-36,-8,2,34,36,-60,-44,-3
1491088549353,3,79,29,64,-20,36,5,49,37
1491088549390,0,-16,-12,-36,-17,-27,18,32,13
1491088549390,0,-26,-37,-12,123,127,68,24,-10
1491088549390,1,4,3,87,61,75,127,25,-2
1491088549390,1,-90,6,-79,79,-34,-128,-87,0
1491088549391,2,41,-20,-12,13,-63,-40,33,124
1491088549391,2,-58,21,42,37,43,-80,64,-106
1491088549392,3,26,-15,10,6,-22,84,12,64
1491088549392,3,-67,6,43,-99,-5,42,28,-87
1491088549426,0,22,38,-28,-71,-100,12,-112,49
1491088549426,0,-16,-24,-39,19,15,46,-34,102
1491088549427,1,-17,10,14,-8,31,88,115,-35
1491088549427,1,17,22,32,-71,47,-49,27,-5
1491088549428,2,-2,-8,-41,56,69,-41,24,-46
1491088549428,2,21,-33,-36,-96,-128,71,-15,21
1491088549463,3,28,39,42,71,120,-28,-2,-36
1491088549463,3,-40,-21,-5,8,-97,-10,-25,24
1491088549465,0,42,-37,-13,73,3,-28,-5,75
1491088549465,0,-65,-9,-35,-9,37,-41,-77,7
1491088549465,1,-68,-15,-3,-53,-22,-19,39,-33
1491088549465,1,127,30,21,63,74,127,127,-111
1491088549466,2,-53,-18,-11,-80,-12,-104,-65,61
1491088549466,2,9,-18,-11,-63,-50,127,23,-40
1491088549501,3,28,2,-86,-18,-78,-128,-3,76
1491088549501,3,-54,-5,35,-30,-76,111,-98,-6
1491088549502,0,38,20,28,83,124,127,112,-74
1491088549502,0,2,15,8,72,44,62,-78,-23
1491088549502,1,-13,-13,6,-111,-35,33,34,1
1491088549502,1,-21,-27,-61,127,-22,-87,-44,31
1491088549503,2,3,17,70,79,-18,43,13,1
1491088549503,2,-32,18,3,-128,-60,24,48,-113
1491088549538,3,35,15,-29,127,-34,-61,-47,54
1491088549538,3,22,-4,3,43,24,-42,-80,75
1491088549540,0,-87,0,38,-79,-26,123,-58,-119
1491088549540,0,50,5,-4,77,3,-128,103,43
1491088549540,1,40,-6,11,12,111,127,36,0
1491088549540,1,28,21,15,-96,-80,-17,-57,-27
1491088549541,2,-51,5,-6,-61,99,78,61,108
1491088549541,2,-11,-13,-3,75,96,-2,-77,-40
1491088549576,3,5,29,-32,-15,-111,-40,-39,-30
1491088549576,3,37,-22,-7,-75,-52,38,127,-30
1491088549577,0,-2,5,14,-93,-11,97,3,-65
1491088549577,0,-10,38,-1,116,-46,2,-29,62
1491088549578,1,-60,-50,-9,76,39,-30,-128,81
1491088549578,1,16,42,66,12,33,60,-80,-91
1491088549613,2,-44,-14,-41,3,-127,-70,63,-37
1491088549613,2,56,8,17,-66,28,79,-12,-7
1491088549614,3,-52,-1,-16,-50,-20,3,1,-26
1491088549614,3,9,-12,-15,55,-76,-113,31,-7
1491088549615,0,15,-86,-73,-5,58,-128,100,21
1491088549615,0,-19,35,-8,-62,-16,97,-69,57
1491088549616,1,-60,-50,1,101,30,87,-79,54
1491088549616,1,-2,31,43,30,51,-86,8,-8
1491088549651,2,52,35,6,-9,12,127,38,-7
1491088549651,2,37,-39,-42,-82,-114,4,38,-78
1491088549651,3,9,67,75,2,5,83,-128,85
1491088549651,3,-27,-12,-39,-117,-44,24,113,-76
1491088549652,0,-2,-24,-54,126,2,-54,-42,-12
1491088549652,0,-30,36,26,14,-17,-96,-67,103
1491088549653,1,105,-11,1,-91,28,34,127,-98
1491088549653,1,-27,-39,-38,127,-2,-48,-61,65
1491088549688,2,31,82,69,-82,-19,52,40,2
1491088549688,2,-56,-38,-37,67,29,18,107,43
1491088549690,3,52,-20,-27,-18,-24,-1,-39,3
1491088549690,3,-54,52,80,8,101,65,-128,27
1491088549690,0,86,16,-2,-80,-16,-93,-14,-79
1491088549690,0,-4,-33,-44,-18,-88,127,76,-13
1491088549691,1,-17,-17,2,-2,81,-128,-42,65
1491088549691,1,66,43,38,-51,6,127,58,-68
1491088549726,2,-59,-9,1,11,-14,87,-126,6
1491088549726,2,-55,-25,28,-20,58,-67,-60,-89
1491088549727,3,-12,20,-40,-93,-101,-42,114,-50
1491088549727,3,-43,-47,-24,78,-14,50,-61,32
1491088549728,0,5,-17,-27,28,20,4,-66,53
1491088549728,0,0,67,91,46,61,-10,-11,-36
1491088549763,1,-18,-22,-79,4,-45,-49,-116,-51
1491088549763,1,53,-56,-20,-7,0,-3,27,-59
1491088549764,2,28,44,28,-29,-66,-122,-12,-118
1491088549764,2,-37,-28,-1,-11,56,62,-26,-93
1491088549765,3,-7,12,11,123,36,-12,14,-71
1491088549765,3,20,26,-9,-40,-79,-83,-13,81
1491088549766,0,-43,-93,-47,-24,-27,80,69,98
1491088549766,0,34,17,1,0,2,-128,-97,69
1491088549801,1,39,44,65,-75,68,127,34,79
1491088549801,1,-52,-52,-85,16,-50,-79,81,108
1491088549802,2,16,-3,26,36,33,68,38,125
1491088549802,2,-10,-17,-2,9,-20,-22,-41,114
1491088549802,3,-35,35,29,-58,44,40,-70,63
1491088549802,3,53,25,9,90,92,-75,-48,88
1491088549803,0,-18,-15,-44,-93,-26,-33,-57,43
1491088549803,0,-72,-51,-25,37,-75,1,52,51
1491088549838,1,74,-8,24,-12,14,-71,87,-49
1491088549838,1,-48,15,10,70,67,-7,-33,15
1491088549840,2,-63,1,14,27,-39,4,62,-15
1491088549840,2,35,-1,1,-46,10,-3,20,15
1491088549841,3,-118,-21,12,-47,-16,127,-108,-44
1491088549841,3,87,27,15,-117,-30,-32,109,-17
1491088549876,0,-28,-9,-21,82,43,-128,-39,-12
1491088549876,0,33,38,5,28,-55,71,-104,5
1491088549877,1,-42,-16,-14,-106,-84,-91,122,0
1491088549877,1,-34,-33,-38,115,60,10,-25,-25
1491088549878,2,44,39,91,-16,43,71,-34,36
1491088549878,2,41,-2,-61,-60,-18,64,127,-46
1491088549879,3,-31,-28,-11,57,22,72,-111,21
1491088549879,3,44,42,40,-108,-67,115,-40,-11
1491088549913,0,-38,-53,-89,-28,-99,-128,-71,23
1491088549913,0,44,-27,13,11,56,7,-92,-7
1491088549914,1,59,-5,32,-54,37,57,100,-14
1491088549914,1,-49,15,-76,97,-12,-96,-91,17
1491088549915,2,-29,5,60,-28,127,116,118,-49
1491088549915,2,16,49,-3,-115,-125,-81,-59,-15
1491088549916,3,95,7,-30,40,-24,-25,-112,16
1491088549916,3,-49,-3,43,-126,-3,127,77,-40
1491088549951,0,-29,-22,-59,83,1,22,-128,-21
1491088549951,0,-38,-14,-4,127,127,-121,24,29
1491088549988,1,-7,20,81,127,97,46,51,7
1491088549988,1,-67,-16,-42,-125,-87,26,-99,-45
1491088549989,2,31,36,79,-40,-46,-61,-47,-50
1491088549989,2,-74,-21,-26,-128,-107,-126,127,26
1491088549990,3,38,-69,-110,58,-60,83,-65,-49
1491088549990,3,-5,37,27,72,81,-117,-76,85
1491088549991,0,-29,-32,12,-125,10,121,110,-33
1491088549991,0,51,38,48,-45,-51,99,-104,-46
1491088550026,1,-12,46,37,-11,-17,-38,36,15
1491088550026,1,-33,-57,-56,-101,-63,38,-31,-51
1491088550027,2,-17,-19,-20,127,94,39,89,8
1491088550027,2,73,30,32,-85,71,-62,-117,37
1491088550028,3,-74,-52,-47,54,48,92,42,-44
1491088550028,3,92,45,112,-91,-15,94,94,-26
1491088550028,0,-30,-31,-94,-86,-104,-15,-110,55
1491088550028,0,-30,-59,5,58,69,-14,-28,-1
1491088550063,1,-41,24,40,-128,-128,14,46,21
1491088550063,1,8,-10,14,127,127,14,13,33
1491088550064,2,112,28,15,-104,73,-62,-57,17
1491088550064,2,13,13,-42,45,-37,116,113,-3
1491088550101,3,-13,-21,-4,-74,-87,-128,-97,0
1491088550101,3,-72,-11,25,88,12,42,58,-32
1491088550102,0,5,14,-41,-92,-31,-74,-40,12
1491088550102,0,16,-26,-28,24,-23,-39,-92,-55
1491088550102,1,35,40,40,51,110,93,97,42
1491088550102,1,-24,-42,-50,79,-5,43,9,1
1491088550103,2,20,8,12,-56,-79,-114,-49,-5
1491088550103,2,-21,-21,-9,95,9,-42,-56,17
1491088550138,3,-25,36,44,113,21,114,46,-74
1491088550138,3,59,42,-10,-128,115,-42,101,84
1491088550139,0,-13,-34,-33,127,19,-19,-7,-33
1491088550139,0,-66,9,-23,-61,-94,94,-44,-24
1491088550140,1,46,-23,-31,-78,-128,-86,65,20
1491088550140,1,75,13,58,2,110,79,-45,13
1491088550141,3,-23,-22,41,127,76,63,-35,10
1491088550141,3,47,3,-60,-128,-128,-33,62,16
1491088550176,0,15,-6,-26,32,-42,29,8,15
1491088550176,0,35,-2,101,-61,95,38,63,-35
1491088550177,1,-38,41,-36,49,66,-116,-128,26
1491088550177,1,21,-46,3,107,113,-9,33,-30
1491088550177,2,-10,37,70,-54,-67,92,100,-21
1491088550177,2,31,-14,-62,-45,-63,-47,-3,2
1491088550178,3,24,5,62,2,8,64,91,-19
1491088550178,3,-107,-51,-116,-63,-66,-124,-127,-22
1491088550213,0,31,-27,2,-5,61,70,-99,13
1491088550213,0,-35,71,110,-115,-55,99,127,-4
1491088550214,1,41,-6,-46,65,93,14,2,6
1491088550214,1,-30,16,68,88,-51,47,-14,-12
1491088550251,2,-26,34,-31,-55,102,-62,-108,-8
1491088550251,2,-99,-64,-57,127,-21,-85,-107,7
1491088550252,3,92,-4,-36,-128,-60,29,54,6
1491088550252,3,-80,-62,-78,-41,-113,-100,-24,-20
1491088550252,0,46,103,103,-106,-6,7,-118,-2
1491088550252,0,74,20,12,-12,-21,118,127,21
1491088550253,1,-15,21,54,57,64,-119,-119,30
1491088550253,1,-11,-60,-68,-63,35,76,65,-31
1491088550288,2,-63,-33,-20,6,-82,-48,-73,-10
1491088550288,2,16,22,16,-9,48,95,44,2
1491088550289,3,8,33,87,13,-6,101,33,-26
1491088550289,3,15,52,4,28,69,-108,44,-6
1491088550290,0,-36,8,20,13,4,-92,-36,-15
1491088550290,0,8,-36,-81,127,123,101,96,22
1491088550291,2,29,-13,-35,3,15,127,127,-5
1491088550291,2,7,6,6,-100,-57,-99,-101,-7
1491088550326,3,3,9,-16,-43,1,-31,35,15
1491088550326,3,18,-2,-11,-9,-67,70,-63,15
1491088550327,0,-8,73,24,99,21,-82,-82,28
1491088550327,0,-116,-69,25,69,96,82,122,-42
1491088550327,1,72,28,-5,-105,-104,54,54,-3
1491088550327,1,-89,-27,-14,10,18,-101,-124,-1
1491088550330,2,38,8,53,-124,12,127,98,8
1491088550330,2,-23,41,38,32,8,-128,-128,-5
1491088550363,3,-75,-57,-96,59,118,97,30,-41
1491088550363,3,14,19,58,-67,-111,-81,-35,37
1491088550365,0,17,-43,-94,-68,-73,-16,53,-27
1491088550365,0,23,37,57,40,33,102,-80,-29
1491088550401,1,-35,-17,-14,-40,-49,-128,-42,24
1491088550401,1,32,11,29,-10,-2,127,71,-19
1491088550402,2,-34,-52,-37,82,56,-4,-128,-24
1491088550402,2,74,27,17,-44,-49,-30,123,58
1491088550402,3,-22,30,40,-78,-35,92,23,-37
1491088550402,3,-37,-48,-110,67,-128,-113,-97,18
1491088550403,0,22,0,47,40,-40,71,90,-10
1491088550403,0,-1,60,39,-115,-77,93,90,-16
1491088550438,1,-21,-64,-116,50,-16,-120,-88,21
1491088550438,1,-19,20,60,48,64,127,-34,-24
1491088550439,2,20,-10,-31,-75,-91,17,93,8
1491088550439,2,-26,-42,-54,90,35,-128,-112,14
1491088550440,3,3,19,32,9,5,-54,-14,-19
1491088550440,3,7,44,36,47,42,25,-44,-7
1491088550441,1,2,-34,-35,-25,-20,-14,88,-3
1491088550441,1,6,8,-16,28,-7,-32,-82,-14
1491088550476,2,13,25,86,-30,-2,-11,-57,1
1491088550476,2,-5,-16,-60,99,72,62,90,-2
1491088550477,3,-25,-14,27,-36,-43,13,-99,-28
1491088550477,3,28,6,18,57,74,-16,55,24
1491088550477,0,-21,-29,-29,-30,28,46,2,-12
1491088550477,0,24,1,-26,-47,30,-8,-52,14
1491088550478,1,-26,9,43,1,25,57,-29,-6
1491088550478,1,-10,23,1,-29,66,-21,20,-5
1491088550513,2,8,-2,27,96,62,7,24,14
1491088550513,2,12,18,2,-23,101,-20,37,-9
1491088550514,3,-31,-33,-65,3,-14,-64,-47,10
1491088550514,3,36,6,23,-59,83,82,123,3
1491088550515,0,-36,-50,-48,115,78,-13,-55,15
1491088550515,0,-7,6,26,-128,-13,7,-63,-9
1491088550516,1,9,34,36,-102,24,79,84,-15
1491088550516,1,-10,-65,-78,97,49,-27,-29,3
1491088550551,2,-7,44,11,-55,-94,-75,-41,-16
1491088550551,2,-78,-92,-92,75,-94,-101,-54,6
1491088550552,3,24,-4,10,-30,-15,6,-109,-25
1491088550552,3,72,59,64,70,36,-36,76,23
1491088550553,0,-11,1,-14,-93,-81,100,102,-3
1491088550553,0,23,33,48,-61,6,-1,-86,17
1491088550553,1,-11,-5,-60,65,82,93,83,-7
1491088550553,1,-19,-37,-72,-128,-128,-83,-110,-10
1491088550588,2,10,-15,-4,93,100,7,-16,7
1491088550588,2,4,16,27,34,44,78,-16,-13
1491088550589,3,3,-11,2,127,77,-18,-23,14
1491088550589,3,-2,31,69,47,85,74,-2,-7
1491088550590,0,-4,-22,-73,-47,-113,-128,-128,-12
1491088550590,0,-3,9,17,21,42,96,99,-6
1491088550591,1,-5,21,-54,-115,-49,-83,-87,25
1491088550591,1,-30,-8,44,23,-29,110,94,-18
1491088550626,2,-59,-27,-75,-53,-79,-108,-75,9
1491088550626,2,42,-28,-19,-1,-46,-64,-25,-2
1491088550627,3,-16,38,49,-29,17,30,61,8
1491088550627,3,1,27,66,-102,12,49,-104,-31
1491088550628,0,24,-6,-1,127,127,127,127,32
1491088550628,0,-67,-39,-63,-94,-95,-76,-5,2
1491088550628,1,12,20,-62,-40,-128,-118,13,-14
1491088550628,1,-13,-36,-11,-17,42,5,64,5
1491088550663,2,-18,13,96,31,91,92,61,-21
1491088550663,2,41,25,43,41,54,-9,24,18
1491088550664,3,-25,-1,23,8,53,55,57,-23
1491088550664,3,5,-7,-11,17,-56,-69,12,10
1491088550665,0,10,44,41,5,-33,68,23,-16
1491088550665,0,24,-42,-52,17,20,-34,55,12
1491088550666,1,-1,-40,-56,-111,-118,-82,-55,2
1491088550666,1,3,7,37,52,59,68,99,3
1491088550701,2,3,-29,-75,-96,-14,17,22,-16
1491088550701,2,-22,23,109,94,93,9,6,16
1491088550702,3,37,-9,-58,-19,67,-6,-6,5
1491088550702,3,52,-5,-57,-20,20,-24,-12,31
1491088550702,0,-7,64,57,-53,116,24,-29,-12
1491088550702,0,-1,7,2,62,-116,-57,4,20
1491088550703,1,-54,10,61,72,94,-25,-107,-19
1491088550703,1,13,9,-117,-34,-13,-17,69,5
1491088550739,2,12,-28,7,17,57,-9,-14,-16
1491088550739,2,-26,14,-37,-15,-55,34,-13,-13
1491088550740,3,33,-13,91,97,-14,66,55,4
1491088550740,3,-28,20,15,-115,76,29,-56,-29
1491088550741,0,1,-39,-25,51,-128,-128,-40,14
1491088550741,0,-6,15,-21,-7,127,-49,-53,-20
1491088550742,1,8,-12,-16,7,39,70,97,30
1491088550742,1,10,43,66,26,82,44,45,-10
1491088550776,2,8,3,32,-46,69,67,42,-4
1491088550776,2,-12,-19,-80,-25,-59,76,-11,0
1491088550777,3,-8,-39,-46,-33,-79,-79,-86,-3
1491088550777,3,32,2,73,47,-4,-14,-6,2
1491088550778,0,-6,3,-17,-36,39,20,-31,-18
1491088550778,0,66,10,15,-7,60,70,26,26
1491088550778,1,6,41,78,57,69,18,22,-15
1491088550778,1,-17,-24,-100,14,-101,-52,-28,15
1491088550813,2,35,-16,-9,34,-73,-99,-71,19
1491088550813,2,-25,-9,-11,45,-24,64,-24,-32
1491088550814,3,6,-19,-18,-25,-111,2,6,-4
1491088550814,3,-22,-12,7,-34,73,42,-18,-22
1491088550815,0,-6,8,47,-8,13,12,73,-10
1491088550815,0,1,55,127,44,127,32,29,-7
1491088550816,1,-8,-17,-67,-108,-68,-50,-34,15
1491088550816,1,-14,-16,52,33,-90,-13,6,-21
1491088550851,2,1,30,-45,-49,77,89,-36,11
1491088550851,2,19,7,-56,-2,-128,-128,-52,12
1491088550852,3,-34,-8,13,27,97,91,-51,1
1491088550852,3,-14,-24,37,19,81,67,21,-6
1491088550853,0,32,-5,-18,27,0,39,-43,3
1491088550853,0,-1,63,127,-102,127,-19,115,-29
1491088550889,1,-11,-41,-30,52,-61,-71,-15,24
1491088550889,1,-40,-34,-128,73,-5,41,10,-2
1491088550890,2,36,3,4,13,-117,-110,3,23
1491088550890,2,-2,1,12,61,108,127,36,-6
1491088550926,3,0,52,11,-102,-7,-68,-15,-8
1491088550926,3,-55,-25,79,36,96,45,34,-11
1491088550927,0,45,-33,-86,65,-69,-63,-47,19
1491088550927,0,59,68,45,79,46,89,79,34
1491088550928,1,-35,15,77,52,127,9,79,-20
1491088550928,1,29,-32,-66,32,-86,-107,-128,-13
1491088550928,2,-41,45,27,-98,-84,-105,-109,8
1491088550928,2,-37,-54,26,43,32,36,-63,-6
1491088550963,3,88,14,28,10,127,124,77,-51
1491088550963,3,51,57,-4,-94,58,-32,1,27
1491088550965,0,-17,-52,0,50,-34,-53,-55,-19
1491088550965,0,-30,-31,-88,-128,-128,22,-14,12
1491088550965,1,-42,-19,7,-23,-11,65,110,26
1491088550965,1,-10,23,39,23,-74,50,-74,-17
1491088550966,2,-14,23,-19,-23,127,74,127,-10
1491088550966,2,-19,-35,-27,113,-89,-89,-106,-1
1491088551001,3,-20,-31,-49,-90,-84,127,-48,-12
1491088551001,3,2,-43,-102,-128,-128,-128,10,23
1491088551002,0,-27,-12,40,-23,116,127,65,4
1491088551002,0,3,-19,-39,16,90,36,84,-38
1491088551003,1,-3,34,26,46,-78,-25,27,17
1491088551003,1,-17,-21,-8,44,13,45,-31,14
1491088551004,2,38,32,36,8,83,127,93,-21
1491088551004,2,-27,33,16,-2,-53,-89,-55,-26
1491088551038,3,55,-17,-38,17,5,9,-28,29
1491088551038,3,28,18,1,-64,-30,20,20,-7
1491088551039,0,-15,-78,-33,115,-82,-51,-56,-12
1491088551039,0,4,4,33,-79,11,27,-50,-6
1491088551040,1,-30,-1,-15,48,41,-47,-40,5
1491088551040,1,0,52,127,68,91,33,-22,1
1491088551041,2,-4,4,-73,-67,50,78,15,-4
1491088551041,2,-17,-32,-54,19,-91,-128,-76,28
1491088551076,3,-56,-22,25,-90,105,46,-32,-25
1491088551076,3,-24,-52,-110,-8,-81,-63,88,-14
1491088551078,0,66,32,89,98,55,84,-128,-2
1491088551078,0,4,8,-17,-105,-54,-2,81,-4
1491088551078,1,32,-59,-34,-50,-33,127,-21,3
1491088551078,1,-43,46,29,30,-8,-61,-13,14
1491088551079,2,58,-12,-31,31,-44,-128,-70,7
1491088551079,2,12,42,90,46,96,127,0,-9
1491088551113,3,13,-4,-70,12,-15,71,62,-13
1491088551113,3,-7,-45,-60,-54,-95,-67,-79,23
1491088551115,0,-29,3,52,-4,-14,77,-12,-24
1491088551115,0,60,29,-5,0,50,52,41,11
1491088551116,1,11,5,32,-24,-78,70,76,-12
1491088551116,1,-24,24,11,93,51,-20,-44,5
1491088551117,2,-24,-7,-44,-24,-20,-4,9,40
1491088551117,2,-67,-69,10,-87,3,51,-24,-50
1491088551151,3,83,71,-5,127,62,-72,48,56
1491088551151,3,25,18,-4,-37,-13,103,-11,-6
1491088551152,0,-52,-13,-6,-86,8,-60,-2,-8
1491088551152,0,-15,-49,-66,38,-55,16,1,1
1491088551152,1,-22,39,46,68,-37,9,-72,-25
1491088551152,1,37,15,78,80,92,127,46,4
1491088551153,2,-32,-4,-12,-30,-65,-95,-59,9
1491088551153,2,-20,-46,-45,-79,-9,87,31,-24
1491088551188,3,-21,-4,-17,-108,-113,-77,-27,-9
1491088551188,3,18,24,89,74,127,119,127,-17
1491088551189,0,-46,-51,-95,-25,-95,-24,-31,-11
1491088551189,0,54,2,-8,-27,-16,78,-69,50
1491088551190,1,-19,3,-1,-22,-7,33,58,-14
1491088551190,1,-35,-38,0,-16,-4,2,-79,-18
1491088551191,2,-10,46,45,54,127,-13,80,-14
1491088551191,2,13,2,-32,-38,-116,-31,-30,28
1491088551226,3,-16,-11,60,46,126,110,56,-18
1491088551226,3,7,15,-29,-53,-6,39,72,-17
1491088551227,0,-14,-50,-97,-24,-100,-17,-65,3
1491088551227,0,-25,1,61,-35,57,-77,-23,30
1491088551228,1,35,31,41,-13,-12,71,19,-21
1491088551228,1,-13,-39,-108,-51,-110,-123,-51,41
1491088551229,2,-38,-4,19,53,21,90,-7,-55
1491088551229,2,76,56,63,56,90,58,68,-1
1491088551263,3,12,-6,32,-7,14,33,-128,22
1491088551263,3,2,19,23,3,78,62,106,25
1491088551265,0,46,22,-10,-42,14,77,19,-3
1491088551265,0,-69,-41,-33,-3,-14,-63,14,-18
1491088551265,1,-2,26,33,92,5,-127,-50,2
1491088551265,1,-15,1,11,50,-10,22,66,21
1491088551266,2,-6,-12,-72,-28,-5,-56,-89,-35
1491088551266,2,-50,-55,-62,45,-78,68,90,-16
1491088551301,3,-35,-50,-29,-6,20,28,89,-21
1491088551301,3,-22,19,34,-96,47,119,-62,-7
1491088551303,0,39,-26,22,-32,46,-1,50,27
1491088551303,0,58,51,35,18,24,-120,-60,1
1491088551304,1,-30,-20,-55,43,-49,-14,68,12
1491088551304,1,1,-17,1,-112,8,-16,-87,-29
1491088551339,2,-11,58,106,127,121,67,123,15
1491088551339,2,14,-16,1,-88,18,51,57,22
1491088551341,3,0,-70,-94,-33,-48,-99,-83,-4
1491088551341,3,-3,33,16,1,-90,72,-79,-1
1491088551342,0,-37,8,-2,-90,-92,-58,27,29
1491088551342,0,25,19,67,126,127,116,-59,-13
1491088551343,1,-19,15,48,3,14,65,-74,-22
1491088551343,1,-2,-3,-31,25,-17,-77,127,40
1491088551376,2,65,11,-10,-49,-82,118,-122,-32
1491088551376,2,24,-40,-83,75,-28,-78,-57,-30
1491088551377,3,-41,-40,25,67,115,62,110,44
1491088551377,3,20,81,-3,-72,-49,-67,-54,-25
1491088551377,0,26,41,62,-39,-32,127,38,31
1491088551377,0,-8,25,34,-40,37,-107,13,3
1491088551378,1,-13,-24,-105,-111,-128,62,-59,-22
1491088551378,1,93,-17,14,102,77,-92,-61,35
1491088551413,2,-23,12,11,-67,-50,84,69,-32
1491088551413,2,-18,-37,-33,63,-10,-61,-90,0
1491088551414,3,18,53,77,6,64,44,75,39
1491088551414,3,-36,-21,-20,-50,21,54,-81,-25
1491088551415,0,-2,-11,-7,32,-35,41,9,-19
1491088551415,0,46,-4,-6,24,-42,-88,-79,29
1491088551416,1,-1,58,35,10,47,17,88,10
1491088551416,1,-5,-30,5,-38,-17,9,10,-41
1491088551451,2,-56,-12,-3,-52,-56,45,34,-4
1491088551451,2,-58,13,-34,10,45,-28,-25,-15
1491088551452,3,36,-5,-18,6,-103,-68,-60,-41
1491088551452,3,-66,-81,-94,-70,-105,-99,-46,-2
1491088551453,0,15,39,67,127,78,-1,1,28
1491088551453,0,-95,14,-5,-107,-36,127,-23,-13
1491088551488,1,103,23,22,-7,41,-99,93,41
1491088551488,1,10,10,110,127,106,115,43,-6
1491088551490,2,-43,-34,-99,-50,-86,-77,75,14
1491088551490,2,-36,-68,-69,52,-85,-48,-35,-21
1491088551490,3,-49,59,60,88,123,33,-71,9
1491088551490,3,43,-30,-9,-44,-42,98,97,-10
1491088551491,0,64,43,1,15,127,-63,39,35
1491088551491,0,10,37,54,-64,34,127,110,-19
1491088551526,1,-58,-44,-48,-89,-120,41,9,-42
1491088551526,1,18,29,-3,7,-54,-112,-49,36
1491088551527,2,-50,-87,-29,57,-31,78,-85,-42
1491088551527,2,29,16,-30,-4,4,35,90,43
1491088551527,3,30,17,46,33,91,-107,-128,17
1491088551527,3,-10,30,-14,-59,21,88,60,-22
1491088551528,0,1,25,59,86,48,19,75,13
1491088551528,0,-59,-50,-29,-128,-83,-91,-96,-29
1491088551601,1,27,17,-45,81,4,-103,-118,15
1491088551601,1,-7,-5,-6,16,-104,73,92,-26
1491088551602,2,-1,-3,5,-89,-19,-128,-128,-7
1491088551602,2,89,20,50,103,50,111,-3,-1
1491088551602,3,-112,-29,11,13,5,127,-4,-53
1491088551602,3,30,-25,-32,-35,46,-117,-55,19
1491088551603,0,8,-20,-25,58,-48,33,-68,-31
1491088551603,0,6,15,29,-58,20,-6,-22,27
1491088551638,1,-2,14,-28,37,-46,-69,-65,18
1491088551638,1,-29,-19,24,-66,65,-57,87,-24
1491088551639,2,-9,3,39,-74,124,114,112,13
1491088551639,2,-51,-43,-62,-23,-59,-128,-63,-43
1491088551640,3,11,-35,-66,-91,-113,-26,-72,19
1491088551640,3,-19,31,68,-10,-17,125,12,-7
1491088551641,0,0,-62,-93,60,29,33,-89,14
1491088551641,0,53,74,63,30,47,-82,127,9
1491088551676,1,79,-3,-10,-28,65,119,127,5
1491088551676,1,27,50,59,127,89,-119,-112,29
1491088551684,2,-8,29,72,-51,45,54,95,-25
1491088551684,2,-47,-18,-55,82,-16,127,36,19
1491088551684,0,60,33,-53,64,-37,70,91,-8
1491088551684,0,45,-42,-30,45,81,-88,-80,9
1491088551685,1,-69,15,47,-102,-99,127,-24,-56
1491088551685,1,11,-6,-101,48,-85,-99,-116,63
1491088551713,2,-67,-25,9,-128,-20,-81,-96,3
1491088551713,2,20,-28,26,-34,26,127,127,-31
1491088551714,3,6,1,-26,127,-14,-128,-118,27
1491088551714,3,4,-40,14,-128,-71,74,107,-46
1491088551715,0,22,68,61,122,29,41,78,3
1491088551715,0,9,-20,-21,-40,-58,-79,-89,-4
1491088551716,1,25,10,-44,-118,-12,127,95,20
1491088551716,1,-46,-53,-81,66,-83,-106,-128,5
1491088551751,2,-42,-4,42,-3,17,63,-30,-47
1491088551751,2,92,53,89,119,107,68,86,46
1491088551751,3,-31,44,44,-50,-62,-106,-50,25
1491088551751,3,16,-28,-23,87,-33,103,33,-23
1491088551752,0,14,23,-8,-97,-58,-47,14,-1
1491088551752,0,-116,-14,-60,-40,-115,-65,-128,-27
1491088551753,1,72,-2,26,-119,126,111,127,-55
1491088551753,1,-17,37,-14,89,127,-77,2,61
1491088551788,2,-86,-35,75,116,109,50,-18,14
1491088551788,2,42,25,-3,-79,-1,56,47,9
1491088551790,3,-60,-78,-76,-40,-71,2,-79,-1
1491088551790,3,37,65,44,-128,-59,88,106,-53
1491088551790,0,36,-12,-67,127,-50,-128,-57,19
1491088551790,0,-77,6,63,-84,53,97,112,26
1491088551791,1,26,6,31,-23,13,92,121,-60
1491088551791,1,15,5,-30,104,-62,33,84,14
1491088551826,2,16,18,16,-91,42,-69,-43,-16
1491088551826,2,28,11,33,-31,-115,97,86,-10
1491088551826,3,1,22,50,104,94,-1,82,-6
1491088551826,3,-40,32,71,-128,64,127,-31,-19
1491088551827,0,-40,-61,-126,99,-126,-108,-78,24
1491088551827,0,4,-34,-44,40,31,-1,59,-13
1491088551828,1,-74,26,64,-18,-68,116,-4,-29
1491088551828,1,84,27,48,127,80,-111,66,11
1491088551863,2,-11,-4,0,-71,-16,48,7,0
1491088551863,2,-56,-19,-41,126,90,-126,-128,-34
1491088551864,3,-52,-62,-57,127,-31,-90,-61,27
1491088551864,3,73,25,0,0,109,59,-24,17
1491088551865,0,17,18,-12,-77,-93,-109,-64,27
1491088551865,0,81,29,81,-128,-128,120,7,-53
1491088551866,1,-113,4,-26,87,34,-39,82,51
1491088551866,1,63,-25,-46,102,77,-112,-76,-35
1491088551901,2,-34,-40,-9,33,116,17,9,-7
1491088551901,2,-63,9,-6,54,-15,-124,-128,21
1491088551902,3,88,-25,12,2,62,44,79,9
1491088551902,3,-89,21,26,-124,-123,-27,-86,-15
1491088551902,0,37,-17,-19,-15,11,74,53,-3
1491088551902,0,-22,-13,-22,78,-64,97,77,-14
1491088551903,1,49,49,10,-55,35,-14,-112,-7
1491088551903,1,-68,-90,-90,82,24,-51,-75,-9
1491088551938,2,-29,-40,4,-52,-47,81,58,32
1491088551938,2,5,100,73,-10,29,2,-117,1
1491088551939,3,54,48,5,19,-95,-73,66,-6
1491088551939,3,-38,-25,-19,-72,19,70,109,11
1491088551940,0,15,8,0,-125,52,64,-53,-26
1491088551940,0,-32,-88,-116,88,-59,-50,-66,100
1491088551941,1,-49,-29,-8,24,66,24,30,-77
1491088551941,1,71,36,59,-18,-11,127,63,-9
1491088551976,2,-10,24,-7,-59,-68,44,-10,-2
1491088551976,2,3,58,108,15,115,-39,-9,6
1491088551977,3,-1,-6,-117,-93,-7,-42,-87,-6
1491088551977,3,43,-99,-95,87,-47,-48,-13,26
1491088551977,0,12,43,93,-55,-20,127,79,-13
1491088551977,0,14,3,-3,85,-22,-54,-66,-3
1491088551978,1,-73,-22,39,68,58,-76,-128,-5
1491088551978,1,-21,17,-19,-101,-72,-28,82,-25
1491088552013,2,-1,-39,-55,127,0,-10,-10,4
1491088552013,2,3,55,49,-80,50,-64,53,-3
1491088552014,3,0,-69,-68,127,-1,-103,-119,16
1491088552014,3,-41,2,31,-71,-31,127,62,48
1491088552015,0,22,17,25,71,-15,25,-15,-49
1491088552015,0,28,-38,-119,51,101,-84,33,52
1491088552051,1,-46,-47,38,-75,19,12,-61,22
1491088552051,1,-10,52,35,58,20,29,-109,-24
1491088552052,2,90,32,-1,-72,-47,50,98,1
1491088552052,2,-3,-6,-43,-18,-26,18,-15,-37
1491088552053,3,41,4,4,-15,7,81,29,9
1491088552053,3,-55,-8,0,-17,-107,60,9,-14
1491088552054,0,-46,-65,-35,125,127,-125,-75,17
1491088552054,0,46,29,64,-19,-85,116,32,-55
1491088552088,1,-3,5,-14,-66,-55,66,-4,31
1491088552088,1,-25,-39,-18,-102,-49,-115,61,-9
1491088552090,2,28,87,127,75,58,2,-47,20
1491088552090,2,-43,-39,-128,-62,-128,53,79,-22
1491088552090,3,69,-17,-17,127,-39,-110,-102,30
1491088552090,3,-4,31,35,-68,15,127,93,-31
1491088552091,0,-7,-15,12,105,10,-17,8,-11
1491088552091,0,8,-12,13,-66,-37,108,-108,9
1491088552126,1,-15,31,8,116,99,-21,124,-4
1491088552126,1,-3,-15,-7,50,-2,-121,-128,-5
1491088552127,2,-4,-26,-86,-128,-59,-1,51,12
1491088552127,2,-40,-48,-27,-30,-84,-4,-38,-8
1491088552128,3,1,32,80,-10,0,59,6,-7
1491088552128,3,-40,-17,-62,4,-38,-116,-91,21
1491088552129,0,37,15,67,71,17,17,30,-5
1491088552129,0,8,23,9,-128,-56,123,127,-3
1491088552163,1,-22,-41,-108,71,0,-114,-81,11
1491088552163,1,-11,13,27,3,46,-38,-125,14
1491088552164,2,-24,-2,-1,-87,-10,58,69,-30
1491088552164,2,37,-5,17,56,47,95,18,-16
1491088552165,3,4,-5,28,14,35,-76,50,10
1491088552165,3,6,23,6,-48,-33,-2,39,-19
1491088552201,0,-49,-84,-126,-49,-124,-128,-128,8
1491088552201,0,-7,-8,18,25,56,-38,-32,28
1491088552202,1,11,23,43,27,90,127,83,-38
1491088552202,1,14,22,42,111,72,83,-27,-12
1491088552204,2,-24,57,104,-77,99,16,86,-16
1491088552204,2,-2,-63,-104,113,50,-128,-11,7
1491088552205,3,-17,-1,-10,-38,-84,-42,-56,-5
1491088552205,3,24,-8,53,36,44,72,9,7
1491088552238,0,-3,41,-12,9,-4,-6,-35,2
1491088552238,0,19,51,87,-117,45,83,60,-24
1491088552239,1,-9,-5,-39,22,93,-65,-44,10
1491088552239,1,-5,-53,-44,21,99,9,22,-15
1491088552240,2,17,32,27,-40,100,87,102,29
1491088552240,2,-47,-65,-51,39,-28,-128,-121,-28
1491088552241,3,28,47,80,-12,3,127,127,15
1491088552241,3,-26,-15,-71,63,18,7,19,-2
1491088552276,0,1,-8,-32,-3,-37,-19,-34,-4
1491088552276,0,-22,24,9,-19,15,-71,-47,17
1491088552278,1,10,9,24,-36,-39,82,-34,-31
1491088552278,1,-6,46,104,-60,40,49,-8,-3
1491088552279,2,-5,-21,-68,127,-34,13,-53,2
1491088552279,2,30,17,30,47,6,2,43,2
1491088552280,3,-32,-30,-61,-128,-84,-48,-2,-1
1491088552280,3,9,40,27,94,-50,-9,-6,6
1491088552313,0,32,0,70,77,49,72,-7,-13
1491088552313,0,-19,-4,-36,-91,-27,2,-21,10
1491088552314,1,17,-23,-4,-10,-36,-41,-76,-8
1491088552314,1,20,37,44,-128,73,-56,68,2
1491088552315,2,-61,-98,-128,73,-128,-128,-128,12
1491088552315,2,41,-14,109,65,47,87,-67,-4
1491088552351,3,16,49,77,-42,40,124,60,-2
1491088552351,3,-1,-16,-51,-55,-108,15,-86,-7
1491088552352,0,-11,54,72,46,67,6,7,0
1491088552352,0,2,24,94,69,77,4,16,-16
1491088552352,1,-32,-53,-115,-74,-88,-107,-112,10
1491088552352,1,-43,-22,-3,17,40,63,-19,6
1491088552353,2,26,93,104,32,49,85,102,23
1491088552353,2,-62,-26,-117,-53,-89,-15,31,-6
1491088552388,3,-21,15,36,83,61,5,5,-1
1491088552388,3,66,-35,-90,127,-127,-14,65,11
1491088552390,0,-14,-59,-57,-83,-69,-99,-118,1
1491088552390,0,-6,28,-39,-76,83,116,127,12
1491088552390,1,0,23,34,86,-62,14,40,-8
1491088552390,1,16,-24,-39,-64,-23,-41,-18,13
1491088552391,2,17,-23,24,11,9,21,127,-21
1491088552391,2,9,20,-4,12,-52,-128,-21,12
1491088552426,3,-11,-10,-49,-33,-67,22,26,-10
1491088552426,3,-30,4,-10,77,-2,-60,7,-12
1491088552427,0,47,7,-21,19,21,34,23,11
1491088552427,0,-10,10,25,9,112,59,81,-16
1491088552427,1,19,-68,-96,-108,-76,-94,-10,6
1491088552427,1,6,-5,117,107,117,81,6,-14
1491088552428,2,-57,15,-121,-46,-128,-91,-99,4
1491088552428,2,62,-13,-25,32,-38,-75,-55,4
1491088552464,3,-15,34,74,81,127,127,80,2
1491088552464,3,-1,-15,-18,57,89,-68,-69,-8
1491088552465,0,13,-9,102,-18,127,98,82,-18
1491088552465,0,55,33,49,0,41,43,-35,10
1491088552466,1,19,-27,-20,-94,1,-68,46,2
1491088552466,1,-7,-20,-17,7,-71,-58,-27,9
1491088552501,2,-5,-21,34,-26,-78,-43,-23,-6
1491088552501,2,-31,11,-14,-17,63,-39,-82,-17
1491088552502,3,29,65,103,23,121,115,9,-23
1491088552502,3,-9,-41,-97,-128,-91,-80,-59,-11
1491088552502,0,26,-26,44,28,-7,5,5,9
1491088552502,0,-21,29,51,-123,74,104,94,-18
1491088552503,1,-60,-9,127,127,-80,-76,0,3
1491088552503,1,14,27,-6,52,-37,76,26,-15
1491088552538,2,9,19,-27,-78,36,22,0,3
1491088552538,2,17,-42,4,44,-70,-55,-23,6
1491088552540,3,0,47,-42,-47,99,44,24,10
1491088552540,3,4,-44,-72,-59,43,23,-33,-14
1491088552541,0,-49,-2,20,19,-110,-128,-99,-2
1491088552541,0,34,17,20,-10,58,127,60,15
1491088552542,1,11,-32,-28,-27,-34,40,-27,-9
1491088552542,1,-27,-32,15,-52,100,74,44,-5
1491088552576,2,18,18,-97,-76,31,26,44,14
1491088552576,2,-22,-33,-22,-15,-88,-36,-28,30
1491088552577,3,-3,-35,-7,82,56,82,-22,-12
1491088552577,3,-39,25,36,-82,-47,48,-35,11
1491088552578,0,49,18,84,63,127,46,101,-19
1491088552578,0,-84,-25,-64,2,-96,-79,-51,-7
1491088552579,1,115,21,-54,-74,-8,-18,39,36
1491088552579,1,3,21,70,3,78,-61,12,13
1491088552613,2,-31,-64,-96,53,-19,38,-17,-4
1491088552613,2,-14,-2,38,127,-106,-25,-33,-2
1491088552614,3,-32,6,45,34,89,96,5,-40
1491088552614,3,18,-9,5,-62,-80,-56,10,11
1491088552615,0,-7,-1,-7,-67,-46,-4,-12,23
1491088552615,0,-5,9,37,-16,116,98,-33,-33
1491088552651,1,11,14,52,3,-29,-6,16,4
1491088552651,1,3,15,24,24,108,13,16,-12
1491088552652,2,-13,-13,-62,37,7,94,49,11
1491088552652,2,32,-6,-4,85,-89,-74,-43,-9
1491088552653,3,-7,3,14,-71,88,55,38,10
1491088552653,3,-8,21,12,102,-105,51,-3,7
1491088552654,0,3,-12,-94,-128,-90,-70,-128,5
1491088552654,0,37,6,-31,-80,-34,-61,30,0
1491088552688,1,-2,22,-23,-16,-31,-32,-23,-3
1491088552688,1,-53,0,104,33,111,127,68,-33
1491088552689,2,34,0,-46,66,-36,-54,-74,27
1491088552689,2,-35,-10,-15,-20,24,123,58,-3
1491088552690,3,-12,7,-27,-77,-8,38,-8,13
1491088552690,3,25,-2,-93,103,-93,-58,15,17
1491088552691,0,-53,3,31,-69,-30,64,-46,-37
1491088552691,0,4,7,0,102,54,73,25,8
1491088552726,1,6,-3,-35,40,-128,-12,0,-1
1491088552726,1,7,-12,-46,-108,-56,-25,9,-8
1491088552727,2,8,-11,-41,112,98,-19,26,21
1491088552727,2,-17,-3,-9,-14,52,-70,-6,-13
1491088552728,3,18,16,28,-22,88,127,66,10
1491088552728,3,-3,29,2,-10,100,23,-43,16
1491088552763,0,8,-2,-10,-45,-39,-28,25,-22
1491088552763,0,-70,-1,-27,-109,-48,127,86,-7
1491088552765,1,3,-44,-58,127,-128,-128,-128,-8
1491088552765,1,59,3,-36,18,21,125,59,13
1491088552766,2,-24,23,127,50,97,108,91,-39
1491088552766,2,17,-35,-83,-59,-34,-93,78,59
1491088552767,3,-31,-18,-10,-120,-98,69,-16,-30
1491088552767,3,17,-8,4,39,16,48,87,48
1491088552801,0,-42,-49,-6,77,-62,106,-18,-3
1491088552801,0,29,59,73,2,30,-82,-49,-48
1491088552802,1,13,-7,-1,-62,1,-6,56,-15
1491088552802,1,2,-4,8,-45,-84,-3,63,-6
1491088552803,2,-2,3,22,30,88,-8,-10,0
1491088552803,2,7,-21,-7,-67,-51,96,-17,-2
1491088552804,3,6,-22,-27,94,-18,-21,69,17
1491088552804,3,-25,-15,-36,-72,-77,-76,-82,-10
1491088552838,0,0,4,23,-82,-54,109,52,-19
1491088552838,0,10,-26,-41,33,2,-52,-59,14
1491088552839,1,32,2,63,-22,127,-6,-20,37
1491088552839,1,-3,34,55,-102,-93,49,25,2
1491088552840,2,-28,-79,-124,-5,-23,-128,77,24
1491088552840,2,-6,20,103,106,112,-33,-128,-26
1491088552841,3,-49,-31,8,54,40,28,47,-15
1491088552841,3,-32,99,64,93,127,30,-49,8
1491088552877,0,-25,9,-4,-110,-85,-14,8,-10
1491088552877,0,-29,7,-6,27,51,88,127,-28
1491088552878,1,-28,14,-64,-58,-29,-128,-128,-11
