1491087150542,0,-39,-35,-52,1,42,-112,-22,-90
1491087150542,0,-56,-13,2,-5,-96,-65,-77,-88
1491087150544,1,50,-14,-30,-44,-10,61,102,49
1491087150544,1,14,18,9,7,-14,31,85,16
1491087150544,2,39,21,22,-12,18,55,-13,51
1491087150544,2,6,10,14,10,13,14,1,51
1491087150580,3,-48,-7,25,17,-53,-23,-128,-108
1491087150580,3,-36,-22,-24,-54,-13,89,79,62
1491087150581,0,46,9,-14,-2,-38,-68,-81,23
1491087150581,0,11,-5,7,79,53,-10,-26,12
1491087150581,1,-2,11,14,-30,3,84,-58,68
1491087150581,1,-46,-18,6,73,94,-115,-86,-115
1491087150583,2,-44,-18,19,36,-60,61,96,23
1491087150583,2,51,22,-18,-37,59,101,36,48
1491087150617,3,-1,2,-9,-9,19,-128,1,33
1491087150617,3,18,-6,10,-58,-121,123,-70,-53
1491087150618,0,-9,-7,-20,-5,113,1,-69,-51
1491087150618,0,61,15,-5,-18,-46,84,89,57
1491087150618,1,39,16,-1,86,43,-56,-32,-2
1491087150618,1,-5,13,12,-38,-17,55,36,69
1491087150654,2,-23,-16,22,-9,-14,34,8,-29
1491087150654,2,-30,-25,-2,-11,45,14,-58,9
1491087150655,3,34,17,-12,11,-23,-16,100,39
1491087150655,3,7,7,-4,24,13,33,49,-53
1491087150655,0,-3,13,30,-6,-73,46,-63,-7
1491087150655,0,-15,-1,5,19,72,-97,-1,19
1491087150656,1,-3,-3,17,90,34,127,70,-28
1491087150656,1,0,-14,-32,-98,-78,-88,-123,52
1491087150729,2,-11,-5,-31,-1,-54,17,97,-12
1491087150729,2,-20,-9,-13,17,-32,-17,-70,-101
1491087150730,3,-12,-3,5,-45,-30,10,-4,-20
1491087150730,3,5,3,21,-3,-8,-54,76,25
1491087150731,0,55,21,11,62,23,127,42,25
1491087150731,0,16,6,-6,-65,-44,-128,-40,10
1491087150731,1,-12,-7,18,-20,-16,60,54,13
1491087150731,1,-12,-10,-26,-8,34,31,12,-45
1491087150768,2,-35,-15,-6,-42,-24,-123,65,6
1491087150768,2,-13,9,13,56,34,67,-70,-56
1491087150770,3,-14,-11,-12,4,51,101,33,-7
1491087150770,3,7,17,28,-31,-35,-116,-123,-9
1491087150771,2,-6,15,32,-14,-54,57,-29,-5
1491087150771,2,-13,-14,-12,8,106,29,4,-25
1491087150772,3,6,17,10,-58,-100,-39,38,43
1491087150772,3,1,-15,-29,10,-34,-45,-23,-15
1491087150804,0,2,1,-1,-9,39,16,-44,-12
1491087150804,0,-18,-3,18,16,26,-14,67,25
1491087150805,1,-4,-11,-15,6,-31,2,-15,-63
1491087150805,1,17,21,-9,23,71,-28,-33,-4
1491087150805,2,-5,3,3,-21,-31,-58,85,84
1491087150805,2,17,-2,-3,5,-22,64,69,62
1491087150806,3,-29,-24,-23,2,31,-9,71,3
1491087150806,3,2,-7,-22,14,24,86,0,-45
1491087150842,0,-9,14,14,-1,-5,-9,-51,-44
1491087150842,0,-6,-44,-7,-23,-24,-71,40,19
1491087150843,1,9,5,7,10,26,13,-71,8
1491087150843,1,-11,-8,7,7,-3,43,116,14
1491087150844,2,-8,1,-15,17,14,4,-69,-30
1491087150844,2,20,13,10,-8,-8,-10,-67,-47
1491087150845,3,-3,1,14,-9,-1,-10,80,6
1491087150845,3,-12,-9,2,-3,-14,-2,-81,-23
1491087150879,0,0,-1,-5,5,11,27,-42,-2
1491087150879,0,-16,-15,-12,-2,-18,79,104,6
1491087150880,1,4,-2,-35,-69,-31,-72,-128,-29
1491087150880,1,3,11,36,37,36,59,61,62
1491087150881,2,3,2,-5,-19,3,64,-23,-15
1491087150881,2,-11,-3,11,0,-19,-62,-34,-29
1491087150882,3,-8,-8,-7,31,102,-7,-21,-2
1491087150882,3,-7,2,13,-19,-99,-62,-3,8
1491087150917,0,20,-7,-8,-3,-26,12,91,17
1491087150917,0,-58,-8,-15,-2,19,-7,-66,-40
1491087150917,1,9,-9,-5,13,21,28,59,1
1491087150917,1,9,10,15,-6,5,-2,-6,34
1491087150918,2,3,-12,-9,-19,48,-25,-17,7
1491087150918,2,-16,-8,-13,-37,-86,-19,-98,-31
1491087150919,3,11,10,19,7,31,14,67,13
1491087150919,3,-21,-15,-17,22,27,95,20,-27
1491087151029,0,3,1,-9,3,-23,-122,-84,-31
1491087151029,0,0,12,26,-4,-3,9,41,8
1491087151066,1,13,1,-24,-21,-45,24,-124,-39
1491087151066,1,10,3,12,44,39,14,77,44
1491087151069,2,-35,-11,-16,-22,29,3,72,-5
1491087151069,2,36,28,12,40,37,17,-29,19
1491087151070,3,-5,8,25,15,39,-10,25,22
1491087151070,3,8,-24,-32,9,-22,78,-23,-20
1491087151070,0,1,19,29,-13,-49,-70,-53,-2
1491087151070,0,4,-11,-16,-5,2,38,-5,-11
1491087151104,1,-2,0,7,17,-7,23,11,8
1491087151104,1,5,-20,-9,-44,1,-28,-47,-19
1491087151105,2,23,7,8,36,24,20,2,40
1491087151105,2,29,14,14,0,-7,0,71,12
1491087151105,0,10,3,18,3,-58,42,-128,-5
1491087151105,0,-22,-27,-26,-10,-13,-113,45,-19
1491087151106,3,-11,-4,-9,14,25,-18,-84,-2
1491087151106,3,65,30,7,-11,-14,33,12,27
1491087151141,0,-49,4,20,14,8,-47,57,-6
1491087151141,0,-1,-18,-10,-7,26,9,-50,-3
1491087151142,1,-31,8,11,9,23,-15,-41,-19
1491087151142,1,-47,-26,-20,-35,-57,70,71,-3
1491087151179,3,-13,-34,-21,-29,-22,38,-41,44
1491087151179,3,-87,-16,-2,-12,15,-21,66,-42
1491087151180,0,13,-26,-13,-25,8,87,30,31
1491087151180,0,-18,11,17,1,-5,-57,-121,-53
1491087151180,1,-22,-8,-15,-19,4,51,87,6
1491087151180,1,30,9,-7,-17,-48,-62,-56,-14
1491087151181,2,52,23,15,37,84,98,55,23
1491087151181,2,12,5,-2,7,-4,-20,-86,18
1491087151216,3,-9,-4,16,13,6,-66,-9,-45
1491087151216,3,-26,-27,-16,-22,-28,23,86,70
1491087151217,0,-17,-10,-16,-18,-13,29,-7,-30
1491087151217,0,8,15,13,-8,-10,-38,8,33
1491087151219,1,23,-2,13,35,12,-23,-111,-70
1491087151219,1,-2,-1,6,17,21,59,36,46
1491087151220,3,-2,11,16,-5,-30,-14,-2,-9
1491087151220,3,56,4,2,32,32,32,6,16
1491087151254,0,-21,-11,-9,4,32,72,49,32
1491087151254,0,-1,12,-2,-8,1,16,15,5
1491087151255,1,-20,-10,-2,-19,-52,-119,-88,-19
1491087151255,1,8,-20,-7,-11,-2,20,-4,-53
1491087151255,2,-67,12,-5,-13,-45,-7,98,7
1491087151255,2,43,18,9,1,11,30,-100,-6
1491087151256,3,5,-30,-18,26,51,12,111,34
1491087151256,3,-23,17,22,-11,-47,-102,-38,-30
1491087151329,0,-40,-20,-8,-17,-38,3,101,23
1491087151329,0,47,-21,-9,-9,-13,41,73,25
1491087151330,1,28,25,11,20,47,12,-61,33
1491087151330,1,-2,3,6,32,-1,-21,-116,-18
1491087151330,2,3,-11,-13,-14,18,-3,-32,-45
1491087151330,2,-10,18,4,-12,-3,-9,98,18
1491087151331,3,7,5,-12,-20,-14,55,97,49
1491087151331,3,2,10,9,31,27,-10,13,8
1491087151366,0,-8,-16,-13,-8,23,1,-99,-67
1491087151366,0,-19,-3,-9,-22,-48,-51,72,51
1491087151367,1,-37,-4,-6,-28,-37,-47,-47,-36
1491087151367,1,-44,-11,-11,-26,-10,-17,-28,-33
1491087151404,2,9,-8,4,-8,10,33,-42,-32
1491087151404,2,-28,0,-1,-1,-56,-60,-97,-30
1491087151405,3,3,-8,-3,11,10,99,113,71
1491087151405,3,3,-9,-27,-46,24,-93,-18,17
1491087151406,0,-24,-1,-10,-28,-122,-21,-88,-52
1491087151406,0,-31,-15,-8,-7,-11,-5,-59,-31
1491087151407,1,14,-2,-3,-2,4,4,1,9
1491087151407,1,-5,4,3,10,24,26,-58,-2
1491087151441,2,25,20,16,1,58,48,80,31
1491087151441,2,-8,3,7,37,23,-76,-94,-83
1491087151442,3,-1,6,6,3,2,6,98,73
1491087151442,3,9,-13,-18,-13,-23,30,-61,7
1491087151442,0,9,-5,7,38,62,66,71,40
1491087151442,0,-43,1,3,0,-7,-39,32,28
1491087151444,1,36,2,-15,-22,-57,-52,-101,-69
1491087151444,1,29,13,10,21,42,2,42,21
1491087151479,2,12,1,1,-12,-31,14,-43,5
1491087151479,2,6,-7,0,15,34,48,95,23
1491087151480,3,-20,-6,-4,-5,-31,-26,-113,-45
1491087151480,3,0,-1,-9,-60,-61,-15,9,16
1491087151480,1,9,-4,5,30,51,44,33,-3
1491087151480,1,20,35,41,31,18,20,33,3
1491087151486,2,2,2,5,10,22,-29,-55,6
1491087151486,2,-15,-10,-16,-18,-73,12,39,13
1491087151516,3,-12,-4,-10,-3,16,-36,-10,2
1491087151516,3,-16,-8,4,-1,30,94,101,-39
1491087151517,0,-35,5,8,21,87,-19,-96,-14
1491087151517,0,25,-3,7,13,-26,-29,11,0
1491087151518,1,-4,6,-9,-18,-63,-5,42,13
1491087151518,1,63,-10,-33,-27,-55,-2,41,36
1491087151519,2,-1,14,5,27,46,-16,-47,-10
1491087151519,2,-20,5,32,15,68,86,-61,-17
1491087151554,3,7,1,1,1,-21,-13,45,0
1491087151554,3,-9,-14,-6,-38,-41,-64,-64,-2
1491087151554,0,8,-14,-23,-53,-80,-39,-34,-46
1491087151554,0,-15,-15,-17,22,68,94,42,15
1491087151555,1,-34,-7,-9,-24,8,-28,-46,-50
1491087151555,1,19,21,1,19,-57,-95,32,45
1491087151556,2,39,0,4,0,-29,31,-17,-50
1491087151556,2,-6,-10,-10,-13,-1,-21,85,59
1491087151591,3,1,-4,-4,-10,33,81,-110,-38
1491087151591,3,-2,-10,0,6,13,-21,87,59
1491087151592,0,-15,-8,-8,2,-10,-10,-83,-33
1491087151592,0,25,30,17,8,-5,0,127,37
1491087151594,1,20,5,6,10,10,-21,-21,21
1491087151594,1,-27,-2,7,-13,-39,8,-108,-50
1491087151595,2,-23,-11,-7,23,18,-43,69,17
1491087151595,2,-9,-9,-12,-14,31,48,-43,-31
1491087151629,3,-17,-15,-7,-26,-82,12,65,7
1491087151629,3,-9,13,10,24,13,61,-109,-45
1491087151630,0,16,7,6,-22,-17,-105,118,87
1491087151630,0,-3,-10,-12,-19,-5,94,-31,-26
1491087151631,1,3,3,15,24,45,13,-83,-11
1491087151631,1,17,3,7,12,44,49,2,-7
1491087151632,2,7,4,7,38,36,33,34,35
1491087151632,2,17,0,-6,-51,-82,-90,-22,-13
1491087151666,3,-23,-1,-7,-33,-27,-28,22,-20
1491087151666,3,3,2,-10,2,7,32,14,4
1491087151667,0,-12,9,5,0,14,-19,-66,-27
1491087151667,0,-17,-1,11,38,33,13,69,30
1491087151668,1,30,1,8,17,12,23,40,25
1491087151668,1,-48,-16,-23,-28,-40,-118,-90,-74
1491087151669,2,-4,-23,-20,-31,-49,19,66,18
1491087151669,2,1,16,1,-12,-2,-9,-37,-16
1491087151704,3,-12,-2,-7,2,9,8,-33,5
1491087151704,3,-18,-9,7,26,31,6,-20,-12
1491087151704,0,14,4,2,-16,-11,4,0,8
1491087151704,0,-21,0,1,10,2,8,-33,-46
1491087151705,1,9,-3,-6,2,10,-8,30,34
1491087151705,1,25,-10,-13,-3,7,20,-1,35
1491087151706,2,-16,3,3,-10,-7,33,-30,-16
1491087151706,2,2,-8,0,19,17,-19,-128,-48
1491087151741,3,-10,8,8,-5,-7,-35,35,13
1491087151741,3,-16,-3,-5,-7,9,8,95,27
1491087151742,0,2,-6,-4,13,16,7,-67,-34
1491087151742,0,12,10,5,-14,-31,-21,-7,19
1491087151742,1,-21,-8,-10,-20,-42,-29,-39,-36
1491087151742,1,6,-1,-3,20,25,20,-54,-28
1491087151744,2,-28,6,2,-11,15,4,92,54
1491087151744,2,11,-3,-3,11,6,10,47,27
1491087151779,3,23,5,-3,15,17,9,-38,4
1491087151779,3,-9,-2,3,-5,-19,-20,26,5
1491087151780,0,14,-5,0,7,-2,-11,-16,-7
1491087151780,0,-35,-12,-2,-2,4,21,-62,-53
1491087151780,1,20,4,5,1,-9,-56,-42,23
1491087151780,1,24,21,19,24,71,106,119,29
1491087151816,2,-14,-10,-13,-24,-37,-47,-3,-6
1491087151816,2,22,-5,-6,12,1,28,47,50
1491087151817,3,-23,-3,-7,-32,5,-28,-84,-67
1491087151817,3,-6,-1,5,7,-8,-29,-21,-5
1491087151817,0,3,-14,-23,-31,-42,22,31,3
1491087151817,0,20,10,2,-4,-22,-10,2,34
1491087151819,1,2,-6,4,37,34,7,-1,-5
1491087151819,1,-3,1,3,-7,-8,-12,-24,-25
1491087151854,2,-38,-9,0,-3,-2,-2,2,-30
1491087151854,2,41,3,-4,9,12,-22,11,20
1491087151855,3,-15,2,6,0,4,3,-5,-17
1491087151855,3,-3,-6,-4,-18,-23,-3,11,25
1491087151855,0,14,9,6,16,-9,0,-58,-6
1491087151855,0,-66,-20,-17,-21,3,-11,57,-45
1491087151856,1,25,11,9,7,2,18,-39,18
1491087151856,1,-5,6,3,26,11,23,111,26
1491087151891,2,13,-5,-4,-17,-12,51,-62,-22
1491087151891,2,-12,-10,-9,-10,-11,-89,-50,-13
1491087151892,3,-10,7,10,38,46,44,11,6
1491087151892,3,8,-6,0,-2,-41,26,-55,-20
1491087151893,0,24,7,-9,-47,-45,-12,67,22
1491087151893,0,-2,-3,-11,-21,-11,-85,-63,15
1491087151894,1,-31,-16,-12,-7,-11,19,-53,-50
1491087151894,1,3,3,2,3,21,7,33,16
1491087151929,2,22,15,19,28,34,0,24,19
1491087151929,2,7,0,3,0,-4,32,14,7
1491087151930,3,11,4,-3,-7,-13,-11,33,11
1491087151930,3,-18,-9,-6,-6,15,11,-48,-21
1491087151930,0,-25,-10,-6,-3,-20,-54,-71,-25
1491087151930,0,11,2,5,3,-17,13,75,6
1491087151966,1,10,2,1,3,-13,13,43,14
1491087151966,1,-4,-9,-9,-16,10,-41,0,3
1491087151967,2,1,1,5,-17,10,-9,-60,9
1491087151967,2,-34,-12,0,41,15,67,-4,-25
1491087151967,3,45,5,-8,-42,-30,-73,25,26
1491087151967,3,-12,-7,-8,19,-6,16,0,0
1491087151969,0,4,7,5,-13,11,-42,-82,-26
1491087151969,0,-21,-6,-3,-25,-23,42,53,21
1491087152004,1,14,-1,3,-1,-6,16,34,18
1491087152004,1,11,-5,-15,-12,2,-19,6,8
1491087152004,2,4,6,15,50,36,26,-30,-11
1491087152004,2,8,4,4,1,17,-20,-39,-16
1491087152005,3,3,-15,-15,-21,-25,31,62,20
1491087152005,3,21,0,-4,-13,-35,-71,-68,8
1491087152006,0,-16,-3,-8,2,13,34,52,-16
1491087152006,0,0,6,3,2,-16,-16,-18,-7
1491087152041,1,-14,-2,2,7,-2,-42,-62,-15
1491087152041,1,5,-2,-1,-2,10,42,48,6
1491087152042,2,6,-4,-8,-6,-11,-27,-34,-12
1491087152042,2,20,15,11,-10,-9,16,-2,4
1491087152043,3,-3,1,-4,4,5,-20,52,19
1491087152043,3,-21,-6,-5,-3,-6,26,-1,-13
1491087152044,0,-15,1,3,6,-1,-37,-38,-12
1491087152044,0,8,-4,4,2,-1,18,28,7
1491087152079,1,-27,-14,-5,-6,9,52,-18,-19
1491087152079,1,-13,11,6,-2,0,-33,9,-13
1491087152080,2,24,-11,-17,-21,-14,22,56,40
1491087152080,2,-13,-8,-2,35,26,-35,-81,-27
1491087152081,3,7,2,1,-17,-12,1,-60,-4
1491087152081,3,-6,-16,-8,-15,-14,24,38,21
1491087152116,0,-34,-15,-7,13,-2,-21,-2,-9
1491087152116,0,18,-2,2,-12,-18,1,-34,2
1491087152117,1,-9,1,4,18,30,10,-9,-37
1491087152117,1,-5,0,6,6,12,-1,33,17
1491087152118,2,2,-15,-9,-3,5,32,12,22
1491087152118,2,14,21,10,1,-13,-38,-61,-21
1491087152119,3,-29,-4,-1,-2,25,14,65,3
1491087152119,3,12,11,7,15,-2,0,-18,-1
1491087152154,0,32,1,-3,-10,-22,2,45,23
1491087152154,0,-10,7,-10,-10,10,-5,-113,-21
1491087152154,1,5,5,-5,-17,-29,-46,92,47
1491087152154,1,-10,-4,-7,-2,-13,8,-7,-25
1491087152155,2,-6,9,1,-10,-20,-2,-31,-2
1491087152155,2,-5,4,7,18,20,-10,22,5
1491087152156,3,8,0,-3,2,15,46,-29,-45
1491087152156,3,-10,-3,-4,0,9,-32,-20,-1
1491087152229,0,-2,-5,-1,10,2,-7,2,-2
1491087152229,0,-18,-7,-5,-10,-12,14,-62,-29
1491087152230,1,9,18,5,1,6,14,74,23
1491087152230,1,10,-2,4,-2,-7,-40,-58,-2
1491087152230,2,-7,6,7,1,-4,43,12,-47
1491087152230,2,22,-3,-4,-2,28,-17,29,43
1491087152231,3,13,-3,2,9,-17,-9,-7,0
1491087152231,3,-25,-8,-15,-19,-28,8,56,11
1491087152266,0,-6,7,-2,-4,-8,7,-41,-6
1491087152266,0,0,-7,-4,-1,-1,-25,37,18
1491087152267,1,-1,-2,1,8,6,-2,-68,-26
1491087152267,1,9,-4,1,-4,3,10,-47,-33
1491087152268,2,-17,-3,7,11,17,-3,68,11
1491087152268,2,-7,-10,-8,-9,0,16,-76,-46
1491087152269,3,1,-2,1,5,4,10,68,51
1491087152269,3,-19,0,-3,1,-2,-7,-54,-6
1491087152304,0,37,-2,-6,-11,3,-11,12,36
1491087152304,0,-12,-8,-11,0,1,16,10,-8
1491087152305,1,-2,1,10,6,-6,-1,-18,5
1491087152305,1,0,-1,-1,-6,-11,8,-27,-15
1491087152305,3,3,-4,-9,15,0,-29,-68,-34
1491087152305,3,18,4,4,-18,-26,-10,78,36
1491087152306,0,-12,-7,-10,-17,-34,-2,-112,-47
1491087152306,0,1,2,1,-4,0,-5,112,49
1491087152341,1,11,-9,-11,-12,10,20,-70,7
1491087152341,1,-1,4,1,12,15,0,51,-7
1491087152342,2,5,2,5,14,25,-25,-24,2
1491087152342,2,-8,-2,-3,-7,-12,25,13,-5
1491087152343,3,-1,0,6,1,-10,-3,-56,-31
1491087152343,3,12,-2,2,12,14,-2,45,41
1491087152344,0,-26,-2,-4,-19,-39,-24,-14,-25
1491087152344,0,-18,-6,-4,-4,12,20,44,2
1491087152379,1,1,2,-2,11,38,-34,45,16
1491087152379,1,0,0,6,-9,-25,2,-86,-32
1491087152380,2,0,-6,-1,14,12,37,107,31
1491087152380,2,-19,-7,-3,4,-5,-8,-63,-27
1491087152381,3,0,8,3,1,7,-14,16,0
1491087152381,3,35,4,1,2,21,-7,12,12
1491087152381,0,-28,-2,-1,-15,-3,23,61,-5
1491087152381,0,25,0,-5,-7,-38,-21,-57,5
1491087152416,1,-21,-12,-14,-24,-39,-6,1,-28
1491087152416,1,-31,-10,-1,8,6,-13,-63,-25
1491087152417,2,6,6,-3,7,17,-10,-3,27
1491087152417,2,7,9,16,7,5,11,-1,-31
1491087152417,3,-8,-4,-7,-3,8,27,79,48
1491087152417,3,16,3,1,7,13,-1,2,16
1491087152419,0,20,9,6,-4,-6,-33,-116,-12
1491087152419,0,-24,-5,-5,-2,4,-4,91,-4
1491087152454,1,0,-8,-10,-15,-27,1,-77,-14
1491087152454,1,-24,-3,2,-2,7,3,5,-17
1491087152454,2,12,3,2,7,22,10,24,8
1491087152454,2,0,1,-5,-18,-50,-23,-11,2
1491087152457,3,-13,3,4,10,-1,-8,10,-13
1491087152457,3,7,-2,-3,-4,-6,9,2,21
1491087152457,0,2,-1,-3,17,42,26,9,-5
1491087152457,0,13,-5,2,-15,-16,3,14,25
1491087152491,1,-11,1,6,10,-3,-6,26,-9
1491087152491,1,-10,-10,-8,-17,-5,27,-29,-16
1491087152492,2,5,4,-2,-5,-22,-41,-12,2
1491087152492,2,44,11,3,22,32,19,27,36
1491087152492,3,14,5,2,-11,-23,-8,-41,-7
1491087152492,3,-14,1,7,6,34,-7,3,-22
1491087152494,0,9,-6,-5,2,-26,2,12,41
1491087152494,0,-21,-13,-19,-32,-37,-9,-65,-10
1491087152529,1,-20,-10,-7,-2,-4,-13,18,-23
1491087152529,1,-3,-3,3,1,11,0,6,11
1491087152530,2,23,7,11,28,15,0,-47,-16
1491087152530,2,-10,-1,5,3,41,31,62,-9
1491087152530,3,2,-1,0,-5,-3,8,-8,11
1491087152530,3,6,-2,-11,-23,-53,-22,-21,-29
1491087152531,0,-20,-7,-1,7,0,18,32,1
1491087152531,0,-11,-8,-8,-14,2,6,-39,14
1491087152566,1,11,-2,-1,10,9,-65,-3,-18
1491087152566,1,5,3,-3,-9,-5,48,33,23
1491087152567,2,-2,-3,1,11,-2,24,38,7
1491087152567,2,13,3,-5,-7,4,-26,-33,-17
1491087152567,3,-33,3,5,-18,-14,26,-34,2
1491087152567,3,5,-4,-6,14,15,20,28,-5
1491087152569,0,-7,-8,-7,-8,-16,-15,-23,-14
1491087152569,0,-23,-5,4,21,14,-14,-26,-26
1491087152604,1,0,-4,7,6,19,27,14,17
1491087152604,1,11,1,0,19,15,-27,-57,-7
1491087152604,2,-26,-10,-6,-14,16,41,22,-19
1491087152604,2,37,5,8,28,21,-50,-26,12
1491087152605,3,0,-1,-1,-18,-42,-23,13,20
1491087152605,3,-29,-2,-5,-10,-15,4,-22,-33
1491087152606,0,9,-6,-11,-35,-28,3,31,-13
1491087152606,0,5,1,2,-13,-7,-6,-11,25
1491087152641,1,-4,-7,-4,19,25,3,-28,-23
1491087152641,1,11,3,6,6,5,9,22,17
1491087152642,2,-23,-2,1,-8,0,-6,-83,-42
1491087152642,2,2,6,7,33,34,-20,80,31
1491087152643,3,4,-1,-2,-12,-32,5,-3,-3
1491087152643,3,-12,-6,-13,-14,-4,-18,38,10
1491087152716,0,-19,-2,-7,-40,-33,-14,-49,-16
1491087152716,0,0,5,1,12,6,41,-6,-19
1491087152717,1,4,-3,-4,16,26,-8,-34,1
1491087152717,1,-5,1,2,-9,-38,-31,-2,-19
1491087152718,2,25,-4,-5,2,8,16,-15,11
1491087152718,2,20,-2,-2,0,7,20,121,35
1491087152719,3,9,6,2,-11,-14,-6,-15,8
1491087152719,3,-10,-5,-2,4,20,-2,-49,-9
1491087152754,0,-9,10,7,5,3,5,24,0
1491087152754,0,-19,-6,-5,2,-18,-14,-11,-26
1491087152755,1,0,1,-4,-12,-7,-4,-49,-31
1491087152755,1,8,-2,-7,-31,-18,-14,2,2
1491087152755,2,4,0,-2,29,22,64,90,51
1491087152755,2,-19,-3,-3,-22,-40,-68,-63,-14
1491087152756,0,-27,-9,-3,-2,12,-20,22,-11
1491087152756,0,-12,-4,2,0,-1,20,-38,-9
1491087152791,1,0,-3,1,0,-6,-12,-11,-13
1491087152791,1,9,-1,-2,-5,3,4,-21,3
1491087152792,2,2,1,4,17,40,-23,-28,-24
1491087152792,2,27,8,7,-9,-19,37,38,46
1491087152793,0,-8,-7,-6,-16,-38,-37,-40,-17
1491087152793,0,-17,-4,-4,-24,10,36,-1,-25
1491087152794,1,-1,1,2,13,1,-22,-12,6
1491087152794,1,13,1,-3,18,8,25,58,29
1491087152831,2,-5,-5,-1,-11,-11,-38,-10,-3
1491087152831,2,11,6,3,15,-5,-5,-20,-8
1491087152836,3,0,-6,-3,-15,16,32,35,9
1491087152836,3,-16,8,5,15,24,-9,-90,-59
1491087152837,0,11,-1,-2,-16,-27,-31,40,46
1491087152837,0,0,-9,-12,-19,-34,14,-48,3
1491087152838,1,8,-7,-2,4,5,-8,43,13
1491087152838,1,-21,-10,-5,-7,-12,-31,-66,-13
1491087152866,2,0,8,5,-14,-4,23,4,-40
1491087152866,2,-17,-5,-7,9,18,26,85,32
1491087152867,3,0,4,2,2,17,-15,-7,-4
1491087152867,3,-6,2,4,-6,-2,-1,14,4
1491087152867,0,2,-2,1,19,9,9,-60,-30
1491087152867,0,-1,-2,3,-2,19,-21,-12,8
1491087152869,1,1,-5,-5,-9,-15,-1,14,-10
1491087152869,1,-21,-3,-7,-12,-55,-28,-72,-28
1491087152904,2,15,3,1,-10,4,5,6,15
1491087152904,2,-10,-9,-5,-8,-6,5,63,4
1491087152908,3,-26,-5,-5,9,23,70,0,-15
1491087152908,3,15,6,10,33,30,-59,20,14
1491087152909,0,22,-2,-13,-36,-26,17,-50,-1
1491087152909,0,-17,-4,-6,-13,-7,-28,-56,-33
1491087152909,1,4,2,4,-34,-31,-28,-32,-17
1491087152909,1,-16,3,4,16,17,15,72,60
1491087152941,2,31,1,-2,36,28,9,8,15
1491087152941,2,10,10,8,-15,-22,-14,-41,-21
1491087152942,3,-10,-2,-9,-4,-8,27,88,41
1491087152942,3,12,2,3,-9,3,-7,-14,-10
1491087152943,0,-48,-1,2,7,15,11,-28,-25
1491087152943,0,9,0,-3,13,4,-23,-21,-9
1491087152979,1,-13,-1,-2,0,-19,-4,-35,-16
1491087152979,1,24,-4,-1,-5,-2,15,-4,-3
1491087152980,2,-17,-5,-1,3,19,23,90,30
1491087152980,2,-3,-9,-9,-12,-14,-10,-9,-24
1491087152981,3,-1,9,8,20,28,0,-76,4
1491087152981,3,6,-3,-5,-11,-10,22,88,36
1491087152983,0,0,3,4,1,-15,-18,-24,14
1491087152983,0,-10,-1,2,1,14,2,8,4
1491087153016,1,7,-10,-14,-5,12,-19,6,-6
1491087153016,1,-16,-2,-3,-1,-12,11,-88,-38
1491087153017,2,0,8,6,-3,-14,-14,46,20
1491087153017,2,1,-4,-2,-3,11,-8,-20,-11
1491087153018,3,-16,0,4,-1,5,30,4,-16
1491087153018,3,12,0,-2,-4,-4,9,-13,-20
1491087153054,0,-5,-11,-6,8,-18,-31,-22,10
1491087153054,0,0,-4,-1,24,19,-28,8,-16
1491087153060,1,32,4,0,-26,-20,25,44,36
1491087153060,1,-30,-5,-6,-20,-9,-14,-47,-40
1491087153091,2,12,-8,-7,5,-14,38,6,9
1491087153091,2,-18,-6,-6,-13,-6,-64,-82,-27
1491087153094,3,7,-6,-3,32,44,22,91,46
1491087153094,3,8,6,6,-7,7,-23,-103,-40
1491087153095,0,19,3,-3,-23,-43,14,53,47
1491087153095,0,-28,-19,-17,-4,-28,42,35,-9
1491087153095,1,4,2,1,0,-11,-16,-49,-9
1491087153095,1,25,-2,-1,0,8,-6,23,34
1491087153129,2,-22,1,-1,3,32,-21,-78,-39
1491087153129,2,-3,9,6,11,6,25,17,2
1491087153130,3,-20,-7,-4,-3,-7,-39,-25,-16
1491087153130,3,11,1,2,11,15,74,32,-6
1491087153131,0,12,4,6,-4,6,-74,-8,14
1491087153131,0,13,-2,-3,5,-20,13,-100,-31
1491087153132,1,-6,1,-1,-19,-18,-35,52,30
1491087153132,1,10,-5,-11,-9,0,36,77,31
1491087153166,2,-5,-6,-3,-3,0,-13,-7,-9
1491087153166,2,9,9,8,1,18,29,-23,-14
1491087153169,3,-6,12,12,27,7,-14,-103,-52
1491087153169,3,-10,-7,0,-2,-19,-24,75,43
1491087153170,1,1,-5,-1,15,-8,19,-21,-3
1491087153170,1,-12,14,9,-2,-8,-22,10,-12
1491087153170,2,-10,-3,-5,5,-3,25,-11,-22
1491087153170,2,1,-8,-8,-25,-27,-31,-32,-14
1491087153204,3,32,1,-6,0,11,12,127,49
1491087153204,3,-16,-6,-5,-1,-3,-13,-46,-7
1491087153205,0,1,-1,-1,8,28,12,-1,19
1491087153205,0,-14,4,1,7,5,39,14,0
1491087153206,1,-7,-4,3,-3,-1,-18,-52,-21
1491087153206,1,10,-5,-2,5,-20,-26,-39,-24
1491087153207,2,5,2,8,31,19,-1,-67,-28
1491087153207,2,-37,-15,-10,-24,-9,-11,61,33
1491087153241,3,8,6,0,-13,-13,-3,-5,15
1491087153241,3,-27,-6,-2,9,-5,20,-72,-27
1491087153242,0,29,-2,-2,10,-8,-29,71,23
1491087153242,0,4,6,5,17,23,20,22,-17
1491087153243,1,47,0,-1,-2,3,33,29,30
1491087153243,1,-17,-3,-8,-15,1,-39,-121,-50
1491087153244,2,18,12,10,1,18,21,88,41
1491087153244,2,-4,4,9,32,41,-7,-28,9
1491087153279,3,-27,-7,-9,-29,-40,15,53,8
1491087153279,3,-10,1,-4,-7,-19,-14,-6,-6
1491087153280,0,-20,-9,-4,-7,-10,-18,-75,-32
1491087153280,0,24,-7,-8,-13,-8,28,84,36
1491087153281,1,-9,0,3,11,18,-17,-43,-34
1491087153281,1,0,-2,1,10,2,0,43,30
1491087153281,2,-5,0,0,-17,-33,4,-125,-67
1491087153281,2,24,2,4,-2,0,-17,78,47
1491087153354,3,-27,-4,-9,-5,10,25,44,-14
1491087153354,3,3,0,-3,-7,8,35,56,11
1491087153355,0,5,1,-2,-10,6,-54,-56,-21
1491087153355,0,0,-7,-5,-3,-11,24,-37,-5
1491087153355,1,-22,-10,-2,21,-14,-17,-20,-19
1491087153355,1,36,3,-2,-6,4,10,39,29
1491087153356,2,1,10,7,-8,-12,9,-97,-17
1491087153356,2,23,-2,-4,-6,-13,-42,45,35
1491087153391,3,-35,-3,-3,-4,-6,-15,5,2
1491087153391,3,-18,-9,-6,-3,3,12,-40,-36
1491087153393,0,3,-2,-1,16,29,30,30,14
1491087153393,0,-7,2,4,-2,-12,-52,-128,-55
1491087153394,0,-17,-4,-4,2,-9,-8,38,-6
1491087153394,0,8,1,-3,3,-9,2,-35,6
1491087153394,1,8,0,8,1,-4,-6,-88,-40
1491087153394,1,-18,-8,-7,-12,8,-5,41,26
1491087153429,2,-6,-3,-5,0,-22,-8,-42,-46
1491087153429,2,-26,-2,1,7,15,24,11,14
1491087153430,3,29,-5,-7,-4,10,-7,37,31
1491087153430,3,18,-1,1,0,-2,-31,69,27
1491087153434,0,-6,-6,-7,-4,-10,10,-84,-42
1491087153434,0,-13,4,3,5,10,23,59,7
1491087153435,1,11,0,-3,-12,-1,-48,-44,-6
1491087153435,1,-22,-10,-4,3,5,14,-13,-17
1491087153466,2,21,8,7,8,22,6,1,27
1491087153466,2,10,9,2,1,-52,-31,-12,-15
1491087153467,3,21,-6,-8,12,12,32,9,5
1491087153467,3,-5,8,6,-10,-1,-13,-58,-1
1491087153467,0,-18,-12,-12,-7,-1,-3,18,-8
1491087153467,0,-3,-1,-4,-3,-11,36,81,33
1491087153469,1,-15,-2,-2,-2,3,-79,7,2
1491087153469,1,28,-1,4,15,7,20,-67,1
1491087153504,2,-5,-14,-9,5,23,10,-45,-25
1491087153504,2,27,3,1,1,1,5,14,23
1491087153505,3,-29,1,1,-22,-24,4,35,-15
1491087153505,3,-8,-4,-2,1,-4,-20,-31,-4
1491087153506,0,-25,2,3,-10,-24,-15,68,3
1491087153506,0,2,-11,-9,-8,-4,25,-28,-15
1491087153507,1,-14,0,2,3,8,8,-86,-51
1491087153507,1,-3,5,3,-11,6,-24,112,65
1491087153541,2,-8,-4,-4,10,16,22,18,8
1491087153541,2,-12,-2,5,0,2,-2,-40,-29
1491087153542,3,7,3,4,-8,-3,11,39,23
1491087153542,3,-11,-1,-6,3,1,-16,-46,-30
1491087153543,0,1,-6,-6,-8,-6,-3,-18,7
1491087153543,0,-15,3,5,-17,-14,10,-22,-23
1491087153544,1,5,-5,-12,4,-7,-13,-17,13
1491087153544,1,-4,-1,-3,-6,-16,-19,-25,-11
1491087153580,2,27,7,3,6,17,14,107,40
1491087153580,2,14,-3,-2,2,5,-10,-86,-20
1491087153580,3,-1,-1,0,-5,0,47,-30,2
1491087153580,3,1,-2,5,20,-4,-43,78,5
1491087153581,0,-7,7,-8,-30,-13,18,-27,-8
1491087153581,0,-33,-1,3,-3,-4,-32,1,-7
1491087153582,1,16,0,1,5,16,-31,-98,-27
1491087153582,1,-2,-4,-4,-13,3,41,49,20
1491087153616,2,-25,-4,7,4,-15,-8,-28,-13
1491087153616,2,-9,-8,-8,9,4,23,63,13
1491087153617,3,-10,1,0,-2,27,-19,-120,-40
1491087153617,3,23,5,3,-4,-31,-19,49,21
1491087153618,0,6,-6,-3,1,-8,-9,43,1
1491087153618,0,-5,-8,-13,-8,2,0,-16,-35
1491087153619,1,-8,-2,4,3,-7,-1,21,39
1491087153619,1,7,3,6,13,50,43,-113,-58
1491087153654,2,-10,3,7,6,-9,-24,52,39
1491087153654,2,-1,-13,-14,-9,0,-8,76,21
1491087153654,3,9,-4,-2,1,-9,5,0,0
1491087153654,3,-11,-1,-3,-21,-36,14,10,3
1491087153655,0,12,2,-2,-28,-19,-7,-107,-19
1491087153655,0,9,2,7,31,21,-20,-20,-18
1491087153691,1,-3,-15,-13,-31,-7,13,-46,-5
1491087153691,1,-18,9,11,43,35,-3,62,15
1491087153695,2,17,-3,-5,-6,-7,-15,-73,-21
1491087153695,2,-10,5,2,-19,-11,23,34,-1
1491087153696,3,9,2,-1,4,-5,17,43,13
1491087153696,3,0,-5,-2,-1,-3,-28,0,-3
1491087153697,0,-20,-6,1,17,27,16,44,6
1491087153697,0,-7,-4,-4,0,-11,-23,7,-1
1491087153729,1,5,1,-4,-11,-19,11,-35,-18
1491087153729,1,-20,-10,-7,-7,1,-4,13,-7
1491087153730,2,5,5,7,24,29,3,16,10
1491087153730,2,0,-9,-13,-35,-46,-24,-20,2
1491087153730,3,15,13,14,22,22,-26,-59,-12
1491087153730,3,5,-6,-8,-33,-26,27,29,-7
1491087153731,0,-12,-7,-8,-8,0,-14,-2,-9
1491087153731,0,13,7,2,11,0,11,32,42
1491087153766,1,3,-9,-10,-6,-13,2,27,8
1491087153766,1,-5,4,2,14,28,-6,-14,-14
1491087153767,2,-5,0,1,4,-3,5,-51,-29
1491087153767,2,1,2,-3,-11,-12,-19,-2,7
1491087153804,3,-21,-5,-1,-7,-5,0,25,-18
1491087153804,3,-4,-6,-6,0,-2,-22,-128,-30
1491087153804,0,-7,-2,-2,-7,1,17,122,48
1491087153804,0,-7,-4,0,7,18,-6,-73,-40
1491087153805,1,-3,1,0,6,-7,11,74,38
1491087153805,1,6,1,1,-23,-8,37,-5,-5
1491087153806,2,-1,5,-2,14,-20,-19,-41,-3
1491087153806,2,-10,0,4,31,29,24,-7,-22
1491087153841,3,6,0,-4,-10,7,-46,5,-7
1491087153841,3,2,0,1,6,7,7,84,48
1491087153842,0,-6,-7,-1,-2,-15,14,-36,-20
1491087153842,0,10,9,8,-1,4,-25,13,21
1491087153842,1,-18,-9,-15,-37,-38,3,-24,-34
1491087153842,1,-19,-8,-8,3,5,-4,-11,-3
1491087153843,2,-9,-5,-3,5,2,-5,2,-14
1491087153843,2,2,0,3,7,11,7,-12,0
1491087153879,3,5,-1,3,15,18,4,-20,-11
1491087153879,3,10,6,7,4,-30,13,10,3
1491087153880,0,26,-3,-9,-15,11,-36,-5,19
1491087153880,0,-23,-7,-6,-7,4,9,-17,-3
1491087153881,1,-11,2,2,2,-4,5,75,31
1491087153881,1,0,-7,-7,-5,-10,-1,-52,-39
1491087153881,2,-4,4,9,25,29,28,-70,-27
1491087153881,2,14,-4,-10,-20,-11,-23,95,47
1491087153916,3,12,1,-1,-6,-23,-7,-47,-9
1491087153916,3,-15,-6,-4,-10,-15,-12,-67,-32
1491087153917,0,4,-6,-1,-10,-7,16,87,30
1491087153917,0,8,5,2,-5,6,33,-19,-7
1491087153917,1,-14,-4,3,11,5,-23,9,15
1491087153917,1,-6,1,-2,9,29,0,17,7
1491087153919,2,25,1,-4,-20,-11,-3,-30,-10
1491087153919,2,-14,3,5,18,13,-6,-18,-7
1491087153991,3,7,-1,3,9,-17,22,-21,-39
1491087153991,3,23,5,0,-7,6,7,43,39
1491087153992,0,-19,-6,-8,-2,-7,-34,-19,-27
1491087153992,0,13,1,2,-15,-18,3,-76,-17
1491087153993,1,-3,4,-2,10,22,21,91,30
1491087153993,1,10,-6,0,5,18,8,52,29
1491087154029,2,2,-3,1,5,1,-11,-33,-11
1491087154029,2,-38,9,5,12,-14,9,-98,-55
1491087154030,3,22,-6,-6,-12,-17,-40,36,35
1491087154030,3,7,-4,-8,-18,-9,7,-8,-4
1491087154032,0,-27,7,1,-4,-10,-3,-2,-16
1491087154032,0,30,-2,1,-2,7,11,-45,-7
1491087154040,1,-17,-4,0,6,17,15,18,20
1491087154040,1,-15,-1,4,8,-10,-31,-42,-13
1491087154066,3,9,4,0,-4,4,-4,-30,-3
1491087154066,3,-4,-1,-1,-5,2,-4,-24,-11
1491087154067,0,-19,-2,2,1,-27,-29,3,12
1491087154067,0,24,-7,-18,-6,-12,42,72,31
1491087154068,1,21,15,11,1,-2,-8,-10,-18
1491087154068,1,-23,-7,-4,-10,-1,-28,8,5
1491087154069,3,-7,-6,-6,1,-1,16,-5,-7
1491087154069,3,25,6,4,1,2,-7,-57,-17
1491087154104,0,9,2,-7,-14,10,15,95,30
1491087154104,0,10,2,-3,4,-13,-25,-13,25
1491087154105,1,-22,-10,-8,-2,-14,10,-46,-32
1491087154105,1,12,7,0,-4,-29,-19,-25,-12
1491087154105,3,-23,1,-1,-13,-12,26,68,33
1491087154105,3,-24,-11,-8,0,-3,13,58,-10
1491087154141,0,11,-10,-13,-31,-21,-10,9,1
1491087154141,0,-21,0,1,17,14,-5,-82,-32
1491087154142,1,18,0,6,9,17,-5,64,13
1491087154142,1,-23,-11,-8,-3,-2,21,-16,-15
1491087154143,2,-4,1,5,-3,-10,-42,-41,-4
1491087154143,2,16,2,0,-8,-15,23,82,36
1491087154143,3,-40,-8,-1,5,-2,-14,-107,-40
1491087154143,3,4,5,5,8,23,-7,-2,-25
1491087154179,0,-3,-10,-4,-11,-2,-11,16,37
1491087154179,0,7,9,6,-9,-26,12,71,5
1491087154180,1,-11,-4,-7,-4,0,23,-25,-30
1491087154180,1,0,2,4,0,-7,-10,-85,-27
1491087154183,2,14,6,5,10,8,-1,84,51
1491087154183,2,-28,-7,-10,-3,10,-8,64,0
1491087154184,3,-4,-8,-7,-3,-3,-2,-77,-42
1491087154184,3,8,4,2,7,9,-4,77,42
1491087154255,0,-17,0,2,6,8,-4,-100,-29
1491087154255,0,1,-1,10,15,19,2,52,11
1491087154256,1,20,2,-3,-12,-12,3,50,44
1491087154256,1,-2,-2,-7,-12,-43,-28,-68,-23
1491087154256,2,6,6,-3,-5,-16,-9,8,-14
1491087154256,2,-10,-5,0,-1,-7,6,-81,-2
1491087154257,3,-3,-3,-3,-1,7,-20,-11,-2
1491087154257,3,4,2,6,14,34,35,58,29
1491087154291,0,4,-2,-2,6,0,47,-33,-21
1491087154291,0,-15,5,1,-20,-8,-44,-49,-30
1491087154292,1,-4,-3,-3,6,8,-16,43,45
1491087154292,1,20,-1,-10,-9,-27,-22,-51,-33
1491087154292,2,-10,-2,3,5,6,5,33,15
1491087154292,2,36,-6,-4,-1,12,29,84,41
1491087154293,1,7,-4,-2,-2,-7,10,38,14
1491087154293,1,-14,-3,-7,-3,-4,-4,-80,-41
1491087154329,2,8,8,4,2,6,-14,22,-6
1491087154329,2,10,0,-8,-22,-31,14,61,27
1491087154330,3,-21,-2,-1,4,0,-8,19,-19
1491087154330,3,19,-10,-6,1,5,1,-10,3
1491087154330,1,31,-3,-5,2,6,-13,8,25
1491087154330,1,-13,4,4,-5,-18,-4,-79,-39
1491087154331,2,8,-14,-10,-14,-1,-3,91,69
1491087154331,2,-29,-2,-8,-2,-7,4,-53,-44
1491087154366,3,10,10,11,8,14,-11,-45,0
1491087154366,3,-22,-3,-3,-1,-23,0,50,3
1491087154367,0,21,3,2,-3,-22,6,-123,-41
1491087154367,0,-23,-15,-7,4,15,-18,17,1
1491087154367,1,20,0,0,-9,-15,-4,-44,1
1491087154367,1,-10,4,0,-3,2,-11,23,12
1491087154369,2,5,2,0,-7,5,19,68,38
1491087154369,2,0,-5,-5,-1,-16,-8,-27,-18
1491087154404,3,-1,-3,-1,7,19,29,33,0
1491087154404,3,-23,3,5,0,16,-9,-45,-56
1491087154404,0,0,2,2,6,4,-16,72,59
1491087154404,0,-8,-15,-21,-15,-16,-12,-65,-3
1491087154405,1,27,2,0,9,3,3,-28,-10
1491087154405,1,6,-1,5,-8,-14,-7,23,24
1491087154406,2,3,-8,-7,3,-17,-11,-66,-44
1491087154406,2,-3,2,2,-12,4,3,-9,-39
1491087154441,3,-25,-6,-8,-8,-14,-9,-1,24
1491087154441,3,16,5,-4,-2,14,20,39,20
1491087154443,0,-34,-4,-3,6,11,21,48,-10
1491087154443,0,-1,2,3,8,3,-25,-8,5
1491087154444,1,0,4,-4,-16,-21,6,-99,-40
1491087154444,1,8,-3,-5,-5,3,23,85,42
1491087154445,2,-11,-9,-3,-6,-1,-15,-23,-14
1491087154445,2,-5,10,11,19,12,7,-94,-31
1491087154479,3,-5,-8,-12,-12,-20,-7,64,0
1491087154479,3,-11,0,3,-4,-3,-6,31,28
1491087154481,0,5,2,2,-5,-9,36,-12,-1
1491087154481,0,23,-3,0,0,-10,-20,10,18
1491087154482,1,2,2,3,11,20,-13,-50,-20
1491087154482,1,6,-4,-2,3,3,1,42,37
1491087154483,2,-5,-7,-3,1,29,30,42,9
1491087154483,2,6,4,-1,0,-12,-23,-45,-2
1491087154592,3,-24,-7,-5,5,-7,-4,24,-6
1491087154592,3,13,1,-2,-15,-16,-7,-88,-24
1491087154593,0,0,6,5,-15,13,18,-24,-26
1491087154593,0,-4,-1,-3,16,11,-15,61,24
1491087154594,1,4,-4,-6,0,-29,10,-31,4
1491087154594,1,20,2,-3,4,3,-10,21,-3
1491087154595,2,-8,3,0,0,-23,-32,-75,-34
1491087154595,2,-18,-18,-16,-17,5,27,63,39
1491087154629,3,-16,0,5,10,41,24,80,18
1491087154629,3,-6,-2,2,0,9,15,-80,-4
1491087154631,0,-10,-7,-10,-14,-41,-53,-52,-48
1491087154631,0,8,5,2,-9,-25,-2,-73,-15
1491087154632,1,-16,0,2,-1,-6,-20,42,4
1491087154632,1,-9,-7,-4,12,19,23,10,-15
1491087154633,3,-11,3,-2,-27,-13,9,63,15
1491087154633,3,11,0,1,13,3,2,10,10
1491087154704,0,21,0,2,9,4,-4,-67,-15
1491087154704,0,-23,-3,2,-4,2,4,59,-12
1491087154705,1,18,-1,-3,1,-6,6,-33,2
1491087154705,1,-16,-2,0,-7,-10,-13,54,5
1491087154706,3,-22,-2,-1,2,10,-11,0,4
1491087154706,3,-10,6,7,7,15,0,-84,-30
1491087154707,0,2,-4,-4,0,-3,33,127,75
1491087154707,0,-15,-1,-3,-21,-21,-49,-78,-41
1491087154779,1,34,6,-1,-5,-27,-6,-28,-4
1491087154779,1,-13,-15,-14,-11,-5,-18,-36,5
1491087154781,2,-9,8,8,7,2,10,-61,-45
1491087154781,2,-12,1,-1,1,16,21,53,-1
1491087154782,3,10,-4,0,5,14,0,-2,20
1491087154782,3,-10,3,6,13,2,-2,5,-9
1491087154783,2,21,0,0,-6,14,3,88,73
1491087154783,2,3,-5,0,5,7,5,-85,-34
1491087154816,3,0,2,8,8,0,-24,50,16
1491087154816,3,-1,-5,-15,-9,-27,-20,-55,-16
1491087154817,0,3,-2,-9,-21,-12,9,49,5
1491087154817,0,2,-1,2,-1,0,10,-3,1
1491087154817,2,-46,-8,-6,12,2,6,-51,-73
1491087154817,2,16,4,6,-6,18,75,81,36
1491087154819,2,4,10,7,2,23,10,-24,-2
1491087154819,2,18,2,15,24,25,-14,-8,-18
1491087154891,3,-9,5,3,-6,-6,-1,6,-1
1491087154891,3,2,-9,-13,-28,-23,13,-3,-2
1491087154892,0,15,-2,2,4,-2,-6,-72,9
1491087154892,0,-1,-2,-4,10,-1,-18,5,-36
1491087154892,1,-11,11,14,22,8,77,92,23
1491087154892,1,-22,-12,-5,-56,-8,-86,-54,-33
1491087154893,2,15,-6,-13,12,-31,53,108,64
1491087154893,2,9,-7,-20,22,22,12,55,4
1491087154929,3,5,-1,23,105,75,35,-97,14
1491087154929,3,-57,-11,-27,-75,-81,-35,-32,-28
1491087154930,0,21,-4,-22,-105,-107,-57,16,-27
1491087154930,0,-28,0,-6,6,33,27,-115,-84
1491087154931,1,6,-12,-24,13,-45,-23,127,46
1491087154931,1,-13,6,13,47,41,66,-79,-4
1491087154931,1,25,2,-12,-46,-88,49,-118,-54
1491087154931,1,15,-19,-41,-9,-23,-95,76,4
1491087154966,2,-84,-26,-28,-53,2,120,40,-68
1491087154966,2,39,6,15,-11,5,-118,-81,18
1491087154967,3,-26,-5,9,54,53,27,-118,-16
1491087154967,3,45,20,44,94,92,95,33,13
1491087154967,1,-55,-4,7,-21,21,47,73,-7
1491087154967,1,34,1,-20,-55,-118,58,-82,-18
1491087154968,2,-3,-10,-10,19,127,-100,63,24
1491087154968,2,-23,-10,-15,6,-89,109,-20,-38
1491087155004,3,-23,8,11,41,-59,-21,54,-41
1491087155004,3,78,33,20,-22,-17,127,127,94
1491087155005,0,28,35,50,69,48,-74,-5,-2
1491087155005,0,21,13,-5,-56,-93,55,61,27
1491087155005,1,-89,-49,-49,-93,-78,34,-45,-119
1491087155005,1,-42,-17,-19,-10,26,-71,41,36
1491087155006,2,47,11,26,52,94,86,33,9
1491087155006,2,-8,27,29,34,-89,-128,-89,-27
1491087155041,3,2,-18,-18,3,33,-19,-53,-25
1491087155041,3,-32,-11,4,41,89,-14,-69,9
1491087155042,0,-16,-7,-7,-54,-75,-28,-69,-63
1491087155042,0,1,-4,1,30,-25,89,6,31
1491087155042,1,9,4,-9,14,-19,-78,56,55
1491087155042,1,-38,-9,-1,37,57,43,17,-46
1491087155043,2,40,-4,-7,-9,44,-66,-72,-7
1491087155043,2,-13,22,37,-14,12,67,127,24
1491087155080,3,37,18,-14,-105,24,-5,-36,44
1491087155080,3,-36,-26,-42,27,-59,-128,14,-76
1491087155082,0,-47,-15,-4,8,-88,127,55,17
1491087155082,0,-10,-1,21,90,126,8,28,-16
1491087155082,1,14,8,-15,-38,-2,-48,120,43
1491087155082,1,50,-7,-26,-76,-77,24,-60,-36
1491087155083,2,-44,1,11,38,-56,57,-39,13
1491087155083,2,32,-3,12,-13,82,-22,-115,-17
1491087155116,3,5,22,38,38,3,25,61,64
1491087155116,3,-21,4,4,-53,-45,14,35,28
1491087155118,0,28,-19,-49,33,-63,-3,-68,-35
1491087155118,0,-63,-8,-12,-4,65,-100,79,-50
1491087155119,1,-9,-4,34,80,61,127,-84,-30
1491087155119,1,57,34,38,-33,25,51,27,51
1491087155120,2,-68,-43,-72,-128,-120,-68,-55,4
1491087155120,2,-38,-21,-34,16,35,76,-55,8
1491087155155,3,92,39,29,95,-20,-52,76,41
1491087155155,3,-46,1,44,118,31,-12,-84,-40
1491087155157,0,72,23,28,-39,-41,80,60,13
1491087155157,0,-79,-40,-55,-96,-20,-87,81,59
1491087155159,1,50,8,8,-23,28,63,-128,-47
1491087155159,1,-21,6,-29,19,15,77,112,37
1491087155160,2,-7,-17,1,24,39,-128,-67,-47
1491087155160,2,64,18,25,15,-34,64,35,46
1491087155193,3,-25,10,47,36,-43,54,71,23
1491087155193,3,9,8,-29,-86,-81,-21,113,73
1491087155194,0,10,-16,-37,-32,-84,-97,-66,-93
1491087155194,0,-19,-26,-24,28,25,118,64,-43
1491087155195,1,-13,11,48,118,36,6,49,-35
1491087155195,1,-47,5,28,37,-68,-128,-57,-4
1491087155196,2,15,21,13,-53,98,106,127,42
1491087155196,2,42,-9,-46,-88,-106,-67,-128,-35
1491087155267,3,-75,-56,-66,-32,43,79,-114,-79
1491087155267,3,14,15,47,127,118,-64,-74,-16
1491087155269,0,-98,-43,-31,-67,-3,-17,-5,-8
1491087155269,0,26,29,36,26,-90,119,55,28
1491087155270,1,14,-16,-30,-88,-30,-128,-46,-19
1491087155270,1,-16,-20,-47,-71,68,-32,-62,-16
1491087155271,2,17,0,31,127,67,84,-94,-35
1491087155271,2,14,10,30,31,24,-128,52,55
1491087155304,3,-36,0,24,74,65,85,-46,-63
1491087155304,3,-39,-7,-21,-98,-118,75,76,2
1491087155306,0,5,-20,-38,-31,-80,-121,-69,2
1491087155306,0,-2,14,1,-34,-23,-25,79,-35
1491087155307,1,97,-1,-9,20,85,78,7,58
1491087155307,1,-22,14,41,2,32,4,75,-12
1491087155309,2,39,26,27,-16,-80,67,127,127
1491087155309,2,-9,-5,-22,-52,-104,-99,-72,0
1491087155341,3,-79,0,-7,-89,-92,47,11,-65
1491087155341,3,50,-32,-108,-115,-47,-83,38,-37
1491087155343,0,29,4,4,39,20,9,127,101
1491087155343,0,18,-28,6,76,107,78,-46,6
1491087155344,2,-41,6,-10,-8,-24,-31,48,-76
1491087155344,2,28,7,21,56,34,91,-118,-47
1491087155345,3,-14,-16,3,46,-43,2,19,53
1491087155345,3,-18,-35,-48,-70,18,15,-54,-55
1491087155380,0,-11,-2,-5,-12,3,82,-115,-6
1491087155380,0,-50,-22,-21,-49,-105,-120,-28,-56
1491087155382,1,58,12,-8,-75,-79,89,21,61
1491087155382,1,-23,17,59,114,51,-57,-81,-13
1491087155383,2,-3,5,36,77,127,45,70,-17
1491087155383,2,3,7,-2,-77,-68,61,-54,46
1491087155384,3,-48,-26,-33,-74,-128,-120,31,-60
1491087155384,3,12,-3,5,38,58,127,118,43
1491087155454,0,5,-4,-16,-43,7,-128,-104,-30
1491087155454,0,-11,-3,-26,-55,-31,23,59,22
1491087155455,1,6,18,50,77,100,54,31,-12
1491087155455,1,0,-10,-61,-116,-103,-50,-117,-49
1491087155457,2,-15,-1,22,19,-18,71,127,22
1491087155457,2,11,30,23,27,32,-14,-10,1
1491087155458,3,-9,-6,1,18,66,-48,-106,-23
1491087155458,3,-19,8,38,63,67,61,63,16
1491087155492,0,31,11,-6,-24,-62,8,-28,47
1491087155492,0,-5,5,40,92,127,27,-42,-9
1491087155493,1,-26,-17,-49,-118,-128,-21,15,-31
1491087155493,1,2,21,79,40,7,127,67,3
1491087155530,2,2,-22,-90,-126,-90,-116,-102,11
1491087155530,2,14,-15,-29,-78,0,27,32,-41
1491087155568,1,-3,13,32,107,127,8,-12,35
1491087155568,1,-8,0,3,-108,-62,-36,-12,-11
1491087155570,2,-10,-16,-52,-78,-104,-6,11,-29
1491087155570,2,1,-4,-7,71,127,-70,-82,-8
1491087155572,3,-29,-9,-59,-128,-112,-76,-50,-32
1491087155572,3,32,2,10,127,43,-33,-5,1
1491087155575,1,-23,-1,-10,25,81,-67,31,29
1491087155575,1,13,1,-13,-7,-52,-38,-53,18
1491087155604,2,-2,0,23,51,-4,78,39,-23
1491087155604,2,28,28,63,93,96,96,75,21
1491087155604,3,-15,-15,-10,-45,45,120,67,17
1491087155604,3,3,6,-36,-107,-81,-61,46,10
1491087155605,0,-18,-30,-65,-51,-48,-44,-7,-34
1491087155605,0,-12,5,3,-32,14,111,-24,6
1491087155606,0,-12,10,26,72,48,16,41,22
1491087155606,0,8,-6,-5,31,42,76,6,-12
1491087155641,1,8,7,58,127,114,71,4,37
1491087155641,1,-22,3,19,-84,-68,21,31,-8
1491087155642,2,4,-12,-36,-18,31,38,-39,-5
1491087155642,2,-10,-8,-28,-5,39,-11,22,-16
1491087155643,0,-7,1,-18,-84,-109,-85,-30,-3
1491087155643,0,-27,-7,-21,-85,-118,-64,-24,-48
1491087155644,1,31,17,15,11,83,-34,10,46
1491087155644,1,-9,-19,-35,20,-5,17,-49,-43
1491087155754,2,32,27,53,53,20,-11,-27,12
1491087155754,2,-14,-12,-9,15,70,109,103,46
1491087155755,3,28,20,45,38,56,110,59,-25
1491087155755,3,-33,16,10,51,70,-52,-79,-54
1491087155755,0,7,2,-17,-48,21,14,29,1
1491087155755,0,27,24,28,72,18,-5,102,66
1491087155756,1,-12,-18,-50,-120,-48,23,26,-12
1491087155756,1,22,-3,79,127,81,85,114,32
1491087155791,2,-11,-15,-49,-91,-56,-34,-1,13
1491087155791,2,-19,-21,-65,-44,-124,-110,-125,-47
1491087155792,3,-10,-12,8,71,-15,-4,-81,-21
1491087155792,3,6,-11,8,55,56,71,66,18
1491087155792,3,-35,-17,-5,-46,-109,-71,-47,-13
1491087155792,3,0,3,-7,-56,34,31,-30,-28
1491087155794,0,2,-22,-23,-39,-71,-98,-21,14
1491087155794,0,4,-28,-9,-46,-48,-22,-24,-15
1491087155829,1,4,-34,34,29,3,-73,-84,3
1491087155829,1,30,-24,-11,5,94,73,127,90
1491087155829,2,11,-2,33,93,-46,-60,-104,-24
1491087155829,2,10,22,-6,22,76,16,-3,-1
1491087155830,3,-9,18,12,-19,-19,-17,-66,-27
1491087155830,3,-14,-8,2,4,2,-47,32,6
1491087155831,0,-27,-15,13,26,58,82,78,-2
1491087155831,0,3,-36,3,7,-44,-5,43,24
1491087155866,1,-3,-21,-40,4,-6,24,19,-12
1491087155866,1,-1,55,-26,30,-13,4,-26,-3
1491087155867,2,31,56,-27,-23,-67,-26,14,11
1491087155867,2,-18,55,40,15,-70,-17,-30,-30
1491087155868,3,-9,23,-30,20,-39,19,14,10
1491087155868,3,-5,28,-52,31,-28,-11,0,19
1491087155869,0,-4,17,-11,-39,-79,-28,-43,2
1491087155869,0,-19,0,26,35,-32,39,34,-31
1491087155904,1,78,11,9,-16,-44,24,39,60
1491087155904,1,-6,-20,-50,7,-56,-29,-2,-6
1491087155905,2,-17,-18,13,29,24,-12,-68,-29
1491087155905,2,8,12,-70,16,24,-2,-22,8
1491087155906,3,-15,-5,46,-26,-46,-15,36,18
1491087155906,3,26,-9,-24,-27,-32,-21,-8,5
1491087155907,0,-2,10,28,32,32,25,43,3
1491087155907,0,-15,-6,-31,21,55,10,0,20
1491087155980,1,-25,-25,-34,-31,-30,-10,-5,-19
1491087155980,1,-33,14,43,-14,-9,-22,-28,-7
1491087155981,2,-15,-17,-14,25,26,14,14,-7
1491087155981,2,21,15,30,-3,16,4,20,17
1491087155982,3,-5,8,-11,-15,25,-14,-56,-21
1491087155982,3,-41,-21,23,-32,-13,-18,-32,-16
1491087155983,0,-14,-4,-10,23,32,22,43,12
1491087155983,0,42,25,8,-15,-1,-10,28,8
1491087156016,1,-21,4,-16,5,30,-6,-9,-25
1491087156016,1,-5,21,5,-25,-8,-23,-3,0
1491087156017,2,-12,116,-7,25,38,-3,28,10
1491087156017,2,-3,119,6,12,46,-9,-28,5
1491087156018,3,-10,123,-18,10,26,6,-19,-16
1491087156018,3,12,82,32,-19,-3,6,6,-5
1491087156019,1,-1,-88,-11,-23,3,-6,-13,6
1491087156019,1,-10,-122,5,1,5,13,-25,-10
1491087156054,2,-5,-111,0,-10,32,0,27,-1
1491087156054,2,-8,-105,-7,-16,15,62,-13,13
1491087156054,3,6,-12,19,35,31,37,-51,-30
1491087156054,3,12,0,-6,-9,-14,-59,-33,-13
1491087156055,1,-18,-35,28,27,83,87,-13,-16
1491087156055,1,3,-25,12,-22,28,70,107,21
1491087156056,2,-7,-45,29,12,40,100,20,-59
1491087156056,2,4,-56,-3,54,-62,-125,-107,-27
1491087156091,3,-6,-92,-2,-78,9,5,24,7
1491087156091,3,-2,-77,12,71,36,93,24,8
1491087156092,0,-1,-73,59,48,98,89,121,43
1491087156092,0,-12,-73,-47,-118,-83,-17,-71,-65
1491087156129,1,11,-104,-9,56,21,67,124,5
1491087156129,1,2,-124,43,1,-7,89,16,4
1491087156129,2,-14,-64,-106,-112,-128,-97,37,11
1491087156129,2,-6,81,67,120,127,127,-43,-6
1491087156130,3,0,79,-51,-3,-33,-18,-72,-14
1491087156130,3,1,91,36,116,113,77,23,-5
1491087156131,0,-3,66,-19,-81,14,-17,-23,4
1491087156131,0,24,61,-44,-82,-94,-80,17,23
1491087156166,1,8,60,-31,-66,-105,-1,34,22
1491087156166,1,-5,65,-60,-17,-48,-89,-93,-33
1491087156167,2,37,88,108,127,100,112,52,35
1491087156167,2,-10,24,-101,-97,-101,-95,-78,-17
1491087156168,3,-27,54,9,9,-16,109,73,-5
1491087156168,3,10,37,26,52,-43,0,-14,-9
1491087156169,0,-17,15,-74,-106,-75,-54,-22,-13
1491087156169,0,12,36,127,127,127,127,121,47
1491087156203,1,6,12,-20,-99,-86,-106,-95,-12
1491087156203,1,-8,-10,-44,-26,-81,41,21,-10
1491087156204,2,-5,27,48,62,-16,26,-39,-5
1491087156204,2,-15,-26,-39,-24,-73,-30,-33,-24
1491087156205,0,43,12,4,-65,-107,-72,-72,18
1491087156205,0,-12,-11,19,35,76,113,-53,-65
1491087156206,1,8,-1,47,105,18,0,75,54
1491087156206,1,61,-8,-91,-128,-33,-79,-55,40
1491087156241,2,-36,-25,-13,-54,-66,8,-12,-9
1491087156241,2,-23,-12,5,34,38,-23,91,-9
1491087156242,3,-41,-18,-6,-63,13,-56,38,-19
1491087156242,3,11,8,25,-41,65,26,-56,-44
1491087156243,0,40,-18,-35,-5,-76,3,56,33
1491087156243,0,4,4,-16,-54,15,-65,41,6
1491087156244,1,-7,-24,-1,79,72,60,72,14
1491087156244,1,-6,28,49,-21,-6,10,-27,28
1491087156279,2,39,34,-25,-45,-59,-63,-27,1
1491087156279,2,21,-24,27,88,57,127,16,2
1491087156280,3,5,14,-11,-70,-40,-109,-109,-10
1491087156280,3,-22,-7,-21,9,1,-128,-94,-30
1491087156280,0,-24,-3,56,127,52,117,100,-23
1491087156280,0,23,21,-4,-16,126,-57,62,67
1491087156281,1,12,-8,-9,-46,-121,48,31,-1
1491087156281,1,9,5,2,-48,-94,-52,-18,-22
1491087156316,2,-44,-20,-42,39,127,2,-67,-37
1491087156316,2,-32,-24,50,15,7,77,89,23
1491087156317,3,34,5,10,74,42,-14,-63,6
1491087156317,3,-38,-2,-37,-82,-94,-54,1,-3
1491087156353,0,3,6,5,11,-22,45,-72,-29
1491087156353,0,13,-2,-3,-56,-32,19,-42,-12
1491087156354,1,1,1,-5,26,-28,-44,-27,9
1491087156354,1,-23,11,71,80,62,127,122,20
1491087156355,2,54,8,-71,-89,-46,-128,-87,21
1491087156355,2,17,-2,-21,-106,-69,-26,73,-19
1491087156356,3,-68,-9,11,53,31,69,-73,-43
1491087156356,3,19,17,-7,-23,17,-97,-18,-10
1491087156391,0,-55,-19,30,11,19,77,-6,-16
1491087156391,0,-6,-3,-9,-11,-33,50,105,42
1491087156392,1,-18,-2,25,72,87,17,-36,-28
1491087156392,1,-4,7,-4,5,44,15,90,31
1491087156392,2,-41,-5,0,-48,-65,-55,-54,-65
1491087156392,2,51,-7,-2,47,-50,36,-7,7
1491087156393,3,-50,-11,-6,-26,42,31,101,-16
1491087156393,3,82,21,-2,6,97,76,16,83
1491087156429,0,-36,-20,-1,124,126,56,70,18
1491087156429,0,0,-2,-35,-109,-107,-128,-128,-31
1491087156429,1,31,15,34,74,79,105,50,5
1491087156429,1,-45,-30,-29,-74,-60,91,75,-20
1491087156430,2,9,-6,0,-16,-7,-35,-36,-13
1491087156430,2,20,37,44,71,72,96,34,20
1491087156466,3,80,-1,-7,-18,-2,-13,12,61
1491087156466,3,-75,-16,-22,-30,-81,-82,-29,-65
1491087156467,0,48,12,8,-46,105,117,109,75
1491087156467,0,-35,-8,-21,61,-37,-42,-30,-25
1491087156467,1,17,-6,-28,-71,-103,24,20,28
1491087156467,1,9,-5,67,127,117,88,78,11
1491087156468,2,-35,-5,-13,5,-63,-87,12,-13
1491087156468,2,-67,-16,-20,-95,-65,-17,-25,-37
1491087156505,3,7,-10,-38,43,3,22,86,-6
1491087156505,3,21,5,12,-1,-9,-89,-114,-9
1491087156506,0,-28,7,22,61,70,74,58,27
1491087156506,0,29,-2,25,87,61,69,-14,37
1491087156507,1,-49,-8,-18,-36,3,-77,-81,-44
1491087156507,1,13,21,6,-14,-61,-38,45,15
1491087156507,2,44,7,33,16,14,126,-104,-10
1491087156507,2,-33,-20,1,36,16,-74,-57,9
1491087156541,3,19,-20,-59,-58,10,14,-63,-3
1491087156541,3,-21,-37,-79,-78,-29,-18,58,-86
1491087156542,0,29,45,18,54,-14,-126,11,30
1491087156542,0,-40,-12,5,20,70,127,87,-31
1491087156542,2,14,-9,-10,9,-52,-3,-90,-38
1491087156542,2,30,14,20,54,75,-29,-36,25
1491087156543,3,56,15,28,4,17,-5,-74,10
1491087156543,3,-80,-20,-20,30,34,14,-30,-1
1491087156579,0,10,13,27,19,-86,120,117,29
1491087156579,0,-4,1,-22,-92,-33,-104,-50,-17
1491087156580,1,-36,-11,-57,-79,-32,-78,-86,-87
1491087156580,1,-32,-6,-18,4,-110,71,-3,17
1491087156580,2,-78,-19,-32,-86,-29,56,108,21
1491087156580,2,-2,-9,-1,33,57,-3,73,17
1491087156581,3,-2,-14,7,30,18,11,75,22
1491087156581,3,23,24,36,48,55,-10,-128,-16
1491087156616,0,12,-29,3,63,-1,9,93,3
1491087156616,0,43,48,8,-59,-35,-47,8,22
1491087156617,1,-106,-15,-11,-12,-69,6,78,-37
1491087156617,1,49,22,71,106,37,71,-65,18
1491087156617,2,49,-2,-49,-95,-42,15,-64,33
1491087156617,2,-66,-4,-30,-46,-44,-64,-74,-106
1491087156618,3,19,34,33,-20,50,127,34,53
1491087156618,3,26,-11,-60,-12,7,-25,15,-5
1491087156654,0,-9,0,22,22,34,88,93,-6
1491087156654,0,-9,-18,-1,3,-127,-25,-34,-8
1491087156655,1,-41,-13,18,-50,-22,63,79,34
1491087156655,1,41,33,1,21,65,-73,27,61
1491087156655,2,-53,-21,-7,-18,-5,4,8,-25
1491087156655,2,35,-12,-14,30,47,109,-57,-46
1491087156656,3,-5,17,112,24,-64,34,114,81
1491087156656,3,-42,-51,-100,-101,-35,-60,-40,-108
1491087156691,0,23,-23,-69,-17,-43,65,99,-28
1491087156691,0,-25,6,33,51,22,116,9,12
1491087156729,1,51,1,28,121,120,127,44,39
1491087156729,1,-39,2,9,-59,-87,67,118,80
1491087156729,2,-8,1,10,-10,83,-128,-128,-36
1491087156729,2,-23,-33,-40,-59,-73,86,29,-27
1491087156730,3,-16,2,-29,28,-1,-128,-128,-94
1491087156730,3,-85,-16,71,-9,-16,-1,100,-5
1491087156731,0,0,-17,-90,-34,-21,-128,-128,-106
1491087156731,0,70,25,1,-98,-97,91,121,79
1491087156767,1,-34,-22,-24,25,29,-41,26,1
1491087156767,1,116,23,28,7,-43,76,-54,-22
1491087156767,2,-110,-29,35,17,42,118,-109,-64
1491087156767,2,36,37,-4,-73,-48,-95,-26,42
1491087156768,3,-23,11,31,69,18,92,-80,-49
1491087156768,3,27,-17,-14,-98,-69,-76,-16,45
1491087156769,0,-23,-17,-50,-76,-86,7,-31,-50
1491087156769,0,-3,3,39,127,122,13,-1,-44
1491087156804,1,-20,23,-4,-46,-123,32,48,61
1491087156804,1,45,30,1,59,40,-41,-69,31
1491087156805,2,47,4,20,33,18,59,103,-15
1491087156805,2,-27,-4,-7,10,33,28,127,69
1491087156805,0,34,27,15,-35,-128,-115,-34,65
1491087156805,0,-104,-37,20,-22,-95,82,-9,-76
1491087156807,1,111,54,-56,-57,74,58,127,94
1491087156807,1,-110,-27,-18,7,-13,4,-128,-128
1491087156841,2,37,6,20,5,62,64,127,92
1491087156841,2,0,-27,1,41,22,99,-27,4
1491087156842,3,62,5,-2,-32,-46,-124,58,31
1491087156842,3,-37,-14,-39,1,-59,59,-48,-33
1491087156843,0,-23,30,86,-17,-34,95,127,63
1491087156843,0,-5,-3,-20,25,55,-32,-128,-11
1491087156843,1,11,-10,-33,-80,-125,52,6,-32
1491087156843,1,40,42,26,62,105,-125,123,60
1491087156916,2,21,1,-17,1,-28,-12,-72,-3
1491087156916,2,-32,-5,-22,-61,-118,10,96,62
1491087156917,3,-70,-32,-16,-14,-85,-10,-58,-69
1491087156917,3,-36,-12,57,43,87,107,-73,-93
1491087156918,0,3,-12,-14,67,127,44,27,17
1491087156918,0,62,10,-17,6,70,-89,37,64
1491087156919,1,-37,-16,-11,43,52,-62,41,-60
1491087156919,1,-28,-26,4,-25,69,74,-37,45
1491087156954,2,70,14,-21,-43,-108,-113,51,-10
1491087156954,2,-53,-30,-25,-43,-75,-83,28,43
1491087156954,3,-105,-18,-8,-67,-120,34,24,-122
1491087156954,3,16,23,27,37,67,63,91,96
1491087156955,0,-68,11,44,-29,-48,-62,-128,-77
1491087156955,0,-4,-14,-57,24,67,-71,52,-32
1491087156956,3,-24,-37,-74,-44,-45,-11,-7,-12
1491087156956,3,18,-15,31,4,-2,105,99,-15
1491087156991,0,-6,0,-23,-2,-26,-60,-67,40
1491087156991,0,30,22,6,19,31,-23,-78,-31
1491087156992,1,-3,6,-3,-17,-50,-27,-10,11
1491087156992,1,24,0,-41,-9,67,-48,-16,-56
1491087156992,3,6,5,36,28,84,-78,12,57
1491087156992,3,54,10,-20,-1,-106,-128,-58,-9
1491087157031,0,-56,-15,-37,12,127,113,105,-45
1491087157031,0,45,13,20,92,59,-37,-68,20
1491087157032,1,-59,-1,-22,-60,-28,-14,124,-1
1491087157032,1,63,25,11,-21,58,-36,-75,27
1491087157066,2,56,-11,29,-35,-19,117,75,67
1491087157066,2,-55,-22,-29,-8,-41,127,-66,-73
1491087157067,3,39,-1,-43,-87,-43,-56,-59,-3
1491087157067,3,-82,-29,-32,15,59,59,81,12
1491087157069,0,66,15,72,97,51,50,73,60
1491087157069,0,-46,-8,0,-72,8,-61,-49,-26
1491087157069,1,98,12,1,66,103,78,5,17
1491087157069,1,-44,-20,-39,-95,-110,-21,14,-37
1491087157103,2,41,12,5,67,88,48,-25,23
1491087157103,2,-58,-15,77,107,67,51,72,-38
1491087157105,3,93,38,9,-40,81,30,22,80
1491087157105,3,-3,-10,14,106,74,90,72,16
1491087157105,2,11,27,16,9,-19,-128,39,72
1491087157105,2,-17,-8,3,-40,32,28,-62,-56
1491087157106,3,-43,-14,-1,32,109,-58,-107,-18
1491087157106,3,10,2,-49,-47,-64,-21,-25,-27
1491087157179,0,-18,-17,-30,-68,-65,-77,14,-7
1491087157179,0,49,-6,-2,4,27,62,107,31
1491087157179,1,-38,15,47,93,127,92,8,-12
1491087157179,1,82,36,39,-12,-86,-42,69,116
1491087157180,2,-22,11,51,54,93,127,123,-2
1491087157180,2,28,-12,-32,-12,-103,-75,-69,4
1491087157181,3,-67,-10,-41,-75,-11,-122,-14,-56
1491087157181,3,-6,-18,-30,-18,-113,-26,-128,-48
1491087157216,0,29,1,20,-25,-76,125,-4,21
1491087157216,0,-30,8,2,-6,-35,-80,59,29
1491087157217,1,14,-2,47,57,51,108,-85,6
1491087157217,1,7,-19,-38,-73,-63,-118,57,-4
1491087157254,2,-20,3,-3,21,-18,-94,-128,-52
1491087157254,2,-7,-4,27,-7,65,88,1,15
1491087157255,1,65,2,-25,-44,-60,-112,-54,-8
1491087157255,1,-37,7,6,-40,-75,15,-55,9
1491087157256,2,-13,-18,8,55,93,76,-51,-22
1491087157256,2,26,3,-65,1,25,-104,12,-22
1491087157257,3,-60,-31,-8,-16,-68,-9,94,5
1491087157257,3,0,-13,-9,2,-48,-46,-101,-20
1491087157329,1,28,10,-5,29,-22,56,31,18
1491087157329,1,-20,5,54,0,73,-2,29,17
1491087157330,2,-22,-33,-73,0,-85,58,33,-27
1491087157330,2,-4,24,54,14,50,108,9,-8
1491087157331,3,61,22,-28,28,6,-114,-36,58
1491087157331,3,-73,-14,-38,-52,-48,72,-46,-77
1491087157331,0,15,0,28,56,96,119,78,11
1491087157331,0,5,29,51,54,37,-38,-48,18
1491087157366,1,-28,-23,-91,-70,31,-44,-93,-68
1491087157366,1,-10,1,24,5,-8,17,73,-5
1491087157367,2,8,-3,-47,-55,-51,28,10,11
1491087157367,2,60,-8,-20,10,31,-29,-15,-8
1491087157367,0,-16,-23,-80,-41,-107,-128,-72,-32
1491087157367,0,-26,-16,-15,-71,-46,59,7,-20
1491087157368,0,2,0,-6,-14,-8,-9,-37,27
1491087157368,0,19,7,-32,-103,-34,-54,91,21
1491087157404,1,-38,-17,30,18,53,79,13,-21
1491087157404,1,16,-10,-60,-50,-102,-3,-2,-4
1491087157405,2,-12,30,29,30,29,-10,-32,-4
1491087157405,2,-21,-14,13,93,45,67,66,18
1491087157406,0,26,-17,-4,-18,-28,62,16,-5
1491087157406,0,-36,-7,-33,-23,-27,11,-30,-46
1491087157406,1,-9,7,30,51,62,18,17,1
1491087157406,1,11,13,28,34,33,62,-52,9
1491087157441,2,-6,-5,-33,-57,-55,-97,38,12
1491087157441,2,7,-2,18,62,-24,8,-6,-3
1491087157442,3,17,-10,-14,-29,-51,-21,4,3
1491087157442,3,-17,-12,-16,-13,-14,12,-19,-15
1491087157443,0,-13,16,65,-6,19,33,20,16
1491087157443,0,7,0,15,92,70,33,5,13
1491087157444,1,0,9,-21,-99,-38,-72,-25,-8
1491087157444,1,-19,-17,-33,24,-21,-17,8,-4
1491087157479,2,8,-22,-77,48,54,-6,23,9
1491087157479,2,-28,-2,7,-105,-107,-19,-17,-21
1491087157479,3,6,8,57,-23,1,9,-32,-20
1491087157479,3,46,17,42,-2,16,22,26,33
1491087157480,0,11,-5,-55,99,68,5,46,18
1491087157480,0,-36,-11,1,-37,-35,22,-19,-32
1491087157481,1,5,-17,-73,-6,-7,20,5,2
1491087157481,1,-6,1,73,53,-65,-46,-13,4
1491087157516,2,-14,12,5,-16,21,47,-8,-14
1491087157516,2,8,5,-6,4,22,-20,-6,7
1491087157517,3,19,10,-39,-14,-8,-43,62,15
1491087157517,3,9,2,-73,28,27,0,-104,-24
1491087157517,0,-1,4,88,15,-6,-10,-33,-13
1491087157517,0,2,-1,-36,-83,-22,5,60,7
1491087157518,1,-29,-5,67,-17,-29,5,-2,-6
1491087157518,1,3,0,-80,-11,61,12,63,5
1491087157553,2,14,3,6,-31,-26,-30,-42,-4
1491087157553,2,15,-2,-26,-8,-10,-12,5,18
1491087157557,3,3,-28,-33,83,41,21,-18,11
1491087157557,3,-22,-21,-45,-5,16,14,7,2
1491087157557,0,-15,-1,81,5,28,50,10,-24
1491087157557,0,44,2,-13,-86,-62,-49,-43,-15
1491087157558,1,-11,1,-18,12,-21,-6,-27,-9
1491087157558,1,8,-1,24,-7,-10,6,9,0
1491087157591,2,11,-26,-36,7,11,-20,-59,7
1491087157591,2,-21,16,75,-13,11,10,89,27
1491087157629,3,-3,4,59,38,-6,17,28,-27
1491087157629,3,-1,-2,-68,4,49,-13,1,12
1491087157666,0,-9,4,24,-44,-40,-13,-37,-13
1491087157666,0,-2,8,31,-19,-33,-21,-27,-3
1491087157667,1,-17,-1,-6,15,-17,-18,-40,-5
1491087157667,1,0,-14,72,54,7,37,48,0
1491087157668,2,-5,-5,-37,-3,1,-9,-6,2
1491087157668,2,-22,-31,-32,69,44,44,6,-7
1491087157669,3,19,9,-7,-31,-9,-37,-34,9
1491087157669,3,-10,-35,-53,101,57,46,-8,5
1491087157703,0,-4,30,35,-95,-56,-19,-9,-10
1491087157703,0,10,7,-60,20,-31,30,-21,2
1491087157704,2,-10,11,-18,36,36,-93,37,0
1491087157704,2,-7,0,-9,43,54,-97,-13,-3
1491087157705,2,-12,8,9,29,16,58,69,27
1491087157705,2,-7,4,-4,12,18,-15,-38,-16
1491087157706,3,-15,-24,-62,28,27,10,17,-10
1491087157706,3,-42,-8,4,-23,-51,12,6,-21
1491087157741,0,21,62,43,-37,-86,0,-6,-4
1491087157741,0,6,18,-36,-13,-22,34,10,16
1491087157742,1,4,12,20,45,30,36,-33,0
1491087157742,1,-16,-52,-13,-25,-19,-8,7,0
1491087157742,2,10,-56,1,-37,-31,14,17,21
1491087157742,2,-10,-89,-15,28,11,68,-20,-32
1491087157743,3,36,-65,7,2,-4,39,21,21
1491087157743,3,-23,-63,15,-17,-30,33,4,-1
1491087157779,0,21,-62,-42,67,25,23,-17,23
1491087157779,0,20,1,36,-56,-64,-4,-39,-14
1491087157780,1,26,-3,-39,-3,-27,7,12,27
1491087157780,1,-23,-7,-25,-47,-42,-18,-27,-19
1491087157781,2,26,-24,57,73,17,10,6,17
1491087157781,2,-25,-38,12,5,14,-2,10,-10
1491087157781,3,28,-12,-33,-16,-5,-12,9,25
1491087157781,3,-25,-5,12,-54,-49,-17,-2,-19
1491087157816,0,17,-16,-53,28,45,5,0,21
1491087157816,0,-3,-34,6,22,14,28,12,9
1491087157817,1,-1,3,37,-11,2,-10,-2,-9
1491087157817,1,1,-14,-13,7,23,-25,18,18
1491087157817,2,-3,0,-31,-13,11,1,-28,-8
1491087157817,2,-10,-23,-6,15,15,-15,-10,2
1491087157819,3,11,4,30,-17,-27,-13,20,14
1491087157819,3,1,9,30,4,38,36,68,18
1491087157854,0,-14,-21,-8,13,20,12,10,-1
1491087157854,0,38,1,0,-21,-49,-47,3,13
1491087157854,1,-55,-17,-25,10,8,6,-11,-30
1491087157854,1,84,26,31,-19,-18,7,-7,18
1491087157855,2,-31,7,-26,-53,-25,31,11,-23
1491087157855,2,-11,4,13,65,76,46,27,5
1491087157856,3,9,-6,-10,-2,33,-4,-34,-6
1491087157856,3,-2,-14,29,0,-10,26,1,-12
1491087157891,0,-7,-30,30,35,41,14,-58,-4
1491087157891,0,6,-26,-47,-23,-7,39,13,6
1491087157892,1,2,-21,40,14,3,68,6,-13
1491087157892,1,-23,-123,-31,-53,-44,1,-29,3
1491087157893,2,-22,-55,-18,-10,-34,61,-60,-31
1491087157893,2,-13,-9,32,35,75,-59,-68,-29
1491087157894,3,40,74,20,101,-7,48,104,42
1491087157894,3,-64,56,-2,-9,41,-22,-65,-44
1491087157966,0,43,16,-32,-24,0,65,96,14
1491087157966,0,-31,-41,-26,-114,-117,-55,-88,-33
1491087157967,1,-24,-35,8,-55,-49,-27,-19,-21
1491087157967,1,10,11,28,59,2,5,-15,-3
1491087157968,2,6,22,-32,-45,-5,-98,54,21
1491087157968,2,-20,46,13,84,62,56,21,-24
1491087157969,3,4,48,-5,-38,67,-17,42,39
1491087157969,3,-22,52,-11,6,-48,76,5,-23
1491087158003,0,-7,46,14,31,65,51,59,36
1491087158003,0,17,30,-2,24,-46,-44,-55,-14
1491087158004,1,15,-5,-1,8,85,117,64,18
1491087158004,1,-38,18,-93,-88,-109,-59,-69,-2
1491087158041,2,38,16,43,105,-23,83,57,33
1491087158041,2,-18,17,-66,-102,38,18,67,13
1491087158042,0,40,39,-27,-41,-128,-128,-128,-21
1491087158042,0,9,-14,17,45,45,127,126,39
1491087158043,1,-76,-7,38,-31,-21,-23,-92,-65
1491087158043,1,4,24,-14,4,41,50,-18,-7
1491087158044,2,42,-5,-18,-22,-36,-86,51,34
1491087158044,2,44,34,68,86,-14,-3,-55,-13
1491087158079,3,-96,-52,-65,-127,-12,-63,25,28
1491087158079,3,36,-11,-23,-35,-115,-116,-82,-39
1491087158082,0,7,36,80,75,91,103,25,16
1491087158082,0,-52,-31,-5,33,-111,-100,60,-31
1491087158083,1,29,28,-22,19,-57,-71,-84,8
1491087158083,1,-25,-17,28,25,68,92,53,2
1491087158116,3,18,16,8,9,61,86,17,27
1491087158116,3,2,-8,-15,-50,3,-128,5,19
1491087158117,0,-43,0,-29,-49,-55,-61,43,-11
1491087158117,0,13,-9,4,-56,-70,127,50,-1
1491087158118,1,12,25,10,-40,-23,-109,-51,34
1491087158118,1,13,5,29,98,-10,27,-29,-3
1491087158119,3,46,-22,-7,-31,-54,40,91,41
1491087158119,3,9,22,49,116,124,55,-28,4
1491087158154,0,-100,-26,-10,-2,-108,-25,-51,-69
1491087158154,0,45,-2,-23,39,106,94,81,56
1491087158155,1,-4,-18,-23,-89,-112,-11,-80,-17
1491087158155,1,-33,0,42,95,81,60,50,-29
1491087158155,2,4,-42,-33,-51,-53,53,27,15
1491087158155,2,-14,20,-23,-54,-39,-4,-60,5
1491087158156,3,3,-3,41,76,-15,59,-28,-12
1491087158156,3,-16,-16,-32,-89,26,-98,65,27
1491087158191,0,42,4,78,127,127,127,21,-22
1491087158191,0,-11,19,-23,-83,-57,-103,48,54
1491087158192,1,10,-4,-83,-100,-93,-47,-80,-68
1491087158192,1,-39,-22,-17,-61,-96,2,-2,-22
1491087158193,2,21,17,54,103,105,103,43,45
1491087158193,2,8,-6,-12,-22,124,-19,86,6
1491087158194,3,-2,16,15,22,-18,10,-33,-17
1491087158194,3,-18,10,5,-21,-63,26,7,-32
1491087158266,0,22,11,9,21,-48,-22,-31,20
1491087158266,0,-3,-3,12,47,46,-20,-107,12
1491087158267,1,-22,-9,-12,-13,21,44,46,1
1491087158267,1,-49,-16,-2,-15,-2,-5,26,-8
1491087158268,2,34,12,-37,-25,22,-128,-105,1
1491087158268,2,15,12,30,34,-68,79,58,-1
1491087158269,3,-5,29,0,-9,95,23,-32,-22
1491087158269,3,12,-18,47,-25,-128,37,46,60
1491087158303,0,-28,-14,-84,-97,-13,16,-38,-48
1491087158303,0,-65,11,-2,40,39,-75,-99,-74
1491087158304,1,77,7,24,72,39,-27,12,61
1491087158304,1,-3,0,13,54,94,42,13,-23
1491087158305,2,-45,-11,9,-48,-75,-75,-53,0
1491087158305,2,-47,-29,-45,9,20,85,30,-8
1491087158306,1,-41,-25,-4,27,113,73,127,12
1491087158306,1,52,18,-69,-77,-89,-67,-33,-9
1491087158379,2,-29,-4,19,-39,-21,58,23,-12
1491087158379,2,49,-19,0,-78,-113,85,74,3
1491087158380,3,-73,-10,-1,92,113,-80,-67,-34
1491087158380,3,9,10,56,115,127,99,50,21
1491087158380,1,64,22,31,116,85,-95,-89,14
1491087158380,1,-25,-1,-77,-98,-107,17,46,25
1491087158381,2,-36,-1,49,52,112,91,-26,-30
1491087158381,2,-17,-2,16,-69,27,31,-2,41
1491087158416,3,5,31,-82,-103,-128,-111,-44,-56
1491087158416,3,72,12,32,60,13,122,-18,-2
1491087158417,0,36,0,7,21,29,106,53,25
1491087158417,0,-10,-17,-48,-13,-59,-108,-59,-10
1491087158418,1,-60,4,44,70,24,110,21,-11
1491087158418,1,-5,-16,-18,-79,-84,-32,-10,27
1491087158418,1,11,-10,-19,-82,-46,28,-18,-2
1491087158418,1,-106,-21,-46,-23,15,108,62,-50
1491087158454,2,92,39,41,28,-37,19,-83,-7
1491087158454,2,-96,-19,13,34,114,39,35,-11
1491087158455,3,57,-13,9,-17,-14,25,22,26
1491087158455,3,74,13,16,75,55,-46,12,46
1491087158456,0,-64,-16,-47,-43,8,-97,-56,-25
1491087158456,0,-30,-17,29,-5,-43,90,69,-42
1491087158491,1,17,-15,0,8,20,-83,-72,21
1491087158491,1,24,5,16,5,103,90,-41,-60
1491087158492,2,-70,-5,-14,-7,-128,-76,-52,-48
1491087158492,2,-32,9,19,-6,91,-12,74,28
1491087158493,3,61,0,-19,-55,-96,98,53,32
1491087158493,3,-39,-42,4,107,67,3,-23,-28
1491087158494,0,28,44,-14,-85,63,-16,-19,76
1491087158494,0,53,14,6,23,37,26,63,51
1491087158529,1,-128,-23,-1,78,-49,2,-31,-91
1491087158529,1,68,15,11,-22,-38,-13,62,59
1491087158529,2,64,6,-1,34,104,63,39,67
1491087158529,2,-28,-13,0,-4,16,-35,-47,3
1491087158530,0,-119,-28,1,6,44,44,-62,-86
1491087158530,0,33,17,-70,-126,-128,-113,-14,-47
1491087158531,1,34,38,66,66,76,31,-35,52
1491087158531,1,-69,-20,-47,-79,-28,81,65,-24
1491087158566,2,-43,-8,45,35,-96,-83,-23,28
1491087158566,2,-105,-25,-46,-19,-18,-70,-124,-125
1491087158567,3,7,-9,-35,-4,91,-12,6,33
1491087158567,3,18,-7,5,10,92,60,67,15
1491087158568,0,72,0,26,-5,-30,58,21,0
1491087158568,0,6,-2,-1,37,-7,7,-37,43
1491087158569,1,-32,-4,15,-78,-50,17,50,-49
1491087158569,1,46,38,-4,-24,-44,-98,-49,73
1491087158604,2,-105,-69,-56,-8,60,91,-56,-79
1491087158604,2,111,48,5,-3,-73,-34,-80,-17
1491087158604,3,-9,-6,6,3,-49,3,-8,15
1491087158604,3,-54,-20,-3,36,14,-11,-38,-76
1491087158605,0,-41,17,-11,-44,-69,-68,43,-33
1491087158605,0,20,32,5,-89,-48,102,41,72
1491087158606,1,-51,-29,-27,-9,2,-12,25,-8
1491087158606,1,39,25,25,-6,46,-87,-102,36
1491087158641,2,22,-27,-22,48,-20,48,10,45
1491087158641,2,60,37,92,68,127,100,-18,-14
1491087158642,3,-28,-13,-28,27,-128,53,91,6
1491087158642,3,-125,-23,-27,-17,17,-92,-65,-89
1491087158643,0,4,18,-11,-43,-44,127,-10,17
1491087158643,0,22,-27,-31,-29,55,-2,35,18
1491087158644,1,44,25,-10,-55,-35,38,-71,11
1491087158644,1,-81,6,51,38,-30,-25,-18,-66
1491087158679,2,80,36,-15,-34,-38,17,76,73
1491087158679,2,-52,-23,-24,-31,-18,101,-67,-39
1491087158680,3,-1,5,100,107,118,-56,127,104
1491087158680,3,44,-2,-57,-72,-110,-22,-54,-46
1491087158681,0,-3,-1,53,8,2,0,-39,-43
1491087158681,0,-46,-7,-76,-49,-14,-104,-66,-44
1491087158682,1,105,17,-25,-55,98,75,0,34
1491087158682,1,-21,-11,7,10,-62,1,-92,13
1491087158716,2,-61,-41,-34,-11,13,-30,-44,-69
1491087158716,2,40,-5,41,86,-61,81,127,63
1491087158717,3,-51,15,-1,-42,-67,-96,-71,-48
1491087158717,3,19,17,24,-3,122,127,127,17
1491087158718,0,41,-2,19,29,22,-48,120,52
1491087158718,0,-27,-34,-44,-68,-112,-106,-27,8
1491087158719,1,-33,6,16,-49,49,77,-93,-76
1491087158719,1,-20,-31,-69,-53,-21,32,36,11
1491087158754,2,29,-14,34,-19,17,-69,47,29
1491087158754,2,-5,1,2,63,72,-41,79,-16
1491087158754,3,65,11,-18,-70,-78,-49,-128,-2
1491087158754,3,56,0,26,110,90,42,111,14
1491087158755,0,-69,5,36,60,36,-3,-16,-10
1491087158755,0,-1,8,-27,-47,-106,-38,-79,-11
1491087158756,1,-35,-14,2,21,46,43,88,10
1491087158756,1,24,15,31,74,46,-99,12,58
1491087158791,2,-51,-16,-3,43,20,104,9,-54
1491087158791,2,97,18,45,11,-53,89,37,69
1491087158792,3,-32,-8,-24,56,73,7,-8,-37
1491087158792,3,-32,-14,-43,-44,65,20,94,2
1491087158793,0,61,22,22,40,-128,-4,-17,62
1491087158793,0,-74,-17,-39,-59,14,6,-44,-3
1491087158793,1,-22,-23,-10,27,58,1,48,-17
1491087158793,1,9,9,41,-60,-126,13,-69,-23
1491087158829,2,32,33,1,52,127,6,-24,4
1491087158829,2,-34,-32,-47,46,96,11,48,15
1491087158830,3,11,-1,-47,-24,-128,-70,-53,-43
1491087158830,3,-7,12,80,4,94,123,119,41
1491087158831,0,-50,-33,-86,-108,-128,-128,-45,-83
1491087158831,0,28,35,46,36,64,50,-72,-2
1491087158832,1,16,-24,2,9,31,40,112,33
1491087158832,1,51,14,-27,-13,-59,-23,-50,20
1491087158867,2,-40,-22,15,22,78,69,84,5
1491087158867,2,-19,11,23,67,102,-24,-32,-17
1491087158868,3,62,8,-20,7,-28,-67,35,19
1491087158868,3,-63,-6,4,25,102,127,-110,-35
1491087158904,0,66,-5,-25,-10,-100,24,-46,-13
1491087158904,0,-47,-2,33,2,0,-10,78,-51
1491087158905,1,-3,16,-9,-68,-100,-73,-95,57
1491087158905,1,-15,-15,1,-13,-24,19,0,-34
1491087158905,2,-28,-3,-32,-25,60,-54,-56,9
1491087158905,2,-19,0,-39,-24,-54,109,79,10
1491087158906,3,6,8,72,87,127,127,116,24
1491087158906,3,-38,-22,-43,-39,-98,-80,-109,-22
1491087158941,0,3,11,19,-47,2,33,52,-23
1491087158941,0,-79,-29,13,-41,-54,64,-19,-24
1491087158942,1,82,21,-5,49,90,-23,2,57
1491087158942,1,4,-9,-28,-1,46,-92,-12,-5
1491087158944,2,12,10,14,-24,-86,16,8,38
1491087158944,2,-21,-24,-2,2,32,77,3,-31
1491087158944,3,-88,-17,-1,-64,-89,-95,-113,-91
1491087158944,3,4,1,15,72,-1,49,-49,31
1491087158979,0,29,18,22,33,95,80,88,-15
1491087158979,0,65,3,-25,-38,-49,9,14,37
1491087158980,1,-43,8,14,10,8,3,33,12
1491087158980,1,40,-22,-37,-64,-35,58,102,26
1491087158981,2,-101,-2,7,11,-40,-122,-109,-52
1491087158981,2,30,0,-4,-56,-128,102,78,50
1491087158982,3,-25,-5,30,127,127,80,-30,-32
1491087158982,3,3,-19,-28,-55,-83,44,64,6
1491087159016,0,39,21,-27,5,7,-23,-88,-17
1491087159016,0,3,10,63,9,0,26,14,-10
1491087159018,1,-41,-47,-120,-119,-37,-128,-77,-43
1491087159018,1,80,34,72,63,85,127,109,65
1491087159018,2,44,-14,-28,-31,0,-36,-21,-32
1491087159018,2,-63,9,-4,3,-50,-128,4,-2
1491087159019,3,36,5,9,23,5,68,-47,14
1491087159019,3,-50,-15,12,-20,-58,10,62,26
1491087159054,0,-25,-22,3,27,61,49,-74,-12
1491087159054,0,-10,-6,-31,-11,-20,21,54,-23
1491087159055,1,64,1,-7,-37,-128,-16,21,16
1491087159055,1,-23,-7,-38,-3,31,-128,-128,-42
1491087159056,2,-5,6,31,3,63,127,52,9
1491087159056,2,17,-7,-48,-33,-39,-112,-128,-57
1491087159058,3,-35,12,98,110,109,127,122,34
1491087159058,3,13,-1,-24,-39,18,-118,23,30
1491087159091,0,-4,-28,-84,-124,-128,-19,-38,-73
1491087159091,0,39,22,42,46,77,-16,-6,44
1491087159093,1,-101,-34,12,26,34,127,13,-98
1491087159093,1,79,18,49,70,114,66,-51,42
1491087159094,2,-124,-16,-15,-22,0,52,125,69
1491087159094,2,31,17,-50,-13,49,-78,-28,-40
1491087159095,3,77,18,3,-44,-49,53,74,52
1491087159095,3,-37,0,17,33,-8,48,18,-38
1491087159129,0,-8,-5,16,14,-40,-37,-19,14
1491087159129,0,-4,-9,75,118,127,127,90,11
1491087159131,1,-7,-7,-57,-82,-92,-97,-68,-7
1491087159131,1,-16,-19,-93,-104,-128,-105,-75,-105
1491087159132,2,68,17,8,2,11,30,-51,48
1491087159132,2,-2,15,29,28,11,22,-2,21
1491087159203,3,-34,4,42,56,88,17,20,3
1491087159203,3,10,14,22,8,16,11,63,52
1491087159204,0,-41,-9,-23,-42,-59,15,-13,-47
1491087159204,0,-12,-35,-11,-40,-41,5,9,12
1491087159241,1,-4,10,6,11,-4,33,-50,2
1491087159241,1,-22,5,-13,-12,38,10,-13,-10
1491087159242,2,23,8,31,75,61,-10,-41,-12
1491087159242,2,46,12,16,-29,29,8,66,42
1491087159279,3,16,-1,-30,-39,-22,4,-27,-8
1491087159279,3,-58,-4,48,19,-45,24,-3,-11
1491087159317,0,-14,-22,-27,-78,97,-88,-106,-73
1491087159317,0,65,9,-41,-13,-28,13,47,71
1491087159319,1,-13,27,-3,0,-14,-52,22,20
1491087159319,1,-20,-20,-20,26,-26,-65,-59,-30
1491087159320,3,13,-7,-10,-36,-3,0,69,21
1491087159320,3,-4,-7,-7,2,24,39,-39,-2
1491087159321,0,-2,15,19,9,-23,80,28,28
1491087159321,0,-22,-1,-6,-18,-37,-102,-54,-19
1491087159354,3,-39,-34,-9,56,36,30,-128,-84
1491087159354,3,23,14,-7,21,9,-66,-35,16
1491087159355,2,33,-5,-28,-53,81,-79,54,3
1491087159355,2,-23,-21,-43,-75,-71,-14,-62,-27
1491087159356,2,-1,2,10,27,67,17,-24,20
1491087159356,2,4,12,35,68,57,72,87,24
1491087159357,3,-10,13,48,83,24,-6,-82,-21
1491087159357,3,-2,11,-3,-4,53,30,14,10
1491087159391,0,-23,0,7,-8,0,48,36,4
1491087159391,0,22,20,16,-37,-41,-99,-46,-6
1491087159430,1,-1,18,18,-37,6,30,-8,13
1491087159430,1,-30,-11,21,65,19,45,4,-35
1491087159432,2,57,10,-73,-99,-8,-13,-16,23
1491087159432,2,-34,-15,11,-62,-88,-33,-23,-20
1491087159433,3,3,-30,-55,-30,-92,-102,17,20
1491087159433,3,15,1,-2,-5,37,80,32,0
1491087159434,0,-30,-17,71,127,47,29,11,-21
1491087159434,0,18,-5,-20,32,69,47,37,12
1491087159467,1,10,-6,-36,-37,25,-29,-7,14
1491087159467,1,0,-4,-10,0,-30,-11,-6,32
1491087159469,2,-21,5,51,25,59,11,65,13
1491087159469,2,7,-6,4,-42,-26,-33,-88,-39
1491087159470,3,10,10,28,0,-18,37,80,24
1491087159470,3,12,-3,-14,-32,-68,-79,-2,15
1491087159470,1,-6,8,8,36,24,15,-12,-25
1491087159470,1,-1,4,9,18,50,8,-29,-27
1491087159503,2,3,-8,10,26,-65,-72,-11,11
1491087159503,2,0,-12,55,51,42,15,22,6
1491087159504,3,-42,-66,-108,-53,-83,-72,-51,-38
1491087159504,3,58,-7,22,-61,-50,-12,-39,9
1491087159505,1,13,9,44,33,61,11,-23,0
1491087159505,1,-52,4,57,-38,-64,-8,-1,-46
1491087159541,2,24,-9,-28,-9,-40,-45,-24,4
1491087159541,2,-9,0,-6,67,38,63,62,-14
1491087159543,3,9,42,84,-63,-70,-64,-67,5
1491087159543,3,-14,4,11,29,62,8,-37,-6
1491087159544,0,19,1,-47,-41,7,27,27,15
1491087159544,0,-32,-15,72,103,77,55,-4,-11
1491087159545,1,-11,-16,-44,-74,2,51,13,20
1491087159545,1,-28,-20,-15,-42,-52,-28,18,-20
1491087159579,2,-9,11,32,11,-6,33,-31,-4
1491087159579,2,23,-6,-21,26,5,8,-55,-14
1491087159580,3,-4,-9,-6,3,25,19,-12,-12
1491087159580,3,9,-31,-37,63,66,49,-35,-1
1491087159581,1,-15,-7,-15,76,69,9,-5,-3
1491087159581,1,13,-6,-4,-10,-93,-57,34,32
1491087159581,2,-45,-8,-18,59,25,84,-100,-84
1491087159581,2,4,21,-12,-30,-33,-98,43,31
1491087159654,3,20,-7,-21,22,-32,53,39,28
1491087159654,3,-11,-19,-66,-24,-10,0,-39,6
1491087159655,0,9,26,95,-62,-10,-3,-15,-7
1491087159655,0,-31,-7,-30,-42,-69,-9,32,4
1491087159657,1,9,0,26,113,74,29,18,-3
1491087159657,1,2,-10,-47,-82,-81,-33,-31,-8
1491087159658,2,-9,0,17,82,7,1,21,31
1491087159658,2,-20,-18,-11,-92,10,46,8,-22
1491087159691,3,6,14,-19,-79,-108,-109,12,-7
1491087159691,3,-24,4,30,61,127,127,52,-21
1491087159692,0,11,0,-33,-27,-49,-107,-92,14
1491087159692,0,-5,-9,35,38,122,113,-35,5
1491087159693,1,-14,4,-22,10,-80,52,-33,-14
1491087159693,1,0,-1,-4,-7,4,-28,0,4
1491087159694,0,13,6,-19,-13,-36,-31,15,19
1491087159694,0,-48,-14,-8,-3,21,-1,-31,-23
1491087159729,1,-3,8,3,-7,-24,86,32,-6
1491087159729,1,-25,-13,28,54,74,-41,-16,-23
1491087159730,2,-6,9,-27,8,17,-30,0,51
1491087159730,2,-31,-5,-13,-67,-112,-112,-101,-50
1491087159731,0,-5,-14,26,36,59,62,62,7
1491087159731,0,8,6,-33,-19,1,84,-17,-21
1491087159731,1,-19,-11,2,0,38,-21,-76,0
1491087159731,1,19,17,-17,-66,-114,-53,0,16
1491087159766,2,26,17,-11,6,-15,-4,46,19
1491087159766,2,11,-8,4,40,54,70,65,22
1491087159768,3,-17,-3,26,37,93,85,-81,-34
1491087159768,3,-23,11,-18,-26,9,-79,17,-2
1491087159769,0,-11,4,-33,-43,-44,67,-32,-35
1491087159769,0,24,25,44,41,13,-72,-66,4
1491087159770,1,-19,5,-10,-37,-66,4,2,-20
1491087159770,1,6,-9,19,34,39,-15,-3,-8
1491087159803,2,14,-24,-5,9,-8,-37,24,42
1491087159803,2,5,-10,5,-2,-45,-16,-12,-32
1491087159805,3,-9,-8,-13,27,73,47,107,54
1491087159805,3,5,2,31,21,52,-19,-64,3
1491087159805,0,4,-27,18,104,20,116,32,-22
1491087159805,0,-25,2,-70,-118,-127,-114,3,-5
1491087159806,1,-2,2,-51,-79,-109,-49,-56,-11
1491087159806,1,-3,-11,-1,0,-18,29,50,2
1491087159841,2,-19,-7,-5,52,93,15,-8,-19
1491087159841,2,32,9,18,77,89,25,80,37
1491087159842,3,-42,-10,22,-89,-101,-110,-25,-19
1491087159842,3,19,34,-51,-22,24,63,98,18
1491087159843,0,40,5,34,55,51,-66,-83,15
1491087159843,0,-9,-2,-9,-8,-72,40,41,7
1491087159843,1,24,-8,-25,-61,-30,6,-28,-1
1491087159843,1,-43,-22,59,100,10,-37,-9,-22
1491087159879,2,24,13,-56,-90,-54,-54,27,-2
1491087159879,2,-8,-8,10,-5,52,32,-2,-8
1491087159880,3,79,30,-19,-10,-16,-68,37,28
1491087159880,3,12,-8,66,101,109,127,-8,3
1491087159881,0,-27,3,-49,-88,-128,-56,-122,-41
1491087159881,0,8,-11,8,54,47,-52,-9,-4
1491087159882,1,-25,-10,-38,-71,-105,-44,-30,-63
1491087159882,1,8,-5,19,33,24,28,-39,-2
1491087159916,2,3,4,-33,-53,-75,-75,12,-1
1491087159916,2,10,-8,-9,-77,-16,-1,29,19
1491087159917,3,41,7,11,24,53,4,1,11
1491087159917,3,-18,17,23,42,59,80,71,-1
1491087159917,0,11,-11,-12,-36,-59,21,35,23
1491087159917,0,-13,22,11,46,-32,61,22,2
1491087159918,1,5,-9,26,41,106,15,-67,-8
1491087159918,1,63,25,-7,8,-19,-10,-62,11
1491087159953,2,-18,-7,59,94,40,-3,46,16
1491087159953,2,11,-6,-16,-16,-10,106,-24,7
1491087159954,3,-58,-25,-59,-41,-70,-42,4,-23
1491087159954,3,-54,-11,-57,-44,-15,5,-9,-13
1491087159955,0,-16,-7,2,19,38,108,14,-37
1491087159955,0,35,20,74,100,82,45,-47,24
1491087159956,1,-25,-10,40,83,-51,-68,29,8
1491087159956,1,62,17,-27,-67,-81,-38,-46,-5
1491087159991,2,-48,-29,-38,-112,-118,-46,47,-41
1491087159991,2,-31,-8,14,39,51,103,1,1
1491087159992,3,-45,19,18,-19,-1,30,-97,-24
1491087159992,3,65,-20,1,51,22,17,43,13
1491087159993,0,-21,24,78,85,111,43,-32,-28
1491087159993,0,106,39,-42,-102,31,-61,-112,16
1491087160029,1,30,0,-34,39,32,-37,-89,-28
1491087160029,1,-32,-38,-2,24,1,79,84,71
1491087160030,2,6,20,-23,-42,-17,-46,-99,-29
1491087160030,2,-4,-20,-21,21,-24,48,94,57
1491087160030,3,-2,-13,56,-23,-13,85,80,-6
1491087160030,3,25,36,25,51,-25,-58,-22,6
1491087160031,0,18,-9,-17,-31,75,-65,-123,-46
1491087160031,0,-89,-39,-25,-52,-108,-77,29,-57
1491087160066,1,86,37,13,27,34,89,85,74
1491087160066,1,-25,5,-16,-111,-56,7,80,-9
1491087160067,2,81,4,-23,-56,-101,-110,-18,105
1491087160067,2,-15,15,25,-33,-82,74,-40,-40
1491087160068,3,7,11,-14,22,-14,-95,2,18
1491087160068,3,-103,-28,-84,-82,-29,-60,-108,-63
1491087160068,0,38,1,12,49,46,115,23,0
1491087160068,0,-40,-12,2,52,19,32,-11,-13
1491087160103,1,-33,-26,32,30,23,40,77,19
1491087160103,1,35,4,18,-11,33,59,-7,-18
1491087160104,2,-39,-5,-7,-11,-60,-101,-60,-18
1491087160104,2,-66,-14,-5,-25,-16,26,8,-52
1491087160105,3,62,39,93,-7,-2,80,-21,54
1491087160105,3,-79,-22,-86,-88,-78,-121,-55,-62
1491087160106,0,-5,24,-24,9,-26,100,66,34
1491087160106,0,-42,-1,16,34,71,7,80,28
1491087160141,1,-61,-32,-61,31,49,81,-55,-34
1491087160141,1,-45,-31,53,-73,-42,2,-33,-16
1491087160142,2,-8,-11,-18,74,-61,32,-49,-9
1491087160142,2,0,-26,-27,-7,-34,-128,-22,-52
1491087160143,3,-78,9,-13,-4,7,29,-71,-30
1491087160143,3,85,6,13,12,10,12,-2,68
1491087160216,0,-53,-7,40,26,52,9,90,-35
1491087160216,0,12,-4,-34,-1,32,35,71,51
1491087160217,1,5,-3,17,-7,22,-101,5,-14
1491087160217,1,-34,6,11,70,-23,127,12,13
1491087160218,2,-52,-29,-18,-118,-31,10,-55,-74
1491087160218,2,32,33,-24,-3,-108,-99,-37,76
1491087160218,3,-32,-12,-10,-26,-6,93,-8,-77
1491087160218,3,11,27,42,96,72,-7,80,81
1491087160253,0,-107,-52,-24,-92,-80,96,-81,-78
1491087160253,0,122,43,-52,-37,-62,-36,85,44
1491087160255,1,-45,-30,-19,-66,-46,26,-89,-43
1491087160255,1,-17,4,17,-11,-58,-55,-17,-12
1491087160255,0,118,35,-8,6,3,14,-38,50
1491087160255,0,-6,-11,4,10,69,92,52,4
1491087160291,1,-54,-23,7,-34,-47,-127,104,17
1491087160291,1,34,9,-34,-79,-4,127,108,8
1491087160292,2,-24,-33,7,37,25,-24,32,-6
1491087160292,2,-3,13,32,34,23,25,-117,-35
1491087160293,3,29,6,27,-21,-6,38,77,54
1491087160293,3,-22,-20,-5,127,76,-38,-31,-27
1491087160293,0,49,15,12,-83,0,-76,90,42
1491087160293,0,-27,-11,-12,-2,56,94,-55,-35
1491087160328,1,-7,-12,-29,-14,-21,33,13,17
1491087160328,1,25,39,0,-2,0,-11,-128,-34
1491087160330,2,65,-4,5,7,59,127,106,54
1491087160330,2,-80,-7,22,44,-7,-128,1,-40
1491087160331,3,42,-7,8,92,106,93,-1,10
1491087160331,3,-59,-6,-39,-90,-85,0,48,50
1491087160366,0,54,46,17,11,29,-7,-3,9
1491087160366,0,4,0,17,-23,7,67,44,-42
1491087160367,1,-66,-7,-22,4,-37,-56,25,27
1491087160367,1,54,0,44,21,51,85,63,19
1491087160370,2,30,28,39,98,-53,-94,3,46
1491087160370,2,-48,-21,-37,-100,-75,5,-55,-21
1491087160371,3,-68,-11,-29,-47,-44,-128,-51,-40
1491087160371,3,-6,-1,-28,-19,20,-54,52,-14
1491087160403,0,3,-9,-25,-92,-75,81,9,5
1491087160403,0,72,4,29,121,96,-47,-53,10
1491087160404,1,-56,-11,9,36,42,96,109,-41
1491087160404,1,12,-11,-38,-35,-18,75,-74,-19
1491087160405,3,75,3,18,23,88,41,33,78
1491087160405,3,-18,-15,-8,-35,-84,96,105,-7
1491087160406,0,-116,-27,-49,-13,-73,-73,-124,-49
1491087160406,0,79,16,21,90,119,9,4,47
1491087160441,1,-32,-5,44,-17,-128,-8,-59,-58
1491087160441,1,-50,-31,-27,5,110,46,42,48
1491087160442,2,10,-15,-65,-85,-26,-52,-72,-76
1491087160442,2,66,38,16,-25,-107,10,68,37
1491087160442,3,-35,-26,-27,11,-20,9,-59,-4
1491087160442,3,52,4,60,117,92,72,-26,14
1491087160443,0,-48,1,33,22,48,-69,-10,-17
1491087160443,0,-30,-44,-58,-60,-106,24,30,-26
1491087160478,1,59,66,19,-25,-54,-119,-104,-15
1491087160478,1,-78,-38,-17,23,60,79,92,53
1491087160480,2,1,-5,19,16,45,16,-67,-39
1491087160480,2,-63,13,10,9,0,-1,49,19
1491087160480,3,11,-13,7,61,-10,58,39,13
1491087160480,3,-15,18,-19,-109,31,-128,-128,-54
1491087160481,0,-17,-22,-23,-16,27,80,0,-6
1491087160481,0,-1,12,43,-14,-76,-24,-87,-39
1491087160516,1,-5,-3,-29,-44,-73,-88,-41,5
1491087160516,1,60,48,11,-44,-73,47,90,54
1491087160517,2,-31,-25,15,107,41,-19,-49,0
1491087160517,2,-5,5,0,-85,55,94,41,-26
1491087160518,3,17,-10,-47,-29,-56,-72,-86,-14
1491087160518,3,-14,-29,-6,25,45,85,45,-11
1491087160518,0,-35,-11,-31,-75,-94,-34,54,-27
1491087160518,0,-1,-10,-4,65,-70,-8,-91,-27
1491087160553,1,-49,1,22,26,103,29,120,-8
1491087160553,1,19,7,0,21,-114,-27,-65,17
1491087160556,2,-28,-5,20,18,35,18,16,-15
1491087160556,2,16,-13,4,-5,22,-32,108,72
1491087160557,3,47,-18,-22,-64,-10,127,-72,-60
1491087160557,3,-26,-7,-10,17,-19,-128,34,-19
1491087160557,0,40,33,1,-5,75,115,42,29
1491087160557,0,-50,-36,-27,-18,-1,48,-6,-43
1491087160591,1,-26,37,38,33,88,29,60,62
1491087160591,1,10,-2,30,-1,-65,-57,-111,-23
1491087160592,2,15,1,10,19,-36,108,61,4
1491087160592,2,-16,-6,-7,-10,60,41,50,18
1491087160593,3,-41,-37,-49,-54,-115,-48,-70,-39
1491087160593,3,39,10,26,67,23,-95,17,-43
1491087160593,0,-58,32,-28,-109,-85,-37,-88,11
1491087160593,0,-66,-19,-25,40,51,-128,5,-26
1491087160630,1,-3,-28,5,-17,107,94,127,53
1491087160630,1,-58,-19,-44,-74,-128,24,-125,-52
1491087160631,2,-14,3,44,40,-41,-18,127,54
1491087160631,2,103,31,2,40,15,27,-105,20
1491087160631,3,-50,4,38,63,73,68,84,12
1491087160631,3,19,10,-18,-86,-80,-74,-98,-11
1491087160666,0,88,0,56,90,-1,127,58,36
1491087160666,0,-119,-40,-82,-119,-1,-70,48,-22
1491087160667,1,27,6,-14,-6,-128,-97,-97,-36
1491087160667,1,-2,10,13,45,127,0,38,-3
1491087160667,2,6,0,42,62,-11,48,78,14
1491087160667,2,6,-27,14,-10,-101,-103,-102,4
1491087160668,3,-15,19,29,96,127,98,70,-35
1491087160668,3,-20,22,7,-82,-18,-81,42,51
1491087160703,0,79,-20,-88,-103,-91,-66,-37,7
1491087160703,0,-4,39,48,28,21,127,60,-4
1491087160741,1,-4,1,1,-3,-25,-128,-32,33
1491087160741,1,19,8,66,127,94,127,60,15
1491087160742,2,-42,-12,5,-4,56,48,105,-7
1491087160742,2,35,-22,-36,-41,-128,102,-2,-15
1491087160743,3,46,16,-37,-101,-30,-117,-20,21
1491087160743,3,47,24,-19,-1,-15,126,33,48
1491087160743,0,-80,-42,8,11,53,56,-78,-45
1491087160743,0,57,26,-7,32,37,-22,69,35
1491087160778,1,-20,0,1,13,-49,-14,-110,-72
1491087160778,1,20,5,9,26,-38,66,79,17
1491087160780,2,-81,-46,-44,-47,66,96,32,-62
1491087160780,2,-10,8,64,61,61,-68,-31,44
1491087160780,3,-77,-12,-13,-60,-121,14,93,45
1491087160780,3,7,3,-77,-53,81,-64,-102,-58
1491087160781,0,-3,-7,10,30,60,-17,-106,-27
1491087160781,0,67,31,38,44,-63,85,-17,28
1491087160854,1,48,-3,-25,32,127,-69,15,23
1491087160854,1,-24,-28,24,-4,-23,127,-70,-27
1491087160855,2,-64,-14,-2,-19,-81,-88,92,39
1491087160855,2,61,30,14,23,100,48,-52,18
1491087160856,0,10,15,3,32,16,-48,-42,-8
1491087160856,0,-54,-5,29,-13,74,-11,-37,-13
1491087160857,1,10,-6,45,48,-34,127,84,16
1491087160857,1,-68,-23,-47,-25,-43,-124,32,2
1491087160891,2,-34,-28,-22,-60,-79,20,-23,-106
1491087160891,2,38,38,-18,32,24,70,75,79
1491087160892,3,16,-17,-1,-18,-22,34,-82,-30
1491087160892,3,-10,-17,55,39,64,-22,-10,56
1491087160893,0,83,67,98,116,124,70,107,115
1491087160893,0,20,-7,-39,-87,11,-98,53,41
1491087160893,1,-63,-25,-20,-43,14,127,-37,-26
1491087160893,1,23,-24,-18,13,-39,31,-4,-3
1491087160929,2,-61,4,35,-34,1,74,-23,-60
1491087160929,2,-4,5,-7,82,5,-75,60,53
1491087160930,3,29,8,7,9,93,35,-70,-18
1491087160930,3,-86,-22,-15,-90,-105,107,-36,-62
1491087160931,0,28,-22,-35,15,73,-46,29,3
1491087160931,0,-9,12,6,-40,-36,120,53,-1
1491087160932,1,-5,-6,10,-40,-31,-66,-25,46
1491087160932,1,39,20,-4,42,83,-22,50,-9
1491087160966,2,7,-4,22,-16,-97,-55,-70,17
1491087160966,2,-43,-37,-53,-20,-98,40,-83,-42
1491087160967,3,37,10,-4,68,69,-28,94,-15
1491087160967,3,36,14,43,-3,-48,40,79,71
1491087160968,0,-16,-9,-51,-43,-43,-59,-107,-37
1491087160968,0,35,21,36,-13,-24,-1,-16,-19
1491087160968,1,6,-4,1,8,-10,127,72,55
1491087160968,1,27,21,0,0,-58,-50,8,-9
1491087161003,2,-16,2,2,59,75,90,48,18
1491087161003,2,-32,-26,-43,-70,-54,36,-80,-52
1491087161004,3,-26,6,85,15,78,104,91,-6
1491087161004,3,85,23,-15,98,115,-55,-50,43
1491087161005,0,-8,0,-37,-42,-65,-52,-58,-30
1491087161005,0,-15,-19,-24,-59,-2,21,-21,-39
1491087161041,1,53,15,-5,28,22,2,28,33
1491087161041,1,-51,3,26,-37,-64,64,-19,0
1491087161043,2,7,-2,19,-58,-72,-99,-50,57
1491087161043,2,-11,10,-8,-22,31,100,100,-36
1491087161044,3,12,-19,-105,-79,-80,-128,-36,0
1491087161044,3,1,22,49,36,34,85,-12,-9
1491087161045,0,5,-4,12,67,103,95,25,15
1491087161045,0,-1,-27,-20,-55,-93,-15,-40,-22
1491087161079,1,-18,5,36,60,105,-1,12,30
1491087161079,1,-8,-5,28,96,-77,-7,-12,-30
1491087161080,2,-32,-6,-21,-65,87,-37,-36,-19
1491087161080,2,-12,-20,-57,-67,-107,-107,-21,-12
1491087161080,3,18,33,26,2,-43,-12,-16,-19
1491087161080,3,5,-9,28,26,81,125,89,51
1491087161081,0,31,-3,11,62,-5,-56,1,-16
1491087161081,0,-15,-3,-70,-63,-13,-126,-104,18
1491087161116,1,-34,-14,16,9,-61,-7,-64,-61
1491087161116,1,-1,-12,-15,-54,-1,51,21,22
1491087161116,2,65,28,43,16,21,48,112,47
1491087161116,2,-21,-11,45,58,117,69,-42,-41
1491087161118,3,14,7,12,12,-34,-61,-10,50
1491087161118,3,-1,-4,-52,0,66,-27,23,-2
1491087161118,0,-6,-3,0,5,-43,98,22,-22
1491087161118,0,-15,-31,-13,32,48,41,6,8
1491087161153,1,-4,21,40,59,-17,54,33,-11
1491087161153,1,-16,8,23,-82,37,-11,-28,-24
1491087161154,2,-9,-2,-65,-33,11,-19,-5,7
1491087161154,2,8,16,40,44,-128,-126,-50,5
1491087161155,3,-11,-17,-49,-68,57,60,81,15
1491087161155,3,0,-11,17,48,17,-36,-39,2
1491087161156,0,-23,3,-13,-40,-11,3,-11,-17
1491087161156,0,6,15,45,46,35,7,-6,-5
1491087161191,1,-1,-6,16,58,72,37,20,17
1491087161191,1,28,10,-32,-40,-71,-29,8,-13
1491087161192,2,-36,-9,4,5,-10,56,35,19
1491087161192,2,10,17,-17,-4,-8,55,21,-18
1491087161192,3,-14,2,-29,10,-55,-127,-128,-57
1491087161192,3,-25,-2,26,-32,6,60,-25,-14
1491087161194,0,32,14,-4,-10,-19,13,40,13
1491087161194,0,-21,9,26,-25,-19,-14,-69,-30
1491087161266,1,-24,-14,15,19,4,48,76,15
1491087161266,1,7,-17,-42,-11,45,-30,-41,7
1491087161267,2,-12,-14,14,13,-17,-43,-43,4
1491087161267,2,5,-10,-32,6,17,-13,22,3
1491087161268,3,20,12,-27,-30,-51,-29,-49,-13
1491087161268,3,-37,-1,38,38,5,19,59,3
1491087161303,0,20,10,8,-44,16,-37,-37,-5
1491087161303,0,-15,6,-17,-40,-36,-19,4,5
1491087161341,1,-2,15,-25,-59,-17,2,25,-1
1491087161341,1,4,-1,1,55,56,41,56,0
1491087161342,2,-3,11,-49,46,53,4,4,7
1491087161342,2,35,26,58,-96,-94,-87,-66,-9
1491087161343,1,33,66,43,-55,-51,-88,-35,-2
1491087161343,1,-4,9,-31,17,-14,-38,-12,-20
1491087161343,2,-5,-26,-32,-42,-29,32,5,-8
1491087161343,2,-17,-34,-42,29,35,-53,-4,-9
1491087161416,3,8,22,67,33,45,71,18,20
1491087161416,3,-5,4,-41,-14,-20,1,26,9
1491087161417,0,4,50,22,-8,-46,-35,-58,-29
1491087161417,0,-6,-7,16,-6,4,46,79,19
1491087161417,1,-18,-26,43,48,16,-17,-70,-7
1491087161417,1,9,-23,-26,-18,-41,-3,53,-3
1491087161419,0,-12,-12,4,27,44,26,3,4
1491087161419,0,-13,21,20,5,1,-46,-40,-23
1491087161453,1,-8,-4,-29,21,32,-14,2,-24
1491087161453,1,20,-17,13,14,24,21,-11,5
1491087161454,2,-17,9,-14,29,-12,7,24,-2
1491087161454,2,10,-17,-36,29,47,58,14,27
1491087161455,0,-13,-8,1,-2,-28,23,7,3
1491087161455,0,0,-17,-30,32,37,62,-1,11
1491087161456,0,10,-17,28,38,13,81,3,33
1491087161456,0,1,-15,-47,-67,-88,-128,-12,18
1491087161491,1,7,-51,-9,13,-5,100,15,-10
1491087161491,1,-21,-52,-6,18,38,39,-8,-8
1491087161492,2,-9,-51,3,11,14,-1,19,7
1491087161492,2,17,-13,44,2,-33,79,35,5
1491087161492,3,3,-25,-18,-13,-14,-61,-14,-1
1491087161492,3,-8,-12,1,18,-21,-73,-7,-5
1491087161493,0,-15,27,0,-10,11,-2,-13,-20
1491087161493,0,12,48,43,39,44,-15,10,19
1491087161528,1,-19,-9,-18,-28,32,57,-1,-8
1491087161528,1,-3,-16,16,5,0,-49,44,17
1491087161530,2,1,-26,4,-37,-45,-74,-65,-20
1491087161530,2,7,-48,-14,2,31,44,-70,-10
1491087161530,3,-6,-43,3,-9,-12,70,108,26
1491087161530,3,0,1,0,-2,-31,-65,-109,-23
1491087161531,0,16,-14,0,-13,-42,-81,-21,14
1491087161531,0,-4,-33,1,37,24,100,76,8
1491087161566,1,-8,-60,-25,4,29,15,65,-4
1491087161566,1,-7,-44,-38,-97,-98,-21,-68,-43
1491087161567,2,10,-63,32,42,-4,60,33,4
1491087161567,2,1,-7,-32,-35,-3,-50,-56,-8
1491087161568,3,-6,-1,31,39,109,120,46,4
1491087161568,3,-6,29,-32,-4,-58,-58,61,6
1491087161568,0,2,72,-20,-23,-71,-40,-107,-33
1491087161568,0,-19,43,48,105,89,63,109,23
1491087161603,1,-10,34,0,34,-26,-23,-128,-63
1491087161603,1,13,3,44,-8,56,127,84,22
1491087161604,2,-20,14,-98,-117,-114,-92,-89,-17
1491087161604,2,1,-16,9,-29,20,65,31,6
1491087161605,3,6,-15,24,108,62,28,-61,-13
1491087161605,3,-17,-7,-34,-74,-33,-44,-20,-9
1491087161606,0,8,2,90,84,127,108,82,23
1491087161606,0,9,30,-5,-5,-117,-10,-15,-5
1491087161641,1,-27,14,-81,-100,-128,-128,-65,-19
1491087161641,1,13,23,46,127,127,92,41,21
1491087161678,2,5,0,-45,-79,7,22,55,14
1491087161678,2,-15,22,-5,-35,-19,-75,-74,-32
1491087161716,3,15,27,43,43,112,117,48,15
1491087161716,3,7,45,-6,-44,-101,-66,-12,13
1491087161717,0,-6,24,15,55,82,122,127,-3
1491087161717,0,8,19,-14,-68,-110,-79,-117,-31
1491087161718,1,-43,8,-89,-118,-123,28,38,-24
1491087161718,1,-26,13,48,124,97,99,49,4
1491087161718,2,7,0,-26,-73,-94,-36,-34,-22
1491087161718,2,45,-7,-3,67,93,61,42,18
1491087161753,3,46,32,38,-13,-17,-30,-46,32
1491087161753,3,-65,-15,-1,57,59,53,66,-20
1491087161754,2,-43,-16,21,40,-23,8,47,-20
1491087161754,2,2,6,1,42,-9,0,10,4
1491087161755,2,12,2,55,92,90,84,-3,39
1491087161755,2,-64,-23,-29,-65,-76,-8,5,-48
1491087161756,3,48,15,56,65,-3,90,100,51
1491087161756,3,-38,-23,9,-27,38,62,-1,16
1491087161791,0,7,9,-47,-72,-105,-19,-85,-81
1491087161791,0,-26,-11,15,-31,-51,56,37,12
1491087161792,1,-16,-14,-77,-49,12,-51,-99,-36
1491087161792,1,-8,18,29,56,16,50,8,-4
1491087161792,2,-52,-33,59,40,-8,69,74,19
1491087161792,2,1,22,-52,-44,75,-93,-96,-64
1491087161793,3,16,-16,-14,16,-8,112,46,11
1491087161793,3,-17,-7,-11,-3,-2,-82,-41,-20
1491087161828,0,11,8,-26,2,-11,1,-6,24
1491087161828,0,0,-12,44,104,96,-26,56,15
1491087161830,1,1,14,37,90,9,100,122,35
1491087161830,1,1,-10,-19,-109,-54,-105,-60,-6
1491087161830,2,-9,3,-4,41,104,89,71,-12
1491087161830,2,32,8,-23,-30,13,-22,-48,34
1491087161831,3,-30,-3,-10,-5,0,-8,-5,-24
1491087161831,3,-3,14,18,99,92,14,9,-11
1491087161866,0,-18,7,11,23,42,37,73,14
1491087161866,0,44,0,26,4,-42,-11,-14,37
1491087161867,1,6,-8,-60,-76,-2,-128,1,10
1491087161867,1,-21,-1,-2,3,-93,24,25,-3
1491087161867,2,-15,-5,13,43,54,80,20,-12
1491087161867,2,-17,0,15,78,93,-12,-12,-42
1491087161868,3,-3,3,17,-48,-39,-128,-7,27
1491087161868,3,94,-13,-88,-128,-110,-79,-108,-20
1491087161903,0,-96,-20,38,27,38,59,33,-100
1491087161903,0,0,26,17,33,-76,113,127,102
1491087161904,1,-4,1,2,-70,91,75,65,-1
1491087161904,1,-23,-20,7,-56,39,12,23,4
1491087161905,2,-11,-20,-22,-7,-72,-128,-12,-10
1491087161905,2,-24,-7,6,-44,-26,55,6,-12
1491087161906,3,-7,-8,30,47,-65,-91,-128,-49
1491087161906,3,-2,8,1,59,50,127,127,76
1491087161941,0,12,-2,33,27,74,1,-99,-34
1491087161941,0,-61,10,-28,-39,-128,-111,-25,10
1491087161942,1,31,-29,-36,-74,-127,90,-16,-15
1491087161942,1,69,19,6,-32,109,-86,45,42
1491087161942,2,-25,6,-15,49,-56,23,-51,-38
1491087161942,2,105,-13,-8,-36,21,44,-79,17
1491087161943,3,-36,1,5,127,124,9,-11,-30
1491087161943,3,-44,-7,24,60,43,10,87,11
1491087161978,0,28,-20,-47,-88,-77,96,19,39
1491087161978,0,40,25,22,3,11,-105,22,23
1491087161979,1,-21,8,54,-61,-90,-70,-5,-21
1491087161979,1,33,-10,-6,16,29,127,73,46
1491087161980,2,-44,8,-62,-55,-52,-128,-109,-51
1491087161980,2,32,-6,-46,-42,-8,116,101,-33
1491087161981,3,3,-9,16,93,62,87,48,39
1491087161981,3,-20,12,44,90,-48,3,-103,-40
1491087162016,0,14,-5,17,-55,71,-9,29,45
1491087162016,0,-48,-34,-54,21,-48,73,-21,-36
1491087162017,1,76,42,-1,7,126,-128,-12,46
1491087162017,1,-40,15,41,-29,-70,127,-48,10
1491087162018,2,69,13,37,68,-23,-75,82,50
1491087162018,2,-65,-25,-49,-96,-77,27,-76,-64
1491087162053,3,8,-24,-14,-9,-26,77,10,-59
1491087162053,3,-48,-1,7,-52,3,60,-6,-8
1491087162054,0,25,27,4,103,115,-49,87,51
1491087162054,0,-2,22,37,46,102,-42,-7,22
1491087162055,1,12,-5,-43,-88,-123,60,59,18
1491087162055,1,40,-3,3,-6,-55,-8,-40,-36
1491087162056,2,-23,-16,20,-77,-52,-3,-25,18
1491087162056,2,-56,-4,-18,59,87,-45,-24,-61
1491087162091,3,-53,-3,-17,22,36,62,17,5
1491087162091,3,48,12,33,57,8,-50,-62,10
1491087162092,0,83,14,-5,-73,-69,55,49,32
1491087162092,0,-68,-28,-79,-100,-81,8,-18,-65
1491087162092,1,53,11,-4,-15,45,-22,-22,15
1491087162092,1,-44,-20,-6,39,83,-96,1,-80
1491087162093,2,-18,17,34,15,42,37,-79,21
1491087162093,2,-7,-25,19,-64,-89,1,-7,-11
1491087162128,3,-114,1,17,48,44,2,17,-58
1491087162128,3,27,-15,-59,-20,-10,-1,48,68
1491087162131,0,-53,-3,23,-23,-54,3,-24,-29
1491087162131,0,62,-1,-45,-47,-20,122,39,31
1491087162131,1,-71,-17,6,-42,-24,-95,-82,11
1491087162131,1,3,6,11,33,-6,40,-5,-34
1491087162132,2,9,-3,-26,24,-22,110,-51,-2
1491087162132,2,22,2,32,-13,-15,-68,6,-8
1491087162166,3,35,-11,11,8,-125,12,37,10
1491087162166,3,-47,1,-13,-24,107,3,11,3
1491087162167,0,-21,-6,5,48,53,-23,97,0
1491087162167,0,-18,7,47,45,69,70,-2,7
1491087162168,1,56,27,-22,-14,-63,-112,-11,14
1491087162168,1,-34,-26,9,-20,-51,14,-38,-25
1491087162203,2,-91,-23,1,47,29,42,25,-39
1491087162203,2,34,5,24,17,-16,-10,20,14
1491087162205,3,50,23,61,-58,-92,88,79,79
1491087162205,3,3,-21,-96,-72,-123,-64,-45,-12
1491087162205,0,-28,-9,-50,-74,-24,-66,-102,-60
1491087162205,0,18,12,41,23,34,51,71,42
1491087162206,1,-51,1,43,45,57,-27,-57,-32
1491087162206,1,26,3,6,-49,-29,7,38,12
1491087162241,2,-12,-23,-108,-107,-97,-47,-49,-27
1491087162241,2,-30,2,42,31,15,33,15,5
1491087162242,3,53,-14,-11,73,25,12,-82,-3
1491087162242,3,31,29,71,115,127,92,8,15
1491087162243,0,51,7,-2,-61,-35,-13,98,40
1491087162243,0,-62,-17,-16,-18,-47,127,-64,-50
1491087162244,1,-2,-27,-12,-29,9,-49,-79,-33
1491087162244,1,-31,-2,-6,-11,56,32,63,49
1491087162316,2,0,16,68,127,57,-42,-64,-6
1491087162316,2,26,-14,-68,-70,59,2,-28,-40
1491087162317,3,-54,-23,-43,-53,-107,-101,88,24
1491087162317,3,47,33,-12,-6,69,65,-37,-51
1491087162317,0,13,-1,31,4,112,95,-2,53
1491087162317,0,-41,-14,8,-19,-64,-128,43,-1
1491087162318,1,-42,5,31,33,52,127,-51,-19
1491087162318,1,31,-7,-49,-23,-49,-63,-40,9
1491087162353,2,13,23,26,27,61,49,125,56
1491087162353,2,30,18,4,-43,-86,-71,-71,6
1491087162354,3,-19,-14,14,42,15,110,47,50
1491087162354,3,-25,-9,23,95,83,-58,-55,-26
1491087162355,1,-30,11,29,40,43,58,107,-4
1491087162355,1,-71,-19,-18,-120,-114,-90,-92,14
1491087162356,2,4,16,82,127,127,76,72,22
1491087162356,2,-2,6,65,115,63,69,93,48
1491087162391,3,-11,3,-99,-54,37,-44,-128,-104
1491087162391,3,28,-7,-4,26,41,100,127,66
1491087162392,0,-20,-1,8,-24,-89,-98,43,23
1491087162392,0,47,8,26,16,56,124,27,56
1491087162392,1,64,53,62,52,127,127,122,33
1491087162392,1,-12,-14,-47,-76,-128,-13,2,-34
1491087162393,2,40,-5,41,99,127,-48,-111,-45
1491087162393,2,-41,-18,-13,-33,-32,-65,0,27
1491087162428,3,2,-28,-34,-47,11,-26,-94,-34
1491087162428,3,49,12,-47,-56,-101,81,109,18
1491087162430,0,-7,-11,-49,-68,-80,-88,-117,-72
1491087162430,0,-17,16,79,90,100,72,-52,-11
1491087162430,1,48,40,9,-64,-91,-128,96,48
1491087162430,1,-64,-11,36,49,-5,87,-77,-71
1491087162432,2,-48,-14,7,-113,-18,-18,103,63
1491087162432,2,54,-18,-123,-81,-128,25,-97,19
1491087162466,3,1,-1,33,-4,-36,-77,-91,-13
1491087162466,3,-45,-5,31,28,-11,84,10,-73
1491087162467,0,5,8,14,119,80,114,12,-20
1491087162467,0,51,-13,-7,28,-78,78,127,75
1491087162467,1,19,-5,46,71,-32,6,-5,41
1491087162467,1,-52,0,-59,-48,-40,-128,-117,-96
1491087162468,2,60,6,-13,-30,-72,127,13,25
1491087162468,2,-41,10,-18,-12,-30,-128,-52,-10
1491087162503,3,-8,-28,-8,-26,-9,127,17,-9
1491087162503,3,25,24,42,-39,78,52,38,0
1491087162504,0,-48,3,43,42,114,111,-16,-23
1491087162504,0,8,21,35,-51,-30,-52,25,-2
1491087162505,1,-6,-36,-103,-96,-43,-57,21,13
1491087162505,1,-7,-7,29,91,96,34,-45,-41
1491087162506,2,-71,-41,-82,-128,-92,-72,3,12
1491087162506,2,0,16,16,38,125,28,104,-19
1491087162541,3,72,44,61,13,92,80,-23,-7
1491087162541,3,44,-2,26,69,41,-69,112,94
1491087162542,0,9,23,-22,55,-12,91,-89,-84
1491087162542,0,-7,-12,11,-79,-87,41,92,78
1491087162542,1,-77,-39,-113,-80,-32,-25,-11,-101
1491087162542,1,1,-23,-24,-15,-72,127,-48,6
1491087162543,2,42,43,100,-58,-97,-113,-12,46
1491087162543,2,-30,-26,-29,-54,60,12,44,-72
1491087162578,3,-44,-24,-3,127,30,127,44,16
1491087162578,3,-32,33,17,-107,-128,-128,75,-36
1491087162580,0,-46,-3,17,106,89,117,98,-3
1491087162580,0,5,-32,-64,-87,-83,22,-57,-25
1491087162580,1,-57,-5,-15,-4,-125,-53,-60,-33
1491087162580,1,-38,-9,42,47,79,57,-39,-15
1491087162582,2,89,18,33,-18,-27,-70,-40,43
1491087162582,2,-44,-9,-11,127,127,-54,11,1
1491087162616,3,44,5,-15,16,82,-10,-43,12
1491087162616,3,-21,-14,-47,-8,46,48,16,5
1491087162617,0,16,9,39,47,84,-81,-33,-15
1491087162617,0,-34,10,46,36,58,27,-23,-33
1491087162617,1,14,-8,-26,-121,-128,-22,120,35
1491087162617,1,13,20,39,7,115,45,127,29
1491087162618,2,-40,-40,-107,-92,-122,24,-91,2
1491087162618,2,-3,-1,-14,29,-22,79,-75,-93
1491087162653,3,-30,18,54,5,59,46,81,50
1491087162653,3,44,-6,-9,94,96,1,-26,36
1491087162654,0,-2,-12,-27,-11,-103,-79,-36,-47
1491087162654,0,32,20,36,22,-27,-35,25,42
1491087162655,1,-32,-19,28,-72,-29,93,-87,-32
1491087162655,1,-4,-18,-81,-94,-128,-106,-118,-44
1491087162656,2,27,8,7,3,124,97,-43,32
1491087162656,2,-5,0,-25,54,-113,-85,-6,-23
1491087162728,3,1,4,87,95,114,127,46,68
1491087162728,3,80,9,-44,9,24,-128,84,61
1491087162729,0,-55,-31,-52,-55,-105,-63,-64,-118
1491087162729,0,22,1,49,-26,41,120,84,67
1491087162730,1,-9,-10,-102,-32,-95,-128,-104,-103
1491087162730,1,-45,-8,33,-9,15,100,71,34
1491087162731,2,94,27,38,7,45,119,122,54
1491087162731,2,-15,4,-1,5,-47,-95,-123,-25
1491087162766,3,26,-5,-18,-25,-24,26,14,-7
1491087162766,3,-17,-2,14,16,-54,-17,-78,7
1491087162767,0,-26,-11,59,77,35,52,-73,-25
1491087162767,0,-19,-4,-17,-98,-78,-73,51,-4
1491087162767,1,46,12,-69,-11,-50,-113,10,4
1491087162767,1,-4,0,1,7,71,65,-78,-22
1491087162768,3,-57,7,45,96,116,23,86,54
1491087162768,3,42,16,16,3,-8,34,90,49
1491087162803,0,-2,-4,-38,-30,-13,-50,-18,22
1491087162803,0,18,-6,-26,-29,-88,16,-45,-12
1491087162804,1,2,6,79,78,72,97,3,-8
1491087162804,1,16,-6,-26,-87,-88,-102,-92,-17
1491087162805,2,-58,-11,-30,-20,19,125,76,-39
1491087162805,2,3,-8,-6,30,48,84,86,48
1491087162806,3,9,-12,-41,13,13,-43,-24,-12
1491087162806,3,-11,10,33,1,22,-5,-44,-19
1491087162841,0,12,4,-4,15,-20,-54,-9,15
1491087162841,0,-18,1,-26,-13,37,-5,-26,-29
1491087162842,1,-10,18,81,36,-13,41,39,15
1491087162842,1,-29,-20,-25,31,36,14,5,-1
1491087162843,2,19,-7,-51,-57,-76,-70,-68,-26
1491087162843,2,-12,12,15,28,8,-36,106,37
1491087162879,3,13,7,-14,-88,-128,-128,-125,-13
1491087162879,3,3,3,-5,-51,-105,14,-16,9
1491087162880,0,-20,8,34,48,64,41,24,-26
1491087162880,0,-21,-2,37,68,57,63,65,20
1491087162882,1,-7,-13,-77,-74,34,-115,-121,-43
1491087162882,1,27,0,29,18,28,42,41,1
1491087162883,2,-8,4,-49,-105,-98,-46,28,26
1491087162883,2,-10,3,21,-2,33,-17,-8,-20
1491087162916,3,16,0,8,32,44,70,30,16
1491087162916,3,-3,11,17,63,61,56,28,5
1491087162917,0,26,3,68,63,21,67,57,58
1491087162917,0,-29,-11,-58,-43,2,-112,-81,-67
1491087162918,1,-13,-12,1,3,-4,29,4,-9
1491087162918,1,8,-4,-17,-10,41,-55,-47,-5
1491087162919,2,-13,-13,-17,26,-24,-37,-20,-18
1491087162919,2,41,11,21,-3,-3,54,-1,13
1491087162954,3,-7,10,35,-1,-11,1,19,18
1491087162954,3,-9,-4,5,-6,-53,0,18,-7
1491087162955,0,-38,-12,-36,30,84,11,47,18
1491087162955,0,-10,-14,55,67,39,33,-34,-7
1491087162956,1,1,-9,-71,-103,-65,-46,45,4
1491087162956,1,-20,-3,7,-13,-85,-42,-75,-40
1491087162956,2,49,1,33,49,26,49,11,45
1491087162956,2,-24,-4,-58,-106,-3,42,-44,-44
1491087162991,3,0,3,-20,58,-60,-46,-81,-12
1491087162991,3,-19,-9,8,40,47,42,23,5
1491087162993,0,-20,-13,-36,-56,2,-31,-42,-37
1491087162993,0,41,28,57,84,15,80,31,41
1491087162993,1,31,11,13,-84,12,-17,31,-8
1491087162993,1,1,8,-41,11,27,-14,66,11
1491087163030,2,-9,2,27,-15,31,-1,-11,-10
1491087163030,2,2,-1,29,78,68,-1,-10,19
1491087163031,3,-17,-2,37,60,83,43,42,9
1491087163031,3,19,10,-33,-31,-93,-70,-69,-22
1491087163032,0,2,-4,0,-28,-58,96,100,26
1491087163032,0,-17,-1,-69,-60,-99,-128,-116,-31
1491087163033,1,-4,1,0,-12,17,113,79,6
1491087163033,1,-10,1,15,-27,-71,4,-19,-17
1491087163066,2,11,21,-31,80,98,14,-4,5
1491087163066,2,-6,1,54,-6,-124,-52,47,19
1491087163067,3,-4,-22,-83,15,-30,-41,-67,-22
1491087163067,3,0,-9,95,70,35,13,59,27
1491087163068,0,-3,-5,-60,-113,-123,-93,-81,-42
1491087163068,0,2,-11,2,47,48,24,42,13
1491087163069,1,-2,-15,84,100,27,18,43,16
1491087163069,1,-25,-5,-107,-94,-79,-74,-60,-22
1491087163103,2,4,-2,33,54,55,27,17,7
1491087163103,2,-2,25,10,-8,45,-17,-6,-2
1491087163107,3,31,-8,12,59,62,53,-6,2
1491087163107,3,27,5,23,20,81,49,79,28
1491087163108,0,7,7,8,-21,-53,-59,-66,2
1491087163108,0,-10,-11,-67,-45,-39,15,31,-18
1491087163109,1,-44,-16,-38,-44,-15,7,4,-29
1491087163109,1,-4,4,83,63,49,20,2,10
1491087163141,2,45,17,-14,-43,-45,-10,20,15
1491087163141,2,-7,-20,-15,-39,5,29,-10,-2
1491087163143,3,2,8,-2,-40,-84,-81,-48,-17
1491087163143,3,-17,-18,7,89,90,25,7,-5
1491087163144,0,-7,8,-43,-80,-92,-32,-12,-11
1491087163144,0,4,9,23,18,49,29,25,6
1491087163145,1,1,16,58,-10,-30,-5,-13,22
1491087163145,1,6,-31,93,8,-20,88,63,8
1491087163178,2,-45,-40,-72,-61,-49,-75,-85,-51
1491087163178,2,28,-14,25,39,35,30,22,4
1491087163179,3,-20,40,-2,15,61,-11,-34,8
1491087163179,3,26,26,33,40,96,54,12,-4
1491087163180,0,-2,13,71,80,72,45,54,29
1491087163180,0,-6,23,-23,-66,29,53,36,-4
1491087163181,1,5,25,5,5,-25,-55,9,-10
1491087163181,1,-12,27,-47,-11,-50,-47,-58,-6
1491087163216,2,-3,15,-48,-35,38,63,22,0
1491087163216,2,-26,-13,9,-18,-81,-15,-27,-3
1491087163218,3,20,-17,-2,-11,38,35,57,25
1491087163218,3,-12,-36,-60,-22,-78,-14,-48,-22
1491087163219,0,2,-26,21,76,58,-26,-17,-7
1491087163219,0,-17,-24,15,-29,-25,37,38,-1
1491087163220,1,16,-10,-2,12,41,96,9,23
1491087163220,1,-12,-8,-117,-128,-128,-120,-38,-19
1491087163253,2,14,7,105,127,127,70,61,36
1491087163253,2,5,-5,-78,-104,-30,-38,-89,-10
1491087163291,3,-9,-5,-43,-22,-54,4,5,-20
1491087163291,3,4,4,28,36,101,58,46,22
1491087163293,0,6,8,32,22,-4,32,3,5
1491087163293,0,-5,-22,32,114,118,39,86,51
1491087163294,1,-2,-1,3,8,-88,-72,-80,-45
1491087163294,1,5,-11,67,96,112,113,18,9
1491087163295,2,-21,-41,-99,-87,-93,-77,-12,-17
1491087163295,2,8,4,-11,-14,-78,-49,-28,1
1491087163329,3,-14,-4,-35,-116,-81,-27,7,-5
1491087163329,3,-3,24,55,96,42,28,50,7
1491087163330,0,-4,15,-10,-48,34,-37,-83,-12
1491087163330,0,-13,20,33,-15,96,74,17,-6
1491087163331,1,-10,-13,-60,28,-78,-71,-36,-4
1491087163331,1,23,13,4,25,56,85,80,19
1491087163332,3,-5,-20,55,62,120,117,39,-4
1491087163332,3,-20,-20,-55,-128,-24,77,-73,-35
1491087163366,0,5,-3,104,127,68,26,57,18
1491087163366,0,-1,-17,-97,-112,-128,-50,-40,9
1491087163367,1,7,-4,68,127,106,8,17,-4
1491087163367,1,-13,-17,-92,-128,-128,-128,-100,-14
1491087163368,2,1,-6,-37,-68,-22,20,22,-15
1491087163368,2,-5,-8,26,65,27,41,-13,-16
1491087163369,3,14,-13,54,32,54,67,107,44
1491087163369,3,-8,-20,-85,-102,-109,-110,-58,-26
1491087163403,0,-8,-15,45,46,40,63,-46,-6
1491087163403,0,7,-14,-14,17,28,62,61,10
1491087163404,1,2,-22,31,40,65,76,62,11
1491087163404,1,19,-20,66,120,57,-64,50,26
1491087163405,2,-19,-35,-82,-128,-115,52,-32,-44
1491087163405,2,4,-22,19,50,47,-3,30,5
1491087163406,3,-11,-14,-8,-36,37,38,14,-5
1491087163406,3,17,-1,-12,-42,-7,65,-2,30
1491087163441,0,-6,11,50,108,127,30,29,-9
1491087163441,0,-22,24,-51,-72,-128,-124,83,22
1491087163478,1,24,15,-14,-36,-6,-10,-128,-56
1491087163478,1,-17,-25,26,89,87,-15,-1,9
1491087163480,2,23,-21,-23,-100,75,-87,-21,8
1491087163480,2,-11,-42,33,-4,-26,41,13,-5
1491087163480,3,3,-37,14,33,-37,55,45,29
1491087163480,3,-18,-6,-57,-76,-71,-83,-87,-29
1491087163482,0,10,11,21,43,-27,61,-1,3
1491087163482,0,49,24,31,59,17,105,-58,5
1491087163516,1,-20,42,-52,-49,31,-17,51,38
1491087163516,1,25,41,21,9,-41,-42,-14,-25
1491087163517,2,-20,38,11,23,62,110,90,20
1491087163517,2,16,55,-23,24,-26,-128,-22,-4
1491087163517,1,-19,6,-3,42,-19,-19,-6,-29
1491087163517,1,10,3,30,70,57,106,103,28
1491087163518,2,-35,-9,-30,-69,-43,-12,1,-7
1491087163518,2,-19,-19,78,101,127,127,116,27
1491087163553,3,14,3,-26,11,-47,-128,-128,13
1491087163553,3,16,3,5,59,40,101,59,-11
1491087163554,0,-10,-7,-45,-17,-23,-76,-65,-20
1491087163554,0,-11,-6,-36,-64,-58,109,49,7
1491087163555,1,-24,-1,55,21,29,-94,-6,0
1491087163555,1,10,-3,-16,-90,-52,5,-24,-3
1491087163556,2,-11,-12,-8,35,-79,-50,46,16
1491087163556,2,13,8,-54,-85,-78,-112,-128,-92
1491087163591,3,-7,-14,24,44,30,119,90,30
1491087163591,3,-11,16,21,24,100,-68,-86,-7
1491087163591,0,-22,-26,34,94,122,65,-32,-16
1491087163591,0,-9,-6,-75,-104,-119,-87,-16,2
1491087163592,1,4,-7,18,84,109,127,99,20
1491087163592,1,21,10,35,-28,-18,-59,-56,-19
1491087163593,2,-27,-13,14,63,-112,-51,-3,33
1491087163593,2,-4,-17,-63,-41,43,121,-79,-42
1491087163628,3,-19,-1,56,-54,-13,40,74,-4
1491087163628,3,18,11,-74,-38,-8,-101,-106,-10
1491087163630,0,-23,-7,-55,-63,-95,103,1,-19
1491087163630,0,61,10,127,127,119,93,100,51
1491087163630,1,-56,-15,-77,-128,-128,64,-104,-52
1491087163630,1,0,-3,-12,-27,-70,-3,14,-1
1491087163631,2,3,-4,7,3,36,87,36,0
1491087163631,2,-7,-1,89,127,113,86,40,46
1491087163703,3,4,-6,-37,-40,93,-65,-65,-17
1491087163703,3,9,-2,73,112,113,127,116,39
1491087163704,0,27,-5,-102,-128,-75,-120,-43,10
1491087163704,0,-21,1,-33,-31,-93,-104,-106,-44
1491087163705,1,3,-3,65,-29,48,88,4,33
1491087163705,1,-36,2,-38,22,-67,-101,14,-31
1491087163741,2,60,27,36,-11,-22,33,7,49
1491087163741,2,-25,-11,10,63,94,-23,54,-33
1491087163741,3,38,4,-45,-40,-83,-41,-81,-17
1491087163741,3,-60,-42,5,-16,12,75,3,10
1491087163743,0,11,18,-3,-76,-76,47,59,-28
1491087163743,0,-9,-10,5,63,32,-65,-50,29
1491087163744,0,-3,14,-17,4,-17,-91,-54,-19
1491087163744,0,61,10,48,20,-53,113,46,77
1491087163778,1,-16,7,-95,-77,-5,-103,-49,-64
1491087163778,1,62,17,31,59,58,77,-6,56
1491087163780,2,-38,-11,38,38,19,90,93,-23
1491087163780,2,-1,-23,-17,38,80,82,-26,1
1491087163780,3,-26,-2,24,-84,-83,-90,113,54
1491087163780,3,51,13,-38,-31,-20,-42,-28,-47
1491087163781,0,-6,-3,4,-28,86,-23,2,30
1491087163781,0,-11,2,-26,-74,-117,-71,-35,-57
1491087163853,1,23,14,7,14,31,34,85,-5
1491087163853,1,-9,1,32,86,117,-42,-53,35
1491087163854,2,-58,-23,-26,-66,12,37,113,3
1491087163854,2,17,9,13,-62,-101,34,-17,8
1491087163855,3,-64,13,-14,127,122,-70,-44,-44
1491087163855,3,-30,14,40,3,-32,89,89,33
1491087163856,0,-20,-7,24,19,-10,92,6,-28
1491087163856,0,-7,-10,-64,-59,-35,-14,44,-25
1491087163891,1,28,-5,-1,-30,-89,-33,-92,-7
1491087163891,1,12,10,15,-32,-24,-40,62,55
1491087163892,2,-9,2,-12,-20,-12,28,-71,-20
1491087163892,2,-61,-1,16,58,43,-61,-43,-89
1491087163892,3,10,13,-30,-2,-45,17,-42,-13
1491087163892,3,26,7,17,-38,-35,61,-40,-2
1491087163893,0,35,-16,3,61,42,-45,-63,-18
1491087163893,0,15,13,32,-28,27,-13,57,24
1491087163928,1,-25,-1,-7,-9,19,104,77,43
1491087163928,1,52,10,19,-25,33,46,-47,-9
1491087163929,2,-37,-28,-25,24,-64,-56,-49,-54
1491087163929,2,-8,12,-24,-92,-107,-53,36,36
1491087163966,3,-25,-28,-50,-53,-61,90,51,-4
1491087163966,3,14,20,27,17,17,-110,-12,-18
1491087163967,0,42,4,-31,22,88,55,-8,20
1491087163967,0,-81,-25,19,21,71,16,101,12
1491087163967,1,18,10,27,7,-59,-78,-16,43
1491087163967,1,37,17,11,73,46,46,23,-48
1491087163969,2,-84,-42,-7,-78,-96,-25,-7,-21
1491087163969,2,80,37,-6,26,-39,-39,-86,52
1491087164003,3,-105,-37,-17,3,78,29,-19,-6
1491087164003,3,-42,9,-7,-44,-18,-45,-12,-111
1491087164005,0,-4,-11,-28,46,33,117,89,35
1491087164005,0,-22,10,-22,-63,-128,-74,31,-16
1491087164005,1,22,-14,-19,15,-50,-32,-28,-3
1491087164005,1,45,10,49,12,47,48,-20,44
1491087164006,2,-62,7,11,35,60,-32,-27,-54
1491087164006,2,7,-14,34,42,120,127,-29,-6
1491087164041,3,-37,21,-34,-86,-48,-116,-51,-42
1491087164041,3,3,-17,-23,107,64,60,118,42
1491087164042,0,-11,-11,-3,-30,-43,38,-66,-26
1491087164042,0,-17,8,73,95,-35,-23,-47,5
1491087164042,2,23,-18,-55,-12,-45,35,86,-2
1491087164042,2,-20,-10,35,4,84,-28,-70,-50
1491087164043,3,55,12,77,70,34,127,118,47
1491087164043,3,-62,-23,-78,-75,-128,-123,-90,-18
1491087164078,0,-5,11,-15,-37,76,-101,-4,4
1491087164078,0,-16,-14,-32,-20,-35,85,63,-13
1491087164080,1,27,-3,7,22,33,19,-17,-16
1491087164080,1,-20,-12,-11,-31,-62,40,-10,11
1491087164080,2,-23,-4,13,5,-73,-49,-62,-23
1491087164080,2,15,15,-18,-32,43,-31,93,8
1491087164081,3,0,9,43,106,127,49,-20,27
1491087164081,3,-8,-25,-7,17,-3,-25,118,64
1491087164116,0,-18,1,18,25,-54,73,-67,-70
1491087164116,0,-14,4,-8,-100,24,25,12,28
1491087164116,1,5,-12,-104,-99,-128,-42,-3,-55
1491087164116,1,-5,-6,65,-2,-44,-26,-42,-15
1491087164117,2,45,16,-25,4,43,19,48,38
1491087164117,2,-4,-16,46,63,11,92,3,-8
1491087164118,3,-32,-30,-15,25,127,69,127,41
1491087164118,3,49,26,-26,-31,-64,-53,-115,-16
1491087164153,0,-3,-15,20,32,18,-69,21,6
1491087164153,0,-55,0,4,-24,-92,93,-34,-24
1491087164154,1,71,-6,-25,-10,-71,-98,43,-18
1491087164154,1,-71,10,14,21,57,-58,-40,-25
1491087164155,2,-72,-36,0,-56,127,92,103,12
1491087164155,2,69,25,-16,41,26,-118,-76,-48
1491087164156,3,-3,6,83,90,98,21,6,46
1491087164156,3,10,-1,-39,42,35,91,127,11
1491087164191,0,-25,-12,-77,-109,-54,-105,113,28
1491087164191,0,51,-16,-36,9,-26,52,-86,-63
1491087164192,1,8,23,65,-66,1,70,28,19
1491087164192,1,44,16,51,127,21,-84,-6,30
1491087164192,2,24,-32,-16,-16,-54,127,84,56
1491087164192,2,-25,2,-62,-81,-65,-107,-82,-53
1491087164193,3,-48,-3,18,45,3,24,-128,-44
1491087164193,3,22,-13,-15,-56,10,101,83,56
1491087164228,0,41,43,47,19,11,-28,-128,-48
1491087164228,0,1,-15,46,91,82,86,28,91
1491087164230,1,-80,-9,-81,-69,6,-36,-75,-77
1491087164230,1,-23,22,-2,-95,-115,13,70,-14
1491087164230,2,14,-9,-2,30,71,90,102,83
1491087164230,2,34,-12,0,16,-2,-54,-17,20
1491087164231,3,-34,-11,58,44,-34,101,64,32
1491087164231,3,-18,3,12,118,127,23,-85,-50
1491087164266,0,48,27,-37,-43,37,-59,-4,10
1491087164266,0,-40,-29,-18,-51,34,31,61,-15
1491087164267,1,0,30,-11,-39,-128,-115,-20,1
1491087164267,1,-59,-5,31,52,48,55,120,1
1491087164267,2,7,16,38,-41,-91,26,-74,12
1491087164267,2,-31,2,-21,-116,-111,96,100,76
1491087164269,3,62,-4,17,-48,-58,-71,-101,6
1491087164269,3,-44,-36,-104,-25,10,-41,-26,-82
1491087164303,0,-7,7,46,64,85,14,-48,6
1491087164303,0,-6,5,62,89,77,-23,124,31
1491087164304,1,-40,-9,-7,-59,-113,-54,-104,-54
1491087164304,1,127,42,-20,-101,-28,106,51,55
1491087164305,2,-128,-20,5,93,54,-73,3,32
1491087164305,2,100,20,21,-14,-128,65,-32,-27
1491087164306,3,-14,-18,-50,39,127,51,65,-21
1491087164306,3,-2,14,76,60,38,63,26,2
1491087164341,0,92,-9,-21,-111,-128,-70,-61,47
1491087164341,0,-54,-2,-77,-54,-70,76,-18,-54
1491087164342,1,9,11,77,117,111,69,26,11
1491087164342,1,-55,-41,-92,-101,-91,29,-73,-46
1491087164343,2,-9,13,30,-33,-105,-97,-77,-94
1491087164343,2,-12,1,31,97,94,11,39,-20
1491087164378,3,38,-13,-25,27,63,109,121,37
1491087164378,3,-42,-13,-5,-48,-20,-62,-50,6
1491087164379,0,41,-4,-36,-11,-2,69,-2,62
1491087164379,0,-39,-11,-4,-14,-74,-128,-21,-90
1491087164380,1,38,12,-31,-41,-117,-88,11,96
1491087164380,1,43,-17,-33,-79,-5,120,-57,28
1491087164381,2,-23,16,109,77,8,-19,74,1
1491087164381,2,3,-22,-116,-128,-46,67,-80,5
1491087164416,3,-44,-7,23,-28,-28,-84,-20,-54
1491087164416,3,12,-6,60,76,80,6,18,3
1491087164417,0,-34,-5,-68,-85,-4,-8,13,-49
1491087164417,0,21,15,57,91,127,-44,51,29
1491087164418,1,30,0,-29,55,-12,42,14,54
1491087164418,1,-44,-22,-61,-46,-128,-91,-113,-37
1491087164421,2,49,0,25,44,19,127,84,7
1491087164421,2,-22,8,31,24,104,-76,74,99
1491087164453,3,-4,-6,-63,-26,-55,37,18,-40
1491087164453,3,-6,10,83,-64,-74,127,127,22
1491087164455,0,26,2,-76,33,-26,-75,-46,-52
1491087164455,0,29,-9,-26,-57,-57,-73,-127,-17
1491087164455,1,-47,-22,-45,-22,-94,91,84,-38
1491087164455,1,2,-12,-9,-29,31,80,25,-18
1491087164456,2,29,19,71,54,41,-57,59,50
1491087164456,2,-75,-11,-6,58,-25,51,-45,-62
1491087164491,3,7,0,64,38,87,92,-16,-36
1491087164491,3,30,19,-11,36,113,-102,41,45
1491087164492,0,-54,-17,-30,29,54,67,0,-24
1491087164492,0,-18,-1,54,-9,-35,61,88,59
1491087164493,1,28,-13,-64,-4,-25,-79,-68,-9
1491087164493,1,4,28,47,86,66,37,-21,-5
1491087164528,2,-23,1,30,75,7,6,45,31
1491087164528,2,38,-4,-35,-38,64,119,-87,-47
1491087164530,3,-29,8,100,-49,-15,-38,-25,-25
1491087164530,3,-20,-24,-105,-63,-128,-124,-120,-58
1491087164531,0,9,14,14,-9,25,-109,59,-45
1491087164531,0,-8,0,39,9,41,95,55,1
1491087164532,1,66,17,5,86,25,-68,3,55
1491087164532,1,37,2,14,-15,-73,-45,-37,55
1491087164566,2,-50,-10,3,-12,-55,127,50,-8
1491087164566,2,5,-9,12,31,63,5,-2,13
1491087164567,3,1,2,-89,-108,-84,-5,-17,-34
1491087164567,3,50,14,70,105,60,-22,34,34
1491087164567,0,-29,-24,-80,-110,-73,81,-26,-42
1491087164567,0,27,13,42,18,-67,-105,-110,-13
1491087164568,1,-53,9,1,-20,-78,87,114,56
1491087164568,1,-29,-9,-38,10,25,-52,-104,-78
1491087164603,2,12,-6,-6,-19,-6,-15,-10,15
1491087164603,2,-9,4,19,27,-79,26,0,24
1491087164604,3,34,22,80,66,114,72,85,44
1491087164604,3,-11,8,-22,44,3,0,-29,-24
1491087164605,0,32,-12,-22,-58,-79,115,35,42
1491087164605,0,-20,0,40,10,-118,-128,-87,-20
1491087164606,1,3,-26,-118,-44,-26,-99,-50,-62
1491087164606,1,-9,7,54,34,81,121,76,40
1491087164641,2,21,5,-12,-8,52,-45,-4,-13
1491087164641,2,-8,-20,-50,-83,-89,-62,-48,0
1491087164642,3,-16,5,51,18,56,113,4,-17
1491087164642,3,-21,-5,-3,-45,-27,33,-13,-1
1491087164643,0,7,17,33,44,35,52,67,68
1491087164643,0,-46,-10,-14,-86,77,0,45,6
1491087164678,1,16,-18,-85,-108,-100,-62,-106,-62
1491087164678,1,-20,-7,36,53,95,90,90,8
1491087164679,2,-23,-8,-19,-43,9,-97,-108,-34
1491087164679,2,17,13,-40,-6,33,4,3,-21
1491087164680,3,-42,-11,51,75,65,64,39,20
1491087164680,3,-1,-7,6,-69,-65,4,5,-8
1491087164681,0,7,16,9,50,-1,7,-87,-12
1491087164681,0,-21,-9,-8,57,-11,54,21,3
1491087164716,1,2,-1,-13,10,19,-104,-21,-19
1491087164716,1,2,7,24,-23,-71,106,28,16
1491087164716,2,9,2,42,9,2,-116,27,10
1491087164716,2,10,-10,-97,-81,-122,-30,-77,-43
1491087164717,3,-23,6,37,34,35,-9,66,34
1491087164717,3,-15,5,34,51,54,44,34,-8
1491087164718,0,47,6,-16,-49,32,-48,-3,38
1491087164718,0,-2,13,-21,18,-84,109,34,-9
1491087164753,1,-10,-1,7,-19,81,-83,-23,3
1491087164753,1,5,3,7,-96,-34,12,-14,-11
1491087164754,2,-22,-12,7,106,96,32,-22,-23
1491087164754,2,14,0,-1,-68,29,45,70,21
1491087164755,3,7,6,8,-46,-96,-70,-48,5
1491087164755,3,0,-3,-26,-9,25,-28,-6,6
1491087164791,0,-20,-2,13,-40,24,45,-42,-35
1491087164791,0,2,-7,11,24,-4,-5,68,36
1491087164792,1,9,-3,9,3,-6,26,-50,-19
1491087164792,1,7,-5,8,74,65,3,82,21
1491087164792,2,2,8,-25,-107,-128,-52,-53,-18
1491087164792,2,2,7,-17,-1,63,-92,15,25
1491087164793,3,24,13,19,2,35,79,-38,-13
1491087164793,3,26,-11,-8,38,-10,1,5,6
1491087164828,0,-17,-12,-10,28,-31,64,9,1
1491087164828,0,12,0,11,-63,-45,-79,-54,-11
1491087164829,1,-20,-20,-21,62,8,90,31,8
1491087164829,1,18,-2,-5,20,34,30,10,0
1491087164831,2,-16,-3,9,107,123,-54,-15,-33
1491087164831,2,5,10,-35,-100,-106,40,-1,-15
1491087164831,3,-8,-13,-11,99,-14,72,35,6
1491087164831,3,1,4,11,29,9,53,-41,3
1491087164866,0,4,-9,23,-78,-78,54,29,1
1491087164866,0,-12,-8,34,86,80,57,72,5
1491087164866,1,-1,29,3,15,21,-43,-105,-32
1491087164866,1,-29,-30,-82,-7,-51,31,41,22
1491087164867,2,-4,14,28,-36,-38,31,-93,-41
1491087164867,2,-2,-10,-5,76,11,-6,-34,12
1491087164868,3,-32,-12,-47,-57,-50,-6,61,-18
1491087164868,3,-7,-8,4,-45,-44,-88,-74,-15
1491087164904,0,-6,-17,-70,6,-10,-45,-6,-2
1491087164904,0,-2,-8,48,9,18,7,15,9
1491087164905,1,3,3,-7,78,72,-5,-4,10
1491087164905,1,11,2,-43,-33,-40,-61,-4,10
1491087164905,2,-11,0,-40,38,20,29,40,6
1491087164905,2,-4,22,72,-10,37,41,33,-13
1491087164941,3,26,-5,-52,-67,-42,-27,-60,3
1491087164941,3,24,27,57,-21,-16,-51,-11,15
1491087164942,0,0,-5,14,39,29,24,23,0
1491087164942,0,5,6,-46,-38,1,-13,-29,-3
1491087164942,1,28,25,33,-80,-28,16,32,8
1491087164942,1,-21,16,-3,-8,-1,-41,-14,-8
1491087164943,2,-3,-6,-15,15,-19,-23,-39,0
1491087164943,2,1,-7,21,-16,-1,46,69,-2
1491087164978,3,-4,-42,11,41,54,5,49,9
1491087164978,3,4,-13,33,-93,-6,59,87,6
1491087164979,0,-6,-12,-23,-8,-82,-6,-60,-58
1491087164979,0,-16,-21,-44,55,52,123,75,4
1491087164980,1,3,32,38,-49,-44,8,-19,7
1491087164980,1,-10,-2,-11,14,20,19,27,6
1491087164981,2,19,14,22,35,68,19,21,24
1491087164981,2,-1,15,18,-12,-32,-52,-53,-11
1491087165016,3,-7,23,33,-61,-58,-15,7,-8
1491087165016,3,-1,2,5,54,5,-57,-47,-18
1491087165017,0,18,8,5,-56,6,-24,-8,15
1491087165017,0,11,-11,-56,54,8,-16,-26,-1
1491087165017,1,-15,-18,22,29,16,6,-3,2
1491087165017,1,-7,-6,-16,6,2,-28,-36,4
1491087165018,2,6,-8,32,79,48,34,54,9
1491087165018,2,7,22,20,-34,21,20,14,-2
1491087165053,3,-4,-19,-99,-89,-78,-90,-45,-16
1491087165053,3,105,-1,44,60,21,-7,-26,-3
1491087165054,0,-27,-26,-31,7,-30,0,9,-15
1491087165054,0,-7,-11,23,15,13,41,3,9
1491087165055,1,-21,-9,41,57,34,28,1,13
1491087165055,1,-48,-32,-19,44,-30,0,28,-12
1491087165091,2,-15,-25,-11,-4,87,34,-11,-14
1491087165091,2,-3,-11,49,-33,-101,-6,-29,-4
1491087165092,3,3,-25,-60,-15,8,22,1,7
1491087165092,3,-19,-5,16,31,24,-2,-16,-11
1491087165092,0,10,6,21,-34,-14,54,64,20
1491087165092,0,-30,-27,-31,32,23,29,-44,-25
1491087165093,1,5,14,29,-17,20,91,36,22
1491087165093,1,-15,3,-24,-70,-83,-93,-82,-18
1491087165128,2,4,-1,-9,17,40,56,30,4
1491087165128,2,24,13,-20,-47,-25,-65,-55,16
1491087165130,3,-1,-9,-17,10,2,127,46,0
1491087165130,3,-27,15,42,31,-69,-86,-65,4
1491087165130,0,-1,27,-6,-74,-46,3,-36,-15
1491087165130,0,-3,-21,-96,-32,-1,96,-21,-16
1491087165131,1,20,1,39,10,-21,-108,46,4
1491087165131,1,1,6,-36,-38,1,-29,33,13
1491087165166,2,-32,-7,3,16,1,-43,-27,0
1491087165166,2,23,17,25,22,-10,8,15,21
1491087165167,3,4,3,20,33,36,-40,-8,-4
1491087165167,3,36,-15,-2,-48,52,75,31,-18
1491087165168,0,14,4,-17,-17,-91,-28,-50,4
1491087165168,0,-37,6,-4,-12,21,-27,24,-8
1491087165169,1,-13,3,-6,12,24,62,-9,14
1491087165169,1,-20,13,1,-20,-19,-88,-6,8
1491087165203,2,-18,11,0,15,38,102,104,18
1491087165203,2,6,-1,21,119,99,-18,-63,-8
1491087165204,3,-15,-5,-21,-13,-99,62,-9,-2
1491087165204,3,-9,-7,-66,-84,-15,5,-31,-20
1491087165205,0,-20,-20,23,-34,-31,-20,1,-13
1491087165205,0,66,9,20,64,82,105,127,75
1491087165241,1,11,18,19,9,-12,-116,-124,-55
1491087165241,1,37,-13,-24,0,2,127,18,6
1491087165242,2,-78,1,34,26,-28,58,61,-16
1491087165242,2,-34,-16,-21,-6,32,105,120,-3
1491087165242,3,-10,-25,-25,-19,46,1,1,32
1491087165242,3,46,4,51,38,-25,-31,-90,-66
1491087165243,0,80,4,-18,-10,-47,-117,-5,15
1491087165243,0,79,3,34,-23,-66,-16,-60,-42
1491087165278,1,56,11,-18,-55,25,-33,16,31
1491087165278,1,-106,-15,-38,-80,-74,11,87,9
1491087165280,2,5,10,75,107,96,74,-71,5
1491087165280,2,-128,-30,-75,-81,-88,-122,-73,-66
1491087165280,3,56,14,52,6,-15,88,76,22
1491087165280,3,65,38,-5,13,-21,-14,84,94
1491087165281,0,-26,-29,-15,-2,18,-66,-50,-37
1491087165281,0,95,24,21,8,15,-4,-36,28
1491087165316,1,-112,-44,-6,24,8,-29,71,-52
1491087165316,1,-102,-24,-1,7,62,102,-88,-29
1491087165317,2,-84,-12,-8,-30,-40,-87,81,24
1491087165317,2,20,-1,22,51,123,100,115,20
1491087165318,3,-21,11,-3,29,-96,-114,-102,-34
1491087165318,3,-72,-6,7,56,21,80,14,22
1491087165353,0,-120,-4,-56,-85,-31,49,65,-15
1491087165353,0,-108,-1,-18,-24,-22,11,-37,19
1491087165355,1,76,18,16,-28,-6,-12,-31,7
1491087165355,1,-18,0,33,86,92,69,41,7
1491087165356,2,-64,5,-7,-12,96,42,-90,-64
1491087165356,2,-102,10,-12,-67,-128,-90,-21,43
1491087165356,3,70,-9,17,92,118,127,35,18
1491087165356,3,12,36,28,-5,2,13,42,53
1491087165391,0,-35,2,-12,-79,-15,77,56,-18
1491087165391,0,-120,23,109,110,97,55,55,9
1491087165393,1,-128,21,-80,-107,-105,-128,-53,9
1491087165393,1,-55,-22,-2,-79,4,121,-34,-83
1491087165394,2,97,-10,-12,52,-78,120,106,40
1491087165394,2,71,0,-38,-16,-17,-87,-128,-101
1491087165395,3,-63,-15,14,32,93,127,91,-16
1491087165395,3,-37,-21,-22,53,62,-108,-41,29
1491087165430,0,61,88,24,-84,-128,-13,26,62
1491087165430,0,-15,-15,-10,-60,-66,4,36,18
1491087165431,1,-20,-19,16,98,92,98,71,9
1491087165431,1,24,-6,-26,-43,-23,-44,-42,-18
1491087165432,2,40,-13,25,-10,-3,-59,-83,-40
1491087165432,2,127,10,-56,17,-2,-71,2,21
1491087165433,3,13,-15,-21,-120,-88,127,81,-41
1491087165433,3,46,-12,21,-5,-50,-108,-67,-33
1491087165469,0,123,0,-83,-50,-48,-69,-128,-30
1491087165469,0,-74,-26,-14,24,29,127,85,-35
1491087165470,1,-83,14,99,87,74,61,19,56
1491087165470,1,-128,-2,-78,-82,-90,-47,-33,17
1491087165477,2,-117,-13,-42,-6,36,0,3,-26
1491087165477,2,-102,-39,-21,-39,-9,31,0,-51
1491087165478,3,-34,-5,-1,114,126,-60,-27,17
1491087165478,3,18,13,58,-17,27,104,127,78
1491087165504,0,30,11,17,58,-58,-29,-72,-14
1491087165504,0,-9,-18,-23,-18,35,0,14,10
1491087165504,1,41,7,72,29,-81,20,-73,-50
1491087165504,1,64,19,-58,44,104,16,57,13
1491087165505,2,6,-28,-50,-81,-46,-76,96,60
1491087165505,2,32,25,93,-51,-101,11,-15,-24
1491087165541,3,126,29,11,65,40,75,78,67
1491087165541,3,-17,-14,24,-79,-128,-30,-38,-43
1491087165542,0,22,17,-55,-23,49,7,-56,-15
1491087165542,0,75,-18,27,115,103,66,9,18
1491087165542,1,-1,6,-40,-53,-60,-19,29,31
1491087165542,1,-20,4,21,66,127,127,106,11
1491087165543,2,26,-32,38,60,20,-54,-51,-4
1491087165543,2,120,0,-23,-111,-120,71,21,-10
1491087165578,3,122,-25,-44,-72,-114,-108,-104,-83
1491087165578,3,127,23,60,118,70,53,-57,6
1491087165581,0,55,-41,-24,-80,25,69,32,38
1491087165581,0,-56,3,-2,59,-39,-128,47,57
1491087165582,1,-100,1,18,-42,96,127,-11,-68
1491087165582,1,-126,8,-48,-51,-107,45,70,-9
1491087165582,2,-127,-8,-23,12,38,-77,-58,-13
1491087165582,2,-128,8,8,-1,60,37,-44,-41
1491087165616,3,-128,28,-35,-64,12,-82,-37,67
1491087165616,3,-109,-8,32,77,29,33,44,9
1491087165617,0,-128,13,127,123,86,127,75,1
1491087165617,0,-107,-12,-92,-79,-107,-93,-98,17
1491087165618,1,-128,-35,-36,-78,-91,-91,-52,-90
1491087165618,1,11,21,60,-22,-25,10,43,24
1491087165653,2,14,-3,61,123,72,110,33,23
1491087165653,2,44,-5,-18,93,127,44,14,-40
1491087165691,3,122,7,-56,-89,-35,-94,-17,27
1491087165691,3,51,-2,-17,3,-12,109,-57,-54
1491087165728,0,16,0,17,-111,-41,107,104,1
1491087165728,0,-16,-11,6,34,47,-47,-3,69
1491087165730,1,56,29,66,43,-83,81,101,-23
1491087165730,1,116,-3,-43,-30,-47,-89,-26,25
1491087165730,2,127,-7,1,-29,45,0,2,42
1491087165730,2,28,-47,-21,-44,-32,-16,32,-33
1491087165731,3,110,-24,27,1,-33,69,-48,-30
1491087165731,3,28,47,-17,26,78,-50,2,9
1491087165766,0,-78,47,56,41,-21,-74,-66,18
1491087165766,0,-107,-12,-26,65,93,5,89,25
1491087165767,2,-92,3,-1,67,82,77,17,-69
1491087165767,2,-70,11,4,33,64,99,-20,25
1491087165768,2,37,-4,31,-36,54,51,-47,19
1491087165768,2,58,12,6,46,-128,-49,-25,-33
1491087165769,3,42,-11,-57,-49,15,-25,-58,-26
1491087165769,3,77,10,97,102,121,50,-21,26
1491087165803,0,42,-32,-76,-81,-109,18,58,-5
1491087165803,0,61,-38,-36,-68,-94,38,-86,-92
1491087165804,1,8,-54,-28,-2,-48,86,85,51
1491087165804,1,-26,-48,86,97,24,-55,6,-16
1491087165805,2,82,-9,-56,1,-49,-71,20,42
1491087165805,2,-4,-34,-1,-79,-75,4,-9,-26
1491087165806,3,-58,-4,-2,-8,-32,-9,34,-13
1491087165806,3,-99,-12,16,-22,-23,6,-88,33
1491087165841,0,-128,4,-11,25,68,8,24,-36
1491087165841,0,-73,-2,83,57,50,27,113,37
1491087165842,1,19,28,33,21,68,-28,-11,36
1491087165842,1,-101,-35,-66,-58,-57,-38,-12,-55
1491087165843,2,94,3,-18,-60,-109,-34,-8,38
1491087165843,2,127,16,42,-3,34,118,76,84
1491087165844,3,127,-6,-5,-8,-99,-30,-26,-40
1491087165844,3,84,30,20,53,114,120,98,9
1491087165880,0,-124,9,-67,-53,-86,-128,-33,-35
1491087165880,0,-105,68,-33,-59,-59,127,25,-36
1491087165881,1,-60,52,67,68,76,90,34,59
1491087165881,1,8,103,9,-45,-88,-1,54,33
1491087165882,2,27,120,31,88,127,50,-10,-99
1491087165882,2,77,110,-8,0,42,-58,-25,60
1491087165883,3,-40,82,-16,-9,-27,-65,0,-38
1491087165883,3,11,12,-4,54,40,108,21,24
1491087165916,0,74,7,44,-47,-50,9,-45,82
1491087165916,0,59,-40,-40,-67,-73,-128,29,-35
1491087165917,1,36,-41,-20,0,-27,69,-128,-6
1491087165917,1,75,-84,-16,-39,53,-81,92,-60
1491087165917,2,46,-16,40,71,93,95,-54,38
1491087165917,2,105,-58,-67,-13,-7,-108,-1,-44
1491087165918,3,114,1,21,-1,-27,40,-63,40
1491087165918,3,5,-32,-1,-13,57,72,111,14
1491087165953,0,-95,-48,31,15,-74,26,-64,-40
1491087165953,0,-128,-33,4,14,97,10,19,0
1491087165954,1,-91,-17,61,57,-30,-14,-69,6
1491087165954,1,47,-18,-84,-128,-66,-82,-37,25
1491087165955,2,-88,-29,25,55,-30,1,-66,-77
1491087165955,2,-58,-4,25,87,71,127,106,38
1491087165956,3,-23,-23,-62,-98,-100,-128,-108,-54
1491087165956,3,-73,0,-24,-24,51,69,20,-7
1491087165991,0,-19,-4,32,47,32,-97,12,31
1491087165991,0,-121,-23,-32,14,72,38,33,-11
1491087165992,1,-125,-14,-15,-6,-69,62,44,-10
1491087165992,1,17,0,17,23,17,-52,-73,-33
1491087165993,2,83,-15,-5,56,121,90,97,42
1491087165993,2,90,17,61,35,-5,3,-22,-41
1491087166028,3,-29,-10,-51,-82,-34,-88,-41,-26
1491087166028,3,-128,-10,-17,24,-36,109,81,67
1491087166029,0,-128,21,-14,-85,2,-96,-103,-66
1491087166029,0,-54,12,23,65,-50,37,40,35
1491087166030,1,71,-6,-42,-10,127,87,127,3
1491087166030,1,-7,6,-13,-89,-108,-63,-124,-9
1491087166031,2,-8,-12,-39,-24,11,97,45,-59
1491087166031,2,44,5,55,-18,47,76,-32,29
1491087166066,3,-55,-2,6,127,127,-17,25,-11
1491087166066,3,65,6,18,83,-19,-16,-93,-42
1491087166066,0,75,-18,-41,-109,-122,8,127,10
1491087166066,0,61,11,0,39,61,16,-96,-26
1491087166067,1,82,4,73,-6,-76,-55,-24,46
1491087166067,1,-34,1,-22,36,86,25,103,-50
1491087166069,2,84,1,23,89,47,52,66,84
1491087166069,2,91,-20,-27,-89,-128,115,19,64
1491087166103,3,43,-32,-24,-86,-40,-84,-83,-103
1491087166103,3,18,-5,-1,3,-104,-83,55,66
1491087166104,0,23,0,-28,-48,-61,40,-7,27
1491087166104,0,-119,-50,-45,-98,-101,-106,-59,-84
1491087166105,1,-30,13,32,127,127,127,-50,52
1491087166105,1,-32,19,-38,-97,-122,9,93,42
1491087166106,2,-117,-3,18,-51,-62,-38,-11,-18
1491087166106,2,-69,-1,8,38,17,48,-25,-86
1491087166141,3,-4,-17,-41,-58,-11,-128,91,78
1491087166141,3,-72,-45,-38,-71,-50,7,-106,-58
1491087166142,0,61,11,11,59,103,47,-18,49
1491087166142,0,30,25,100,-39,-128,61,75,70
1491087166142,1,18,-7,-88,-64,-97,-29,-50,-112
1491087166142,1,117,25,57,84,127,127,127,11
1491087166143,2,125,-17,13,-17,-115,-22,-85,44
