1490742672557,-4,-10,-72,15,-43,-112,-16,-20,19,61,48,88,-15,-103,79,17
1490742672605,-5,8,25,32,-54,18,84,35,-13,-9,15,47,69,107,-33,-38
1490742672606,14,4,33,-29,-63,-6,-39,-24,-26,-17,-24,-58,47,-14,9,60
1490742672654,-1,-5,-35,-82,127,101,-77,-31,-9,-3,18,56,-68,7,75,3
1490742672703,17,3,-2,-55,-106,-83,7,40,-6,-5,-32,-76,-50,-85,-33,-30
1490742672752,-7,-10,38,97,62,83,109,59,4,-3,22,-27,-11,-3,-98,-39
1490742672801,-13,-25,-14,-20,7,-4,24,2,-5,-9,-2,19,-9,-9,-4,23
1490742672849,-2,-31,10,-38,-39,6,37,56,3,-25,-2,20,-3,14,13,-15
1490742672850,1,43,25,24,-29,1,21,6,-13,48,-9,-31,-10,12,18,32
1490742672898,59,33,6,5,-7,-12,-45,-20,-12,20,10,1,6,-3,6,18
1490742672947,-37,-44,-11,-71,2,-9,-23,-11,33,-22,11,11,-20,-20,-2,-36
1490742672996,-7,-86,-10,-9,-9,2,17,-4,-12,-128,91,-7,-5,2,3,-19
1490742673044,44,122,-29,3,-31,-25,-6,-19,24,81,14,20,0,-12,-24,-15
1490742673045,-15,-34,40,-9,-46,37,27,41,1,-39,-80,-10,-37,26,1,-28
1490742673093,-29,68,26,25,20,14,25,-3,-13,109,-9,3,10,1,-34,-3
1490742673146,63,105,-10,-14,9,-22,-36,-17,-15,-101,3,-7,15,-3,2,15
1490742673191,-42,-42,0,10,20,11,-47,-39,31,-7,10,-23,-39,-33,0,-21
1490742673240,-7,-45,4,0,48,2,-3,-3,-33,-15,-18,-20,-33,-39,-56,-38
1490742673288,-35,0,8,12,-55,-22,-9,-23,11,8,-16,-33,80,2,70,27
1490742673289,34,-12,-25,-45,-83,-42,85,2,-18,-10,17,-12,-22,20,-85,-39
1490742673337,13,-2,19,73,100,59,32,-15,-14,-11,-15,-66,-31,-67,62,67
1490742673386,-36,-16,-8,20,38,22,12,25,81,14,-7,-45,-87,-7,0,45
1490742673435,25,12,-4,-24,-55,-31,-17,-6,13,4,13,35,-42,11,-11,13
1490742673483,-18,0,2,13,-4,21,-33,-5,-13,-3,19,51,-10,25,26,9
1490742673484,-46,-23,11,19,9,5,-14,-21,-40,11,7,21,70,4,-7,-29
1490742673581,-14,-12,-16,-13,-2,-32,-29,10,14,21,0,-1,-12,8,-22,-33
1490742673582,-31,-14,-14,-34,-76,-40,-19,-7,16,-37,3,18,31,25,16,-17
1490742673629,-21,23,1,22,-2,9,2,-3,-45,-8,3,12,19,10,33,25
1490742673678,22,-1,-10,-19,8,-11,38,15,6,11,-8,-29,19,-12,-45,-25
1490742673726,17,-2,3,18,50,3,-48,19,-13,7,1,-2,-19,5,11,23
1490742673727,58,-6,14,44,13,17,-17,-15,-27,0,-5,-33,50,-13,-4,-6
1490742673824,-37,-21,-3,-22,-21,21,5,-9,2,19,-4,21,-14,-11,40,11
1490742673825,-32,20,1,-41,-13,-51,3,-20,37,-30,0,17,-22,34,28,-16
1490742673873,-30,-22,-11,-32,-41,-25,-30,-99,-6,9,-10,-15,66,-6,-83,33
1490742673922,11,-11,21,18,-34,37,24,-8,-27,5,-3,33,36,26,15,-34
1490742673970,-6,22,-25,-51,21,-53,-25,6,-10,-6,5,12,-23,10,-32,-16
1490742673971,10,9,4,1,-110,-26,6,9,0,-7,-15,9,80,73,-31,-17
1490742674020,46,-4,-13,-66,-53,-2,-67,39,-12,-7,22,84,13,1,-4,44
1490742674068,-19,-2,27,22,-38,27,30,-4,-2,-4,-21,-43,-66,-37,-36,32
1490742674117,73,-6,11,43,113,-123,26,-19,-30,11,3,19,-4,37,-56,-47
1490742674165,-20,34,-73,-121,-115,25,-40,-38,44,2,25,101,95,51,56,18
1490742674167,-57,-7,-26,-19,109,19,-104,-19,27,-22,39,2,-128,-83,127,38
1490742674214,34,3,52,127,-33,98,39,0,-6,-19,17,22,29,38,19,12
1490742674311,18,-23,93,122,127,36,15,89,-34,14,-33,-118,-128,-1,-128,-44
1490742674312,4,15,-21,-50,118,-3,-56,-42,-10,-17,5,48,-15,-8,41,33
1490742674361,-9,-21,-2,51,77,127,118,7,7,2,44,7,-33,14,-23,26
1490742674457,14,25,-72,-128,-86,-128,-94,-24,-9,5,0,29,-51,-2,84,13
1490742674458,-16,-30,27,126,43,122,122,15,0,24,-5,-55,-9,-85,-74,-18
1490742674459,-7,-8,-37,-125,3,7,36,10,10,-31,-7,-37,-110,-17,-47,-19
1490742674507,-3,-25,-16,-49,-57,-87,-44,-75,-11,-107,21,71,40,89,97,76
1490742674556,1,116,-24,-40,-56,-34,-46,30,-1,127,3,-18,-76,-36,4,-34
1490742674653,0,-128,-9,-8,24,-4,9,9,-3,-114,6,49,28,3,34,0
1490742674654,3,-15,24,-16,-5,-53,10,35,1,-48,-58,-1,36,-2,8,6
1490742674655,-20,-53,-6,16,28,18,0,-6,3,-75,52,3,16,8,12,27
1490742674705,-17,-27,-4,12,5,8,-6,-1,11,0,-18,1,2,4,5,-16
1490742674751,5,127,36,-5,4,-7,-18,43,-16,127,-41,0,-3,-4,-11,-15
1490742674800,-6,127,24,-1,-2,-4,11,-9,6,127,19,-1,-3,21,-6,11
1490742674896,-25,-23,7,23,5,-5,-81,19,15,28,-15,-61,-26,-45,2,2
1490742674897,-9,-7,-19,-48,-56,-45,-60,-119,15,-19,4,-7,-95,29,54,67
1490742674899,-7,59,8,3,18,-106,86,62,32,26,12,98,125,76,-15,-25
1490742674946,-6,-42,-24,-112,-128,-22,118,14,-27,-25,-7,-13,-48,-20,-90,20
1490742675043,7,-11,0,54,121,27,-61,-128,-21,-7,10,31,-103,4,52,-6
1490742675044,0,-104,17,48,-11,33,19,-61,0,-98,23,119,56,8,18,-22
1490742675092,-39,-19,5,12,9,38,35,-45,53,-4,-1,-31,-81,-6,79,16
1490742675140,24,-9,-2,-4,88,35,86,41,-12,-5,25,19,45,33,-69,-24
1490742675141,7,7,5,61,67,48,-5,22,-16,5,1,-29,-29,-29,-73,-8
1490742675189,-11,1,-13,-52,-28,-16,47,-9,30,10,-3,5,78,18,-63,19
1490742675238,-29,-16,-6,-31,-36,-13,33,-26,-26,-2,-9,-15,4,13,13,15
1490742675287,11,0,-12,-12,-51,-6,-34,2,-21,-5,-18,2,31,13,57,44
1490742675384,22,4,-5,-26,-6,-8,-35,27,16,14,1,0,5,-3,-8,8
1490742675385,26,0,-22,-29,31,-28,-128,-70,27,9,20,39,51,55,127,40
1490742675386,-60,-109,1,6,-60,-2,61,2,-19,-16,17,22,47,7,-61,9
1490742675436,1,119,0,19,-38,-13,-42,-26,14,89,-17,-3,37,-32,44,-6
1490742675482,19,-7,-2,-40,29,-15,-37,11,17,-20,-33,-23,2,-12,-1,-23
1490742675530,-17,-11,-1,52,45,13,25,-57,7,-7,-12,-19,-12,30,9,0
1490742675531,-64,-6,-3,-63,-56,-69,-35,-7,29,13,4,-11,107,30,4,48
1490742675579,-10,14,1,30,-86,-6,59,9,-40,-3,14,52,-128,-1,-24,-44
1490742675628,-24,-33,-32,-82,-62,10,70,-25,19,2,5,6,-7,-19,91,75
1490742675677,-8,-14,-10,16,127,61,38,-7,37,0,16,-14,-61,29,-56,29
1490742675726,-33,-14,-33,-54,-55,-74,55,-36,-12,0,22,81,70,35,-58,-6
1490742675775,41,7,15,20,52,60,69,32,-30,2,5,-52,-92,-53,81,-14
1490742675777,-26,-4,24,45,-128,-45,-3,4,-26,-40,-61,-76,127,-10,-31,21
1490742675823,5,14,21,-1,-40,7,34,48,8,16,36,38,-87,-15,-17,16
1490742675872,-29,-16,-12,0,-93,-9,36,-34,17,-4,8,57,86,46,-15,17
1490742675921,8,-128,-7,-90,-24,-10,-47,-41,-1,-128,-5,-67,-66,13,127,-37
1490742675971,68,-63,11,41,127,62,-18,20,-26,-40,44,1,-67,44,116,-36
1490742676067,-7,21,-9,-8,28,18,-28,-25,8,27,-12,-23,-38,2,-39,44
1490742676068,19,-14,-1,28,-24,92,64,90,-21,27,24,81,64,85,32,-76
1490742676069,3,44,-36,-64,-93,-10,35,7,9,-117,35,107,65,49,108,127
1490742676116,-14,4,18,-42,-10,-78,-111,-105,-3,4,-21,43,12,-14,-34,-10
1490742676165,8,-46,13,11,-55,30,-15,-8,-22,-52,1,-5,21,-59,12,24
1490742676213,4,-11,-5,-11,-12,-32,-34,3,13,49,10,-7,27,3,-6,-1
1490742676215,-3,-36,-18,-19,-26,-46,2,35,-5,-45,8,-3,10,34,2,0
1490742676262,9,-2,16,4,-5,-26,-11,10,-3,-47,-3,-18,-5,-22,-6,-25
1490742676359,-18,-32,-5,-37,-19,30,14,-22,-15,40,11,8,-4,2,11,20
1490742676361,-14,54,-5,7,-4,-23,-24,-4,-14,14,-7,20,-7,11,6,-13
1490742676408,-21,-38,6,55,38,0,-7,4,3,-97,-3,17,-16,2,-23,17
1490742676459,-3,-29,-1,-4,-42,48,-30,43,-18,30,-3,-15,-11,-53,-48,-12
1490742676462,32,105,-33,-67,-14,-45,39,-41,1,-5,-4,8,-20,0,17,9
1490742676506,1,-14,9,43,55,39,-22,0,-24,-45,-17,28,60,5,63,-22
1490742676557,-27,35,-23,-32,-78,-26,71,-8,-16,29,-17,-16,-88,3,-128,40
1490742676603,71,-25,25,44,26,-2,-25,29,1,-21,-4,22,-16,5,47,-18
1490742676651,-15,36,14,20,38,49,-89,-40,2,-4,3,21,26,12,-2,59
1490742676653,16,-15,5,9,35,-12,34,20,-9,52,11,8,-31,-8,-54,-44
1490742676701,-28,22,-2,6,-18,1,35,28,20,12,4,-13,-52,-13,-13,1
1490742676750,60,64,15,35,-111,-21,-8,-12,-9,35,7,35,90,40,55,21
1490742676798,-31,104,1,-22,-33,-13,-55,-43,5,92,-12,14,-15,-21,-59,15
1490742676847,71,-44,16,53,3,49,10,28,-27,-32,-25,-72,-38,-34,0,-5
1490742676895,1,-54,7,30,41,29,52,-32,-11,-58,5,10,-66,-29,-35,-18
1490742676897,-45,2,-10,-24,40,10,-25,22,-6,-1,-20,-30,-32,-18,16,-13
1490742676945,-22,-21,-19,-16,-19,-19,-14,-50,44,-7,4,32,19,14,2,9
1490742676994,20,-16,-11,-30,67,-43,-37,-7,1,-11,11,19,25,40,56,34
1490742677042,-5,4,48,12,-104,48,25,67,-21,-10,-25,17,109,-99,-26,9
1490742677094,47,-1,-12,-24,-63,20,39,22,10,1,12,81,59,72,61,23
1490742677140,-2,2,-11,30,127,26,-93,-45,26,4,-14,58,-26,23,-12,11
1490742677141,-8,-17,-34,-107,-55,-85,104,-34,-2,-2,-12,-14,22,89,-85,1
1490742677189,24,12,31,92,41,45,15,10,7,-11,5,9,35,-6,103,-27
1490742677237,-6,1,56,110,-37,70,95,22,55,4,1,-2,103,-84,-76,-28
1490742677286,2,3,13,26,-86,23,30,23,-18,7,-2,23,87,8,30,24
1490742677335,6,9,-12,-87,-91,-82,-53,4,-20,-6,-34,-76,-57,-55,-41,10
1490742677337,-1,-15,17,45,28,63,49,33,-25,-22,10,57,70,47,58,-10
1490742677431,16,8,8,18,127,-6,-106,38,-7,-14,-8,4,21,-19,43,-15
1490742677433,17,23,-22,-91,-2,-35,-56,30,30,6,-5,-1,-89,-55,-1,-13
1490742677481,-17,16,-22,-31,-32,-25,-25,-11,0,10,28,95,94,73,11,10
1490742677530,38,26,-22,-84,-83,-53,-38,17,23,47,4,18,7,13,-3,12
1490742677578,-11,-83,17,0,19,3,20,10,0,-108,-3,-51,-48,-11,22,20
1490742677579,68,-12,-5,8,-20,-1,-9,-21,0,-31,0,23,7,1,24,7
1490742677627,-53,2,11,-7,15,-3,-16,10,8,1,0,-1,6,8,13,-3
1490742677676,-14,36,-6,15,4,-10,12,-16,-4,-27,5,6,14,-6,-9,13
1490742677725,-10,-9,-23,0,10,-7,-3,-1,-3,-54,-2,-18,-10,-1,-9,0
1490742677773,-25,-8,-5,5,2,8,6,6,37,-9,-5,-6,5,-2,-21,-5
1490742677821,0,8,-18,-14,3,12,18,30,-2,30,-6,-13,-6,-4,5,18
1490742677823,2,-61,-5,-8,-24,8,30,-19,1,-25,9,22,34,-10,-86,23
1490742677871,5,-17,-9,-20,-35,-13,-1,-31,-15,-9,-5,-17,-14,-5,1,-6
1490742677920,7,-48,12,0,-3,8,11,-17,4,12,3,-12,-86,-11,-78,16
1490742677968,29,91,22,3,-27,-2,-70,-7,-25,-9,0,11,44,22,47,-6
1490742678020,0,30,-13,3,0,19,-36,3,-9,-16,14,-31,-121,-44,20,-12
1490742678023,24,-97,-6,-19,-22,6,4,-14,-36,-51,-15,-56,26,21,8,19
1490742678068,-13,39,-26,-83,1,-6,-44,-23,5,55,-15,-2,-42,-20,21,7
1490742678115,-21,21,0,-20,-101,16,-20,-80,-11,8,7,-23,-128,-8,36,81
1490742678163,-14,30,-6,-11,4,-30,29,-39,59,30,24,93,-35,38,41,42
1490742678212,42,6,13,32,28,6,15,30,-18,2,-5,-17,13,6,-33,-8
1490742678262,5,38,1,32,32,70,52,0,12,83,9,-28,3,-43,-7,-8
1490742678263,-18,-42,23,61,52,35,-12,-35,16,-58,-11,-14,-91,14,24,38
1490742678407,-7,-18,-22,-46,-29,-33,-28,-19,-16,-11,15,38,51,24,34,27
1490742678408,79,-9,10,26,-82,-16,7,2,21,0,-13,5,78,-30,-20,-28
1490742678455,39,1,-16,2,10,45,86,7,18,5,-10,-3,55,5,-29,-5
1490742678457,-35,-22,-8,-16,78,-41,2,39,0,0,3,7,-128,-31,23,-45
1490742678504,9,18,39,124,30,82,-38,-28,-41,-1,-7,-82,-93,-107,-90,-84
1490742678505,-17,1,-17,-74,-63,-69,-18,-7,-18,13,-15,-21,7,52,-7,-28
1490742678553,-11,-21,-4,-52,6,36,23,-13,16,3,-21,-107,-50,-97,1,17
1490742678602,-23,-7,-5,19,40,33,78,-35,-5,9,-8,-9,61,58,-11,-16
1490742678651,16,17,-2,-29,-81,12,-31,-7,0,5,-2,-44,-81,-82,-23,-26
1490742678699,-3,-6,-2,9,-49,-71,29,1,3,3,13,62,86,61,59,21
1490742678701,-30,-24,-84,-128,-115,-125,-80,-40,-3,1,-8,54,-51,-51,-50,-45
1490742678749,13,9,31,43,-18,39,95,75,-1,-6,-8,-10,-27,-37,-101,-43
1490742678798,-11,-8,18,-13,-19,-13,127,26,13,9,-50,-32,-9,8,-116,1
1490742678846,10,4,49,102,-53,27,74,46,-28,-2,-47,-44,30,19,10,-20
1490742678894,-14,-11,24,37,84,50,-54,-31,-20,-1,-12,-28,-26,-88,-30,-33
1490742678943,0,1,-3,-1,58,22,-18,12,-3,-3,-16,-38,-37,-39,-1,4
1490742678944,-7,2,25,51,-3,39,45,2,23,4,5,-5,34,27,40,9
1490742679040,6,109,-22,-52,-77,-27,-57,-18,-15,12,-31,3,-13,-19,-29,-3
1490742679089,52,-122,23,15,30,43,61,38,6,-92,-10,23,-44,-28,-51,13
1490742679091,-9,-16,7,-13,-22,-1,-4,17,-1,-63,7,1,32,26,26,27
1490742679138,-15,27,-4,-13,5,18,24,22,5,44,-7,-28,-15,-21,-36,-27
1490742679140,-18,-13,0,17,-15,9,14,-6,-5,8,3,-27,-6,-21,-4,-2
1490742679187,-1,120,6,7,-2,-4,-21,-9,19,47,0,-3,-3,-5,0,-7
1490742679236,41,-91,-13,-30,-14,-6,9,6,-17,-79,16,37,21,13,12,-11
1490742679285,11,62,-4,6,41,-9,35,0,4,3,-25,-15,-2,-15,3,-8
1490742679333,1,20,-22,-26,-12,-32,-47,4,-1,-11,8,14,8,17,25,-6
1490742679382,2,-13,-7,29,74,16,47,-5,10,-5,7,13,32,24,-57,-31
1490742679385,51,105,7,11,-44,24,29,4,-16,79,2,35,-6,37,6,15
1490742679480,-13,22,27,89,127,47,127,-41,-4,21,-10,-74,-115,-26,-128,25
1490742679484,-24,13,-15,36,-16,26,41,3,9,56,9,9,-19,17,-8,-68
1490742679528,36,14,6,-50,71,16,-17,32,-16,-17,-9,-16,39,34,-29,-27
1490742679577,-53,-29,6,-5,51,0,70,15,5,-1,-11,23,127,26,-87,-56
1490742679625,14,-1,11,69,39,35,72,14,-28,-15,-5,-35,45,7,-11,1
1490742679627,0,17,-3,4,-15,-34,58,-72,47,78,35,96,-7,17,-48,96
1490742679675,42,-37,-11,-14,34,-22,-92,14,36,-94,-7,-24,-34,-7,60,-3
1490742679724,-2,-97,-30,-23,2,-43,-23,86,35,-80,11,70,-38,30,54,11
1490742679772,-10,26,-10,-53,80,24,43,15,26,-1,-1,-46,28,-17,-80,43
1490742679820,29,-3,8,20,21,-2,-26,-24,-5,11,1,3,46,33,62,34
1490742679822,-8,4,-14,-19,1,68,18,-8,-20,-27,4,14,-12,2,0,-15
1490742679870,-16,-5,4,-26,-37,-59,42,46,39,-4,16,80,76,92,-87,-11
1490742679919,-5,51,-26,-19,-108,5,-4,-15,-8,107,2,20,-46,-14,7,47
1490742679968,15,66,7,-66,-32,-43,6,56,11,30,7,92,34,4,73,-16
1490742680017,9,5,4,-111,-118,-87,71,-13,-25,-13,-10,-11,91,17,-73,47
1490742680064,-7,-13,8,-66,-103,-49,-66,-10,-7,-15,5,37,29,105,-28,-11
1490742680066,46,-10,-29,2,127,76,-48,40,10,-8,-5,14,-128,-61,16,12
1490742680113,-4,119,-31,-61,-20,-28,-42,24,-16,127,16,65,8,-73,-18,28
1490742680162,-34,-116,5,21,54,28,70,41,42,-128,0,-20,-79,17,-41,9
1490742680212,-18,107,3,-41,-97,110,72,-14,17,127,-9,-46,103,94,-64,14
1490742680260,-15,24,4,30,42,57,44,-10,16,38,34,-75,4,-85,35,28
1490742680308,-14,-13,-5,-48,32,-41,-128,6,3,-13,-29,30,72,18,68,-12
1490742680311,-6,-87,-26,-23,-109,11,54,10,-31,-111,15,66,47,41,-5,-16
1490742680358,2,-29,-5,29,57,-26,-25,-36,-3,-16,4,22,10,64,15,-11
1490742680406,21,-12,-8,-40,53,-12,-9,-23,-29,-5,-71,-21,-119,-8,21,44
1490742680454,-22,9,-8,-27,-55,-36,55,-7,19,-105,-9,-3,-48,-5,31,-5
1490742680502,23,-4,4,-17,-17,-12,-15,73,9,87,10,-2,20,-9,-9,-7
1490742680504,-33,-65,9,3,15,24,11,-11,61,6,8,12,49,4,23,3
1490742680553,-15,-3,0,31,18,24,12,-9,13,7,-2,-7,-15,-24,33,28
1490742680601,-3,-16,2,3,-2,-10,-8,-10,-1,-5,-12,-22,-2,16,18,42
1490742680650,22,90,22,-4,12,-10,-8,-12,20,102,-16,-1,7,8,-13,-4
1490742680698,-32,-96,8,48,17,-7,-6,-14,1,-94,13,33,27,25,20,23
1490742680746,-9,107,-11,-2,-8,2,2,1,-10,60,19,-18,-9,-2,-9,-15
1490742680748,12,-25,-2,-7,-29,-19,-6,-6,-1,-20,-6,-19,5,12,-9,-12
1490742680796,-2,-31,-3,15,-6,24,50,1,20,9,-3,11,20,10,-4,10
1490742680844,-6,116,14,17,-21,8,15,11,-32,80,21,69,32,50,17,14
1490742680894,14,86,-5,5,4,-56,-49,60,25,49,-1,13,-81,-26,-28,-21
1490742680944,16,4,0,13,27,27,-17,2,-14,-13,5,-17,-88,-22,47,-22
1490742680992,19,-7,3,41,43,38,-24,33,28,-17,10,-20,29,34,40,-46
1490742680995,-36,-37,-17,-13,-41,-27,30,100,-18,-86,-3,16,88,46,-33,-8
1490742681039,-30,-33,-36,-103,78,-64,13,-42,13,2,5,-4,-12,-20,-22,53
1490742681088,-38,107,-8,12,5,32,21,-32,58,112,23,74,82,53,54,20
1490742681137,-45,77,2,61,42,-20,-18,70,28,22,10,-10,34,119,79,99
1490742681185,-10,-67,-10,22,-21,4,-21,-7,28,-89,5,-6,-47,12,3,34
1490742681187,12,-72,-3,-12,86,22,50,-12,-17,-44,-26,-69,-71,-65,-125,-57
1490742681235,-10,6,-17,-29,-79,-3,56,-5,-22,-12,17,15,-6,-3,-17,-45
1490742681284,-57,17,-4,-69,-110,-49,-13,-8,-3,15,-2,49,4,31,28,-23
1490742681333,51,-11,-4,-1,-12,8,-54,-23,-22,-13,4,25,-102,5,85,39
1490742681383,-37,-6,-6,-24,-99,-26,48,-22,41,15,7,-3,-55,-18,-98,-20
1490742681432,27,-37,-51,-69,20,-3,-66,-117,2,-4,-1,-59,-68,-23,-58,58
1490742681436,49,21,1,-19,89,-17,74,53,-34,-34,-48,-48,-7,-39,-28,-49
1490742681482,22,-4,-4,-6,58,-48,-91,67,-39,-16,1,-37,-76,-18,109,9
1490742681527,13,37,42,11,56,-43,49,-21,6,11,-11,23,-25,-60,-90,-21
1490742681576,2,-22,28,86,-114,-53,86,59,-2,-18,-8,-59,114,37,-65,20
1490742681624,7,15,2,-34,-128,-47,33,8,40,29,36,49,-110,-58,45,31
1490742681673,0,6,-4,-1,20,-8,-40,33,-21,-20,-16,-52,-112,-13,8,-29
1490742681675,12,-6,-54,-126,-128,-11,14,50,-11,-3,10,114,-21,82,-37,-34
1490742681722,-11,-6,-8,32,-18,44,85,-4,21,22,25,74,63,4,-7,32
1490742681771,6,23,77,118,-119,100,30,-40,-3,4,-18,-104,127,-56,77,31
1490742681821,-9,-128,-1,-6,-64,1,72,15,7,-124,3,26,5,31,-1,3
1490742681868,-11,-34,30,121,112,67,61,24,2,-15,-8,-41,-35,-41,-51,-3
1490742681870,2,-3,-10,-26,13,-70,-70,-10,-13,8,12,111,112,73,65,-7
1490742681917,-7,127,16,9,30,55,23,16,-7,81,-18,15,11,-6,-22,-23
1490742681966,7,-76,-6,14,-4,14,-3,-7,1,-53,-4,-12,-46,-41,-15,60
1490742682015,-5,-1,7,-43,-28,-4,-27,-4,9,-24,-13,-44,-1,-14,0,23
1490742682064,15,-38,14,100,52,15,32,28,-17,45,-7,-28,-26,-26,-14,-15
1490742682112,-6,28,17,9,8,11,15,-3,3,0,4,22,13,-4,-6,11
1490742682115,-3,22,13,1,4,12,9,10,-13,-6,-16,-19,3,5,10,5
1490742682161,4,84,-12,3,13,14,-8,-24,8,-28,1,5,-13,-7,-18,-11
1490742682210,-2,-33,-9,-10,-6,-21,-23,33,-6,-16,-9,4,11,31,9,-14
1490742682258,-23,25,-10,-10,-5,-21,-40,-10,23,4,18,4,-15,-22,-1,3
1490742682306,-23,-41,-1,-4,-3,10,21,-31,13,11,15,22,-3,27,19,67
1490742682307,23,-2,-7,46,3,-4,-2,25,-1,0,1,-54,-23,1,20,-36
1490742682356,5,-3,22,13,-46,59,38,4,6,49,26,22,14,-57,-38,9
1490742682405,17,-18,-13,1,3,20,54,-16,-3,-40,-7,14,-70,9,-14,56
1490742682455,23,35,8,-33,-72,-18,85,30,-5,33,-17,-42,85,-17,-125,-69
1490742682503,21,63,-16,20,15,50,11,-2,10,114,25,23,-5,47,24,-5
1490742682550,-24,-56,2,-33,-30,-17,21,0,-46,72,12,77,26,20,-62,-42
1490742682551,5,-18,19,50,0,29,40,3,3,-48,10,-2,-33,16,32,-63
1490742682599,-19,-42,-3,-20,-60,12,2,64,-27,-29,1,-53,-48,-28,-14,-23
1490742682648,-3,-10,-11,-33,-89,-32,6,15,-15,13,26,54,-5,21,107,21
1490742682697,-8,-11,-22,-44,86,59,-13,-4,-37,-26,11,52,-5,22,17,1
1490742682746,-62,23,-5,-16,-82,3,53,-92,10,19,2,-22,53,-54,-19,52
1490742682794,14,-8,-1,-38,27,-3,-8,-2,17,10,39,53,-66,45,26,6
1490742682795,-9,15,25,5,61,22,9,-66,-18,-52,-18,-42,-58,0,-104,83
1490742682843,10,18,8,22,-59,2,89,-2,23,20,-18,32,109,17,22,-50
1490742682892,25,-8,-9,60,-7,21,-67,-9,-10,4,11,78,120,38,44,-75
1490742682943,9,27,14,-12,100,10,122,73,-13,-22,-27,-91,-86,44,-37,-16
1490742682989,-10,2,17,52,92,40,-16,12,0,-18,-10,-64,-128,-50,62,24
1490742682991,-37,-7,12,32,19,-60,52,56,56,24,-36,-78,-1,-28,7,-46
1490742683038,-14,-3,17,38,-60,19,-8,30,-21,-5,-11,-36,-14,-57,34,29
1490742683087,0,-18,-43,-111,29,-59,-92,24,-10,-11,-8,2,-66,6,7,0
1490742683135,27,18,18,-79,-41,-75,-72,89,-6,-11,-11,109,99,67,-44,-6
1490742683184,7,23,8,36,-119,-27,59,-46,10,18,54,103,-6,-32,60,18
1490742683232,10,4,15,18,-128,-37,-36,-25,-38,-27,-20,6,58,-26,-21,-23
1490742683234,-15,-15,-18,-89,-128,-108,-76,-19,-1,13,10,33,127,14,66,36
1490742683282,-8,23,49,127,127,127,100,20,-21,-9,-45,-112,-112,-119,-71,-43
1490742683331,9,-32,5,42,-54,41,43,30,-18,-20,43,127,120,66,76,15
1490742683428,-5,-57,-84,-115,-29,-128,-108,-61,-1,-53,-23,2,-85,12,40,-14
1490742683430,41,70,-13,-54,-54,-46,-39,-28,0,55,22,117,85,69,52,-10
1490742683476,-8,123,-18,6,6,-34,-33,-12,-9,48,33,67,-37,127,127,54
1490742683478,8,-114,12,-70,-89,-70,39,-17,-29,-120,-45,-26,5,12,103,17
1490742683527,-6,-63,-3,2,43,-18,-37,15,5,-91,2,13,6,-20,-19,-5
1490742683575,-4,30,19,-14,-8,-27,-3,-19,12,10,11,12,-2,-10,28,17
1490742683623,3,-13,2,-17,4,19,33,-9,-6,4,-3,3,-4,-23,-44,9
1490742683671,0,7,3,6,5,-15,-14,9,6,-4,-7,-17,8,40,29,19
1490742683673,-29,-37,14,-2,21,5,18,-3,7,31,-4,16,10,-8,9,24
1490742683721,0,-64,-15,-51,-61,-59,5,9,-44,-69,1,18,4,-53,1,-23
1490742683770,-9,15,-16,18,42,-26,-25,-26,2,-26,-6,51,4,27,-22,-14
1490742683819,-7,-33,7,34,2,27,-6,-14,20,30,15,42,33,33,95,27
1490742683869,1,0,-1,-8,9,-5,24,-6,3,-38,24,1,-88,-4,-9,-3
1490742683915,20,7,-8,-24,50,-58,-25,-4,-15,23,-10,-43,-39,-21,-25,-18
1490742683917,-1,18,-23,10,27,47,-41,-22,-20,-7,9,17,36,-34,15,22
1490742683965,-16,-12,3,0,-9,27,-11,-5,7,-14,-10,2,-37,-22,-1,-8
1490742684014,0,-40,-21,-40,-22,-3,12,20,8,-4,8,68,0,27,-15,21
1490742684062,-9,-11,-22,-42,85,-4,-17,-19,-9,-35,-15,60,65,-34,-29,7
1490742684110,-15,43,-10,39,-3,28,14,3,6,112,-1,-55,22,-23,47,-42
1490742684159,-21,118,14,46,54,-13,30,13,57,42,-30,-50,36,20,11,-18
1490742684161,-1,-5,1,-33,-128,-15,-60,-80,-38,-67,-18,-5,107,30,28,88
1490742684208,-27,-14,-14,19,86,15,-62,-32,-20,-6,0,-56,-128,-10,27,62
1490742684257,26,-2,13,57,76,54,127,83,-16,3,18,11,-17,3,-24,-57
1490742684306,-31,46,15,23,7,8,101,51,10,-4,-22,-55,-21,-31,-50,-4
1490742684354,38,43,-14,-24,-8,-18,26,20,-45,44,-8,18,54,4,11,-16
1490742684357,-10,30,13,9,-27,-16,-1,-29,13,19,-15,43,113,40,4,4
1490742684403,-16,43,5,15,33,-17,-69,5,-5,11,-2,22,54,-13,-21,-16
1490742684452,-49,-10,-2,25,101,60,28,-38,30,0,7,-8,-6,-17,1,39
1490742684501,-13,-24,10,-14,88,52,34,-27,21,33,1,-59,-96,-61,30,20
1490742684597,77,24,22,36,55,43,-34,40,11,-26,-41,-53,-122,-96,-59,-39
1490742684599,-37,-22,9,-38,48,-42,-61,-52,-12,13,-5,-4,-76,-13,41,-8
1490742684600,2,16,-6,7,-53,-22,35,-1,-48,-67,33,92,32,7,38,-22
1490742684695,16,20,-6,84,-54,-21,23,56,7,39,36,95,120,127,-25,-22
1490742684696,-24,-14,22,34,-127,22,99,-43,18,-37,-8,22,49,-47,-84,25
1490742684744,-1,2,2,-32,-128,-102,-69,-76,13,18,-12,-103,33,-28,50,50
1490742684792,6,-6,28,1,-95,-3,51,62,13,7,17,94,103,69,33,-46
1490742684793,25,15,72,109,23,123,32,72,-17,-27,-46,-106,73,-17,-70,-5
1490742684842,-29,-2,4,42,54,39,-34,-36,5,11,50,87,14,57,89,15
1490742684891,-10,112,-29,-116,-49,-81,-70,-46,33,114,-10,-58,-78,-22,-47,57
1490742684941,2,-111,60,127,75,121,69,0,-9,-118,-52,-128,-21,-128,-52,9
1490742684988,-7,-15,26,31,21,33,-28,-32,-6,-20,68,127,99,127,113,30
1490742685036,-4,13,-20,6,124,-34,-53,25,4,30,12,-3,-128,42,12,10
1490742685037,-13,20,2,12,-15,-14,-33,-37,11,-7,21,24,23,-13,-14,28
1490742685085,17,5,-4,-14,-36,-24,2,34,-18,-70,-2,-15,11,-8,2,-20
1490742685134,7,-18,-12,8,16,-16,-9,-18,-4,-30,9,41,32,13,24,19
1490742685183,2,50,-1,13,19,12,-7,38,7,38,6,-30,-17,-21,-6,-42
1490742685281,11,-16,3,10,13,28,36,39,-7,14,-8,37,28,-5,-26,-6
1490742685284,-6,24,-5,-11,-15,-23,-23,-18,-8,16,5,5,6,27,31,14
1490742685285,-10,12,-16,-87,-87,-25,-60,-42,-23,-108,4,17,3,29,6,-8
1490742685377,12,-11,-1,-2,33,0,10,5,-4,24,6,-24,-49,9,-7,-23
1490742685378,-40,-4,2,-25,38,43,23,-21,74,95,-20,-11,-11,-19,-4,6
1490742685427,5,-29,3,-41,-63,-98,-59,-20,-21,-46,-11,-25,-8,-6,29,-18
1490742685475,15,35,-9,8,106,4,3,5,-7,-35,6,1,-128,26,127,2
1490742685476,-29,29,19,72,127,6,-78,-2,-44,30,-6,-62,-10,-31,-53,-15
1490742685524,16,-1,-10,-25,30,-15,61,91,10,54,-11,-29,9,-38,-54,-6
1490742685573,20,14,0,-40,-112,-3,9,11,-8,55,1,72,32,-8,30,-3
1490742685622,-6,21,-2,4,-18,-17,9,8,-36,9,-1,-7,-62,-44,-41,-52
1490742685670,-10,103,10,-12,-103,-25,8,-7,11,-22,-12,-17,85,37,-13,-13
1490742685718,-7,-52,9,-25,-31,-16,12,-11,-11,-22,22,36,67,67,58,38
1490742685721,-3,-22,-18,39,7,-1,-29,-22,9,2,-9,-64,-108,-72,-42,-17
1490742685768,-7,3,-13,-18,-32,8,-63,29,38,8,18,49,-34,27,22,2
1490742685817,-18,-3,-4,15,50,16,26,16,21,-11,2,77,68,10,13,-19
1490742685868,-7,-20,-14,-59,27,-48,-65,-30,-28,-17,1,-18,-20,19,52,7
1490742685914,-10,20,6,29,-27,36,-31,14,14,-13,-4,-2,89,-1,-23,-7
1490742685962,-30,17,28,79,2,-14,68,23,17,5,-12,-86,-46,-3,-91,-4
1490742685963,49,18,-10,-9,-29,18,52,-1,-19,52,16,-12,75,-58,15,-7
1490742686012,-12,22,9,-63,-57,-81,5,-26,-39,-30,-24,-22,-51,13,-84,-33
1490742686060,-18,13,-14,-4,0,0,-83,22,4,3,37,114,-76,76,90,38
1490742686157,-24,-31,-1,-35,38,74,84,68,50,3,-24,-1,27,-48,53,-10
1490742686206,-18,-28,-16,-55,29,-61,17,-58,-10,-6,32,112,63,55,-37,28
1490742686207,7,11,7,-45,-79,-18,-49,10,0,23,22,50,9,30,25,-24
1490742686209,-30,-6,-4,-4,16,70,-103,-8,46,-10,-19,-35,29,59,48,19
1490742686255,-40,-21,-4,-55,-67,-5,124,-93,8,1,-1,0,62,59,-78,40
1490742686304,-9,4,38,-17,115,126,-27,-30,1,-8,-68,-128,-128,-54,-113,-38
1490742686353,12,23,52,109,111,27,72,59,-17,6,-37,-97,-88,-88,18,5
1490742686401,-1,-3,1,26,-53,-35,-31,-18,23,15,40,82,61,70,74,83
1490742686402,13,0,22,62,-15,-22,47,21,-9,-1,14,26,-36,-19,-35,-25
1490742686452,0,-117,-12,21,7,-43,-22,-14,9,-109,22,68,-119,57,84,6
1490742686500,17,-11,-19,-107,113,-107,-34,30,-22,-40,-66,-128,-123,-58,-103,-41
1490742686548,-16,-19,-3,95,18,52,60,-29,-9,14,2,-32,-1,-27,-2,13
1490742686597,9,-30,2,15,14,-20,13,10,-32,-128,38,127,67,127,93,37
1490742686645,-9,9,-7,-13,-6,-20,6,-26,-1,-29,-6,25,4,-9,13,21
1490742686646,9,44,-12,-57,-12,-5,8,1,5,53,6,27,-19,-22,-13,-16
1490742686694,-7,20,-2,-4,-12,-4,27,-1,-14,36,4,-67,-25,-10,-37,-2
1490742686743,14,6,11,1,-2,-3,-10,-1,-25,7,-6,-11,-9,-20,-13,-20
1490742686795,45,-37,18,-7,12,3,7,15,6,29,1,25,8,2,-2,6
1490742686840,18,-109,-4,13,20,5,9,17,-14,-113,1,19,12,3,1,-6
1490742686841,-10,-17,-10,-13,3,-9,-1,-11,-5,16,9,21,8,32,28,8
1490742686891,-21,-32,-6,-89,63,49,101,5,21,37,0,-41,-29,-72,-89,-8
1490742686987,-18,-2,-6,-11,-31,-31,-89,-31,-12,-17,10,34,-8,1,6,10
1490742686989,28,1,-3,-39,-22,-3,38,27,-17,9,-3,39,-43,-23,-42,-4
1490742687036,-10,14,-9,-10,-24,-47,-71,-21,4,4,0,-42,-73,20,16,18
1490742687084,8,-47,-19,-25,-13,4,-29,-37,-26,-12,-7,61,-58,10,31,-2
1490742687086,4,58,11,-49,-122,-87,-9,55,1,31,-10,-61,38,-52,-35,6
1490742687134,9,61,23,117,98,28,102,33,-51,14,-3,54,-53,-10,-8,-20
1490742687182,33,107,-20,-60,-65,-52,-115,-29,16,77,-9,-1,-10,13,51,82
1490742687231,10,-121,-1,56,96,47,-42,-49,17,-96,2,-39,-55,-26,-6,26
1490742687279,-27,11,-10,-27,-48,-46,-33,-17,18,23,-5,26,92,76,16,5
1490742687328,54,-36,-2,12,33,19,-63,0,-21,-15,21,49,-10,6,-12,8
1490742687329,20,32,17,-17,-128,-20,17,31,18,3,-1,27,116,39,7,-22
1490742687377,40,-19,-8,-5,-14,-73,-52,-84,8,11,42,70,-57,97,80,30
1490742687426,-53,-14,-18,-2,92,-20,-41,-28,55,-17,-16,1,-116,-19,4,67
1490742687474,-1,19,-7,-24,-50,5,-94,2,3,3,-8,5,-35,-26,6,14
1490742687522,-38,-8,-15,-36,103,-8,16,12,8,-30,-1,0,15,-9,9,25
1490742687524,21,-32,-18,-53,-30,67,90,-7,-1,7,-17,0,86,-86,-53,-33
1490742687572,88,53,53,-45,-41,-46,73,94,4,-22,-58,-81,127,-62,-100,-33
1490742687621,-3,-14,-10,-25,-114,-70,2,-42,16,12,6,-40,55,55,-20,44
1490742687669,18,14,-3,-27,-86,-38,11,13,-62,7,12,38,-128,55,28,-38
1490742687718,-4,1,-8,5,67,41,45,-18,6,-23,-5,-49,-33,-59,-88,-12
1490742687766,-11,44,61,83,80,4,86,42,-4,-2,-13,-16,-49,5,-17,-31
1490742687768,-14,32,23,108,-128,-18,14,-48,-9,-2,-34,-55,77,4,2,72
1490742687815,13,-3,4,-48,-128,-32,44,10,4,-9,-8,-42,127,58,-97,-31
1490742687866,-1,-11,24,25,9,-42,-3,13,-15,-4,-9,69,112,-44,33,-19
1490742687913,13,10,-34,-95,-80,-83,-128,-14,0,4,9,-8,-128,-11,32,1
1490742687961,-5,-3,17,49,49,44,127,29,-4,-16,-17,-110,-85,-83,-105,-18
1490742687962,-1,-128,5,10,-43,60,17,-5,-8,-114,1,34,60,34,18,22
1490742688010,-22,-26,11,58,-23,23,-47,-33,2,-2,8,-9,52,35,46,46
1490742688059,4,4,-15,-7,-4,4,-16,1,0,38,16,70,95,43,68,23
1490742688108,-24,55,-5,6,34,25,36,-11,52,-9,-5,-19,-31,-43,-34,-15
1490742688158,-5,-48,-3,-8,1,-19,-40,-49,-18,-37,-25,-45,14,8,39,25
1490742688205,32,-1,-29,-75,-51,-9,-50,46,-32,1,-17,5,16,-20,-2,15
1490742688207,-3,18,-12,-12,-1,-32,11,-23,31,49,29,14,-5,-23,-4,23
1490742688254,-11,-4,-14,1,-19,4,-33,-12,10,18,6,26,8,-12,22,4
1490742688303,-7,43,12,5,53,-21,-11,-14,-1,3,-12,-3,-28,-17,-22,-5
1490742688353,3,120,1,-1,6,6,-9,-22,-26,26,9,108,79,2,2,-5
1490742688401,14,-85,2,3,9,30,6,17,-16,-49,5,11,6,-14,29,-11
1490742688449,-13,-51,-4,-51,-68,40,35,-14,46,32,-24,-55,-13,-86,-88,-30
1490742688450,-19,-53,-21,-33,73,-36,-7,7,-9,-8,-2,-82,-128,-42,-53,-27
1490742688498,-2,2,-11,-18,-22,0,-42,10,-36,-33,4,58,83,37,47,-2
1490742688547,-14,21,13,11,-3,-4,-13,38,-46,-28,3,35,-3,48,45,4
1490742688596,22,-8,-9,-24,-55,-23,-41,1,-16,25,15,65,-32,37,17,-32
1490742688644,-19,100,-43,-84,-17,-77,-1,6,-4,52,-40,-55,-8,-23,-21,-36
1490742688648,-22,-3,20,12,-93,-63,-52,12,37,4,-4,-46,-41,-18,-88,-9
1490742688694,35,5,-10,20,42,-7,-4,-3,-11,-65,8,28,62,19,7,-17
1490742688742,1,-12,17,8,-81,-54,-87,-26,2,-9,5,-42,-128,70,29,5
1490742688790,-18,-44,9,-53,86,53,19,-33,-25,19,-35,-62,-30,-73,37,-15
1490742688839,-8,103,21,25,-43,-4,-16,-30,24,54,32,86,39,56,52,18
1490742688887,5,-5,-23,-51,6,-62,-127,22,17,-58,-9,21,-10,23,42,-17
1490742688888,2,24,0,-31,12,23,-15,-2,-29,-44,3,67,39,22,42,32
1490742688937,-36,-31,-29,-30,-47,-10,58,-4,12,28,20,11,85,-11,-49,-28
1490742689083,45,24,7,5,49,16,5,18,-1,13,18,44,-69,-20,-54,17
1490742689084,26,17,-8,2,-63,-44,-17,24,-16,1,24,3,-19,84,92,42
1490742689085,7,-10,-7,27,59,-48,21,-38,-66,6,-27,-80,21,-2,8,-6
1490742689132,-5,2,-7,-36,-75,-48,-48,-1,-31,-20,7,14,101,18,-46,-27
1490742689134,5,-3,-10,-13,-70,17,46,25,-32,-15,25,93,-44,37,23,-17
1490742689181,50,13,10,22,-97,-55,-2,1,-27,13,-3,-79,29,-59,-78,17
1490742689230,-10,11,70,118,90,119,127,45,12,10,-5,-69,28,-55,19,-21
1490742689326,-10,-13,-9,-128,-72,-33,33,9,-6,0,-2,-30,-106,65,-30,-12
1490742689327,-5,-9,-46,-56,127,15,-38,-16,6,-5,34,127,46,106,81,-13
1490742689328,-19,2,-11,11,58,98,40,2,9,10,-12,-33,-36,124,2,-15
1490742689376,-25,-11,12,22,-100,-90,82,11,5,4,-18,-5,83,-62,-95,-65
1490742689424,1,8,11,6,87,-23,13,-6,-10,-14,7,91,71,62,28,19
1490742689474,16,-6,-2,52,-50,1,-128,-22,-8,-1,92,69,-122,49,127,19
1490742689522,15,2,-38,-87,-3,-35,-113,9,2,-9,-14,-5,-11,-16,44,-6
1490742689570,-9,12,-8,26,12,32,-21,-43,-7,-102,-15,-51,-2,-21,-19,-19
1490742689573,11,-32,-1,-25,5,4,-19,-54,-17,-89,9,19,32,48,68,65
1490742689620,6,-30,12,7,8,30,25,34,7,-20,14,16,-12,-17,0,-6
1490742689670,2,5,3,3,-21,-17,-10,18,-6,7,-1,8,6,0,7,-2
1490742689717,-1,22,-5,1,10,5,-35,1,-1,51,-5,-26,-22,-64,-60,-30
1490742689765,-1,48,2,4,0,17,-3,-1,-3,61,7,31,24,12,15,-1
1490742689814,3,-21,-8,-7,-33,-7,-17,-6,3,-6,-15,-32,-32,-1,-10,-35
1490742689815,-9,22,-3,-5,-9,-25,-30,-10,10,-12,14,19,37,-3,-13,7
1490742689863,-7,-26,-2,-9,5,14,12,8,5,-7,-22,-66,-61,-51,-42,-6
1490742689912,-7,74,-3,-1,15,-33,-21,-42,29,-20,8,-8,-105,73,88,18
1490742690060,5,-51,18,38,-78,31,111,11,-17,64,-14,-62,108,-50,-6,22
1490742690065,20,12,1,21,115,60,91,58,-57,-15,-7,16,-86,-78,52,-10
1490742690067,5,-7,10,32,-40,42,-35,24,28,25,1,45,47,30,-21,4
1490742690069,-21,-127,15,-29,-63,45,39,-7,1,44,-11,-27,114,-48,-2,20
1490742690107,-31,-13,6,1,65,33,-23,-11,-13,-18,-22,-13,44,-83,12,-29
1490742690156,25,127,20,75,127,68,98,-6,6,127,22,83,-20,75,22,-9
1490742690204,-10,24,-55,-123,-90,-62,-102,91,-54,-16,-15,21,-22,48,32,-75
1490742690253,-17,-23,-5,15,-55,-7,-7,8,30,-57,13,24,35,30,54,2
1490742690256,27,8,20,72,-32,-33,1,-10,-37,-11,-18,-88,-128,-58,16,-14
1490742690302,1,-20,14,19,24,61,32,-3,1,-13,7,48,-79,-41,19,5
1490742690351,-2,-41,0,-17,127,51,22,-17,3,-88,-25,-9,-2,-46,-48,-4
1490742690400,40,14,-5,60,88,39,-25,43,-32,91,-11,-77,-30,-31,7,-36
1490742690449,26,116,21,-68,-85,-75,57,12,-32,67,-29,-51,46,42,-51,7
1490742690450,-36,-78,0,67,-42,42,32,-47,32,-21,10,-87,66,-14,2,22
1490742690497,-9,9,-18,21,37,55,-27,-11,32,-22,43,117,127,84,68,2
1490742690546,-6,1,14,-35,-71,26,-28,-44,14,21,20,98,39,-13,115,101
1490742690595,3,16,29,109,-22,26,-64,3,-26,-15,19,38,18,32,48,-3
1490742690643,2,-14,-9,-14,55,-17,71,-47,29,42,-28,-128,-128,-51,-84,-3
1490742690691,-11,-19,11,14,-68,40,57,58,-29,33,58,127,98,63,77,-62
1490742690693,-24,78,-30,34,88,-22,-12,-23,14,-10,-7,-62,-18,-29,-45,-38
1490742690789,-23,-123,-79,-73,-54,-53,-84,-119,20,-79,2,29,-64,27,-62,-18
1490742690792,0,-6,-104,-76,-33,10,-22,8,-40,-14,17,5,-77,35,-57,-51
1490742690886,-7,1,12,36,102,77,-74,16,20,25,23,14,-60,127,-50,5
1490742690887,-15,9,30,63,93,-8,127,16,-2,15,-30,-128,-17,-109,-105,32
1490742690935,-8,4,33,29,64,0,127,25,7,10,15,27,127,42,-94,-8
1490742690936,-5,-2,9,26,-62,-22,-11,-25,8,0,12,-4,70,0,9,53
1490742690984,-12,21,-31,-41,16,3,-2,-21,9,39,3,-23,-41,-26,-13,12
1490742691033,-3,70,-1,20,39,19,27,25,-2,19,8,15,-5,12,9,-66
1490742691082,1,-31,30,19,-9,3,1,-13,-1,-62,5,-18,19,22,14,22
1490742691130,-2,-86,-13,40,16,-1,8,-10,5,-116,10,-46,-4,13,43,36
1490742691131,28,78,-7,-1,-9,-8,-47,-18,5,60,4,0,-22,-18,-21,29
1490742691180,1,16,-13,-8,8,-2,6,-12,1,61,-6,-37,-36,-37,-23,16
