1490821633418,-74,61,-83,33,-36,-31,18,7,1,45,20,-39,-9,41,98,19
1490821633425,54,-33,1,19,18,-96,-80,44,-38,-41,-5,-100,-100,50,38,24
1490821633425,68,48,60,75,48,10,-69,-34,32,8,14,125,11,-58,30,21
1490821633466,31,21,-11,-61,66,-87,-79,-49,-94,-66,-23,-118,-71,127,-50,-110
1490821633467,-99,-25,0,-48,-116,-76,-53,-40,32,-23,-37,-67,-25,-128,-11,16
1490821633516,42,19,24,127,127,-18,-53,-23,-40,-6,7,-38,-100,-10,22,40
1490821633565,-22,-56,-19,-56,-41,65,72,42,-87,46,68,-1,-73,67,59,11
1490821633613,-82,-9,12,55,51,-113,-57,-3,52,49,32,127,127,-110,4,30
1490821633614,64,-1,-23,-37,-104,64,124,47,82,66,0,21,66,22,0,9
1490821633662,37,23,27,-46,-79,-98,-107,-54,-38,-20,-19,63,70,67,75,29
1490821633711,-61,-3,-5,79,101,-90,7,64,-27,-32,-19,-94,-43,9,34,-60
1490821633760,22,-33,-68,69,-6,26,122,26,101,14,19,-128,-92,-86,-78,51
1490821633808,-16,43,31,-63,-87,105,-63,-94,82,31,32,127,93,54,32,93
1490821633809,59,27,-1,67,127,-18,-44,25,-128,-77,-100,-92,33,12,-34,27
1490821633857,-14,-60,-21,77,123,88,-87,-32,59,49,8,-96,-128,-78,102,59
1490821633906,91,26,-3,49,88,-29,100,23,27,86,57,-14,-56,34,39,-49
1490821633955,-8,-22,-32,-67,-65,-82,87,-1,5,-61,-90,-109,-112,-56,25,27
1490821634003,34,-42,-1,127,48,63,-121,-45,-48,-87,72,1,-5,15,-21,-56
1490821634100,-41,-28,-45,-58,-13,0,24,3,-69,-17,49,111,-5,15,23,-30
1490821634101,36,70,113,127,-85,6,127,35,3,31,14,-11,79,5,-72,-29
1490821634102,-34,19,9,99,48,-12,93,-5,-40,-50,-64,-128,-111,27,13,-50
1490821634150,23,-24,-126,-119,92,11,27,-4,0,-39,101,-38,-72,9,-31,7
1490821634198,-26,30,7,-70,3,1,-54,-2,-16,-20,-32,52,25,121,15,-10
1490821634295,-32,96,11,39,-9,-55,26,19,-22,127,-17,-91,127,-128,-90,-18
1490821634296,-5,-94,-70,27,-55,-69,-20,-29,39,-81,-20,-16,1,-67,-47,61
1490821634297,-66,-47,-88,-19,-41,-65,-7,-17,-43,-19,5,70,-40,33,22,-13
1490821634344,70,-38,-21,93,127,122,-67,-13,-32,-102,-19,-5,-34,-75,-116,-53
1490821634393,-5,127,29,0,-15,-88,-56,3,-68,-14,16,-23,121,24,-28,-25
1490821634442,-43,-90,-14,32,45,121,-26,33,24,115,-79,-15,-35,-59,48,127
1490821634490,31,127,73,15,78,-117,-48,10,12,-62,-56,49,80,113,127,-22
1490821634491,31,-101,15,-5,-61,93,113,73,40,-87,22,-58,-36,85,38,-10
1490821634539,-38,22,55,-3,-26,-28,-5,18,-14,-91,21,-64,-24,-31,41,7
1490821634588,75,28,25,-28,22,58,44,11,-36,23,12,-23,0,21,-38,-9
1490821634637,51,-3,45,19,-39,7,6,11,25,-60,24,-31,-16,-15,-37,10
1490821634686,-12,104,-9,30,25,26,-48,-49,-5,95,-62,-11,30,-3,-20,14
1490821634734,7,10,-61,32,18,-6,-15,-2,-16,34,-106,-13,20,11,14,11
1490821634735,-12,6,-27,8,11,7,-19,10,-30,0,9,-16,2,15,35,39
1490821634783,-27,-4,-73,0,-18,90,55,-18,9,0,47,127,42,4,14,-17
1490821634880,15,-3,36,1,-6,-64,36,80,-5,1,20,-15,-2,-5,-128,-11
1490821634881,-22,-2,-68,23,36,84,58,-24,-7,-2,33,88,101,127,122,-11
1490821634930,47,14,82,-114,-42,-90,-117,22,11,38,35,44,49,127,-47,-23
1490821634931,11,0,-75,-46,12,-31,5,44,15,6,35,52,-95,122,-43,-5
1490821634978,16,-2,-30,2,-78,10,-61,-43,-30,8,-97,-122,15,-106,64,51
1490821635027,-7,0,-56,41,72,7,-36,-108,15,-1,79,93,73,112,110,49
1490821635076,-38,-4,-108,-128,-120,26,-101,-9,10,2,-2,71,-96,21,-39,-60
1490821635124,-38,33,33,89,127,22,52,7,-60,-1,-19,-119,-98,6,-75,-51
1490821635172,8,-31,-8,-51,127,3,-92,-53,1,-41,-88,-82,-104,74,-42,7
1490821635174,-9,-73,-66,-43,54,65,107,21,-77,-5,-53,-110,-34,-62,-100,-40
1490821635222,10,42,-21,-88,46,107,-46,9,20,2,58,127,43,-33,66,3
1490821635271,-60,-28,25,-10,-6,66,-52,-6,-78,-27,15,34,10,126,111,-49
1490821635320,11,-7,43,20,-125,95,-25,5,23,3,-11,-28,5,-27,22,14
1490821635368,-4,11,-10,9,111,-114,55,41,-6,0,-18,-29,-47,-81,-70,-11
1490821635416,75,-12,-87,-93,-59,118,-128,-25,69,11,72,88,-29,44,100,60
1490821635417,-90,1,-28,-54,-11,45,-83,-72,127,6,3,-65,-51,-77,-79,10
1490821635466,37,14,-10,-73,-72,63,-96,-32,-128,-16,3,35,18,122,105,-6
1490821635611,20,-24,44,127,127,-121,-128,39,-61,23,-15,-93,-128,-99,55,-23
1490821635612,86,-21,19,-106,-123,3,-39,-49,-94,-35,-64,-69,6,-64,78,31
1490821635613,71,45,-20,-62,-38,-22,-45,-25,127,14,-50,-8,74,-36,76,39
1490821635614,33,-26,-48,13,27,-67,127,21,28,32,5,-41,-71,28,87,40
1490821635661,-121,-73,-71,4,98,8,-9,-49,71,8,93,101,-80,19,17,20
1490821635710,-71,-44,1,-112,-115,-91,90,-78,-58,21,-24,93,110,127,-76,10
1490821635758,77,15,-7,5,-4,48,-75,45,-97,34,50,-11,5,-1,-51,-75
1490821635807,81,41,14,-69,1,-121,122,80,45,-28,-74,-75,-99,58,-101,-51
1490821635855,-55,6,3,12,-28,19,41,32,-14,-23,11,85,72,-73,0,-51
1490821635856,-25,-13,-59,-128,-29,18,-16,-10,-40,-60,-74,-124,-33,-73,-32,-23
1490821635904,-110,-4,32,110,113,27,-10,-80,112,16,35,-68,-11,-128,127,94
1490821635953,34,55,-81,-128,-88,68,-104,-2,-128,-35,7,99,-50,55,54,-13
1490821636002,64,73,107,103,-1,108,10,12,-38,-10,-85,-100,5,-106,127,-61
1490821636051,3,-70,-54,-91,-81,17,106,6,-57,-1,26,67,47,-78,-40,-15
1490821636099,41,22,31,-82,21,-128,127,89,95,-10,8,70,108,-61,-74,-95
1490821636100,-25,20,40,83,-75,-43,-128,-26,54,32,69,-17,-89,127,94,10
1490821636148,69,-53,-82,-115,109,29,-128,-45,-20,37,74,57,-114,60,89,39
1490821636197,-40,-15,-35,5,-35,-26,9,-4,-75,-57,-14,-128,1,109,48,-56
1490821636246,-97,-29,-11,19,-96,-73,60,35,-22,-19,31,82,61,-10,-108,-63
1490821636343,59,56,29,48,-27,76,-109,58,-5,22,-27,-91,-101,-128,-68,-38
1490821636344,-11,13,50,124,102,127,7,-43,45,-64,-116,-128,-112,-83,127,27
1490821636345,-5,-48,-84,-66,43,86,102,74,39,26,35,25,-64,-45,73,40
1490821636392,-49,-27,-63,-9,29,50,-86,-2,-35,-7,17,-70,-59,10,121,7
1490821636441,8,4,9,-65,-61,-31,-12,70,-66,-15,-18,-10,127,95,-27,-25
1490821636489,20,-13,25,-14,-72,103,-40,-7,-12,1,-14,13,-19,84,127,34
1490821636538,14,22,12,-68,81,68,-94,6,-33,-47,-37,-128,-33,27,-59,-9
1490821636539,-37,-11,3,88,9,22,-65,-71,-17,12,15,44,39,78,46,84
1490821636587,-34,-28,-12,37,-58,-16,99,-15,27,-12,-43,-51,-118,26,-24,-42
1490821636636,4,-9,-3,-48,-72,21,29,19,28,36,49,127,74,-23,-41,-2
1490821636684,-37,22,46,-21,-109,92,-11,12,90,8,-37,-98,-128,113,16,-4
1490821636733,13,36,-29,-95,85,-128,-47,-26,-53,-42,-67,-89,-85,-128,-47,-14
1490821636781,-35,-47,3,-13,1,-29,37,14,31,12,-31,-13,46,-33,42,9
1490821636783,2,66,-19,16,-67,-25,-8,12,10,127,-5,76,68,-48,27,7
1490821636831,-28,-72,6,117,57,-22,-80,-89,-2,-46,88,-67,60,55,106,59
1490821636879,-12,2,105,55,93,122,29,22,-5,-10,-25,83,-59,-8,-26,-37
1490821636928,-68,-2,71,-102,-7,-47,-49,11,-4,-1,-15,-40,-6,-49,-8,-22
1490821636976,33,-16,-81,32,-39,38,87,34,59,25,52,97,48,71,-20,-41
1490821636978,-59,69,35,-23,45,-28,-26,-26,1,117,35,27,57,11,24,19
1490821637074,26,-26,-1,45,-47,-39,37,-3,-51,-87,-59,-100,-64,-34,-9,-14
1490821637075,-51,-62,-3,35,35,105,16,-5,65,-30,67,83,10,74,24,13
1490821637123,16,38,13,23,18,50,2,-14,-9,69,38,7,-39,-116,-42,-8
1490821637172,-34,-14,-10,-8,87,-71,-29,-7,55,-41,-28,-51,23,73,26,34
1490821637220,29,-95,15,-23,-28,-34,106,17,-3,-107,-90,64,83,-115,-61,-13
1490821637222,7,73,-97,-119,95,24,-13,-6,-39,62,27,91,37,127,127,24
1490821637269,-95,5,-41,-50,22,-35,-72,-51,125,27,-38,-80,-66,12,56,58
1490821637318,25,6,41,99,66,-104,-124,-15,-22,4,-63,-5,-42,96,30,-2
1490821637367,54,-2,77,117,-63,-29,-20,20,65,4,77,43,87,53,33,10
1490821637415,-81,1,16,54,-13,19,45,4,-41,2,1,-45,-43,92,-79,-31
1490821637416,-73,0,-7,98,56,34,-29,-28,38,0,15,-10,24,12,90,27
1490821637464,70,53,90,81,46,-8,43,12,-73,1,-78,-84,-54,3,16,-13
1490821637513,56,40,11,7,-46,86,-119,-3,9,32,37,75,81,27,18,13
1490821637562,-69,-14,52,36,-65,-77,98,-12,46,-18,34,83,119,74,-106,-10
1490821637611,-8,-44,21,11,12,125,-119,-22,83,40,75,60,-77,-45,110,109
1490821637659,-15,54,41,50,80,-80,-75,-10,-120,-74,-87,-112,-56,44,60,-81
1490821637660,-104,-70,-76,102,76,34,-52,-78,-28,3,-21,-128,-104,-103,-55,-48
1490821637708,88,16,9,-58,71,0,28,37,-14,-42,46,48,-1,81,21,34
1490821637805,-23,-24,14,40,-19,-29,1,12,39,70,34,18,-96,38,-72,4
1490821637806,-67,-53,-33,102,120,-12,-89,-22,-97,-26,-19,51,-4,46,112,-30
1490821637854,-68,49,-16,-107,78,-95,-77,-44,126,13,13,115,64,-4,23,35
1490821637903,63,32,70,127,54,100,-32,27,-12,-12,-27,-79,100,-107,84,-33
1490821637904,52,8,1,-62,98,-17,-63,-61,16,23,9,-57,-112,-53,45,39
1490821637952,-20,5,-17,29,-45,6,28,-33,33,-31,-62,-77,36,127,-18,4
1490821638001,22,9,29,88,20,-47,21,-11,-66,14,46,49,17,103,-88,-5
1490821638049,-128,-88,-122,-128,84,-13,43,2,68,28,34,93,-30,121,34,-2
1490821638098,61,-3,-32,-128,-95,-66,-24,-15,17,16,103,70,-128,74,30,48
1490821638099,43,-28,10,-86,57,-123,-99,-110,23,-83,-92,-105,-113,79,-128,-45
1490821638147,-31,-8,103,127,-32,-25,-92,-64,-57,5,-75,-128,-24,-128,48,24
1490821638196,-90,-10,62,-12,90,-113,21,-17,81,-13,12,-65,-74,-24,37,12
1490821638244,67,-10,21,25,-128,127,127,42,-83,26,33,127,111,-50,80,-26
1490821638293,-108,-14,-22,-98,118,-68,-89,-59,-13,-37,1,-34,-53,113,-15,41
1490821638342,43,-17,16,123,-118,-38,127,121,-97,-23,-30,-83,-19,-128,-128,-98
1490821638343,-128,25,41,11,44,-51,48,5,47,-8,-58,-60,-6,-35,-34,-67
1490821638391,1,15,58,5,-5,-128,50,57,-44,-32,-5,52,125,60,34,-15
1490821638439,-27,-45,-36,67,60,26,-120,-39,-24,-21,-35,2,58,13,71,-65
1490821638488,-119,-57,-29,-98,-97,59,-48,-72,26,-40,56,97,-57,42,-28,57
1490821638537,35,8,-30,-11,123,120,-72,14,-97,2,-51,-117,-107,-62,37,-37
1490821638585,63,20,57,127,126,70,36,-37,-33,-45,-47,-128,-121,-112,-123,-99
1490821638586,-47,22,4,89,90,92,111,40,-5,1,37,16,-54,-48,34,13
1490821638634,48,32,-23,-28,4,-128,-36,3,7,-3,110,104,32,-61,112,51
1490821638683,-80,-34,11,50,28,68,-9,-39,-22,-14,-77,-91,47,31,-60,-38
1490821638733,10,28,-18,-128,-121,-14,17,13,6,-52,-128,-109,-110,-5,-12,-6
1490821638780,-14,28,-57,61,37,-114,-49,-33,-28,-26,-44,-52,-81,-128,-69,-5
1490821638829,-78,10,-58,-60,-97,-81,-128,-75,3,15,-25,-40,-59,-59,105,56
1490821638830,3,2,51,6,0,0,15,2,-30,28,13,127,55,-2,38,-3
1490821638878,-17,33,-82,-116,-18,12,-11,-14,-39,-28,-22,-69,-65,-93,-36,-3
1490821638927,106,-57,-40,24,53,11,76,104,-35,-36,-58,-87,-92,-71,-26,-17
1490821638976,-32,-13,-6,-6,-65,-52,-51,-46,110,1,-23,73,77,-13,24,24
1490821639024,5,-3,24,-68,-63,-39,-63,-17,0,2,35,28,99,56,30,-9
1490821639025,-80,-19,71,102,1,78,-14,-16,29,-23,71,-46,-128,-36,35,39
1490821639074,23,22,2,34,34,-48,-65,-14,-3,35,-50,-12,78,29,52,24
1490821639124,-105,63,127,96,-49,24,56,17,71,-10,-63,-128,-25,8,-4,38
1490821639171,15,-80,37,49,22,77,127,51,-34,-100,-75,-14,-4,-46,-118,-48
1490821639268,-7,62,-45,-29,21,27,14,8,36,62,26,-7,-32,34,8,3
1490821639269,31,-1,-34,4,-7,-103,-10,-24,-85,-6,-41,-1,24,-23,28,5
1490821639271,-19,-4,-82,39,18,30,-7,-13,4,92,63,-28,-40,2,25,-4
1490821639317,-10,-108,-25,-98,-59,24,82,6,-10,-63,-26,-76,-65,-12,-60,-29
1490821639366,16,11,-38,79,57,28,20,3,64,34,52,63,-25,-25,-50,-3
1490821639415,-22,-23,19,-50,20,-4,43,-1,18,53,79,127,31,21,-24,-3
1490821639463,-78,32,-30,-22,49,22,-9,-25,-7,66,17,77,-105,-23,-29,-7
1490821639464,-5,41,1,-80,22,-52,-24,6,-13,28,23,-57,-64,34,29,33
1490821639512,56,35,9,-70,-92,0,55,2,-36,22,-68,47,127,-8,-107,-39
1490821639561,-71,13,84,-77,-32,-17,-7,-27,-13,7,-66,-109,39,47,76,-24
1490821639610,81,27,42,111,-60,-7,-36,-4,-20,34,-8,23,95,-116,58,69
1490821639658,-32,-10,18,52,-2,42,-49,-29,105,24,33,27,-95,39,-7,-2
1490821639706,16,-32,-38,-33,20,57,97,18,95,57,109,99,-21,66,-82,9
1490821639707,31,-26,-40,-7,120,127,54,-11,-37,9,-61,-128,-58,-128,-56,-19
1490821639755,28,41,33,-14,-36,14,-7,11,-76,-37,-55,-128,-99,-20,5,-70
1490821639805,-17,-50,-6,41,61,-24,-70,-24,56,-45,-58,-120,8,-8,58,9
1490821639854,-71,-20,-17,-89,123,-92,-64,-30,83,-66,-82,-98,-45,85,36,-9
1490821639902,-10,-92,-69,-88,-89,52,12,-20,6,70,88,85,-2,11,-128,-11
1490821639904,-55,87,25,-70,65,7,55,-45,-12,-4,17,-62,-80,127,86,31
1490821639951,45,-27,39,110,-20,127,-128,-24,15,50,63,65,10,107,84,35
1490821640000,-34,40,33,-42,-83,-49,-21,25,26,-36,-2,52,90,-61,26,-31
1490821640048,-9,-31,-72,-111,90,-91,25,-15,-107,7,48,-2,-84,-83,-93,2
1490821640097,91,75,81,127,91,43,127,66,-71,-14,-74,-128,9,-115,-123,-67
1490821640194,-16,7,79,73,-63,39,0,56,127,-4,-40,-74,27,-81,127,63
1490821640195,27,26,-50,-37,-18,19,-128,-34,-71,1,-32,-6,-44,38,65,-7
1490821640197,-18,-42,-14,71,121,55,74,52,-31,-28,-37,-71,-128,-105,-3,-83
1490821640244,-114,-12,-48,-43,127,-10,-29,-83,34,-7,14,11,-128,55,-88,24
1490821640294,127,23,9,56,-89,-123,120,42,-69,13,36,16,125,35,-121,-41
1490821640341,6,-7,9,76,-24,31,79,-30,-5,29,39,25,-128,84,-71,11
1490821640389,-101,-2,18,-72,-113,25,67,36,18,56,83,-79,-34,-8,-111,-31
1490821640390,76,-75,-68,-128,-79,-25,64,59,-21,24,15,42,121,25,65,52
1490821640438,73,73,64,-63,-127,4,28,-18,-89,-12,-22,34,94,80,-103,8
1490821640487,-41,51,29,51,127,69,85,55,58,-47,-55,-104,12,22,-56,-42
1490821640536,-58,-86,-66,-83,9,52,39,8,9,38,78,80,42,116,57,-6
1490821640584,-2,10,-108,6,106,-85,-59,5,-127,-27,-41,-128,-128,-55,-76,-34
1490821640586,127,51,66,81,-70,12,107,88,-86,-22,-35,-59,-16,19,-123,-66
1490821640634,-63,-47,-1,-128,-79,-127,-86,15,-37,60,94,110,27,127,91,40
1490821640683,17,69,127,127,93,-12,13,-21,26,-13,-84,-128,26,-113,56,-6
1490821640731,115,-22,-76,-102,-33,95,-45,12,16,-3,0,-91,-44,122,31,5
1490821640780,83,102,127,127,-50,127,75,37,27,10,-74,-66,127,-128,-34,-6
1490821640828,87,14,8,18,-111,12,-27,57,-19,22,68,57,-58,11,-37,-12
1490821640830,-12,10,53,73,-128,-37,60,3,12,34,31,127,127,38,-1,8
1490821640877,-75,-69,-95,-41,74,88,49,-2,-49,-13,-17,-26,-42,27,58,18
1490821640926,-37,-51,-91,-24,2,11,-65,-45,-53,-21,79,45,4,-5,-120,-54
1490821640974,-21,-12,5,-87,-128,125,-80,-28,-61,5,-82,14,127,123,-46,-52
1490821641023,3,27,95,63,-76,-126,-4,16,7,54,-36,-83,78,-127,-39,11
1490821641071,-19,14,-27,-32,-83,-31,5,8,66,76,33,95,-35,-17,14,-23
1490821641072,92,-95,39,-27,51,1,0,4,-111,-128,-94,-118,-56,-98,-65,-32
1490821641121,-5,-94,17,-62,-53,-87,68,81,-3,-128,-51,-85,3,42,-58,-30
1490821641170,-67,34,9,75,28,6,-32,-33,-4,-11,-7,-42,-118,-82,-3,44
1490821641218,-23,30,-39,63,52,109,26,-9,16,-3,-44,22,-98,19,0,-23
1490821641267,-4,-32,-15,-23,65,91,74,55,-22,35,74,-9,38,56,-1,-9
1490821641272,-40,-8,-30,84,36,42,-52,-37,-2,7,35,14,98,12,-8,19
1490821641316,-27,51,67,55,-3,3,-20,7,-26,3,-35,-17,-23,-86,-30,-38
1490821641364,-40,30,73,25,48,-93,-86,-5,80,31,-52,5,18,60,4,-2
1490821641413,-82,1,-17,-9,-91,-105,-57,6,15,46,105,109,96,80,-58,-50
1490821641462,59,-69,-37,-29,-46,127,105,11,-33,105,-40,76,99,-73,-9,9
1490821641510,113,-30,-73,-94,-60,-110,-103,21,9,-101,-54,-99,-128,-59,-33,-88
1490821641512,105,59,127,127,42,127,109,77,8,89,-65,-128,-16,-96,-28,-31
1490821641560,-10,40,-10,-128,-91,8,7,16,-36,69,49,127,127,-103,-59,-74
1490821641609,42,16,37,3,121,-92,-9,22,-67,-114,-105,-128,-45,90,127,35
1490821641657,65,-57,-16,113,6,5,-102,-40,-18,-72,-35,39,96,-36,52,33
1490821641706,-15,-39,-42,10,76,-28,-82,-85,5,44,-21,26,74,36,71,80
1490821641754,28,38,-21,-109,-114,70,88,39,-11,-29,57,12,-90,127,84,6
1490821641755,-57,26,-59,21,103,-45,36,46,-34,51,88,78,-62,100,-115,-26
1490821641804,-21,-39,-15,21,0,69,41,-64,18,-2,48,49,-26,-82,-71,17
1490821641852,72,91,83,92,11,-127,77,67,37,2,89,126,-33,99,-9,-43
1490821641901,127,14,-2,58,9,35,-79,74,-67,-39,-93,-128,125,-103,3,4
1490821641949,-12,5,38,40,-47,74,26,-19,-116,0,3,-30,-66,65,-50,-13
1490821641950,80,8,-24,-17,85,-52,-41,35,-84,-38,-64,51,87,-128,-121,32
1490821641998,-44,-42,23,-50,-54,19,37,-33,-23,51,80,56,-76,-12,72,84
1490821642047,-66,-30,-91,-104,-95,-56,-15,62,24,27,20,57,53,-25,-28,27
1490821642096,-42,48,39,74,63,82,37,5,-53,-35,-61,-56,7,-90,-44,-72
1490821642144,-97,-47,16,97,-38,66,69,-6,2,40,66,34,20,-42,6,78
1490821642193,32,-7,-25,46,-14,20,74,69,70,4,71,121,-110,125,-18,-6
1490821642196,127,37,5,-120,62,-76,-61,42,-57,-25,-44,-72,-87,43,47,-33
1490821642245,17,-53,-21,57,-41,-123,2,-78,22,9,-92,-85,90,-23,-88,11
1490821642292,-128,-39,-38,-83,-57,96,-15,-68,58,34,52,72,-7,24,65,89
1490821642339,65,28,-79,-126,-120,66,98,68,-88,-59,-24,-104,-58,-82,0,6
1490821642388,-4,-11,-24,-46,17,18,59,24,-14,-13,-31,50,86,89,34,15
1490821642436,72,56,-18,-103,127,-126,76,84,42,-23,-20,-128,-115,42,-50,-36
1490821642437,12,49,65,-32,-106,-5,-107,-82,-87,29,47,91,107,82,127,43
1490821642486,0,49,-4,-93,-82,121,39,55,-43,-32,-47,32,56,127,-78,-90
1490821642534,-59,-15,-73,-34,127,-82,-45,-59,28,-20,-39,-40,-116,-35,5,112
1490821642583,41,22,3,41,8,119,-23,-5,33,-9,22,49,78,-81,103,19
1490821642632,55,25,29,-7,-10,-31,34,56,-45,-44,21,127,-50,-45,-92,-113
1490821642638,-17,20,62,87,127,-3,-85,-102,-12,-15,-30,-48,-4,-86,20,28
1490821642681,-37,4,97,24,-128,1,52,30,77,31,-37,-3,127,-40,-41,3
1490821642729,-78,-28,-64,-30,8,3,-61,-37,5,-41,23,50,-96,22,34,30
1490821642778,-66,10,19,-57,51,5,28,11,43,-36,-18,33,43,87,-41,-61
1490821642875,65,-11,-105,5,-119,43,94,-2,-32,32,56,-97,-109,69,-82,-23
1490821642876,-56,36,101,101,-65,37,15,-49,56,0,-101,-51,108,-106,-49,37
1490821642877,15,-29,-58,-128,-117,-44,28,24,19,3,88,108,-48,88,84,22
1490821642925,-26,-33,-65,-128,-109,3,-81,-43,28,44,85,127,-128,39,7,-17
1490821642973,-27,9,8,-17,32,92,112,35,-65,-21,-15,-23,-9,127,2,9
1490821643022,-15,51,-41,9,-45,-126,35,13,28,47,39,-65,-26,-125,57,-14
1490821643070,10,-8,75,127,108,-44,83,8,-1,21,-32,-39,65,-32,0,12
1490821643072,-48,15,45,69,54,89,35,-17,32,3,49,127,109,81,65,6
1490821643119,-5,-72,-23,-86,-34,-29,-5,30,-42,-98,75,101,18,43,-11,-23
1490821643168,62,-2,-20,-128,-6,9,-61,17,-78,-37,-40,-38,-71,-36,-92,-41
1490821643217,55,2,110,88,83,20,68,8,22,78,-18,44,3,38,28,12
1490821643266,-91,62,62,-36,-37,14,-11,-18,-4,-18,1,-9,-32,18,14,-14
1490821643314,-30,-51,-26,-106,-13,-49,-11,-6,-41,-107,-99,54,62,-43,25,-9
1490821643316,-4,12,-90,-2,-18,16,2,7,0,52,108,107,0,91,2,7
1490821643363,104,62,31,5,38,-52,-64,-4,-51,6,-36,-96,-48,-31,-14,14
1490821643412,-24,-27,-72,-50,-89,-48,-8,15,25,25,94,88,88,107,75,17
1490821643509,82,5,-4,111,78,-1,-9,16,11,-26,-46,-108,-71,-32,-52,-6
1490821643513,6,2,-28,118,-82,-89,-20,7,-6,22,-18,-99,6,91,40,1
1490821643557,3,-17,16,-69,-16,127,89,-5,-51,-7,-6,38,-65,-125,-19,2
1490821643558,97,-49,-46,-126,24,32,-74,9,62,71,28,102,53,-54,22,30
1490821643607,-128,-106,-61,-115,-89,-75,17,-16,88,-116,46,7,6,103,6,25
1490821643656,29,66,98,127,41,117,102,29,-45,-8,15,103,27,-120,-72,-12
1490821643705,-72,-66,-96,-55,-62,-75,-32,-49,52,-57,73,97,68,97,20,24
1490821643753,-78,25,-53,28,41,53,36,-28,73,38,-23,-39,47,-30,49,17
1490821643755,68,-40,-11,10,81,-21,-92,22,-90,20,42,33,35,76,-22,-40
1490821643802,42,0,23,78,21,37,-87,-11,18,13,60,-3,-71,23,-6,9
1490821643851,-14,82,75,13,-123,-128,27,55,-67,18,-35,-117,110,34,127,-43
1490821643899,114,24,10,-11,-111,81,-51,30,127,82,93,-43,-16,51,94,50
1490821643948,-15,-89,-56,-23,11,-3,-25,-19,45,81,73,127,127,114,-40,67
1490821643996,-92,-46,-53,-78,-128,54,-48,-33,-22,-27,26,127,4,-20,119,-7
1490821643997,127,29,40,71,71,79,0,35,-32,-31,-45,-112,-115,-26,-13,-45
1490821644046,-4,26,15,48,-11,68,58,41,-114,3,18,-16,-38,-116,-100,-63
1490821644095,30,23,18,88,125,-19,77,62,-76,-24,-32,-41,-28,104,36,-63
1490821644143,-75,-41,-111,-101,-107,-88,-66,-59,-56,33,12,-39,1,28,65,44
1490821644193,-14,2,33,16,-65,-80,-105,-59,-24,49,54,65,105,48,54,73
1490821644241,59,36,1,22,127,-20,-128,13,-57,-61,-34,-79,-105,56,10,-41
1490821644243,-21,2,-39,-95,114,-2,83,116,-70,-51,-29,27,75,84,-78,-58
1490821644289,74,-45,62,88,48,-128,1,-21,-37,-18,-59,-16,127,4,-20,-5
1490821644338,-15,-54,-25,-71,-85,-60,-19,-39,107,8,-25,-50,-40,77,78,22
1490821644387,-102,23,80,92,-75,89,54,13,15,19,-41,-116,-107,-81,-79,-6
1490821644435,-41,-81,-10,127,-67,-71,-26,14,127,45,5,27,80,127,-40,15
1490821644436,8,36,45,62,-7,71,-47,-34,47,-7,-81,-101,80,127,127,-5
1490821644486,-30,-30,-41,-19,9,-44,-122,-9,80,10,51,77,0,-100,120,59
1490821644533,-13,-30,-5,-30,-105,-55,89,5,65,-32,-2,25,-36,-73,34,27
1490821644582,-128,25,64,60,54,-82,17,-41,85,74,2,-65,43,-36,79,28
1490821644631,-103,-17,30,54,-128,30,49,71,-103,-47,21,127,124,35,6,-101
1490821644678,100,56,-13,-12,106,99,-96,-4,-128,5,-33,33,-72,-113,54,18
1490821644680,16,9,29,109,-97,17,72,-40,93,89,66,31,-36,73,-25,91
1490821644728,-27,-35,16,-36,-66,-42,-51,-22,-32,34,-6,-112,28,-128,18,-6
1490821644777,67,37,-9,29,-102,-75,24,-22,-29,11,12,-102,-106,-73,-21,-73
1490821644826,26,17,-2,-109,-56,79,-4,31,52,-32,53,29,-113,34,53,-48
1490821644874,-128,-71,-112,-128,-60,-128,-28,-38,-62,-23,7,36,-47,127,-26,23
1490821644922,-52,26,70,29,-17,13,127,21,13,-13,-22,89,127,41,-1,-79
1490821644924,-28,31,119,127,19,85,57,3,68,19,-14,-15,113,-110,14,27
1490821644972,5,-20,30,105,-6,84,12,-6,-86,-1,-28,-90,34,109,46,38
1490821645021,6,5,31,117,126,27,30,43,57,-40,-122,-128,-113,15,58,35
1490821645070,-64,-70,-81,-116,-14,63,-128,-22,-7,5,1,65,42,120,2,23
1490821645118,80,19,-61,-104,-25,-26,-26,28,19,38,52,97,-15,-105,-53,-4
1490821645119,-12,-16,21,73,-13,-99,-89,-13,-3,11,-24,-40,96,-98,-40,-12
1490821645167,63,41,-53,9,59,-117,-27,29,-28,39,-77,-119,-128,-19,42,15
1490821645216,37,-9,35,44,-53,-22,96,-5,30,8,28,-54,-76,47,28,0
1490821645265,6,-61,13,127,124,127,105,59,-1,-44,-2,-54,86,-10,37,-21
1490821645315,-7,-101,30,-120,-26,-16,-23,-7,-30,36,-41,29,35,-8,24,20
1490821645362,11,-13,80,114,-5,53,-29,-28,-7,23,-2,-14,-38,-64,5,-15
1490821645363,-4,-31,2,37,43,-3,-2,3,-48,-52,45,9,-12,11,-29,-20
1490821645411,57,47,-88,56,-1,28,-5,5,-64,31,72,-55,-62,-15,-7,-6
1490821645460,-44,-20,-24,-87,-68,12,35,17,39,-8,44,50,20,71,77,-1
1490821645508,-32,57,-19,-19,-12,-92,-45,5,19,-13,-26,-122,-47,70,-37,12
1490821645556,-52,11,-6,64,19,29,-8,-2,0,4,-42,65,41,-8,69,18
1490821645558,7,-33,48,77,127,49,0,11,73,-26,-46,-20,5,100,58,19
1490821645606,17,10,114,127,99,69,20,-9,-23,-48,33,-80,21,109,24,-18
1490821645654,31,11,47,94,18,127,127,27,16,94,-117,-92,-128,-101,-49,12
1490821645703,-1,-57,-3,-4,-6,53,13,-5,42,-65,101,98,41,-9,95,40
1490821645752,28,116,-24,-16,60,-44,-37,-60,-116,65,-75,-85,-1,16,-55,17
1490821645801,33,80,20,-52,-87,-34,-7,5,-87,36,-36,-26,107,41,-87,-49
1490821645849,-67,-108,64,127,13,100,-68,10,38,-70,48,-32,-119,-107,30,14
1490821645897,0,38,-17,-44,62,-17,64,6,-65,9,-42,-79,-74,-48,-71,15
1490821645898,-54,-44,-58,-128,-81,19,31,4,18,58,34,0,-71,-28,-7,2
1490821645947,102,-6,-55,17,7,19,-12,30,5,-58,-64,-128,-128,57,-63,-35
1490821645996,3,-19,-17,21,-50,4,127,58,6,-17,9,-10,-23,2,-14,7
1490821646044,-71,50,48,14,7,36,-41,-3,52,8,8,34,114,9,44,-65
1490821646045,-11,21,-3,44,65,56,-29,-23,69,-16,-46,-100,8,-26,70,57
1490821646094,-61,-40,-38,24,77,18,16,-38,-25,6,37,9,-18,45,43,42
1490821646142,11,-20,-66,-115,-28,52,62,-4,53,51,77,116,28,-56,62,35
1490821646191,69,59,24,-128,-85,-11,119,96,18,-61,-63,1,-24,5,-105,-48
1490821646239,39,30,12,100,87,-68,-46,19,-94,-15,-13,4,17,-81,85,18
1490821646240,8,-56,15,-80,-128,105,5,12,52,1,-32,62,118,94,117,72
1490821646288,127,105,102,79,-87,8,-10,-26,-116,8,85,-28,-83,-6,-9,-40
1490821646337,24,-18,25,-54,-33,-58,-43,2,24,-12,0,9,-9,-9,-42,-49
1490821646387,-71,-34,8,82,81,64,-69,-25,49,41,6,8,-19,-74,55,56
1490821646435,-82,1,-72,-53,45,0,123,-22,18,-3,-38,3,-61,-32,-61,36
1490821646483,26,31,-28,-81,-54,29,80,43,-36,-41,-42,-63,8,-29,-101,-21
1490821646485,127,-16,83,106,10,127,83,35,56,25,6,32,75,8,127,68
1490821646532,56,14,113,82,-128,109,43,29,93,50,-27,49,113,-95,77,38
1490821646582,75,3,-23,-108,-128,56,6,5,-5,14,51,28,-70,-35,85,16
1490821646677,57,41,-51,-55,10,-1,-43,96,-49,14,68,10,-93,29,-60,-109
1490821646678,-86,22,79,50,6,36,51,-28,-76,-53,-106,-107,-44,-63,45,-33
1490821646726,-19,-24,-30,1,-45,127,-60,-23,27,19,12,-118,-115,69,47,63
1490821646727,-26,-54,-32,-128,-126,-74,65,17,16,11,27,120,51,-50,-33,-42
1490821646776,-128,-80,-49,-127,-87,38,101,-35,31,-33,38,88,-66,-2,120,32
1490821646824,127,20,93,82,60,54,-46,39,-53,-15,68,127,6,38,-13,-76
1490821646873,-52,-2,-19,-90,-4,4,86,-50,22,-34,-81,-71,72,-36,-127,27
1490821646921,9,-31,-32,107,127,-82,7,32,-9,-12,-19,-59,-115,29,-64,-122
1490821646923,-24,-39,-84,-81,23,-22,-63,37,-78,-44,-47,-106,30,-96,-100,-62
1490821646971,-48,-35,-20,-57,-32,-50,13,28,17,15,22,78,48,-39,40,7
1490821647020,-20,10,63,127,-32,48,127,61,28,55,31,6,-1,27,-33,-11
1490821647069,-46,-76,-114,-121,-17,127,-93,-24,5,11,14,74,24,127,-12,-9
1490821647117,59,59,58,58,-6,-121,52,19,63,66,83,71,47,-113,13,22
1490821647165,10,2,-22,-98,-62,-123,-99,-36,-23,36,-35,-109,51,-36,48,28
1490821647167,15,38,86,60,-107,97,54,11,3,35,8,26,86,81,27,-8
1490821647214,67,-27,70,69,44,115,55,1,19,-34,-53,-111,-24,1,-54,-16
1490821647263,58,-83,-16,-93,76,-99,-69,-11,-54,-96,-83,-60,-127,-114,-21,-30
1490821647312,33,72,57,25,17,-14,20,40,55,100,35,-84,35,47,39,33
1490821647360,-25,-5,30,36,-14,-1,-29,-20,29,3,-58,-10,38,38,16,26
1490821647466,-3,50,109,4,-48,73,90,5,-61,-11,-13,-24,-67,56,-66,-56
1490821647469,-6,38,24,50,54,-45,38,14,25,-8,4,2,-22,5,78,-14
1490821647475,25,6,26,11,5,-39,-24,19,-73,-30,36,103,-14,-53,-31,-5
1490821647507,-6,-26,-13,-93,-59,-9,30,-35,20,-28,-37,89,45,-21,-45,7
1490821647555,-4,45,-8,24,-47,63,-44,-19,23,82,54,78,98,88,35,29
1490821647603,-23,-20,-15,22,-90,-67,-111,-42,-49,-61,-10,94,-42,-6,12,-5
1490821647605,-15,41,4,8,-27,10,59,3,-8,2,15,-66,-31,10,-7,-24
1490821647653,-59,80,5,114,41,-18,-47,37,67,-82,37,-41,83,77,95,56
1490821647702,45,70,13,-18,35,94,87,-32,14,127,-109,-35,20,-128,-116,25
1490821647751,-58,102,25,119,81,83,10,-6,48,82,60,83,30,45,8,14
1490821647800,-70,-84,-102,-75,-87,-67,-32,-27,29,-1,24,38,-111,86,-76,-77
1490821647848,44,-19,-94,-113,70,-105,-121,-57,-39,-32,60,61,-61,-3,-7,67
1490821647850,-11,-30,82,127,99,127,-62,-36,55,59,50,36,-101,-24,56,62
1490821647898,76,-6,2,52,8,-47,-30,30,92,66,87,123,-24,83,57,50
1490821647946,-105,-29,-30,-128,-101,77,67,-68,36,18,15,98,125,-17,-32,23
1490821648043,-15,46,12,-101,-43,125,-66,-62,50,-49,-21,47,90,43,53,17
1490821648044,114,13,-38,-42,93,52,-4,21,-65,7,74,-28,-128,90,34,-55
1490821648095,107,30,-38,-51,108,-84,90,78,-128,-62,-38,-96,-126,-52,13,-55
1490821648097,24,2,-36,52,-27,-128,121,58,-7,-3,32,-39,-27,118,-29,-15
1490821648140,-52,-58,-35,1,-40,-55,-15,-35,-28,17,98,127,63,93,-97,-76
1490821648289,-8,-20,-54,-69,69,-48,-32,-18,39,19,-41,-75,-39,32,38,46
1490821648290,64,-9,-1,110,89,17,-22,50,-63,-41,-29,33,-16,-105,39,-23
1490821648291,-122,-45,-11,-68,-91,-36,32,0,94,102,94,-28,-46,127,68,56
1490821648291,31,5,12,-3,-5,2,-103,-15,-81,-21,-39,-50,60,0,48,-49
1490821648437,-27,75,90,119,106,111,-67,33,5,-43,-24,16,10,-52,50,-37
1490821648440,20,-36,-94,-82,-74,47,100,9,50,29,79,-24,-69,127,26,40
1490821648449,-32,0,81,60,-53,-92,-5,-81,127,101,-44,127,127,-91,85,76
1490821648484,15,-76,-90,-60,60,-24,92,60,79,16,68,30,-84,44,-112,-49
1490821648627,-35,-21,-26,-63,-76,-19,97,-13,35,91,98,53,-5,-128,-71,-1
1490821648628,33,-3,-30,-98,-94,63,51,34,-17,-1,93,110,56,-80,101,17
1490821648629,-91,-56,-71,-57,-118,-92,-57,-39,-36,-44,31,3,-19,-5,60,5
1490821648630,-79,-4,57,-9,-14,56,73,40,23,48,1,-86,-91,13,-119,8
1490821648725,44,10,29,-12,-27,-73,73,16,-77,-37,3,-27,90,-33,81,-29
1490821648727,92,34,110,127,56,127,-101,-11,-57,4,-20,-59,-33,-121,93,28
1490821648728,-86,-20,17,127,97,107,-89,4,86,28,-5,-81,-94,-74,59,37
1490821648776,17,-43,-30,15,-128,37,107,28,40,65,73,34,13,-42,-36,-11
1490821648824,127,77,82,123,-57,84,120,127,-128,-31,11,-99,40,39,-128,-110
1490821648872,-70,-8,-8,-99,81,-128,-65,-49,108,-45,-128,-128,20,-49,52,82
1490821648921,62,-1,62,92,127,102,-26,9,-21,80,127,127,-45,12,36,29
1490821648968,-44,-34,-82,-12,-31,44,54,34,-18,4,56,77,-21,91,-56,-37
1490821648970,5,23,33,-2,-61,4,-19,10,31,10,-3,59,17,61,52,37
1490821649018,-24,31,65,46,31,94,7,-18,8,9,17,-8,-15,-59,20,-1
1490821649068,9,-52,-84,-83,41,-128,72,41,34,26,25,-39,-20,15,-23,0
1490821649116,-38,-60,-36,-38,36,-70,16,-20,-31,-62,54,111,35,30,64,13
1490821649165,-72,58,55,127,32,2,9,-8,-45,58,-6,-61,-15,42,-8,-46
1490821649212,-7,-20,27,127,-12,18,-3,-25,-107,-24,-5,127,54,7,38,49
1490821649213,-33,-68,-92,-81,-24,-21,-54,-6,59,2,61,-42,52,10,16,-10
1490821649262,-13,-30,32,95,20,13,12,-13,45,84,-40,-24,-41,-6,71,54
1490821649310,-3,36,-32,9,-47,-37,-44,-4,29,-60,59,-87,-3,34,-5,-15
1490821649359,16,65,-21,-21,-10,5,38,17,-41,-31,-46,68,23,38,-86,-76
1490821649407,14,10,-13,-49,-7,3,-33,-3,22,-34,-8,46,19,32,44,38
1490821649408,83,35,-1,4,-23,3,-7,-2,84,60,45,-10,-6,-1,27,32
1490821649505,-26,35,8,-86,9,1,-11,2,-38,-5,-79,-31,3,3,0,-5
1490821649507,-4,-29,7,-65,9,27,30,-13,36,5,-7,-84,-15,48,13,26
1490821649557,-48,-10,26,84,6,8,-8,6,11,-21,-2,26,13,-10,-15,-24
1490821649603,10,25,46,21,5,53,10,2,-29,6,17,-49,4,48,10,-11
1490821649651,15,40,-46,-81,-88,-128,-50,-15,-41,-8,5,44,14,41,-23,-22
1490821649652,4,-13,63,90,-61,32,-13,14,91,71,103,104,16,50,66,20
1490821649700,-104,4,17,66,107,57,49,-15,49,25,-39,-125,-48,-21,-72,12
1490821649749,-42,-9,-85,-101,-81,-54,-64,-51,10,69,-28,-76,-92,-64,-41,57
1490821649798,86,-53,-8,-77,47,-41,73,14,35,-16,-52,-47,13,-16,-124,-29
1490821649847,51,20,-16,72,127,65,7,12,18,25,5,55,36,-128,-47,18
1490821649895,37,8,3,6,18,45,23,14,-14,-29,-43,-80,-36,-35,-18,-10
1490821649897,47,51,33,-63,-9,-99,93,97,26,-43,-61,-128,-77,-13,-57,-54
1490821649944,18,6,2,57,-42,127,18,29,8,-5,118,127,-66,123,96,13
1490821649993,78,48,35,36,-73,-11,-26,24,-52,-30,-17,-40,75,38,48,-50
1490821650042,-31,-6,7,1,24,31,35,4,67,39,2,26,-25,37,32,49
1490821650090,43,-14,-81,-78,-25,-74,50,65,22,33,64,57,6,49,-32,-23
1490821650091,7,8,27,39,-17,101,114,-4,-65,-80,-59,-91,48,70,-58,20
1490821650187,-39,-37,-20,-38,-1,-33,65,19,127,55,15,54,46,-91,-18,81
1490821650188,-128,-100,-82,-113,-99,92,-70,-31,-66,15,14,35,-91,55,54,-39
1490821650237,59,41,8,-31,103,-59,14,-38,88,-12,7,23,-52,-24,52,2
1490821650287,-122,16,-14,-128,-18,-8,-72,-22,47,20,-15,-12,-41,-128,-9,-44
1490821650334,10,30,21,94,-122,-112,24,110,-29,-11,-2,-21,69,-91,69,-6
1490821650336,-31,-4,-49,-98,-70,-109,108,91,-66,-49,-59,-24,-50,123,-126,-79
1490821650383,-15,-27,5,-22,94,42,-121,20,57,-51,-61,-71,-85,-29,-36,10
1490821650432,-11,-25,-16,3,-68,19,24,-13,3,8,20,76,92,65,73,40
1490821650480,-1,-18,-29,-76,-67,-104,-95,-66,-40,-30,-44,14,10,29,41,39
1490821650529,-39,-18,9,-16,-53,-23,-118,-108,-91,1,-64,-52,-28,74,22,4
1490821650577,-8,-13,-21,-128,-91,35,99,10,-38,-31,-63,-71,66,-93,81,-15
1490821650578,78,60,91,41,-113,19,125,87,-59,-15,75,101,110,127,-116,-79
1490821650627,-82,-33,-18,-4,-48,15,-128,-124,-11,32,76,109,85,24,-49,33
1490821650675,25,-38,12,-99,-105,-77,14,-19,82,-5,-45,41,96,-115,-66,-2
1490821650725,100,65,100,127,127,115,123,127,-97,-17,-19,-128,-128,-70,42,-91
1490821650822,-31,-27,3,-64,-128,-52,-128,-28,-13,50,-10,76,115,56,-24,-41
1490821650824,-96,5,-29,-68,-49,79,60,-70,-18,-26,-21,19,-5,-64,-7,59
1490821650825,99,-6,-2,4,10,-20,-67,1,-88,6,56,25,-120,-11,26,-57
1490821650871,-120,-46,-70,-91,15,-15,-87,-42,-39,-31,-45,13,-76,6,43,-60
1490821650919,-81,-10,33,-61,-60,29,56,-25,45,7,28,80,27,74,-128,-30
1490821650968,-106,2,41,-67,-46,49,67,56,63,-15,4,-28,-126,76,-37,-58
1490821651016,-33,29,107,101,-126,-9,53,22,-3,-7,39,-3,121,106,-45,-51
1490821651017,57,25,40,112,-56,48,61,-12,-46,7,15,68,-46,-19,7,23
1490821651065,103,20,-35,69,127,-51,19,46,-92,-35,-26,-95,-114,48,-8,-10
1490821651114,16,-4,-55,-114,-16,75,-58,-29,-67,-3,-20,-95,-28,67,98,55
1490821651163,-8,11,49,79,30,23,28,9,-5,-23,-50,-90,37,68,-82,-45
1490821651211,-55,-14,-14,-32,46,-117,66,81,78,7,19,-48,-2,-128,-13,-17
1490821651212,7,6,30,64,52,3,-32,-4,-33,-13,40,99,-11,-88,58,-3
1490821651261,90,-52,-6,-53,81,-74,-62,-41,-79,-97,-98,-83,-101,-108,-105,-13
1490821651309,18,80,70,61,19,104,42,42,2,80,-84,-128,-103,-121,-22,5
1490821651358,17,-78,-47,-54,-128,-31,-24,-38,7,-47,-12,-15,-52,-16,-40,-15
1490821651407,-50,38,59,-87,-28,-3,-34,-13,33,-91,15,-66,53,-61,-77,-31
1490821651455,-26,56,-40,-56,-36,19,4,-2,42,20,-82,14,20,38,14,46
1490821651456,17,-1,40,55,17,18,-31,-4,30,8,-78,-91,7,70,21,-8
1490821651505,7,-20,-48,-13,11,-10,-16,-11,33,-16,59,94,70,127,34,3
1490821651554,13,-45,-43,-53,102,98,-24,-14,35,29,-15,-103,-44,-122,-48,14
1490821651603,-23,50,-70,-104,-69,-114,-76,7,-48,-17,42,-26,-89,-99,-21,-16
1490821651650,79,64,55,-1,-21,36,32,-2,-25,101,-54,-57,-51,-32,3,22
1490821651698,0,-90,-62,-102,-111,-128,-47,10,-23,-103,-20,27,127,19,-45,-38
1490821651700,29,0,4,-11,11,-39,-58,42,-16,43,2,28,-68,-53,-35,-4
1490821651748,2,-106,-47,-57,-21,94,-47,-27,-24,92,29,30,-62,27,11,43
1490821651845,-7,42,82,112,98,16,35,-8,87,76,-7,-27,-90,34,45,22
1490821651846,-68,39,24,42,28,83,-78,-68,6,112,-2,18,-11,127,63,-1
1490821651899,49,55,-34,7,-32,-128,-24,4,-92,65,42,124,74,127,76,-39
1490821651900,36,-18,43,127,109,25,86,38,19,-44,-71,-103,-104,-43,27,22
1490821651943,38,-60,21,82,42,22,2,-23,-64,-69,21,5,-84,-92,-76,3
1490821651992,-9,-5,31,72,49,-66,-75,-25,43,18,38,89,127,-71,-6,-26
1490821652040,83,58,47,-8,-116,26,105,44,-43,2,81,127,106,71,-97,-51
1490821652089,2,-28,-57,-99,-107,51,-13,19,-35,-23,27,-58,-128,50,56,-49
1490821652137,63,15,-16,47,38,49,-22,-24,-105,-20,-37,-128,-89,-91,76,14
1490821652139,-95,-17,-8,-51,-73,-99,-104,-84,93,55,48,120,109,65,-4,86
1490821652187,84,-1,-39,-67,-79,-82,-85,-30,-46,-8,-37,-109,-81,-25,35,10
1490821652238,123,22,-27,-63,-59,-76,88,67,-84,-52,-70,-57,-36,36,-128,-89
1490821652285,-80,-18,20,127,106,41,-4,7,-43,12,-52,-54,96,-25,64,-8
1490821652333,9,59,66,74,51,78,39,99,11,7,-11,-17,42,36,-93,-28
1490821652381,-33,-25,-28,-67,-21,-93,-109,-1,-46,-3,-5,19,-70,-3,-16,27
1490821652382,-34,6,17,-98,-122,120,-13,-46,17,-18,10,-54,56,-16,-52,-43
1490821652430,-88,-49,-65,-128,-54,50,-100,-64,123,46,-23,-9,-4,3,-7,54
1490821652479,80,27,48,99,102,-5,127,72,-16,8,-11,-98,-111,-1,-42,-32
1490821652528,-56,-56,-61,-12,-18,-120,127,7,-52,65,-15,-119,44,-1,-98,39
1490821652576,60,20,56,119,-56,127,44,-37,127,49,44,84,31,-31,-52,80
1490821652577,107,80,39,6,101,-41,50,-10,-124,-66,55,58,-128,96,-59,17
1490821652626,-128,-25,-53,-86,-94,-18,-128,-30,39,-21,-55,-88,-87,2,108,77
1490821652674,91,1,35,116,-43,75,-94,-40,-29,88,112,30,6,-57,28,58
1490821652723,18,11,-38,-65,35,35,-30,-50,-41,-8,24,70,-82,127,86,40
1490821652772,92,13,-68,-62,96,-124,23,47,-63,-73,-85,-115,47,127,-94,-57
1490821652820,-122,-8,52,126,127,-44,-93,-30,2,18,71,127,-83,-41,30,8
1490821652822,127,45,-39,86,117,-104,127,21,-84,-21,-23,-1,0,100,-86,-34
1490821652869,-20,-2,42,-14,43,-41,-22,21,-114,-39,-50,-41,127,49,5,-76
1490821652918,-101,-82,-128,-128,61,-93,-128,-58,-34,-10,-47,-45,-50,-75,74,30
1490821652967,-109,-31,-62,-113,-58,112,-83,-61,127,-13,40,49,-99,127,-4,29
1490821653016,43,15,-7,-24,-37,36,-105,-30,-49,7,65,39,14,1,127,49
1490821653064,103,35,19,105,-42,77,-73,8,-37,-1,-6,-4,-52,-36,77,12
1490821653066,-17,-13,-40,4,127,-41,-46,-1,-96,-31,-36,6,-70,59,30,-6
1490821653113,9,8,28,-28,-49,75,30,-27,-26,11,24,77,88,54,-96,-38
1490821653162,-39,0,-49,-20,15,125,55,14,-74,-37,-70,-128,-64,105,-10,6
1490821653212,-40,-50,-47,42,68,-116,-95,-15,-31,-4,5,51,-62,-124,26,25
1490821653262,-33,14,83,85,21,-89,-23,-9,64,6,-57,-32,-39,-32,28,32
1490821653264,48,-21,-9,32,-33,54,9,21,-31,3,8,-34,-54,-69,-62,-17
1490821653308,-67,-27,-5,-37,-53,-18,-54,-83,28,-17,-14,50,41,41,108,-2
1490821653357,-19,0,30,81,5,56,69,50,43,-9,48,-32,12,40,8,36
1490821653405,-41,-43,42,52,-20,45,54,7,65,-5,-42,-128,-63,94,124,56
1490821653454,-30,17,-25,-52,-31,-70,-71,-50,-65,-1,10,19,12,2,49,18
1490821653502,127,86,31,53,47,18,7,36,54,-67,-10,-36,-16,-25,-44,-3
1490821653503,36,70,-13,-46,10,81,53,33,-55,11,-47,-32,-7,17,-60,-51
1490821653552,-41,-39,-23,78,11,-49,-11,5,2,17,25,-10,-5,-34,-34,-18
1490821653601,-38,-13,2,30,26,26,5,-18,21,-19,-2,21,-9,75,18,13
1490821653650,-32,32,-26,15,-30,-46,-2,1,9,-15,22,-7,-6,6,-9,-6
1490821653699,20,-42,11,65,88,51,50,20,-68,-42,-7,-62,-48,-43,-39,-15
1490821653746,-25,-78,28,9,48,124,15,-18,37,25,-14,-23,36,1,60,35
1490821653748,-25,12,7,40,-51,-41,-11,-26,24,-37,-29,-28,-37,11,21,-6
1490821653796,21,-84,-95,-125,-53,-38,-22,-22,13,-43,-21,-6,-21,-66,-100,-17
1490821653892,-31,-5,54,15,-79,65,51,0,-46,25,9,124,127,-65,-52,14
1490821653894,43,1,44,77,8,69,15,41,-2,-32,-19,-33,-6,64,-12,-4
1490821653942,15,-128,51,68,-43,78,-11,-6,-29,-115,-64,-76,90,50,-37,-56
1490821653990,-55,58,3,90,115,51,43,-9,-82,70,-91,-97,-83,-66,-29,-17
1490821654039,-54,86,-8,-61,20,-60,-52,-15,55,80,14,18,23,39,6,10
1490821654041,-27,-21,19,-38,-73,58,31,5,51,4,53,14,37,54,-38,-41
1490821654088,13,-58,-55,-13,-19,88,-7,25,-109,-39,-20,-73,-48,-10,-4,-20
