1490821090642,67,5,-38,-105,-50,-84,18,43,-72,11,68,-74,100,96,-94,-78
1490821090645,-47,-26,-29,51,125,15,-19,-71,-6,-33,12,113,-5,-69,38,118
1490821090691,-47,-17,-88,-13,-36,-23,44,9,54,17,-2,-1,93,99,-10,51
1490821090692,10,-8,-34,-128,-13,-22,-51,6,127,9,-46,-128,-41,30,-24,17
1490821090740,-22,-32,39,15,92,33,19,72,93,34,-44,3,62,46,27,32
1490821090789,-16,-3,41,124,62,5,14,35,28,-26,-31,-110,-39,127,5,4
1490821090838,38,9,10,127,-128,-28,-80,17,-91,-12,-4,7,97,-5,127,-31
1490821090886,17,58,78,113,127,89,86,22,-78,-1,-34,-33,-128,105,-86,-16
1490821090888,0,-8,12,-128,7,102,18,-17,13,-40,-60,127,-74,-112,-81,-10
1490821090935,44,57,-32,42,23,-128,-58,17,83,36,-66,-27,-90,-112,-9,5
1490821090984,-128,-56,-110,-6,64,119,-1,-45,30,7,80,57,14,66,-21,-10
1490821091033,-49,-19,76,52,71,127,38,-3,32,-1,24,120,-28,-48,21,26
1490821091081,-18,-10,6,61,22,-86,-28,-17,-10,-28,-49,-128,-44,-117,-7,-10
1490821091129,12,14,-64,24,-64,61,-8,11,36,-6,-41,107,65,127,30,10
1490821091131,-24,-17,11,3,23,-38,1,-17,16,42,47,-29,-3,19,6,-7
1490821091179,-40,77,-19,-26,14,10,8,-12,19,36,72,22,7,29,3,39
1490821091228,37,-8,59,-101,-16,21,-18,-12,-7,-26,0,91,-62,1,8,-6
1490821091276,4,-25,-110,-93,-37,-54,-47,-8,21,9,-37,-29,5,29,-25,-7
1490821091324,-17,-10,25,79,91,33,-5,-17,-29,-15,-83,-128,-102,9,7,-1
1490821091326,-101,117,-70,-115,-79,-55,-10,0,66,48,40,67,111,77,14,-30
1490821091374,-91,-128,-57,-63,-95,-88,53,-13,11,-27,31,79,74,55,13,41
1490821091423,-103,19,-128,-128,-128,28,-26,-56,-99,127,-20,-91,59,-21,-19,-16
1490821091472,-19,89,57,-89,-2,-17,13,40,6,35,-39,8,-39,9,4,-2
1490821091520,16,78,-8,-4,-128,-115,-57,-18,-12,70,10,5,-65,-10,-22,-17
1490821091668,-2,-34,-78,-83,-47,-29,-39,-14,0,1,14,51,50,-76,-16,3
1490821091669,3,9,-37,-36,25,19,34,30,2,42,-57,8,-82,-50,14,8
1490821091670,-1,22,-16,-8,-42,-3,-3,-27,-1,-16,31,31,-13,4,-17,4
1490821091671,-128,122,0,97,64,-9,39,2,-3,105,-15,69,42,54,-65,-13
1490821091861,-70,-52,54,77,110,-7,12,10,-76,-19,-46,18,5,31,23,-13
1490821091862,-94,-18,28,41,-17,62,-11,4,-30,5,38,98,-3,-54,-3,18
1490821092007,3,-7,-75,-128,-124,-127,-84,-10,38,0,18,127,57,26,15,-18
1490821092008,43,-5,-128,-128,-128,76,-19,-61,101,2,28,-24,-16,92,23,63
1490821092008,16,-19,-37,-55,-47,8,15,16,62,-96,-90,-20,14,-50,-14,-11
1490821092009,31,112,-21,-58,-1,7,5,-11,7,103,-6,6,-10,62,25,3
1490821092056,63,-2,63,81,57,-24,38,-1,29,20,-21,-44,-26,57,40,13
1490821092056,11,2,-68,-93,81,66,18,-38,48,6,19,30,-56,-27,-27,-6
1490821092057,127,-3,-43,-128,-107,74,118,55,127,-1,-66,-108,66,-43,-53,-49
1490821092058,8,-3,-1,36,-88,59,-10,90,-81,86,-14,-44,-78,-45,-93,4
1490821092105,22,97,-24,16,-74,-73,-2,-10,38,127,49,49,36,-29,-10,16
1490821092157,-4,-128,-29,-9,41,74,11,-26,0,-128,37,55,-128,-23,-58,10
1490821092203,15,-45,76,-45,-17,119,-17,60,-12,-58,-50,37,42,-107,15,15
1490821092251,54,28,-8,-40,-78,-110,-20,-14,87,18,-9,-45,-11,18,0,59
1490821092253,13,-20,-63,-66,47,101,15,6,127,9,58,34,60,57,69,13
1490821092300,67,25,82,110,89,74,20,49,82,-30,-123,-128,-121,-58,10,25
1490821092397,1,75,127,127,93,93,60,-19,75,21,-54,8,-118,-52,-30,28
1490821092398,-60,-56,44,-123,67,105,60,-35,41,33,6,-40,22,-79,-55,-42
1490821092446,-34,-35,-117,-105,-128,-108,-48,-19,28,33,59,24,35,100,56,25
1490821092494,-105,-24,0,53,83,-98,-53,-50,43,-6,-16,9,48,54,15,-2
1490821092496,8,57,92,127,0,-87,-22,26,11,-30,-5,5,27,127,33,14
1490821092544,-33,1,13,101,43,-70,-4,3,6,18,69,93,54,87,16,-9
1490821092593,5,20,32,21,-26,47,11,41,-38,28,53,-5,-35,119,25,-20
1490821092641,-24,-31,-6,-87,-8,16,-29,-48,3,29,-17,-61,-11,-128,-56,10
1490821092689,85,15,-67,-18,-89,-47,65,77,-22,14,59,104,102,22,-32,5
1490821092691,-128,2,127,75,-18,126,54,-12,127,58,127,93,108,127,41,97
1490821092739,-109,59,89,50,127,-90,-40,7,-128,-62,-69,0,-87,-53,-46,-23
1490821092788,-38,-44,-65,-60,16,25,-16,8,29,-13,-8,57,81,3,5,15
1490821092836,-128,23,-93,35,-1,-32,-33,-19,-46,-60,-55,69,111,127,20,-95
1490821092933,-84,16,-72,39,-108,-40,-21,-71,14,3,29,60,-85,42,-75,-56
1490821092934,-21,6,40,2,9,49,-9,22,8,-14,18,-81,24,122,52,26
1490821092982,17,57,41,40,11,29,52,74,-28,49,104,126,127,44,15,1
1490821092984,50,-60,-42,-88,-109,-28,18,-61,106,72,64,85,102,-58,29,60
1490821093128,115,13,7,-10,-123,-128,-43,-76,22,-48,-86,-128,-64,-34,59,25
1490821093129,31,12,29,-90,-42,117,-13,73,-97,-71,-92,4,-79,66,50,-42
1490821093131,-29,-32,60,73,113,59,74,-64,41,-11,19,42,98,4,-60,-62
1490821093177,-71,27,-14,-62,-27,-107,49,-5,81,25,-83,84,127,99,-46,61
1490821093178,-36,-26,18,-24,-70,84,-11,-67,-74,-39,38,-33,-32,7,34,28
1490821093226,47,27,14,61,-58,-58,-15,46,70,-13,-18,-73,-103,41,57,35
1490821093275,-41,20,58,127,11,74,6,-8,119,50,19,94,104,62,-96,29
1490821093324,56,59,39,30,57,-128,-18,87,-121,-14,42,127,97,110,127,-51
1490821093372,92,-5,-2,-74,98,72,12,68,-79,72,29,52,-70,-124,-91,-22
1490821093373,-16,-84,-101,-47,-75,-94,9,37,-16,84,44,11,34,14,-61,-83
1490821093421,-8,16,3,-48,32,-101,3,-88,65,6,55,0,-24,48,-12,88
1490821093470,80,78,107,127,124,-37,-76,-13,-2,-45,-17,-74,-26,40,50,94
1490821093519,-60,-11,4,-14,50,87,53,15,4,17,82,85,-69,19,70,-13
1490821093568,-11,16,-5,-34,7,-7,-10,60,25,-19,46,-27,83,127,22,-11
1490821093616,8,4,-21,127,78,-30,-55,-20,-21,-67,-50,-88,-81,43,-70,-44
1490821093617,87,38,59,46,127,91,66,45,58,95,127,123,104,101,107,11
1490821093665,-106,-37,-21,15,-1,11,-21,-54,14,-16,-122,-67,-128,46,-18,45
1490821093714,16,5,57,48,49,-51,65,21,32,7,-57,-120,59,43,1,-38
1490821093763,79,57,13,-66,54,127,60,28,-44,-23,-41,-92,-128,-117,44,14
1490821093811,-60,-54,-128,-128,-128,-128,-78,-81,-4,-22,20,108,91,-35,-80,29
1490821093814,-5,-2,-6,-43,-24,-43,-48,-13,-79,-2,60,74,-91,0,-7,-21
1490821093860,-10,-1,-40,80,-80,-83,-83,14,67,19,41,111,101,119,27,-4
1490821093909,126,-20,127,97,114,59,50,23,95,17,110,73,2,98,16,-2
1490821093958,-19,8,-55,-69,-35,89,48,6,33,21,127,34,15,102,25,2
1490821094007,-63,0,-33,29,40,-41,19,4,-67,33,88,127,90,41,39,12
1490821094055,14,-54,-108,-18,-84,-128,-58,-22,-1,-15,-55,-128,-22,-99,-26,-57
1490821094056,54,14,74,69,23,113,74,32,119,30,94,60,12,60,-2,25
1490821094104,-11,1,49,25,83,-18,-10,-21,-82,-6,-34,35,50,93,94,56
1490821094155,-21,-11,-15,-124,-45,-33,15,17,41,-15,-57,61,27,-79,24,-1
1490821094202,-26,22,-4,-10,-76,-128,-41,11,-53,37,10,101,127,-81,-9,28
1490821094250,-23,127,58,83,20,105,-2,6,-8,116,-54,-116,-128,107,-32,-4
1490821094299,-3,17,40,127,83,127,33,8,5,-4,121,107,91,127,11,24
1490821094301,0,-54,-10,-128,83,-62,-25,32,-2,77,55,2,57,-89,44,3
1490821094348,-79,-24,76,90,72,112,-14,-11,26,-53,-77,-68,-101,-128,-13,20
1490821094397,32,-10,-59,-56,-128,-2,0,9,-11,-11,-18,40,-55,69,5,5
1490821094446,-10,1,17,6,24,77,-25,-3,41,-22,-48,-102,-36,-86,-13,-6
1490821094493,-116,112,-15,-76,62,47,35,38,-55,127,-16,30,-80,-37,-6,-58
1490821094495,3,-59,-64,-77,3,-76,-72,-27,-32,-35,56,79,72,85,57,17
1490821094591,39,-105,-68,-22,-28,-5,-8,1,36,-82,-19,-16,-10,-3,-76,7
1490821094593,-83,2,-74,-94,-107,-30,49,29,-56,127,-19,-8,-49,20,-31,-57
1490821094641,44,62,-51,37,-31,-12,-16,18,27,127,-2,13,32,83,11,-32
1490821094689,18,76,36,-24,9,36,-23,-25,10,-37,-71,-74,-81,67,-15,30
1490821094737,4,9,31,103,107,100,55,-16,-3,33,127,80,127,126,68,29
1490821094739,80,3,42,68,71,25,32,23,48,-41,45,5,2,54,25,30
1490821094787,-38,15,115,113,83,127,21,-43,-13,26,52,5,37,8,-54,41
1490821094835,-7,-3,-53,-68,64,8,-6,-6,-18,0,41,87,39,-125,5,23
1490821094884,-102,-57,-1,23,-43,127,75,-40,-59,-38,-52,-72,-106,-80,-100,-40
1490821094933,127,73,107,127,25,44,31,-41,83,73,-12,-98,-74,84,69,57
1490821095029,-117,-83,-84,-63,-82,-115,-100,-80,61,88,15,18,48,47,10,73
1490821095078,-67,-32,-48,82,-42,111,52,6,40,12,26,-73,-7,-128,25,-33
1490821095079,91,-8,15,69,32,3,-17,13,19,-28,-19,84,55,71,89,-11
1490821095080,5,-18,85,-17,-39,-61,14,20,39,-11,-20,127,49,54,-4,-53
1490821095128,122,10,127,127,116,127,26,57,-96,-32,-60,-128,-128,-114,-74,-82
1490821095176,-6,-2,30,-19,60,105,37,-25,79,15,71,127,127,127,25,74
1490821095177,-39,21,-14,127,64,-57,-89,-20,-82,22,51,-46,-128,44,-36,0
1490821095225,105,1,37,-16,38,76,40,19,-128,32,18,-128,-73,-128,-94,-100
1490821095274,-48,-38,-77,-124,-128,-122,-60,7,32,30,-22,-26,111,127,-2,-12
1490821095323,5,-23,-59,-62,-128,28,11,31,-23,-36,-62,-86,37,-122,110,61
1490821095374,37,45,67,67,84,-10,3,5,-47,-87,-31,-111,-123,127,122,60
1490821095420,-66,-12,-14,-7,-25,-128,-66,-72,85,59,47,39,-13,50,-47,41
1490821095423,-13,-61,-110,-112,-102,-20,-13,24,-16,2,-59,-128,-41,-113,-96,-49
1490821095469,-39,31,-46,26,-1,-71,-6,45,1,-79,-117,-75,-38,-2,-74,-29
1490821095517,-5,12,7,90,37,-77,56,-41,-65,6,-34,31,-44,-73,-49,-17
1490821095566,-42,25,80,112,2,115,1,-71,26,-18,-44,-48,36,-118,35,-2
1490821095663,-3,70,-4,65,33,87,18,9,46,0,37,45,48,31,14,-13
1490821095664,16,-52,-3,-37,34,47,-12,-37,-10,9,38,-45,-62,-86,-14,61
1490821095665,-83,-20,-97,-15,-85,-15,-24,-75,74,42,69,111,127,-20,3,78
1490821095713,39,10,32,1,-34,-128,-30,18,24,2,12,-59,-20,58,61,54
1490821095762,-30,-68,-31,-79,-63,-1,46,16,-53,-4,-57,127,-93,-51,-38,-75
1490821095813,38,22,127,2,108,70,-38,41,-2,-17,-100,-128,-125,-81,-80,-33
1490821095859,-69,-15,-62,-38,-51,25,21,59,37,3,48,81,80,127,113,61
1490821095861,23,19,25,11,-15,11,9,13,15,24,78,70,112,77,68,-33
1490821095907,25,-18,14,-26,-38,-117,-12,0,-72,10,-2,103,121,8,49,-20
1490821095956,36,-30,53,29,-128,115,68,43,-42,-13,-109,-128,-128,-123,-51,16
1490821096005,63,-4,-21,-39,-102,-42,-7,9,31,-29,-32,78,10,-23,-77,-60
1490821096054,61,59,118,86,107,-21,-5,63,6,0,-72,-114,52,68,-57,-45
1490821096102,-20,-40,-62,-8,-55,-99,12,-2,-45,-54,-57,72,-102,-17,-40,-52
1490821096103,-26,-9,-12,2,7,78,87,9,7,22,35,16,12,-101,-46,-11
1490821096151,36,24,73,127,102,23,3,34,45,33,67,127,-105,92,18,15
1490821096200,67,25,55,44,92,54,42,78,-86,-22,-103,31,-74,-43,26,-14
1490821096249,-56,-26,-75,-11,117,-22,20,-18,-6,21,101,-51,-55,-22,0,-5
1490821096298,-2,11,127,99,18,93,-34,20,-1,-35,-47,-89,-104,-91,16,-19
1490821096347,-11,-14,-56,-128,-99,1,24,-8,1,-7,-1,-7,31,-7,-13,6
1490821096349,41,45,62,56,-90,-111,-19,6,77,1,-64,-45,-77,-47,-29,-7
1490821096395,49,-20,-43,-102,-72,-84,-5,-12,44,28,52,95,24,3,-4,1
1490821096444,70,-31,54,19,55,47,15,20,-5,-19,61,95,127,127,16,16
1490821096492,-53,0,-37,-116,-36,-3,-10,-6,-32,19,96,127,84,120,-13,-10
1490821096541,-7,87,89,60,56,-32,17,1,-5,46,-64,26,10,-86,2,12
1490821096543,-128,33,46,-47,-87,-58,-16,-44,-115,-21,90,98,54,47,-17,-15
1490821096590,-17,-40,-56,-48,-104,-83,92,5,127,-24,-86,-126,-57,-4,-78,-24
1490821096687,-4,-7,62,42,-28,105,-24,1,-89,2,-18,-46,-1,55,-3,6
1490821096688,-54,-4,10,-41,-55,-49,-50,-16,-39,-24,-8,-19,-5,-12,-8,-9
1490821096737,-117,-59,57,101,106,60,27,-25,-123,-55,-72,-128,-84,-19,16,16
1490821096785,127,-27,-94,-112,-80,-63,-21,5,121,-2,63,40,127,-22,-17,-17
1490821096792,-85,-128,63,23,-62,-25,54,36,-19,-128,-88,-58,-114,-98,1,-7
1490821096834,33,-19,-125,-110,-79,4,-3,-5,-52,-110,13,67,33,-37,-33,-14
1490821096882,117,78,-123,-89,36,92,0,16,-6,68,-28,7,-128,-62,-8,-14
1490821096931,-126,-8,57,7,-14,81,3,-3,-34,4,-22,1,-16,-8,15,4
1490821096979,74,22,-13,4,46,27,17,71,44,88,-30,31,-19,73,-17,-36
1490821096980,3,9,-15,71,-5,102,2,2,14,-5,7,-35,38,-21,-9,33
1490821097029,13,-56,111,127,101,81,15,-21,57,-13,-13,-92,-128,-59,11,46
1490821097078,47,31,75,94,-123,-39,-13,-9,-6,-19,-93,-64,60,65,76,2
1490821097126,-13,37,-77,-67,-128,22,-21,15,-34,-24,-64,-95,-6,-23,-27,-18
1490821097175,-66,-4,42,-40,69,-26,-15,-8,-57,-11,-76,16,9,77,34,-10
1490821097223,14,10,61,-74,-58,-73,-18,5,-23,-5,-51,-123,-128,-110,-39,-4
1490821097225,127,6,-38,57,-120,56,25,46,76,19,22,83,60,-13,-79,-39
1490821097272,-2,36,108,89,35,-48,-32,24,-18,4,59,-38,-92,107,65,25
1490821097321,-21,-27,-43,-128,93,105,2,26,1,-13,-9,105,-89,30,22,51
1490821097370,-25,42,78,118,-52,85,60,62,-45,-8,-42,-128,-68,-53,28,-16
1490821097419,-21,-25,-22,88,33,-95,-14,31,46,-10,41,51,55,-36,-61,-37
1490821097467,30,-8,-31,-27,-4,-124,-56,-35,16,-1,-15,127,46,-7,-40,-45
1490821097468,3,-50,-54,39,50,127,50,-60,-75,-4,-80,-128,-128,-125,-128,4
1490821097516,-108,5,-67,-123,-42,66,-45,-52,13,-9,127,127,127,126,-4,-86
1490821097565,-112,-33,-25,-18,-93,-97,2,-22,-2,-42,-3,-120,32,66,-34,-43
1490821097615,-48,5,-1,-63,127,70,18,-23,50,38,-15,-12,35,-29,-29,-27
1490821097663,-42,-12,-13,98,63,-54,80,15,49,43,79,-62,15,-43,-61,-51
1490821097665,96,19,16,62,-71,92,-19,-28,-112,-91,-114,-116,9,-128,30,-34
1490821097711,-52,29,74,-27,52,70,29,12,-54,-44,-76,104,-128,-33,52,-32
1490821097760,-126,-21,6,127,98,-59,-81,-55,64,33,2,-35,-83,-71,22,-42
1490821097809,16,48,38,62,-72,30,105,-8,35,-46,-128,-128,-128,71,-55,-8
1490821097858,43,4,67,76,-16,85,-76,-4,-125,-57,-82,-34,61,61,64,-39
1490821097906,60,-9,-6,-53,3,-58,-33,-54,79,18,25,79,63,-65,-68,23
1490821097907,-16,-20,-91,-82,-15,57,-19,-1,-25,9,13,28,95,62,23,0
1490821097955,-41,24,60,-17,100,97,9,-43,-68,3,49,66,-128,64,42,39
1490821098052,61,11,-56,42,32,127,127,89,-8,-11,53,56,-23,20,-62,-87
1490821098054,48,16,-20,47,127,64,66,23,52,-48,-67,62,-128,38,-44,21
1490821098102,69,11,103,105,-28,-119,-81,-9,-9,5,-81,-117,-107,85,17,56
1490821098149,-107,-36,-55,-128,25,87,-12,-49,127,49,-37,-29,-112,-6,-23,-6
1490821098150,38,-3,33,25,11,104,69,-21,-1,17,111,-117,-52,-6,-1,54
1490821098199,-21,54,86,-18,-61,127,87,26,79,2,-83,43,40,-91,-82,6
1490821098247,48,-3,-56,42,-128,32,-15,81,-79,-64,-128,-73,90,61,12,-71
1490821098296,32,37,70,33,84,-46,-115,33,-60,-80,-102,-23,3,106,35,-31
1490821098345,-103,5,-49,-54,36,22,-56,-70,46,3,82,30,-86,15,117,46
1490821098346,-5,-14,3,36,97,45,-6,-4,20,8,12,-74,-72,-1,42,-13
1490821098394,-12,11,16,-27,-48,-66,89,41,19,10,29,98,127,13,16,12
1490821098443,34,-21,-14,-12,-110,-77,11,10,-72,-27,-59,-103,-116,-128,-76,-48
1490821098492,29,11,-14,-5,-56,-102,-56,-49,-12,12,44,127,127,105,28,17
1490821098540,-12,-1,-34,-51,53,-53,-17,-3,19,2,-22,-4,37,68,17,0
1490821098589,30,-36,-59,25,60,-60,-54,-17,-39,0,-87,-75,-8,-83,-3,-18
1490821098598,-35,-29,-15,-102,-100,-44,-67,-28,20,-7,32,-42,20,88,-6,-13
1490821098637,76,6,63,127,73,-14,74,37,43,19,99,-39,-27,101,14,20
1490821098686,-10,26,70,119,69,105,-4,-21,10,-10,-93,-88,-113,-82,-22,20
1490821098735,-30,63,5,111,127,96,20,15,-3,47,90,127,-47,127,34,23
1490821098784,54,4,-20,-85,41,28,-9,-13,51,37,101,97,114,93,23,18
1490821098832,33,36,-10,15,74,-39,58,5,-11,42,58,67,-32,-65,-15,-24
1490821098833,42,-14,-7,-83,-73,71,37,-5,0,-24,-43,-114,-14,-122,-29,4
1490821098881,-67,43,-62,14,62,36,-5,-30,-57,12,73,-76,8,3,-13,8
1490821098930,-30,78,-63,-23,-6,5,-24,-21,6,63,15,21,78,30,23,-13
1490821098979,-4,-36,119,87,64,4,-13,-23,1,-53,54,79,82,44,12,4
1490821099027,-8,21,14,89,-8,25,19,-8,1,39,5,-57,45,69,42,18
1490821099029,-2,-29,9,-12,-119,-21,-13,-27,2,-33,-90,-84,-128,-72,-24,39
1490821099077,-118,-32,2,-5,6,16,-4,9,-107,66,-19,-32,-13,-30,-64,-34
1490821099125,-72,-79,76,-47,13,-4,-16,-7,40,-80,5,-30,10,78,-32,6
1490821099174,28,0,-67,-99,-21,-16,-10,11,23,20,-21,-45,-14,-73,-16,-20
1490821099222,90,34,97,44,112,74,-13,22,-65,-77,-106,-59,-128,2,37,-27
1490821099271,25,-23,73,105,42,-7,3,1,13,61,-15,9,86,58,26,11
1490821099272,-9,53,-115,-128,-113,-72,-67,-32,11,69,119,82,120,-2,-10,14
1490821099320,54,6,-45,-52,-60,-47,-17,-32,5,86,-4,-18,48,-96,-23,-27
1490821099369,57,-30,-3,-128,81,89,45,64,-16,-2,2,94,-126,-128,-51,-26
1490821099417,-21,2,-33,-52,48,15,-52,-52,17,64,32,-66,-58,-24,31,62
1490821099466,-56,-10,-89,-98,-110,-19,-28,-18,114,-33,4,-95,-51,-57,-4,18
1490821099467,-81,-85,-28,72,-37,68,-1,-41,96,-21,-89,-54,-51,-45,-33,-19
1490821099517,-45,-30,-91,-89,-60,-69,-60,-19,-12,67,20,-28,-26,99,-40,-66
1490821099565,11,-61,-95,-63,62,-34,24,3,73,25,51,38,127,-128,-42,-12
1490821099613,8,8,-47,-128,-5,89,-73,-10,-25,-30,-14,0,8,65,69,-28
1490821099662,127,26,77,-6,-128,-128,-16,49,34,-50,-91,-123,38,-76,-84,-37
1490821099709,-128,-17,-6,-12,23,-19,-4,-49,89,37,68,89,20,93,40,70
1490821099710,-18,25,-78,-74,-111,-128,10,45,0,-11,8,53,115,47,16,-4
1490821099759,46,71,8,-100,-86,-72,-35,-28,-24,-9,-42,-109,-65,-37,59,58
1490821099807,77,46,93,18,115,86,91,92,-57,16,60,-128,29,70,-28,-24
1490821099856,-26,-46,-68,-94,-128,-93,-14,-13,1,7,17,-36,-60,-92,-28,-30
1490821099905,-50,-2,-6,-75,-75,-101,-44,-65,8,14,6,98,21,85,54,55
1490821099953,95,-2,65,97,57,127,59,68,52,-11,-63,-66,-120,-128,11,-5
1490821099954,-49,36,79,-14,-15,69,-75,-68,-105,-20,22,-44,75,42,89,26
1490821100003,-61,-5,-21,-57,-22,-13,15,-112,-55,-17,-63,-59,117,-74,-82,64
1490821100051,-96,-39,29,101,71,60,8,-12,127,16,40,-12,-110,78,20,43
1490821100100,-42,30,57,85,61,-9,35,70,51,18,82,90,78,15,4,16
1490821100197,-106,14,127,93,32,107,-128,-47,-42,-40,-113,-95,-128,-128,-97,-124
1490821100198,77,106,118,70,33,90,23,38,-70,-109,-114,-115,-44,106,-9,-41
1490821100198,48,-28,-89,-87,-85,-103,-22,-9,-42,1,1,-20,-27,14,-34,-56
1490821100248,-47,-65,-79,-12,67,64,38,-16,79,5,76,111,123,-82,7,1
1490821100296,0,6,-33,-44,-128,-119,-60,14,23,39,53,102,127,127,4,21
1490821100344,28,14,127,124,22,-79,3,-38,73,48,-26,-87,-35,17,31,67
1490821100394,84,80,127,65,67,123,-63,93,-69,-95,-68,-91,-54,-70,-104,-80
1490821100395,74,42,33,-68,-95,-105,70,46,-28,29,3,60,57,93,19,-88
1490821100441,-66,-8,7,-18,-128,29,16,43,56,-8,-38,-111,-63,-16,8,-12
1490821100490,86,-38,-120,127,-89,-71,-57,14,-16,-2,-61,-128,-68,-86,9,16
1490821100539,27,-35,-81,-80,-53,34,-42,2,-35,21,-20,-104,-42,-96,-128,-70
1490821100588,-39,29,16,117,44,-72,37,-17,45,-44,-34,-86,108,6,-19,31
1490821100635,-15,57,127,-83,-53,127,41,26,-25,-35,-81,-3,-10,84,3,-58
1490821100636,-6,-2,63,127,126,115,63,1,-11,-38,-90,-128,-80,-9,-22,-12
1490821100686,-44,-3,-21,76,40,104,-19,-95,34,15,125,53,-53,124,55,66
1490821100734,-97,-25,-106,-112,-62,-63,-23,-35,2,26,118,114,124,120,66,12
1490821100784,-56,-28,-128,-6,-42,9,-17,-48,1,13,-55,-15,51,77,3,6
1490821100831,-4,38,83,112,107,10,33,14,2,-8,45,24,51,75,64,37
1490821100832,20,-8,-30,-128,-35,-22,-9,-4,-29,-5,1,58,45,-9,-2,1
1490821100880,24,75,48,72,84,127,41,7,-3,-65,27,-126,-128,-128,-80,-65
1490821100929,20,42,125,-64,13,30,-23,0,12,-23,-5,-89,-13,40,23,-9
1490821100977,-4,-8,-89,96,88,2,2,-9,-17,11,19,127,56,53,-18,1
1490821101026,22,-13,114,126,117,95,88,58,-14,-17,-41,-76,-97,-73,-22,-9
1490821101074,7,-69,24,-10,-51,-19,-41,-7,97,-54,42,38,21,9,41,16
1490821101077,10,-76,0,20,18,-18,-15,-2,-8,47,-18,-16,35,10,2,-18
1490821101124,-14,-117,15,53,-33,-78,7,29,-34,-115,-35,32,-23,-2,12,-5
1490821101174,-17,-105,54,84,23,18,-18,-11,-7,-90,-52,-105,17,9,46,-1
1490821101222,-79,-34,0,14,-12,-46,-9,-16,77,44,50,-68,8,-40,-21,45
1490821101270,24,-41,-70,-22,17,59,-8,6,-36,-49,97,112,59,-79,-29,-11
1490821101318,-69,-100,-27,-19,-58,-52,10,-19,-10,-93,-2,-17,12,67,18,19
1490821101319,-12,72,-25,-19,-17,5,5,-11,54,-40,-21,39,20,-53,5,29
1490821101367,-19,116,-23,-44,-81,-60,-25,2,-128,60,13,-8,18,74,10,-22
1490821101416,-34,97,31,-12,-5,12,-1,37,-12,127,-6,-10,7,-13,-6,-18
1490821101465,35,-60,27,19,62,47,21,18,33,56,45,10,10,-31,17,25
1490821101513,62,-116,25,-21,-38,27,30,29,30,-94,-8,5,-43,-106,-4,-16
1490821101514,-102,117,-43,-93,46,46,18,10,-75,58,-21,-48,-8,66,14,-18
1490821101563,63,9,-14,45,-10,-53,32,-8,127,-2,30,-50,-10,31,-15,31
1490821101612,73,3,119,111,-8,97,-6,16,58,-3,-17,-85,-80,104,67,-10
1490821101660,-91,2,82,40,75,96,-19,-16,69,24,-29,121,-87,-28,-4,19
1490821101757,36,-25,-38,-45,22,84,24,42,-64,-63,-12,26,-128,-128,-47,-16
1490821101759,21,-23,-80,58,-107,-128,-66,3,-81,29,-57,-56,94,18,-19,-80
1490821101762,-32,-8,-19,-128,-60,32,42,28,-25,-50,101,127,-60,-45,7,-23
1490821101807,37,47,79,127,117,127,70,-5,13,5,15,32,-31,-12,0,-7
1490821101855,-75,-24,-90,-115,-85,-128,-53,-52,36,-8,-56,11,18,89,35,42
1490821101904,-19,13,69,114,115,8,37,24,-40,-48,-94,-128,-88,-128,-51,-78
1490821101952,6,-12,47,15,-24,98,14,4,114,0,-22,58,-33,-3,-27,-27
1490821102049,-41,-12,-124,-128,-116,53,31,-1,76,47,62,-2,19,29,-38,19
1490821102050,84,-26,-69,-128,-76,-128,28,-63,58,-50,-89,-96,-114,56,-2,-17
1490821102098,-40,-48,8,108,88,40,91,36,4,-22,-73,-89,-60,37,-47,39
1490821102148,-61,-30,-128,-128,-71,-7,-47,0,-76,7,25,37,88,-45,-33,-33
1490821102151,-54,-54,-56,70,53,-35,25,-3,47,33,75,-84,39,46,7,19
1490821102196,127,46,100,127,-25,-12,-21,26,24,2,-12,-28,63,99,-4,36
1490821102197,-85,12,31,-39,-62,79,-7,-45,25,46,39,42,60,-104,4,68
1490821102245,46,-44,-128,-128,-20,-34,0,-10,43,-23,-128,110,-20,15,-2,30
1490821102294,29,9,127,127,127,127,74,57,-41,-22,-38,-128,-128,-114,-66,-9
1490821102342,49,-12,0,-36,1,-45,-49,-7,-21,42,104,71,97,127,62,-12
1490821102391,-99,-31,-21,-85,-128,58,-15,-120,127,21,55,48,60,127,38,82
1490821102439,-29,3,-51,-114,70,-10,-6,2,54,13,7,-55,-128,24,4,-25
1490821102441,-63,-10,49,114,81,127,36,20,11,28,59,-56,-128,-77,-6,32
1490821102490,-52,3,-1,-65,-121,30,-29,-28,84,-20,9,43,96,125,24,8
1490821102538,-34,-45,5,127,123,-7,-9,-54,32,15,21,91,-33,61,14,85
1490821102588,112,42,120,95,92,123,-9,62,-15,-16,44,-64,-89,-86,-64,-36
1490821102635,69,2,-12,-108,-73,-24,24,19,45,54,19,77,38,47,46,59
1490821102636,-128,14,-12,-96,42,-56,-14,-5,-6,-4,23,38,8,127,7,-38
1490821102694,-77,13,16,59,35,-98,-74,-3,-92,-45,20,24,93,97,117,-44
1490821102733,-13,-21,-59,-85,64,2,61,19,5,55,52,65,-128,-55,-46,-11
1490821102829,-128,-20,27,36,88,-42,-69,-115,51,16,14,-67,-51,16,22,82
1490821102832,50,36,45,92,40,-24,-53,12,71,36,110,46,18,127,38,-18
1490821102881,-26,-37,-108,-67,-84,97,7,33,-83,1,-63,-4,-128,-38,10,-27
1490821102883,-104,-10,-72,-80,-125,12,-73,-98,47,-100,-107,-15,66,88,35,45
1490821102927,-12,9,43,46,-64,1,-14,13,-55,-47,-128,-128,-121,28,-37,-67
1490821102976,-21,3,-30,24,127,11,-37,-54,-123,-6,-8,127,127,-12,7,2
1490821103025,13,2,-77,-79,39,-95,23,1,48,-36,-43,-128,13,-3,-16,-16
1490821103075,20,30,127,125,44,127,63,17,37,0,16,127,-106,39,17,-3
1490821103123,36,14,51,58,-3,96,8,52,-17,6,82,65,111,113,25,-4
1490821103126,-21,-53,-117,-107,-110,-52,-23,-16,-13,12,33,-61,-86,-21,38,14
1490821103171,-44,-24,34,3,100,121,-5,-10,7,22,95,-119,-77,-110,11,3
1490821103220,12,36,124,-60,-66,62,18,5,27,36,127,127,127,127,34,28
1490821103269,-1,-2,-70,-88,-105,-128,-45,-18,5,1,-73,-73,-80,22,-19,-13
1490821103317,-55,6,22,55,56,43,45,17,-55,-2,-38,33,10,-124,-42,-7
1490821103318,14,40,85,122,125,119,98,43,-50,-53,-92,-46,-94,-52,-82,-9
1490821103366,92,-24,41,91,14,-22,-20,10,80,-9,-55,-89,-79,-51,-1,-34
1490821103415,-95,-48,-109,-76,40,-55,-28,10,-68,-94,-40,-80,-100,-16,6,-18
1490821103464,36,39,-77,103,44,20,59,25,-15,-13,67,-73,-48,-26,-31,2
1490821103513,-6,62,92,15,-20,-8,14,6,1,127,49,-54,-6,-33,-2,11
1490821103561,5,43,3,-62,-25,-28,-45,-14,-11,31,14,57,56,-6,16,-1
1490821103563,39,1,33,69,59,26,7,-1,-41,95,-36,-38,-17,-26,-47,-19
1490821103610,-81,-118,59,25,6,9,13,-12,42,-128,-29,35,27,11,4,-2
1490821103659,43,-7,-20,-41,-48,30,-1,24,-1,-21,32,5,4,117,0,-17
1490821103707,-15,3,6,-17,6,-23,-10,-14,-66,-8,15,25,63,-9,39,34
1490821103756,-1,-73,13,-31,-109,-46,28,13,-67,19,31,16,-17,31,8,4
1490821103804,-87,-128,-3,2,3,28,-9,-13,-34,-128,-36,-57,-18,30,2,-13
1490821103806,10,111,-23,29,43,99,2,17,53,127,25,-45,33,-38,-39,-32
1490821103854,-5,-108,-42,4,20,-56,8,10,-57,86,36,60,71,69,2,-10
1490821103903,108,-48,2,42,69,-24,-18,8,108,-76,-20,-9,-1,-54,-16,8
1490821103951,47,3,50,103,110,28,21,74,-12,-27,-93,-128,-16,-17,12,7
1490821103999,-101,-98,-66,-65,2,59,32,-40,-82,-9,84,125,127,102,-9,-14
1490821104001,126,70,47,13,-105,-3,9,13,86,18,31,87,65,-39,20,32
1490821104049,101,38,40,127,31,60,67,95,127,-21,-53,-19,-38,-63,-58,21
1490821104098,-73,-6,-22,-109,-123,63,-26,-1,-58,41,105,102,127,93,33,-1
1490821104146,6,-2,-48,57,78,-56,-82,-10,-54,-24,98,87,82,127,92,35
1490821104195,10,-28,-44,-11,-127,-128,27,-31,71,-33,19,-118,81,24,-74,-4
1490821104243,26,-21,-101,-94,105,-77,-44,-65,-68,-10,-103,92,-128,19,-4,-26
1490821104246,31,-47,-88,-91,-94,-27,11,37,-9,24,8,21,23,-47,-33,-46
1490821104293,-69,10,8,26,-60,111,29,38,12,-12,-81,-108,-87,-51,-30,-18
1490821104344,-70,-41,18,41,120,93,41,-48,-9,24,-40,118,53,-82,-98,-62
1490821104391,-34,-3,-3,-119,4,-34,-31,-6,-5,15,88,79,27,127,75,44
1490821104487,-14,-25,-13,-72,-113,15,-27,-69,19,-47,-44,-55,-80,-26,-5,38
1490821104488,-92,1,-93,-128,-128,-128,-91,6,-74,4,63,52,82,124,23,-27
1490821104488,100,17,65,15,96,52,27,18,-64,-14,-104,-104,-32,21,-7,-5
1490821104536,82,33,70,92,104,54,-7,-5,43,78,60,75,-97,11,11,15
1490821104633,109,-7,-13,-7,-78,-113,24,66,70,40,30,-128,-71,9,-58,-10
1490821104634,-65,16,-57,127,107,-73,-46,-26,-128,-55,-67,-128,34,72,95,-36
1490821104682,101,7,88,-79,-14,127,114,84,-26,-9,-52,93,-58,-32,-73,-68
1490821104683,-92,-56,44,73,-68,127,29,-42,52,29,-48,-58,-123,-128,0,26
1490821104731,-88,-68,-128,-128,-50,-51,-69,-58,110,62,108,42,-12,116,111,38
1490821104780,59,-4,-57,-112,-128,-128,-16,51,-48,0,43,100,112,27,-47,-58
1490821104829,-23,-10,-53,-121,-96,-70,-18,3,-68,-62,0,4,95,52,81,-57
1490821104879,85,7,-62,-126,-70,-12,-8,37,-50,-58,-74,-43,39,-114,-49,-75
1490821104926,45,-6,98,24,114,127,-10,-22,-39,-2,-64,-111,-43,-38,77,-26
1490821104928,34,35,2,-16,61,99,56,37,-126,-51,59,102,-110,-64,-92,-62
1490821104975,15,29,-51,-39,-114,85,109,-15,87,34,37,127,-38,55,-23,17
1490821105024,32,21,-93,-128,-128,-128,-27,27,30,-13,-81,-75,22,81,-33,53
1490821105073,-48,-39,-99,-128,-128,-94,-28,-1,-32,-43,-72,-65,8,-14,61,-78
1490821105121,-2,3,-50,-94,31,-19,-36,-12,4,1,91,91,127,127,33,-31
1490821105122,30,-18,-78,11,-128,-65,20,59,-47,29,50,71,90,105,10,-20
1490821105170,38,3,24,7,-68,72,32,25,60,9,-69,-19,-123,-128,-21,15
1490821105219,-53,-17,-46,-54,-13,59,-32,-61,6,13,-13,25,-101,32,39,33
1490821105272,85,-4,-33,-55,-25,-50,-43,2,-25,-26,-118,-128,-27,94,-10,-27
1490821105316,-50,35,123,127,127,127,34,14,-52,22,127,126,96,108,28,8
1490821105364,4,14,101,-54,-33,-82,-16,-34,-13,21,127,-5,27,29,-19,9
1490821105366,-33,-14,-104,6,33,127,20,-36,-24,0,-63,-100,-21,79,23,-2
1490821105414,-87,-52,-76,-128,-15,-121,-40,-54,72,6,-46,-4,27,108,8,23
1490821105462,27,33,38,54,127,127,63,12,-4,2,24,79,-2,-81,-1,14
1490821105511,-21,-30,-91,-73,21,40,-21,8,53,3,53,-6,-47,-51,-26,2
1490821105560,39,66,91,16,-98,-94,-34,44,-87,-52,-24,27,32,-1,-17,-22
1490821105608,18,28,-24,-33,-101,-37,-53,-3,9,76,-35,-78,-50,-32,3,-3
1490821105610,-70,-29,51,36,-17,-37,16,-36,106,2,63,-35,35,82,7,99
1490821105658,-38,22,-15,-62,-20,-26,-4,-26,64,-20,4,39,-3,-35,-36,16
1490821105707,15,-29,-43,-1,29,-8,1,9,-27,-8,72,81,46,25,9,-18
1490821105755,-14,-30,10,13,-29,-16,44,22,-1,33,25,9,40,78,-2,6
1490821105803,-51,26,-16,-13,-12,-9,8,3,-25,-1,14,27,48,28,-10,-4
1490821105804,-15,2,19,-13,28,19,9,0,-9,8,25,37,-9,-59,-2,-4
1490821105853,-39,11,-10,-26,65,65,25,4,-7,-18,2,15,-25,26,-20,-14
1490821105901,17,81,-1,43,-55,35,3,20,-27,11,49,73,-3,-3,-3,-47
1490821105950,105,-119,-7,37,41,29,34,45,-14,-42,5,58,57,-24,35,0
1490821105999,37,-50,-24,-34,-47,32,-16,-38,-48,22,41,62,75,127,16,-23
1490821106047,0,22,29,75,-47,32,50,-12,95,-11,-5,-47,-15,-68,-12,32
1490821106096,110,-30,41,33,-21,65,1,-2,43,44,51,113,95,66,44,29
1490821106097,-46,-16,28,26,64,-38,-80,-15,-4,-19,-33,-16,-37,-41,36,-4
1490821106145,73,14,-23,-83,-62,-128,35,3,-86,-32,45,-99,-123,119,-22,-2
1490821106194,-12,18,-89,-125,2,-1,-29,45,-18,14,47,30,65,53,21,17
1490821106243,-85,-88,-87,-52,-22,127,-2,-73,71,39,12,-74,-84,-83,2,25
1490821106291,-112,-65,-82,-44,-53,-7,3,-22,-128,9,-78,-128,-128,-128,-36,-50
1490821106292,-85,17,15,34,78,12,60,-72,52,26,127,127,127,120,-34,46
1490821106340,116,48,85,16,44,27,-74,-110,-21,-55,-85,-92,4,112,65,77
1490821106391,-16,-31,-18,103,62,51,34,8,-20,17,-47,5,-103,-128,-12,-33
1490821106438,-48,26,17,-19,104,-16,-83,-31,-35,31,-20,96,-106,92,78,8
1490821106486,127,-3,-55,-68,-45,55,26,30,-31,-20,10,8,-128,-80,-24,-35
1490821106487,-110,-27,29,127,127,-27,-32,26,8,-15,-29,-74,-66,-19,61,-70
1490821106535,-18,48,49,52,22,127,46,22,52,16,-28,22,16,75,41,-1
1490821106584,54,24,80,80,101,85,3,41,-56,-80,-88,-105,-128,10,-12,-41
1490821106635,9,20,-4,41,-17,127,-39,-77,17,-19,-81,-98,5,-55,-47,64
1490821106681,32,-30,-6,79,-52,-41,-12,34,-12,-1,20,-48,117,-84,-52,-13
1490821106730,11,-5,-67,-71,-92,-103,-64,-26,5,5,60,90,61,124,76,17
1490821106731,-8,25,10,-58,-22,-84,-17,15,57,15,-18,16,-128,11,-27,0
1490821106827,50,19,67,18,110,31,-41,-83,-34,-10,-60,-122,-66,86,95,-36
1490821106828,-78,-12,-11,-8,-110,-117,12,-21,-15,-23,-75,-86,127,-29,-58,-5
1490821106877,80,0,17,123,4,127,32,103,28,-11,-3,-76,-84,-107,-20,-9
1490821106925,-13,-12,33,86,-30,-66,74,-27,-67,7,39,121,118,-19,38,-14
1490821106973,12,26,-14,-19,35,-128,-96,-35,-26,-9,61,54,33,110,66,16
1490821106974,53,6,-43,-60,32,-24,98,53,114,-25,77,104,127,0,-58,40
1490821107023,52,2,-15,44,106,68,-20,-23,4,19,71,55,126,126,89,56
1490821107072,12,36,110,-46,21,91,-59,52,-60,-35,-81,-53,-102,20,-62,-126
1490821107123,56,-18,-36,-1,-72,56,-58,-90,-18,-59,-101,-74,-70,127,79,-35
1490821107168,-63,-32,17,96,69,65,78,30,19,35,46,58,-47,-41,-1,-41
1490821107169,-69,11,37,-128,-66,-112,-2,-11,45,11,-16,22,15,-45,-26,-41
1490821107218,-107,-40,-33,-48,-100,-2,36,-38,29,28,68,62,2,37,53,104
1490821107266,37,42,48,48,127,60,74,46,-10,3,-11,-82,-90,-103,-103,-39
1490821107315,-24,-4,27,-37,-76,-8,37,20,53,23,93,127,125,-31,12,22
1490821107364,20,0,40,55,77,104,23,28,-48,-42,-101,72,-128,-26,-22,-40
1490821107412,-53,43,-41,0,60,-68,21,-19,25,-6,72,71,95,77,61,59
1490821107413,-32,-23,-79,-128,-128,24,-10,-54,-42,-11,41,2,-25,-56,1,-18
1490821107461,-1,-17,27,21,13,81,-21,-29,20,16,-32,-3,49,110,71,16
1490821107511,42,-16,-117,-128,-79,-128,-62,-38,-49,-8,-5,17,-5,23,-4,0
1490821107559,3,-9,5,-9,-10,-39,6,25,-5,40,30,-77,-22,-68,-15,-19
1490821107607,-45,-2,35,31,6,-71,-15,14,-43,9,62,101,-29,-43,16,-15
1490821107655,-36,35,-102,-89,-10,-19,-28,-42,-17,23,-22,-18,41,-11,2,-10
1490821107657,-46,15,5,19,127,78,-20,-15,-13,-22,-69,-118,-102,-59,-42,-12
1490821107705,-80,-32,-21,23,-66,43,33,-32,-22,49,69,-47,13,16,-12,8
1490821107754,44,8,60,28,16,-8,60,39,17,-9,9,85,70,34,5,-1
1490821107802,55,67,49,48,61,101,17,-5,-16,31,29,8,4,-68,-62,-12
1490821107852,13,-117,-96,-65,-34,27,8,-7,-4,-40,-9,-56,-111,-91,12,17
1490821107854,-25,-45,-11,-6,4,-21,19,-19,19,-27,-28,-37,-20,65,-17,-9
1490821107901,14,-3,24,86,72,8,4,10,69,38,57,88,103,27,59,22
1490821107950,-33,16,29,-38,-34,-36,16,-12,39,115,-41,-23,-118,-85,-13,-19
1490821107998,78,-110,19,-12,-46,-57,25,52,70,-128,26,19,36,11,-21,-8
1490821108047,68,53,-17,-65,-83,-104,-2,15,-11,-29,33,40,87,58,10,27
1490821108095,-16,43,66,23,101,127,30,-5,-1,16,33,64,74,-110,1,6
1490821108096,76,30,-6,-61,21,86,-1,10,37,88,93,93,70,127,45,26
1490821108144,-11,24,-4,-36,-17,45,0,7,-31,-30,-69,-92,33,26,26,-15
1490821108192,-34,-5,-55,-123,-28,12,-11,-13,-32,-59,6,8,-83,-38,-48,-27
1490821108243,52,16,119,127,127,100,20,14,46,-5,-80,-35,99,70,2,-22
1490821108292,68,33,-25,-85,-119,-106,-27,21,35,39,-30,36,84,-59,30,-19
1490821108295,-70,-6,35,127,2,-98,24,-12,87,30,17,-100,-105,-85,-11,29
1490821108340,73,23,-21,12,-51,82,26,43,-35,27,25,16,-37,8,5,-48
1490821108389,99,30,114,91,109,92,-19,-16,78,30,2,68,34,51,97,39
1490821108437,-7,21,63,-25,-10,81,-22,4,-118,-32,-110,-128,-102,-40,-21,-1
1490821108486,-128,17,80,-46,76,-60,81,21,-77,-43,6,-78,67,-21,-79,-54
1490821108533,-10,-20,41,-19,10,64,58,45,-45,41,45,-5,45,-52,-78,-48
1490821108534,-46,7,-48,-65,-50,-128,2,-73,-46,-3,13,-52,-73,-52,-15,31
1490821108583,-126,-80,-128,-119,-64,-42,-71,-41,-58,17,17,-29,0,127,18,12
1490821108632,38,-36,-33,-28,-76,66,78,2,96,-13,-47,52,20,-65,-38,26
1490821108680,117,12,13,14,98,21,13,8,47,-18,-9,42,-73,14,48,69
1490821108732,36,45,70,106,-40,-85,-105,-77,-14,-14,57,2,23,127,78,32
1490821108777,43,-18,-78,-27,-21,-86,-63,64,66,21,-54,-63,-93,-19,15,18
1490821108779,-97,3,-16,-110,-36,65,-26,-10,-65,-83,-99,-43,-20,8,59,-87
1490821108826,79,28,51,117,74,-128,79,112,-52,18,6,3,23,19,-54,-54
1490821108875,19,-11,37,12,79,45,-77,8,79,31,96,76,127,127,102,43
1490821108924,-51,-21,-10,-62,-26,9,-46,-11,15,62,-15,86,-13,-47,-37,55
1490821108972,-13,14,7,86,46,-35,-44,-60,2,21,127,-8,-33,-60,-17,-27
1490821108974,-20,-3,-68,3,2,-32,-12,-59,-25,-7,7,123,-35,63,15,-16
1490821109022,-31,-1,30,-55,-128,62,9,36,-128,-48,-13,62,99,71,12,-77
1490821109072,86,-60,-102,-112,1,1,45,4,-27,31,39,-14,-128,-128,-128,-12
1490821109118,76,-7,29,-86,-87,-63,46,49,-3,-16,-98,-97,95,2,-50,-44
1490821109215,0,3,-103,-61,-97,-107,-37,-9,-77,-52,-12,-128,-33,28,-84,-72
1490821109216,41,-1,-35,98,15,23,-5,78,-64,-4,9,5,71,89,-6,9
1490821109217,66,-23,-27,-62,-120,76,30,78,-11,-5,-31,74,35,97,18,-1
1490821109265,-118,4,61,4,127,88,70,-61,42,27,-31,-93,-128,-128,-82,52
1490821109314,27,-4,-39,-38,-92,71,-1,1,-59,-72,-128,-128,-49,-106,-23,-32
1490821109363,-13,43,30,-61,-110,-128,-90,6,-4,14,72,37,67,104,66,29
1490821109411,27,-12,-45,46,23,-6,-5,-11,1,8,77,34,114,35,15,32
1490821109459,55,11,9,3,-113,-112,-67,9,64,35,127,32,-103,127,-31,19
1490821109460,7,-10,16,72,-13,1,27,8,-45,3,38,40,13,-96,3,3
1490821109509,-33,-14,-77,46,1,127,-1,18,-68,-16,-68,10,-23,70,-9,-32
1490821109557,94,-13,-55,59,-114,-12,5,1,52,-1,-128,-128,-76,-87,-29,6
1490821109606,-19,6,48,91,-55,117,2,7,-23,-21,-84,-98,66,-92,16,-11
1490821109654,49,43,48,44,27,42,-3,4,37,2,-47,-57,-109,-49,-36,31
1490821109655,-30,21,-11,-92,-108,-48,8,-27,-48,-29,41,60,55,-8,-43,8
1490821109704,73,-3,16,-15,-30,-29,-6,32,89,1,16,-5,14,-29,36,-4
1490821109753,-3,38,-128,-128,-128,-128,-87,-23,82,40,100,100,51,19,71,-11
1490821109803,-93,12,81,73,53,12,24,-13,11,4,-128,-128,-87,-47,-53,20
1490821109899,25,53,24,16,59,50,6,5,-14,-31,-38,-45,-69,-60,-79,-30
1490821109901,-20,-43,12,105,-28,-33,4,-13,37,-29,16,87,97,79,5,12
1490821109903,36,-6,-46,53,68,72,33,-20,-22,19,53,87,91,68,-42,-26
1490821109948,19,-3,39,77,67,-64,34,22,-39,-13,16,22,20,34,-15,-35
1490821109996,-6,-15,-93,-77,-54,-53,-28,11,-48,-2,13,-32,-69,64,37,11
1490821110045,-68,-1,-41,-87,-30,-4,13,-17,104,44,27,-1,-17,12,-9,42
1490821110094,-128,-49,67,39,100,127,15,2,-88,-59,-98,-68,-76,-128,-33,-36
1490821110142,102,-24,-26,-49,-128,-100,-54,-25,60,-14,-6,-23,-94,-81,39,-10
1490821110143,-23,96,-7,-52,-40,-28,-20,8,-42,69,19,94,53,-37,-18,-20
1490821110192,20,-26,-17,54,-31,73,9,19,-34,-3,74,-30,-38,-55,10,24
1490821110240,24,24,75,57,-68,-26,14,43,-21,-9,78,127,17,62,-40,-2
1490821110289,-28,-40,-81,-104,-21,-101,-92,-53,-60,-14,-51,-43,-52,25,9,-33
1490821110337,-3,33,55,77,111,64,6,27,4,25,124,127,124,127,5,19
1490821110339,0,-16,-80,-75,53,108,-17,-23,-47,-5,-13,-74,-82,-8,-19,-26
1490821110386,23,-6,-49,13,82,91,23,7,5,-14,-22,112,-96,-36,1,31
1490821110435,82,14,74,59,38,-57,69,63,-5,33,-25,-88,19,-83,-79,-4
1490821110484,127,9,-45,-63,62,71,32,37,93,15,-37,-10,56,15,17,-29
1490821110532,-85,-2,118,127,83,58,59,-1,-107,-39,-54,-120,-47,127,70,38
1490821110580,-17,72,21,72,26,12,14,37,-30,37,93,91,-7,74,-18,8
1490821110582,-56,-29,-107,-123,-109,-95,33,-18,5,38,97,70,6,-64,-105,-52
1490821110630,-17,-1,37,-40,1,-27,-53,56,-31,4,70,111,35,126,107,-60
1490821110679,15,-25,11,61,108,127,-21,-32,26,1,-9,54,-92,78,13,38
1490821110727,34,27,2,84,106,-9,-10,70,-55,-47,-76,-128,76,56,68,-22
1490821110775,31,-3,20,110,-96,-20,-115,-39,-45,-49,-128,-117,-13,-115,-43,-39
1490821110776,30,1,8,-94,118,83,4,-26,-77,-30,4,118,-81,-124,2,-56
1490821110825,77,23,-2,-5,47,-128,-59,16,-128,-17,19,52,47,7,29,-32
1490821110873,35,-13,6,122,69,-46,-97,-32,54,6,33,-63,112,31,81,20
1490821110923,82,-21,34,-63,52,52,95,37,-30,95,44,127,127,-70,-12,-24
1490821110973,-19,-4,-10,68,-76,39,-45,-51,-22,4,-41,-56,77,20,40,11
1490821111020,32,14,18,-86,-79,-63,73,60,-3,-15,18,124,127,114,-5,-20
1490821111068,-82,7,-5,36,-80,38,9,15,92,13,29,34,-31,58,-7,38
1490821111069,-127,-3,14,127,3,127,95,23,-76,-25,-92,93,-52,-56,-48,-54
1490821111117,99,-3,57,80,-8,-92,14,54,78,3,73,127,127,-30,14,71
1490821111166,-13,15,43,4,5,57,5,-25,-1,-6,54,25,47,38,-37,9
1490821111215,-34,-15,-35,-2,7,-90,-52,-24,-21,8,9,61,91,127,72,27
1490821111263,8,13,-57,-128,-80,127,32,-16,9,24,-26,21,2,-73,-68,-30
1490821111264,10,13,65,101,107,79,22,40,11,7,-10,-113,-110,-42,38,48
1490821111313,-44,2,62,123,127,-49,-11,-33,-29,-8,-40,-3,52,75,-63,-37
1490821111362,8,14,17,-4,-119,4,21,44,-39,-53,-105,-128,-36,-60,-68,-58
1490821111410,35,48,82,62,127,-1,-17,31,40,9,90,51,-27,23,-19,32
1490821111458,16,14,80,-118,51,118,-84,-10,-11,-22,-104,-81,-100,58,56,24
1490821111459,-44,-14,-76,-54,-95,49,43,-49,-32,-32,-85,-17,-110,-120,-50,-44
1490821111507,33,18,40,-86,-121,64,20,71,-41,-25,-45,127,100,-11,-13,-32
1490821111556,4,3,44,43,82,64,29,-4,0,1,0,14,-20,-60,-38,-5
1490821111605,-7,-31,-40,-19,-64,-111,-45,-18,-17,7,32,100,24,100,-16,-43
1490821111654,-21,-7,67,6,-107,89,-24,-10,42,2,76,-20,107,90,125,57
1490821111702,-19,-14,-81,-72,-6,62,-23,-13,5,23,24,-40,-41,52,-2,-19
1490821111703,-22,1,-20,-13,104,-28,0,-10,-11,17,-2,60,37,64,16,-1
