1490228186907,3,36,-53,-78,11,-13,3,-26,-30,-37,18,-31,-9,29,6,-8
1490228186955,23,3,7,13,-11,-4,5,7,-19,4,-19,-29,0,-2,10,0
1490228186957,13,1,17,-5,-3,13,2,5,20,-10,-6,-1,0,13,-6,-6
1490228187005,1,-3,-22,-19,-7,-18,-5,4,0,7,12,7,-2,-9,-17,-16
1490228187053,1,-6,1,11,7,6,11,5,-9,4,10,22,8,-9,6,6
1490228187102,-5,-2,-6,0,12,10,-7,-13,3,-5,-24,-8,-17,-31,-3,-5
1490228187151,44,19,16,10,9,0,2,17,14,6,10,11,13,17,17,5
1490228187199,24,4,3,-29,-4,-3,-11,8,54,20,19,5,-5,-19,-21,-7
1490228187201,16,1,3,16,4,22,-7,8,-21,2,18,28,10,16,7,-1
1490228187248,-45,-9,26,9,-9,-13,-17,-10,62,37,19,4,-4,-6,34,6
1490228187297,62,-53,-49,33,-2,-6,14,-3,-41,1,67,47,21,37,4,-26
1490228187346,45,6,-84,-42,4,11,29,9,19,-37,-61,-108,-25,-10,-13,30
1490228187394,61,-7,-80,-37,7,19,39,-18,-42,54,27,-27,-21,-6,-10,1
1490228187395,69,71,-50,-7,-8,5,-15,26,-74,-102,-87,-10,4,-46,-5,-33
1490228187443,18,-4,-2,-79,9,28,-6,-3,-1,-11,45,103,8,-23,-76,-12
1490228187492,-18,86,99,79,24,11,19,-11,39,-69,-125,10,26,10,-84,-13
1490228187541,33,12,84,95,20,-6,-1,27,-38,48,-96,-128,-61,-29,-52,-26
1490228187590,127,55,5,-121,-33,-37,77,-21,12,-114,-100,-18,-50,6,32,59
1490228187637,-108,-48,47,92,56,-18,28,-19,-6,48,-26,-107,12,5,-50,30
1490228187639,-75,-47,93,76,30,13,-44,-23,125,63,-82,32,3,3,54,2
1490228187687,-61,-4,-128,-6,-11,-5,-4,-48,59,-73,88,35,7,40,-7,3
1490228187736,-74,23,86,1,-23,-19,13,-22,123,8,-89,-104,-20,4,56,78
1490228187785,101,101,72,77,72,-27,47,40,21,-55,-52,-123,-45,-47,-32,-71
1490228187833,69,-20,-128,-78,-61,-2,-26,-32,10,24,108,-32,54,30,-3,-4
1490228187836,-48,-16,-39,-128,-5,-4,-38,25,12,-40,-113,127,10,-9,-13,54
1490228187882,-20,54,51,-77,-47,-13,-23,-35,79,2,85,18,54,21,16,2
1490228187931,0,24,70,19,2,-35,-37,30,76,73,-21,-12,16,34,106,-6
1490228187980,-24,68,117,70,25,-1,-23,-101,79,31,-35,60,6,9,-53,-22
1490228188028,9,-40,-128,-21,-71,7,12,-17,-84,-52,-47,-128,12,-34,-1,-14
1490228188076,113,75,60,79,46,37,63,95,-20,44,51,92,36,24,23,73
1490228188078,-16,-45,24,-128,1,-2,14,-48,104,76,127,127,-28,10,49,30
1490228188126,-90,30,-81,-42,-58,-26,-28,-63,56,48,-44,-128,-30,7,-84,-5
1490228188175,-68,-111,69,-53,-9,21,-44,-5,-120,-8,-90,117,25,-16,4,-25
1490228188223,-61,41,-112,-92,-74,2,26,-60,9,-19,49,45,118,36,27,77
1490228188272,-59,-112,-77,-128,-42,-23,22,4,-1,86,15,66,-3,-29,-27,7
1490228188320,18,52,-10,109,27,0,-23,-37,56,54,64,2,-30,57,14,14
1490228188321,1,-4,-35,-86,6,-6,-50,-32,107,70,75,28,-42,-7,9,6
1490228188370,-9,15,-28,6,37,6,2,-6,41,33,4,83,5,-10,8,10
1490228188418,30,34,-43,-12,26,10,0,10,-31,-63,-89,1,-35,6,-12,-6
1490228188467,-5,-25,19,-92,-66,-43,-8,-14,11,6,17,-23,-4,-3,-48,-11
1490228188515,16,65,20,-16,15,27,-21,4,7,-34,11,10,-6,-4,39,-3
1490228188517,46,51,107,127,60,10,11,26,-31,-58,-36,18,49,43,18,-12
1490228188564,5,15,112,117,-1,-50,-23,-4,-22,15,-32,-128,-48,-8,4,1
1490228188613,-31,-58,-5,-43,-35,8,-6,-17,29,71,127,80,-17,-10,-3,12
1490228188662,22,-57,-114,-87,-12,28,23,33,-102,-97,-128,-67,-93,7,9,-36
1490228188711,37,40,13,126,12,-14,38,14,-18,-35,-87,-42,72,69,0,11
1490228188759,0,25,1,-25,15,-23,-37,-33,-41,-24,-40,-60,-61,-32,-52,-13
1490228188760,-1,-23,-32,28,67,67,16,11,46,-22,-35,-55,52,1,-10,2
1490228188808,12,7,2,11,-32,-40,-35,14,-12,-21,-45,-38,87,28,70,27
1490228188857,12,3,3,-17,-28,32,-13,-4,25,-6,38,43,-55,72,7,17
1490228188906,-23,-12,-65,-83,59,-90,1,-12,19,7,44,74,-51,-18,-79,-2
1490228188955,1,-6,-14,-14,84,-2,-22,2,-14,-18,5,3,-64,6,22,-6
1490228189002,-28,-10,12,28,16,32,-62,-35,-2,-7,28,58,-60,80,54,4
1490228189005,-4,10,21,27,-26,-4,10,-8,-2,-5,-4,-18,-25,28,18,4
1490228189052,29,19,-3,32,-5,89,4,2,6,15,7,10,34,54,-13,8
1490228189101,30,16,25,4,-18,-51,19,-48,-23,6,1,13,-18,-56,-11,-16
1490228189149,-44,28,-20,5,23,91,-28,-26,-11,-63,-10,-25,10,16,66,-13
1490228189198,96,41,59,53,20,-31,20,52,-47,13,-66,-20,-21,-45,-6,-20
1490228189199,109,-54,-74,37,25,127,-1,-14,-77,-5,77,-21,-8,-25,-29,-9
1490228189247,-116,-65,-73,-53,-35,127,40,-7,40,-31,-39,-12,-35,79,-55,-19
1490228189296,100,-9,-46,17,12,-47,-42,-3,-4,-21,-49,-110,-70,-3,24,38
1490228189344,-25,1,70,68,-36,-65,-5,-6,-22,67,57,60,91,12,1,-53
1490228189393,-37,-9,-38,-101,19,-8,-2,4,-31,59,93,118,-7,18,-24,-56
1490228189441,-72,60,-17,69,37,17,42,37,33,-30,-103,-98,-29,-32,-43,9
1490228189443,-101,54,111,44,12,8,-29,-22,-57,-103,-117,-10,10,30,11,-56
1490228189491,-63,32,-31,-26,-19,-26,-70,-34,6,94,64,25,5,11,20,-6
1490228189540,3,-117,-3,9,26,13,-4,-5,113,18,-92,27,11,5,-21,12
1490228189588,53,43,-62,28,7,-4,21,37,-36,-66,-54,-12,-3,-19,-31,-54
1490228189637,-109,15,29,67,-1,-18,-23,-14,-23,-31,18,-53,-48,-6,-49,-27
1490228189685,34,94,-5,-3,-12,5,25,11,-35,7,27,45,15,-11,-2,67
1490228189686,59,-65,-71,-88,11,-12,-55,-56,0,52,14,-48,-18,-8,-18,-7
1490228189735,25,27,-5,-59,-31,0,-49,-1,15,20,4,-3,-11,-8,20,0
1490228189783,75,43,1,-50,-27,-2,1,-3,23,42,30,14,-5,-30,-20,15
1490228189832,-27,-15,31,55,-8,-2,-1,-10,57,4,-68,6,-5,25,3,-6
1490228189880,46,-16,-9,2,-6,6,-17,-12,-9,25,-3,6,-3,-15,2,-3
1490228189882,13,-14,-24,-14,33,38,-2,17,-23,-3,6,22,51,30,0,-31
1490228189929,-23,-7,-71,-89,-15,-24,-1,-2,-2,1,-9,-39,-57,-32,5,12
1490228189978,-30,4,13,44,25,26,1,-14,30,16,20,4,28,12,-3,24
1490228190027,22,-2,12,4,-18,-41,-5,7,-50,-7,6,9,1,16,-23,-23
1490228190076,3,15,3,-2,7,-3,5,9,-80,-41,-20,-3,-21,-18,13,-7
1490228190124,-30,-12,0,0,-8,-31,-30,-16,78,24,8,10,4,6,8,13
1490228190128,-56,7,30,40,35,27,75,12,-6,2,5,18,-7,51,10,9
1490228190174,33,8,-9,-22,-21,-32,-32,15,24,25,-3,-7,-1,-13,-7,1
1490228190222,20,-6,27,-42,-5,14,-50,0,29,55,57,58,9,-22,32,6
1490228190271,-65,-50,-36,19,3,1,7,-6,34,31,17,-91,-14,17,19,-14
1490228190320,40,-29,4,-65,-8,20,50,60,52,47,13,37,-26,-2,24,1
1490228190368,3,81,61,-20,-15,-43,-63,-38,53,46,10,-10,26,25,-42,20
1490228190370,-24,67,63,103,-3,10,-8,-11,-128,-33,127,-59,-3,-19,8,-16
1490228190417,-128,-5,-71,-128,-42,2,-66,12,127,30,102,102,43,11,28,49
1490228190466,87,-128,100,46,14,1,-3,-22,115,66,-68,-60,-15,-4,0,20
1490228190514,56,22,98,56,75,7,-42,14,-66,-110,-87,66,9,7,-10,-11
1490228190562,44,49,-81,-128,1,-11,-27,39,6,62,127,46,5,5,15,48
1490228190564,-52,41,20,-8,-30,12,-3,-74,75,-5,23,127,25,-21,48,56
1490228190612,65,-57,96,97,21,-43,76,102,-22,-44,30,4,17,9,1,-24
1490228190709,79,69,-51,127,94,16,-108,35,-95,-86,-70,-121,-91,-40,-1,7
1490228190710,47,52,17,-128,-49,-11,-35,11,76,127,97,32,78,22,19,-16
1490228190758,-26,1,-66,-17,12,-29,24,-9,82,61,4,96,54,-14,-9,78
1490228190806,-24,53,75,22,34,56,28,-6,-22,16,23,-46,-64,-26,-50,-7
1490228190807,92,-100,-69,-22,-18,-69,9,92,94,68,52,-46,-45,15,3,44
1490228190856,22,-4,-76,38,34,18,31,46,-86,-9,61,49,40,0,-16,28
1490228190906,96,13,127,100,-17,-16,-10,-110,21,55,95,46,31,24,21,106
1490228190953,119,38,-21,36,63,40,48,14,35,34,-128,30,-15,18,67,-11
1490228191001,-114,65,127,4,9,-27,-15,-108,103,95,-104,-51,36,26,-45,-6
1490228191050,87,29,65,25,17,-18,-49,28,-39,-5,-25,35,-11,-18,34,-69
1490228191053,50,106,84,86,74,44,46,-2,56,33,-18,-1,44,38,27,63
1490228191100,111,110,93,60,-47,16,16,3,5,51,23,12,52,-11,6,5
1490228191148,-108,-128,-101,-90,50,20,8,-36,-10,-33,53,-83,-23,23,-39,-5
1490228191197,-5,51,127,24,11,-4,-4,-5,37,52,65,57,-32,21,31,38
1490228191245,-58,7,-74,-5,-18,-6,-24,-38,-29,-49,-38,-114,-36,0,-27,-24
1490228191247,-7,-38,-40,7,-22,-3,-23,6,-19,-21,-26,23,5,-20,3,-10
1490228191294,-18,-35,-63,-10,6,94,21,0,8,5,50,45,90,-20,-17,-9
1490228191344,-23,4,24,14,-11,19,12,-2,33,31,29,-6,-46,-27,-1,3
1490228191441,4,4,29,9,57,17,5,14,-16,3,-65,-69,-48,-57,-20,-22
1490228191445,17,14,76,6,-2,51,19,19,-36,-21,-76,-63,-17,-18,-17,-20
1490228191489,22,21,81,107,-8,-89,3,7,-9,-36,-33,-17,-43,-67,-2,-10
1490228191491,-37,-41,-61,-68,10,-23,-67,-24,2,14,8,-34,-73,31,51,8
1490228191539,-2,12,23,45,44,22,-50,-23,28,20,25,30,34,4,23,26
1490228191588,1,1,-3,-35,-89,-119,-60,-31,28,-4,-26,22,-19,-19,13,-6
1490228191636,15,-15,1,17,-55,30,6,10,-4,-2,9,0,-112,-1,-73,-37
1490228191684,9,18,19,27,2,-87,27,23,15,9,-4,9,-32,-99,-35,3
1490228191686,9,-8,-19,-21,-22,-46,-12,-11,-3,-13,-27,12,66,7,11,8
1490228191734,23,1,-15,-84,-24,39,-43,4,-35,-27,-14,0,41,-11,45,-13
1490228191782,-5,-15,-17,-26,45,-38,0,16,7,-2,-8,-42,-42,-33,-9,4
1490228191831,5,-5,17,34,17,66,-42,-11,7,-2,14,-11,4,54,-5,4
1490228191881,5,10,-3,1,33,-4,-23,-11,-1,12,11,-13,-86,8,82,10
1490228191928,-26,2,13,11,-2,-4,-25,1,7,11,7,9,12,2,-32,-4
1490228191929,8,26,16,10,13,96,80,12,-4,-38,10,31,-8,127,5,21
1490228191977,-52,-30,-1,-3,3,-122,2,-52,26,46,38,38,2,-112,-66,-3
1490228192026,58,81,-18,-11,-16,-96,-26,46,-125,-83,16,10,11,-66,-43,-27
1490228192075,13,58,110,108,33,127,19,-10,-61,-73,-103,-84,-16,120,-55,-34
1490228192123,4,-25,28,102,28,112,15,-34,33,49,-39,-37,26,101,-34,-1
1490228192172,79,-59,-36,-30,-13,77,11,-23,-90,11,-7,27,-9,63,2,32
1490228192173,73,127,127,10,4,-112,3,-15,-45,-81,-74,-25,-6,-73,12,-1
1490228192269,18,41,5,64,15,-48,-13,-32,-32,105,-6,14,7,-40,36,17
1490228192272,54,52,-100,102,13,7,-23,-50,-11,-55,-7,-101,-23,5,-25,-30
1490228192318,-19,24,-74,-72,-39,-15,-40,-40,-83,-75,18,34,-12,67,5,-12
1490228192366,48,-74,-110,-100,-9,-63,12,-72,-65,53,51,-13,-33,-29,-65,-1
1490228192368,-13,-84,-84,-30,-5,-26,1,-67,-15,115,1,-44,-43,-1,6,73
1490228192416,41,-61,48,103,33,19,-18,44,-66,-46,71,26,19,2,10,-30
1490228192465,41,17,-128,12,17,13,22,47,-44,2,127,6,-12,-18,-32,-41
1490228192513,41,-13,-87,1,-13,-13,27,1,40,28,29,-2,-17,4,27,43
1490228192562,-54,-52,-6,44,22,7,11,-3,-50,26,-38,10,6,-2,-39,34
1490228192659,-82,20,105,52,38,5,41,2,-108,-35,20,34,-15,8,24,-35
1490228192661,-92,-61,-37,11,-17,-1,67,-7,-18,-3,20,30,13,2,20,-22
1490228192661,-73,22,39,46,23,37,-3,36,-44,-7,-13,4,24,-5,28,8
1490228192708,84,31,80,36,1,-9,-18,-2,-96,-14,9,37,11,6,-24,-10
1490228192757,40,18,-7,-30,-4,13,18,17,-69,-14,9,-14,-17,-17,13,-10
1490228192807,-15,-3,-2,-12,-2,-6,-8,1,41,11,-1,-8,-37,-24,-34,-10
1490228192854,21,0,2,20,-3,-56,-30,0,0,-16,-34,-34,-19,-16,-8,-5
1490228192856,-21,-15,-5,-15,-3,22,48,-6,11,-2,3,0,-9,-24,-45,-6
1490228192903,-2,-3,-9,20,39,-7,-2,-9,-10,-1,-13,-23,10,2,-44,-23
1490228192952,-18,-2,1,6,-14,6,-42,-14,75,26,12,4,-1,20,30,9
1490228193001,30,12,-11,10,5,10,5,7,-49,-5,-7,16,18,27,8,9
1490228193098,0,13,2,6,28,-2,1,-18,24,7,12,-3,-11,5,-30,1
1490228193100,-19,-14,-10,-2,1,-17,-8,-1,1,6,4,13,-10,-12,-11,-29
1490228193101,-30,-20,4,10,1,-6,-2,-5,67,10,2,-7,-4,-2,31,-7
1490228193148,-12,-12,-7,4,-14,2,-8,0,38,12,16,16,13,-15,-42,-6
1490228193197,100,-32,20,-11,15,27,22,17,-89,22,7,8,-15,-21,9,-17
1490228193245,71,25,42,14,13,17,19,43,4,0,-55,-13,20,11,-9,-14
1490228193292,-27,37,9,49,-4,-8,-28,18,-55,-24,127,21,21,2,-62,-12
1490228193295,86,25,22,58,41,57,20,-6,112,69,-112,-33,-15,-14,-31,27
1490228193342,-27,-65,-109,-128,-39,-23,-1,-7,51,24,102,50,12,24,20,38
1490228193391,-128,-122,-65,-103,-49,-24,19,-51,-61,46,82,43,-17,1,-9,6
1490228193440,63,-83,-70,-5,-26,-24,-67,-49,-109,-61,88,101,2,-47,21,3
1490228193488,19,10,54,78,30,11,-5,29,24,60,-18,-83,6,0,12,-45
1490228193490,63,75,44,1,25,11,-11,17,105,-30,-100,-128,-73,0,41,59
1490228193537,-85,-76,-115,-102,-18,-14,88,53,45,-99,-107,-128,-57,-56,-23,-90
1490228193586,-42,53,103,94,-18,-30,72,-46,127,12,78,-49,42,47,-81,72
1490228193635,-96,11,60,66,-55,-67,-120,-104,20,13,-95,-7,33,5,18,38
1490228193683,-11,-70,-128,-71,9,23,45,-56,-5,127,114,91,-46,-6,-22,16
1490228193731,26,103,121,96,29,15,119,50,77,-56,-128,121,10,-7,-32,40
1490228193733,46,2,76,-70,-3,41,7,-15,55,127,40,51,35,3,-45,62
1490228193781,25,127,-78,114,91,55,0,10,79,-105,-128,-123,-32,10,4,-9
1490228193830,6,47,-94,-6,-91,-43,-27,49,10,-21,-17,-100,-19,-9,-20,-39
1490228193878,52,25,-124,18,26,7,-20,-17,-50,22,84,26,-9,-47,0,-10
1490228193928,-74,-52,50,55,31,-7,0,-23,106,38,-83,-52,-79,-48,-12,-31
1490228193980,-61,90,89,45,86,-42,27,87,-98,-62,-55,-54,-19,43,32,-64
1490228193982,-82,-116,-7,82,0,37,-14,-20,123,67,95,-67,-46,-16,35,74
1490228194028,17,63,113,55,22,10,-12,-13,-4,-9,-32,98,-6,-12,29,25
1490228194073,20,-84,-86,-117,-47,9,36,25,-73,-20,61,-65,0,-11,-21,-17
1490228194124,57,101,86,127,89,1,8,13,-3,-12,61,-91,-4,6,22,9
1490228194170,2,-7,-12,-30,9,-24,-23,-15,30,38,13,70,2,23,-2,19
1490228194172,21,27,18,8,10,40,-5,24,-14,-35,-54,-56,-11,-4,-11,-17
1490228194220,27,22,42,15,-35,6,-11,-4,-9,2,4,36,-4,-7,1,8
1490228194268,19,21,52,11,-82,-49,-12,12,-3,16,6,37,19,-15,19,-4
1490228194318,-4,2,0,5,27,12,-17,1,19,16,37,20,5,-72,10,10
1490228194366,-4,-36,-64,-19,-12,25,-9,-6,-41,-20,-27,-42,-47,-6,-14,-16
1490228194414,2,2,-4,-29,-20,-52,-2,-3,-12,-13,-3,-13,-58,-13,26,4
1490228194416,43,12,11,24,-15,-62,-19,-5,-12,-2,-23,10,35,27,-3,-8
1490228194513,-21,-21,-49,-81,14,-114,-105,-43,-13,10,4,31,2,8,114,17
1490228194517,8,-31,-24,-17,24,-61,-1,-9,7,-17,-16,-46,-56,25,-53,11
1490228194561,-5,-32,3,-5,20,-128,51,21,11,-31,19,-84,-89,-107,0,-3
1490228194610,3,-16,0,24,-46,66,33,20,20,14,10,77,15,119,14,-2
1490228194658,21,8,1,11,10,-55,-54,3,-6,-1,-4,-14,-29,-53,-40,-3
1490228194706,-8,10,2,15,-29,6,-69,-9,37,16,-9,-32,-16,-11,81,49
1490228194708,-17,21,-14,-37,-35,5,43,-4,6,26,-8,-16,54,-8,50,-5
1490228194756,-3,13,-6,-14,-56,1,3,-6,11,13,9,53,42,3,-15,19
1490228194804,1,0,0,-10,1,-2,17,18,-23,-6,-1,-17,-3,-3,43,-12
1490228194853,-3,5,4,-2,23,-43,54,12,29,7,0,-5,-45,-119,-7,12
1490228194854,-17,-28,-35,-40,-2,72,-44,-26,3,2,10,21,-15,72,31,0
1490228194902,-12,25,12,6,29,118,-32,-5,-43,-54,0,36,10,122,-41,-9
1490228194951,-61,-46,-26,-15,-12,-128,-7,-57,46,27,41,13,13,-128,22,12
1490228194999,-67,-50,-76,-50,-54,-97,-25,-39,4,28,110,60,35,-113,23,-8
1490228195048,-39,-22,-13,19,-2,116,-13,-40,16,-67,-52,-70,-13,127,-10,2
1490228195096,-6,37,41,-5,6,58,0,36,-37,-63,-30,-22,-19,56,6,-9
1490228195098,-36,-63,-100,-76,-34,-12,65,25,-128,-32,-17,20,-38,-41,22,-60
1490228195146,-71,-75,-62,-6,12,-70,-5,6,-13,87,57,-32,-25,-75,-13,-21
1490228195195,-52,-12,40,27,1,-5,2,-59,19,-9,-74,-125,-43,9,-10,-1
1490228195244,-51,11,74,32,18,-15,3,-14,-31,-74,-60,-8,10,7,-14,-34
1490228195292,21,85,76,-61,10,-28,-7,21,127,74,4,2,5,16,0,-12
1490228195340,-87,-54,-66,44,0,41,0,-36,-11,34,-64,-73,-8,15,7,44
1490228195342,-6,43,73,1,-23,-35,22,34,-58,-66,-63,26,-16,-38,-14,-22
1490228195390,93,123,8,118,44,2,-59,3,-49,34,66,0,16,0,70,59
1490228195438,-43,-50,6,-21,-24,-44,-35,-30,42,39,88,57,44,-8,10,12
1490228195488,14,39,-7,0,-33,-47,21,31,-23,58,65,52,93,66,27,-30
1490228195535,67,30,50,41,7,27,-1,40,-84,-79,-23,-3,12,-17,10,-8
1490228195537,19,7,-28,7,11,8,-40,-11,-23,49,-1,-59,-11,4,53,14
1490228195584,-71,-6,-54,-23,4,0,40,5,50,5,36,-21,-22,0,-17,5
1490228195633,-35,-43,9,-12,-17,-6,12,-8,-32,3,-27,46,5,-7,-11,7
1490228195682,50,8,8,-22,6,1,-67,0,21,11,-5,0,-21,-19,43,6
1490228195731,-28,-9,4,55,-7,7,15,8,10,-2,-12,-49,-34,-37,-18,-5
1490228195780,27,-19,-2,-9,0,-2,11,12,-70,-8,10,23,-23,-17,24,-1
1490228195783,-41,1,-2,67,22,-8,0,0,-16,-12,-14,-51,-14,-1,6,3
1490228195828,27,-5,-21,-11,6,-9,-34,-13,-17,21,3,8,1,6,58,11
1490228195877,-33,4,-5,9,1,14,20,10,54,47,19,-1,-5,2,-8,14
1490228195926,-13,-12,-1,-26,-9,0,44,-9,-31,-14,9,-14,-6,-19,-28,-5
1490228195977,42,-5,-2,-17,-21,-15,18,1,38,-10,-4,-1,17,-32,-18,9
1490228196023,29,3,1,-11,-7,-25,-35,1,3,-5,0,16,9,-3,-2,9
1490228196024,30,-5,-9,0,16,-7,16,11,8,20,0,-3,-8,6,-15,0
1490228196073,-33,7,8,7,10,16,33,-31,-14,-12,-16,-8,-14,-23,-17,-8
1490228196121,-19,-22,-7,2,10,17,-61,-20,-29,-9,13,-8,-10,-17,37,11
1490228196170,8,7,-15,10,-13,-3,17,19,-62,-31,-17,-15,-7,-6,-11,-13
1490228196222,40,-2,-33,-24,-10,6,27,0,10,6,-28,-4,-11,-7,-17,-29
1490228196224,-23,6,9,71,15,-8,18,-8,-86,-38,-4,-20,1,7,-38,-28
1490228196267,91,-27,-34,23,20,7,-18,-5,-64,-54,-74,-51,-35,-45,34,-11
1490228196316,0,-25,-22,-44,-10,-13,-45,-10,71,51,77,42,14,11,-28,14
1490228196365,-14,-13,-82,-10,11,10,11,13,127,-54,-89,-102,-71,-25,-21,5
1490228196413,127,30,-79,-116,-6,10,15,-46,-116,-93,-87,-78,-51,-8,-26,-38
1490228196462,127,-66,-42,-20,19,7,71,-3,24,-56,9,7,-45,-18,26,-15
1490228196465,-70,-87,-118,74,-53,-35,-97,-44,32,-12,78,-18,9,30,23,1
1490228196511,127,79,32,16,-19,30,-18,11,19,19,-128,-14,4,-55,15,71
1490228196560,-124,-102,23,34,-27,-29,-101,-94,-83,44,90,-35,31,51,-49,-55
1490228196608,-77,-120,-33,75,-54,-17,21,-57,38,95,75,119,16,1,-83,-5
1490228196656,124,-87,-126,-74,40,-18,-16,44,-128,-76,92,-128,-97,-67,2,4
1490228196658,-61,-46,-14,78,-34,6,3,47,-49,-15,-47,-125,-10,34,46,-21
1490228196706,-101,-102,53,-49,-8,52,3,23,91,52,-128,-65,-40,-19,-8,-79
1490228196754,-105,-112,-80,-125,-48,-4,-36,-67,60,79,57,79,47,29,30,16
1490228196851,127,122,-128,-76,59,29,-68,30,-102,-128,47,66,-23,-21,113,37
1490228196853,-67,-35,127,22,-26,-23,-12,-33,61,89,-81,-29,51,23,-15,-70
1490228196900,85,86,-88,119,-39,-23,25,17,-24,-40,127,59,110,25,81,102
1490228196949,-90,-67,20,76,-8,-62,-56,-63,68,57,7,55,66,38,-3,70
1490228196955,61,-26,-71,56,-4,-22,-39,-20,-27,-97,-128,-124,-102,-34,9,-23
1490228196998,127,-21,127,81,62,-30,-44,103,-122,107,-106,-91,-9,85,97,-93
1490228197048,-122,-58,-128,-106,-98,4,-3,39,-7,-57,-68,102,21,-18,-69,-30
1490228197098,-85,-65,-52,-36,31,-42,-29,-45,-7,127,-7,-60,-9,15,-46,-9
1490228197145,-36,-73,-31,5,-91,-38,-12,6,-4,-19,84,-43,82,-27,-42,-11
1490228197149,50,12,-21,33,32,-13,-29,7,-60,-39,118,8,16,-4,4,-52
1490228197194,45,68,50,116,98,15,24,12,30,-46,-113,-57,-16,43,-13,26
1490228197242,-50,-69,-82,62,89,5,28,1,-11,-34,-85,11,-16,-14,4,-16
1490228197291,6,-8,-7,-77,-74,13,20,-8,8,16,17,22,-16,-21,-2,5
1490228197339,-28,-49,-20,-17,-64,-30,17,-13,-22,-45,-71,-23,40,-1,-15,-13
1490228197340,15,-21,39,28,12,-12,-4,4,-5,1,10,64,-69,-65,5,6
1490228197388,-5,5,-5,-8,-17,22,27,0,3,4,18,17,-5,23,26,10
1490228197438,0,16,-3,-19,92,25,-52,-25,-4,0,-16,-35,18,49,27,-2
1490228197486,6,15,28,-11,6,9,32,6,13,-7,6,28,30,-38,24,30
1490228197536,4,3,17,31,14,-44,-24,21,-3,-1,18,21,18,-27,-12,-8
1490228197583,26,11,6,11,-52,6,32,14,-26,1,-38,-27,-1,49,27,16
1490228197586,-7,4,2,1,50,-127,22,-5,26,8,31,25,-88,-121,47,14
1490228197632,-33,-18,-9,25,18,77,48,-28,0,-1,-3,50,15,21,-25,19
1490228197681,-1,10,42,47,-40,-85,-60,-20,9,-12,-14,-9,12,-78,95,12
1490228197729,7,-1,16,3,3,24,-39,-18,-5,-6,3,-9,-107,73,-20,-17
1490228197778,-4,-21,-48,2,37,-83,-25,-14,-9,-9,-40,-13,102,36,70,7
1490228197826,-17,7,-17,-36,5,47,65,5,-3,6,-14,-22,59,63,-64,-20
1490228197828,-19,-8,17,58,17,-47,-5,-3,-12,-26,-27,-39,76,-67,19,-2
1490228197876,-1,-7,-6,-21,-11,-13,32,-4,7,14,6,18,-2,-25,-71,-4
1490228197924,-16,11,-1,2,-4,4,30,-32,6,8,-13,-37,53,-10,82,41
1490228197973,7,4,5,3,15,-6,17,8,-8,-18,4,5,-24,5,-52,-13
1490228198021,18,-2,5,36,13,32,-10,10,-30,7,-4,6,-4,93,42,-15
1490228198023,-1,0,8,1,-29,115,-5,20,-1,8,-6,12,-9,-37,-8,-25
1490228198071,11,32,-5,-10,-6,-69,-25,-29,-28,-24,-30,-11,-15,-92,41,8
1490228198119,2,-13,-21,-19,-9,-86,25,-54,-10,-23,34,32,36,-66,8,67
1490228198168,-6,-27,0,-6,20,25,-8,-21,6,16,8,31,-11,-73,-29,21
1490228198217,-64,73,79,95,4,127,4,49,-12,-85,-22,-100,-29,127,-23,-102
1490228198265,34,-43,90,63,7,34,-20,-12,-121,-63,-95,-12,-8,18,-36,-53
1490228198267,-62,43,48,72,-21,-21,-39,-28,-18,-51,-108,-13,81,14,13,53
1490228198315,52,85,92,99,19,1,3,70,-51,-50,44,5,-2,-14,0,31
1490228198363,40,-40,-116,-128,-24,-13,45,-24,-76,-95,-77,-73,-63,14,-8,35
1490228198412,37,43,-6,-43,-36,19,32,48,87,56,9,98,68,-16,-43,1
1490228198461,44,8,20,21,26,35,-15,-14,50,117,127,76,4,5,67,36
1490228198509,-102,-85,-7,101,10,16,15,-36,-2,17,-79,-91,-38,9,67,-1
1490228198511,31,37,36,-82,-50,-30,-17,-18,67,-67,73,-3,2,38,1,43
1490228198558,40,-115,5,10,12,-9,-19,-2,-55,-51,-46,12,-6,-31,-23,-64
1490228198607,87,97,81,79,12,18,25,-36,25,68,109,127,66,28,35,93
1490228198656,-105,-68,-1,-128,-45,5,-8,-16,49,77,88,34,-19,-13,-68,-21
1490228198704,74,52,-90,-53,-5,-46,-32,-19,-70,-8,-20,-56,1,1,28,33
1490228198705,-51,20,0,-30,-8,7,-39,-1,34,-22,-21,46,37,0,-3,-30
1490228198753,-11,-1,-108,-61,-40,10,-16,34,31,-17,43,-56,-5,-12,5,-21
1490228198802,23,-27,-46,-6,13,-11,-23,5,30,-4,-10,21,-3,8,41,-7
1490228198851,-18,-26,-11,-16,-4,0,28,8,76,42,16,-1,0,12,-31,-20
1490228198899,-56,-40,-27,-19,5,9,-60,-23,-13,-15,-3,-17,-13,-16,63,-5
1490228198948,16,6,-14,1,-14,2,22,8,-18,-2,-14,-45,-14,-15,-34,0
1490228198950,-1,-10,-5,27,22,29,15,9,-41,-6,7,-33,-12,-18,-4,0
1490228198997,-14,-21,14,-4,-21,-10,-41,-3,2,-14,10,18,18,21,7,-9
1490228199046,-12,-13,-4,-12,15,9,63,14,-15,1,12,3,-13,-8,-48,-10
1490228199095,-29,14,6,19,8,6,13,-16,2,36,15,29,-5,-10,12,3
1490228199143,69,29,3,4,28,13,9,2,50,3,-8,-29,-41,1,-27,-8
1490228199144,-12,19,12,4,-3,-5,3,-8,8,8,13,4,17,24,-19,14
1490228199192,6,-1,11,4,-11,10,25,20,-52,-15,-8,-9,-25,-8,-6,-16
1490228199241,-22,-21,1,1,-9,-20,-9,-6,-46,-16,-4,3,8,0,14,-1
1490228199291,35,3,-3,11,-7,0,-7,-3,-36,11,-17,-18,23,-15,-29,1
1490228199338,4,4,2,2,10,0,11,3,23,18,14,20,-4,-18,-14,-10
1490228199386,63,22,-30,-23,24,2,1,3,-95,-7,42,3,-25,-5,-8,-21
1490228199388,-94,2,39,39,4,-20,-60,-27,-24,-10,-43,-14,-43,-39,32,0
1490228199436,-46,-42,-61,-33,-21,-14,-22,-4,-28,-33,12,23,14,13,-8,2
1490228199484,-111,-38,-30,-14,-49,-37,16,-13,127,80,33,-11,22,20,-11,38
1490228199533,-98,-78,-100,6,-31,-7,16,-5,-2,5,9,-114,7,-1,8,51
1490228199582,78,-73,-89,55,-4,-19,-47,-63,21,34,106,-20,-12,10,-23,43
1490228199630,-24,-5,-128,-128,-72,-56,42,6,-124,-126,-2,-128,-53,4,-32,-76
1490228199632,33,-45,-106,-45,25,9,-31,-14,52,37,95,-124,-49,32,-12,10
1490228199680,29,27,9,11,49,-8,-19,59,50,-11,-74,-48,9,-2,42,25
1490228199729,-44,23,127,91,-26,-7,-36,-54,51,68,27,125,30,-15,-46,56
1490228199777,127,100,75,80,17,1,14,2,26,37,-114,58,28,42,47,10
1490228199825,-101,-45,99,86,-25,-46,-42,57,-7,97,77,-50,13,28,77,-78
1490228199826,23,4,-127,-109,53,27,16,-60,-115,23,-46,5,-81,-58,-18,50
1490228199875,-27,-128,-127,-95,-110,-83,-66,-14,92,110,127,17,20,60,-6,-52
1490228199925,-16,84,115,87,77,21,93,20,40,90,126,72,33,35,78,86
1490228199972,95,-64,-128,28,35,38,31,-48,-24,55,51,-79,-46,-32,45,24
1490228200020,-74,-59,-74,19,-13,-48,23,-62,30,-11,-115,-85,-79,-33,-65,-35
1490228200069,91,123,127,67,57,71,21,63,-98,-54,-23,-39,25,10,-50,-10
1490228200070,-32,1,127,71,11,13,3,33,127,127,91,37,-74,-12,-9,14
1490228200119,43,23,-19,40,21,-6,-7,-13,67,-40,-23,36,57,-18,-46,63
1490228200170,-128,-89,104,0,-1,-13,-3,-72,91,127,127,125,66,12,-15,-5
1490228200218,-61,-128,-128,-128,4,12,-29,-35,-128,-104,-115,-89,-53,-36,-1,-15
1490228200266,94,126,91,94,28,37,26,22,-128,5,76,127,35,-32,-59,18
1490228200315,43,59,-99,88,-38,23,60,111,-53,-57,-128,-128,4,-57,-15,-52
1490228200317,-128,10,69,-4,-88,-11,-97,-121,89,19,16,45,5,30,55,26
1490228200363,-82,94,112,114,7,-14,-40,-7,66,-3,-128,-64,-83,-38,-3,-17
1490228200412,82,86,78,27,-14,-24,-4,17,-45,-119,-128,-128,-38,-10,-45,27
1490228200460,-29,-39,21,78,37,1,35,20,70,46,107,-6,-34,3,-10,7
1490228200508,14,44,127,-8,20,30,13,0,-47,-53,4,49,17,-10,24,-30
1490228200510,1,36,66,55,-24,-27,3,16,78,110,-1,67,81,51,72,40
1490228200557,10,23,45,48,56,7,28,6,3,24,77,11,-39,-24,22,17
1490228200605,2,-36,-39,-19,24,-41,-21,-18,16,34,107,28,77,14,0,11
1490228200654,22,53,127,64,-65,26,16,23,16,3,-67,-82,50,46,15,5
1490228200703,-21,-20,-90,-36,73,-11,-36,-4,3,0,8,49,-77,6,11,4
1490228200752,-18,-3,-24,-84,-18,30,41,-13,-1,-3,-16,-11,35,37,-15,6
1490228200754,-6,10,30,80,52,-46,-58,-8,24,-5,-7,-65,-8,-19,26,13
1490228200802,0,0,12,29,19,-14,16,1,37,40,24,11,-20,-82,-19,-6
1490228200849,-21,-28,-10,-51,-68,-109,-61,-33,-12,-16,14,76,-51,-116,12,-21
1490228200898,-6,-5,-24,63,77,-13,12,-2,-2,-14,2,9,27,20,-12,22
1490228200947,-2,4,39,48,-50,-109,-57,-2,12,-27,-29,-84,50,115,83,18
1490228200995,22,6,42,38,-50,-98,3,19,-24,-25,-26,5,26,12,-98,-31
1490228200996,44,3,-2,-11,38,85,-65,14,-42,4,7,23,-43,85,27,-12
1490228201044,-34,-9,-5,-25,23,127,-61,-24,13,-11,-18,8,43,88,-30,-2
1490228201093,-18,-10,-4,14,-3,-58,-8,10,-1,9,14,-1,17,-50,-41,-21
1490228201142,10,11,9,-15,29,-6,-122,-22,-22,5,-14,-20,-38,-37,48,9
1490228201192,-1,-11,-10,-2,-42,87,9,3,-9,4,5,-1,7,127,14,3
1490228201194,9,0,-1,25,28,-46,25,-7,-2,13,16,12,-7,40,5,28
1490228201244,-19,-7,11,1,2,-74,-50,-9,-24,7,-2,7,17,12,67,-15
1490228201288,88,15,19,36,25,-76,11,7,-77,7,38,40,20,68,1,-52
1490228201337,-75,-22,-38,-56,-15,27,-5,-2,107,24,35,18,8,-108,17,64
1490228201385,66,45,25,95,38,127,-25,51,-36,-54,-29,-20,-33,102,19,-54
1490228201434,48,-44,-2,-65,-21,82,-14,-3,-72,-23,-62,28,-11,62,-42,-23
1490228201435,-8,104,-7,29,2,15,-51,5,-80,-85,-45,1,-21,-25,82,0
1490228201484,-69,35,-89,23,37,-40,28,35,-22,-46,36,34,-18,-38,15,10
1490228201532,-59,-59,-21,-67,-25,-51,-11,5,-57,-65,-97,-48,-15,-94,19,11
1490228201581,36,-14,10,60,-8,38,-7,-11,-78,21,8,3,44,27,-62,2
1490228201629,-27,-46,-93,-66,-23,-61,-13,-26,3,22,-37,-59,-14,-19,-55,-48
1490228201679,4,64,-10,101,31,12,-26,-22,-104,-106,-23,-128,-40,-4,8,-62
1490228201681,-41,74,127,75,-4,-21,-32,13,-58,-22,-128,-62,14,0,37,-56
1490228201727,88,-51,127,67,22,9,58,6,-21,53,-38,-16,7,32,29,3
1490228201776,11,1,80,88,-16,-10,18,-53,9,-13,19,102,29,5,16,22
1490228201824,-10,-87,-56,-12,15,-8,58,3,-22,62,127,61,-16,-24,-66,-2
1490228201872,92,47,-58,-31,-4,20,-62,-15,29,32,127,50,36,18,-19,25
1490228201874,110,29,4,28,11,-12,41,-2,-83,50,13,17,0,10,26,29
1490228201922,-43,-85,85,17,17,-5,-9,24,12,42,-1,68,31,-2,33,-22
1490228201971,-52,0,-13,-13,-1,-5,-3,-17,17,-3,47,46,-2,12,7,36
1490228202019,-28,23,55,62,19,-1,-19,-39,-3,-23,-85,-65,-12,-3,-8,11
1490228202069,-48,20,22,13,31,16,11,27,-78,-23,24,36,16,20,36,-13
1490228202116,21,2,-5,7,7,1,24,-6,13,14,-40,-9,3,11,-43,-9
1490228202118,-3,-14,-20,-7,-27,-30,-11,-8,4,-9,-5,13,21,21,-6,-9
1490228202165,-20,-4,1,12,5,7,-30,-15,39,29,38,39,16,-19,24,6
1490228202214,-51,-27,-21,3,50,12,-5,-20,53,36,23,2,5,-6,4,15
1490228202263,13,-9,-6,-10,0,9,-17,1,-65,-18,-10,12,-4,-17,-33,-25
1490228202312,-14,27,7,3,18,28,9,-1,31,-5,-4,-9,-11,9,-6,19
1490228202314,4,8,-7,-22,-12,-28,-19,5,-30,-6,-10,7,15,-1,-46,-17
1490228202361,-2,18,0,16,35,8,36,4,-22,6,-7,-28,-39,-31,-3,11
1490228202409,4,-16,0,-24,-28,-4,-11,-3,-19,-8,-5,-9,-15,11,19,-17
1490228202458,15,-25,-17,-7,-1,-28,10,1,59,13,-10,-1,-1,7,-40,-5
1490228202507,-24,11,18,31,12,27,-51,-16,0,5,6,-11,-26,-11,43,-3
1490228202555,20,-5,-22,-26,-20,-4,11,11,22,12,27,24,16,-13,-21,3
1490228202557,-32,32,41,33,7,37,59,21,-100,-27,-20,-15,11,15,36,13
1490228202605,40,2,-2,11,5,11,-40,13,72,20,-33,-26,-14,3,-1,0
1490228202653,0,8,-75,-89,-9,-14,1,24,-58,-16,36,30,-4,-8,-16,-11
1490228202708,55,-4,-46,-37,-17,-21,35,31,-49,36,-26,5,-17,-27,-102,-14
1490228202752,49,-20,-55,-90,-14,0,-55,40,127,2,8,-73,-24,-4,41,-51
1490228202798,21,46,-55,80,12,3,68,15,-84,-6,-116,-75,-32,13,-29,29
1490228202800,-77,63,54,117,7,20,66,27,75,-44,-112,-46,-15,-19,2,-2
1490228202848,3,-60,82,52,-24,-57,-97,-90,30,64,72,-48,-20,-14,28,-24
1490228202897,-77,86,81,96,35,-32,13,-5,93,2,-9,-32,54,35,5,83
1490228202946,3,28,90,96,50,6,-1,-35,16,-7,-71,-53,-6,19,-4,16
1490228203042,127,-47,25,2,-39,-41,16,55,-6,111,127,127,2,-75,13,-43
1490228203045,-2,2,28,-16,25,28,24,-8,-19,-45,-69,-102,-60,7,-14,29
1490228203048,-70,73,61,-44,-23,-49,-51,-39,124,95,113,11,29,4,70,50
1490228203093,-60,-113,-28,-94,8,-6,17,-39,73,77,-36,-51,-79,-61,-76,45
1490228203143,-64,-125,-128,-39,-14,-17,-21,-59,64,32,127,107,42,23,25,3
1490228203190,-50,-85,-110,-25,-90,26,76,127,-128,34,127,-122,21,-41,6,-88
1490228203238,122,127,85,93,85,-11,39,104,-1,-128,-128,-52,-30,-63,-82,-60
1490228203240,69,-37,-70,73,40,9,-8,-50,85,33,-56,-13,-17,61,53,70
1490228203287,45,-72,-24,-55,-46,-70,-45,-37,-2,-2,127,-24,19,-59,20,-2
1490228203335,-19,-107,106,-71,-116,-58,-88,-80,46,127,127,60,100,80,58,67
1490228203384,-73,-119,-123,-116,-51,34,-16,-31,-23,-53,-27,-33,-14,-43,-75,-56
1490228203433,110,-18,127,127,81,36,41,100,-13,82,-103,-44,1,-29,9,-31
1490228203481,-31,-75,-103,-68,-42,-59,2,32,-68,87,105,3,16,14,-46,-40
1490228203483,-29,35,58,103,-61,3,-10,30,34,25,103,47,109,39,58,12
1490228203530,-73,-84,-80,-66,-85,3,5,-32,32,64,113,56,51,-19,2,11
1490228203579,-29,-6,39,-103,-83,-55,-29,-57,23,-33,-125,-34,-4,74,38,50
1490228203628,64,87,56,112,114,19,12,21,44,7,-28,-76,34,23,19,8
1490228203676,86,66,35,112,85,5,24,67,-17,-43,-60,37,67,30,3,-36
1490228203678,62,94,104,9,58,-10,10,24,-34,-24,-91,-58,-61,-45,-38,-24
1490228203726,30,-9,-31,-36,-83,19,17,5,10,48,-40,49,66,23,53,10
1490228203774,-70,-30,-9,77,7,-33,-39,-29,41,56,70,99,36,31,54,19
1490228203823,-28,-44,18,-30,44,0,-17,-8,-11,-51,-128,-116,-86,-30,-3,-6
1490228203872,3,7,3,51,9,20,56,27,5,13,30,37,-53,-15,27,-2
1490228203921,27,2,-30,-18,-18,-54,-18,24,14,14,26,53,20,24,2,-1
1490228203925,34,13,-7,41,-75,5,-40,33,-29,0,-11,-64,1,-23,21,-18
1490228203970,-3,-5,25,40,-107,-56,-41,-22,25,2,33,30,-24,-6,-17,8
1490228204018,-66,-12,-28,4,16,-78,16,27,47,19,-10,-43,-13,-92,52,7
1490228204067,3,-31,-9,-69,-66,127,1,-14,-29,-36,-22,-42,62,33,-33,-24
1490228204116,1,3,20,72,-20,-49,11,-19,17,21,-17,-22,66,0,9,24
1490228204164,-27,-19,-19,-40,43,53,-8,-5,-5,-7,4,20,-91,-72,-97,-7
1490228204166,-19,-6,-38,-74,33,60,-64,-27,4,-5,-16,-33,-46,25,45,11
1490228204223,10,-2,-55,-43,72,-58,-54,-7,0,11,9,67,-50,-91,-12,12
1490228204262,2,-4,29,6,13,-9,-3,-7,-6,18,39,53,-17,-18,89,19
1490228204312,-33,-4,-24,-39,-17,-4,25,-11,0,8,20,10,-53,-2,-12,-1
1490228204370,9,31,22,23,-46,-4,29,1,-5,7,-2,-26,-56,-2,3,-10
1490228204371,-20,-10,-1,7,0,-6,64,-7,17,4,19,15,-24,2,5,20
1490228204408,-2,-3,12,-18,-10,-2,22,-9,12,2,-7,-8,-11,9,-16,-13
1490228204457,-5,2,-5,-9,-18,35,34,1,17,-5,7,-5,43,5,-39,14
1490228204506,9,2,-2,0,22,113,5,-4,-17,-14,-22,-16,-22,127,-61,-27
1490228204555,-45,27,35,-6,25,-128,-11,43,31,-20,4,11,-24,-106,-18,-57
1490228204603,73,24,13,66,8,-7,7,-43,-35,-19,-60,-84,-55,-9,35,50
1490228204605,-13,16,25,35,3,100,-8,40,38,24,111,80,55,122,83,4
1490228204652,50,33,-35,-86,35,-64,-16,33,-50,-27,95,53,21,-59,9,8
1490228204702,-45,-36,-116,-111,-24,-49,-25,7,31,-17,-61,-59,-16,-53,-2,13
1490228204750,-87,66,127,9,50,-87,-14,-95,24,-48,-81,-64,0,-105,-28,-36
1490228204797,5,-128,-128,-110,-38,34,-53,-86,43,85,127,65,21,14,42,64
1490228204799,32,-92,-78,42,-11,13,29,29,59,52,-97,-70,-34,6,-66,45
1490228204847,-72,-87,-55,-120,-72,-11,-48,-95,40,75,110,60,50,2,37,57
1490228204896,11,20,29,-74,-42,-30,-42,-12,88,65,60,104,61,32,36,15
1490228204944,67,17,-28,-1,-20,-81,-7,26,-71,-12,26,-43,-7,-36,-5,-82
1490228204993,5,49,97,127,-28,-9,5,-11,56,95,83,86,1,-8,8,74
1490228205041,22,34,27,39,1,11,-16,19,-1,49,-34,26,56,8,-14,-1
1490228205043,127,-30,20,20,20,-17,-26,15,10,19,-21,-17,1,19,6,11
1490228205091,23,4,38,46,18,11,9,-72,50,3,-78,-77,-19,-27,46,43
1490228205140,-86,-6,102,-26,4,-2,27,-50,64,29,-79,-65,17,8,1,59
1490228205192,72,40,-44,-7,8,-3,32,15,-12,-57,34,16,-5,-12,-19,-9
1490228205237,-9,-2,-1,-18,-19,-22,-58,16,23,3,18,9,-17,18,80,8
1490228205285,11,31,54,75,42,14,10,-9,-29,-13,-37,-16,-26,-11,-7,-47
1490228205287,35,6,-26,-25,-29,22,-13,13,-23,18,39,34,10,-3,45,-22
1490228205334,47,24,-4,-5,-27,-40,-33,13,-30,6,17,32,21,22,22,11
1490228205383,11,4,2,9,8,12,53,-16,11,3,-14,-32,-19,8,-25,5
1490228205434,9,-6,12,-36,-25,-28,-11,0,51,0,18,8,-1,-9,-14,0
1490228205480,4,1,8,30,1,24,19,-6,-2,-7,-8,22,5,47,3,16
1490228205481,1,-2,-13,-2,10,-6,-19,-14,-4,14,19,26,-6,4,19,2
1490228205529,-23,3,6,5,-19,-19,8,3,57,-6,11,0,5,11,4,8
1490228205578,-19,10,8,-2,24,-9,-16,-11,14,-4,-4,-20,-5,7,-20,13
1490228205627,23,6,6,-2,22,-14,-33,-1,-11,14,-3,-8,-1,9,15,4
1490228205676,-76,-15,-3,-16,1,5,-37,-32,8,10,11,-8,18,3,15,-2
1490228205724,3,6,-5,8,-6,-14,1,25,-18,-1,-8,5,-1,18,10,1
1490228205726,-52,-13,-3,-10,-8,2,47,-10,48,10,4,-1,-2,1,-20,-1
1490228205774,-9,-17,-18,-33,-6,2,-1,7,-7,3,-4,-11,-9,-3,-27,-5
1490228205822,-5,-1,-16,-31,-46,-27,-2,-10,42,19,3,-8,44,-1,-35,4
1490228205871,-52,-8,5,50,18,16,-47,-21,83,7,43,0,-4,0,53,38
1490228205920,-44,-16,-27,-67,-12,-29,52,-28,17,39,-23,-19,-7,16,-27,2
1490228205968,16,32,89,75,9,-20,-32,2,65,-3,18,5,21,30,36,9
1490228205970,35,20,-78,15,-1,-20,42,33,70,-30,89,9,14,37,-31,-9
1490228206017,-113,-42,-2,1,-40,-4,-86,-53,9,17,113,127,46,40,49,12
1490228206065,10,-17,85,-116,-19,-32,-3,-12,-24,0,24,16,-54,-23,-5,19
1490228206114,60,13,-11,105,63,30,23,-14,-45,59,102,13,20,15,-2,-14
1490228206162,53,51,-58,-44,40,-43,17,47,65,127,100,127,70,59,-3,-2
1490228206163,-111,-69,-55,109,-37,-74,-56,-27,-46,9,-35,-81,-18,-11,73,20
1490228206212,53,69,-49,127,36,37,37,45,-21,-128,-124,-128,-40,36,-53,-47
1490228206261,127,120,127,98,23,-18,27,9,127,87,-74,51,67,0,29,63
1490228206309,-128,-106,-26,-128,-19,95,16,15,124,-10,-25,-49,-41,-39,1,4
1490228206358,87,74,-128,-94,-15,-48,19,33,-117,-128,41,69,-44,-6,-23,-34
1490228206408,-128,31,122,-57,-11,-28,79,22,46,88,-65,127,118,69,12,21
1490228206410,-49,-80,-70,-67,-21,20,-118,-30,11,8,86,42,-41,15,120,26
1490228206456,86,-9,-45,36,-39,18,7,-8,-128,-37,54,59,33,-37,-14,21
1490228206508,-115,20,47,127,37,56,67,68,-77,-85,16,-116,-49,-38,-20,-51
1490228206553,-31,2,37,-33,-11,6,74,66,95,52,32,8,16,-10,43,36
1490228206602,75,120,-120,-75,-28,-27,63,54,-49,-102,-59,-91,-25,-37,-66,-104
1490228206651,-10,124,123,-27,-22,47,35,-2,103,1,-116,-15,10,36,-9,8
1490228206654,52,25,57,-27,48,32,17,22,127,127,26,127,-125,-79,6,4
1490228206699,-19,-23,57,76,8,-38,8,-41,-1,67,43,55,30,10,-54,-40
1490228206748,-26,-92,-83,-28,-91,3,-72,-22,-92,55,57,-5,-29,-20,-24,-34
1490228206797,-78,102,68,-46,42,-8,-65,-45,10,29,94,-11,-53,-47,73,56
1490228206845,-14,-51,84,-87,46,4,-33,-91,62,-106,8,-71,-70,-51,-91,43
1490228206847,127,-73,-128,-8,15,37,127,113,-128,-51,-128,-98,-62,-33,-47,-92
1490228206894,-85,17,47,92,-27,-2,-20,-11,95,24,21,87,2,63,14,28
1490228206943,-57,-94,-49,-30,-53,-7,-35,14,-46,-57,-7,-109,-54,-40,1,-32
1490228206992,-30,2,28,-59,-23,-1,16,-3,-93,111,19,120,90,-21,32,-51
1490228207041,77,-17,27,38,70,0,-25,-71,-6,7,-128,-99,-91,-64,-2,39
1490228207089,-86,-69,127,113,54,23,37,-13,43,69,32,1,-46,-12,-14,-8
1490228207092,-19,-36,-77,-76,-15,-24,-28,-12,-34,-8,91,109,-27,-26,24,12
1490228207138,92,85,45,-44,35,18,-66,44,-85,14,-1,98,26,15,23,-70
1490228207187,-20,-18,-61,-56,-22,54,64,-19,-1,-60,2,29,-5,-5,-11,6
1490228207239,13,82,95,102,59,-29,-17,-2,101,120,-105,-14,102,25,39,70
1490228207284,-59,-24,49,2,-31,-5,-16,-52,8,34,-35,42,0,-37,4,8
1490228207332,12,-8,28,15,-3,-35,-4,-5,50,86,127,122,66,40,25,82
1490228207334,-29,-113,-72,-106,23,43,-9,-9,-10,9,59,-61,-42,-12,-10,-25
1490228207382,20,12,-28,7,6,-22,-12,0,11,23,8,-31,-60,11,3,-7
1490228207433,31,48,71,42,42,25,12,7,-35,-81,-106,-128,-64,-57,-18,-6
1490228207479,-16,-10,-119,-84,61,98,50,-1,-50,-13,24,-10,-34,-3,33,-15
1490228207527,27,35,97,63,-10,-13,5,15,-29,-15,-59,1,81,25,-37,-16
1490228207529,-8,16,-36,-109,-74,58,-61,-16,27,14,12,-53,-91,33,32,-9
1490228207577,-21,-7,-8,-38,32,-37,7,-17,-35,-17,38,8,23,-52,97,43
1490228207625,28,48,29,68,-68,-57,-11,37,-38,6,-21,-14,22,90,-40,-41
1490228207675,10,-15,-16,-49,31,50,105,24,-15,-19,-19,0,-48,14,-29,-8
1490228207724,9,-4,-37,-15,-2,67,89,7,-7,-7,-39,-32,32,39,84,23
1490228207772,-6,14,8,16,-4,-5,-45,-13,-13,-14,-5,50,-73,-66,-14,-19
1490228207774,-19,-8,-17,80,40,-70,6,0,-18,-23,-41,-58,127,96,-128,-38
1490228207869,-18,-12,20,-107,-102,44,-3,13,-20,16,18,0,1,-33,-41,28
1490228207870,-22,-6,-2,27,-95,-65,-28,-19,12,-29,-54,-24,39,41,6,-14
1490228207918,31,8,-6,-2,18,-89,22,12,-6,2,-3,14,-53,-128,-20,-5
1490228207967,9,-4,-10,32,85,21,-26,1,7,1,2,-10,57,29,53,22
1490228207970,-4,-4,-11,-22,-5,35,-97,-4,-4,-17,-4,-1,-32,-25,104,-22
1490228208016,14,9,-12,15,-50,-5,7,-3,8,28,-20,-45,33,2,-73,8
1490228208064,13,7,-16,-12,61,25,-1,49,0,2,5,9,-32,-7,-44,-17
1490228208113,11,9,13,-6,-17,-2,45,24,-6,2,0,-4,-4,0,-5,-27
1490228208162,-3,9,7,21,-38,-18,-11,-15,-11,2,2,-30,-58,-103,-14,16
1490228208210,3,56,7,5,69,119,14,-128,-91,-56,-10,-6,31,127,-5,30
1490228208259,-48,-80,-36,-23,-37,-103,25,127,58,36,28,9,21,-118,19,-5
1490228208261,-102,4,1,21,2,-56,21,-84,105,-45,10,18,-1,-90,-34,-19
1490228208308,8,-3,33,57,28,-79,-44,-47,-33,66,73,106,10,-67,60,109
1490228208357,-62,22,-87,-83,29,105,64,-33,-3,-25,45,-107,-46,40,-60,-95
1490228208406,-20,-34,-48,-85,-21,-45,-46,2,-76,-84,-128,-75,-5,23,127,-32
1490228208455,7,76,26,-13,-16,6,22,-56,127,66,-29,120,53,53,-47,38
1490228208456,-109,16,70,97,6,2,-128,27,114,103,89,64,-26,-38,3,5
1490228208504,-104,-103,-39,-104,-32,30,97,-35,-27,3,53,48,-53,-29,-115,6
1490228208552,47,28,108,37,38,-5,-8,27,-79,-86,-128,-83,-54,4,0,-19
1490228208601,-7,80,-61,127,40,28,68,53,-39,-27,125,-128,-11,12,-7,31
1490228208649,5,-34,90,70,7,-37,3,-73,-44,-92,-128,-128,-27,38,-105,-85
1490228208652,-8,-11,-119,-128,-58,-33,-23,-36,-54,-55,55,-34,-33,7,3,38
1490228208698,-77,-9,1,30,4,-5,111,-19,127,126,-15,-26,16,13,-19,47
1490228208747,19,-128,-128,60,37,2,69,29,26,29,-17,-85,-49,-13,8,-55
1490228208796,113,18,58,103,-9,-1,-1,63,-83,44,54,81,11,-10,30,-40
1490228208845,1,-8,78,2,-1,-40,-16,15,-68,95,-117,85,24,1,30,-8
1490228208892,85,56,48,107,11,15,-4,40,7,-48,-100,-59,14,0,-23,-46
1490228208894,-114,43,-3,-97,-39,8,-11,-30,73,23,-73,-25,-26,-17,-85,-18
1490228208942,84,-16,-83,31,11,-11,-17,25,-22,-104,-103,-128,-51,-28,-66,12
1490228208991,35,42,3,-53,2,-13,-20,29,-5,-66,-20,-18,-14,9,51,-7
1490228209040,71,1,17,59,37,1,19,6,-16,29,45,33,9,-8,5,17
1490228209088,-30,-20,-78,-47,-20,-12,-1,-12,61,13,0,-11,-5,-24,-27,-17
1490228209136,21,5,1,0,-15,-4,-20,27,-76,12,28,24,21,-9,44,-26
1490228209139,67,43,34,14,-1,-12,16,-17,-22,-7,23,42,31,18,24,-10
1490228209186,79,-2,-9,-20,-16,-20,-54,-2,-42,3,-10,5,22,0,38,-10
1490228209235,-1,-19,-4,19,46,23,12,24,-27,4,7,-13,-24,-18,-36,5
1490228209283,36,4,4,8,6,-5,50,13,19,13,3,25,25,9,-15,12
1490228209332,-58,-19,0,-19,2,-5,-20,10,16,-18,4,32,15,11,34,10
1490228209335,3,6,-7,7,3,-40,-21,-15,18,1,-19,-33,-30,-36,-31,-7
1490228209381,9,0,-10,-25,11,17,-36,5,52,10,13,15,20,7,6,6
1490228209429,-10,-5,-2,12,-7,-8,-5,-6,-10,-6,-3,35,33,23,-2,4
1490228209478,-2,5,22,-20,-34,19,4,0,-8,1,35,-19,9,6,-11,-14
1490228209527,-4,-16,-1,14,36,-1,47,0,-16,-4,7,12,16,17,7,1
1490228209576,-13,-5,-7,-24,-5,11,-3,-7,75,2,1,-6,-3,-9,22,34
1490228209578,-57,-35,-9,-29,-17,-11,-5,-36,0,18,14,7,9,16,7,-8
1490228209625,-35,-7,2,-2,5,11,15,3,-10,5,9,18,17,13,11,-11
1490228209674,102,43,29,17,-6,1,58,25,-83,-37,-9,16,20,9,-4,-3
1490228209722,15,27,-11,-20,-18,-7,1,1,-80,-36,-23,-62,-14,21,-47,-51
1490228209770,20,9,-29,-15,-7,-2,-13,26,78,32,55,33,-19,-11,36,32
1490228209818,-12,30,22,37,21,44,24,-30,0,-51,-99,-35,-28,-14,-67,20
1490228209819,-21,48,40,-14,14,-5,22,0,4,-74,-95,49,8,-11,-43,2
1490228209868,-128,-86,0,22,20,8,-45,-64,127,127,127,85,18,-12,47,43
1490228209965,-24,21,-77,-105,-29,42,42,35,-85,-15,-1,-23,-30,25,-7,1
1490228209966,115,80,100,101,61,37,-9,22,-38,127,126,127,50,-38,18,-5
1490228210014,10,36,127,88,80,65,1,25,98,-60,-80,70,76,31,35,56
1490228210015,-128,-33,86,59,-18,-18,-33,-42,71,127,102,80,46,37,65,55
1490228210063,-103,-128,-72,-121,-79,-34,18,-89,8,37,48,22,-30,-10,-72,-10
1490228210112,-101,-71,3,27,13,2,86,-9,62,-16,0,-21,-11,-55,-44,-59
1490228210165,-8,50,115,85,77,-5,-37,37,124,113,-84,-36,44,-10,61,0
1490228210211,24,23,58,-20,1,24,-43,3,27,-74,-128,-5,-15,52,23,-9
1490228210257,75,87,7,-111,-104,-47,12,127,-128,48,39,65,36,-24,-21,-83
1490228210259,-125,-19,-64,-32,-3,-33,70,21,-37,110,127,31,5,9,16,-33
1490228210307,-13,-77,-116,-32,44,-51,35,-26,59,24,31,-125,15,6,25,-53
1490228210356,-32,-27,-128,-22,-52,-29,-24,-101,-64,-7,68,-122,36,65,27,72
1490228210405,127,-37,55,-64,-62,-100,-43,7,64,60,79,32,14,-12,-19,-22
1490228210453,102,0,-55,121,41,79,27,4,-72,78,86,-3,-3,-37,39,5
1490228210455,-37,-16,114,102,-24,9,-30,-54,-78,-92,30,72,44,54,5,-4
1490228210502,70,127,103,56,108,37,44,30,-76,11,-128,49,-77,-36,-2,-44
1490228210550,10,32,-36,105,6,-40,-45,105,-20,72,82,-128,-24,16,21,-91
1490228210599,-92,-3,1,-39,-83,-35,-72,-45,-9,53,-79,-16,-3,44,58,1
1490228210696,82,18,45,-21,-10,-11,-24,56,112,105,127,74,-1,55,-4,-14
1490228210703,-128,51,55,127,67,-3,61,-9,-3,-57,-128,-10,60,41,-1,25
1490228210705,-38,-113,35,91,-4,86,45,-36,122,127,-41,75,104,23,-44,-30
1490228210747,-118,-77,-128,-97,-12,-33,-66,-95,115,26,65,40,-34,-15,-11,51
1490228210794,32,21,-128,-85,2,59,43,45,-48,117,125,2,25,-35,-12,-64
1490228210843,56,50,35,105,83,65,8,42,34,-47,61,79,-12,-11,0,-23
1490228210892,-32,-10,-54,18,-128,-55,-21,27,22,63,-37,-89,-26,-38,-34,-30
1490228210989,127,72,-70,127,42,-38,-50,75,-16,-18,-80,-116,89,75,74,81
1490228210990,-26,31,-119,-72,98,18,49,-37,127,112,127,0,2,-1,29,19
1490228210992,-99,-128,-100,-36,91,45,25,-76,44,-77,-7,-56,-89,-48,-67,27
1490228211038,127,127,77,-105,-24,29,76,25,-60,94,122,127,48,-34,26,33
1490228211087,-48,-118,-41,6,-54,-56,-69,-62,124,127,127,127,-41,0,29,-40
1490228211184,21,8,-128,-128,-88,-26,8,55,8,37,105,72,-80,-7,-34,18
1490228211185,87,-98,32,-53,125,26,-21,33,-56,18,-20,-30,-18,-8,-22,11
1490228211188,-12,-30,-74,-103,-43,10,37,-15,-40,-48,-81,-68,-22,3,-18,5
1490228211233,-26,-17,-50,-25,-60,11,40,-12,43,-57,9,122,51,-35,-67,-25
1490228211282,-128,47,-62,-103,-23,21,-9,-59,-55,14,-48,-53,13,20,28,60
1490228211330,127,51,-3,-10,-80,-35,0,31,13,-106,-118,-100,68,-28,9,-31
1490228211378,61,-21,-46,-79,-99,-33,-41,-44,-128,-128,-99,-78,-88,-54,-34,-17
1490228211380,-3,-18,17,85,-10,-48,-9,-12,-43,-69,-56,-74,5,29,-64,-5
1490228211428,-3,53,-82,-107,-69,-24,4,-4,-106,-92,-24,-91,-53,-1,3,13
1490228211477,-13,101,74,127,86,-34,-5,16,127,51,-47,-45,92,25,50,52
1490228211525,58,71,127,105,59,-41,12,27,-123,-127,-128,-103,-128,-70,-52,-43
1490228211574,6,36,-23,-64,-75,-13,18,22,26,-43,-40,-128,-27,-29,38,1
1490228211622,26,-40,35,117,70,72,22,26,-67,-56,-103,108,-78,-41,-54,-19
1490228211625,13,76,76,48,-53,13,-38,1,-8,90,123,127,63,44,29,9
1490228211672,-37,-50,-107,-128,-67,-12,6,14,-6,-111,-128,0,0,-42,-23,-24
1490228211721,1,34,38,65,66,-4,14,-7,32,48,31,26,63,48,24,10
1490228211769,19,-21,29,46,127,-34,4,-5,8,20,14,-52,-125,33,22,21
1490228211817,-31,-26,-13,32,79,-16,-25,-10,8,17,28,99,94,43,-43,-21
1490228211819,-29,-11,-39,-125,8,31,-2,-4,-1,21,17,36,-105,-128,0,-20
1490228211867,37,15,22,64,-6,81,1,22,-51,41,60,16,-83,-85,-87,-23
1490228211916,-10,-34,-68,-38,77,64,127,27,-24,-22,1,-38,14,-84,-61,-8
1490228211964,12,24,45,13,-21,-128,-14,9,-39,-10,28,2,25,-41,50,-19
1490228212013,-4,-51,-104,-116,55,106,13,-8,19,-19,-41,-7,-43,91,0,-15
1490228212061,25,16,-39,-26,-84,-44,-5,-7,-9,22,-13,68,11,-5,12,4
1490228212110,4,3,-14,61,82,-2,53,13,-41,16,-47,-6,14,-2,-19,-11
1490228212111,2,-14,-26,-19,77,-25,59,20,19,2,39,6,-21,0,-31,-18
1490228212159,-26,-8,27,9,-39,3,8,-25,23,1,11,7,44,-4,13,10
1490228212208,12,15,-27,-30,-32,-2,-30,-16,16,19,-14,-9,62,-6,-56,-7
1490228212257,21,10,11,17,11,0,-85,12,12,26,18,23,11,1,-11,15
1490228212305,-10,2,-9,-3,-29,-2,-25,4,1,3,9,5,-2,3,-53,-10
1490228212307,-13,3,14,6,16,3,-25,-16,11,2,16,42,-17,-1,53,0
1490228212354,17,0,3,-14,-26,-4,-9,7,-13,-10,-5,-3,11,-5,11,-1
1490228212403,17,-2,-3,-6,0,-96,30,8,39,31,22,-13,-38,96,-27,27
1490228212451,42,-2,-27,-9,-12,115,16,-3,-42,9,23,-27,-27,122,-66,-8
1490228212500,-60,-8,-14,-27,9,48,68,-4,10,-44,-17,-11,-4,-42,26,1
1490228212501,36,42,54,53,41,-80,-5,10,-42,27,91,114,46,-28,7,10
1490228212549,69,71,16,-32,-19,120,-29,-52,-57,-52,-128,-63,-19,127,31,-1
1490228212598,80,119,115,-2,15,127,-5,39,-59,-33,-41,-79,-9,-26,-7,-6
1490228212647,-46,-60,-102,-39,-13,-68,-39,-102,60,81,116,-4,7,-20,78,26
1490228212695,42,-88,-62,-14,-24,35,26,9,-56,-2,-53,38,9,-19,-22,-56
1490228212744,-8,25,11,25,-20,7,57,-63,-19,-108,53,80,42,-10,-16,68
1490228212746,23,70,40,90,46,-15,-24,-9,1,-97,-74,-70,-41,-24,-2,0
1490228212793,62,-15,-109,54,9,27,-32,12,-29,-128,-102,-85,-41,-65,-52,-60
1490228212842,2,96,66,-51,-38,-31,-15,51,87,112,127,58,45,16,13,94
1490228212891,-41,-89,-86,-103,1,27,-12,-113,62,-101,-18,-15,-100,7,-36,79
1490228212939,-41,-55,-128,-108,-90,-55,-26,-21,9,-128,-128,-71,-6,13,-37,-58
1490228212987,-48,35,21,92,34,3,9,-68,-128,-14,37,-15,-6,5,10,-8
1490228212990,45,113,127,89,81,36,15,3,-14,-107,-106,-20,-15,14,-1,59
1490228213037,-27,-1,-50,74,-35,-32,-35,-20,-84,-38,-128,-81,-29,-37,49,-19
1490228213086,52,30,-8,-17,-14,-28,23,61,-101,-73,-64,-22,-31,45,-22,-61
1490228213134,8,11,12,-76,-17,-2,30,-4,-10,42,-22,13,-4,-12,-20,-16
1490228213183,-2,127,127,121,9,14,-21,-17,32,-76,-113,84,39,22,60,33
1490228213184,-88,-74,88,39,25,9,1,2,45,25,26,67,0,-14,0,-42
1490228213232,119,13,-56,127,13,0,7,-17,-126,-36,-50,-18,-16,-5,38,-26
1490228213281,52,-6,22,-42,-1,8,-60,-62,-81,46,-2,-2,4,27,18,34
1490228213329,1,-14,16,40,11,-5,7,14,-12,-23,42,50,-36,-22,-38,10
1490228213379,-52,-7,-42,16,-3,-9,-1,1,70,19,27,-51,-27,7,23,-2
1490228213427,17,7,36,68,26,19,-24,12,0,28,75,50,19,16,-6,25
1490228213433,9,-4,-27,-12,-7,-5,15,-1,-26,-5,-9,-14,24,2,9,-11
1490228213476,-72,0,-4,-20,24,9,8,-1,18,13,29,-2,2,3,8,-7
1490228213524,-7,16,2,4,-12,18,-4,-2,19,7,-17,19,33,17,16,-3
1490228213573,-48,-22,2,11,-15,17,-12,-10,44,28,8,16,-9,-2,16,17
1490228213621,2,-1,5,-15,-9,-3,24,10,-25,1,-4,-3,-10,-25,-20,-10
1490228213670,-39,-17,16,-12,-11,-17,8,-5,35,-19,7,-11,-24,-20,-45,-8
1490228213671,42,8,4,27,20,9,31,16,-14,16,0,0,-4,13,15,-17
1490228213719,5,11,4,2,41,-8,17,-2,-19,-14,-8,-57,-33,-9,6,-12
1490228213769,-22,-13,9,16,-23,7,-19,-26,-10,5,-1,8,3,-1,20,1
1490228213818,10,-8,2,0,11,2,-19,2,-10,-22,2,-3,-6,-5,-17,-6
1490228213866,25,7,2,-14,-26,9,-12,-1,-79,-21,0,17,4,2,7,-24
1490228213869,-8,-3,7,-4,-24,-20,-22,-12,15,13,1,2,15,-3,7,7
1490228213914,-15,-12,-16,4,19,-14,-13,10,88,14,6,2,3,-3,5,25
1490228213963,-10,-10,-12,-1,19,-14,-10,4,-25,-12,-4,-10,-18,1,9,1
1490228214011,18,-6,-6,11,25,-8,-6,5,23,7,-1,-3,-7,-2,-15,-4
1490228214060,-35,-18,-13,-28,-32,-25,-27,-15,73,2,1,9,33,-11,9,8
1490228214109,53,12,-5,-9,-25,-13,13,21,-62,-29,-16,-2,8,-3,16,-5
1490228214110,-34,15,13,12,17,32,0,-1,59,-8,-14,-27,-21,-31,16,18
1490228214158,9,-8,-23,-8,3,14,-66,-26,-29,4,18,-10,-4,4,65,14
1490228214206,-8,-56,-17,66,11,-11,-24,30,26,67,32,21,-9,-5,-5,-2
1490228214255,33,23,-23,44,27,-4,34,-8,-4,6,119,127,-32,-61,-92,-66
1490228214303,-82,-91,-75,-97,-58,-21,-62,16,52,-54,-4,-128,-34,-13,36,-1
1490228214304,-86,53,66,8,-16,-48,-57,-15,-77,-61,-117,-5,-35,-22,28,24
1490228214353,122,78,53,38,38,26,80,61,14,-16,-27,67,30,0,-59,13
1490228214401,64,-88,-85,75,20,-23,-53,-19,-84,-75,-99,-128,-101,-21,8,-76
1490228214450,35,-78,80,-44,-69,-55,52,-4,115,113,127,117,51,8,-84,-27
1490228214502,43,60,78,39,23,77,30,33,-74,-100,-105,-128,-93,-16,-14,-3
1490228214548,56,127,-37,72,93,23,22,66,116,-45,-107,-79,-13,-5,19,-49
1490228214596,-58,68,101,120,60,22,-80,-52,-43,-57,-44,69,38,-27,41,23
1490228214598,-17,-48,-66,48,17,-10,-59,-20,-59,-45,32,-15,-29,-22,17,-27
1490228214646,-58,-88,-48,-93,44,40,105,-55,15,-32,118,119,14,41,-11,-44
1490228214694,-86,12,39,-36,49,82,51,41,127,127,127,70,-3,83,-12,38
1490228214743,-26,-106,125,127,16,37,31,-19,-114,-61,-118,2,3,-34,-46,-41
1490228214791,-49,-20,105,68,7,6,49,-51,-97,40,-97,74,-38,51,-73,-20
1490228214793,75,72,49,-115,-76,4,69,0,101,127,127,37,0,-74,30,58
1490228214841,22,-128,-128,-127,-4,-31,-87,-6,-38,-90,-89,-78,-48,-49,-51,-46
1490228214889,-25,54,-38,-23,-2,11,-62,-36,-69,21,123,46,35,16,64,-14
1490228214938,40,64,39,-50,-57,-46,71,24,127,123,42,45,92,95,-1,1
1490228214986,51,-94,127,59,-8,70,-48,94,-96,-17,55,-66,-115,34,37,-61
1490228214989,127,77,-110,106,-4,-61,41,72,-128,-107,-74,70,106,45,-54,-69
1490228215036,-25,81,55,83,-25,18,-10,2,-32,106,-93,6,-30,-75,-72,-52
1490228215084,127,119,127,34,66,40,34,53,-124,-113,17,12,-84,-13,31,24
1490228215133,-128,-128,-119,-56,-80,-97,-70,-67,127,127,30,54,56,94,48,20
1490228215182,-90,57,86,-76,10,53,74,-106,24,-10,-4,-103,-44,-40,-35,38
1490228215230,-36,-42,-128,-45,-92,-54,-81,21,-24,-5,-121,-128,22,41,0,-48
1490228215234,74,-58,-77,126,64,10,20,-2,-121,-25,88,-8,-22,-13,-45,-11
1490228215280,12,-90,-66,-70,-51,-46,-3,23,-4,19,13,50,30,-7,-28,-13
1490228215328,24,127,127,-9,55,-33,-43,-14,35,41,48,60,49,67,42,17
1490228215380,-1,57,39,85,81,4,4,-13,25,17,104,9,55,-16,-38,-26
1490228215427,69,49,-72,-27,-45,14,23,8,-28,-115,-111,-88,-102,4,-42,-11
1490228215474,10,43,16,-23,-7,12,-10,4,44,20,-22,-15,-51,-14,5,7
1490228215475,13,-3,20,5,-35,-28,-51,17,16,51,56,39,-32,-2,25,-9
1490228215523,-37,17,69,116,-69,51,-45,-36,29,25,32,62,38,-75,52,21
1490228215572,9,-6,-16,12,-40,-87,37,14,-23,19,5,-32,-13,96,-15,-2
1490228215621,33,29,41,50,-34,34,7,27,5,6,-17,-61,15,0,30,20
1490228215670,-14,7,-35,6,95,22,-3,-12,14,16,25,44,-36,-21,23,11
1490228215671,-47,-32,-53,-67,70,16,57,-7,11,-10,-3,-30,22,91,109,17
1490228215718,18,35,103,46,-128,-33,6,3,9,1,26,11,76,-28,5,10
1490228215767,-28,-18,-13,-7,-97,76,20,-26,-6,-24,5,24,101,127,45,-15
1490228215816,23,-9,-23,-10,68,-58,-11,8,3,-3,-12,-22,-10,-91,31,-9
1490228215864,-4,-19,35,61,34,-45,-14,-12,33,-4,0,-27,-6,-1,28,2
1490228215913,-3,5,-18,-47,28,-1,2,-17,-5,11,-3,-21,58,-10,-70,5
1490228215914,-14,-16,-27,-49,-70,-7,-29,-6,5,-13,8,62,30,2,100,19
1490228215962,-3,1,8,25,39,-12,65,9,-22,-22,-37,-24,-55,-7,-5,-9
1490228216011,20,29,36,44,-21,12,-22,11,-4,-12,-7,-21,-37,-1,-109,-32
1490228216059,-4,11,-5,-16,-31,-3,-34,-2,-10,9,-5,4,53,-4,3,-1
1490228216107,-4,0,15,22,49,-3,-75,-10,5,5,0,-22,-39,-2,1,8
1490228216109,-31,-2,13,21,45,-1,22,-34,24,13,14,25,2,-3,20,22
1490228216157,16,3,12,8,14,-6,17,9,-6,11,12,18,-42,-8,12,1
1490228216206,-7,5,6,26,-6,4,-27,-6,24,9,-3,-8,-7,-1,41,24
1490228216255,6,32,43,5,-32,69,32,26,-37,-39,-18,-20,10,127,-22,-16
1490228216303,15,20,-20,26,-28,-128,-40,-11,-2,-1,-2,-31,14,4,4,21
1490228216351,-30,-14,62,10,-15,-68,39,27,-10,-27,-48,38,28,-79,27,34
1490228216353,119,75,77,37,88,126,-37,11,-125,-42,-75,33,-7,127,-57,7
1490228216401,-54,-23,2,-13,-36,-34,71,-2,56,95,125,127,40,-21,-33,-27
1490228216449,35,0,28,-70,-2,-54,-70,-5,69,34,-44,-13,0,-81,71,71
1490228216501,-115,-64,11,29,6,-21,-7,-6,92,92,122,127,65,-23,22,-8
1490228216548,-66,-57,-104,-88,4,-44,-41,24,-66,70,32,-62,2,17,16,31
1490228216595,-116,21,-116,72,37,-4,-18,-66,-89,-46,38,93,46,21,39,19
1490228216597,-48,9,97,72,-12,3,-22,-61,90,-50,-128,-53,-13,-23,19,40
1490228216644,31,-14,10,-125,-45,-36,-90,-33,56,18,-83,40,-26,-5,25,118
1490228216693,-79,-46,-116,97,26,7,23,1,-88,-9,111,3,-21,22,50,-58
1490228216742,25,45,77,79,22,18,59,-50,-128,-114,85,4,13,-29,-116,-24
1490228216790,-56,-86,-69,-22,-24,-38,2,-32,74,114,71,23,-19,-9,-10,-20
1490228216793,81,80,105,127,55,24,-2,-77,23,-18,-110,37,-17,-6,-4,-5
1490228216839,63,41,74,90,23,11,55,68,106,23,-32,-4,21,19,2,64
1490228216888,-18,1,-18,-120,-32,-1,-23,-5,100,30,-26,-23,6,15,-25,4
1490228216937,-35,-40,-59,-44,-2,29,-6,-7,25,26,127,45,-3,15,8,31
1490228216986,59,10,-72,43,26,17,-17,-34,23,-45,-81,-73,-45,-16,-31,-8
1490228217033,-71,-26,-46,-38,-19,-28,35,32,43,18,32,-31,7,5,-61,-11
1490228217036,-26,38,70,30,-11,-12,-19,-1,-38,-2,103,107,40,20,62,28
1490228217083,-27,-22,-22,-73,-46,-12,35,-35,-7,2,12,6,-22,-11,-87,-17
1490228217132,39,8,24,3,-9,-23,-21,10,41,39,-29,25,0,-21,11,0
1490228217180,-4,1,15,-62,-70,-25,0,-3,18,13,-23,-22,22,21,20,9
1490228217229,-42,7,-14,6,20,18,-23,-21,10,-6,18,-1,-14,7,30,7
1490228217277,-5,-33,-3,-1,-24,-35,-14,-15,-20,-16,-3,-8,-8,15,42,21
1490228217326,-8,21,21,-38,-16,27,37,-9,10,15,23,0,20,0,-14,4
1490228217327,7,-22,12,26,-1,4,-20,9,3,5,12,13,-11,-5,-7,-6
1490228217375,-4,2,5,13,18,-14,10,-6,46,5,7,-17,-47,-26,19,8
1490228217424,-1,-13,-5,-34,-13,-2,28,16,-50,6,9,0,19,-10,39,-15
1490228217472,-2,-14,-2,-4,2,0,8,11,-26,8,16,18,29,22,-9,0
1490228217474,-15,-2,-4,0,-9,-19,-47,-2,-12,1,1,4,6,13,45,-16
1490228217522,35,15,7,-2,-2,-2,3,-7,5,3,3,-4,-2,1,-7,-7
1490228217570,31,18,5,3,19,5,9,7,-50,-20,-6,13,6,6,-15,-22
1490228217619,71,22,-7,5,-7,15,-2,10,28,-17,-9,5,3,7,10,23
1490228217668,-71,-12,6,9,3,-4,-20,1,43,24,10,14,-1,-1,14,31
1490228217716,28,21,21,18,24,30,-38,21,10,-12,-35,-18,-18,-13,19,-19
1490228217718,91,52,8,54,25,-12,-15,20,74,39,-24,-11,-3,-24,-55,7
1490228217766,-12,-31,-39,9,-16,-36,28,8,106,27,26,53,18,2,-76,96
1490228217814,-90,5,-15,-53,2,49,-13,21,55,-50,43,-14,-5,-24,62,67
1490228217863,104,-10,-9,46,-15,-46,-78,-62,-107,-1,38,-29,16,-9,25,20
1490228217960,73,32,-40,-128,-21,-36,100,34,-119,15,38,5,-18,-5,-19,46
1490228217961,-85,-79,61,6,22,50,50,-46,82,105,119,117,25,-15,6,31
1490228217962,36,-70,-94,-128,-95,-47,-21,7,69,-12,50,-88,-79,41,54,-9
1490228218009,-74,-113,34,-85,-49,-57,-47,4,81,127,75,127,51,67,81,-87
1490228218058,-56,32,-39,-77,-57,-21,11,-4,27,-23,109,83,-6,29,-26,5
1490228218155,-85,-101,110,-69,-18,12,10,53,97,61,-43,-17,35,0,107,-27
1490228218157,79,127,29,127,76,10,21,16,127,95,83,106,69,-22,-7,76
1490228218158,64,-52,-107,-85,-22,-8,51,33,-128,16,108,-2,81,2,-39,-14
1490228218204,6,-9,103,-50,-39,-56,-77,-57,73,7,-2,25,-19,17,-23,-28
1490228218253,-79,33,114,127,127,38,15,29,41,-31,-128,-98,-35,9,70,48
1490228218302,-40,110,119,127,92,8,49,45,-124,-83,-95,46,-14,-10,-10,-53
1490228218350,104,62,78,39,-23,81,52,57,-23,75,-49,95,53,-28,-30,-49
1490228218398,-99,-55,70,-43,-3,102,43,15,115,54,112,73,22,58,51,-18
1490228218400,-37,-60,29,-62,-22,-35,-84,15,-83,66,-4,-40,-49,34,92,17
1490228218448,-90,-128,-128,-110,58,31,6,-85,116,92,43,-89,-59,-33,75,-2
1490228218497,43,-1,-49,17,-19,-73,76,56,-78,-125,-128,-128,44,15,-70,13
1490228218546,127,127,-31,-39,29,32,-112,2,-45,-15,-25,19,52,49,65,64
1490228218594,89,14,-17,-31,46,28,-118,-55,56,-47,-49,-91,-50,-19,121,82
1490228218642,101,108,-13,127,55,-28,-57,-14,49,76,-26,-48,6,53,58,3
1490228218644,-55,8,127,43,-19,10,84,78,45,-70,-67,127,68,-19,-128,-30
1490228218692,121,-25,123,12,-122,16,112,21,-99,38,-51,-61,76,-38,-83,-67
1490228218741,-85,-8,26,-21,-30,6,-57,-64,105,93,102,110,-17,-20,-72,-71
1490228218789,-5,-10,-128,-111,-28,26,75,-5,-14,-128,6,-115,-100,-96,-67,41
1490228218837,-128,-5,-89,-33,6,27,-56,-44,29,-17,-80,-40,-1,-28,74,46
1490228218839,127,58,97,-34,-47,49,105,35,-128,-96,-7,64,35,-12,33,-8
1490228218887,11,68,-30,-93,-6,-32,49,13,-73,-70,16,105,9,-10,-45,10
1490228218936,-9,11,45,-43,-105,-95,-13,98,-27,78,-128,-78,-30,29,-21,-65
1490228218984,-68,-110,17,-128,-5,35,60,-43,-50,-1,69,6,-24,9,1,66
1490228219033,84,-105,127,58,-109,-43,-54,0,-75,-41,-106,-66,82,84,58,-45
1490228219081,-128,-125,-128,-43,-62,-54,13,-23,-7,-117,-59,-128,9,-59,-15,-36
1490228219083,-128,-45,40,-79,49,-12,-80,-118,127,90,-34,-68,-128,-49,14,47
1490228219178,-11,46,-103,11,-42,-27,-52,-32,127,51,87,95,74,13,24,25
1490228219180,-11,-11,-45,-109,-80,-78,30,8,-123,-96,-128,-34,-12,-54,-33,25
1490228219228,75,57,-80,-6,-3,-6,94,-8,-12,78,127,-81,47,75,0,12
1490228219276,77,85,-24,127,24,-10,-38,0,1,-8,71,68,20,10,16,26
1490228219277,108,92,-128,7,35,-29,-74,60,-47,-30,101,100,29,-23,67,7
1490228219326,-51,36,127,59,7,49,-75,-17,95,7,-128,-44,-21,-56,-36,19
1490228219375,-1,55,83,58,-93,5,-54,39,-121,-18,99,95,93,0,39,-15
1490228219423,-74,6,-73,9,60,-20,-27,2,73,-16,-128,-63,-36,3,-45,19
1490228219472,19,-77,43,-78,-97,-91,85,28,51,-104,-46,-81,-128,-28,-106,-35
1490228219519,-64,-39,101,33,15,-8,-37,-30,-19,-55,-27,64,54,26,-7,17
1490228219521,14,-111,-33,70,-42,14,-27,19,59,127,127,127,127,22,74,54
1490228219569,22,-23,-23,-105,-48,3,16,3,-24,-85,-56,84,7,-93,-44,-23
1490228219618,116,98,-104,127,103,87,50,21,-23,86,102,-5,-39,-3,7,-19
1490228219667,98,65,-37,-34,-48,38,78,-2,-47,-112,-128,127,100,-27,-49,-35
1490228219715,24,-86,-118,66,67,-10,74,36,-87,55,43,-80,-16,34,1,-20
1490228219764,-105,-107,-79,-120,-99,-28,0,-27,-83,-125,-128,-128,28,-51,-42,-28
1490228219765,43,92,65,105,28,19,0,13,-4,-68,-121,-128,-104,-9,49,2
1490228219813,87,60,114,103,-53,8,-26,3,22,-57,-116,-90,127,68,28,5
1490228219862,8,-28,-79,-128,-122,-61,-7,-26,-23,-32,-39,4,-95,-63,-27,-36
1490228219911,14,28,43,41,104,-53,-69,18,-48,-74,-4,6,-20,46,43,-26
1490228219959,-61,-59,-16,-52,-81,42,43,-30,79,53,101,110,35,15,-74,29
1490228219960,-19,-7,-52,-65,62,55,-45,-24,20,17,9,-78,-126,-39,4,7
1490228220009,1,-25,-6,-1,26,-50,-21,16,-10,14,26,-61,-54,74,16,-23
1490228220057,-18,-6,-30,-16,-42,77,51,9,4,10,3,13,25,-41,-53,-3
1490228220112,-5,-16,-29,13,121,-15,-24,-25,1,24,63,-32,-128,-68,-4,-12
1490228220202,-13,-17,-43,75,63,-128,-62,-3,-18,12,17,119,49,-12,61,-26
1490228220203,-3,-2,32,24,-83,-45,16,8,-7,25,1,29,52,29,-38,-9
1490228220204,-13,-42,-23,-11,9,-83,28,-12,57,0,-19,18,-36,-72,-11,32
1490228220252,-8,8,75,124,2,24,-27,14,-18,-49,-87,-82,-47,49,7,-18
1490228220301,-1,-11,-52,-34,87,82,3,-11,13,21,-5,-71,-87,77,42,16
1490228220349,-5,-23,-44,12,106,38,-15,-9,-7,-10,-30,-45,-2,69,-67,-16
1490228220398,55,61,39,72,-128,-128,-33,19,4,2,-22,0,13,75,-21,-15
1490228220446,29,8,30,61,4,-28,126,32,2,1,1,-12,-50,96,-43,-13
1490228220447,12,10,43,33,97,-58,2,11,-2,-16,29,-3,-124,-25,-18,-4
1490228220495,-2,11,21,50,49,-16,-119,-16,1,12,8,18,53,-13,-87,-3
1490228220544,8,26,24,-21,-48,-15,28,4,-21,8,4,51,-28,-9,6,-8
1490228220593,-17,-8,-12,-16,69,0,-5,-20,15,-13,5,-12,-110,-37,52,7
1490228220641,0,4,13,59,34,-44,10,9,8,9,4,-13,-2,31,-40,-11
1490228220642,-39,-13,-18,-27,26,-67,13,11,13,-6,25,4,-6,15,6,-7
1490228220690,-11,11,17,30,-60,-21,-3,-12,15,-3,18,-1,46,20,1,12
1490228220740,4,-18,24,-26,4,114,63,20,0,50,62,67,-33,8,4,-9
1490228220788,4,-16,-8,36,10,-68,6,7,-75,-48,-103,-98,21,-39,-12,-30
1490228220837,115,111,9,17,44,-2,-12,-47,-91,-50,14,-3,-33,-5,7,16
1490228220885,-121,13,-34,-68,-5,117,30,-71,46,39,46,114,24,79,14,22
1490228220887,11,-85,64,73,-7,127,-13,30,127,88,-7,8,5,11,-43,29
1490228220934,28,-15,-1,7,4,-69,93,33,-87,-50,-93,-90,-19,-45,-72,-59
1490228220983,-109,-30,67,47,19,-1,-44,-54,55,32,-7,70,34,-7,37,43
1490228221032,46,-33,-118,-128,-51,-22,-54,-72,-57,82,106,103,9,22,26,21
1490228221081,-128,-102,-99,-128,-53,-39,-35,-94,51,42,116,-6,-1,44,36,95
1490228221128,84,80,41,49,7,0,-4,66,-54,-128,-8,57,68,-1,-19,-17
1490228221129,18,-58,-9,-23,32,9,37,8,32,109,99,96,17,16,30,2
1490228221178,90,2,-119,-88,19,15,-20,1,38,50,-9,-70,-26,28,14,-16
1490228221226,-3,12,35,127,25,-29,30,-5,-32,23,59,-49,17,-11,-29,-59
1490228221276,-10,-39,46,58,41,6,3,13,89,6,-52,61,31,-6,-6,-30
1490228221324,2,-9,38,-37,-6,20,60,74,99,-11,-79,-6,4,-41,64,0
1490228221326,-128,-2,-64,21,-85,-7,-59,-4,-68,-71,25,41,-8,-12,-77,-49
1490228221374,64,93,127,66,40,19,-41,-33,-128,-111,-123,-68,-57,-10,9,36
1490228221422,24,127,127,-1,-19,0,14,46,-43,-86,-97,52,-26,-38,-27,-26
1490228221471,28,-29,-84,-62,-7,-40,-68,-72,-117,-102,-92,-103,-48,27,41,-29
1490228221519,-115,-80,-53,-128,-30,29,48,-15,18,47,115,13,-2,6,-29,-99
1490228221567,48,20,9,-64,7,17,-29,4,23,59,119,127,43,-12,50,1
1490228221568,-124,44,-38,-42,-5,-6,-35,-11,17,-109,-82,-29,-26,8,-14,34
1490228221617,62,-39,-72,1,-1,39,60,-1,-64,68,-4,-51,9,-1,-13,19
1490228221665,75,58,33,5,-15,-23,-3,-38,-35,-10,105,86,57,57,43,43
1490228221714,-128,-57,31,42,-17,-6,44,41,-16,6,13,26,-31,-32,-15,11
1490228221765,-10,-7,17,14,-12,26,-44,-22,23,-23,-65,-62,-12,-9,24,1
1490228221767,25,9,45,35,21,52,57,9,22,31,-29,-9,-20,-26,-3,-13
1490228221814,61,11,-3,25,-14,-7,-95,1,-19,-12,-15,-49,-40,-9,39,-10
1490228221860,-60,-9,-27,-55,-16,-29,-12,-24,32,-9,35,19,20,22,36,-14
1490228221912,-123,0,-27,-39,24,13,19,-4,109,14,13,-24,-39,1,-40,10
1490228221958,-39,-3,0,3,4,8,34,-9,44,32,7,24,-4,-7,-23,-6
1490228222006,60,-11,4,42,17,21,10,-9,-32,-14,-12,24,14,14,6,3
1490228222007,-58,-4,12,-10,-2,27,-37,-18,68,14,3,-14,-49,0,37,7
1490228222055,60,13,-10,-3,1,7,29,0,3,0,-7,-4,-12,12,-3,-17
1490228222105,-27,30,11,-24,13,-2,32,12,-17,6,13,-3,8,6,-42,-11
1490228222153,-27,-7,0,-15,-18,10,-12,3,7,-1,2,-7,-8,-3,52,7
1490228222250,-69,-9,-15,4,-18,-10,-47,-15,30,9,12,18,7,-15,22,9
1490228222252,38,12,6,-2,-13,-15,12,13,-27,-22,9,-9,-13,21,-11,1
1490228222253,8,-20,1,21,-12,-1,23,-12,2,3,-13,18,64,-1,-12,6
1490228222299,-59,-12,5,-6,18,13,41,5,34,-2,-8,-47,-116,-32,-34,-11
1490228222348,-7,-6,-7,-16,-13,-25,-15,-15,-40,-11,4,14,31,12,7,-20
1490228222397,-2,-4,0,10,2,32,-36,-13,8,0,-1,-14,-10,-17,33,-13
1490228222445,-13,0,7,19,17,-16,39,20,12,3,-2,-11,-23,-9,-16,-6
1490228222447,-46,-17,-6,-22,-29,-16,-21,-12,22,7,0,36,46,5,24,20
1490228222494,-9,-3,-2,-11,-34,-17,-93,-1,-69,-17,-3,11,41,27,96,1
1490228222543,-34,-6,-3,-14,-17,14,-8,-18,-3,-3,-10,14,14,-7,-95,-4
1490228222591,44,8,17,26,20,39,48,8,50,-8,4,-26,-23,-4,14,37
1490228222640,-45,-24,-23,12,33,-5,3,-9,-24,5,7,-5,-7,12,32,-15
