1490227718420,-12,-2,-88,-86,30,26,16,-29,-4,-28,60,61,-113,-99,-15,-3
1490227718468,-12,-8,5,10,3,-13,-7,2,-4,-9,-15,-12,26,12,8,6
1490227718470,-30,1,13,11,-18,-15,-2,-23,-2,3,1,-5,-1,-7,-29,-10
1490227718518,-9,-2,26,21,1,-56,-7,-8,5,13,18,-14,2,-56,7,5
1490227718567,23,0,2,-5,-2,1,62,23,25,30,-19,-18,-13,-7,-25,-5
1490227718615,25,19,21,3,-4,-6,-18,4,-10,-4,4,18,-1,9,20,-4
1490227718664,15,-7,-7,40,5,11,-38,-14,-10,-7,-32,-19,0,-2,26,-5
1490227718761,-69,-10,11,-7,-17,-2,-2,-44,43,-14,8,-16,25,36,23,1
1490227718762,8,-29,19,21,6,16,-32,16,37,-18,-32,-6,5,9,28,23
1490227718763,41,-69,-102,-1,4,12,14,-41,-67,-2,44,33,23,18,12,23
1490227718810,-3,-12,59,-29,-15,10,14,22,-116,3,-58,-17,-23,-12,27,-74
1490227718859,-11,-13,34,3,7,14,2,-30,-16,2,-20,-16,5,5,-46,-36
1490227718910,-64,-5,-9,-40,-13,-1,35,31,-90,-60,11,25,8,-14,-13,-4
1490227718911,68,46,116,114,48,41,-46,-44,113,-23,-48,-54,-1,8,10,-45
1490227718957,-64,-88,-44,-59,2,-16,71,32,127,46,42,120,3,14,-79,-58
1490227719005,-80,-119,-115,-69,-6,-4,15,-102,18,18,56,40,6,-22,51,109
1490227719054,60,33,-17,8,-18,-11,-27,17,66,10,-22,4,0,19,50,-25
1490227719103,127,-4,-76,-22,-52,-55,-70,103,-102,-108,-110,-36,17,22,30,80
1490227719151,-91,-28,127,18,17,-52,-26,-102,-4,-34,-19,56,6,28,-23,21
1490227719152,6,-102,-63,-74,3,45,-24,-67,-43,-1,-9,27,10,39,-30,21
1490227719200,-75,46,63,-51,-23,-25,-10,-28,-27,40,66,100,19,-40,-26,-39
1490227719249,28,-46,-119,-60,-43,22,1,72,26,87,104,32,5,-30,17,-93
1490227719298,-3,3,-84,-49,53,14,56,15,-66,-93,-50,-128,-69,-22,-23,-14
1490227719346,93,15,-75,-31,-42,-45,-75,-56,-7,-10,-100,-26,-29,-31,16,13
1490227719347,-11,90,127,89,33,7,-17,26,117,-55,-18,-54,-17,44,15,64
1490227719395,-2,-128,-81,-4,12,-6,-40,-17,-71,3,81,20,-20,-44,34,22
1490227719445,-65,57,55,80,18,9,7,-15,-17,-2,-128,-75,-33,10,-7,-10
1490227719493,50,72,-68,-84,8,30,92,77,-47,14,90,7,16,-19,-77,-63
1490227719541,24,-53,63,127,-6,-19,56,-6,-42,54,49,97,20,-13,-9,18
1490227719589,-33,46,87,17,29,33,10,-34,76,-21,-121,116,-2,-1,11,46
1490227719591,87,101,127,127,49,29,6,23,-21,-25,-78,-99,3,39,21,17
1490227719639,68,96,43,57,41,-2,32,40,14,21,100,26,-1,-37,22,1
1490227719688,64,23,-6,32,2,-3,38,24,-52,-4,27,43,12,2,-27,-20
1490227719785,-35,33,-39,-114,-30,-33,-5,-69,-53,-51,72,23,-40,-55,-36,16
1490227719786,58,58,94,66,15,-19,19,45,5,-6,35,76,16,12,21,5
1490227719833,27,-45,-25,2,18,8,-24,12,-14,-2,-62,-104,-27,-56,17,-8
1490227719834,-5,19,19,-21,-19,13,13,-24,42,40,77,127,53,-36,-25,6
1490227719883,1,22,-29,-76,-44,30,30,-3,-23,19,-62,-20,16,62,-33,-25
1490227719932,-35,-46,-24,23,12,-1,-42,-18,8,3,45,44,-30,-13,6,14
1490227719981,7,-14,-29,-71,4,86,-4,-6,-46,-88,-112,-18,-43,87,-47,-19
1490227720028,-12,-8,-53,-46,-40,42,-24,-29,4,1,17,-45,-34,26,-28,0
1490227720077,7,30,-20,0,28,72,6,16,-6,82,5,10,41,-59,25,10
1490227720078,-24,-13,-52,87,-6,33,-2,12,-23,-6,31,36,3,-19,-15,-4
1490227720127,-32,43,21,-60,31,-19,-17,-5,-8,50,21,-55,57,53,6,17
1490227720175,36,3,17,21,-47,53,39,-24,85,11,15,45,-43,60,-92,-17
1490227720224,16,16,30,51,57,21,5,-27,29,29,19,24,-74,-78,38,-11
1490227720272,0,-18,26,-7,2,77,49,20,5,-33,2,38,11,-10,-40,17
1490227720273,22,-15,-26,1,27,49,-13,3,28,-8,8,19,-9,-128,15,18
1490227720322,-21,-7,5,-24,4,54,10,12,-4,-7,11,50,98,-55,-41,-5
1490227720372,-22,-21,-11,25,-8,34,-52,-2,-5,6,-3,-26,-33,127,-34,-6
1490227720419,-3,-4,3,-18,10,36,39,9,2,-10,12,32,33,-63,23,-4
1490227720468,-4,2,-1,15,32,-113,-6,2,2,8,-10,-47,-44,-1,-72,9
1490227720516,18,2,-6,-9,-21,-7,22,12,9,4,14,36,25,-31,10,4
1490227720517,-67,-5,-9,-20,5,-45,10,-23,-20,-58,-21,-20,-41,-45,17,-30
1490227720565,-37,5,-15,-40,-27,-18,-30,2,6,-20,-20,-20,-58,-3,-6,-40
1490227720614,55,37,15,1,-11,-61,9,28,-53,-62,-69,-51,-25,20,18,-5
1490227720663,100,-20,1,-43,-18,-54,-11,80,-83,-9,-50,-8,40,-70,-6,-30
1490227720712,77,-9,-17,2,0,127,-34,-70,122,34,-34,48,3,92,-21,45
1490227720713,-70,41,-8,-25,7,-85,-3,52,37,-28,-19,-15,-14,-57,-20,-112
1490227720760,-48,6,-92,-13,-19,11,14,48,-50,-77,84,-75,-46,-16,-16,-15
1490227720809,-24,-43,79,24,35,-5,31,19,39,122,-112,18,-5,0,-61,-5
1490227720858,31,4,-25,-30,-13,-56,-8,39,43,-6,22,-2,18,53,-2,-48
1490227720907,-60,-26,-95,-97,-25,38,47,-31,-87,-11,-22,-33,-16,-11,-19,-27
1490227721003,-52,-30,77,-25,24,-41,-17,27,-42,-56,46,-21,-9,-11,-12,-11
1490227721004,127,127,-26,45,33,31,-16,30,-72,-74,33,-21,-1,-90,7,-5
1490227721006,59,73,-27,40,-29,-9,82,38,1,-35,-46,11,30,121,31,3
1490227721057,-7,-60,-46,-51,-18,-41,-78,-53,107,22,-7,-35,-25,9,50,32
1490227721102,10,85,126,58,16,3,17,29,114,-6,6,45,31,-33,-23,-1
1490227721150,19,89,-17,-39,14,6,60,67,56,-35,52,89,19,5,45,-32
1490227721198,-43,15,39,25,20,-14,-63,18,-6,-47,7,9,14,-47,-7,18
1490227721200,21,77,5,72,0,121,10,-27,-1,-32,-27,2,5,75,6,9
1490227721248,67,41,61,-26,9,-102,-8,-4,-50,28,32,64,16,-56,6,-5
1490227721297,69,-50,2,-29,4,19,12,12,18,17,-40,-44,-32,-27,-21,-43
1490227721346,-69,-38,-12,-5,-4,29,-13,-41,-21,26,12,-20,1,-22,10,33
1490227721394,6,-12,-18,19,9,-108,23,8,-41,-5,42,28,-11,-11,15,-3
1490227721395,-19,21,6,57,7,48,-4,18,8,-15,5,17,-7,106,15,-11
1490227721443,-81,-9,-64,-11,7,84,9,-11,-2,-14,10,-6,1,42,34,-1
1490227721493,-16,5,22,13,1,-64,5,7,-3,-5,27,16,6,-5,-20,-16
1490227721540,36,2,-13,-34,1,-38,5,10,-9,-5,-4,-17,3,-44,-1,-1
1490227721589,-19,-21,-4,-8,10,127,-4,-1,9,-6,8,-7,-8,-7,13,-10
1490227721637,7,7,-20,49,23,25,7,-5,-32,-33,0,18,56,-37,3,-5
1490227721638,-19,82,-28,45,33,-108,-5,-7,30,124,-29,25,-23,-64,-6,6
1490227721686,-20,-65,32,28,-12,70,-6,-1,-14,-68,29,32,1,48,5,-17
1490227721735,22,31,-2,-9,12,-34,37,32,25,59,-15,-37,-38,-57,-50,-2
1490227721784,34,3,7,-9,2,30,-48,-17,-40,-23,6,-2,7,-2,13,1
1490227721833,-24,29,1,5,-21,-59,22,-16,-10,-5,5,8,28,6,-5,2
1490227721881,-26,11,-3,-7,13,-36,11,-11,49,44,7,-3,-8,-23,-15,2
1490227721884,-37,1,-3,-10,-28,-6,-16,-5,-6,24,-10,-15,-7,-27,-64,-21
1490227721931,13,-36,-9,12,-1,7,-27,8,-80,-35,-36,-21,-12,7,53,-28
1490227721979,-39,0,12,-6,7,-17,-6,-11,94,69,45,13,2,15,18,51
1490227722028,-68,-98,-35,22,9,-13,0,16,-20,-15,33,15,-9,-34,-30,-8
1490227722076,-12,-34,-45,26,22,28,-1,11,24,29,31,18,9,52,19,-8
1490227722077,106,-8,-28,17,6,-41,27,-34,-66,8,53,47,29,38,81,76
1490227722126,33,18,46,46,-5,56,18,55,113,3,-94,-20,-23,13,-25,-12
1490227722175,47,45,-121,-10,10,-25,126,-1,19,-35,57,-19,-25,-9,-70,-16
1490227722223,69,46,79,-30,2,-21,-44,8,-34,92,76,0,8,-18,27,-32
1490227722272,-80,-101,-96,-95,-4,4,-5,-36,-29,93,108,-11,5,-42,-3,-4
1490227722320,-128,0,69,42,14,-23,19,51,-4,43,124,82,55,35,17,-58
1490227722322,127,70,76,-70,2,55,1,89,-112,-128,-122,17,-22,-19,-23,37
1490227722369,51,-88,-84,-73,-13,31,32,2,-105,-101,-52,-128,-19,-49,-58,-97
1490227722418,74,-6,-35,-57,-35,-85,-62,-98,-37,-10,-13,40,17,-13,44,39
1490227722466,34,-34,88,4,20,127,-40,17,127,97,11,-90,-16,5,-5,5
1490227722515,113,11,-21,-6,-50,-44,-29,-10,91,51,70,59,53,19,6,33
1490227722516,33,50,-109,9,15,1,47,-8,-92,-121,-30,-30,-15,-99,-72,0
1490227722564,12,123,113,127,21,3,-10,16,114,-64,-128,-3,-2,5,13,17
1490227722614,18,3,-86,42,7,13,6,-94,-9,-128,44,-41,-14,-9,15,-3
1490227722664,81,-72,-33,-47,-11,-23,47,12,-94,-72,-128,-124,-45,2,9,-10
1490227722710,-22,-14,-96,-24,-2,-6,-38,-22,48,95,44,71,31,-42,10,28
1490227722758,-80,-4,46,-67,0,55,-11,48,76,-26,-79,-35,-9,22,24,40
1490227722760,39,-53,-112,10,-30,-10,-24,21,-89,-62,109,-69,-53,-19,14,-20
1490227722808,-13,15,-28,7,-29,5,-46,20,-24,-109,-64,-128,-22,5,27,5
1490227722857,27,76,127,-57,44,10,14,19,-19,-33,-73,-90,-51,-37,-37,3
1490227722907,5,-66,57,38,-29,-5,-32,9,-5,59,-12,-10,47,24,22,6
1490227722954,-3,-19,-62,-92,-25,84,-7,1,-4,-27,-51,-16,-46,14,-12,-28
1490227723002,94,-3,68,64,24,-77,-48,-29,-87,-41,-46,6,-39,-5,5,40
1490227723051,-26,49,84,24,2,-9,-6,-1,15,6,-60,7,33,-1,8,-25
1490227723052,-26,13,66,40,-20,94,2,-15,-9,46,55,85,56,62,-25,2
1490227723100,-29,-114,-51,-12,-26,-62,-38,-31,19,36,47,-6,33,-31,-54,-22
1490227723151,-37,31,0,19,19,18,9,-4,23,27,37,25,21,-25,-2,1
1490227723197,-30,84,55,61,15,-26,62,37,33,24,35,21,24,-24,12,26
1490227723198,31,22,44,-8,-6,52,7,-8,-28,-11,-76,-128,6,43,-8,0
1490227723247,5,-13,-13,17,-2,-84,-26,-2,3,13,-6,-3,16,-95,20,1
1490227723295,0,12,-14,-39,-35,6,-13,-11,-16,-8,-62,-68,11,56,10,11
1490227723344,6,3,-20,-5,3,25,-23,6,-29,-11,-20,-28,-14,17,-80,1
1490227723392,12,86,92,96,18,-11,40,-23,-7,61,15,-100,-14,-1,15,6
1490227723441,-105,-128,-49,-8,-5,-6,-1,-7,-107,-128,-36,11,-18,2,-7,-5
1490227723442,127,-55,0,-3,60,-1,10,-9,112,-48,-112,-84,58,109,-44,5
1490227723490,-58,-7,18,26,40,-48,-65,-3,-62,-8,4,-21,60,-69,-10,-6
1490227723539,-49,-34,9,-5,39,-71,-27,42,-55,-26,18,1,-8,-103,-22,28
1490227723588,10,-6,-24,-71,7,-45,29,19,-18,-9,-5,21,-33,101,20,-2
1490227723636,-5,-12,2,27,7,-67,-37,-20,7,10,18,14,-66,6,28,10
1490227723684,5,12,8,30,-55,29,84,2,16,-1,4,10,-54,-43,-24,-3
1490227723686,16,8,-10,12,1,71,-80,3,-6,11,12,-4,-18,-17,-102,-3
1490227723734,8,8,1,-5,-6,-86,-8,0,-32,2,-35,-32,-16,55,40,-12
1490227723784,-25,20,6,10,36,-11,-27,-16,15,-21,-5,3,-15,-84,-17,27
1490227723831,-5,15,5,-3,16,14,8,-2,35,43,0,11,-2,-44,-11,29
1490227723879,-42,24,-36,61,22,104,-8,18,-21,-26,20,-86,-41,127,-27,-44
1490227723881,21,-10,28,34,-4,127,2,2,3,69,-10,18,18,127,-36,-18
1490227723929,-47,-44,71,-82,-56,-10,5,-22,60,-25,-43,2,16,57,18,72
1490227723978,-41,13,-22,-9,-29,-65,56,-24,2,-77,16,31,-1,-55,0,22
1490227724026,67,26,-70,-29,-13,-69,-6,17,-30,-85,-111,-69,5,19,-41,-44
1490227724075,-22,-36,-22,34,-14,2,-24,-5,-25,102,-10,-47,-29,-16,8,18
1490227724124,100,-2,79,84,55,-111,3,20,-63,-70,-38,10,18,-57,-6,-12
1490227724125,-22,20,-63,5,-11,110,-8,-5,-39,-80,-69,-67,-13,108,-5,56
1490227724173,83,-59,-30,-37,-24,-102,-14,32,-45,41,-128,-8,-9,-50,15,2
1490227724221,42,95,121,44,31,17,-7,42,8,-33,-61,-13,17,41,-35,-37
1490227724270,-69,-88,-117,-58,-39,-26,-21,-113,89,117,127,61,24,6,-30,38
1490227724319,12,28,-40,60,29,-34,-16,20,49,32,17,-78,-18,-69,14,14
1490227724367,29,111,45,-8,-15,44,-37,-47,-8,-35,4,52,7,41,1,18
1490227724368,-58,20,12,31,-2,-19,-34,-3,-22,-14,-48,-20,3,-40,5,15
1490227724416,-31,10,54,-11,9,38,-8,22,27,17,-31,-53,-29,10,-16,3
1490227724465,-50,-45,-19,-14,11,16,20,-48,35,46,18,56,35,62,-21,-9
1490227724515,127,37,67,48,10,-28,-24,-8,-81,-16,-49,-53,-29,-90,61,8
1490227724563,-85,6,-40,64,-7,72,6,20,37,-15,16,32,-1,75,-23,19
1490227724568,39,-6,-17,12,-31,127,7,-11,-78,-23,7,15,2,123,11,0
1490227724612,-78,-59,-23,-38,-1,-50,41,2,50,-7,9,-19,1,-37,-48,-23
1490227724660,-27,13,-15,-6,-17,-116,4,26,25,-17,10,-40,1,-110,16,2
1490227724709,58,15,31,27,20,86,-25,-3,31,-6,8,24,5,-10,1,14
1490227724758,-7,7,14,-10,-32,-90,-42,-7,-1,-12,1,-4,15,-111,11,-8
1490227724806,-3,-24,-4,35,-9,-28,0,-17,-17,-27,8,100,-10,20,15,-17
1490227724807,17,-7,-30,0,-4,17,29,9,-21,-24,-14,-17,-5,10,-1,5
1490227724855,57,25,8,-10,10,-23,-28,-4,-15,26,29,-42,-44,-32,-5,-6
1490227724904,18,-58,-23,-16,23,34,2,1,7,-22,-22,-24,-31,80,-8,-8
1490227724954,18,31,2,68,13,-4,-23,3,-31,8,4,42,14,-28,-2,-9
1490227725001,-22,-33,3,-31,-17,-1,42,-9,-26,-4,17,-4,30,9,-16,5
1490227725002,15,-2,5,43,12,2,-17,5,5,25,4,38,10,13,28,1
1490227725050,41,-25,5,0,-7,11,10,28,-16,-15,-7,4,3,-6,-14,6
1490227725099,-1,-2,-33,-70,-20,-9,-19,-17,32,34,16,-9,12,11,-10,-2
1490227725196,-22,36,23,-1,-13,-23,-24,-2,9,38,16,-2,-11,-26,31,-45
1490227725197,20,-9,3,24,12,19,-11,-1,-49,11,-37,2,-9,5,-5,7
1490227725246,90,55,46,-106,-6,-68,57,43,-29,-51,-44,-28,-25,-91,-52,-53
1490227725249,-127,-14,39,19,29,26,21,39,69,12,-86,-51,-11,-9,18,2
1490227725295,124,-3,-49,-61,6,19,-15,32,-104,-75,71,8,12,6,55,22
1490227725343,-101,-128,-7,42,-15,-38,18,-55,127,127,122,21,14,-5,-28,-29
1490227725391,-88,32,71,-7,6,-6,18,-23,-60,-63,73,24,11,1,1,46
1490227725440,117,2,-38,-38,-1,-19,-32,43,2,28,82,63,-5,-5,41,-58
1490227725488,-18,-70,80,52,-2,-18,-8,-55,80,-48,-128,24,-21,-25,-33,-41
1490227725490,67,-64,-83,-121,-24,-3,-52,39,87,-4,20,-124,-33,-18,-33,0
1490227725538,-116,49,30,-12,11,-11,24,35,-14,22,45,2,-22,-12,43,82
1490227725586,-19,89,127,21,-1,-38,31,-128,-41,-14,-115,-36,-12,-37,31,94
1490227725635,-4,-79,-96,-72,-54,-38,22,-11,85,-45,75,-38,-11,-55,-54,-40
1490227725684,-11,-20,22,82,51,48,-4,21,65,62,117,10,26,74,7,-52
1490227725686,127,24,-125,-80,-24,100,-22,37,-56,-32,-26,-20,-17,-14,27,-49
1490227725733,11,127,127,119,21,-28,-21,-51,-48,64,40,127,27,19,-12,1
1490227725782,-5,-63,-36,-43,5,-16,-54,-59,-99,-88,-41,-62,-11,-36,-21,-51
1490227725831,43,-57,-128,-126,-94,11,51,19,34,86,-6,47,48,-1,-60,-13
1490227725927,71,-77,28,87,37,90,-17,30,-50,70,80,77,7,108,-24,-69
1490227725929,8,77,125,114,59,-65,38,19,123,-80,-91,120,34,-63,-52,32
1490227725930,14,64,86,-39,0,-19,34,-4,30,54,99,94,-7,6,11,25
1490227725977,40,47,-42,-109,-6,40,66,20,-127,-77,13,-1,-19,-22,-37,2
1490227726025,18,88,55,52,48,28,4,-3,100,69,-32,-39,-11,-4,50,-12
1490227726074,2,-38,-2,-77,-23,-27,-101,-13,-92,17,74,58,11,33,83,-25
1490227726123,-25,-89,-96,-51,1,4,-7,-35,22,81,91,76,54,42,31,59
1490227726171,47,93,127,112,33,30,39,6,-26,-43,-71,-82,-27,-30,-25,-8
1490227726220,-37,-8,-8,-14,-13,-9,-51,-2,52,63,69,120,-23,-40,18,-7
1490227726222,43,40,15,14,42,120,17,19,15,90,54,22,5,118,16,-19
1490227726269,-88,-80,-82,-31,41,-30,-44,-36,31,-18,-96,-101,-68,-99,18,-2
1490227726318,9,-6,-50,-24,13,64,-33,-21,-21,-41,0,36,-46,26,31,25
1490227726366,7,46,18,56,-39,-99,29,11,-21,-8,-63,-78,-17,-20,-2,-12
1490227726368,-6,-44,-48,-18,23,-89,-44,2,-10,-12,21,65,28,-42,-31,-17
1490227726415,17,-18,-15,-61,-103,20,-1,-12,14,-5,35,-1,23,-45,-5,22
1490227726464,5,20,-1,52,-15,74,-46,4,-12,-2,-20,0,-33,79,-66,-1
1490227726513,-6,18,83,96,-81,-36,13,2,-23,-23,19,-20,75,-103,10,-2
1490227726561,16,48,3,69,23,-37,39,-12,8,60,-42,-81,49,79,88,14
1490227726609,-20,-77,77,37,2,83,-24,-13,-3,-87,96,29,61,74,9,0
1490227726612,48,-5,-40,9,-128,22,-45,2,81,-64,-45,8,-110,-6,-19,-30
1490227726659,-106,58,-8,7,60,8,19,97,-79,76,5,-18,76,-17,36,122
1490227726708,14,-7,-21,3,38,-3,98,-106,11,-4,10,15,-33,-9,107,-115
1490227726756,-31,-34,-20,35,27,9,24,71,-22,-46,-91,-102,94,-8,-114,57
1490227726805,-38,-50,22,-18,-71,1,58,39,20,-42,5,43,62,-5,-31,54
1490227726853,6,33,44,80,-28,-4,-128,15,0,-20,1,27,-61,-4,-84,-3
1490227726855,5,35,-13,-24,-11,-1,23,7,14,40,23,16,-38,-1,21,0
1490227726910,-12,-18,-8,-29,-1,-1,54,-11,23,11,19,36,-16,-1,62,1
1490227726953,4,-2,-5,-6,-22,-1,-17,-68,7,4,5,9,72,-1,34,-24
1490227727000,-12,-2,-8,-29,-9,50,23,-19,15,7,7,-12,-23,21,-56,28
1490227727048,4,4,12,3,-16,-95,3,-18,-4,3,-3,5,11,-100,-11,-41
1490227727050,-7,-15,-3,14,8,-39,2,-39,14,-18,-3,-18,-21,-18,9,11
1490227727098,-54,-6,-39,-8,19,1,5,22,18,-20,-6,-9,-1,-3,6,-34
1490227727147,15,37,-29,43,2,-3,-39,-6,-1,38,86,-13,-32,-14,31,-4
1490227727199,59,-19,-38,4,48,-82,-1,5,43,8,-1,-57,-1,-75,67,6
1490227727244,17,43,93,16,19,127,-19,-63,18,-59,-75,4,-6,111,-4,-17
1490227727295,2,30,-128,3,-7,-99,-62,31,3,-91,31,-21,-7,-110,70,63
1490227727296,-20,-2,73,32,-34,-32,33,-10,74,39,101,29,19,-115,-26,-30
1490227727341,2,-46,-53,-35,-19,-107,-40,51,7,0,32,3,-14,27,30,-9
1490227727390,127,52,-78,-13,-36,127,-39,21,-104,62,10,31,22,83,12,2
1490227727439,-121,43,-26,-16,-12,-15,-23,-38,81,57,72,20,8,-4,-37,46
1490227727488,51,-41,-11,4,16,-38,-17,-11,-42,40,-4,13,-4,-91,25,15
1490227727536,-51,-31,3,-95,-33,83,-30,-5,34,14,26,103,19,-4,-18,26
1490227727538,-67,-100,61,-46,-2,55,14,-10,26,26,-101,-56,-21,40,-30,-43
1490227727586,47,30,4,29,14,-100,6,-22,16,34,-45,7,-13,-88,19,58
1490227727635,52,34,51,35,-17,83,-13,18,-38,-11,-64,46,14,69,6,1
1490227727684,-58,-37,-32,75,41,-25,29,31,-32,-25,48,-14,-29,-128,-29,-78
1490227727731,-93,-10,-9,-60,-66,30,-8,-16,49,-6,-35,-35,-22,15,-15,75
1490227727732,-29,-128,-50,-26,-13,1,-41,-8,-7,89,60,69,-11,6,21,-12
1490227727780,11,36,-17,-11,-25,2,-15,1,-63,-28,47,13,-94,4,-40,-12
1490227727829,60,-15,10,17,-19,13,14,-4,-51,-28,-21,-43,30,1,3,-6
1490227727878,-114,32,-13,122,12,6,-9,11,-52,-12,-6,119,52,8,-24,-22
1490227727926,-11,-1,-26,-46,-8,-97,-1,8,-9,-31,31,-72,-80,-58,10,15
1490227727974,108,-32,-32,16,-34,17,-42,-13,78,-92,-22,44,54,29,26,9
1490227727976,-26,-113,27,48,24,-58,-29,-21,-26,-118,-4,44,16,-26,-8,4
1490227728024,-7,97,-27,-43,10,24,-11,-7,9,-30,-20,-51,-10,3,13,-6
1490227728073,8,38,-18,18,-19,-16,-15,-12,-75,-5,-15,6,-29,-4,-65,-23
1490227728122,-11,-24,9,4,-10,-9,-5,10,52,58,3,-8,-4,-17,10,-1
1490227728169,12,8,14,19,13,-13,19,9,9,3,8,20,-6,-14,-6,-16
1490227728172,7,-83,-23,-10,10,-9,12,-3,-70,-25,-18,10,7,32,7,-3
1490227728219,-30,11,-27,-13,8,-7,-8,-6,-5,69,-6,-8,-8,-41,2,24
1490227728268,54,-19,74,-42,-16,-46,-52,11,20,42,-71,-35,-29,-59,35,-47
1490227728317,43,113,74,66,11,70,46,-15,-81,-10,-48,-35,15,97,-20,22
1490227728369,-128,31,-71,25,32,33,14,14,117,71,77,69,-10,6,54,10
1490227728414,-62,-59,-69,-47,-2,-40,45,25,73,67,38,27,78,-61,24,3
1490227728418,114,-42,-104,-92,30,21,17,9,-72,-24,7,2,30,17,-28,2
1490227728463,-56,-2,-47,92,33,-13,-4,-30,48,11,32,-18,41,-16,-27,-5
1490227728511,57,-75,120,-15,3,-35,-128,-41,-99,67,74,29,66,-4,37,59
1490227728560,-35,11,98,73,107,-27,-25,9,-11,5,19,-33,57,-11,16,-24
1490227728609,84,-101,-124,-128,-116,-34,-38,-8,15,-58,-118,-100,-121,1,26,67
1490227728657,66,127,116,82,1,19,1,115,5,-50,-38,97,-35,26,-22,-79
1490227728658,60,-48,-128,-128,-3,2,-11,-72,-33,6,-15,-42,-8,-69,-7,22
1490227728706,-112,-49,-32,-19,-14,-31,-27,19,75,-46,-52,-81,-16,-40,-62,-72
1490227728755,-102,29,30,-5,3,98,-6,55,87,-15,-79,-50,-42,92,-63,-75
1490227728804,20,62,-48,-43,-20,-24,-23,-13,-14,-45,127,64,-37,-59,-22,-18
1490227728852,81,127,88,127,30,-12,56,98,65,79,-115,90,37,-60,77,9
1490227728854,17,56,83,-44,-5,-3,-24,-15,59,33,-107,-40,-30,-9,-32,-41
1490227728902,-77,-44,4,65,40,34,47,-45,67,-52,40,-59,3,-14,5,5
1490227728950,-40,74,96,47,-53,-29,39,-80,24,62,-90,45,3,-23,-57,10
1490227728999,82,-128,-91,-98,22,18,-19,10,-92,34,58,-101,-78,27,-33,-55
1490227729048,-105,-16,35,70,30,20,-26,28,43,-98,-128,-108,-43,73,30,-59
1490227729096,9,56,67,-27,-29,-26,-31,-19,-29,-8,37,111,42,85,43,65
1490227729097,-76,-58,-22,-31,-19,-31,3,-13,-14,-26,3,118,64,-14,-35,43
1490227729145,-32,-108,-128,-66,-27,3,-54,-39,-53,-42,-21,-37,-37,42,9,-18
1490227729194,-25,14,-9,-5,-12,3,-15,19,-33,-30,-74,-73,-23,-71,-33,-46
1490227729243,20,63,74,-43,-65,5,20,-2,8,-72,-115,-83,30,-39,-26,-6
1490227729292,22,-25,-1,-28,-26,-1,-15,11,19,0,-5,15,3,19,-18,-1
1490227729341,47,-28,12,80,6,-42,63,35,-26,33,94,24,17,11,-7,15
1490227729342,-35,-34,-19,-55,16,56,17,-36,32,33,7,84,13,127,-7,10
1490227729389,-6,-70,-105,-75,14,-71,-37,-28,19,3,-88,-84,-33,-10,-14,12
1490227729437,21,115,66,95,34,4,29,7,3,101,4,-44,-61,-38,10,-5
1490227729486,53,-14,9,25,-20,111,-19,-11,32,24,61,84,48,117,-5,-4
1490227729534,108,73,6,9,23,-115,-83,7,15,-55,-76,-71,-33,4,-50,-5
1490227729537,-29,-12,-30,-2,-3,-15,0,2,-36,-5,48,62,-17,-44,23,-19
1490227729584,-4,-50,-44,-40,-12,-6,17,20,-3,-1,56,6,43,0,54,-18
1490227729632,1,-17,10,21,64,41,22,-9,26,22,-8,18,-90,-19,11,13
1490227729681,23,-25,-3,-3,34,-83,-7,17,14,-14,24,41,-49,-128,2,3
1490227729733,24,-8,-4,11,-25,4,22,12,-21,-26,-12,-59,83,54,-10,-30
1490227729778,10,22,47,32,-86,-31,-26,18,-19,-3,-23,7,95,1,-31,-13
1490227729779,5,7,-39,-44,90,60,-19,0,15,14,-19,-25,-11,127,89,13
1490227729828,-10,4,-8,-20,-40,73,-26,-15,-5,7,-2,37,16,-27,79,13
1490227729925,0,19,27,-17,-76,14,6,-8,0,-14,-24,-27,7,127,-21,-8
1490227729928,-2,-15,-30,-2,24,127,-95,3,7,0,49,28,-8,96,-39,5
1490227729976,4,5,18,30,3,-58,8,-14,2,13,32,18,-24,-128,42,-9
1490227730022,127,13,5,10,48,-76,-9,17,-36,-4,-49,2,-13,-33,-31,-14
1490227730023,44,-29,-14,31,-10,83,100,72,-59,27,72,-31,-20,-81,0,52
1490227730072,-30,88,34,84,35,30,-10,17,22,5,-29,35,36,88,0,0
1490227730120,68,22,87,101,36,-15,10,20,-49,65,-7,4,31,-58,-1,-66
1490227730169,30,43,11,36,30,-128,-10,17,-29,-55,79,75,20,-121,-9,1
1490227730217,-13,-71,-118,-9,-4,-87,18,32,75,54,-89,-17,-13,-60,-46,-27
1490227730219,103,65,58,38,14,2,24,69,-118,-117,-33,10,-24,32,33,-99
1490227730267,-99,42,25,34,16,-91,-12,-3,62,-104,-123,-20,-18,-120,-44,2
1490227730316,85,63,-89,-82,-18,73,0,-6,-34,-36,-47,-26,-8,49,26,79
1490227730365,94,69,-21,-14,-2,-29,-28,-23,-9,-29,-7,-34,19,-21,45,43
1490227730413,61,21,50,47,29,9,-15,2,-106,-46,30,8,-10,-24,20,-12
1490227730461,-69,-49,-59,9,-4,-69,8,4,6,75,62,-2,-10,-64,-14,-5
1490227730462,33,-29,-60,12,-13,47,-17,17,-19,-30,18,5,9,58,-24,-17
1490227730510,45,14,-83,-127,-24,2,27,4,65,67,-31,12,-17,-36,3,67
1490227730559,-12,-53,13,20,-38,3,-71,-29,-32,3,45,-8,14,-1,30,43
1490227730608,68,55,50,-62,-14,-11,41,-1,-75,-49,73,43,11,2,0,34
1490227730656,14,18,28,-30,8,76,-2,26,-7,-51,-19,16,16,17,37,8
1490227730657,-57,27,-19,12,50,-36,39,34,-22,-14,36,31,15,18,58,-32
1490227730705,40,6,13,4,-15,21,-42,-4,56,17,-25,-67,17,32,22,36
1490227730754,-117,5,-10,-26,-13,6,24,8,18,23,6,44,20,5,-25,-36
1490227730802,12,2,3,2,-4,2,-12,-8,17,-7,-9,-33,-53,-2,-3,-26
1490227730851,18,-58,5,75,42,0,-27,4,-17,-79,-4,62,-27,-1,-21,-16
1490227730900,2,117,-4,15,-12,-80,5,39,-8,66,-17,-15,-56,-21,-38,24
1490227730902,19,23,9,43,-83,18,16,6,-11,7,15,-27,-80,-7,-19,-24
1490227730951,-73,-41,-5,-11,-32,-1,-25,-37,55,-24,-6,-1,16,-79,26,11
1490227730998,-32,18,8,0,8,100,-38,-12,12,11,0,-11,15,-63,-79,-7
1490227731047,6,22,-6,21,38,-48,-15,1,-30,3,-5,10,-24,-27,32,-9
1490227731095,-4,-4,-5,-16,-13,-49,-13,2,-25,4,3,6,32,-13,-31,-10
1490227731144,0,-17,1,19,21,0,24,3,14,-8,3,4,-100,-1,13,-1
1490227731145,-8,8,6,13,43,25,47,18,48,12,6,0,1,-33,23,-4
1490227731193,-12,-22,-21,-33,-22,-32,-55,8,-15,26,17,10,56,37,50,13
1490227731241,103,42,-5,30,5,-9,76,3,-45,-26,-6,50,-12,0,-46,-32
1490227731290,-85,-4,19,-7,-41,-12,-73,-33,65,94,-36,2,58,27,83,39
1490227731338,103,79,-25,-46,24,1,-21,-23,-105,0,-9,-59,-37,-36,10,-25
1490227731339,89,-29,1,-19,1,-46,-32,16,-121,-24,-62,52,48,54,2,-43
1490227731387,75,108,44,7,-13,-20,-4,-9,-53,-43,18,6,-3,-61,-49,-35
1490227731436,3,-108,107,32,28,-12,58,54,-56,59,31,103,26,3,1,-70
1490227731485,-96,40,40,38,15,-1,-45,39,83,-8,26,127,10,33,47,-15
1490227731534,-44,6,-49,74,3,-5,26,-21,40,8,36,6,-11,-10,-36,10
1490227731582,121,-58,-5,-51,-62,-1,0,23,-118,-43,-91,-99,21,-12,-23,-1
1490227731583,-94,91,103,4,61,13,83,91,-49,16,-121,35,-5,10,-9,114
1490227731632,68,-115,-103,-98,-58,40,-33,-47,9,20,127,-64,-42,-6,1,73
1490227731680,-119,50,-26,46,28,61,43,88,100,-79,33,34,-26,25,40,-91
1490227731729,69,-67,-68,-31,-31,-97,2,45,-83,-82,-33,-29,-2,-128,4,15
1490227731778,110,78,-47,-23,-8,-79,16,-48,-78,-117,-45,-3,-12,-78,-6,-28
1490227731826,-98,-77,-62,-102,-24,-2,-2,15,54,89,74,114,4,27,-23,-81
1490227731827,-37,-91,5,-40,8,14,-2,6,100,52,-128,-113,-28,-30,-76,-32
1490227731876,4,102,63,127,103,52,17,-77,-17,-16,-95,-91,31,-19,-8,64
1490227731924,-35,51,54,53,-55,-61,-75,35,56,32,38,40,11,87,61,34
1490227731973,57,-67,36,49,21,-2,-58,-72,-128,-122,-76,-1,-57,-77,-93,-29
1490227732021,-49,61,-6,-9,-13,-8,-24,15,15,-26,26,-39,27,66,53,80
1490227732022,-44,-116,-128,-128,-81,-69,-23,13,6,127,127,127,77,17,-5,-50
1490227732070,-4,98,-70,-41,-22,-28,-18,-11,-26,-63,-84,-92,-7,52,54,67
1490227732119,91,-17,-34,18,72,29,-4,33,1,90,82,84,35,36,40,-9
1490227732168,-44,-88,-93,-86,15,-39,-24,6,43,66,23,62,81,55,-13,-16
1490227732217,-48,-16,4,-6,-63,18,31,3,-24,-24,14,104,116,47,-30,4
1490227732265,18,13,8,-22,37,-68,10,-19,-5,-13,-6,-37,-62,-97,-25,13
1490227732267,-9,59,56,31,34,-27,17,-6,-19,-87,-128,-109,-35,-77,-10,-10
1490227732315,36,26,106,111,-31,73,28,29,-49,1,-62,-64,13,117,-16,-38
1490227732362,8,-33,64,27,-59,-128,48,14,5,48,47,97,81,-22,-24,17
1490227732411,-26,-4,-104,-94,-2,102,-2,11,-12,19,68,-7,31,118,-3,-7
1490227732460,28,4,-14,29,-17,-128,39,26,-17,5,0,37,92,-79,-9,-2
1490227732508,-34,-11,32,55,50,77,-8,0,-31,-22,-39,-40,-48,-108,16,-11
1490227732509,-24,-43,-13,69,-12,-34,-3,-14,-37,-14,30,60,-21,-36,-15,-25
1490227732558,-9,60,-4,15,42,-8,-56,-1,18,49,-24,-73,-9,76,37,6
1490227732606,10,-26,7,-75,-53,89,19,7,-37,-28,10,15,27,30,-29,-20
1490227732655,-11,-24,-4,-59,-3,-78,-33,-33,17,24,-2,39,1,-33,68,19
1490227732703,-2,-24,-30,13,97,67,-17,-19,32,2,9,-23,29,26,61,41
1490227732705,-5,-26,-15,19,-46,30,-8,-12,0,-25,-6,-4,-21,56,38,5
1490227732753,6,-9,4,59,62,48,34,27,4,-15,3,7,-26,4,-8,-3
1490227732801,-8,7,-4,-30,-40,9,-10,-17,-11,1,-12,-6,53,-13,-65,17
1490227732850,3,3,-4,-26,-17,116,8,0,14,30,12,-2,24,127,33,7
1490227732902,17,8,-37,-71,-29,-75,89,-15,-36,-15,-25,-4,49,-101,111,-1
1490227732947,28,55,32,10,30,-98,-15,-13,34,4,8,-20,6,-107,-1,-16
1490227732949,-41,19,37,11,24,-128,19,-40,62,18,-19,20,2,-81,-31,31
1490227732996,-29,19,92,40,-5,26,-5,7,1,30,3,-23,-5,7,-1,-42
1490227733045,-128,-114,-99,-124,-40,-126,-41,9,0,49,23,8,-17,-114,46,-17
1490227733094,12,39,-59,26,-10,75,36,38,-32,-54,-61,-80,-4,83,-25,-45
1490227733143,28,-12,-8,99,24,116,-30,-30,13,-42,-103,-26,2,127,24,53
1490227733191,5,-44,-21,0,-12,-111,-47,-32,18,54,118,41,2,-128,35,-32
1490227733194,-72,75,32,-43,-10,-96,-43,-32,-18,-120,28,20,-8,-68,16,6
1490227733240,-4,-38,-22,-86,-52,-103,7,-29,-65,-111,-83,6,21,-14,1,-12
1490227733289,-17,-84,-120,13,9,78,-29,-16,39,-22,40,-125,-51,62,-4,23
1490227733338,0,82,55,61,4,-28,12,9,78,-24,-77,-11,43,8,-38,7
1490227733386,116,3,-62,-122,-10,15,-46,29,-87,4,-18,12,-7,43,2,-91
1490227733388,38,-40,4,86,39,5,-5,-14,17,88,112,107,45,22,4,0
1490227733435,-1,42,74,20,23,57,34,15,-95,-62,-87,-67,-50,-67,-18,-43
1490227733485,5,69,29,75,34,35,-4,-81,-5,12,-101,-95,-23,-6,4,55
1490227733532,-16,-84,-106,94,-13,8,7,-15,57,-30,11,1,-36,26,-37,40
1490227733581,-7,25,51,-27,13,-29,-12,8,36,45,25,19,-3,-26,20,-4
1490227733629,-13,33,54,1,27,14,-23,-12,-8,24,-23,-41,-24,-31,-20,-16
1490227733630,27,48,-10,-34,-21,-74,-26,-11,-38,-13,22,18,7,11,-6,13
1490227733679,1,-1,-37,-20,-7,60,37,-4,-70,-73,-52,-44,-24,26,-1,-4
1490227733727,-17,0,37,43,7,-128,-13,5,52,16,-27,22,5,-79,-18,-14
1490227733776,41,8,-22,-24,-28,19,9,16,-30,-33,-11,-20,7,20,-33,-31
1490227733824,-9,0,11,-31,-12,-10,16,5,-82,1,28,-32,-27,5,-21,-18
1490227733826,2,-86,6,-85,-9,-5,18,19,-50,-33,18,-59,-17,2,5,-17
1490227733874,23,26,-61,28,28,115,-11,-4,18,44,-41,55,6,113,7,8
1490227733923,-33,-24,-12,32,-14,17,6,-16,-11,21,-8,0,-21,19,83,20
1490227733972,11,-30,15,92,43,-10,-76,7,-15,-48,4,76,1,-36,-42,-14
1490227734020,-34,15,5,-12,-3,-56,25,2,44,27,9,-26,-23,-36,-7,14
1490227734068,-77,24,-13,-77,-31,3,-27,-25,7,17,-2,-50,-25,23,3,9
1490227734070,20,-8,-1,7,5,-16,32,7,-17,-16,5,-1,3,14,-31,-20
1490227734118,0,0,9,3,12,13,-1,-13,-73,-31,-12,-23,-7,-21,5,-10
1490227734167,-7,0,9,26,-3,3,52,10,4,-16,-13,13,0,-6,-7,-8
1490227734215,33,39,-12,31,15,-2,-11,17,-54,7,31,-5,8,-2,1,28
1490227734264,35,13,48,0,3,-15,10,12,45,-5,20,41,35,44,40,32
1490227734312,66,-45,-14,30,8,16,2,0,-128,-66,9,27,10,13,9,31
1490227734314,-51,-66,50,56,29,-16,-31,57,-27,21,-44,-26,6,-1,-46,-85
1490227734362,-6,72,-56,-35,-10,-98,78,-37,-128,-28,80,-84,-7,-113,21,35
1490227734410,-40,-34,-101,72,0,-9,-47,-37,-80,29,98,20,-3,70,-32,-4
1490227734459,2,8,-93,-6,-36,6,14,15,-35,-25,75,-68,-22,-19,7,51
1490227734508,-52,-2,-4,-66,-23,-1,-67,-27,-38,12,10,-11,6,20,58,-19
1490227734510,127,115,125,31,-25,-40,28,39,-128,-5,43,125,90,40,-2,13
1490227734557,70,25,-128,-72,-15,27,5,-78,6,80,64,-50,30,40,41,50
1490227734606,88,26,31,127,50,32,-46,-89,-85,-85,-62,49,3,-15,18,-55
1490227734654,-16,31,39,112,29,24,11,127,92,55,-43,-23,3,28,6,-83
1490227734703,63,-92,-113,19,-19,35,116,14,102,86,19,1,-4,10,0,-10
1490227734751,82,17,99,6,75,-36,-67,-29,103,28,-128,-36,10,22,73,-4
1490227734752,-4,22,67,78,-27,-92,11,23,101,-35,-70,-29,4,-93,-95,-88
1490227734800,-35,47,-118,120,28,81,66,8,-71,-56,-32,-74,-51,-33,-70,-59
1490227734849,30,-68,-99,63,-22,12,-61,2,-28,-88,-128,-127,2,-6,10,-23
1490227734898,-103,-128,-91,-90,-23,45,-3,-6,-22,60,-103,-93,-59,-49,-50,-88
1490227734948,-10,-118,-87,-128,-65,-41,-24,-30,-14,-1,94,73,5,10,38,-16
1490227734995,-61,-17,-42,38,-7,-103,-96,-47,38,-21,65,49,10,-7,-3,50
1490227734996,107,15,34,-19,25,21,57,40,-55,-128,-128,-128,-52,-114,15,-37
1490227735045,-3,-50,-120,-74,-80,-53,-20,7,34,70,-57,96,53,-51,-28,-2
1490227735095,-44,46,-60,-85,-49,25,-19,1,-43,-39,41,-31,0,13,14,-40
1490227735141,-56,1,99,5,9,41,76,0,61,34,2,106,63,10,-19,28
1490227735189,58,28,67,23,-11,-6,17,27,22,33,-80,43,92,31,89,6
1490227735238,-14,3,121,-2,33,17,-55,-9,-31,-29,-36,-94,-112,-19,39,2
1490227735240,24,58,11,53,31,-14,-43,-1,2,-11,19,23,50,-18,-9,-15
1490227735288,-52,-62,-92,-40,27,-58,-6,-25,18,-17,-27,-29,-31,88,24,25
1490227735336,-8,-17,-21,-7,-12,-128,-12,24,18,9,33,70,5,-123,7,13
1490227735385,7,7,44,18,20,-56,31,15,-5,17,16,31,25,-96,28,-7
1490227735433,4,2,14,12,-11,-55,48,-20,18,19,51,60,37,-19,-51,22
1490227735434,-24,-31,-96,-112,-52,117,-4,3,-6,-7,15,-38,1,81,-6,-11
1490227735483,48,8,17,-45,41,-72,70,11,25,38,-28,34,5,-23,97,-6
1490227735532,1,10,54,13,-57,38,24,3,-13,0,65,87,-18,21,-23,4
1490227735580,29,-17,50,127,10,-114,15,-4,17,-44,-29,-70,58,127,8,10
1490227735629,-6,26,-33,16,42,-106,59,18,21,16,-63,58,35,-6,4,12
1490227735678,21,-46,32,13,47,31,33,25,-31,-67,-37,-64,-56,-128,-55,-29
1490227735680,-2,-15,-6,-28,-5,-32,18,23,-13,-33,0,-29,-85,-82,54,-11
1490227735726,1,4,-12,10,-2,39,-62,-5,1,-18,-36,-13,32,49,8,26
1490227735775,7,-5,19,51,11,1,50,-9,4,10,24,-5,104,5,46,19
1490227735824,5,7,-3,-14,-26,-109,-100,-18,-7,0,-4,-9,-11,38,-94,-5
1490227735921,-10,8,-13,-7,-4,20,-53,-20,6,24,8,17,-1,-90,-89,-2
1490227735923,26,20,14,90,-30,-45,76,6,-46,-3,-5,52,45,75,43,11
1490227735926,-36,-41,-17,-36,-16,-91,-65,3,17,15,13,49,51,-108,14,19
1490227735972,-17,5,-50,-29,18,34,92,31,41,45,3,27,17,11,-50,-46
1490227736019,12,-121,-33,-38,-13,127,20,-87,23,37,41,10,25,95,10,16
1490227736116,-7,-3,-19,-8,-6,71,122,17,49,60,22,19,14,42,61,24
1490227736117,53,61,-15,-1,-26,57,-1,39,-37,-128,-97,-53,-15,103,-18,41
1490227736118,70,82,-41,-15,6,3,-37,2,-39,27,30,5,-14,6,-17,-28
1490227736165,-86,-73,-62,11,0,10,-38,57,39,44,127,-25,7,-19,16,0
1490227736215,-12,56,56,42,83,43,22,10,-11,10,29,75,17,-120,-34,2
1490227736263,-68,-32,-38,-76,-43,27,-13,54,4,54,-37,-16,-6,-11,22,-33
1490227736311,-37,69,35,-43,-25,-46,6,-37,-56,-75,-125,4,69,86,-7,1
1490227736312,26,-41,63,27,-30,-39,-62,73,74,80,106,74,-16,9,43,-36
1490227736360,55,3,-25,19,1,-23,-21,4,-104,-47,46,-14,-16,-13,-23,-3
1490227736409,88,8,7,-9,-20,-34,-52,1,-61,-54,33,41,21,-56,4,21
1490227736458,31,-13,45,7,-19,-112,-12,-5,13,-53,10,-27,-25,-57,27,11
1490227736507,-26,-46,-37,29,-15,41,-22,9,-27,-46,-64,1,-12,-3,-15,8
1490227736555,1,-20,-56,-25,5,15,28,31,-59,7,7,-57,-16,8,-80,-10
1490227736557,53,42,51,19,-39,-42,61,15,20,-18,20,58,59,-68,-34,-2
1490227736604,15,12,-18,1,4,81,-3,-2,-73,-2,29,11,15,118,-14,-6
1490227736653,-12,17,24,0,5,-88,-60,-8,-3,6,18,-57,22,-82,7,10
1490227736702,-40,-12,-7,6,8,17,6,-2,39,18,31,32,-13,24,30,20
1490227736752,-46,-10,-4,4,14,1,23,-15,-11,5,2,-29,-6,21,-13,1
1490227736798,6,-2,17,-15,-20,5,4,2,-40,-33,-9,-68,6,3,-2,-7
1490227736801,53,-49,-7,-54,16,87,48,19,13,-38,-19,-32,-12,44,-43,-10
1490227736849,-30,-4,-26,124,-31,-40,20,-14,34,9,-33,127,-31,-51,50,-5
1490227736897,-12,23,46,66,-12,-25,-7,-3,-7,-32,33,95,-14,-2,-18,-12
1490227736945,-14,11,1,-5,-24,19,-12,-13,-18,33,-18,9,22,-10,42,11
1490227736993,-34,19,14,11,21,-19,19,-1,30,18,-2,3,19,-28,-99,-1
1490227736995,-7,-36,-6,-12,4,-16,26,27,14,-2,-1,-51,-20,-43,-15,6
1490227737043,-5,-25,-5,13,21,-40,-2,-8,-29,-32,3,1,-26,-35,-86,-4
1490227737092,-45,-11,20,4,1,-12,-54,-29,10,-38,-27,-17,-3,-10,23,-5
1490227737140,43,9,59,-12,7,-7,20,8,-33,9,-22,-14,-3,-29,-39,-10
1490227737189,-20,-42,-65,-43,-71,-20,-19,-29,-64,74,50,2,-67,16,3,-8
1490227737237,-17,-3,-31,-8,-15,-66,-93,-23,-24,-49,-18,-9,65,21,66,-24
1490227737239,-77,55,-2,99,36,43,88,-2,-23,34,111,-62,-22,3,11,-16
1490227737287,89,-22,-82,-7,-26,-28,-116,0,25,-23,106,21,-2,2,31,17
1490227737383,48,3,4,50,19,1,70,5,-34,8,39,-10,-14,-67,-72,15
1490227737389,-31,-93,-128,-128,-43,21,-89,81,-128,-6,79,15,-23,82,39,-123
1490227737433,29,-36,-102,-40,-12,28,31,-109,-74,-68,69,-128,-15,61,6,17
1490227737530,2,-26,-52,107,42,35,13,88,95,73,-128,-128,-12,-13,-18,-96
1490227737530,116,35,37,32,7,-15,-39,-25,-11,-12,-27,-22,11,28,-1,-4
1490227737531,127,54,127,51,26,-15,-41,-9,-128,-63,-128,91,-10,-7,88,1
1490227737579,63,14,-32,-47,-24,-55,58,76,125,-6,30,127,11,13,-46,17
1490227737627,-6,70,65,127,89,127,118,38,-53,-79,-128,-128,-89,-11,2,-70
1490227737676,17,8,61,-115,-18,-45,-1,-14,106,126,127,127,47,-127,-5,25
1490227737677,-66,-110,-48,-42,17,-1,-31,-77,-36,-3,21,-8,6,59,-1,70
1490227737725,127,-50,-58,-111,-1,28,-39,31,-114,-75,12,127,4,-75,61,-78
1490227737774,-128,55,127,127,99,28,9,-13,-27,74,127,120,92,59,31,37
1490227737822,-70,-81,-14,-105,-35,-24,-1,-2,127,112,-39,-128,-68,-42,-12,70
1490227737872,60,-11,-6,127,-7,23,-1,-22,-79,118,104,57,52,17,78,37
1490227737920,-128,-101,-128,-128,-49,-2,-7,31,-40,-44,-128,-57,-42,-7,-7,-77
1490227737921,-6,48,-85,-7,25,1,11,-9,25,-53,-128,16,-54,22,-6,-30
1490227737969,-97,-61,-31,-45,-7,-25,-15,-40,14,-28,127,-40,-49,-5,-49,9
1490227738017,9,-14,-83,22,-31,-48,45,19,-18,-52,-27,25,84,3,-19,-17
1490227738066,34,-44,-20,-44,7,-25,-10,33,37,93,127,77,-48,13,12,-10
1490227738115,21,-29,-23,19,30,23,-5,-7,-19,-14,16,-92,-64,-46,-33,-1
1490227738163,23,29,-22,4,-67,9,-64,-5,-34,-27,-33,-91,37,-1,3,20
1490227738164,20,-23,-119,-19,25,-10,-16,12,24,12,21,25,-19,0,18,-8
1490227738212,10,34,35,56,41,47,20,15,-5,-33,-39,-22,56,7,-38,-12
1490227738309,-23,-24,3,46,-12,24,-3,-5,9,-14,23,68,8,17,6,-9
1490227738311,-15,11,-22,-18,29,-22,-18,-15,-2,15,-3,-8,21,29,-27,-22
1490227738358,2,2,-16,-21,-75,-47,5,2,15,5,15,31,-18,10,-17,-14
1490227738359,6,15,26,-2,27,3,-12,-6,-20,-4,-11,-11,44,-38,21,2
1490227738407,-5,-12,-15,6,-30,71,-4,-10,1,-17,-27,-43,-73,53,6,4
1490227738456,-21,69,-6,-65,26,14,24,3,11,71,9,-16,4,11,45,4
1490227738554,-5,2,13,2,-52,64,-3,2,-5,-1,5,10,-26,17,49,-1
1490227738558,-47,19,24,47,-11,26,45,-18,-9,6,-29,-87,61,16,-3,22
1490227738606,2,-79,41,3,-1,36,7,-11,16,-61,37,17,29,80,40,28
1490227738608,18,-43,-47,73,-27,-8,2,1,6,-56,-41,45,82,-4,-12,-18
1490227738651,14,-28,38,-6,35,19,-30,4,-21,-22,21,-32,-62,-5,28,-4
1490227738700,-6,-3,-9,10,-26,1,16,-1,5,-10,-24,-15,-2,-2,-1,-5
1490227738750,-4,-22,-20,-13,4,4,112,-2,5,-9,-3,-7,11,3,89,8
1490227738808,3,33,18,22,-11,-3,-49,-3,15,24,6,-13,-6,-2,29,14
1490227738846,13,10,-2,11,16,-116,110,7,23,6,-6,-17,-27,-114,127,8
1490227738848,-8,49,-11,-3,-24,-29,-47,0,6,38,-4,-27,1,-35,-20,-16
1490227738895,-41,-10,21,-14,-33,-68,-70,-1,7,-72,-15,-12,2,-98,18,-26
1490227738944,-6,8,-29,-55,-42,5,7,-21,-39,-11,-9,-25,-12,49,-43,1
1490227738993,-19,14,18,-4,21,127,25,-1,-15,-11,45,13,-11,127,35,31
1490227739041,48,-28,-128,-22,21,37,-43,34,-49,10,102,25,44,53,28,-65
1490227739043,-98,-3,17,-11,-37,-33,43,33,-5,-64,-73,-75,-45,-103,-62,-40
1490227739091,5,-60,-39,-67,14,37,41,8,-50,85,54,127,-4,111,-32,0
1490227739142,-39,37,105,33,-19,14,18,17,36,38,-49,-4,6,-73,14,-76
1490227739188,-111,-83,52,8,-17,45,-3,34,9,-3,61,-8,2,127,15,-2
1490227739238,-9,-112,-29,-8,32,-9,40,11,127,94,37,-73,-39,-30,-8,37
1490227739284,52,14,-128,-68,-26,43,5,-34,-30,-77,119,19,-10,127,5,-8
1490227739333,10,47,-43,-84,-5,-84,-60,36,-41,-70,56,73,11,31,9,-43
1490227739334,42,40,96,98,65,16,51,43,122,118,50,52,40,-9,-42,0
1490227739382,-19,-82,-66,-22,19,-6,5,-7,-32,9,-40,-53,-9,-2,27,14
1490227739432,-67,-60,105,17,7,76,-1,-14,33,12,-93,-37,-12,9,-16,-26
1490227739479,5,60,-10,5,5,-35,-65,-7,9,37,72,5,-4,7,72,14
1490227739482,12,24,-40,-21,7,28,27,-19,-32,47,-2,-43,-19,7,-47,-49
1490227739577,20,-23,30,20,21,-1,-29,-3,84,48,4,5,10,62,53,5
1490227739579,-13,38,-32,-71,-31,8,-16,4,34,-13,-45,-16,-4,-30,-10,0
1490227739627,-111,-2,-12,-63,-8,64,56,10,21,-28,-36,-31,8,127,21,18
1490227739675,43,45,7,-28,1,29,-13,20,18,-11,1,-31,-20,33,15,-1
1490227739723,28,2,-10,-6,9,4,14,2,-28,5,5,17,0,7,-11,-8
1490227739725,24,8,15,16,21,29,58,10,-18,15,11,7,22,17,15,13
1490227739773,-35,-16,-3,-32,-41,8,-5,-22,-8,-19,-12,-47,1,10,9,5
1490227739822,101,14,19,36,-17,-6,-36,6,23,-61,14,-8,11,-8,-20,-8
1490227739870,-27,11,20,52,24,-22,-98,-4,21,17,33,27,-18,-27,-14,3
1490227739919,-1,4,-28,8,9,-34,19,-3,-45,-13,-42,-6,-13,-51,1,-5
1490227739967,-62,-27,-18,68,6,-2,0,-3,61,-2,-19,85,12,-7,23,19
1490227739969,1,-42,-7,-62,-5,61,-32,10,-31,-4,0,-32,2,7,-112,-10
1490227740017,-53,-3,-10,8,-5,-88,-17,-20,56,-7,-3,-11,-17,-54,33,19
1490227740066,58,2,-13,27,-1,8,0,29,-37,9,11,7,-17,-21,-5,-23
1490227740114,44,22,4,5,25,16,-41,-3,20,36,-12,-3,0,0,-20,-14
1490227740162,-31,17,-36,-29,-15,12,-40,-6,-3,-35,-14,0,15,-12,-10,-7
1490227740163,0,31,-76,-28,-15,-11,-3,12,-52,-44,-39,-27,-14,-17,-2,-32
1490227740211,2,30,54,46,1,-30,1,10,-84,-59,-19,-47,-1,-15,51,-33
1490227740260,-70,6,12,13,14,17,23,-7,63,66,94,101,15,18,16,1
1490227740309,127,111,3,-55,14,13,-37,17,-69,15,52,123,25,-13,91,27
1490227740359,-20,-68,-2,67,-29,37,62,-26,36,86,-17,-111,-41,11,-89,60
1490227740406,-95,-28,76,75,15,49,-4,-52,57,-11,-103,6,-11,-27,56,-5
1490227740408,127,68,-41,-101,-31,-39,-35,94,-128,-127,21,37,12,34,-13,-67
1490227740455,127,-35,-128,-75,-22,29,83,84,-65,-87,53,-38,-38,-23,-35,12
1490227740504,-45,-43,127,72,35,26,104,72,84,89,53,127,48,9,-7,-10
1490227740553,-103,-41,-90,-87,-6,63,-27,-75,127,-29,21,-11,-36,2,27,99
1490227740601,94,29,57,120,98,-35,-25,43,88,126,-66,-128,9,54,3,44
1490227740649,123,-25,-6,-64,-32,-68,-20,40,-98,-30,-74,-20,-48,-83,-3,-74
1490227740650,-9,44,-12,97,-28,-23,94,73,-99,34,74,93,86,73,97,-15
1490227740699,-28,31,123,86,27,-57,-29,109,65,87,116,127,112,59,43,-90
1490227740747,79,-7,-128,-128,32,-6,-33,-61,-106,-123,-95,-128,-96,-23,8,-30
1490227740796,127,127,-40,127,63,-10,12,40,73,68,-100,34,-46,-13,-19,68
1490227740844,-83,-83,-128,-128,4,20,68,17,-126,-128,-27,-76,-39,-43,-77,-106
1490227740845,127,88,64,90,-4,-8,26,-42,-4,-42,-75,-128,-17,-51,-63,-45
1490227740894,-50,126,96,35,51,2,-33,-48,49,40,-38,44,-3,1,21,76
1490227740946,40,12,115,127,53,65,95,50,-44,-69,-119,-40,15,91,10,-35
1490227740993,-56,127,43,-89,-36,-36,-40,69,95,90,120,74,66,47,67,39
1490227741040,58,71,107,71,-19,-71,-62,-7,67,3,27,20,45,30,14,39
1490227741088,-29,-60,-90,-23,-29,-55,-3,-31,12,32,25,66,59,-10,-7,-10
1490227741089,-38,-25,105,-128,-44,-11,-26,-46,6,-68,-23,52,-43,-17,-11,26
1490227741138,9,-28,-39,-4,2,-67,-44,-37,-4,-38,-115,-7,-12,-7,41,-10
1490227741186,-3,26,114,116,89,32,48,25,67,42,-109,-34,9,16,4,6
1490227741235,26,59,77,46,25,31,-10,16,38,41,42,73,-74,-72,4,23
1490227741284,-68,-107,-102,-102,-109,82,-19,-17,-39,-121,-128,-128,41,-4,33,-22
1490227741332,-40,-38,-59,-37,-40,-36,41,0,29,25,53,-19,3,11,35,11
1490227741335,-13,-24,-116,-72,-41,117,18,-2,8,-39,-62,-111,-68,35,-38,1
1490227741381,8,-8,56,59,31,47,21,13,1,9,37,-27,-10,53,-17,-14
1490227741430,-15,69,50,100,2,-41,64,-4,0,15,-52,-40,22,18,-32,-26
1490227741479,-3,15,-10,-71,-40,124,-28,13,-7,23,-22,3,-128,110,16,-2
1490227741527,16,24,17,-23,49,112,-10,-3,61,48,48,-23,-15,-45,-28,23
1490227741528,0,-65,5,-116,-106,-123,84,25,-36,-66,3,-128,83,-112,-15,4
1490227741576,-12,-4,15,111,46,3,-3,-7,-7,-17,-16,44,32,10,-35,-28
1490227741625,-6,16,-64,-18,11,3,-22,-16,-21,25,-69,4,53,4,22,-3
1490227741677,18,-13,15,49,-35,2,23,-14,22,-66,6,-68,-61,-4,37,18
1490227741723,10,-46,20,67,19,-6,-19,10,10,-63,-52,27,124,-1,-11,3
1490227741771,3,4,-14,-66,3,5,-115,-1,-1,10,31,12,-68,2,-104,-16
1490227741772,0,23,4,-30,-64,-1,103,10,-5,22,20,9,-14,-4,-12,-1
1490227741820,-1,41,14,16,42,93,9,4,-3,19,-3,-39,-41,121,-9,9
1490227741869,21,19,5,-3,10,-97,24,33,-36,5,-5,-4,-16,-91,-48,13
1490227741918,0,-7,1,-16,30,-12,-52,-5,2,8,-3,-1,1,-9,65,18
1490227741966,-9,-38,-14,24,-4,-128,-16,-35,4,-7,-10,-66,-26,-63,-73,-17
1490227741967,22,-19,-20,-22,-45,-28,-1,-1,12,19,7,14,11,35,39,11
1490227742015,96,-8,36,45,42,25,42,14,-87,18,-35,-55,-21,42,23,13
1490227742064,7,-29,-64,-13,-70,106,-16,46,30,49,39,16,43,44,-33,-72
1490227742118,-25,-34,-101,-68,-5,8,43,76,-12,-16,24,-4,-1,-18,-58,-49
1490227742162,54,127,69,49,78,123,55,97,-61,-100,-78,29,-20,81,-7,-93
1490227742209,16,78,127,51,-2,-108,28,-36,65,37,-108,53,43,-124,64,25
1490227742210,1,-57,-110,-117,-54,-55,-40,-98,-37,66,70,24,-11,10,-37,-24
1490227742259,113,43,-1,9,27,10,48,61,-55,-51,63,63,22,74,-35,4
1490227742308,-109,-35,-28,23,19,-17,4,24,12,-90,-18,-23,0,-45,8,-45
1490227742357,32,93,39,-52,-5,18,-4,-21,-62,-55,-40,-1,-16,-19,-23,-9
1490227742405,7,-5,33,56,26,-21,31,25,-51,-75,30,-10,0,102,1,-35
1490227742455,-7,41,58,62,48,-32,-11,-82,14,20,-3,48,-13,-64,-6,-10
1490227742458,-71,-72,51,17,13,14,59,10,-59,-50,-99,-44,5,-31,4,-13
1490227742502,21,28,-128,-98,-54,-77,-31,8,24,31,-5,67,44,65,-33,-26
1490227742551,-63,37,50,73,24,-3,-10,-4,26,-53,-15,-31,-27,-20,1,13
1490227742600,56,1,35,-39,22,23,-38,11,-2,6,22,27,13,0,-10,28
1490227742648,13,-2,-49,-77,-25,-46,-14,-17,14,-13,36,16,-12,-52,2,6
1490227742649,-55,-2,-31,22,-14,110,16,10,-3,16,26,29,-3,127,6,-2
1490227742698,93,26,2,19,5,11,-44,29,2,5,-8,-9,13,30,-1,-6
1490227742752,32,12,-3,11,-18,-4,7,13,-9,5,0,58,26,1,-9,-21
1490227742795,6,17,13,41,1,15,11,2,-4,-9,-15,57,50,70,-14,2
1490227742844,19,-4,12,8,-29,11,20,-2,15,-40,7,14,-21,-4,-21,1
1490227742892,46,-4,23,-15,4,-91,-44,1,49,61,6,-20,-18,-60,20,11
1490227742894,-41,33,-12,-16,0,13,25,5,-6,16,-21,-38,4,-28,-115,-4
1490227742941,-23,-38,2,-7,6,81,38,-21,10,-15,5,5,-14,42,21,8
1490227742990,58,7,-6,0,-9,-48,3,31,-17,9,-15,-14,3,47,-44,-3
1490227743039,9,-3,-8,-25,-20,-55,-28,17,-7,2,-29,5,10,-28,67,-1
1490227743087,-5,-1,7,16,-8,-3,55,11,-50,31,31,-7,-19,-11,-1,4
1490227743135,-3,12,-43,-5,-5,4,-28,4,47,-13,-31,15,8,23,102,13
1490227743137,-55,21,20,48,24,-32,-46,-12,39,67,59,28,24,-20,1,9
1490227743185,-39,-55,73,54,13,3,58,-7,116,117,110,30,25,-1,27,9
1490227743234,-11,37,38,-36,7,43,-3,29,42,-37,-104,16,-5,20,11,-18
1490227743283,79,-9,-11,-53,12,83,51,62,-104,-83,-6,-9,-2,60,-56,-34
1490227743332,-125,-63,-125,83,22,105,-47,6,-80,-100,-21,-101,-34,6,-49,9
1490227743334,25,19,65,127,29,-37,-25,-5,-30,-19,-90,-55,-7,28,20,13
1490227743380,-22,88,-95,71,26,71,21,-20,-40,-20,-42,-81,-12,2,-24,-93
1490227743429,11,-57,-93,-15,-5,-8,13,-1,-80,-53,63,-49,-15,15,-35,28
1490227743526,60,118,-9,-86,-32,34,-34,31,16,-90,-117,-56,-59,-26,27,-29
1490227743528,-53,-60,-64,8,-16,-22,-103,46,98,127,127,58,47,21,-19,63
1490227743575,-69,-79,14,-105,-58,-20,29,27,31,-121,-5,12,-17,7,27,44
1490227743576,116,121,-93,127,0,-26,55,51,-63,-4,-55,-88,-3,115,-8,-3
1490227743624,-86,107,127,94,84,104,74,-25,127,-3,-27,-67,3,-47,9,40
1490227743673,-72,82,-128,-60,-31,-29,-27,51,-29,-66,115,-25,50,43,1,-59
1490227743722,-32,-5,-36,51,23,-82,-19,43,100,127,127,127,56,-97,14,70
1490227743770,4,-128,95,98,-44,-54,-45,-22,105,127,21,91,89,88,18,26
1490227743818,-77,-10,56,100,0,-24,21,-73,-23,-69,82,-54,37,-39,7,2
1490227743820,127,-42,-79,-22,-3,8,106,45,-66,-97,-107,-128,-105,-35,-61,-86
1490227743868,62,-101,-41,-14,-18,15,-23,46,-13,104,65,111,20,5,-9,86
1490227743917,-117,-35,11,-35,87,31,-63,-83,127,17,-52,-16,-73,-63,-2,60
1490227743965,-27,65,18,-18,-21,22,-1,-86,18,-57,-50,-70,-41,-15,-27,-30
1490227744013,11,107,40,100,-10,1,-26,-36,59,57,121,107,-16,-14,35,36
1490227744014,103,7,52,-44,-12,-4,22,-113,-45,56,19,127,83,1,-37,25
1490227744062,-76,-88,-88,-128,22,-46,-27,-7,127,67,5,-58,-54,23,24,-2
1490227744112,8,-20,-128,-82,-48,-46,-92,-27,-36,-128,75,22,69,71,54,8
1490227744162,-30,-61,-66,-58,-57,4,78,28,21,-50,-128,-77,-59,-58,-21,12
1490227744209,-87,-53,127,77,-104,-12,-24,-15,-37,-83,-81,-101,88,10,-50,-21
1490227744257,93,51,-67,-29,25,42,75,29,-34,9,-46,39,0,33,-53,-7
1490227744306,-24,66,10,127,72,31,-26,-9,29,15,46,-128,-67,33,50,24
1490227744307,-26,-53,75,12,42,-41,8,-22,-77,-67,4,-69,-88,50,-3,-14
1490227744355,-45,-84,-69,-98,-6,-27,11,-26,-77,-128,-117,-12,-56,-47,-7,-16
1490227744404,-6,-7,-89,-18,-24,4,-12,6,-7,-75,-64,-35,-10,-71,1,-7
1490227744453,-17,17,-5,-32,-16,-112,6,0,1,10,13,1,30,-97,-4,-7
1490227744455,-37,-37,-79,-128,-73,11,-34,-8,-14,-14,-56,5,37,-5,26,11
1490227744550,8,26,54,54,24,19,8,-1,-25,-35,-44,-54,100,30,-19,-15
1490227744551,-2,-14,31,90,-4,-41,-28,-16,-37,11,-27,-46,4,94,-15,-18
1490227744599,-8,8,-21,-128,90,93,-1,-30,-13,20,93,127,-95,-51,-53,-21
1490227744647,10,-16,-16,-6,117,-73,0,20,7,-7,4,42,33,-1,4,2
1490227744695,37,-2,-16,-6,-80,-29,-4,37,23,-6,-15,1,68,29,1,-11
1490227744697,9,-41,43,55,-42,9,27,10,12,-8,-6,-93,18,-57,49,15
1490227744745,-16,14,-22,-17,78,-102,62,-12,43,17,-5,20,86,27,9,33
1490227744794,4,4,-3,59,-19,58,-12,-6,3,11,-6,-12,-81,49,65,-2
1490227744842,11,-21,-19,-63,95,16,20,-3,-24,-15,13,16,-21,2,43,-4
1490227744892,-4,2,12,-1,-43,6,-19,6,28,13,0,17,-35,1,21,10
1490227744940,-5,13,12,10,-62,67,-44,-3,4,-13,-18,28,-8,-22,-20,20
1490227744941,25,18,14,30,-12,-65,39,11,12,33,0,-45,-38,-38,-98,-10
1490227744989,-10,14,-8,-9,-13,-69,52,-7,-17,19,56,26,-39,-120,-31,24
1490227745038,93,5,-19,54,32,-108,-31,51,-77,35,36,9,-41,-83,-23,-38
1490227745086,-16,29,14,40,-6,127,11,19,44,23,94,101,33,127,-1,2
1490227745134,-37,-107,-99,-62,-17,40,-40,-30,14,53,61,23,23,29,22,19
1490227745136,-33,-45,-61,-78,-39,11,-23,49,-68,-128,-67,17,10,1,6,-49
1490227745186,113,72,30,23,3,2,40,49,-125,-59,-11,-31,-7,99,-17,-28
1490227745233,4,126,127,72,43,27,0,-44,14,-115,-128,7,4,6,-16,-53
1490227745281,46,-83,73,-54,-59,61,-27,-37,-75,-10,7,56,29,7,-4,91
1490227745330,127,-68,-26,36,-3,-46,-27,-41,-34,42,33,-55,-27,-26,13,43
1490227745378,-29,5,87,-70,-17,9,-22,-27,-60,56,0,-82,-5,31,-15,-29
1490227745380,64,-41,-80,-82,-51,-24,6,80,-81,-102,59,-38,-24,-6,5,-39
1490227745432,38,-18,-84,-102,-9,-6,15,-33,-87,-18,-58,-41,-46,-53,24,37
1490227745476,52,-49,116,-62,-11,1,-43,57,-16,89,-62,31,3,-10,-1,13
1490227745525,-2,-17,-43,-72,-19,-47,-8,-15,102,80,45,68,36,-42,11,28
1490227745574,-88,-13,47,6,-9,40,16,64,117,-45,-46,34,-8,31,-30,-20
1490227745622,-42,-39,23,32,2,-31,-9,-3,11,40,30,77,32,-6,-5,51
1490227745623,-23,4,-33,4,23,-11,-41,-44,-12,-41,6,40,-10,78,17,29
1490227745672,44,0,79,24,22,14,13,-7,44,21,1,3,0,-18,2,-9
1490227745720,-7,11,7,-24,-15,12,24,1,40,10,17,6,10,10,-15,-9
1490227745769,6,-6,-6,7,45,-52,48,42,-30,-16,-6,-21,8,-19,6,-19
1490227745820,-29,13,14,37,-25,-33,1,-11,-90,-21,-20,-17,-9,-17,-19,15
1490227745824,7,-8,7,43,34,-15,-21,-20,18,8,-13,6,-36,-19,-10,26
1490227745866,-36,-31,-4,0,31,54,-20,-3,33,2,2,46,13,36,56,19
1490227745915,48,-38,4,31,-37,34,-8,11,73,-20,-24,13,-33,-26,-29,-3
1490227745964,-13,-19,-24,-8,-28,-27,-11,-1,0,-24,0,15,5,-21,-6,-5
1490227746013,-42,-5,-7,-20,-7,-1,-29,-3,39,41,-3,-33,-36,-27,66,-4
1490227746061,50,20,3,-4,-6,-2,37,15,-53,-1,-4,-4,-12,-6,-43,-22
1490227746062,0,4,16,11,-17,3,-56,15,30,5,6,22,25,-34,-7,-7
1490227746112,-38,-1,-1,10,27,13,1,-2,18,-4,13,-4,6,15,6,18
1490227746159,42,0,-7,8,-1,24,20,-1,25,12,-16,-14,-23,-37,-69,17
1490227746208,54,27,52,2,-11,5,13,14,97,37,-14,23,21,13,-21,10
1490227746257,-48,-21,-9,-57,-33,-22,-22,-12,-64,-15,5,-12,-2,2,29,0
1490227746304,-54,-38,33,-8,4,22,-5,6,66,-15,-5,-19,11,-7,-2,16
1490227746312,40,25,-29,-67,-17,-6,53,44,95,35,-8,11,-1,15,3,15
1490227746354,-35,4,20,-29,27,32,-49,-4,-66,13,27,77,-16,3,26,10
1490227746402,-19,-99,100,-90,-4,-3,14,-30,44,10,12,7,22,13,-30,85
1490227746451,24,1,-128,42,44,36,22,-20,123,-5,118,-30,-38,-47,-43,0
1490227746499,62,60,-104,127,59,-35,-17,-112,-103,37,94,100,-9,-22,3,6
1490227746501,-53,-116,-91,9,-14,25,6,48,40,63,127,2,33,41,36,-2
1490227746549,-67,-103,0,54,36,57,92,51,28,50,-25,-128,-9,-31,-29,-29
1490227746598,15,54,52,113,0,-25,-27,-23,-110,54,26,-26,17,-11,-95,-107
1490227746648,51,-128,-128,-49,4,-24,18,-22,89,75,90,-31,-31,15,23,10
1490227746695,102,43,-99,102,-3,-20,0,35,50,64,-10,-96,-11,-52,-42,60
1490227746743,64,66,127,-6,-14,-16,38,26,-46,44,34,-28,22,21,-34,41
1490227746744,35,15,-128,13,1,-44,-73,-7,59,30,58,-44,-47,-34,58,-36
1490227746792,43,41,-127,43,-6,-39,-31,-14,33,28,36,-58,-26,-15,-1,61
1490227746841,127,-61,16,-67,6,46,-43,-25,-114,-87,10,-2,28,38,30,-10
1490227746890,82,57,100,-18,-52,17,8,-92,34,33,74,127,28,-6,-87,-41
1490227746940,51,0,-13,32,-26,-29,-18,37,20,89,89,120,45,-10,-1,9
1490227746987,-128,-128,-128,-116,-39,-18,1,-73,104,127,107,63,25,12,0,-43
1490227746989,76,67,17,-68,-18,12,22,53,-128,-128,-128,-73,-32,-1,-26,-10
1490227747037,41,-10,33,-14,-19,-9,78,-32,-38,98,127,96,96,22,42,66
1490227747085,91,-82,-122,-58,-77,-28,14,60,96,71,24,51,-14,-11,-40,-3
1490227747134,28,111,-81,111,12,6,-28,0,-94,-128,-57,-110,-62,59,22,-9
1490227747183,-19,-2,91,-36,-22,-31,-102,-58,103,69,63,54,111,47,92,47
1490227747187,58,-66,-123,-87,-35,29,51,33,-81,-103,-124,-128,-128,-74,-83,-106
1490227747232,38,35,31,-78,-26,-2,-36,-80,-7,46,50,37,113,13,32,55
1490227747280,77,127,100,-20,28,3,12,111,-104,-50,-49,-88,-56,-44,-50,-92
1490227747329,45,-109,-77,-116,-21,-42,-49,-19,32,-22,40,125,45,68,10,8
1490227747378,57,61,32,32,-4,40,-31,14,85,104,76,20,-10,-43,55,46
1490227747430,21,127,127,127,90,25,38,61,80,70,-53,127,-6,51,12,16
1490227747434,-45,-30,42,66,29,13,23,-9,-128,-23,22,27,28,-40,-54,-37
1490227747475,-6,-8,33,10,-5,43,32,1,69,119,127,126,-8,65,-5,30
1490227747524,8,-45,-128,-74,-18,-82,4,-8,7,20,61,-56,-11,40,-40,-2
1490227747574,-13,9,48,-19,-85,-34,58,7,-49,-16,-92,-128,28,-9,23,-19
1490227747620,-22,56,30,32,43,-47,26,8,41,23,98,47,82,-46,27,20
1490227747622,-47,-114,-121,-128,-91,51,75,14,1,62,111,109,35,86,8,-13
1490227747670,-12,-47,-31,-69,-26,37,-13,-11,-30,-59,12,88,-60,27,22,-15
1490227747719,-5,37,52,51,-1,26,18,26,-5,21,-78,-73,-50,12,-22,-22
1490227747767,19,36,-24,53,-51,-68,23,12,-12,14,-2,33,51,-13,19,0
1490227747816,-27,29,64,35,52,-55,-7,13,12,-8,-24,-39,-39,49,-12,-3
1490227747864,0,15,26,90,-14,-14,-42,-23,26,20,21,56,52,-45,2,17
1490227747866,11,-3,-67,-128,57,91,35,0,2,2,4,50,75,31,-15,6
1490227747914,4,-14,3,-35,-101,-13,6,-12,-15,-21,31,28,-28,-84,-34,6
1490227747963,-39,-24,-24,-12,-7,3,-21,-18,-13,-10,-2,4,10,14,-21,1
1490227748012,5,11,17,23,-19,-27,33,7,-5,-12,-32,-48,-51,5,-2,-2
1490227748060,-3,32,106,42,-25,-75,9,13,-6,7,-36,-26,70,57,6,-7
1490227748108,48,38,-14,-42,61,6,14,-8,29,60,80,98,17,-51,9,58
1490227748109,-28,28,-62,-54,-1,-12,-44,12,-26,-128,-50,-62,-34,-42,42,-63
1490227748157,-119,-92,-64,-21,-32,92,-53,-30,92,60,-33,-42,74,91,15,-15
1490227748206,-24,-128,-103,-128,-85,104,-56,-54,-70,-40,32,98,-18,56,-21,-7
1490227748255,53,123,81,123,73,-82,0,3,31,-16,85,20,-2,-128,29,-11
1490227748304,31,35,5,84,59,14,17,-6,45,78,-102,-77,1,-102,63,75
1490227748305,-98,-46,44,-38,13,-4,26,-24,21,22,-66,-7,11,39,-8,3
1490227748353,40,80,21,29,-15,-7,-3,31,-17,2,66,38,26,5,-13,31
1490227748401,-6,45,-111,96,54,83,25,30,105,56,37,61,10,6,47,76
1490227748450,-16,22,3,58,9,15,-13,-41,127,81,-102,-27,17,-47,24,79
1490227748499,29,-10,16,16,-3,-49,-10,34,16,14,127,72,-30,-62,1,-12
1490227748547,51,78,127,92,18,-15,-41,56,-83,-127,0,-10,27,-9,-13,-37
1490227748549,12,22,-56,-128,-42,-1,21,32,-60,-124,26,61,6,-14,-7,15
1490227748597,-81,28,47,53,50,23,8,-25,-34,14,127,66,17,8,13,11
1490227748647,-6,-33,-76,-47,7,7,79,-40,-126,-34,-119,-53,-30,-14,-14,-76
1490227748694,-71,0,-63,-122,-22,-14,-4,18,35,-41,103,56,-50,-9,-27,-23
1490227748742,46,50,123,93,29,-25,0,42,72,-46,-11,-46,23,24,-17,50
1490227748791,25,-13,-21,-118,-42,-44,0,-1,-42,21,-12,3,5,-13,-46,-15
1490227748792,-35,51,-44,23,-5,5,-8,-12,27,-44,-8,0,-9,-10,-8,-35
1490227748840,-27,-56,3,-18,30,-16,4,4,22,63,97,34,33,44,69,41
1490227748889,-28,-11,-9,-25,-43,-3,7,-29,10,17,-7,54,54,3,22,8
1490227748939,-55,-17,-20,-7,22,0,-22,10,-1,34,54,21,11,55,94,-14
1490227748986,42,-29,-48,29,-16,-9,-13,24,-67,-53,-77,-92,-5,-40,-40,-34
1490227748988,-14,-42,-18,-34,2,-10,-32,-23,-19,4,-8,16,32,15,47,22
1490227749037,26,3,7,47,57,-23,-37,3,59,16,15,-11,-8,-26,42,21
1490227749084,-29,7,16,16,5,0,-24,-6,16,6,-4,-21,3,34,47,-11
1490227749133,-8,0,22,44,21,25,31,32,8,10,4,42,4,-1,24,16
1490227749181,-36,-4,-10,-9,-36,-24,-38,-23,55,-1,4,3,1,6,-8,14
1490227749229,-1,-2,-1,-31,-9,18,1,-9,-31,-33,-17,-8,-35,-23,-1,-14
1490227749230,85,18,-1,-6,-9,2,42,46,29,-8,-21,4,8,13,-45,-24
1490227749279,-72,-27,-11,34,70,5,-121,-27,49,19,7,16,-4,1,-22,5
1490227749327,37,3,-8,13,-2,23,56,13,-9,-8,-11,-44,-20,-10,-4,0
1490227749376,-38,-2,11,6,-4,10,-17,-24,8,-9,4,1,-16,4,-3,9
1490227749425,19,22,5,-26,10,9,-33,-18,17,15,19,13,22,13,54,30
1490227749473,-13,-2,-5,14,7,-9,25,-7,-18,-4,-4,-23,-37,10,-37,-8
1490227749474,-24,-8,-6,-1,5,-16,-29,-19,-3,4,-5,-23,-16,-8,-10,-1
1490227749522,24,7,6,-19,-28,-7,-57,-12,12,17,6,7,6,-2,-31,-1
1490227749571,-13,-14,-4,-18,-35,-13,-29,1,19,10,-2,7,25,-5,-5,-3
1490227749620,-44,-1,-3,9,18,5,20,-2,39,24,12,29,17,33,8,6
