1490822466596,-67,-19,-9,-20,-31,29,-18,7,12,10,-2,58,45,-7,16,0
1490822466645,-10,-25,-21,-29,-78,-10,4,1,2,-1,-1,-42,14,-79,-27,-3
1490822466646,-27,-14,3,18,22,-34,-19,10,15,4,12,24,84,100,9,-2
1490822466694,85,60,68,40,-79,-32,7,74,-89,-29,-56,-128,19,-66,-62,-81
1490822466743,66,18,2,109,73,-27,36,14,-6,-19,-28,-120,-64,97,-77,55
1490822466792,18,32,80,-17,-15,-45,125,-17,41,-20,-74,-85,14,-3,-99,49
1490822466840,57,81,36,-8,62,-62,-88,-18,97,5,-14,6,-112,-16,80,10
1490822466889,-66,-16,81,-118,45,48,-19,33,-32,-12,-80,58,-67,2,-12,-13
1490822466890,51,4,-86,-88,-1,91,77,52,31,-38,20,26,-80,-93,15,-26
1490822466938,69,-20,-11,66,14,-5,-44,19,-13,10,1,80,67,68,17,10
1490822466987,-10,-18,34,127,-18,63,30,-15,56,24,23,-75,-120,32,2,81
1490822467035,55,-34,-58,87,-91,1,-28,-16,-56,-14,-42,19,-27,40,32,-24
1490822467084,-38,-26,-79,-128,-83,-115,-105,-12,-30,32,-21,55,-111,57,38,-34
1490822467085,32,9,65,22,121,117,26,-2,54,-4,32,-128,18,-2,-55,-31
1490822467134,-47,-42,-98,-106,-15,-94,-38,-57,-30,13,-45,84,-28,79,-43,24
1490822467182,55,11,34,16,-31,36,-8,36,36,-4,-36,-13,-112,-55,62,47
1490822467230,-35,37,98,83,53,107,55,8,4,44,15,-68,-68,-64,21,-2
1490822467279,37,-10,-34,50,-25,127,45,-19,30,-8,-84,-84,-76,-54,127,52
1490822467327,-53,-24,-98,-127,-90,-1,-62,-17,-101,-41,-107,-17,123,-9,-53,-36
1490822467338,-44,1,-59,80,50,38,-46,13,-10,-19,41,38,127,109,75,15
1490822467376,-15,-37,-10,-110,-38,-24,1,-10,-20,63,116,10,53,52,18,-21
1490822467425,117,-39,104,50,75,117,44,40,83,11,-28,-48,-121,76,-46,28
1490822467474,-51,-56,-31,-61,-33,-17,-4,-37,33,1,-33,-97,-52,19,39,1
1490822467522,-6,3,17,86,-3,2,-22,-63,7,-30,16,36,92,70,-4,-24
1490822467523,-128,66,-120,-84,6,82,-19,4,-108,69,85,127,127,127,52,29
1490822467572,-13,82,-38,-89,-60,-34,-2,10,-35,47,57,-90,-128,98,-66,-15
1490822467620,-60,-72,24,-82,-38,32,9,3,34,35,37,-49,-8,60,37,9
1490822467669,83,22,-2,18,55,20,39,15,-61,-3,32,-5,-110,47,12,-16
1490822467718,2,12,4,35,50,88,18,-1,-4,-23,7,47,-11,2,19,9
1490822467766,-79,-35,-96,-7,-77,-69,-57,-29,25,6,0,-13,-5,-113,-28,-23
1490822467767,66,-34,11,11,83,41,20,-15,60,4,-37,-52,-27,-10,31,1
1490822467815,82,58,96,108,127,-27,34,12,119,-9,41,62,-45,107,82,41
1490822467912,14,-4,8,43,92,15,4,-29,-4,82,-48,72,118,43,33,22
1490822467913,-128,50,72,69,-11,-71,-16,-37,-119,14,-14,92,66,90,71,26
1490822467961,-125,61,89,48,55,60,65,8,-116,-34,-39,-61,-49,-101,-66,-12
1490822468009,-16,98,67,20,71,118,91,39,-70,20,11,-10,-53,-69,0,12
1490822468011,-89,-20,19,-128,-100,-30,-5,-41,0,54,13,-45,112,86,10,7
1490822468059,127,42,-67,-120,-128,51,-83,11,24,-45,-26,-6,35,14,-34,-87
1490822468108,4,-6,99,52,64,98,-64,-4,-36,-33,12,2,-108,38,-14,-31
1490822468156,49,23,-7,-81,-49,-52,49,54,30,-25,-51,-40,-91,65,-58,-38
1490822468205,-86,-45,-65,57,-13,122,-103,-8,-17,83,67,14,61,41,79,11
1490822468206,52,15,96,94,111,-49,16,-4,-10,1,45,-8,70,-102,-66,-8
1490822468254,36,-54,-15,-113,58,127,30,21,101,68,-29,88,-6,-128,-53,28
1490822468303,-71,-25,3,11,80,-91,-64,-58,17,21,60,92,52,-37,-66,-16
1490822468352,-38,15,-32,-32,8,-14,-14,20,-24,-84,-109,-128,-128,-79,-66,-83
1490822468448,12,16,90,-90,-128,127,47,-14,59,-32,-113,76,122,-55,23,67
1490822468450,78,7,62,38,77,127,110,74,0,14,21,62,-128,0,-51,-57
1490822468451,-81,-17,-70,-107,-36,-128,-1,1,-90,-43,-38,107,-92,54,-5,-19
1490822468498,-26,-31,-51,-36,8,115,-4,19,88,-6,-54,-85,109,73,-17,2
1490822468546,85,7,18,104,69,58,-13,18,-40,8,11,-79,-109,43,-40,-1
1490822468643,33,-5,-73,-65,-55,-39,-20,21,37,-15,-51,-8,37,13,-2,20
1490822468645,-27,61,65,-2,101,42,-54,5,-39,42,18,31,-83,-43,60,58
1490822468692,-112,35,54,106,-7,-77,18,-95,-31,-23,-67,-102,-42,10,35,8
1490822468694,-80,-11,41,127,-77,98,0,19,-59,-37,-37,-16,27,39,67,-36
1490822468790,-9,-41,-118,-120,-31,-30,-45,-52,96,49,103,-5,112,110,31,71
1490822468791,30,-35,-77,-105,-118,-69,-50,-51,0,-31,57,-81,104,127,-1,-54
1490822468839,-128,-57,-87,-64,-71,-113,-36,-61,14,41,14,37,-46,30,46,-33
1490822468887,-28,33,63,127,127,109,-9,61,-14,17,29,30,35,30,-7,36
1490822468888,-128,9,26,-128,31,59,56,-13,47,-27,-110,-10,12,13,19,5
1490822468937,-72,-40,-54,56,-35,21,57,-98,-116,17,58,27,-101,-73,-79,26
1490822468985,16,30,-43,84,80,80,8,19,-85,-83,-123,-128,-10,-89,-67,-75
1490822469034,-22,-26,72,-27,127,127,-9,26,85,2,-62,-75,-128,-16,-10,-13
1490822469083,6,-1,53,87,83,107,-28,-16,32,32,15,30,-72,127,52,49
1490822469131,-65,-26,-37,-33,-41,-85,-68,-8,26,20,-27,-59,-9,-20,-28,-20
1490822469132,7,33,67,71,98,63,36,-2,4,-15,61,-122,-6,-83,-20,13
1490822469180,-27,-31,-43,83,30,51,43,-26,56,-32,-37,-9,-64,-87,-23,8
1490822469229,76,35,30,-55,-95,-93,2,-15,32,-23,92,60,-4,-23,-54,-21
1490822469278,-63,8,100,-9,-14,-59,27,-4,32,37,68,54,102,-3,18,39
1490822469327,-22,-26,11,-15,-49,14,23,-5,-7,115,31,30,85,43,22,6
1490822469376,19,-74,-63,65,-15,23,32,16,37,71,97,-108,44,53,9,9
1490822469378,-96,-10,44,19,-89,-63,20,11,-99,-15,-41,-64,-96,23,-3,1
1490822469424,-105,2,-45,4,111,99,58,-13,-17,-13,21,61,24,-81,-66,-23
1490822469473,118,14,-128,-97,-111,-34,22,-35,125,-39,-117,5,-75,-105,-101,7
1490822469521,57,16,9,-75,-23,9,-23,8,-1,46,76,79,127,127,25,-8
1490822469570,-38,-37,-61,110,127,115,30,-27,5,-27,-128,-123,-83,-14,-28,11
1490822469572,34,3,35,81,-46,32,-60,17,-7,-48,-19,-105,-55,61,-7,-35
1490822469619,13,-15,48,97,109,60,88,-3,75,26,46,-7,-78,-60,-102,4
1490822469668,13,13,-84,-62,14,8,-73,17,-21,-29,87,83,108,53,96,38
1490822469717,97,38,127,127,127,127,89,-8,-48,31,-31,-31,-128,-104,15,-26
1490822469766,127,-9,-7,-128,-128,-39,-39,-8,121,1,-46,-58,17,83,59,19
1490822469813,-128,24,-12,-24,-128,-117,-4,-13,-119,-41,-69,-46,54,98,-36,-10
1490822469814,-70,-29,-21,-43,127,38,-29,-14,-24,43,35,102,56,51,90,6
1490822469863,-109,-107,-87,40,-93,-89,26,-13,25,17,25,59,69,-34,34,0
1490822469911,-108,-7,-72,-99,-35,-36,-18,38,-128,-35,32,-128,-22,-102,61,-2
1490822469960,107,-2,42,-105,3,127,58,39,81,-52,-77,58,-8,-107,-128,-90
1490822470009,101,79,56,31,-9,103,-41,61,-106,-106,-86,-128,-60,56,2,-36
1490822470057,-93,1,102,-90,89,85,32,28,-7,-40,-69,62,-14,-36,-49,45
1490822470059,-66,-7,54,58,-35,-11,89,13,31,35,49,18,66,125,53,1
1490822470108,-48,-91,-112,-17,-28,-119,-32,-94,53,-25,-4,9,36,127,-36,8
1490822470155,-36,-58,-73,-28,-8,-47,-40,1,-67,13,36,53,95,-13,77,-47
1490822470204,-82,-2,-43,18,5,-110,4,81,-65,-84,-82,-99,-96,96,-82,-79
1490822470252,5,-25,-61,35,-14,58,-3,-21,-55,17,97,-80,117,-40,-60,-2
1490822470253,22,28,75,42,127,71,-53,79,81,24,-29,14,-113,107,66,-25
1490822470302,47,50,103,127,50,127,25,0,2,-27,-91,-127,-12,84,-38,-29
1490822470350,11,52,117,-58,100,77,60,-23,-73,6,-23,40,-128,-52,-95,7
1490822470399,-82,-15,-38,-100,-69,-45,14,-11,35,35,54,86,103,83,-13,69
1490822470448,-46,-33,-78,-77,-81,10,-56,5,-41,-11,110,-85,25,104,8,-58
1490822470496,102,84,78,100,73,9,-6,75,-79,-57,-57,52,70,-5,66,-96
1490822470497,35,20,92,127,85,72,43,22,71,-1,-65,-128,-128,28,100,55
1490822470546,-31,-90,-51,102,-40,-16,-95,-68,27,-37,-66,-53,-112,82,-12,-69
1490822470594,-42,18,30,77,113,82,98,22,107,16,-94,-76,-128,40,76,47
1490822470643,-28,-19,28,89,94,-128,-128,-9,-42,12,32,124,-121,127,-12,-70
1490822470692,72,-24,-10,69,27,70,-12,-4,-42,-19,-66,-106,-99,-68,-58,-31
1490822470694,-5,-19,-49,44,34,-128,-44,-22,-10,18,36,71,126,75,32,31
1490822470741,89,22,36,-81,43,-52,-100,-23,-87,-38,-56,-24,46,76,50,-14
1490822470789,2,86,61,45,49,58,26,23,-81,33,14,65,-9,24,-13,-15
1490822470838,1,-35,-2,14,-69,127,48,-14,-34,20,-42,-60,-35,-33,50,12
1490822470886,100,48,115,74,20,114,49,77,35,7,-5,90,74,-3,-16,-2
1490822470935,79,3,17,-64,0,-19,20,16,-20,-5,43,-17,-18,18,-25,-20
1490822470936,-17,5,28,-59,-9,64,-35,-14,-40,-1,-55,-84,-128,-76,15,32
1490822470984,22,-63,-46,12,-16,-21,2,26,96,1,45,33,-20,-33,-7,-2
1490822471033,95,11,-74,84,24,68,60,-2,-61,-67,25,3,-101,-27,-108,-17
1490822471082,-128,-42,12,-21,-36,-36,-35,-53,16,10,15,2,19,69,8,25
1490822471130,-128,-24,-36,-123,-31,24,15,-29,-58,23,17,-87,-54,-66,20,-5
1490822471178,76,-24,8,24,14,38,-1,-13,48,33,-24,-65,-15,44,-25,-37
1490822471181,7,-48,47,30,93,35,-14,5,9,-6,39,79,107,126,29,-20
1490822471228,6,7,72,14,35,-37,-16,19,68,17,125,101,127,123,107,22
1490822471277,-20,-2,40,77,56,25,9,-6,40,20,-70,-82,-28,-75,-57,3
1490822471325,85,-58,-128,-128,-6,-73,-60,-1,5,-6,-12,-2,61,-69,-48,-18
1490822471374,-52,-11,27,45,85,109,-1,-6,19,23,-98,38,-128,43,56,19
1490822471376,-17,-34,45,-7,-7,-62,-2,-9,-72,-56,-72,-24,-102,-83,-94,-68
1490822471424,-4,5,-42,17,30,-57,54,-4,-93,-48,-51,39,22,87,-26,-22
1490822471472,104,-17,15,-128,6,99,-21,26,127,89,42,55,-81,93,43,46
1490822471520,-82,64,44,127,0,48,32,-7,-128,-73,-125,-111,-16,18,-60,-59
1490822471569,-61,-11,19,-54,-128,37,-14,-10,-3,-71,-100,-95,-80,16,28,2
1490822471617,-42,-17,-16,-48,-86,-57,-21,-20,-5,-39,-85,-81,-40,70,-17,7
1490822471618,116,7,27,124,73,59,-45,-21,-68,-6,36,75,66,-18,10,16
1490822471667,55,42,14,-82,-100,54,67,18,0,39,-1,-68,68,5,-58,-13
1490822471715,-128,29,-75,127,-128,-99,8,-17,111,-41,-34,-57,61,7,-21,32
1490822471764,83,-10,-40,-128,-17,5,-22,-33,-79,-41,-36,82,-26,95,-45,-41
1490822471813,-54,-1,16,76,98,18,29,-83,63,-84,-25,-101,6,-124,15,5
1490822471862,73,85,24,127,117,-69,44,28,59,39,-25,-102,-28,-70,-4,59
1490822471869,-13,-62,-77,-37,0,15,14,-37,14,0,32,127,103,20,13,40
1490822471912,-27,16,-91,-128,-126,35,62,-66,77,2,71,1,15,86,-45,28
1490822471960,-53,23,28,39,-106,-128,-73,7,-4,47,38,27,34,113,83,-2
1490822472009,49,-7,76,49,70,-25,7,-20,-17,73,13,43,-76,117,-35,18
1490822472057,-44,26,-65,-128,-128,-71,-75,14,49,-99,-33,-128,83,73,-83,-55
1490822472061,-7,47,35,-128,127,67,-120,13,-128,-4,25,90,21,51,127,-17
1490822472106,-74,24,43,-1,-21,-91,14,8,-16,1,-84,-70,-96,-22,16,23
1490822472154,-23,-98,-103,-128,-98,12,-44,-63,-4,4,-42,15,127,110,43,5
1490822472203,42,-29,23,77,127,-96,-30,3,41,12,22,30,-64,127,-6,42
1490822472252,24,21,48,-106,37,55,33,118,-24,-60,9,127,67,-88,-105,-116
1490822472300,14,3,-35,-99,-128,15,-13,-10,-23,22,54,3,32,-40,-49,-1
1490822472302,50,40,-44,34,-128,33,38,-9,39,-30,-70,-17,14,0,92,-17
1490822472349,-37,-46,39,-38,-61,127,36,11,-80,-39,-89,-122,-42,-113,-128,-15
1490822472398,-72,-40,-29,113,-103,70,92,-36,-51,7,-10,-52,45,-66,-128,-45
1490822472446,37,-52,-100,-40,-128,33,-15,-6,29,42,20,42,103,10,27,20
1490822472495,62,-26,8,-75,-21,-59,46,-27,31,40,111,116,81,-5,-70,-43
1490822472543,-82,18,-45,-128,-128,-124,-82,8,15,13,-85,-63,61,18,2,11
1490822472544,-28,-1,10,-88,83,70,-21,-46,39,13,63,54,-26,28,64,76
1490822472593,23,-51,52,0,-18,-51,16,19,-32,67,122,55,33,50,50,-4
1490822472642,10,-3,-25,2,11,2,23,9,20,18,99,-24,-68,21,18,-15
1490822472738,26,5,36,-44,-35,9,13,13,17,20,-17,27,-3,13,23,-5
1490822472740,-10,5,7,58,8,15,-14,12,92,-17,-37,-43,-6,6,14,27
1490822472742,-39,-27,58,18,-33,-27,-32,-7,-125,19,-6,67,81,35,-41,-45
1490822472787,89,-31,-16,65,85,79,80,62,94,18,-34,104,-5,-34,-10,-11
1490822472836,24,19,-117,-25,5,-61,-34,-6,15,-19,5,-84,4,22,0,1
1490822472885,10,64,19,5,24,-3,59,31,0,23,10,76,99,117,-8,2
1490822472934,2,-18,-14,48,15,-9,-20,19,-7,9,-51,-55,-34,-87,67,-4
1490822472982,-6,-56,14,-67,110,98,47,-19,-20,24,63,-40,127,112,10,-12
1490822472984,8,-22,-32,-31,-56,-128,-91,-29,4,-54,127,127,23,-69,-11,-2
1490822473031,13,26,-86,-115,-74,-11,-74,-19,8,-11,-42,-38,78,89,71,-54
1490822473080,34,-74,-65,60,-43,-16,71,35,73,-36,-13,-107,-124,-128,-61,24
1490822473129,-2,-20,0,16,28,-84,-1,-43,31,-19,-73,-104,-58,-80,17,19
1490822473177,-107,-34,30,84,-89,54,-19,-10,-120,88,70,125,84,-37,-103,30
1490822473180,-2,29,57,31,104,76,73,-8,-49,18,-110,-40,31,-80,-23,91
1490822473226,-15,-16,35,101,-90,-33,-2,-43,-14,-33,-70,-106,36,22,32,65
1490822473275,20,4,4,-5,30,127,13,4,-72,4,33,-41,-119,-107,-83,-84
1490822473324,11,47,73,91,-13,-20,-11,-62,61,19,-58,-39,-90,-5,-8,-24
1490822473373,41,-24,-24,-128,-3,41,-4,8,-54,-2,-11,-1,103,-37,-16,-44
1490822473421,-89,-51,-24,9,-67,92,-99,-62,-21,-20,-40,-18,-29,3,-62,10
1490822473425,-25,-15,27,-50,-43,100,117,27,16,-24,7,100,-73,-68,-57,-46
1490822473471,-32,16,-66,40,113,-115,-128,-25,-59,17,18,50,-81,24,-58,-4
1490822473519,3,-26,25,-24,-32,73,80,-34,-111,-5,17,-35,48,6,-9,4
1490822473568,93,66,35,25,30,49,127,43,-20,12,34,63,13,74,23,45
1490822473617,-28,-46,-12,-42,48,61,56,-23,58,66,74,80,127,-20,-40,19
1490822473665,5,23,66,98,-4,-17,-76,-27,-62,-41,-47,-128,-7,65,36,43
1490822473666,11,19,95,81,118,-5,83,109,16,-42,-21,-113,-98,-123,89,-7
1490822473714,-48,-5,-87,-109,-73,-66,-2,-63,66,14,-3,-28,127,-45,-68,-3
1490822473763,81,-4,-42,65,37,40,0,27,-18,18,-26,-108,-121,-97,-65,-38
1490822473812,62,-30,-97,63,-58,-61,-92,6,9,8,31,55,65,113,47,-32
1490822473861,63,110,95,106,34,127,51,97,-125,1,-82,-128,-85,-128,-92,-44
1490822473865,-8,22,-9,91,-127,28,42,2,48,-1,-6,24,115,29,26,-6
1490822473909,-92,2,17,-43,-52,101,-103,-34,-19,-95,-128,-85,-98,-89,19,32
1490822473958,-73,20,-32,-69,-59,-97,0,-1,-6,32,-32,24,-96,127,10,-23
1490822474007,-32,6,-9,7,-39,38,63,-45,-44,-55,-66,61,86,17,-28,5
1490822474055,-13,26,59,61,127,127,54,5,-50,-62,-48,-72,-56,-46,-52,-56
1490822474103,83,89,40,65,-118,-105,14,0,-12,-37,6,-92,90,104,45,50
1490822474104,-11,-4,29,84,-111,-35,-28,-45,28,16,-11,-51,30,-67,-59,51
1490822474152,22,-2,35,-59,75,97,-46,33,-22,8,26,38,20,3,9,9
1490822474202,-18,4,67,-118,68,-67,-48,-5,-48,-36,-1,69,-128,10,19,-21
1490822474251,25,124,127,127,127,96,31,15,-8,-39,-117,-128,-128,0,-25,15
1490822474299,74,15,-33,58,-86,11,-18,7,-2,-15,-49,7,58,-9,-13,-8
1490822474347,-19,18,-95,29,46,46,-22,45,-20,-1,-41,-93,-63,68,-2,-11
1490822474349,-90,-23,50,27,91,70,77,6,-72,20,89,79,-89,-101,-8,2
1490822474397,96,70,108,29,59,16,-54,-31,78,-55,29,-12,-14,16,11,26
1490822474445,41,-32,35,15,-18,-72,-10,20,1,27,14,84,38,6,-17,-2
1490822474495,-27,-52,-63,-73,64,-13,-22,-37,47,31,-48,15,99,-6,-12,7
1490822474543,-5,-50,21,-11,-18,30,5,20,36,-20,22,71,81,64,0,-22
1490822474544,11,5,-57,44,51,-18,19,26,-66,14,-11,-24,-63,12,-6,-19
1490822474593,54,-10,1,-3,-28,27,12,-9,-87,-19,-70,63,89,-43,-2,1
1490822474641,10,-18,-37,-64,-45,1,-23,1,61,11,-7,4,67,68,-3,-20
1490822474690,48,92,61,-58,-128,-31,23,-3,22,-13,-20,9,53,49,26,-6
1490822474738,-82,-3,-51,48,10,-80,8,-39,100,69,66,21,1,-9,22,28
1490822474786,3,18,82,101,127,-49,-3,10,-62,-22,-128,-121,-128,-128,-11,-23
1490822474788,3,56,100,96,102,121,72,52,-58,18,-121,-85,-74,-51,-66,-29
1490822474836,-30,-67,-117,-110,-87,-50,-44,3,-27,-25,46,39,63,106,-40,-13
1490822474884,-8,-79,-64,-88,-72,-71,-20,-18,7,-11,43,96,45,22,-3,22
1490822474933,85,-18,-39,-45,-54,-59,5,-12,77,-32,45,113,87,127,99,30
1490822474982,-19,-41,-18,-49,26,44,31,25,-73,12,47,9,45,-13,60,41
1490822475030,88,20,28,60,21,125,-47,-6,-122,0,61,-128,-10,14,-11,-22
1490822475031,-109,-8,-8,-34,18,-78,-3,19,-57,27,76,82,46,78,62,50
1490822475079,20,10,-16,-31,55,-72,-35,-5,16,14,3,22,11,15,-9,24
1490822475128,-78,-46,2,-104,3,53,54,34,-24,-7,73,88,62,-67,22,6
1490822475177,-11,-16,-88,-52,-48,-13,-46,-25,-51,59,-1,127,-128,-88,-60,-18
1490822475225,-24,13,44,-67,47,127,49,-19,-126,8,42,69,83,124,-44,-36
1490822475226,85,37,77,90,58,53,-74,-19,36,-13,-24,-61,-128,-22,47,-30
1490822475274,30,-72,-40,41,37,42,-13,-12,67,47,12,23,96,115,58,28
1490822475323,-48,-70,23,-60,2,-3,-42,31,75,72,90,61,112,106,6,8
1490822475372,-100,22,-58,-26,11,-125,-86,25,-30,-33,21,-1,-20,76,-22,35
1490822475420,-23,-7,-81,78,53,124,25,-19,53,32,22,-112,-128,-111,-53,5
1490822475468,19,-51,-25,45,29,118,89,-15,-18,13,-26,-97,-128,40,24,11
1490822475469,-73,112,127,65,-35,-14,-60,-89,5,-61,-72,44,31,13,8,49
1490822475518,68,-29,-50,-128,44,82,-48,18,57,-16,13,16,-12,-51,-19,-26
1490822475567,51,-92,-25,52,125,7,-21,-35,44,59,37,-10,-128,-27,19,30
1490822475615,-65,36,6,-66,-94,-1,65,-22,-15,-27,-25,6,127,24,-114,-33
1490822475664,-54,-41,-27,22,35,-4,-9,-35,2,9,-4,-93,6,58,68,-2
1490822475712,18,44,13,-20,115,72,65,115,78,10,29,64,34,74,-89,68
1490822475713,37,40,58,89,102,-54,-39,21,-70,31,77,-14,-7,127,69,-34
1490822475761,86,-4,-10,-121,-46,127,65,58,13,12,88,-33,-44,-49,-53,-24
1490822475810,-83,-50,-93,-128,-29,-83,-65,-80,-71,-46,-43,127,-128,-63,33,-18
1490822475859,84,39,-26,39,-122,127,65,1,-115,-99,-74,-109,-39,-128,53,-85
1490822475908,-6,27,2,-34,-92,19,49,7,-60,-75,-108,-128,-119,-89,-128,-51
1490822475912,-128,-4,-32,11,-49,-49,-78,43,82,68,-20,15,-53,75,23,-12
1490822475957,-2,-43,-13,41,71,49,54,10,-61,-73,-90,-100,-79,-18,-1,11
1490822476005,4,-22,-79,-55,-128,30,-14,-35,-22,-63,9,-76,70,53,-29,35
1490822476054,-8,-20,-128,-30,78,-22,-23,-4,-11,8,8,-4,17,-100,7,21
1490822476103,-16,-11,-32,-43,-118,-49,3,26,12,38,99,73,67,106,-10,-17
1490822476151,-60,-43,-67,-109,-23,-60,-58,-38,-7,-66,-38,-52,-62,127,50,17
1490822476152,16,21,-37,-128,-101,30,17,7,0,-5,55,121,57,68,12,-9
1490822476201,16,47,50,68,-35,-103,22,21,15,-6,-17,8,-25,-58,-42,-38
1490822476250,2,-46,41,78,80,62,45,14,-38,26,-43,-82,-113,-58,-40,-34
1490822476299,14,-43,24,24,65,63,21,-23,-82,-25,-26,-9,-54,-24,-6,-1
1490822476346,-5,-3,58,-128,-23,42,-21,-18,-72,-53,-26,44,-13,-30,7,-3
1490822476347,-100,6,-52,-90,-43,-40,-25,-59,-116,26,114,15,51,20,-21,45
1490822476395,71,-47,17,80,47,86,19,-3,102,-44,-3,16,61,-13,-4,9
1490822476444,74,35,73,-75,-128,-61,5,26,0,5,-39,11,88,-18,31,-17
1490822476494,24,2,-49,46,13,11,-44,-10,88,0,-55,-60,45,31,9,23
1490822476543,-10,-67,-46,62,-105,-128,-50,5,-93,-21,58,-25,62,105,62,-54
1490822476589,-45,-62,-82,-128,-74,78,57,-5,-5,104,127,127,116,66,26,27
1490822476591,-15,-40,-127,-125,-98,-128,-104,2,-32,-16,85,127,127,127,49,7
1490822476639,-42,14,111,70,72,24,-25,1,50,-25,-21,-33,51,127,36,-46
1490822476689,115,24,51,-16,-62,-99,8,-9,-25,-62,-85,-10,-26,-13,-27,4
1490822476736,-67,-7,-86,-65,-128,-72,-20,24,-19,-42,-4,8,-56,-67,-26,-11
1490822476785,-25,-26,-48,-50,40,127,44,-8,-90,-1,-37,-24,-99,-128,-91,44
1490822476833,6,22,71,127,32,35,74,26,12,29,-26,55,-62,-96,-36,58
1490822476834,-72,-24,-49,-50,-78,-128,-57,4,-79,-11,-5,-78,127,127,31,11
1490822476883,-63,-19,-18,-8,127,-41,36,9,-41,-51,2,66,-127,14,2,-47
1490822476931,52,-35,24,-1,-12,57,71,12,12,-2,14,113,121,71,-69,-16
1490822476980,-94,33,2,90,-2,127,98,-8,-43,1,-77,-87,-40,-128,-98,-39
1490822477028,39,37,26,-31,-10,82,23,-41,33,-34,-101,-104,-128,-91,-108,15
1490822477029,-67,82,37,62,56,21,5,-62,-103,-57,-66,-66,85,123,12,-23
1490822477079,22,-19,16,4,-86,42,15,-27,-37,-69,-7,-9,67,-12,18,-20
1490822477175,-120,5,-23,-79,-16,-103,-39,-49,37,54,1,-128,50,83,28,60
1490822477177,71,-15,-53,-55,-28,80,55,45,-11,60,115,127,79,-53,-70,55
1490822477224,-32,95,102,-34,-124,-83,78,-5,68,-85,-107,77,103,55,69,1
1490822477272,-47,-68,-2,-14,89,72,58,19,-77,-1,-28,-31,-55,-128,-77,-34
1490822477321,34,7,-69,-96,-128,6,-44,-51,-49,-10,-40,-62,-28,-20,-15,-33
1490822477322,-10,-14,1,13,-36,-68,-28,38,2,-26,-40,-49,69,27,19,62
1490822477371,74,86,44,123,-106,52,18,61,-119,-77,-107,-87,-59,-63,-58,-1
1490822477419,78,-30,-47,28,54,-53,-16,25,-24,15,66,50,88,127,6,-52
1490822477468,67,-20,-8,-95,-35,-12,63,72,0,66,58,-128,-30,8,35,17
1490822477516,-17,-11,25,64,20,-86,-32,48,69,32,125,74,36,125,32,-27
1490822477517,-34,52,27,56,127,-31,126,-23,6,-21,-23,-80,-128,3,31,-35
1490822477565,-31,-1,-67,-4,-74,127,85,-18,31,44,46,104,-122,-51,-37,28
1490822477614,-59,-118,-57,-58,-48,-82,5,19,82,121,94,40,-27,-15,-113,16
1490822477664,-18,-17,-16,112,48,-34,80,25,65,72,76,-101,99,104,-6,-81
1490822477712,51,78,86,67,77,18,-71,69,-10,-15,-49,-24,-79,32,3,27
1490822477714,-51,11,0,67,-96,-47,-9,-19,51,30,116,122,124,97,24,-28
1490822477761,-2,8,2,-4,104,92,-11,50,-10,39,108,-62,112,73,58,-22
1490822477809,-10,39,117,127,56,38,-11,-25,-6,-1,-33,17,16,60,19,-13
1490822477857,109,121,127,122,127,100,92,18,-2,12,-67,-58,-100,-50,22,12
1490822477906,-60,-12,68,72,-2,10,-2,15,59,12,62,86,-65,-2,17,21
1490822477954,-26,-5,7,-59,127,-32,-75,-11,28,47,81,17,32,127,41,13
1490822477955,54,88,95,-49,51,83,65,-9,-11,-68,-108,-89,-64,-55,-34,6
1490822478004,-27,12,-24,-74,49,61,27,3,8,4,33,111,84,-67,-5,-20
1490822478053,-7,84,94,96,72,42,-24,5,-63,-66,-51,67,103,38,16,12
1490822478102,-123,-22,36,39,35,102,24,-33,-57,52,126,94,110,-14,-5,-5
1490822478152,-71,-36,-33,-119,2,-20,13,3,27,-1,9,127,127,-35,31,6
1490822478199,-75,-58,57,-74,-66,4,-46,-75,-90,-7,-88,-119,-114,-126,-42,-13
1490822478213,46,33,96,127,70,106,78,33,1,18,-1,-48,-26,-61,-36,-13
1490822478248,62,9,-78,-29,115,52,-6,-6,100,89,91,43,-55,93,39,24
1490822478296,25,6,-4,57,-19,-47,-22,-8,26,13,82,52,91,63,47,9
1490822478345,-91,-45,-10,-40,6,32,-56,-24,-29,-52,121,70,119,96,4,-10
1490822478393,-26,19,31,127,114,57,15,16,-35,-11,-94,-65,-94,-89,12,3
1490822478394,46,35,92,119,127,127,65,-30,-55,22,-21,4,-128,36,-68,-31
1490822478442,36,-41,87,127,127,76,29,36,112,46,95,127,85,67,56,-16
1490822478491,11,-3,-112,-128,-101,-111,-47,-9,-88,-29,-91,-74,-49,3,-28,-32
1490822478540,57,17,7,-104,-29,52,-38,-16,-10,-58,-101,79,-57,39,13,28
1490822478589,-34,57,49,-1,-37,119,64,25,-49,32,127,105,-81,-77,-5,-2
1490822478637,1,1,-24,-41,-78,45,-18,8,-36,-30,-18,63,43,-117,22,-22
1490822478638,44,12,2,120,102,9,-11,5,22,2,6,-4,-48,-17,-2,7
1490822478686,50,37,41,54,24,74,8,19,-3,21,121,127,127,127,-22,-17
1490822478735,60,26,59,125,30,1,68,38,-23,-42,-85,-1,33,-50,9,-12
1490822478784,-98,75,66,-111,20,-93,-61,-2,-105,-48,-92,-67,-13,42,-36,-27
1490822478832,31,-62,-65,-30,-21,-31,19,-36,97,12,108,34,-31,127,50,-13
1490822478835,22,-14,26,80,127,-30,40,76,-31,31,-11,-108,-33,-99,-44,-51
1490822478882,120,-3,-35,-103,-32,107,10,-29,-41,-1,7,46,-128,-128,-66,22
1490822478931,-58,-75,-106,-111,-104,-72,-29,-48,30,43,-19,-1,82,1,10,9
1490822478980,-30,53,66,121,100,-24,2,11,45,-49,-9,108,89,-65,44,54
1490822479028,-65,-33,-96,-122,-31,81,-97,-48,-79,33,32,-128,-18,80,65,-24
1490822479076,-37,-19,-27,82,-82,-128,-50,-6,112,7,-39,67,55,-40,-113,62
1490822479078,-32,85,31,-54,103,127,127,60,-44,-20,-9,74,23,-113,-54,-7
1490822479125,-59,39,30,-51,24,-76,-74,-59,85,43,63,54,7,127,102,9
1490822479175,0,42,12,-58,-83,-76,22,-24,6,-21,-52,-55,-11,53,0,-53
1490822479271,-61,-75,-83,-128,-97,14,-46,-20,-51,30,73,35,127,92,123,-29
1490822479272,70,4,36,-32,-45,26,-6,17,8,80,82,47,89,57,10,-64
1490822479321,-56,5,93,50,127,27,-1,1,35,55,10,-64,-112,117,49,57
1490822479327,68,68,117,114,24,113,33,-10,-10,-81,-128,-118,-11,-54,-42,45
1490822479372,62,59,30,64,-128,108,106,25,16,-6,-67,34,0,-25,-84,-30
1490822479419,-94,21,51,66,65,-23,-22,-73,-21,9,15,-72,-20,37,-15,-43
1490822479466,-77,-7,24,50,-1,89,70,2,11,-22,-33,-81,-86,54,27,-29
1490822479515,3,15,-29,-122,-29,13,-83,-31,27,9,49,107,94,91,85,39
1490822479516,-70,-32,8,2,-91,-16,-12,-39,19,-42,-128,-128,-128,-71,-71,9
1490822479564,-8,-31,-32,-47,64,31,59,27,-45,-22,-5,26,-17,33,5,-9
1490822479613,14,-5,-104,-72,-35,-54,-56,-8,-34,-82,-93,-128,-95,30,-31,-11
1490822479662,-21,24,122,127,127,50,34,30,-39,-16,15,-12,-80,-25,15,-24
1490822479711,36,41,52,-47,-75,-87,15,37,-20,68,125,86,90,61,5,-3
1490822479759,39,9,-17,64,14,3,6,-19,-28,-17,-48,-104,-28,-57,0,23
1490822479807,111,-30,-38,19,-14,-16,-7,17,-4,3,83,90,121,112,39,3
1490822479808,39,71,-15,51,-36,-34,-26,-22,74,0,-96,-81,-74,-74,-39,-24
1490822479856,-36,-3,80,104,113,30,7,40,-128,41,-29,-30,-125,31,-3,14
1490822479905,-84,-88,-77,-102,-127,-70,-23,-7,-106,-3,52,-28,92,-5,-34,-34
1490822479954,75,-30,64,62,0,74,15,-9,39,-16,-14,-41,-68,-56,-15,10
1490822480002,25,-39,21,-19,-24,-62,-23,28,30,68,92,104,124,127,55,9
1490822480005,-44,-5,88,61,85,59,-15,-35,31,-20,-61,-41,-112,-4,-24,-10
1490822480100,-22,-33,85,83,127,123,73,13,11,31,34,-24,97,55,17,15
1490822480101,-84,-29,50,39,20,-67,8,-19,-22,47,77,9,78,36,16,-15
1490822480149,-78,-46,-17,127,-65,-59,-106,-19,-125,-72,-17,18,3,67,82,-6
1490822480198,127,-95,-128,-119,-59,-15,-18,10,115,42,11,-3,-35,2,-2,27
1490822480199,-113,119,127,127,80,127,89,16,-112,15,-102,-54,-128,-44,3,-20
1490822480247,121,33,-74,71,35,39,25,14,-5,-59,-27,127,78,-67,-67,-57
1490822480295,-52,21,82,54,57,54,24,-3,92,-1,16,11,-128,88,81,22
1490822480344,-59,18,57,-93,32,-14,11,5,-100,47,31,75,-128,-63,-5,-9
1490822480395,3,-11,14,-2,-90,-86,-4,-23,28,-30,-42,-128,-120,-54,-30,-105
1490822480442,86,45,6,91,-120,-24,25,113,-60,-62,-38,-47,37,-83,-83,-79
1490822480443,-24,122,32,83,10,111,-14,8,-19,-63,-32,11,69,28,72,4
1490822480492,72,32,64,39,9,125,-50,6,32,-40,-86,-55,-109,-51,-101,-50
1490822480539,26,23,65,-38,89,-18,-54,-3,-36,-2,31,-116,-105,-18,-17,30
1490822480588,-42,34,57,-45,58,127,84,-29,41,-28,16,109,-1,-105,-82,27
1490822480636,-22,-123,-112,-84,-127,-92,-81,23,83,100,-27,44,22,127,56,36
1490822480685,38,-68,-52,-32,-100,-42,33,89,29,76,125,26,98,108,111,28
1490822480687,-55,-8,-37,46,39,-117,-98,-75,36,60,44,34,-128,77,21,67
1490822480734,26,49,41,85,19,29,27,11,-28,11,32,-40,50,7,-26,8
1490822480782,-66,-75,-1,-10,31,-34,99,18,1,-20,-15,127,94,8,-12,6
1490822480832,-64,37,-44,-128,-96,74,64,35,33,-11,-56,89,58,-37,-79,-3
1490822480880,127,-18,-42,93,-71,-38,-72,19,-97,-7,-63,-128,-35,55,91,-68
1490822480882,-83,-87,-75,-106,39,6,-56,33,-2,34,45,-1,57,127,5,-45
1490822480930,71,95,65,92,-29,-35,-73,-72,-19,-84,-40,-60,-52,111,-63,-7
1490822480978,18,11,21,53,127,-30,21,11,7,47,69,108,-32,67,36,-6
1490822481026,-69,-62,-62,-82,-71,-73,-23,5,83,-14,-61,-117,-128,120,-78,-60
1490822481076,-26,-128,-49,1,37,-85,-13,30,7,64,45,-41,-92,80,33,-20
1490822481124,48,-41,-88,61,-128,-93,-47,1,-74,-23,-64,-66,-54,82,-5,-31
1490822481126,-27,62,126,38,55,127,18,-9,81,-25,-82,124,-49,-73,67,87
1490822481173,-26,-57,-99,-95,-125,-85,-87,-26,-81,-48,-54,-75,-63,52,24,-38
1490822481222,-15,-14,-98,-89,8,-128,-50,62,-49,-63,-55,-44,-33,3,-38,-6
1490822481270,10,-13,45,78,59,127,-22,-15,52,-4,-52,-41,23,42,42,26
1490822481319,-8,11,119,-4,72,92,28,-7,66,68,22,61,-87,62,-50,62
1490822481368,84,127,82,79,28,-98,104,66,-106,-9,-17,-24,-111,-98,-94,-35
1490822481370,63,77,60,89,-12,127,-12,13,45,-25,-125,-86,-128,-24,37,-48
1490822481417,24,-28,23,21,67,58,58,14,22,36,32,109,-85,-8,-15,15
1490822481465,-49,-36,69,-86,56,-10,-7,-3,26,43,100,33,72,-21,15,0
1490822481515,-38,-33,-55,-19,1,127,34,15,46,40,84,-4,104,73,17,-17
1490822481562,20,-14,-37,51,-42,-7,-44,-25,-14,-84,-83,-67,-91,-98,13,-5
1490822481563,-11,38,59,-48,-99,-8,3,1,17,40,-1,95,37,-3,15,11
1490822481611,-48,-32,-85,-101,-126,-82,-18,-24,-21,27,-28,-128,-72,77,-11,29
1490822481660,2,-4,-13,-14,50,57,40,-24,5,-46,-116,-58,-106,-72,-75,-12
1490822481709,92,98,98,24,20,62,-3,-32,96,-36,-95,-69,-20,-2,-10,18
1490822481758,49,-9,-108,-31,-59,-39,17,-8,27,30,-11,43,28,57,6,6
1490822481806,-66,-11,0,-79,-70,28,-1,5,-38,14,-46,30,-92,-2,42,22
1490822481808,-64,1,-5,-44,20,84,-33,-27,49,25,61,57,48,31,-36,-5
1490822481864,-19,-22,127,127,127,42,20,-5,77,49,-79,-99,-86,127,22,56
1490822481905,55,43,90,104,102,51,-5,31,-44,-47,39,36,125,112,74,-27
1490822481954,-3,-56,-85,-98,-128,-52,-98,-11,-10,-34,67,64,61,50,5,-34
1490822482001,-10,-102,-112,-105,-112,-75,6,-10,-36,13,-18,40,28,-22,-40,-9
1490822482003,2,51,80,59,127,127,76,-11,88,17,-120,-59,-128,-43,33,75
1490822482050,117,27,19,74,-23,78,44,9,-128,-34,-31,22,-14,61,-21,-1
1490822482099,83,1,-15,5,-78,127,78,83,104,27,-27,-128,-126,-128,-102,-9
1490822482147,28,65,127,110,41,77,73,23,-61,-35,-74,98,-25,86,4,-22
1490822482196,-86,-53,37,9,13,-24,-54,-47,44,38,49,62,-17,-81,-22,28
1490822482245,-23,-29,-87,86,-115,85,44,-13,-89,-7,-25,32,75,-98,-49,-12
1490822482246,-47,47,93,65,46,-128,1,-28,49,-43,-90,-128,-53,30,-31,-13
1490822482294,19,6,58,122,72,87,99,12,10,25,98,-110,-111,-33,52,19
1490822482343,-59,67,119,49,85,53,59,-32,39,8,-12,-4,-64,10,2,-12
1490822482392,-71,3,53,94,95,-103,-65,28,-2,-28,72,30,-56,111,22,8
1490822482441,34,-32,61,23,127,114,7,-7,26,16,-63,-64,-48,46,9,19
1490822482489,26,41,-2,-19,-69,-92,26,87,-6,-8,105,-85,-46,15,-20,-99
1490822482490,-68,-94,-120,-127,59,-44,-13,-1,47,-6,-1,78,-67,76,44,39
1490822482538,24,53,92,121,74,-18,-37,-40,89,-44,54,33,111,102,119,109
1490822482587,68,35,-9,-120,42,115,-25,-77,-43,103,127,127,6,-128,-37,-28
1490822482635,82,-69,-80,-111,-86,-102,-15,66,-1,-1,57,74,83,13,26,18
1490822482683,-39,0,-37,31,-32,87,-11,25,-17,-28,-64,126,126,118,72,-72
1490822482732,30,43,95,-18,79,14,-4,29,-128,-58,-31,-101,45,83,1,-41
1490822482734,-32,19,-10,-7,30,72,76,37,-33,-18,25,-40,-47,-31,-31,-29
1490822482782,82,-16,78,106,68,102,45,-37,-10,-2,-44,-77,27,15,-84,-43
1490822482830,69,7,78,75,92,127,48,19,26,31,-29,-43,7,-98,-31,-44
1490822482879,-23,75,10,-27,-32,-82,-52,-47,-10,-36,-72,-64,43,34,-24,55
1490822482927,-22,-126,-115,-128,-128,14,-26,-28,-4,13,102,127,127,127,61,-16
1490822482929,50,-30,-84,26,84,-96,-85,-10,-61,-28,-74,-23,48,51,-11,13
1490822482977,-7,-80,-61,-27,-36,-41,24,-36,121,89,111,127,81,42,7,64
1490822483025,7,61,49,127,125,102,-47,-43,-27,-4,-52,-34,-63,120,99,-53
1490822483074,-36,-59,-77,-73,34,26,-15,-31,5,25,84,8,73,127,-8,35
1490822483123,-72,-124,-100,-68,-117,-9,-22,-27,-33,-45,-59,-87,59,-58,-44,21
1490822483171,-6,-23,59,113,-19,-7,0,-22,-65,-5,-90,71,38,-125,-98,22
1490822483172,-2,60,51,40,-52,127,78,17,2,-14,-35,-35,-105,-104,-6,-53
1490822483220,-24,-1,-56,-66,-69,68,55,-55,45,43,-27,10,-17,127,50,14
1490822483269,92,43,-52,-26,4,24,46,9,63,22,14,-17,28,89,-13,-12
1490822483318,-23,-25,59,11,16,35,-42,0,10,-11,102,127,127,87,-20,-10
1490822483366,-19,44,51,24,-18,-51,-10,-12,-70,-55,-22,13,61,-77,10,1
1490822483367,88,-44,-85,37,1,11,13,-11,55,13,4,20,62,29,34,-2
1490822483416,-15,-34,71,17,33,40,46,-9,-26,-41,17,60,-28,-60,-97,-10
1490822483464,-69,-8,-58,-113,-39,-78,33,-10,4,16,-49,-81,-30,11,47,39
1490822483513,-110,-26,-77,-32,1,11,27,-11,-119,57,-11,4,15,-24,-31,-15
1490822483561,95,81,70,76,36,-61,-19,-10,-52,5,-11,84,59,-56,7,25
1490822483610,21,-13,40,22,21,27,32,13,44,-7,-49,-85,-53,-111,-27,18
1490822483611,28,-64,33,77,11,24,44,27,6,69,0,-64,-13,62,26,20
1490822483659,5,7,-6,-24,-18,-63,-55,-61,-7,-43,32,-54,11,3,-19,-1
1490822483708,127,26,0,-17,-34,-105,-25,17,119,-23,-14,18,-8,0,-18,-19
1490822483756,2,67,69,53,35,51,2,11,52,-31,74,18,24,2,14,-1
1490822483805,-128,40,0,58,-38,108,18,7,-121,-43,-39,-62,-74,-36,-27,-7
1490822483853,6,-40,-78,-46,-59,51,7,-16,-2,-47,29,28,9,33,-34,-25
1490822483856,1,67,-34,-38,-23,-116,11,15,-8,-3,21,17,70,85,1,-19
1490822483903,15,-9,-31,-70,14,120,24,18,61,0,-82,-54,-68,-88,-14,19
1490822483952,-90,-43,21,32,61,17,-5,-45,24,48,97,-29,126,17,-44,-37
