1490653837605,-66,44,-76,-112,-32,-27,-95,-33,104,83,102,9,43,-14,-27,29
1490653837645,1,-10,20,108,67,1,16,35,-16,-6,-12,11,87,20,-37,-20
1490653837685,5,-20,41,-55,-57,30,35,-21,23,-68,2,98,84,9,18,-16
1490653837725,-12,-22,2,29,-2,-32,-9,-1,-27,-11,14,2,52,22,29,-1
1490653837765,-4,-39,-4,-9,-56,-20,41,3,-47,3,0,88,91,103,-16,-1
1490653837805,75,-17,75,38,-22,-22,9,-14,-105,-28,-34,-116,-128,59,11,9
1490653837884,85,-14,28,-72,-108,-91,-58,-14,108,-28,-6,-59,-45,-16,32,6
1490653837887,29,-40,-8,-29,-9,27,-32,-20,30,16,12,-26,-25,-1,-10,-19
1490653837925,-95,-17,-18,-1,11,-37,-12,-6,-57,20,-8,-24,77,-12,5,14
1490653837965,6,68,0,30,-14,7,-26,-14,-49,61,-52,-27,-41,-30,-8,-1
1490653838005,-32,-7,12,-2,3,58,-11,-32,-66,-7,-36,109,61,90,13,10
1490653838045,-6,-61,-8,65,38,-72,17,-1,71,8,-114,55,9,-102,5,24
1490653838085,111,34,54,-96,-14,-90,-59,-22,28,-27,106,26,4,-128,-18,-3
1490653838125,-11,-45,-9,52,-10,-9,41,2,-2,-2,-76,-63,-67,16,20,-4
1490653838165,-4,21,52,-14,-10,43,-30,10,-15,-59,6,-29,-19,16,-10,-4
1490653838205,29,-16,15,43,4,-55,23,13,4,-60,-53,9,28,-44,32,-8
1490653838245,2,-51,-26,-20,4,-19,-21,4,10,28,97,8,-10,-9,19,39
1490653838285,7,44,-7,-6,-6,23,-7,-2,5,52,12,-13,-15,33,16,1
1490653838325,6,-7,-17,11,14,8,15,21,-76,73,-1,11,25,16,-5,-13
1490653838365,-9,-12,27,-6,-13,8,-8,-22,11,-84,22,2,19,2,-16,-24
1490653838405,49,16,-9,35,-14,-3,15,-9,57,24,-3,-27,-1,-4,1,-22
1490653838484,-18,-107,10,37,40,11,-44,-5,45,4,23,17,3,7,-13,-16
1490653838487,-53,13,-6,12,19,6,26,-2,17,-30,8,-10,-56,-36,10,7
1490653838525,79,31,-4,-51,-78,-106,-75,-9,83,-9,-47,2,25,52,-3,-12
1490653838565,77,-19,4,28,-9,-59,-28,19,-6,-31,-21,-27,-15,32,-35,-19
1490653838605,12,-7,22,-29,-21,68,12,14,-9,20,-6,-55,-29,-53,42,-5
1490653838645,2,-16,-14,-18,-20,-11,23,17,-42,-31,-1,26,-11,47,71,-9
1490653838685,25,-6,-26,-53,-46,-18,-8,-6,-25,-6,0,5,-5,-32,-46,-44
1490653838725,19,-38,-18,-37,-27,-14,-1,-3,-57,-42,-3,-36,-7,69,9,-26
1490653838766,15,55,12,3,25,-27,-80,-16,-23,-16,-1,17,-14,50,7,-8
1490653838805,2,-4,-5,-23,-65,-99,-20,-21,19,-46,3,46,11,-18,-37,1
1490653838845,1,24,22,-21,-62,33,36,43,-11,49,-2,-61,-128,-52,-2,-34
1490653838885,9,-128,24,59,103,47,-13,33,-83,-55,-18,-23,-55,-57,22,-47
1490653838925,68,4,-47,51,101,116,35,-2,-12,-3,-58,-21,-13,-34,-24,26
1490653838966,0,0,3,-53,69,83,61,21,5,-8,-9,11,21,-66,-67,-2
1490653839005,-59,-11,-82,50,-128,-23,-39,5,23,52,11,114,127,-38,42,6
1490653839045,-110,-82,-69,-20,-89,-14,-5,10,-87,-40,-63,5,-35,4,-14,13
1490653839087,-9,61,25,-36,-38,-8,-18,6,11,-58,64,81,-6,-5,-1,15
1490653839125,21,-9,-38,-35,43,39,-78,10,-43,29,-17,-117,-47,-97,4,-17
1490653839165,-41,-58,29,-10,35,7,42,0,6,15,29,-109,-68,-6,-21,-20
1490653839205,14,-4,-9,3,-51,-31,-39,10,17,-27,-7,-75,-9,52,44,-5
1490653839245,5,4,-42,68,18,-2,-6,-6,-47,-22,-23,55,-27,-36,-11,-6
1490653839285,101,-15,14,-117,12,-15,8,15,-73,-26,5,-36,-16,-7,-16,-18
1490653839325,48,-11,4,6,-19,27,21,-4,74,3,4,-11,-7,9,2,16
1490653839365,-8,-19,-4,-30,0,26,-38,-36,21,29,17,5,3,-2,-48,-28
1490653839405,127,17,-3,45,-3,-31,-17,17,127,-33,37,8,-13,-21,13,22
1490653839445,-20,-17,-15,-11,-26,12,4,-9,17,-12,3,-11,13,-4,-23,-9
1490653839524,89,-18,0,18,8,39,19,17,-4,-60,8,-19,-18,-19,-37,-6
1490653839526,-128,15,-4,88,-3,22,-11,-16,-60,47,11,-17,-25,-6,-30,-31
1490653839565,-35,24,-19,16,0,-27,19,-9,-128,113,-1,-17,-28,-25,19,-9
1490653839605,-52,5,-5,-58,-6,32,20,4,-36,-12,12,8,-7,3,-23,14
1490653839645,3,6,15,6,9,3,14,33,-39,-7,-13,-8,8,-12,8,-22
1490653839685,-27,-6,21,50,-1,-11,13,0,55,-9,2,44,20,-2,-5,12
1490653839725,40,31,-2,32,31,-39,53,31,-8,2,9,12,-9,-52,2,33
1490653839765,-15,7,-5,-41,-19,76,5,-4,109,-8,-4,5,4,98,4,19
1490653839805,-38,11,9,11,27,112,-33,-14,-36,-1,6,-12,-5,115,56,25
1490653839845,6,2,-10,-21,-14,-75,-8,-1,-43,34,2,4,9,-35,36,-9
1490653839885,13,-10,7,64,-11,1,3,22,37,-5,-17,-6,14,1,2,-11
1490653839925,-51,-25,-16,-55,-33,-10,3,-3,2,9,18,-27,-15,-33,-17,4
1490653839965,-41,-11,-24,-8,-17,18,19,0,94,32,8,-9,-14,-5,22,42
1490653840005,36,33,26,-25,-14,-33,-59,15,-38,13,3,69,32,104,107,12
1490653840045,96,21,-15,-11,-15,-51,-2,9,-103,59,39,35,0,27,-76,-36
1490653840085,108,-45,-5,118,82,-45,34,40,127,-80,-76,64,-79,-109,-34,-28
1490653840125,-123,-49,7,54,47,26,-30,-64,73,-96,-22,44,-110,-16,-4,31
1490653840165,-96,2,-1,-92,-74,105,77,23,-3,8,33,54,100,15,-5,-62
1490653840205,92,-33,18,-85,24,9,10,57,-128,5,31,-122,-54,7,12,27
1490653840284,-83,-36,-12,63,-25,-85,-128,-61,127,92,34,125,127,83,104,89
1490653840286,23,26,16,55,-92,-43,119,33,101,-38,-28,-67,-9,-93,-82,-8
1490653840325,-52,28,10,-48,-93,101,-84,21,-26,40,11,-31,97,92,121,98
1490653840366,-52,-7,-25,85,68,29,-2,3,48,-9,-30,-128,-93,-23,56,47
1490653840405,18,23,31,-29,53,32,-34,-29,-52,-26,-15,3,-68,-76,53,-128
1490653840445,17,47,12,42,-84,2,90,-82,-12,56,-9,-97,-102,-13,45,117
1490653840485,-46,-82,-49,-88,-65,85,21,34,70,-33,24,78,69,50,-71,-39
1490653840525,4,37,36,47,65,72,75,42,110,-45,-49,-128,-111,-128,-3,27
1490653840565,17,-28,-31,51,85,19,114,39,-98,31,37,127,127,104,-70,-65
1490653840605,127,7,26,105,-58,-128,-107,62,-2,-5,-18,62,-109,61,57,-58
1490653840645,47,-69,-14,-124,-42,58,73,24,24,-38,-25,-56,18,-85,-69,11
1490653840685,67,23,-2,88,-34,17,-42,-74,26,33,-23,4,37,17,66,-23
1490653840725,-12,-16,21,-128,46,60,-43,42,-9,21,61,114,21,-63,61,-30
1490653840765,-23,6,22,-5,-66,-1,31,10,-41,26,8,-32,93,60,-10,6
1490653840805,-26,-7,15,60,-3,-128,-7,-53,-18,-22,2,127,22,-3,-23,-13
1490653840845,-18,19,10,127,69,36,-57,12,-4,11,36,89,52,31,31,6
1490653840885,-5,3,-26,-42,-49,6,-13,-15,10,5,-3,53,67,-6,-37,23
1490653840925,23,-75,-25,52,84,93,71,26,18,-37,78,72,55,75,40,10
1490653840966,-40,4,-25,-64,-48,-47,-27,3,-88,-12,9,32,99,49,36,-14
1490653841005,7,57,59,-84,-100,-72,-32,-24,-1,104,-42,-26,45,-9,18,-8
1490653841045,-32,-5,29,-26,-9,-8,-24,-7,28,-1,-9,-26,-67,-25,-17,0
1490653841085,40,52,6,-25,-17,-25,-26,-6,-38,41,-23,2,35,33,2,4
1490653841127,44,-25,-44,-66,-16,-18,-24,-2,23,66,51,3,-20,-17,-28,-5
1490653841165,-1,-109,-38,19,11,-5,1,8,11,-46,4,-40,-3,11,19,-3
1490653841205,33,-8,27,-96,-17,-10,-43,5,18,-25,46,-42,91,73,-4,15
1490653841245,51,12,6,-18,-14,-10,-8,-15,116,14,14,41,60,1,8,23
1490653841285,-37,5,58,76,37,-12,21,-2,-30,-15,1,-39,-5,-26,5,9
1490653841325,34,9,-84,48,37,-20,14,41,13,-43,10,-23,-30,-89,-9,-19
1490653841404,-22,-98,110,43,-9,-76,-13,0,-26,-14,32,32,17,-45,16,10
1490653841406,-15,105,-48,-30,-5,0,-1,-22,-8,30,101,46,19,44,22,-3
1490653841445,39,-40,-63,-2,-9,-45,11,4,-7,-22,14,-17,-15,-55,-16,-12
1490653841485,5,-34,29,65,24,25,10,6,41,8,2,30,7,25,-5,-1
1490653841525,10,-21,83,-2,8,40,-3,2,88,31,-14,6,5,20,4,6
1490653841565,36,73,-13,6,-5,-2,8,-1,42,-10,-34,-26,-1,27,12,7
1490653841605,-78,67,-22,-14,-8,7,-3,-1,-101,36,-7,-16,-4,0,0,-9
1490653841645,-70,30,-6,-2,10,-12,11,-5,-59,-55,30,16,30,49,49,23
1490653841685,101,75,-16,12,17,12,-16,-28,65,3,-26,-19,-3,10,-11,26
1490653841726,-15,-79,1,4,2,-6,-23,-8,-37,-34,-1,3,-17,-4,16,-12
1490653841765,-51,25,-18,-18,11,40,14,14,85,57,9,-4,6,12,6,6
1490653841846,-14,42,-24,-10,30,10,45,17,27,55,1,-28,-28,-23,-62,-16
1490653841847,-63,-62,-13,5,-12,22,3,-4,-5,15,12,-7,-15,-19,-43,-17
1490653841886,7,-40,8,-33,-14,29,-6,8,84,-19,-10,-21,9,41,35,-9
1490653841925,-107,-15,-7,16,-2,-128,3,24,-44,-5,41,6,-34,-5,-46,9
1490653841965,-13,2,-1,35,-3,-52,-5,-1,75,-90,5,-11,-19,-74,6,7
1490653842005,-55,11,23,19,29,-5,-21,-30,-128,16,1,35,19,42,71,13
1490653842045,78,-50,-15,-57,92,-79,-21,17,48,8,-16,-101,-77,-73,-15,-19
1490653842085,15,3,12,7,-2,37,82,-21,-73,-2,13,69,47,-17,-43,23
1490653842125,-90,-61,20,29,55,20,36,23,27,-26,-13,-62,-103,-43,-24,-14
1490653842165,1,0,-42,1,64,-16,-79,-32,9,101,-41,-52,-118,-61,43,31
1490653842205,-16,-97,24,4,-29,-84,9,4,57,-37,28,-13,73,-32,-1,11
1490653842245,-67,-55,1,-10,28,87,91,-12,10,25,8,-14,-29,-41,19,55
1490653842285,78,31,-15,-90,8,-29,7,54,-15,-16,10,-25,-60,-12,-60,-91
1490653842325,-79,43,-37,-56,-39,51,-2,41,-41,-33,-25,-83,-27,-12,12,-22
1490653842365,43,-7,-16,108,-4,-61,-4,-32,59,-4,-51,127,57,-30,0,37
1490653842405,-66,-2,-77,45,3,-29,16,-20,46,-30,-47,28,77,-3,-10,43
1490653842446,114,-3,-35,6,-35,-28,-27,25,36,-33,-28,-5,21,50,41,-25
1490653842485,68,7,65,50,-21,-23,-21,-9,-78,-12,1,12,22,54,50,42
1490653842526,16,1,-11,-68,-25,-2,12,-6,23,3,8,-71,-22,-26,-11,-10
1490653842565,-52,14,42,27,9,41,70,-1,97,-14,49,53,17,-7,-16,-5
1490653842605,1,3,-8,76,27,4,-10,11,24,4,-13,61,1,-3,-19,-13
1490653842645,119,-10,27,0,-14,13,31,38,-83,-30,-40,-13,6,14,12,4
1490653842690,115,-4,5,-14,5,33,31,23,-7,17,17,-8,3,-24,-25,-9
1490653842725,69,8,-11,10,0,21,-5,26,-111,-8,-6,-42,-17,30,-2,-8
1490653842765,-118,0,6,30,4,-20,-7,-27,11,4,14,-2,-17,-108,-2,32
1490653842805,65,-25,-17,-12,-11,-45,-57,-23,-97,-4,-25,-51,13,27,20,-10
1490653842845,-126,0,-7,42,11,34,48,-37,43,17,39,-4,40,47,46,36
1490653842885,40,-14,-6,-23,0,61,39,32,4,-27,-33,-49,-18,-35,-48,-44
1490653842925,-73,15,-10,-69,49,15,-24,25,-23,1,29,-45,58,7,94,34
1490653842965,73,-16,68,-12,-10,33,4,18,58,-26,48,11,-58,-40,23,-4
1490653843005,-85,-34,-37,-5,-101,-103,19,2,-90,-6,-62,-98,-26,16,-36,-23
1490653843046,94,59,50,59,68,42,46,61,-87,7,8,42,-52,77,-119,-58
1490653843085,72,15,-1,-85,-4,-23,30,57,73,-11,4,70,-40,-21,18,-17
1490653843125,30,21,6,71,-71,-1,-48,-50,64,10,-24,-50,18,48,10,61
1490653843204,-128,-16,2,61,55,-78,-83,-13,-30,0,-23,-36,-41,32,84,10
1490653843206,-6,-50,-29,-122,-100,-54,-128,-53,71,72,35,72,106,16,102,17
1490653843245,-124,-52,-2,19,49,73,-62,-10,17,-32,0,-21,-56,-128,-70,29
1490653843285,45,-23,6,79,107,127,19,-10,-128,-20,79,127,37,-66,64,-111
1490653843325,-31,-42,-10,10,127,70,96,-80,-33,56,56,66,-109,-66,-60,-20
1490653843365,41,-57,-8,35,-14,14,89,108,-12,12,-67,108,10,-33,63,-51
1490653843405,-71,-39,-48,-13,-61,-115,-116,28,127,-31,-11,-4,-74,-27,4,-70
1490653843445,-12,88,-8,-29,69,26,-10,75,-27,18,12,92,-63,41,8,-63
1490653843485,-121,1,9,114,9,3,43,36,24,38,8,-19,71,-7,-115,-36
1490653843525,-31,-40,-1,-99,-128,-39,-11,14,-11,-37,-29,-84,32,104,-67,62
1490653843565,10,-7,-24,-92,-121,51,72,-9,-48,58,2,32,46,26,19,-46
1490653843605,85,-35,-15,69,127,-121,-86,-37,50,-11,-16,-128,-128,39,54,1
1490653843645,-25,59,59,82,-6,71,79,24,1,32,37,-48,40,-17,-45,19
1490653843685,80,17,-22,-59,65,0,-14,25,-21,60,66,110,-24,71,34,50
1490653843765,-26,-49,-44,-92,-61,-123,-72,-96,54,-37,-23,-10,-31,-70,-51,-1
1490653843805,-19,-3,-24,45,-23,-58,-17,-28,44,-5,15,27,10,-18,-39,1
1490653843807,-29,-1,42,83,85,78,26,22,-2,-29,-28,-40,-104,-60,-2,-8
1490653843846,38,12,4,-42,2,-2,5,14,13,44,2,109,96,39,42,-10
1490653843885,-40,-61,-18,-33,16,19,9,-5,-17,-58,6,-2,48,-10,6,9
1490653843925,-1,4,6,-58,-61,-37,3,20,-21,18,-16,33,-45,-7,-7,-26
1490653843965,21,-4,8,-29,-20,-10,-19,-15,3,4,26,-38,-52,6,10,1
1490653844005,-95,-32,3,99,36,36,37,2,-85,14,44,102,39,-2,3,-6
1490653844046,121,13,-1,-56,-35,-15,-15,-6,1,-62,2,-18,42,26,13,-8
1490653844085,126,-15,-3,-60,-15,4,-3,-14,46,-41,-10,16,7,49,17,17
1490653844128,52,-34,16,-59,-7,-44,-18,-22,-113,-19,-24,-109,-87,-87,-46,-14
1490653844165,25,98,-88,2,-29,-44,-21,21,-5,48,6,-48,-62,-2,-12,-17
1490653844205,-31,21,43,27,-21,-41,14,2,-16,-56,-6,-44,-58,-52,-12,-10
1490653844245,-17,-70,0,-1,-23,-21,-2,-18,-3,-24,-36,3,-2,-11,10,30
1490653844285,-36,18,5,-10,21,13,0,6,21,55,60,7,1,10,-1,9
1490653844325,35,87,-38,0,-2,-39,-4,-64,26,-5,-14,17,6,-41,-3,25
1490653844365,-72,25,-10,84,33,-31,1,11,-66,-49,-6,-22,19,-21,5,-9
1490653844405,-65,-13,26,68,5,-9,2,18,-23,115,25,4,-3,2,12,41
1490653844445,8,41,-27,-15,5,0,11,9,-63,53,22,23,13,24,-1,-23
1490653844485,-47,-18,5,20,6,-11,12,-9,127,-21,12,-4,-6,-23,18,8
1490653844525,127,-108,-4,-11,3,-8,5,44,48,-58,-8,-11,-10,-8,-10,-11
1490653844565,-84,-14,13,-41,9,6,-3,-15,113,91,2,-12,1,-5,-7,10
1490653844605,24,-47,-23,5,0,-2,15,-17,12,62,-10,5,-3,6,19,3
1490653844645,-22,20,3,-20,2,19,20,13,-75,-17,4,0,-15,-4,-38,-68
1490653844685,-4,24,-8,-15,-12,-18,-28,3,-22,61,39,6,-3,3,6,0
1490653844725,1,123,6,-20,-21,-12,-26,-22,3,48,-5,-34,-11,-9,0,21
1490653844765,2,92,-23,-4,10,-2,25,-22,-4,36,11,28,-30,-51,-15,27
1490653844805,-7,51,-5,-17,3,5,11,-25,-4,16,13,27,19,-21,-36,-33
1490653844845,-23,-86,6,15,-18,62,43,37,108,-19,-5,-36,-12,-51,-24,-21
1490653844885,-79,-18,13,-42,-99,-103,39,67,-75,33,-8,32,63,4,-3,0
1490653844925,-81,61,-10,-21,27,-12,-35,-15,-116,48,19,-21,-10,-24,-26,30
1490653844965,43,-3,-14,-30,38,28,16,22,10,89,1,88,44,71,31,-29
1490653845005,32,127,-12,35,13,-21,-18,-42,44,89,8,29,67,61,-11,78
1490653845045,9,-3,-70,30,30,35,10,-67,1,72,-7,15,29,27,20,29
1490653845085,6,54,12,-15,-13,17,59,25,0,122,0,21,45,-97,-72,-27
1490653845126,4,14,12,-7,-33,-54,-27,-1,-1,-56,23,14,20,-9,22,-50
1490653845165,0,86,-46,45,-45,-107,-43,-1,90,33,-48,18,-2,47,81,59
1490653845205,-65,-25,-29,15,-48,-38,1,-12,-37,13,52,-8,-33,-32,-52,0
1490653845245,42,8,35,-119,-13,-17,-14,16,-70,-32,63,-90,6,79,70,53
1490653845285,74,8,-7,59,-16,-25,-61,7,-11,-45,-37,-12,41,30,-8,23
1490653845326,2,16,-27,-54,44,-16,39,19,16,4,0,110,-16,-96,-99,-54
1490653845365,77,-2,-16,-18,92,28,39,25,42,-19,-44,-101,-76,-36,3,12
1490653845406,-42,25,7,-27,-9,-34,-50,-53,7,-5,60,53,45,51,40,39
1490653845445,34,-20,-7,-108,13,-1,-15,4,46,-8,-16,-123,-13,16,12,31
1490653845485,51,-7,41,26,-28,-50,-38,-34,35,3,25,-23,-22,30,50,38
1490653845526,24,7,13,87,-4,20,10,27,83,-30,30,45,13,78,-32,-14
1490653845565,-128,-13,-20,-20,-2,7,12,-34,-98,24,-17,-61,-15,-18,45,13
1490653845645,-59,7,-7,-67,1,-15,-39,-29,-67,-34,2,30,38,27,35,-1
1490653845648,29,-61,-7,33,12,1,0,34,-19,-36,38,41,-14,-17,-59,-24
1490653845685,0,7,1,-10,13,-54,-54,-13,-8,4,-19,-10,47,1,-4,19
1490653845725,-2,70,-10,-99,-74,-61,-11,0,-4,58,-2,-20,-61,-21,-10,17
1490653845767,-6,-87,12,-12,-59,79,18,2,-2,-118,-20,8,-61,28,-20,-49
1490653845805,98,1,-4,38,43,34,-4,41,60,-34,11,24,63,25,50,19
1490653845845,-76,-47,-4,8,43,-17,30,-57,-79,-14,8,-13,3,-20,-84,-70
1490653845885,-60,8,25,-3,12,45,-25,6,5,13,-35,0,104,-13,19,1
1490653845925,97,18,29,67,-59,-21,-25,30,15,30,38,22,53,53,46,32
1490653845965,113,8,1,-83,-42,-66,-48,-21,-90,-18,18,4,44,-11,-22,1
1490653846005,127,15,6,-21,44,31,104,35,14,-14,-56,79,-108,7,82,12
1490653846045,10,31,2,-128,-15,-53,-23,-10,35,15,74,127,127,116,127,61
1490653846087,-10,51,7,-91,47,56,-11,55,10,48,46,31,118,-38,-102,-19
1490653846125,-7,-37,4,-8,107,107,38,-22,-1,16,9,16,-128,-24,116,24
1490653846165,2,59,4,112,111,58,-28,-96,9,30,-25,106,-41,-17,55,99
1490653846206,-19,5,33,127,118,118,70,63,58,-120,-58,117,-100,-113,-128,-32
1490653846245,35,29,57,42,79,88,-14,84,116,-86,-69,-81,-63,-62,-20,30
1490653846285,-26,-29,25,-1,-4,-128,-24,5,44,-12,25,-65,126,127,41,36
1490653846325,-66,-1,-37,29,37,-79,21,-36,-29,-71,-19,-9,-63,38,-108,-9
1490653846404,-21,83,31,28,-74,68,-74,11,-55,-70,-34,23,95,49,11,12
1490653846405,101,-53,-14,47,13,10,93,67,-24,111,38,-52,-105,56,90,26
1490653846445,-71,-57,-5,123,-49,-128,-128,-47,102,-10,-23,-109,-128,-43,-46,-74
1490653846488,-4,27,-22,-19,-128,-112,-42,-46,-35,-35,-47,-126,-77,18,-54,-44
1490653846525,-61,-47,-51,-86,54,-97,37,-57,18,-61,-65,-97,-47,-45,-60,-19
1490653846565,-53,0,31,127,88,-10,54,-22,-28,-38,-27,-128,-75,31,-2,27
1490653846605,40,42,22,17,68,49,26,-4,1,-12,-27,127,-22,127,74,15
1490653846647,-55,55,31,68,22,-96,-113,-5,25,59,5,-49,126,118,76,34
1490653846685,-28,-17,-58,-128,-76,26,94,19,31,29,27,-28,69,-128,-128,-71
1490653846725,-41,-19,-27,51,100,80,8,-4,-35,-36,-58,-75,-77,-16,10,9
1490653846767,-8,-24,11,-94,-92,-38,-30,-41,53,3,29,46,83,55,17,16
1490653846807,-102,12,36,19,-86,-37,36,-11,-24,55,86,117,80,78,-52,8
1490653846845,24,-10,-7,-62,0,20,103,32,9,-42,-52,37,63,-111,-75,-43
1490653846885,-44,10,26,64,125,44,-24,8,-49,-31,-21,-113,-23,-25,2,0
1490653846925,0,42,33,-105,5,3,12,-6,20,41,-13,-11,-21,-56,0,12
1490653846965,22,47,-52,-57,-13,-48,-14,-3,3,45,8,117,28,-32,4,-5
1490653847005,25,-3,-38,-100,-94,-69,-34,-3,-92,-56,-13,-23,-89,-32,-12,-5
1490653847045,74,-36,18,55,122,73,41,18,2,0,24,-19,36,-42,12,0
1490653847085,-83,5,-28,-66,-14,46,-2,9,71,-63,-28,-59,-81,-76,-38,-18
1490653847125,-49,4,60,-10,-22,-44,-20,-10,44,-4,75,-5,0,-55,6,0
1490653847165,110,9,7,28,57,30,2,3,66,-102,-13,-28,12,-31,-30,-1
1490653847205,-54,-29,-30,36,-21,-34,-13,-42,127,5,16,-5,-64,-23,32,4
1490653847245,-23,-29,0,-3,-29,-117,-29,-14,-44,-10,-32,17,6,-30,-27,9
1490653847285,21,-9,-16,12,-10,-102,21,4,-21,8,-95,39,11,-39,18,-56
1490653847364,-11,5,-46,35,19,3,2,-7,-7,59,-9,-30,-16,5,-11,2
1490653847366,-92,-74,-29,18,11,-32,8,-53,63,25,30,-30,-26,-18,6,13
1490653847444,-5,-18,37,22,-2,26,15,0,46,8,27,6,3,-106,15,-2
1490653847448,-79,-78,-20,9,-2,100,-9,0,-83,-69,41,15,6,83,3,-5
1490653847485,-117,-6,42,-5,-2,8,-1,-15,-78,-58,8,-7,-3,11,-4,0
1490653847525,52,-45,0,-4,-10,-16,-51,-36,32,-52,-9,-9,-21,-24,5,7
1490653847565,87,118,13,3,-5,8,23,35,127,-1,-19,-18,0,-27,-8,-31
1490653847605,-44,-128,-37,-85,-27,-54,-25,8,-40,-20,10,-12,30,61,14,31
1490653847645,-18,43,-6,28,-15,16,30,-2,-2,62,13,-19,9,31,-27,6
1490653847685,-11,24,40,13,-65,-48,-37,-33,-16,12,-13,-18,-1,31,39,57
1490653847725,-68,0,-55,-15,-14,13,52,4,-17,-10,-8,13,61,-27,-44,-16
1490653847765,47,66,5,-55,-36,9,-40,-16,48,53,-3,26,49,1,-1,9
1490653847805,-104,37,30,43,1,-47,-53,-46,102,-25,10,-36,-58,1,83,-2
1490653847846,97,-9,-29,16,46,83,48,5,7,47,-19,-11,-36,-128,-66,-53
1490653847885,87,65,-60,-38,-42,-32,59,30,31,-39,14,38,65,35,-27,31
1490653847925,94,70,17,62,98,4,7,-17,127,-62,-6,-42,34,30,44,22
1490653847968,-43,-1,14,4,-45,18,75,51,-128,34,14,2,78,127,-70,28
1490653848005,-52,-24,-5,-23,-49,46,1,13,45,-60,-95,36,81,-4,78,-9
1490653848045,-4,68,-19,95,33,19,64,93,-18,8,-18,-75,-28,-83,-105,-82
1490653848085,27,111,13,123,90,60,107,-32,22,-6,-2,37,29,-86,-100,22
1490653848165,40,-9,-23,-100,-51,-51,-46,-52,-45,-85,-1,-67,-93,8,6,52
1490653848205,127,77,42,12,-26,8,-1,81,-128,96,-4,57,-7,80,57,-24
1490653848245,-60,-17,-16,-23,-1,47,33,-64,10,30,28,70,52,30,12,-2
1490653848285,68,11,-36,20,54,2,41,40,-123,-21,-35,78,-26,-68,-54,-63
1490653848325,23,64,8,-68,46,59,2,55,79,63,6,-122,-13,31,-1,57
1490653848365,-16,21,-1,-1,-22,-10,-1,-26,-4,-1,-19,10,-26,10,-8,17
1490653848406,8,51,7,-76,-34,-31,-72,-31,28,15,15,-106,61,49,83,12
1490653848445,69,19,-37,-27,13,13,39,27,-53,-14,20,10,10,-3,-19,-9
1490653848485,107,7,6,12,12,25,14,59,-79,-23,-8,78,4,-2,-20,-31
1490653848525,-96,20,42,58,13,17,3,-16,-92,-31,-2,-25,-3,29,5,-10
1490653848565,-18,-68,9,6,1,5,38,20,54,-79,-60,52,-38,-13,8,-29
1490653848605,45,-108,-35,50,9,-1,-15,-18,32,-68,-3,-111,-14,15,2,33
1490653848645,66,33,1,13,-5,9,-28,-14,71,69,-24,41,4,-9,-19,23
1490653848685,-60,-56,-22,21,-10,5,38,25,-100,-87,33,-56,21,23,12,-23
1490653848725,67,6,15,-97,-2,4,2,-6,-7,23,-23,-62,13,1,-16,19
1490653848765,21,-45,3,19,8,-28,11,-1,21,-11,18,82,-6,-15,15,4
1490653848809,-16,-10,-4,-39,-23,65,-16,39,-8,4,-9,-61,-13,36,31,0
1490653848845,-18,-114,7,-51,-25,-64,1,-14,14,-107,-6,-19,-9,-14,3,5
1490653848885,84,27,3,-4,39,-41,-74,-6,-58,5,11,53,-14,-11,-26,3
1490653848925,-82,-35,23,-29,-44,55,-3,-63,-4,-16,-12,23,-82,19,16,37
1490653848965,78,71,8,101,82,14,34,-8,-18,-9,-13,-128,-84,-14,-58,-64
1490653849005,6,-91,-26,-128,-15,-33,-28,14,73,28,26,-38,47,-27,-11,-7
1490653849045,40,71,-46,65,-30,24,6,54,54,-72,-126,-90,60,-89,-102,-114
1490653849086,15,6,48,78,-108,-51,1,28,-1,-6,-34,-62,-31,84,-62,12
1490653849127,103,17,-24,33,-117,83,119,67,-17,-8,-34,-128,-55,22,-74,-67
1490653849165,-91,0,-91,38,-30,77,56,-33,27,32,30,-17,6,59,126,28
1490653849205,89,-13,-5,-128,66,-128,-71,-8,-41,-19,75,127,127,113,-2,13
1490653849245,127,2,-3,-128,29,-5,-126,13,-50,-6,-1,99,-13,-14,111,-38
1490653849285,73,51,40,-49,60,127,26,40,26,77,-13,92,-49,-96,52,55
1490653849325,-51,-56,-44,-30,22,-12,-28,3,23,-9,-20,45,106,104,56,-25
1490653849365,-69,105,29,5,-14,39,72,26,55,26,63,67,127,22,-29,75
1490653849405,54,-16,-8,58,80,-68,-128,-62,-80,-54,12,-38,-90,34,77,-77
1490653849445,-104,60,-9,36,-67,59,35,-6,-14,-16,-53,-66,-80,-48,44,41
1490653849485,-57,-86,-44,-85,-128,103,48,-21,-60,59,22,114,103,-128,75,-12
1490653849525,-49,-95,-41,-128,-128,-74,-95,-9,60,-7,-29,21,48,-5,-125,45
1490653849565,69,-56,8,48,51,-14,-63,25,17,-10,27,-22,-31,32,-39,23
1490653849644,78,9,-2,-42,-50,-81,14,33,-53,-54,-15,-119,-99,44,127,-35
1490653849646,0,-22,-12,-90,21,86,13,36,76,45,17,76,34,-95,17,48
1490653849686,26,25,-24,-103,-85,-115,-71,-102,-18,-119,-44,39,60,94,-7,10
1490653849725,30,-39,-12,51,0,-128,116,48,-10,-27,38,85,108,-31,-101,-56
1490653849765,12,73,44,87,84,92,-15,40,7,74,25,26,18,-54,-28,-9
1490653849805,31,6,-84,26,25,-20,-65,-9,-8,28,2,8,-55,13,-5,-3
1490653849845,-11,21,60,92,84,9,37,23,84,7,-5,-2,-38,47,52,7
1490653849885,-11,4,20,92,-25,-15,28,2,-31,96,70,127,83,80,1,8
1490653849925,22,-9,-16,-46,-16,-14,-12,9,9,-4,33,-87,-73,-4,-28,-19
1490653849965,1,27,7,-80,0,-37,-4,-9,-8,-32,34,80,-12,-1,6,12
1490653850005,-82,42,24,-3,2,24,22,0,17,81,-9,76,39,15,11,5
1490653850045,-48,13,-16,7,42,10,13,12,11,12,-23,-44,4,-21,-10,-6
1490653850085,-116,27,26,-111,-67,-7,3,-11,29,-31,-13,-74,9,10,-4,-2
1490653850125,-43,70,1,55,103,-30,-5,1,-128,127,-49,-125,-116,-64,-26,-5
1490653850165,98,7,-27,-5,-16,11,7,2,-1,-51,-41,57,30,68,9,6
1490653850206,1,-102,-67,-9,-51,14,10,2,-12,6,-46,-39,-57,68,-2,-31
1490653850284,37,121,58,-13,2,-52,12,21,-25,106,-16,-46,-33,-69,3,-23
1490653850288,-24,-21,0,-27,2,-1,-13,3,-15,-112,-41,-45,9,-17,-16,-22
1490653850325,23,-35,-8,-46,-11,-20,-5,-13,8,-119,35,81,24,3,1,1
1490653850365,44,-106,41,-61,5,-8,-7,10,11,-73,-68,-70,9,-1,-6,1
1490653850406,-35,-98,7,49,5,5,5,32,-9,-67,53,21,-17,9,-7,-16
1490653850445,112,-3,23,-12,0,61,0,-17,89,-93,-31,4,3,33,5,22
1490653850485,-71,26,-10,-7,2,25,11,-27,-34,114,24,40,19,11,0,36
1490653850525,-41,-63,-25,-11,0,-2,-6,4,-99,-51,-5,-13,2,-2,2,17
1490653850644,37,-70,14,1,16,6,-1,-16,-39,-53,6,11,-1,-6,-8,7
1490653850645,-34,127,-19,-11,3,-1,-75,-17,52,55,31,11,-4,-6,12,54
1490653850653,-128,59,21,-21,-6,8,11,-38,-123,-117,14,-8,4,-1,-10,-9
1490653850724,-30,20,-12,-45,-8,-6,25,22,58,28,-5,-7,7,-22,-29,-4
1490653850726,1,-16,-28,12,-5,-23,-13,-8,-7,16,-6,13,-1,32,28,-13
1490653850765,-81,4,-2,-32,-17,32,-20,-25,61,5,49,23,-2,20,39,-39
1490653850805,-81,67,-11,65,41,-41,-3,-27,-29,93,75,12,-3,56,42,10
1490653850845,-29,-17,-21,15,20,92,46,34,30,16,43,38,12,8,29,3
1490653850885,69,-83,-44,8,44,-79,-44,-3,-95,-20,21,-128,1,36,-30,-26
1490653850926,5,-6,-34,42,59,50,-41,-40,96,-29,-42,68,-3,-34,-25,-32
1490653850965,-128,80,19,98,12,-29,-17,13,-108,66,-13,25,-31,-56,-37,-10
1490653851005,80,31,36,-78,-29,65,85,83,15,-30,-51,-61,-69,33,-10,7
1490653851047,-53,2,-2,-29,-16,28,-20,-21,-45,-47,9,64,-73,0,28,25
1490653851085,-82,-29,21,18,3,-77,-53,-49,-45,-68,-20,-17,3,16,21,-60
1490653851125,31,44,-47,-51,-124,-85,-30,-83,90,103,54,68,68,43,7,48
1490653851165,20,-23,16,-15,15,33,25,4,-45,-36,1,27,-31,18,-9,-26
1490653851205,90,-9,20,6,-8,16,-2,44,-27,-61,-10,14,-16,-17,-4,5
1490653851284,-119,-100,-32,20,-9,72,19,10,49,30,14,-54,-31,-25,79,-9
1490653851286,62,44,-20,-95,7,3,24,-7,24,-30,-21,-51,41,-52,-75,9
1490653851334,26,48,40,-5,-36,-99,-68,-4,3,10,-2,89,-92,-85,-64,-2
1490653851365,37,-30,-36,-104,-33,2,-18,-9,-44,-62,-9,-125,35,-16,-52,-72
1490653851485,-45,23,26,18,9,-30,-18,11,-10,37,0,-94,-3,-7,-34,-35
1490653851488,50,21,-16,109,9,9,48,53,-46,27,-13,33,-32,87,74,-10
1490653851530,97,4,-33,-103,18,17,26,0,47,33,-14,-26,-22,17,16,26
1490653851607,-23,-9,3,24,-9,13,25,-42,21,-44,-25,67,11,30,4,28
1490653851608,46,-19,-19,-31,5,51,5,-2,37,20,7,3,27,-9,-10,16
1490653851609,-6,17,13,8,16,5,20,-10,-31,-12,-24,-13,3,18,35,12
1490653851645,-100,-83,-31,-57,-26,-36,-15,-36,64,-36,30,23,21,-7,26,45
1490653851685,87,2,-2,-11,15,45,49,59,-109,-44,-5,-106,-8,-11,-25,-30
1490653851725,-47,100,-12,47,-12,-28,-23,-15,-9,121,-10,-61,-13,-20,0,-14
1490653851765,-24,-70,7,-4,-10,-30,-5,18,-59,-40,-15,-22,7,-12,-36,-18
1490653851805,-12,14,-3,0,15,22,45,15,13,-6,-3,-4,-10,-32,-46,-6
1490653851845,5,-33,-11,-79,18,45,-7,17,86,-24,21,-72,-11,-2,-29,-34
1490653851885,-32,-40,-11,-41,4,-50,-23,-5,89,-3,3,-35,-37,-2,-8,8
1490653851925,38,16,-5,52,10,-28,-33,-26,0,-20,17,-42,-57,32,44,20
1490653851965,-128,-38,3,107,-3,-25,-46,-92,116,25,-20,127,-44,-8,-1,79
1490653852005,96,91,17,-106,37,63,-6,-9,106,33,34,-77,-37,-40,-54,-29
1490653852046,-51,22,-13,115,27,0,19,5,127,19,-3,43,27,-63,-96,-23
1490653852085,104,62,0,40,-8,-41,18,17,35,30,-13,49,-44,38,25,-43
1490653852125,-65,37,60,-98,-114,97,88,14,-48,3,5,-100,79,22,17,50
1490653852165,27,29,78,-57,-91,61,12,-17,13,-3,-7,-66,-48,-19,26,-11
1490653852205,18,24,45,59,-95,-43,-45,3,10,14,-26,-94,2,116,-17,72
1490653852245,19,-36,39,-91,105,-1,-62,-48,-16,-12,8,-53,18,20,-30,-24
1490653852286,44,45,4,-100,-99,-17,119,44,87,26,42,-62,127,-28,-69,47
1490653852325,50,78,-16,-80,-80,71,-8,-16,100,40,13,125,9,-89,-20,-23
1490653852404,-32,-70,14,110,-15,-99,-67,91,-91,-66,-64,-125,-93,55,29,-66
1490653852408,-13,6,12,49,22,-125,-14,2,60,60,7,-41,-50,97,-96,55
1490653852445,-31,-20,8,84,13,-19,-43,-18,-8,12,11,73,-29,-42,-40,-3
1490653852524,-17,-7,8,-46,-17,-55,-78,-82,-127,-56,8,-7,63,62,17,-24
1490653852526,-22,-26,-15,73,88,124,109,127,39,-33,-53,-128,-120,28,-16,-3
1490653852605,8,-22,100,56,-16,5,-81,7,-128,-116,-81,-79,-50,-68,-55,-82
1490653852606,-21,-44,3,118,87,43,127,-7,-115,-23,41,127,127,81,14,-14
1490653852645,66,-14,-46,-73,-60,-6,-104,-48,-23,-9,-67,-77,88,91,0,3
1490653852685,41,29,22,24,-18,-54,59,41,74,37,11,-76,-86,-26,5,46
1490653852765,35,13,-102,-54,-68,-128,-34,-21,-100,2,16,127,118,125,46,36
1490653852766,60,-4,-16,57,43,-69,65,13,-1,-22,46,10,98,71,-52,-1
1490653852805,-2,63,43,-25,-57,37,-33,5,16,-3,-12,-43,50,-60,56,14
1490653852845,-8,21,-43,-32,75,25,-47,-1,-8,51,111,3,-19,127,82,61
1490653852885,6,8,2,97,-21,91,74,23,20,-27,-21,-116,-123,-106,-88,-9
1490653852964,-32,18,-35,39,-27,73,-56,10,-103,85,68,7,127,68,50,32
1490653852966,8,18,0,-9,-54,-12,-22,-11,31,-16,-36,-4,51,127,30,-20
1490653853005,8,19,-12,-26,23,66,-29,9,-27,-11,22,89,125,109,102,8
1490653853045,80,5,117,114,85,56,24,41,8,-16,-56,-128,-128,12,-32,0
1490653853086,-37,13,62,125,83,-12,4,4,-37,35,32,12,105,38,8,9
1490653853164,24,-32,4,70,55,38,25,7,57,-4,5,-128,-25,-4,-10,7
1490653853165,40,27,-43,-128,-54,-19,-5,-6,-44,13,16,41,68,-4,-6,3
1490653853205,20,-5,-32,-17,-4,-5,14,10,-15,-4,4,12,3,-6,0,-4
1490653853245,-35,30,-12,-95,-80,-14,-15,-17,14,-2,16,44,-45,-36,-14,-17
1490653853286,30,-32,-4,12,-36,-14,-32,12,5,-17,6,-9,27,31,15,13
1490653853325,-36,-24,-38,-58,-58,-22,-14,-22,-13,-23,40,22,15,18,12,2
1490653853366,-44,96,44,-22,77,41,25,-1,-2,6,-59,-81,30,5,-4,-18
1490653853405,-2,38,71,68,57,31,1,-4,8,-14,-7,60,21,-69,-13,-6
1490653853445,29,-56,-47,-18,-26,36,-8,-2,111,30,-2,-31,-30,43,-11,1
1490653853485,-51,-35,-103,-64,-37,30,-3,-36,27,-106,-74,-34,-42,-27,-19,-8
1490653853525,-37,30,-19,21,-8,-28,19,17,-47,76,63,46,-2,-1,-6,-41
1490653853565,63,62,30,38,22,18,11,23,-31,-47,-24,-11,-5,-3,-6,-51
1490653853607,77,126,39,9,16,-7,-8,9,12,-14,-88,-21,-5,2,13,32
1490653853645,-23,-122,-36,-31,-3,-20,-11,-22,-51,-89,49,1,13,16,14,60
1490653853685,72,53,-34,-32,2,3,-9,-21,10,116,25,-35,-8,-7,-2,-10
1490653853725,-7,-34,-16,-3,-9,4,9,13,-17,13,-23,19,-5,-5,-4,12
1490653853765,118,-25,-3,17,4,4,2,6,63,-50,-39,16,8,8,-7,8
1490653853805,-8,38,1,-12,-3,-2,-3,23,-56,41,-45,-6,12,4,7,-5
1490653853845,-35,-8,-37,-24,-6,-8,-14,-12,-94,41,34,25,0,1,34,-17
1490653853885,99,-105,32,-12,-10,-12,-9,4,-92,97,-21,-14,4,-5,-15,-30
1490653853925,-58,82,-24,-7,-9,0,-4,-41,-4,41,-18,-14,-15,-16,-7,11
1490653853965,-89,17,-21,23,13,27,15,-4,-20,-1,48,-30,-16,11,27,-6
1490653854006,-47,2,-28,-32,-64,-103,-47,-25,12,-8,-16,30,25,38,-2,17
1490653854045,54,2,-4,55,67,6,-10,-5,79,59,26,-45,-79,-16,5,-1
1490653854085,-9,-7,-14,-23,-29,-8,0,14,-106,14,3,7,1,52,46,29
1490653854125,23,7,55,51,87,94,52,14,48,-21,40,-73,-63,-98,16,-33
1490653854204,63,35,-41,-95,-73,40,58,43,-48,35,6,-112,18,62,-31,5
1490653854206,50,-12,9,93,40,-6,20,-17,-55,12,-3,52,-51,3,12,19
1490653854246,-83,10,21,40,56,-1,29,-3,29,-24,-7,-13,-14,50,-2,-25
1490653854285,30,42,26,15,78,5,31,58,36,-21,13,-45,-54,-80,-78,-68
1490653854325,-26,19,-13,-26,-76,1,-32,5,4,-28,-16,43,70,39,58,65
1490653854365,115,16,18,-26,-67,-113,12,-4,45,47,2,-37,-88,43,-89,6
1490653854405,35,13,-19,2,-71,36,-20,-24,-76,-6,16,71,66,10,30,10
1490653854445,-67,-3,28,58,-6,-48,-64,-56,16,58,4,114,86,25,57,17
1490653854485,76,40,-11,61,52,-30,-99,29,27,-10,31,-94,-68,34,-4,23
1490653854525,7,53,53,9,-44,-59,-33,-20,-42,43,26,-9,-13,11,49,1
1490653854565,21,2,-36,-21,-21,46,-2,28,-7,94,9,62,68,69,28,41
1490653854605,-96,20,4,22,90,-14,11,15,49,8,-12,-38,-81,-49,-3,10
1490653854646,104,23,5,-32,-29,88,24,78,-59,0,16,-73,-64,-22,8,12
1490653854686,-128,6,-16,-24,21,0,-39,-98,66,-38,21,34,2,20,-8,44
1490653854726,105,-9,8,23,-58,40,1,14,41,-1,4,35,-36,-114,-69,-99
1490653854766,90,-8,27,-97,-24,55,27,48,-54,-103,-43,-116,52,-25,-46,-33
1490653854807,-42,42,23,-98,1,-18,-7,-55,-5,38,-15,-62,22,31,-9,7
1490653854845,-31,-17,34,-42,25,20,0,-7,73,-96,13,-62,10,3,15,56
1490653854885,67,65,20,-2,17,26,32,40,72,20,-2,11,-33,-26,-14,-5
1490653854926,-16,-72,-3,116,42,8,36,-2,109,-17,3,48,-2,-8,-3,15
1490653854965,26,7,-17,-5,9,-9,-30,14,9,13,-20,-27,14,12,35,-2
1490653855005,117,-51,-7,33,50,74,54,34,15,-115,47,46,-8,-3,-24,-21
1490653855045,50,-44,-16,-40,-32,-9,-1,-23,28,13,-11,-40,-26,-41,-59,21
1490653855085,-73,-51,-10,6,43,72,102,-2,108,-25,-21,-15,23,12,33,44
1490653855125,-113,-30,-32,-5,-57,-51,-57,-79,45,6,34,-36,9,5,-16,-42
1490653855165,-47,-22,-25,62,18,47,-8,-39,44,-15,-57,-20,-50,-23,-48,9
1490653855205,77,-6,1,29,23,11,-1,-15,42,-3,23,-45,-36,-2,4,30
1490653855245,62,18,9,70,-5,-30,16,18,-88,-6,-50,-71,8,-47,0,-31
1490653855285,35,-1,-22,50,-104,90,10,13,-74,8,15,103,127,52,53,39
1490653855325,-5,75,-12,-3,-128,-89,-56,38,-119,27,12,-60,-91,-77,-83,-128
1490653855365,-108,14,-15,-89,40,-52,-31,-65,-37,74,-71,23,-56,-23,3,-70
1490653855405,62,-8,44,76,51,73,110,106,2,-12,25,83,-59,-103,26,-28
1490653855445,80,91,29,-61,-68,20,2,17,-7,77,27,-74,19,32,11,-42
1490653855485,122,14,-34,-116,-32,-56,-46,57,46,-43,11,-78,-79,-63,-30,-28
1490653855525,-98,-10,49,-69,101,44,-78,-16,-51,44,58,127,127,-30,-60,-9
1490653855565,52,11,55,10,30,-29,-46,17,90,12,53,127,106,36,60,32
1490653855605,-15,81,73,-28,113,115,95,46,-63,-2,8,-68,-126,-128,-128,-33
1490653855645,50,-79,-123,-63,-41,-106,-128,-105,-18,-35,-39,-38,57,120,127,23
1490653855685,-76,39,-24,-24,-81,-128,-80,-59,1,-12,-97,-81,-47,71,55,43
1490653855727,104,4,28,-121,-29,127,122,14,24,9,18,127,127,-104,13,24
1490653855765,88,8,54,-128,-55,-29,91,65,-102,-64,-13,78,112,85,-84,-92
1490653855805,-90,-14,-52,68,96,-33,44,70,102,34,26,-19,-74,-122,-128,-89
1490653855846,6,53,13,104,-77,-11,26,30,-66,26,-6,-107,-115,-43,68,-35
1490653855885,33,-38,-67,-88,-2,-45,-74,-26,-57,-28,29,127,127,100,127,49
1490653855925,-17,-12,-6,-113,-94,71,72,14,46,16,26,42,-35,99,65,123
1490653855965,12,26,16,120,117,-37,105,-59,29,0,33,64,-11,40,63,36
1490653856008,-3,26,32,-54,87,18,-61,5,-6,1,8,-38,-128,-116,-115,-45
1490653856045,2,5,33,67,23,64,-91,51,-40,-27,-35,-45,60,9,29,25
1490653856085,7,16,-54,127,108,-28,91,6,-20,-27,-9,-83,-35,-74,-55,-92
1490653856125,40,-5,5,-97,-15,111,111,19,8,-33,-62,49,-13,-119,-109,-58
1490653856165,-57,21,-107,37,-70,-69,-18,-34,71,71,71,13,-103,19,14,11
1490653856244,-30,-48,-87,-65,-43,-80,60,-23,34,-45,-5,-53,-86,11,-37,21
1490653856248,45,-47,-54,125,-56,43,19,13,16,39,92,110,68,13,48,14
1490653856285,-24,-5,34,-7,127,33,20,3,-25,-14,-52,30,34,53,38,-1
1490653856325,21,18,39,38,61,-12,12,-1,-69,-22,-13,-60,9,-47,-33,-11
1490653856365,3,-14,-41,-65,-125,-32,-10,-7,51,-16,-51,22,1,-39,-33,-13
1490653856405,-28,-75,-66,-4,-10,-21,-30,-6,-39,-19,3,12,-45,-4,25,15
1490653856450,30,-7,-2,-13,-7,-17,2,-2,-25,41,-87,-128,4,-3,-5,-3
1490653856485,-11,13,-53,-34,-12,11,-15,6,39,-22,66,-87,-65,-17,-18,1
1490653856525,30,16,59,-47,-29,-27,-7,-15,13,9,-29,84,13,11,34,18
1490653856565,7,11,-34,-14,-56,-24,-17,-13,10,35,53,-16,-20,12,-19,-41
1490653856605,56,51,-28,-9,-11,-8,-9,-12,-25,127,5,60,23,-6,-1,-4
1490653856645,14,18,90,-56,-19,3,12,39,98,100,8,-4,-6,-8,-22,-12
1490653856685,-31,25,-37,-84,-5,-8,-1,-11,-1,74,44,0,4,-11,6,37
1490653856730,51,-104,-59,33,21,5,9,-10,-2,-77,25,25,-3,-7,-12,-42
1490653856765,-35,20,127,60,4,13,-11,-27,47,-35,-62,-4,2,25,-7,14
1490653856844,3,67,-27,23,7,-9,-6,-12,-7,99,6,-17,-8,-39,-10,7
1490653856845,-24,-21,-5,4,2,2,9,6,-74,19,2,-8,6,20,9,2
1490653856885,124,-36,-9,-31,2,9,7,16,45,-45,-18,-14,1,-6,-9,-2
1490653856925,-128,4,-13,6,49,-11,-15,-19,-27,127,-5,-24,14,15,-1,1
1490653856965,93,-101,-16,-6,-2,-25,-8,-19,68,-92,5,4,23,31,9,25
1490653857005,103,-103,-17,-17,-16,-28,-11,-17,123,-49,13,19,-24,-30,-21,-39
1490653857085,64,127,-37,-33,-17,27,-24,-4,39,48,11,7,-4,-31,-12,-8
1490653857087,-28,26,-30,-12,14,36,40,27,39,31,56,16,15,22,1,-6
1490653857126,48,61,63,22,17,-27,0,-11,9,102,-14,4,30,33,18,10
1490653857165,-100,-65,-24,-15,6,-17,-43,23,-32,46,18,-26,-54,-63,1,28
1490653857205,68,-2,27,4,-41,-6,76,28,46,-7,-37,-101,-15,22,-33,-8
1490653857245,88,-26,32,15,-45,-77,-41,-17,127,-24,5,44,71,27,25,10
1490653857285,-37,34,35,-17,9,-21,-2,24,-108,-27,12,63,-11,-17,-20,-33
1490653857326,-122,61,-12,14,19,18,8,27,-87,-54,-3,-47,-70,-128,-95,-33
1490653857365,-20,8,22,11,-33,24,1,-6,11,2,-4,18,-25,3,-11,35
1490653857405,89,-31,-37,11,59,2,-56,-32,-32,-5,2,1,13,-74,12,-23
1490653857445,-12,-8,-19,24,37,-88,-96,-18,56,-15,-9,33,16,93,5,-34
1490653857485,-3,-1,15,80,58,-77,-55,-20,-88,17,-2,-47,-69,0,1,-14
1490653857525,19,-15,-6,30,34,41,11,53,-3,-12,-18,-106,-128,-105,-40,-32
1490653857565,-54,-2,-39,31,48,86,68,18,-23,14,1,-11,7,-5,-9,-34
1490653857605,95,39,-10,33,108,30,-20,49,-105,23,9,45,96,76,36,11
1490653857645,-88,18,26,-10,0,-4,-58,-15,12,83,59,-17,41,24,42,59
1490653857688,18,-59,-3,11,-56,9,-45,-71,2,-47,-15,30,-30,-39,34,13
1490653857725,-54,26,-13,-8,7,47,-4,31,-122,-39,-9,-52,29,32,-2,-83
1490653857768,-49,-66,-36,75,-19,-62,-25,-49,-17,-25,-31,105,-19,37,50,18
1490653857805,19,70,-71,-84,-55,-5,8,-17,-34,6,-27,-112,46,21,13,21
1490653857845,-73,15,-1,-10,21,5,10,-17,-49,-2,66,48,42,7,-12,-3
1490653857885,62,-15,4,123,-17,-39,-40,-26,29,-23,-44,-101,-15,2,19,-4
1490653857925,-51,13,-5,-20,-19,-21,-44,-23,-24,2,4,-7,-34,-9,-16,1
1490653857965,55,-15,-6,47,18,53,41,-18,44,25,6,38,-20,-6,-6,21
1490653858005,35,-26,7,-55,-2,-6,-15,-46,68,-17,38,31,27,-16,21,11
1490653858045,16,21,-16,-50,-10,-5,39,95,54,19,-5,-111,-16,-40,-56,1
1490653858086,36,-7,-23,64,1,14,15,30,-102,35,14,11,-56,-54,-43,-37
1490653858127,-43,-16,-28,-41,-53,-34,-7,-46,9,16,-3,13,36,-12,-4,39
1490653858165,-9,26,-35,-93,-15,-18,1,8,113,2,13,12,-19,5,25,21
1490653858205,12,7,40,22,80,19,-34,-19,-106,34,-18,68,58,12,16,-34
1490653858245,7,-19,5,-50,-103,10,39,51,-51,-39,18,14,123,65,16,-35
1490653858285,-98,-34,27,122,127,28,-56,-30,48,2,29,29,-99,31,-52,2
1490653858328,10,31,0,92,74,85,14,17,127,78,115,9,-23,50,127,84
1490653858365,42,52,2,-33,116,-128,-41,-17,21,52,-43,-128,-105,-65,-62,57
1490653858405,27,71,-29,-12,-77,91,-22,84,4,26,-17,97,47,-128,-70,-33
1490653858445,51,115,125,-50,-2,56,27,34,30,83,27,63,127,51,13,44
1490653858485,69,-77,-86,109,82,-56,-124,-39,-74,-35,6,7,-128,77,101,57
1490653858530,-78,-11,31,56,-38,127,72,-18,3,11,-6,-8,-3,-108,50,2
1490653858565,-67,-16,-104,107,91,-45,53,-61,49,51,78,70,-24,32,93,29
1490653858605,24,-25,-69,-128,-112,94,-96,0,81,-60,-27,-86,-34,-128,66,-64
1490653858645,-16,-18,38,-34,-31,-50,49,-9,27,-16,-41,-74,-3,90,82,62
1490653858686,-25,-20,-78,-72,54,-109,1,-34,30,11,46,70,58,77,61,30
1490653858725,22,-23,17,119,51,24,80,36,-1,-30,-56,-12,39,15,-64,-23
1490653858765,-43,-20,25,-83,-122,43,-18,-17,-60,-25,-8,-104,-90,-31,-41,-39
1490653858806,-53,7,37,123,127,84,55,-41,-79,-11,-77,35,58,84,127,-3
1490653858845,85,41,34,20,12,0,5,-10,-2,-21,-11,-100,-34,-35,31,-66
1490653858885,-35,37,30,77,64,47,-7,-30,29,11,53,-128,-77,-47,-86,-76
1490653858925,-101,-62,-119,20,26,-120,-2,-80,126,-62,-33,-125,-113,100,-73,21
1490653858965,33,-3,20,-128,-109,64,-128,2,-6,39,-21,59,97,-25,70,83
1490653859005,37,37,44,62,-40,-97,-18,8,-6,24,1,2,-10,20,-26,-12
1490653859045,-84,-14,-66,-43,-128,122,55,9,-28,-21,41,100,88,-125,-72,-38
1490653859085,45,-30,107,-93,-73,124,-37,25,18,3,36,27,8,106,125,99
1490653859125,-11,-19,-38,91,113,94,41,46,-25,-17,-7,72,-51,-128,-70,-38
1490653859165,11,65,45,-128,-128,41,-10,-21,-5,5,-49,127,85,-128,-82,-7
1490653859205,-94,20,-14,49,88,-61,-110,-14,20,-29,31,-96,-40,6,90,-27
1490653859285,1,36,51,-5,-36,64,42,-7,-15,30,31,127,-15,-114,49,22
1490653859286,-34,1,-44,-89,-54,65,-104,-21,-4,-38,-99,-115,-69,-78,6,-24
1490653859329,24,12,-8,48,-98,-14,50,38,-42,-35,-35,-62,30,-25,-14,-10
1490653859365,28,27,51,-123,-128,-90,-25,-14,11,-6,-3,40,127,127,32,4
1490653859405,-22,11,-49,27,31,-14,6,6,29,11,28,-102,-128,-103,-28,-26
1490653859445,-13,-8,61,-20,-99,-17,-5,11,-10,23,-70,-57,31,3,-14,-23
1490653859485,-21,1,33,-21,127,50,33,-11,77,-15,-5,56,31,1,4,9
1490653859525,58,-14,-15,15,76,90,43,28,4,6,24,88,25,34,1,19
1490653859565,-15,51,20,45,35,22,4,9,-14,19,19,-46,-24,8,4,14
1490653859606,58,10,85,14,39,26,4,1,27,-33,-15,-6,3,5,7,-19
1490653859645,-121,-23,-23,51,-3,-15,-4,-5,-64,-14,40,42,4,-10,1,1
1490653859685,16,-45,17,-25,-11,-5,-18,-3,-21,-40,-67,-16,4,2,0,-37
1490653859726,-23,68,48,19,-2,-7,9,-18,88,-95,-76,4,14,17,3,19
1490653859765,7,0,-1,37,-6,-72,-17,-24,38,3,12,-53,-21,-27,7,-11
1490653859805,9,0,-49,19,-4,14,3,7,-12,12,-29,-31,-4,-2,-18,7
1490653859846,-43,71,-8,5,3,16,19,10,9,-61,-34,-17,-7,-1,-2,-16
1490653859885,-86,-103,-21,47,32,48,23,1,40,125,112,37,5,16,-4,13
1490653859926,127,27,2,50,1,3,-20,-18,98,-52,29,29,-6,-7,-21,-34
1490653859965,-3,29,-17,-47,-9,11,-1,-16,-14,49,8,9,15,0,5,5
1490653860005,-40,-34,29,15,1,-21,-9,-33,-76,-108,-47,10,9,-3,2,-2
1490653860045,-128,17,-20,1,-4,-1,6,27,-113,2,-3,10,-1,-8,5,0
1490653860124,89,-61,-10,-12,-19,-4,38,11,127,-52,34,-12,-15,-39,-54,6
1490653860126,108,-98,-1,-3,4,-9,-44,13,91,-41,-30,-14,-15,28,24,2
1490653860165,-10,91,-21,-15,-2,-17,-28,-13,33,116,43,25,35,27,7,-11
1490653860205,2,0,-28,-22,-13,-38,18,4,-74,-4,-23,-18,-16,42,-26,-25
1490653860245,-118,105,54,26,52,10,-7,36,-109,37,-12,-7,-5,-22,-20,40
1490653860285,-95,36,-18,-15,-41,-17,11,-27,-41,60,44,56,65,62,-5,20
1490653860325,35,-4,13,33,13,46,4,76,48,4,28,2,15,17,71,-8
1490653860366,-12,-17,0,77,19,44,49,-31,-80,-13,-10,-75,-122,-55,-31,15
1490653860405,-15,-90,28,-65,20,-8,31,18,-66,36,32,75,94,92,85,26
1490653860450,-40,30,23,-112,-107,-64,50,51,-73,-29,-48,-83,-44,-100,-97,-115
1490653860485,-56,-5,35,98,54,76,20,-22,13,13,21,1,-20,-113,37,0
1490653860526,108,-11,-22,-117,-128,67,48,81,-85,30,16,-30,-7,-40,75,-21
1490653860565,27,-16,-10,-6,-60,34,107,5,-18,26,44,41,97,87,-44,-13
1490653860608,-33,-23,-7,87,118,-110,-115,23,17,8,-6,-77,-128,32,8,-11
1490653860645,-111,-46,-44,68,75,-49,-84,-43,89,-36,-21,-81,-23,80,45,21
1490653860685,-30,26,4,91,67,63,-7,-28,95,-1,1,42,-116,-48,-20,17
1490653860725,72,-40,-46,-46,-61,1,-5,38,-1,55,49,16,124,-31,-40,-11
1490653860767,61,-42,1,-83,-96,-2,36,-4,-121,-90,-33,-27,85,78,-2,-8
1490653860806,-27,48,33,11,84,57,108,28,-53,28,42,75,43,57,55,24
1490653860845,-45,-5,-18,-67,-36,32,55,27,3,-9,-27,-15,10,-31,-12,-22
1490653860885,99,21,13,-7,-48,9,-9,40,-47,-50,-25,-50,-15,-22,-54,-70
1490653860925,-92,14,49,21,44,28,-16,-2,-115,13,9,5,-7,-34,-22,-29
1490653860965,59,16,-9,-25,-10,6,33,14,2,-16,-9,29,-8,-2,-31,-33
1490653861005,-49,-10,-30,-46,-20,22,18,-8,-64,-8,-23,-30,6,5,6,-14
1490653861045,9,32,9,41,15,19,14,-8,-111,-7,-52,17,14,17,8,-2
1490653861085,51,-28,30,17,19,66,6,20,-18,-20,-3,4,-5,15,-10,-6
1490653861125,-77,-5,-27,17,5,9,24,-23,47,-2,8,13,-12,-6,8,-5
1490653861165,44,-1,0,-32,-17,-27,-22,-6,-14,1,-20,3,13,25,42,24
1490653861205,114,13,2,-11,-22,-36,-49,-2,-29,12,21,18,31,97,75,43
1490653861284,-101,-22,-42,5,-7,25,-5,-5,69,-8,-25,4,-27,-41,-47,-36
1490653861286,43,22,19,21,20,-22,15,-6,55,-1,28,18,-6,-26,-47,-10
1490653861325,-75,13,2,-12,-6,-23,16,18,-42,11,-8,27,-13,22,35,32
1490653861365,16,37,-14,5,-18,-10,29,-3,25,-27,-25,-30,0,-6,0,-41
1490653861405,-10,25,7,51,28,-2,23,16,64,53,9,-3,23,50,29,57
1490653861445,11,-20,3,30,10,-74,-93,16,77,-51,-49,-46,5,42,91,23
1490653861524,103,-8,-81,-15,-17,-94,-28,-4,-32,32,56,-20,-37,-47,-55,5
1490653861525,-59,6,34,35,10,95,25,-24,15,2,-22,5,-123,-19,-59,-1
1490653861565,-27,6,62,87,127,24,38,-10,17,43,56,127,-35,-73,1,-16
1490653861605,84,9,-35,-128,-94,-128,-114,-25,-57,-22,-33,-84,29,71,112,-75
1490653861645,4,78,88,117,127,-11,-27,5,12,53,37,13,-120,127,127,109
1490653861685,96,-7,3,-99,-81,85,43,68,-128,42,18,104,120,99,-57,-17
1490653861725,73,20,46,55,77,102,92,7,-63,13,87,83,-24,-20,-10,10
1490653861765,4,6,-27,-51,-92,-128,61,-20,97,-10,-12,4,127,67,-48,0
1490653861805,109,-36,-64,-123,-128,110,97,49,-63,-1,47,11,23,-128,-25,-117
1490653861845,-65,-10,-29,41,-75,-56,-17,-12,-105,11,-66,-128,-59,-21,-34,-26
1490653861885,-2,40,57,127,49,-23,82,15,41,30,11,-73,-128,-128,33,6
1490653861925,-50,-25,57,-100,-43,77,-31,34,-69,37,-43,-22,-9,20,-10,-42
1490653861965,127,-33,-49,-119,-86,112,97,73,74,59,26,12,-32,-76,90,111
1490653862005,-101,-5,-21,116,127,127,57,41,62,-19,48,-46,-75,-128,29,-18
1490653862045,127,27,-43,-68,-62,59,-45,65,-75,-52,-26,-104,61,33,-66,-30
1490653862086,-43,3,21,-48,106,1,94,65,2,-49,-51,-7,-26,-33,-47,-31
1490653862127,26,28,-46,-64,2,127,48,-63,-58,-115,22,-33,-55,-89,-93,-35
1490653862165,-3,-10,-85,-111,-112,-43,55,-21,-119,3,-18,-25,9,55,73,4
1490653862246,-71,-4,64,-70,5,-76,-5,34,117,24,-48,100,44,57,58,90
1490653862248,42,-14,-91,-94,91,-106,-66,6,101,-13,20,113,73,-77,-71,-67
1490653862285,-32,-53,-41,-128,-101,50,28,-17,-17,47,69,1,-88,117,-101,12
1490653862325,51,-25,-50,-128,-117,-128,64,-11,-88,5,-17,34,124,117,76,3
1490653862365,60,70,117,80,108,90,-48,76,-9,-73,-123,-81,-96,-62,-11,-86
1490653862405,-20,1,-13,-47,19,127,1,44,27,2,62,34,-49,-97,21,-20
1490653862445,-23,-8,84,111,44,62,67,-14,-34,-2,-20,52,127,127,-56,29
1490653862485,21,7,-60,-91,-45,-51,-88,-40,-40,-21,-17,98,-77,98,37,19
1490653862525,53,-23,21,-105,-8,-124,77,-30,46,7,31,79,127,15,8,37
1490653862565,22,-21,42,126,-68,-22,-11,5,-13,-19,-98,-128,81,105,110,35
1490653862605,-11,-69,-96,-8,-51,28,-75,-9,-5,-13,-43,17,-105,-128,98,-38
1490653862645,-37,7,0,-72,-63,127,6,-21,40,72,-2,-89,-128,-74,84,68
1490653862686,25,9,63,-104,-72,-42,-47,-2,-17,-5,30,55,50,110,64,-11
1490653862725,-19,-47,-93,59,112,28,33,-20,-3,-23,57,76,45,62,-13,22
1490653862765,-6,29,77,84,119,65,109,6,-10,26,-30,50,127,49,-31,-4
1490653862805,22,2,-6,-86,41,8,-16,-1,11,10,-8,-128,-67,80,-81,-2
1490653862845,18,-20,-27,95,104,51,31,17,40,6,43,86,0,11,-2,3
1490653862885,-67,-26,10,-25,80,6,13,0,-54,15,18,-57,-105,-7,7,-9
1490653862925,108,17,-39,-48,46,-50,-16,-5,37,-5,-37,-83,-52,-42,-5,-2
1490653862965,-8,43,52,-4,19,-13,-27,-6,10,-31,-60,13,61,3,-7,-9
1490653863005,-128,-48,-60,61,-65,-40,-42,-32,-81,7,63,57,-73,-19,-13,-9
1490653863046,96,-30,-32,-60,27,3,10,-9,-20,30,92,67,4,-4,-3,-20
1490653863085,1,6,-31,78,79,28,0,-8,-31,-3,11,-98,-76,-54,-35,-34
1490653863125,15,18,18,-127,-4,-39,-30,17,18,12,-38,28,-97,-63,-28,-9
1490653863165,59,-24,-76,68,49,62,21,-15,127,5,0,-76,-67,-10,-10,-10
1490653863205,112,5,-96,13,25,-5,11,7,44,10,20,7,23,10,3,13
1490653863245,-19,43,-3,-44,7,40,-4,-6,-1,8,-38,21,18,64,21,2
1490653863286,113,5,-4,43,4,25,0,8,-115,-50,83,-28,21,18,3,-20
1490653863365,7,35,32,-23,-7,7,1,-40,-29,70,-19,47,46,-24,-30,0
1490653863405,-13,-32,113,20,-28,-54,-8,-8,47,-128,-45,50,10,-18,4,-32
1490653863524,-119,-78,13,32,16,-5,17,37,-18,-104,-8,11,14,26,-13,-23
1490653863565,-5,-48,-5,22,7,51,24,28,21,53,14,6,3,5,19,46
1490653863568,-30,13,43,-3,1,12,0,9,-53,-73,-44,-14,-8,13,-12,-19
1490653863605,100,25,30,-33,-20,-16,-31,-14,113,-2,30,13,-2,14,1,-1
1490653863606,57,-23,54,18,-9,3,-22,7,46,47,66,39,7,0,7,-26
1490653863648,33,-14,-7,21,93,-16,-53,-30,9,96,52,-42,-89,-47,-4,13
1490653863685,-80,-75,6,6,-80,-1,-3,-32,125,-111,-82,0,7,5,52,29
1490653863726,51,109,-25,73,79,123,61,-6,-25,127,-19,-81,-81,-75,-107,10
1490653863765,127,56,-2,-26,-79,-103,-66,21,59,-16,-8,50,127,126,62,9
1490653863805,-77,-19,11,-11,-38,19,45,26,-128,13,4,51,34,74,54,30
1490653863845,-69,-79,-8,4,-106,-128,-128,-28,-128,-27,39,17,60,103,14,3
1490653863885,-14,7,-43,-92,-50,66,-21,-12,-90,-23,-47,7,28,-128,-6,-30
1490653863925,38,45,35,84,98,-19,27,7,-4,71,-14,-62,-86,48,20,3
1490653863965,38,-2,10,9,35,-52,-29,7,93,24,35,61,20,32,36,46
1490653864005,20,34,25,57,66,0,40,3,40,-32,-15,-21,10,-18,-31,7
1490653864045,34,7,52,102,9,83,31,9,-10,-24,-23,63,116,-49,16,41
1490653864085,-128,-61,30,22,44,33,-60,-49,-50,-21,-15,-17,-33,-40,-92,-5
1490653864125,99,3,-12,-71,-79,-38,11,1,-11,72,5,5,16,48,4,8
1490653864167,-41,-38,-30,31,-28,51,-17,4,-48,5,50,15,-30,-82,28,-61
1490653864206,88,60,-5,8,47,22,28,31,-53,-44,-53,35,53,20,-5,7
1490653864251,56,6,-50,-53,-21,-3,-52,-32,56,42,33,47,38,-20,2,-3
1490653864285,-42,-21,-79,-67,-12,50,-73,-29,74,24,33,-29,-81,34,9,55
1490653864330,-62,32,-16,-15,-16,15,85,-10,-43,1,40,24,13,-77,-9,13
1490653864404,11,34,17,26,30,-20,-5,-7,64,25,10,-32,-13,-27,-10,-16
1490653864406,-1,30,-16,43,88,22,26,-6,-49,77,3,-14,-39,-14,-3,-49
1490653864445,-48,18,0,28,7,-24,11,5,-27,17,11,24,-26,22,32,-26
1490653864485,-3,-39,-2,-37,-95,-34,3,18,-2,-24,-13,-72,3,-8,19,2
1490653864525,-29,-28,-21,-20,-25,-33,-24,-20,75,10,25,17,-8,-13,10,21
