1490655088901,-4,38,-22,-52,-17,11,16,15,-98,40,93,-34,24,-64,-77,-24
1490655088938,-100,-13,-1,-3,6,-2,-15,-69,92,0,-12,12,2,29,23,13
1490655088976,-60,-50,7,8,-9,-37,-1,-7,-128,-8,-16,-4,-14,37,26,-44
1490655089014,-103,11,1,-8,-2,-15,-8,-29,102,-21,-6,8,-8,12,22,59
1490655089051,104,-36,14,0,-4,-15,-62,23,-74,42,9,2,17,17,21,-25
1490655089088,-36,0,10,15,13,26,12,21,19,-19,10,-4,5,-21,6,-12
1490655089163,-20,-83,3,1,14,6,6,-86,55,-101,-16,-1,-4,-15,-19,55
1490655089164,127,-92,-16,-7,-9,17,48,-5,-3,-19,10,9,13,15,13,41
1490655089201,127,56,1,1,-6,-23,-15,48,-128,56,-12,-16,3,-19,-16,-80
1490655089238,-41,2,2,13,8,3,-11,-9,-17,21,0,3,-1,-9,-6,-1
1490655089313,-43,87,17,8,4,19,45,-14,-9,-8,-2,-8,-13,-8,4,30
1490655089351,17,20,-1,5,1,-25,-64,3,-57,64,3,-4,4,24,26,-25
1490655089389,-71,46,14,2,7,20,44,-7,-37,36,-6,-14,-5,-36,-35,-56
1490655089426,96,122,5,4,4,-25,0,0,-111,-63,-7,-2,11,-14,45,6
1490655089464,-44,51,11,11,6,-29,4,-24,-11,-31,-6,1,2,76,-1,-13
1490655089501,39,54,5,3,7,50,2,-63,-109,-11,-10,-9,-14,29,-3,-31
1490655089538,-11,54,-10,7,-3,-26,26,-1,31,-92,-6,4,9,-61,29,39
1490655089576,-87,17,18,4,28,23,14,2,8,-10,7,5,21,13,19,37
1490655089614,5,39,-12,11,-94,-47,10,5,12,-7,2,-5,-121,-61,2,66
1490655089651,1,-46,-4,-10,7,-67,-43,-6,12,-13,13,-4,20,-32,-21,1
1490655089689,5,1,7,10,50,-17,-5,-4,9,-15,-9,-6,55,-12,-34,4
1490655089726,-17,-27,-2,-2,-6,1,16,7,29,29,6,6,3,23,14,2
1490655089763,-15,47,0,-6,-11,14,18,-4,7,12,15,5,-5,3,-5,49
1490655089801,-26,-26,0,7,5,0,-43,-2,41,24,-1,-2,1,21,24,45
1490655089838,-17,-60,-11,-8,-8,2,11,-24,7,12,6,8,3,-15,-2,-43
1490655089913,54,46,-4,-4,0,39,49,24,5,-7,1,2,2,-15,6,0
1490655089951,75,-84,-5,3,-6,11,19,22,16,38,-8,-10,-19,-14,-23,-5
1490655089989,-60,5,1,1,2,10,50,-17,-18,46,4,-3,6,-26,-65,-10
1490655090026,-8,2,2,12,9,7,20,41,-10,-36,-3,-3,3,4,1,10
1490655090063,27,-26,4,-6,5,-22,-43,4,-11,-15,-2,-7,12,-2,5,-4
1490655090101,0,66,-5,-3,-1,50,-45,8,-47,15,-4,0,-12,11,2,-5
1490655090138,-2,-41,-6,1,4,-5,20,8,-7,-7,-4,-1,-1,-16,5,-5
1490655090176,38,-12,-5,-8,-8,-17,-24,-31,-21,-41,5,8,3,5,2,36
1490655090214,-17,-15,-4,-1,0,0,13,-6,8,-11,5,6,7,5,-1,4
1490655090251,36,20,2,2,4,12,-13,6,-35,8,5,8,-1,3,13,-10
1490655090288,69,32,5,0,-4,-16,-52,33,-68,0,1,4,9,-2,2,-8
1490655090326,-70,50,3,-4,-9,-9,6,-11,20,80,6,0,6,-3,-3,11
1490655090364,20,-17,5,6,4,-12,-34,20,-8,-37,-10,-4,0,6,9,14
1490655090401,-32,-55,-10,-3,-1,8,5,-14,47,75,10,4,-4,-19,-23,6
1490655090476,23,26,3,-4,5,12,14,27,-50,-25,-3,0,5,-1,-6,-9
1490655090513,-18,-1,0,-1,7,11,12,-9,79,-41,-2,1,4,20,30,4
1490655090551,2,40,-2,3,1,-4,-8,-12,-10,39,5,7,-1,-5,-1,11
1490655090589,28,63,8,1,-2,-2,-36,-6,38,4,-1,-1,-8,-4,20,32
1490655090626,-34,-17,-3,-5,-7,-11,-5,-42,18,66,-1,-3,-3,5,4,5
1490655090663,38,21,2,-4,-9,-4,13,-13,25,-44,1,3,4,12,45,-15
1490655090701,-128,26,-4,-9,-3,13,-12,24,1,14,-6,-10,-13,11,-13,-47
1490655090738,20,-19,-3,0,-2,16,53,66,79,-41,-14,-18,-16,-6,-43,-74
1490655090776,-9,-94,-10,-16,-2,-33,-62,-13,-34,-31,-10,-13,10,9,38,40
1490655090814,83,52,6,2,5,13,34,17,11,63,2,0,6,-7,-38,-1
1490655090851,-14,9,-14,-12,-15,-16,12,51,1,78,15,2,11,-6,-10,-40
1490655090889,-33,-13,-3,5,6,-2,12,31,65,17,-5,-1,-5,-8,-22,-1
1490655090926,-45,36,5,-10,5,-17,0,-18,84,-56,-9,-1,-9,19,60,17
1490655090963,70,7,11,6,1,5,-13,-33,-27,-19,-6,6,-5,-1,60,13
1490655091038,-22,82,9,4,10,-25,-33,-72,-128,-37,-9,3,15,43,72,82
1490655091076,3,18,-6,3,0,-4,-10,29,90,-88,-16,-4,-3,-17,-128,-73
1490655091113,-84,-49,-6,4,11,-3,3,-54,76,19,-7,1,-20,-11,-11,5
1490655091151,92,-10,-13,-15,-2,19,40,22,4,1,1,-6,-6,-18,-42,7
1490655091188,-82,-15,2,7,12,7,9,-14,42,20,4,-5,5,10,-18,-10
1490655091226,91,75,6,3,-18,-54,-58,53,-111,54,0,8,10,34,58,-8
1490655091263,38,-35,4,14,9,40,91,11,-72,31,1,-3,-10,-32,-2,1
1490655091301,64,96,10,-14,-22,-6,26,42,-2,-29,3,6,0,-11,-1,22
1490655091338,18,6,-12,-16,-9,-14,-82,-66,-31,42,3,-7,-8,-23,-7,4
1490655091376,-63,-83,-6,3,5,43,84,82,50,18,20,11,-7,-36,-46,-14
1490655091413,32,1,0,2,4,7,-16,-12,74,-9,-7,-10,-1,-7,2,34
1490655091451,20,-42,2,6,4,34,45,65,8,7,1,-1,3,-9,8,-24
1490655091489,-53,11,-1,-7,3,3,41,-11,33,-46,-3,-2,5,13,-29,0
1490655091526,-43,32,-6,12,13,16,8,-9,-17,-24,-9,-3,7,3,4,-10
1490655091563,18,1,-10,-7,0,1,7,-29,-92,-36,-7,16,12,21,34,2
1490655091638,90,20,7,3,-8,5,33,-9,-8,-29,1,-21,5,14,-51,-32
1490655091676,-61,-83,-11,-5,-7,-15,9,-40,10,15,-3,-1,-6,-18,5,-45
1490655091713,61,23,3,11,-2,-3,39,12,-20,22,10,13,10,4,-74,-18
1490655091751,32,12,-4,-15,-10,-1,8,24,51,8,-5,20,6,6,14,8
1490655091789,0,7,10,2,-3,-29,-22,5,-37,-1,-10,-5,-10,-28,-24,-33
1490655091826,29,23,-2,-9,-1,-10,14,15,-31,51,0,-11,-2,1,22,-22
1490655091863,-15,-61,-7,-2,-9,-7,-42,-26,-13,-108,-4,-6,-5,-17,-3,28
1490655091901,63,8,0,4,4,6,-35,5,-72,11,1,-1,4,5,-3,-18
1490655091938,-9,-6,-10,-14,-7,-17,23,-8,-21,30,7,31,5,16,9,16
1490655091976,51,79,22,13,0,-10,-5,17,-92,-45,-14,-10,4,8,8,-30
1490655092014,50,-32,5,16,3,-5,10,0,3,71,5,-5,-9,1,-1,-2
1490655092051,-48,-67,-6,-9,-1,-8,-27,-27,52,9,8,-3,-8,-11,3,10
1490655092088,16,-2,2,-5,-1,-5,-21,-2,-26,13,1,0,0,6,-12,0
1490655092126,45,-51,-8,-6,26,12,-1,35,8,39,-1,-4,12,-3,13,5
1490655092201,-27,19,7,5,-9,13,40,9,27,37,1,-7,0,4,-33,21
1490655092239,38,18,4,-1,-2,20,54,-1,-45,-16,0,-4,4,-21,-13,-8
1490655092276,-42,-16,-4,-7,0,-9,17,-16,-13,-31,2,3,4,0,-17,-5
1490655092314,-47,36,7,2,6,4,33,-13,76,-28,-2,2,4,2,11,26
1490655092351,-27,-109,-19,-7,-5,-34,-119,-56,59,82,8,6,17,35,51,43
1490655092388,116,-71,0,-4,-13,-16,23,41,-3,-98,0,6,-8,-33,-11,-20
1490655092426,-64,-7,3,10,3,16,-12,-10,-53,111,-1,-12,-2,22,64,20
1490655092463,34,-52,-10,-9,-11,-7,-31,-19,74,-25,-8,-7,2,12,13,-19
1490655092501,-38,37,9,-9,8,7,46,31,-81,6,3,15,-6,42,66,-26
1490655092538,48,-37,-1,4,8,20,20,4,-37,36,-28,-17,-15,9,-2,13
1490655092576,-108,68,-3,-14,-3,-26,-74,-29,108,-44,-2,-5,7,10,74,126
1490655092613,57,-55,-8,9,20,3,-56,7,-11,45,15,-10,-12,7,45,-10
1490655092651,1,28,18,16,19,7,29,-19,-32,-102,3,15,18,-12,-92,-49
1490655092688,-19,17,10,-4,-7,-38,-31,-18,-101,65,14,9,10,40,-6,-117
1490655092726,82,-2,3,18,19,77,17,-11,-97,12,5,-1,-25,-77,-33,53
1490655092801,86,-52,-27,-14,-15,-34,2,17,94,113,20,11,17,54,3,-14
1490655092838,83,-80,11,14,7,29,56,-3,-128,-55,-3,6,24,-8,-30,-75
1490655092876,-82,-55,7,8,22,38,-37,-89,51,81,1,-11,-7,5,-30,24
1490655092913,33,-18,24,11,-5,-42,-63,17,-10,77,7,0,-2,-3,16,-5
1490655092952,-6,-63,-1,5,10,-18,3,50,14,34,4,4,6,-14,-45,-75
1490655092988,-128,-36,-9,-14,-7,-10,-11,1,117,14,-5,-4,3,6,2,25
1490655093026,-57,-4,-2,-4,7,24,-8,22,69,-8,14,7,4,-17,-47,18
1490655093063,-16,62,5,-1,-1,-6,14,39,-4,-32,1,3,2,-3,0,8
1490655093101,-18,57,-6,-15,-7,-4,-4,24,-41,-54,-6,1,5,5,52,6
1490655093138,-16,-7,-7,-9,-5,-10,-10,-69,-78,-32,-5,0,-1,17,9,-97
1490655093176,40,-45,-1,3,0,-1,-37,41,44,-34,-5,-12,-14,2,4,64
1490655093214,-6,65,18,8,-3,-28,-42,-21,-60,6,-8,3,8,22,37,-29
1490655093251,-59,40,-5,-19,-12,-3,26,-33,21,58,7,-4,-4,-17,-11,-17
1490655093288,-15,-54,-19,-23,-6,8,-13,13,65,4,8,17,1,12,-5,-16
1490655093363,-5,-46,-10,4,4,-1,18,23,-2,49,-4,-4,-4,3,-12,-44
1490655093401,9,71,2,3,-10,15,19,-20,10,9,-2,-3,-7,-40,-102,34
1490655093439,-36,15,-6,-8,4,2,-23,-16,22,41,3,-11,-8,-8,5,-15
1490655093476,11,48,8,6,7,-10,-46,9,-38,-36,-7,-10,-3,6,-1,-24
1490655093513,44,74,16,17,10,10,24,13,34,7,-13,-6,-2,-7,-18,3
1490655093551,44,-40,2,7,-5,-16,18,20,-43,-14,-7,-7,6,20,-7,-26
1490655093589,43,-13,-5,-8,-7,-8,-20,4,-78,-23,10,8,10,0,32,9
1490655093626,-18,-8,-2,0,-7,2,-17,17,56,43,4,1,-2,13,-6,6
1490655093663,41,-52,-12,4,15,30,3,18,-35,31,10,22,3,-13,-44,11
1490655093701,46,6,0,3,-6,-8,0,-13,25,3,-3,1,4,4,19,-12
1490655093738,37,-13,-4,4,4,-12,-45,-12,8,-11,-3,-4,-3,-10,-6,-5
1490655093776,40,61,2,8,-5,1,25,30,-47,-15,-2,-7,-4,-20,-28,25
1490655093813,-39,25,-2,-5,-11,-10,-20,-38,78,-26,-1,3,-4,8,1,23
1490655093851,-8,24,3,-6,-6,28,76,3,-71,-2,-8,-7,-7,-21,-95,13
1490655093926,7,13,6,-7,-15,16,34,21,70,27,3,-3,-8,-21,-43,20
1490655093963,101,48,1,10,3,-18,1,29,-124,-2,13,-2,10,-4,-66,-54
1490655094001,-21,47,14,-4,-2,-29,-102,-25,86,-9,-8,9,2,33,78,58
1490655094040,122,-25,-17,-2,-3,4,73,45,-101,25,22,23,35,29,-85,-48
1490655094083,92,-15,-5,-12,-11,7,-75,-22,-128,4,14,4,5,-9,-17,2
1490655094114,-51,-42,16,-6,0,-2,-35,-85,-128,-52,-16,-9,-9,-21,2,-18
1490655094151,-46,-59,-14,-1,8,29,16,-44,-21,-3,-19,-9,-12,5,18,54
1490655094189,-32,10,-9,-9,-7,-47,-42,-8,-46,-39,-16,-8,7,-1,-5,-13
1490655094227,124,-86,-27,-12,-6,11,5,1,-106,-15,19,3,1,-20,32,38
1490655094264,-57,68,-7,-9,0,43,127,-12,127,-82,1,21,12,-41,-81,-6
1490655094301,-128,42,10,-9,19,5,2,-41,68,19,-19,-11,-19,-44,-7,60
1490655094338,69,20,11,2,3,54,89,-23,-18,-12,-3,-16,-5,-28,-1,79
1490655094376,63,38,1,-10,-2,-2,-29,-2,27,5,10,13,17,16,7,-123
1490655094413,-46,82,25,6,14,13,46,7,55,55,9,-13,-12,-34,6,35
1490655094451,-77,-41,-10,-6,-10,-16,-4,33,77,-33,4,-4,-7,31,48,103
1490655094526,55,30,7,5,19,-12,-27,16,21,-31,-9,-1,41,6,14,21
1490655094564,0,-3,-2,-5,-8,13,0,10,-16,19,11,14,-7,-3,26,9
1490655094601,-64,16,4,8,9,7,22,20,81,-53,-5,-4,-4,21,27,42
1490655094639,-10,-1,-8,-10,-2,5,44,25,-33,2,-8,8,-8,-21,-13,-48
1490655094676,-33,-44,-12,-4,4,-3,-25,-9,-6,42,1,-10,0,-6,-36,-17
1490655094714,0,-55,-5,3,-10,13,-33,-4,-26,-57,-10,-2,-6,9,18,3
1490655094751,8,-28,-10,-1,-4,-10,-39,-10,0,19,5,-6,1,0,15,-5
1490655094789,22,-32,-1,-7,-4,-12,7,5,-3,62,5,3,-2,11,-2,-3
1490655094826,-30,39,11,1,5,-7,-37,-29,13,10,5,-13,0,5,0,39
1490655094863,-73,-54,-4,-6,-6,-3,-10,-7,53,55,11,-5,-10,-3,5,-17
1490655094901,1,11,-9,13,0,11,21,-15,-44,-26,4,50,7,21,41,28
1490655094938,2,3,-2,1,-9,-14,-8,-30,5,-72,-5,-10,1,-18,-25,-17
1490655094976,-24,64,4,-16,-9,-24,12,14,-25,-100,-6,-26,-2,2,15,-1
1490655095015,-70,22,-5,3,-6,-15,-3,-19,26,10,-15,-2,-13,7,12,23
1490655095089,-23,-13,1,-7,8,10,18,-3,20,30,0,-14,3,-12,0,4
1490655095126,2,31,3,0,7,15,28,21,9,-19,-1,-11,-8,-7,-13,3
1490655095164,14,25,-4,-1,-3,8,15,8,-18,-14,5,14,9,-14,-38,-1
1490655095206,-21,30,-2,4,-9,-11,-22,-22,45,34,4,5,0,5,12,12
1490655095238,31,-39,-7,-2,2,4,5,3,-33,-42,-2,0,10,4,11,2
1490655095276,-23,8,3,0,3,8,-3,-10,-53,-27,-9,-3,4,3,-16,8
1490655095313,-8,-53,3,4,2,-13,-38,-6,-6,23,2,0,2,14,-11,0
1490655095351,-26,-19,-10,-5,-5,-5,-18,-16,62,15,1,4,-5,-3,-23,5
1490655095388,-14,17,3,0,-12,-15,-2,-29,-17,37,-8,-2,-7,6,-4,0
1490655095426,51,-67,-2,-3,1,-15,-44,-36,-81,66,17,-1,9,23,4,64
1490655095463,-98,121,9,17,-9,6,13,-9,-12,-52,-17,-25,-14,-29,15,25
1490655095501,-76,17,18,14,22,35,26,-21,88,-34,1,15,9,-13,-45,-20
1490655095538,45,-13,-8,-8,-7,-19,-17,68,-62,-9,-3,6,1,12,21,-81
1490655095576,-19,15,-5,-7,-14,-25,15,-29,18,-27,-26,-17,3,26,-16,76
1490655095652,59,-36,-11,1,0,11,17,55,-62,-45,-1,-8,-5,19,26,-60
1490655095690,20,49,8,-9,14,22,-4,86,-1,-5,2,11,11,-6,-23,-80
1490655095726,-128,60,8,26,25,13,7,-73,117,-19,-15,-13,-12,-11,-32,37
1490655095766,42,-83,-13,7,9,28,39,14,18,-73,-8,-4,-9,-71,-86,-74
1490655095801,-6,50,0,-14,-11,-3,4,1,17,56,-15,-21,-23,-20,-56,4
1490655095839,-123,24,-7,-6,12,-28,-83,-99,127,-36,4,-2,11,17,42,41
1490655095876,63,38,-15,-26,-9,19,24,13,-22,38,-9,-6,11,10,-22,-26
1490655095914,-70,-30,5,5,2,15,22,51,92,77,10,-11,-14,-12,-49,-40
1490655095951,-65,-81,9,-2,11,-7,-82,31,65,-15,-10,-19,-15,8,28,-62
1490655095989,-63,-75,13,6,23,-7,-80,-80,80,-38,17,0,-4,-6,35,65
1490655096026,-14,89,8,14,11,-4,34,80,-37,3,8,17,14,33,35,-13
1490655096064,-60,-55,-19,-2,7,3,-20,-76,-39,10,-10,-14,-10,11,69,66
1490655096101,18,-37,11,-1,0,-28,2,-45,98,36,21,6,21,38,27,69
1490655096138,11,47,8,0,-1,-44,-9,-1,-25,1,0,-1,16,23,-12,16
1490655096176,1,-50,-8,6,0,-14,-36,1,-87,1,4,9,7,2,-16,83
1490655096251,-22,-57,-2,9,-10,-12,27,7,-77,-24,-19,-8,-22,-31,-14,-43
1490655096290,-25,56,-7,-13,-8,-41,-58,-37,83,30,-5,-16,6,30,56,-15
1490655096326,-31,-3,0,3,17,42,23,-10,-19,-2,5,8,9,-25,-47,1
1490655096364,47,54,2,2,-7,-5,22,7,-41,2,-6,0,-1,1,-19,-13
1490655096401,30,69,15,9,9,6,3,32,-70,-26,-1,16,-1,-11,-11,-17
1490655096438,-61,-5,-7,-12,-17,-24,-2,-21,29,18,17,3,6,40,20,19
1490655096476,79,26,-7,2,4,-14,-54,19,-50,-11,-11,3,2,18,44,4
1490655096513,-64,-4,-10,1,3,11,1,-23,-51,-56,-3,8,-3,-8,32,-1
1490655096551,-6,-49,-8,0,-12,-8,12,-27,111,13,9,13,2,-5,-41,25
1490655096588,-4,-10,-8,-7,2,2,16,28,-40,-57,-16,-17,-8,-7,19,9
1490655096627,30,11,6,-5,0,-10,-9,0,0,-18,-3,-6,4,17,0,14
1490655096664,-23,40,6,4,0,-10,2,1,-6,36,-4,-14,-7,8,48,-28
1490655096701,-13,21,-5,0,2,8,-16,7,33,10,1,4,-8,-7,-34,6
1490655096739,-4,-59,-4,-3,3,2,19,22,45,38,-5,-3,2,-14,-9,6
1490655096814,20,92,16,13,2,16,37,9,-18,53,-5,4,-3,-3,15,23
1490655096851,20,-48,-12,-5,-4,-8,-43,2,32,-27,3,9,3,-2,-6,-5
1490655096889,27,43,1,-3,3,1,7,7,6,-30,-5,-6,2,2,1,21
1490655096926,-18,-18,-10,4,-1,3,21,-1,-2,-17,-3,13,5,-1,-13,11
1490655096963,-15,22,7,-4,-6,-5,-10,-13,-14,-37,-1,-4,4,22,10,3
1490655097001,-25,45,1,8,-1,-8,-23,12,-53,-10,-8,0,-9,-34,-39,-13
1490655097039,4,0,11,2,2,6,54,4,-3,-30,-23,-16,-10,-31,-65,-53
1490655097076,97,76,15,-5,14,14,14,42,-25,86,14,-4,-4,20,25,42
1490655097114,-51,47,7,10,-5,13,46,-68,122,-18,-11,5,-12,-57,-115,1
1490655097151,-77,-35,-19,-34,-11,-5,-2,-47,-37,13,-7,-8,-21,-36,-46,-12
1490655097188,5,43,13,16,13,21,9,-17,6,-49,-11,-6,-23,-7,-15,-6
1490655097226,1,-61,-9,-14,-16,-33,-61,18,-94,39,0,-9,0,28,8,-32
1490655097263,30,4,-17,-12,5,-12,40,0,36,-31,9,-11,20,34,44,-9
1490655097338,20,-14,-15,0,2,6,-7,-49,-115,-34,-6,-12,-9,-15,-77,40
1490655097339,6,67,13,15,8,22,16,-11,-4,30,-14,-14,-11,-16,46,5
1490655097414,-36,-77,-24,-16,-8,-45,-88,-41,-22,-29,-10,-11,-13,8,54,44
1490655097454,-7,-84,-2,-18,-2,29,4,10,26,-100,4,32,12,-24,-55,-44
1490655097489,56,32,-2,6,-17,-9,-20,-12,19,61,6,-8,-3,-13,-71,13
1490655097526,33,83,11,-5,-5,3,42,14,-54,78,9,15,3,5,-10,-2
1490655097563,-85,79,22,10,15,0,-30,37,14,-107,-32,-16,-18,-32,16,10
1490655097601,-70,-51,-10,-1,6,5,7,-28,3,-61,-12,-10,-25,-28,-18,28
1490655097643,26,48,14,7,1,8,-7,38,-108,10,-6,-3,8,4,27,18
1490655097676,-1,-46,-4,-9,5,-16,-59,-38,-25,30,13,8,-4,-8,-20,-15
1490655097714,-44,-20,-8,2,-2,27,42,-14,41,52,29,33,18,24,10,21
1490655097788,91,-30,-6,-20,-11,-12,-5,5,3,24,-11,-14,-15,3,-3,-24
1490655097825,21,16,17,19,-3,0,7,15,-46,5,0,-20,6,15,0,-19
1490655097826,-25,-32,0,-8,2,3,22,10,-12,-31,-6,1,3,-11,-29,-8
1490655097863,-25,5,1,9,3,5,17,-3,-6,-49,-14,-14,-14,-21,-49,0
1490655097901,-22,40,1,-2,3,12,8,8,48,-11,-8,1,-3,-7,14,-1
1490655097976,-58,-26,4,0,-10,-13,-15,-20,-52,2,-7,2,-2,-4,11,-3
1490655098014,-17,-29,-2,0,-8,-7,-23,-8,123,17,-1,-2,1,15,18,16
1490655098051,15,-21,6,31,-4,-10,-14,-18,-2,11,0,-11,-12,-4,0,8
1490655098088,47,-65,-8,-13,-14,14,27,10,37,35,10,5,-8,1,3,10
1490655098126,17,16,-13,-15,-7,-9,-13,-9,-54,16,9,22,-7,-2,-9,-22
1490655098164,-36,-42,-11,-4,0,4,17,-6,31,46,12,21,5,8,26,1
1490655098201,-103,-22,8,7,-3,1,20,-26,99,-4,-9,-4,-6,-13,-2,14
1490655098239,-13,-83,-11,1,1,8,-11,-8,-52,-57,-8,-16,-1,-13,14,-15
1490655098277,7,42,10,0,4,10,20,40,-37,-3,8,-3,7,2,-2,-40
1490655098314,10,40,1,-2,-2,-4,-27,-6,-28,-22,-8,5,-2,17,52,29
1490655098351,37,-49,-1,2,-5,-13,-17,0,-72,-33,-1,4,3,-12,-24,-6
1490655098389,10,66,13,16,-7,11,35,-5,-20,24,1,-7,-1,-15,-31,-14
1490655098426,-20,-39,-5,-7,-3,-8,-29,6,-22,-3,-4,-5,-10,-3,14,-5
1490655098463,15,-2,6,-10,5,18,35,6,-50,-39,-3,-3,-3,-9,-12,-10
1490655098539,30,69,5,1,7,-3,-15,-10,1,53,12,6,3,23,63,12
1490655098576,-46,-27,-4,-8,-5,3,20,-16,-28,23,1,-2,0,-1,-17,-18
1490655098615,12,24,-5,-5,-3,-13,-27,-14,2,-7,7,6,10,18,67,27
1490655098651,38,39,1,-1,-2,1,18,-25,20,-15,3,-1,-3,-28,-32,-11
1490655098688,-34,-92,-25,3,-7,25,68,21,-17,77,-7,-9,-23,-52,-72,-67
1490655098726,-77,-68,-9,-20,6,3,-25,33,77,-100,-6,21,-9,-26,-72,17
1490655098763,1,-83,-1,4,-5,7,26,-13,122,-4,-10,-15,0,3,45,37
1490655098801,-62,47,12,6,-4,-16,-16,-49,-25,22,3,32,19,6,-21,-45
1490655098838,127,83,9,13,15,16,-95,7,-100,-9,-3,-12,11,12,-23,-7
1490655098876,-75,20,4,-9,-5,6,56,3,127,-2,2,-1,17,34,34,24
1490655098913,-123,49,5,2,5,3,54,-48,127,66,2,-2,-2,5,-59,35
1490655098951,-46,-23,7,9,-8,6,75,92,-6,-32,-5,-7,-21,-16,13,-80
1490655098988,68,-13,-17,-1,14,-1,-70,-110,-72,14,0,1,-7,-26,26,3
1490655099026,-27,-100,-10,-8,-10,13,73,46,101,58,4,-8,-11,-33,-59,-83
1490655099063,-89,-103,-1,9,9,18,-45,-36,23,-128,-9,2,-4,-4,0,127
1490655099138,-46,-17,9,5,8,46,127,-77,127,-62,11,-2,-1,-94,-128,2
1490655099177,127,-71,-13,2,-9,-15,26,61,-123,11,-13,2,17,32,40,-44
1490655099214,33,-33,-1,6,8,21,-28,-56,103,-56,5,10,1,-7,-40,85
1490655099252,23,94,15,7,2,-14,36,38,-36,3,-42,-24,-21,-18,45,52
1490655099288,44,-33,-15,6,-8,-34,-25,-7,47,-59,1,0,5,13,-19,3
1490655099326,24,-29,-15,-2,-16,33,58,-56,74,110,23,34,26,-17,22,40
1490655099363,53,36,27,-20,-17,11,29,-2,25,-41,12,-10,-10,-36,-69,1
1490655099401,-47,28,-1,-7,2,-17,13,-2,8,73,16,19,21,5,93,2
1490655099475,56,-2,-3,3,-1,-21,-6,-15,-32,-92,-1,1,-5,2,-23,21
1490655099476,9,12,2,-9,-5,16,24,40,-13,3,-2,-8,-14,-26,-20,46
1490655099513,4,-1,-9,-1,2,7,13,-18,2,-20,11,34,12,-6,8,-53
1490655099551,-27,-7,1,-4,-14,12,8,12,-18,19,-3,-7,-6,4,-10,0
1490655099589,-60,0,2,7,1,3,-18,2,90,65,12,-3,3,30,35,9
1490655099626,-18,-97,-13,5,-1,30,21,32,-70,3,-6,-8,-5,30,9,-13
1490655099701,39,3,-2,2,1,-12,-52,-5,31,9,-6,6,3,23,23,12
1490655099738,-2,52,0,-10,6,10,13,-23,-4,-13,5,11,4,-19,-51,4
1490655099776,-13,-39,9,14,7,4,-24,-15,-10,-42,3,0,2,30,27,-10
1490655099813,-25,23,7,10,2,35,0,-10,48,1,5,6,4,-26,-33,-25
1490655099851,97,-46,-4,-10,0,-17,30,-3,-35,-5,-6,0,1,6,0,27
1490655099888,31,-13,-11,-43,-20,-15,-16,2,-8,12,-9,-21,0,3,15,6
1490655099926,5,109,-7,1,-8,-8,19,16,44,111,-10,-4,0,8,-5,19
1490655099963,-13,-11,-12,-1,-6,-1,15,-48,15,-73,3,-5,1,-15,-31,21
1490655100001,-7,61,-8,-14,-8,3,-30,13,45,10,-3,-12,-7,4,35,9
1490655100038,-33,-47,-20,-8,7,7,6,-16,-28,-9,-5,0,-5,-8,-9,-36
1490655100076,112,-38,-1,3,9,17,22,50,-43,-33,3,-5,7,15,21,-40
1490655100113,-23,-102,0,2,2,-8,-15,13,-7,33,-7,-5,-10,-21,-38,-1
1490655100151,-1,9,-4,14,0,18,50,-6,-26,1,-2,1,-5,-14,-34,2
1490655100189,13,35,5,-5,1,11,22,-20,-13,26,9,-5,-4,-8,-18,34
1490655100264,19,-60,-2,-6,-7,-2,1,-19,54,70,-2,-7,5,12,8,24
1490655100301,123,14,8,-13,-7,-1,-17,54,-128,-49,-9,-25,-3,7,41,-37
1490655100412,56,2,7,11,13,-2,-5,18,-50,117,5,2,1,6,18,-1
1490655100413,-13,30,-6,-12,-7,2,-31,-26,-12,-5,-9,0,3,-8,40,21
1490655100415,-70,17,11,-38,31,10,38,-18,81,-19,3,-85,-37,-3,9,28
1490655100451,73,-51,-11,31,-1,35,61,28,-70,20,10,34,-9,-48,-85,8
1490655100488,-23,-34,4,24,2,18,28,11,41,-37,-6,4,14,-14,-3,16
1490655100526,-25,-87,5,5,10,5,10,9,8,-57,10,31,30,51,87,-31
1490655100563,36,26,9,-3,-2,-30,-5,40,-111,35,35,17,-3,-2,32,-56
1490655100601,-52,-83,14,10,6,-27,-52,-48,46,-96,-34,2,-6,-1,37,17
1490655100638,-36,59,-5,11,12,-15,-87,-33,46,127,23,24,4,5,10,17
1490655100676,0,39,16,-5,-3,-3,26,9,-115,100,-4,-10,10,30,17,-32
1490655100713,25,34,9,38,-13,13,-21,28,66,11,5,-22,-7,10,14,15
1490655100752,-38,56,-29,-34,7,-2,26,-7,95,21,45,19,3,-3,-18,11
1490655100789,38,-86,-9,-32,8,11,23,-26,-59,20,12,55,-21,-17,22,37
1490655100864,-48,44,-1,8,-29,-1,12,17,91,-104,-14,5,-4,-11,-8,-7
1490655100901,46,26,20,73,0,-3,7,15,-74,14,-8,31,-1,-17,-22,-27
1490655100939,75,41,-12,-24,8,5,-12,-25,0,8,19,-5,21,35,-1,-9
1490655100976,-102,-71,-6,-13,2,-13,-8,-24,-28,17,-8,-37,9,19,28,23
1490655101013,26,-2,18,-31,-14,2,7,25,8,3,-10,-81,-18,-18,-1,-11
1490655101051,2,32,-1,4,-5,-3,-21,3,-54,-28,0,30,-9,0,-24,2
1490655101091,19,68,-1,-3,-5,-1,-5,3,17,26,-19,-20,-1,-20,1,-7
1490655101126,-41,-50,0,-17,10,9,10,-4,17,-44,15,-9,2,8,25,-8
1490655101163,-17,-7,-7,-19,11,-3,-8,-7,-48,12,-5,-25,-2,2,1,7
1490655101202,64,16,-5,-6,1,-8,-14,-11,25,-34,2,15,12,-4,-3,27
1490655101238,-60,89,-12,-18,-7,-20,-17,-31,12,-28,14,14,6,-7,-40,4
1490655101276,73,8,8,-4,5,3,0,6,-38,9,-5,-11,6,6,-4,-11
1490655101313,32,-47,4,6,7,-5,-2,-8,9,71,1,-16,-13,0,25,4
1490655101351,-84,3,0,4,-3,5,-1,17,73,-11,13,7,12,1,-2,-1
1490655101426,-60,-59,7,-1,-8,4,-13,-35,43,35,-9,0,-21,-8,15,13
1490655101465,-77,2,3,6,8,-6,-27,-51,-55,-44,5,-8,6,24,50,13
1490655101501,-8,10,-1,24,-5,12,39,3,-7,44,9,4,-11,-14,-32,-3
1490655101538,2,-3,2,-1,5,9,27,26,100,-7,9,13,9,-2,-9,8
1490655101613,15,3,-6,14,2,-3,-28,-31,60,-3,-5,-2,2,6,18,27
1490655101615,33,-10,-5,-21,-7,-12,-30,-5,20,0,6,17,-4,3,1,22
1490655101651,-46,-65,3,16,-4,3,30,8,77,-7,-6,-9,-2,-10,-26,9
1490655101689,-10,-4,-11,-2,7,10,19,22,12,-7,8,-1,3,5,-4,3
1490655101726,48,6,6,5,-3,-6,-1,-34,-14,-19,-2,4,0,4,-2,26
1490655101763,-20,-1,0,0,0,-2,8,8,-63,-13,-8,3,1,3,3,-28
1490655101801,6,-29,1,-4,-4,-3,-16,5,17,-7,2,3,2,4,-9,0
1490655101838,43,-34,-1,2,6,6,16,11,22,18,-5,-3,0,-6,-8,10
1490655101877,10,-17,-4,-9,3,4,9,-11,-9,-15,-1,3,10,5,29,28
1490655101913,-38,23,2,-1,-1,4,6,-15,-43,-13,4,-2,-4,5,19,-18
1490655101951,1,-20,2,-4,-11,-5,1,22,17,-63,-9,1,-8,-6,-12,-7
1490655102026,26,24,0,-23,-17,-14,-9,7,24,31,12,4,-4,-12,-8,12
1490655102064,18,20,3,17,2,-5,-2,-16,-68,-6,9,16,19,8,9,-1
1490655102101,40,32,-10,-7,18,26,13,67,-15,96,5,8,-6,4,19,-49
1490655102138,-128,-99,-26,-23,-4,-5,-21,-78,-31,32,10,-18,-29,6,32,11
1490655102176,-1,-69,11,9,3,-5,-16,-25,5,32,3,-5,15,-11,-23,31
1490655102213,40,53,-4,-10,-9,-18,-50,-16,-85,4,0,-13,-8,-26,-18,16
1490655102251,-36,-40,0,1,-7,11,12,-18,59,6,-3,0,5,40,86,6
1490655102288,-20,-23,-7,6,0,-3,-20,-23,-56,-91,-13,-9,-13,-10,-43,-24
1490655102326,-87,-46,3,5,-9,-20,4,-16,33,84,-3,-5,-15,-3,12,6
1490655102363,117,36,-5,2,5,4,-12,13,-117,6,-5,-14,-2,-18,-41,-19
1490655102401,37,7,3,-7,-8,-24,-37,-28,-31,-54,-30,-7,-9,-28,-36,-2
1490655102439,-65,101,17,6,-9,3,10,-5,-16,54,20,-4,4,3,11,-1
1490655102476,47,-46,-3,9,-12,-62,-23,12,-59,-92,9,17,18,48,-5,-60
1490655102514,-70,-25,23,24,24,-21,32,35,14,119,-22,-30,2,-5,6,61
1490655102589,-91,-61,0,-45,-59,-62,-81,-21,71,-85,-18,13,43,70,113,71
1490655102626,87,27,-3,1,-2,101,92,-29,-71,0,5,3,-75,-128,-80,-79
1490655102663,-74,-39,6,17,21,22,-6,-55,-2,63,26,20,17,-32,-6,3
1490655102701,-85,-24,26,2,10,-2,81,-21,8,2,-20,3,30,48,-97,34
1490655102739,-106,-38,-17,19,21,47,80,-51,3,27,14,11,15,-15,-28,-70
1490655102776,20,-10,-4,5,26,106,22,-5,-37,-29,-36,-8,-2,-48,-19,11
1490655102813,-89,-39,-8,26,-4,-5,-11,-42,61,59,30,26,18,30,36,56
1490655102851,-23,20,9,-7,-14,-5,-1,-42,35,-14,10,5,8,27,-15,3
1490655102888,-16,67,0,-5,-6,-11,-30,-13,-77,-25,-1,6,-15,-26,80,-22
1490655102926,96,-26,-12,1,8,43,29,11,-23,56,9,-1,-19,-76,-59,3
1490655102963,28,59,-1,17,-3,2,46,15,-34,-50,-8,-13,-1,13,-48,-2
1490655103002,11,-44,-15,-10,-3,-20,-61,-17,-27,-7,-5,-3,0,21,35,17
1490655103039,-12,13,4,14,9,-3,-48,-3,72,-13,-21,-25,-15,-23,-22,17
1490655103076,-23,15,3,-1,-5,-25,-8,-9,-19,49,-1,-3,1,7,24,-10
1490655103113,-24,15,1,5,1,0,-20,16,-43,-7,2,-2,4,14,16,1
1490655103188,-25,87,11,2,6,7,9,4,17,5,-11,1,0,-11,-18,-9
1490655103226,41,-34,4,2,8,-2,-16,8,40,-23,0,1,3,-4,-12,-23
1490655103264,0,-85,-14,4,5,8,15,0,38,4,7,-13,-14,11,-5,3
1490655103302,69,27,1,-16,-3,-2,-13,-12,-16,-32,-5,8,17,14,26,26
1490655103339,-6,5,-15,-2,0,-2,-13,4,-20,65,-8,-1,-3,4,2,-10
1490655103376,-28,-45,-10,1,-1,3,-6,-22,8,66,-11,-13,-14,-11,-8,-15
1490655103413,11,6,4,-2,-5,-23,-64,-11,-71,20,0,-2,-4,12,43,-2
1490655103451,67,19,-7,-18,-8,-18,-5,-14,32,-22,0,7,4,-10,-26,13
1490655103488,39,-20,-14,-9,-2,9,21,9,5,-30,-3,8,7,16,-62,-4
1490655103526,9,-101,-13,-28,-13,17,28,18,-78,-108,7,23,-14,-23,-13,-28
1490655103563,-50,-25,-10,15,9,3,-8,15,32,20,-1,-4,-8,-11,5,-1
1490655103601,0,-11,1,-5,-1,-17,-13,-2,-7,23,6,9,8,5,26,-8
1490655103650,14,-6,-7,6,-1,-2,15,-6,31,-9,-4,0,0,3,3,10
1490655103677,-31,-46,0,-5,-5,-5,-4,-2,3,-23,4,21,-5,1,12,4
1490655103751,35,23,13,10,-7,-10,-5,-1,-25,-17,-11,-17,-3,-14,-23,-8
1490655103788,9,11,-8,-6,-2,14,10,10,13,-14,3,-5,3,2,1,-10
1490655103826,23,17,-1,3,9,4,14,7,9,14,10,9,5,19,17,6
1490655103863,-7,4,-8,-9,-8,-1,17,4,-27,37,-4,26,-2,-8,-51,-15
1490655103902,-46,13,5,8,-1,-11,-20,-12,83,11,4,-16,6,-2,-14,1
1490655103939,1,-38,-1,-11,-1,29,28,34,-2,26,17,-3,1,14,9,-7
1490655103976,7,-13,-1,2,-5,-23,-34,38,-18,50,-10,-31,-7,7,14,-21
1490655104013,-97,10,-13,-3,11,-16,-41,-43,5,-128,-6,44,17,32,-1,10
1490655104051,-16,0,12,-27,7,4,-17,-8,-11,-47,1,17,-4,3,45,16
1490655104088,2,64,4,-25,-35,-51,-31,-58,62,17,32,16,14,27,25,22
1490655104126,-68,-24,20,15,16,1,3,-27,-76,-10,-5,5,-7,-16,-7,-18
1490655104163,-46,-23,0,-2,-23,-21,-24,-38,45,-3,-4,16,14,13,37,36
1490655104201,94,-19,2,11,14,33,-4,45,68,85,23,31,-3,12,1,77
1490655104238,69,17,-11,1,-8,-5,49,13,105,-128,-51,-36,-19,37,10,6
1490655104313,68,5,26,20,5,-1,-20,8,-47,-82,18,12,20,-18,-106,-13
1490655104351,-98,-2,1,-2,3,69,-42,-38,79,26,14,7,4,-61,-64,22
1490655104389,-65,63,32,22,2,29,15,-51,-102,81,8,-4,6,-15,23,-28
1490655104426,96,-57,-6,9,7,-36,-66,38,-2,27,-3,-16,-26,22,37,-40
1490655104463,-60,-54,-8,-1,0,1,40,25,113,52,16,3,-7,8,-20,62
1490655104501,127,34,5,-10,-13,-19,-61,-6,-119,-74,-1,11,3,5,36,31
1490655104538,-30,43,14,8,-8,-61,-51,19,-96,-31,-10,9,11,15,36,-62
1490655104576,52,-128,12,11,14,30,6,-40,11,-30,9,16,12,-20,13,32
1490655104614,-56,84,4,5,-3,26,103,17,23,-54,-4,-15,-9,-19,-117,-8
1490655104651,-78,-41,-9,5,18,11,4,-2,68,81,5,-9,-5,-10,13,11
1490655104688,74,40,-2,3,3,-6,-19,-11,-95,53,15,1,10,25,-63,-6
1490655104727,-53,-71,-17,1,-3,23,49,14,73,20,7,1,0,-45,-30,23
1490655104764,54,-31,17,5,-12,1,-1,-3,-16,-29,9,10,-1,-13,-48,-14
1490655104801,29,6,5,4,7,13,-4,-30,23,-18,5,3,-13,-46,-2,5
1490655104839,12,-13,4,13,9,8,3,15,-9,73,-10,-12,-19,1,22,4
1490655104914,24,-4,-10,-4,12,40,13,31,-69,-6,9,18,1,3,13,-17
1490655104952,64,64,-17,-18,-15,0,34,12,-21,1,8,7,13,8,-12,2
1490655104989,-32,-14,0,16,0,-4,-23,-24,-3,4,2,-1,2,-16,-9,7
1490655105026,-111,20,-1,-10,-2,15,33,-29,108,-20,-2,-2,-3,-21,-46,13
1490655105063,-1,-42,2,5,6,3,12,24,26,4,5,1,2,1,-25,1
1490655105138,21,-53,-2,18,11,-10,-15,-6,-6,-8,3,-4,4,8,-5,-5
1490655105140,-37,-2,-5,1,0,16,15,21,-46,-112,-13,-12,-9,-3,1,-53
1490655105177,-26,-15,-3,3,4,-1,15,-16,79,-34,2,4,-7,10,45,27
1490655105214,-17,-59,-1,2,2,4,-5,-2,-38,12,-2,3,14,8,0,-2
1490655105251,21,10,-5,14,-5,0,2,21,-71,-37,1,5,-1,-17,-39,-50
1490655105289,-18,4,-4,-17,-7,-10,-7,-27,-67,18,-4,-10,-9,-10,-7,5
1490655105326,6,-30,-4,-20,-2,-1,-4,-10,31,-25,2,3,5,12,-1,-32
1490655105363,18,-53,-2,4,1,-4,8,29,-8,31,1,-12,-6,-8,-29,-16
1490655105438,9,-32,2,0,-7,-10,-5,-6,8,-15,-4,13,2,-11,-13,12
1490655105477,-7,9,4,-3,4,6,21,-7,16,-42,-6,-4,-9,4,24,0
1490655105513,27,8,-3,-6,4,5,7,3,25,41,3,10,5,4,15,10
1490655105551,-39,-23,1,8,-3,-4,3,1,55,57,-1,-11,7,4,2,1
1490655105588,-6,-32,3,7,5,-3,24,14,18,-13,6,12,-6,-26,-21,-17
1490655105626,-44,-3,0,5,0,-12,-12,-6,7,30,-3,-6,-8,-13,-11,-2
1490655105663,-25,-25,5,16,-2,-5,-7,-29,1,0,7,-11,1,4,18,-4
1490655105701,17,-15,-6,-4,0,-8,13,-13,-19,72,11,3,-2,4,-7,35
1490655105738,-47,-27,5,13,22,22,41,21,-26,-77,-26,-15,-22,-27,19,-41
1490655105778,-55,-62,-12,-24,13,34,17,30,81,-7,3,4,-2,-7,-19,-3
1490655105813,15,-37,-11,-8,0,-11,-7,-18,57,15,6,22,15,0,36,59
1490655105856,-72,19,5,0,7,20,38,-13,66,69,29,18,10,-36,-111,-29
1490655105889,78,17,-5,-2,-8,-2,34,57,-75,67,7,-9,8,-1,-21,-29
1490655105926,-7,34,-3,10,-7,-10,-14,25,93,-49,-3,3,8,5,0,11
1490655105965,2,19,2,-7,2,9,29,-34,-8,13,0,-1,-7,-13,-42,-2
1490655106038,-128,-75,-14,2,-13,-58,-69,-27,71,-27,-2,4,2,44,93,-72
1490655106076,59,24,15,9,4,-38,39,101,-21,-6,-10,-8,-12,3,-84,-8
1490655106113,-73,119,2,-9,-8,-31,-6,-93,115,21,-6,0,-2,2,-20,63
1490655106151,-128,-128,-24,-15,-14,-35,-80,2,50,90,26,8,8,0,-26,-43
1490655106189,82,-47,8,-8,-5,-22,-7,-44,-74,12,8,-5,-1,-15,-94,-23
1490655106226,-26,-51,16,28,24,4,-24,-107,-126,-62,-10,-15,-23,-51,21,13
1490655106263,50,24,-11,-7,-10,77,127,51,73,-43,4,17,29,7,-124,-23
1490655106301,-111,44,0,-5,-7,-4,-18,-56,43,-81,-26,-7,-7,-26,9,19
1490655106338,14,-11,-15,-10,-14,-93,-58,-70,-30,54,2,-7,1,57,42,17
1490655106376,-99,-42,-3,2,13,69,60,73,50,49,9,-8,-7,-3,-101,-13
1490655106413,38,-41,15,15,-6,-48,-49,5,-63,-72,-5,1,2,9,-5,-99
1490655106451,85,86,16,-5,-6,-52,71,20,11,-53,8,4,12,-8,-56,62
1490655106489,65,-15,-6,-4,-14,-12,-11,55,-9,-120,-25,-14,-3,-21,-24,-32
1490655106526,-19,34,3,3,5,38,4,-19,17,-38,-20,-19,-16,-38,-43,22
1490655106563,-55,4,3,-9,-13,-26,13,-14,-28,-91,-10,13,7,27,29,-93
1490655106638,-29,-44,-13,-5,7,21,47,3,36,16,13,-4,2,-9,14,5
1490655106676,-62,-48,-6,5,0,-13,-24,-35,28,-17,-2,-1,-3,6,46,9
1490655106713,30,20,2,2,4,24,35,0,28,31,7,0,-3,10,-22,38
1490655106751,60,-34,4,5,7,5,18,-30,-9,33,4,14,3,-10,13,-2
1490655106788,-9,57,7,-1,-6,-17,-58,-11,-9,6,-5,-9,2,11,48,-3
1490655106826,-2,-24,4,9,7,-9,-66,20,-19,61,-6,-10,-12,-3,30,10
1490655106864,48,0,9,3,-1,-30,-8,2,-12,-1,7,8,11,8,25,26
1490655106938,-1,-20,-2,0,-5,6,33,-1,-22,-56,-13,-12,7,1,-41,-13
1490655106940,-18,-70,-11,-13,-6,2,4,31,50,-67,15,29,10,1,10,11
1490655106976,-51,-9,2,-9,-3,6,-20,-36,18,-4,-1,-8,-2,-25,-43,8
1490655107013,45,-87,-4,-14,1,4,8,5,60,60,13,-5,-2,17,17,2
1490655107051,-30,79,4,-8,3,8,1,-39,-14,-28,-11,-3,10,33,32,17
1490655107088,79,-4,1,42,23,41,29,14,-75,79,1,-5,-11,-5,4,9
1490655107126,-4,-8,2,-5,-5,-13,-1,17,9,2,-9,-4,-6,-9,-4,8
1490655107201,-22,-27,-4,-22,-5,-16,-42,-6,-13,33,24,25,13,21,15,5
1490655107240,-128,-6,-7,-7,4,2,-10,-34,-56,12,1,-4,-2,2,5,-13
1490655107276,46,-34,-8,-16,-4,-1,-6,8,12,-23,0,14,-6,-6,43,18
1490655107313,-16,5,-8,-11,-13,-13,-5,-3,14,7,3,-7,-2,0,4,7
1490655107351,35,1,1,9,8,4,10,22,-37,-8,-14,0,-5,-3,-7,-34
1490655107388,7,2,-3,-9,0,-12,8,23,-47,-61,-2,2,7,10,52,-27
1490655107426,11,7,-4,1,1,-7,58,-23,90,-19,-7,7,16,10,23,59
1490655107464,55,38,10,2,-3,-4,33,-21,-50,-60,-15,1,17,14,30,81
1490655107501,-44,-112,5,18,2,-10,-28,10,-128,-2,-27,-5,-16,-24,-18,-89
1490655107539,-13,-62,-7,12,6,26,25,-3,-111,-128,-22,-43,15,10,49,-67
1490655107577,36,-39,-5,50,38,39,77,-109,-128,-73,19,-7,-24,-44,-128,-37
1490655107613,45,119,6,-51,-17,9,8,95,-73,37,0,15,22,4,-41,-37
1490655107650,8,-29,10,-10,-1,43,55,-2,97,-23,7,-2,-6,-22,-14,58
1490655107688,80,-29,3,-9,11,-6,-39,8,-90,-51,9,18,7,7,-3,33
1490655107726,14,50,2,9,11,22,8,38,-104,-66,-14,-39,-31,-50,-66,-32
1490655107801,-106,15,-4,-15,-1,36,92,11,93,-12,10,6,-11,0,34,-7
1490655107838,45,36,-18,9,25,104,68,-86,-52,-66,-4,-5,-9,30,10,-31
1490655107876,-54,5,10,-6,-4,15,27,4,52,30,7,12,-18,-64,-43,-55
1490655107913,29,39,-27,-47,-27,-37,-39,49,-5,9,-62,-27,-27,-18,-24,-3
1490655107952,108,-45,-5,6,-13,-49,-36,6,-128,-62,-17,-4,1,31,85,0
1490655107989,0,49,29,15,15,-11,-60,-93,-51,-31,-19,-14,-4,-18,-48,-16
1490655108026,16,20,4,-20,-16,-13,-20,-27,-44,-120,-19,-23,-25,-46,-71,-12
1490655108063,97,-6,-24,-2,8,5,-23,60,61,87,0,-28,-1,-2,-10,-66
1490655108101,73,16,39,27,24,47,85,21,-52,-20,-38,-17,-18,-52,31,5
1490655108138,6,-44,14,24,5,-2,-40,-15,-32,45,25,13,9,40,49,-3
1490655108176,94,51,-22,-8,7,-13,-14,70,11,-30,20,28,3,13,11,11
1490655108213,29,-5,2,1,-13,-3,-2,-43,25,-30,1,13,1,-11,24,-6
1490655108250,97,58,-7,-11,1,42,-1,-32,-63,-115,4,5,14,9,-26,29
1490655108288,-128,-25,-21,-4,-1,-8,25,-28,127,-4,14,8,-3,5,20,21
1490655108400,-34,-57,-8,-7,-2,-7,-14,-23,-46,-8,13,11,13,9,28,1
1490655108401,-18,44,5,-6,-3,-8,-6,-12,58,34,-1,3,-2,7,68,18
1490655108438,62,-57,-2,-1,-3,11,-30,34,70,45,-4,5,-1,4,-39,-6
1490655108476,-20,-59,-6,-1,6,4,11,8,-128,21,-2,-10,0,11,28,8
1490655108514,99,-42,-17,-3,-9,-13,-11,12,-66,61,9,2,-1,-12,-19,-33
1490655108551,-73,-72,-5,12,2,-4,30,-20,71,-12,-5,-6,-4,7,18,16
1490655108588,-44,-37,-3,2,-23,-22,-16,-43,-55,-86,-2,-3,7,21,4,-31
1490655108626,-95,-35,-3,-5,2,11,25,-8,124,87,16,12,0,0,-8,22
1490655108664,-62,-24,-13,1,-1,-12,-33,-53,-66,-21,-8,-14,-8,4,36,2
1490655108701,-88,33,-2,-11,-7,-14,-17,0,-20,61,14,4,-10,6,16,1
1490655108739,-16,8,7,20,-5,8,14,39,-30,-30,-18,-41,-16,-14,-8,-29
1490655108776,24,52,-6,8,6,19,32,22,-62,-60,-5,-1,-7,-12,-26,3
1490655108813,29,3,3,-17,-8,1,-23,-5,41,43,-7,-2,-1,-31,-14,-11
1490655108851,-43,0,-1,-26,7,-11,-25,-8,-94,-30,-1,-10,1,-8,-11,-30
1490655108926,6,-14,6,26,-2,1,16,-26,-55,14,-8,-27,-15,2,18,28
1490655108963,-23,-62,-9,-12,-5,17,-1,-13,-14,-14,-11,6,4,-5,-2,-18
1490655109001,-57,-74,3,14,-3,1,-2,1,39,26,14,16,0,-2,-4,-14
1490655109039,2,60,5,1,-1,5,-15,12,-48,7,-7,-19,-14,-8,-4,-13
1490655109076,29,7,6,6,2,-2,0,-1,-35,-55,2,-2,13,19,25,-11
1490655109114,2,-64,-17,-11,-5,-6,-20,-17,127,64,7,-10,0,-3,-6,30
1490655109151,-55,-32,3,-10,-5,11,29,-19,91,-31,-1,6,7,9,-27,1
1490655109188,-117,-54,-11,-8,-3,10,20,62,-53,100,26,13,26,31,-23,-44
1490655109226,70,25,-7,-15,-2,44,0,-69,-36,61,27,4,-2,-12,-1,79
1490655109263,-124,-78,-24,-24,-28,-60,-71,-22,-60,-38,12,7,-4,-11,2,-19
1490655109301,76,54,10,2,14,4,-35,-9,-52,-30,-2,-9,-2,55,123,17
1490655109338,-18,28,-15,-3,-2,35,68,-19,19,3,4,-2,-18,-37,-119,4
1490655109376,69,53,24,15,29,40,-12,-7,73,-55,2,14,3,-12,-2,45
1490655109414,-86,46,6,1,-8,3,17,-18,64,-32,-7,6,13,-2,-25,4
1490655109451,105,-61,22,23,10,13,68,21,-17,-91,-6,-8,-9,2,66,16
1490655109526,50,-76,-1,7,-3,-12,-63,-13,49,-56,-13,-9,-6,-28,-28,20
1490655109563,-80,-113,27,6,4,-31,-40,-35,90,-56,6,5,5,18,-88,21
1490655109601,-91,-53,-22,-11,-3,-11,-27,-40,-98,6,-6,-25,-7,-18,-17,-75
1490655109638,-28,2,-30,-32,-12,2,-25,-76,48,-32,-7,-3,-13,15,77,50
1490655109676,49,-12,8,11,12,-2,-75,22,63,32,-4,-10,1,65,103,30
1490655109713,-46,91,-17,-8,-18,27,27,-54,47,2,12,24,-11,-21,62,64
1490655109751,34,87,50,19,38,43,-16,-113,4,-73,14,16,-6,-91,0,66
1490655109788,82,-11,43,8,-15,-61,24,39,14,-107,-45,-31,0,127,48,-21
1490655109826,-13,4,-5,-8,4,41,47,-45,-85,11,-7,12,4,-3,-23,49
1490655109863,20,73,17,-14,-4,10,-30,8,18,-65,4,4,-21,-69,-28,13
1490655109901,-88,47,-7,-6,-15,-51,-40,-13,3,-23,-5,-1,5,-22,4,-4
1490655109938,53,-8,21,6,-6,1,19,19,1,-39,-17,-25,-6,13,-9,9
1490655109977,-49,-124,-20,-8,-2,-1,-8,-11,-3,64,1,-18,-12,-10,-31,-33
1490655110013,76,-8,-8,10,5,22,18,-11,-102,-8,10,13,8,-5,31,-10
1490655110088,-50,-53,-22,-25,-15,-36,-50,-57,58,66,8,1,4,13,-3,25
1490655110126,-24,59,-1,2,1,-17,-31,-13,18,-43,-3,9,1,-18,-11,2
1490655110200,18,50,-9,-2,-1,-12,-6,-8,48,-70,-11,2,10,-4,12,28
1490655110201,-75,-2,-4,-2,-6,-31,-23,-26,61,19,-1,-9,13,83,76,18
1490655110238,22,1,19,0,-18,-100,-50,6,-25,-16,-3,-4,25,65,-19,3
1490655110276,70,76,12,10,7,9,-2,9,-28,18,-11,-24,-4,-13,-70,-14
1490655110313,78,-36,-22,-32,-10,9,-15,10,23,35,4,22,-14,11,18,-16
1490655110351,-17,6,-6,4,5,1,-11,0,21,-64,-1,-7,-11,21,16,0
1490655110388,108,-20,-12,-12,-9,21,65,4,15,-24,-5,2,-3,12,-2,6
1490655110427,15,-11,-1,2,-10,-15,-37,2,-34,44,-11,-24,5,26,46,9
1490655110463,77,-19,2,11,6,-8,-21,-3,-11,-41,-4,-23,-7,4,10,-58
1490655110501,3,-5,-9,-10,3,16,5,2,17,28,13,20,-8,-15,-28,-12
1490655110539,-34,-11,-1,-3,0,-10,11,-7,-32,-16,-9,-6,-2,3,-11,-21
1490655110575,86,66,-1,-6,-3,-12,-72,3,26,-34,1,3,-4,21,27,5
1490655110613,-15,-25,-4,8,6,1,26,0,-24,2,-4,5,-2,-14,-11,9
1490655110688,16,15,0,6,-1,-8,-27,43,-7,14,-5,-5,-9,-9,33,6
1490655110725,-57,-8,-2,-4,-3,8,2,-8,27,54,-3,-14,0,7,-6,9
1490655110763,55,22,7,2,0,-10,-32,3,-52,22,-9,3,-6,20,34,8
1490655110801,-21,4,4,0,-3,12,31,6,-3,-33,-2,2,-7,-14,-15,-11
1490655110838,-23,-2,4,-9,2,0,-6,-4,41,-69,-3,6,4,4,29,16
1490655110876,-16,10,2,2,-5,-16,1,-35,53,5,9,20,7,10,-4,23
1490655110914,31,-5,-3,-7,-11,-9,-14,-23,-38,-10,-5,-16,-5,4,3,-26
1490655110951,-22,15,-3,1,-3,10,23,10,11,-5,-7,-5,2,0,15,-7
1490655110988,-52,-15,0,8,10,13,0,-9,-16,0,2,3,1,5,14,30
1490655111026,-49,-1,-8,-16,-9,-9,-3,-18,37,21,10,8,4,0,7,14
1490655111063,-13,-32,-3,-4,4,1,6,14,20,4,-8,-11,-9,-16,-13,-5
1490655111101,76,18,-7,7,7,6,-4,-22,-102,0,33,36,0,6,6,0
1490655111138,-29,-12,8,4,-6,-16,6,17,50,77,0,-8,-6,8,8,32
1490655111176,24,-6,-8,-7,1,-8,-1,5,6,6,-8,21,9,-7,0,10
1490655111252,118,54,-2,24,2,14,4,17,-67,-35,-22,-15,-4,-2,-3,-10
1490655111288,2,-22,-3,-9,5,-8,-8,-14,25,11,0,18,10,-1,-3,9
1490655111325,28,-11,0,-11,0,5,12,1,1,-20,4,70,-14,-6,-4,2
1490655111363,-27,-29,-21,-15,-7,-12,-16,0,17,-1,-10,-9,0,-2,0,10
1490655111401,-44,-7,-1,-8,8,-1,-4,-11,58,30,7,16,6,-2,12,13
1490655111438,2,-24,0,-6,-1,-15,-8,0,37,-2,4,17,6,-13,-14,2
1490655111476,-15,17,6,4,-7,6,2,3,-43,-14,-31,-22,-4,-2,-7,-6
1490655111514,-25,-4,-2,-6,1,-2,-2,-9,-16,-32,-8,-12,0,6,-1,-4
1490655111551,-6,-33,-14,-9,-2,-10,-7,10,8,-3,7,-7,-9,-13,0,0
1490655111588,-5,-84,-18,-1,-7,-1,-1,8,2,-110,16,5,-6,-3,6,-3
1490655111662,0,121,-20,-5,-5,-15,7,11,1,127,-3,-7,4,-9,-7,-9
1490655111663,6,36,-25,-10,-5,-9,-2,-2,-3,21,-10,-11,-9,-17,-7,-6
1490655111700,-5,-36,53,-5,-3,-5,-3,2,5,-5,-59,-17,-9,5,5,-3
1490655111738,-2,-17,-42,-8,-10,-9,3,-4,-1,3,43,18,19,21,7,1
1490655111813,2,6,-53,8,8,20,1,0,-3,-21,-3,-3,3,1,-6,-1
1490655111851,-1,-2,60,12,7,-1,5,-1,-2,-23,-20,7,4,-5,-8,-5
1490655111888,-2,-7,-14,5,0,-11,6,3,0,20,64,-6,2,-6,9,0
1490655111926,2,13,25,11,6,9,-4,-7,-2,-4,-49,-5,4,-3,2,-6
1490655111963,-6,3,-4,-4,5,6,5,-3,-6,-2,-23,1,6,6,-2,-1
1490655112001,1,9,-3,2,-1,3,1,1,-1,-13,-27,-3,2,4,0,-8
1490655112038,0,-10,-60,3,5,3,-2,-6,1,10,40,10,4,5,-4,0
1490655112076,1,19,23,11,4,-1,-4,11,-4,-2,8,0,2,-1,0,-9
1490655112113,-4,-6,-22,-9,-6,-4,1,-5,6,-4,4,0,1,-3,2,2
1490655112151,-8,2,-4,1,-2,-7,-2,-2,-2,-2,-2,0,2,-9,4,9
1490655112190,3,2,-5,-6,6,-6,2,2,-2,1,2,-3,5,4,2,1
1490655112225,2,-1,2,0,-1,-1,1,-3,3,1,0,-4,1,-9,-7,1
1490655112263,-3,-6,4,-4,-4,-3,1,1,-2,-4,0,4,1,2,1,-6
1490655112300,5,-4,0,-5,16,-5,2,2,-1,-3,-2,-5,38,-7,-1,0
1490655112338,-4,-5,5,8,35,-3,-8,1,1,-1,1,5,15,-2,-6,6
1490655112413,1,6,0,-4,-26,-9,3,-6,1,-2,-3,-4,26,-4,-3,0
1490655112451,-3,-3,2,-1,-7,-4,4,1,1,-5,3,0,-23,-8,-8,-10
1490655112490,-3,-6,-7,-1,11,-2,-4,1,-4,-6,3,-3,3,-5,-7,-1
1490655112526,-1,-10,-2,3,3,2,-9,-7,-1,-6,-4,-2,2,-3,-5,-2
1490655112563,6,4,7,4,-3,-7,0,2,1,2,2,1,-2,-3,3,-2
1490655112601,1,2,1,2,-1,1,-2,-1,-1,1,-3,1,-4,4,1,-3
1490655112638,-3,0,1,4,0,3,4,-1,2,1,3,-4,1,-1,-4,7
1490655112677,3,-2,-2,2,-10,-3,4,-2,0,-2,-2,-2,-1,-6,2,3
1490655112713,-2,1,-4,-10,-2,1,3,-2,-2,1,-4,-5,-1,4,-2,-3
1490655112750,1,-3,-7,0,-1,2,5,3,1,-5,-7,-1,-6,5,7,1
1490655112788,1,-3,3,-1,-2,-6,-8,-3,0,-1,-1,3,-3,-7,0,-4
1490655112825,-2,2,-7,-3,-10,7,0,6,2,7,-3,0,-1,0,4,5
1490655112863,-7,1,0,4,-3,1,2,0,0,3,-4,5,-2,4,3,5
1490655112901,2,-3,0,-9,3,1,-5,3,1,-13,2,-7,5,4,2,6
1490655112976,-9,-20,-4,5,0,-3,-2,3,2,23,-5,0,2,-4,6,7
1490655113013,3,-1,1,-4,-4,1,-5,1,1,1,-3,-1,-11,3,-7,-3
1490655113051,4,5,-5,-6,4,1,5,4,-2,1,-9,4,-3,-2,-2,2
1490655113088,0,-1,6,-3,-7,6,-4,-7,-1,-6,8,3,-5,3,-4,1
1490655113126,-2,-1,-7,2,-2,3,1,2,-3,-4,-7,3,-1,2,3,0
1490655113163,0,-1,-3,-2,-5,-4,2,3,7,-1,1,-4,-4,-3,1,3
1490655113201,-7,1,1,0,1,1,1,0,-7,3,0,4,0,-1,4,1
1490655113238,0,1,0,2,1,-2,-2,0,-1,-1,-4,7,-2,3,-5,-1
1490655113276,2,-6,3,4,-3,-2,2,0,3,-2,-6,-3,-1,-1,-8,2
1490655113313,3,-3,5,-2,22,-7,-8,-1,-2,-8,-8,-3,6,-3,-4,1
1490655113351,-2,-4,4,-6,0,-1,-3,-3,-5,-3,1,-5,-7,2,-3,-4
1490655113388,1,5,4,-1,-5,0,5,6,-2,3,3,-1,-7,-4,-1,3
1490655113426,-3,-5,-3,-6,-1,-6,-2,2,-4,3,-2,-1,10,-4,4,2
1490655113463,3,-3,1,-4,-8,-2,2,2,1,-8,4,-1,-6,0,1,3
1490655113538,-2,4,1,5,1,-3,-2,2,-1,-1,1,2,3,3,3,-5
