1491693802639,0,-34,-19,-60,-86,-5,-71,-31,-13
1491693802639,0,-8,-8,0,27,-7,14,11,-28
1491693802640,1,-7,-19,-7,6,-13,15,26,18
1491693802640,1,4,12,15,20,5,19,11,-3
1491693802641,2,5,-4,11,15,-9,10,-5,-10
1491693802641,2,-10,-10,-7,-14,-4,-16,0,15
1491693802671,3,7,1,-2,-4,-1,-9,-23,-16
1491693802671,3,-10,-19,-9,-14,-12,-3,12,-3
1491693802672,0,-5,4,3,12,-9,-2,-6,4
1491693802672,0,-20,-16,-4,-8,-10,-1,9,-15
1491693802673,1,2,10,-1,6,-1,1,-8,5
1491693802673,1,4,-4,0,-11,-5,-15,-21,2
1491693802704,2,-18,-3,-7,11,0,-3,31,7
1491693802704,2,20,2,0,3,1,-3,-11,12
1491693802705,3,-27,-13,7,-13,-1,-4,14,-3
1491693802705,3,41,12,-7,-4,-1,-1,-2,7
1491693802706,0,13,6,12,11,-3,8,-7,2
1491693802706,0,-16,-5,-13,-2,-6,-11,-7,-1
1491693802736,1,-21,-3,-8,-3,-1,-9,-17,-18
1491693802736,1,-23,-15,-3,-1,-2,-10,-8,-5
1491693802737,2,39,11,17,10,0,17,8,8
1491693802737,2,-1,2,-3,-6,2,-4,1,4
1491693802738,3,17,11,-1,-3,-4,-12,-19,0
1491693802738,3,-58,-13,-7,4,-2,-4,5,-13
1491693802769,0,-10,-15,-3,4,2,13,6,-13
1491693802769,0,8,8,2,-3,0,6,22,7
1491693802770,1,7,-1,2,-1,-3,14,31,-13
1491693802770,1,-2,-4,-2,-1,0,-4,-13,6
1491693802801,2,0,-4,-1,3,3,-2,-8,-16
1491693802801,2,0,0,1,-4,2,-2,-10,-4
1491693802804,3,-3,-4,-6,0,0,-7,-7,-5
1491693802804,3,1,6,6,-5,-5,-1,3,0
1491693802804,0,-2,3,3,3,4,6,-6,1
1491693802804,0,-1,0,-1,2,-3,-4,-20,5
1491693802805,1,3,3,-1,1,-2,-2,17,7
1491693802805,1,17,1,-4,-2,-3,-4,-3,-3
1491693802834,2,-8,-1,0,1,-3,-5,1,0
1491693802834,2,2,-3,0,-5,0,3,-4,-5
1491693802837,3,-8,-4,-2,0,0,-4,-9,7
1491693802837,3,9,3,-2,0,1,-4,3,-3
1491693802838,0,3,-4,0,2,-4,-2,-7,6
1491693802838,0,-9,2,-3,-6,2,6,21,-10
1491693802839,1,13,2,0,0,0,2,-5,6
1491693802839,1,0,-2,-1,0,1,3,-8,-2
1491693802866,2,0,3,2,-1,2,-16,-14,14
1491693802866,2,-1,3,0,1,-3,-3,2,-9
1491693802867,3,-5,-3,-3,-2,-2,1,-1,11
1491693802867,3,-1,9,3,2,1,10,-9,0
1491693802868,0,-8,-2,0,0,-2,-14,-9,-4
1491693802868,0,2,0,0,-4,-2,-11,10,-5
1491693802899,1,-11,-12,-3,-3,-7,5,1,-10
1491693802899,1,3,4,-2,0,2,5,-8,-3
1491693802900,2,0,-2,-5,-5,1,1,-38,-9
1491693802900,2,-10,-11,-6,-1,1,-16,2,18
1491693802901,3,-5,0,-8,-5,-7,4,-5,-3
1491693802901,3,-9,-7,1,-3,-7,20,9,-5
1491693802931,0,2,-4,0,-1,-1,-23,15,-1
1491693802931,0,-4,-1,1,1,-1,54,-13,-10
1491693802932,1,7,4,-1,1,-2,-49,-17,5
1491693802932,1,-2,4,1,0,-1,-12,-3,0
1491693802933,2,-16,-16,-7,-7,-5,4,15,-6
1491693802933,2,0,-6,2,-5,-7,-3,-2,0
1491693802934,3,-14,-16,-2,-3,-2,22,2,-7
1491693802934,3,5,0,-6,-3,-2,19,10,1
1491693802964,0,-1,-1,5,1,-3,-8,29,-6
1491693802964,0,8,-6,2,5,4,-69,-25,10
1491693802965,1,0,17,3,1,2,-4,4,-9
1491693802965,1,-9,-47,-11,-11,-3,-24,-13,-8
1491693802966,2,-6,9,-8,-9,-4,79,50,5
1491693802966,2,3,30,-5,-4,-13,-30,-18,-27
1491693802996,3,0,-30,-7,-3,7,19,-3,10
1491693802996,3,-4,2,-3,5,-1,-47,-20,12
1491693802997,0,4,-19,9,5,2,-35,-21,-2
1491693802997,0,-6,7,-12,-3,-2,11,22,-2
1491693802998,1,0,-27,-1,3,-1,12,1,1
1491693802998,1,-12,-9,-9,-2,-4,18,8,-12
1491693803028,2,-6,-19,2,7,-4,24,13,2
1491693803028,2,-1,-7,-1,1,4,9,-18,13
1491693803030,3,28,56,18,-4,-2,-40,-15,-8
1491693803030,3,-3,12,-6,-5,-2,21,15,-2
1491693803031,0,1,8,0,-5,0,-34,-19,1
1491693803031,0,2,-36,4,2,-1,13,12,-9
1491693803061,1,-15,17,-6,-4,-2,22,9,-7
1491693803061,1,12,15,10,1,6,-25,-34,-1
1491693803062,2,4,29,-2,0,0,13,-9,4
1491693803062,2,-9,-16,0,-2,-6,-8,-12,1
1491693803063,3,0,1,0,2,1,6,14,-3
1491693803063,3,5,-7,-4,4,-7,18,27,4
1491693803064,0,-7,-13,-10,-1,2,-17,-13,-10
1491693803064,0,-2,-14,-9,-7,-2,-26,-23,9
1491693803093,1,6,37,9,7,-1,-26,32,-4
1491693803093,1,0,9,11,1,4,6,-20,3
1491693803094,2,6,14,-1,-2,-1,4,4,0
1491693803094,2,-3,-19,-3,0,1,21,17,-4
1491693803095,3,-16,-30,-15,-5,0,-14,-10,-7
1491693803095,3,-9,-4,-7,-2,-1,-39,-16,-6
1491693803126,0,15,17,25,3,-1,10,-1,6
1491693803126,0,-4,11,-2,1,-3,-12,13,-5
1491693803127,1,-14,-66,-16,-6,-2,19,-12,-4
1491693803127,1,-4,33,-6,-5,-3,-9,2,-7
1491693803128,2,9,1,0,0,-9,34,28,-8
1491693803128,2,1,-26,4,-8,4,-40,-36,6
1491693803159,3,6,-9,1,-2,-5,-1,-2,6
1491693803159,3,-4,-30,-6,-3,-1,-12,-6,-4
1491693803160,0,-23,7,-19,-8,-4,-31,-2,-10
1491693803160,0,15,41,15,5,6,48,16,0
1491693803161,1,4,-29,4,1,7,-10,-11,-5
1491693803161,1,7,7,4,2,-3,24,10,2
1491693803191,2,-2,-21,-5,1,2,36,0,1
1491693803191,2,-7,21,-4,-3,-1,-9,-2,-3
1491693803194,3,9,9,-1,-2,-2,-29,3,10
1491693803194,3,3,14,7,2,4,4,7,1
1491693803195,0,-10,-30,-1,0,-1,-22,-15,-2
1491693803195,0,-20,19,-12,-13,-7,52,-13,-17
1491693803195,1,7,14,5,2,-5,-38,-7,3
1491693803195,1,-11,-27,-4,-8,-6,35,46,6
1491693803224,2,2,-19,-8,-5,-2,-41,-34,-3
1491693803224,2,6,-17,-5,-1,-6,-31,-24,4
1491693803225,3,-1,8,-2,-3,-2,47,-3,1
1491693803225,3,-10,-12,-3,-6,-2,-6,6,-5
1491693803225,0,-6,7,-3,-2,2,8,-3,-1
1491693803225,0,-3,3,2,5,8,28,30,-10
1491693803256,1,-6,5,-4,-4,-1,29,-29,-5
1491693803256,1,7,-6,0,4,5,-18,0,19
1491693803257,2,-4,1,-5,-9,-9,-5,-6,-28
1491693803257,2,-2,0,-4,-3,-16,-50,9,-16
1491693803258,3,-4,3,6,9,14,61,17,10
1491693803258,3,6,14,1,-1,8,26,22,-2
1491693803321,0,-4,-3,-3,1,-4,-9,-13,16
1491693803321,0,14,0,1,0,-7,11,11,-5
1491693803322,1,-18,-5,-8,-10,-6,-9,28,43
1491693803322,1,-12,-8,6,-2,-2,-45,-34,-30
1491693803323,2,18,13,6,-3,2,6,3,39
1491693803323,2,-6,-12,-2,-3,-9,-55,-49,3
1491693803324,3,3,7,-3,-4,-2,-23,-10,-46
1491693803324,3,2,7,0,7,24,85,89,19
1491693803354,0,-7,-5,2,7,5,8,-17,0
1491693803354,0,-17,-5,-3,-4,-2,17,25,-10
1491693803355,1,18,7,4,10,3,-8,-3,1
1491693803355,1,0,1,-3,-13,-32,-70,-54,34
1491693803355,2,5,-2,2,0,-14,-60,-64,-29
1491693803355,2,1,3,1,5,-13,-79,-102,-32
1491693803356,3,1,4,-4,-4,23,57,12,26
1491693803356,3,-2,-6,-10,-3,28,83,69,1
1491693803386,0,8,9,2,-10,1,-5,-20,10
1491693803386,0,-7,-7,-3,-12,-25,-64,-14,12
1491693803387,1,-3,-7,-4,6,-4,-73,-128,6
1491693803387,1,0,3,-1,0,-9,-8,71,-9
1491693803388,2,-10,-1,-6,-4,9,42,21,3
1491693803388,2,-1,-3,8,3,12,15,-17,-28
1491693803389,3,3,-3,-7,-9,-20,-32,-6,-25
1491693803389,3,-3,-6,-13,-2,-15,-11,-24,12
1491693803418,0,9,4,-3,-1,-10,-48,18,6
1491693803418,0,19,8,5,4,10,17,9,33
1491693803420,1,-7,1,2,2,-11,-52,-92,-20
1491693803420,1,2,-2,5,4,-1,31,28,-11
1491693803420,2,0,-1,7,3,10,40,68,-23
1491693803420,2,-8,-5,-12,-10,0,43,23,38
1491693803421,3,-2,1,5,-1,6,13,24,1
1491693803421,3,2,2,-7,-3,-18,-67,-102,-19
1491693803451,0,-8,-10,-4,3,0,7,-14,-4
1491693803451,0,12,13,10,6,9,50,51,18
1491693803452,1,-7,-8,-11,-3,-4,-44,8,-14
1491693803452,1,-13,-13,-1,-1,0,-24,-30,-15
1491693803453,2,-10,-13,-5,0,8,25,-2,6
1491693803453,2,18,18,5,5,10,10,-5,-1
1491693803454,3,-5,11,10,4,-4,62,46,2
1491693803454,3,3,-19,-2,-4,-13,-36,-32,17
1491693803484,0,0,5,-4,-4,1,-1,8,6
1491693803484,0,-11,0,-15,-8,-6,5,-25,-24
1491693803485,1,3,-5,8,-1,1,6,18,-3
1491693803485,1,13,31,9,6,-5,-25,-13,-3
1491693803486,2,-9,-17,-3,3,-9,13,-2,3
1491693803486,2,-9,-30,-4,0,8,4,-1,-5
1491693803516,3,-1,-1,1,0,5,-9,17,-4
1491693803516,3,8,5,-7,-6,-3,-3,-19,-7
1491693803518,0,-6,0,-9,-4,-7,-27,-23,-4
1491693803518,0,3,1,9,5,2,11,18,10
1491693803519,1,0,20,-2,-7,-3,2,-7,-16
1491693803519,1,4,0,11,-1,-13,14,13,21
1491693803548,2,-1,7,3,7,31,-32,-19,-7
1491693803548,2,-3,-23,-10,10,9,-1,3,1
1491693803550,3,0,-8,-23,-17,-4,-2,1,0
1491693803550,3,-1,-2,0,-1,-4,5,-1,-11
1491693803550,0,7,23,2,-5,-20,-8,4,-2
1491693803550,0,-6,6,11,-7,-9,16,12,6
1491693803581,1,-8,-27,-2,6,0,2,5,5
1491693803581,1,-6,11,-2,2,-4,2,-17,-12
1491693803582,2,-11,-18,6,5,13,-7,6,1
1491693803582,2,-6,-11,0,6,8,2,-2,-2
1491693803583,3,-5,-7,6,-16,-17,7,-7,16
1491693803583,3,3,-30,-21,-14,9,8,-9,-22
1491693803584,0,0,17,12,-1,3,35,26,3
1491693803584,0,0,5,-13,4,-6,-21,-11,12
1491693803613,1,-8,-12,3,9,-12,-27,-5,14
1491693803613,1,-29,-11,13,4,15,-15,-10,-25
1491693803614,2,7,-1,-7,-8,-15,31,19,-10
1491693803614,2,15,16,3,1,19,20,25,8
1491693803615,3,-1,-9,-5,18,-21,-64,-76,-2
1491693803615,3,-5,10,13,-7,17,84,63,16
1491693803646,0,1,-3,-11,-17,-14,-64,-78,-43
1491693803646,0,5,-6,-14,-35,-4,-15,49,22
1491693803647,1,12,11,18,3,-2,47,2,-30
1491693803647,1,-19,3,-2,11,-6,-128,-50,-33
1491693803648,2,22,-11,-23,-12,33,90,73,26
1491693803648,2,-12,3,14,-13,38,99,44,28
1491693803678,3,-2,8,17,15,-45,-86,-22,-27
1491693803678,3,27,10,-25,-37,-30,-21,-6,5
1491693803680,0,-9,-10,1,-22,26,-34,-17,41
1491693803680,0,-30,-18,-56,-6,-22,59,10,-40
1491693803680,1,45,12,-13,53,21,-53,-35,26
1491693803680,1,-35,-39,20,-33,-59,-67,-24,-64
1491693803711,2,21,-8,-17,84,13,-77,-12,21
1491693803711,2,16,0,9,-67,-22,67,-22,31
1491693803712,3,0,3,-45,-50,12,-20,63,3
1491693803712,3,15,15,-42,-26,-24,53,-48,0
1491693803713,0,16,-10,2,17,42,65,45,-6
1491693803713,0,-13,34,28,50,22,-117,-78,-39
1491693803744,1,-38,-8,-18,-1,12,127,62,58
1491693803744,1,14,1,10,-46,-7,-83,-19,8
1491693803746,2,-17,16,70,86,7,-49,-74,6
1491693803746,2,-11,-19,-15,25,-49,61,77,-54
1491693803747,3,-59,-6,-58,-16,1,-90,-82,-38
1491693803747,3,65,-8,-61,7,34,20,48,104
1491693803748,0,-17,8,52,-110,-49,76,104,-30
1491693803748,0,9,5,3,-13,10,-75,-43,-18
1491693803776,1,2,20,41,76,41,39,2,-14
1491693803776,1,-45,7,20,-51,65,35,16,-22
1491693803777,2,1,-18,47,-44,-110,1,-66,20
1491693803777,2,22,3,-58,1,-14,-83,-23,-14
1491693803778,3,-15,-51,-26,-48,-13,8,74,-38
1491693803778,3,-31,18,18,106,-11,-83,-47,0
1491693803808,0,28,-4,-73,-16,-22,55,45,-35
1491693803808,0,-16,-16,-28,-54,-13,11,-11,35
1491693803810,1,8,22,10,67,91,44,-36,-6
1491693803810,1,18,17,66,63,30,66,69,11
1491693803810,2,-39,13,97,81,118,-93,-81,-58
1491693803810,2,-20,-10,-6,-59,-110,-33,-11,-7
1491693803841,3,38,6,-68,10,32,18,-1,18
1491693803841,3,-38,-26,-48,94,-8,89,32,-23
1491693803842,0,-36,-7,-45,-63,-83,-86,-8,-41
1491693803842,0,22,-17,12,123,24,74,31,-5
1491693803843,1,35,9,41,4,-57,-108,-75,-2
1491693803843,1,-14,-4,-35,-110,98,24,-13,-23
1491693803873,2,-8,-3,-4,14,-17,65,16,32
1491693803873,2,-5,-2,7,-47,-62,-124,-108,-38
1491693803875,3,13,18,77,14,-25,77,37,-21
1491693803875,3,-5,-29,-13,-57,-53,9,57,26
1491693803875,0,-8,-4,-128,-105,11,-25,-42,-36
1491693803875,0,5,8,121,63,96,21,10,81
1491693803876,1,-29,-9,-111,-31,-128,66,25,0
1491693803876,1,68,3,35,52,-25,-36,46,71
1491693803906,2,-35,-27,-60,-42,-18,-76,-35,-30
1491693803906,2,-11,3,51,89,70,103,14,-36
1491693803907,3,1,18,40,-44,38,-81,-29,-8
1491693803907,3,25,26,114,84,61,48,36,30
1491693803908,0,64,16,-84,-67,-79,-61,-52,29
1491693803908,0,-32,-15,-26,18,14,-3,67,-17
1491693803938,1,-16,0,73,-25,-11,68,25,-5
1491693803938,1,1,13,-127,-105,7,-19,-78,34
1491693803940,2,-4,-3,18,81,-52,2,26,-83
1491693803940,2,12,-15,-58,10,69,-85,-71,89
1491693803941,3,-26,-21,29,-66,-47,41,27,52
1491693803941,3,-7,4,27,-59,-47,43,58,-88
1491693803971,0,-5,33,108,49,127,74,7,36
1491693803971,0,-9,0,4,-23,-17,57,5,-53
1491693803972,1,-21,-46,-75,-99,-64,-8,-14,-30
1491693803972,1,6,-9,19,122,45,-103,-111,-14
1491693803973,2,8,27,-41,-119,0,-33,66,77
1491693803973,2,17,2,-11,81,44,86,84,4
1491693804003,3,1,9,24,-83,-53,-78,-14,-11
1491693804003,3,-14,-54,-110,-36,-126,-56,-96,-29
1491693804004,0,11,0,21,96,42,45,35,33
1491693804004,0,9,34,116,57,85,-42,-17,-11
1491693804005,1,-15,-16,-58,-37,0,-51,-14,-11
1491693804005,1,-2,-3,-43,-65,-14,67,54,-19
1491693804006,2,0,-13,-6,-2,-29,-23,-25,-4
1491693804006,2,-7,31,56,-83,49,61,18,-32
1491693804036,3,5,9,-65,59,-40,-27,-8,13
1491693804036,3,0,2,124,127,17,-42,-31,-14
1491693804038,0,1,-38,-102,-103,-31,-18,9,48
1491693804038,0,-11,-18,-36,-56,-125,-67,3,-15
1491693804038,1,33,35,18,99,89,113,34,-52
1491693804038,1,-19,15,90,83,127,118,-27,-15
1491693804069,2,-12,-6,-70,-51,-101,-75,-70,35
1491693804069,2,9,-25,-25,-17,-37,-18,69,24
1491693804070,3,-7,-7,26,117,106,93,89,-10
1491693804070,3,-6,23,12,-80,-96,-94,-4,28
1491693804071,0,6,-5,24,30,3,107,-11,5
1491693804071,0,-4,-24,-88,20,-73,-27,-53,-33
1491693804101,1,21,-11,5,-54,83,-29,-4,93
1491693804101,1,11,20,45,69,26,70,95,16
1491693804102,2,1,23,36,-86,46,-91,40,17
1491693804102,2,12,27,72,32,33,-8,-10,-2
1491693804103,3,-9,-17,-30,27,-30,9,-21,-40
1491693804103,3,-2,0,-28,-1,-85,-90,-27,-11
1491693804133,0,-23,-28,-23,-24,-83,47,-71,-77
1491693804133,0,-19,12,-60,-30,104,-62,-60,-46
1491693804135,1,57,34,40,-27,-96,-64,-89,34
1491693804135,1,-11,-19,-35,-20,-16,30,39,-33
1491693804135,2,0,5,47,111,4,89,75,8
1491693804135,2,-10,-15,-99,-53,63,39,-8,-14
1491693804136,3,-30,1,95,60,-32,-49,-51,-77
1491693804136,3,-1,-2,-76,-128,38,80,-19,39
1491693804166,0,-16,-19,-5,53,-80,-60,-7,-17
1491693804166,0,-4,-27,-34,6,-15,-6,6,12
1491693804167,1,-5,1,-15,-100,31,-12,-14,-3
1491693804167,1,5,16,104,127,107,9,-25,-8
1491693804168,2,-6,23,30,-47,77,113,64,6
1491693804168,2,15,-4,-63,-128,-89,-41,-24,10
1491693804198,3,1,33,93,89,103,106,50,46
1491693804198,3,14,-31,-110,-79,-102,-87,-47,31
1491693804200,0,-47,-36,-55,-34,0,-31,-57,-79
1491693804200,0,19,4,-20,13,-113,68,45,72
1491693804200,1,-8,-24,23,27,79,57,13,5
1491693804200,1,-4,49,57,47,127,-31,-13,12
1491693804231,2,-8,-41,-13,55,-47,12,-15,26
1491693804231,2,1,-6,17,-6,-70,-5,8,18
1491693804232,3,3,29,80,58,98,127,38,4
1491693804232,3,-7,-1,45,-14,-62,84,6,-51
1491693804233,0,10,-14,-64,9,-49,8,4,-19
1491693804233,0,-12,0,83,65,-28,-83,-76,12
1491693804264,1,-14,-19,-82,-30,-6,-122,-8,3
1491693804264,1,-27,-24,-35,-85,-52,53,41,-29
1491693804265,2,28,61,127,-55,99,83,13,22
1491693804265,2,-10,-13,-76,23,-108,-43,-21,-6
1491693804265,3,-10,-34,-80,76,-65,-25,-1,-29
1491693804265,3,-8,-4,5,22,28,-57,-54,16
1491693804266,0,22,37,-23,-113,-77,127,101,3
1491693804266,0,-8,-25,-54,58,118,-81,-73,-23
1491693804296,1,8,11,-53,-114,58,60,96,49
1491693804296,1,7,8,-81,76,92,-6,-68,-36
1491693804297,2,0,-26,-66,109,65,21,-31,42
1491693804297,2,8,27,127,-34,121,109,83,35
1491693804298,3,1,-32,-105,-100,-124,91,62,-32
1491693804298,3,11,18,108,-63,113,47,-20,45
1491693804328,0,21,49,127,80,127,-68,-42,-15
1491693804328,0,-4,-9,-114,-40,71,8,-6,-54
1491693804329,1,-21,-48,14,46,50,42,4,1
1491693804329,1,4,5,16,52,-76,40,-2,9
1491693804332,2,-24,-32,-11,-2,-58,-101,12,-23
1491693804332,2,10,-28,54,-30,-104,-5,12,24
1491693804361,3,20,83,91,-108,-97,57,-6,4
1491693804361,3,7,-7,75,75,-128,105,86,0
1491693804362,0,-9,-38,-84,-45,-80,-67,-100,-38
1491693804362,0,-16,0,5,-118,-27,98,-20,-30
1491693804363,1,32,27,46,78,-108,-128,49,59
1491693804363,1,2,43,-30,-35,-92,-124,-85,2
1491693804394,2,-19,-12,-1,85,-96,127,91,5
1491693804394,2,10,3,-63,-35,2,-77,-6,-7
1491693804395,3,-20,-31,-2,12,15,52,-77,-24
1491693804395,3,-10,-2,-15,-83,-91,30,76,-8
1491693804395,0,20,53,39,-48,18,-102,-65,19
1491693804395,0,-19,-47,65,127,-14,127,27,-32
1491693804396,1,11,63,-13,-34,-96,-68,14,26
1491693804396,1,-21,-63,-128,-34,-101,-83,-69,-36
1491693804426,2,-7,-95,-105,-64,-113,8,-37,-9
1491693804426,2,11,31,4,-7,-128,72,19,31
1491693804427,3,-17,-13,-11,-71,-114,-24,-15,-13
1491693804427,3,11,32,31,15,-31,31,4,-1
1491693804428,0,-19,33,36,71,81,-99,-22,-14
1491693804428,0,21,75,57,-5,127,-28,-71,6
1491693804459,1,-7,-50,-4,57,127,-32,-4,-3
1491693804459,1,-8,7,-37,-47,12,-26,-27,-2
1491693804462,2,16,10,18,33,127,54,27,2
1491693804462,2,-1,-20,19,-3,103,-11,40,15
1491693804463,3,-7,5,-37,-117,105,35,-30,-13
1491693804463,3,-13,-54,-51,80,107,-64,-10,-2
1491693804491,0,11,23,9,-5,99,18,8,2
1491693804491,0,1,26,-8,-28,15,-34,8,-14
1491693804492,1,-7,-29,-4,12,-57,-33,-19,-6
1491693804492,1,-7,-27,-3,-128,52,56,31,-20
1491693804495,2,-3,9,32,74,32,-22,23,1
1491693804495,2,-3,-24,-14,75,11,-15,15,10
1491693804526,3,6,23,45,44,53,34,-66,-47
1491693804526,3,-6,-6,-34,-5,2,-46,-1,4
1491693804527,0,-10,-24,-66,-77,-94,42,28,-8
1491693804527,0,0,-12,-17,21,-102,-15,19,1
1491693804527,1,-14,-7,-4,-14,66,57,54,12
1491693804527,1,12,6,25,77,16,-17,56,15
1491693804528,2,-9,0,47,-51,4,103,-66,-13
1491693804528,2,16,40,99,34,81,-41,-65,-17
1491693804556,3,8,-66,-103,-42,-58,-123,8,26
1491693804556,3,-14,-8,10,-57,-24,-8,-82,-55
1491693804557,0,13,-6,-13,-14,33,46,127,58
1491693804557,0,-20,1,-5,35,50,111,33,20
1491693804558,1,-5,21,69,-64,10,-21,-42,-42
1491693804558,1,4,-24,-107,75,0,65,71,31
1491693804589,2,22,26,115,121,79,-123,-107,7
1491693804589,2,-7,3,-105,-67,5,30,7,-28
1491693804595,3,23,-2,-14,-68,59,92,83,54
1491693804595,3,6,5,-18,-8,-76,43,-22,-10
1491693804595,0,-12,8,-22,-48,37,102,23,18
1491693804595,0,-1,6,69,124,2,-7,-17,-10
1491693804621,1,-11,10,25,-2,6,100,-1,-21
1491693804621,1,-26,-49,-75,-56,-64,-17,5,-7
1491693804622,2,24,17,27,-7,62,7,-6,4
1491693804622,2,15,-11,-60,-128,-58,15,6,19
1491693804622,3,-20,-24,-83,87,-89,-125,-41,-4
1491693804622,3,6,41,127,-29,127,-55,3,24
1491693804653,0,-10,32,29,-41,39,26,25,-22
1491693804653,0,-27,-50,-78,-107,-97,-123,-68,-35
1491693804654,1,-32,-15,-14,101,37,127,28,5
1491693804654,1,15,39,59,50,81,-38,-20,23
1491693804655,2,-4,-26,-112,-47,-124,-62,-5,-33
1491693804655,2,48,15,39,23,103,117,85,68
1491693804686,3,14,38,35,79,-106,-34,-34,22
1491693804686,3,-17,8,88,74,90,-64,-84,-41
1491693804687,0,-9,-37,-53,-31,-96,61,85,-1
1491693804687,0,-28,-4,33,121,58,45,-77,-46
1491693804689,1,-10,-20,-128,35,-69,-87,-94,-47
1491693804689,1,28,14,102,-84,1,127,124,39
1491693804690,2,5,51,113,127,55,-79,-59,6
1491693804690,2,-29,-69,-118,-116,-128,-106,-32,-16
1491693804718,3,-13,-10,-61,-105,127,69,27,-14
1491693804718,3,-34,-21,-90,1,-121,-4,-47,-74
1491693804719,0,34,-20,60,127,74,47,23,-8
1491693804719,0,68,68,121,-62,-2,-30,50,95
1491693804720,1,-19,-18,-1,112,-18,-61,-3,-54
1491693804720,1,-15,-2,5,-15,86,-103,-12,37
1491693804751,2,-43,-37,-128,-56,-87,50,-26,-60
1491693804751,2,-10,10,30,23,127,6,26,27
1491693804752,3,28,54,127,79,-33,89,-8,75
1491693804752,3,-29,-86,-128,-81,-91,-27,33,23
1491693804753,0,-34,-35,17,-128,112,-63,-67,-7
1491693804753,0,26,68,73,46,89,127,-2,-42
1491693804783,1,3,-2,0,89,127,-69,5,5
1491693804783,1,3,5,-10,73,102,4,111,35
1491693804784,2,8,4,-9,-79,-37,31,-35,-19
1491693804784,2,-38,-23,-54,-25,-70,-93,-63,-29
1491693804785,3,35,-3,-58,91,-124,-27,34,46
1491693804785,3,5,-9,-95,-99,-96,124,-85,28
1491693804816,0,9,38,59,65,-66,-63,92,31
1491693804816,0,-43,-3,28,-12,-128,-12,-5,-41
1491693804817,1,32,28,117,-128,-89,-73,-1,8
1491693804817,1,30,-1,-86,-42,-108,44,45,17
1491693804817,2,-41,-57,-58,127,-73,70,-8,-25
1491693804817,2,23,17,-47,30,-119,50,12,10
1491693804818,3,-41,-25,1,-2,-105,51,47,-56
1491693804818,3,93,49,114,10,-106,105,-30,29
1491693804848,0,-16,33,89,16,17,53,45,-2
1491693804848,0,24,41,52,-2,34,127,58,33
1491693804849,1,-37,-31,-100,-128,106,-58,-64,-97
1491693804849,1,-10,-14,84,127,119,47,32,41
1491693804850,2,3,-2,-109,-108,-38,-21,11,14
1491693804850,2,-6,-33,-73,58,58,75,-87,-53
1491693804881,3,17,15,41,53,35,-55,14,7
1491693804881,3,-29,-13,9,-11,127,-4,-15,-46
1491693804882,0,16,37,116,-26,39,-9,74,72
1491693804882,0,-32,-29,-54,-34,-4,-115,-14,-28
1491693804883,1,-27,6,55,80,121,127,7,-20
1491693804883,1,-44,7,4,-70,-32,17,-45,-12
1491693804913,2,32,-41,-105,97,-24,121,-14,-9
1491693804913,2,40,40,60,-65,-43,-24,11,0
1491693804914,3,17,4,-84,120,78,-63,-41,63
1491693804914,3,-32,-40,-63,-126,-14,10,40,-82
1491693804918,0,22,14,56,65,14,-21,-21,21
1491693804918,0,-47,-45,26,41,33,32,10,-56
1491693804946,1,-1,18,102,-128,-41,-60,-46,-44
1491693804946,1,32,25,11,89,4,59,53,19
1491693804947,2,34,-4,-73,67,43,-32,-20,-6
1491693804947,2,-34,-23,-11,34,100,-10,22,11
1491693804948,3,13,-30,-43,-59,-79,127,64,-25
1491693804948,3,-25,9,-45,18,33,-42,-27,-3
1491693804950,0,-8,15,48,-128,-19,-96,-116,-72
1491693804950,0,39,26,36,-52,-30,49,59,40
1491693804978,1,-19,-29,-83,-53,-9,107,29,20
1491693804978,1,-14,-11,-34,34,4,-99,-37,7
1491693804980,2,-15,9,41,-39,-34,-50,9,-17
1491693804980,2,0,-1,-9,42,50,67,-25,24
1491693804981,3,1,12,117,-102,-61,65,16,17
1491693804981,3,-1,-13,-109,104,45,-84,-71,-38
1491693805011,0,24,-24,-34,65,90,127,22,47
1491693805011,0,11,17,58,-116,-91,-71,4,49
1491693805012,1,-10,-17,-47,64,58,63,-5,-14
1491693805012,1,17,22,127,-112,-10,2,-34,11
1491693805013,2,-61,-11,-55,41,-78,1,-7,-40
1491693805013,2,-3,-15,-49,-80,14,-106,10,27
1491693805044,3,31,11,-9,127,16,51,16,9
1491693805044,3,31,-9,49,15,1,104,19,55
1491693805045,0,-14,19,-52,-127,-104,69,63,-23
1491693805045,0,-48,-48,-36,127,87,-102,-57,-14
1491693805046,1,9,-14,14,-128,-58,63,-104,-9
1491693805046,1,-16,-18,-19,43,19,43,94,14
1491693805076,2,22,24,8,5,71,9,-50,-45
1491693805076,2,5,-9,-4,-31,-106,26,43,-3
1491693805078,3,-27,18,116,-38,-35,-97,48,33
1491693805078,3,-28,-21,-89,-55,-26,45,-107,-110
1491693805079,0,69,15,71,25,34,-82,43,117
1491693805079,0,-46,-23,-64,0,-26,-20,-28,-48
1491693805080,1,3,5,-33,83,32,-54,73,-11
1491693805080,1,61,37,75,-124,-101,-69,-14,71
1491693805108,2,-41,-11,32,98,114,-31,-41,-58
1491693805108,2,6,34,69,78,89,46,-96,-52
1491693805110,3,15,-12,-80,-58,-41,65,83,27
1491693805110,3,-31,-25,-74,-4,73,-89,-15,-9
1491693805111,0,-29,7,31,-64,-60,20,6,-4
1491693805111,0,5,-9,-26,-54,-18,7,0,-28
1491693805141,1,14,2,-11,25,42,16,-19,-5
1491693805141,1,-3,43,124,59,10,102,55,9
1491693805173,2,9,-1,-89,33,-86,64,11,39
1491693805173,2,-33,-34,-69,25,15,-55,22,-45
1491693805175,3,5,-6,-18,-38,108,-65,-52,-7
1491693805175,3,-3,11,21,-50,86,-20,10,-57
1491693805176,0,13,-7,55,71,5,-7,8,44
1491693805176,0,-14,-8,-25,-79,-93,96,19,-26
1491693805177,1,-13,16,2,-25,-100,75,-14,5
1491693805177,1,-5,-15,8,60,-104,32,-36,-7
1491693805206,2,-13,-9,-35,-128,-89,-102,-55,-44
1491693805206,2,11,27,53,78,-98,64,76,-12
1491693805208,3,-7,-9,19,14,-84,-46,-37,-28
1491693805208,3,14,12,61,22,-128,-58,-39,24
1491693805209,0,-24,-42,-121,-126,-126,-58,6,18
1491693805209,0,8,-15,31,127,26,-5,-37,-55
1491693805210,1,34,13,17,-35,-43,37,7,86
1491693805210,1,-22,6,37,-29,52,112,26,-49
1491693805238,2,12,-1,19,44,-80,-37,-26,48
1491693805238,2,62,29,20,-114,-103,-90,28,75
1491693805240,3,-67,-19,24,127,-113,69,33,-62
1491693805240,3,16,7,41,43,-128,79,13,41
1491693805244,0,-2,30,16,19,7,-35,2,-67
1491693805244,0,2,-21,-66,-96,27,89,-8,109
1491693805245,1,30,-5,-34,56,-111,-119,-43,-34
1491693805245,1,-5,-11,-128,5,72,55,36,-10
1491693805271,2,-22,-5,90,104,127,11,35,-8
1491693805271,2,53,13,23,-71,97,76,-5,51
1491693805272,3,-28,1,18,-94,127,-10,1,-26
1491693805272,3,1,18,7,-38,83,-128,-61,-23
1491693805273,0,-33,1,105,23,94,100,80,-66
1491693805273,0,44,-22,-100,106,-52,127,90,57
1491693805303,1,-14,-11,-68,-128,-64,-105,-106,-31
1491693805303,1,-9,-10,-44,60,10,61,14,-51
1491693805305,2,55,3,19,-39,101,127,-9,109
1491693805305,2,-89,20,38,68,-73,-128,12,-86
1491693805306,3,7,-9,64,-48,85,35,6,-13
1491693805306,3,28,10,-31,96,-55,-124,34,86
1491693805336,0,-45,-12,25,-34,95,72,0,-13
1491693805336,0,34,6,57,91,-19,-53,-50,-19
1491693805337,1,-60,-3,-40,2,-30,-24,-3,16
1491693805337,1,20,-27,-32,-95,-37,80,-9,-13
1491693805339,2,20,9,-20,-46,20,-46,10,38
1491693805339,2,-44,6,51,-45,-54,2,5,-59
1491693805340,3,5,13,71,46,27,3,9,44
1491693805340,3,-16,1,42,80,24,-1,34,-2
1491693805369,0,-32,-22,-128,-69,-128,2,-4,-89
1491693805369,0,60,-36,-77,57,75,3,-87,89
1491693805370,1,-19,-11,-12,73,50,-51,12,-28
1491693805370,1,16,17,33,-93,86,20,35,53
1491693805372,2,10,10,38,97,26,4,-17,-35
1491693805372,2,-41,-8,-25,-97,34,-83,-8,-26
1491693805401,3,27,12,10,2,21,107,21,62
1491693805401,3,-29,-13,37,-65,0,-74,-5,-76
1491693805402,0,-14,7,43,45,18,10,-1,12
1491693805402,0,-4,10,-32,-57,-16,-72,23,5
1491693805403,1,-1,-16,-64,-41,-10,1,-99,-67
1491693805403,1,21,-5,-29,-30,-59,-43,22,9
1491693805433,2,15,-1,31,57,35,73,15,88
1491693805433,2,-11,14,85,112,106,-46,-58,-58
1491693805435,3,14,-16,-85,-111,-65,-34,51,29
1491693805435,3,-23,-7,-67,-29,-127,32,-37,-59
1491693805436,0,26,11,-31,-1,-48,-57,-26,-19
1491693805436,0,-22,-5,26,8,-14,97,9,17
1491693805466,1,17,10,38,44,-44,-71,12,27
1491693805466,1,-28,-8,38,97,32,103,-38,-35
1491693805468,2,13,-4,-67,-108,-75,-128,-45,40
1491693805468,2,-12,7,43,40,45,37,62,-39
1491693805469,3,-3,2,60,113,46,-24,-44,-75
1491693805469,3,15,-34,-68,22,18,27,82,73
1491693805470,0,-6,-16,-61,-82,-24,-122,-60,-91
1491693805470,0,-6,14,5,-37,-4,62,11,35
1491693805498,1,19,3,78,0,94,-24,-18,-31
1491693805498,1,-23,2,-14,30,36,46,8,-24
1491693805500,2,20,-8,14,21,17,46,20,25
1491693805500,2,-25,-18,-28,-125,-5,30,0,-50
1491693805501,3,-13,-6,-60,23,-17,-77,-8,24
1491693805501,3,32,27,49,16,20,4,0,-6
1491693805563,0,-29,-21,-28,-40,-10,123,65,1
1491693805563,0,19,8,24,87,57,-66,-90,5
1491693805566,1,-38,20,18,-40,-63,127,47,-18
1491693805566,1,-27,-28,-41,38,-84,-123,-10,-22
1491693805567,2,39,-3,-21,-56,-45,-15,-21,13
1491693805567,2,19,-2,-20,60,-39,-38,6,-45
1491693805568,3,0,-6,-47,-57,15,-11,-5,41
1491693805568,3,-18,-3,33,-39,67,-88,-42,-5
1491693805596,0,5,3,62,22,1,89,58,35
1491693805596,0,-13,-10,-53,-44,-38,-52,-27,-6
1491693805597,1,12,1,-27,-39,54,-24,-31,23
1491693805597,1,-7,7,44,-40,-6,106,1,3
1491693805599,2,-12,-8,-6,50,-15,-20,-46,-18
1491693805599,2,-1,4,24,-26,45,28,69,45
1491693805600,3,-12,-31,-14,-6,-28,70,4,8
1491693805600,3,-19,28,-10,-33,32,-102,-38,-4
1491693805628,0,6,-1,-15,60,-21,83,10,-19
1491693805628,0,-20,-9,-18,94,-70,-81,-5,-8
1491693805630,1,-19,-23,-22,53,32,-31,-43,-39
1491693805630,1,29,20,99,32,103,8,27,-26
1491693805631,2,-15,4,-50,-47,-33,-86,-6,-12
1491693805631,2,18,-5,30,-37,94,23,-32,27
1491693805632,3,-2,3,-33,-35,-75,16,10,5
1491693805632,3,1,-21,-63,-53,-63,-77,-2,-22
1491693805661,0,-21,17,62,-86,0,-29,-27,-1
1491693805661,0,22,-12,-38,44,-12,116,8,14
1491693805663,1,8,-14,-24,5,-17,-85,53,36
1491693805663,1,-4,16,22,-16,44,47,2,46
1491693805664,2,5,-9,35,107,-73,5,-17,-22
1491693805664,2,-14,-10,-31,-71,-58,-69,8,55
1491693805665,3,2,10,65,-14,-3,-18,-34,-52
1491693805665,3,10,13,4,88,66,106,9,15
1491693805759,0,-24,0,40,16,83,-26,67,-49
1491693805759,0,-21,0,-33,-74,-45,26,-1,10
1491693805761,1,37,3,-32,-86,-47,-59,63,65
1491693805761,1,-2,-20,-37,13,-34,15,-5,-27
1491693805762,2,2,1,22,52,111,41,-1,33
1491693805762,2,-12,2,-2,-43,-50,81,7,21
1491693805770,3,22,9,28,25,-69,-33,67,-18
1491693805770,3,23,-1,30,35,15,60,-17,-1
1491693805791,0,-21,-7,-46,92,45,-107,-32,-50
1491693805791,0,2,7,12,-128,50,-68,-24,25
1491693805793,1,-10,30,97,127,63,96,11,-11
1491693805793,1,-18,-19,-82,-88,-115,-46,23,37
1491693805795,2,-27,-26,-33,7,-76,17,-51,-70
1491693805795,2,45,4,-14,-57,10,-15,26,26
1491693805796,2,5,-3,-47,-92,-22,-36,-9,24
1491693805796,2,-9,-12,-1,28,-112,-9,-19,-61
1491693805823,3,12,-10,-47,-16,35,80,35,-20
1491693805823,3,-13,-9,10,-25,40,34,16,-5
1491693805825,0,-16,-8,-13,-86,8,-54,-36,18
1491693805825,0,13,22,127,100,63,-113,18,-23
1491693805826,1,7,-2,-85,-31,-35,52,12,42
1491693805826,1,-6,-20,11,23,-15,-39,-57,15
1491693805827,2,20,26,-27,-128,85,96,114,32
1491693805827,2,-17,-12,-13,123,-60,4,3,19
1491693805856,3,25,-20,-59,-128,-86,-35,-19,61
1491693805856,3,-42,-5,53,62,12,61,3,-94
1491693805857,0,33,7,-15,80,-4,-108,-54,45
1491693805857,0,-15,14,37,-2,102,127,18,-11
1491693805858,1,-6,28,123,43,122,-114,-11,18
1491693805858,1,10,8,-98,-48,-75,91,6,-11
1491693805860,2,-33,-34,-30,-92,-128,-69,17,-42
1491693805860,2,-11,-5,-128,-124,49,63,-45,-69
1491693805888,3,-7,-24,12,72,-75,-55,-29,22
1491693805888,3,54,39,86,96,123,68,86,27
1491693805890,0,21,15,89,127,-2,-96,-5,12
1491693805890,0,-25,-30,-58,-103,-125,-13,8,4
1491693805891,1,-15,10,101,92,108,1,12,-25
1491693805891,1,-4,24,-75,-106,-116,-28,0,41
1491693805892,2,-10,-34,21,127,88,127,11,-35
1491693805892,2,2,24,-40,-80,83,87,42,0
1491693805921,3,-6,-11,-111,82,-120,-112,-56,11
1491693805921,3,-12,-51,-12,68,54,14,-10,5
1491693805923,0,24,13,35,-70,25,86,-42,5
1491693805923,0,13,12,51,-29,84,61,76,-1
1491693805924,1,-35,17,82,-55,85,92,61,-36
1491693805924,1,29,3,-36,-101,-72,-25,-24,63
1491693805986,2,-1,4,-71,97,13,1,2,-26
1491693805986,2,-13,-57,-92,-52,-9,-128,-66,-22
1491693806019,3,43,34,52,-3,127,63,44,18
1491693806019,3,-16,14,14,-61,-20,13,32,-7
1491693806020,0,-19,-46,-101,63,-61,-54,33,47
1491693806020,0,3,8,15,-17,42,-19,-124,-23
1491693806022,1,-43,-30,-43,109,8,61,54,-39
1491693806022,1,25,21,95,-55,91,-24,8,-10
1491693806023,2,21,45,83,-126,-90,54,-18,-36
1491693806023,2,4,-12,5,121,-55,-8,1,1
1491693806051,3,-3,-34,-112,-128,-128,-19,-65,27
1491693806051,3,-24,-14,74,127,8,84,13,24
1491693806053,0,-15,5,-32,-46,-18,4,13,-23
1491693806053,0,-9,17,58,-27,-128,51,8,4
1491693806057,1,-7,2,-30,-17,-56,-74,-1,-41
1491693806057,1,48,2,-28,-79,-113,-54,-40,-31
1491693806058,0,-7,33,104,-50,49,-12,3,19
1491693806058,0,28,10,-25,31,22,-30,-5,87
1491693806084,1,-30,-16,49,38,-99,27,50,-78
1491693806084,1,-17,1,-49,84,9,46,-20,-2
1491693806085,2,43,-9,-50,-25,33,-46,-46,-11
1491693806085,2,-30,-6,-13,-45,-63,-95,72,11
1491693806087,3,17,3,12,50,71,-25,-104,-13
1491693806087,3,-40,20,77,30,56,54,1,-54
1491693806088,0,11,10,-2,-83,-91,-16,11,64
1491693806088,0,-1,-25,-80,51,-86,-116,-7,-44
1491693806116,1,8,5,58,8,22,-50,0,50
1491693806116,1,-55,-35,-80,52,15,6,-33,-116
1491693806118,2,12,2,23,58,-3,118,58,27
1491693806118,2,2,-9,-3,-101,32,-1,7,-10
1491693806125,3,18,26,-21,-23,-11,-5,7,29
1491693806125,3,52,19,60,105,51,-88,24,46
1491693806126,0,-36,-30,-69,-9,-72,0,-113,-26
1491693806126,0,19,32,127,115,110,127,102,70
1491693806149,1,19,10,63,-57,63,121,-3,-40
1491693806149,1,-22,-37,-96,-49,-80,-120,-52,39
1491693806150,2,-2,10,66,-128,54,5,-4,-72
1491693806150,2,-46,-26,-61,115,32,54,28,2
1491693806152,3,8,-28,-37,-84,33,31,12,-28
1491693806152,3,5,14,4,-122,32,-91,-34,89
1491693806153,0,-6,2,37,55,4,94,7,-44
1491693806153,0,14,22,67,11,9,-62,31,97
1491693806181,1,-20,7,28,-4,34,101,-44,3
1491693806181,1,-31,-28,-24,15,-95,3,70,-34
1491693806183,2,-1,34,50,-10,-55,-46,-75,-41
1491693806183,2,-4,2,-6,-24,-65,23,7,-19
1491693806184,3,-14,-65,-128,-58,-65,-20,-18,-90
1491693806184,3,23,-12,94,106,23,15,-38,3
1491693806278,0,-36,-19,-4,10,26,-4,43,27
1491693806278,0,51,28,104,12,43,-24,-12,-42
1491693806280,1,-18,26,58,-41,103,-69,-5,47
1491693806280,1,-35,-26,-83,83,-77,67,35,-37
1491693806281,2,64,18,17,28,112,-84,20,80
1491693806281,2,-58,-49,-61,-61,-82,92,-43,-65
1491693806283,3,16,32,109,26,33,-57,5,26
1491693806283,3,-6,27,-49,-128,-2,17,-5,-59
1491693806311,0,-29,-20,-24,27,46,71,28,11
1491693806311,0,-14,-23,-10,54,-40,-128,-74,60
1491693806313,1,-20,-28,-95,-57,-90,-8,-58,-68
1491693806313,1,40,32,116,-39,22,99,38,52
1491693806314,2,-2,9,22,-68,-25,61,7,-28
1491693806314,2,-34,-11,-73,-60,39,21,13,-31
1491693806315,2,-54,20,85,127,33,-128,-38,-117
1491693806315,2,53,-10,-65,-25,-98,127,38,30
1491693806343,3,-13,-14,-63,-52,6,-86,-43,17
1491693806343,3,0,29,82,0,-24,22,33,10
1491693806345,0,-48,-27,-67,-30,-69,14,3,-47
1491693806345,0,-10,9,17,-75,-61,-25,3,0
1491693806346,1,-38,7,34,-17,-51,71,6,-56
1491693806346,1,15,9,-24,-48,13,-5,6,14
1491693806347,2,25,-3,-6,80,-56,0,13,86
1491693806347,2,-26,-6,16,-68,3,68,-18,-62
1491693806376,3,73,31,53,41,-67,-48,19,28
1491693806376,3,-25,-7,8,94,-71,-37,-12,-5
1491693806409,0,83,-13,-64,-104,-128,13,-27,53
1491693806409,0,-16,23,14,109,10,5,-23,-3
1491693806410,1,-19,-4,67,83,-54,-49,-18,48
1491693806410,1,-7,-33,-78,-22,-25,46,-1,-17
1491693806412,2,-4,-15,10,-2,83,-97,16,-9
1491693806412,2,16,-11,-60,-50,-36,-118,26,84
1491693806413,3,9,-2,28,-51,127,95,-19,-69
1491693806413,3,-18,5,19,-24,122,-70,17,3
1491693806441,0,-28,-1,25,5,45,47,7,-18
1491693806441,0,7,-6,-7,-2,40,-52,-5,3
1491693806443,1,-59,-29,-79,6,-12,-12,-24,-37
1491693806443,1,65,0,13,-1,-45,75,37,-15
1491693806444,2,-39,-1,-35,-123,71,81,3,-28
1491693806444,2,46,1,39,107,83,76,42,49
1491693806446,3,-3,9,11,-12,-53,-32,-41,-36
1491693806446,3,3,-9,4,85,18,-51,-26,54
1491693806474,0,-27,3,-6,-123,-5,26,-18,-40
1491693806474,0,-19,-13,-4,-16,-11,11,-13,-29
1491693806476,1,7,24,2,-66,24,28,61,26
1491693806476,1,2,-12,-6,34,43,-107,-35,-72
1491693806506,2,-47,8,82,98,5,71,35,27
1491693806506,2,6,-25,-96,-7,-84,-116,-33,-2
1491693806507,3,-4,-18,-44,-59,6,121,-59,-62
1491693806507,3,3,5,-3,60,12,-49,15,97
1491693806538,0,73,-24,-47,80,41,49,-5,7
1491693806538,0,-15,42,43,-93,-59,15,44,31
1491693806539,1,1,3,60,88,45,58,-3,-6
1491693806539,1,-31,9,13,-7,-66,52,34,-75
1491693806541,2,-1,-18,-6,-85,-128,-10,-24,17
1491693806541,2,42,19,63,42,-15,58,43,-4
1491693806549,3,2,-3,-4,-18,-44,-84,-5,17
1491693806549,3,2,-3,-61,-32,10,43,73,18
1491693806571,0,-1,-32,-126,-59,-81,44,-38,-3
1491693806571,0,-70,24,86,-6,55,-84,-70,-104
1491693806572,1,32,-7,67,127,53,100,48,-72
1491693806572,1,83,-9,31,-39,123,-52,-9,-25
1491693806573,3,-53,32,67,49,44,34,-4,-43
1491693806573,3,10,10,-3,-76,-14,0,-59,34
1491693806573,0,8,8,52,103,88,-123,5,-46
1491693806573,0,-42,-56,-88,-42,-76,49,8,48
1491693806603,1,-9,4,76,-20,62,55,22,-15
1491693806603,1,19,2,-79,98,-11,-17,-23,24
1491693806604,2,36,47,59,-40,41,-9,-72,19
1491693806604,2,-13,10,96,83,116,93,127,-2
1491693806605,3,-13,-28,-73,10,-94,-86,-13,0
1491693806605,3,-64,-9,-21,127,-57,-14,4,-74
1491693806606,0,20,-47,26,28,-37,8,-47,58
1491693806606,0,2,52,104,83,93,-51,-19,-37
1491693806636,1,67,-4,-31,-112,49,66,47,72
1491693806636,1,-30,15,95,-128,-15,65,41,15
1491693806637,2,-25,-31,-128,48,-112,-110,-32,-72
1491693806637,2,-4,-26,-56,-3,-21,-23,-40,-31
1491693806637,3,13,18,18,-11,-3,66,90,37
1491693806637,3,-29,-6,38,-14,60,18,-109,-46
1491693806638,0,33,35,103,-83,80,-95,-13,33
1491693806638,0,-1,-8,-29,117,-52,-95,-15,-16
1491693806701,1,-13,-5,-64,-58,5,-82,-85,-28
1491693806701,1,17,-7,33,107,5,53,27,75
1491693806702,2,-22,-18,-76,-64,-105,0,-7,-43
1491693806702,2,12,11,-18,-45,84,45,0,-52
1491693806703,3,-19,10,-24,18,-50,-95,-47,57
1491693806703,3,31,17,84,-46,85,43,-25,-31
1491693806704,0,13,22,9,-6,-8,41,25,59
1491693806704,0,-32,-33,-55,15,-23,29,-12,-46
1491693806766,1,6,16,71,91,-80,-68,28,80
1491693806766,1,-24,-29,-77,-59,-36,-102,-56,-50
1491693806768,2,-10,-10,-19,15,39,97,64,-11
1491693806768,2,5,-14,13,49,-27,-16,-63,-58
1491693806770,0,36,-1,-41,6,-57,102,-47,89
1491693806770,0,13,3,-28,-59,35,-18,50,-6
1491693806771,1,-26,0,51,81,64,93,7,-31
1491693806771,1,94,14,-12,28,-50,-50,11,109
1491693806798,2,-79,15,11,-108,-70,-24,-78,-128
1491693806798,2,34,-33,-59,107,-54,-18,53,86
1491693806808,3,-44,-38,-100,-64,-33,-48,-13,-6
1491693806808,3,-41,32,87,-30,112,88,32,5
1491693806810,2,59,28,21,61,58,71,76,107
1491693806810,2,-1,-2,34,55,-66,-69,46,-86
1491693806811,3,35,-40,-88,-51,-63,68,15,-1
1491693806811,3,-57,-16,18,5,49,-15,-1,-27
1491693806831,0,35,16,-48,-63,-50,8,-40,30
1491693806831,0,-20,-24,-64,-72,-59,-42,-35,2
1491693806832,1,13,19,37,-2,43,-25,0,-11
1491693806832,1,30,-28,-19,84,-59,-21,24,98
1491693806833,2,-29,-4,-21,-87,44,-17,26,-31
1491693806833,2,-4,18,68,-49,17,88,-30,-28
1491693806834,3,31,7,-6,79,-23,-88,36,-33
1491693806834,3,34,-10,-52,-54,-18,-27,-33,28
1491693806864,0,-12,-22,54,57,95,46,44,-6
1491693806864,0,23,38,15,-83,-48,-84,-34,16
1491693806866,1,-3,4,-50,-93,55,-54,-24,-42
1491693806866,1,-45,-33,-52,94,-31,101,21,60
1491693806867,2,-49,-31,-31,81,-74,-127,-40,-68
1491693806867,2,52,20,83,-62,79,127,0,36
1491693806869,3,-33,-5,-28,119,-21,-79,-14,-10
1491693806869,3,-27,-12,-6,34,-29,-85,19,-36
1491693806897,0,15,19,5,-81,11,-60,-36,17
1491693806897,0,-50,-36,8,48,61,127,-20,-31
1491693806899,1,-16,2,-34,-128,-78,-85,-52,-1
1491693806899,1,-16,-28,-115,54,-54,127,-76,-77
1491693806900,2,-69,-46,-18,66,-14,42,4,-18
1491693806900,2,90,31,63,-61,76,-96,57,77
1491693806928,3,-28,28,127,53,127,68,-21,-36
1491693806928,3,-2,21,33,35,-100,66,-21,-108
1491693806930,0,74,-9,-92,-40,-68,-79,-54,6
1491693806930,0,-56,16,32,-53,41,92,-24,-98
1491693806931,1,59,-41,-30,-115,79,127,39,35
1491693806931,1,-62,10,-25,17,-21,-67,-28,-43
1491693806961,2,-33,-38,32,14,34,42,5,47
1491693806961,2,-3,44,34,127,36,99,78,31
1491693806963,3,-62,-24,-77,-61,54,-128,-101,-58
1491693806963,3,-38,-10,-9,-98,13,127,11,-65
1491693806964,0,53,3,15,-80,-91,24,-16,-4
1491693806964,0,-67,-37,1,-43,57,52,50,3
1491693806965,1,40,41,82,101,-60,-38,-55,34
1491693806965,1,-3,-20,-124,75,56,83,49,57
1491693806993,2,-23,-39,-55,-108,54,-34,-53,39
1491693806993,2,12,-3,79,107,83,-30,-6,-46
1491693806994,3,-12,2,14,23,-65,109,1,43
1491693806994,3,-10,-7,-53,-128,-10,-66,19,-96
1491693806997,0,-38,39,-57,-27,-67,-9,13,6
1491693806997,0,25,-30,-94,85,-28,52,-98,-37
1491693807026,1,16,20,67,114,67,-42,18,-53
1491693807026,1,4,48,91,-114,50,-43,-3,-53
1491693807027,2,-2,-4,-5,121,-37,127,83,66
1491693807027,2,-70,-29,-88,-128,-101,-64,-49,-97
1491693807028,3,41,16,54,-107,21,80,73,105
1491693807028,3,-6,-16,-5,127,2,-60,-69,-65
1491693807058,0,-22,-1,54,-58,-4,-128,-43,29
1491693807058,0,-7,-6,-55,-44,-34,-51,9,103
1491693807059,1,-2,60,80,84,19,51,9,-51
1491693807059,1,-15,9,20,-88,-81,-23,26,39
1491693807060,2,73,-54,-87,29,-47,37,47,-15
1491693807060,2,-21,-4,-21,59,-38,-103,-29,-27
1491693807091,3,-18,20,82,62,72,120,31,58
1491693807091,3,-21,4,-24,-56,-80,-57,35,42
1491693807092,0,-4,-40,-61,107,127,-27,-13,-21
1491693807092,0,12,-3,-20,-112,-113,100,58,57
1491693807093,1,55,-13,-40,-80,-1,28,-24,-95
1491693807093,1,-47,5,127,93,90,0,-3,119
1491693807094,2,71,49,38,32,43,101,27,-48
1491693807094,2,57,31,1,-42,-68,-47,-29,-29
1491693807123,3,-19,-51,-128,91,-84,-28,-19,-34
1491693807123,3,22,-26,-10,-125,102,-82,-31,-5
1491693807124,0,-74,9,3,-27,-99,-80,9,-91
1491693807124,0,-66,-19,-28,13,121,-32,2,-28
1491693807125,1,3,38,8,-105,-30,-128,-68,27
1491693807125,1,43,-13,-73,127,-19,106,102,61
1491693807221,2,-119,-45,5,-35,-16,-8,-63,-94
1491693807221,2,95,52,0,99,66,-93,26,77
1491693807222,3,-58,26,61,-103,-50,52,54,-61
1491693807222,3,36,-8,-70,101,-88,-71,59,55
1491693807223,0,-108,-17,70,-89,47,127,24,-92
1491693807223,0,12,-30,2,72,-121,-78,-64,-60
1491693807224,1,49,34,-17,-76,80,116,-46,-6
1491693807224,1,-28,-11,72,-115,-93,-35,-80,53
1491693807253,2,44,25,-97,73,62,62,22,34
1491693807253,2,-53,-16,-48,-94,-13,79,19,-42
1491693807254,3,11,-23,-10,127,13,32,5,109
1491693807254,3,77,-13,113,31,50,-6,16,-5
1491693807255,0,22,67,83,69,71,-40,-2,25
1491693807255,0,-13,-6,-70,-93,-49,127,25,81
1491693807256,0,45,34,82,78,-72,-6,5,-6
1491693807256,0,-40,4,64,-94,26,44,-1,5
1491693807286,1,-33,-41,-111,0,-42,-128,-21,-15
1491693807286,1,-54,28,127,-99,-3,57,-28,-82
1491693807287,2,-12,-57,-128,-14,-12,51,-35,10
1491693807287,2,-9,4,98,67,-70,-16,-119,-71
1491693807287,3,-8,16,31,127,78,-22,89,8
1491693807287,3,-55,19,-91,-128,-32,112,-94,-30
1491693807288,0,32,32,91,90,87,-30,44,-19
1491693807288,0,-37,-35,-95,36,-66,12,62,51
1491693807319,1,-67,-53,-73,38,6,-45,-43,-25
1491693807319,1,57,-18,68,-67,-33,-27,57,35
1491693807320,2,-81,-1,-111,69,-102,-66,-70,-66
1491693807320,2,56,17,118,66,127,85,-22,22
1491693807351,3,-29,-13,-65,-114,-128,-35,-83,-10
1491693807351,3,29,-42,-109,88,127,61,64,30
1491693807352,0,-54,-17,68,-10,-122,49,37,-123
1491693807352,0,-28,-14,-90,-80,35,17,30,14
1491693807353,1,46,10,79,108,57,60,-6,-4
1491693807353,1,19,49,104,-61,-105,64,16,18
1491693807353,2,-52,-71,-81,-46,120,-81,-53,-29
1491693807353,2,67,75,35,103,-41,19,-10,-9
1491693807383,3,2,-27,-106,0,-21,98,73,93
1491693807383,3,30,-8,72,127,-10,-77,-19,-98
1491693807384,0,21,86,127,-1,51,87,47,99
1491693807384,0,-53,-97,-128,30,-53,42,-6,-79
1491693807385,1,-9,71,123,28,95,-35,-38,-20
1491693807385,1,-27,-26,44,1,-104,-6,-5,-50
1491693807386,2,55,13,-82,-38,20,26,8,45
1491693807386,2,-13,-21,-49,1,-79,-22,32,32
1491693807416,3,40,13,117,21,48,73,-8,-17
1491693807416,3,-35,15,-128,-64,-43,-86,50,71
1491693807417,0,-49,-39,-73,-95,-7,53,-101,-94
1491693807417,0,68,4,59,95,124,53,25,74
1491693807418,1,-30,12,79,-75,-17,1,63,47
1491693807418,1,22,29,-29,-59,-38,65,-5,0
1491693807419,2,-18,0,-1,53,-5,-87,-42,-28
1491693807419,2,-17,3,16,-54,-8,-5,-31,-57
1491693807448,3,35,8,-90,-110,-128,65,-10,16
1491693807448,3,-17,-39,-47,63,30,-55,-47,-16
1491693807451,0,13,-15,-36,-2,35,-50,70,42
1491693807451,0,-63,16,-58,22,-56,-128,-49,-68
1491693807452,1,-15,-1,0,49,92,127,3,-46
1491693807452,1,46,42,14,73,86,-71,44,37
1491693807481,2,34,5,43,-61,-103,52,23,22
1491693807481,2,-68,-36,-23,43,-4,-120,-35,-5
1491693807482,3,39,-18,56,-116,-128,58,31,-27
1491693807482,3,-6,-35,-70,-28,-103,-1,3,19
1491693807483,0,12,54,127,12,-71,37,-7,37
1491693807483,0,23,0,127,-63,-54,67,70,-9
1491693807513,1,-13,-3,49,-64,-128,10,52,30
1491693807513,1,-13,28,127,-48,119,117,-79,15
1491693807514,2,22,-24,-72,75,-79,-108,8,17
1491693807514,2,-2,-30,5,-77,53,26,-60,14
1491693807515,3,-34,-47,-128,-57,51,-22,-21,-62
1491693807515,3,20,11,-9,69,74,-32,9,-21
1491693807516,0,42,42,83,-115,60,83,40,3
1491693807516,0,-11,-9,-101,103,71,-46,-3,54
1491693807546,1,-25,39,74,-50,53,12,-93,-28
1491693807546,1,-10,-23,-48,97,50,-82,-9,-55
1491693807556,2,-20,27,-55,-96,5,64,14,-2
1491693807556,2,-15,13,127,99,104,65,28,-23
1491693807557,3,-12,-40,-118,-78,7,-91,-6,20
1491693807557,3,-33,-7,51,11,114,11,42,-22
1491693807579,0,5,-36,30,-65,108,14,-68,-36
1491693807579,0,3,86,40,-69,85,-68,2,1
1491693807581,1,-21,-21,-45,64,127,4,11,13
1491693807581,1,20,-25,-80,94,-83,108,45,-23
1491693807582,2,32,-5,20,66,-80,-77,-8,51
1491693807582,2,-19,-7,40,13,25,64,-6,9
1491693807611,3,2,21,48,94,-81,-29,-18,-26
1491693807611,3,74,97,75,12,123,118,19,18
1491693807613,0,-11,-89,-74,68,-87,-81,17,-5
1491693807613,0,20,-38,-64,-72,7,76,-23,-18
1491693807614,1,-39,0,68,41,55,0,60,-47
1491693807614,1,-38,-15,-81,-128,-17,-28,-88,13
1491693807643,2,28,115,125,97,127,127,58,31
1491693807643,2,0,-36,-122,71,-128,-112,-2,-47
1491693807646,3,-3,-15,21,-29,-37,-49,-82,-10
1491693807646,3,-36,-43,113,2,93,55,18,-19
1491693807647,0,80,-8,-128,-122,-103,-118,-54,36
1491693807647,0,-4,1,60,-34,-80,72,65,45
1491693807649,1,-44,-8,65,99,99,87,7,-31
1491693807649,1,-55,52,48,46,56,45,19,-102
1491693807676,2,-28,-94,-85,104,-69,-43,-31,-36
1491693807676,2,-10,-36,-2,-87,66,-88,11,18
1491693807678,3,42,-7,-46,41,27,-52,-31,-21
1491693807678,3,-17,56,94,71,98,40,-41,21
1491693807679,0,-85,-48,-4,22,-26,83,39,2
1491693807679,0,73,-9,-29,103,-73,-4,-13,35
1491693807709,1,75,53,42,2,-37,-33,-1,88
1491693807709,1,-42,-32,-28,65,-84,-58,40,-79
1491693807741,2,-18,11,-17,-124,-45,27,-9,-23
1491693807741,2,-28,-16,3,13,118,87,-47,-27
1491693807743,3,35,54,-66,-70,-15,23,51,40
1491693807743,3,5,6,-16,-66,-98,-53,-4,18
1491693807744,0,13,-58,-20,-42,70,38,65,64
1491693807744,0,-41,25,101,38,99,62,-34,-90
1491693807745,1,-21,-12,-128,-33,-93,-85,3,-8
1491693807745,1,4,-81,-33,-5,-63,-23,7,63
1491693807775,2,-74,6,-4,-52,73,-35,-70,-97
1491693807775,2,65,32,-8,-41,71,-76,13,12
1491693807779,3,33,81,127,35,43,113,-29,90
1491693807779,3,-72,-32,4,30,-36,-26,-3,-10
1491693807788,0,75,51,55,12,-67,-15,17,50
1491693807788,0,-9,59,74,42,74,127,37,-22
1491693807806,1,-28,-105,-115,1,-73,-78,30,31
1491693807806,1,-42,-69,-16,-128,-100,-32,-47,-74
1491693807808,2,19,-3,127,26,127,127,29,3
1491693807808,2,-28,-26,-29,-60,-128,-128,-58,-27
1491693807809,3,52,35,-29,21,-33,90,34,36
1491693807809,3,45,71,-98,46,-34,89,119,78
1491693807811,0,-3,-41,49,-22,108,64,-92,-17
1491693807811,0,-18,78,14,51,-121,-10,2,37
1491693807845,1,3,-97,32,-49,107,-61,-32,-41
1491693807845,1,3,9,12,26,-2,55,31,32
1491693807847,2,-74,72,14,-38,-21,-5,17,-42
1491693807847,2,93,-35,-5,31,44,53,87,97
1491693807848,3,-109,73,127,127,-42,-94,-56,-123
1491693807848,3,62,47,-50,-128,15,53,-62,27
1491693807849,0,-17,18,-108,52,10,25,50,48
1491693807849,0,-81,-32,-90,-103,72,119,-9,-25
1491693807871,1,76,-92,-20,-61,-82,-47,0,-18
1491693807871,1,7,-6,99,72,116,47,-26,-46
1491693807873,2,-1,59,106,35,-110,-91,-25,-36
1491693807873,2,-23,38,-27,-62,86,80,4,23
1491693807874,3,-13,-39,-44,-21,99,84,23,-37
1491693807874,3,39,-47,-89,-126,-79,-98,-36,36
1491693807903,0,-1,-28,34,-25,100,-4,-3,8
1491693807903,0,36,11,-47,-65,20,-88,4,-1
1491693807905,1,-62,-8,119,23,127,60,24,-70
1491693807905,1,20,-8,-59,124,88,-23,26,60
1491693807906,2,28,-28,-119,-120,-100,44,22,-40
1491693807906,2,-27,-55,10,-45,-4,-78,-63,-39
1491693807907,3,-19,-13,10,13,50,50,23,-8
1491693807907,3,20,-16,10,-10,-70,-45,48,68
1491693807938,0,-13,1,105,127,111,120,103,-55
1491693807938,0,24,-128,-128,-101,-124,-113,-86,-65
1491693807939,1,-21,-60,100,46,76,25,-12,38
1491693807939,1,-4,51,117,69,-34,25,32,1
1491693807940,2,-16,34,-69,61,-72,-65,24,25
1491693807940,2,-85,91,82,116,127,44,-41,-89
1491693807968,3,87,94,-128,-40,-84,8,74,90
1491693807968,3,-41,64,75,30,126,53,16,-33
1491693807970,0,-38,19,-100,65,-72,-101,-95,-81
1491693807970,0,-25,78,15,41,41,-2,0,42
1491693807974,1,23,16,6,124,83,96,29,68
1491693807974,1,0,-22,-125,-8,-48,17,-21,-55
1491693808001,2,17,19,33,-58,28,-64,-57,-23
1491693808001,2,-22,7,98,-92,55,76,-27,-40
1491693808002,3,53,6,-105,4,-128,-128,-64,75
1491693808002,3,-33,45,127,59,127,0,11,-37
1491693808003,0,25,-56,-128,-55,-113,-69,-16,14
1491693808003,0,36,-72,-18,-43,-121,-115,35,-14
1491693808033,1,-51,6,-65,-85,-62,11,-89,8
1491693808033,1,8,-26,-39,1,-128,-59,-27,-54
1491693808035,2,7,17,114,-8,127,74,-7,38
1491693808035,2,23,-34,-95,42,-109,60,82,88
1491693808036,3,-65,49,94,36,101,107,1,-88
1491693808036,3,44,0,43,-7,52,-44,-52,59
1491693808037,0,-62,-43,-48,126,-73,-70,-9,-27
1491693808037,0,-11,44,115,-29,122,127,67,-14
1491693808066,1,47,-82,-128,-125,-128,-116,-11,65
1491693808066,1,-61,29,102,-72,116,44,-70,-68
1491693808067,2,46,91,111,43,127,123,64,39
1491693808067,2,-33,-33,-95,-61,-60,64,17,1
1491693808068,3,-7,-21,-10,97,-59,-57,-25,-48
1491693808068,3,-14,-36,-69,65,-101,-58,0,20
1491693808098,0,-3,-15,18,-103,-8,82,46,24
1491693808098,0,10,-6,-36,127,94,63,-46,-39
1491693808100,1,0,96,117,-65,127,42,52,-70
1491693808100,1,-23,-111,-128,-128,-128,-128,-19,23
1491693808101,2,7,19,55,-4,-6,-7,-17,-83
1491693808101,2,0,43,97,-32,43,51,-11,75
1491693808131,3,-30,-57,-92,62,-85,-91,-9,-55
1491693808131,3,73,51,97,17,127,127,40,50
1491693808132,0,-48,-21,-26,-29,-57,71,2,-54
1491693808132,0,-19,-10,-5,-43,32,-44,-37,-77
1491693808133,1,8,-7,52,-108,51,73,-9,60
1491693808133,1,6,36,56,66,47,0,74,-28
1491693808164,2,-31,-61,-53,82,104,14,-60,27
1491693808164,2,48,11,-45,10,-114,-124,-46,-87
1491693808165,3,-49,17,53,21,109,127,80,54
1491693808165,3,66,-52,-128,-121,-128,-75,9,3
1491693808166,0,4,23,117,-60,127,69,83,20
1491693808166,0,-40,15,94,61,45,-56,-51,-66
1491693808196,1,-74,-24,-45,-19,-110,-122,-114,-92
1491693808196,1,14,8,5,-47,64,123,26,24
1491693808197,2,0,-46,-128,-38,-128,-96,-18,14
1491693808197,2,-1,18,65,4,35,40,6,-28
1491693808199,3,83,-12,-84,-89,9,25,0,43
1491693808199,3,-24,37,53,111,-51,-16,6,-15
1491693808199,0,-45,-39,-77,-17,-66,-4,-23,-7
1491693808199,0,55,-5,-57,-78,-6,57,28,61
1491693808228,1,-63,-7,5,-43,-79,-126,-52,17
1491693808228,1,5,11,77,52,127,70,-12,-31
1491693808230,2,47,-3,-95,20,-105,-66,-25,40
1491693808230,2,-56,-7,93,-49,33,-128,-23,-27
1491693808231,3,22,-26,-5,-2,29,127,54,3
1491693808231,3,17,3,-37,-113,81,-41,62,67
1491693808261,0,-15,51,108,51,36,-2,-41,-34
1491693808261,0,-16,-53,-128,-60,-12,-53,-4,-45
1491693808263,1,21,0,50,37,57,77,41,21
1491693808263,1,-27,14,-47,-68,-62,-47,-88,-104
1491693808264,2,-5,11,127,66,127,-25,18,57
1491693808264,2,1,20,64,0,36,97,29,9
1491693808293,3,-66,-14,-83,127,-83,70,-9,-46
1491693808293,3,42,-49,52,-48,37,42,-8,10
1491693808295,0,19,31,0,-113,67,82,55,33
1491693808295,0,-11,-32,-65,115,-128,-4,9,19
1491693808296,1,-22,20,73,-49,79,-5,-30,2
1491693808296,1,-57,30,-12,-62,-20,22,-6,-112
1491693808297,2,17,-28,-55,-96,103,-68,-39,57
1491693808297,2,84,20,59,125,127,94,85,-8
1491693808326,3,-22,38,88,-43,-73,-72,61,9
1491693808326,3,-27,-54,-72,78,-24,-85,-124,3
1491693808328,0,-55,33,11,-64,-117,26,41,-94
1491693808328,0,81,-45,-128,-30,-128,-107,4,118
1491693808329,1,-52,1,32,31,43,12,5,-72
1491693808329,1,-12,25,-27,-44,-73,102,-8,56
1491693808359,2,-48,-32,4,107,-104,-93,-86,-127
1491693808359,2,15,25,36,60,-92,-73,33,93
1491693808360,3,91,42,72,-53,47,-37,27,63
1491693808360,3,-6,-37,-76,-33,-78,-56,-23,-15
1491693808361,0,22,-14,-53,-57,-84,-29,25,-23
1491693808361,0,-111,-15,-122,-76,-4,35,-1,-32
1491693808391,1,77,-6,5,-28,10,-116,4,-17
1491693808391,1,-57,30,6,127,59,93,46,-16
1491693808393,2,50,11,100,21,90,76,-21,87
1491693808393,2,-22,2,-75,112,-102,-114,-50,-9
1491693808394,3,-70,-42,-65,-49,-51,8,-52,-94
1491693808394,3,81,17,-10,-116,41,87,50,96
1491693808424,0,-33,-19,6,114,66,42,69,-24
1491693808424,0,23,42,127,-99,127,96,28,39
1491693808425,1,-32,-24,-128,46,-96,86,-36,36
1491693808425,1,-23,-11,103,102,42,26,-24,-71
1491693808426,2,22,20,-44,-128,-128,31,-11,38
1491693808426,2,25,-19,56,-19,6,-76,-64,-4
1491693808457,3,6,17,20,-13,26,47,82,-46
1491693808457,3,-8,7,73,-58,60,2,-11,-41
1491693808459,0,-40,-33,-100,127,-27,-35,26,-47
1491693808459,0,-56,5,-10,-97,77,43,-55,-30
1491693808460,1,-57,2,39,90,-9,-23,-95,-31
1491693808460,1,66,12,-66,118,-43,-67,40,77
1491693808461,2,-10,-15,-1,48,-42,30,1,1
1491693808461,2,-10,-19,-79,-128,-128,79,47,15
1491693808489,3,-18,12,75,40,106,9,-16,-50
1491693808489,3,3,21,-31,-21,47,-90,-16,56
1491693808491,0,32,-15,-6,69,-100,43,-28,26
1491693808491,0,-61,-10,9,127,36,11,-58,-107
1491693808492,1,40,6,26,-38,114,127,72,83
1491693808492,1,-94,-32,16,-54,-121,-81,-17,-93
1491693808521,2,116,14,18,-128,127,59,60,96
1491693808521,2,-46,10,100,-43,106,-48,-69,-83
1491693808522,3,21,-30,-102,127,-128,-94,33,-6
1491693808522,3,14,-37,-110,-79,-6,51,-29,-27
1491693808523,0,-23,41,55,-128,70,37,32,27
1491693808523,0,4,26,30,-72,-30,1,33,-6
1491693808553,1,-49,-25,-27,13,-6,-121,-64,-47
1491693808553,1,43,5,-36,-3,23,21,-64,83
1491693808555,2,23,19,45,-26,78,0,0,-12
1491693808555,2,30,-6,16,115,-3,20,11,23
1491693808555,3,56,33,23,-124,-41,49,-58,-65
1491693808555,3,-89,-30,-34,127,-47,51,63,11
1491693808586,0,-43,-2,-49,-39,-67,-44,-50,-54
1491693808586,0,54,-17,-49,-46,-94,-82,-13,68
1491693808587,1,-10,-5,10,43,85,34,66,49
1491693808587,1,-16,1,-12,18,8,58,6,-56
1491693808588,2,-28,-23,41,127,48,101,10,-61
1491693808588,2,13,17,-89,-70,-49,-19,6,69
1491693808589,3,-24,-19,25,-31,-41,119,-38,-32
1491693808589,3,43,23,94,-73,79,-26,-1,-67
1491693808618,0,-47,1,-70,56,-66,-111,-28,-52
1491693808618,0,38,-1,70,10,118,123,12,25
1491693808651,1,-19,-14,-53,77,-28,23,11,-21
1491693808651,1,5,-8,-6,39,-75,67,-1,63
1491693808652,2,-6,-25,-62,-124,-39,-128,-96,-50
1491693808652,2,56,14,10,-26,43,127,69,5
1491693808653,3,11,-7,-26,44,40,-26,47,42
1491693808653,3,-34,26,23,-100,-56,16,-23,-49
1491693808654,0,50,0,-1,127,11,16,125,127
1491693808654,0,-24,-28,-5,29,48,40,24,-28
1491693808684,1,35,28,29,-127,-91,27,29,65
1491693808684,1,-98,-41,-78,-45,-25,-107,-30,-40
1491693808685,2,57,-6,62,21,46,96,47,37
1491693808685,2,43,70,113,71,18,-115,-77,81
1491693808686,3,9,-18,-80,-112,3,-13,95,39
1491693808686,3,14,-8,68,37,-86,-61,24,-35
1491693808687,0,33,33,-31,57,-92,95,58,-65
1491693808687,0,-84,-66,-49,127,-49,52,57,-31
1491693808716,1,40,20,68,-64,19,-125,-128,17
1491693808716,1,-8,-10,-104,100,-50,16,-3,12
1491693808717,2,-23,-25,33,68,-74,42,25,-47
1491693808717,2,-4,40,40,50,33,91,107,21
1491693808718,3,11,13,-3,-11,63,-62,-59,-45
1491693808718,3,-19,-21,14,-47,16,53,-9,-16
1491693808719,0,0,5,12,-127,-53,-89,-52,22
1491693808719,0,-69,-17,-2,82,-113,35,20,-16
1491693808748,1,79,30,29,-86,49,-5,-30,81
1491693808748,1,61,55,84,105,102,35,101,91
1491693808750,2,-53,-46,-92,-126,-91,-63,-113,-38
1491693808750,2,-41,-43,-128,-128,-93,-89,-58,-100
1491693808751,3,-21,-19,11,112,61,30,83,73
1491693808751,3,22,24,47,43,41,52,40,13
1491693808813,0,-26,0,43,56,127,-32,-21,-31
1491693808813,0,90,22,-50,-120,42,2,13,40
1491693808815,1,-77,-28,-24,-61,-67,-78,-39,-43
1491693808815,1,53,9,-22,-13,-7,-31,-16,-24
1491693808816,2,-62,-6,50,-27,117,91,34,-15
1491693808816,2,-18,-3,53,100,-26,-90,-29,1
1491693808817,3,42,25,16,-22,53,44,38,21
1491693808817,3,55,26,119,115,92,-8,46,96
1491693808846,0,-8,-30,-113,-120,-77,92,-55,27
1491693808846,0,-23,-64,-82,50,-35,-56,7,79
1491693808847,1,-87,-14,23,22,42,92,20,-128
1491693808847,1,-22,-4,49,28,97,-50,-47,-51
1491693808849,2,-19,31,45,-57,99,-64,-51,43
1491693808849,2,34,-7,-4,68,-12,127,30,-7
1491693808850,3,-35,37,62,46,28,-128,-11,32
1491693808850,3,-49,-20,-53,-118,-75,27,-66,-120
1491693808878,0,48,7,97,120,13,6,29,88
1491693808878,0,-26,-56,-107,-128,-108,-35,-64,-49
1491693808880,1,103,-31,34,21,109,-80,-42,14
1491693808880,1,-103,0,12,-65,1,113,75,-56
1491693808881,2,-40,-41,9,-23,30,5,3,20
1491693808881,2,7,100,127,127,127,-81,-43,78
1491693808882,3,-24,1,-1,-78,-87,127,93,-87
1491693808882,3,-53,-52,-82,47,-38,-128,-122,-47
1491693808911,0,30,22,66,6,46,93,101,77
1491693808911,0,-59,-20,-46,-53,-57,6,-29,-128
1491693808912,1,23,-18,-50,-47,96,-70,-27,-5
1491693808912,1,92,73,75,32,22,-36,57,80
1491693808943,2,-86,-100,-128,127,-115,-96,-3,-44
1491693808943,2,1,31,72,38,86,74,20,-79
1491693808945,3,-6,13,37,-62,-128,16,-18,45
1491693808945,3,-34,-33,29,85,23,-14,28,-51
1491693808946,0,54,100,17,-78,2,-92,-107,-6
1491693808946,0,14,-48,-37,39,-40,-97,-10,-20
1491693808976,1,-3,15,-7,94,29,-13,29,85
1491693808976,1,-5,-33,-89,42,-4,77,90,40
1491693808977,2,-48,15,93,67,127,-32,-25,-115
1491693808977,2,76,45,4,-60,-84,64,91,48
1491693808979,3,-128,-106,-118,10,-104,-92,-119,-114
1491693808979,3,69,43,45,-54,73,15,-42,19
1491693808980,0,37,25,-52,28,-46,63,72,11
1491693808980,0,-90,15,115,-90,127,-39,-3,-44
1491693809009,1,108,-59,-86,127,-110,-72,-32,0
1491693809009,1,-12,-19,-84,-128,-77,-27,-5,16
1491693809010,2,-12,13,-4,-103,40,-17,-30,48
1491693809010,2,36,-42,5,60,-1,79,-60,31
1491693809011,3,-3,114,127,-42,94,127,75,-45
1491693809011,3,-20,-81,-91,44,-98,-26,-54,-77
1491693809012,0,57,33,78,87,55,-106,27,94
1491693809012,0,-40,-13,-92,17,8,89,-6,-45
1491693809074,1,-55,-53,-35,51,-44,-41,-48,-12
1491693809074,1,-23,21,14,27,83,116,2,-21
1491693809075,2,35,14,54,-22,-128,-89,-6,50
1491693809075,2,-43,-10,-61,-118,127,69,-33,-100
1491693809076,3,-73,-27,-42,111,-118,59,19,-44
1491693809076,3,23,10,-19,-53,97,-53,-44,70
1491693809077,0,-29,18,1,-103,-70,-75,32,-93
1491693809077,0,23,-24,-76,-87,-115,-39,6,29
1491693809138,1,25,5,-12,-76,127,11,-25,54
1491693809138,1,-100,10,-7,-124,-101,-9,-15,-73
1491693809139,2,96,-52,-63,48,107,-56,6,29
1491693809139,2,20,88,127,-3,71,60,-16,-52
1491693809140,0,-41,-5,-128,81,-56,96,-52,-14
1491693809140,0,-5,3,80,109,72,55,38,-47
1491693809141,1,-58,-4,-54,-103,-48,-54,-42,83
1491693809141,1,71,28,-15,-99,68,-12,27,-75
1491693809171,2,-53,-14,10,-12,-14,58,-14,21
1491693809171,2,12,8,-32,78,10,-100,-39,105
1491693809203,3,25,42,69,71,127,95,3,-63
1491693809203,3,-28,7,46,1,-128,31,28,56
1491693809236,0,33,-52,-47,77,-91,-58,-12,-27
1491693809236,0,-14,26,-68,74,24,54,9,-9
1491693809237,3,-37,-8,-105,127,-99,1,44,-14
1491693809237,3,61,8,-9,-11,88,23,-42,-4
1491693809237,0,25,33,-3,31,-122,127,66,11
1491693809237,0,15,-12,25,-48,-106,-57,-23,-37
1491693809238,1,31,13,15,-128,127,78,-27,17
1491693809238,1,-86,3,49,45,-35,-17,90,-58
1491693809268,2,67,-17,-106,-90,-19,79,-11,29
1491693809268,2,-1,50,55,-14,84,57,-37,-73
1491693809269,3,59,-75,-72,-18,-116,-71,40,113
1491693809269,3,-32,-7,58,60,89,110,1,40
1491693809271,1,28,-34,28,-62,40,-72,39,-50
1491693809271,1,39,32,4,-78,85,95,-15,89
1491693809271,1,28,31,104,-128,-19,44,-23,-14
1491693809271,1,-41,60,43,-43,58,56,35,-81
1491693809366,2,57,-37,-78,127,-25,25,-3,81
1491693809366,2,-52,-23,5,-15,41,62,27,26
1491693809368,3,-51,24,101,22,72,-56,-1,-55
1491693809368,3,33,9,47,105,24,87,20,40
1491693809369,0,-81,-36,12,2,-34,-79,-43,-98
1491693809369,0,-32,-30,-67,11,26,7,17,86
1491693809370,1,73,59,-58,127,-94,113,5,59
1491693809370,1,-90,-86,-128,-6,-128,-128,-40,-58
1491693809398,2,21,43,106,13,127,126,-55,23
1491693809398,2,-55,-12,14,-21,-126,3,-8,-104
1491693809401,3,-46,-31,0,-108,35,57,-5,-31
1491693809401,3,40,72,41,-99,4,79,28,37
1491693809404,0,-44,-51,38,62,-54,-102,-41,-72
1491693809404,0,-40,-13,-92,-86,-128,32,50,0
1491693809406,1,20,25,104,52,107,-12,-22,36
1491693809406,1,0,-30,107,18,29,72,-6,-13
1491693809431,2,-38,-23,-87,-47,44,-86,-53,-20
1491693809431,2,60,27,60,-21,24,107,61,56
1491693809435,3,-67,-97,-128,-93,77,-65,-92,-49
1491693809435,3,18,51,36,31,13,-88,-23,17
1491693809440,1,17,8,-25,118,54,-38,-59,2
1491693809440,1,30,-20,-67,-1,-30,88,31,6
1491693809441,2,-23,46,96,-54,-2,8,-8,6
1491693809441,2,-10,-39,-43,127,0,-115,-28,-8
1491693809463,3,-12,36,95,65,23,22,-25,-9
1491693809463,3,26,56,-78,-128,-23,77,62,-3
1491693809464,0,-3,-106,-97,61,-71,-109,-101,19
1491693809464,0,-37,18,127,31,-17,127,-28,-60
1491693809464,1,8,-10,-73,-95,64,13,29,35
1491693809464,1,-27,27,124,46,119,36,12,5
1491693809466,2,94,97,127,-36,127,126,71,26
1491693809466,2,11,-40,-115,-6,-72,-104,-2,42
1491693809496,3,-52,-18,-62,88,-35,-100,-69,-39
1491693809496,3,68,-27,-56,-106,-72,-51,-29,21
1491693809497,0,-42,-39,-97,86,-14,19,21,-26
1491693809497,0,35,0,-36,-75,-61,11,-38,-21
1491693809500,1,10,-9,-32,84,17,65,69,63
1491693809500,1,-2,48,5,12,89,-35,7,-10
1491693809528,2,-16,47,-25,-19,2,-88,-45,-53
1491693809528,2,5,-10,65,0,75,19,-20,-43
1491693809529,3,5,-6,-18,-53,-97,-12,7,20
1491693809529,3,-17,-71,48,-21,-121,-4,-30,7
1491693809530,0,-16,23,30,-51,100,15,62,1
1491693809530,0,4,2,-47,-46,-69,-28,-32,6
1491693809530,1,2,28,105,28,28,-11,4,-20
1491693809530,1,-7,-13,-42,52,7,-41,-13,-14
1491693809593,2,32,49,95,-128,24,3,7,44
1491693809593,2,-32,-54,-71,127,-19,80,27,-26
1491693809594,3,50,53,61,-55,-61,-49,-2,-23
1491693809594,3,-37,-70,-30,2,-26,-4,-51,-1
1491693809595,0,-16,-31,28,67,10,-9,-7,3
1491693809595,0,10,5,12,-70,-15,29,30,-28
1491693809595,1,-21,48,59,-60,3,-6,31,35
1491693809595,1,-23,-34,-14,-9,93,116,13,-31
1491693809626,2,37,18,37,74,-120,-83,-26,28
1491693809626,2,-26,-51,12,127,33,-37,88,-4
1491693809627,3,-58,-84,-59,-100,-104,-78,-98,-100
1491693809627,3,-22,39,83,10,28,-23,-19,73
1491693809628,0,-4,-4,7,73,60,-7,31,-35
1491693809628,0,-9,127,66,-41,97,67,-58,-20
1491693809628,1,53,-73,16,10,95,125,78,-8
1491693809628,1,6,65,-24,10,-50,-34,80,50
1491693809658,2,33,-128,-45,49,-123,-87,-44,10
1491693809658,2,-58,71,61,-32,25,-15,-45,-3
1491693809659,3,-8,9,-54,100,-13,34,-2,-3
1491693809659,3,-50,10,62,-49,-9,-16,-50,-98
1491693809660,0,52,90,25,107,-61,-3,59,103
1491693809660,0,4,-34,-15,-45,54,-40,-81,-45
1491693809661,1,27,-36,-12,-74,-11,-13,-10,29
1491693809661,1,-10,6,-17,-41,-118,-77,-35,-74
1491693809691,2,-77,-58,54,29,-11,34,-19,12
1491693809691,2,81,61,70,-19,91,25,-3,-21
1491693809723,3,-38,-34,-44,71,70,48,63,7
1491693809723,3,64,50,-47,85,-3,-60,40,18
1491693809724,0,-93,-1,-23,-95,-16,16,-74,-59
1491693809724,0,41,23,38,1,33,-29,52,73
1491693809725,1,-12,-54,-12,-37,-33,-61,12,-29
1491693809725,1,58,22,-77,13,98,-17,19,19
1491693809726,2,-48,-123,-87,-64,6,70,-41,-65
1491693809726,2,7,0,121,109,61,21,86,45
1491693809821,3,21,62,-7,-44,106,-3,10,23
1491693809821,3,-14,-26,-34,-12,-34,103,32,17
1491693809822,0,49,4,82,11,126,45,-23,-39
1491693809822,0,-55,-25,-54,-49,-128,-102,-38,-40
1491693809824,1,8,-1,-38,33,-79,-76,-16,10
1491693809824,1,-20,-29,116,85,76,97,-21,-11
1491693809825,2,-6,-9,-78,-48,119,127,20,-5
1491693809825,2,-33,-47,-71,-9,-61,-99,-30,38
1491693809918,3,21,-56,-29,-81,-51,58,-35,-18
1491693809918,3,-16,-26,-17,1,83,62,0,24
1491693809919,0,25,22,52,32,73,17,5,5
1491693809919,0,-63,22,80,-71,-27,-14,-4,-9
1491693809983,0,-29,-74,-100,-21,-32,-84,-23,-48
1491693809983,0,-15,4,-10,3,-95,0,-10,-22
1491693809984,3,-103,-31,56,2,127,-6,-21,-101
1491693809984,3,105,24,-37,-39,19,21,28,87
1491693809985,0,-31,8,127,118,127,92,93,13
1491693809985,0,79,14,-65,-45,63,13,-26,12
1491693809986,1,-27,39,-52,94,-117,-77,22,-23
1491693809986,1,-31,-90,-47,-34,-91,-56,-79,-55
1491693810016,2,-13,9,35,-13,63,-35,4,18
1491693810016,2,36,-5,-20,39,70,127,36,16
1491693810018,1,-47,-6,-83,33,-99,92,15,-16
1491693810018,1,63,-7,81,-53,30,-108,-72,42
1491693810019,2,21,45,127,53,-40,33,28,15
1491693810019,2,-32,2,-7,54,-49,-36,2,-64
1491693810020,3,4,17,86,44,122,127,-68,24
1491693810020,3,39,16,13,7,-96,-9,1,47
1491693810048,0,-10,9,38,-54,-121,-117,-19,-13
1491693810048,0,-22,-80,-86,-32,33,88,-35,-25
1491693810050,1,51,-8,65,-73,57,-15,78,127
1491693810050,1,-108,-14,-84,-72,-44,-24,-67,-128
1491693810051,2,37,45,63,13,62,35,32,-24
1491693810051,2,-28,23,38,-81,-20,27,4,-15
1491693810052,3,-22,-36,-60,36,-22,3,18,7
1491693810052,3,8,38,121,-16,55,-41,-14,2
1491693810081,0,57,1,-104,-125,-72,26,16,20
1491693810081,0,28,3,93,39,117,-50,47,14
1491693810082,1,28,-49,-80,101,-103,-31,7,61
1491693810082,1,-53,-79,-17,-25,51,59,9,-58
1491693810083,2,13,56,34,80,69,-125,7,26
1491693810083,2,-3,23,45,-76,127,120,-51,-9
1491693810083,3,-40,-23,-49,-49,-71,-102,-32,-21
1491693810083,3,54,-14,-86,74,-22,63,45,87
1491693810113,0,-23,16,61,-6,10,7,-30,-82
1491693810113,0,4,-3,-12,6,49,127,74,51
1491693810114,1,-55,9,79,-114,-79,-110,-42,-97
1491693810114,1,-39,-55,-128,127,-115,80,-66,-60
1491693810146,2,27,24,75,37,10,-99,12,81
1491693810146,2,-7,-11,-93,127,-128,-12,15,-15
1491693810147,3,-17,0,-61,-34,87,3,-38,-45
1491693810147,3,84,-4,37,-54,118,20,-10,36
1491693810147,0,-41,20,-16,-128,45,87,5,-23
1491693810147,0,-44,-58,-105,34,67,-64,8,11
1491693810148,1,-8,9,123,6,127,123,80,-21
1491693810148,1,59,64,93,94,127,-88,-78,41
1491693810178,2,-58,-58,-128,35,-43,76,48,-24
1491693810178,2,-6,25,105,70,20,34,-32,-12
1491693810180,3,38,9,-41,85,-128,-31,-24,-35
1491693810180,3,-128,-31,65,-101,-14,68,54,-113
1491693810181,0,104,-19,-116,44,57,120,0,78
1491693810181,0,51,-5,-35,-36,-128,-64,-59,-6
1491693810183,1,-7,52,127,-7,127,82,76,39
1491693810183,1,-49,-24,-95,30,-128,-81,-21,-50
1491693810244,2,-43,-52,-42,72,64,-57,-87,-35
1491693810244,2,15,41,64,-77,104,53,67,62
1491693810245,3,34,25,-33,-28,51,-20,-42,-25
1491693810245,3,-49,-21,5,51,-94,20,-20,-29
1491693810246,0,44,-41,1,-11,-102,71,56,35
1491693810246,0,-1,-11,-40,5,-110,-49,21,30
1491693810247,1,-41,-26,35,-73,-73,72,-44,-28
1491693810247,1,38,94,71,15,59,127,90,97
1491693810276,2,-12,33,-22,-31,-124,-61,-19,-60
1491693810276,2,-2,-49,-28,-81,-101,13,-42,15
1491693810277,3,-49,-31,-127,-22,-97,-29,-49,-48
1491693810277,3,27,9,-36,-86,-88,-51,50,47
1491693810279,0,-13,-52,-3,60,1,-37,-45,-37
1491693810279,0,72,46,21,74,-22,-58,45,35
1491693810280,1,-33,-11,-13,-64,72,71,14,-74
1491693810280,1,-49,-49,30,89,-66,19,-84,-35
1491693810341,2,8,63,28,-128,-74,-24,40,28
1491693810341,2,-59,6,54,76,36,6,-6,-13
1491693810342,3,105,17,-93,33,-73,41,38,93
1491693810342,3,-82,-43,-55,-80,-32,71,-75,-92
1491693810343,0,95,22,51,-127,20,-128,57,94
1491693810343,0,-40,-73,-99,124,-100,21,-33,-70
1491693810344,1,-71,28,127,21,87,63,-76,-42
1491693810344,1,110,32,77,46,71,18,63,126
1491693810374,2,17,-22,-83,80,-66,34,7,2
1491693810374,2,-48,18,101,-122,42,-16,-37,-97
1491693810375,3,58,18,75,-18,68,1,55,127
1491693810375,3,-7,-46,-128,100,-99,-63,-15,-8
1491693810376,0,-32,-21,-50,-42,18,-125,-52,-56
1491693810376,0,40,38,38,-7,26,72,-3,-28
1491693810377,3,89,21,46,-39,29,17,35,49
1491693810377,3,-21,8,-71,44,-52,52,8,16
1491693810406,0,-45,-7,-3,29,104,-41,17,-19
1491693810406,0,7,-43,-78,46,-37,29,14,-38
1491693810407,1,-63,-37,52,31,22,-53,-8,10
1491693810407,1,72,51,70,-85,8,29,14,19
1491693810408,2,-103,-37,-34,21,-106,51,-15,18
1491693810408,2,-27,12,-17,-128,39,-88,-36,-11
1491693810409,3,26,28,86,88,31,30,74,92
1491693810409,3,-36,-30,-124,-128,-79,-1,14,-15
1491693810438,0,3,-15,-1,-9,-73,-97,-93,-27
1491693810438,0,-16,28,127,102,57,-99,27,17
1491693810440,1,-3,-24,-45,91,-42,22,20,51
1491693810440,1,-33,93,127,-89,57,-93,-12,26
1491693810441,2,57,-48,0,89,9,65,-3,-101
1491693810441,2,-21,-5,-66,-102,-60,46,29,-48
1491693810442,3,45,29,-47,-101,-8,62,-72,13
1491693810442,3,-36,-15,-6,61,-87,-128,-1,-59
1491693810471,0,63,7,65,54,127,81,-10,75
1491693810471,0,-31,0,59,32,3,-104,-13,-72
1491693810472,1,-37,-39,-128,85,-128,-94,-24,-47
1491693810472,1,-15,-40,-62,9,8,97,85,19
1491693810475,2,-41,76,127,-58,63,122,-4,-43
1491693810475,2,-3,-75,-120,-45,-100,-4,-24,24
1491693810476,3,-15,41,41,-30,-31,-2,95,-17
1491693810476,3,64,11,14,-62,121,-128,-67,-78
1491693810503,0,-91,-6,81,120,-8,43,0,-60
1491693810503,0,94,21,24,19,125,82,79,111
1491693810504,1,-84,-12,-100,-12,-128,-13,-21,-92
1491693810504,1,34,-7,-3,-62,20,-74,1,22
1491693810505,2,-25,-4,28,31,-17,-27,13,-10
1491693810505,2,-36,28,-44,-108,-25,32,-51,-98
1491693810536,3,56,20,95,109,81,81,-17,64
1491693810536,3,-87,-71,-103,-9,-52,-37,49,-16
1491693810537,0,-25,48,44,-128,-12,-89,-99,-91
1491693810537,0,-14,4,-69,-52,-60,90,2,-24
1491693810538,1,60,-6,53,59,-35,58,15,103
1491693810538,1,-42,30,120,110,112,127,6,1
1491693810601,2,-47,-26,-21,-16,-62,-115,-3,-19
1491693810601,2,30,0,-43,-3,-14,25,73,62
1491693810602,3,-8,-10,-12,5,-25,-91,35,-19
1491693810602,3,-2,12,72,-50,13,-30,-63,-35
1491693810604,0,-18,-41,-106,-88,15,-51,-1,10
1491693810604,0,60,34,89,127,-57,11,27,45
1491693810605,1,-53,-3,-15,-87,-33,28,2,-121
1491693810605,1,84,-10,-35,-37,-128,106,93,121
1491693810633,2,-57,-18,-14,-96,-14,116,-45,-89
1491693810633,2,6,2,26,-58,98,-84,-48,61
1491693810635,3,-4,-39,-83,-40,37,52,-49,-62
1491693810635,3,2,27,66,72,127,79,53,63
1491693810642,1,-67,-70,-41,108,-113,-102,-66,-68
1491693810642,1,-9,-4,32,-122,5,-114,30,-5
1491693810666,2,-21,-15,-28,127,8,44,78,23
1491693810666,2,-24,29,127,18,9,-4,24,-78
1491693810667,3,85,42,95,3,127,40,25,51
1491693810667,3,20,24,-44,111,-120,93,44,79
1491693810668,0,-1,-57,-90,11,-67,-128,-110,-49
1491693810668,0,-69,48,97,127,127,38,47,-66
1491693810669,1,3,-3,-89,-120,-128,-8,-72,-34
1491693810669,1,-24,-33,-76,60,77,-82,-34,31
1491693810698,2,53,0,31,-38,59,117,23,28
1491693810698,2,26,-6,-114,10,-81,18,107,46
1491693810700,3,-15,13,127,83,127,23,-16,-3
1491693810700,3,21,56,-72,-30,14,-98,-87,-5
1491693810701,0,-48,-7,15,-90,-50,-95,-86,-102
1491693810701,0,-19,-21,9,82,61,-15,34,21
1491693810702,1,66,-16,94,-79,-101,-20,-12,-25
1491693810702,1,44,-45,-96,-58,-110,-106,-96,-25
1491693810731,2,-12,86,83,-58,-44,18,90,14
1491693810731,2,44,56,-23,-66,17,89,-39,50
1491693810733,3,-8,6,57,7,123,-93,-54,93
1491693810733,3,-44,9,15,34,-63,16,-25,-112
1491693810734,0,45,-70,-128,45,-128,-104,-6,102
1491693810734,0,-28,-47,0,-76,51,96,-32,-52
1491693810735,1,-49,-32,-56,102,116,-86,25,-13
1491693810735,1,-36,53,6,-25,74,127,-11,-101
1491693810764,2,23,28,127,70,127,-9,72,80
1491693810764,2,-1,-40,-128,-50,-128,-34,-2,-54
1491693810766,3,-9,80,77,-84,57,3,-51,38
1491693810766,3,-71,-55,0,108,19,67,-15,-74
1491693810767,0,-85,3,-103,-33,-93,127,45,-45
1491693810767,0,14,-24,127,81,-27,-87,-63,80
1491693810796,1,-44,-21,-128,21,35,91,21,-105
1491693810796,1,-25,13,127,-45,92,-98,-12,119
1491693810828,2,52,-29,-113,53,-53,9,16,38
1491693810828,2,-13,-16,-4,-69,42,-26,-25,-9
1491693810829,3,-39,23,31,-24,-53,36,53,11
1491693810829,3,112,61,56,4,127,87,61,41
1491693810830,0,-37,-13,38,80,-7,15,53,-2
1491693810830,0,12,11,26,95,70,52,42,59
1491693810832,1,26,-7,-34,-42,-98,-128,18,-39
1491693810832,1,-41,-34,-49,-42,-105,72,14,30
1491693810926,2,-24,6,93,-25,106,-18,6,-10
1491693810926,2,3,-15,-74,68,-97,-41,73,53
1491693810927,3,40,52,1,48,11,-67,-67,-91
1491693810927,3,-6,-23,-9,-42,47,-9,22,29
1491693810928,0,44,-31,-120,74,-99,-20,-28,23
1491693810928,0,-91,-59,9,127,51,-65,-10,-106
1491693810928,1,-9,58,33,-85,44,101,-12,-41
1491693810928,1,85,-27,-99,-28,-100,15,26,50
1491693810991,2,-35,9,-11,56,-27,-10,41,-53
1491693810991,2,-16,-3,60,-114,43,68,-88,-21
1491693810992,3,-18,12,32,66,-113,-83,0,108
1491693810992,3,44,71,127,-45,127,97,58,0
1491693810993,2,18,49,127,-4,127,52,-31,96
1491693810993,2,92,76,36,80,-128,-37,-10,38
1491693810993,1,46,-38,-85,127,-122,19,28,14
1491693810993,1,-54,10,44,-49,56,6,-6,2
1491693811023,2,-20,-25,-78,-125,-80,-17,49,-97
1491693811023,2,-19,11,127,-21,127,79,3,-10
1491693811024,3,65,-22,-128,48,-128,80,81,87
1491693811024,3,-22,0,40,127,34,-80,-88,-69
1491693811025,0,34,2,29,55,-128,27,-19,-12
1491693811025,0,-7,44,127,-103,127,114,120,86
1491693811026,1,-1,8,-72,98,-54,17,-46,-76
1491693811026,1,-22,-92,-57,89,11,13,-53,1
1491693811056,2,-57,-4,-17,-31,64,68,-64,-57
1491693811056,2,68,24,85,-102,115,-72,73,45
1491693811058,3,-1,63,127,127,127,17,-34,22
1491693811058,3,-31,-24,-101,-10,-128,-86,-37,-55
1491693811059,0,-10,-86,-111,-53,-46,-3,5,-57
1491693811059,0,-35,80,55,66,55,-7,-128,-31
1491693811060,1,45,47,27,-115,-58,86,94,2
1491693811060,1,4,-40,-16,85,-74,-56,46,15
1491693811088,2,-8,24,72,36,34,36,-70,-19
1491693811088,2,-30,-75,-128,45,-128,-78,-64,-59
1491693811089,3,-4,-12,120,-22,127,-32,41,2
1491693811089,3,42,68,40,-102,-34,45,46,-4
1491693811098,0,-63,-94,-121,104,-7,-122,4,-14
1491693811098,0,-22,-41,-38,-128,99,87,-31,-3
1491693811121,1,21,51,48,127,-30,-2,-21,4
1491693811121,1,11,8,-18,-128,-38,68,12,49
1491693811122,2,16,60,50,88,68,74,84,65
1491693811122,2,-27,-72,-112,-65,-128,-118,-62,-113
1491693811123,3,-59,-53,7,-10,127,41,28,9
1491693811123,3,29,12,-23,105,-100,-59,55,32
1491693811124,0,9,2,1,5,-6,114,-74,13
1491693811124,0,-18,-12,58,-25,-29,100,69,3
1491693811153,1,-68,-63,-128,-104,-128,36,-19,-30
1491693811153,1,-8,-22,94,6,127,38,-50,-24
1491693811156,2,24,56,44,-19,41,32,28,40
1491693811156,2,-12,-3,30,127,56,38,-10,-11
1491693811157,3,14,-19,-16,-84,-72,-39,-45,30
1491693811157,3,-7,67,83,8,14,-44,47,-9
1491693811218,0,-8,-9,-99,-22,36,-35,-49,-6
1491693811218,0,12,9,79,115,28,127,-33,8
1491693811219,1,-26,10,-63,-120,12,-80,-53,-16
1491693811219,1,25,-50,-128,-39,-92,127,9,9
1491693811220,2,-14,31,46,-100,-47,49,41,36
1491693811220,2,4,72,-20,14,-96,94,62,1
1491693811221,3,7,-104,-117,92,24,-95,-99,-21
1491693811221,3,13,82,127,-79,101,89,-57,1
1491693811251,0,2,64,44,-64,-98,39,18,-19
1491693811251,0,-25,-79,-128,-109,-92,-117,-30,-33
1491693811252,1,29,21,127,107,34,71,89,53
1491693811252,1,-3,-34,-128,-66,-128,-26,-15,-44
1491693811253,2,10,-44,-78,-128,-98,-78,7,-10
1491693811253,2,34,61,110,25,5,80,82,100
1491693811254,3,-11,-45,-103,61,-128,-67,-63,-59
1491693811254,3,-37,-6,28,-50,45,-47,-47,-8
1491693811283,0,-4,7,86,27,-15,31,25,-51
1491693811283,0,60,16,42,33,50,-128,-21,54
1491693811284,1,-66,3,127,-30,121,127,18,-74
1491693811284,1,96,7,-88,-46,82,-100,-23,75
1491693811285,2,-36,-17,-44,-93,62,91,33,-48
1491693811285,2,-33,-20,-102,54,64,-74,-90,-16
1491693811286,3,0,72,126,-68,70,50,54,35
1491693811286,3,-34,-11,-86,-36,24,0,26,-36
1491693811349,0,-16,-74,-102,99,26,-128,-38,1
1491693811349,0,-29,-32,76,-39,53,27,-27,-39
1491693811351,1,33,35,10,7,-5,38,39,24
1491693811351,1,-7,9,8,39,15,-19,-15,13
1491693811385,2,26,69,22,-93,32,-4,-44,21
1491693811385,2,-37,-2,-21,91,5,-78,-25,-36
1491693811386,3,13,-25,-67,-63,5,-27,14,-44
1491693811386,3,13,-16,7,-28,15,22,12,49
1491693811388,0,-18,85,19,58,14,-15,-11,4
1491693811388,0,98,-3,-3,-48,-9,11,20,62
1491693811390,1,-47,-83,-74,-37,32,-27,-46,14
1491693811390,1,-20,111,-33,-10,31,-17,7,-120
1491693811415,3,81,74,7,19,25,-102,2,69
1491693811415,3,-31,-57,37,-2,49,37,25,66
1491693811416,0,-18,-26,114,-107,127,48,-62,-53
1491693811416,0,32,-16,-54,62,24,67,65,3
1491693811417,1,-22,-29,-53,-26,-95,-49,-44,-23
1491693811417,1,-16,11,81,47,33,118,32,10
1491693811418,2,4,-1,-115,-49,-48,-4,29,19
1491693811418,2,-21,-11,117,22,127,97,-39,-33
1491693811513,3,1,-26,-26,-70,-53,-63,2,23
1491693811513,3,57,68,-25,80,-50,34,-13,9
1491693811514,0,-14,-54,-27,-65,-18,12,20,28
1491693811514,0,-9,-2,-19,48,-107,-108,-49,-48
1491693811576,2,-11,6,-43,120,-71,-75,17,-6
1491693811576,2,-30,32,-3,8,125,45,37,24
1491693811577,3,35,-25,63,127,-121,-35,19,18
1491693811577,3,-49,-88,-67,-69,-103,-93,-73,-49
1491693811578,0,-24,33,127,55,117,69,27,-24
1491693811578,0,36,22,4,-65,72,-68,6,29
1491693811579,1,7,51,54,99,127,69,48,9
1491693811579,1,-19,22,-69,-38,-76,63,17,-53
1491693811608,2,18,-42,81,-67,35,-128,-35,50
1491693811608,2,-69,-84,-128,8,-128,-97,-83,-94
1491693811609,3,-14,42,89,37,97,38,2,-66
1491693811609,3,-32,-40,-71,103,-74,-86,-55,3
1491693811610,3,-47,-4,-89,-97,-112,-113,-74,-92
1491693811610,3,1,26,77,-11,127,72,24,56
1491693811611,2,-63,95,95,-82,-52,-33,-15,-126
1491693811611,2,90,-67,37,-69,75,80,79,111
1491693811673,3,-37,-18,-100,-71,-102,-87,-73,-22
1491693811673,3,-12,-27,20,-42,-23,-59,-22,-9
1491693811674,0,25,1,65,107,127,113,72,6
1491693811674,0,-25,27,89,16,-38,1,-29,12
1491693811675,1,63,25,127,127,127,50,76,32
1491693811675,1,-49,-47,-69,-81,-97,-81,-82,-79
1491693811676,2,98,-23,46,-96,32,-75,44,81
1491693811676,2,-59,-120,-128,-82,-84,30,-28,-7
1491693811706,3,14,47,-9,-5,-17,81,-10,-76
1491693811706,3,-30,73,127,60,127,127,41,-2
1491693811707,0,-70,-127,-128,-53,-126,-122,-64,-70
1491693811707,0,93,34,97,12,84,65,18,65
1491693811708,1,0,24,80,24,61,-53,87,8
1491693811708,1,1,-98,-35,8,-31,54,-72,2
1491693811709,0,38,-13,-47,16,127,121,20,-14
1491693811709,0,-16,49,-61,-76,-124,-128,-44,-26
1491693811771,1,-5,8,-13,55,-34,-7,19,43
1491693811771,1,-54,48,118,-73,111,50,21,-29
1491693811771,2,26,-36,-128,12,-128,16,-26,-11
1491693811771,2,-15,47,113,24,20,-38,0,-34
1491693811772,3,-12,50,64,-43,65,33,-17,-3
1491693811772,3,42,-28,-89,-72,-128,-128,-1,74
1491693811773,0,-35,35,25,-69,127,127,-38,-30
1491693811773,0,-9,-90,-128,85,-67,-16,35,39
1491693811803,1,-22,32,98,41,66,-128,-51,9
1491693811803,1,-66,1,97,122,124,103,32,-18
1491693811804,2,70,71,127,58,127,76,64,23
1491693811804,2,-44,-31,-70,16,-44,-42,14,-10
1491693811804,1,3,30,97,125,-17,29,39,27
1491693811804,1,37,-44,-128,45,-98,53,15,24
1491693811806,2,-7,-41,-35,-56,-108,-30,-10,-4
1491693811806,2,6,59,85,-74,109,127,58,11
1491693811836,3,6,-66,-103,44,-91,-57,-4,27
1491693811836,3,-33,47,115,-9,69,-8,3,-81
1491693811836,0,9,-21,-90,16,49,127,28,57
1491693811836,0,11,-20,-61,67,-39,32,1,39
1491693811837,1,-23,57,100,-26,127,70,9,5
1491693811837,1,-12,15,40,-13,58,81,77,14
1491693811838,2,-29,15,8,55,-89,-124,-24,-36
1491693811838,2,23,-1,-18,68,113,77,-49,-15
1491693811868,3,6,51,34,-56,-65,-47,-23,6
1491693811868,3,8,-49,-97,114,-123,-95,-17,-44
1491693811869,0,-45,8,-30,-106,-22,36,-37,-22
1491693811869,0,-11,45,76,38,27,17,54,-16
1491693811869,1,24,-36,-128,127,-77,-35,-66,5
1491693811869,1,39,13,-22,-49,127,30,19,59
1491693811871,2,-30,1,127,64,110,69,-5,-42
1491693811871,2,-60,-12,-128,124,-128,-96,-63,-46
1491693811902,3,120,47,76,-64,101,127,81,48
1491693811902,3,-35,17,70,-87,54,67,67,24
1491693811904,0,-2,-81,-107,102,-99,-128,-109,9
1491693811904,0,27,26,-13,-128,76,-1,-14,8
1491693811905,1,3,7,94,33,127,101,44,-20
1491693811905,1,-30,-40,-128,16,-128,19,-23,8
1491693811933,2,-9,16,-5,55,32,-2,41,-11
1491693811933,2,-1,57,57,-120,16,32,16,12
1491693811935,3,-69,-88,-128,101,-121,-107,-56,-35
1491693811935,3,3,-5,56,-26,43,-28,-14,-22
1491693811936,0,7,53,85,34,55,11,-38,8
1491693811936,0,0,-32,2,34,-95,18,15,-52
1491693811937,1,-37,62,127,-68,106,-38,-19,-47
1491693811937,1,127,-10,-94,96,-80,36,21,102
1491693811970,2,-58,-33,-63,-2,-40,1,20,-8
1491693811970,2,-4,-14,-48,-75,-38,-28,-53,-62
1491693811972,3,-55,-74,-71,-82,-33,-3,-20,-24
1491693811972,3,-21,24,93,-57,61,-40,-1,-19
1491693811973,0,76,21,78,53,-82,-24,48,61
1491693811973,0,-46,-20,20,-42,-52,-61,-22,-34
1491693811998,1,0,11,23,88,89,127,20,-62
1491693811998,1,39,-19,-48,-121,-125,17,-6,39
1491693812000,2,-38,-33,-49,-36,68,-31,32,-19
1491693812000,2,16,11,99,97,51,68,-19,77
1491693812001,3,21,25,-69,-82,-37,-69,11,26
1491693812001,3,-29,-78,-60,-44,-32,-49,-128,-71
1491693812031,0,-34,22,127,63,127,127,106,-20
1491693812031,0,9,10,24,-44,40,-128,-122,0
1491693812032,1,-33,40,116,97,127,97,110,27
1491693812032,1,26,26,-10,-33,-10,-38,-38,-4
1491693812033,2,-60,-18,-111,-128,-128,-61,-80,-57
1491693812033,2,42,7,16,69,-29,-39,12,67
1491693812063,3,7,63,53,-128,-62,18,3,-54
1491693812063,3,-62,38,30,64,62,63,-8,-65
1491693812064,0,68,-33,15,127,-108,-71,-18,61
1491693812064,0,-56,-29,-109,-86,-36,-51,78,-13
1491693812066,1,12,-35,53,-40,43,-10,68,-9
1491693812066,1,-11,42,92,92,71,55,-7,-40
1491693812096,2,37,-42,-29,5,26,-37,-9,8
1491693812096,2,-76,-6,-112,98,-56,51,21,-39
1491693812096,3,36,-24,-48,9,-93,-86,-40,80
1491693812096,3,-35,13,79,-51,50,25,14,-128
1491693812097,0,-16,-1,91,122,77,105,-3,91
1491693812097,0,45,-39,-91,-78,-64,105,83,8
1491693812098,1,-14,58,-40,-58,-85,-108,-110,-59
1491693812098,1,48,-2,-35,94,34,104,65,122
1491693812128,2,-39,21,-5,-62,26,17,3,-74
1491693812128,2,28,1,97,35,23,-34,61,-23
1491693812130,3,-47,27,21,121,-80,-26,-61,-19
1491693812130,3,3,-45,3,45,0,-6,53,9
1491693812131,0,56,103,7,-116,85,120,1,-34
1491693812131,0,-16,-42,-107,127,-88,63,44,48
1491693812161,1,45,-8,14,-2,93,-34,-28,-30
1491693812161,1,20,-66,-49,7,26,68,53,117
1491693812162,2,-62,0,-73,-78,27,47,-22,-32
1491693812162,2,13,48,127,-78,93,-59,-53,-58
1491693812162,3,-3,-69,-107,-66,0,56,-39,-45
1491693812162,3,-24,-7,-86,-3,-128,-93,-17,-55
1491693812193,0,28,52,106,100,87,47,28,67
1491693812193,0,-51,-24,-87,-128,-78,59,-8,-44
1491693812194,1,-23,5,100,-53,70,-21,-13,-31
1491693812194,1,5,11,-11,28,-104,-94,-87,28
1491693812195,2,-8,-13,-89,-79,50,47,-82,-126
1491693812195,2,-70,-15,51,-33,122,103,48,-53
1491693812225,3,-13,19,66,126,117,-53,7,64
1491693812225,3,22,49,86,16,127,-78,34,-49
1491693812226,0,-41,-30,-70,-94,-128,43,19,43
1491693812226,0,106,-9,-47,2,-77,-109,-128,46
1491693812227,1,8,5,22,-14,6,127,127,63
1491693812227,1,1,24,106,77,27,-103,-61,-23
1491693812228,2,-98,-23,11,-46,12,79,93,-24
1491693812228,2,80,14,60,-39,44,-22,10,38
1491693812258,3,-18,-38,-109,74,-128,-28,14,8
1491693812258,3,-27,5,0,-5,-99,77,-72,0
1491693812259,0,3,-77,-72,-46,-83,-48,-12,39
1491693812259,0,10,33,103,3,100,77,23,56
1491693812260,1,-5,27,63,-55,-30,20,-25,32
1491693812260,1,-37,-29,-104,66,-69,-43,30,-106
1491693812291,2,127,52,94,24,-11,10,31,113
1491693812291,2,10,-3,-2,-27,-28,-34,23,59
1491693812292,3,1,-32,-84,-99,-51,34,-43,-38
1491693812292,3,-70,17,28,-128,52,65,4,17
1491693812293,0,116,0,58,58,56,22,18,62
1491693812293,0,-89,-57,-77,119,-92,-128,-128,-71
1491693812323,1,13,2,-38,95,19,71,52,-31
1491693812323,1,20,-12,-64,-89,-2,-36,39,2
1491693812324,2,-45,21,91,-71,25,-54,-57,-28
1491693812324,2,38,16,-5,119,-74,119,104,59
1491693812326,3,-2,-6,0,87,56,13,25,11
1491693812326,3,-1,-33,-84,-76,45,-95,-93,-84
1491693812356,0,40,15,86,106,87,-19,-12,21
1491693812356,0,-109,-26,-88,-56,-79,53,39,-98
1491693812357,1,43,40,78,-3,50,-84,-63,-94
1491693812357,1,-36,-41,-66,-96,-96,77,13,121
1491693812358,2,-47,-31,-16,13,-50,-128,-70,-64
1491693812358,2,52,28,48,40,7,-41,8,11
1491693812359,3,-12,-5,47,2,35,103,69,-1
1491693812359,3,23,57,71,13,127,59,-20,7
1491693812388,0,-8,-14,-31,-19,-80,-70,49,18
1491693812388,0,2,-14,19,76,-14,-105,-99,-35
1491693812389,1,-57,-35,-63,-21,-56,-65,-59,-52
1491693812389,1,52,22,31,17,42,54,-5,15
1491693812390,2,-54,-35,-128,-93,-20,-27,92,6
1491693812390,2,-15,31,72,110,17,-38,-42,-95
1491693812420,3,61,52,101,13,102,-111,28,99
1491693812420,3,-8,-38,-82,119,-128,96,29,63
1491693812421,0,-6,-30,-71,90,-45,-124,-128,-114
1491693812421,0,-14,1,69,-82,117,127,20,21
1491693812422,1,-60,-39,-84,-117,-66,-13,4,-5
1491693812422,1,97,36,109,-91,127,92,67,43
1491693812485,2,-20,53,60,105,-92,99,55,-50
1491693812485,2,26,-24,-80,78,42,-32,-61,4
1491693812487,3,-2,-9,10,-82,-51,33,-13,125
1491693812487,3,-13,-14,50,29,8,-79,22,-114
1491693812487,0,37,1,18,-67,45,60,15,95
1491693812487,0,-27,26,84,-111,96,-4,-8,-7
1491693812488,1,-12,-41,-120,127,-83,-39,-53,-93
1491693812488,1,-36,-5,-72,-59,-104,31,75,11
1491693812518,2,-54,12,-1,-32,49,-88,22,78
1491693812518,2,55,40,70,-44,-57,72,24,-52
1491693812519,3,-45,-15,27,11,29,127,88,7
1491693812519,3,-20,-4,19,32,-46,-128,-103,-11
1491693812519,0,-18,0,-59,62,-32,127,124,20
1491693812519,0,30,-13,-33,-52,81,-85,-38,23
1491693812520,1,-47,12,10,22,-39,-19,-53,-74
1491693812520,1,95,13,55,-37,37,127,109,58
1491693812551,2,-35,0,8,81,40,-95,-20,-17
1491693812551,2,-61,-82,-121,-35,-73,-108,-79,-63
1491693812552,3,43,18,34,-63,40,127,61,69
1491693812552,3,-39,-4,-47,19,71,18,27,31
1491693812583,0,48,17,52,-16,-58,49,96,-25
1491693812583,0,20,16,34,-33,50,107,36,83
1491693812584,1,14,-52,-113,56,-120,-128,-45,10
1491693812584,1,-81,27,-19,-49,78,-72,3,-104
1491693812584,2,7,-35,14,45,-39,-38,-105,21
1491693812584,2,26,56,55,49,-5,54,100,93
1491693812615,3,12,1,21,-78,91,127,87,-24
1491693812615,3,3,12,83,118,-25,-110,-100,-27
1491693812616,0,-44,-33,-80,-128,-85,53,25,-107
1491693812616,0,-22,20,77,74,63,-4,-74,36
1491693812617,1,4,-70,-90,-118,-85,33,9,27
1491693812617,1,-34,26,-43,46,-112,-109,-40,-33
1491693812618,2,-19,-9,49,79,89,116,-19,-90
1491693812618,2,-7,25,11,-62,-9,63,73,13
1491693812648,3,25,83,92,127,-58,-60,-3,-31
1491693812648,3,-82,-79,-91,-126,-71,-104,-69,-12
1491693812649,0,-5,38,35,-6,50,-85,-113,-67
1491693812649,0,2,-9,-74,-120,-77,109,107,50
1491693812653,1,-45,-3,-11,-117,92,-38,-128,-82
1491693812653,1,28,-11,-94,-45,-71,58,127,98
1491693812654,2,52,-2,64,87,-6,50,-88,-29
1491693812654,2,-59,-53,-96,-29,-115,-127,-20,-51
1491693812683,3,87,12,55,-45,88,40,8,57
1491693812683,3,-1,0,75,28,-42,-9,75,-42
1491693812684,0,-20,43,98,-30,116,95,96,60
1491693812684,0,-19,50,94,-32,83,45,-60,-54
1491693812685,1,33,-64,-115,49,-128,-123,25,46
1491693812685,1,-37,-14,121,56,45,125,1,-56
1491693812691,2,92,5,17,76,-116,51,17,123
1491693812691,2,-80,-72,-107,-32,-77,-88,-54,-76
1491693812713,3,-26,37,1,-94,127,37,-11,21
1491693812713,3,7,21,88,79,127,-29,33,19
1491693812714,0,52,34,-85,-128,-52,87,74,38
1491693812714,0,-19,-7,-89,99,-62,-96,-27,-69
1491693812715,1,-77,23,84,66,61,-54,-41,-34
1491693812715,1,50,-33,-116,-50,-105,-10,-13,61
1491693812746,2,-69,-21,12,-76,-84,-76,-55,32
1491693812746,2,68,9,39,84,-107,-115,-83,-58
1491693812747,3,-48,-23,18,48,53,119,12,31
1491693812747,3,88,71,22,37,109,127,49,-13
1491693812748,0,-21,56,86,-97,127,-1,11,6
1491693812748,0,15,-91,-128,36,-63,116,57,-9
1491693812749,1,-5,-42,-24,127,-96,-101,-54,-27
1491693812749,1,22,12,103,45,80,88,-65,101
1491693812781,2,-18,-4,35,-97,103,11,-8,-128
1491693812781,2,23,32,53,112,-13,0,-1,114
1491693812782,3,-38,63,57,-38,27,127,60,47
1491693812782,3,61,-53,-77,-55,-13,-94,-52,-67
1491693812782,0,-81,-22,-80,73,97,-76,-57,55
1491693812782,0,-12,-1,-6,94,9,108,74,7
1491693812783,1,-16,-40,-27,87,-128,-112,-55,-88
1491693812783,1,-19,39,16,61,-12,-104,3,-7
1491693812810,2,38,7,20,-34,13,34,41,46
1491693812810,2,5,11,-23,-128,12,0,33,-25
1491693812811,3,27,-61,-86,36,-59,31,44,31
1491693812811,3,-87,14,38,-6,53,26,-77,-80
1491693812812,0,95,4,-57,-22,-128,34,61,52
1491693812812,0,-43,-21,12,97,109,-49,-85,61
1491693812843,1,9,45,71,-128,81,110,73,-35
1491693812843,1,-67,-42,8,63,-128,-5,-14,-42
1491693812844,2,-7,-49,-89,-40,-63,-70,28,-23
1491693812844,2,-13,-1,-6,-5,-2,99,-7,-13
1491693812845,3,41,23,18,24,-98,64,91,42
1491693812845,3,87,29,25,-45,55,-70,-50,77
1491693812875,0,-25,-8,-45,-19,-110,-6,5,-44
1491693812875,0,-45,10,123,62,73,-16,80,-33
1491693812876,1,3,0,-112,10,-89,-128,-40,-22
1491693812876,1,-23,-52,-90,-86,-89,5,10,72
1491693812877,2,-83,1,-18,-64,63,34,-92,-128
1491693812877,2,55,-10,12,27,-94,-104,32,75
1491693812878,3,-56,43,107,-74,120,74,-93,-81
1491693812878,3,75,36,-6,6,-128,95,113,37
1491693812908,0,-36,-71,14,125,63,-23,-50,-22
1491693812908,0,28,6,-102,-128,63,39,-7,-33
1491693812909,1,9,9,27,-48,106,7,50,45
1491693812909,1,-89,-16,-44,-78,-100,127,25,-124
1491693812910,2,77,31,127,121,103,-41,-45,67
1491693812910,2,-39,-9,-63,-47,-112,-38,-4,-84
1491693812941,3,-21,-62,-74,-78,8,-40,-81,50
1491693812941,3,-14,47,97,-64,127,-62,-51,-28
1491693812941,0,0,-5,-16,127,46,116,84,57
1491693812941,0,-11,10,75,-128,-71,-100,-33,6
1491693812942,1,31,10,-15,-84,-75,68,0,-3
1491693812942,1,-93,-102,-128,77,-41,-36,-63,-108
1491693813038,2,65,24,47,-21,79,1,8,29
1491693813038,2,29,39,93,82,110,127,113,26
1491693813039,3,13,26,59,5,-48,-67,21,46
1491693813039,3,48,80,124,100,-29,88,-11,63
1491693813039,0,-20,-57,-128,-80,-128,-44,9,-75
1491693813039,0,23,-36,-97,-19,-44,49,-34,13
1491693813040,1,44,70,127,127,115,57,67,15
1491693813040,1,-22,-28,-128,-117,-71,-108,-53,-27
1491693813071,2,-2,-12,-73,-86,-35,-74,-13,-4
1491693813071,2,-19,-27,5,69,75,-23,-77,11
1491693813074,3,-81,-10,28,-71,23,74,-31,-64
1491693813074,3,127,14,14,124,72,-77,16,122
1491693813074,0,-36,43,36,-59,37,115,-2,76
1491693813074,0,-51,36,110,78,127,-76,-15,-87
1491693813075,0,19,14,-28,-26,26,43,-14,-107
1491693813075,0,21,36,10,-11,-105,34,127,105
1491693813103,1,-30,-80,-128,35,17,-94,-88,-128
1491693813103,1,1,-25,14,83,127,124,75,79
1491693813136,2,-23,27,43,-3,-121,-99,-9,-12
1491693813136,2,8,22,51,-108,-21,109,35,34
1491693813137,3,-18,-11,3,-4,-128,48,5,-8
1491693813137,3,-2,31,121,-24,118,6,59,-17
1491693813138,0,-35,-31,-110,73,-9,-97,-45,-14
1491693813138,0,-15,-55,-123,94,-80,31,-22,-12
1491693813140,1,75,21,3,-89,32,-28,23,56
1491693813140,1,49,4,62,72,-14,-65,26,57
1491693813170,2,-31,8,112,56,58,55,-53,-25
1491693813170,2,-43,-25,-32,-12,-75,92,60,-33
1491693813172,3,-1,-4,13,127,59,-77,-79,-37
1491693813172,3,74,71,66,15,75,127,46,-55
1491693813174,0,95,-15,-91,83,-128,-37,67,61
1491693813174,0,-11,-50,-40,-21,81,-63,-80,-13
1491693813175,1,-37,-9,88,-2,-126,109,64,-21
1491693813175,1,-19,-42,-65,12,-49,45,-67,-62
1491693813201,2,-36,123,127,-76,40,113,30,-13
1491693813201,2,8,-72,-67,87,-61,-88,-102,-58
1491693813203,3,-2,-51,34,-14,-45,19,49,45
1491693813203,3,-28,41,87,-128,-12,-91,-50,-44
1491693813204,1,-9,-37,-108,80,84,103,-40,-23
1491693813204,1,-51,-102,-128,-41,12,-118,-17,-9
1491693813207,2,17,-23,-78,-128,51,35,9,44
1491693813207,2,-15,22,88,92,55,-96,-54,-65
1491693813233,3,12,74,111,-31,23,84,30,42
1491693813233,3,-22,17,-44,-44,28,127,20,24
1491693813235,0,-28,-82,-128,57,-14,-104,-45,-86
1491693813235,0,22,46,127,-29,28,-50,-28,58
1491693813236,1,-57,-80,-128,94,10,28,-21,-74
1491693813236,1,80,50,80,-62,-9,-49,-11,6
1491693813298,2,-29,18,55,31,-8,16,9,12
1491693813298,2,5,-13,63,16,7,18,68,6
1491693813300,3,0,51,55,105,21,40,-9,23
1491693813300,3,-4,-46,21,127,-16,-76,-53,24
1491693813301,0,-32,-56,-128,-58,-20,-124,-26,-62
1491693813301,0,24,28,26,-99,20,91,19,58
1491693813302,1,-11,30,84,-27,-3,-78,22,13
1491693813302,1,-18,-4,-20,-22,17,73,14,-34
1491693813331,2,67,23,-42,35,91,-60,-30,28
1491693813331,2,-12,-51,26,-29,99,87,12,-11
1491693813363,3,33,9,-65,-128,127,-13,47,58
1491693813363,3,-14,-56,-91,110,-112,-39,25,-6
1491693813365,0,-54,-14,41,-46,-53,-25,-41,-37
1491693813365,0,-21,47,1,-105,-12,71,10,-23
1491693813396,2,40,-5,18,6,1,42,62,61
1491693813396,2,-44,6,51,102,34,-3,37,-53
1491693813397,3,77,27,12,-30,-71,-19,-17,54
1491693813397,3,-50,-13,-95,-47,-96,-36,-100,-27
1491693813399,0,-22,-21,5,42,17,66,49,-20
1491693813399,0,82,12,41,77,-87,45,-6,100
1491693813399,1,-51,-2,-43,104,41,-7,3,-83
1491693813399,1,13,28,94,-55,81,-64,32,13
1491693813428,2,2,-26,-81,127,-68,16,-1,27
1491693813428,2,-16,8,-11,6,127,20,-8,-7
1491693813430,0,-22,81,76,-128,-60,-128,-55,-88
1491693813430,0,26,-21,56,95,22,84,-23,60
1491693813431,1,-37,-23,-60,-60,-90,-111,-14,-10
1491693813431,1,4,74,119,-39,-15,-58,58,-17
1491693813433,3,17,39,127,-45,127,127,57,13
1491693813433,3,-22,-123,-128,-71,-79,37,-6,11
1491693813461,0,-33,48,73,-61,-52,-78,-11,-34
1491693813461,0,16,30,-7,67,74,62,-13,-8
1491693813463,1,-15,-32,-19,5,-85,-44,-29,16
1491693813463,1,25,74,44,23,127,-16,33,-12
1491693813464,3,27,-19,-128,37,-33,-53,3,-34
1491693813464,3,-9,66,117,88,118,127,40,44
1491693813465,0,36,30,-88,61,-58,-31,35,40
1491693813465,0,-17,-72,-128,-58,-107,-92,-29,-39
1491693813493,1,-21,87,96,94,109,127,29,23
1491693813493,1,-45,-67,-128,-68,25,48,-25,-47
1491693813495,2,-23,-7,-21,-53,28,23,15,-12
1491693813495,2,34,30,45,-30,15,-60,7,37
1491693813496,3,1,-31,-30,126,57,9,7,-7
1491693813496,3,33,30,-12,-61,89,-22,-30,-42
1491693813497,0,-59,18,61,127,-49,40,47,-19
1491693813497,0,61,31,42,31,87,122,46,14
1491693813526,1,-6,-75,-42,-9,-128,-124,-5,-29
1491693813526,1,-26,-39,34,-97,-93,-7,-84,36
1491693813527,2,11,52,68,-89,127,127,67,-20
1491693813527,2,-26,-51,-69,44,-128,-128,-31,4
1491693813528,3,-28,116,127,11,127,58,-35,-31
1491693813528,3,12,-15,14,31,27,45,61,14
1491693813558,0,20,28,126,-46,95,-40,-64,-9
1491693813558,0,3,44,-1,31,-25,55,12,-19
1491693813562,1,10,89,60,74,49,56,29,-10
1491693813562,1,16,-110,-128,-93,-128,-56,0,25
1491693813563,2,-15,38,72,-56,-47,-58,-97,-37
1491693813563,2,17,37,108,43,127,83,81,53
1491693813564,3,-45,-20,-32,25,17,-23,-9,-8
1491693813564,3,32,63,78,29,-85,49,14,22
1491693813591,0,-1,59,68,-2,127,127,58,-54
1491693813591,0,-21,-114,-128,-55,-128,-128,-128,-66
1491693813593,1,33,-12,39,-58,-17,-79,9,47
1491693813593,1,-66,23,121,21,127,93,3,-28
1491693813594,2,29,-64,-97,-100,-121,-128,-77,-44
1491693813594,2,55,44,103,17,127,127,80,14
1491693813623,3,-41,-54,-125,-128,-108,-6,-13,-14
1491693813623,3,32,23,65,98,-69,-106,-57,-20
1491693813624,0,-49,-15,67,78,93,78,69,30
1491693813624,0,9,28,127,65,-12,79,35,11
1491693813626,1,46,-39,-77,31,-82,-27,9,-10
1491693813626,1,-21,12,-88,-93,70,25,-28,-19
1491693813656,2,-35,-48,-83,69,89,78,40,-22
1491693813656,2,-9,9,-39,-128,61,5,-77,-72
1491693813657,3,-103,40,79,31,72,108,-3,-90
1491693813657,3,26,-1,15,-12,89,-98,61,41
1491693813660,0,43,-70,-84,-37,-60,2,-49,-16
1491693813660,0,-87,-53,13,-96,75,27,18,-45
1491693813753,1,79,52,95,35,72,65,-26,92
1491693813753,1,-47,-19,-61,-23,-7,75,-9,-80
1491693813755,2,24,-29,-72,127,-38,0,15,22
1491693813755,2,-28,-11,16,-13,12,-128,-1,-29
1491693813756,3,30,-27,-68,83,-127,-128,-65,37
1491693813756,3,32,78,127,127,127,127,108,72
1491693813757,0,-12,18,49,-54,24,33,-20,3
1491693813757,0,-56,-31,-128,-62,-116,-19,-16,-18
1491693813818,1,32,-39,-21,16,41,85,98,84
1491693813818,1,-47,9,-25,103,32,32,-46,-85
1491693813819,2,4,7,6,-102,46,17,-21,9
1491693813819,2,-1,27,13,71,-30,-27,16,6
1491693813821,0,-50,27,54,119,67,-36,45,-41
1491693813821,0,38,-52,-77,-127,-37,88,-57,52
1491693813821,3,-18,-54,-77,-128,-41,7,-68,-42
1491693813821,3,-86,-72,-114,-128,-72,-63,-90,-97
1491693813851,0,74,27,37,106,14,63,74,115
1491693813851,0,-20,86,120,-62,127,-28,11,-21
1491693813852,1,-7,-26,-14,127,-63,-38,47,-31
1491693813852,1,-38,-63,-100,-79,8,4,20,22
1491693813854,2,48,6,-25,97,-58,-94,5,58
1491693813854,2,16,39,44,50,73,69,-14,37
1491693813855,3,-32,-32,-25,83,-84,-77,-66,-72
1491693813855,3,-3,46,127,-80,102,126,43,13
1491693813883,0,-26,-39,-68,49,48,-105,-35,-103
1491693813883,0,16,-49,-128,-67,-128,-99,-53,4
1491693813884,1,-33,7,34,-30,91,68,42,53
1491693813884,1,51,18,-14,82,-73,-76,-66,-57
1491693813885,2,-36,-10,-14,3,19,-63,-33,-20
1491693813885,2,-16,32,86,-98,95,61,33,-5
1491693813886,3,-53,-31,-38,90,102,97,7,-26
1491693813886,3,66,48,118,27,-47,-25,28,15
1491693813916,0,-70,27,104,-113,52,24,-38,-21
1491693813916,0,3,-62,-128,0,-120,5,31,-3
1491693813919,1,-15,-15,43,24,-79,-111,-64,-7
1491693813919,1,-37,8,53,-61,58,104,93,16
1491693813920,2,20,-45,-89,89,-127,75,-52,-15
1491693813920,2,-46,-10,27,-34,86,79,10,37
1491693813948,3,52,38,76,-65,83,110,59,-16
1491693813948,3,29,-1,-25,88,49,95,-24,32
1491693813950,0,-14,3,-40,84,-22,-10,32,0
1491693813950,0,2,-27,46,41,81,-15,36,25
1491693813952,1,-1,-45,-128,-102,55,54,10,-24
1491693813952,1,51,24,24,-29,77,4,39,24
1491693813953,2,22,9,15,-8,74,-86,92,72
1491693813953,2,-16,-7,11,36,73,-6,-109,-56
1491693813981,3,-2,52,127,127,41,-78,-7,-17
1491693813981,3,9,-25,-114,-50,-76,-66,-27,23
1491693813983,0,-79,-30,5,-24,-17,17,-25,-97
1491693813983,0,9,-11,36,-91,-70,99,61,42
1491693813984,1,-14,36,-9,-111,-81,-65,-39,27
1491693813984,1,-35,-52,-93,87,-124,-27,-49,-104
1491693814013,2,4,-26,49,-72,64,-3,54,80
1491693814013,2,31,-29,-90,-63,-11,49,-67,-112
1491693814016,3,90,49,45,-36,-22,101,21,79
1491693814016,3,-25,21,15,12,-9,78,-2,-29
1491693814018,0,-32,-16,-57,-106,-101,-76,72,76
1491693814018,0,-45,-26,36,42,43,19,-15,-22
1491693814046,1,1,52,14,-71,-93,10,40,14
1491693814046,1,21,-52,-96,24,-62,-98,49,59
1491693814048,2,10,54,127,-48,127,127,-86,-3
1491693814048,2,-57,-8,-104,-67,-128,40,41,-28
1491693814049,3,-11,-100,-128,59,-37,-128,-77,-23
1491693814049,3,8,27,101,6,119,78,27,85
1491693814078,0,-7,8,74,-45,17,43,9,-98
1491693814078,0,64,69,111,-48,127,-45,-34,30
1491693814081,1,-15,-1,-11,-24,-26,-55,-10,-33
1491693814081,1,59,4,-7,-128,53,77,81,78
1491693814082,2,-46,-50,-128,89,-119,-113,-56,-68
1491693814082,2,26,8,-65,13,51,-85,-34,-20
1491693814111,3,17,2,80,31,78,96,93,54
1491693814111,3,-69,-21,-11,73,-82,-6,-85,-87
1491693814112,0,-2,27,26,-105,-61,-57,-12,16
1491693814112,0,15,4,-24,64,-128,66,24,30
1491693814114,1,55,13,23,2,88,55,5,-34
1491693814114,1,13,17,72,-50,44,17,31,44
1491693814115,2,-6,-7,114,59,-57,57,44,-95
1491693814115,2,-29,-42,-101,-57,-128,-128,-52,15
1491693814176,3,34,-14,-38,79,9,124,-27,42
1491693814176,3,-55,-5,98,25,104,29,-2,-2
1491693814177,0,33,50,75,82,111,46,45,-76
1491693814177,0,-29,-16,-41,102,-52,-33,22,-16
1491693814180,1,-30,-4,0,-122,-91,-51,-48,-28
1491693814180,1,-17,7,2,-20,13,-44,1,-13
1491693814180,2,-3,-43,-80,103,-27,92,-37,66
1491693814180,2,23,26,124,99,91,37,75,-33
1491693814208,3,-28,-6,-105,-29,1,-78,-54,25
1491693814208,3,-21,-64,-94,-97,-38,-92,-47,-56
1491693814210,0,-46,12,8,-128,69,-46,-15,-64
1491693814210,0,108,47,105,99,30,127,108,94
1491693814211,1,-8,11,3,127,-23,-114,-14,13
1491693814211,1,-93,-34,-40,-80,-46,18,-35,-95
1491693814212,2,39,25,-21,87,65,95,78,82
1491693814212,2,18,19,66,-99,-10,15,-36,-39
1491693814241,3,11,-69,-38,-21,-37,67,68,95
1491693814241,3,22,46,46,-26,-1,-96,-44,10
1491693814242,0,-26,-28,-22,-75,-42,19,-1,-8
1491693814242,0,1,30,52,-93,127,-128,-51,-36
1491693814243,1,-42,41,61,-4,66,37,36,-44
1491693814243,1,-26,10,84,87,-17,43,75,2
1491693814244,2,67,-41,-89,-84,-62,-97,-119,44
1491693814244,2,-95,-29,-40,15,-10,71,-64,-93
1491693814274,3,9,15,-11,-86,50,-56,36,31
1491693814274,3,14,3,-104,88,-50,-14,-22,12
1491693814276,0,-55,32,127,-54,127,68,-3,-32
1491693814276,0,-38,-38,-93,90,-128,-25,-6,-21
1491693814276,1,12,-62,-68,76,-28,-93,-84,-24
1491693814276,1,-6,65,76,46,25,33,73,-22
1491693814278,2,23,-16,1,13,-11,-13,-61,32
1491693814278,2,47,79,87,-12,117,7,78,103
1491693814306,3,-53,-7,-26,-63,-60,24,-32,-67
1491693814306,3,18,-66,-126,-54,-67,-127,6,-9
1491693814307,0,44,10,-17,-29,9,-33,-20,30
1491693814307,0,-32,9,44,-93,127,-53,20,-8
1491693814340,1,-26,-17,-20,96,-54,127,47,-40
1491693814340,1,26,-27,-73,-95,-77,-93,-39,20
1491693814371,2,-29,-12,8,-33,-31,-58,-23,-28
1491693814371,2,15,25,70,-67,105,94,36,57
1491693814372,3,-27,-1,65,70,-55,-69,37,36
1491693814372,3,64,14,-93,-72,-67,42,9,18
1491693814373,0,-47,-26,0,7,21,63,-19,-49
1491693814373,0,35,22,32,91,-56,-56,-54,51
1491693814375,1,-87,-26,-9,-48,48,-92,86,-24
1491693814375,1,119,84,107,64,127,127,25,96
1491693814403,2,-30,6,-88,-29,-89,-22,28,57
1491693814403,2,-18,-67,-105,74,-22,-19,-30,5
1491693814405,3,-17,-15,-60,59,-34,18,10,-74
1491693814405,3,-11,23,16,-45,-25,-108,-69,16
1491693814501,0,26,10,23,-38,-76,-67,36,1
1491693814501,0,-77,-70,-128,-111,-92,-74,-8,-70
1491693814502,1,48,20,28,-59,43,17,-18,7
1491693814502,1,-39,-3,25,-45,83,93,13,-57
1491693814503,2,45,37,86,127,89,12,-58,12
1491693814503,2,14,-17,19,72,-24,76,56,83
1491693814504,3,-56,-21,9,-95,5,-97,-31,-32
1491693814504,3,63,39,40,113,-12,-18,-30,1
1491693814533,0,-24,16,29,36,43,77,45,74
1491693814533,0,-15,-4,-7,18,21,-47,-53,-70
1491693814535,1,111,6,-35,109,-26,127,-15,96
1491693814535,1,-82,-61,-92,-99,-75,-75,-17,5
1491693814536,2,55,21,42,63,58,-31,1,24
1491693814536,2,6,13,122,49,121,58,36,66
1491693814539,2,28,-35,-128,-76,-118,-56,48,-26
1491693814539,2,-58,-42,-22,88,120,-12,-20,-13
1491693814566,3,61,22,30,-114,-9,87,47,29
1491693814566,3,-51,6,-29,-92,127,-57,3,25
1491693814567,0,-6,0,111,87,-104,14,-45,-66
1491693814567,0,-34,22,-96,-126,34,-4,18,-79
1491693814631,1,61,-26,38,77,8,-20,20,68
1491693814631,1,11,-13,56,50,65,71,54,5
1491693814631,2,-28,32,-128,-128,-125,26,55,58
1491693814631,2,-27,-47,-5,45,-17,51,-39,-34
1491693814632,3,11,33,108,75,127,4,-13,37
1491693814632,3,97,40,1,26,26,-59,55,37
1491693814633,0,-45,-12,73,127,127,18,-18,-40
1491693814633,0,17,12,-9,-110,-107,65,18,53
1491693814663,1,-128,-66,-128,-25,3,20,-71,-128
1491693814663,1,127,61,87,-23,-38,40,59,99
1491693814664,2,-80,-35,-126,-121,-41,47,24,-88
1491693814664,2,46,38,100,2,83,-77,9,33
1491693814665,3,-85,-14,-30,38,-4,24,-11,-79
1491693814665,3,42,-7,65,-54,-78,-46,-52,-23
1491693814666,3,-7,-35,-108,-32,-48,12,-35,68
1491693814666,3,62,-64,-94,101,-105,-66,-95,38
1491693814696,0,-13,17,39,-17,92,81,61,20
1491693814696,0,35,-50,-90,79,-97,-15,16,20
1491693814697,1,-26,40,93,-49,92,127,39,-40
1491693814697,1,25,56,92,13,58,-10,55,76
1491693814697,2,-47,-40,-128,104,-63,-57,23,-48
1491693814697,2,41,19,123,117,127,55,11,-32
1491693814698,3,-34,-28,-101,-19,-128,-3,2,-4
1491693814698,3,-8,-13,-27,92,35,1,0,33
1491693814761,0,-45,67,121,-6,105,-23,101,-29
1491693814761,0,76,-74,-108,-85,-110,-62,-42,40
1491693814761,1,-30,-19,-40,27,-53,-64,-7,0
1491693814761,1,-69,-37,49,86,10,-84,-33,-7
1491693814762,2,56,75,63,-69,81,-3,-41,-85
1491693814762,2,-40,-20,-74,73,-49,-71,-18,67
1491693814763,3,45,-41,-80,-128,-34,-80,-57,-21
1491693814763,3,-86,-46,-8,-93,-124,-40,-51,-48
1491693814793,0,-32,-29,-60,26,2,-34,-43,14
1491693814793,0,80,67,127,-24,88,43,56,26
1491693814794,1,36,62,122,-60,56,101,69,-12
1491693814794,1,-115,-8,-119,127,-39,-36,3,-87
1491693814794,0,-2,45,31,-75,70,-116,13,-121
1491693814794,0,-17,3,-124,105,12,42,-128,-26
1491693814795,1,115,-15,-29,84,-20,34,52,112
1491693814795,1,-76,-35,-28,8,127,124,-31,-72
1491693814826,2,-49,-24,43,28,-20,-70,-41,16
1491693814826,2,44,44,21,-65,38,19,34,27
1491693814828,3,0,-56,-47,103,-30,-18,-5,-7
1491693814828,3,-6,76,-42,-54,39,0,-32,-62
1491693814829,0,44,-74,-77,77,39,26,-17,-10
1491693814829,0,21,62,127,-112,34,46,10,9
1491693814830,1,-21,28,-50,-75,-101,-19,6,103
1491693814830,1,-9,-82,-29,71,-128,106,-55,-100
1491693814858,2,68,71,29,-39,53,-10,83,81
1491693814858,2,-70,-85,-128,7,-105,-113,-104,-26
1491693814859,3,-38,-12,90,5,83,9,-24,1
1491693814859,3,16,6,-68,-75,-86,98,62,50
1491693814923,0,65,-25,-118,127,-112,37,-24,71
1491693814923,0,15,1,-11,-117,-9,90,-29,-6
1491693814956,1,-44,-3,-15,60,-84,-14,-25,-59
1491693814956,1,-31,-14,25,16,82,-125,-70,-111
1491693814957,2,-39,9,80,1,50,127,8,26
1491693814957,2,0,32,38,127,-89,-37,127,44
1491693814958,3,30,39,122,-3,127,-53,-67,-65
1491693814958,3,-41,-45,-49,79,65,127,58,48
1491693814959,0,17,-11,-8,63,-128,-126,-83,-124
1491693814959,0,-54,16,47,-70,65,44,-65,-45
1491693814988,1,61,20,59,-24,-13,43,-14,31
1491693814988,1,50,37,87,-80,85,-57,9,14
1491693814990,2,-3,-50,-61,27,-67,52,59,56
1491693814990,2,-20,6,9,-78,107,-117,-26,-55
1491693814990,0,26,8,-84,-125,50,89,27,13
1491693814990,0,9,17,101,-24,-12,58,83,80
1491693815021,3,-82,44,58,35,127,68,9,-121
1491693815021,3,74,11,-118,73,-128,-91,18,111
1491693815023,0,-2,-14,-88,-68,22,43,1,-44
1491693815023,0,-14,-40,-79,67,-70,-26,-6,-79
1491693815025,1,-1,10,54,11,-29,44,-4,26
1491693815025,1,-5,40,66,16,-128,23,-30,-45
1491693815026,2,29,-45,-26,68,67,-66,-44,103
1491693815026,2,-47,31,-42,-76,-20,12,15,-17
1491693815053,3,-5,-4,-90,-35,-112,-100,52,-61
1491693815053,3,7,-31,-79,-63,-64,-43,-94,40
1491693815055,0,-30,64,127,-30,71,67,43,6
1491693815055,0,-51,-58,-80,127,-76,-118,-71,-126
1491693815056,1,51,20,2,-128,98,-16,-42,96
1491693815056,1,-60,-12,56,-114,23,127,127,7
1491693815057,2,72,53,23,-26,24,-5,-54,-65
1491693815057,2,38,55,99,49,60,96,64,113
1491693815086,3,-32,-40,-45,-57,-92,-95,-37,-61
1491693815086,3,23,-39,19,53,67,2,-72,4
1491693815087,0,-16,-29,-17,33,27,69,-33,7
1491693815087,0,-48,43,45,-82,11,10,-9,-40
1491693815089,1,97,32,19,-103,61,9,-5,68
1491693815089,1,-33,-9,-4,100,-78,-2,17,-13
1491693815091,2,-49,-51,-104,-83,-8,-128,-50,-8
1491693815091,2,15,27,48,-112,54,-7,-25,-9
1491693815119,3,-35,-32,7,102,-7,93,33,-27
1491693815119,3,18,24,-21,9,79,54,2,-8
1491693815120,0,12,10,-7,3,38,23,33,60
1491693815120,0,-30,-88,-126,88,37,67,47,-83
1491693815122,1,-36,5,92,-19,21,68,-67,31
1491693815122,1,40,72,127,114,81,108,47,66
1491693815124,2,-28,30,-19,-82,-18,44,78,-27
1491693815124,2,-23,-89,-113,93,7,-76,-105,-42
1491693815151,3,2,39,42,-67,33,90,45,-5
1491693815151,3,25,13,-27,91,26,-45,13,-35
1491693815151,0,-4,-23,-44,127,-26,-18,-61,-16
1491693815151,0,39,16,84,-128,20,33,22,95
1491693815152,1,-48,-42,-79,93,19,-93,-12,-61
1491693815152,1,-19,-1,-19,-128,8,-79,-28,-10
1491693815216,2,3,40,107,-18,-17,43,15,-27
1491693815216,2,9,-36,20,-79,23,52,-20,44
1491693815218,3,-25,92,127,-31,-6,119,49,33
1491693815218,3,65,35,-13,22,-1,-115,-71,-46
1491693815219,0,-35,-58,-96,67,0,8,35,-28
1491693815219,0,30,-57,-99,-128,5,-22,-63,-1
1491693815220,1,12,65,109,-13,-8,-60,1,6
1491693815220,1,-40,-32,-115,-91,9,48,48,-16
1491693815281,2,63,16,127,-6,69,-58,5,12
1491693815281,2,-19,1,-22,117,-51,-25,-87,-1
1491693815281,3,40,-48,-63,-2,70,-13,50,29
1491693815281,3,-22,69,75,7,104,51,9,-9
1491693815282,0,-7,-53,10,104,91,37,22,-17
1491693815282,0,-17,51,127,-128,81,49,69,70
1491693815283,1,-39,-56,-128,127,-118,-116,-96,-126
1491693815283,1,96,-40,-88,-89,-89,-5,34,97
1491693815379,2,-52,42,36,-125,56,26,-8,-23
1491693815379,2,24,23,26,-1,24,-28,-30,-47
1491693815381,3,-20,14,70,-22,77,97,35,21
1491693815381,3,-37,8,6,-72,76,12,1,-20
1491693815382,0,-46,-21,-43,49,-128,-123,-57,-27
1491693815382,0,90,38,52,41,30,68,39,48
1491693815411,3,-31,-80,-89,-110,-66,-117,-105,-70
1491693815411,3,35,10,127,99,124,47,53,73
1491693815413,0,5,-25,-119,-7,-105,32,5,23
1491693815413,0,-37,15,91,116,-44,-60,-2,-20
1491693815414,1,-25,23,79,-52,99,98,37,-28
1491693815414,1,-33,-58,-50,-6,-113,-90,-104,-80
1491693815415,3,-16,-35,-39,52,-10,-23,-7,34
1491693815415,3,-16,9,-62,-112,-27,-4,-63,-51
1491693815444,1,21,40,86,104,85,4,87,36
1491693815444,1,-14,-22,6,40,-4,-29,-49,-38
1491693815446,2,4,58,127,-23,35,127,67,37
1491693815446,2,-22,-5,-128,-13,-26,13,-109,-59
1491693815447,0,-48,-24,14,-19,-31,-66,-17,-16
1491693815447,0,18,-37,52,-66,20,-8,-9,31
1491693815448,1,31,82,84,36,-25,13,6,25
1491693815448,1,-33,4,127,22,127,127,54,-21
1491693815476,2,59,-75,-128,-126,-82,22,21,-31
1491693815476,2,2,57,72,24,-46,-42,-6,-29
1491693815477,3,70,-31,-85,-46,-48,-69,-58,24
1491693815477,3,5,29,120,87,84,75,51,-2
1491693815508,0,-5,-9,-36,100,-4,9,-34,18
1491693815508,0,-31,-29,-114,-128,35,-4,-44,-38
1491693815510,1,0,-53,85,103,14,70,26,4
1491693815510,1,-38,-24,-7,65,-92,-97,-28,-21
1491693815512,2,-4,33,127,68,127,108,67,-9
1491693815512,2,52,44,121,69,53,-13,19,88
1491693815513,3,-5,0,-76,-128,-55,-7,21,27
1491693815513,3,55,27,85,-70,85,80,-2,1
1491693815541,0,-8,29,-53,61,25,-15,23,-10
1491693815541,0,10,-80,-70,-75,-128,37,0,-11
1491693815542,1,-41,-31,-60,-30,-86,-42,-46,-69
1491693815542,1,-31,-48,-34,-39,23,-15,31,10
1491693815573,2,24,28,47,-68,44,45,-18,59
1491693815573,2,-42,33,80,9,-6,-100,-20,-68
1491693815575,3,-3,-5,114,57,127,127,17,-21
1491693815575,3,-2,-19,-114,-71,-41,-77,-10,9
1491693815578,0,16,52,100,-29,95,-6,-33,-12
1491693815578,0,13,9,19,42,-103,-76,36,56
1491693815579,1,-6,-21,-35,-24,-72,-56,-42,-10
1491693815579,1,-12,7,95,38,108,93,26,7
1491693815606,2,-60,-13,-97,-60,-15,-82,7,-48
1491693815606,2,-22,-22,-25,56,-22,73,21,-27
1491693815607,3,4,95,111,61,127,67,24,19
1491693815607,3,28,-34,-111,-23,15,21,37,21
1491693815609,0,-50,7,-95,-44,-91,4,-45,-6
1491693815609,0,72,54,104,99,127,127,67,11
1491693815610,1,-50,-94,-128,-78,-104,-76,-105,-40
1491693815610,1,14,12,80,19,74,76,-86,-1
1491693815640,2,8,43,108,52,72,0,63,26
1491693815640,2,-70,-55,-128,-67,-23,-31,-75,-73
1491693815641,3,21,40,127,-11,-32,-19,30,20
1491693815641,3,19,16,23,63,-26,-51,-40,-29
1491693815641,0,-26,-54,-81,-47,-86,-67,-38,-49
1491693815641,0,-41,-19,-40,-25,-27,-49,-35,-44
1491693815643,1,69,58,75,83,127,18,57,61
1491693815643,1,2,12,-100,33,-15,8,12,33
1491693815671,2,46,26,88,18,126,127,45,19
1491693815671,2,-47,-36,-123,88,92,39,32,-12
1491693815672,3,-52,-26,-69,-37,-80,-38,-73,-70
1491693815672,3,19,30,104,79,26,14,37,48
1491693815673,0,-52,-70,-125,-77,-43,-32,-70,-88
1491693815673,0,64,25,111,-71,86,84,6,125
1491693815674,1,32,10,-84,82,-32,127,23,58
1491693815674,1,-28,-7,-56,42,-109,-112,-95,-83
1491693815704,2,-53,1,-39,7,-40,54,38,8
1491693815704,2,36,9,48,-57,77,96,17,-61
1491693815705,3,-98,-2,38,-98,127,64,61,-20
1491693815705,3,68,-40,-128,-64,-128,-128,-36,42
1491693815706,0,56,22,-21,5,114,-23,2,60
1491693815706,0,-2,59,94,27,80,34,-9,-25
1491693815707,1,-11,16,27,90,-51,-95,12,-58
1491693815707,1,-37,-6,88,-46,38,48,-31,-70
1491693815768,2,-19,-5,-40,-11,-32,-123,37,14
1491693815768,2,-37,-80,-128,-112,-121,17,-48,29
1491693815770,3,-9,-43,-56,90,-57,-20,3,-29
1491693815770,3,-34,53,104,-90,90,114,46,0
1491693815771,0,56,-25,-81,127,-76,-56,-85,5
1491693815771,0,12,20,31,-55,-107,-125,-1,-21
1491693815772,1,-12,18,88,-68,96,107,35,13
1491693815772,1,-37,-15,-27,74,-39,69,21,34
1491693815833,2,43,10,28,-89,109,69,13,-1
1491693815833,2,-39,68,52,96,45,-102,-22,37
1491693815836,3,34,-35,-91,70,-108,-44,-67,8
1491693815836,3,-9,-65,-21,-93,5,-69,51,31
1491693815837,0,-70,28,127,-43,86,125,-43,-41
1491693815837,0,26,7,84,73,65,-6,66,0
1491693815838,1,7,-4,-27,45,6,41,-29,-34
1491693815838,1,15,1,-21,-10,-16,-66,-61,-13
1491693815866,2,-17,-35,14,89,11,66,-4,12
1491693815866,2,-33,-9,77,67,121,93,0,-26
1491693815868,3,39,48,111,-128,-17,1,107,73
1491693815868,3,72,-47,-128,104,-72,47,-12,87
1491693815869,0,-37,3,30,50,-120,43,-50,-44
1491693815869,0,94,47,32,-55,61,-16,77,121
1491693815870,3,28,-1,-61,90,-48,2,-69,42
1491693815870,3,-11,69,127,-46,68,-5,83,-41
1491693815964,0,-42,-34,-89,118,-19,121,58,-20
1491693815964,0,-33,-41,-92,31,-128,4,-87,-85
1491693815966,1,104,41,74,-67,21,-17,-27,126
1491693815966,1,-47,63,111,-46,76,115,62,-25
1491693815967,2,60,-3,-78,-27,-96,-128,-40,-40
1491693815967,2,-16,-16,24,-86,22,-7,-85,37
1491693815968,3,-25,-19,-73,32,-6,99,16,-60
1491693815968,3,33,-42,-72,90,14,-69,-34,57
1491693815996,0,14,88,127,-97,127,78,79,12
1491693815996,0,-6,-56,-93,93,-128,-79,17,-121
1491693815998,1,-10,42,90,-128,127,-110,-28,11
1491693815998,1,-19,-62,-99,11,-123,-48,-55,-24
1491693816000,2,49,-51,0,21,63,-39,20,46
1491693816000,2,4,56,69,18,93,88,-8,18
1491693816001,3,-44,-30,-103,-75,-16,-32,25,16
1491693816001,3,-8,33,64,-118,-119,112,47,-77
1491693816028,0,-14,-12,16,27,-107,-40,26,74
1491693816028,0,27,11,44,-25,76,84,33,-44
1491693816030,1,-16,3,36,47,99,1,3,-3
1491693816030,1,14,87,114,-95,127,63,-27,60
1491693816031,3,-14,9,27,-110,57,7,-7,14
1491693816031,3,34,1,-92,-28,-53,96,-1,-43
1491693816032,0,31,22,81,24,-42,-41,56,-16
1491693816032,0,-51,-24,-102,-107,-127,69,-95,63
1491693816158,1,-28,-26,22,1,40,-1,18,9
1491693816158,1,-64,45,117,73,115,1,7,12
1491693816161,2,67,-11,-81,-7,-36,85,34,-12
1491693816161,2,11,-6,42,-50,40,-13,28,-38
1491693816162,3,12,8,-66,-36,-128,-95,-49,-26
1491693816162,3,-125,-18,54,127,22,-90,65,-50
1491693816163,0,63,44,75,-31,46,69,-80,-94
1491693816163,0,-9,39,35,-36,88,65,120,107
1491693816224,1,-12,-61,-69,102,-114,-59,-62,-4
1491693816224,1,23,-3,28,-34,88,108,-9,-58
1491693816225,2,-27,-12,-17,-7,5,-120,2,27
1491693816225,2,8,-6,-48,-20,-56,-114,-59,-72
1491693816226,3,-1,29,65,-95,83,69,-17,13
1491693816226,3,41,-33,-109,104,-128,46,12,60
1491693816227,3,-37,-25,-23,-15,30,13,-82,-84
1491693816227,3,-14,3,74,-53,98,87,26,-19
1491693816256,0,28,70,123,75,-3,17,-18,14
1491693816256,0,-9,-4,-4,-59,-45,1,-18,76
1491693816257,1,-49,-37,-128,-100,-128,-128,5,-52
1491693816257,1,-8,11,6,83,-3,-4,-19,-39
1491693816260,2,104,23,28,-53,124,73,45,63
1491693816260,2,21,22,8,19,-14,-51,1,42
1491693816261,1,-29,-14,-76,-128,-74,-37,14,-49
1491693816261,1,-21,7,25,55,12,-50,-15,-71
1491693816289,2,24,-1,28,-124,-56,28,44,57
1491693816289,2,-77,-36,-27,37,-24,98,0,-111
1491693816291,3,13,4,-26,-128,-57,-97,-43,7
1491693816291,3,1,-15,21,95,5,127,41,97
1491693816292,1,73,30,-45,11,5,82,13,114
1491693816292,1,-72,-4,42,6,100,7,81,-29
1491693816293,2,79,-36,-54,104,1,-61,34,84
1491693816293,2,-30,6,83,5,55,-56,-49,12
1491693816321,3,41,55,72,11,-26,-49,-13,56
1491693816321,3,-35,-41,-95,-85,15,90,-19,-84
1491693816323,0,-57,-57,-72,105,-128,-86,-20,-16
1491693816323,0,25,13,71,67,110,63,81,-15
1491693816325,1,-25,13,35,84,-23,73,50,-58
1491693816325,1,41,33,58,7,-104,50,28,58
1491693816326,2,33,9,3,-128,25,127,1,-22
1491693816326,2,-43,-9,-70,125,-117,-89,-62,-27
1491693816360,3,-21,20,11,-6,64,127,39,25
1491693816360,3,-38,-88,-128,14,-128,25,-4,-35
1491693816362,0,38,7,-41,-101,-17,-58,-121,15
1491693816362,0,-67,-16,7,114,44,-19,10,-24
1491693816363,1,93,9,33,-27,-51,0,20,52
1491693816363,1,-56,13,85,-51,124,-119,-41,-94
1491693816386,2,75,23,61,89,38,-34,24,99
1491693816386,2,-36,24,22,-73,-128,-65,-40,-4
1491693816388,3,-56,-93,-128,99,-91,-128,-46,-84
1491693816388,3,67,-36,-45,-128,68,-13,-23,-14
1491693816389,0,-52,51,97,-88,127,99,39,-69
1491693816389,0,38,55,88,-2,125,115,42,87
1491693816391,1,42,-36,-36,-73,-16,65,-31,-2
1491693816391,1,-7,13,-18,-61,-128,-128,-5,-16
1491693816418,2,-68,-40,-11,-2,10,-39,-31,-63
1491693816418,2,19,-25,-40,-30,-13,-17,43,-16
1491693816419,3,-4,45,105,60,127,127,78,91
1491693816419,3,53,37,17,55,54,97,-6,16
1491693816420,0,-20,-2,-19,-70,-97,-128,-26,53
1491693816420,0,-31,-34,-73,98,-97,60,18,-53
1491693816483,1,-33,-54,-84,-56,-114,-89,-16,-15
1491693816483,1,42,11,-29,-128,-16,-70,-42,39
1491693816484,2,10,50,64,60,127,105,123,32
1491693816484,2,7,14,50,-101,82,28,-49,56
1491693816485,3,-31,6,47,-2,43,-87,19,-53
1491693816485,3,-36,-44,-68,80,-43,-30,6,-67
1491693816486,0,-44,-29,-48,-41,-20,12,9,29
1491693816486,0,34,47,-49,33,80,44,-6,-21
1491693816515,1,-29,3,-35,28,-52,-65,-22,-41
1491693816515,1,-42,-57,-68,81,-87,-14,-116,-7
1491693816517,2,-6,8,28,-9,50,-92,32,11
1491693816517,2,-27,-27,-47,-26,-5,37,14,-62
1491693816518,3,1,78,119,-67,58,-34,30,18
1491693816518,3,24,-66,-54,79,-10,110,18,84
1491693816519,0,5,-11,-59,20,-115,-100,-104,-106
1491693816519,0,5,-28,37,-58,-46,82,18,34
1491693816548,1,-14,11,72,-34,106,33,-1,-78
1491693816548,1,-5,50,120,-96,57,63,58,64
1491693816581,2,-95,-74,-53,-23,-24,84,-39,-110
1491693816581,2,103,49,5,42,-50,-18,69,61
1491693816583,3,-80,-23,-6,-19,-59,-26,-61,-14
1491693816583,3,-57,22,76,-38,49,-45,-60,-112
1491693816584,0,68,72,100,91,127,127,82,119
1491693816584,0,6,-25,-72,43,-62,-102,20,60
1491693816585,1,-8,-87,-117,-38,-106,51,-36,-21
1491693816585,1,-17,-6,-37,96,-29,5,-18,3
1491693816613,2,-34,-6,60,70,81,44,44,-24
1491693816613,2,-60,29,58,37,-88,52,-19,-15
1491693816615,3,47,34,41,7,-1,-36,-9,16
1491693816615,3,-36,5,-37,-128,-6,16,-20,-90
1491693816616,0,84,48,69,-128,45,89,83,113
1491693816616,0,-25,-85,-25,103,-36,-82,-112,-109
1491693816617,1,32,-48,-70,-97,-46,93,-39,105
1491693816617,1,-44,30,19,64,-38,3,3,-47
1491693816646,2,36,11,-8,-19,44,61,-10,12
1491693816646,2,-24,16,9,-81,-11,20,76,-6
1491693816648,3,35,81,127,-59,127,82,19,27
1491693816648,3,23,-60,-103,75,-128,-90,22,1
1491693816649,0,-66,-56,-34,-51,-57,97,-41,-62
1491693816649,0,54,97,99,-57,127,90,53,48
1491693816650,1,38,-25,-114,-4,-122,-110,-54,4
1491693816650,1,28,74,127,-86,127,127,127,127
1491693816744,2,-47,-39,-128,72,-128,-128,-122,-128
1491693816744,2,-54,-106,-58,-128,-12,31,-10,68
1491693816746,3,19,93,119,85,127,6,78,-57
1491693816746,3,-12,-10,-50,74,-113,-88,-31,88
1491693816776,0,25,-1,-40,-24,-84,-128,-87,-35
1491693816776,0,-56,8,68,65,90,94,39,12
1491693816777,1,14,-49,-77,-42,-56,-64,-42,-26
1491693816777,1,5,47,110,-57,81,-79,-45,-67
1491693816778,2,21,-34,-47,-128,-89,59,23,13
1491693816778,2,-38,-35,-34,-11,-73,-96,-31,-69
1491693816779,3,7,70,127,-39,127,37,47,54
1491693816779,3,-27,-60,-118,30,-128,-12,-19,-40
1491693816808,0,40,-10,-11,-83,9,-5,-1,-33
1491693816808,0,9,42,124,-22,88,-119,40,1
1491693816813,1,32,-17,-11,29,-36,93,5,77
1491693816813,1,-14,53,117,-47,60,127,72,-105
1491693816814,2,-55,-40,-75,116,-128,-128,-79,5
1491693816814,2,52,39,127,-118,116,127,39,7
1491693816815,1,-22,24,-58,6,3,29,-113,26
1491693816815,1,37,16,51,127,74,-73,69,-29
1491693816840,2,-11,29,-35,-128,26,-2,9,85
1491693816840,2,-56,-64,-73,-48,-114,-121,-17,-14
1491693816841,3,39,13,127,30,127,38,35,44
1491693816841,3,-61,-18,-113,22,-126,116,-81,-128
1491693816842,0,13,-30,48,-73,124,-83,-18,17
1491693816842,0,-16,32,-2,-39,73,35,71,-97
1491693816843,1,32,-59,-128,33,-84,-44,20,60
1491693816843,1,-92,-24,15,-117,124,-60,-50,-42
1491693816874,2,12,21,127,127,13,127,78,0
1491693816874,2,-22,-33,11,-25,-38,-87,-96,-62
1491693816905,3,1,51,10,-71,81,-2,31,-32
1491693816905,3,14,-1,-37,78,-128,68,10,-8
1491693816906,0,-91,-57,-13,127,-75,-67,-53,-25
1491693816906,0,29,-11,-68,-66,52,-11,6,64
1491693816908,1,-22,-35,-18,124,-41,44,-45,-91
1491693816908,1,-16,-3,49,100,127,52,19,-11
1491693816909,2,46,4,-101,-110,-31,4,6,72
1491693816909,2,65,84,-43,72,-116,-2,-67,-51
1491693816938,3,27,-27,-31,-128,5,-93,43,87
1491693816938,3,33,6,-51,59,-45,-28,45,59
1491693816939,0,6,48,88,87,78,127,56,7
1491693816939,0,-18,-36,-52,34,-108,78,110,67
1491693816940,1,-2,-66,-61,87,58,-66,-111,-96
1491693816940,1,-1,35,70,-128,7,28,-30,-51
1491693816942,2,-11,15,61,32,105,28,55,-24
1491693816942,2,-72,60,122,28,127,29,-51,-61
1491693816970,3,94,12,-20,91,-106,80,112,64
1491693816970,3,-112,-128,-128,-8,-80,-68,-48,-81
1491693816972,0,-5,84,115,-115,76,99,27,61
1491693816972,0,63,-16,-28,127,-120,-86,0,-75
1491693816973,1,-38,40,127,78,74,91,-32,31
1491693816973,1,93,64,32,-119,-34,-128,18,41
1491693816974,2,-64,-127,-128,75,-128,-57,-82,-87
1491693816974,2,-38,-37,-16,-82,76,112,-9,49
1491693817003,3,50,-21,-36,90,-104,-107,77,93
1491693817003,3,48,28,21,32,127,-50,-44,-34
1491693817004,0,18,108,107,-101,39,99,50,-56
1491693817004,0,-25,-128,-128,-17,-106,-127,57,31
1491693817005,1,-51,27,44,-111,101,127,-67,-104
1491693817005,1,-20,30,63,-42,-100,28,37,46
1491693817006,2,-23,-50,-24,122,-98,-127,-126,-114
1491693817006,2,67,50,68,-20,108,68,10,127
1491693817035,3,-55,4,-19,-128,-51,55,44,-5
1491693817035,3,51,39,78,118,96,98,-54,20
1491693817036,0,37,-13,-48,-61,-124,-83,71,32
1491693817036,0,-82,-74,-98,72,-128,-77,-35,-55
1491693817037,1,60,12,87,-64,38,23,-11,-6
1491693817037,1,-15,-16,-79,45,-124,-101,-29,24
1491693817068,2,-51,28,116,2,109,71,-17,-29
1491693817068,2,97,47,103,20,93,127,39,67
1491693817069,3,-99,-27,-106,66,-69,-104,-10,-55
1491693817069,3,-23,-19,-9,-123,-38,-9,-11,-30
1491693817070,0,-17,11,47,72,-22,46,19,26
1491693817070,0,3,70,87,-12,26,28,44,-7
1491693817071,1,2,-46,6,84,86,31,-58,25
1491693817071,1,39,86,-78,39,70,-80,42,-19
1491693817101,2,6,-52,-128,36,-128,56,47,38
1491693817101,2,12,-43,-93,100,-25,5,-29,26
1491693817102,3,35,21,-14,-105,5,-53,9,8
1491693817102,3,-68,-49,-13,-62,-18,104,-1,-27
1491693817103,0,-5,15,91,18,71,-58,-52,-58
1491693817103,0,52,59,67,16,10,89,47,34
1491693817133,1,-25,12,-40,86,5,-54,-33,-14
1491693817133,1,-6,-40,37,-4,60,100,68,-2
1491693817134,2,39,-19,-24,23,33,-128,-40,27
1491693817134,2,-13,37,84,-27,-6,120,41,5
1491693817166,3,-20,62,127,-35,73,54,-11,-7
1491693817166,3,-18,-41,-80,96,-9,-69,-64,-17
1491693817167,0,38,-48,53,79,-15,64,-6,7
1491693817167,0,-13,1,-90,-61,-33,-128,-89,-5
1491693817168,1,-29,-8,71,-100,21,88,24,-49
1491693817168,1,15,88,127,-6,8,58,39,86
1491693817169,2,-17,-3,-63,-128,-7,13,13,-46
1491693817169,2,39,-27,87,127,17,20,4,21
1491693817198,3,23,-6,-41,-81,1,116,68,58
1491693817198,3,-47,-51,-35,-25,-1,47,-52,-57
1491693817201,0,14,-1,-2,27,2,-7,12,23
1491693817201,0,-42,-73,-102,34,5,-23,-27,3
1491693817203,1,23,44,91,-74,4,-74,-32,-6
1491693817203,1,2,50,4,-6,102,-26,54,4
1491693817204,2,-21,14,-24,-124,127,17,-12,16
1491693817204,2,-5,8,78,-29,127,94,-20,-56
1491693817231,3,4,-38,-73,69,-103,-128,-23,12
1491693817231,3,-39,8,78,-98,57,42,-19,-16
1491693817232,0,68,53,46,-93,33,-38,55,43
1491693817232,0,-80,-60,-124,77,-82,-71,-83,-49
1491693817233,1,25,-75,-85,-39,6,28,35,59
1491693817233,1,-28,15,-37,-40,-72,-4,-36,-53
1491693817263,2,6,3,74,1,51,19,-34,27
1491693817263,2,3,39,57,-108,86,49,26,-15
1491693817296,3,-10,-28,-42,118,-55,19,30,65
1491693817296,3,-9,-17,-36,44,-22,-109,-58,-48
1491693817298,0,18,-37,-24,36,-17,59,23,52
1491693817298,0,-11,11,-86,-116,-11,2,16,-16
1491693817300,1,1,96,127,26,127,27,-31,-31
1491693817300,1,5,-59,-112,-28,-99,-31,35,34
1491693817301,2,-43,-9,-18,-24,-99,-5,-43,-38
1491693817301,2,0,-41,-51,-54,1,74,20,23
1491693817328,3,-17,54,27,-43,-13,-68,-57,-44
1491693817328,3,22,69,120,127,124,127,55,40
1491693817330,0,-13,-39,-128,28,-90,-3,30,-15
1491693817330,0,-38,-70,-15,118,-92,-101,-75,-59
1491693817331,1,-14,33,87,61,89,0,10,-10
1491693817331,1,-43,-22,39,-12,115,-12,-33,-48
1491693817332,2,50,70,2,0,127,36,48,42
1491693817332,2,-24,71,123,-70,33,-11,13,-10
1491693817361,3,62,-16,-25,3,86,74,13,25
1491693817361,3,8,55,47,13,-102,-68,-22,-20
1491693817362,0,-43,18,76,41,125,93,40,-9
1491693817362,0,-1,-87,-114,0,-124,-128,-7,38
1491693817363,1,-49,-29,59,-100,-29,1,-44,-89
1491693817363,1,18,39,84,-108,125,88,77,28
1491693817364,2,-33,-78,-128,-3,-128,-103,-75,-43
1491693817364,2,66,30,13,-5,-67,-62,9,48
1491693817426,3,-35,-7,55,-57,65,82,-8,-50
1491693817426,3,38,-21,62,18,-15,-24,8,78
1491693817427,0,-20,20,127,73,127,51,43,-38
1491693817427,0,-23,-14,-49,-14,-41,-64,-23,-14
1491693817428,1,-31,-62,22,20,56,49,17,8
1491693817428,1,-13,-102,-128,-99,-118,-70,-44,-49
1491693817429,2,21,70,109,93,113,40,24,95
1491693817429,2,63,11,-88,-69,127,86,-21,-44
1491693817458,3,-40,-49,-91,66,-128,-73,-36,-37
1491693817458,3,-31,-1,103,117,127,23,16,-22
1491693817459,0,12,57,44,-122,41,46,-2,2
1491693817459,0,58,-50,-27,-40,-38,-70,-23,-11
1491693817460,1,26,15,86,22,82,50,-10,26
1491693817460,1,-77,-41,37,77,82,63,22,7
1491693817461,2,-22,-1,-77,-123,-45,3,-50,-70
1491693817461,2,43,4,127,127,127,-13,23,95
1491693817490,3,48,38,-108,-82,-121,-92,54,39
1491693817490,3,16,-38,30,74,64,37,12,2
1491693817491,0,10,-66,-17,49,-11,-47,-33,31
1491693817491,0,-128,-35,-60,-94,45,83,-57,-128
1491693817492,1,55,7,92,106,103,-26,41,83
1491693817492,1,20,104,39,68,-48,126,18,15
1491693817493,2,-20,-114,-112,53,-127,-128,-23,-6
1491693817493,2,-30,5,26,-67,-46,77,33,0
1491693817523,3,12,-20,-4,-29,65,24,-3,13
1491693817523,3,-10,50,109,-41,114,73,2,-67
1491693817524,0,104,13,-14,-87,-47,-39,22,62
1491693817524,0,-34,45,127,103,58,87,40,32
1491693817525,1,-40,-27,-115,-109,-96,-46,-37,-38
1491693817525,1,-71,-65,-71,-72,-13,-99,-55,-20
1491693817526,2,70,22,53,-2,59,58,37,16
1491693817526,2,1,62,51,-23,-46,-71,9,19
1491693817555,3,-32,-20,21,6,55,46,36,-57
1491693817555,3,60,34,34,-85,24,8,-35,50
1491693817569,0,-93,-128,-115,9,-79,-70,-43,-52
1491693817569,0,37,86,127,-79,111,21,-4,-37
1491693817570,1,3,2,-14,-23,63,40,20,-3
1491693817570,1,27,-32,-78,-73,-128,-30,-5,-1
1491693817620,2,-27,71,81,-6,127,94,0,10
1491693817620,2,-20,-14,-44,66,-30,38,16,-53
1491693817621,3,-29,-16,1,69,-128,-128,-16,-28
1491693817621,3,23,19,-60,-62,43,87,-57,62
1491693817622,0,18,-10,-41,-17,-19,18,27,51
1491693817622,0,-83,-62,-97,-88,-11,-17,-17,-43
1491693817623,1,58,-22,-38,40,-36,1,14,29
1491693817623,1,21,-4,-73,47,-128,-116,32,49
1491693817653,2,-76,10,-13,-24,-51,-94,-73,-128
1491693817653,2,97,18,70,44,79,47,20,57
1491693817654,3,1,37,76,-97,55,56,47,22
1491693817654,3,14,19,46,3,127,60,52,0
1491693817655,1,-58,39,89,98,102,73,-46,-91
1491693817655,1,93,-2,-38,-96,-105,-126,-67,42
1491693817656,2,-23,16,-54,127,-53,35,54,-23
1491693817656,2,-30,6,83,49,77,127,26,8
1491693817685,3,0,29,-67,99,-126,-69,-4,5
1491693817685,3,-47,-35,57,119,-100,-114,-33,-31
1491693817686,0,31,18,-8,15,127,-22,33,-7
1491693817686,0,-18,-8,-111,18,-128,-18,0,25
1491693817687,1,-52,0,39,19,79,-8,-34,-8
1491693817687,1,97,50,-3,40,-14,127,106,46
1491693817688,2,-70,-60,-98,-92,-128,-115,-96,-46
1491693817688,2,26,50,127,44,127,-5,29,33
1491693817718,3,17,58,85,-2,81,93,-16,17
1491693817718,3,1,-12,-128,-41,-73,-70,40,0
1491693817719,0,-6,107,127,32,127,127,60,19
1491693817719,0,1,-94,-128,-11,-128,-128,-106,-20
1491693817720,1,-65,-31,-61,-89,16,-23,-48,-37
1491693817720,1,15,83,93,-5,127,105,83,44
1491693817721,2,42,-54,-103,30,-101,-102,4,60
1491693817721,2,-90,16,61,127,127,7,-63,-67
1491693817750,3,127,34,53,-14,69,96,106,127
1491693817750,3,-95,-66,-25,30,-60,-87,-97,-92
1491693817751,0,22,23,-15,-28,-8,-46,7,18
