1491693713719,0,-37,5,-64,-72,-16,-41,19,-6
1491693713719,0,9,2,17,107,4,8,-9,-5
1491693713724,1,11,-8,8,72,-4,-13,-2,-3
1491693713724,1,5,-6,12,40,8,19,-6,5
1491693713725,2,17,18,15,8,3,13,-4,7
1491693713725,2,-4,13,-3,-42,-1,10,31,16
1491693713726,3,-1,4,-5,-42,-11,-43,-22,-11
1491693713726,3,-2,-2,-4,-33,-5,5,-11,-1
1491693713752,0,6,4,6,-3,0,-1,-14,0
1491693713752,0,2,1,-3,-23,-2,-3,2,-6
1491693713753,1,-7,2,3,-1,0,-2,7,5
1491693713753,1,8,-8,-8,-11,-1,1,12,3
1491693713754,2,5,-23,5,15,-1,3,-5,0
1491693713754,2,-14,-11,-7,-8,2,-7,-1,-7
1491693713755,3,-16,-18,-3,-16,-2,34,-2,-3
1491693713755,3,0,13,3,1,-2,-19,-3,-4
1491693713784,0,46,32,16,26,2,7,-8,6
1491693713784,0,-17,1,-6,-7,-9,-16,-13,-8
1491693713786,1,-13,-4,-9,-7,4,3,0,-2
1491693713786,1,-9,4,-5,9,-1,2,3,-5
1491693713787,2,7,-17,1,12,-4,14,0,2
1491693713787,2,13,-5,-1,-3,-11,-8,-7,3
1491693713817,3,5,-13,10,1,2,2,3,3
1491693713817,3,3,32,2,5,2,-1,-3,1
1491693713818,0,-15,-2,0,-1,4,-3,3,-7
1491693713818,0,-52,-43,-26,-24,6,0,-9,-13
1491693713819,1,37,-71,-6,5,5,5,5,8
1491693713819,1,-4,19,-10,-4,-16,-18,-5,-6
1491693713820,2,12,71,16,14,-5,-7,-5,2
1491693713820,2,0,17,11,-1,-9,0,2,1
1491693713914,3,-19,-25,-15,-5,-3,1,-18,-6
1491693713914,3,-22,-56,8,-14,10,6,12,-3
1491693713915,0,-7,-19,-13,3,-3,-1,3,-2
1491693713915,0,7,72,13,-1,-2,1,-9,-2
1491693713916,1,-13,8,-4,-8,7,-4,6,1
1491693713916,1,2,-40,-9,4,-1,-6,-13,-3
1491693713917,2,-20,-27,-7,3,-3,1,-5,-10
1491693713917,2,8,6,4,2,6,-1,1,4
1491693713947,3,3,8,-12,-4,-1,1,2,-1
1491693713947,3,9,37,1,8,-12,5,6,3
1491693713948,0,-15,-42,-2,1,-2,-1,0,-7
1491693713948,0,43,-15,5,1,5,-3,1,6
1491693713949,1,6,35,7,1,-6,3,7,-3
1491693713949,1,-13,-19,-8,-1,-1,-15,-8,0
1491693713950,1,-6,26,0,3,-8,-24,-29,12
1491693713950,1,-16,5,-2,-4,3,45,6,-21
1491693713979,2,7,-57,-19,0,-14,-37,-17,20
1491693713979,2,14,12,3,-3,-2,-24,-1,-16
1491693713980,3,-2,-10,3,-4,15,43,20,-6
1491693713980,3,13,12,-3,-3,-4,-20,-69,-10
1491693713981,0,-35,-13,-19,-9,8,-21,11,1
1491693713981,0,6,-7,6,5,-2,15,-10,7
1491693713982,1,7,21,9,7,-12,-6,7,3
1491693713982,1,-6,13,7,-2,-9,26,17,8
1491693714012,2,-1,-5,2,-7,-8,-20,28,-21
1491693714012,2,-26,-43,-13,-16,2,-4,7,11
1491693714014,3,-27,22,-1,-8,13,-38,-23,-23
1491693714014,3,7,14,7,-13,2,-23,-19,-5
1491693714014,0,28,17,15,9,-29,59,25,13
1491693714014,0,-20,15,-1,1,16,34,-13,-14
1491693714018,1,-2,-24,-15,-2,-17,-38,-27,11
1491693714018,1,12,-27,-3,2,9,-113,-27,1
1491693714044,2,6,2,2,3,3,18,11,0
1491693714044,2,1,-1,-1,-2,4,70,-17,-7
1491693714045,3,-1,22,4,3,-30,51,56,21
1491693714045,3,-20,-16,-10,-15,1,-53,-77,-46
1491693714046,0,-8,2,-2,-5,13,18,6,-6
1491693714046,0,6,-5,-12,10,-19,-33,78,62
1491693714047,1,-10,-8,-11,-9,24,95,19,-17
1491693714047,1,2,3,-7,-5,-29,-57,-12,-23
1491693714076,2,14,10,10,10,6,-23,-30,-25
1491693714076,2,1,11,1,0,-7,14,-91,15
1491693714077,3,-2,-4,1,6,8,-31,34,10
1491693714077,3,-17,-11,-2,3,-1,30,74,41
1491693714078,0,7,9,1,-8,-7,24,-9,-34
1491693714078,0,2,2,-2,9,27,10,28,-19
1491693714109,1,18,13,6,-5,-23,-40,-70,35
1491693714109,1,-4,-6,1,13,24,95,109,16
1491693714110,2,-4,-13,-1,-1,-16,-60,-96,-3
1491693714110,2,6,-12,-2,-13,-13,55,106,-21
1491693714111,3,-10,14,-15,-10,1,-53,-96,-45
1491693714111,3,-11,-10,2,9,35,104,121,18
1491693714112,0,-8,-2,-3,-2,-10,-60,-100,-2
1491693714112,0,20,18,9,24,18,77,90,25
1491693714141,1,-10,-9,9,-14,-3,-3,-66,-22
1491693714141,1,0,-1,-12,-9,-16,-93,-128,-58
1491693714143,2,5,7,11,4,-44,63,127,49
1491693714143,2,-12,-23,-13,-3,14,-14,-128,-64
1491693714144,3,-19,32,8,11,21,63,106,22
1491693714144,3,6,7,9,-13,8,-30,-33,-3
1491693714174,0,7,-2,-7,37,32,4,-41,11
1491693714174,0,9,3,22,7,-47,-128,-123,-60
1491693714175,1,22,-28,-7,-47,-16,94,115,58
1491693714175,1,-11,3,-21,-12,19,73,90,16
1491693714176,2,25,-15,-5,-22,20,5,28,16
1491693714176,2,-68,33,-24,7,-9,-31,-58,26
1491693714207,3,24,-16,-8,17,-27,-89,-40,-94
1491693714207,3,-29,-48,12,5,-28,-25,-102,-25
1491693714208,0,52,48,-4,0,12,3,-16,13
1491693714208,0,17,8,28,0,-19,-72,-18,-2
1491693714209,1,3,0,6,5,54,65,57,75
1491693714209,1,-29,-31,-28,-84,-39,32,46,26
1491693714239,2,35,1,-4,61,-14,-53,-17,66
1491693714239,2,5,-6,55,15,-6,-86,-50,-1
1491693714241,3,-30,-5,8,-65,-38,19,-33,-85
1491693714241,3,-52,-2,-45,-2,24,-8,1,-32
1491693714242,0,-19,-30,-26,21,50,-4,-82,-69
1491693714242,0,6,-6,-67,-35,-72,30,112,3
1491693714243,1,39,2,-35,-36,21,-70,-19,16
1491693714243,1,-19,10,54,75,6,109,22,41
1491693714271,2,-57,11,27,-85,-107,-84,-25,-4
1491693714271,2,64,-4,16,118,64,-80,-113,-45
1491693714273,3,48,-9,23,-12,-31,63,98,51
1491693714273,3,-2,8,-60,-5,113,-95,-65,-45
1491693714274,0,-25,2,-3,-20,3,26,-13,-109
1491693714274,0,-56,-42,-20,-37,-27,-1,0,125
1491693714304,1,9,39,0,118,49,-98,-111,-35
1491693714304,1,46,27,84,-89,-118,-46,-90,4
1491693714305,2,-50,14,-23,65,84,28,96,-10
1491693714305,2,0,-21,-31,-128,-43,48,-15,-36
1491693714337,3,13,-11,19,117,17,-25,-84,-7
1491693714337,3,62,21,0,40,14,101,127,27
1491693714339,0,3,-45,0,-2,-30,-46,-18,23
1491693714339,0,-14,36,111,84,57,127,28,-17
1491693714340,1,-123,-15,-98,-97,13,-14,52,20
1491693714340,1,87,-13,-42,-78,-88,-128,-128,-9
1491693714340,2,-14,10,-24,26,24,68,127,76
1491693714340,2,-11,-5,-44,47,-35,-93,-71,-17
1491693714369,3,48,-9,16,25,-13,80,-28,53
1491693714369,3,-43,10,13,-50,-7,-116,-84,24
1491693714371,0,55,4,84,65,-10,-9,7,-108
1491693714371,0,20,-5,-117,-109,7,29,26,-13
1491693714372,1,22,-11,43,66,-109,-122,-83,-56
1491693714372,1,-35,-6,-35,63,94,127,106,-14
1491693714373,2,-41,-14,-52,-31,-63,13,-79,39
1491693714373,2,22,26,96,118,45,-42,-51,-56
1491693714402,3,-94,-9,-44,-128,-38,-4,13,-58
1491693714402,3,-15,2,123,-49,45,90,15,8
1491693714403,0,112,27,-54,21,57,-16,24,-41
1491693714403,0,-52,2,6,82,66,55,5,35
1491693714406,1,-12,-7,67,-36,51,49,17,-8
1491693714406,1,64,45,1,87,-40,-83,-75,39
1491693714434,2,-40,-20,7,-101,-58,95,64,19
1491693714434,2,62,-22,-42,30,-128,-59,-90,-12
1491693714435,3,-15,-21,-75,74,17,27,79,32
1491693714435,3,-22,-14,101,65,45,-38,-83,-52
1491693714436,0,-28,18,-70,-116,127,39,-23,-51
1491693714436,0,-7,33,-4,78,1,72,75,25
1491693714467,1,2,-7,-2,10,18,-71,-108,45
1491693714467,1,9,2,57,42,-64,-83,113,-4
1491693714468,2,-19,-56,-81,-64,-77,-30,-73,51
1491693714468,2,-44,-26,34,-66,5,-48,79,-73
1491693714469,3,17,24,49,95,-2,74,-112,72
1491693714469,3,-9,-5,36,40,24,0,24,-48
1491693714499,0,-99,-7,50,-7,-17,-84,-69,-7
1491693714499,0,61,26,63,38,-11,1,-25,23
1491693714501,1,24,21,-82,-126,-83,25,104,44
1491693714501,1,38,6,21,113,99,-74,-47,-60
1491693714502,2,39,6,63,127,89,113,69,101
1491693714502,2,-33,-8,-55,-31,-38,-33,-34,-17
1491693714503,3,-31,-2,15,-36,-63,-10,44,-36
1491693714503,3,9,-38,-87,88,-70,-24,-10,61
1491693714532,0,-58,-5,-61,-113,-80,-89,-1,-50
1491693714532,0,-27,-4,4,112,62,40,13,-1
1491693714533,1,-15,-23,115,49,60,56,-55,23
1491693714533,1,66,-10,44,-128,-43,-23,77,12
1491693714534,2,39,26,40,67,95,-54,-103,-28
1491693714534,2,55,-7,-119,-128,32,-28,79,-26
1491693714564,3,6,13,5,22,-1,-61,48,36
1491693714564,3,-124,-26,-77,-72,-96,48,-19,-16
1491693714566,0,5,25,127,127,86,-6,-23,43
1491693714566,0,-44,7,-11,-117,-88,96,38,-11
1491693714566,1,95,16,95,127,117,-15,-96,-76
1491693714566,1,-41,-31,-108,-77,-36,-51,10,48
1491693714629,2,-28,-24,-26,21,-128,-15,-13,-16
1491693714629,2,-37,-4,-36,-71,35,-21,1,4
1491693714631,3,8,27,74,32,-63,7,88,-3
1491693714631,3,94,67,98,110,93,127,-26,14
1491693714632,0,-18,7,-96,-91,-128,-47,-80,-52
1491693714632,0,-35,-71,17,115,41,-98,48,22
1491693714633,1,-57,-14,-81,-72,75,57,-45,-25
1491693714633,1,55,-4,-35,65,-116,91,73,20
1491693714662,2,-22,-16,39,-49,26,-22,-64,-33
1491693714662,2,46,52,75,127,52,-34,-128,31
1491693714663,3,39,-12,-103,-114,-43,-19,87,-52
1491693714663,3,-39,1,-24,127,127,54,-54,-105
1491693714664,0,90,46,119,-8,-15,6,59,102
1491693714664,0,38,27,10,-128,18,-15,-4,-21
1491693714665,1,-63,-15,3,12,-70,-119,-59,-14
1491693714665,1,-31,-47,-128,37,-128,-4,-119,-2
1491693714694,2,-28,-55,35,127,-16,9,-49,-70
1491693714694,2,15,14,33,-35,107,117,107,53
1491693714695,3,5,28,-10,-44,22,23,62,-29
1491693714695,3,-2,35,97,-128,94,51,-69,95
1491693714697,0,0,17,-42,-27,-44,-67,103,2
1491693714697,0,19,-8,30,38,27,59,-55,-13
1491693714698,1,17,-39,-121,74,-75,-110,-33,-15
1491693714698,1,-8,8,31,102,42,-58,-9,-7
1491693714727,2,-33,-17,-15,-110,58,-23,13,38
1491693714727,2,-6,12,17,47,-64,-52,28,-29
1491693714728,3,72,43,-25,-73,16,92,-28,-17
1491693714728,3,-20,-5,-3,21,-68,-90,-50,20
1491693714729,0,-5,-24,-86,67,-4,44,94,26
1491693714729,0,-49,-55,-68,-19,-41,-36,-12,40
1491693714730,1,-14,36,127,24,73,81,-60,-41
1491693714730,1,13,47,69,-2,19,51,50,-13
1491693714759,2,-68,-4,45,94,10,25,-101,-16
1491693714759,2,74,58,111,-102,7,-94,-41,15
1491693714760,3,46,-66,-99,-26,-88,-36,11,23
1491693714760,3,-81,-71,-87,-1,-8,-38,-1,-37
1491693714762,0,14,-8,67,-43,28,80,41,-34
1491693714762,0,-15,4,-26,102,57,39,-59,-52
1491693714792,1,-32,-8,80,-22,41,42,7,-5
1491693714792,1,41,-2,-72,45,-88,32,57,18
1491693714793,2,-38,-31,-17,-50,-37,-22,-36,-22
1491693714793,2,43,44,13,-5,99,127,31,69
1491693714794,3,9,38,96,109,-6,-128,-104,-4
1491693714794,3,-18,-7,-118,-71,-85,102,104,25
1491693714795,0,-64,-90,-83,-9,-91,-99,-92,-61
1491693714795,0,-24,-42,-38,-87,42,43,41,-51
1491693714824,1,39,16,71,102,40,67,44,113
1491693714824,1,27,30,12,19,-19,-40,30,-27
1491693714825,2,52,49,20,10,35,-20,-94,41
1491693714825,2,-48,-11,-57,125,-38,-54,75,-7
1491693714826,3,-25,-5,69,-69,15,3,-14,-23
1491693714826,3,-5,8,-57,-125,73,127,-8,2
1491693714856,0,18,-10,-48,51,-99,-82,-16,-5
1491693714856,0,-39,-44,-12,69,-56,20,-21,1
1491693714858,1,-6,13,-15,28,-123,-25,-24,-30
1491693714858,1,-3,3,70,110,73,13,15,-45
1491693714858,2,41,52,83,-118,85,127,31,22
1491693714858,2,11,-11,-75,72,-128,-15,19,7
1491693714889,3,-11,-22,60,100,-23,3,-15,-8
1491693714889,3,2,-14,-116,-128,-128,34,8,7
1491693714891,0,5,-14,-88,110,87,-41,24,44
1491693714891,0,16,44,127,-128,84,66,-20,-5
1491693714892,1,7,12,-128,85,36,-98,95,2
1491693714892,1,-79,-58,30,57,113,3,-52,-3
1491693714922,2,38,1,-72,-87,-83,-64,-9,-44
1491693714922,2,12,8,77,-10,36,77,13,33
1491693714923,3,50,59,36,63,52,72,50,45
1491693714923,3,-3,4,-31,-102,4,-5,-2,-13
1491693714954,0,-31,-34,-80,123,11,-26,-66,11
1491693714954,0,-45,-65,-68,-108,-99,-64,-74,-36
1491693714955,1,-46,-54,65,90,127,109,23,-52
1491693714955,1,37,56,127,24,127,-110,-48,30
1491693714956,2,78,127,127,-46,127,127,127,47
1491693714956,2,0,-33,-128,-65,-128,-79,-48,6
1491693714957,3,-60,-53,-128,-113,-103,-128,-128,-78
1491693714957,3,-3,-13,103,42,-68,25,74,25
1491693714987,0,-9,-62,-121,89,-128,23,-11,6
1491693714987,0,-19,-5,64,127,-47,18,15,-27
1491693714988,1,6,22,68,-120,22,87,68,-13
1491693714988,1,-9,24,9,80,-96,31,-65,-35
1491693714989,2,-19,17,-5,-72,127,93,45,-34
1491693714989,2,4,-5,24,-28,96,-77,28,13
1491693714990,3,-3,-7,36,-50,101,57,-43,14
1491693714990,3,71,67,40,38,-31,-128,47,55
1491693715019,0,1,0,22,103,-55,120,-8,-42
1491693715019,0,-38,-34,-128,85,-49,-110,-97,-17
1491693715020,1,-1,-23,-1,-114,-107,68,95,4
1491693715020,1,-12,-3,104,-24,127,-1,47,6
1491693715021,2,48,41,42,-71,16,71,3,38
1491693715021,2,-56,-93,-71,-26,-50,-91,11,-50
1491693715051,3,-35,7,-45,89,95,-66,-104,-41
1491693715051,3,26,89,0,-96,10,89,80,36
1491693715053,0,12,15,102,125,6,44,17,3
1491693715053,0,29,19,1,-118,-10,2,127,41
1491693715053,1,-36,-62,-128,73,-119,70,-72,-10
1491693715053,1,-61,-91,2,86,-78,-128,-128,-68
1491693715054,2,3,-4,100,18,-26,22,-7,-30
1491693715054,2,44,124,84,-44,-67,17,-22,15
1491693715084,3,-2,23,-29,29,-92,-55,-24,3
1491693715084,3,-59,-119,-128,127,-11,-44,-43,-25
1491693715085,0,-20,57,-39,-101,-71,-46,-4,18
1491693715085,0,23,-6,106,68,-40,28,30,11
1491693715086,1,58,121,114,-24,-100,15,-20,43
1491693715086,1,-1,-51,-112,74,-125,68,57,23
1491693715116,2,-25,-8,-27,-97,59,-8,-37,-53
1491693715116,2,-67,-80,-100,127,86,-7,-13,7
1491693715117,3,-45,-45,55,-39,127,5,7,-39
1491693715117,3,42,24,90,-43,95,127,36,22
1491693715118,0,8,-8,116,56,49,-37,-36,-3
1491693715118,0,24,71,32,-52,127,5,19,-8
1491693715149,1,12,76,-7,39,50,-21,69,12
1491693715149,1,39,78,-1,-63,7,-100,-39,-15
1491693715150,2,-4,-74,-66,-22,58,-3,84,52
1491693715150,2,13,77,-8,-15,68,123,-52,3
1491693715151,3,-4,-25,-51,-7,67,-58,11,27
1491693715151,3,20,19,24,-12,68,-52,-32,-26
1491693715181,0,11,16,27,70,88,-47,47,45
1491693715181,0,-9,30,-75,-66,95,-90,7,-9
1491693715182,1,-6,-83,-32,11,-80,-4,74,43
1491693715182,1,-47,44,-66,-66,-83,34,-74,-69
1491693715183,2,44,-20,-4,58,-128,-25,22,2
1491693715183,2,8,13,59,42,-128,88,6,7
1491693715184,3,6,23,27,-29,32,-117,-35,8
1491693715184,3,-3,-35,24,50,76,1,-14,8
1491693715214,0,-43,-46,-98,-92,60,-94,-40,-38
1491693715214,0,17,4,15,-42,92,39,5,0
1491693715215,1,11,-23,-20,93,101,44,-48,-34
1491693715215,1,-10,3,84,-8,127,0,-1,28
1491693715216,2,2,13,-93,-26,119,68,42,-65
1491693715216,2,16,-32,-42,39,-36,85,88,22
1491693715246,3,-7,-19,-5,10,51,44,4,25
1491693715246,3,-35,-55,-43,66,76,102,60,-35
1491693715247,0,16,62,1,17,25,-82,-73,-19
1491693715247,0,-8,-32,10,7,1,2,-92,-8
1491693715248,1,16,5,35,-128,-71,8,120,25
1491693715248,1,-13,-24,-6,111,25,7,0,9
1491693715279,2,63,12,122,10,78,127,26,34
1491693715279,2,-3,-48,-119,85,-122,40,53,-67
1491693715280,3,-41,-68,-103,-1,-55,0,-124,22
1491693715280,3,-3,15,-13,-1,24,-22,-50,22
1491693715281,0,-26,10,57,-90,-9,106,90,27
1491693715281,0,55,54,113,87,65,-85,-76,4
1491693715311,1,-41,-46,21,-10,-86,32,3,-45
1491693715311,1,-22,12,-16,-128,-73,81,52,-23
1491693715312,2,22,46,75,-58,22,15,-1,57
1491693715312,2,37,2,67,-35,-60,56,69,21
1491693715313,3,10,-23,-82,19,-70,-75,-69,-18
1491693715313,3,-18,-56,-128,-68,-94,31,-18,-19
1491693715314,0,4,-41,-38,17,-78,-126,-38,-81
1491693715314,0,17,67,127,48,96,127,5,19
1491693715344,1,16,9,0,74,53,21,30,34
1491693715344,1,35,-12,-5,-76,12,-53,8,-6
1491693715345,2,-36,-4,35,81,74,81,79,44
1491693715345,2,-5,-7,-128,-128,-112,-7,-64,37
1491693715346,3,-29,-25,6,123,42,24,8,-105
1491693715346,3,-44,-24,-69,-11,7,-96,27,-27
1491693715376,0,-12,-42,-128,-11,59,-47,-105,16
1491693715376,0,33,-21,39,25,127,-77,-42,-23
1491693715377,1,3,67,52,-128,127,5,-11,-2
1491693715377,1,9,54,127,63,-59,-74,104,17
1491693715378,2,-52,-17,44,119,72,56,-28,51
1491693715378,2,-35,-22,22,4,101,99,-76,-41
1491693715409,3,8,4,-49,10,127,101,0,-64
1491693715409,3,-46,-36,-70,-125,17,-47,-35,-30
1491693715409,0,61,-50,-86,2,-12,-113,-67,-25
1491693715409,0,-67,14,-5,127,-81,25,90,54
1491693715410,1,65,39,92,-53,-114,78,62,8
1491693715410,1,52,48,54,-42,-70,121,-10,29
1491693715441,2,7,18,26,22,-128,-54,26,-17
1491693715441,2,-46,-49,-51,-125,-110,-90,-19,13
1491693715442,3,-20,9,43,116,-108,98,57,-53
1491693715442,3,13,-19,-101,-54,-83,1,8,115
1491693715443,0,-69,15,45,-32,-117,45,-39,-127
1491693715443,0,40,5,-51,98,-55,-60,15,22
1491693715444,1,-4,-23,0,-57,-80,-109,-4,-9
1491693715444,1,35,-3,-40,108,-10,47,20,26
1491693715474,2,-49,30,60,109,-54,38,-19,46
1491693715474,2,-26,-9,-75,-47,-27,127,14,-3
1491693715475,3,-2,-34,25,78,-29,-122,-100,22
1491693715475,3,-13,-13,-67,-41,20,22,-14,-28
1491693715475,0,-33,-31,-60,-5,-22,-63,14,-28
1491693715475,0,-7,17,83,-48,-16,30,-27,-62
1491693715506,1,9,37,91,-73,-107,84,18,49
1491693715506,1,68,61,118,-33,-93,-18,7,9
1491693715507,2,-66,-44,-126,108,62,-53,-57,-43
1491693715507,2,-14,-51,-18,-15,27,-25,39,-34
1491693715508,3,-10,42,39,-96,66,10,24,40
1491693715508,3,20,-37,-21,-2,83,-54,-67,-24
1491693715539,0,42,23,-44,-128,81,10,127,44
1491693715539,0,-14,6,14,-82,27,-127,-81,4
1491693715540,1,54,21,50,-76,44,-47,-17,8
1491693715540,1,-25,8,67,127,98,52,11,67
1491693715540,2,22,-52,-93,-99,-128,-44,8,-6
1491693715540,2,-34,5,24,39,118,26,-23,-82
1491693715571,3,15,7,-63,69,-2,21,-8,103
1491693715571,3,19,-49,-71,61,127,-98,-23,-18
1491693715572,0,75,28,112,-77,0,101,10,-58
1491693715572,0,-2,33,121,-62,-36,70,124,38
1491693715573,1,-44,9,-116,52,123,16,-50,-39
1491693715573,1,-116,-21,-43,28,0,-60,-8,-45
1491693715604,2,-92,-68,-33,62,-78,88,-55,-32
1491693715604,2,108,34,30,-36,-128,-17,28,45
1491693715605,3,-73,-17,-34,-50,25,42,19,-44
1491693715605,3,-36,28,112,70,124,-81,-95,17
1491693715606,0,10,76,127,-76,19,66,80,-38
1491693715606,0,-35,-66,-115,-57,-52,-70,-93,40
1491693715607,1,25,-22,59,-97,10,40,16,-48
1491693715607,1,13,5,93,111,-104,23,-41,-51
1491693715636,2,-17,-3,-30,-88,-21,-31,-5,39
1491693715636,2,-6,30,103,123,87,86,-24,-17
1491693715637,3,42,-9,-122,-68,-87,-34,52,50
1491693715637,3,33,-10,-17,-72,88,-37,-20,-103
1491693715638,0,36,20,100,127,30,64,-11,96
1491693715638,0,-9,-4,-128,-12,-11,-25,15,-64
1491693715669,1,-59,-32,114,26,76,-125,-113,-33
1491693715669,1,94,60,-31,42,-100,118,127,20
1491693715670,2,-71,-57,-128,-73,127,-80,-46,38
1491693715670,2,-6,-2,-2,-34,33,-65,-44,31
1491693715670,3,-66,-7,-29,-90,-94,14,25,-46
1491693715670,3,-23,-24,65,-49,55,-32,40,127
1491693715701,0,94,45,113,127,4,36,-6,-14
1491693715701,0,-54,-7,-90,-56,-76,-53,4,-63
1491693715702,1,-47,-6,-34,-60,115,13,-2,-13
1491693715702,1,-7,-24,6,66,31,10,-15,-62
1491693715703,2,-38,-19,-3,-97,-80,81,8,-1
1491693715703,2,67,34,114,80,-53,-85,-76,-6
1491693715766,3,14,3,-97,55,19,84,105,2
1491693715766,3,-4,-7,3,-50,53,-6,13,30
1491693715768,0,-54,14,-12,82,-56,51,-69,-63
1491693715768,0,5,-41,-57,-88,-52,35,67,21
1491693715769,1,-7,-6,-34,59,44,-107,-75,-17
1491693715769,1,-51,-2,-32,-87,34,-47,47,-19
1491693715770,2,36,21,61,60,37,-66,-15,36
1491693715770,2,-51,13,59,1,44,16,-33,-29
1491693715799,3,39,24,61,117,-128,66,30,-36
1491693715799,3,29,23,81,-27,-14,65,6,3
1491693715799,0,-41,-19,-110,-73,-77,18,41,9
1491693715799,0,-27,-59,-32,66,94,-16,-49,-70
1491693715800,2,74,60,9,-81,-69,89,119,9
1491693715800,2,-53,-3,91,120,127,-87,-11,-40
1491693715801,3,23,-4,-56,-15,-16,77,18,57
1491693715801,3,-96,-12,-72,60,-108,89,-22,-128
1491693715831,0,23,-34,-128,-128,-23,19,-6,-14
1491693715831,0,58,-8,-106,-60,0,-72,67,44
1491693715832,1,-83,-23,53,126,-58,19,0,37
1491693715832,1,48,19,-10,-128,-128,48,35,21
1491693715833,2,23,5,63,108,127,-110,-116,33
1491693715833,2,-5,38,89,32,-103,127,18,46
1491693715834,3,-30,10,27,-4,-97,-23,-57,-13
1491693715834,3,3,-47,-112,-39,18,-66,-9,-51
1491693715864,0,41,-31,-62,-66,-21,1,-31,97
1491693715864,0,14,8,71,14,43,-22,8,11
1491693715865,1,61,27,-89,33,31,-6,-49,-50
1491693715865,1,-63,25,114,-60,-104,121,-20,64
1491693715865,2,55,-31,-65,-14,14,-86,92,-98
1491693715865,2,-45,-16,6,-112,122,22,-58,44
1491693715866,3,-61,-26,-74,56,-75,-69,5,-65
1491693715866,3,68,18,76,104,17,86,74,65
1491693715897,0,36,43,65,60,-36,-31,16,-40
1491693715897,0,20,-3,26,24,-21,-18,54,47
1491693715898,1,-10,17,116,78,127,-25,-18,-30
1491693715898,1,5,16,-107,21,-78,21,-68,-36
1491693715899,2,-35,-34,43,-6,71,-85,111,53
1491693715899,2,26,16,35,-81,-128,94,72,-12
1491693715961,3,-85,-86,-92,61,111,-107,-87,-71
1491693715961,3,29,-40,-14,50,47,61,102,83
1491693715963,0,-73,27,28,-95,-43,-128,-128,-79
1491693715963,0,-31,34,22,-47,-32,-45,10,-18
1491693715964,1,31,76,127,26,82,-42,-55,27
1491693715964,1,17,-3,-99,-4,-114,59,58,48
1491693715965,2,-77,-25,25,13,-1,-48,-48,-30
1491693715965,2,28,-41,-128,-25,-61,15,-16,-27
1491693715994,3,-36,-39,-38,13,39,41,-33,-7
1491693715994,3,-13,-7,-8,-23,98,-108,56,-10
1491693715995,0,-12,17,94,35,-64,126,89,-32
1491693715995,0,-45,2,-20,-101,51,-111,21,22
1491693715997,1,70,34,80,-63,-128,127,88,25
1491693715997,1,37,-34,-74,-88,-41,-128,-91,-12
1491693715997,2,-3,13,90,-56,60,-71,-59,2
1491693715997,2,-16,-41,-112,127,-82,45,-46,-9
1491693716027,3,-13,-11,-19,2,-1,119,62,34
1491693716027,3,-54,33,122,23,20,45,-5,-61
1491693716028,0,-15,19,-5,-29,62,-58,-17,1
1491693716028,0,-16,1,47,53,64,118,-26,30
1491693716029,1,51,6,-101,98,-21,23,29,3
1491693716029,1,-1,-69,-88,-9,40,-122,-83,-22
1491693716030,2,-14,-8,16,87,55,-53,-22,12
1491693716030,2,-1,22,8,-54,-45,62,-27,-14
1491693716059,3,59,2,-81,-127,-53,-82,70,26
1491693716059,3,12,48,108,-44,-51,58,17,21
1491693716059,0,0,-14,-45,-47,-51,57,-26,28
1491693716059,0,-54,-22,-46,122,103,-68,-11,-31
1491693716060,1,68,34,93,-118,-93,84,51,18
1491693716060,1,1,-20,-78,98,95,-12,-30,35
1491693716061,2,-24,13,59,124,127,-13,-41,-14
1491693716061,2,37,2,-35,-104,-128,79,58,45
1491693716091,3,-45,-40,-80,-59,8,-70,-16,-50
1491693716091,3,66,26,43,-1,89,59,37,51
1491693716092,0,-5,20,37,66,-91,127,51,8
1491693716092,0,30,15,9,31,4,-55,-35,-14
1491693716124,1,4,-9,-58,-61,-85,-39,-3,19
1491693716124,1,-28,-3,-13,25,-101,28,-35,-53
1491693716125,2,-25,-31,-54,113,80,-70,33,-13
1491693716125,2,25,27,110,43,0,88,53,-10
1491693716126,3,-27,-20,-52,116,-26,-73,-22,15
1491693716126,3,-27,-11,-32,1,12,-121,-67,-42
1491693716127,0,-5,-20,-10,27,36,-22,17,16
1491693716127,0,14,8,-6,-6,29,74,11,-37
1491693716156,1,0,17,39,-121,-43,-83,-1,23
1491693716156,1,5,31,104,-111,-128,-27,5,-68
1491693716157,2,26,-15,-128,51,-3,-12,7,14
1491693716157,2,-6,-11,86,-46,91,1,-24,-24
1491693716158,3,-49,-15,-32,111,80,63,11,-9
1491693716158,3,-2,3,-15,43,-17,-82,-5,27
1491693716159,0,35,5,-30,-128,-125,113,7,5
1491693716159,0,-12,4,51,127,45,-14,-1,-4
1491693716189,1,12,7,34,-105,-55,101,18,19
1491693716189,1,-26,-17,19,-21,49,-81,-60,-34
1491693716190,2,38,8,-46,-66,-18,-52,14,11
1491693716190,2,8,3,-80,-40,109,-84,82,8
1491693716191,3,-18,1,30,58,127,-105,-27,6
1491693716191,3,-19,3,47,-81,9,89,-38,5
1491693716221,0,18,-6,-72,53,-57,43,-38,13
1491693716221,0,-4,9,77,83,-128,-70,-28,-1
1491693716223,1,15,11,-37,-82,-49,101,21,69
1491693716223,1,-36,-44,-58,99,-79,16,-26,0
1491693716223,2,16,-2,7,-41,-103,-81,-21,-1
1491693716223,2,-9,6,-33,-69,-71,-100,-43,-28
1491693716254,3,-20,18,94,-45,-66,-6,1,23
1491693716254,3,53,24,41,-2,-43,-36,39,7
1491693716254,0,-12,-23,-55,72,-49,127,44,-18
1491693716254,0,18,-3,-46,-5,-41,-41,-10,16
1491693716255,1,-2,4,-10,-80,-3,-64,-45,-69
1491693716255,1,-62,-6,-61,-46,-30,25,63,42
1491693716286,2,-4,12,83,-7,-4,-90,-67,-68
1491693716286,2,10,-19,-18,-17,-17,50,11,63
1491693716287,3,16,14,-29,-55,-7,-30,-32,8
1491693716287,3,4,-9,54,93,4,-12,0,-43
1491693716287,0,-23,-15,-31,24,-18,78,34,4
1491693716287,0,-9,10,70,-86,-23,89,-4,32
1491693716289,1,-9,-25,-84,-10,21,-93,-39,-43
1491693716289,1,4,6,17,-28,-76,-18,11,11
1491693716319,2,-4,4,-30,-116,-77,40,38,0
1491693716319,2,-5,16,82,95,-36,83,76,3
1491693716319,3,27,-13,-26,76,-128,-35,-29,-17
1491693716319,3,-6,10,-44,31,-70,-32,7,27
1491693716320,0,0,-13,12,-11,7,90,12,-26
1491693716320,0,-33,2,-21,20,-128,-67,-32,-23
1491693716351,1,-12,0,67,127,65,11,44,36
1491693716351,1,4,-9,-45,-62,-30,-22,-12,-12
1491693716352,2,2,14,38,20,-25,-93,-11,63
1491693716352,2,-23,7,34,-31,72,73,-104,-46
1491693716353,3,16,-17,-66,-40,-121,-59,118,-17
1491693716353,3,4,2,-5,14,-53,60,-28,-39
1491693716384,0,11,12,8,-93,4,-12,-40,48
1491693716384,0,38,-16,-22,26,-26,-128,39,46
1491693716385,1,-16,21,101,27,-93,35,-57,-17
1491693716385,1,7,0,-82,15,-102,127,77,28
1491693716386,2,-5,-3,-11,6,-101,-107,-56,-63
1491693716386,2,-5,-16,-36,-3,21,-92,-34,2
1491693716387,3,20,-1,25,-38,119,-33,54,87
1491693716387,3,-6,15,47,-11,127,22,2,-43
1491693716416,0,-31,-15,-18,-71,105,-53,-67,-16
1491693716416,0,-37,-15,-79,-18,107,-36,25,-8
1491693716417,1,53,19,76,102,124,68,-33,-2
1491693716417,1,-32,6,56,17,103,-50,-35,-19
1491693716418,2,-12,-20,-85,-42,84,24,50,20
1491693716418,2,11,-14,-23,115,50,3,-33,3
1491693716449,3,-17,-5,7,9,53,100,19,-6
1491693716449,3,37,13,52,-89,48,-8,1,-28
1491693716449,0,-43,-11,5,35,22,37,-86,-10
1491693716449,0,45,9,-34,-58,14,22,74,33
1491693716451,1,-11,13,-2,-94,9,44,6,-9
1491693716451,1,-27,-38,-43,27,22,106,19,29
1491693716481,2,29,15,88,69,11,-105,-65,-22
1491693716481,2,-14,-13,-86,-50,-10,16,57,23
1491693716482,3,-14,1,23,37,7,49,-6,-21
1491693716482,3,20,-12,-80,-26,12,-31,-25,-56
1491693716483,0,24,-11,-33,23,2,34,49,60
1491693716483,0,-4,1,24,-46,-9,-31,-65,-45
1491693716514,1,-8,16,72,117,-1,-128,44,76
1491693716514,1,-26,-15,-31,1,8,-38,58,-32
1491693716515,2,23,19,51,-45,-5,30,3,-31
1491693716515,2,10,-1,-65,106,-5,14,30,-22
1491693716516,3,-45,-39,-80,-49,2,53,-85,5
1491693716516,3,-1,20,80,-31,1,-39,50,-5
1491693716516,0,-37,10,-3,63,0,-68,-19,-21
1491693716516,0,9,-4,105,-44,-4,20,9,-39
1491693716546,1,49,-12,-84,-12,1,-25,-84,-21
1491693716546,1,34,11,12,113,2,-25,72,70
1491693716551,2,-23,-11,-1,-98,-2,-66,-20,-42
1491693716551,2,-7,-6,-27,-9,-2,-20,-24,17
1491693716552,3,-18,-9,-26,-1,40,44,-2,-16
1491693716552,3,-16,6,33,40,-4,-128,-18,44
1491693716579,0,8,14,43,77,-7,-13,4,-39
1491693716579,0,-47,-16,-45,-119,-7,-71,41,-3
1491693716580,1,-13,-21,-15,10,-9,50,-38,-19
1491693716580,1,48,7,5,-16,4,127,38,95
1491693716581,2,-3,2,-51,22,2,16,-25,-9
1491693716581,2,-31,-41,-51,45,-4,89,0,-10
1491693716611,3,45,17,55,23,-7,-43,-6,-38
1491693716611,3,-58,-4,4,16,3,9,-57,-57
1491693716612,0,22,9,25,-12,-6,127,18,54
1491693716612,0,31,28,110,45,0,-53,-123,-30
1491693716644,1,-19,-3,-88,-57,-6,-59,87,0
1491693716644,1,-20,-31,-18,-80,-1,21,-64,1
1491693716645,2,19,-5,-68,36,2,-48,58,-24
1491693716645,2,30,3,-25,53,-1,65,41,9
1491693716645,3,1,25,51,-110,-6,-59,-49,-28
1491693716645,3,13,6,43,79,13,-7,8,26
1491693716646,0,-26,-3,2,6,-7,-74,39,51
1491693716646,0,1,-5,4,-14,30,64,20,53
1491693716676,1,-25,-31,-52,-12,96,9,6,-40
1491693716676,1,-42,-9,-78,-33,-57,-57,-45,-14
1491693716677,2,31,18,49,31,-19,-95,-2,7
1491693716677,2,1,15,1,-32,43,69,55,-11
1491693716678,3,12,-6,-13,-99,7,58,27,24
1491693716678,3,-3,-2,26,105,37,-42,-27,-31
1491693716679,0,-50,-5,18,-101,-25,83,43,-7
1491693716679,0,13,-9,-6,84,-21,-128,-82,-58
1491693716709,1,26,8,100,84,92,-26,-53,72
1491693716709,1,-13,6,-7,-53,16,49,22,-5
1491693716709,2,10,2,-64,-63,-58,-17,-8,7
1491693716709,2,-20,32,83,-37,61,83,29,-13
1491693716710,3,-1,-37,-104,43,-56,18,-34,-57
1491693716710,3,18,-20,-86,-29,-35,-101,-103,80
1491693716741,0,-1,2,37,62,-25,87,67,16
1491693716741,0,-52,10,40,-109,-59,-91,-122,31
1491693716742,1,12,7,37,127,80,127,107,-93
1491693716742,1,5,15,83,-75,33,-96,-38,-15
1491693716743,2,19,-24,-70,15,30,-43,30,-5
1491693716743,2,12,13,17,-64,3,1,1,21
1491693716774,3,-23,15,42,36,24,-27,45,11
1491693716774,3,-8,-8,-109,-119,-88,16,33,-75
1491693716775,0,10,-23,-13,62,36,-29,-37,33
1491693716775,0,11,0,-69,-51,73,16,-82,-9
1491693716775,1,-8,3,26,-86,-67,-13,34,42
1491693716775,1,7,14,84,36,-22,38,33,-18
1491693716806,2,-50,12,117,53,103,15,-57,-48
1491693716806,2,55,-14,-128,69,-53,44,64,59
1491693716807,3,-37,-22,-69,-81,-117,-56,-82,127
1491693716807,3,1,15,17,-4,43,-9,49,-66
1491693716808,0,63,3,31,41,-3,12,-88,61
1491693716808,0,-51,8,35,-26,46,-6,88,21
1491693716809,1,78,20,34,50,81,27,17,-36
1491693716809,1,15,-21,6,127,-35,35,-9,22
1491693716871,2,-12,31,19,-94,-42,16,-20,-50
1491693716871,2,10,-41,-61,109,-44,67,65,-1
1491693716872,3,-26,-23,-23,31,-60,-70,-1,10
1491693716872,3,-52,-11,-37,-128,-41,9,-101,-47
1491693716873,0,26,26,110,-37,127,-58,51,15
1491693716873,0,66,20,-101,-6,-51,-27,-85,7
1491693716874,1,-28,-7,-51,47,-86,102,-30,-1
1491693716874,1,7,11,20,-51,47,36,13,57
1491693716904,2,-80,-31,-8,8,-11,-6,-7,-58
1491693716904,2,-9,4,113,70,10,-15,6,17
1491693716905,3,-33,2,-63,60,74,-71,-72,-58
1491693716905,3,54,-3,-50,46,-20,97,-25,72
1491693716906,0,61,-36,-90,-11,-65,-17,107,-10
1491693716906,0,-80,-19,38,-47,-21,-23,-68,-106
1491693716907,1,7,25,94,-49,-97,-3,11,22
1491693716907,1,53,25,98,-8,98,-104,74,-29
1491693716936,2,-38,-18,-128,-116,-83,48,-59,-18
1491693716936,2,-10,-24,2,50,31,-41,16,-34
1491693716938,3,-33,4,30,-20,-59,71,63,-44
1491693716938,3,-47,-3,-34,41,65,12,-35,-4
1491693716940,0,46,45,127,-12,83,-57,-50,26
1491693716940,0,-5,-27,-102,-110,-110,-92,16,-30
1491693716941,1,-6,23,62,73,84,13,68,21
1491693716941,1,33,23,-20,-5,-97,-55,-22,-32
1491693716969,2,-74,-39,-30,127,15,29,72,-27
1491693716969,2,18,-13,-50,-46,-22,-103,-88,46
1491693716972,3,18,-8,20,-38,39,15,-12,-3
1491693716972,3,78,21,20,10,17,80,63,-6
1491693716973,0,22,12,-49,-118,-112,-44,-11,14
1491693716973,0,-35,13,44,17,24,-6,-43,-25
1491693716973,1,-6,-34,-60,-8,-20,78,24,8
1491693716973,1,-3,17,66,28,115,-89,-39,-34
1491693717001,2,50,-3,-96,-94,-93,-66,-69,76
1491693717001,2,-21,-9,-34,1,-28,65,42,-16
1491693717002,3,-85,20,20,-6,52,-42,-55,-40
1491693717002,3,18,-19,-33,-122,-114,23,-31,80
1491693717003,0,-3,4,91,127,127,106,-86,-17
1491693717003,0,8,3,-22,-69,-72,-68,64,-23
1491693717067,1,4,-3,-8,-44,-54,-128,16,14
1491693717067,1,0,-3,5,34,1,7,-47,-67
1491693717070,2,3,4,-35,-52,-15,-37,3,3
1491693717070,2,-53,-12,12,-19,75,54,-28,9
1491693717073,3,24,11,55,-56,4,79,76,-79
1491693717073,3,4,-22,-120,68,-67,-88,-54,115
1491693717074,0,33,-5,44,98,17,61,68,-33
1491693717074,0,-53,-4,-73,-60,-15,65,-30,1
1491693717099,1,52,-19,4,-26,-65,-41,16,50
1491693717099,1,-37,12,92,15,39,127,45,-85
1491693717101,2,-87,-18,-27,-17,24,127,5,-85
1491693717101,2,21,27,76,-20,47,-61,-33,6
1491693717102,0,-22,-7,27,-58,52,59,83,72
1491693717102,0,-4,13,29,-6,-70,-42,28,-6
1491693717103,1,-9,14,-36,6,0,-64,-2,-14
1491693717103,1,-38,-24,47,-44,67,97,92,41
1491693717132,2,-23,8,-102,-96,-60,17,-45,-26
1491693717132,2,60,-15,37,116,64,70,7,-3
1491693717133,3,-38,0,62,-56,92,-60,-112,8
1491693717133,3,60,15,-45,25,-105,11,87,55
1491693717135,0,-49,-3,19,-74,-13,-64,13,-84
1491693717135,0,54,-28,-48,72,-25,36,-27,65
1491693717136,1,-36,-13,3,38,-19,-67,-66,-56
1491693717136,1,-41,16,35,-112,88,-78,-47,-62
1491693717229,2,122,39,107,95,64,68,95,89
1491693717229,2,-15,-6,-45,35,-25,-27,63,-7
1491693717231,3,-2,-18,-13,-49,-25,-22,22,-1
1491693717231,3,-50,-14,-75,-44,-29,-35,-1,-6
1491693717232,0,52,-12,-39,4,-7,84,-38,13
1491693717232,0,-10,9,43,11,4,-25,4,-8
1491693717233,1,30,15,-28,-76,-62,117,1,31
1491693717233,1,-43,-21,1,49,-19,21,11,-44
1491693717262,2,-42,-17,4,17,35,-43,-3,-42
1491693717262,2,3,-4,32,20,-26,-10,-13,-1
1491693717264,3,-51,-1,-2,16,25,36,76,-65
1491693717264,3,100,38,59,33,-3,94,35,105
1491693717265,0,-43,-20,-87,-86,-45,-67,-46,-71
1491693717265,0,23,30,43,100,30,-42,-25,24
1491693717266,0,36,19,-22,-105,-128,-34,-40,94
1491693717266,0,-84,-48,-51,28,24,68,43,-77
1491693717326,1,127,55,87,-20,29,56,-11,66
1491693717326,1,-69,-29,-66,86,28,-103,-59,-34
1491693717328,2,-30,1,16,-15,-22,-114,-1,-20
1491693717328,2,4,21,54,0,43,15,20,-33
1491693717331,3,-19,-5,-40,-65,13,42,-38,-37
1491693717331,3,-39,-39,-38,-128,-80,127,-47,-48
1491693717332,0,14,15,-5,118,37,-122,80,55
1491693717332,0,34,-20,-71,-104,-51,-95,13,9
1491693717359,1,1,38,66,127,96,52,64,4
1491693717359,1,-10,6,-44,-50,-44,57,23,8
1491693717360,2,-48,-47,-108,5,-87,-95,-56,32
1491693717360,2,70,13,61,60,22,20,30,30
1491693717361,3,-24,-11,-3,42,-9,10,16,-17
1491693717361,3,-26,24,77,-20,28,-4,-15,-99
1491693717362,2,-9,5,-5,-29,39,36,-111,29
1491693717362,2,-21,20,38,-59,-1,108,75,-87
1491693717392,3,49,4,9,-11,24,-128,-38,42
1491693717392,3,71,35,70,56,112,23,45,22
1491693717393,0,-3,10,2,-29,-43,110,20,-8
1491693717393,0,-61,-28,11,-68,7,13,-63,-45
1491693717394,1,-39,-26,-61,-61,-106,6,11,2
1491693717394,1,43,19,-25,-104,-37,-47,-5,35
1491693717395,2,6,39,73,127,127,-39,24,71
1491693717395,2,17,-29,-53,-31,-56,-47,-102,-76
1491693717424,3,-51,-27,-73,-128,-57,75,109,30
1491693717424,3,3,6,32,76,50,-70,28,23
1491693717425,0,-2,39,105,78,104,101,71,-52
1491693717425,0,59,21,-23,-15,-55,63,-64,119
1491693717425,1,-24,-30,27,84,4,-101,-71,-19
1491693717425,1,-29,-12,-76,-116,-76,-44,-66,-74
1491693717426,2,-38,-10,-31,-49,-6,-99,-84,12
1491693717426,2,81,3,-1,28,33,21,44,9
1491693717456,3,-41,-21,-28,19,-62,-114,-25,-44
1491693717456,3,12,2,9,-75,83,127,37,74
1491693717457,0,-28,-18,-5,98,-118,-108,-109,-104
1491693717457,0,12,16,20,10,-6,76,67,35
1491693717458,1,54,39,19,-16,-7,-6,3,10
1491693717458,1,-61,-58,-71,-27,-78,8,-6,-49
1491693717459,2,-12,39,63,-56,66,-74,-14,15
1491693717459,2,-12,-31,-32,51,-12,-23,1,-35
1491693717489,3,-18,-7,-7,-18,22,-2,8,-73
1491693717489,3,40,11,17,-23,7,55,9,33
1491693717490,0,65,-8,-34,-43,-19,74,32,-11
1491693717490,0,-38,16,67,-23,-6,-89,-42,8
1491693717491,1,-15,3,18,39,102,103,-24,-19
1491693717491,1,23,26,61,19,40,15,46,28
1491693717521,2,-2,-20,-77,29,-71,127,10,-20
1491693717521,2,-26,-12,46,108,73,-21,54,34
1491693717522,3,-13,-1,-66,-18,-78,10,-56,-34
1491693717522,3,54,0,-68,-66,-89,-118,-45,-25
1491693717523,0,0,-21,55,118,68,0,-28,26
1491693717523,0,-43,16,-7,-100,18,40,-30,-73
1491693717554,1,20,-21,-54,-112,-38,-14,-45,102
1491693717554,1,-8,0,62,127,32,4,87,-41
1491693717555,2,37,4,-45,-128,-69,42,-13,51
1491693717555,2,-16,-11,-40,-13,7,-38,68,22
1491693717556,3,-17,20,98,90,52,8,-20,-30
1491693717556,3,7,15,43,59,38,-90,-17,48
1491693717586,0,-42,-30,-73,-64,-80,-51,-61,-17
1491693717586,0,0,26,79,-69,33,57,52,-78
1491693717587,1,-3,1,-24,73,-88,22,-17,28
1491693717587,1,-62,-51,-49,127,70,38,66,-8
1491693717588,2,25,4,-8,-40,-3,59,32,-16
1491693717588,2,56,4,2,13,-11,-87,-72,27
1491693717619,3,-34,0,-22,-66,-3,82,46,-40
1491693717619,3,-3,26,31,-1,16,45,-3,15
1491693717620,0,-7,-24,-43,-35,-14,-78,-68,-54
1491693717620,0,-26,9,-12,-50,27,104,77,45
1491693717621,1,9,5,67,127,108,-91,44,13
1491693717621,1,-30,-8,-31,-101,-105,32,-47,-60
1491693717622,2,77,22,21,6,-5,127,66,106
1491693717622,2,-17,-25,-113,-17,-77,-28,-33,38
1491693717651,3,-3,-36,-86,-114,-79,-25,-53,-59
1491693717651,3,-3,3,-25,114,63,9,-50,83
1491693717652,0,-51,-3,35,-46,-67,-128,-8,-23
1491693717652,0,22,-17,4,89,-30,-30,-1,71
1491693717653,1,38,40,49,-6,78,25,-26,-5
1491693717653,1,22,11,52,-4,-23,68,49,4
1491693717684,2,-47,-18,-8,-12,0,-52,31,-40
1491693717684,2,27,13,-30,-56,-4,22,31,14
1491693717685,3,-16,-18,18,-24,9,-3,-24,-40
1491693717685,3,20,7,-1,14,-20,33,-117,-26
1491693717686,0,-11,0,6,75,127,65,36,38
1491693717686,0,-4,-13,-40,-96,58,39,-15,-39
1491693717716,1,37,-14,59,127,111,114,61,44
1491693717716,1,-44,-2,-9,-122,-41,-76,-59,-13
1491693717718,2,5,24,-41,10,-4,17,16,17
1491693717718,2,-42,-9,0,11,-79,-12,-49,-7
1491693717719,3,-32,13,17,26,-8,9,-2,-23
1491693717719,3,34,-29,-44,-26,-90,-95,78,-35
1491693717749,0,-58,7,48,22,-7,56,79,-38
1491693717749,0,20,16,-28,-47,14,6,-18,2
1491693717750,1,7,18,33,-128,8,-75,3,40
1491693717750,1,16,-5,23,127,-62,-22,-68,22
1491693717751,2,-18,-8,97,103,79,-17,-87,-26
1491693717751,2,-37,-23,-86,-71,-10,103,11,-75
1491693717752,3,69,-16,-50,110,-73,-106,57,50
1491693717752,3,26,21,69,-4,127,-46,-53,30
1491693717781,0,42,-2,-76,-111,-128,-28,-34,-38
1491693717781,0,38,-11,49,119,1,-24,52,82
1491693717782,1,-78,-12,-75,-128,-58,-7,35,-94
1491693717782,1,89,19,15,51,93,57,42,71
1491693717783,2,6,0,19,55,24,32,14,14
1491693717783,2,-38,5,29,38,-89,-125,-27,-36
1491693717814,3,-99,-23,-17,-74,-20,24,21,-87
1491693717814,3,99,9,45,76,14,-5,-15,36
1491693717815,0,-29,2,17,-53,13,-105,11,-52
1491693717815,0,22,-13,-80,-89,-57,70,-28,7
1491693717816,1,-17,1,37,44,89,2,27,42
1491693717816,1,-106,-4,-20,-29,-121,-78,-115,-64
1491693717846,2,3,-9,-59,-52,74,-66,79,-38
1491693717846,2,-65,-20,-45,49,-23,-27,-27,-25
1491693717847,3,-47,-16,-16,43,-3,87,-80,-52
1491693717847,3,84,29,-8,-128,-44,-43,42,21
1491693717848,0,-7,-15,57,116,5,5,-94,-3
1491693717848,0,-24,0,19,77,36,19,92,-43
1491693717879,1,-37,-1,24,5,-10,-11,3,25
1491693717879,1,10,-4,-8,-56,38,15,4,33
1491693717880,2,-21,40,91,106,78,54,118,-31
1491693717880,2,99,24,-78,-99,-58,51,11,29
1491693717881,3,-26,-58,-2,55,-58,-25,-104,-17
1491693717881,3,6,-26,-55,-10,-94,107,-4,4
1491693717882,0,-96,-11,-34,-121,-46,-94,39,36
1491693717882,0,19,22,120,127,127,-13,-37,3
1491693717911,1,81,10,-30,-112,-51,-81,-6,88
1491693717911,1,-50,16,15,-73,-14,50,89,-29
1491693717913,2,-86,-7,1,53,-28,87,-11,-105
1491693717913,2,62,41,127,-20,95,-36,-50,66
1491693717914,3,64,23,-71,-3,-79,10,59,96
1491693717914,3,-9,-28,28,69,35,-3,-34,85
1491693717944,0,-26,21,60,-58,70,79,34,-19
1491693717944,0,-96,-4,-13,-2,-82,-118,-44,-61
1491693717945,1,5,-27,-5,127,82,-94,-48,-52
1491693717945,1,33,-13,-128,-9,-66,88,85,59
1491693717946,2,99,-9,-82,-41,-128,75,-3,127
1491693717946,2,-121,0,91,-54,72,-47,-128,-96
1491693717976,3,63,19,-38,105,-48,127,113,84
1491693717976,3,-31,-11,-60,-70,-45,-128,-79,-128
1491693717978,0,2,-22,-128,10,74,-39,-38,127
1491693717978,0,-51,-50,83,70,36,98,13,5
1491693717979,1,81,49,113,-1,84,91,8,-23
1491693717979,1,-82,32,103,-51,127,-77,-13,4
1491693718009,2,42,-11,-90,42,101,78,4,50
1491693718009,2,-51,0,-88,-123,-104,-105,-22,-78
1491693718009,3,16,-35,71,83,111,74,40,23
1491693718009,3,-89,-13,50,-58,97,-4,-10,-104
1491693718010,0,78,13,89,-21,100,58,-12,-58
1491693718010,0,76,52,-61,98,120,71,98,110
1491693718011,1,-9,10,-99,-95,13,-41,-112,-18
1491693718011,1,-27,-22,-50,115,-59,13,-37,5
1491693718041,2,-48,0,74,-54,-128,-82,-1,-128
1491693718041,2,96,-7,87,127,-127,127,72,98
1491693718042,3,-84,7,-40,-128,-110,-80,-106,27
1491693718042,3,35,2,-23,127,-103,-68,-60,-57
1491693718043,0,4,18,65,94,-117,93,92,-16
1491693718043,0,-55,-83,-107,-36,-108,-88,-49,-54
1491693718074,1,2,-12,24,57,-49,40,15,-31
1491693718074,1,42,28,-101,-87,-53,127,95,96
1491693718074,2,-67,-11,77,41,-60,-128,-118,-61
1491693718074,2,91,66,77,51,-32,-96,14,48
1491693718075,3,27,-59,-116,65,-25,82,-11,-5
1491693718075,3,-23,7,21,-99,-70,23,19,-56
1491693718106,0,15,21,44,93,-83,-67,-33,0
1491693718106,0,-92,-31,-128,-128,-4,-64,-53,14
1491693718107,1,-108,-11,55,-122,102,50,-13,-112
1491693718107,1,127,58,127,102,-53,127,30,77
1491693718108,2,-92,-70,-128,-38,109,1,57,-75
1491693718108,2,20,14,-15,-48,-107,105,-30,-9
1491693718139,3,13,18,30,10,99,-100,75,-22
1491693718139,3,59,67,48,32,117,104,-8,-86
1491693718140,0,8,-20,-128,124,-6,-38,74,54
1491693718140,0,-57,-56,-37,80,48,127,-73,-3
1491693718140,1,89,-1,55,-108,-83,-43,32,93
1491693718140,1,-82,-39,-47,66,96,-113,32,-50
1491693718141,2,62,57,120,-128,59,-101,41,103
1491693718141,2,4,-61,-100,-95,-48,-49,-55,-104
1491693718171,3,-98,18,97,127,19,-65,27,69
1491693718171,3,-64,9,81,2,99,35,-1,-10
1491693718172,0,56,-40,-128,52,-84,7,-113,39
1491693718172,0,15,33,104,-106,-91,-57,-26,-29
1491693718173,1,15,34,-26,104,74,26,43,0
1491693718173,1,-46,-34,62,11,13,104,58,10
1491693718204,2,-95,-27,-114,-88,106,-36,-68,31
1491693718204,2,21,27,113,15,17,-38,16,17
1491693718205,3,27,-5,-128,-114,-128,46,17,-58
1491693718205,3,-76,-33,30,25,56,-27,51,43
1491693718206,0,16,-38,-34,60,91,42,-73,-43
1491693718206,0,28,56,-15,-49,-31,36,22,-70
1491693718236,1,-2,-60,28,104,127,8,-36,-15
1491693718236,1,44,49,16,-127,-128,-5,89,30
1491693718237,2,25,32,110,104,71,24,-98,12
1491693718237,2,-53,-39,-95,-76,20,90,12,-46
1491693718238,3,-47,62,100,-111,-12,11,11,-67
1491693718238,3,79,-37,4,-34,-93,110,-102,15
1491693718269,0,40,71,52,-75,-108,-52,27,86
1491693718269,0,-40,-49,-23,127,127,-37,-4,6
1491693718270,1,-72,-24,66,-121,-125,82,-30,-13
1491693718270,1,48,7,-87,-9,-85,29,-111,76
1491693718271,2,9,32,43,-32,80,-42,68,30
1491693718271,2,-14,47,-13,127,48,59,-12,-37
1491693718272,3,0,-67,-128,127,-56,-23,-60,75
1491693718272,3,-21,-5,92,92,127,-91,-6,-46
1491693718301,0,84,21,30,18,-128,127,46,-44
1491693718301,0,-59,6,-25,-34,-32,33,75,49
1491693718302,1,-50,1,9,41,26,-128,-91,-102
1491693718302,1,30,-24,-109,127,67,-75,-95,-77
1491693718303,2,-7,-15,21,-50,-59,127,114,41
1491693718303,2,-23,11,72,-72,118,-74,29,-18
1491693718334,3,47,35,68,-128,-80,57,92,-85
1491693718334,3,4,31,24,-108,-86,-55,-21,99
1491693718366,0,-31,-9,-108,98,61,8,50,-32
1491693718366,0,-9,62,127,-5,-86,13,-14,75
1491693718367,1,-84,-58,-128,113,56,17,-2,-72
1491693718367,1,42,-16,-47,-128,67,-41,30,86
1491693718368,2,-64,-40,-10,55,-128,39,-7,-18
1491693718368,2,127,34,-70,1,62,89,-40,38
1491693718369,3,56,51,125,116,127,63,1,79
1491693718369,3,-32,-42,-52,127,-56,-42,52,-65
1491693718431,0,-31,42,53,-3,89,1,15,-47
1491693718431,0,83,-48,-121,106,-82,26,-42,-3
1491693718434,1,24,47,127,69,75,0,-18,-20
1491693718434,1,-19,-16,-117,-56,-112,4,54,100
1491693718435,2,60,-43,46,89,71,-73,-77,-25
1491693718435,2,-118,-33,10,3,107,-83,-53,-90
1491693718436,3,50,31,-5,16,-78,62,-9,26
1491693718436,3,-7,-27,-34,-81,-96,91,-56,-54
1491693718464,0,-39,-33,-89,-13,-54,-86,-61,33
1491693718464,0,10,-16,-47,-78,-48,25,61,38
1491693718465,1,-38,-9,1,72,67,5,-64,-41
1491693718465,1,-80,34,92,45,127,32,5,-25
1491693718467,2,-37,-12,74,-128,-66,-21,-65,-27
1491693718467,2,89,82,89,-64,-104,112,-27,6
1491693718468,0,4,-44,-128,-90,-18,-111,-53,-47
1491693718468,0,-32,-70,-101,127,7,46,-80,28
1491693718496,1,68,41,25,-71,-54,15,65,9
1491693718496,1,-112,-26,78,-20,-45,40,10,-59
1491693718497,2,89,91,105,-23,107,127,82,86
1491693718497,2,7,22,52,35,122,-8,52,-22
1491693718498,3,-81,-94,-74,96,44,3,-39,-54
1491693718498,3,-25,45,97,-32,-28,-20,-35,-32
1491693718499,0,30,-79,-41,60,-120,-37,16,23
1491693718499,0,-31,-5,127,13,-103,-20,67,13
1491693718529,1,-7,-2,-85,79,-79,61,-21,-60
1491693718529,1,-54,-41,49,-35,-128,-73,-4,-9
1491693718561,2,90,23,73,7,-128,127,21,42
1491693718561,2,64,116,81,0,-91,-29,11,116
1491693718562,3,-39,-105,-96,56,-128,-113,-102,-68
1491693718562,3,-16,-54,57,96,-23,97,-35,-69
1491693718563,0,-46,-11,-128,-61,87,48,50,2
1491693718563,0,-3,-48,90,47,123,-50,-95,-123
1491693718564,1,-8,111,0,-18,115,-32,56,103
1491693718564,1,-3,-50,-128,-76,127,67,38,-88
1491693718594,2,17,48,127,112,127,116,38,43
1491693718594,2,-8,-3,-54,-37,90,-30,-1,79
1491693718595,3,10,-55,25,-64,75,-29,48,-12
1491693718595,3,80,117,25,-27,95,81,46,50
1491693718595,1,16,38,29,-128,126,-9,20,56
1491693718595,1,-8,-33,73,86,127,-10,-17,3
1491693718596,2,-59,64,127,0,98,38,50,-46
1491693718596,2,-11,-26,-29,33,-20,62,-9,42
1491693718626,3,2,-64,-38,-128,-23,-77,-47,-37
1491693718626,3,-51,-110,-128,127,-93,-86,-27,66
1491693718627,0,-14,-3,53,-10,61,64,-88,-45
1491693718627,0,-16,49,35,127,51,59,41,-42
1491693718628,1,19,52,-18,-27,-55,-30,-5,29
1491693718628,1,-13,26,-14,15,46,29,-92,11
1491693718629,2,5,-44,-21,-50,1,-82,-69,-58
1491693718629,2,27,-23,5,-38,60,27,52,-5
1491693718659,3,6,22,-48,-24,-12,10,-56,-70
1491693718659,3,75,41,77,8,122,2,83,87
1491693718660,0,-31,-87,-107,-17,-99,-101,-86,-111
1491693718660,0,-62,6,82,-71,-12,-30,0,-104
1491693718660,1,-47,96,99,-7,73,42,-17,94
1491693718660,1,91,10,-36,-24,67,22,-21,-40
1491693718691,2,-3,123,78,-41,122,64,-34,45
1491693718691,2,-8,12,-128,-94,-128,-100,-23,-9
1491693718692,3,55,107,85,-17,56,9,-37,-33
1491693718692,3,46,113,52,-111,81,113,-35,-37
1491693718693,0,-28,12,-81,81,-4,44,-24,14
1491693718693,0,-128,63,-128,55,-80,-100,-108,3
1491693718694,1,-114,-101,49,17,127,53,56,35
1491693718694,1,-128,75,-20,-15,-14,-85,26,-51
1491693718724,2,-40,45,102,18,-36,61,50,-28
1491693718724,2,64,12,98,127,-37,65,111,92
1491693718725,3,-109,66,-112,8,-128,-72,43,-45
1491693718725,3,-9,-103,-29,-55,-105,-98,-5,-22
1491693718726,0,33,-33,-76,44,-128,-72,-34,-16
1491693718726,0,72,-105,102,70,-31,116,60,-24
1491693718756,1,83,-16,-58,87,-76,-68,10,41
1491693718756,1,-46,4,66,42,-88,-88,-23,-73
1491693718757,2,43,112,92,-32,-32,1,18,42
1491693718757,2,101,51,20,-54,-7,-25,27,47
1491693718761,3,108,-80,107,-128,-30,127,36,-39
1491693718761,3,102,57,89,-70,-50,-5,127,78
1491693718789,0,82,-97,-128,-100,-34,-63,-66,-36
1491693718789,0,104,-74,-8,-81,30,-9,52,-17
1491693718790,1,122,-11,48,-30,-33,42,43,87
1491693718790,1,-10,-97,-128,-30,-23,-40,-68,-20
1491693718791,2,75,-23,127,-66,-5,31,127,28
1491693718791,2,-104,-112,36,-48,15,-8,-54,-26
1491693718821,3,80,10,127,2,-2,17,-28,-40
1491693718821,3,81,-8,127,-7,-20,127,89,102
1491693718822,0,-59,-54,-18,-52,0,-80,24,71
1491693718822,0,-20,-74,-35,4,9,-71,-77,-2
1491693718823,1,-48,-40,23,9,-14,-18,25,-113
1491693718823,1,107,-39,-71,-6,-4,58,-61,77
1491693718824,2,-39,-99,-100,-5,-11,12,57,-13
1491693718824,2,-55,-48,-77,8,9,2,36,10
1491693718886,3,-49,-9,-83,1,-4,37,-65,-13
1491693718886,3,-80,34,-88,-10,-9,5,74,-17
1491693718887,0,-36,127,-72,-3,1,-5,15,-40
1491693718887,0,-17,-74,-128,3,5,37,21,-2
1491693718888,1,-68,27,56,-8,-2,16,-38,-14
1491693718888,1,45,40,111,5,-9,32,55,59
1491693718889,2,-63,92,-37,-3,-79,-33,-11,-74
1491693718889,2,54,127,50,-21,101,52,43,109
1491693718919,3,-14,-20,-128,72,32,30,0,-29
1491693718919,3,-42,-38,-128,-43,-106,-73,-99,-8
1491693718920,0,23,35,127,-6,111,14,61,9
1491693718920,0,-128,-3,-99,-110,-128,-14,-118,-60
1491693718921,1,89,-25,-24,19,-67,-13,7,82
1491693718921,1,-90,8,101,-116,110,88,27,-50
1491693718922,2,-46,-128,-125,-63,-91,32,9,45
1491693718922,2,86,-26,127,13,75,57,-25,40
1491693718984,3,-50,-78,-3,-7,-99,-16,41,58
1491693718984,3,-28,-128,-35,-76,-128,-84,-83,-28
1491693718985,0,-30,31,115,94,96,34,-97,-58
1491693718985,0,20,-111,-121,-97,26,63,21,-102
1491693718986,1,-93,-65,90,-97,-19,-22,-46,-20
1491693718986,1,70,-102,92,64,28,-32,22,40
1491693719049,2,-26,-54,81,-30,-128,-22,-64,-73
1491693719049,2,-49,-62,-78,96,-101,-30,14,-1
1491693719050,3,-10,9,51,55,112,12,-38,23
1491693719050,3,36,37,-122,100,-30,71,70,0
1491693719051,0,68,104,68,-3,62,-34,3,86
1491693719051,0,-5,127,54,89,29,4,-2,-17
1491693719053,1,-41,111,-128,-118,102,117,14,6
1491693719053,1,-55,127,-28,40,-90,-122,-34,-39
1491693719179,3,44,121,127,-78,9,-64,30,-30
1491693719179,3,-61,32,-122,-61,-3,127,-48,-29
1491693719244,0,97,63,31,13,56,98,36,96
1491693719244,0,-72,102,127,19,102,41,43,7
1491693719245,1,31,-53,-127,122,-87,-24,-32,-29
1491693719245,1,-41,-46,28,16,-55,-90,5,9
1491693719309,1,6,24,-15,42,86,127,67,-9
1491693719309,1,-14,-66,-112,47,-109,-51,-100,16
1491693719341,2,84,8,2,-92,127,58,106,-16
1491693719341,2,-86,10,50,54,-128,-104,27,-47
1491693719342,3,4,25,47,-78,69,-54,-19,10
1491693719342,3,67,1,-61,127,114,18,-22,-32
1491693719343,1,91,13,127,107,-65,22,-9,2
1491693719343,1,-27,-8,-57,40,46,-96,78,-24
1491693719344,2,-35,-45,81,17,49,-70,-100,8
1491693719344,2,-13,7,-79,-76,-3,60,35,28
1491693719374,1,-92,18,-43,96,-128,-58,32,-113
1491693719374,1,93,21,9,-124,-128,83,51,94
1491693719375,3,11,32,26,-43,26,-58,-19,-27
1491693719375,3,-8,21,53,79,-48,-88,34,-27
1491693719376,0,32,-13,-43,23,85,112,58,43
1491693719376,0,-2,-55,20,-45,-7,43,-81,-84
1491693719406,3,38,-26,7,-96,-72,34,2,-19
1491693719406,3,-2,-18,-82,71,82,-39,-86,12
1491693719407,0,59,90,127,-40,58,33,103,31
1491693719407,0,42,8,-56,-93,-93,41,-60,21
1491693719408,1,38,-23,-24,-29,93,-91,-54,31
1491693719408,1,-128,-7,45,-52,-128,55,-36,-97
1491693719409,2,87,23,-80,33,59,-128,9,19
1491693719409,2,-117,7,63,-26,-83,77,48,51
1491693719439,3,120,-5,-52,80,93,56,-49,60
1491693719439,3,-56,-41,-42,-28,30,22,-26,-48
1491693719440,0,-75,-17,97,-6,41,58,25,-55
1491693719440,0,1,16,127,113,-55,-84,-75,-16
1491693719440,1,33,-9,1,15,-1,-16,57,15
1491693719440,1,17,20,-68,51,-38,-128,33,-41
1491693719441,2,56,36,121,64,33,29,-52,10
1491693719441,2,23,-19,-128,-74,28,-128,-5,-68
1491693719471,3,-94,-27,95,-28,-4,-16,-2,24
1491693719471,3,-48,-24,-20,-86,87,-42,-56,-39
1491693719472,0,32,-50,-51,26,-41,-27,-17,-1
1491693719472,0,5,44,103,-33,84,45,32,-18
1491693719504,1,17,-8,-91,104,-111,-46,14,2
1491693719504,1,76,11,38,-33,-36,60,-42,-24
1491693719505,2,-79,-3,30,-69,-62,-48,3,2
1491693719505,2,34,-12,-65,127,90,48,57,-17
1491693719505,3,-8,-9,-34,-113,-43,-37,-20,-73
1491693719505,3,-30,-1,26,117,-89,-73,3,56
1491693719536,0,9,42,29,-74,-18,127,-78,21
1491693719536,0,-92,-45,-128,-58,7,-39,11,-37
1491693719537,1,-84,-8,-29,-119,-5,-99,-110,-44
1491693719537,1,-41,-38,34,76,58,-28,-8,-11
1491693719538,2,-23,-45,-27,-93,35,78,43,-16
1491693719538,2,82,64,127,118,59,80,-67,1
1491693719539,3,55,69,-60,-66,-117,-44,127,58
1491693719539,3,-79,-72,-128,9,59,70,-114,-95
1491693719569,0,54,7,-1,127,10,107,54,49
1491693719569,0,-54,-23,-67,-49,0,-4,125,-46
1491693719570,1,-1,23,127,-2,76,127,113,40
1491693719570,1,-32,78,41,-128,-93,8,-79,-9
1491693719571,2,-69,-77,29,104,44,-120,39,-51
1491693719571,2,98,-34,-13,111,36,34,-71,19
1491693719572,3,43,36,2,-31,35,39,-27,-2
1491693719572,3,-19,24,-21,-9,-92,-115,49,111
1491693719601,0,97,-28,-119,-79,-97,0,-81,-85
1491693719601,0,-55,18,11,82,52,-37,35,127
1491693719602,1,-57,-40,-7,53,-93,-48,2,-49
1491693719602,1,-9,-14,71,8,127,-35,-71,-8
1491693719605,2,-79,56,39,27,-16,50,22,-48
1491693719605,2,51,-14,-17,-58,-116,-11,24,50
1491693719606,3,31,22,49,-5,-32,91,-82,-10
1491693719606,3,8,22,67,89,-106,2,127,-72
1491693719634,0,-105,-51,-118,-34,60,-128,-121,-18
1491693719634,0,37,-25,-45,-8,36,-112,-37,42
1491693719635,1,-40,-27,19,24,-37,78,99,-24
1491693719635,1,84,10,33,-128,62,85,-124,50
1491693719636,2,43,55,30,-1,-85,95,110,94
1491693719636,2,3,25,4,-95,46,4,43,5
1491693719638,3,-73,-7,-19,127,83,-82,-71,14
1491693719638,3,56,-11,-42,4,-102,109,42,47
1491693719666,0,-57,-50,-35,-72,43,-31,-81,-13
1491693719666,0,78,32,11,92,-43,127,36,-47
1491693719667,1,-4,7,35,81,78,-33,47,22
1491693719667,1,-38,13,52,-19,-76,127,-2,-34
1491693719668,2,17,-64,-76,106,66,-19,-21,-12
1491693719668,2,-35,-81,-78,-76,-68,-128,-59,-47
1491693719699,3,-89,57,74,-65,58,10,-128,-110
1491693719699,3,96,15,60,-40,-10,67,113,72
1491693719700,0,25,65,61,-98,-26,-39,-14,34
1491693719700,0,-75,-63,-16,101,-57,-90,-108,-68
1491693719701,1,4,27,-11,-26,32,111,17,95
1491693719701,1,47,-15,-34,-7,27,24,-17,-119
1491693719731,2,1,98,89,51,-19,-49,46,86
1491693719731,2,-50,-65,-33,-80,-15,127,56,16
1491693719732,3,14,-45,-97,16,-111,-16,-12,70
1491693719732,3,-128,-108,-107,-42,127,-78,-69,-77
1491693719733,0,91,84,91,95,71,112,68,56
1491693719733,0,-12,41,-43,-74,32,-65,123,-94
1491693719764,1,127,80,125,-92,-98,127,-9,80
1491693719764,1,-67,-32,-112,72,71,-128,-80,87
1491693719765,2,-98,-46,-92,27,106,91,-42,-120
1491693719765,2,28,77,8,-91,-104,18,57,23
1491693719766,3,-7,-65,16,68,-35,61,68,17
1491693719766,3,82,57,33,92,65,56,-18,2
1491693719767,0,-40,-48,-74,60,-58,-128,-33,-66
1491693719767,0,-74,-29,-56,-26,-27,-62,-128,-11
1491693719796,1,89,34,26,-83,11,69,57,19
1491693719796,1,-36,28,29,70,-74,-71,127,82
1491693719797,2,9,-69,19,-99,-67,127,53,19
1491693719797,2,-100,-16,-5,102,55,-68,-110,-103
1491693719798,3,106,28,-23,118,127,-35,33,70
1491693719798,3,-94,-3,104,72,-115,-86,-82,-48
1491693719829,0,-24,48,116,92,42,44,-23,1
1491693719829,0,-36,55,-71,-90,-103,101,72,-67
1491693719830,1,-28,-91,-19,109,-8,-128,-107,-27
1491693719830,1,12,66,-21,-112,59,95,125,66
1491693719831,2,-63,1,62,106,-93,49,-67,-43
1491693719831,2,71,0,-13,-34,-68,127,87,86
1491693719861,3,-55,-73,-128,91,46,-106,-48,-128
1491693719861,3,15,41,56,-128,-59,98,-66,12
1491693719862,0,35,-22,-99,67,-102,-128,-66,-49
1491693719862,0,-75,9,90,56,117,85,-45,0
1491693719863,1,60,-15,-26,-116,-128,93,61,55
1491693719863,1,-107,-76,-103,127,101,-52,-43,-128
1491693719894,2,-27,127,127,-128,110,122,84,-26
1491693719894,2,82,-85,-57,127,-70,-128,-53,97
1491693719895,3,-107,26,104,15,106,-80,-74,-128
1491693719895,3,74,41,34,-90,-21,109,-24,110
1491693719896,0,40,-72,-117,78,105,-111,65,12
1491693719896,0,-31,83,127,71,127,58,-14,-41
1491693719901,1,90,-17,-121,119,-103,127,127,126
1491693719901,1,-71,-60,15,-87,-110,-116,-47,-12
1491693719926,2,-23,-44,-24,58,31,15,68,-22
1491693719926,2,13,-13,81,-109,62,30,-93,4
1491693719928,3,41,73,76,-99,-44,28,-9,37
1491693719928,3,-26,39,-48,30,91,61,-5,-89
1491693719929,0,7,-56,-34,37,41,59,72,88
1491693719929,0,-23,107,127,-68,-54,53,-47,18
1491693719959,1,-128,-89,-83,127,100,32,42,-61
1491693719959,1,127,2,-7,-84,12,-22,40,-21
1491693719960,2,-7,2,88,-128,-40,24,-96,77
1491693719960,2,-68,-75,-74,109,81,2,116,-60
1491693719961,3,-20,65,83,-40,-27,55,2,35
1491693719961,3,-21,-53,-37,127,-32,-122,-22,-76
1491693719995,0,-37,5,42,38,2,49,-64,-60
1491693719995,0,84,5,10,-67,-55,-53,70,101
1491693719995,1,-120,9,-25,97,-34,-108,50,-128
1491693719995,1,5,47,105,-64,-19,127,68,36
1491693719996,2,-41,-51,-95,-2,-75,-28,6,13
1491693719996,2,-71,88,105,87,1,74,-37,-19
1491693720024,3,29,29,54,-128,-37,55,57,15
1491693720024,3,-105,-74,-41,81,-20,30,-105,-42
1491693720025,0,43,8,46,-9,60,-101,-50,-16
1491693720025,0,-41,-89,-128,-81,-52,-67,1,-28
1491693720025,1,54,38,64,-87,127,73,-25,6
1491693720025,1,53,-15,-1,127,-80,-25,50,121
1491693720026,2,-54,7,43,66,-13,-5,60,-74
1491693720026,2,49,47,78,115,69,29,-11,45
1491693720056,3,83,-54,-85,-65,-79,32,-27,78
1491693720056,3,-17,-12,-31,-95,33,-97,-70,-91
1491693720057,0,41,-22,-47,-83,-110,50,71,7
1491693720057,0,-64,16,-10,66,127,-110,-112,-117
1491693720058,1,-15,62,127,-66,-36,14,-16,83
1491693720058,1,-70,-50,-99,97,44,22,30,-9
1491693720090,2,13,-21,-74,6,22,31,27,23
1491693720090,2,40,19,76,36,-128,65,-30,-52
1491693720093,3,-23,-18,-33,-21,-82,49,-42,-5
1491693720093,3,-32,4,79,-27,94,-76,41,-89
1491693720094,0,-92,-48,-100,-41,-85,-111,-62,26
1491693720094,0,111,0,103,-31,-54,127,28,78
1491693720121,1,-4,-14,-96,17,-74,-120,68,-40
1491693720121,1,-40,80,97,107,104,-13,-41,28
1491693720122,2,24,26,-81,64,94,109,31,-24
1491693720122,2,3,5,-19,-108,12,-50,80,10
1491693720128,3,-58,-59,-71,85,-54,-90,2,27
1491693720128,3,-60,-73,-81,22,41,-65,-59,-102
1491693720153,0,90,103,127,-92,-29,-41,-57,105
1491693720153,0,-55,-12,4,-34,-75,62,-23,58
1491693720158,1,-57,2,-36,127,127,-20,-32,-69
1491693720158,1,17,-16,-28,-96,-128,100,102,84
1491693720158,2,-117,-98,-29,115,63,-73,-44,-107
1491693720158,2,92,58,88,-83,-105,53,82,73
1491693720159,3,-58,-38,-22,-108,16,-128,-97,-29
1491693720159,3,17,68,5,97,-73,68,65,2
1491693720187,0,7,68,127,-80,-26,102,-3,-21
1491693720187,0,-45,-90,-128,-61,-97,-114,-10,47
1491693720188,1,-50,-76,9,109,127,46,10,-118
1491693720188,1,100,18,-78,-106,62,105,-38,97
1491693720191,2,-52,-1,-94,-65,-112,19,-57,-79
1491693720191,2,31,66,74,20,73,-71,13,-28
1491693720251,3,86,10,-82,56,-128,107,17,70
1491693720251,3,-83,-48,-4,-101,110,-85,-64,-58
1491693720252,0,33,0,0,-16,-92,18,88,2
1491693720252,0,-128,-96,-128,-56,-24,-120,-90,-81
1491693720252,1,55,83,127,-56,0,104,44,19
1491693720252,1,17,-3,-15,-40,64,-54,-61,-28
1491693720253,2,20,8,29,122,127,40,8,55
1491693720253,2,6,28,62,85,101,110,35,40
1491693720283,3,22,-13,-24,-57,-16,72,9,-61
1491693720283,3,-64,-48,-33,17,-128,-92,-43,-10
1491693720284,0,46,0,112,-50,-106,15,-44,23
1491693720284,0,-111,-39,-104,89,-100,28,-1,-100
1491693720289,1,95,19,54,-32,-100,34,82,42
1491693720289,1,45,105,97,-32,-70,16,-27,20
1491693720290,2,-87,-89,-118,-128,-100,-82,52,-11
1491693720290,2,112,25,79,91,-34,-42,-76,-7
1491693720316,3,-36,29,67,-16,-21,8,24,26
1491693720316,3,-81,-84,-83,57,-7,-31,72,-52
1491693720317,0,-26,43,56,-8,84,-61,-77,-46
1491693720317,0,67,53,-4,-81,83,53,24,34
1491693720318,1,-75,-80,-80,120,127,-26,5,23
1491693720318,1,52,65,89,-55,74,102,41,-25
1491693720319,2,-6,-14,-21,55,85,-49,12,3
1491693720319,2,-83,-8,-79,66,127,83,17,30
1491693720349,3,28,-47,127,-46,127,28,-67,-78
1491693720349,3,15,-46,24,77,78,-2,86,13
1491693720351,0,-9,93,104,31,89,97,2,-34
1491693720351,0,35,-43,-61,90,-82,-57,115,26
1491693720352,1,-91,-32,-30,-40,-62,-128,-115,-63
1491693720352,1,-2,31,116,123,77,115,87,44
1491693720352,2,13,10,2,43,90,92,-51,-6
1491693720352,2,-22,-13,-55,-36,-37,-100,-63,-31
1491693720381,3,-35,-5,-7,3,61,-53,-40,29
1491693720381,3,76,29,-25,18,39,-10,-4,69
1491693720382,0,18,-35,-29,-15,-78,73,49,-16
1491693720382,0,1,-53,20,38,7,56,90,89
1491693720384,1,32,88,48,62,-12,-34,-97,-12
1491693720384,1,62,46,96,-25,93,110,66,27
1491693720414,2,19,-52,-67,77,-69,-37,30,61
1491693720414,2,-3,-29,22,-4,87,24,-38,-72
1491693720415,3,-55,99,127,83,76,77,81,-17
1491693720415,3,52,12,44,-88,98,24,13,49
1491693720416,0,15,83,127,4,-15,-21,-40,-37
1491693720416,0,-64,-99,-30,71,-8,-48,-6,-59
1491693720446,1,9,100,10,-48,119,-12,8,7
1491693720446,1,16,-41,-50,-40,31,0,-9,-47
1491693720447,2,-3,-50,-71,80,-111,-128,52,33
1491693720447,2,12,-23,110,27,127,78,23,55
1491693720447,3,-7,-28,-26,39,88,28,-74,28
1491693720447,3,-49,-60,23,-63,-44,-81,64,-45
1491693720449,0,-29,-9,-40,76,39,-110,-121,-64
1491693720449,0,-4,69,-33,-91,51,73,35,-1
1491693720479,1,84,-75,69,-44,58,-23,44,111
1491693720479,1,-51,51,-69,82,-19,8,-83,-65
1491693720479,2,59,55,89,-64,103,-32,34,89
1491693720479,2,-5,114,127,93,96,103,60,-30
1491693720544,3,25,-49,28,-53,-127,-23,8,-39
1491693720544,3,-100,-46,-119,-63,-76,-111,-97,-31
1491693720544,0,78,-19,127,-55,127,51,62,19
1491693720544,0,44,-90,-112,-98,96,-87,-30,39
1491693720545,1,-99,-52,-122,-56,-97,-115,-10,-94
1491693720545,1,53,94,53,127,72,102,-24,23
1491693720546,2,-41,52,29,105,111,104,79,70
1491693720546,2,13,62,127,42,85,-89,-70,-59
1491693720576,3,-1,93,127,127,71,40,63,-18
1491693720576,3,-6,-9,-59,-47,35,-22,-32,6
1491693720577,0,-72,-123,-125,-16,-72,35,-16,-5
1491693720577,0,70,63,85,-24,80,-69,-24,50
1491693720578,1,-71,-14,-21,84,1,52,-23,-61
1491693720578,1,-76,-39,3,-18,-112,-33,-15,8
1491693720579,2,110,61,80,-36,127,84,55,51
1491693720579,2,-48,-111,-128,-80,-128,-105,-62,-28
1491693720608,3,8,11,3,-65,-69,-93,-49,30
1491693720608,3,-10,-33,127,29,96,-50,33,-47
1491693720609,0,-14,-38,-80,-1,45,-49,38,-18
1491693720609,0,1,-39,-61,-29,-74,18,-79,12
1491693720610,2,14,69,73,33,5,7,57,17
1491693720610,2,57,77,127,65,127,118,-18,4
1491693720611,3,-36,-43,-102,-67,7,125,39,51
1491693720611,3,114,-21,-43,-63,-61,-5,29,50
1491693720641,0,-99,-27,-1,-89,-55,24,-27,-49
1491693720641,0,-12,-28,54,-63,-123,-56,-42,-35
1491693720642,1,-7,9,127,90,84,64,63,-3
1491693720642,1,-18,-54,-42,-35,-7,116,-17,12
1491693720675,2,2,-25,54,77,-128,-99,-57,-12
1491693720675,2,-76,-113,-101,-30,0,58,6,-4
1491693720677,3,84,-107,48,-91,68,-20,30,34
1491693720677,3,45,-51,51,115,-43,4,48,80
1491693720677,0,6,-10,-21,-24,121,66,-14,6
1491693720677,0,1,121,-78,104,-89,-51,26,-23
1491693720678,1,48,115,30,-16,61,83,0,2
1491693720678,1,-55,52,-97,4,31,-34,-20,10
1491693720706,2,12,60,34,-69,63,46,-38,23
1491693720706,2,-53,-16,29,55,-18,-24,-16,-104
1491693720708,3,-26,9,-47,-87,-128,-127,-17,-55
1491693720708,3,47,43,-69,28,17,-50,-101,19
1491693720710,0,0,23,-71,-93,51,-83,12,26
1491693720710,0,-52,20,57,-1,127,76,61,-39
1491693720711,1,-13,-1,-128,127,-97,39,21,5
1491693720711,1,-60,47,127,111,111,-62,-13,-5
1491693720739,2,10,-45,-128,-53,-128,57,-2,-2
1491693720739,2,-24,-116,-113,12,-68,-29,1,-34
1491693720740,3,12,8,78,-17,86,-120,-15,1
1491693720740,3,35,96,112,-7,100,127,112,-43
1491693720743,0,68,-56,-82,119,-48,-34,-69,45
1491693720743,0,-8,41,30,68,-99,-52,90,58
1491693720745,1,-5,27,-23,-95,22,87,-3,15
1491693720745,1,-73,-111,-122,87,-120,-107,-113,-94
1491693720771,2,-24,-22,127,-47,127,-17,-1,-47
1491693720771,2,50,57,90,-107,101,127,81,123
1491693720804,3,-12,-86,-128,127,-105,8,-30,-16
1491693720804,3,14,74,127,-100,77,11,13,3
1491693720805,0,52,0,-74,91,-128,-57,-27,-64
1491693720805,0,-18,-25,-97,49,77,44,14,-31
1491693720806,1,-60,45,110,-47,127,127,26,31
1491693720806,1,25,31,-36,40,-97,19,-30,11
1491693720806,2,-38,-15,-91,112,-95,-120,16,7
1491693720806,2,-22,-33,43,-72,91,96,9,-54
1491693720836,3,82,29,46,60,-68,-51,-35,76
1491693720836,3,-44,-45,-125,97,-102,31,54,-36
1491693720837,0,-63,1,-10,-95,116,40,56,-22
1491693720837,0,74,16,35,111,-59,-10,-59,39
1491693720838,1,-81,-4,41,65,-122,-60,-58,-57
1491693720838,1,75,8,-40,-128,-45,-56,13,26
1491693720839,2,-45,21,81,20,-45,122,14,-58
1491693720839,2,-15,-19,-111,-128,-2,86,-35,-3
1491693720869,3,15,-99,-93,26,66,-119,35,-75
1491693720869,3,-24,10,64,-45,119,2,2,11
1491693720870,0,40,86,113,-128,127,62,-1,-7
1491693720870,0,11,46,127,63,100,61,19,-16
1491693720870,1,-10,-48,-113,-111,73,-105,-35,-9
1491693720870,1,-64,-92,-92,-81,127,22,-69,48
1491693720871,2,4,2,63,-38,127,66,58,-39
1491693720871,2,58,12,127,97,58,64,17,115
1491693720901,3,-33,-1,-46,-41,114,-44,30,-90
1491693720901,3,-23,25,44,-64,-7,49,2,34
1491693720902,0,62,-57,-46,56,-92,0,-47,-99
1491693720902,0,-47,27,-63,-104,-128,25,13,93
1491693720903,1,17,51,91,91,-128,127,-18,11
1491693720903,1,1,-72,-83,-120,-105,74,44,-109
1491693720934,2,-81,-9,45,-76,-6,-93,-95,-1
1491693720934,2,15,19,-35,-97,-128,-80,19,53
1491693720966,3,-60,-67,-12,-46,83,67,30,-45
1491693720966,3,11,117,127,34,-10,-61,-36,-22
1491693720999,0,9,-12,-128,-19,-51,12,20,46
1491693720999,0,-7,-13,19,76,43,-30,25,-23
1491693721000,1,-22,12,121,-77,-44,91,11,-14
1491693721000,1,127,66,125,127,99,77,60,111
1491693721001,2,-125,-43,-85,-117,-37,-47,-59,-94
1491693721001,2,18,-65,-82,18,67,51,-1,59
1491693721002,3,-28,-10,-62,21,-39,10,-78,-86
1491693721002,3,27,30,73,28,74,127,93,89
1491693721031,0,-5,53,127,-35,31,5,39,-7
1491693721031,0,-75,-9,-44,71,-16,37,-122,-47
1491693721032,1,54,-7,-55,-31,89,-94,18,-45
1491693721032,1,-54,7,-62,-28,-128,32,-99,-37
1491693721033,0,62,-36,-128,50,-128,109,46,45
1491693721033,0,-13,-32,-37,-111,127,-119,-106,-102
1491693721034,1,127,126,99,85,12,99,84,127
1491693721034,1,-50,-47,-87,3,-92,53,33,-47
1491693721064,2,-7,-25,-66,24,68,37,17,-29
1491693721064,2,-36,17,-8,-45,0,4,-19,-53
1491693721065,3,-28,14,1,-123,-79,102,76,125
1491693721065,3,50,-48,19,55,0,-96,-85,-69
1491693721066,0,10,98,127,-40,-51,65,-31,120
1491693721066,0,-12,-14,-89,-54,-42,-32,-23,-107
1491693721066,1,-50,-20,83,4,68,-109,-42,-10
1491693721066,1,109,-7,-66,-47,-69,27,126,113
1491693721096,2,-84,-12,52,98,36,119,-81,-43
1491693721096,2,-108,-9,-16,29,-13,9,-19,-71
1491693721097,3,21,29,118,-45,65,-34,-42,-23
1491693721097,3,-5,-64,-123,-98,-95,-85,6,-44
1491693721098,0,-11,16,2,127,86,-17,-55,6
1491693721098,0,127,117,127,49,39,11,86,120
1491693721099,1,-68,-21,-47,47,-128,127,51,27
1491693721099,1,-107,-15,-5,107,127,-128,-68,-48
1491693721129,2,101,49,-127,-66,-85,90,116,99
1491693721129,2,9,-52,-26,-20,-14,-128,-86,-32
1491693721129,3,32,-45,-128,-92,-99,90,69,38
1491693721129,3,20,35,110,-23,127,-56,24,-1
1491693721131,0,-10,7,74,-2,-5,21,-8,-28
1491693721131,0,-27,8,-8,64,39,21,57,-80
1491693721161,1,-22,-5,23,113,-31,-128,-46,-54
1491693721161,1,6,43,106,-26,56,127,95,61
1491693721162,2,-80,-51,-95,87,-62,-104,-104,-104
1491693721162,2,38,-23,-53,85,113,-128,-14,15
1491693721163,3,-66,-63,-113,-72,-58,91,46,31
1491693721163,3,23,-30,81,63,77,-21,61,-6
1491693721194,0,18,82,62,-119,0,73,-52,9
1491693721194,0,-42,-2,117,-25,-22,35,-26,0
1491693721195,1,21,62,46,-78,17,19,40,-3
1491693721195,1,-78,-42,-44,-72,-36,-49,3,-36
1491693721195,2,115,11,77,68,15,18,82,49
1491693721195,2,18,-34,-128,-20,-128,-24,-84,37
1491693721226,3,-86,-32,14,16,71,-128,3,-128
1491693721226,3,97,25,55,-123,-32,92,66,60
1491693721227,0,40,-28,-57,-27,58,-123,24,-30
1491693721227,0,-86,8,67,30,51,-31,49,-59
1491693721228,1,111,32,32,-14,16,88,-75,12
1491693721228,1,-42,-16,-13,127,-17,58,-11,84
1491693721228,2,-75,17,109,-26,76,27,-5,-70
1491693721228,2,96,-2,-66,-128,-126,-9,46,8
1491693721259,3,-28,-57,-72,6,74,-18,37,65
1491693721259,3,-25,25,54,-114,-15,25,-56,-128
1491693721259,0,-28,-43,-14,8,-59,-4,-4,11
1491693721259,0,43,13,123,50,127,9,-30,86
1491693721260,1,-54,8,-11,84,-89,36,-16,-71
1491693721260,1,-12,0,-99,-100,-71,-64,-60,-5
1491693721323,2,-32,-8,-35,45,73,-128,-69,-70
1491693721323,2,-2,-10,41,78,89,89,64,20
1491693721324,3,41,43,44,-27,-44,31,31,39
1491693721324,3,-70,0,54,19,60,90,-18,-6
1491693721325,0,-50,-27,-72,-119,-128,127,49,-80
1491693721325,0,-17,-93,-120,21,65,-128,-53,22
1491693721326,1,25,49,127,33,63,44,-50,-3
1491693721326,1,-111,-69,-128,12,-128,43,41,-15
1491693721421,2,94,-55,-33,123,127,-68,-18,69
1491693721421,2,-61,71,49,-54,15,127,75,-40
1491693721422,3,-8,-2,17,-76,10,-93,9,40
1491693721422,3,0,64,43,-31,87,-68,-73,28
1491693721423,0,-36,-29,-28,-20,-84,-57,0,63
1491693721423,0,-43,-17,90,60,8,48,112,-44
1491693721424,1,96,-10,-128,89,23,-11,-47,25
1491693721424,1,-6,75,115,-79,-32,-104,-33,-13
1491693721486,2,-103,-43,-71,126,-51,20,4,92
1491693721486,2,-111,-4,-21,47,73,-22,-119,-108
1491693721488,3,83,35,68,-45,25,-6,45,-10
1491693721488,3,80,-11,-85,51,-22,100,-24,96
1491693721488,0,12,93,127,-44,-71,125,97,-74
1491693721488,0,-15,-34,-54,3,-34,81,-2,-2
1491693721519,2,-33,-23,-17,-65,-54,32,75,50
1491693721519,2,113,58,97,24,-41,0,-26,-75
1491693721520,3,-76,56,-37,10,59,-23,4,-69
1491693721520,3,-33,-47,-8,-59,-61,-53,-36,-82
1491693721551,0,-37,-15,-20,-19,121,-128,-56,28
1491693721551,0,68,-31,-128,-79,-7,44,66,-1
1491693721552,1,-34,-49,-73,98,-104,6,-102,17
1491693721552,1,22,-7,25,-125,-7,56,10,-41
1491693721554,0,-52,-53,-37,68,41,-22,-69,-82
1491693721554,0,30,91,78,93,127,59,47,92
1491693721555,1,-60,-8,-1,-8,-115,66,-17,13
1491693721555,1,-47,-59,-92,127,101,-34,46,-10
1491693721584,2,76,30,109,-48,-128,83,-72,69
1491693721584,2,-85,-87,-128,-80,-6,-98,41,-46
1491693721588,0,24,36,41,102,90,39,22,53
1491693721588,0,18,-21,-82,-5,-128,69,79,-5
1491693721588,1,9,-66,-25,-128,-8,-55,-59,57
1491693721588,1,-61,98,90,7,125,114,-29,-37
1491693721589,3,-92,30,72,-120,33,57,8,-33
1491693721589,3,-44,-46,-112,114,-42,-110,-31,-76
1491693721616,0,44,-4,-47,-85,121,127,-56,15
1491693721616,0,0,48,28,71,-128,-128,-12,28
1491693721617,1,-111,-49,-128,-72,-32,-128,29,-106
1491693721617,1,59,-11,115,-128,-33,61,97,70
1491693721618,2,36,28,-75,75,80,44,111,50
1491693721618,2,-35,4,-63,-85,18,-12,-62,-36
1491693721619,3,-93,-24,64,-46,-28,72,12,19
1491693721619,3,41,-82,-88,55,37,-53,-60,-63
1491693721649,0,-10,84,127,77,12,-92,83,21
1491693721649,0,67,-56,-100,44,-66,31,9,27
1491693721650,1,107,79,65,127,126,-27,91,69
1491693721650,1,-67,81,49,-70,-128,127,24,24
1491693721651,2,-20,-96,-46,68,-118,44,-49,-70
1491693721651,2,-82,26,-2,-61,127,-29,-65,-57
1491693721651,3,62,52,48,-25,3,-29,-60,56
1491693721651,3,-1,-101,-120,127,-48,-128,106,-25
1491693721681,0,-91,11,-6,-73,59,-52,-17,-21
1491693721681,0,102,71,127,76,-118,26,-23,-33
1491693721682,1,-31,-71,-118,124,-53,-4,-19,7
1491693721682,1,-15,45,76,-121,60,65,0,-20
1491693721683,2,-93,-17,-14,48,-40,6,-15,35
1491693721683,2,19,-7,-83,-74,-22,97,44,53
1491693721684,3,-27,-32,-46,114,3,7,-105,-39
1491693721684,3,6,-47,-34,-38,-68,108,17,73
1491693721714,0,36,-17,-96,-47,28,-7,0,-112
1491693721714,0,-75,41,98,-95,53,-53,-58,13
1491693721715,1,56,3,71,101,-67,-33,19,-14
1491693721715,1,-69,-21,-112,-128,-73,127,58,50
1491693721715,2,-11,-1,126,-83,101,-54,-82,-124
1491693721715,2,-43,-18,18,28,-90,27,28,-21
1491693721778,3,98,-16,12,20,127,127,1,23
1491693721778,3,-31,78,100,-21,-41,-107,67,62
1491693721780,0,72,33,96,-125,55,-1,-32,26
1491693721780,0,-24,-9,-53,89,-33,-98,-6,-6
1491693721781,1,-114,-13,33,-74,2,-108,-8,-50
1491693721781,1,41,-90,-59,127,0,70,-58,48
1491693721782,2,35,27,91,-50,-128,90,3,-71
1491693721782,2,31,88,122,-100,116,46,13,30
1491693721811,3,-22,-28,-96,57,-61,91,47,-22
1491693721811,3,-74,-41,-5,7,127,-120,-75,-54
1491693721812,0,-29,22,74,74,-64,-103,-12,2
1491693721812,0,41,-12,12,-51,83,120,-73,35
1491693721813,1,-23,6,-66,-6,-13,95,0,-67
1491693721813,1,19,35,45,104,121,-49,26,59
1491693721814,2,-39,-25,-113,-42,11,-23,18,29
1491693721814,2,-6,0,84,-7,-27,-113,-33,20
1491693721844,3,30,8,-57,66,127,-74,96,35
1491693721844,3,-36,44,106,-17,-28,127,-108,-71
1491693721844,0,-4,-87,-115,-35,-109,75,39,24
1491693721844,0,-6,12,44,64,74,-128,48,13
1491693721845,1,-6,-60,-51,-55,-82,61,-7,-3
1491693721845,1,31,91,119,69,19,-94,30,-3
1491693721847,2,-6,-3,-29,60,55,6,-21,-41
1491693721847,2,-69,-16,6,-53,-81,127,13,-26
1491693721909,3,48,-38,-42,-70,-67,4,-13,21
1491693721909,3,60,20,-28,-29,-91,72,17,-8
1491693721910,0,-62,29,-46,57,109,70,24,-25
1491693721910,0,17,14,-14,127,94,84,31,-22
1491693721911,1,-60,1,-40,-117,-51,-116,-59,2
1491693721911,1,28,-40,-118,8,54,79,-26,5
1491693721912,2,22,10,23,26,8,-95,17,12
1491693721912,2,-11,-74,-55,26,127,89,39,68
1491693721941,3,83,121,127,-125,38,91,1,-31
1491693721941,3,-7,-86,-128,73,1,-68,-72,27
1491693721942,0,7,27,100,4,-128,43,25,-11
1491693721942,0,-31,14,-104,-105,-118,-65,-17,1
1491693721943,1,8,-42,29,-41,-57,-28,-37,-15
1491693721943,1,4,28,-32,-64,-128,-47,18,2
1491693721945,3,-95,1,21,-109,-95,-65,-82,-8
1491693721945,3,36,9,78,-108,61,108,56,-9
1491693722006,0,42,-42,-59,74,72,124,37,-18
1491693722006,0,-75,-33,-94,-128,127,-78,-50,-83
1491693722007,1,12,-2,90,84,127,-5,25,18
1491693722007,1,-57,-25,97,9,127,21,-20,-2
1491693722007,2,23,54,123,25,101,-8,-36,28
1491693722007,2,26,38,84,-34,57,85,-17,-42
1491693722008,3,21,24,108,-111,102,3,54,54
1491693722008,3,-47,-46,-66,61,62,-108,56,-30
1491693722038,0,13,-30,24,-54,90,-49,-52,-17
1491693722038,0,61,-28,5,33,-12,-18,32,30
1491693722039,1,-1,42,70,26,83,-36,-23,0
1491693722039,1,-8,-21,-41,49,1,57,68,-15
1491693722040,2,41,-9,-72,123,118,76,5,37
1491693722040,2,-45,-12,-93,-102,-80,-68,10,-17
1491693722041,0,-78,-22,-115,-128,-25,-57,-41,-68
1491693722041,0,85,37,127,127,127,125,65,90
1491693722071,1,14,-6,-52,-77,76,82,23,29
1491693722071,1,-99,-46,-92,60,-70,-89,-79,-103
1491693722072,2,-41,-71,0,-65,71,68,10,51
1491693722072,2,103,-37,3,-22,99,-21,-20,-27
1491693722072,0,-83,-43,-95,-103,-128,-128,-75,-51
1491693722072,0,3,-27,71,114,-38,74,68,43
1491693722073,1,-11,-6,52,63,58,-23,-81,-55
1491693722073,1,56,74,51,47,127,110,30,87
1491693722104,2,-15,80,127,72,127,92,87,41
1491693722104,2,-65,-54,-119,27,-92,-124,-93,-99
1491693722104,3,-89,-7,-38,77,-10,-82,-47,-77
1491693722104,3,90,73,96,-113,99,112,30,71
1491693722136,0,-67,-115,-122,-125,-111,-79,-68,-54
1491693722136,0,41,84,127,17,127,101,102,125
1491693722137,1,-26,58,51,-21,-44,-62,20,-35
1491693722137,1,-13,-22,-125,36,85,-66,-29,2
1491693722138,2,19,101,127,35,127,127,42,6
1491693722138,2,-44,-105,-69,53,-118,-95,-6,-58
1491693722139,3,-41,31,20,96,22,83,-41,-46
1491693722139,3,21,-10,-27,-118,-8,22,-50,-1
1491693722169,0,45,47,61,127,-55,-29,-1,9
1491693722169,0,-60,22,-103,-128,-59,-98,16,-36
1491693722170,1,3,8,36,-31,7,-29,-62,4
1491693722170,1,-18,-14,106,-35,61,82,63,-31
1491693722170,2,16,1,-101,99,-104,-100,-37,-2
1491693722170,2,-34,127,127,84,127,127,28,24
1491693722171,3,50,-128,-128,-80,-128,-83,30,6
1491693722171,3,-46,16,1,-71,26,-89,-83,-74
1491693722201,0,31,70,121,41,115,89,74,99
1491693722201,0,38,11,81,1,88,65,-13,-7
1491693722202,1,-51,34,-62,-26,46,24,52,-38
1491693722202,1,46,-4,67,12,75,74,45,88
1491693722202,2,-42,-102,-128,49,-111,-106,-17,-19
1491693722202,2,21,74,-32,-30,48,34,-10,-19
1491693722204,3,54,25,37,16,-15,68,10,64
1491693722204,3,-47,-54,2,-33,-128,-5,2,-60
1491693722299,0,13,0,111,-92,-42,4,29,19
1491693722299,0,-39,-111,-128,9,49,-86,-29,3
1491693722299,1,-8,-38,-81,76,-106,-125,-25,-2
1491693722299,1,17,53,61,11,46,57,90,67
1491693722300,2,-42,5,-84,-116,-86,11,-19,-62
1491693722300,2,2,-68,127,-33,3,-31,-29,16
1491693722301,3,105,89,64,-63,102,127,42,55
1491693722301,3,-78,-11,-101,-38,-127,-127,-104,-3
1491693722340,0,82,-58,37,3,115,63,-1,-40
1491693722340,0,-39,9,-128,-62,-128,-91,11,-11
1491693722341,1,-7,-13,125,5,-66,-69,-33,12
1491693722341,1,-18,49,80,32,9,74,25,-88
1491693722342,2,3,74,100,-11,97,81,88,109
1491693722342,2,-24,-74,-52,5,-94,-27,-90,-39
1491693722343,1,-2,-15,58,-23,38,58,38,-1
1491693722343,1,20,-63,-97,34,-104,-111,11,60
1491693722366,2,-58,-33,-40,-42,79,49,-57,-104
1491693722366,2,-9,-7,82,-14,57,55,38,34
1491693722370,3,10,-48,-34,-78,25,-13,-48,1
1491693722370,3,50,17,74,-14,102,127,86,-51
1491693722370,1,-30,-22,-3,127,99,57,7,-15
1491693722370,1,49,64,107,51,127,8,-11,37
1491693722371,2,-19,2,-9,58,-42,59,-26,-46
1491693722371,2,13,36,55,-38,5,-23,7,11
1491693722429,3,-10,-29,-43,95,-80,-15,-30,21
1491693722429,3,-9,-57,-28,-49,24,45,-59,0
1491693722429,0,15,-15,-56,48,-41,-39,21,-2
1491693722429,0,-30,37,34,65,-47,1,8,-10
1491693722430,1,-74,-51,-19,69,6,59,-40,-45
1491693722430,1,44,-5,-10,5,-14,49,-10,16
1491693722431,2,23,32,54,35,118,-43,22,16
1491693722431,2,-43,-43,-32,127,-35,8,54,28
1491693722461,3,45,-50,-36,-78,35,-84,-17,-26
1491693722461,3,-57,18,92,-13,67,27,-27,-18
1491693722462,0,-16,-25,-42,-117,-38,-46,-41,-16
1491693722462,0,9,53,118,31,127,-16,23,-11
1491693722462,2,-19,37,89,-34,-39,-28,40,14
1491693722462,2,66,81,103,-102,97,106,-1,73
1491693722463,3,-108,-89,-123,37,-128,24,-43,-65
1491693722463,3,112,0,127,-90,64,-100,-12,32
1491693722493,0,-85,2,26,-47,15,53,6,-27
1491693722493,0,11,-63,-100,-128,-61,-87,-33,-9
1491693722494,1,19,70,127,35,25,26,12,57
1491693722494,1,-59,9,45,73,12,6,47,-29
1491693722495,2,54,-29,-31,-107,125,81,-60,81
1491693722495,2,-29,6,-5,127,-59,127,63,-93
1491693722496,3,-59,22,36,-112,40,-18,-39,69
1491693722496,3,-25,-80,-128,-100,-100,-16,49,-101
1491693722526,0,-7,28,98,-28,-94,-99,-107,-46
1491693722526,0,-74,-32,-88,-83,-21,34,37,-77
1491693722527,1,40,9,62,86,53,38,30,7
1491693722527,1,42,39,79,16,-125,96,5,98
1491693722528,2,11,-29,-40,-33,-75,65,82,-58
1491693722528,2,67,-26,-17,9,-97,5,25,46
1491693722528,3,-58,-68,-128,-100,-64,-128,-33,-52
1491693722528,3,-22,114,127,36,127,76,52,-7
1491693722559,0,20,-97,-128,85,-47,-66,-106,74
1491693722559,0,-67,18,83,107,127,-57,-128,-30
1491693722560,1,127,69,109,-82,91,-20,76,54
1491693722560,1,-62,-27,-121,-7,11,59,-37,-11
1491693722561,2,-1,37,126,107,127,-74,98,-38
1491693722561,2,-79,-21,-76,71,-75,-67,17,-35
1491693722591,3,26,22,26,96,82,-8,-95,-79
1491693722591,3,26,-37,-121,59,-128,-45,-84,13
1491693722592,0,19,13,61,109,113,127,84,-5
1491693722592,0,0,-22,97,-75,25,117,45,31
1491693722593,1,-40,88,72,88,-104,-88,-43,-41
1491693722593,1,-41,9,97,-93,-128,43,33,19
1491693722594,2,85,-39,-101,70,-100,49,-33,64
1491693722594,2,-36,29,45,-41,-41,-92,-38,-80
1491693722624,3,0,-47,-128,-87,-91,127,-69,8
1491693722624,3,-34,9,109,80,97,-25,48,-39
1491693722625,0,-91,-27,22,-72,-16,43,59,-66
1491693722625,0,65,43,-21,42,127,52,26,62
1491693722627,1,0,-36,-99,-24,-60,-23,-1,30
1491693722627,1,33,-11,48,-119,-88,-46,5,-46
1491693722656,2,-6,57,90,35,127,100,-24,-12
1491693722656,2,-9,-16,-34,69,-25,89,-14,-7
1491693722657,3,-36,-88,-80,-85,-27,-86,50,-44
1491693722657,3,-20,-14,7,127,2,81,-9,34
1491693722658,0,-25,12,127,98,54,-53,-6,-40
1491693722658,0,103,-5,14,-112,-58,54,-14,25
1491693722689,1,-54,53,48,-42,-36,62,115,-19
1491693722689,1,-24,-84,-128,30,-42,-90,-105,-45
1491693722690,2,-42,101,50,-79,90,91,17,5
1491693722690,2,67,-1,-51,108,-59,-3,17,6
1491693722691,3,-77,-8,12,3,75,86,-25,-34
1491693722691,3,-39,39,-64,-39,54,-128,-54,-59
1491693722724,0,15,-34,32,-128,-68,88,-18,34
1491693722724,0,-20,-75,-67,88,-8,-100,-39,3
1491693722725,1,-61,-21,22,9,-15,-3,-43,-33
1491693722725,1,127,47,63,-39,17,42,67,87
1491693722726,2,-8,-31,-28,55,66,74,-127,95
1491693722726,2,-116,53,127,-128,33,16,-86,-120
1491693722727,3,29,-1,-5,63,16,-41,10,-6
1491693722727,3,-94,-36,-72,35,-4,-29,-62,-75
1491693722754,0,-5,10,72,64,-21,-73,13,63
1491693722754,0,0,-49,-80,-110,-62,14,-65,-24
1491693722755,1,82,43,43,-72,-56,50,34,31
1491693722755,1,-88,-63,59,-70,-14,58,82,14
1491693722756,2,54,-19,-128,62,-41,-121,-46,-98
1491693722756,2,81,53,45,-47,45,56,84,69
1491693722819,3,-52,-6,21,126,-4,-47,2,-36
1491693722819,3,-49,30,0,-78,52,74,-28,46
1491693722821,0,-65,-15,11,-30,-25,30,19,-90
1491693722821,0,10,35,40,47,78,-40,15,44
1491693722822,1,56,22,48,-98,-71,9,-1,-12
1491693722822,1,46,-52,-107,68,9,76,-30,6
1491693722852,2,-25,6,43,57,4,-9,39,24
1491693722852,2,-26,18,2,68,79,42,69,16
1491693722853,3,-16,-79,-77,127,-39,-36,-25,37
1491693722853,3,50,20,94,100,45,62,-31,-32
1491693722854,0,8,-24,-128,-128,-72,46,19,-36
1491693722854,0,-103,-8,66,-88,-72,-51,6,22
1491693722855,1,-18,62,93,70,31,-25,-51,-40
1491693722855,1,14,29,11,-17,-48,-31,123,120
1491693722884,2,-71,10,34,-91,-17,-50,-7,-50
1491693722884,2,112,-25,68,109,5,-13,48,39
1491693722885,3,-100,-18,-128,-99,-2,-21,-12,-16
1491693722885,3,66,77,95,51,61,-61,11,90
1491693722949,0,-13,-13,-44,56,44,71,-30,-28
1491693722949,0,-42,-46,-120,127,-110,-68,-63,-128
1491693722950,1,15,-58,-122,-74,77,-76,18,66
1491693722950,1,-5,4,54,-128,-55,82,-94,-72
1491693723014,2,-4,-47,-81,-68,-42,-86,41,85
1491693723014,2,-110,59,107,-74,25,127,44,-128
1491693723015,3,111,28,121,127,-19,106,27,77
1491693723015,3,-18,18,-81,-119,60,-81,-56,-93
1491693723017,0,11,-67,-29,114,-92,2,-19,48
1491693723017,0,-121,-28,-67,-41,106,-26,13,4
1491693723018,1,95,68,110,79,50,127,35,56
1491693723018,1,-54,-10,-85,45,-102,-126,25,-29
1491693723046,2,63,-55,-93,-98,-126,-95,-87,20
1491693723046,2,-13,-10,92,51,113,127,-47,-43
1491693723048,2,61,27,-69,-78,-13,94,76,84
1491693723048,2,-45,-25,-43,-80,-101,-128,35,41
1491693723049,3,-65,-35,-17,94,-55,57,16,-112
1491693723049,3,80,-46,-43,72,71,84,38,94
1491693723050,1,-18,9,64,11,127,-75,-46,-52
1491693723050,1,-21,65,11,-105,-73,-73,57,-97
1491693723079,2,52,0,5,-128,46,31,21,65
1491693723079,2,-109,-16,49,117,-4,8,108,-14
1491693723080,3,127,38,-19,-94,-45,99,2,52
1491693723080,3,-66,-66,-116,14,-123,-94,-68,-128
1491693723081,0,28,18,127,126,127,52,23,51
1491693723081,0,-2,-5,-99,-128,-128,23,-27,-82
1491693723083,1,45,-7,23,111,127,-120,-22,29
1491693723083,1,-81,-23,65,21,-39,112,83,-86
1491693723111,2,5,30,-88,-63,-42,-112,29,69
1491693723111,2,-27,-48,-24,-67,-78,66,-8,-75
1491693723112,3,-37,-4,42,41,18,-84,-44,17
1491693723112,3,-9,55,90,-24,42,79,11,-41
1491693723113,0,-74,-37,-91,122,-73,84,-39,-58
1491693723113,0,-33,6,-23,25,67,69,0,88
1491693723114,1,94,42,91,-15,-128,49,89,1
1491693723114,1,-76,-38,-128,37,49,-36,-110,17
1491693723177,2,-31,10,-1,-120,-43,-5,-57,-33
1491693723177,2,83,67,83,-56,-31,49,-12,24
1491693723209,3,-124,-87,-118,41,-127,79,23,12
1491693723209,3,48,-2,49,97,110,-64,-48,24
1491693723211,0,-70,-15,73,-45,26,-6,2,-9
1491693723211,0,-47,-27,-64,108,39,-69,3,-17
1491693723212,1,65,67,99,-128,-23,73,44,41
1491693723212,1,-57,-60,-96,104,-128,-122,-23,-81
1491693723213,2,-19,-51,-124,-12,37,-97,-104,-13
1491693723213,2,51,76,127,-58,-20,79,88,54
1491693723241,3,-100,-14,-13,-34,3,-58,18,-100
1491693723241,3,-1,54,95,-103,31,127,83,-21
1491693723243,1,12,44,58,112,-98,56,-52,-38
1491693723243,1,-8,8,41,-99,65,28,-42,30
1491693723244,0,-103,5,-101,-91,-4,-8,-15,-113
1491693723244,0,66,17,-18,17,127,-9,-62,76
1491693723245,1,-128,-30,10,-1,-88,-16,50,-107
1491693723245,1,81,61,-8,36,64,-27,-124,28
1491693723306,2,-51,-36,-25,-122,-96,-17,97,12
1491693723306,2,-99,-52,-37,15,-17,-128,-128,-100
1491693723308,3,74,38,-93,84,-38,11,75,71
1491693723308,3,-33,-33,56,-58,34,-112,24,-7
1491693723309,0,-2,92,37,-102,-24,57,4,-4
1491693723309,0,-81,-107,-106,116,48,-60,-8,5
1491693723310,1,33,4,80,98,127,108,43,-14
1491693723310,1,94,-5,-99,2,-128,90,-36,13
1491693723339,2,-1,30,65,127,-29,-5,15,63
1491693723339,2,-43,48,45,-128,-119,-5,3,13
1491693723341,3,-47,-49,-117,111,32,36,48,-109
1491693723341,3,-10,1,-76,-86,20,-115,-26,16
1491693723342,0,-108,6,66,-54,127,82,-48,-101
1491693723342,0,127,24,34,97,-65,127,-81,50
1491693723371,2,1,-55,-127,11,46,-79,8,12
1491693723371,2,-28,68,99,-12,94,89,19,-62
1491693723374,3,-25,-39,-108,-101,-29,-124,-32,-13
1491693723374,3,82,29,14,92,91,7,12,49
1491693723377,0,13,38,53,127,-85,91,23,6
1491693723377,0,6,-69,-99,50,-33,20,120,-15
1491693723378,1,47,18,68,-112,-57,0,-115,89
1491693723378,1,21,-38,-22,-128,-128,30,-37,-27
1491693723404,2,-65,-14,57,46,127,-75,-57,10
1491693723404,2,50,127,127,-93,-16,-51,-26,7
1491693723406,3,19,-128,-128,55,17,-32,-62,-18
1491693723406,3,-107,-30,-25,-69,127,-38,-76,-93
1491693723407,0,78,85,127,-104,-106,124,42,27
1491693723407,0,-6,-50,-74,-106,-73,29,33,23
1491693723408,1,-76,73,127,-119,-43,109,14,0
1491693723408,1,-72,-86,-115,122,-5,-115,-19,-35
1491693723437,2,84,-17,12,-60,8,93,38,15
1491693723437,2,18,29,13,-51,-57,-3,34,58
1491693723438,3,-53,-92,-107,72,37,-111,-54,3
1491693723438,3,18,49,93,53,24,9,38,54
1491693723439,0,-26,61,68,-6,45,112,-7,11
1491693723439,0,-102,-8,94,127,26,17,-10,-95
1491693723469,1,124,-1,-62,-65,90,-48,-37,71
1491693723469,1,-74,12,-128,-127,-128,126,47,-97
1491693723501,2,-92,-54,-74,-49,127,-128,-73,39
1491693723501,2,-36,51,50,90,26,75,10,70
1491693723503,3,17,57,114,69,-41,101,45,-83
1491693723503,3,106,-46,-64,127,68,0,29,45
1491693723504,0,3,-25,-79,-94,2,-118,-3,-12
1491693723504,0,-80,-15,2,-109,61,58,93,-117
1491693723534,1,53,-20,-33,-124,-106,0,12,-8
1491693723534,1,69,22,73,15,53,0,-34,74
1491693723536,2,77,68,78,104,-128,-26,127,-33
1491693723536,2,-95,-128,-128,61,127,-128,-128,-102
1491693723537,3,-39,80,112,10,103,80,80,51
1491693723537,3,31,27,8,-128,-87,-8,-1,-39
1491693723538,0,-36,-31,-124,-127,-78,76,-73,40
1491693723538,0,89,40,-51,-84,-89,127,87,63
1491693723566,1,-53,-27,19,103,86,-128,-54,13
1491693723566,1,-7,-8,-91,29,-68,75,8,-17
1491693723568,2,72,35,52,115,7,109,53,78
1491693723568,2,-40,-37,-64,23,-128,-26,15,-24
1491693723599,3,49,48,16,-124,8,107,73,-11
1491693723599,3,-128,-83,-61,88,-64,-125,-59,-59
1491693723600,1,-25,71,105,92,91,125,35,17
1491693723600,1,50,7,-35,56,-94,-61,-33,60
1491693723602,2,-105,-83,-128,-63,41,-28,-88,-82
1491693723602,2,70,-9,89,14,100,81,5,64
1491693723603,3,12,9,59,-50,-128,52,79,76
1491693723603,3,-4,14,-25,35,127,-23,-62,-56
1491693723631,0,78,57,107,-2,75,38,26,63
1491693723631,0,-60,-85,-128,63,-38,-128,31,60
1491693723633,1,-92,-2,15,14,96,91,-35,-107
1491693723633,1,21,57,117,-111,-25,-43,25,55
1491693723634,3,-16,-70,-128,90,39,-57,-28,-30
1491693723634,3,-36,1,127,-56,42,127,-25,-15
1491693723635,0,1,-2,-67,3,3,-128,-8,45
1491693723635,0,-19,51,110,50,116,127,-28,-70
1491693723664,1,75,-9,9,99,-88,57,52,74
1491693723664,1,-84,12,-24,-10,127,-63,-66,-35
1491693723665,2,57,83,108,93,80,95,66,35
1491693723665,2,15,-100,-127,35,-10,-19,24,-60
1491693723667,3,-64,-30,34,-128,-63,-22,-66,77
1491693723667,3,-43,16,127,127,-128,59,16,-3
1491693723668,0,15,-12,-41,-9,-128,-75,-93,-53
1491693723668,0,116,110,100,-128,2,90,-38,38
1491693723729,1,-63,-94,-128,127,-107,-128,-23,-85
1491693723729,1,-33,-2,46,-86,-85,124,35,-32
1491693723736,2,-77,-12,34,-42,-5,-22,-6,-24
1491693723736,2,20,-53,-66,14,79,-47,-36,9
1491693723743,3,38,107,114,-102,72,81,26,23
1491693723743,3,8,-83,-128,-48,91,29,35,19
1491693723744,0,-51,-106,-52,-80,90,-7,28,-31
1491693723744,0,22,91,99,-37,86,96,36,12
1491693723761,1,-33,-63,-125,-128,96,-118,-40,-8
1491693723761,1,24,126,127,-38,127,110,41,-42
1491693723763,2,-10,-31,-121,127,-49,-60,43,34
1491693723763,2,-54,-80,-71,-17,-108,-128,-114,-32
1491693723764,3,-4,33,98,-63,64,67,-10,17
1491693723764,3,-16,15,109,-62,115,50,-32,-61
1491693723765,0,51,59,62,55,127,54,12,-20
1491693723765,0,33,87,106,-91,43,113,44,91
1491693723794,1,-43,-84,-108,58,-126,-128,-19,-46
1491693723794,1,24,-7,55,-37,-14,-30,8,22
1491693723800,2,-44,-99,8,86,-127,-44,4,-10
1491693723800,2,-58,10,-53,-38,26,8,-13,-23
1491693723801,3,44,78,127,31,110,127,62,46
1491693723801,3,-14,-34,-128,96,-121,-128,-14,-10
1491693723826,0,-45,-8,-37,-128,-17,-20,22,-55
1491693723826,0,9,1,82,34,82,62,7,73
1491693723827,1,2,-21,12,-41,62,-53,-22,-67
1491693723827,1,51,28,30,-14,117,49,48,34
1491693723828,2,11,26,9,15,-88,55,51,-9
1491693723828,2,9,-16,-9,127,11,-118,-76,-33
1491693723829,3,-4,8,34,-72,66,120,-14,8
1491693723829,3,-3,-39,-18,96,-93,-36,-39,78
1491693723891,0,38,-25,-112,-86,78,-6,72,40
1491693723891,0,-43,-20,40,101,-119,-89,-91,-85
1491693723892,1,-16,23,53,1,65,79,-15,-20
1491693723892,1,-38,-41,81,-37,67,80,17,18
1491693723894,2,98,127,127,-33,127,127,3,8
1491693723894,2,-8,-88,-111,60,-92,-17,42,29
1491693723894,3,-95,-116,-128,-23,-128,-128,-81,-61
1491693723894,3,111,35,33,-76,83,68,57,90
1491693723924,0,-79,79,73,58,127,13,-1,-6
1491693723924,0,12,26,-38,61,7,32,66,-10
1491693723925,1,-6,56,35,83,24,-20,-11,-13
1491693723925,1,24,69,60,9,78,13,10,3
1491693723926,2,-88,-97,-88,33,-113,-114,-47,-57
1491693723926,2,69,-7,53,-83,114,42,21,16
1491693723927,0,98,39,80,70,127,69,34,70
1491693723927,0,-51,80,27,-128,-17,-70,-67,-102
1491693723956,1,62,-40,-125,-12,22,10,39,9
1491693723956,1,-60,-27,-3,50,66,75,5,-68
1491693723957,2,-21,-119,73,116,-128,-92,-35,61
1491693723957,2,50,-1,-24,-86,-78,94,-30,30
1491693723958,0,-26,27,33,33,85,105,28,70
1491693723958,0,-20,-4,-33,48,121,71,76,10
1491693723959,1,65,-45,21,-32,-97,-80,2,-4
1491693723959,1,-69,12,-63,-15,-12,-15,-37,-30
1491693723989,2,67,31,27,8,-70,-74,18,-37
1491693723989,2,-19,127,127,89,127,-53,-27,66
1491693723990,3,-17,-97,-92,9,-111,33,-30,-4
1491693723990,3,35,34,49,46,63,75,55,-15
1491693723991,0,-85,-64,-101,-90,-79,-88,-94,-57
1491693723991,0,-31,10,-59,-67,-16,-40,19,-107
1491693723993,1,24,40,64,-20,74,83,74,57
1491693723993,1,45,9,-120,-128,-46,53,-18,35
1491693724021,2,-3,82,127,40,78,54,21,-23
1491693724021,2,29,-73,-73,89,-82,59,11,54
1491693724022,3,-128,-103,-35,-9,-116,36,11,-125
1491693724022,3,59,93,100,40,123,97,0,26
1491693724023,0,33,-43,-128,-124,-126,-12,-15,51
1491693724023,0,-41,1,5,-50,52,3,18,-17
1491693724053,1,107,42,127,94,122,127,92,78
1491693724053,1,-117,-66,-128,-46,-120,-128,-65,-52
1491693724055,2,70,66,114,82,127,112,48,-4
1491693724055,2,65,-18,-53,12,-46,14,7,9
1491693724056,3,-103,-84,-88,114,31,1,-31,-3
1491693724056,3,46,52,101,-128,76,38,13,26
1491693724057,0,-79,-54,-103,95,-125,-37,-52,-45
1491693724057,0,16,41,104,31,127,93,57,41
1491693724086,1,27,-19,-95,-41,-95,-35,10,24
1491693724086,1,-49,-89,-41,-23,-122,22,22,-66
1491693724087,2,26,39,30,-124,127,46,-20,-4
1491693724087,2,-72,0,104,71,-14,-50,-53,-33
1491693724088,3,58,108,92,11,46,78,-15,-9
1491693724088,3,-51,-90,-110,99,-93,-99,2,7
1491693724118,0,8,11,77,-118,43,-56,-15,-54
1491693724118,0,-10,-45,-72,30,19,-97,-32,21
1491693724120,1,-47,-30,-58,-115,-86,-128,-13,-56
1491693724120,1,64,30,87,93,105,79,-64,4
1491693724151,2,-37,-21,-26,41,106,47,29,-11
1491693724151,2,-9,-24,-59,-64,119,77,13,44
1491693724152,3,-18,51,15,30,-63,-61,-63,-8
1491693724152,3,-5,40,103,24,127,22,54,29
1491693724153,0,73,-30,-128,50,-128,-37,2,63
1491693724153,0,-79,-9,63,-95,73,61,-35,-127
1491693724154,1,100,-16,31,-63,95,74,21,92
1491693724154,1,-94,28,84,-1,89,108,30,-22
1491693724183,2,103,22,72,-128,-38,-61,6,65
1491693724183,2,-79,-117,-128,-81,-128,-105,-50,-64
1491693724184,3,59,-4,98,98,124,-16,-27,54
1491693724184,3,-35,91,91,25,121,82,33,-24
1491693724185,0,-19,-45,-82,127,-22,48,15,-9
1491693724185,0,9,25,25,-45,-99,-42,55,29
1491693724216,1,-37,62,12,12,-40,-62,-35,-24
1491693724216,1,-13,-102,-125,-28,-88,-128,-88,-30
1491693724217,2,-42,50,127,-17,127,127,24,11
1491693724217,2,21,-37,-126,120,69,76,-15,34
1491693724217,3,16,35,19,13,-5,5,43,-11
1491693724217,3,46,58,51,17,21,62,54,40
1491693724218,0,37,7,-51,11,-102,39,10,-2
1491693724218,0,-52,-67,-11,-122,-55,-60,-31,-72
1491693724248,1,-17,-33,-56,127,68,75,-6,29
1491693724248,1,-9,-13,-6,29,12,40,10,-83
1491693724250,2,-14,35,92,99,-41,71,-7,-43
1491693724250,2,31,12,29,-88,-37,-30,30,115
1491693724251,3,-108,-73,-65,116,-77,-78,-97,-128
1491693724251,3,78,-30,5,-63,16,-48,29,86
1491693724281,0,-38,1,34,-19,77,-32,-30,-57
1491693724281,0,55,83,127,-83,118,68,34,-15
1491693724282,1,12,-46,-1,59,48,80,21,-24
1491693724282,1,-33,-12,-87,-78,-27,14,-41,5
1491693724283,2,-108,26,100,-67,-57,-103,-27,-13
1491693724283,2,106,-61,-128,127,-94,-104,-19,12
1491693724314,3,-66,7,74,-54,114,127,0,-54
1491693724314,3,81,50,76,-60,39,70,55,80
1491693724315,0,-65,-33,-128,78,103,-17,-32,-8
1491693724315,0,17,60,127,116,-8,68,69,22
1491693724316,1,-19,101,68,-74,-39,101,9,12
1491693724316,1,9,-127,-128,-91,-128,-113,-105,-19
1491693724346,2,-55,-76,59,-34,-93,71,-8,-19
1491693724346,2,-17,73,117,19,-34,-68,-58,-89
1491693724348,3,69,35,76,73,63,-5,48,117
1491693724348,3,-76,54,65,-75,68,-6,28,-102
1491693724350,0,8,-38,-128,-14,73,13,-33,70
1491693724350,0,-86,-77,-98,23,127,-3,27,-69
1491693724351,1,57,37,104,-111,80,-31,-12,-101
1491693724351,1,28,40,68,127,98,-111,7,122
1491693724411,2,-75,-24,-91,4,84,56,-17,-101
1491693724411,2,37,9,64,107,120,8,21,69
1491693724412,3,30,-41,-117,-126,90,-128,-2,-41
1491693724412,3,26,-6,3,-16,-69,-32,-7,-19
1491693724413,0,110,37,-38,-3,107,-117,46,41
1491693724413,0,-60,-12,95,-51,65,73,38,-17
1491693724414,1,-75,-12,-128,127,5,-61,-28,-40
1491693724414,1,69,-6,-56,-61,-67,80,10,76
1491693724443,2,-14,5,47,-23,-128,-3,-22,-38
1491693724443,2,107,29,14,-93,-128,127,92,70
1491693724445,3,-108,-85,-62,13,-116,-99,-25,-51
1491693724445,3,9,-8,60,-44,-114,-63,10,54
1491693724446,0,-2,15,67,21,-67,84,5,-70
1491693724446,0,12,-15,-37,-47,28,-49,42,107
1491693724448,1,63,19,-28,-128,43,127,-49,-20
1491693724448,1,-46,20,-16,125,-10,93,99,-3
1491693724508,2,-52,-69,-81,3,35,-96,-84,-23
1491693724508,2,-56,8,-66,-32,81,46,-24,-82
1491693724510,3,73,47,99,84,-58,57,23,42
1491693724510,3,-107,-70,-128,101,95,-60,-61,-126
1491693724511,0,78,40,127,13,111,127,66,127
1491693724511,0,-37,2,11,73,-19,0,-31,-68
1491693724512,1,-8,-35,46,-2,-52,-111,-45,15
1491693724512,1,95,70,127,29,-11,92,-17,17
1491693724541,2,26,-5,-95,25,19,-120,90,-41
1491693724541,2,-18,29,14,-111,47,43,24,38
1491693724542,3,-40,-35,6,-7,-113,-20,-47,-26
1491693724542,3,-96,-112,-98,127,48,62,-30,-81
1491693724543,0,10,53,-60,-128,-108,27,-24,-116
1491693724543,0,-17,14,57,127,39,93,13,39
1491693724573,2,-35,-48,-72,-23,2,-89,2,31
1491693724573,2,-30,-3,-68,-84,-103,10,-122,-104
1491693724575,3,-30,34,77,36,124,32,58,-11
1491693724575,3,72,4,-128,93,-57,-128,-48,59
1491693724576,0,-28,-28,20,-128,-74,-48,2,-27
1491693724576,0,4,-86,-84,32,80,66,75,20
1491693724577,1,-126,8,16,63,65,-123,-21,2
1491693724577,1,112,75,-30,-128,-44,113,-50,94
1491693724606,2,-79,-10,6,33,67,-22,84,-5
1491693724606,2,45,-23,-87,19,-100,8,10,46
1491693724607,3,-72,-3,-98,-4,-64,127,-11,4
1491693724607,3,20,16,22,4,92,3,-9,-52
1491693724608,0,29,60,117,64,79,120,7,57
1491693724608,0,58,12,48,-68,-83,-38,-73,-63
1491693724609,1,1,-93,-128,-128,-18,-63,24,26
1491693724609,1,-81,21,61,-76,-67,-3,30,-73
1491693724639,2,-7,-3,-90,-71,-5,-47,-56,-49
1491693724639,2,44,28,87,20,15,-5,-31,17
1491693724641,3,36,43,-33,7,57,96,21,88
1491693724641,3,-77,-35,-24,-84,-32,-106,-48,-30
1491693724642,0,25,2,57,-90,-72,127,70,-43
1491693724642,0,-87,-57,-70,100,-78,-128,16,-17
1491693724643,1,23,2,31,47,68,46,-4,0
1491693724643,1,-39,-16,-73,-70,-6,44,46,-11
1491693724671,2,-15,37,73,-7,-55,101,-38,35
1491693724671,2,41,16,-52,-55,-16,-66,-48,-7
1491693724672,3,-58,-2,19,-48,-20,37,1,-45
1491693724672,3,27,4,4,123,127,28,19,72
1491693724673,0,33,-9,-33,-47,-63,40,21,77
1491693724673,0,-45,21,-61,-53,-92,21,48,-27
1491693724673,1,-48,-35,-128,82,19,31,-49,-92
1491693724673,1,-22,0,81,-81,49,-63,-6,-61
1491693724704,2,38,-19,54,127,6,33,-43,-6
1491693724704,2,-72,13,-32,47,87,12,19,-33
1491693724705,3,-1,31,82,9,-38,-72,-63,-49
1491693724705,3,9,56,45,25,-10,61,16,39
1491693724706,0,-19,-45,-38,-39,-16,-97,-85,7
1491693724706,0,-17,-53,-54,-53,-43,-71,27,-2
1491693724736,1,69,11,81,87,50,113,54,-35
1491693724736,1,58,-2,10,66,52,-37,-14,77
1491693724738,2,-61,34,96,-64,-22,31,-8,-83
1491693724738,2,-4,22,127,115,2,-31,-3,65
1491693724739,3,-4,-14,-4,-128,24,-44,-32,-49
1491693724739,3,-3,-3,51,36,-69,-1,0,2
1491693724740,0,91,-4,-60,127,-59,-49,-13,-17
1491693724740,0,26,-48,-69,-103,14,-80,5,0
1491693724769,1,-10,57,111,-73,67,73,28,7
1491693724769,1,18,-31,-54,-114,-99,-19,-21,-27
1491693724769,2,-73,-3,-16,91,127,80,-38,20
1491693724769,2,40,35,127,-19,-18,127,53,83
1491693724770,3,-86,9,-101,127,-128,-128,5,-37
1491693724770,3,52,12,54,44,-113,107,-37,-22
1491693724801,0,-39,-21,-72,119,13,71,37,74
1491693724801,0,-59,-7,13,72,73,102,-58,-45
1491693724802,1,26,12,117,-128,-22,-92,69,125
1491693724802,1,-48,-55,58,43,59,21,6,-42
1491693724833,2,67,73,33,73,-78,-38,18,25
1491693724833,2,-2,-36,-76,31,83,65,-46,-2
1491693724835,3,68,-9,-78,-42,-66,-84,26,81
1491693724835,3,-11,54,58,-31,60,-109,8,-10
1491693724835,0,-49,-76,-85,-12,-39,-34,-13,19
1491693724835,0,117,0,-54,-97,48,-62,10,37
1491693724866,1,-24,68,58,-28,48,73,17,-39
1491693724866,1,27,-67,-73,66,-78,111,32,29
1491693724898,2,-71,-33,-34,-120,112,-114,-89,-70
1491693724898,2,8,24,47,-86,-9,124,72,78
1491693724900,3,-28,-47,48,70,-16,33,-31,-69
1491693724900,3,-38,46,26,101,114,59,17,-45
1491693724901,0,-58,3,10,-9,-58,-66,-2,-24
1491693724901,0,-57,-8,21,-20,6,-78,-95,-124
1491693724931,1,30,7,10,-51,-12,127,42,127
1491693724931,1,-28,-51,-100,17,-94,-109,-2,-42
1491693724964,2,109,33,83,-72,-1,46,54,49
1491693724964,2,-119,-25,-54,-35,8,-120,-95,-17
1491693724965,3,78,-4,-8,4,-117,31,98,121
1491693724965,3,-92,-74,-128,-36,47,-50,-25,-93
1491693724966,1,-69,-72,-122,-38,-18,-94,41,6
1491693724966,1,112,62,97,64,127,113,-22,127
1491693724967,2,-25,38,43,121,-109,11,38,-70
1491693724967,2,95,-22,-9,-49,-17,19,-49,32
1491693724996,3,-30,-7,58,55,67,-8,9,-49
1491693724996,3,9,-39,59,67,-101,-54,94,-37
1491693724997,0,107,88,-24,-73,36,18,-55,-1
1491693724997,0,96,122,52,19,42,0,-2,96
1491693725032,1,-12,-27,-116,66,-114,93,18,-122
1491693725032,1,-92,-81,-103,-3,-65,-90,30,-54
1491693725061,3,127,75,-72,-15,-13,44,-1,64
1491693725061,3,-118,16,-22,1,68,69,-25,21
1491693725063,0,-17,-121,-122,123,-52,-15,75,-65
1491693725063,0,-105,45,74,-7,63,85,-23,-13
1491693725064,1,17,52,127,127,-3,-14,17,53
1491693725064,1,74,12,-53,-56,11,78,43,-50
1491693725067,3,-61,32,17,-86,74,41,-126,-64
1491693725067,3,-7,-17,-125,107,-47,-22,25,30
1491693725094,0,50,25,127,-96,3,-69,-59,-14
1491693725094,0,-80,-34,-117,-108,-128,-38,6,-105
1491693725095,1,31,-27,54,92,90,-128,-16,101
1491693725095,1,-71,10,84,-104,9,64,-16,-106
1491693725096,2,-35,-42,-91,51,87,-59,-91,-17
1491693725096,2,-99,103,101,-49,38,-6,52,-79
1491693725098,1,-115,-9,106,-65,127,124,-90,9
1491693725098,1,88,65,-16,68,-14,-110,16,19
1491693725126,2,-114,-128,-128,-70,-53,21,-38,-70
1491693725126,2,19,14,44,-3,-47,66,5,-17
1491693725127,3,-13,59,74,-41,100,127,45,-32
1491693725127,3,-11,33,-35,78,-128,-17,53,127
1491693725128,0,-113,-47,-40,-7,-50,-52,-68,6
1491693725128,0,127,-31,-4,-74,-10,87,-30,-15
1491693725129,1,-128,-72,4,127,14,10,62,-93
1491693725129,1,76,27,127,-109,21,57,-43,4
1491693725195,2,19,101,90,-53,66,-24,33,-49
1491693725195,2,61,-44,-117,40,-112,24,0,-44
1491693725196,3,-46,12,-76,87,73,89,-106,32
1491693725196,3,-50,-18,-48,-7,-60,-14,7,-119
1491693725197,0,64,-38,17,127,101,-75,-2,67
1491693725197,0,46,115,119,64,127,86,78,67
1491693725198,1,-4,-98,-101,62,-128,-72,13,-58
1491693725198,1,-15,-26,-87,-105,-41,-45,-87,-54
1491693725224,2,-8,-37,-122,81,-128,52,75,58
1491693725224,2,-128,-50,-41,127,127,-128,-39,-120
1491693725256,3,91,84,60,-4,55,40,9,57
1491693725256,3,58,90,127,94,4,-1,-23,127
1491693725257,0,-21,-50,-59,-65,-85,112,3,-18
1491693725257,0,-55,8,-35,25,-16,-35,21,-18
1491693725258,2,83,58,-38,50,-4,45,50,28
1491693725258,2,-24,-61,-24,6,65,-5,-8,13
1491693725259,3,-1,115,118,-68,-49,66,-13,-68
1491693725259,3,15,-76,-110,-75,52,-16,-21,-1
1491693725289,0,-10,62,127,-52,63,71,25,-11
1491693725289,0,-59,-126,-128,45,-74,-61,-54,-39
1491693725291,1,56,34,53,102,124,-113,-13,-20
1491693725291,1,29,2,60,-17,-44,46,-70,45
1491693725292,2,1,32,120,-40,-53,2,-38,16
1491693725292,2,30,-12,-24,-41,33,76,-40,-18
1491693725293,0,-110,20,73,68,127,-92,42,47
1491693725293,0,111,81,127,-74,-128,24,78,2
1491693725321,1,-104,-95,-128,44,-128,-103,9,12
1491693725321,1,-59,31,78,-83,119,105,-32,15
1491693725322,2,-3,-40,-99,5,-15,29,-1,70
1491693725322,2,-49,101,97,15,100,69,63,-2
1491693725323,0,23,-8,-85,83,58,-128,-72,-64
1491693725323,0,22,-12,-51,8,39,-90,-29,50
1491693725324,1,62,98,117,-74,94,127,42,25
1491693725324,1,-95,-72,-109,109,-128,-70,11,5
1491693725353,2,-24,-75,-85,-20,67,70,-124,-106
1491693725353,2,14,91,85,16,61,42,65,78
1491693725354,3,-55,-86,-128,73,-39,67,9,-110
1491693725354,3,73,127,127,-116,127,-80,11,64
1491693725355,0,-49,0,-26,100,-128,22,43,-8
1491693725355,0,-59,-87,-128,-46,29,-81,-56,-53
1491693725356,1,40,16,83,-128,45,65,-18,57
1491693725356,1,69,111,98,-107,-31,127,92,-19
1491693725386,2,45,6,52,79,26,-13,-11,46
1491693725386,2,-12,-51,-104,104,-112,88,-12,8
1491693725387,3,-67,-106,-17,-15,28,-90,-36,-47
1491693725387,3,15,0,5,-95,-126,12,56,-24
1491693725388,0,-26,0,-32,88,9,-84,-13,29
1491693725388,0,61,41,105,13,48,93,36,60
1491693725418,1,-34,-2,10,29,-53,73,3,-21
1491693725418,1,-34,-27,-109,-13,99,-82,12,-52
1491693725419,2,88,97,125,-128,-26,78,19,-7
1491693725419,2,-40,-67,-128,121,0,-49,-28,19
1491693725420,3,-6,4,-30,28,57,8,63,6
1491693725420,3,6,19,-71,-71,-112,65,20,-27
1491693725421,0,-45,-40,62,78,71,7,17,-38
1491693725421,0,38,30,115,39,-97,48,-22,28
1491693725451,1,-4,-8,-11,-80,-85,18,-26,-40
1491693725451,1,-34,-74,-101,54,-27,78,-28,8
1491693725452,2,14,-31,10,45,13,21,-7,-12
1491693725452,2,37,43,10,-3,-121,49,17,-3
1491693725456,3,-58,-20,-80,59,103,-124,-72,9
1491693725456,3,2,32,122,0,120,79,-14,-22
1491693725483,0,36,-34,-128,14,-67,-66,-14,41
1491693725483,0,-12,44,118,-128,4,18,14,-63
1491693725484,1,-54,5,29,84,65,127,62,14
1491693725484,1,27,-94,-87,23,127,-116,-83,-22
1491693725485,2,11,57,127,-95,-3,74,-74,-35
1491693725485,2,-9,-15,-17,-45,-65,-56,19,-2
1491693725516,3,24,60,102,-106,-111,91,48,26
1491693725516,3,-16,14,127,68,-127,42,11,3
1491693725517,0,-55,-99,-128,-32,-128,-100,8,-7
1491693725517,0,0,-22,35,-105,-72,59,-59,-34
1491693725519,1,15,48,96,-93,-11,26,12,12
1491693725519,1,-23,-80,-95,35,17,-94,-9,-36
1491693725549,2,-15,50,111,-3,56,54,-14,7
1491693725549,2,-14,-20,62,66,118,-57,7,-5
1491693725550,3,16,90,127,-116,85,-58,72,65
1491693725550,3,-40,8,8,125,73,-53,-11,-23
1491693725552,0,-10,-46,-99,-111,127,-20,-19,-11
1491693725552,0,-26,-22,-12,13,127,2,5,15
1491693725553,1,9,-80,-128,127,-93,59,-20,-74
1491693725553,1,24,86,104,-45,42,34,-9,84
1491693725581,2,13,-1,55,40,33,-81,60,19
1491693725581,2,16,3,-78,-128,66,112,-3,21
1491693725582,3,18,10,-56,99,-28,-19,-19,-6
1491693725582,3,-90,-87,-115,36,-74,-75,-9,-99
1491693725584,0,37,88,127,13,75,104,36,80
1491693725584,0,-17,-62,-125,110,-125,-115,-62,28
1491693725614,1,33,-11,33,1,127,-11,-36,-67
1491693725614,1,45,27,94,-42,95,66,40,38
1491693725617,2,-40,53,36,-36,107,39,25,10
1491693725617,2,81,88,127,41,127,66,51,61
1491693725619,3,-70,-108,-128,-34,60,-32,-34,33
1491693725619,3,36,-22,-76,1,-99,-13,-10,2
1491693725649,0,7,-15,-5,-61,-92,-77,-41,-3
1491693725649,0,-66,-7,57,-62,78,106,53,-62
1491693725651,1,-39,-19,-45,-56,-107,-119,-84,-72
1491693725651,1,40,52,10,-90,40,127,52,34
1491693725679,2,-29,-85,-112,-44,-46,-12,5,-26
1491693725679,2,57,37,77,-44,-34,-113,10,29
1491693725680,3,19,90,103,101,99,74,-42,4
1491693725680,3,-76,-60,-67,-68,-111,-105,-50,-57
1491693725681,0,-3,-10,55,-57,21,31,-8,-62
1491693725681,0,9,32,35,-35,-18,-73,-7,61
1491693725682,1,26,-13,-42,4,-70,-32,46,28
1491693725682,1,41,116,116,-16,116,77,10,15
1491693725714,2,-11,33,55,127,1,29,18,-45
1491693725714,2,-83,-50,-126,-82,-85,-36,-54,-47
1491693725716,3,7,65,127,-23,105,51,45,68
1491693725716,3,97,0,-128,-37,80,-126,-53,74
1491693725716,0,-8,-24,-127,-11,-71,79,51,-8
1491693725716,0,4,70,89,108,-36,-73,-30,37
1491693725718,1,13,-3,-14,-53,35,-3,-13,-60
1491693725718,1,29,69,127,78,118,127,80,91
1491693725744,2,-23,-94,-58,67,-55,-75,-42,-66
1491693725744,2,-45,-41,-12,-71,95,29,18,-52
1491693725745,3,53,-118,-128,-52,-117,-33,-11,30
1491693725745,3,0,-48,22,25,-31,-20,-32,-64
1491693725746,0,35,80,70,24,-89,-72,-5,28
1491693725746,0,-24,-88,-128,36,-36,54,-5,-14
1491693725776,1,-29,13,91,-55,101,-62,-19,-67
1491693725776,1,21,19,82,-63,-39,57,2,25
1491693725777,2,-22,-7,114,80,98,-49,-22,26
1491693725777,2,65,1,-12,-112,-55,115,27,-38
1491693725778,3,23,56,84,-25,90,95,15,45
1491693725778,3,-60,-96,-128,16,-128,-72,-56,-76
1491693725809,0,-68,32,105,-12,127,-17,-24,-65
1491693725809,0,29,42,106,-1,127,14,83,59
1491693725810,1,-62,-22,-28,100,-88,-10,-47,-19
1491693725810,1,41,25,-15,-40,-69,72,-16,48
1491693725812,2,19,73,43,15,51,104,22,5
1491693725812,2,-4,-46,-128,-84,-47,-68,-9,17
1491693725813,3,-27,-47,74,15,-105,-45,13,7
1491693725813,3,-75,70,127,73,127,33,29,-23
1491693725844,0,58,-54,-40,49,-84,93,27,86
1491693725844,0,-10,-55,-24,82,7,-29,-58,-62
1491693725845,1,-10,65,81,-29,-54,48,40,13
1491693725845,1,-22,-17,70,18,31,-3,-39,-37
1491693725847,2,71,54,-86,-59,-70,-39,38,57
1491693725847,2,-27,34,127,37,103,16,-2,22
1491693725874,3,-12,-104,-128,15,-126,-62,-81,-82
1491693725874,3,-46,-8,68,68,-65,-93,4,-28
1491693725875,0,71,15,-23,-80,16,76,55,-15
1491693725875,0,-1,3,97,-40,63,19,-54,47
1491693725876,1,-11,-52,6,67,-32,-16,15,-44
1491693725876,1,23,41,-29,-27,82,20,31,41
1491693725906,2,-127,-36,-3,18,-63,-6,-41,4
1491693725906,2,96,-61,-75,8,-128,-124,-4,29
1491693725908,3,7,104,127,4,127,127,71,18
1491693725908,3,-38,-115,-128,-93,-120,-111,-48,-49
1491693725909,0,-96,-36,-128,-108,-120,-122,-28,-65
1491693725909,0,-36,73,125,6,119,127,-62,-49
1491693725944,1,67,89,102,24,110,92,16,33
1491693725944,1,21,4,-41,53,-100,-20,32,39
1491693725946,2,12,-25,44,127,127,94,87,19
1491693725946,2,-38,-12,-128,-26,-43,-73,-13,-31
1491693725947,3,56,-34,-128,-5,-128,-109,-22,46
1491693725947,3,4,57,127,22,127,90,72,69
1491693725948,0,-19,25,-45,-57,-77,-58,-84,-26
1491693725948,0,36,63,61,127,52,95,87,45
1491693726003,1,-117,-111,-114,-128,-86,-113,-62,-84
1491693726003,1,-30,9,102,24,77,50,-13,34
1491693726004,2,5,-30,122,5,75,107,26,15
1491693726004,2,25,67,127,-99,39,56,-28,-36
1491693726005,3,-2,19,1,117,-69,-123,18,42
1491693726005,3,-16,-34,-128,12,-128,85,-23,-74
1491693726006,0,-33,-22,-49,-84,127,-62,-31,-5
1491693726006,0,0,-2,-128,-56,40,74,17,10
1491693726036,1,27,103,127,73,127,127,66,78
1491693726036,1,32,-12,-56,9,-30,31,38,-59
1491693726037,2,-55,-83,-74,-6,-119,-89,-66,73
1491693726037,2,-88,-68,-23,66,74,65,-33,-125
1491693726037,3,73,19,45,-42,70,11,19,94
1491693726037,3,-1,45,63,94,127,47,86,16
1491693726038,0,63,9,-70,88,-61,-51,33,46
1491693726038,0,53,-68,-30,112,-90,-93,30,55
1491693726068,1,-43,-21,-70,-98,-28,81,-28,-63
1491693726068,1,13,37,54,-33,126,29,-2,13
1491693726069,2,14,37,51,-79,-57,-29,1,-75
1491693726069,2,-40,58,88,26,53,32,13,-8
1491693726070,3,-27,-56,-42,68,-22,20,21,9
1491693726070,3,-34,-30,-107,-17,28,-108,-27,41
1491693726071,0,66,39,43,-78,-35,71,-37,-29
1491693726071,0,-73,-4,-35,110,-128,64,23,-35
1491693726141,1,-37,-53,-26,-105,-33,-94,-66,-48
1491693726141,1,34,8,110,-1,67,102,-16,57
1491693726143,2,16,-22,122,127,2,45,36,-41
1491693726143,2,14,18,-47,-17,-17,-41,-10,7
1491693726146,3,-7,45,92,-84,114,73,68,3
1491693726146,3,-28,-67,-128,104,-128,-124,-49,-44
1491693726147,0,-21,60,127,2,127,127,36,39
1491693726147,0,-7,-79,-117,-95,-128,-128,7,-39
1491693726166,1,-15,-35,80,127,89,97,47,10
1491693726166,1,12,15,-63,-104,-121,-90,-109,-92
1491693726171,2,75,25,-41,3,127,94,-42,0
1491693726171,2,-121,-43,-60,5,12,-3,5,-56
1491693726172,3,47,9,18,32,100,92,75,75
1491693726172,3,7,37,127,-128,127,77,4,67
1491693726172,0,50,16,-59,41,-106,-72,-53,-67
1491693726172,0,-24,-43,-21,104,31,-57,15,-2
1491693726199,1,-37,11,-46,38,-128,4,-50,-52
1491693726199,1,30,2,-45,-59,-121,-88,27,-6
1491693726200,2,-48,-13,84,-52,106,22,23,33
1491693726200,2,63,33,99,-81,94,90,67,36
1491693726201,3,-93,-74,-97,-55,-64,-117,-108,-90
1491693726201,3,8,-23,-74,19,-81,59,41,2
1491693726207,0,27,-41,-89,-49,25,11,10,-31
1491693726207,0,-45,34,127,-1,-51,-95,-65,-22
1491693726231,1,39,39,35,-84,5,75,6,82
1491693726231,1,-95,-44,-36,88,-97,-85,-51,-124
1491693726232,2,42,53,60,71,-103,34,-34,75
1491693726232,2,13,36,28,-43,-111,66,-15,-44
1491693726233,3,-35,9,-33,16,-1,40,82,18
1491693726233,3,15,3,58,-36,90,36,4,71
1491693726234,0,-27,21,63,65,97,22,43,-46
1491693726234,0,36,30,92,-36,83,-35,-16,50
1491693726264,1,-19,-82,-128,33,-128,-128,-72,-102
1491693726264,1,61,-75,51,75,127,17,-33,85
1491693726265,2,-53,-9,65,23,57,-61,5,-27
1491693726265,2,-14,17,67,-84,127,120,-19,-26
1491693726265,3,116,99,100,89,127,85,93,104
1491693726265,3,-80,-18,-37,-115,98,-70,12,-97
1491693726266,0,-8,25,-35,-71,106,21,-57,21
1491693726266,0,69,57,40,23,127,104,-5,73
1491693726296,1,-51,1,-63,-128,86,26,-53,14
1491693726296,1,39,-20,-22,67,-64,-51,-24,25
1491693726297,2,38,-27,-72,-12,72,42,-17,26
1491693726297,2,-7,-21,-34,-69,81,58,2,-20
1491693726298,3,-40,-30,34,127,12,-26,32,-62
1491693726298,3,-69,32,77,-84,-63,51,63,-3
1491693726328,0,-22,48,-2,-89,-128,-59,-29,12
1491693726328,0,40,-21,6,48,-128,-52,-20,19
1491693726329,1,-80,19,127,16,-94,51,14,-30
1491693726329,1,55,-11,-94,10,-96,-46,-12,-16
1491693726330,2,-27,-107,-91,-96,-128,-10,22,49
1491693726330,2,63,53,-11,34,-99,-94,-48,-8
1491693726361,3,-39,22,59,-128,-86,48,-44,-71
1491693726361,3,4,28,127,127,-60,80,21,4
1491693726362,0,2,-14,-54,55,-109,-61,48,-45
1491693726362,0,-102,-88,-128,-75,-128,-73,-98,-64
1491693726363,1,96,-8,-1,63,68,1,-29,63
1491693726363,1,-27,59,38,-65,127,-35,3,67
1491693726363,2,-51,-23,-74,-27,49,73,60,-39
1491693726363,2,-63,-92,-119,45,98,26,83,-32
1491693726426,3,55,-13,76,-3,40,-59,-31,39
1491693726426,3,61,52,90,10,117,101,51,28
1491693726427,0,-119,-19,-6,-23,-23,-27,-16,-125
1491693726427,0,124,55,22,-60,89,-104,-81,7
1491693726458,1,-31,5,-30,-116,83,76,24,45
1491693726458,1,22,36,6,-128,-10,-66,103,-5
1491693726459,2,2,18,88,58,112,8,12,19
1491693726459,2,-128,-64,-62,-4,-128,-53,-11,-91
1491693726460,3,53,-11,54,39,109,23,-108,-39
1491693726460,3,15,-13,-128,-86,-32,73,-53,44
1491693726461,0,37,38,-35,7,65,78,30,64
1491693726461,0,-27,17,35,-89,47,15,-11,41
1491693726491,1,56,1,39,34,-1,-128,-11,-43
1491693726491,1,-110,-77,-43,43,-39,-42,-27,-58
1491693726524,2,40,34,56,-47,39,114,-26,43
1491693726524,2,125,120,126,-63,-44,32,68,96
1491693726525,3,-64,-46,-128,80,37,-128,-30,30
1491693726525,3,-26,54,127,73,90,116,35,-73
1491693726525,0,-103,-128,-128,-79,-128,-128,25,40
1491693726525,0,23,-42,37,-39,104,122,-10,-69
1491693726526,1,2,44,70,46,32,12,21,59
1491693726526,1,26,-9,8,-38,-1,90,46,7
1491693726623,2,-40,64,127,64,93,-54,-72,-18
1491693726623,2,86,16,48,126,-127,7,-42,73
1491693726624,0,20,23,-103,-97,-99,62,-7,45
1491693726624,0,-9,-19,39,-53,89,48,57,-17
1491693726624,1,26,51,46,88,-5,20,59,57
1491693726624,1,14,-65,-86,-40,-113,-80,-61,-18
1491693726625,3,20,33,42,-10,27,111,56,36
1491693726625,3,81,39,92,-23,-45,87,29,97
1491693726654,0,76,33,10,-31,-36,76,75,-15
1491693726654,0,-62,-31,-67,108,47,-82,-59,28
1491693726654,1,-54,-24,1,-128,-95,-59,-52,-95
1491693726654,1,-12,26,90,-51,10,79,40,-79
1491693726686,2,54,-57,-75,58,-11,-2,20,58
1491693726686,2,-81,-64,-108,-83,-98,14,53,-8
1491693726687,1,-19,6,32,28,-73,34,13,21
1491693726687,1,-36,-30,-82,10,5,-122,-57,-120
1491693726687,2,-37,-56,-36,31,68,-23,18,63
1491693726687,2,47,65,85,28,-21,-39,-62,31
1491693726688,3,-3,13,-52,-112,57,35,79,-11
1491693726688,3,-72,-33,-28,-38,-98,-83,-47,-61
1491693726719,0,50,37,52,-127,-38,86,-81,25
1491693726719,0,-128,-86,-108,95,7,-73,-27,-128
1491693726721,1,-1,93,102,-43,54,54,4,52
1491693726721,1,-44,-21,-95,-2,-46,44,-7,12
1491693726722,2,14,-6,57,111,41,-128,39,-53
1491693726722,2,46,-24,-65,42,-81,4,-8,-15
1491693726722,3,-54,17,4,-92,-2,127,-49,-87
1491693726722,3,36,40,57,82,47,-82,38,41
1491693726757,0,-29,-7,7,102,-57,-8,-81,-101
1491693726757,0,81,-3,-128,-100,-35,81,43,105
1491693726759,1,-61,-47,14,-17,-6,-36,-11,-48
1491693726759,1,-6,67,127,64,126,127,94,98
1491693726784,2,-34,-65,-128,42,0,-73,-14,-57
1491693726784,2,-12,36,81,10,108,-116,-108,-31
1491693726785,3,-30,-40,-80,-59,-48,-19,73,67
1491693726785,3,123,55,68,-51,96,-80,63,13
1491693726786,0,-89,22,19,-105,-114,86,20,-53
1491693726786,0,-65,-9,108,58,54,127,58,-67
1491693726787,1,33,25,-45,-103,-31,12,-21,-10
1491693726787,1,-12,-83,-88,126,-50,-40,-18,53
1491693726816,2,92,29,29,-3,-17,-6,57,34
1491693726816,2,-56,-14,-79,-93,-13,-76,-43,-63
1491693726817,3,-5,-29,81,74,-39,22,85,127
1491693726817,3,14,22,110,34,100,89,6,-97
1491693726820,0,-28,-48,-89,68,-104,-72,-12,90
1491693726820,0,65,-28,-110,-28,86,76,9,-19
1491693726821,1,-49,65,91,127,34,-124,-13,-7
1491693726821,1,-36,23,13,-128,-28,96,43,26
1491693726848,2,-56,-16,-64,-116,-20,-46,94,-107
1491693726848,2,10,-32,-30,112,-65,-3,-16,-9
1491693726849,3,-19,-51,29,49,-64,-45,11,47
1491693726849,3,-17,-1,-63,-32,-21,-2,-44,17
1491693726850,0,77,77,127,48,88,35,-12,42
1491693726850,0,-26,-45,57,-42,-128,-78,60,14
1491693726851,1,5,-23,-85,80,105,3,-56,-17
1491693726851,1,-28,8,49,75,62,-102,-44,-31
1491693726881,2,-103,-28,-70,-69,-56,-74,-111,-79
1491693726881,2,68,33,71,21,121,21,-6,-59
1491693726911,3,-4,-24,-112,59,67,2,-3,-28
1491693726911,3,-44,-41,-9,-17,-100,-87,-63,60
1491693726911,0,84,103,88,-128,127,18,73,14
1491693726911,0,-52,-26,-62,127,-128,48,58,36
1491693726912,1,-45,-86,-78,-13,-47,-79,-47,-128
1491693726912,1,39,37,-7,-105,97,94,68,60
1491693726913,2,7,7,127,-57,79,15,-81,-82
1491693726913,2,7,50,70,-15,72,-2,78,85
1491693726915,3,8,2,125,-54,-66,56,-21,-80
1491693726915,3,-24,-23,-19,65,61,-21,12,1
1491693726916,0,110,-15,-106,127,-125,41,-40,121
1491693726916,0,-18,-28,-45,74,77,83,34,66
1491693726917,1,37,-1,10,27,8,-79,-17,67
1491693726917,1,-89,1,57,2,-79,77,-54,-128
1491693726979,2,0,30,108,-50,127,93,69,102
1491693726979,2,-25,-11,-29,-46,-102,-52,-6,21
1491693726980,3,14,27,57,33,38,127,102,8
1491693726980,3,-26,-41,-60,97,-102,-61,-91,-5
1491693726981,0,-11,6,-5,-52,98,-126,24,-31
1491693726981,0,78,21,-46,6,-128,74,22,-28
1491693726982,1,-56,35,26,60,127,-24,-40,-47
1491693726982,1,2,29,62,-128,-114,-76,54,85
1491693727011,2,10,-102,-122,104,-128,-69,19,49
1491693727011,2,-25,-72,63,-88,-2,-30,-92,-78
1491693727013,3,11,47,73,-2,54,-6,-39,-24
1491693727013,3,75,77,43,-49,126,51,125,67
1491693727014,0,-117,-58,-57,127,-107,11,-93,-109
1491693727014,0,93,-2,-27,-34,7,-63,88,125
1491693727016,1,49,38,-28,-128,-26,-72,-85,-82
1491693727016,1,72,-29,-26,7,127,61,-56,-32
1491693727047,2,25,78,115,42,-56,122,97,61
1491693727047,2,-41,38,86,86,85,80,39,-53
1491693727048,3,-115,-93,-64,73,-128,37,17,56
1491693727048,3,58,-62,-107,5,-102,-69,-66,-54
1491693727049,0,55,33,40,-102,-23,-18,-43,-128
1491693727049,0,-88,-11,-23,76,65,-12,-13,-18
1491693727051,1,44,64,47,-128,-106,-52,20,87
1491693727051,1,-44,33,114,-61,24,127,51,-34
1491693727076,2,49,-93,-128,68,-49,81,38,92
1491693727076,2,-68,39,127,-128,92,24,-34,-128
1491693727077,3,81,30,-109,109,-55,127,92,76
1491693727077,3,-91,-104,-128,-22,-72,-128,-81,-80
1491693727077,0,10,97,127,-110,118,101,22,61
1491693727077,0,-29,-64,-108,119,-103,-47,17,-75
1491693727108,1,56,-47,-115,-36,26,-11,-48,-47
1491693727108,1,-81,52,100,-51,66,16,20,-31
1491693727111,2,23,-11,-22,127,-61,-58,55,116
1491693727111,2,20,16,-8,44,126,-128,-128,-64
1491693727111,3,-32,-32,-73,-125,-114,119,49,38
1491693727111,3,110,8,17,-3,-79,124,43,40
1491693727112,0,-111,-1,-63,-77,119,-128,-93,-85
1491693727112,0,-40,-39,-26,-15,5,55,14,45
1491693727150,1,12,-26,-58,-39,0,22,10,-38
1491693727150,1,5,11,20,107,92,-5,-16,-75
1491693727152,2,-31,-2,38,36,-109,-42,29,-22
1491693727152,2,70,7,-46,-90,-28,42,51,117
1491693727153,3,-128,26,125,103,127,-115,-73,-108
1491693727153,3,74,-60,-120,-32,-58,11,6,47
1491693727174,0,4,-12,-21,59,78,-63,41,-32
1491693727174,0,-11,41,62,-24,-29,66,-36,72
1491693727176,1,-25,23,-9,117,110,-66,1,-83
1491693727176,1,-3,17,19,-30,18,-98,32,54
1491693727177,2,-24,9,-22,127,43,114,-10,-71
1491693727177,2,20,16,70,-128,-86,91,55,-19
1491693727181,3,-28,-58,-29,80,78,16,24,83
1491693727181,3,-44,-21,-48,85,-12,-68,-120,-86
1491693727206,0,76,53,27,-91,39,-17,-52,-22
1491693727206,0,29,66,-35,72,105,13,21,4
1491693727207,1,-1,-4,26,71,-128,0,121,-32
1491693727207,1,-112,-110,-128,127,114,11,-56,-105
1491693727208,2,4,-1,13,7,107,82,-79,43
1491693727208,2,65,78,104,29,18,-21,15,47
1491693727271,3,51,-1,12,-7,25,93,7,34
1491693727271,3,-61,-8,-82,33,-114,-70,-34,-13
1491693727272,0,-68,-97,-114,60,-74,-16,31,-52
1491693727272,0,-40,24,47,60,-58,67,-2,-34
1491693727304,1,35,-15,-59,33,85,106,1,63
1491693727304,1,53,76,117,88,86,9,29,42
1491693727305,2,7,15,89,-128,-128,122,77,66
1491693727305,2,-108,-128,-128,-79,64,-54,-16,-67
1491693727306,3,51,54,127,-50,93,-82,6,-107
1491693727306,3,4,14,36,85,5,51,80,40
1491693727307,0,-31,24,83,93,39,-17,-48,-7
1491693727307,0,-24,20,27,16,-92,-53,-12,-6
1491693727337,1,-6,-14,-62,-128,-128,-57,-48,-20
1491693727337,1,37,7,-7,-95,-103,-8,53,59
1491693727339,2,-66,-81,-128,95,-50,-128,34,-71
1491693727339,2,1,22,122,-100,73,84,46,-11
1491693727340,1,12,11,16,9,-21,-87,-45,49
1491693727340,1,13,35,18,-100,-92,127,-29,5
1491693727341,2,-88,-83,-107,-72,114,-77,31,-67
1491693727341,2,127,46,41,2,34,-48,-68,20
1491693727401,3,-96,-26,-79,-66,-4,127,61,12
1491693727401,3,36,26,71,-81,63,56,51,41
1491693727402,0,42,-26,20,-63,-88,19,-3,13
1491693727402,0,-36,-21,-89,-120,-40,-128,50,-11
1491693727403,1,37,-26,-62,28,-91,-4,-53,65
1491693727403,1,-14,-48,-61,104,19,64,-22,-70
1491693727404,2,31,9,57,8,44,73,74,46
1491693727404,2,-2,47,100,-98,-83,-87,-34,46
1491693727499,3,32,-3,-15,26,21,66,21,-8
1491693727499,3,38,46,-35,-114,40,49,32,9
1491693727503,0,-100,-56,-77,108,-117,-77,-46,-78
1491693727503,0,-58,-57,38,127,102,-22,-12,-11
1491693727504,1,3,53,-91,-128,-15,79,-38,-99
1491693727504,1,82,-13,78,-20,-44,13,24,61
1491693727506,2,29,45,-12,-39,122,-112,2,37
1491693727506,2,-13,25,-14,-16,-107,127,95,22
1491693727532,3,-24,-57,19,9,-121,-15,-45,-37
1491693727532,3,-88,-117,-78,80,-53,-128,-32,-55
1491693727534,0,15,64,52,-71,58,59,-103,-3
1491693727534,0,21,-50,-78,-48,-121,-88,-35,65
1491693727564,0,-15,-44,7,-29,-128,39,20,-40
1491693727564,0,-112,-24,-74,127,122,87,-66,-78
1491693727566,1,109,86,127,-124,69,75,69,57
1491693727566,1,-33,-26,11,-29,-30,50,0,-22
1491693727567,2,31,-43,-27,51,-16,-29,78,64
1491693727567,2,10,49,-66,-75,56,122,9,-8
1491693727568,3,-75,-42,-128,-41,-41,20,-54,1
1491693727568,3,23,10,10,40,55,-20,38,47
1491693727661,0,-12,36,-43,-111,118,-23,-70,-77
1491693727661,0,19,-78,-27,35,28,-23,-22,14
1491693727663,1,-19,8,59,-58,41,4,-38,-38
1491693727663,1,-28,19,79,115,-7,26,21,-25
1491693727664,3,-32,14,-13,-21,-61,94,-13,-41
1491693727664,3,45,110,54,-47,-88,51,-24,32
1491693727666,0,-18,-61,-105,93,-127,-15,-67,-27
1491693727666,0,-36,-84,-69,-90,-128,-97,-73,-68
1491693727694,1,0,33,125,-24,-21,2,63,-71
1491693727694,1,-9,1,17,-102,55,-38,-38,62
1491693727695,2,26,83,127,-128,127,59,18,17
1491693727695,2,5,-28,-59,78,127,14,-6,13
1491693727696,0,-13,40,38,-51,61,108,-48,-22
1491693727696,0,31,-29,-59,-36,-100,25,34,28
1491693727726,1,-46,5,98,22,107,90,29,-2
1491693727726,1,28,-18,-128,127,-128,41,-79,-37
1491693727728,2,-17,-12,7,-48,-73,-49,6,-20
1491693727728,2,-46,-13,116,-97,122,83,32,-43
1491693727729,3,112,50,-46,-128,15,-128,-76,83
1491693727729,3,-78,0,4,-102,64,31,47,-9
1491693727730,0,29,-39,-21,19,103,113,29,19
1491693727730,0,12,80,-52,-54,-128,-128,13,-9
1491693727759,1,-45,50,107,108,88,51,-4,-11
1491693727759,1,24,-37,-115,56,-66,29,82,16
1491693727760,2,-11,-84,-51,66,-109,-98,-116,-32
1491693727760,2,14,-7,85,96,16,-45,46,35
1491693727761,3,-13,28,-3,-56,-56,-3,-3,-21
1491693727761,3,-2,24,96,-13,127,12,-30,-1
1491693727762,0,-2,24,127,-9,55,-16,35,8
1491693727762,0,40,60,-86,16,-55,50,20,80
1491693727824,1,-12,2,-9,35,-60,-103,-36,-48
1491693727824,1,3,-41,43,-27,96,-7,11,-3
1491693727826,2,-22,-58,-124,-128,-128,-43,-4,-27
1491693727826,2,-21,-5,56,54,127,52,-21,1
1491693727827,3,45,53,55,2,-81,-78,81,39
1491693727827,3,-34,1,-15,-58,51,47,-12,1
1491693727828,0,-56,-73,-62,105,-49,-50,16,-42
1491693727828,0,27,30,127,-22,89,86,-20,8
1491693727856,1,-28,-72,-128,66,-102,-16,-20,-20
1491693727856,1,19,52,108,-7,-10,86,29,22
1491693727858,2,53,38,64,42,116,-22,43,53
1491693727858,2,-45,-55,-10,-118,-90,12,-66,-66
1491693727860,3,-25,-37,-81,-99,103,16,10,-28
1491693727860,3,18,29,62,31,28,-35,-1,46
1491693727861,1,-9,11,-20,4,29,-54,-29,7
1491693727861,1,-29,-37,-100,82,0,-50,-43,-15
1491693727889,2,-2,127,127,14,127,70,65,37
1491693727889,2,-49,-92,-114,35,-108,-128,-16,-47
1491693727891,3,6,30,38,-96,11,64,-77,-11
1491693727891,3,-1,-17,38,54,66,-30,-16,7
1491693727893,0,23,52,31,89,-80,-29,33,3
1491693727893,0,3,15,24,102,17,-35,-21,9
1491693727894,1,4,-37,-41,-39,94,45,-21,-1
1491693727894,1,-15,22,69,68,-70,56,27,-34
1491693727921,2,9,-14,-88,-128,51,57,-17,-26
1491693727921,2,29,77,80,-55,-63,43,20,14
1491693727923,3,42,-41,26,41,-128,-114,-22,20
1491693727923,3,-54,21,35,15,106,17,-13,-38
1491693727924,0,35,-42,65,-47,122,103,35,47
1491693727924,0,-63,-89,-119,-49,-107,-112,-43,-11
1491693727925,1,-47,3,127,-15,53,47,-4,-91
1491693727925,1,54,77,41,43,49,43,83,71
1491693727953,2,-39,-95,-93,-81,-128,-8,-87,-61
1491693727953,2,-44,33,65,18,10,74,-3,-23
1491693727955,3,26,27,81,33,50,-29,-8,87
1491693727955,3,-11,16,53,-117,54,22,53,-7
1491693727956,0,-18,5,-40,84,-66,-20,-26,-5
1491693727956,0,19,27,118,45,117,46,7,9
1491693728018,1,-16,52,-64,31,21,-39,86,14
1491693728018,1,-16,-71,-97,-111,-111,0,-75,-34
1491693728020,2,-2,9,32,-78,-12,65,51,18
1491693728020,2,-42,29,18,48,-80,-46,29,-8
1491693728022,3,-4,-18,-43,45,-20,-32,-31,-48
1491693728022,3,42,-81,-68,31,-4,28,63,22
1491693728023,0,-38,28,-48,-68,48,-117,-85,-23
1491693728023,0,92,-53,30,100,-52,-13,-7,18
1491693728051,1,0,64,127,127,-7,101,53,21
1491693728051,1,-55,-117,-128,-45,-16,-74,-26,-33
1491693728053,2,-20,-18,88,-48,-18,-38,-10,9
1491693728053,2,-17,95,71,-1,127,127,-14,-10
1491693728054,0,79,63,3,74,21,103,57,62
1491693728054,0,4,99,59,-33,123,56,13,64
1491693728055,1,-38,-112,-128,-95,-58,-38,-47,-35
1491693728055,1,-95,-25,19,-70,-128,27,-46,-79
1491693728084,2,31,79,117,-28,112,65,-11,-3
1491693728084,2,9,13,81,96,-109,-75,-26,22
1491693728085,3,-12,65,20,67,127,97,26,9
1491693728085,3,25,27,127,64,121,-15,6,51
1491693728086,0,0,-68,-117,-51,-117,-102,-23,-83
1491693728086,0,107,31,59,-5,127,106,20,41
1491693728087,1,-19,-72,-27,-21,44,89,81,-3
1491693728087,1,-28,-62,-122,-119,-105,-128,-105,35
1491693728116,2,-38,34,39,84,69,127,-15,-74
1491693728116,2,44,5,53,-90,39,52,66,57
1491693728118,3,-13,-36,-101,127,-99,-89,-69,-7
1491693728118,3,34,55,51,35,127,14,60,34
1491693728119,0,53,-60,-12,-42,-38,56,-23,49
1491693728119,0,-84,-16,-67,-118,-68,-112,-36,-97
1491693728120,1,69,67,49,-125,75,24,8,37
1491693728120,1,5,-69,-111,23,-51,-49,21,11
1491693728149,2,-41,57,127,1,125,-2,83,23
1491693728149,2,54,-76,-128,-1,-114,-4,-18,0
1491693728151,3,-85,-9,95,33,118,77,-57,-57
1491693728151,3,52,9,92,10,81,85,67,29
1491693728152,0,-46,58,117,21,-25,-83,-43,-8
1491693728152,0,-9,42,22,22,-19,85,33,66
1491693728181,1,-62,-101,-119,-61,-128,-14,-108,-49
1491693728181,1,18,21,123,-28,33,-28,-42,-34
1491693728183,2,48,43,84,49,95,48,39,-33
1491693728183,2,-115,-25,-95,-76,-85,-15,-27,-62
1491693728184,3,82,86,56,53,113,79,45,41
1491693728184,3,18,-17,-124,3,-51,82,-7,-5
1491693728246,0,-32,-62,-110,-87,-96,-106,-34,-55
1491693728246,0,-57,-48,46,127,127,55,30,-26
1491693728247,1,-28,6,66,-97,28,7,-34,-20
1491693728247,1,40,48,-45,23,-88,-47,-18,-15
1491693728247,2,-1,55,12,62,61,85,88,105
1491693728247,2,12,-3,30,-93,122,119,-27,-25
1491693728248,3,21,-18,-17,95,-96,-127,-10,-6
1491693728248,3,-39,-47,-35,48,31,116,-6,-42
1491693728344,0,8,-36,-77,10,11,-77,-69,22
1491693728344,0,-54,-19,-52,51,-33,-128,-59,-74
1491693728408,1,82,115,127,3,127,121,85,84
1491693728408,1,48,-8,-75,116,-118,-97,51,61
1491693728409,3,35,14,70,45,45,1,-9,-76
1491693728409,3,63,-11,-41,59,-29,-89,9,40
1491693728412,0,-92,7,32,23,121,127,21,40
1491693728412,0,39,-10,14,127,12,-128,4,-52
1491693728412,1,-87,-26,-100,-80,-108,62,-20,40
1491693728412,1,-58,-4,80,-128,66,-5,-12,-39
1491693728571,2,127,41,16,-6,-79,11,52,94
1491693728571,2,29,-22,-82,6,-93,26,71,32
1491693728572,0,-33,-114,51,77,19,76,3,-49
1491693728572,0,-21,7,-61,95,69,64,57,8
1491693728572,1,51,-67,48,-56,88,-75,-64,-57
1491693728572,1,31,35,-23,-80,52,2,83,0
1491693728573,3,37,-16,-115,-20,-128,11,58,-20
1491693728573,3,-112,-53,-40,69,-125,-88,-76,-45
1491693728604,0,0,33,78,1,-111,101,26,18
1491693728604,0,17,27,-3,33,-119,7,-5,-36
1491693728604,1,-14,14,63,60,-105,17,-24,32
1491693728604,1,-5,-17,-50,-20,-72,-25,60,16
1491693728605,1,-81,-30,-52,-128,71,-96,15,-49
1491693728605,1,41,47,38,96,121,54,1,5
1491693728606,3,-40,-2,-28,-11,-66,40,-18,18
1491693728606,3,34,48,127,48,119,127,41,127
1491693728639,0,53,-33,-72,31,0,33,35,-34
1491693728639,0,-18,-4,-106,-100,-22,-109,-4,11
1491693728639,1,63,10,-6,-70,-11,57,-59,-46
1491693728639,1,5,19,99,127,-57,-125,-14,31
1491693728669,2,-114,-54,16,-6,51,76,-31,-62
1491693728669,2,22,-7,-19,-93,-58,-115,-107,-49
1491693728669,3,83,-27,-85,25,127,-70,-30,65
1491693728669,3,-46,-26,-81,-112,4,19,35,-23
1491693728670,0,50,32,101,38,-27,-39,-7,38
