1490822113161,36,-13,-57,-66,36,-25,-65,-71,-112,72,85,104,94,75,79,51
1490822113209,54,3,-1,-116,-29,113,53,43,11,-11,-17,-46,-94,-66,-37,-44
1490822113210,5,35,4,110,-31,18,-47,57,56,-19,-11,-94,-92,-61,-56,6
1490822113259,44,-57,27,-102,-122,-94,-19,10,-13,-4,-20,57,56,95,39,-18
1490822113307,-2,-6,19,-21,4,11,25,10,13,19,17,-60,-22,-68,-69,-48
1490822113356,-17,5,75,3,45,-55,-32,-5,8,10,42,104,107,100,6,22
1490822113405,0,-45,-118,-23,-54,-104,-105,-24,-35,6,4,-87,-105,-128,45,13
1490822113453,-32,-5,-80,46,-22,-69,-29,-31,-1,-12,81,-11,4,100,-33,-4
1490822113454,-17,14,54,56,75,-61,50,-50,18,6,-57,-1,38,67,77,27
1490822113502,12,-15,25,16,-9,31,-11,-46,-14,45,48,66,84,63,40,49
1490822113551,-11,-5,8,-111,-77,-58,-8,-43,10,20,-45,45,-33,39,22,31
1490822113600,-14,4,83,127,118,65,-41,33,-8,-1,-26,-128,-127,13,93,-21
1490822113648,-27,3,73,68,112,127,68,6,18,-14,-85,-116,-125,-7,2,-1
1490822113649,-24,-4,45,-9,43,-7,-29,4,82,-17,-36,-128,-66,-22,45,-4
1490822113697,-8,1,5,-80,-128,-23,5,-12,34,-21,-1,21,40,26,-11,11
1490822113746,-19,-26,-30,41,-17,16,4,-3,14,9,52,-55,12,6,-19,-8
1490822113795,21,-45,-85,35,34,-6,-10,-8,-12,100,75,70,52,60,27,0
1490822113843,-35,58,56,3,20,8,3,-5,-46,-17,-38,-73,-60,-9,-11,5
1490822113891,28,-9,28,-62,-17,27,-18,-20,-20,-71,-15,48,19,42,2,-22
1490822113893,-91,55,-42,-115,-21,-9,-9,-30,-55,-11,17,23,5,-22,-19,-46
1490822113941,53,46,20,5,22,-61,-13,7,-33,59,-23,66,57,-70,-32,18
1490822113991,-3,-1,-8,95,28,8,75,-44,50,37,-4,-73,-50,10,27,-69
1490822114038,45,4,65,115,45,97,103,26,20,20,40,64,-27,12,44,10
1490822114087,22,-7,-86,-78,-19,11,-1,-28,-5,3,37,121,113,127,15,-14
1490822114088,15,-22,16,37,8,19,-39,-7,10,-43,-30,-105,-84,-29,-28,72
1490822114136,13,-3,-86,-74,-12,1,16,-1,-7,3,25,42,-8,-28,-13,-79
1490822114185,12,-25,9,11,-52,-31,-22,25,0,1,-14,19,43,6,-9,-6
1490822114233,4,-20,-31,-21,22,13,2,22,0,12,-14,-24,-26,-23,-13,-11
1490822114282,11,10,4,21,11,6,-6,-18,7,-4,-8,17,15,4,0,7
1490822114330,-2,-2,-30,-1,-2,1,11,10,-21,16,26,30,7,20,-3,-9
1490822114331,-17,30,26,-17,-15,-1,7,6,-21,7,21,14,20,7,-4,-37
1490822114428,-56,25,-1,-18,-15,-16,-7,-9,-23,-18,-25,-10,-12,33,1,22
1490822114429,8,17,-5,-14,-19,-25,-24,-24,33,47,0,-11,-10,-1,-5,-10
1490822114477,-14,-38,44,57,44,48,21,19,-8,13,-23,-51,-45,-43,-37,-45
1490822114526,11,36,-16,-13,5,-11,-16,26,-22,7,35,45,5,-5,23,-20
1490822114574,76,9,-22,-22,2,14,28,8,-19,-45,-1,1,3,20,29,14
1490822114575,-106,41,12,18,-18,-12,13,-20,-19,-21,-5,-3,21,6,32,30
1490822114623,5,-12,5,21,20,39,38,40,-41,-20,0,-34,-9,50,-13,-24
1490822114672,50,-7,25,10,2,-5,-8,35,-61,-15,-28,27,41,69,20,-34
1490822114721,-6,-26,1,50,39,74,2,-19,-17,-20,12,17,69,56,-16,-11
1490822114769,8,3,-35,17,-56,-126,-60,-29,34,2,41,-5,53,117,86,28
1490822114770,-3,0,-2,-18,-29,-14,-16,35,33,-10,8,19,-11,27,-10,-15
1490822114818,-27,-30,-22,-56,-39,-18,-63,-12,31,-22,-27,-103,-67,-29,6,-21
1490822114868,-10,-17,15,77,61,47,67,44,44,-15,-16,-42,-65,-64,-1,-22
1490822114916,7,35,7,37,9,-3,-32,-7,-34,38,3,3,-32,-27,-26,-28
1490822114965,-14,19,-10,-12,-6,-11,-1,-16,7,7,48,60,-6,-55,-6,5
1490822115013,24,15,23,-18,-2,-93,-119,-28,-3,-36,1,2,64,74,48,7
1490822115061,36,-44,-42,-27,-60,4,-84,-24,17,4,-8,-4,-37,-16,46,5
1490822115063,2,17,44,88,81,38,56,27,-42,-21,-27,42,80,50,11,-14
1490822115111,16,-18,-19,9,38,68,27,6,-3,-20,3,52,35,-49,5,-20
1490822115160,49,11,10,24,48,-53,3,7,37,29,22,-11,-10,-54,-44,1
1490822115208,30,38,5,0,-57,-73,-48,2,11,10,32,6,17,24,43,8
1490822115256,-27,-13,-22,-1,-26,-10,-40,-11,4,48,4,-24,-21,-19,3,29
1490822115259,16,-12,14,7,62,37,23,27,37,-14,-22,12,46,-13,-33,-38
1490822115306,-7,3,-4,30,21,-7,0,1,115,15,8,1,7,-31,15,16
1490822115355,-40,14,3,-11,-14,-3,0,-31,-20,-3,-5,12,-11,47,38,31
1490822115403,-2,-10,-9,2,-55,-6,-23,8,29,-5,-1,11,-13,12,9,13
1490822115451,-2,-1,-3,-19,-3,-11,-25,-15,-31,-4,-3,-19,-19,-27,6,13
1490822115453,-27,1,15,16,-43,33,26,3,-16,-11,-3,4,-86,0,12,-20
1490822115501,-22,-30,3,11,-11,-27,64,-23,84,37,11,-8,14,59,33,24
1490822115550,-1,-9,14,2,84,24,61,39,23,4,2,38,66,-33,-44,6
1490822115598,-68,-37,-27,-5,-95,-115,-47,-15,-25,-12,-15,-87,-28,96,54,12
1490822115647,-2,-29,-32,-5,3,88,65,-35,35,-11,-18,-69,-4,105,23,16
1490822115695,22,0,15,51,-48,-51,63,29,-23,14,-33,-71,-50,-18,-85,-47
1490822115696,-1,-21,-49,-90,-12,127,57,24,34,-1,8,21,38,-109,-128,14
1490822115745,-25,38,46,72,127,127,-34,66,-31,30,43,0,-16,-108,47,-8
1490822115793,2,14,23,104,127,74,-55,-50,-18,-5,-30,71,34,40,42,38
1490822115842,-49,-27,-20,65,110,-69,-128,4,-59,-29,48,-12,-104,20,52,-61
1490822115891,-16,16,8,49,-30,88,42,16,41,-4,-23,-128,-77,-13,2,-13
1490822115939,-43,-28,-77,-2,30,65,-18,14,15,9,14,2,-23,10,8,-4
1490822115940,13,-8,1,-121,-53,7,23,11,-6,22,6,52,103,77,79,77
1490822115988,-81,23,74,66,-23,-24,2,-71,-9,-18,-38,47,-64,-61,-46,-31
1490822116037,-1,-10,-6,95,106,96,-23,43,54,7,76,-87,-59,-30,64,1
1490822116086,15,-14,-58,-128,-128,-121,-17,-45,8,8,-82,2,-41,-71,-116,-2
1490822116134,20,-3,3,-128,-128,-128,-15,-5,1,-29,-101,-51,31,127,71,-19
1490822116137,-26,-33,-44,12,57,34,-50,-8,28,-10,-45,-53,-90,-86,-14,-18
1490822116183,32,10,60,7,-72,-79,-17,3,-9,-8,16,0,74,82,-9,3
1490822116232,41,-28,-9,62,-37,-85,60,-34,-3,18,67,127,81,-47,-61,-8
1490822116283,-48,20,108,-31,127,77,20,-4,-72,16,6,78,69,45,97,34
1490822116329,-25,2,-81,-128,-56,12,-67,3,-11,-52,-12,26,9,-28,2,-15
1490822116378,12,0,59,126,-66,-7,36,23,6,-21,-101,-128,-104,-104,-44,-7
1490822116379,40,7,31,16,-76,-38,26,18,-22,18,31,123,103,93,14,39
1490822116427,-41,5,12,-38,-52,-67,-69,-15,-20,-10,-22,-100,-72,-67,-36,-13
1490822116477,-8,42,48,127,127,50,38,1,-21,64,127,127,127,77,22,17
1490822116524,29,-79,-97,-111,-70,-80,-58,-15,-2,-66,20,-50,-68,-27,-15,-11
1490822116573,20,4,-6,-22,14,31,21,-4,44,109,-47,-95,-116,-81,-36,-18
1490822116621,-8,-19,-116,-125,-98,-47,-16,-25,-8,0,70,92,47,29,12,15
1490822116623,2,-128,23,43,-54,-25,-3,-31,-7,-60,-9,81,28,25,14,-20
1490822116672,34,29,73,59,44,43,21,-7,15,4,42,-58,-88,-13,-31,8
1490822116722,-6,46,-76,-83,63,-38,-16,-13,-15,-14,11,80,127,69,13,-12
1490822116768,-7,73,60,82,-31,37,18,-16,10,50,-56,-128,-128,-122,-36,-35
1490822116816,15,-25,-83,10,-69,-94,127,40,6,-50,67,-39,-100,-56,63,17
1490822116818,9,-41,12,-64,-32,-16,-77,19,-4,4,-13,13,1,8,-43,46
1490822116867,-7,-34,-22,-51,-2,-2,57,-66,9,-20,-21,12,9,9,72,1
1490822116915,-3,18,4,-18,-4,17,9,3,40,-25,35,22,8,18,-2,20
1490822116963,-14,31,59,-21,37,-17,-17,-18,-24,-46,6,-6,51,5,0,-4
1490822117012,-68,0,-20,9,-53,12,3,-3,-60,51,7,-23,-46,10,6,-3
1490822117060,-24,102,8,-6,-17,-21,-30,-16,7,68,-15,23,9,-4,-17,-13
1490822117062,46,7,-9,10,10,0,-19,-34,64,55,41,7,27,-9,2,-1
1490822117110,-37,10,-13,-35,-12,5,6,4,-11,-36,-5,4,6,15,-10,-26
1490822117159,1,62,-8,-23,-7,-15,17,4,-29,31,8,-2,5,15,25,-18
1490822117208,5,29,13,-64,-60,-20,-31,-16,-48,-8,-30,-2,-20,-57,-2,41
1490822117256,30,-9,25,-19,12,16,8,9,-34,57,37,43,36,12,-6,11
1490822117257,-40,-34,-22,98,-1,-61,-14,-11,61,-13,6,-94,-41,16,-34,-39
1490822117305,-27,-17,-23,-54,-30,-47,-46,-19,6,-53,-57,-87,-53,32,52,19
1490822117353,41,-18,-26,-116,-106,-77,6,8,-16,-21,-18,-35,-74,-26,-49,0
1490822117402,-49,24,37,6,2,2,-29,-56,-34,11,0,26,35,24,1,-11
1490822117452,38,-69,-5,27,12,28,10,2,-15,-16,0,23,44,37,-6,-1
1490822117500,5,7,-21,-62,-15,-21,-8,-15,97,-5,7,-47,-48,-76,-11,14
1490822117503,42,12,6,9,-14,9,-58,3,1,-9,7,-30,-22,21,29,59
1490822117548,-20,-10,-34,-14,-7,76,51,-13,-58,-21,13,44,54,-27,-76,-55
1490822117597,-2,26,48,2,-66,-86,-70,-23,31,-9,-27,-57,-50,22,4,12
1490822117648,23,11,28,29,-40,-99,-59,-58,7,10,-6,-44,24,24,107,93
1490822117744,22,-85,4,-92,-64,-85,-95,-24,33,-40,-17,-45,-26,33,24,19
1490822117747,-6,-1,10,8,-14,-22,-6,10,19,-4,3,14,11,12,5,28
1490822117749,8,36,-20,-4,-28,-47,-21,-8,12,8,-23,19,-1,15,4,-13
1490822117793,94,-6,-49,-47,-45,-63,-22,-10,8,20,-22,-24,-29,26,8,-10
1490822117841,-46,-8,3,-19,69,17,-27,1,-23,-6,-27,3,42,-10,0,32
1490822117889,1,23,5,9,0,66,52,8,-26,-10,-31,-34,-50,-39,-46,-41
1490822117938,-3,13,-7,-10,-26,-21,16,-6,4,9,-4,4,-50,-15,-12,2
1490822117939,-26,-10,9,-48,-1,14,8,-3,11,-9,17,7,-1,-49,-8,18
1490822117987,-77,20,6,8,8,-44,-58,7,-40,-7,-15,1,3,-56,8,15
1490822118036,70,17,10,20,-11,-24,-10,-3,-24,-10,1,5,0,12,-25,-50
1490822118085,-54,-8,9,14,-5,11,10,7,-19,5,9,-13,-13,-29,-10,1
1490822118134,-23,5,6,-4,-5,-55,0,17,-72,-2,4,-8,1,-69,-20,-1
1490822118190,38,4,-19,3,-17,-51,-24,-22,39,-8,10,19,-6,71,67,-31
1490822118193,-78,0,17,14,47,52,48,24,11,-1,8,26,-17,19,90,43
1490822118231,70,-3,-17,-46,-1,56,62,34,33,39,22,31,76,43,-16,-33
1490822118279,-113,-39,14,127,34,-123,-84,-53,82,22,34,1,-71,7,-18,44
1490822118328,25,23,36,-4,-90,51,75,47,18,1,1,62,-2,-128,-62,-54
1490822118377,0,5,-24,-66,-78,-128,-53,-33,-23,15,-6,-128,-76,-84,-84,-12
1490822118425,-29,35,15,-65,116,94,71,37,-68,-34,-8,100,127,-38,-52,20
1490822118427,104,27,-80,-128,-116,18,-128,-7,7,26,30,-50,16,38,63,-4
1490822118477,1,18,92,-49,-116,-14,-78,0,-46,-38,-87,-91,-2,33,105,-30
1490822118523,-69,-71,-44,15,70,70,68,14,17,35,35,-90,-75,76,-79,-37
1490822118572,-22,10,29,127,-14,-46,48,7,56,-5,-32,36,-26,-56,15,45
1490822118620,26,-64,-67,24,50,36,24,-14,50,34,70,13,-52,-85,33,-3
1490822118622,54,-33,-84,-79,-74,-78,-13,11,21,-8,36,111,29,27,60,17
1490822118670,-42,81,87,-95,17,52,41,9,-43,-4,-56,55,81,37,91,20
1490822118719,-4,1,84,41,14,-83,-37,-34,14,4,-4,25,-88,-39,-73,24
1490822118767,-7,-11,-90,-3,-9,62,4,-5,-33,-13,-43,-19,17,-89,18,-23
1490822118816,2,7,-5,-29,-105,-73,-49,-30,69,15,-27,-128,-100,-46,-28,8
1490822118864,-45,-1,13,85,95,68,-70,-6,-19,14,37,60,13,27,91,12
1490822118865,-12,25,27,127,127,72,31,-3,-21,6,16,-128,-38,-20,1,-3
1490822118962,-81,25,85,27,78,92,88,41,-47,20,-30,-37,-21,65,2,31
1490822118963,17,4,-56,13,-78,-13,49,46,-48,8,106,120,76,12,27,4
1490822119011,17,-5,20,-13,-1,-17,13,-3,-10,43,73,28,111,67,35,26
1490822119060,28,-16,-40,-37,-47,-6,-1,-19,-23,-13,1,31,7,20,11,-5
1490822119108,12,-49,-8,-34,24,-16,1,9,-38,-53,-58,52,16,10,-2,-7
1490822119112,32,-18,-24,-73,0,2,22,17,39,-40,-30,6,6,-3,-5,-6
1490822119157,26,-18,25,-61,-73,-32,-6,10,-9,28,4,53,42,15,-3,-20
1490822119206,-45,-62,-59,79,10,7,5,-6,-17,-29,15,9,2,19,8,0
1490822119255,16,57,15,12,25,5,-1,9,5,38,17,-96,-16,-13,-3,-7
1490822119303,-18,9,-18,37,-16,-24,-11,-16,0,104,45,45,-18,43,10,5
1490822119306,0,-92,-25,-30,-15,8,5,-1,6,-128,-12,-4,-48,-32,-17,-20
1490822119352,11,-46,49,36,46,9,5,12,3,-3,1,5,19,6,-1,-42
1490822119401,-2,24,-4,7,0,1,2,33,59,20,-24,23,8,-2,10,6
1490822119450,10,23,25,-7,10,17,8,18,-18,4,64,-6,-7,-3,7,13
1490822119498,26,-5,34,-4,49,-11,-11,16,-25,29,-20,-11,25,5,-3,9
1490822119546,-43,-67,5,-12,-8,10,-4,-8,40,14,14,27,15,5,8,-5
1490822119548,-49,-59,-2,-3,-17,-10,-2,-2,47,-45,-2,10,-6,3,-6,0
1490822119596,39,65,-22,4,-13,-6,-13,-11,30,43,22,5,13,1,6,10
1490822119645,-124,-40,-19,-21,-16,19,10,-5,-25,-64,19,21,-16,-47,-43,-11
1490822119693,52,-46,-12,-71,-61,-28,-39,-1,-3,-58,2,-3,-33,-34,6,-31
1490822119742,-128,14,19,42,47,61,7,32,-39,-3,10,27,-9,7,6,6
1490822119745,15,6,-29,7,-24,-21,-3,29,-45,32,51,46,58,84,-11,-10
1490822119792,-20,-11,-16,34,-20,35,-8,-9,-41,47,8,-12,54,34,10,-11
1490822119840,22,3,14,-5,1,33,-5,-10,-5,-41,-8,19,-22,-61,-52,2
1490822119889,-49,17,25,80,66,34,-51,57,27,-28,1,19,23,46,53,-34
1490822119937,2,-8,-8,38,-19,-66,52,-18,21,33,-10,28,38,-51,-80,33
1490822119985,48,2,22,-4,-5,31,17,-26,-57,-43,6,25,9,18,-34,-41
1490822119986,-24,-3,-10,3,-3,6,-19,6,49,17,25,19,31,43,34,33
1490822120035,3,12,0,-5,-41,-102,-34,-51,-29,6,-5,4,6,-10,31,20
1490822120084,7,5,-13,-78,-52,-10,-57,-49,42,-15,-4,0,47,32,43,63
1490822120132,-1,16,-16,6,-93,-120,-64,22,-62,30,16,0,-17,70,-26,-5
1490822120181,-2,15,-4,-53,-25,-13,-2,30,-22,-16,-8,-14,-10,22,86,4
1490822120229,21,-2,-36,-7,15,-8,-61,-8,-26,22,-36,39,34,-28,-25,1
1490822120232,9,-43,25,-5,20,7,-1,12,10,-7,-13,8,-6,-56,-9,-17
1490822120279,-22,13,-6,25,-24,-17,-31,-42,16,-4,-15,12,-11,-11,6,27
1490822120327,30,3,25,-42,14,-64,-50,27,-49,-8,21,-103,42,-71,-36,-58
1490822120376,12,9,47,14,4,24,18,-6,49,-1,26,4,-31,-47,-32,-3
1490822120424,3,11,16,-39,-21,-15,8,-11,-50,-1,-21,-5,6,-8,-5,-23
1490822120425,-19,-19,-17,-38,-101,-32,-8,-3,-90,2,25,38,-32,35,27,10
1490822120474,49,-1,-6,-68,28,-2,-22,6,0,7,-1,-7,18,-48,41,-5
1490822120523,127,11,16,-34,-5,31,-4,8,123,-11,-14,-19,-14,8,-5,-2
1490822120571,57,-5,-37,13,-10,-82,-31,18,41,-19,-20,-17,-16,-8,-66,-2
1490822120620,-23,-10,-4,-25,-9,32,-87,-42,-53,7,-1,5,-8,-39,80,30
1490822120668,-35,1,-7,19,-8,7,76,49,-10,-18,-4,25,22,-83,-17,-25
1490822120669,-41,4,-16,-40,49,111,61,53,106,-25,3,56,67,109,64,20
1490822120717,-40,16,23,64,-22,-66,-86,-73,-78,-2,-3,-11,-21,-40,61,17
1490822120766,117,-25,1,97,108,-76,-14,0,47,16,26,34,-29,61,-77,-20
1490822120815,-30,-28,7,-49,-115,-11,108,3,15,48,-7,14,97,-30,-52,-4
1490822120863,-27,4,-35,-60,-84,-107,56,-57,-25,-26,21,30,-71,-128,-107,-114
1490822120912,10,-20,39,22,-76,-76,-70,29,-62,-58,-63,-71,45,124,110,5
1490822120913,-23,17,37,118,98,99,87,17,-49,-10,-12,94,6,-108,-31,11
1490822120961,-63,-1,-35,-66,-69,-46,-125,-85,-2,47,38,31,51,-24,38,15
1490822121010,9,56,-12,-106,-113,-14,-58,-7,-66,-26,-66,69,-28,34,95,29
1490822121058,16,-41,18,113,-22,-43,40,-55,17,46,98,-124,-23,127,18,47
1490822121107,-66,-52,-65,-64,-128,29,6,-26,53,32,34,42,70,47,-55,18
1490822121109,-24,-24,-20,52,23,127,45,58,21,55,59,31,-56,-38,-74,-19
1490822121156,-19,42,27,67,14,2,-32,44,-4,6,-5,1,127,22,-21,39
1490822121205,54,6,-25,61,-3,-36,7,11,-45,0,68,2,49,39,13,-25
1490822121253,16,22,41,44,79,40,-50,-19,-71,-29,-102,-38,-1,29,-28,-6
1490822121302,61,14,17,106,-2,-42,-47,-3,-32,-36,-44,8,-16,4,-48,-37
1490822121350,34,-32,12,-107,-128,-85,-47,-32,42,-10,-7,71,74,40,-15,-17
1490822121353,4,6,-8,-64,-24,-12,0,-5,26,-32,-23,-128,-99,-55,-18,10
1490822121400,-14,-30,-19,27,-56,-66,-31,-7,-28,-17,-53,29,54,28,7,9
1490822121448,6,51,80,75,100,45,30,29,-15,34,-18,-27,18,-43,-21,-20
1490822121497,-17,-18,-58,-122,-95,-6,-1,-2,48,-31,-53,40,-60,-24,-14,-12
1490822121546,-22,-10,-3,-128,-80,-19,6,8,-56,-7,-29,-59,-66,-39,-16,-30
1490822121594,-8,-68,-22,-6,4,9,1,-18,98,-33,50,-1,33,25,14,12
1490822121596,-26,29,34,117,102,38,24,-17,-16,2,-15,52,-17,-22,-4,-4
1490822121643,-2,-42,-11,41,26,-1,1,-10,6,24,-8,-23,-8,-14,11,25
1490822121692,-1,48,84,-62,-54,-39,-19,-37,-2,-44,49,66,28,-13,2,24
1490822121741,-1,-23,-19,-38,-14,-6,-3,1,1,20,-31,-23,4,24,6,5
1490822121789,6,-43,-27,-22,-9,-15,-4,41,1,-84,-34,30,-8,9,5,-3
1490822121791,6,-70,-1,-37,-9,-23,-6,-9,-1,51,40,83,41,11,11,-3
1490822121839,-1,-40,-15,-63,-16,-4,-14,9,-4,-34,-12,57,11,20,9,16
1490822121887,-6,70,34,49,-5,-8,4,-23,6,38,-56,53,-3,-2,5,28
1490822121936,0,48,-8,-30,1,-5,0,4,-1,18,-2,-41,-10,-3,-12,-12
1490822121985,13,39,20,31,9,1,-5,15,-10,-7,24,14,9,-9,-2,-7
1490822122033,-32,-41,20,6,9,9,14,-2,-86,4,-14,-7,-2,0,1,13
1490822122035,20,-27,-14,-4,-3,3,1,-7,36,-114,-23,2,-4,11,5,-1
1490822122082,-57,71,1,-3,-14,-1,-4,1,-128,-36,-11,-4,-13,2,-2,2
1490822122131,125,26,1,-8,3,-3,9,6,58,82,7,-8,-19,-34,-51,-5
1490822122180,48,-51,-19,-18,-1,-3,-9,9,-39,-78,-4,13,20,14,7,3
1490822122229,-7,-28,-32,-82,-99,-104,-31,2,-35,58,12,-1,12,72,86,-3
1490822122277,-118,-55,-16,-111,-53,-60,-33,-32,2,-15,-7,19,-43,15,40,5
1490822122279,-5,-24,-14,-18,-50,39,25,13,86,3,-6,32,29,-51,-41,-13
1490822122326,-38,-27,-3,1,33,-8,-15,-3,-16,-4,34,86,51,6,-14,25
1490822122375,-11,8,-2,-14,37,91,22,20,74,-5,-4,-28,-32,-95,-37,-5
1490822122425,-77,11,12,12,-3,8,-35,1,12,8,-1,24,5,-70,38,-7
1490822122473,53,36,0,28,-12,-17,61,-10,79,20,-12,-57,-16,-32,-69,-9
1490822122476,-56,-38,-5,-8,-26,-80,-14,-14,-18,-17,8,9,14,-28,-12,-5
1490822122521,17,5,-12,-12,63,113,75,-32,21,12,33,38,34,-72,-24,8
1490822122569,-20,13,15,-48,-10,-44,4,4,-4,2,5,-15,12,3,-18,-26
1490822122618,0,2,-14,29,-6,-55,-9,26,53,14,23,9,23,55,67,1
1490822122670,15,-13,18,59,-35,-122,-42,-24,-17,-9,-9,-24,-31,14,-4,34
1490822122716,1,-23,-14,-9,15,6,-1,10,17,7,-17,-48,-33,10,-7,37
1490822122718,4,27,5,26,2,-35,-27,-6,9,-22,4,54,14,46,-18,-8
1490822122765,4,10,0,-15,-65,-8,5,4,-14,2,-28,42,-21,-16,26,-21
1490822122813,-24,-22,-44,-24,13,19,19,-17,3,41,26,1,44,82,-8,-12
1490822122862,-8,0,-17,-14,1,-58,-31,3,-1,-4,2,4,0,7,-11,-10
1490822122911,31,-16,-12,19,5,-59,-21,14,23,-24,-9,1,3,25,24,0
1490822122913,-5,15,-3,-15,-6,4,-10,22,36,-9,-2,0,-2,10,28,13
1490822122960,31,-1,2,-9,-4,37,-20,-21,4,3,5,-1,-22,-13,8,12
1490822123009,-37,2,-10,6,-9,-14,-15,5,-60,-22,-15,-24,-4,-20,-15,-29
1490822123057,40,9,-2,-11,-10,-45,-4,-7,39,21,9,1,15,-58,-13,28
1490822123106,42,6,7,36,12,6,-26,31,38,1,23,22,8,27,-36,-30
1490822123154,27,20,9,-3,-12,22,-7,0,4,-9,-6,3,1,38,-35,-8
1490822123156,2,17,10,11,34,33,-104,-25,15,-17,-9,-28,-32,-120,-2,-18
1490822123203,-85,-24,-29,26,3,-1,59,-9,-26,3,21,-58,-69,-60,-52,-57
1490822123252,48,24,23,60,55,-63,-25,10,84,22,7,79,106,95,4,54
1490822123300,-114,-29,-19,-117,-72,9,2,62,-111,-17,-9,80,-43,-18,30,-69
1490822123349,-35,9,-10,-54,-14,3,55,-35,-72,-29,4,48,32,74,-11,-63
1490822123397,41,-16,7,-84,-85,10,69,1,-33,-1,-4,79,117,-59,-29,-14
1490822123398,-36,-37,2,11,-52,20,64,-12,68,20,5,-114,-75,-9,6,40
1490822123447,-44,-58,-44,36,-58,-69,-39,3,43,-10,9,60,114,39,-14,33
1490822123496,13,-15,-41,47,11,49,-122,-18,21,-72,-105,-83,-126,18,105,62
1490822123546,6,60,43,127,95,-12,107,11,31,-5,-64,-68,-11,-70,-128,-57
1490822123595,-35,-21,-53,67,25,68,19,-83,-79,41,104,84,53,-29,-41,62
1490822123600,25,20,31,-128,-119,18,64,1,22,18,8,121,127,45,78,-4
1490822123644,-117,-69,-50,79,77,50,-84,-24,93,46,-45,-128,-128,-128,-99,7
1490822123691,-70,-20,-1,127,107,127,-65,-21,-29,-48,-24,-99,-72,-30,43,-34
1490822123739,6,-9,-61,-128,-109,-94,-93,-44,-34,-24,37,-45,-56,85,36,-6
1490822123788,-38,-64,-80,-73,-73,4,-22,-26,-25,-6,6,69,8,-1,53,36
1490822123836,-33,-11,-57,-74,-76,29,112,19,61,-51,-87,55,-48,-94,-50,-70
1490822123837,84,32,80,74,22,-79,-75,1,-32,2,51,127,101,22,37,17
1490822123886,-16,-15,-22,-70,-32,-5,-6,-13,61,22,83,-22,37,42,36,11
1490822123935,1,26,-7,-127,-68,-30,51,18,-58,-30,-32,71,34,-5,-50,-4
1490822123984,52,4,-74,-2,-40,-15,-11,0,-42,6,-13,-77,-100,-20,-8,-8
1490822124033,-53,-15,-33,53,-45,9,-3,-8,36,-22,-53,-69,-19,-5,-14,10
1490822124080,-12,25,-10,-5,43,74,41,38,-13,23,-4,60,-55,-53,-8,-22
1490822124083,27,-29,-44,-68,-51,-30,-10,10,-9,-7,5,31,15,17,21,30
1490822124129,-30,5,33,57,-6,4,0,-14,64,-4,-28,-57,-31,-19,-7,8
1490822124178,1,13,2,-20,5,-3,-10,8,0,-21,-2,5,5,2,5,1
1490822124227,58,-38,19,65,-4,10,-10,-6,16,-36,28,30,-8,-23,-7,3
1490822124275,-40,94,24,-68,-36,-37,-14,-3,-43,96,0,83,56,14,18,-2
1490822124276,-4,113,35,17,-9,-8,-5,17,9,26,-12,4,-19,-11,-4,-16
1490822124325,-27,64,-2,-8,-29,18,-6,-7,-6,110,52,-13,-9,19,2,0
1490822124374,10,7,-35,-26,28,-3,-4,22,5,-38,-32,-10,-25,-12,-6,2
1490822124423,0,113,15,15,10,5,5,-19,-2,37,-8,8,17,-7,3,16
1490822124471,8,34,-61,-63,-9,-10,-10,-16,7,-31,8,30,13,-5,3,1
1490822124519,-26,44,19,-3,10,10,7,-20,-25,26,15,12,2,4,1,7
1490822124520,-25,-55,10,-44,-29,-6,4,21,-112,25,-24,-8,-10,4,4,1
1490822124616,-65,76,19,-7,-6,-3,-1,-6,52,9,-11,18,-1,-1,7,-4
1490822124665,25,-45,0,5,-8,-6,-6,19,-75,-16,15,5,1,-7,-5,-8
1490822124667,-63,-28,-11,17,15,13,6,-8,-27,-7,19,-12,-3,0,5,16
1490822124715,115,18,0,-6,-5,9,12,-3,98,-58,-24,12,6,2,8,34
1490822124763,-29,-32,-13,-4,17,29,22,-22,39,-44,37,4,-47,-73,-21,-5
1490822124764,-53,28,21,9,25,24,39,19,-49,48,-13,50,46,43,28,-8
1490822124813,-39,15,20,-1,31,33,31,12,-68,-34,-2,0,-6,30,19,-1
1490822124861,34,-18,17,41,-44,-50,-51,23,-47,-6,-12,-18,-44,-4,27,3
1490822124909,-76,-4,10,1,8,7,13,-21,-2,-8,-7,29,28,-24,-4,15
1490822124957,75,4,-3,-69,-48,-5,36,25,57,-15,-23,-72,-93,-20,-76,-39
1490822124958,-42,38,17,48,57,3,28,10,7,-7,11,11,-49,-16,-13,5
1490822125007,127,-7,1,24,-43,-46,-51,5,-57,-35,-14,-103,-26,84,21,3
1490822125056,-26,15,13,63,4,-49,-47,9,-106,21,-24,-69,-47,-7,31,6
1490822125105,63,0,-21,2,-51,-27,-15,44,17,10,42,-24,37,92,-26,25
1490822125154,21,-2,16,2,127,127,46,15,14,21,4,67,-20,-126,-69,-18
1490822125202,-37,-18,-3,-84,47,83,15,-16,75,21,-6,33,56,-18,-8,70
1490822125204,56,18,2,14,-29,-103,-4,57,13,38,22,-66,12,47,28,23
1490822125251,-23,11,-15,-22,0,21,12,-24,17,20,-38,4,-40,-79,-42,-19
1490822125299,5,-33,-9,-58,-24,75,-15,-27,39,-45,-8,-61,-81,-128,18,-1
1490822125348,2,-15,-11,-37,9,38,-8,21,12,-25,-1,-102,-25,-82,-20,-14
1490822125396,13,25,-8,72,12,52,34,1,8,10,-3,51,-2,19,-5,-43
1490822125397,-14,15,39,32,19,-2,-20,9,-47,-7,-19,-28,-8,-58,-14,-59
1490822125446,-46,-3,6,12,-23,17,1,3,-6,21,13,12,-14,57,11,25
1490822125494,48,19,16,-1,8,-21,20,13,20,-18,18,-7,2,-18,7,-7
1490822125543,-122,27,-3,-32,20,-39,5,57,-79,5,21,-28,-4,-28,5,21
1490822125592,-89,-19,-19,22,2,-26,-20,1,27,7,2,24,7,-3,27,12
1490822125640,-46,35,39,-20,0,-59,1,8,-95,1,-12,15,-9,-105,8,-8
1490822125641,4,-34,15,8,2,13,-8,14,-43,0,11,21,1,48,21,2
1490822125689,102,-29,-10,13,2,-19,-7,-27,127,7,-17,-12,10,11,-18,8
1490822125738,19,-7,-19,20,6,69,19,-2,-52,7,-9,15,4,17,-22,-13
1490822125787,73,5,-2,-3,-16,-79,-66,31,-6,-19,16,8,12,49,18,-16
1490822125836,33,8,-4,7,-9,-20,21,36,-18,-12,2,-27,-14,-9,-15,34
1490822125884,-8,13,10,52,-36,89,-3,52,105,-49,-4,54,116,3,29,4
1490822125886,-98,-49,-56,-102,-20,-76,-20,-71,40,-22,-1,87,67,-17,28,73
1490822125982,-12,-32,-3,-88,-123,-6,94,1,-23,-6,-37,-104,2,72,41,38
1490822125984,39,-13,-60,-80,-18,-72,-76,-83,4,-8,-21,-114,-128,-89,42,6
1490822126031,72,-38,20,32,-50,24,-69,0,6,-13,-86,-100,-105,-128,5,-3
1490822126079,92,-9,-30,-106,-34,28,121,52,82,21,101,127,72,3,-109,-19
1490822126080,16,57,28,-38,-27,-78,-66,-64,-92,-32,-8,16,-11,67,-19,-36
1490822126128,-6,-13,30,-102,27,127,23,82,0,49,51,20,-11,32,127,-35
1490822126177,8,11,-40,-74,-103,62,127,10,80,-16,-31,64,-1,-128,-128,3
1490822126226,48,34,91,114,57,117,85,47,-41,36,86,-32,65,-52,-63,-22
1490822126274,-33,-65,-58,-48,-6,-72,-72,-14,65,-22,41,-19,-44,77,72,-6
1490822126323,70,-6,-22,-102,25,90,17,11,-28,-17,26,79,-8,-52,75,4
1490822126324,29,-13,-92,-15,-80,-90,-23,-5,-48,-2,55,99,39,-13,-28,-31
1490822126372,-93,9,108,127,95,0,67,11,38,39,2,27,22,42,-128,-20
1490822126421,10,-6,-16,-44,43,61,-28,15,58,-22,17,65,-47,-74,-34,0
1490822126469,24,-17,13,-33,-74,-44,-3,-9,34,-36,-128,-128,-37,-33,-30,-13
1490822126518,45,-8,-106,-128,-87,-117,-14,4,49,6,66,86,61,5,-3,-19
1490822126566,-17,3,8,62,93,76,65,13,6,4,4,-34,-41,-9,5,6
1490822126568,-35,-29,12,43,-49,28,28,-2,-5,-31,83,103,-9,-29,-25,-3
1490822126616,22,4,-37,-102,-90,-17,9,-9,14,-1,-74,-80,-90,-75,-6,-18
1490822126664,38,-18,-1,-68,-56,-37,-16,-14,-29,-6,-11,12,9,-4,-17,4
1490822126713,46,38,44,5,18,34,8,3,11,-8,58,30,-4,-15,5,5
1490822126761,-3,58,127,96,52,9,-4,9,-5,-6,-102,-67,-14,-26,-18,10
1490822126762,-37,3,-45,-26,-28,-15,0,25,-50,-1,61,7,-36,-26,-2,-28
1490822126811,13,-91,-45,-58,5,-7,-14,0,-74,-50,42,39,-14,22,-6,-6
1490822126860,35,11,-37,25,-2,25,0,-18,24,29,42,83,16,12,-3,28
1490822126908,-21,-83,-6,-16,-22,-35,-8,-3,-53,59,31,5,16,5,12,-6
1490822126957,-19,20,0,1,2,7,-1,-15,-37,-27,-48,43,6,-4,18,5
1490822127054,-4,54,-30,-29,-21,9,46,-13,36,-95,2,-45,-9,-3,23,-8
1490822127103,10,71,76,19,4,8,-20,-14,-6,-79,-70,-5,4,-3,-27,-9
1490822127151,3,-16,-23,-29,3,5,-5,4,-1,-15,-10,39,11,2,2,35
1490822127152,-1,38,2,21,11,6,17,44,5,21,-24,-46,-11,-4,4,-16
1490822127153,-5,-39,-41,-1,1,7,4,-8,-3,12,-1,-33,-13,-16,-6,-7
1490822127201,-78,23,18,20,5,-4,0,-16,-68,-48,-30,31,5,6,9,10
1490822127249,17,-23,21,-13,-14,2,-2,-3,87,-29,2,-6,6,3,5,-2
1490822127250,126,-16,-31,-3,-12,7,0,25,47,25,18,6,-6,3,-8,9
1490822127298,-113,24,-1,-32,-6,-5,-6,4,-100,-39,-12,4,14,7,1,14
1490822127396,-56,-99,-20,-5,12,6,8,-7,-21,-39,0,-20,-17,-15,-6,10
1490822127398,26,47,-2,-6,-18,-18,-9,3,-73,24,-4,-9,-4,1,-5,-27
1490822127445,-54,-74,21,0,8,2,-40,-23,-5,40,-1,6,36,34,9,21
1490822127449,9,9,22,33,30,83,32,-24,59,-34,9,11,-25,-60,-25,6
1490822127493,-67,25,58,64,-27,-99,-9,22,-19,-6,-68,-54,-75,-28,-13,-10
1490822127542,-68,9,-19,-20,25,70,-24,-30,-90,7,32,18,-67,-120,-9,-16
1490822127591,-98,-24,2,61,50,24,-16,-7,-124,-5,24,-18,12,10,6,10
1490822127639,94,28,-15,-49,-32,5,-15,-12,5,8,-12,9,-44,30,48,-23
1490822127689,-38,-19,29,6,60,5,-6,-12,81,-5,-22,44,17,-85,-36,2
1490822127736,-27,12,5,-3,-22,-10,15,21,-28,28,6,-7,83,44,-9,41
1490822127834,-71,-12,-27,-27,-6,1,-14,-22,74,-13,0,-8,-34,-68,9,-30
1490822127834,48,19,-15,-14,-34,2,-36,-1,-10,15,25,30,42,33,16,-21
1490822127835,1,-12,-37,43,-39,-81,-22,28,11,-32,38,-53,-87,8,-57,-2
1490822127931,25,-9,13,59,4,-7,-8,0,-5,-12,-9,-94,-66,-75,-39,-53
1490822127933,31,12,-6,-6,-11,-60,-51,11,6,6,9,-2,81,127,11,-14
1490822127934,-15,2,11,40,52,25,0,3,-3,27,-11,-38,-55,-101,-16,-12
1490822127986,17,-39,21,0,-53,38,-36,11,-4,2,-13,19,-52,-11,19,-6
1490822128029,18,58,16,44,19,-9,7,-20,9,11,8,42,-4,52,10,10
1490822128078,41,59,2,18,15,-35,-31,10,-11,39,-37,10,22,-12,3,-17
1490822128126,-80,-57,-9,50,33,32,29,-7,75,-17,-11,3,-30,-52,-57,-24
1490822128127,20,15,-21,-11,14,0,1,-5,-6,-17,42,-11,21,21,27,19
1490822128176,57,16,-4,2,-9,19,-15,-3,-28,-5,-1,3,-8,0,-6,-17
1490822128224,-46,-5,-4,-29,-20,-50,-10,-7,-128,-17,18,11,15,-13,-22,-44
1490822128275,-11,4,-22,0,3,55,1,-5,-56,11,0,35,-16,-24,-2,3
1490822128326,127,9,19,7,4,41,19,4,37,1,-25,-5,6,43,-15,12
1490822128370,-77,-20,-21,-18,-4,-86,-55,-23,46,-21,-3,-3,15,53,36,-6
1490822128419,10,-17,-7,3,-1,78,-3,22,-25,-2,-10,16,6,127,17,-33
1490822128517,-61,-3,22,17,3,54,49,45,73,11,5,13,-10,-7,-32,-7
1490822128520,35,-30,-3,1,0,15,-11,8,-35,-20,29,31,1,94,24,2
1490822128521,44,23,22,24,42,93,-47,-35,24,-14,6,-16,-58,-120,27,30
1490822128614,99,-11,24,-17,-6,36,47,-9,-120,-32,24,85,35,33,35,-6
1490822128614,-80,-18,-4,23,16,-42,18,-68,18,-32,16,86,61,-128,-52,10
1490822128615,79,-10,-63,-96,-83,-14,-22,-55,103,-53,-90,-108,-16,-47,-69,7
1490822128663,-61,-13,-33,-66,-66,-112,30,-39,-121,-46,-68,-127,-47,47,66,36
1490822128712,127,-5,22,76,102,21,69,127,-31,14,2,89,82,25,-36,-76
1490822128761,-59,-23,26,80,-59,-110,-5,-88,45,40,10,-79,17,-59,-56,5
1490822128809,-17,13,-32,125,107,75,57,-31,-1,-7,11,-45,-111,-103,-19,40
1490822128858,8,-5,-13,127,72,47,12,8,14,-35,2,-84,-78,7,5,42
1490822128907,71,-24,8,89,78,-23,37,71,-25,-20,-79,-76,-107,116,-108,-33
1490822128908,7,46,21,127,74,-65,-98,27,36,-16,7,-75,-52,-1,10,-18
1490822129004,17,38,-2,33,20,19,38,16,-67,-38,-27,46,-75,88,-56,-41
1490822129006,-41,32,42,38,20,63,60,39,47,22,61,-50,-56,-81,-101,-61
1490822129053,17,-48,41,32,36,-114,23,-56,-52,-19,-52,-99,-12,127,59,52
1490822129056,5,-34,-96,-40,-10,112,28,-38,-50,49,42,54,66,83,88,36
1490822129103,-31,-39,-30,-53,-128,-128,-108,-52,31,-3,-22,-85,127,127,27,69
1490822129151,9,-29,-102,-62,-77,-5,-73,40,13,-34,-28,127,-66,-106,-7,18
1490822129199,123,22,-98,-59,-3,-60,-56,-14,28,1,21,-64,-25,93,52,-10
1490822129247,-104,-33,46,127,94,122,76,18,-1,11,-109,-93,-61,-108,12,-17
1490822129248,30,25,50,-84,-83,-106,-65,-14,9,48,-44,-43,121,121,59,39
1490822129297,-33,66,87,34,127,108,85,24,-59,-26,35,-81,-94,10,-56,-21
1490822129345,53,-26,57,127,-49,-105,-95,-89,-21,10,64,-23,-32,71,87,14
1490822129394,-53,19,73,89,76,81,22,28,-57,-46,-49,105,127,21,-1,2
1490822129443,-32,-71,-10,71,1,-70,-4,-3,60,18,35,12,28,-2,11,28
1490822129494,-70,-26,69,86,127,93,10,-8,6,9,-49,-29,-23,70,32,31
1490822129496,-4,-4,-28,56,116,53,15,8,-15,-6,-22,-20,-56,-27,6,-8
1490822129541,45,62,-10,-74,18,47,10,23,3,21,-55,-84,-101,-36,-15,-15
1490822129589,15,-2,-88,23,45,19,12,12,-23,-12,2,76,55,15,17,-6
1490822129638,16,15,38,25,-21,0,-1,-15,-7,-47,-38,28,32,9,3,15
1490822129689,53,-17,57,-7,1,7,13,36,-15,-41,27,9,15,-4,-5,-24
1490822129738,22,38,-24,-1,2,2,-3,-4,0,-13,-35,-31,-26,-3,-8,12
1490822129740,-14,-53,57,59,35,10,2,6,-3,-55,-42,-42,18,-5,-10,-4
1490822129788,6,-13,-20,-6,-6,23,3,-4,-2,32,3,15,12,-14,11,13
1490822129835,-21,53,9,-38,-7,-3,0,3,-13,29,-34,-8,15,25,6,-11
1490822129883,4,19,-55,-54,-3,-9,-7,6,4,24,2,13,3,8,8,17
1490822129932,12,-14,18,-45,-16,-42,-2,19,-12,5,5,19,28,3,5,-12
1490822129939,-10,24,11,16,-5,7,-6,4,-80,16,-20,29,-5,13,-1,4
1490822129979,41,26,-2,-26,-14,-3,5,-4,54,-24,23,-12,-17,-11,4,-23
1490822130028,103,-65,13,12,-1,-6,2,1,105,88,-12,-13,-2,-8,-3,-3
1490822130078,-82,7,-5,19,16,9,4,-24,-3,36,-23,11,11,1,-5,14
1490822130126,84,-51,-1,21,-38,8,4,6,-16,-79,-10,-2,-32,-5,-10,-21
1490822130174,26,-7,-15,9,11,-4,-9,-2,-70,-34,-5,-4,6,-2,2,1
1490822130176,-7,56,38,5,40,-5,-5,-2,80,-38,2,-17,14,-6,-5,-3
1490822130226,-128,22,8,-2,-20,6,29,35,-73,58,14,6,14,19,17,11
1490822130320,106,32,-4,-4,-36,-34,-4,4,72,-6,-11,18,14,29,-4,22
1490822130322,-58,53,29,64,68,21,-41,-12,-128,63,16,105,92,53,40,7
1490822130417,-106,-5,-7,-11,34,70,45,4,-55,19,-29,-45,-65,-70,-43,-11
1490822130419,127,-3,-6,0,17,-1,1,55,56,27,-19,18,-32,-90,-15,-14
1490822130466,-58,-24,-3,-68,-43,-21,-35,23,-102,-3,6,64,-11,-23,20,13
1490822130467,53,11,31,-15,-71,25,80,-9,53,3,-25,-4,127,122,29,21
1490822130516,-107,5,25,71,65,102,29,18,-120,-5,-8,-71,-60,-66,-46,-5
1490822130564,32,-1,15,49,-12,8,0,17,70,17,3,-115,-110,-77,-35,-40
1490822130612,-9,-12,24,38,-52,-72,15,-37,1,-11,-43,-3,56,86,2,-1
1490822130614,-24,-9,-25,-59,-71,-17,-41,-35,-63,13,16,52,56,22,-15,-16
1490822130662,9,-6,-25,-114,-30,-38,5,7,37,52,-33,1,18,81,3,5
1490822130711,19,35,73,42,-25,0,-66,16,11,2,44,-53,-8,56,84,24
1490822130759,8,14,-23,-33,-28,-42,15,28,47,47,48,2,-20,-11,-17,-1
1490822130808,-90,-33,61,26,-24,-53,-58,-2,-51,-54,-19,52,36,69,38,24
1490822130857,18,41,-1,-6,17,-33,17,5,-21,15,5,60,0,21,-12,-20
1490822130859,-1,-27,-53,-112,-30,19,40,-49,-13,-13,-30,-79,-17,-6,-5,-10
1490822130906,-12,-53,-4,-96,9,-19,0,-6,5,-6,-26,-108,14,-14,-28,13
1490822130955,31,11,55,-10,-1,-20,22,34,-13,-23,0,18,2,-7,-6,-23
1490822131004,36,-16,6,13,-92,-1,-28,6,20,-1,21,-15,-23,42,25,22
1490822131052,-87,-15,-42,-50,65,3,-21,-31,77,14,-1,-60,93,-15,18,13
1490822131053,-2,22,18,-53,39,53,11,-11,-98,-5,1,114,15,58,8,-5
1490822131101,-20,-24,-33,-114,10,34,10,15,82,1,18,-65,10,4,-17,-15
1490822131150,75,6,23,96,-7,45,65,43,-44,1,-8,36,-15,27,37,2
1490822131198,58,-16,6,24,-11,63,8,-11,-38,-16,-36,12,-15,19,10,-12
1490822131247,-23,-17,16,-42,-2,-52,-17,6,5,-36,-13,-32,2,-10,19,-2
1490822131299,-93,4,14,9,-5,-19,20,-39,33,-15,-6,1,-17,-32,28,30
1490822131300,36,-42,-29,14,-10,29,-38,14,39,9,-14,-59,9,100,34,-25
1490822131345,32,-19,-14,-82,-58,6,-46,18,-34,-8,19,24,10,6,-7,-58
1490822131394,-128,8,-24,-95,70,127,24,-53,-38,-14,-17,-18,-87,-128,-14,-12
1490822131442,-73,73,75,121,-53,-41,30,-26,33,-16,35,108,63,13,-91,-21
1490822131492,-84,-43,-96,-97,-128,2,-2,3,-24,-57,-94,-99,-118,-107,-63,-38
1490822131539,-54,-34,27,127,101,63,18,29,104,38,-7,-122,59,86,-20,68
1490822131543,127,-67,-88,-76,-86,-42,-14,94,-8,-3,15,60,61,50,44,-58
1490822131589,15,-26,-45,-32,-110,18,36,25,47,-2,-116,-128,-20,-48,2,-14
1490822131637,-13,29,-30,-8,54,90,58,1,20,-35,22,112,-124,-107,-109,-35
1490822131686,1,26,44,-122,24,108,120,119,-35,23,16,38,127,-31,-27,-53
1490822131734,12,36,106,-51,-59,5,-22,-43,76,0,46,100,90,105,-1,123
1490822131736,-32,-15,0,-128,-128,-99,-119,-128,-8,-75,-97,-10,96,107,127,71
1490822131831,-33,-10,-77,115,-60,-24,-18,-7,-16,9,72,-8,-34,8,44,27
1490822131833,-15,2,55,50,4,35,-128,-53,-57,-54,-128,-29,-57,80,120,62
1490822131881,-1,59,127,-74,-57,111,114,77,-23,5,-11,-4,70,47,-59,-66
1490822131930,14,-18,-78,-128,-86,-71,-81,-87,84,-34,-98,-21,-1,93,123,8
1490822131978,-60,17,-47,-30,-62,-88,-74,-8,-42,12,74,94,34,53,9,-1
1490822131980,-34,15,83,-38,-40,-66,-16,-16,-59,-14,-23,114,127,94,85,16
1490822132027,114,11,8,-49,8,99,12,1,-11,-27,-6,120,93,72,16,5
1490822132076,2,10,-21,-99,-83,-92,-6,-30,-72,28,70,-23,-4,-3,2,23
1490822132125,-49,-18,-7,13,21,78,62,18,-30,-46,-63,86,47,-39,1,-18
1490822132173,-38,-3,3,49,97,101,39,21,-104,22,1,42,19,66,11,-1
1490822132222,-13,-4,48,-50,-105,-65,-33,-29,4,-45,-87,-24,53,-38,-9,-4
1490822132223,-56,14,86,-17,84,80,60,26,69,2,17,27,-76,-16,4,13
1490822132271,2,-40,-69,-120,-97,-50,-18,-17,-71,-22,65,87,79,56,22,-2
1490822132320,18,9,-18,0,83,26,-12,-16,-12,-39,-65,-108,-88,13,-2,-17
1490822132372,11,-17,-28,-17,-8,-9,6,19,23,21,25,-26,-9,-27,-12,-23
1490822132417,-11,-33,28,59,26,8,-4,17,-90,-36,-7,-70,-47,-15,-15,-26
1490822132419,-45,-21,-24,46,16,13,16,24,-58,37,-42,-28,-8,-8,-10,-33
1490822132466,-90,37,39,41,103,8,14,-13,-23,-66,-24,-71,-22,-22,-6,13
1490822132515,125,-51,-19,-5,-27,-10,-2,-17,68,40,10,-72,-43,-5,-4,-21
1490822132563,18,-5,-49,-65,10,-8,-15,-24,-5,-62,1,78,11,45,10,22
1490822132612,31,-125,61,-21,-38,4,-10,25,2,-116,-25,-11,61,13,3,-30
1490822132660,-6,-84,37,46,4,10,-1,5,6,-27,-51,-64,-30,-2,-1,-7
1490822132663,0,99,99,-19,-16,-33,-11,-16,6,67,-4,44,37,-3,2,34
1490822132709,-2,-74,-34,-4,-6,12,2,-20,-1,46,28,-25,-29,-22,-13,-5
1490822132758,30,39,-3,44,20,12,9,5,-1,57,-19,-71,-29,-12,-22,-19
1490822132807,21,-106,-84,-70,1,-19,-17,-39,16,-34,68,20,-5,-29,-20,-23
1490822132856,-8,35,23,-2,-31,2,-3,25,-36,-54,-26,17,-42,7,-1,-12
1490822132904,20,45,20,18,-24,3,5,15,6,119,45,49,-1,-15,12,21
1490822132906,-2,-64,-23,33,-15,3,0,11,-18,39,-14,-61,-30,-20,-14,-21
1490822132953,74,-56,-5,-18,64,0,5,0,70,-49,-31,23,32,-12,-1,18
1490822133003,105,26,-7,13,-7,5,6,17,-51,-23,-7,3,-8,4,11,-16
1490822133051,73,18,13,-19,3,-12,-10,-7,-57,-25,-12,0,9,1,4,-2
1490822133099,-50,-23,-20,27,6,14,-1,-9,-128,-4,-5,-35,-1,-11,-9,16
1490822133100,18,-101,-30,-50,-42,-82,-22,-13,-2,-46,21,15,8,9,-7,15
1490822133148,56,92,-51,-30,7,34,-28,-27,15,-110,26,58,28,-28,-11,-30
1490822133197,-18,51,31,56,53,27,-24,-12,-90,31,-82,-7,18,46,33,22
1490822133246,-38,11,-30,-9,-9,-94,-17,-9,-18,88,4,-83,-85,23,55,44
1490822133343,-42,-9,38,73,78,99,44,-14,-21,-14,-30,-68,-27,-47,-45,-7
1490822133345,-24,-24,-18,-60,-26,108,111,-8,55,4,9,40,46,-48,-70,-21
1490822133346,-81,-43,-17,5,-1,-38,-2,-51,27,12,-7,-53,-32,-1,-23,60
1490822133393,117,16,2,-42,-42,65,-71,-54,4,23,-27,-31,1,17,105,84
1490822133441,55,-43,7,22,50,67,46,40,1,41,38,92,72,81,-28,4
1490822133489,101,-12,-60,-86,-92,-40,-40,-38,-2,-22,-10,-32,-75,-106,-54,26
1490822133538,2,-6,33,85,75,35,9,-13,-22,-34,-13,-65,-66,-15,32,-4
1490822133586,97,-8,5,31,25,88,57,124,-52,-22,-55,-17,-7,18,13,-80
1490822133587,-57,-2,-11,-92,-54,0,32,-30,26,-16,-3,-6,30,51,37,63
1490822133639,-37,-9,-8,63,50,66,32,36,30,31,-15,-12,-53,-119,-47,-60
1490822133685,-45,43,-1,85,40,47,89,-13,40,24,-18,-31,15,84,33,-3
1490822133733,11,-10,-6,-49,-26,-28,-38,3,-20,-17,21,2,1,0,14,23
1490822133782,4,5,20,18,-21,-75,-27,35,-18,-32,19,16,9,79,20,-27
1490822133783,28,20,-13,11,29,35,15,-4,-3,55,16,20,-20,-37,-37,20
1490822133831,16,8,-4,-7,-18,-12,-16,4,5,0,-12,7,12,21,7,10
1490822133880,-45,1,13,7,23,5,-21,-51,34,20,-2,-16,13,3,24,30
1490822133928,22,-15,-4,-30,0,-5,-39,-33,74,-22,-11,5,4,17,17,-16
1490822133978,117,-11,-1,0,-2,16,26,24,35,-15,7,-4,-9,-30,-46,-41
1490822134025,52,1,8,-14,8,-3,-5,24,-66,5,-7,-13,13,-33,-35,-6
1490822134027,30,-4,-12,-39,-5,-18,-6,-15,-6,15,20,-17,4,-20,8,-21
1490822134075,64,2,1,-5,6,46,36,43,23,-8,-20,0,-11,18,24,42
1490822134123,-17,-3,6,29,1,-34,-14,3,-66,-19,-8,-26,-6,3,-1,-22
1490822134172,28,17,15,21,33,91,28,0,27,23,-8,12,12,-46,18,35
1490822134220,-13,8,-8,-44,-35,-51,-20,-43,-6,-2,-26,-3,-20,16,1,15
1490822134221,7,-12,18,62,69,93,71,47,35,27,38,91,72,-54,-17,41
1490822134269,-9,-2,-45,-115,-73,-56,3,31,-81,14,-19,70,89,107,32,-22
1490822134319,-84,-39,-25,12,-88,116,109,-51,47,15,-16,-86,-80,-4,-51,2
1490822134367,-33,-72,-73,-112,-17,6,-57,14,17,6,54,69,52,-4,-5,10
1490822134417,15,-2,-40,30,110,102,63,9,127,-43,-38,25,69,-74,-27,-11
1490822134464,25,-44,-27,-114,-75,71,61,-18,-29,-50,-84,-54,-98,-50,25,-81
1490822134466,-128,6,42,10,-56,74,4,-9,125,-39,-97,-128,-55,-94,34,28
1490822134513,54,14,66,37,86,-117,-36,8,22,-4,-80,78,1,50,60,-20
1490822134562,27,3,-71,-32,-37,-22,78,-42,-24,18,39,93,123,81,-58,7
1490822134611,15,8,81,-105,-86,-71,65,-28,12,-9,33,89,-89,-101,-77,-98
1490822134660,-85,15,6,127,127,127,-65,14,80,41,83,-79,-28,-124,10,43
1490822134708,78,13,80,-96,-18,28,-29,-24,-49,4,25,127,127,69,-6,-23
1490822134709,-3,52,51,-128,-106,-59,-41,-14,-3,-27,19,-104,4,0,11,35
1490822134757,20,-13,-24,-15,-87,31,-65,-35,9,43,8,-68,-12,-54,-33,-20
1490822134806,14,29,-37,39,38,-97,34,27,-46,8,44,18,84,101,-49,-31
1490822134855,-2,-64,-79,36,-92,-128,-5,-23,35,-1,-15,75,33,-27,-99,-57
1490822134903,14,-4,43,68,95,-12,14,19,28,-37,-104,-28,-102,-89,-10,0
1490822134904,13,9,28,127,-20,-88,-62,-26,18,-1,-101,-69,50,9,104,-2
1490822134952,58,-13,24,-88,-128,-118,-65,-75,76,-1,-4,67,98,123,43,10
1490822135001,-66,17,119,71,11,35,31,28,39,-16,-116,-128,-75,-28,-8,8
1490822135050,-64,-12,8,93,24,88,42,13,-81,6,14,108,83,10,12,12
1490822135098,78,28,39,-80,-42,15,7,-1,-61,-19,35,-128,-128,-61,-65,-22
1490822135146,-30,-18,-11,-37,-27,-14,-34,-7,-25,-3,-4,16,26,0,-6,2
1490822135148,-81,-24,25,127,16,110,4,-2,29,13,14,-122,-103,-95,-63,-29
1490822135196,44,-8,54,-98,-57,-46,-35,-11,-46,-15,-34,-42,-32,-11,9,-8
1490822135245,-66,16,25,85,48,18,10,5,31,3,3,-15,-29,77,26,36
1490822135293,39,26,16,-128,-78,-50,-15,-5,-28,-12,-27,127,58,-6,8,-6
1490822135342,-18,-15,-11,41,21,-13,-13,-23,6,-5,23,45,31,-17,-7,11
1490822135390,-94,-22,18,-12,0,-4,-4,-24,-1,-33,-30,-2,-12,-14,-1,21
1490822135392,0,46,-4,102,37,18,12,-14,105,76,-13,-119,-49,-17,-21,-14
1490822135440,69,-10,-128,-19,26,23,35,35,-19,-22,46,31,8,2,9,-25
1490822135489,-102,-110,-17,26,5,-6,-4,-9,-34,-93,-4,-64,-13,-7,2,-11
1490822135538,30,113,4,25,13,20,3,1,38,23,34,66,5,22,-1,-5
1490822135585,43,-46,-53,-24,5,-8,1,-13,26,-62,14,-5,-1,-13,-4,10
1490822135589,-8,4,13,-2,4,13,-1,-21,-35,-109,-16,-17,17,-4,3,13
1490822135634,-33,64,-8,25,9,-3,2,-2,26,73,41,-61,-28,0,-6,12
1490822135683,11,3,7,19,5,8,14,-1,3,31,5,-39,-27,-1,-8,-16
1490822135732,-38,33,-29,-2,-8,7,6,19,-36,32,4,26,-2,3,-3,3
1490822135781,127,75,-25,-13,1,31,-2,-5,-76,94,-4,21,12,17,-2,-24
1490822135829,-128,-5,15,31,11,-9,-4,-6,-38,79,-21,-75,-25,-12,0,33
1490822135831,-105,-128,14,-2,53,5,3,-1,-113,-128,-7,14,38,-12,-6,6
1490822135878,-3,-52,-9,-70,-57,-9,-7,-3,-44,-27,-46,7,-24,-1,0,-4
1490822135927,-8,-2,7,6,-50,-7,6,7,60,-11,-4,-6,-43,-15,-5,-15
1490822135976,3,-112,8,0,21,-12,-16,-9,43,-124,-19,2,17,-5,20,31
1490822136025,88,52,5,18,17,-12,9,11,75,-16,18,33,31,-7,9,21
1490822136072,-65,50,8,36,47,37,15,-9,22,22,-3,9,24,29,50,19
1490822136074,77,14,-2,-19,-7,24,-7,5,77,-15,-5,10,4,-6,-4,-46
1490822136122,-107,-35,31,-112,-68,13,93,26,-92,-61,-34,24,-27,51,15,-25
1490822136170,-4,42,20,14,36,59,-96,-9,45,72,9,-7,-33,-57,14,36
1490822136220,-27,10,33,-18,17,22,60,51,-41,24,14,50,54,7,-7,4
1490822136268,-92,17,39,44,86,67,17,23,-110,-35,-2,-63,-27,-6,37,19
1490822136269,-33,-9,15,76,11,-64,-79,55,-70,28,-13,-5,5,32,19,-28
1490822136317,50,0,-10,-41,-34,112,42,6,-31,0,16,57,-7,-9,20,-28
1490822136365,55,36,25,18,32,10,41,38,9,-33,11,54,41,96,39,32
1490822136414,-120,2,-8,-43,-68,46,24,-41,-54,6,4,56,98,-45,-88,-47
1490822136464,-25,-14,-15,-27,45,38,34,6,0,1,1,-10,-95,-107,-62,-59
1490822136511,-3,22,16,51,19,-1,5,51,16,-16,1,-74,-40,-50,3,-29
1490822136513,12,3,12,-37,-12,98,53,17,33,-27,-33,-27,-28,-80,2,-8
1490822136561,21,23,-33,-10,18,-22,-44,20,3,12,12,-18,-22,64,82,38
1490822136609,34,-7,-3,-9,-17,0,26,33,-7,0,7,22,27,43,18,-47
1490822136658,-9,8,10,1,6,-19,-4,7,17,8,5,-17,-27,-61,-1,-29
1490822136706,0,32,5,9,6,-6,4,17,-19,-46,-13,13,-37,-59,-17,11
1490822136707,-15,4,5,-30,-3,-39,-42,-39,-6,14,-2,7,33,0,13,23
1490822136755,46,23,6,-41,10,-93,22,20,-17,-14,-17,-33,1,-33,-54,-12
1490822136804,-36,-2,-15,1,-3,16,-45,-12,-9,-4,-6,16,15,-1,13,-13
1490822136853,-26,-12,-22,-3,24,25,24,8,27,14,17,3,11,-10,16,-22
1490822136902,65,-4,-5,-8,9,2,-9,2,122,6,3,6,13,15,13,8
1490822136950,-126,1,9,29,15,-2,-18,-10,-128,8,10,14,-3,-25,-7,-13
1490822136951,2,-27,-10,-6,-2,26,-2,9,13,-5,-5,-13,-17,-40,-14,14
1490822137001,-12,22,2,-19,1,50,67,38,-75,-21,5,-33,-7,-31,-102,-46
1490822137049,-14,-9,-12,-44,-24,-85,-29,-45,-37,51,20,-1,29,73,8,59
1490822137098,107,-2,-11,-57,-91,-68,98,102,-90,-19,-14,-45,16,57,-80,-120
1490822137153,48,-12,23,87,4,85,-9,-66,-54,-15,-14,-47,72,54,58,92
1490822137194,-79,-68,-97,-94,-122,3,10,-23,71,-15,-66,49,-19,-62,67,-7
1490822137196,-115,71,72,103,95,-77,13,-41,-2,-52,-81,-128,-88,79,26,92
1490822137244,52,-54,-63,-42,-68,-128,-124,-96,8,-20,-40,6,33,127,-12,37
1490822137292,89,18,-75,-109,40,63,43,33,20,22,86,110,103,-69,97,46
1490822137341,117,27,12,-53,11,-23,113,53,12,-9,103,119,49,-128,-128,-101
1490822137389,86,36,76,51,-109,-128,-33,-11,55,-15,8,-113,-100,45,99,86
1490822137390,-42,42,-23,-91,127,127,46,5,-9,67,75,21,15,29,-90,53
1490822137441,13,-6,-11,-116,-80,-14,-20,-4,1,26,50,72,98,77,-78,-4
1490822137487,-20,-31,-99,25,44,125,-99,23,-75,-8,26,-59,1,-7,100,-35
1490822137536,-30,-1,74,61,-72,12,15,5,13,-36,-67,-128,-120,-63,-92,-86
1490822137584,9,-19,-76,-51,-50,11,80,30,36,14,-26,18,7,-108,-52,-35
1490822137632,56,8,19,113,58,33,54,78,-68,-13,-24,-70,-49,120,74,-11
1490822137634,1,3,26,127,-18,-128,-128,-65,-50,-6,49,18,52,21,66,-2
1490822137683,52,38,-57,-78,15,-7,-45,-47,-35,2,0,46,8,-5,51,5
1490822137732,127,-5,9,36,-50,-128,-124,-42,39,-19,-14,-128,-31,-43,-19,-5
1490822137781,-59,-30,-42,-3,-71,-74,104,-5,13,26,-3,-68,-77,54,-120,-17
1490822137828,-1,6,-109,-128,47,36,72,17,24,20,39,75,118,54,-15,10
1490822137876,41,-21,41,10,85,105,-34,-37,-6,13,56,127,78,24,31,39
1490822137877,17,-45,-1,127,-45,-72,-67,-25,68,4,-57,-85,-70,-83,82,9
1490822137925,-43,-3,9,117,91,-12,25,35,-90,-14,-64,47,-39,42,-1,8
1490822137974,-66,-33,-24,127,95,73,-57,2,-8,24,64,-91,-89,-43,19,0
1490822138023,-61,2,83,67,51,41,37,-3,-13,-11,-98,58,88,36,20,26
1490822138071,-2,22,7,38,12,-61,13,9,-43,18,112,127,114,24,93,15
1490822138073,-1,-49,-61,-64,-125,-78,-38,-46,49,21,-30,43,57,110,-16,-7
1490822138121,-35,-5,-69,-83,-95,14,48,13,-9,1,60,-18,-45,-43,-38,-1
1490822138169,-34,-31,-80,83,39,-78,-69,-23,3,38,78,18,-9,11,-19,-9
1490822138218,-53,21,52,91,111,80,92,31,-29,36,68,101,123,103,15,27
1490822138267,38,-12,15,27,39,36,21,8,19,-13,14,-22,-32,8,-2,5
1490822138316,-89,39,67,23,52,43,20,10,-103,8,-73,-40,-11,-20,-12,1
1490822138324,50,21,95,0,20,3,1,-1,35,15,-58,26,8,-3,2,20
1490822138364,80,94,22,-75,-8,-7,-9,-12,26,-16,81,86,33,4,7,-54
1490822138413,-76,-7,31,79,2,8,-5,-1,-92,4,-62,18,11,18,1,25
1490822138462,62,-116,43,-16,-31,-14,-18,-36,80,-15,-26,31,-21,-10,-15,25
1490822138559,91,98,0,14,6,-18,9,0,50,-15,-17,29,7,-5,16,36
1490822138560,-24,99,33,16,12,-13,5,-4,17,31,10,6,16,-4,5,-6
1490822138561,23,117,-17,-13,-11,5,-4,13,-20,-30,-6,117,36,17,12,-2
1490822138609,-20,7,-6,-15,6,9,5,9,0,37,2,-30,-12,2,-9,15
1490822138657,-67,-9,-15,17,-3,-28,2,-2,22,66,12,-10,-12,-9,5,10
1490822138706,123,-62,-18,-3,-5,9,-2,-22,53,-94,53,-7,-9,-4,-2,-3
1490822138754,-50,-22,41,-10,6,15,2,16,29,-128,-7,-13,-7,2,-6,-9
1490822138757,-28,12,-5,-3,8,1,4,0,-38,56,-3,18,15,11,50,16
1490822138803,-45,19,8,20,18,0,-4,-24,-27,92,10,-6,0,-15,-12,3
1490822138852,3,22,-1,22,18,13,14,-11,63,-76,3,47,22,16,-9,8
1490822138900,35,15,-8,-31,-32,-2,28,-8,-28,81,3,18,9,-29,8,0
1490822138949,9,46,50,84,84,42,-15,1,-87,51,-95,-75,-63,-30,-29,11
1490822138998,27,1,-41,-74,-68,-41,9,14,21,36,38,75,33,-16,31,-21
1490822139002,-77,-20,8,-26,24,25,-10,-16,-24,-37,-10,3,30,45,36,31
1490822139047,10,30,-8,-68,-60,-65,-45,26,74,-13,-8,-80,-77,-51,-30,-20
1490822139096,-27,-23,-23,92,91,83,33,69,-8,19,50,61,33,-58,-20,-15
1490822139145,-45,-18,-56,-21,-6,-62,-63,-81,-36,0,-36,-29,-8,-6,-6,31
1490822139193,-30,19,72,127,122,71,16,21,7,-12,11,-128,-103,25,40,-10
1490822139242,-64,30,1,106,73,15,-5,-8,-119,25,118,113,104,120,91,35
1490822139244,83,-27,-74,-122,-128,-93,-24,-17,78,-11,-39,-43,-29,-23,41,-11
1490822139339,26,17,-8,25,-20,-20,27,-19,6,-1,91,122,70,44,6,25
1490822139341,-21,-123,-4,34,58,-5,24,-7,-4,-104,-32,-122,-44,38,-2,2
1490822139390,-14,68,24,50,78,71,20,-2,-10,39,32,71,-15,-41,-30,-18
1490822139436,-23,-17,-21,-20,-19,-18,-26,-10,-5,15,-12,-64,-79,-45,-8,4
1490822139438,15,45,-14,-28,-49,-21,-8,-8,5,53,17,44,11,-9,1,21
1490822139485,4,-22,-14,-13,-9,16,17,-8,-15,-10,-19,-72,-40,-10,0,-6
1490822139534,-8,-35,27,-64,-20,-19,0,12,-4,-22,-52,-101,-7,21,1,-17
