1491090830420,0,36,-70,-111,-105,-55,10,-109,36
1491090830420,0,-114,-56,51,110,22,-103,107,-113
1491090830421,1,-114,-15,85,113,9,36,26,-114
1491090830421,1,-108,8,47,28,-11,-91,65,-38
1491090830422,2,6,57,54,81,13,58,-47,-60
1491090830422,2,38,3,-34,-25,-60,-3,2,15
1491090830468,3,-23,-25,-33,-31,25,76,29,19
1491090830468,3,37,9,-1,-26,-19,30,-52,-3
1491090830469,0,-55,-5,-1,-28,-5,95,79,49
1491090830469,0,53,45,2,-16,8,-21,-79,38
1491090830470,1,38,-2,-8,-3,27,7,2,-13
1491090830470,1,69,-24,-31,-43,-2,-16,-22,20
1491090830470,2,17,-17,-6,0,-12,-128,31,-12
1491090830470,2,14,-1,4,-40,47,70,-16,9
1491090830517,3,16,25,-2,-6,-4,-1,-43,27
1491090830517,3,34,-9,-17,5,-35,23,77,30
1491090830518,0,-14,-1,6,-6,10,-33,19,-16
1491090830518,0,-59,19,9,15,7,55,-3,-17
1491090830519,1,70,-7,-12,-22,-21,-105,27,31
1491090830519,1,-29,-1,-7,-18,52,81,-4,-26
1491090830565,2,-8,6,16,26,-45,-53,-62,-28
1491090830565,2,44,-12,-13,-20,-56,-28,-3,10
1491090830566,3,-65,8,-4,-3,85,78,61,13
1491090830566,3,4,-17,-5,9,0,-74,-72,-15
1491090830567,0,-8,10,24,62,60,51,98,-2
1491090830567,0,14,22,5,-31,20,-43,-67,18
1491090830568,2,73,-3,-18,-64,-52,-45,-40,7
1491090830568,2,-28,-21,-5,45,15,118,37,-9
1491090830614,3,9,-29,-1,22,-8,-38,-29,3
1491090830614,3,-41,25,21,37,5,-9,55,-3
1491090830619,0,-4,-6,7,-7,56,50,4,5
1491090830619,0,-7,10,-12,-47,-78,62,-14,-7
1491090830619,3,-16,-4,-16,-102,-120,-36,2,-20
1491090830619,3,-23,-4,-16,-2,52,38,-43,3
1491090830620,0,89,9,26,67,21,-45,7,-9
1491090830620,0,-30,6,1,9,-8,102,41,51
1491090830663,1,-14,-7,5,35,79,24,-25,-14
1491090830663,1,0,15,18,-9,-46,33,91,5
1491090830666,2,-21,14,11,42,53,34,-2,-8
1491090830666,2,-95,-22,4,8,74,89,24,-42
1491090830667,0,4,-10,-15,-16,52,30,-57,21
1491090830667,0,31,-10,-3,29,-39,-105,26,-9
1491090830668,1,-34,1,-18,-62,-21,47,5,-5
1491090830668,1,29,-6,-4,-1,-55,5,3,12
1491090830712,2,-56,-1,5,60,36,18,29,-13
1491090830712,2,28,18,23,41,52,74,-39,-31
1491090830713,3,22,9,1,-38,3,-37,76,40
1491090830713,3,-4,-22,-21,-32,-86,-37,-79,-10
1491090830714,0,53,0,-3,38,34,45,14,32
1491090830714,0,-51,33,23,-26,-13,67,52,-35
1491090830715,1,8,-2,-14,-56,-65,-19,-37,21
1491090830715,1,30,-1,1,53,69,56,-15,-5
1491090830760,2,9,-2,-3,19,-10,-128,13,9
1491090830760,2,-61,-3,1,-38,5,61,42,1
1491090830809,3,3,6,18,79,90,89,36,-10
1491090830809,3,-30,15,14,-22,-43,-21,3,-15
1491090830810,1,21,-2,-18,-69,-115,6,-38,15
1491090830810,1,33,-5,-13,7,34,-63,-26,25
1491090830811,2,-26,9,16,31,6,109,50,15
1491090830811,2,-4,-10,0,-16,-11,-63,-18,-22
1491090830812,3,36,9,0,32,23,58,-84,-13
1491090830812,3,-50,-16,-15,-22,-31,-64,-2,2
1491090830858,0,33,-9,-4,-41,-36,-45,74,-8
1491090830858,0,48,0,-16,-3,29,-21,-78,4
1491090830859,2,-74,7,-4,-22,-14,104,-35,-25
1491090830859,2,-3,-6,-3,17,24,45,5,25
1491090830860,3,68,-1,-8,-23,-58,-104,-88,24
1491090830860,3,16,-3,-13,-8,31,19,33,-19
1491090830860,3,5,-3,-10,-10,-35,-7,-85,2
1491090830860,3,-54,-10,12,60,72,49,6,-30
1491090830907,0,48,-1,6,24,27,71,-11,5
1491090830907,0,8,-7,-4,-51,-80,-62,28,3
1491090830908,1,51,-3,-12,-16,-18,-120,-29,-2
1491090830908,1,-35,-16,-7,2,13,29,13,-12
1491090830909,0,2,15,-2,-54,-69,-3,5,45
1491090830909,0,-2,5,-1,-2,21,56,16,2
1491090830910,1,-17,13,10,73,35,-9,-2,-6
1491090830910,1,6,5,18,35,21,2,8,6
1491090830955,2,-23,-31,-21,-86,-41,1,-28,-16
1491090830955,2,41,-6,-16,-20,-60,-63,-76,-11
1491090830956,3,-65,-21,-4,21,46,75,80,-49
1491090830956,3,-40,-9,-1,7,18,44,-49,29
1491090830957,1,-35,-14,-16,-84,-56,13,19,-23
1491090830957,1,24,-1,-22,-67,-57,-10,-2,-11
1491090830958,2,-45,-12,-7,-2,-31,-39,-18,-15
1491090830958,2,-12,9,9,71,62,30,-44,35
1491090831004,3,-11,-2,11,54,62,-46,-29,-14
1491090831004,3,-19,9,5,-39,-74,-4,32,9
1491090831005,0,-69,10,-2,4,34,36,31,-9
1491090831005,0,-21,16,2,-73,-71,20,36,-4
1491090831006,2,-61,2,-4,-8,26,69,13,-9
1491090831006,2,-9,-34,-20,-32,-48,-41,-10,-16
1491090831007,3,0,19,23,40,13,-26,41,-1
1491090831007,3,30,16,-1,-53,-8,-58,-92,-9
1491090831053,0,15,-11,-19,-19,-55,51,28,16
1491090831053,0,19,3,13,69,75,-78,85,-46
1491090831054,1,-20,-11,7,-9,-19,97,-36,4
1491090831054,1,-24,-3,-9,13,1,-17,60,-17
1491090831055,2,-31,-5,12,3,3,-80,-69,-42
1491090831055,2,41,-5,1,22,-16,29,-48,65
1491090831056,3,15,-1,-5,-49,31,24,23,-13
1491090831056,3,-27,24,18,48,68,50,10,-4
1491090831102,0,-10,-23,-21,-7,-52,37,-9,-11
1491090831102,0,16,29,-7,-78,-73,-55,61,6
1491090831103,1,-21,-5,1,42,23,-59,-50,-12
1491090831103,1,-30,-10,4,13,-12,127,-76,50
1491090831104,3,14,-15,-13,19,54,33,48,15
1491090831104,3,5,11,3,-43,-128,59,20,8
1491090831104,0,-19,17,16,44,112,60,-4,-21
1491090831104,0,-1,-37,-11,34,-4,-102,-45,-15
1491090831150,1,-58,8,-2,-83,-45,90,47,-3
1491090831150,1,58,-32,-19,-24,32,-77,-60,-8
1491090831152,2,22,4,-15,-30,-72,-49,47,53
1491090831152,2,30,3,2,-24,18,-58,-69,-23
1491090831153,0,44,-17,-19,-65,-54,-117,-31,5
1491090831153,0,1,-12,-7,1,-19,112,46,21
1491090831153,1,23,3,0,42,94,-60,-11,-13
1491090831153,1,30,6,8,-17,-95,-72,36,4
1491090831199,2,-37,-22,-10,-38,-25,96,14,-8
1491090831199,2,-61,5,15,96,117,93,30,3
1491090831202,3,42,-13,-6,-36,-29,-36,-85,-30
1491090831202,3,-2,24,4,-58,-32,-87,11,-8
1491090831203,1,-18,4,1,-30,-80,83,16,-19
1491090831203,1,22,-5,9,84,123,-55,-44,-15
1491090831204,2,31,8,3,-23,-67,52,-14,15
1491090831204,2,-40,15,-5,-48,20,-13,-4,-8
1491090831248,3,41,23,-15,-26,-51,-125,-15,21
1491090831248,3,-31,-6,-16,-10,-66,91,33,2
1491090831249,0,5,18,19,22,36,-50,2,-38
1491090831249,0,29,-5,10,57,56,60,0,11
1491090831250,2,-12,-21,-25,9,34,77,-66,-23
1491090831250,2,-9,20,4,-1,32,35,99,-6
1491090831251,3,68,-6,6,-6,-67,-82,-30,34
1491090831251,3,-35,21,24,85,127,125,-4,-18
1491090831297,0,-45,-2,13,12,31,6,64,-1
1491090831297,0,29,-23,-26,-78,-107,-99,-96,-3
1491090831298,1,27,9,2,-1,-11,77,26,24
1491090831298,1,-25,3,-5,18,3,44,26,9
1491090831300,3,-32,-2,-7,-5,-22,46,2,8
1491090831300,3,21,-9,-12,-6,-46,-39,-29,-12
1491090831300,0,-41,-7,0,-12,-77,-34,-14,-14
1491090831300,0,14,17,11,30,77,99,76,28
1491090831346,1,-6,-12,-17,-47,-53,15,-67,-28
1491090831346,1,14,-10,2,49,84,-73,23,-12
1491090831348,2,-36,18,21,26,-1,43,35,46
1491090831348,2,14,22,13,29,75,-32,34,-10
1491090831351,0,-25,-1,6,25,-28,-94,-38,29
1491090831351,0,63,-5,-15,-75,-93,33,-51,-13
1491090831353,1,-29,42,17,30,43,-6,46,7
1491090831353,1,-44,-13,-3,-18,-28,52,27,27
1491090831394,2,55,18,5,12,87,-39,-94,12
1491090831394,2,-90,-25,-6,43,0,23,58,-12
1491090831395,3,51,-25,-10,17,-3,-54,-59,2
1491090831395,3,-21,18,9,-23,22,-26,-20,-24
1491090831396,1,16,-14,-6,11,0,98,43,47
1491090831396,1,18,1,4,6,-33,-91,3,5
1491090831397,2,-47,-1,5,16,73,57,-9,2
1491090831397,2,-21,24,11,-32,-46,50,32,-1
1491090831443,3,30,11,-10,-17,-38,-59,-58,-29
1491090831443,3,8,-15,-12,19,1,22,21,37
1491090831445,0,6,19,13,13,4,48,-1,-27
1491090831445,0,-2,-8,3,28,10,-58,-31,3
1491090831446,1,-52,-11,7,16,30,43,9,-22
1491090831446,1,4,12,-6,-34,-40,-46,37,2
1491090831448,2,32,2,-21,-69,-28,-43,-1,-4
1491090831448,2,-33,-27,-9,31,1,33,35,-12
1491090831492,3,15,-9,-5,21,33,-32,-59,-14
1491090831492,3,4,10,25,23,6,88,45,45
1491090831540,0,-34,3,18,25,106,-20,-26,-26
1491090831540,0,-2,-7,-13,-25,-42,-3,12,-8
1491090831541,2,-31,-44,-22,-21,-32,121,39,6
1491090831541,2,45,21,10,-4,-12,28,-85,5
1491090831542,3,-7,-4,-2,25,48,-58,-25,-3
1491090831542,3,-10,2,2,-1,-3,-26,12,-34
1491090831543,0,10,14,0,4,-37,-20,18,37
1491090831543,0,26,15,25,35,86,54,-23,-17
1491090831589,1,-36,-13,-10,-9,-34,-27,24,-12
1491090831589,1,-25,-14,-4,-41,-32,-36,-34,-21
1491090831590,3,-20,-24,-2,-40,13,59,-21,-2
1491090831590,3,19,19,-3,-4,-31,-126,-13,5
1491090831591,0,39,-3,-11,2,-17,30,66,12
1491090831591,0,27,-11,2,-17,-5,-29,-49,3
1491090831592,0,55,10,3,19,-28,-116,12,17
1491090831592,0,-86,-46,-23,-21,-4,-45,-45,-12
1491090831638,1,26,3,0,13,-15,20,47,27
1491090831638,1,-28,18,15,6,30,64,-28,-56
1491090831639,2,22,-27,-9,-12,-8,-66,-39,17
1491090831639,2,-30,20,7,14,66,57,-16,0
1491090831640,1,-13,29,22,41,104,49,22,-10
1491090831640,1,-13,15,6,-12,-56,-13,39,37
1491090831641,2,52,-3,-4,-13,-10,-77,-90,-18
1491090831641,2,-69,-37,-32,-26,-95,89,36,4
1491090831687,3,-21,-23,-16,-36,-44,20,14,34
1491090831687,3,59,-29,3,41,34,-79,-10,-32
1491090831688,0,-31,40,17,45,85,12,-11,-19
1491090831688,0,26,10,8,-34,19,115,-1,1
1491090831690,2,9,-1,3,17,-7,-57,-46,19
1491090831690,2,24,-13,-16,-63,-79,-128,-27,-9
1491090831691,3,-11,1,-7,-42,-22,88,0,7
1491090831691,3,-11,3,-6,37,-19,35,-20,2
1491090831736,0,-7,-4,-4,7,15,-28,52,-28
1491090831736,0,-33,22,18,54,52,64,60,61
1491090831737,1,80,8,16,8,-3,-13,6,-26
1491090831737,1,-27,9,14,2,79,24,24,5
1491090831738,3,-4,7,11,17,18,97,40,28
1491090831738,3,-22,9,4,17,-2,-10,-46,9
1491090831740,0,-47,-25,-5,-55,-43,87,27,-12
1491090831740,0,17,5,-11,-9,10,-128,56,24
1491090831784,1,-9,-14,-10,6,-70,-29,-96,-43
1491090831784,1,59,-6,-6,26,14,-128,-36,49
1491090831785,2,-61,21,23,31,33,89,31,-41
1491090831785,2,17,-3,-4,-17,-73,9,5,5
1491090831786,3,-13,22,9,26,100,60,53,10
1491090831786,3,-14,-21,-18,-42,-65,83,46,15
1491090831787,0,0,-12,-7,-20,-2,-90,-5,-27
1491090831787,0,-25,-18,8,37,50,24,15,-6
1491090831833,1,23,38,6,-24,-32,-128,-4,-3
1491090831833,1,-47,-45,-15,-25,-40,70,-48,-33
1491090831837,2,48,17,-1,-3,28,-13,-27,21
1491090831837,2,-36,22,0,-24,-34,9,-22,-5
1491090831838,0,-24,-3,7,50,69,47,-33,7
1491090831838,0,-18,8,6,22,7,34,-52,8
1491090831840,1,46,-28,-19,-23,-9,-87,-23,-78
1491090831840,1,-19,26,7,-44,-32,84,16,34
1491090831882,2,55,6,10,35,-44,-24,5,22
1491090831882,2,10,-4,2,13,48,50,12,1
1491090831883,3,-26,0,-1,-19,48,102,-6,-4
1491090831883,3,3,-4,2,-1,-15,-60,27,-34
1491090831884,1,0,15,25,59,43,-27,-27,6
1491090831884,1,15,-5,-5,-65,11,1,27,-13
1491090831885,2,-15,3,-13,-27,4,76,6,25
1491090831885,2,-10,-10,-2,47,11,35,42,-3
1491090831930,3,29,-16,-8,-32,-58,-33,1,-15
1491090831930,3,-26,17,3,27,65,0,-24,6
1491090831931,0,0,-8,0,-24,-75,21,64,-19
1491090831931,0,-8,29,22,34,106,100,-22,-27
1491090831932,2,22,17,14,48,54,105,5,36
1491090831932,2,-13,-18,-15,-46,-59,-83,64,-3
1491090831933,3,-44,-15,-4,-24,-49,5,-7,-4
1491090831933,3,17,16,4,4,36,51,-2,3
1491090831979,0,10,14,14,24,58,8,-54,13
1491090831979,0,-15,5,10,41,-7,-16,-9,-18
1491090831981,1,-13,1,3,27,61,124,10,-15
1491090831981,1,7,-16,-18,-36,-39,-84,-43,17
1491090831982,3,51,18,11,11,-14,-111,-38,20
1491090831982,3,-31,-2,2,35,37,127,39,-38
1491090831982,0,-45,21,14,35,37,103,56,32
1491090831982,0,23,12,1,-30,-9,-128,-128,-15
1491090832028,1,11,-8,-10,1,43,99,59,5
1491090832028,1,-47,11,6,12,-19,27,-9,18
1491090832029,2,-3,-29,-18,-68,-55,-121,67,9
1491090832029,2,41,1,-17,21,-14,-31,-28,-3
1491090832030,0,13,10,4,30,2,-54,-2,-25
1491090832030,0,-23,4,-4,-32,-26,127,63,67
1491090832031,1,67,-7,0,6,-43,-118,-40,15
1491090832031,1,-42,2,5,37,85,47,69,1
1491090832077,2,-9,-5,-9,-17,-66,-73,-77,-40
1491090832077,2,32,5,7,-16,73,90,75,27
1491090832078,3,-6,-13,-23,-63,-73,49,-30,-7
1491090832078,3,-9,-4,-16,-77,-98,48,74,34
1491090832078,1,-44,11,9,36,49,127,33,22
1491090832078,1,69,6,17,29,-10,-127,-57,-4
1491090832079,2,-14,-3,-5,-15,6,39,-35,-17
1491090832079,2,-17,-9,-15,-45,-75,-27,3,-12
1491090832125,3,-63,13,9,35,75,95,38,-5
1491090832125,3,29,-25,-15,-11,15,-29,15,-44
1491090832127,0,-5,-15,-17,-46,-56,-58,-76,25
1491090832127,0,6,13,14,81,105,72,5,-24
1491090832128,1,-44,5,-11,-59,-104,-36,27,10
1491090832128,1,21,-8,-6,-30,-40,-28,1,-19
1491090832129,2,0,2,14,45,65,-19,-55,11
1491090832129,2,26,-14,-12,-46,-78,19,17,-16
1491090832174,3,0,-4,-9,15,13,-65,7,9
1491090832174,3,-34,6,21,66,78,79,42,5
1491090832175,0,-14,9,-4,-55,-48,-30,-33,3
1491090832175,0,11,1,8,11,20,-38,-45,-21
1491090832176,2,0,20,24,67,119,127,35,-17
1491090832176,2,-33,-24,-17,-30,-92,-61,26,38
1491090832177,3,8,-16,-4,-14,4,28,51,-1
1491090832177,3,-12,-9,-6,19,57,-90,-24,4
1491090832223,0,12,-20,-16,-6,-40,-4,-26,1
1491090832223,0,-22,12,0,-39,-52,-38,-21,-2
1491090832224,1,-37,-19,-4,14,-42,69,4,-75
1491090832224,1,55,31,14,19,43,-27,-1,63
1491090832225,3,35,-12,-11,-19,-5,-8,-15,27
1491090832225,3,-20,0,-9,-24,-8,-51,-109,-8
1491090832225,0,8,-27,-20,2,-30,8,22,-7
1491090832225,0,9,2,-9,-14,-32,23,22,6
1491090832272,1,-29,-13,3,-9,58,8,1,-11
1491090832272,1,33,7,-4,-17,-11,76,-106,-7
1491090832273,2,-14,9,5,-3,-49,-62,89,2
1491090832273,2,-26,8,8,19,27,5,-5,-27
1491090832274,0,-20,-3,-7,-28,44,20,-3,-6
1491090832274,0,60,13,8,39,9,-25,-16,3
1491090832274,1,-47,10,-15,-82,-80,80,26,3
1491090832274,1,-20,-9,-11,-17,-21,-39,-4,6
1491090832320,2,11,-12,-7,45,75,106,0,-11
1491090832320,2,-9,-1,7,-8,-45,33,33,1
1491090832321,3,30,10,9,27,91,-60,-78,20
1491090832321,3,-19,-19,-9,-51,-123,-26,63,-58
1491090832369,1,-22,7,6,34,26,-16,43,10
1491090832369,1,-26,17,14,30,37,11,-16,-51
1491090832370,2,20,-16,-3,-40,-40,52,16,24
1491090832370,2,5,-18,-28,-94,-91,-49,-12,-6
1491090832371,3,56,-28,-27,-37,-27,-115,-99,-19
1491090832371,3,14,-7,2,75,45,78,31,7
1491090832372,0,-39,-4,11,-8,-22,-27,-4,23
1491090832372,0,22,-5,4,45,76,-4,106,-1
1491090832418,2,7,-26,-13,39,2,-63,-82,-33
1491090832418,2,-31,11,10,40,61,38,27,-16
1491090832419,3,-3,-4,1,-11,-86,-36,-14,49
1491090832419,3,33,0,9,54,109,82,40,34
1491090832420,0,-14,14,4,-39,-20,45,-8,-10
1491090832420,0,0,-9,-19,-111,-91,8,0,-27
1491090832421,3,0,16,14,-32,56,112,10,11
1491090832421,3,-17,-10,-30,-83,-58,-100,-27,-55
1491090832467,0,67,-28,-19,24,-35,-120,-47,0
1491090832467,0,-22,10,4,-18,-22,-5,-21,13
1491090832468,1,-15,-15,-3,35,9,11,37,6
1491090832468,1,6,13,14,20,-15,-23,-73,9
1491090832469,3,31,-23,-18,-1,-68,-84,-37,-33
1491090832469,3,23,-1,-10,15,1,33,36,24
1491090832469,0,-56,-16,-8,5,-26,-42,-73,-28
1491090832469,0,-9,-4,4,-55,-41,84,-22,-42
1491090832516,1,-18,18,10,33,35,65,12,12
1491090832516,1,-3,14,9,17,-15,-45,69,23
1491090832564,2,5,1,-6,-59,-47,-78,-22,-79
1491090832564,2,-27,-11,-3,49,96,63,-81,50
1491090832613,0,26,11,3,13,1,-23,30,17
1491090832613,0,-60,11,8,-12,18,36,-25,-10
1491090832614,1,-24,19,-13,-37,-21,12,7,49
1491090832614,1,7,-7,-1,38,-15,-93,-34,-31
1491090832615,2,-19,-4,10,8,70,116,34,41
1491090832615,2,51,-25,-20,-6,-37,-86,-54,-3
1491090832615,3,-74,9,10,-44,-92,29,51,-30
1491090832615,3,-4,-5,-1,63,119,51,-73,19
1491090832662,1,-87,-27,-5,-12,-19,102,-31,-22
1491090832662,1,94,-19,-4,-20,-73,-110,38,60
1491090832663,2,-18,10,4,-14,26,41,66,32
1491090832663,2,17,-12,-9,-28,-17,-86,-23,-30
1491090832664,3,-98,-4,23,72,90,127,-7,-31
1491090832664,3,-25,57,32,8,53,60,47,-16
1491090832665,0,38,-16,-16,-37,-105,-128,-58,-25
1491090832665,0,2,-7,-16,-79,1,52,-18,-10
1491090832710,1,71,-7,-15,12,12,-60,2,70
1491090832710,1,-5,-11,-4,8,-18,80,18,-26
1491090832711,2,-49,5,19,64,82,12,50,-13
1491090832711,2,16,32,13,31,-36,44,8,29
1491090832712,0,0,10,5,-1,46,28,-75,7
1491090832712,0,-20,-22,-15,7,16,-71,1,-4
1491090832713,1,-9,-23,-17,-52,-93,-17,45,46
1491090832713,1,-9,24,9,-31,-38,93,2,-14
1491090832759,2,39,-29,-12,-12,-77,-128,-51,-30
1491090832759,2,-71,-7,4,12,57,8,25,10
1491090832763,3,-8,13,-1,7,7,94,-24,9
1491090832763,3,50,9,5,7,-23,-57,-27,-9
1491090832764,1,-45,7,2,42,67,-77,26,-11
1491090832764,1,58,0,4,-20,-39,50,-51,-4
1491090832765,2,23,13,0,15,65,-89,-29,19
1491090832765,2,-17,-1,10,24,0,83,74,-25
1491090832808,3,-13,-9,2,39,-28,-11,-85,-25
1491090832808,3,-3,5,-2,-51,47,28,63,23
1491090832809,0,23,1,-12,-8,-23,-81,-55,-27
1491090832809,0,5,-37,-40,-83,-108,19,-33,-24
1491090832810,2,-3,-4,13,-21,-80,-50,22,17
1491090832810,2,-32,17,6,12,73,30,29,-12
1491090832811,3,3,-6,-10,-27,-61,-54,-31,10
1491090832811,3,36,-22,-16,-17,0,-69,-41,23
1491090832857,0,-45,6,-5,22,96,127,32,-39
1491090832857,0,-35,11,21,28,-43,-15,-28,19
1491090832858,1,12,-16,-16,-50,-39,-36,-72,0
1491090832858,1,-23,5,9,-1,-5,-85,18,10
1491090832859,2,-30,-5,-4,17,-2,-25,-31,2
1491090832859,2,-16,14,8,7,29,92,87,16
1491090832860,3,-38,-23,-17,-14,-20,-45,-34,-51
1491090832860,3,-8,18,7,53,66,-34,-50,-3
1491090832905,0,-15,2,-7,-91,-76,-52,-41,-12
1491090832905,0,23,4,-11,-19,-30,12,41,24
1491090832906,1,-53,5,12,73,59,115,-4,-27
1491090832906,1,-5,-24,-1,29,-6,-61,-11,-14
1491090832907,3,36,1,-18,-41,-69,-5,-2,-29
1491090832907,3,-17,-10,6,62,55,69,27,15
1491090832908,0,25,-13,12,30,14,-19,-32,-12
1491090832908,0,-60,4,0,-1,27,54,13,22
1491090832954,1,30,-8,-4,2,35,-48,17,-3
1491090832954,1,-32,-1,-8,-53,-94,25,-71,24
1491090833003,2,-38,3,-1,18,74,105,32,-23
1491090833003,2,-3,-25,1,25,-6,-38,52,1
1491090833004,0,-2,19,13,0,8,115,29,18
1491090833004,0,8,-11,-15,0,-16,-106,-44,10
1491090833005,1,-32,2,2,42,45,44,76,1
1491090833005,1,-5,2,-1,-78,-97,7,-35,-31
1491090833007,2,-32,7,-12,-10,-17,9,-3,0
1491090833007,2,28,-9,-2,20,-55,25,21,3
1491090833052,3,-14,13,11,-12,-18,11,17,25
1491090833052,3,13,12,-2,42,90,-61,-59,-14
1491090833053,1,-46,-1,15,12,35,113,77,-16
1491090833053,1,56,-4,-7,-41,-28,-24,29,25
1491090833100,2,11,12,12,0,-5,30,38,16
1491090833100,2,-45,-14,9,-34,-24,10,31,4
1491090833102,3,30,3,-13,-17,-63,-57,-62,-11
1491090833102,3,42,-1,-7,14,68,49,-2,11
1491090833103,0,-13,18,1,36,15,23,107,25
1491090833103,0,37,-8,-13,-16,9,-69,-13,-3
1491090833104,1,-22,10,-4,-12,-24,65,-26,-7
1491090833104,1,9,15,0,-34,-42,51,40,21
1491090833149,3,39,10,3,13,11,-29,-98,-3
1491090833149,3,-32,-13,-18,-28,-71,-60,-2,29
1491090833150,0,-4,-13,1,-6,29,51,18,-13
1491090833150,0,17,4,7,40,43,-18,18,-39
1491090833154,1,-22,-8,3,-17,23,-2,-13,0
1491090833154,1,5,-18,-15,-47,-17,78,31,4
1491090833156,0,25,2,-5,-50,-39,-27,1,36
1491090833156,0,18,-4,-8,2,-19,7,-21,-40
1491090833198,1,-36,-13,-8,38,28,39,33,1
1491090833198,1,-20,-16,19,15,-21,-54,-99,14
1491090833199,2,-48,-19,-14,-8,16,-47,28,-7
1491090833199,2,53,12,2,2,-30,-67,-24,15
1491090833200,0,-42,12,7,-13,47,58,34,12
1491090833200,0,-25,-9,-2,-20,27,31,10,2
1491090833201,1,5,5,-5,19,-24,-72,33,20
1491090833201,1,-54,-18,-20,-20,-26,-23,11,-46
1491090833247,2,19,8,13,18,2,10,-19,0
1491090833247,2,-23,17,-4,-7,-12,-8,-27,-1
1491090833247,3,-10,-1,7,-17,32,106,46,9
1491090833247,3,-41,36,6,17,-14,-61,22,-22
1491090833248,1,20,4,6,45,62,24,-37,14
1491090833248,1,4,2,10,42,61,22,-10,-8
1491090833249,2,-37,7,11,32,51,115,64,23
1491090833249,2,-29,10,10,7,-3,25,-52,67
1491090833295,3,20,-12,-19,-46,-96,-39,-14,-23
1491090833295,3,-48,-8,-1,17,-14,-6,44,-35
1491090833296,0,-11,25,4,20,49,101,-58,-31
1491090833296,0,22,-23,-4,19,-2,-39,7,34
1491090833297,2,-18,2,9,-7,-43,71,-16,7
1491090833297,2,-50,-22,-3,-7,-16,-48,-22,-45
1491090833298,3,6,-28,-14,-18,-32,3,66,27
1491090833298,3,-26,-4,8,19,82,17,0,19
1491090833344,0,6,-2,-8,7,42,56,-42,-5
1491090833344,0,2,3,-6,22,-15,-30,61,-35
1491090833345,1,-35,6,10,-44,-29,87,-84,26
1491090833345,1,54,-22,-25,-55,-74,-83,-36,-43
1491090833345,3,20,28,27,69,73,55,66,16
1491090833345,3,-73,-8,12,23,45,-21,-29,6
1491090833346,0,-22,-13,-9,-69,-74,-31,28,-27
1491090833346,0,59,9,-12,-12,-11,18,96,19
1491090833393,1,-29,-6,-14,-11,-39,-7,-80,-3
1491090833393,1,2,-6,2,21,7,20,71,28
1491090833394,2,-31,-15,5,41,84,-106,26,-51
1491090833394,2,-6,0,11,14,37,39,-9,56
1491090833394,0,-40,-3,-7,10,-53,50,-7,-28
1491090833394,0,-32,-8,-5,-19,13,48,34,12
1491090833395,1,17,20,0,7,2,-36,62,-21
1491090833395,1,23,-15,-2,56,36,107,-36,-19
1491090833441,2,-47,1,18,13,43,-82,-81,24
1491090833441,2,25,6,2,-34,-29,17,-39,-33
1491090833442,3,-5,-2,-14,-26,-6,-128,34,6
1491090833442,3,52,16,-4,-11,-9,91,35,22
1491090833443,1,20,23,17,8,35,4,-31,-12
1491090833443,1,23,-10,-10,-45,-35,6,-11,-29
1491090833444,2,41,-17,-22,3,-55,-114,6,62
1491090833444,2,1,6,8,-12,76,86,21,-29
1491090833490,3,23,19,12,17,-22,-74,-25,-14
1491090833490,3,-62,-15,3,43,45,35,9,-29
1491090833491,0,12,-7,-4,-73,-74,-3,67,-10
1491090833491,0,13,-7,-13,-20,-12,-44,-49,-3
1491090833492,2,43,14,1,9,-23,-52,-3,16
1491090833492,2,3,4,-2,-29,-64,-26,23,-7
1491090833493,3,-30,-18,-6,9,63,88,14,-38
1491090833493,3,24,12,-7,-40,-112,-30,53,30
1491090833539,0,6,-18,-10,13,57,-46,-31,-15
1491090833539,0,-94,12,8,48,51,97,55,8
1491090833540,1,46,-5,-8,-17,-63,-80,-3,-23
1491090833540,1,-28,-22,-3,-37,-22,29,4,-17
1491090833540,2,46,-25,-9,-14,-28,-90,-62,15
1491090833540,2,-8,26,18,37,6,-37,-1,14
1491090833542,3,-91,18,29,57,76,127,53,-22
1491090833542,3,-6,-10,-11,-49,-61,-123,3,-14
1491090833588,0,53,10,-5,-35,-7,65,26,14
1491090833588,0,-39,-26,-25,-25,-9,45,-73,-7
1491090833589,1,8,-24,-12,-10,-47,-116,-43,3
1491090833589,1,-15,13,7,32,39,25,-11,14
1491090833589,3,-31,16,19,-9,34,40,-14,7
1491090833589,3,-87,-32,-18,-19,4,81,-11,-21
1491090833590,0,45,3,-6,11,20,-45,-21,-8
1491090833590,0,-35,-45,-47,-73,-114,14,16,4
1491090833637,1,-9,13,4,2,59,103,-86,19
1491090833637,1,22,-32,-3,22,-9,-108,-26,-28
1491090833637,2,-102,10,17,37,50,127,53,-6
1491090833637,2,31,-7,-5,-33,-3,-128,-39,35
1491090833638,0,33,-13,-16,-34,-57,-76,-67,-9
1491090833638,0,-46,15,13,28,-35,-38,18,7
1491090833639,1,-15,-18,-7,-6,23,38,16,-4
1491090833639,1,-15,-12,-3,-10,-24,-13,24,13
1491090833685,2,-60,47,26,31,46,127,10,3
1491090833685,2,33,8,-5,-23,-25,-110,-56,-18
1491090833686,3,-35,-5,-9,-50,-55,107,66,-9
1491090833686,3,56,19,17,53,77,23,-64,15
1491090833687,1,33,-11,-22,-39,-96,-94,-41,16
1491090833687,1,-85,-5,-8,-8,18,22,21,-6
1491090833688,2,10,-11,-8,4,-25,-59,10,-1
1491090833688,2,-6,13,5,39,15,87,-20,-4
1491090833734,3,6,20,20,72,84,27,28,27
1491090833734,3,-48,7,7,-10,3,101,12,5
1491090833735,0,-16,-1,-1,-32,32,-13,-35,6
1491090833735,0,-37,10,-4,-43,-46,48,8,-12
1491090833735,2,-54,-7,-14,-38,6,-3,10,-55
1491090833735,2,55,-6,0,68,71,18,3,34
1491090833736,3,-52,4,18,68,22,101,36,20
1491090833736,3,-17,5,4,51,79,20,9,-20
1491090833783,0,-3,-22,-13,-69,-66,-79,35,-5
1491090833783,0,5,4,-1,-46,-77,-44,-55,-3
1491090833784,1,10,-19,-16,30,51,-73,-18,-46
1491090833784,1,-22,4,-11,-52,-103,-83,1,29
1491090833832,3,4,-20,-4,-30,-62,-76,-45,12
1491090833832,3,48,12,3,-11,19,23,47,11
1491090833832,0,-38,10,16,52,51,104,-100,-30
1491090833832,0,81,0,-10,-63,-18,-51,-23,-1
1491090833833,1,9,7,-9,12,-7,-8,-14,-8
1491090833833,1,-29,-1,7,76,87,37,36,-9
1491090833834,2,-6,12,-9,-55,-89,-58,-18,-15
1491090833834,2,38,6,3,-4,12,113,-8,62
1491090833880,0,-40,11,12,75,18,-14,-13,10
1491090833880,0,-35,-30,-8,9,52,-20,-77,-25
1491090833881,1,-34,36,3,-55,-33,-51,-32,-10
1491090833881,1,35,19,21,38,-6,-12,63,54
1491090833882,2,-36,-14,-13,5,72,-66,-51,-46
1491090833882,2,-5,-10,-20,-100,-110,14,20,25
1491090833883,0,17,0,2,1,-64,9,25,41
1491090833883,0,-26,2,-1,15,-17,-55,16,9
1491090833929,1,11,-13,7,2,-21,90,45,12
1491090833929,1,-56,17,21,41,52,42,-58,-44
1491090833930,2,-10,-19,-6,-64,-50,25,7,30
1491090833930,2,-57,-13,-17,3,61,35,81,-38
1491090833931,1,-19,-10,-13,20,81,36,-66,8
1491090833931,1,-76,18,25,49,26,56,57,-19
1491090833932,2,67,17,1,48,30,0,2,11
1491090833932,2,-54,12,13,9,-6,80,7,-43
1491090833978,3,37,-15,-24,-128,-128,-118,58,-30
1491090833978,3,0,-19,-31,-63,-33,22,-128,52
1491090833979,0,-33,-14,0,42,67,-20,-62,-31
1491090833979,0,18,-3,11,63,68,-23,78,27
1491090833979,2,-19,-4,-23,-69,-63,12,74,17
1491090833979,2,-28,-1,8,84,91,41,40,7
1491090833980,3,-73,-9,-1,11,-81,-32,-17,-7
1491090833980,3,-4,-19,-20,-96,-94,52,28,3
1491090834026,0,57,9,-11,4,-46,-96,-13,-2
1491090834026,0,-52,3,18,79,94,63,9,-33
1491090834028,1,-25,6,16,8,52,-4,15,56
1491090834028,1,-55,-7,-3,-34,-8,-23,10,-46
1491090834028,3,29,4,-17,-33,-14,0,-42,-8
1491090834028,3,-74,7,10,50,-5,27,-26,13
1491090834029,0,72,-14,0,3,36,-40,-13,-12
1491090834029,0,-47,-5,20,54,50,63,-28,-58
1491090834075,1,6,-12,-22,-80,-21,-109,-18,22
1491090834075,1,-11,-16,-12,1,2,14,-16,6
1491090834076,2,-44,-9,-1,14,9,113,51,6
1491090834076,2,25,6,3,-5,-17,-7,-50,5
1491090834077,0,20,1,-3,3,12,-39,-47,29
1491090834077,0,-4,32,7,-12,-55,72,5,-2
1491090834078,1,-58,-11,-6,-51,-28,35,-8,-24
1491090834078,1,58,-2,7,71,64,-10,20,23
1491090834124,2,-111,-14,11,17,-5,117,32,0
1491090834124,2,58,-15,-26,-62,-65,-98,-85,-41
1491090834125,3,4,9,-10,-43,-75,61,-17,-5
1491090834125,3,36,-16,0,39,69,16,15,5
1491090834126,1,-103,-3,11,48,120,127,9,-7
1491090834126,1,-18,-26,-17,-24,-128,-38,-45,-21
1491090834126,2,40,5,-18,-77,-18,-70,-32,-3
1491090834126,2,-38,19,13,57,68,63,3,10
1491090834173,3,46,32,24,54,45,65,13,67
1491090834173,3,30,56,22,-7,14,49,-73,-17
1491090834174,0,-41,12,15,9,58,3,10,-34
1491090834174,0,8,-5,-27,-128,-102,8,46,17
1491090834175,2,-21,-3,17,59,2,-9,35,10
1491090834175,2,-59,0,13,37,127,71,-35,-33
1491090834175,3,10,15,28,40,36,-2,98,7
1491090834175,3,-35,4,-16,-87,-128,-33,44,50
1491090834222,0,57,-8,-18,-7,-7,-128,-115,-45
1491090834222,0,-18,9,1,18,-4,127,99,26
1491090834223,1,-1,2,13,-7,-11,-33,-62,-10
1491090834223,1,-20,-23,-6,16,-8,-87,-7,-9
1491090834223,3,-54,2,-3,-83,-96,107,-53,-25
1491090834223,3,59,-31,-18,33,26,-116,0,1
1491090834224,0,-87,-4,-7,8,-59,115,-53,43
1491090834224,0,62,4,0,-82,-109,-128,-29,-17
1491090834270,1,-66,-11,-6,66,109,74,40,14
1491090834270,1,-28,-11,-3,-27,-55,119,-31,-61
1491090834271,2,-84,19,17,79,96,51,40,-13
1491090834271,2,63,17,32,55,76,-74,-2,33
1491090834272,3,-50,-3,-25,-117,-98,24,-30,-17
1491090834272,3,96,-21,-29,-73,-13,-74,13,29
1491090834273,0,-6,-24,-12,29,-22,60,-59,-21
1491090834273,0,-77,5,15,40,7,119,34,-9
1491090834319,1,-72,-7,12,46,31,28,53,-52
1491090834319,1,-65,20,17,-12,83,46,34,0
1491090834320,2,38,13,-4,-32,-119,-37,64,16
1491090834320,2,3,-35,-34,-30,-68,-128,-123,0
1491090834323,0,-75,12,12,-59,10,127,81,-42
1491090834323,0,37,-1,9,74,16,-25,8,58
1491090834325,1,-45,-1,3,8,10,45,-34,-39
1491090834325,1,-26,4,-10,-52,-72,-82,15,0
1491090834368,2,-71,-17,-6,24,25,73,-33,-28
1491090834368,2,22,-7,-9,-19,-20,-92,7,5
1491090834369,3,-7,22,8,-34,-29,68,-8,17
1491090834369,3,-29,-16,-9,6,-26,44,-57,19
1491090834370,1,30,2,-4,-15,-87,-125,-50,70
1491090834370,1,-21,-19,-12,-17,84,-32,-61,-56
1491090834465,2,18,-4,-10,0,-36,21,-11,43
1491090834465,2,-61,2,5,41,52,29,-36,-24
1491090834466,3,-59,-16,7,25,14,15,79,-23
1491090834466,3,-42,16,21,11,-6,127,53,-5
1491090834467,0,-30,-10,-13,-28,1,-128,-27,30
1491090834467,0,2,-3,-22,-85,-98,-26,-65,-53
1491090834468,2,-24,-22,5,68,112,62,12,1
1491090834468,2,-16,23,16,5,-11,-60,31,5
1491090834514,3,-75,-5,1,-9,33,90,32,15
1491090834514,3,12,28,24,25,-10,-72,-36,-4
1491090834515,0,-41,3,-13,-44,-36,70,50,18
1491090834515,0,14,9,-2,8,-77,-50,-16,1
1491090834515,3,-21,-7,1,20,47,-36,-62,-9
1491090834515,3,8,-18,-7,-4,-20,-31,29,-24
1491090834516,0,-17,-1,3,-6,-25,-40,50,15
1491090834516,0,-52,-9,-8,9,61,116,-16,-22
1491090834563,1,64,1,-10,16,-3,-128,-46,-9
1491090834563,1,-46,-3,23,63,60,127,86,9
1491090834564,2,-8,1,-3,-23,-30,-73,-100,-37
1491090834564,2,-32,-8,-6,-78,-50,-93,-39,-22
1491090834564,1,-32,11,26,55,123,92,85,-13
1491090834564,1,17,-5,-11,-49,-87,-82,-33,-1
1491090834565,2,-51,-28,-25,-60,-34,-31,-51,36
1491090834565,2,74,-4,-12,10,3,-26,-106,-1
1491090834611,3,-46,15,15,-1,-36,-38,104,16
1491090834611,3,-64,0,22,43,-34,45,-45,-4
1491090834612,0,14,1,3,6,79,34,-26,-28
1491090834612,0,-8,0,-21,-57,-18,-61,18,5
1491090834613,1,-41,0,-2,61,25,87,27,-11
1491090834613,1,-8,-1,6,-19,-47,-44,9,4
1491090834614,2,-48,2,12,4,80,4,-91,-70
1491090834614,2,9,-7,-22,-49,-86,41,74,21
1491090834660,3,-14,-13,-24,-27,-41,32,-32,-14
1491090834660,3,36,4,6,25,26,-75,-53,6
1491090834662,0,-2,11,19,23,18,90,30,-1
1491090834662,0,-51,10,21,55,127,75,72,10
1491090834663,2,-47,6,-8,72,76,-20,14,-2
1491090834663,2,-33,-4,11,-50,-104,12,-10,22
1491090834663,3,-15,11,-3,-27,-28,7,-20,-18
1491090834663,3,2,19,19,79,127,-29,-20,35
1491090834709,0,-46,-20,-6,-12,-94,-19,44,-14
1491090834709,0,-29,-8,-18,-47,-62,-38,-54,-1
1491090834710,1,9,2,1,-18,24,38,-34,14
1491090834710,1,-56,-17,-8,23,57,61,64,4
1491090834711,3,-87,32,23,10,33,4,-8,-24
1491090834711,3,2,-10,-21,-78,-54,-39,-56,-21
1491090834712,0,27,-31,-35,-25,-43,-101,13,27
1491090834712,0,-66,-15,-12,-21,-58,76,126,-15
1491090834758,1,65,-9,-9,20,18,-81,-117,1
1491090834758,1,-99,-2,18,39,100,127,-67,-26
1491090834759,2,17,6,-1,-42,-1,88,-49,25
1491090834759,2,-70,-20,-7,-14,-42,-13,-16,-24
1491090834759,0,-48,11,19,-63,-128,-109,27,25
1491090834759,0,0,-14,-2,-34,41,96,-13,-27
1491090834760,1,-60,-12,-25,-57,-64,-30,19,-11
1491090834760,1,19,-7,-12,37,-21,-101,-5,9
1491090834806,2,-8,2,2,63,78,53,30,2
1491090834806,2,-97,8,2,-27,39,12,69,12
1491090834807,3,-20,2,7,-1,-2,113,-85,-38
1491090834807,3,-9,-21,-19,-13,-37,-118,23,13
1491090834808,1,-35,-15,-21,-71,-112,-33,30,3
1491090834808,1,-69,-26,-23,-12,-18,-106,-74,-7
1491090834809,2,-48,7,0,-37,-98,81,15,12
1491090834809,2,33,-23,0,52,106,0,-76,-12
1491090834855,3,1,10,2,13,-70,-37,11,23
1491090834855,3,-37,11,10,2,0,106,51,42
1491090834857,0,11,8,0,-29,-31,70,40,-11
1491090834857,0,51,-8,-5,-3,36,-128,-16,20
1491090834858,2,-20,4,-5,-12,18,66,23,-16
1491090834858,2,-12,5,10,-22,-19,-5,-77,-11
1491090834858,3,14,-5,1,22,21,-101,36,3
1491090834858,3,-73,8,21,7,-12,117,71,8
1491090834904,0,58,-1,-6,16,61,-112,-42,9
1491090834904,0,-13,-19,-2,43,-5,62,71,-26
1491090834906,1,-23,3,10,-19,55,52,-30,-3
1491090834906,1,-7,-1,-8,-47,-65,-71,23,14
1491090834906,3,4,-20,-22,-21,-38,-54,-25,-17
1491090834906,3,38,-3,-2,23,-6,26,-5,58
1491090834907,0,-43,-7,24,41,77,64,-19,-38
1491090834907,0,-36,10,2,-6,-9,-51,-23,-8
1491090834953,1,-32,4,5,0,-25,127,71,9
1491090834953,1,19,16,12,-9,-4,-120,-112,-38
1491090834954,2,-49,-11,-24,-42,-27,-21,17,-3
1491090834954,2,59,-16,-27,-30,-7,-94,-81,8
1491090834955,3,-38,1,14,106,127,112,39,8
1491090834955,3,74,-11,-1,-79,-102,-79,-14,-20
1491090834956,0,-47,19,1,14,-37,95,29,5
1491090834956,0,-21,17,30,70,78,18,-21,1
1491090835002,1,-45,-6,8,47,-7,59,97,13
1491090835002,1,-11,12,-12,-57,-39,-21,-45,-15
1491090835003,2,3,-42,-34,-10,-36,2,-65,-22
1491090835003,2,-13,1,-3,22,-21,-33,-9,5
1491090835004,0,15,9,40,18,37,-28,16,18
1491090835004,0,-9,-13,-26,-25,-121,-76,-1,1
1491090835005,1,-7,-28,-51,-115,-40,-20,-31,-28
1491090835005,1,-43,-6,-17,69,54,64,20,15
1491090835050,2,-10,3,13,77,80,4,-26,19
1491090835050,2,-34,10,18,-2,81,30,11,-24
1491090835052,3,-57,16,23,25,31,64,-17,-18
1491090835052,3,68,14,-6,-97,-118,-128,-9,19
1491090835052,1,40,-11,-32,-121,-128,-118,-97,-6
1491090835052,1,-22,-18,-8,31,30,-27,-11,-10
1491090835053,2,-23,21,13,-2,-51,23,17,14
1491090835053,2,-35,2,-1,-2,-6,-2,-24,-18
1491090835100,3,-77,-5,2,13,74,92,89,18
1491090835100,3,-61,17,8,9,-55,31,10,10
1491090835100,0,-19,-1,-17,-60,-55,-89,-87,-54
1491090835100,0,15,12,19,31,80,57,71,52
1491090835101,2,-55,-1,-11,17,72,42,-14,27
1491090835101,2,28,-34,-46,-127,-114,-59,-40,-31
1491090835102,3,-49,-1,-11,1,27,44,31,12
1491090835102,3,4,-15,-4,83,104,-57,4,-9
1491090835197,0,-14,72,38,29,28,78,13,-11
1491090835197,0,-78,8,15,47,54,-1,-43,9
1491090835197,1,-58,-3,8,41,113,42,17,-1
1491090835197,1,30,-18,-15,-101,-128,-90,-36,3
1491090835198,3,-35,-10,-6,-23,-37,-15,-89,-44
1491090835198,3,-73,-28,-8,-7,17,47,-59,13
1491090835199,0,39,-4,7,57,10,2,78,-7
1491090835199,0,-95,7,-9,-63,-89,-57,-64,-16
1491090835246,1,21,2,-6,6,7,-62,30,21
1491090835246,1,-76,14,15,30,72,100,60,-17
1491090835247,2,-21,-14,12,57,65,37,-29,33
1491090835247,2,21,0,-2,-20,-85,-64,-15,-28
1491090835247,0,-71,5,-10,21,54,74,25,31
1491090835247,0,-62,-19,-3,17,-24,127,48,17
1491090835248,1,-16,-16,-29,-47,34,127,0,0
1491090835248,1,92,26,23,119,101,-46,52,64
1491090835294,2,-65,8,28,46,83,56,-82,-27
1491090835294,2,-24,12,23,14,-20,-46,31,-6
1491090835295,3,-57,21,2,-79,-42,60,-5,5
1491090835295,3,11,1,-4,3,-40,9,31,4
1491090835296,1,-56,-25,0,71,18,-98,-11,-35
1491090835296,1,-45,-48,-41,-128,-128,-35,-22,-30
1491090835297,2,19,2,-16,-46,-77,-24,-20,17
1491090835297,2,-21,2,4,61,56,16,9,-27
1491090835343,3,4,12,33,42,6,56,51,49
1491090835343,3,-22,21,27,62,127,19,-54,1
1491090835358,0,-20,-4,-1,17,6,14,43,17
1491090835358,0,40,-13,-31,-116,-88,-81,-49,-10
1491090835359,2,12,-9,-11,34,2,-83,-15,0
1491090835359,2,7,15,32,88,115,83,-12,1
1491090835360,3,-102,16,30,9,-37,64,48,-1
1491090835360,3,48,-24,-30,-110,-70,-51,-62,-44
1491090835392,0,-29,-11,-8,-7,-37,-20,16,3
1491090835392,0,-22,-14,-2,35,50,48,17,-23
1491090835392,1,34,-16,-10,5,3,2,11,-18
1491090835392,1,-16,0,-1,6,16,37,37,22
1491090835393,3,39,-2,-1,3,-8,-110,-86,-18
1491090835393,3,-13,7,-2,10,5,127,42,8
1491090835394,0,59,-1,-4,29,5,-27,-3,7
1491090835394,0,-69,3,15,30,81,14,31,12
1491090835440,1,7,31,5,-42,-86,-12,83,3
1491090835440,1,-73,-4,-12,-29,-11,11,27,-6
1491090835441,2,35,-18,-22,-34,-73,-37,-34,-8
1491090835441,2,-15,-8,-4,20,9,60,10,22
1491090835442,0,-51,-2,2,-48,-12,-24,-9,-7
1491090835442,0,-65,1,-5,1,20,-78,-23,-17
1491090835443,1,-32,-6,-7,-21,-37,-30,-18,-18
1491090835443,1,-6,19,8,28,17,40,37,28
1491090835489,2,-72,16,0,63,83,31,33,-10
1491090835489,2,23,-11,-13,-89,-86,-76,-69,6
1491090835490,3,-41,-13,-16,-17,-64,-31,-58,-9
1491090835490,3,-75,7,6,14,15,75,115,15
1491090835491,1,-73,4,16,57,104,55,1,-29
1491090835491,1,8,-17,-20,-53,-104,-128,-38,3
1491090835491,2,-97,-21,-20,-29,-19,90,-42,-23
1491090835491,2,-25,8,13,-9,-8,-85,-98,18
1491090835538,3,0,-1,-6,7,42,27,33,-13
1491090835538,3,-39,8,5,-16,-51,-54,-49,-18
1491090835539,0,-75,25,22,65,97,127,44,8
1491090835539,0,2,-15,-20,-79,-128,-101,33,-13
1491090835539,2,-29,17,14,62,112,-26,40,-12
1491090835539,2,-79,17,14,2,-32,127,46,3
1491090835540,3,14,-3,-15,-55,-84,-103,-17,26
1491090835540,3,-64,-4,-4,-32,-7,69,20,-22
1491090835587,0,-54,-8,8,37,59,-70,20,-20
1491090835587,0,56,-6,-24,-12,-67,-77,-85,-13
1491090835587,1,-46,12,-1,-55,-37,54,43,62
1491090835587,1,-61,-2,4,58,107,51,0,-49
1491090835588,3,73,-13,-22,-53,-116,89,-20,48
1491090835588,3,0,-9,-10,18,34,13,9,29
1491090835589,0,-27,5,16,29,57,-9,18,-20
1491090835589,0,-39,3,4,22,3,94,4,27
1491090835635,1,-48,11,16,-2,25,58,68,11
1491090835635,1,-7,-10,-5,2,-3,-88,-70,-18
1491090835636,2,62,4,-5,-17,-24,22,43,26
1491090835636,2,-46,4,-2,-1,-54,-16,-72,2
1491090835636,0,-28,-24,4,29,20,1,-11,-35
1491090835636,0,28,7,5,36,75,12,23,19
1491090835638,1,-85,10,17,34,-25,42,-6,-6
1491090835638,1,-41,-9,0,-14,26,-26,2,8
1491090835684,2,110,-15,-35,-79,-77,-44,-14,12
1491090835684,2,-40,-1,-2,26,36,21,9,3
1491090835685,3,15,-2,-17,-17,-82,-97,-42,3
1491090835685,3,-22,-3,3,25,26,5,52,-9
1491090835685,0,-57,31,24,25,5,80,2,-9
1491090835685,0,-10,-10,12,-22,28,122,37,31
1491090835686,1,36,15,-6,-4,37,-102,-40,-34
1491090835686,1,-51,-10,-4,10,-34,124,-40,19
1491090835733,2,65,-28,-22,-69,-48,-128,-49,1
1491090835733,2,-30,-16,-13,12,-5,118,46,-2
1491090835734,3,-8,-5,14,33,-42,0,25,-21
1491090835734,3,-15,21,25,66,96,97,-3,1
1491090835735,1,-40,-7,1,40,46,84,-34,-11
1491090835735,1,-26,1,7,-31,-82,-66,-1,-3
1491090835736,2,-71,7,12,11,121,2,19,-16
1491090835736,2,-6,-19,-18,3,-41,38,1,-2
1491090835782,3,-36,-4,-5,38,66,96,47,17
1491090835782,3,9,-10,-21,-59,-98,-94,-35,7
1491090835783,0,6,-15,-26,-68,-69,-59,-82,-13
1491090835783,0,-42,10,21,69,62,-19,30,-8
1491090835783,2,-54,-54,-18,-2,17,-100,31,5
1491090835783,2,-8,25,-5,5,-8,71,-55,-32
1491090835785,3,35,-27,-20,-14,-54,-128,2,27
1491090835785,3,-42,3,9,20,37,36,-28,22
1491090835879,0,-61,-7,-6,-13,-64,52,27,-11
1491090835879,0,-40,-3,5,-13,37,5,-26,-30
1491090835880,1,-36,21,14,27,9,99,9,-19
1491090835880,1,27,-11,-19,-109,-66,-123,-5,-5
1491090835880,3,19,30,13,-33,-49,-128,-7,27
1491090835880,3,-47,-19,-15,20,84,-4,-6,10
1491090835881,0,-25,22,5,20,-43,86,-16,-15
1491090835881,0,-42,3,-2,-8,39,30,-12,33
1491090835928,1,62,-9,-6,-15,-13,-85,-28,-29
1491090835928,1,-94,-11,-1,34,57,127,80,1
1491090835928,2,-15,-7,-15,-88,-80,-107,-43,10
1491090835928,2,-7,-24,-21,-38,-102,-87,6,-21
1491090835929,1,-91,-10,3,32,80,69,4,-15
1491090835929,1,-36,0,6,-41,-17,21,21,-12
1491090835931,2,3,10,-23,-67,-74,27,-16,58
1491090835931,2,-9,-21,-13,-20,6,-7,-2,-13
1491090835976,3,-28,8,-9,10,4,-54,-59,16
1491090835976,3,-7,10,13,56,41,-44,27,-22
1491090835977,0,-66,23,17,33,34,11,9,-35
1491090835977,0,24,7,2,11,-8,-59,-33,28
1491090835978,2,-86,-4,-1,-4,-67,24,67,-58
1491090835978,2,-26,-4,-11,-22,51,33,-51,-31
1491090835979,3,28,-20,-25,1,5,-128,-54,25
1491090835979,3,7,-29,-19,-16,-95,-119,-33,-44
1491090836025,0,25,-27,-25,-67,-57,-49,-12,-14
1491090836025,0,-24,-2,-4,6,-9,-36,13,41
1491090836026,1,-30,-12,2,21,9,79,13,-13
1491090836026,1,-55,-2,12,42,21,23,16,-14
1491090836027,2,-16,27,32,68,127,127,3,12
1491090836027,2,-57,-12,-7,-38,-3,21,6,-22
1491090836028,3,38,-28,-21,-29,-87,-81,25,9
1491090836028,3,9,-10,-21,-48,-26,-29,-4,-6
1491090836074,0,-37,1,11,61,84,65,-29,-29
1491090836074,0,5,17,12,-20,-24,76,76,31
1491090836075,1,20,-15,-21,-13,-40,-26,-71,-74
1491090836075,1,-36,-5,6,-12,-57,112,4,23
1491090836078,3,-65,27,11,-60,-35,70,6,22
1491090836078,3,-2,8,-16,-19,36,-60,-16,8
1491090836078,0,18,-2,9,69,3,40,-6,-14
1491090836078,0,-11,8,2,13,54,-23,12,5
1491090836123,1,-21,9,7,3,-81,67,52,5
1491090836123,1,-16,-4,12,47,124,56,-58,-15
1491090836124,2,7,52,16,-10,19,57,116,43
1491090836124,2,22,-27,-21,-6,-74,-63,-76,-29
1491090836125,0,-20,-19,-5,79,99,-44,-68,-19
1491090836125,0,10,5,0,-2,-65,60,-3,-30
1491090836125,1,-3,-15,-14,-23,53,-40,-1,4
1491090836125,1,-32,8,4,18,-12,-41,5,-21
1491090836171,2,-5,-5,5,-8,-66,-60,-26,52
1491090836171,2,-25,13,14,16,-27,-17,7,9
1491090836172,3,-43,-5,-6,8,92,42,-51,-36
1491090836172,3,-23,4,-4,10,28,48,24,25
1491090836173,1,-47,1,-3,-53,-97,90,7,-12
1491090836173,1,8,-61,-38,-76,-86,-104,12,-30
1491090836174,2,32,6,-16,-18,44,7,-54,-5
1491090836174,2,-15,15,19,42,13,8,-10,29
1491090836220,3,-57,8,17,19,21,1,25,8
1491090836220,3,-31,29,11,35,68,72,12,-2
1491090836221,0,-29,-7,1,26,-26,-29,-34,0
1491090836221,0,-27,-18,-3,-38,-37,19,10,-24
1491090836222,2,-25,6,4,8,59,63,85,24
1491090836222,2,-31,-31,-32,-14,-33,-26,-53,-39
1491090836223,3,44,-32,-29,-42,-102,-128,-80,39
1491090836223,3,-50,10,8,20,34,105,-32,-10
1491090836269,0,-46,21,19,12,29,123,47,-29
1491090836269,0,-53,11,18,22,46,-30,27,15
1491090836270,1,-41,-1,6,50,26,73,18,-2
1491090836270,1,-27,6,9,31,53,9,59,3
1491090836271,3,-20,0,6,65,89,108,-86,-10
1491090836271,3,-30,13,7,-12,-55,-34,6,14
1491090836272,0,3,-29,-13,-10,-35,-25,-13,10
1491090836272,0,-36,-6,-2,24,73,55,109,32
1491090836318,1,-92,-27,6,19,4,22,-21,-40
1491090836318,1,-20,35,20,19,33,-64,-38,-12
1491090836319,2,-29,-6,-11,-29,-10,127,94,12
1491090836319,2,37,22,6,-31,-13,-111,-23,5
1491090836320,0,-54,-11,12,20,1,-85,-96,-17
1491090836320,0,-55,13,12,1,43,49,-16,-33
1491090836320,1,-22,8,5,10,47,27,28,-21
1491090836320,1,-17,-49,-33,-79,-122,-98,-17,14
1491090836417,2,36,40,11,10,-42,71,77,30
1491090836417,2,-10,-56,-23,26,11,-66,23,14
1491090836418,3,30,18,4,-22,-40,20,20,1
1491090836418,3,-47,-2,-3,11,78,104,22,-18
1491090836419,0,45,-4,4,8,5,-102,-128,-54
1491090836419,0,-62,4,4,-5,30,127,29,11
1491090836420,1,-65,-5,-10,-24,-20,-6,30,22
1491090836420,1,1,-1,3,31,-28,-94,22,0
1491090836464,2,-5,-3,-7,-9,-19,-87,-36,-21
1491090836464,2,8,-7,-8,-14,31,87,-34,-19
1491090836465,3,-35,-6,-16,-83,-85,27,5,-6
1491090836465,3,28,-30,0,52,43,-13,-5,-15
1491090836466,1,-22,2,-3,6,-31,-14,17,-36
1491090836466,1,47,0,-11,-51,-26,-84,-98,-23
1491090836469,2,-43,-18,-15,11,-11,-13,34,-18
1491090836469,2,50,-25,-17,16,-26,-74,-13,6
1491090836513,3,6,25,17,64,58,10,35,29
1491090836513,3,-61,-6,10,22,28,70,8,9
1491090836514,0,-74,-6,0,-26,15,4,83,-38
1491090836514,0,-56,-6,-4,-37,-38,-7,-114,12
1491090836516,3,7,-7,-4,9,-6,-57,1,36
1491090836516,3,-11,6,4,-7,2,77,-46,0
1491090836517,0,52,46,38,73,109,22,-2,11
1491090836517,0,-55,2,12,38,10,-12,35,-17
1491090836611,1,-76,-17,-24,-94,-83,29,26,-2
1491090836611,1,19,16,-10,-62,-43,-17,-26,-48
1491090836659,2,29,-12,-13,59,66,-1,-4,71
1491090836659,2,-23,-12,-21,-44,-44,-10,11,-45
1491090836708,0,-38,-2,-2,-41,-44,79,-50,-10
1491090836708,0,-48,-3,-2,-41,-76,-10,0,4
1491090836708,1,-25,-9,-1,52,76,-81,48,-60
1491090836708,1,-55,-6,-11,-34,-41,28,63,22
1491090836709,2,18,5,16,54,89,73,-78,-4
1491090836709,2,-70,-16,-19,-23,-63,-22,3,4
1491090836710,3,-3,10,-14,-95,-59,127,-97,8
1491090836710,3,-10,-13,2,28,33,2,27,22
1491090836756,2,-15,-32,-35,-85,-67,-83,8,-30
1491090836756,2,35,9,2,-19,-81,-11,-125,23
1491090836758,2,-76,55,31,27,85,12,-32,-48
1491090836758,2,-34,-21,-20,-18,45,127,30,-27
1491090836758,3,38,4,-5,2,26,79,-58,-20
1491090836758,3,-53,14,19,15,-23,-3,40,-4
1491090836759,0,1,-13,10,21,13,30,-87,24
1491090836759,0,-29,4,4,3,98,2,35,-27
1491090836805,1,-13,-14,-15,-39,-80,-72,-67,9
1491090836805,1,-41,-6,-23,-28,-32,57,2,-7
1491090836806,2,43,-8,5,9,1,24,54,39
1491090836806,2,-101,-7,8,41,48,-4,-75,-48
1491090836807,0,-12,-3,-11,-44,-42,45,-61,-34
1491090836807,0,5,-9,-4,-14,-88,-11,-7,8
1491090836808,1,-20,0,7,43,83,9,48,27
1491090836808,1,-22,3,7,41,69,50,65,3
1491090836854,2,17,3,9,51,88,12,19,-30
1491090836854,2,45,-18,-15,-31,-58,-62,-57,-12
1491090836855,3,-39,-13,-18,-78,-38,99,-45,-18
1491090836855,3,27,-1,-13,-9,-63,-95,52,43
1491090836856,1,26,4,8,-13,-37,-128,-76,-46
1491090836856,1,-64,-14,-10,63,71,102,20,34
1491090836856,2,55,-9,-2,-33,-70,-128,-8,-22
1491090836856,2,-38,-2,-12,-63,-30,-17,29,-22
1491090836903,3,-48,10,20,69,110,72,31,7
1491090836903,3,-1,16,-3,-77,-128,10,-57,-24
1491090836904,0,-51,-11,-14,-6,88,-36,25,39
1491090836904,0,48,8,-9,4,-72,-19,-9,-1
1491090836904,2,-61,-13,2,49,27,-28,-10,-52
1491090836904,2,23,-8,8,-25,18,124,30,31
1491090836905,3,-46,-18,-13,-15,-56,-67,16,2
1491090836905,3,39,-2,-10,-31,-61,-128,-6,0
1491090836951,0,-10,-7,-10,-53,-29,39,-19,10
1491090836951,0,-68,0,2,32,24,18,-23,-27
1491090836952,1,13,-20,-10,-19,-29,53,2,-10
1491090836952,1,-47,41,34,66,109,87,32,35
1491090836953,3,-38,21,4,16,-7,28,4,9
1491090836953,3,-17,-30,-13,-3,32,26,-47,4
1491090836954,0,-33,-31,-15,-31,-45,-43,-44,-29
1491090836954,0,-46,16,11,61,48,-34,15,28
1491090837000,1,-65,30,23,49,72,76,80,66
1491090837000,1,-32,-36,-35,-45,-78,-97,-71,-70
1491090837001,2,-39,-2,-4,-91,-81,47,22,-56
1491090837001,2,10,-20,-28,34,72,9,-68,11
1491090837002,0,5,6,4,44,90,3,19,22
1491090837002,0,-117,-8,-3,-54,-114,63,48,-2
1491090837003,1,4,9,-12,-24,44,26,-28,-10
1491090837003,1,-24,-22,-22,10,-26,-22,13,-12
1491090837049,2,-43,-19,-5,-42,-60,-41,-35,-8
1491090837049,2,8,3,16,39,98,118,55,17
1491090837050,3,-10,16,1,-16,-95,-45,6,-25
1491090837050,3,-32,-24,-15,-43,18,-66,35,42
1491090837050,1,-50,8,8,43,46,24,-85,-52
1491090837050,1,-4,5,-6,-57,-7,-58,27,-34
1491090837051,2,-57,-5,-5,23,60,98,77,18
1491090837051,2,-17,32,11,-13,-49,-10,-81,-35
1491090837098,3,33,-3,-7,8,26,-104,36,-13
1491090837098,3,-45,-8,1,17,-13,25,32,9
1491090837098,0,9,0,-5,-15,16,85,46,-2
1491090837098,0,-61,-10,-19,-74,-69,45,-72,9
1491090837099,1,-22,8,23,28,6,-68,-15,2
1491090837099,1,-19,3,8,54,92,-36,25,-60
1491090837100,2,-45,-11,-3,-7,-65,70,-35,33
1491090837100,2,90,6,14,48,18,-123,32,67
1491090837147,3,-62,-8,-8,6,45,72,52,-6
1491090837147,3,-20,-2,12,-39,0,109,-68,12
1491090837148,0,1,-16,-23,-26,-26,-95,2,-1
1491090837148,0,7,7,-2,-6,-5,-56,20,-44
1491090837149,2,-17,2,6,35,19,1,36,-6
1491090837149,2,42,-2,2,-15,18,8,8,3
1491090837149,3,-5,0,-3,-25,-68,-122,29,7
1491090837149,3,-33,-2,7,4,-9,23,-38,-25
1491090837195,0,-22,-6,-5,-5,-65,61,-46,16
1491090837195,0,-22,3,7,63,118,-65,42,-22
1491090837196,1,-10,-11,-21,-105,-93,107,-23,16
1491090837196,1,19,14,0,-36,-41,-12,-1,-35
1491090837197,3,-7,-11,-6,-16,-15,5,-78,-7
1491090837197,3,-2,19,-2,17,-18,-3,-20,-17
1491090837198,0,20,-15,-22,-96,-83,-60,-31,-29
1491090837198,0,-41,-11,-7,21,73,22,-7,7
1491090837244,1,45,0,21,47,-6,-51,15,46
1491090837244,1,-25,3,-11,-58,-47,-30,-32,15
1491090837245,2,-96,-9,12,71,127,75,18,-44
1491090837245,2,59,-11,-11,-32,-126,-75,-23,54
1491090837246,0,11,0,-5,-29,-108,-49,-1,18
1491090837246,0,-39,10,13,15,91,95,56,-14
1491090837246,1,-13,-9,4,69,48,-77,-43,8
1491090837246,1,-60,-52,-14,-7,32,57,-4,16
1491090837293,2,-40,42,14,-13,9,-77,87,3
1491090837293,2,-68,-12,-10,-37,31,94,-78,-42
1491090837294,3,21,-18,-21,-56,-113,-84,-11,-18
1491090837294,3,7,7,11,51,74,67,97,33
1491090837294,1,-3,-11,-14,-24,49,62,-65,-27
1491090837294,1,-15,19,11,19,-55,-19,-12,35
1491090837295,2,-9,19,17,65,119,26,10,-63
1491090837295,2,20,9,11,-4,-41,-30,34,24
1491090837341,3,-27,1,-15,-24,-25,80,37,-11
1491090837341,3,-32,-1,7,1,-67,-49,-43,9
1491090837342,0,-37,-2,0,13,63,35,-2,16
1491090837342,0,-38,7,-20,-64,-63,-60,22,-67
1491090837343,2,-57,-4,-4,-35,-31,92,-25,-4
1491090837343,2,-50,-15,2,42,64,16,20,-10
1491090837344,3,-102,-20,10,18,7,97,-4,5
1491090837344,3,-62,11,-2,-30,32,-17,35,-34
1491090837390,0,41,14,3,-4,-42,-106,-66,48
1491090837390,0,38,-22,-30,-69,-80,-49,7,-8
1491090837391,1,-58,-8,-6,-20,-15,-13,-51,-2
1491090837391,1,3,-17,-1,57,7,77,-1,-19
1491090837392,3,-69,6,-4,-23,-20,24,43,-27
1491090837392,3,28,-17,-15,-34,-28,95,-20,-22
1491090837393,0,29,-8,8,2,-49,-112,5,23
1491090837393,0,-75,7,18,61,92,54,16,-2
1491090837439,1,3,17,-7,-41,-19,44,60,57
1491090837439,1,-26,-8,-4,-4,-7,-59,-47,-33
1491090837488,2,-8,-11,-10,2,-17,126,87,19
1491090837488,2,1,11,24,-1,21,34,-15,4
1491090837489,3,-59,-1,-12,-35,-23,-7,16,-27
1491090837489,3,17,20,3,-10,-38,35,23,12
1491090837489,0,24,-14,0,29,-56,-83,-78,0
1491090837489,0,-68,-15,-8,49,60,62,22,-18
1491090837490,1,52,-23,-21,-68,-77,-57,-5,-18
1491090837490,1,-76,-27,-14,-45,-39,52,-11,7
1491090837536,2,5,24,17,39,57,52,91,50
1491090837536,2,-47,-25,-9,22,-8,24,15,-29
1491090837538,0,-18,2,-2,-116,-111,-18,3,-51
1491090837538,0,-39,3,-9,-31,21,87,68,25
1491090837538,1,-6,-14,-8,51,26,-54,-60,-7
1491090837538,1,-93,12,15,14,-6,-50,-26,-9
1491090837539,1,7,15,15,68,15,65,50,39
1491090837539,1,14,21,14,31,74,-24,34,-19
1491090837585,2,-71,1,9,19,15,-5,-5,-13
1491090837585,2,0,30,-2,-19,-21,7,-51,48
1491090837586,3,-14,-2,10,2,-25,-83,5,-23
1491090837586,3,-14,-15,-7,-37,-70,73,84,-16
1491090837587,2,-11,-16,-12,-21,-39,84,-16,-23
1491090837587,2,-38,20,40,59,127,87,47,25
1491090837588,3,-29,-1,8,4,-21,-11,-7,-15
1491090837588,3,-29,-7,-16,-50,-55,80,-76,-29
1491090837634,0,18,-12,-21,-30,-25,-92,27,18
1491090837634,0,-39,8,10,56,44,81,-77,-73
1491090837635,1,13,-21,-3,10,-8,-57,41,51
1491090837635,1,-62,15,12,5,45,33,-3,4
1491090837635,3,-46,12,7,36,19,-9,2,-7
1491090837635,3,-43,-17,-15,0,-13,67,32,-27
1491090837636,0,-8,-2,-4,-18,-20,-57,-14,30
1491090837636,0,-27,2,-7,-38,-67,15,75,-13
1491090837683,1,-33,-8,-2,3,-26,16,9,-2
1491090837683,1,19,6,7,45,94,-75,34,47
1491090837684,2,-53,-19,-10,-9,-55,18,33,-21
1491090837684,2,-7,8,-3,-7,47,-27,-58,-17
1491090837684,0,-53,-16,18,83,100,-69,-50,-29
1491090837684,0,-12,9,-1,-41,-94,-80,-58,6
1491090837685,1,-32,-14,-18,-68,-34,-10,20,-41
1491090837685,1,-18,-6,-8,-12,33,55,-7,16
1491090837731,2,-17,21,-5,-3,-31,53,36,-6
1491090837731,2,-29,-12,1,71,99,-20,19,3
1491090837732,3,-43,6,8,-4,-29,17,-84,2
1491090837732,3,19,-17,-34,-114,-80,-35,8,-13
1491090837733,1,-51,5,13,18,78,-39,61,-7
1491090837733,1,-57,-12,-13,-38,-6,-82,-56,-23
1491090837734,2,-34,13,1,1,2,110,9,38
1491090837734,2,-3,-13,-1,59,65,-5,28,-29
1491090837780,3,-74,-13,-2,20,29,9,-9,-13
1491090837780,3,-46,-15,-2,-72,-114,16,-14,-1
1491090837781,0,-3,6,-12,-91,-76,-20,20,-5
1491090837781,0,-29,-3,-13,-5,-21,-13,13,24
1491090837781,1,-18,-14,5,70,74,77,-73,-10
1491090837781,1,-11,15,18,91,85,-73,55,42
1491090837783,2,-49,0,-2,8,52,79,-7,-30
1491090837783,2,-58,-19,-5,-33,-89,-33,-42,-13
1491090837829,3,4,6,-17,-69,-35,68,7,27
1491090837829,3,-29,-28,-5,20,9,-98,-40,-43
1491090837830,0,-63,18,24,63,62,77,5,5
1491090837830,0,48,-27,-17,-37,19,-33,22,13
1491090837831,2,-30,-16,-9,-1,-26,-9,-23,-14
1491090837831,2,15,-15,-9,29,81,-23,22,-21
1491090837832,3,-62,14,24,77,92,124,61,26
1491090837832,3,121,20,5,-17,-7,-43,-73,-13
1491090837878,0,-39,-24,-14,-42,-79,-108,-12,-5
1491090837878,0,-61,-11,-10,-20,-16,52,-9,3
1491090837879,1,-24,8,6,5,21,-5,-25,7
1491090837879,1,-79,16,26,48,23,-4,21,-59
1491090837880,3,75,-13,-11,-52,-94,-128,-102,-23
1491090837880,3,-93,-1,-14,6,-8,121,38,22
1491090837880,0,54,-4,-8,-34,-21,-72,-49,-3
1491090837880,0,-61,9,-11,-20,-26,58,8,-37
1491090837926,1,7,2,12,49,-5,30,68,31
1491090837926,1,-26,-5,13,50,82,-65,52,-1
1491090837927,2,52,-5,-11,10,-16,11,33,55
1491090837927,2,-1,5,-6,-42,-43,-34,-128,-34
1491090837928,0,-1,-3,-4,-6,-31,-69,18,-3
1491090837928,0,-8,-14,-8,-57,-24,44,23,28
1491090837929,1,33,-11,-13,-9,22,-51,8,-9
1491090837929,1,-45,8,0,4,-25,76,18,-5
1491090837975,2,-38,15,19,66,93,45,25,-33
1491090837975,2,-5,-9,-16,-40,-59,-72,-88,9
1491090837976,3,-10,6,12,5,43,-20,-24,0
1491090837976,3,5,22,10,27,17,16,68,4
1491090837976,1,-62,10,-16,-108,-39,-80,8,13
1491090837976,1,-7,-12,-13,-5,-10,86,-18,35
1491090837978,2,-26,-7,-3,-29,-84,-101,-29,-42
1491090837978,2,29,7,15,71,104,-7,25,43
1491090838024,3,-14,23,26,35,43,69,19,17
1491090838024,3,13,-2,-5,-48,-67,-28,-23,-2
1491090838025,0,-103,3,4,33,58,127,96,26
1491090838025,0,-3,6,4,16,-39,-125,-11,-5
1491090838025,2,33,-33,-28,-44,-91,-77,-91,45
1491090838025,2,-32,3,-12,28,85,103,65,-27
1491090838026,3,10,0,18,66,18,35,-41,-16
1491090838026,3,-40,-14,-9,-25,-3,0,-57,-38
1491090838121,0,-7,7,5,-14,35,0,0,17
1491090838121,0,-64,-7,9,34,21,86,98,-9
1491090838122,1,-40,0,-6,-38,-13,-71,-102,-22
1491090838122,1,29,-3,-15,-14,-17,28,-32,9
1491090838123,3,59,35,13,55,61,2,56,18
1491090838123,3,-85,-14,-7,-20,-26,-4,-4,12
1491090838124,0,-27,11,16,61,85,91,19,-25
1491090838124,0,-42,-24,-2,7,46,-25,-26,-6
1491090838170,1,-17,-34,-45,-85,-105,-14,29,-3
1491090838170,1,5,8,1,-30,-59,-106,13,-4
1491090838219,2,-21,15,-1,37,66,-27,20,-11
1491090838219,2,-49,13,28,15,-15,28,-13,-7
1491090838220,0,-22,2,4,11,66,-78,-13,-41
1491090838220,0,-70,-15,-29,-48,-38,56,79,-1
1491090838221,1,-23,-18,-5,-52,-74,-57,-70,0
1491090838221,1,-24,11,-6,13,120,68,6,1
1491090838221,2,-7,5,-12,-19,-69,-84,-52,-4
1491090838221,2,-53,-11,0,29,26,21,-11,-17
1491090838268,3,16,-30,-19,13,-41,-66,3,7
1491090838268,3,-31,2,5,-17,-18,64,1,19
1491090838269,1,-65,19,10,9,4,6,-28,-47
1491090838269,1,-23,-3,6,4,46,81,-29,-3
1491090838270,2,-46,38,3,-12,5,34,-37,-4
1491090838270,2,63,-3,-11,-68,-51,-63,46,-12
1491090838271,2,-10,-21,-7,-21,-7,76,9,-44
1491090838271,2,3,-12,-5,-26,-23,-89,-32,17
1491090838317,3,-17,-6,-6,7,-25,68,34,9
1491090838317,3,-41,-23,7,24,-37,-81,21,-22
1491090838318,0,-22,2,2,-3,68,31,97,-27
1491090838318,0,20,1,10,23,8,-39,-78,10
1491090838319,3,-34,4,7,6,7,107,84,29
1491090838319,3,57,9,18,43,90,-79,-95,-13
1491090838320,0,-22,-19,-17,-72,-98,-25,47,-8
1491090838320,0,-11,-12,-15,-25,-52,-9,10,24
1491090838366,1,4,5,14,33,27,12,-47,-22
1491090838366,1,-51,-8,-3,5,6,120,111,53
1491090838367,2,0,12,5,-13,9,42,-38,-22
1491090838367,2,31,14,13,31,-8,-108,-73,-17
1491090838368,0,93,17,-9,-50,-59,-99,-69,29
1491090838368,0,-82,-22,-36,-65,-97,-12,-30,-18
1491090838369,1,-13,16,20,74,121,98,-47,24
1491090838369,1,-38,-18,0,85,92,33,73,-22
1491090838414,2,-53,12,21,-18,-2,78,93,7
1491090838414,2,-11,-4,-24,-75,-33,-41,14,-14
1491090838415,3,27,3,-9,-22,-58,-29,-28,23
1491090838415,3,-16,5,-14,-11,-47,-95,13,-1
1491090838415,1,7,-9,-9,-36,-71,-88,36,-11
1491090838415,1,4,8,-7,-34,-3,4,-62,32
1491090838416,2,-45,-22,-3,-18,-70,23,13,-47
1491090838416,2,-33,20,14,14,85,19,-7,-1
1491090838463,3,-11,8,7,48,80,111,-2,21
1491090838463,3,15,-26,-17,-67,-128,-125,-1,-10
1491090838464,0,-57,-8,-18,-9,77,127,-17,-5
1491090838464,0,-3,-14,-1,55,15,12,25,8
1491090838465,2,-12,-11,-18,-27,-5,14,-70,-26
1491090838465,2,-14,-5,15,31,-11,51,96,-29
1491090838466,3,-56,-2,4,64,80,-32,-45,11
1491090838466,3,-18,-18,-20,-72,-81,-89,-50,-29
1491090838512,0,37,-16,-36,-58,-59,-59,-90,39
1491090838512,0,-81,-23,-27,38,54,103,26,-44
1491090838512,1,18,13,17,31,4,-109,15,-21
1491090838512,1,-49,11,29,104,127,66,14,21
1491090838513,2,-60,22,14,18,14,45,79,-14
1491090838513,2,-47,-7,-14,-60,-121,-22,-71,19
1491090838514,3,-64,3,-24,-93,-92,32,46,6
1491090838514,3,-46,14,22,23,5,76,13,-11
1491090838560,0,-46,-16,-3,53,64,-56,-1,14
1491090838560,0,-11,-7,0,4,1,-77,-67,8
1491090838562,1,-62,11,-4,-54,-80,-21,42,-29
1491090838562,1,-50,23,13,16,84,16,37,0
1491090838563,3,-68,-8,-20,-32,-26,68,13,46
1491090838563,3,8,19,-3,9,-37,-42,1,-12
1491090838567,0,-28,2,7,58,66,77,17,-5
1491090838567,0,-7,22,11,8,-34,-48,17,-6
1491090838609,1,-1,-7,-7,-16,14,-70,-99,-16
1491090838609,1,0,-20,10,23,61,81,-16,3
1491090838610,2,-74,37,25,43,18,19,71,-21
1491090838610,2,-12,-3,0,-42,-41,-51,7,19
1491090838610,0,-46,-18,-23,-70,-43,-43,-41,-34
1491090838610,0,-2,-18,-10,77,24,-58,14,-19
1491090838611,1,19,5,22,21,93,108,9,18
1491090838611,1,-35,-3,-7,-3,-34,-4,-2,16
1491090838658,2,-2,-2,10,-8,5,52,-8,-1
1491090838658,2,-27,40,24,27,37,49,28,-4
1491090838659,3,-17,-25,-18,42,7,-95,41,4
1491090838659,3,-10,-4,8,-44,-32,-32,-108,-32
1491090838659,1,-19,-9,11,33,65,61,22,13
1491090838659,1,27,11,1,3,-8,15,77,26
1491090838660,2,-48,-12,-3,-4,-72,-45,-69,-10
1491090838660,2,-29,-11,-2,-6,19,-15,-11,4
1491090838706,3,-27,5,-12,-22,-61,41,67,-4
1491090838706,3,-23,-17,-18,-28,-80,-11,7,-14
1491090838707,0,12,-2,18,96,127,-9,-3,37
1491090838707,0,6,1,-6,-58,-113,58,-10,-26
1491090838708,2,-53,6,14,19,-43,75,-13,4
1491090838708,2,13,9,20,76,127,-53,2,28
1491090838709,3,-23,3,-17,-53,-88,4,-35,-26
1491090838709,3,-2,-17,3,20,14,77,31,-1
1491090838755,0,-21,10,-12,-22,-31,59,-65,13
1491090838755,0,-1,5,8,-71,-85,-73,8,7
1491090838756,1,-53,17,3,28,19,-26,-32,-21
1491090838756,1,-20,-5,-16,-22,25,-16,25,-1
1491090838757,3,-48,4,9,16,21,-41,35,-24
1491090838757,3,-1,1,11,-10,-39,18,-21,32
1491090838758,0,-30,22,-1,-19,-13,-92,12,5
1491090838758,0,-45,-14,0,74,76,127,55,36
1491090838804,1,-21,18,-11,-90,-20,-34,20,-10
1491090838804,1,-29,-72,-55,-63,-59,-18,-107,-80
1491090838805,2,10,22,11,-9,-45,4,37,30
1491090838805,2,-11,19,2,13,59,-14,37,15
1491090838805,0,-36,-2,1,-1,14,-76,82,-74
1491090838805,0,-13,-10,-17,14,45,51,-96,8
1491090838806,1,16,2,6,0,-57,-3,-39,-2
1491090838806,1,-63,-27,-31,-70,6,5,-31,-39
1491090838853,2,-4,11,6,-24,-88,-90,75,4
1491090838853,2,-43,-21,-23,-70,-71,-55,-49,-19
1491090838854,3,-22,-16,-21,-6,-36,12,2,-5
1491090838854,3,-24,13,17,82,60,-17,-35,12
1491090838855,0,-78,15,21,93,127,127,102,28
1491090838855,0,-30,-2,5,-40,-97,-86,-108,-32
1491090838855,1,1,-16,-21,-58,-4,20,23,7
1491090838855,1,-38,-8,-28,-35,-85,-47,-35,-21
1491090838901,2,-65,-15,3,37,46,91,51,-5
1491090838901,2,-55,14,14,31,-40,13,-25,-17
1491090838902,3,-30,33,22,20,53,-81,-12,12
1491090838902,3,-5,22,-1,-18,36,44,88,31
1491090838903,1,-96,-34,-16,44,-7,56,0,-8
1491090838903,1,-21,24,28,13,21,38,-114,-29
1491090838904,2,3,1,25,12,75,0,34,1
1491090838904,2,-120,13,13,28,26,117,-1,-40
1491090838950,3,-28,-32,-47,-90,-85,-19,-72,-2
1491090838950,3,-9,5,-30,12,-120,-93,-37,16
1491090838951,0,0,-27,-1,35,64,-77,-56,6
1491090838951,0,-81,14,-3,-44,89,78,52,-14
1491090838951,2,-15,31,14,46,20,-6,-112,-22
1491090838951,2,-66,24,41,52,114,25,35,9
1491090838952,3,-27,-4,-14,-41,-33,-5,11,-6
1491090838952,3,-6,-6,-13,-58,-43,34,34,-25
1491090838999,0,-83,-30,-35,-44,-99,38,14,3
1491090838999,0,28,3,-2,32,39,65,-24,21
1491090839000,1,-16,-36,-11,-8,-24,-66,50,4
1491090839000,1,-56,-10,23,57,112,-73,-24,-17
1491090839001,3,30,-2,-7,-42,-3,-23,9,12
1491090839001,3,-32,-3,-10,-12,-71,14,24,-17
1491090839002,0,-3,-24,-22,-96,-70,19,-36,-5
1491090839002,0,-22,12,1,-34,-66,5,71,10
1491090839048,1,11,-17,-4,44,7,-16,-38,-22
1491090839048,1,-58,5,18,70,123,98,21,-6
1491090839049,2,46,-9,-8,53,66,-126,-59,51
1491090839049,2,-13,-43,-22,-35,-90,64,88,6
1491090839050,0,-24,-13,5,43,36,115,-52,3
1491090839050,0,15,-6,-8,-20,-8,-34,-98,-24
1491090839050,1,-83,3,-6,-58,-34,-44,62,-10
1491090839050,1,81,3,-16,-30,-107,-127,-91,46
1491090839096,2,-16,10,-5,24,-1,46,-10,1
1491090839096,2,-5,-3,20,63,72,16,53,32
1491090839097,3,-91,-1,-1,-15,24,127,35,27
1491090839097,3,-6,-6,-14,-17,-19,-50,-88,-31
1491090839098,1,-54,10,15,113,93,127,15,20
1491090839098,1,72,-27,-10,-16,-7,-73,-16,3
1491090839099,2,-29,-11,-26,-60,-91,9,14,12
1491090839099,2,-24,-7,-24,-84,-112,-82,23,-16
1491090839145,3,-44,16,12,30,48,100,-84,13
1491090839145,3,8,1,8,43,56,-62,-37,-15
1491090839146,0,-39,-7,2,44,12,74,118,7
1491090839146,0,-44,30,15,-45,-3,-11,-100,-46
1491090839147,2,-52,8,0,66,96,-17,-4,22
1491090839147,2,49,-21,-22,-18,-128,-44,94,20
1491090839148,3,-26,-13,-14,-32,-5,8,-25,-14
1491090839148,3,-38,0,10,7,4,27,-37,13
1491090839194,0,-62,-18,-16,-37,-58,4,-29,-19
1491090839194,0,-55,11,3,27,44,24,14,-6
1491090839195,1,-19,5,23,57,35,92,41,6
1491090839195,1,-57,13,4,1,33,-95,41,-11
1491090839196,2,6,20,32,59,96,13,-73,35
1491090839196,2,-65,-16,-17,-59,-37,-29,55,-36
1491090839197,3,-9,15,1,-57,-38,-16,-2,-17
1491090839197,3,13,-5,-11,10,-37,8,-20,22
1491090839243,0,-75,-10,-9,-2,-3,89,-32,-53
1491090839243,0,-5,-7,11,58,37,-101,-60,12
1491090839244,1,-28,14,-6,-28,-51,50,80,1
1491090839244,1,-101,6,4,-7,71,36,86,8
1491090839244,3,-63,14,18,65,59,-26,34,18
1491090839244,3,-93,2,20,49,62,98,-14,-20
1491090839245,0,-37,10,6,-63,-41,8,122,-20
1491090839245,0,-64,-21,-37,-66,-56,11,7,0
1491090839291,1,27,-18,-8,-22,0,14,-61,6
1491090839291,1,-17,-11,-14,34,-27,-62,-78,-69
1491090839293,2,-57,-7,-4,24,4,49,-75,11
1491090839293,2,-18,12,18,10,43,120,101,-11
1491090839293,0,-81,-23,-21,15,3,53,67,28
1491090839293,0,-16,-48,-53,-95,-54,-124,-31,-48
1491090839294,1,-14,-11,-7,64,-1,13,38,23
1491090839294,1,-106,14,10,-66,-40,127,6,2
1491090839340,2,21,13,9,45,53,-128,-7,2
1491090839340,2,-22,-1,15,78,77,57,-3,14
1491090839342,3,-8,-56,-18,-36,-89,-63,52,2
1491090839342,3,-16,2,-16,-17,-10,-63,-41,-18
1491090839343,1,-55,13,9,17,63,48,37,38
1491090839343,1,-7,-33,-3,31,-31,36,76,1
1491090839343,2,68,22,-12,-59,-107,-128,-78,30
1491090839343,2,-102,-11,-10,-40,-48,35,68,-17
1491090839389,3,51,26,6,-7,53,43,-19,24
1491090839389,3,13,-14,-13,28,18,19,-7,-28
1491090839391,0,-15,21,11,13,4,-6,20,22
1491090839391,0,-33,2,5,37,-4,-1,-47,9
1491090839392,2,59,9,11,16,123,96,24,-46
1491090839392,2,26,0,0,43,-57,-46,-27,15
1491090839393,3,-63,5,-9,-70,-65,-30,4,-47
1491090839393,3,49,-1,-27,-20,-62,-75,-3,43
1491090839438,0,-101,-14,12,26,30,43,52,13
1491090839438,0,-15,-43,-20,-14,28,-6,-44,-24
1491090839439,1,0,-32,3,59,86,24,-55,9
1491090839439,1,-7,23,21,40,81,61,-6,22
1491090839439,3,-43,-17,-11,-11,-35,-55,5,-1
1491090839439,3,-24,18,28,82,96,114,-32,-26
1491090839440,0,-34,-7,3,-35,-32,1,42,21
1491090839440,0,-20,37,25,1,-51,88,-34,-1
1491090839486,1,-50,-38,-22,5,45,21,123,-29
1491090839486,1,32,3,-25,-117,-104,-42,-85,-19
1491090839488,2,17,-30,-29,40,-19,-100,-10,-11
1491090839488,2,-28,1,4,50,9,76,49,23
1491090839488,0,-16,8,-10,-54,-56,-18,-20,3
1491090839488,0,-63,8,15,-62,-6,19,-25,-48
1491090839489,1,-30,12,-5,69,67,3,-12,53
1491090839489,1,-32,2,-5,-22,-56,-10,82,27
1491090839535,2,-31,-21,-22,-69,-61,-3,-94,-34
1491090839535,2,-8,-19,-34,49,9,-85,10,25
1491090839537,3,25,3,0,32,27,-4,31,-28
1491090839537,3,-47,-5,9,76,68,70,-16,2
1491090839537,1,-42,-22,-11,-96,-123,-70,-68,-63
1491090839537,1,-77,-12,-25,-75,8,47,14,27
1491090839538,2,-50,-15,-14,-6,-14,75,79,4
1491090839538,2,-62,-27,-4,26,16,-12,-78,-2
1491090839584,3,-31,14,19,-36,-38,-3,-20,13
1491090839584,3,16,3,-2,9,-80,-61,-28,-3
1491090839585,0,-46,0,6,1,13,42,63,-35
1491090839585,0,2,-5,-10,17,45,-8,-15,31
1491090839586,1,-6,-5,-11,-35,-45,-109,-19,-29
1491090839586,1,-56,-2,1,-13,15,114,58,56
1491090839587,2,2,43,27,103,89,-72,6,-24
1491090839587,2,-76,-29,-3,-20,34,106,86,-26
1491090839633,3,28,17,-3,-68,-106,-83,-64,27
1491090839633,3,-79,-11,-18,18,102,65,26,-45
1491090839634,0,-7,9,24,79,5,-70,-28,45
1491090839634,0,-46,8,-3,-30,5,127,35,3
1491090839634,2,-14,-1,7,62,77,42,-84,29
1491090839634,2,-78,7,11,-1,-9,-69,-14,-31
1491090839681,3,-32,3,-2,0,14,81,17,46
1491090839681,3,-85,-4,7,-9,-30,-127,69,-16
1491090839682,0,74,-1,-28,-55,-91,-42,5,-18
1491090839682,0,-39,3,-2,15,-6,60,42,2
1491090839683,1,-31,-1,10,69,41,-114,-15,-80
1491090839683,1,-106,12,20,9,57,127,60,-19
1491090839684,3,-1,-3,-20,29,-15,-85,-106,26
1491090839684,3,8,-4,9,49,61,114,15,33
1491090839730,0,-97,8,4,-55,-94,-98,32,-27
1491090839730,0,-27,10,12,-20,77,-90,-102,-7
1491090839731,1,-46,-4,6,17,-34,81,31,-4
1491090839731,1,-25,-9,-2,82,93,-128,-72,-16
1491090839732,2,-27,-2,3,25,10,127,73,50
1491090839732,2,-33,-39,-12,-37,11,62,14,-23
1491090839733,0,-48,-37,-13,-15,-62,38,23,-15
1491090839733,0,16,0,-11,29,-51,-104,-128,-2
1491090839779,1,10,-62,-21,28,75,38,34,-6
1491090839779,1,-69,22,11,-69,-128,-52,-27,35
1491090839780,2,8,16,-2,-4,108,-104,-29,-3
1491090839780,2,-9,34,36,104,28,112,76,61
1491090839780,1,-7,26,25,76,69,2,-56,13
1491090839780,1,3,10,28,80,25,65,103,7
1491090839781,2,-6,7,6,0,69,127,-28,28
1491090839781,2,-56,1,0,22,42,20,-11,-1
1491090839828,3,25,-17,-21,-47,-79,-119,-14,-16
1491090839828,3,-22,-5,-7,-42,-62,11,37,-9
1491090839829,0,-17,4,20,31,44,41,-49,24
1491090839829,0,-36,26,16,-25,-23,72,-40,-24
1491090839829,2,-20,3,-6,0,19,71,56,-17
1491090839829,2,-20,-5,-9,-38,-71,-38,-52,-31
1491090839830,3,-9,-25,-27,-67,-45,-49,54,1
1491090839830,3,12,-33,-36,-26,0,51,-127,15
1491090839876,0,-12,23,10,82,36,46,112,31
1491090839876,0,21,10,16,38,75,-93,-82,-16
1491090839878,1,-121,3,27,42,50,127,65,-30
1491090839878,1,13,-3,3,-62,-104,-128,-83,-25
1491090839878,3,3,0,9,43,10,-2,-39,-21
1491090839878,3,-100,-7,10,79,112,127,35,-22
1491090839879,0,24,5,-11,-71,-108,-108,-75,35
1491090839879,0,50,-5,-38,-33,30,-35,102,-1
1491090839925,1,9,-26,-19,-1,-34,-79,-69,23
1491090839925,1,-83,-6,9,28,37,-53,-105,-66
1491090839926,2,17,16,22,63,54,88,110,-14
1491090839926,2,-82,-25,-1,-21,7,31,38,17
1491090839927,3,11,39,12,-83,-33,17,-37,59
1491090839927,3,-53,-8,-21,-69,-113,-65,-61,-45
1491090839928,0,-76,4,13,45,61,58,57,-34
1491090839928,0,20,-1,-11,32,-23,15,-61,17
1491090839974,1,-75,-34,9,36,24,-65,-39,-4
1491090839974,1,-25,4,-18,-74,-101,-16,33,38
1491090839975,2,4,-23,-13,19,82,-44,-41,10
1491090839975,2,-56,22,19,79,9,64,17,38
1491090839976,0,-23,-5,5,-30,-83,-49,33,17
1491090839976,0,23,32,0,71,116,58,-63,-1
1491090839976,1,-41,27,15,10,-86,22,74,10
1491090839976,1,-70,-8,-9,-50,-26,100,4,-14
1491090840023,2,-86,3,-4,-6,-66,39,29,-22
1491090840023,2,-57,-34,-21,-89,-54,-128,-51,-25
1491090840023,3,34,0,-2,75,73,53,-64,-10
1491090840023,3,-16,18,28,96,88,-18,7,41
1491090840024,1,0,-3,9,-5,-23,-70,-92,34
1491090840024,1,20,19,-12,-75,-32,47,18,14
1491090840025,2,-20,-5,5,55,10,28,-15,24
1491090840025,2,-31,3,10,39,56,-65,-52,-17
1491090840120,3,-30,-9,-22,-58,-42,-34,50,-20
1491090840120,3,-72,-9,-9,-81,-116,-20,86,-4
1491090840121,0,-26,-35,-28,-12,32,-40,-95,-35
1491090840121,0,-15,2,3,-10,-128,19,107,58
1491090840122,2,-25,19,6,1,-24,13,36,15
1491090840122,2,-102,2,4,-33,-6,29,13,-6
1491090840123,3,-57,-5,0,2,-43,-56,-7,11
1491090840123,3,-49,-15,-10,-11,48,127,115,-16
1491090840169,0,83,24,26,40,52,-107,-64,12
1491090840169,0,-30,2,-8,-24,-86,71,-30,9
1491090840170,1,-100,-10,-21,-98,11,40,93,1
1491090840170,1,48,5,-16,74,-25,-53,-128,5
1491090840170,3,0,6,-12,38,-11,-59,-9,-47
1491090840170,3,3,-11,12,14,17,-17,32,37
1491090840171,0,-90,-8,15,-31,-8,43,-99,-45
1491090840171,0,11,-15,-3,-31,-15,-92,6,-19
1491090840218,1,6,-27,-8,42,44,25,-94,-3
1491090840218,1,-93,-22,-24,-47,-107,89,67,13
1491090840218,2,33,23,-18,-90,-75,-56,10,12
1491090840218,2,26,-5,-9,28,27,83,25,-12
1491090840219,1,2,17,-14,-68,-89,-43,29,28
1491090840219,1,8,-27,-26,-82,-61,-48,-50,-20
1491090840220,2,-15,15,-4,33,-5,-47,39,41
1491090840220,2,-65,18,21,55,50,37,19,1
1491090840266,3,-37,-17,-30,-99,-82,26,-7,-24
1491090840266,3,-19,7,15,46,51,49,-54,-10
1491090840267,0,8,-32,-21,-23,-78,-39,76,8
1491090840267,0,-12,-12,-15,-5,42,-57,-20,-11
1491090840268,1,-35,-12,4,24,44,73,29,-41
1491090840268,1,89,28,11,1,-69,37,-41,43
1491090840315,2,28,25,35,65,127,36,-6,-1
1491090840315,2,-47,-35,-7,-5,-46,-10,60,24
1491090840316,3,-19,-3,-14,-80,-128,-128,36,-15
1491090840316,3,-70,11,-7,-46,43,88,37,-34
1491090840316,0,0,-2,11,67,85,103,68,-6
1491090840316,0,-9,-6,4,-6,-32,-99,-61,5
1491090840318,2,-33,-14,0,38,45,-11,-81,-48
1491090840318,2,-7,-3,-15,-98,-94,-57,-7,-25
1491090840364,3,23,-15,-33,-35,-42,-72,-69,31
1491090840364,3,-59,4,18,118,127,54,95,31
1491090840377,0,33,-6,-8,-16,-63,-50,-60,39
1491090840377,0,-79,-7,23,29,-18,99,96,-2
1491090840378,3,-24,9,6,12,31,57,82,-15
1491090840378,3,20,-19,5,24,17,-35,-68,-11
1491090840413,0,-128,12,31,103,125,67,124,26
1491090840413,0,45,-19,-39,-97,-75,-112,-128,-51
1491090840413,1,-46,-10,-29,12,-55,-17,2,-8
1491090840413,1,14,-23,-7,6,31,-64,-35,1
1491090840414,2,-61,-5,5,3,0,82,34,12
1491090840414,2,-114,34,38,48,88,116,49,35
1491090840415,0,15,-37,-46,-128,-128,-128,-14,4
1491090840415,0,-46,7,-18,-10,-10,45,-91,-60
1491090840461,1,67,4,17,81,52,-66,-13,84
1491090840461,1,-68,-4,4,-9,6,92,-28,-29
1491090840463,2,1,52,13,-46,-96,-123,-20,-3
1491090840463,2,-57,2,15,55,93,11,66,22
1491090840463,3,-3,5,7,35,17,46,72,1
1491090840463,3,5,-31,-31,-64,-79,-79,-128,-23
1491090840465,1,-41,30,16,-19,-78,57,-80,25
1491090840465,1,-22,21,5,20,47,-88,-8,16
1491090840510,2,-52,-39,-27,-96,-120,85,-94,-2
1491090840510,2,27,20,29,65,49,7,55,9
1491090840511,3,-90,-17,-1,26,67,43,77,-50
1491090840511,3,83,-7,-18,-64,-4,-35,-109,40
1491090840512,2,-88,0,7,33,78,99,80,1
1491090840512,2,9,7,10,33,29,58,36,7
1491090840513,3,-77,-26,-14,-37,-71,-78,-63,-44
1491090840513,3,43,-22,-23,-32,69,-106,-78,-47
1491090840559,0,-18,1,-1,-13,-52,86,101,-23
1491090840559,0,-54,-39,-29,-61,-21,94,-32,-3
1491090840560,1,8,13,1,88,37,-78,-17,-8
1491090840560,1,-64,31,22,-17,-38,72,30,17
1491090840608,3,-59,-8,8,16,50,118,19,30
1491090840608,3,-33,-32,-12,14,-70,-88,4,-38
1491090840608,0,48,50,30,24,30,106,-68,44
1491090840608,0,-12,-18,-14,-41,14,-76,9,-6
1491090840609,1,-6,-17,7,-35,-42,-60,-25,-43
1491090840609,1,-36,35,22,56,120,113,124,12
1491090840610,2,-20,-2,4,17,-23,25,66,-21
1491090840610,2,25,-26,-32,-95,-119,-128,-77,-2
1491090840657,3,-7,-14,-21,50,51,97,1,20
1491090840657,3,24,-4,-5,-15,-32,-39,11,22
1491090840658,0,-52,-12,-17,12,43,-42,26,-3
1491090840658,0,-1,4,18,42,-34,-29,-22,-21
1491090840658,1,-24,17,15,-33,43,76,43,20
1491090840658,1,-75,-36,-11,4,-14,113,-15,-3
1491090840659,0,-41,-2,-6,14,60,61,70,11
1491090840659,0,-75,-8,-9,32,16,0,26,12
1491090840706,1,-21,13,45,-3,-82,-2,8,-23
1491090840706,1,26,48,22,23,103,-44,-48,-6
1491090840707,2,-69,-45,-51,-107,-128,-7,-29,-40
1491090840707,2,61,-18,-22,38,-71,-18,5,44
1491090840709,1,-22,16,-16,-59,-43,70,61,-15
1491090840709,1,21,-30,-31,-70,-116,-42,1,-12
1491090840710,2,-36,37,21,56,80,47,6,14
1491090840710,2,-39,0,17,73,61,106,31,-35
1491090840754,3,-78,11,-10,-86,-115,-9,-2,20
1491090840754,3,-32,5,-3,-76,-65,-25,-14,9
1491090840756,0,4,-14,-11,51,91,-84,13,-16
1491090840756,0,-36,25,8,36,-52,-13,-24,23
1491090840757,2,-20,-40,-11,-47,-35,-45,-92,-11
1491090840757,2,-41,28,31,11,5,-85,13,-3
1491090840758,3,-32,-32,-45,-22,15,-42,29,-30
1491090840758,3,-71,-5,-17,-88,-28,127,46,-16
1491090840803,0,7,20,25,68,-55,34,2,-12
1491090840803,0,-118,6,11,56,104,127,46,29
1491090840804,1,73,-16,-17,-46,-46,-128,-65,1
1491090840804,1,-55,-5,-23,-32,-18,56,35,-9
1491090840806,3,-93,-12,-3,33,28,-14,-50,-10
1491090840806,3,-42,19,23,64,106,98,35,23
1491090840807,0,-91,11,25,29,74,17,-19,-55
1491090840807,0,-15,-30,-3,-7,-20,82,-80,-14
1491090840852,1,-47,-11,-21,-89,-64,-73,1,17
1491090840852,1,3,-15,-22,-3,-14,93,-75,-16
1491090840853,2,19,4,-1,17,-62,6,-33,35
1491090840853,2,-56,-1,2,23,80,-8,93,-11
1491090840854,0,-48,-18,-17,55,58,6,82,-19
1491090840854,0,-4,16,13,-42,-48,34,-128,19
1491090840855,1,2,15,33,62,121,17,14,34
1491090840855,1,-73,-21,2,38,-39,27,65,-31
1491090840900,2,-10,2,11,-25,-22,26,-62,10
1491090840900,2,-35,-1,-12,-20,11,46,4,-5
1491090840901,3,41,-3,-26,-83,-100,-84,53,-16
1491090840901,3,33,-2,1,68,61,-61,-43,52
1491090840902,1,0,26,2,65,40,69,-35,39
1491090840902,1,-7,-22,10,48,55,-28,29,-36
1491090840903,2,-59,3,3,10,8,13,56,11
1491090840903,2,16,19,23,27,42,94,7,13
1491090840949,3,-93,-5,3,34,60,-19,62,-61
1491090840949,3,7,1,-8,-48,-63,-27,-101,-4
1491090840950,0,15,5,-18,-77,-91,-95,-7,-1
1491090840950,0,-27,-64,-47,-69,-49,-24,25,-37
1491090840959,2,-13,-21,-9,-55,-32,61,3,5
1491090840959,2,-5,-13,-16,-66,-97,1,2,-1
1491090840960,3,-80,-5,22,65,81,37,43,31
1491090840960,3,3,24,15,66,55,89,118,-11
1491090840998,0,-43,-61,-35,-63,-29,-128,-119,-37
1491090840998,0,-8,30,34,85,127,76,82,-18
1491090840998,1,-42,-19,-2,-16,-94,-6,75,50
1491090840998,1,-65,-8,-21,-128,-89,55,-39,-40
1491090840999,2,18,-28,-37,-15,-3,-120,-39,-10
1491090840999,2,-9,15,-3,47,1,27,-1,54
1491090841047,3,47,-12,8,24,29,-43,-77,-12
1491090841047,3,-46,10,4,32,-3,97,42,24
1491090841048,0,-30,28,25,38,13,5,58,32
1491090841048,0,-94,-18,-3,16,43,-84,-63,-37
1491090841048,1,-15,13,-2,-35,-27,-11,-21,-7
1491090841048,1,-26,9,-9,-47,31,40,-28,20
1491090841049,3,24,-8,-5,64,100,32,-78,-17
1491090841049,3,-23,-22,-17,-40,-114,-77,11,21
1491090841095,0,-44,21,3,-48,-12,61,26,-8
1491090841095,0,-46,-4,-3,66,60,80,7,31
1491090841096,1,-2,40,51,0,-7,-102,-4,-35
1491090841096,1,-66,4,20,52,88,85,50,2
1491090841097,2,19,5,11,76,26,2,-18,30
1491090841097,2,-16,-9,-17,-79,-42,-42,43,-21
1491090841098,0,-32,29,16,33,-3,78,5,-67
1491090841098,0,-57,-14,6,73,105,-4,-7,15
1491090841144,1,-34,42,5,-10,18,24,28,-15
1491090841144,1,35,29,20,18,30,29,28,47
1491090841145,2,-73,-51,-41,-72,-84,-27,4,28
1491090841145,2,-52,-18,-6,-45,-91,17,-88,-31
1491090841146,1,-112,-19,-13,-94,-120,-86,-107,2
1491090841146,1,-42,-18,-27,-74,-100,-108,125,10
1491090841149,2,5,-2,-4,67,46,-49,-22,20
1491090841149,2,-70,-12,7,23,0,-9,-25,-18
1491090841193,3,-49,-3,11,44,63,92,82,-2
1491090841193,3,-35,-8,15,92,127,25,-17,-8
1491090841194,0,-47,7,1,-100,-103,15,9,-3
1491090841194,0,-20,-19,-32,-21,-41,-8,-91,10
1491090841194,2,-51,-45,-8,-32,67,7,57,5
1491090841194,2,11,4,-13,-71,-105,-13,5,-44
1491090841195,3,-5,-11,-4,64,103,108,-84,0
1491090841195,3,-49,-27,-5,-8,-93,-8,-7,6
1491090841242,0,-2,15,-7,22,-23,-31,-60,43
1491090841242,0,-27,7,-1,-17,2,53,30,-13
1491090841242,1,77,-3,3,-16,-33,20,8,26
1491090841242,1,-121,8,25,86,120,127,22,-29
1491090841243,3,-25,12,4,13,36,98,33,3
1491090841243,3,-7,-51,-27,-26,-6,-36,20,-7
1491090841244,0,-55,4,6,14,17,43,2,-21
1491090841244,0,-41,4,22,73,104,34,45,32
1491090841290,1,24,3,-13,-78,-60,-99,-105,-44
1491090841290,1,-10,-6,-26,-74,-97,24,8,23
1491090841291,2,35,-18,-14,12,-17,-80,-67,-22
1491090841291,2,-4,6,4,34,-16,-22,79,53
1491090841291,0,-34,47,26,23,60,127,51,10
1491090841291,0,-64,-22,-14,-59,-48,-70,-71,-66
1491090841293,1,25,-39,-34,-49,3,-128,3,6
1491090841293,1,-11,-3,-4,33,-24,-98,15,-15
1491090841339,2,-21,20,9,-69,-49,7,-76,-4
1491090841339,2,28,-8,-5,53,127,23,-21,1
1491090841340,3,4,-6,-11,-33,-76,-17,27,12
1491090841340,3,-18,9,-4,10,20,23,9,-25
1491090841340,0,-22,39,28,60,22,28,45,17
1491090841340,0,2,7,16,-11,27,50,10,-11
1491090841341,1,-100,10,12,19,-1,85,-65,16
1491090841341,1,70,-9,-17,-48,-62,5,73,-12
1491090841388,2,24,-15,-11,-18,-38,-85,-15,7
1491090841388,2,-19,3,9,21,-104,-19,-92,-54
1491090841389,3,-84,-4,-7,28,67,127,116,-2
1491090841389,3,-40,-3,-12,-56,18,31,-12,-4
1491090841390,1,35,17,24,91,79,-1,-10,43
1491090841390,1,-1,12,8,0,-97,-16,-2,-22
1491090841390,2,-56,-5,2,-48,-2,90,-33,-24
1491090841390,2,-13,17,-2,2,5,-57,11,37
1491090841436,3,-36,-21,-4,-42,-67,-49,7,7
1491090841436,3,18,2,2,51,52,11,-38,20
1491090841437,0,-73,13,5,65,87,99,104,0
1491090841437,0,-48,10,-1,-71,-70,-91,-24,-31
1491090841438,2,-88,-40,-21,15,-7,50,49,4
1491090841438,2,12,5,5,-12,-37,49,-35,6
1491090841439,3,-49,-6,-3,17,52,-77,16,-13
1491090841439,3,-42,-35,-11,-27,-66,29,-70,-21
1491090841485,0,-54,25,8,30,59,91,50,-13
1491090841485,0,22,4,8,-48,-37,-126,-47,-7
1491090841486,1,-28,-9,-18,-47,-27,-17,24,-13
1491090841486,1,-32,-18,-4,60,23,101,51,7
1491090841487,3,-49,-10,29,-3,-17,-52,25,-28
1491090841487,3,-59,0,-4,-29,13,-19,20,-1
1491090841488,0,-46,-35,-7,41,43,37,-52,21
1491090841488,0,-32,31,7,-7,56,-49,56,-78
1491090841534,1,12,-7,-32,-57,-88,-65,-128,24
1491090841534,1,-20,-13,-22,-36,-67,40,49,11
1491090841535,2,-19,6,13,29,11,-41,31,-11
1491090841535,2,-59,-36,1,37,2,17,14,-1
1491090841535,0,-1,9,1,-14,35,45,-39,21
1491090841535,0,-40,-3,5,60,77,27,9,16
1491090841536,1,-89,0,3,13,-22,83,86,-5
1491090841536,1,62,39,7,-43,-23,7,-94,57
1491090841583,2,-96,-37,-6,-11,-53,36,-11,-53
1491090841583,2,-12,11,-1,22,-1,-76,7,-9
1491090841584,3,-2,-2,-6,5,45,69,-27,21
1491090841584,3,-8,-10,5,70,42,-69,-23,6
1491090841584,1,-15,24,2,23,55,9,-6,24
1491090841584,1,-75,8,30,62,-21,-86,-49,-10
1491090841585,2,4,4,0,-27,67,61,9,16
1491090841585,2,14,-18,-26,-53,-75,-40,-60,22
1491090841631,3,49,-20,-14,11,21,6,44,-19
1491090841631,3,-25,-8,-3,21,4,-11,60,-5
1491090841632,0,-64,-8,25,92,96,37,-15,16
1491090841632,0,-36,14,3,-32,-55,0,55,3
1491090841633,2,-21,2,-14,-54,-126,-128,-71,12
1491090841633,2,43,0,12,87,127,117,81,47
1491090841634,3,-7,5,0,-20,-29,-65,-88,-49
1491090841634,3,-58,31,15,-13,3,92,114,27
1491090841680,0,30,-31,-19,-44,-30,-65,-128,9
1491090841680,0,4,-14,4,28,68,25,-65,-13
1491090841681,1,-16,19,20,30,-70,-34,33,23
1491090841681,1,-28,-2,-1,12,-52,-7,-55,-26
1491090841682,2,15,-16,-13,-26,72,-48,91,-26
1491090841682,2,-13,-10,-3,-16,-114,-53,21,-12
1491090841683,3,-19,-36,-17,-4,-24,56,53,15
1491090841683,3,43,17,-3,-7,51,-38,-110,-3
1491090841729,0,27,28,13,11,3,87,27,28
1491090841729,0,-13,0,6,-14,3,-75,-20,3
1491090841730,1,-19,3,-5,11,11,69,64,4
1491090841730,1,-12,6,15,1,20,-64,2,7
1491090841730,3,-103,0,28,45,23,6,-41,-48
1491090841730,3,-23,14,9,-16,15,73,70,3
1491090841731,0,13,-16,-23,-44,-41,-2,-30,11
1491090841731,0,-22,-4,-9,-19,-91,-41,-73,-33
1491090841778,1,-52,13,6,57,95,-36,15,51
1491090841778,1,25,-43,-20,-20,-43,-50,-67,-32
1491090841779,2,-16,-19,-23,-34,-79,-75,15,-1
1491090841779,2,-81,18,2,20,37,15,-52,-10
1491090841780,0,-22,5,-3,32,-27,30,-24,6
1491090841780,0,-26,-7,5,32,-6,60,52,26
1491090841780,1,-41,10,3,-2,11,50,-56,-42
1491090841780,1,-38,10,6,31,76,-49,12,-14
1491090841875,2,-19,-26,-9,-22,-39,-54,30,-27
1491090841875,2,29,-12,-27,-7,23,-35,1,15
1491090841876,3,-48,17,-5,-52,-128,-127,-14,-52
1491090841876,3,42,-23,-20,-26,69,82,21,68
1491090841877,1,75,23,-3,-69,-67,-20,27,18
1491090841877,1,-100,-14,-20,-41,-76,94,10,-59
1491090841878,2,29,1,-8,-24,-6,-128,-56,32
1491090841878,2,-45,-23,0,42,54,113,38,-2
1491090841924,3,-46,-21,-7,15,8,59,54,18
1491090841924,3,13,2,8,-19,-113,-128,-70,-55
1491090841925,0,-71,28,8,21,77,127,14,-1
1491090841925,0,-7,14,3,-28,-30,-57,54,-13
1491090841925,2,-14,9,2,-6,-73,5,-42,-15
1491090841925,2,-41,-16,1,9,-65,28,72,-12
1491090841926,3,-5,-12,-9,-42,-34,-78,-83,-7
1491090841926,3,-25,3,-2,-17,-52,11,34,-16
1491090841973,0,-35,4,8,20,64,-107,8,12
1491090841973,0,-84,-16,-7,-16,21,35,-2,-39
1491090841974,1,43,-3,-11,-38,-30,16,-78,11
1491090841974,1,-83,-1,12,52,58,109,-1,-10
1491090841975,0,-87,-16,5,113,108,81,-48,17
1491090841975,0,-7,7,29,67,67,-76,101,-11
1491090841975,1,16,3,22,-40,-47,-59,-105,-37
1491090841975,1,-16,-20,-32,-47,-70,15,-2,-10
1491090842021,2,-28,-8,-8,-26,24,47,76,64
1491090842021,2,45,-28,-47,-69,-114,-112,-128,-27
1491090842022,3,-15,-18,3,35,53,127,96,12
1491090842022,3,14,22,31,108,44,-58,-4,41
1491090842023,0,-61,-3,5,-78,-32,14,38,-5
1491090842023,0,-44,5,-5,4,68,74,5,3
1491090842024,1,-27,2,2,17,20,-18,-23,-17
1491090842024,1,-3,-14,-2,24,68,41,14,-20
1491090842070,2,4,7,3,8,-73,-47,26,7
1491090842070,2,-52,5,-4,-32,-2,66,47,25
1491090842071,3,-23,-3,10,13,-24,-114,-29,0
1491090842071,3,-15,-11,-6,74,89,104,-11,-19
1491090842075,1,-70,-16,-17,0,-23,78,-22,-15
1491090842075,1,28,13,20,42,30,-16,42,13
1491090842075,2,5,-12,7,95,-21,73,21,-10
1491090842075,2,-3,-5,-23,-107,-8,23,-16,-10
1491090842119,3,20,-6,-23,-28,-37,-71,26,12
1491090842119,3,0,15,19,85,24,-23,-91,30
1491090842120,0,-79,3,15,23,39,8,75,-32
1491090842120,0,12,28,12,15,28,68,-72,41
1491090842121,2,31,19,12,-21,46,-34,-103,14
1491090842121,2,15,26,13,25,-13,-24,15,4
1491090842121,3,-31,1,3,18,-13,-53,-28,8
1491090842121,3,-45,-12,-24,-115,-128,-84,-36,-30
1491090842168,0,-11,-9,-15,44,86,114,38,46
1491090842168,0,-83,-50,-5,43,43,50,48,-16
1491090842169,1,57,27,22,25,14,-90,-68,18
1491090842169,1,-62,18,30,67,91,97,23,28
1491090842170,3,2,-10,-25,-58,-52,-16,-59,40
1491090842170,3,-29,-13,-17,10,65,-7,20,-20
1491090842170,0,-67,7,-1,26,-2,115,39,19
1491090842170,0,-5,37,45,112,80,-78,29,-11
1491090842216,1,-47,33,54,56,85,57,-14,-6
1491090842216,1,-46,-4,-18,-119,-41,-54,-45,-13
1491090842217,2,6,4,-8,-24,0,-35,5,-14
1491090842217,2,-6,-36,-44,-30,-92,79,-31,-12
1491090842218,0,-23,5,27,35,54,22,-103,-7
1491090842218,0,7,-7,-2,8,-37,-100,-28,-1
1491090842219,1,-57,-6,-12,-38,-16,14,52,-24
1491090842219,1,19,-18,-23,-17,-80,50,-5,11
1491090842265,2,-68,1,-11,-9,-51,-35,127,-3
1491090842265,2,-24,23,23,-6,65,54,-62,13
1491090842266,3,-6,-6,11,88,111,27,15,-10
1491090842266,3,-72,-7,0,-61,-78,-91,14,-8
1491090842267,1,-32,-5,-6,-65,-57,96,-5,11
1491090842267,1,17,2,1,5,-21,-10,22,-21
1491090842268,2,-68,-37,-31,-79,-128,-84,-61,-15
1491090842268,2,-48,16,19,36,82,118,-1,15
1491090842314,3,-45,-19,-18,44,5,-86,51,-42
1491090842314,3,-5,9,2,25,70,29,-22,16
1491090842315,0,10,33,35,9,-34,2,37,4
1491090842315,0,-85,-16,-5,7,57,89,74,-30
1491090842316,2,-11,18,-2,7,1,41,5,1
1491090842316,2,-6,3,16,69,74,8,45,26
1491090842317,3,-17,-3,-8,-38,-64,92,32,-22
1491090842317,3,39,30,18,10,-44,-56,-57,4
1491090842363,0,-12,-30,-29,-43,-49,-56,-40,11
1491090842363,0,-58,15,3,13,35,18,-8,-1
1491090842364,1,-14,0,17,62,76,4,-12,-12
1491090842364,1,18,-2,24,11,33,22,-1,17
1491090842364,3,30,37,5,27,63,-106,-13,-49
1491090842364,3,-101,-19,-13,6,-66,2,78,42
1491090842365,0,-24,27,19,-53,81,25,4,-42
1491090842365,0,-19,-32,-24,1,-10,-17,33,3
1491090842411,1,-4,-13,-9,-15,-87,71,57,42
1491090842411,1,53,15,6,13,61,39,10,-5
1491090842413,2,-9,-34,-5,75,72,-128,-23,-3
1491090842413,2,-63,1,-13,-67,-117,-21,-91,6
1491090842414,3,-4,-13,-25,-54,-23,102,78,-11
1491090842414,3,-10,-13,2,36,10,-95,-27,-23
1491090842414,0,2,-11,5,22,-23,-31,-48,5
1491090842414,0,-31,28,21,55,116,87,-18,-4
1491090842460,1,-31,3,26,32,-16,26,52,13
1491090842460,1,-41,37,-4,-71,-40,69,39,12
1491090842461,2,85,-1,21,97,103,-62,-96,10
1491090842461,2,-14,-22,-27,-109,-128,-47,-64,-81
1491090842462,0,-46,8,18,11,-67,-56,-28,-19
1491090842462,0,31,4,18,59,73,100,-32,62
1491090842463,1,-12,4,2,-22,-75,-67,24,-35
1491090842463,1,-86,8,14,-42,-18,34,44,6
1491090842509,2,7,-20,-20,22,54,91,16,13
1491090842509,2,2,32,17,-8,-4,-29,13,25
1491090842510,3,-59,6,-7,-65,-43,-27,-13,-33
1491090842510,3,1,5,8,64,59,9,-19,1
1491090842511,1,5,0,-19,28,39,12,-43,24
1491090842511,1,58,-13,-6,72,22,-128,-7,25
1491090842511,2,-98,6,-7,-63,-127,50,80,28
1491090842511,2,34,12,17,34,14,11,-23,-20
1491090842607,3,-64,-18,26,59,96,75,7,-28
1491090842607,3,20,-5,-13,-90,-115,-86,-128,24
1491090842610,0,-66,0,-19,-28,78,127,122,3
1491090842610,0,32,13,12,24,53,-45,-86,35
1491090842615,2,-17,-2,4,-58,-95,-31,69,-62
1491090842615,2,-67,-27,-7,26,37,16,22,15
1491090842617,3,13,5,5,27,51,33,16,-10
1491090842617,3,-13,-23,-30,-19,-1,-46,79,-13
1491090842655,0,56,-6,-27,-78,-128,-55,-128,44
1491090842655,0,-58,-16,-15,15,29,-68,27,-2
1491090842656,1,-53,11,25,96,35,51,34,2
1491090842656,1,-55,14,27,43,60,-35,-35,-11
1491090842657,3,-38,-23,18,60,92,17,24,-6
1491090842657,3,-61,2,6,-7,-70,21,-8,27
1491090842658,0,-63,4,3,39,48,-87,-61,-48
1491090842658,0,-39,-10,-20,-73,-69,-46,28,15
1491090842753,1,77,14,-4,4,-15,4,-23,-3
1491090842753,1,-67,-9,-3,18,34,82,-50,32
1491090842754,2,-36,0,5,46,19,8,-61,-24
1491090842754,2,-39,33,20,-13,-39,88,32,20
1491090842754,1,-6,11,-3,-81,-46,16,-128,5
1491090842754,1,-39,20,-3,-36,-35,87,-6,-22
1491090842755,2,-37,3,-9,-10,51,123,12,3
1491090842755,2,70,1,-4,42,-21,-96,-69,15
1491090842801,3,-13,-4,10,22,-49,0,105,2
1491090842801,3,-73,3,21,20,69,35,-8,-34
1491090842802,0,-9,-14,-11,-23,-12,-126,-63,-3
1491090842802,0,8,-10,-19,-61,-36,47,49,31
1491090842803,1,-2,9,2,45,20,0,1,2
1491090842803,1,-11,-12,3,1,-31,37,34,-10
1491090842804,2,-36,4,20,31,50,115,-29,-42
1491090842804,2,-17,4,8,-69,10,73,13,-15
1491090842850,3,-47,-50,-40,-51,-62,62,89,11
1491090842850,3,8,14,1,-27,-55,-128,-82,-46
1491090842851,0,45,-4,-8,59,48,45,-53,29
1491090842851,0,-40,4,14,16,-44,105,69,-5
1491090842851,3,-44,9,32,48,72,79,24,24
1491090842851,3,-56,-2,6,-47,-8,-13,-38,-23
1491090842853,0,-16,-52,-51,-62,-50,28,5,-35
1491090842853,0,21,20,-16,-93,-87,25,-13,-17
1491090842899,1,41,-18,-35,-84,-99,-119,-25,-2
1491090842899,1,-47,4,6,80,6,106,-9,48
1491090842900,2,-38,15,35,67,10,80,-25,-4
1491090842900,2,-77,14,13,81,127,22,73,-39
1491090842900,0,-2,-24,-38,-86,-104,-65,-128,29
1491090842900,0,-37,22,12,47,19,38,81,-21
1491090842901,1,-43,-3,-7,8,47,117,-68,-8
1491090842901,1,28,-21,-4,-10,-74,-91,-39,-9
1491090842948,2,-72,18,33,20,14,62,37,15
1491090842948,2,6,11,8,52,73,27,-8,-15
1491090842949,3,-69,-7,-15,-46,-23,-85,-32,12
1491090842949,3,-26,12,-22,-82,-59,81,71,-25
1491090842949,1,-74,-7,14,45,31,12,-16,-24
1491090842949,1,-29,16,1,-48,-8,62,-6,-6
1491090842950,2,13,-1,-8,-51,18,-4,51,4
1491090842950,2,-8,-1,-16,-5,-4,43,4,57
1491090842996,3,-11,25,17,100,75,17,50,-20
1491090842996,3,-62,-23,3,10,-15,54,17,30
1491090842997,0,-31,20,-2,-65,-21,-58,-6,-19
1491090842997,0,-25,-16,-15,42,90,104,2,0
1491090842998,2,-90,12,1,5,-2,64,71,-10
1491090842998,2,-37,11,5,5,3,21,-54,-15
1491090842999,3,-79,8,7,41,27,75,83,10
1491090842999,3,-43,-21,-2,35,57,-55,-31,-10
1491090843045,0,28,-1,3,0,-39,-50,-25,14
1491090843045,0,-58,-15,-13,-89,-39,-96,18,-8
1491090843046,1,-22,-20,-14,25,51,28,16,0
1491090843046,1,-48,-2,-1,8,-9,-9,-27,-34
1491090843046,3,-5,-2,4,-25,-17,-79,31,-20
1491090843046,3,-16,-2,0,18,0,24,20,8
1491090843048,0,-55,49,9,0,21,37,-20,-48
1491090843048,0,1,-13,-30,-72,-88,-28,19,28
1491090843094,1,37,-17,2,-26,-7,27,-27,-12
1491090843094,1,-37,5,-3,23,-40,-104,-50,19
1491090843095,2,-52,21,42,108,127,127,-74,-31
1491090843095,2,-58,-12,-2,22,-15,-126,9,1
1491090843095,3,18,15,-9,-70,-73,115,-123,-34
1491090843095,3,14,-8,-21,-70,-23,-72,21,-27
1491090843096,0,-15,-19,-21,-14,-46,-33,22,20
1491090843096,0,15,-1,11,11,-27,58,-25,-46
1491090843143,1,-62,-20,11,79,126,82,61,62
1491090843143,1,-43,48,39,99,112,52,61,36
1491090843144,2,34,-16,-32,-116,-110,-73,-54,-26
1491090843144,2,42,-3,-21,-83,-97,-95,-4,3
1491090843145,0,-21,-1,6,43,64,-13,83,32
1491090843145,0,-46,23,38,45,42,46,-41,-20
1491090843146,1,-3,6,9,-16,-13,-10,72,-10
1491090843146,1,-15,-21,-20,28,85,-46,53,29
1491090843192,2,10,20,24,26,29,60,-127,-19
1491090843192,2,26,-20,-18,-61,-87,-50,11,-77
1491090843193,3,-9,14,-7,-39,-38,19,28,57
1491090843193,3,-12,-11,-12,-7,-50,58,7,26
1491090843193,1,-18,-21,-21,-67,-21,-128,-64,-30
1491090843193,1,34,-5,-10,-58,-121,100,0,-2
1491090843199,2,-21,10,4,52,99,75,81,54
1491090843199,2,-38,4,12,67,38,85,36,31
1491090843240,3,-51,17,7,4,-9,15,-65,-24
1491090843240,3,-19,-16,0,-24,-8,-80,7,-29
1491090843249,0,17,-15,-5,-6,-35,-75,27,-11
1491090843249,0,-30,-13,2,35,29,10,-27,0
1491090843255,2,40,25,0,24,39,32,-44,-2
1491090843255,2,-11,-15,-9,-7,4,20,28,15
1491090843260,3,-21,-11,-10,16,-45,-11,-47,-7
1491090843260,3,33,4,4,14,15,-34,-49,-18
1491090843289,0,-102,-5,3,8,40,43,96,-30
1491090843289,0,18,8,19,-2,8,-19,-35,3
1491090843290,1,14,-14,-21,-39,-63,-35,-22,-7
1491090843290,1,-20,14,7,19,61,105,1,11
1491090843291,3,-39,1,21,47,114,109,-17,3
1491090843291,3,-32,-11,-14,-25,-36,-43,-8,-14
1491090843291,0,-2,-5,0,-5,-4,-20,78,-7
1491090843291,0,-51,7,-8,-26,-10,49,-36,-1
1491090843386,1,6,-12,-2,32,22,-64,12,55
1491090843386,1,-27,9,11,14,6,39,19,-4
1491090843387,2,-5,-31,-16,-31,-73,-32,-22,-22
1491090843387,2,-72,5,18,70,73,33,14,4
1491090843388,0,-65,-43,-28,-45,21,45,9,-17
1491090843388,0,36,-12,-30,-87,-115,-106,-71,-1
1491090843389,1,-2,-5,-8,14,-28,116,-16,-3
1491090843389,1,-25,-11,0,11,-7,-62,-1,16
1491090843435,2,-11,9,11,8,42,8,43,-10
1491090843435,2,-49,-8,-3,6,-9,124,56,30
1491090843436,3,-53,28,11,25,90,-80,-2,-57
1491090843436,3,-18,-8,-19,-4,-23,6,-10,4
1491090843436,1,-4,8,16,-2,-92,-40,21,10
1491090843436,1,-78,-11,2,-46,-21,12,43,-30
1491090843438,1,-51,-13,-16,-60,-106,-11,-9,-72
1491090843438,1,5,-3,-13,-28,53,57,-17,-7
1491090843484,2,-28,-26,-19,13,-5,-60,-74,16
1491090843484,2,-74,27,6,-3,-44,-17,20,-4
1491090843485,3,17,5,14,1,36,-1,-17,20
1491090843485,3,-67,4,10,45,20,46,21,-10
1491090843485,2,-17,2,15,50,58,127,-3,6
1491090843485,2,-3,10,-2,-35,-69,-128,-71,-22
1491090843486,3,-16,-4,-2,-23,-11,50,63,44
1491090843486,3,13,22,14,27,3,34,31,23
1491090843533,0,5,2,-4,44,71,-35,-23,-9
1491090843533,0,-11,-1,9,-43,-20,-14,42,19
1491090843533,1,-6,-6,-2,-1,29,79,8,-13
1491090843533,1,-9,5,22,81,100,73,-9,-11
1491090843534,3,23,-25,-29,-7,-5,-85,-109,10
1491090843534,3,-71,29,29,23,9,104,74,1
1491090843536,0,-52,1,11,58,122,110,41,31
1491090843536,0,24,-10,-23,-49,-97,-44,-3,-58
1491090843582,1,-1,0,-5,-7,110,-42,-29,-31
1491090843582,1,42,-18,-15,-19,-38,-30,-51,-7
1491090843583,2,-48,8,9,11,-77,-95,-41,26
1491090843583,2,13,-10,-13,-34,72,127,-21,-7
1491090843584,0,0,60,42,9,41,-29,-1,-10
1491090843584,0,-24,-17,-17,2,-12,-88,-3,-14
1491090843585,1,-35,2,6,24,2,57,14,-15
1491090843585,1,-4,-13,-19,-67,-38,-20,-46,23
1491090843631,2,27,-26,-33,-61,-108,-28,-12,-43
1491090843631,2,16,8,-13,-4,2,-50,-11,52
1491090843633,3,-68,10,16,19,23,103,67,-25
1491090843633,3,24,10,7,39,15,-56,-9,13
1491090843634,1,-15,-3,-5,24,-26,69,-98,-45
1491090843634,1,11,1,-6,-75,-81,-51,-30,30
1491090843635,2,-65,-4,-9,26,-3,73,-7,-10
1491090843635,2,-28,1,-4,-28,-106,86,20,4
1491090843679,3,-11,-13,-15,-35,70,-113,8,11
1491090843679,3,53,24,6,13,56,8,50,27
1491090843680,0,-43,-3,-8,8,12,4,-61,-5
1491090843680,0,-29,-1,12,65,41,14,24,-36
1491090843680,2,-33,11,-19,-78,-42,-40,-11,-1
1491090843680,2,-13,-6,-4,30,27,49,-63,-1
1491090843681,3,-7,-2,5,9,-49,-11,-37,0
1491090843681,3,12,-18,-20,-41,-58,-74,38,6
1491090843728,0,-75,-6,8,19,57,120,29,-4
1491090843728,0,41,8,13,35,38,0,-17,5
1491090843729,1,-10,0,-8,-3,-56,-110,-76,42
1491090843729,1,-25,-20,-3,-54,14,93,43,-47
1491090843729,3,11,-2,-8,43,-42,39,28,52
1491090843729,3,-124,11,21,49,35,47,-41,-62
1491090843730,0,48,-3,8,-9,31,-74,6,-1
1491090843730,0,30,1,-15,-16,-13,1,-34,25
1491090843776,1,-52,-10,-7,-6,-10,-57,36,-52
1491090843776,1,-37,-6,-10,-6,-24,13,-55,50
1491090843777,2,-38,9,11,1,14,14,6,-6
1491090843777,2,-121,4,17,34,16,84,97,0
1491090843778,0,-25,-19,-20,-37,-46,69,-24,1
1491090843778,0,34,-4,-11,12,-53,-128,-44,14
1491090843779,1,-93,0,-2,-27,18,93,-1,-41
1491090843779,1,-47,15,18,76,39,12,-86,29
1491090843825,2,-30,16,8,-1,48,93,36,22
1491090843825,2,-40,-26,-6,-36,-6,-60,5,-28
1491090843826,3,-14,-20,-8,-8,-21,28,-4,5
1491090843826,3,-11,9,-7,-13,-20,-27,-26,-1
1491090843827,0,-117,-6,14,44,-52,-43,38,-12
1491090843827,0,-84,4,5,46,116,127,70,9
1491090843828,1,-6,3,0,-43,-83,-101,-22,-16
1491090843828,1,-38,-33,-49,-104,-100,-41,-27,-50
1491090843874,2,38,-9,-15,8,-60,-100,-16,17
1491090843874,2,-69,-20,-1,-8,-3,73,20,-11
1491090843875,3,-72,21,21,76,108,22,64,20
1491090843875,3,14,-16,-2,14,-56,-86,-46,-33
1491090843876,1,33,24,8,10,27,87,60,20
1491090843876,1,-34,32,36,50,56,61,83,-4
1491090843877,2,-1,-9,8,46,79,-11,-112,15
1491090843877,2,26,3,-19,-39,-24,-83,-19,-30
1491090843923,3,-7,11,14,13,-76,122,20,6
1491090843923,3,56,-1,-8,-19,-29,-128,74,16
1491090843923,0,29,-11,-13,-22,0,-76,-4,0
1491090843923,0,-43,-6,0,1,-24,40,33,0
1491090843925,2,65,3,10,23,11,-65,-66,-4
1491090843925,2,-68,-8,2,1,3,12,27,-31
1491090843926,3,-15,12,-20,-114,-83,75,6,-12
1491090843926,3,-3,-31,-17,5,-18,-70,-58,-2
1491090843971,0,-51,34,10,46,47,0,79,-57
1491090843971,0,79,-12,-16,-19,-86,-61,-79,77
1491090843972,1,-26,-2,1,17,46,47,11,-9
1491090843972,1,-62,-5,0,-3,28,93,30,0
1491090843973,3,-50,10,0,-39,-43,19,85,27
1491090843973,3,-40,-12,-20,-50,-63,31,-44,-42
1491090843974,0,-5,-31,-20,-29,-85,-105,87,16
1491090843974,0,-3,25,20,30,28,59,-92,-25
1491090844020,1,-27,-5,6,24,63,33,81,-4
1491090844020,1,23,9,8,22,21,-125,-117,37
1491090844022,2,-53,3,2,-5,27,127,25,-28
1491090844022,2,-56,-43,-34,-93,-112,60,-35,-22
1491090844023,0,-43,-11,-5,-36,-57,38,-5,17
1491090844023,0,27,19,7,22,118,-5,17,21
1491090844024,1,7,-25,-13,53,-71,-87,58,20
1491090844024,1,-21,20,-1,-33,-3,84,-22,-30
1491090844069,2,-23,-5,-9,-17,-50,-63,67,10
1491090844069,2,-68,38,9,-30,-31,2,-42,-16
1491090844070,3,-1,-8,-3,-18,-33,-80,-41,0
1491090844070,3,15,21,20,83,69,13,64,8
1491090844072,1,45,14,7,23,16,-123,-128,-31
1491090844072,1,-37,-29,-34,-111,-99,6,-4,23
1491090844072,2,-66,-43,-46,-57,-44,-49,-81,-46
1491090844072,2,6,-14,-7,11,-12,57,-49,31
1491090844118,3,-21,-11,3,3,64,12,-18,-37
1491090844118,3,-23,-1,7,75,13,28,32,13
1491090844119,0,-48,8,1,-67,-29,59,-13,4
1491090844119,0,-16,-4,-6,1,17,-6,71,-23
1491090844119,2,3,-8,7,63,18,-96,-89,-51
1491090844119,2,-71,30,8,-1,58,64,49,-23
1491090844120,3,53,-3,-12,-81,-89,-60,-32,35
1491090844120,3,-82,9,8,-20,23,93,16,-23
1491090844166,0,-6,12,7,77,76,85,17,38
1491090844166,0,-53,23,10,-11,-23,66,-12,-30
1491090844168,1,-31,-7,-7,6,48,87,33,67
1491090844168,1,-16,26,-9,-20,-80,-128,-16,-2
1491090844168,2,21,-39,-27,-55,-99,-106,-23,-11
1491090844168,2,-62,-18,-3,37,27,35,53,-7
1491090844169,3,-88,-7,11,35,25,46,-68,-13
1491090844169,3,-67,-17,13,36,110,58,24,-18
1491090844215,0,-24,16,-9,-62,-37,-19,2,17
1491090844215,0,8,-12,-15,0,-47,-57,-39,-29
1491090844216,1,-88,-1,16,28,49,46,54,-1
1491090844216,1,6,-3,4,16,52,-54,-89,-14
1491090844217,3,19,24,-11,1,-35,-59,12,14
1491090844217,3,-31,-1,20,61,36,30,-40,7
1491090844218,0,-54,37,52,116,127,122,62,8
1491090844218,0,-5,-24,-10,-49,-65,-81,25,-12
1491090844264,1,-10,-14,-13,-26,19,9,-10,-24
1491090844264,1,-9,4,-23,-73,-105,-36,22,25
1491090844265,2,9,2,-15,-56,-99,-55,-25,13
1491090844265,2,-5,-17,5,40,74,104,-24,7
1491090844266,0,24,30,29,70,99,41,65,32
1491090844266,0,-58,0,-3,-3,-20,-54,-41,0
1491090844266,1,16,-2,22,2,34,121,88,-3
1491090844266,1,3,-24,-17,-47,-34,23,-45,18
1491090844313,2,-12,-21,-16,-9,-88,11,-27,-38
1491090844313,2,9,-11,-10,-21,-40,-46,-20,18
1491090844314,3,-8,-23,-14,-12,10,-52,20,-9
1491090844314,3,-59,-22,3,22,-7,66,39,20
1491090844315,1,-17,-5,-10,-1,92,-92,-93,9
1491090844315,1,-4,-10,-2,6,-65,39,77,2
1491090844316,2,-60,-20,-23,-82,-68,8,27,-12
1491090844316,2,58,-3,-7,-2,-37,45,-27,15
1491090844362,3,-47,13,-4,46,40,10,-13,-58
1491090844362,3,18,-4,6,-26,-9,-56,3,36
1491090844363,0,18,10,-4,-27,-18,43,-43,-15
1491090844363,0,-52,-3,15,58,50,32,19,28
1491090844363,2,54,-9,-1,4,19,-36,26,-20
1491090844363,2,-45,0,-10,-29,19,10,59,-14
1491090844364,3,-23,6,-2,-12,-42,36,-11,28
1491090844364,3,-11,-7,1,78,79,-5,72,28
1491090844410,0,-48,-14,5,65,64,11,-54,-37
1491090844410,0,-44,-2,-14,-78,-53,-6,-10,42
1491090844411,1,-10,44,-12,-32,-76,3,118,-8
1491090844411,1,76,-16,-13,-26,-128,-82,22,20
1491090844412,3,-45,-16,13,-27,-9,-63,-31,-15
1491090844412,3,-55,-6,2,-32,4,62,-39,-28
1491090844413,0,-28,11,-7,-42,35,-26,32,-12
1491090844413,0,-32,-43,-43,-72,-125,-128,-98,-34
1491090844459,1,-1,-12,-1,-7,-9,19,3,15
1491090844459,1,-42,2,1,12,59,-54,-16,-7
1491090844461,2,-41,-35,-7,-3,-18,49,-40,1
1491090844461,2,-1,41,16,48,71,38,47,-7
1491090844461,0,41,-11,-20,-60,-67,-67,-103,14
1491090844461,0,16,-36,-38,-80,-126,-105,-75,-20
1491090844462,1,-35,6,-1,55,23,41,-11,-5
1491090844462,1,-35,9,19,59,72,62,45,-5
1491090844508,2,-35,8,9,-10,-40,-33,36,62
1491090844508,2,-24,3,3,16,80,90,18,-17
1491090844508,3,-23,-16,-3,-26,-37,-13,-82,-9
1491090844508,3,-14,16,4,-5,40,-20,29,-10
1491090844509,0,-50,3,-10,-7,-25,-48,72,-26
1491090844509,0,30,5,-7,-7,-44,-121,-97,35
1491090844510,1,31,-2,-4,-5,26,99,12,11
1491090844510,1,-43,2,7,18,15,-48,-11,10
1491090844556,2,-76,26,35,81,84,89,33,-4
1491090844556,2,-96,-13,13,-17,-8,21,47,13
1491090844557,3,-9,-21,-44,-112,-118,60,46,-6
1491090844557,3,49,-14,-36,-47,-121,-125,-87,7
1491090844558,1,-65,10,13,42,32,104,8,-11
1491090844558,1,6,-10,1,11,-14,-108,-24,36
1491090844559,2,-86,2,-5,7,103,107,24,-28
1491090844559,2,6,-19,4,-23,-96,-51,44,6
1491090844605,3,-21,-8,-26,-104,-68,-90,-52,1
1491090844605,3,-17,-4,-11,-13,37,3,28,3
1491090844606,0,-31,-1,7,42,-1,16,-39,-16
1491090844606,0,-43,27,18,11,31,26,-5,-23
1491090844606,2,78,-10,-10,-36,-47,-75,-18,33
1491090844606,2,-74,4,12,75,79,122,-4,7
1491090844608,3,21,2,-3,-50,-118,-128,-52,-11
1491090844608,3,-44,-1,-9,-42,31,96,60,-11
1491090844654,0,32,32,-7,-6,-93,-104,1,-43
1491090844654,0,24,-19,-16,-30,-7,-6,-18,36
1491090844703,1,-22,1,4,3,-28,65,-21,13
1491090844703,1,-4,17,21,114,127,87,51,9
1491090844751,3,-63,0,-9,10,-10,-59,-35,-13
1491090844751,3,72,-2,1,-36,-116,-56,-15,-3
1491090844753,0,-27,10,11,26,19,74,0,28
1491090844753,0,-18,1,16,78,103,49,20,-8
1491090844753,1,-43,10,-4,-31,82,43,-27,-1
1491090844753,1,16,12,8,-36,-103,-81,-14,-9
1491090844754,2,-23,-24,-4,7,32,23,-40,14
1491090844754,2,57,18,0,7,2,25,-15,34
1491090844801,0,-49,-9,-17,-87,22,61,3,-6
1491090844801,0,-18,-21,-17,-7,-67,-67,23,-51
1491090844802,1,3,-7,7,50,64,39,57,21
1491090844802,1,-35,8,3,-11,77,107,-52,-40
1491090844803,2,-72,-8,-14,-45,17,88,-37,-22
1491090844803,2,11,15,21,82,91,96,25,19
1491090844804,3,-108,-2,11,49,39,87,-3,-59
1491090844804,3,-34,-10,-9,-35,-120,-118,5,28
1491090844849,0,33,-6,-13,-39,-8,-92,-64,4
1491090844849,0,-27,-21,-26,-48,-39,31,8,-37
1491090844850,1,-16,5,6,11,93,46,8,31
1491090844850,1,-57,6,26,57,25,94,69,-30
1491090844851,2,-81,15,7,52,75,5,-2,34
1491090844851,2,-26,1,-5,-66,-57,-55,-53,-34
1491090844851,3,25,-21,-35,-114,-85,-128,-64,13
1491090844851,3,-25,-14,-13,57,50,36,-20,32
1491090844898,0,-71,10,38,104,48,107,38,-12
1491090844898,0,0,2,5,32,-30,-77,-14,9
1491090844899,1,-17,-26,-28,-63,-91,-74,-80,-21
1491090844899,1,-92,2,1,-104,-90,-28,14,-20
1491090844900,3,-93,0,8,48,16,117,122,-17
1491090844900,3,41,5,4,5,42,-62,-100,73
1491090844901,0,-87,-32,-40,-58,-124,48,28,-55
1491090844901,0,83,-8,-14,-29,17,-83,-18,22
1491090844946,1,-17,20,20,61,103,48,26,12
1491090844946,1,-19,14,14,66,-10,-20,-11,-5
1491090844947,2,-29,17,9,-40,3,48,70,0
1491090844947,2,-81,1,9,32,7,0,-37,5
1491090844948,0,-45,-39,-53,-121,-128,-83,-20,-34
1491090844948,0,-38,-9,-4,58,88,29,69,-11
1491090844949,1,-3,14,13,60,-18,32,-22,28
1491090844949,1,-102,-14,0,-10,23,79,-3,-18
1491090844995,2,-33,7,13,23,43,2,-10,18
1491090844995,2,8,2,21,-4,-5,32,-25,2
1491090844996,3,-29,4,-3,7,80,-26,29,27
1491090844996,3,-43,11,20,39,4,8,65,-12
1491090844996,1,29,-9,-26,-40,-109,-105,-53,-12
1491090844996,1,22,8,9,28,-5,95,-1,-17
1491090844998,2,-39,11,18,70,103,49,20,14
1491090844998,2,-62,11,1,-37,-95,59,40,-18
