1491090732189,0,95,-46,-102,-88,82,17,-112,61
1491090732189,0,-104,-36,55,110,-87,-98,-12,-105
1491090732190,1,-103,22,42,118,-60,-30,-42,-103
1491090732190,1,-101,20,60,127,90,-48,23,-58
1491090732192,2,-18,68,57,60,-57,40,59,-24
1491090732192,2,22,2,-42,-62,120,37,68,33
1491090732237,3,45,-16,-13,-23,-85,-29,-39,42
1491090732237,3,-38,17,-22,-32,18,70,57,31
1491090732239,0,77,-8,24,-2,-51,-71,-54,28
1491090732239,0,-37,14,-9,-69,-35,63,-90,-1
1491090732239,1,12,1,-10,-58,37,-31,-58,9
1491090732239,1,41,-36,-27,-53,-99,-29,32,13
1491090732240,2,-50,19,45,120,101,93,62,24
1491090732240,2,-56,6,6,-17,-5,-59,68,-4
1491090732286,3,50,-2,-26,-93,-48,-62,48,17
1491090732286,3,17,-35,-38,-51,-101,-33,-19,-41
1491090732287,0,-10,-110,-38,-76,-71,-30,42,15
1491090732287,0,-29,30,41,125,100,10,14,1
1491090732287,1,-34,7,17,-59,-39,127,-27,1
1491090732287,1,-15,22,-22,-36,-76,-9,82,1
1491090732288,2,-47,-5,3,77,55,-86,-19,-55
1491090732288,2,-12,53,6,60,41,46,14,-19
1491090732335,3,-59,8,-2,-19,-33,-12,-4,1
1491090732335,3,28,6,4,-80,-45,-77,-49,-48
1491090732336,0,-16,-27,-30,-53,-59,-36,-30,-48
1491090732336,0,-3,-24,-22,-21,-56,87,63,8
1491090732336,2,-55,30,5,-31,-82,9,-97,-51
1491090732336,2,59,-11,-10,-2,9,-128,-62,-1
1491090732337,3,-45,-25,-22,-48,-108,101,100,7
1491090732337,3,-25,-37,-23,-18,61,-46,28,-23
1491090732383,0,59,20,20,62,16,-104,-82,9
1491090732383,0,4,3,4,-4,-28,111,7,44
1491090732384,1,18,7,4,58,107,-16,-29,37
1491090732384,1,-59,42,48,67,22,52,-104,33
1491090732385,3,28,-15,-18,64,43,-22,-24,14
1491090732385,3,17,2,22,48,41,127,-73,-45
1491090732386,0,-59,66,50,101,98,1,103,70
1491090732386,0,46,-30,-17,-88,-65,63,47,-10
1491090732432,1,19,-22,-20,-3,15,43,-92,-17
1491090732432,1,42,-3,8,43,9,-80,-47,25
1491090732433,2,-85,29,38,105,111,78,103,-27
1491090732433,2,-32,10,6,-49,3,-63,-118,-12
1491090732434,0,22,28,-2,-56,-88,51,-58,-21
1491090732434,0,-33,10,11,56,105,120,67,25
1491090732434,1,27,42,49,54,54,98,-58,31
1491090732434,1,-10,-10,17,-16,-77,-101,-80,6
1491090732481,2,23,-50,-36,-99,72,66,110,-22
1491090732481,2,82,6,-15,-38,-85,-71,-1,-17
1491090732482,3,-37,2,13,67,-16,12,119,-5
1491090732482,3,39,17,13,-30,9,16,-33,7
1491090732482,0,-56,-8,-13,-13,-60,31,40,1
1491090732482,0,-25,-5,10,65,51,62,-28,-8
1491090732530,1,64,-3,4,5,35,-26,-55,3
1491090732530,1,-50,-9,11,59,125,-51,54,-2
1491090732530,2,-104,2,8,-29,-121,69,60,-8
1491090732530,2,90,-8,-16,-98,30,-83,-114,7
1491090732531,3,-34,-6,-12,106,-39,39,71,0
1491090732531,3,-6,-30,-21,-15,46,124,8,-7
1491090732532,1,11,-4,8,-72,-1,-113,-30,-23
1491090732532,1,-92,-12,-21,-16,-39,54,81,24
1491090732578,2,6,-20,-15,-56,-114,-113,-68,-49
1491090732578,2,-26,3,15,49,124,127,50,15
1491090732580,3,1,-24,-14,-43,-42,-67,64,-29
1491090732580,3,34,-4,-8,-49,-116,-10,27,53
1491090732581,0,105,-17,-12,33,127,-96,-13,42
1491090732581,0,60,-5,-14,-101,-128,-128,-127,-22
1491090732627,2,91,-3,-2,-43,-69,-48,-70,50
1491090732627,2,54,3,12,68,29,72,-11,-10
1491090732633,3,-70,7,4,-23,59,-44,42,-12
1491090732633,3,22,-12,-33,-103,-97,-42,-101,-29
1491090732633,0,-64,-25,-17,20,-66,-18,31,-29
1491090732633,0,36,9,8,45,84,28,81,13
1491090732634,3,9,-6,-17,-70,-77,-91,-52,-65
1491090732634,3,63,-48,-46,-67,-71,-72,-86,-19
1491090732676,0,-13,50,41,118,57,126,55,32
1491090732676,0,-47,1,1,22,33,-117,46,-19
1491090732678,1,6,11,1,-75,-55,100,-5,15
1491090732678,1,-45,15,14,73,111,77,68,4
1491090732679,0,0,18,-6,46,80,-40,-68,-61
1491090732679,0,-42,27,19,-21,-25,3,63,20
1491090732725,1,-20,-4,-11,-14,-29,8,9,-28
1491090732725,1,40,-27,-14,-3,-33,6,-32,12
1491090732728,2,-22,12,18,35,33,42,-4,40
1491090732728,2,-17,-17,-16,-7,-36,5,59,-14
1491090732729,3,-35,-28,-6,-61,-61,-66,-6,-32
1491090732729,3,-61,-21,-12,67,127,81,105,-42
1491090732730,1,41,12,9,58,101,50,54,44
1491090732730,1,-37,-15,-7,8,41,3,-63,0
1491090732773,2,19,-15,-7,23,34,-50,27,-7
1491090732773,2,-21,1,2,-12,29,51,-15,6
1491090732775,3,15,7,9,45,2,-7,29,19
1491090732775,3,-7,7,1,-51,-30,-49,11,-17
1491090732777,0,-5,-2,8,23,12,6,-91,2
1491090732777,0,-61,-7,5,29,7,127,127,8
1491090732778,2,-91,11,6,-28,76,127,127,10
1491090732778,2,82,-40,-30,-57,-78,-120,-89,14
1491090732822,3,-21,3,3,61,69,64,10,-3
1491090732822,3,-47,30,3,-56,-89,86,92,-32
1491090732824,0,66,-8,-1,45,60,-128,-115,45
1491090732824,0,17,-18,-5,-27,-63,28,-60,-30
1491090732825,2,-9,10,-8,-59,40,43,-65,-22
1491090732825,2,-7,35,18,62,28,115,121,23
1491090732826,3,4,-3,6,22,-31,-70,-120,-6
1491090732826,3,-59,-4,-19,-67,-48,-50,75,-7
1491090732871,0,-12,-20,-5,41,-39,49,-34,20
1491090732871,0,-36,2,-8,-50,43,-44,-26,-32
1491090732873,1,17,27,12,32,-15,127,127,11
1491090732873,1,-26,4,5,48,38,-88,35,-10
1491090732874,3,-11,-1,32,84,103,63,-63,1
1491090732874,3,42,15,19,-34,-32,-13,-58,-6
1491090732874,0,-8,1,-19,-47,-17,10,19,-56
1491090732874,0,-12,-21,-15,-7,-45,23,4,6
1491090732920,1,-18,-23,-26,-73,-70,-27,-63,-44
1491090732920,1,52,-14,-5,-27,-15,38,-33,34
1491090732921,2,-15,0,19,104,117,11,43,-13
1491090732921,2,-8,2,8,-35,-75,40,16,24
1491090732922,0,-91,24,4,-20,-64,-8,61,-32
1491090732922,0,58,-17,-30,-99,-82,-27,-7,40
1491090732923,1,-29,12,18,62,-19,40,-5,-20
1491090732923,1,28,-14,0,4,23,-9,68,8
1491090732968,2,22,5,-17,-15,-35,78,-28,7
1491090732968,2,-22,-7,0,21,-41,-91,36,5
1491090732969,3,-8,-13,-9,-35,-35,-56,-36,-17
1491090732969,3,33,-2,-3,1,47,49,-13,6
1491090732970,1,-66,-14,5,3,2,41,-13,-34
1491090732970,1,64,-6,-11,-80,-69,-128,-70,33
1491090732971,2,8,-17,-8,10,13,71,11,40
1491090732971,2,10,28,24,127,127,113,-15,-17
1491090733020,3,28,-17,-14,-128,-128,-86,52,13
1491090733020,3,1,17,8,51,54,50,-12,-7
1491090733023,0,-22,19,21,29,2,63,110,16
1491090733023,0,36,-10,-1,-49,-34,-128,-89,-36
1491090733024,2,116,-2,-15,-86,-100,-93,-50,45
1491090733024,2,-16,8,8,104,121,82,-4,3
1491090733025,3,11,-11,-14,-53,-84,-20,52,28
1491090733025,3,-40,4,8,11,41,-45,-2,-5
1491090733066,0,-47,10,27,79,87,57,-14,-32
1491090733066,0,-13,9,6,-43,-44,75,66,-26
1491090733067,1,39,-19,-24,-19,-40,-109,-64,-8
1491090733067,1,-55,-9,-17,12,-10,39,-32,1
1491090733068,3,-37,15,25,13,89,59,41,17
1491090733068,3,-7,19,7,10,29,28,38,-4
1491090733069,0,-17,-13,-4,27,9,-11,-19,-23
1491090733069,0,-25,-4,-14,-43,5,-16,47,-23
1491090733115,1,18,5,8,-43,-79,14,-121,-23
1491090733115,1,29,-13,-18,-25,32,-118,42,39
1491090733116,2,-32,3,9,55,83,43,0,8
1491090733116,2,-19,-4,1,50,57,35,67,3
1491090733117,0,24,18,-7,-71,-84,-29,-81,-34
1491090733117,0,65,-15,-25,-97,-95,-81,-79,25
1491090733118,1,11,-2,-5,48,20,-20,104,6
1491090733118,1,-19,6,11,42,13,89,50,12
1491090733163,2,71,3,19,8,26,-114,-30,-24
1491090733163,2,-54,12,24,71,103,127,31,-19
1491090733165,3,-78,14,-19,-110,-101,102,38,12
1491090733165,3,47,-42,-28,17,-64,-57,-21,-9
1491090733167,1,45,17,-4,103,127,19,44,39
1491090733167,1,-32,2,8,35,-89,96,44,-31
1491090733167,2,26,3,8,9,54,-128,-55,17
1491090733167,2,-41,7,12,16,20,65,-2,-3
1491090733213,3,0,22,30,52,125,-25,-45,35
1491090733213,3,-4,8,-15,-128,-128,10,-5,-24
1491090733214,0,8,-34,-33,-15,2,-74,-75,-10
1491090733214,0,-13,1,-6,64,48,103,8,-2
1491090733215,1,54,-25,-45,-70,-106,-127,-103,-29
1491090733215,1,24,-9,19,77,67,-11,34,9
1491090733216,2,-16,1,23,23,48,58,-59,-31
1491090733216,2,15,12,12,-53,-63,-74,-12,41
1491090733261,3,-9,-3,6,31,28,81,68,9
1491090733261,3,-32,9,-6,-42,-64,-27,-102,-47
1491090733263,0,71,-27,-63,-128,-128,-68,13,-4
1491090733263,0,-28,-10,7,127,-28,59,52,15
1491090733264,2,-72,18,24,55,127,127,86,-49
1491090733264,2,30,-11,8,-65,2,-95,3,27
1491090733265,3,-39,4,-19,-24,-82,13,-10,-34
1491090733265,3,-54,-23,-26,-89,-31,4,-36,-58
1491090733310,0,43,3,-12,65,-76,-115,9,37
1491090733310,0,10,-19,-7,37,40,4,17,-36
1491090733311,1,-53,23,31,43,51,90,30,3
1491090733311,1,57,0,16,61,127,24,24,22
1491090733314,3,23,-14,-13,-13,-113,-17,9,11
1491090733314,3,34,-6,-11,-35,21,-56,41,12
1491090733314,0,-18,1,20,89,105,-32,-54,11
1491090733314,0,4,0,-6,-41,-37,6,23,-9
1491090733358,1,13,-5,-1,7,-41,11,3,0
1491090733358,1,-39,-4,-12,-3,-95,53,-11,8
1491090733360,2,66,-14,1,-7,111,-34,48,-24
1491090733360,2,-56,20,14,106,81,-2,2,38
1491090733361,0,46,1,1,18,12,-30,-107,32
1491090733361,0,-6,1,4,29,32,-16,56,5
1491090733362,1,-14,-30,-11,-41,-34,44,-38,3
1491090733362,1,-18,13,13,51,55,2,7,-2
1491090733407,2,-23,15,15,35,35,16,14,-11
1491090733407,2,8,10,8,-32,-51,50,16,3
1491090733408,3,13,-27,-30,-27,-13,-97,-59,-17
1491090733408,3,32,-33,-25,-96,-128,-20,-6,-25
1491090733409,1,-8,2,24,62,123,-66,21,11
1491090733409,1,17,15,11,-10,13,105,65,19
1491090733410,2,-73,-29,-31,-51,-68,-38,41,-41
1491090733410,2,58,-30,-11,-23,-39,-76,-53,13
1491090733456,3,12,32,1,18,28,25,11,56
1491090733456,3,4,5,16,71,87,-85,33,10
1491090733457,0,3,7,11,-3,28,127,5,17
1491090733457,0,19,-4,-22,-87,-89,5,-42,-51
1491090733458,2,-19,19,18,41,62,64,-23,7
1491090733458,2,-9,-9,18,17,56,-96,51,23
1491090733459,3,-26,2,-7,-5,26,82,36,-4
1491090733459,3,6,14,5,21,11,95,-117,-4
1491090733505,0,-29,-23,-9,-40,-83,-12,-43,12
1491090733505,0,-14,22,9,-12,14,8,11,-11
1491090733505,1,30,6,-5,10,-35,26,-10,14
1491090733505,1,-57,-5,7,26,84,-79,-35,-47
1491090733506,3,-19,8,2,-11,3,92,94,0
1491090733506,3,36,-2,-15,-13,4,-4,-104,-16
1491090733507,0,15,-11,1,0,-30,-76,36,-13
1491090733507,0,-76,22,31,68,126,99,42,11
1491090733553,1,-13,2,9,8,-41,34,-35,-25
1491090733553,1,15,-4,-23,-71,-25,-30,89,16
1491090733554,2,-15,-16,-14,9,28,89,35,-8
1491090733554,2,67,11,3,-15,-49,6,-12,18
1491090733555,3,-50,-12,-2,4,57,-29,22,-22
1491090733555,3,-38,6,17,59,-27,28,-9,10
1491090733556,0,5,4,2,-30,21,-40,-63,-16
1491090733556,0,12,-9,-6,11,59,-32,-71,-10
1491090733602,1,17,-9,-22,-20,-83,2,-1,-9
1491090733602,1,-6,-1,24,8,5,27,31,-15
1491090733603,2,-10,-21,-17,-12,6,-60,43,-4
1491090733603,2,7,-8,4,26,1,121,1,19
1491090733603,0,-32,-12,-11,30,-25,82,-26,26
1491090733603,0,4,4,14,-6,33,39,53,-10
1491090733604,1,8,-6,3,73,35,-111,66,8
1491090733604,1,8,2,-5,-47,81,-30,21,10
1491090733651,2,17,-8,-3,-7,-80,4,26,-1
1491090733651,2,2,13,5,42,67,32,0,-13
1491090733652,3,22,-9,-5,-52,-53,-54,-48,10
1491090733652,3,-30,2,-4,8,-34,18,-28,-6
1491090733654,1,-46,17,14,89,75,127,32,-3
1491090733654,1,-16,-3,-3,-50,-46,-33,-37,13
1491090733654,2,52,2,9,-20,-49,-37,-31,-10
1491090733654,2,-58,17,12,58,81,93,-19,17
1491090733700,3,107,3,-6,-57,-29,-112,-104,27
1491090733700,3,-41,-8,-8,29,-26,64,-24,-1
1491090733700,0,-13,9,2,-25,35,90,125,-6
1491090733700,0,-10,-19,-22,-25,-128,-128,-101,-35
1491090733701,2,39,30,25,35,20,-94,45,22
1491090733701,2,-59,4,12,0,-27,41,104,-1
1491090733702,3,-23,-7,-8,1,91,-17,-27,-51
1491090733702,3,50,1,-2,4,-105,-28,45,36
1491090733748,0,-49,-2,-3,8,-45,83,72,13
1491090733748,0,30,-8,-17,-18,-26,-78,10,-39
1491090733750,1,12,13,9,19,59,35,-42,-13
1491090733750,1,18,17,43,72,3,-31,64,15
1491090733750,3,-52,2,9,89,85,87,-36,-2
1491090733750,3,52,9,7,-43,-1,-112,-3,3
1491090733751,0,-17,-27,-32,-31,-11,32,-83,-14
1491090733751,0,13,22,17,54,45,32,49,9
1491090733797,1,-99,8,14,17,14,70,55,-18
1491090733797,1,79,-18,-21,-19,-3,-62,-87,-4
1491090733798,2,-7,13,0,-46,-73,47,31,35
1491090733798,2,35,-30,-23,-33,-11,-64,43,-29
1491090733798,0,-7,-5,6,-9,-25,-58,-10,-27
1491090733798,0,-7,8,3,-11,50,63,-68,8
1491090733800,1,50,-10,5,-46,-103,-110,-66,-4
1491090733800,1,-50,-27,-35,-9,63,51,42,-10
1491090733846,2,32,23,17,28,-40,-36,-27,8
1491090733846,2,-46,-14,-8,10,-22,76,10,13
1491090733847,3,-22,-2,-5,-8,16,-10,-9,-12
1491090733847,3,-55,22,10,27,-33,-16,87,-30
1491090733847,1,-3,-14,-32,-119,-85,-96,-83,-1
1491090733847,1,-33,-30,-16,32,-14,39,-12,-6
1491090733848,2,-15,6,13,67,29,14,40,-8
1491090733848,2,-14,-5,-6,-39,-38,-42,5,4
1491090733895,3,23,-21,-7,34,63,28,22,-12
1491090733895,3,-4,9,15,5,42,-2,-41,-5
1491090733895,0,15,18,0,-5,-88,4,31,11
1491090733895,0,17,-7,-3,-10,104,-59,-15,27
1491090733896,1,-28,-1,7,17,12,101,36,-2
1491090733896,1,6,-7,1,7,-41,-51,-45,-10
1491090733897,2,-11,-31,-29,-60,-19,56,49,-23
1491090733897,2,-18,-2,7,57,71,57,-49,-24
1491090734041,3,-12,34,18,-13,-86,-26,16,-2
1491090734041,3,36,6,4,8,104,9,-81,-8
1491090734042,0,-45,-14,-1,9,-79,38,102,2
1491090734042,0,48,-3,-3,-32,-7,-69,-61,11
1491090734042,2,11,12,-6,-32,28,59,59,17
1491090734042,2,14,-14,-14,1,60,-52,-107,-36
1491090734043,3,71,3,11,26,-16,-15,-39,12
1491090734043,3,10,21,10,17,42,63,-29,21
1491090734090,0,-50,10,23,57,32,18,-26,17
1491090734090,0,5,-3,-1,-21,13,-4,36,-49
1491090734090,1,-10,-9,-23,-68,-70,66,20,-5
1491090734090,1,27,-24,-18,35,81,-39,49,21
1491090734091,0,4,-37,-29,-86,-12,-66,-84,-19
1491090734091,0,-32,5,-3,24,-60,13,-13,-5
1491090734092,1,-4,-20,-23,-62,-2,32,43,-51
1491090734092,1,-26,-8,-24,-52,-98,24,-14,20
1491090734138,2,37,3,2,45,-21,-13,-55,-16
1491090734138,2,14,0,2,34,49,-21,98,36
1491090734187,3,-82,-5,2,-19,-24,21,-14,-1
1491090734187,3,71,12,9,18,24,7,-24,9
1491090734188,2,-16,-25,-34,-43,-87,-23,1,6
1491090734188,2,22,3,4,64,48,39,-14,17
1491090734189,3,1,-9,-5,-17,15,-57,-27,9
1491090734189,3,-60,9,12,26,30,66,15,-21
1491090734190,0,12,-12,4,10,-28,-18,-20,33
1491090734190,0,33,-6,-12,-49,-41,-34,-31,-29
1491090734236,1,-7,6,5,13,26,81,-33,38
1491090734236,1,-7,-23,5,53,81,-8,-83,-21
1491090734237,3,-15,8,23,127,88,105,127,13
1491090734237,3,-22,10,5,-37,-21,-8,-31,-15
1491090734237,0,35,-17,-20,-59,12,-128,-76,8
1491090734237,0,-35,-16,-5,22,-53,113,6,-18
1491090734238,3,-16,-9,-28,-48,-107,-128,41,0
1491090734238,3,4,2,5,77,63,77,16,5
1491090734285,0,23,-6,1,4,-37,9,35,17
1491090734285,0,-8,23,19,29,127,-55,-96,1
1491090734288,1,-37,-9,-8,-38,-105,103,79,-17
1491090734288,1,-21,23,17,38,61,8,108,10
1491090734288,0,9,-2,13,90,59,62,24,21
1491090734288,0,-71,26,19,9,98,56,-20,-28
1491090734289,1,-19,0,-8,-38,-30,11,15,-17
1491090734289,1,46,-34,-17,-46,-100,-71,-57,-1
1491090734333,2,5,3,2,47,126,35,7,-2
1491090734333,2,-34,12,10,37,-31,91,108,21
1491090734334,3,24,-8,3,22,32,-89,80,-12
1491090734334,3,-37,-6,-12,-110,-96,-9,-61,-14
1491090734335,1,-23,20,14,11,-31,49,-71,11
1491090734335,1,-76,8,0,-18,71,96,85,-13
1491090734336,2,74,-34,-19,-52,-46,-128,-82,-24
1491090734336,2,-35,11,-9,-18,1,127,84,20
1491090734382,3,49,-21,3,18,9,12,-70,-22
1491090734382,3,14,-7,2,57,-18,-97,-4,17
1491090734383,0,-39,17,14,15,104,85,58,3
1491090734383,0,-32,-5,-13,-49,-61,-19,11,2
1491090734383,2,-64,-13,-10,-37,-91,50,12,-30
1491090734383,2,-13,-3,0,-27,30,-114,-52,-6
1491090734389,3,37,-6,-18,-30,-13,21,-60,-5
1491090734389,3,41,-2,16,89,61,-35,16,22
1491090734431,0,10,3,-5,-24,-4,11,-10,-14
1491090734431,0,-46,1,-9,-62,-94,-13,-38,-17
1491090734432,1,-32,-5,-9,-8,-23,6,19,15
1491090734432,1,73,-2,1,47,34,-70,-88,34
1491090734433,3,-60,-1,-16,-53,77,76,67,-15
1491090734433,3,-54,-18,-38,-57,-90,-35,20,-23
1491090734433,0,80,-30,-3,33,1,-87,-118,44
1491090734433,0,18,12,-1,-13,27,-26,40,-4
1491090734480,1,-32,5,10,22,31,73,-26,-9
1491090734480,1,17,14,22,45,89,-7,49,-17
1491090734480,2,26,2,-10,-82,-88,36,36,-17
1491090734480,2,-7,-4,-8,17,2,21,44,-12
1491090734481,0,-12,17,24,93,63,37,46,27
1491090734481,0,69,-21,-1,3,-19,-74,-98,-3
1491090734482,1,-39,15,3,-9,8,86,69,7
1491090734482,1,1,-23,-23,-31,-6,24,-45,-30
1491090734528,2,46,2,4,8,-48,-128,48,88
1491090734528,2,-51,3,-7,2,30,92,-26,-44
1491090734529,3,10,9,5,5,-55,9,-16,1
1491090734529,3,-21,-7,10,12,97,-32,59,-32
1491090734530,1,46,12,-1,38,8,-103,27,16
1491090734530,1,7,-2,4,-22,-83,17,1,-2
1491090734531,2,-15,9,7,51,99,67,19,-15
1491090734531,2,-29,16,9,-17,-53,43,-17,-4
1491090734626,3,29,-30,-19,-53,-82,-96,-98,-71
1491090734626,3,29,4,-11,-5,-26,116,55,29
1491090734627,0,-47,12,9,30,22,42,101,20
1491090734627,0,25,-13,1,14,-9,-39,-54,-17
1491090734627,2,44,12,7,13,30,20,-71,21
1491090734627,2,-16,-1,-11,-16,-18,39,42,6
1491090734628,3,23,-16,0,44,35,-37,4,21
1491090734628,3,-16,2,-2,-44,-62,-65,-22,-26
1491090734675,0,-55,-20,-33,-61,25,95,-29,-40
1491090734675,0,71,11,9,56,7,-128,-7,39
1491090734675,1,-9,2,1,-59,-124,17,-70,13
1491090734675,1,-34,11,7,71,127,99,-8,0
1491090734676,2,-43,-2,9,8,-128,16,35,-20
1491090734676,2,-5,-16,-10,-22,19,-45,-63,-2
1491090734677,3,20,4,-8,-23,-78,2,-4,16
1491090734677,3,-42,1,-1,4,59,95,5,-34
1491090734723,0,1,-8,-16,-3,-53,-100,-7,4
1491090734723,0,21,-7,34,76,108,-46,-2,9
1491090734724,1,-93,29,1,-40,-23,92,4,-10
1491090734724,1,100,-6,-10,-15,-45,-97,57,2
1491090734725,0,105,-11,-13,-94,-75,-80,-82,-25
1491090734725,0,-11,-12,-24,-49,-27,64,-3,3
1491090734726,1,-25,-15,0,69,77,54,22,10
1491090734726,1,31,-3,16,3,4,-12,-120,-49
1491090734772,2,-13,13,3,1,44,-73,45,1
1491090734772,2,-23,32,21,-7,2,68,25,-32
1491090734821,3,-12,0,-11,-11,16,29,-19,12
1491090734821,3,27,-39,-35,-30,-86,-58,-6,25
1491090734822,1,41,-5,-3,-32,1,-33,-12,6
1491090734822,1,11,-16,-23,6,-57,11,-92,8
1491090734822,2,49,8,15,66,-90,76,47,36
1491090734822,2,-102,-24,-18,-42,-20,-55,29,-28
1491090734823,3,26,14,6,-14,-42,1,66,2
1491090734823,3,21,-1,9,22,71,-110,-45,-33
1491090734869,0,-20,-5,-13,-21,-16,99,67,43
1491090734869,0,4,14,5,8,-23,-16,-61,21
1491090734871,2,44,12,13,53,127,83,24,29
1491090734871,2,-44,12,19,40,27,96,54,-23
1491090734871,3,37,-8,-11,-74,20,-84,-109,-3
1491090734871,3,-22,-8,2,32,32,23,127,-28
1491090734918,3,6,-3,1,2,-21,69,-113,-2
1491090734918,3,-29,12,12,25,0,79,106,14
1491090734921,0,-27,9,-8,-31,-10,-18,11,-14
1491090734921,0,3,5,0,-50,-56,17,11,2
1491090734921,1,72,13,19,85,88,-59,29,53
1491090734921,1,-11,-16,-24,-60,-80,5,39,-16
1491090734922,0,-67,-18,0,-65,-46,15,41,-66
1491090734922,0,15,-35,-21,19,25,-119,-8,15
1491090734967,1,-19,1,10,39,47,91,-23,11
1491090734967,1,-34,5,11,-5,-6,81,-31,15
1491090735016,2,-26,10,-11,-22,-49,-50,-6,-9
1491090735016,2,40,-6,-4,-6,-70,-27,-45,15
1491090735065,0,-45,-17,-8,4,25,-32,-106,-48
1491090735065,0,98,-2,-6,-23,-78,-9,18,4
1491090735066,1,-75,7,15,51,123,75,95,8
1491090735066,1,17,15,10,-21,-11,-58,-43,19
1491090735066,2,64,-9,-12,-53,0,-11,-21,-2
1491090735066,2,-43,11,-5,-8,-52,48,58,-25
1491090735067,3,-40,14,4,38,55,-20,-30,-33
1491090735067,3,38,10,4,-36,-62,6,4,9
1491090735113,1,15,-31,-20,-32,-114,-83,-28,-5
1491090735113,1,-75,5,16,20,107,127,-100,-33
1491090735114,2,-24,5,8,0,44,78,-11,18
1491090735114,2,29,9,-6,-41,-59,-15,16,-3
1491090735115,3,17,-2,6,-15,-56,-21,29,-17
1491090735115,3,14,-18,-15,-49,-83,-52,3,66
1491090735116,0,5,37,29,61,108,22,42,-1
1491090735116,0,-33,-7,-7,-2,-36,26,-58,-25
1491090735162,1,-12,-2,-4,-51,-25,-5,-44,-8
1491090735162,1,-21,-11,-22,24,23,49,39,-42
1491090735163,2,57,3,-4,-9,-95,-116,-118,-26
1491090735163,2,1,-7,8,18,64,37,-43,19
1491090735165,0,15,-16,-13,-34,-61,-88,-72,-13
1491090735165,0,3,0,1,10,78,25,66,-11
1491090735166,1,17,14,14,0,-58,39,5,-2
1491090735166,1,-37,-10,-12,-5,18,-1,-51,-16
1491090735211,2,74,0,-11,-70,-54,-18,25,35
1491090735211,2,-39,14,8,47,-32,11,18,3
1491090735212,3,-9,-21,-12,3,40,-15,-45,-23
1491090735212,3,15,17,8,-5,-30,28,-62,2
1491090735212,1,34,-9,-12,-44,-82,-52,5,1
1491090735212,1,-20,6,18,44,100,59,16,-10
1491090735213,2,-49,-11,8,6,-42,43,-37,-10
1491090735213,2,39,-11,-5,1,65,-69,20,-4
1491090735260,3,-48,11,8,19,42,100,69,-7
1491090735260,3,80,-16,-18,-54,-64,-128,-28,19
1491090735261,0,-2,1,-21,-38,-66,61,15,-3
1491090735261,0,-9,3,11,45,38,69,-52,-22
1491090735261,2,3,-2,-3,6,-4,80,1,4
1491090735261,2,-11,-5,-7,-37,-61,22,-41,8
1491090735262,3,22,-12,-21,-9,-11,-109,-15,6
1491090735262,3,13,-12,-1,-7,-39,-56,4,-24
1491090735308,0,-38,16,12,12,54,1,35,-10
1491090735308,0,2,5,-5,-1,-36,7,90,-7
1491090735309,1,-4,0,2,13,64,14,-40,59
1491090735309,1,34,2,-3,-22,-83,-27,57,-2
1491090735310,2,18,-23,-19,1,2,60,-10,-21
1491090735310,2,9,-3,-6,-52,-18,13,-10,-14
1491090735312,3,57,0,4,22,-49,-10,-2,27
1491090735312,3,-20,12,18,77,127,48,15,-16
1491090735357,0,-35,5,7,1,33,30,13,6
1491090735357,0,10,-9,-22,-55,-83,-23,-93,21
1491090735358,1,12,-7,-9,-22,-64,-43,24,20
1491090735358,1,-36,-5,9,51,35,75,-40,-10
1491090735359,3,-36,22,6,14,46,91,28,-12
1491090735359,3,0,-32,-17,-61,-92,-110,-98,-33
1491090735359,0,7,0,1,53,127,91,33,-5
1491090735359,0,87,1,-3,-36,-128,-88,-10,21
1491090735409,1,-5,5,1,4,31,42,-98,-26
1491090735409,1,-64,-15,-10,19,11,-30,33,-13
1491090735409,2,2,7,11,-17,-26,32,36,1
1491090735409,2,-43,-3,-4,6,86,9,53,2
1491090735410,0,-13,-7,0,12,-19,-48,-48,14
1491090735410,0,-30,4,8,20,6,85,45,-31
1491090735411,1,-81,2,17,5,35,-29,67,-22
1491090735411,1,41,0,-9,-52,-53,-10,-46,-38
1491090735454,2,42,0,4,9,-8,-15,-50,26
1491090735454,2,-37,0,-1,10,50,-21,52,18
1491090735456,3,21,-14,-24,-10,-58,-26,-76,6
1491090735456,3,7,0,-2,9,20,-2,-2,-20
1491090735456,1,-2,-4,1,5,-37,-23,2,33
1491090735456,1,23,0,8,23,83,46,33,31
1491090735457,2,17,22,8,15,66,-63,-54,-37
1491090735457,2,4,-14,-14,-8,-105,-37,-30,36
1491090735503,3,-4,-8,-10,-11,35,64,52,3
1491090735503,3,-10,2,0,-25,-72,-33,-5,26
1491090735552,0,-38,2,0,6,43,50,-18,-48
1491090735552,0,-19,3,3,23,-5,-12,-9,12
1491090735554,2,50,12,14,14,38,-90,75,5
1491090735554,2,41,-19,-25,-52,-22,43,-72,-46
1491090735554,3,-34,-11,-5,14,-55,115,75,63
1491090735554,3,-7,18,10,62,127,64,18,-3
1491090735555,0,38,-6,-2,-39,-56,18,26,-18
1491090735555,0,-25,-10,-5,-13,-29,-5,-10,-19
1491090735650,1,-48,7,6,-2,-6,74,-70,-35
1491090735650,1,57,-2,0,25,54,-102,17,31
1491090735651,3,45,-6,-6,29,27,9,13,15
1491090735651,3,-60,23,4,0,-17,21,21,-4
1491090735651,0,-34,7,6,28,20,51,-8,9
1491090735651,0,33,-11,12,22,60,-105,-47,12
1491090735698,0,37,-11,-15,14,9,-83,-59,15
1491090735698,0,-20,4,15,35,25,70,-36,7
1491090735699,1,-17,-1,-5,3,28,11,2,-26
1491090735699,1,58,-21,-10,-23,-101,-128,3,-36
1491090735700,2,-24,13,21,25,83,77,62,28
1491090735700,2,13,-5,-7,0,19,5,-55,-23
1491090735701,0,-28,-15,-20,-40,-63,69,-26,19
1491090735701,0,-48,1,-17,-38,-103,-128,44,-38
1491090735747,1,3,-4,6,41,13,-79,-12,-15
1491090735747,1,-25,6,9,26,-7,33,-7,10
1491090735748,2,6,-1,2,-2,-6,-28,-61,19
1491090735748,2,42,-11,-5,-14,-28,-50,58,9
1491090735749,3,-54,-17,-12,-34,21,27,-4,-33
1491090735749,3,-51,9,-2,2,-9,58,35,-33
1491090735749,2,-37,0,3,46,82,127,23,-5
1491090735749,2,48,-28,-17,-24,-68,-103,-38,24
1491090735796,3,-29,5,7,29,36,118,44,-3
1491090735796,3,-43,30,17,36,50,90,69,24
1491090735797,0,75,-13,-7,-15,-14,-55,35,17
1491090735797,0,-98,14,13,41,121,100,18,-37
1491090735797,3,0,-4,-1,19,-10,-62,0,20
1491090735797,3,-43,8,14,36,6,86,-50,-35
1491090735798,0,29,7,12,-3,15,-94,0,21
1491090735798,0,2,-4,-11,-13,-33,16,13,-7
1491090735845,1,-13,9,6,-1,39,74,48,11
1491090735845,1,35,-14,-18,-54,-55,-61,22,-24
1491090735846,2,-8,10,7,58,80,127,41,-11
1491090735846,2,25,27,12,-9,-17,-75,-43,19
1491090735846,0,3,-7,-11,-6,-25,50,-25,-2
1491090735846,0,11,-11,-2,33,-6,46,20,-14
1491090735847,1,-10,-10,-10,1,5,-13,-2,-2
1491090735847,1,-28,-13,-3,-5,2,28,-24,20
1491090735893,2,40,19,18,-17,-38,-44,-76,-31
1491090735893,2,-38,-18,-2,38,107,83,47,-4
1491090735894,3,-10,6,-5,-31,-39,26,-35,-20
1491090735894,3,42,10,2,-7,-11,-89,-10,-5
1491090735895,1,44,4,6,27,30,42,-12,7
1491090735895,1,-20,-4,1,13,3,6,13,9
1491090735896,2,-55,16,13,38,29,16,15,-1
1491090735896,2,22,11,8,-21,-28,-36,-31,4
1491090735943,3,-11,-13,-15,-34,-61,-67,-24,-3
1491090735943,3,-3,-13,6,43,83,105,44,-8
1491090735944,0,13,-4,-7,-34,-62,-103,-2,28
1491090735944,0,-15,5,-3,15,30,75,43,-11
1491090735945,2,28,-9,-8,-41,-60,-22,-9,40
1491090735945,2,17,-15,-23,-3,-10,48,24,19
1491090735945,3,-21,0,-3,-25,-56,39,21,28
1491090735945,3,65,10,4,18,21,5,-61,5
1491090735991,0,-62,2,17,36,56,51,38,-15
1491090735991,0,7,-1,-5,-35,-71,51,20,5
1491090735992,1,-8,3,-5,1,22,-79,-70,-9
1491090735992,1,45,-21,-19,-37,-48,-78,30,-3
1491090735992,3,37,-1,-3,-62,-109,-13,-51,-19
1491090735992,3,-45,11,6,-9,91,53,-49,-29
1491090735993,0,56,-21,-25,-4,-82,-76,-6,39
1491090735993,0,-51,8,1,7,41,-86,21,-41
1491090736039,1,53,-12,-13,17,-1,-2,-17,32
1491090736039,1,13,11,22,29,8,-12,44,-25
1491090736040,2,-65,2,0,-41,-25,67,10,-23
1491090736040,2,7,27,10,-6,-26,22,-20,9
1491090736041,3,1,-26,-14,19,75,-29,10,-44
1491090736041,3,32,-2,-11,-5,-128,25,21,41
1491090736042,0,-32,5,8,21,120,118,27,17
1491090736042,0,13,-8,13,32,57,28,-42,-8
1491090736088,1,-10,4,0,-15,-5,-43,-10,-2
1491090736088,1,-32,-4,-6,-42,-78,88,-22,-4
1491090736095,2,9,11,5,34,59,29,-31,-34
1491090736095,2,-12,-20,-6,6,-31,59,-31,0
1491090736095,0,-62,14,10,34,55,-5,69,-14
1491090736095,0,52,-8,-6,-29,-61,-120,-48,22
1491090736096,1,-10,11,12,47,24,62,13,-50
1491090736096,1,-30,6,12,25,44,8,87,28
1491090736138,2,10,-7,-2,-11,29,14,-45,-33
1491090736138,2,-28,4,-5,-12,1,-75,-22,3
1491090736140,3,11,1,18,-10,0,88,-19,9
1491090736140,3,-37,-9,-27,-50,-19,-57,54,23
1491090736141,1,-62,1,-11,-8,-59,57,28,27
1491090736141,1,10,-4,-3,7,3,-57,-9,5
1491090736142,2,-59,24,11,11,-7,62,-82,-10
1491090736142,2,29,-11,-10,-45,-2,-114,-28,-10
1491090736186,3,-61,2,3,9,-2,50,29,4
1491090736186,3,-12,-8,-3,3,42,76,-22,0
1491090736187,0,14,4,-5,-9,-34,-72,26,10
1491090736187,0,2,1,-4,-8,37,56,0,0
1491090736187,2,-6,4,2,-31,-18,39,31,-7
1491090736187,2,5,3,4,6,-44,-20,25,15
1491090736188,3,-17,3,-10,-49,33,-108,-22,4
1491090736188,3,19,-7,-16,-28,-66,30,13,50
1491090736235,0,-38,-13,1,14,1,56,-4,-20
1491090736235,0,0,1,6,-1,0,-48,15,-30
1491090736237,1,10,5,10,2,-71,24,17,-9
1491090736237,1,-60,7,-1,1,76,17,-18,-60
1491090736237,3,66,-21,-7,-32,38,-9,-24,-7
1491090736237,3,-14,1,-3,24,20,61,38,-2
1491090736238,0,44,8,4,-23,-83,-62,-23,13
1491090736238,0,-30,-16,-2,25,73,126,45,-6
1491090736283,1,34,-53,1,17,-4,-57,2,34
1491090736283,1,-4,-54,4,-16,-33,-9,17,-44
1491090736284,2,40,-26,-2,30,86,-20,-9,27
1491090736284,2,-42,16,12,12,-4,67,-5,-8
1491090736285,0,-48,5,-19,-35,-73,-97,-40,-47
1491090736285,0,50,7,-15,-30,-34,-50,-65,-13
1491090736286,1,-11,2,2,25,-7,-11,40,16
1491090736286,1,-25,21,5,20,8,96,12,-46
1491090736332,2,47,-14,-29,-56,-44,-35,-2,32
1491090736332,2,8,4,19,55,44,-76,13,3
1491090736333,3,-68,5,4,8,32,127,16,-4
1491090736333,3,-3,2,3,-25,-15,-128,-40,-17
1491090736333,1,92,2,6,24,-47,-43,19,37
1491090736333,1,-29,11,2,-5,68,104,12,10
1491090736335,2,41,10,0,22,-43,0,-47,6
1491090736335,2,-6,6,5,-15,56,-57,62,-8
1491090736381,3,-83,1,-5,27,-29,-1,-72,-17
1491090736381,3,53,5,11,7,-19,50,77,3
1491090736382,0,11,-15,0,2,37,-73,3,-15
1491090736382,0,-22,2,2,-20,-14,108,24,16
1491090736382,1,42,22,11,28,9,2,-54,17
1491090736382,1,0,-13,-1,-1,28,-70,6,-11
1491090736383,2,-25,-16,-22,-84,-68,8,11,-24
1491090736383,2,23,-4,-9,8,-37,20,24,15
1491090736430,3,-57,0,7,12,-44,108,11,-47
1491090736430,3,30,-2,-8,20,72,-80,-31,24
1491090736431,0,-66,2,6,22,25,123,74,-27
1491090736431,0,54,-41,-20,-10,-55,-128,-106,1
1491090736432,2,7,-25,-13,-13,-26,4,-48,-26
1491090736432,2,50,30,14,4,66,-5,-59,43
1491090736433,3,-31,-8,-4,-26,-14,35,14,-60
1491090736433,3,-22,-3,-20,-11,9,2,-30,22
1491090736479,0,3,0,-4,1,-71,-95,38,23
1491090736479,0,-34,0,6,33,81,16,71,-22
1491090736481,1,18,2,2,6,22,40,-71,32
1491090736481,1,31,15,11,-10,-63,-75,-35,-17
1491090736482,3,-69,-1,-6,11,30,20,26,-33
1491090736482,3,-34,-24,-18,-47,-8,9,-37,-35
1491090736484,0,44,4,5,13,-21,-93,16,22
1491090736484,0,46,26,1,-4,-78,-26,-52,52
1491090736527,1,-4,6,8,4,92,79,61,2
1491090736527,1,-5,-20,2,13,-126,-5,19,36
1491090736529,2,-62,27,11,-19,114,62,31,-37
1491090736529,2,-3,-17,-7,-5,-22,83,27,-6
1491090736530,0,-25,3,2,25,-31,-33,-19,-11
1491090736530,0,22,-8,0,27,6,-30,32,32
1491090736531,1,-47,-15,0,8,-12,37,24,-38
1491090736531,1,32,14,22,33,70,45,58,11
1491090736577,2,6,-27,-26,-63,5,-36,-102,-11
1491090736577,2,-32,-17,-22,-32,-109,-35,-16,-27
1491090736578,3,55,-26,-9,-2,-42,-81,-6,30
1491090736578,3,-19,9,15,49,90,47,-51,-17
1491090736579,1,33,9,10,12,68,-122,-49,16
1491090736579,1,-9,-10,-13,-20,-34,-24,37,11
1491090736580,2,34,4,11,60,13,71,48,8
1491090736580,2,-101,-9,1,-9,111,95,-44,-21
1491090736624,3,65,3,-17,-79,-115,-13,-18,-9
1491090736624,3,13,-11,-15,19,-47,-92,28,15
1491090736625,0,-17,11,17,11,-84,78,60,6
1491090736625,0,38,-3,1,22,69,-107,-41,-20
1491090736626,2,-3,-5,-14,-21,-8,-59,-65,-85
1491090736626,2,-66,12,7,-26,36,127,33,18
1491090736627,3,18,-26,-22,-28,-41,-108,-35,-17
1491090736627,3,85,-32,-18,-10,-72,-52,-64,9
1491090736673,0,-40,-13,-8,-15,33,87,-48,3
1491090736673,0,-10,3,7,38,11,49,39,-32
1491090736674,1,38,6,15,32,72,-60,26,5
1491090736674,1,-70,7,-3,-50,-52,47,-62,-18
1491090736675,3,-37,17,-6,-17,-25,127,40,3
1491090736675,3,-1,4,31,79,81,27,24,10
1491090736676,0,-33,7,12,30,78,-5,-19,-4
1491090736676,0,22,-4,-10,-92,-128,-75,-55,13
1491090736722,1,-32,-6,-7,63,127,119,4,-35
1491090736722,1,59,19,5,-18,-65,-113,-33,19
1491090736723,2,-56,-8,-14,-27,-11,30,68,-58
1491090736723,2,12,-1,-1,0,-57,-21,-7,68
1491090736724,3,-1,-39,-16,-14,28,-47,-52,-34
1491090736724,3,4,9,2,-16,-81,96,48,8
1491090736725,0,7,3,9,37,102,97,55,33
1491090736725,0,-1,-30,-16,-21,-27,-55,-59,-35
1491090736771,1,-22,47,11,-28,-59,93,54,13
1491090736771,1,-48,-5,3,14,15,-28,-19,-35
1491090736772,2,72,-11,-13,-18,-3,-18,-33,11
1491090736772,2,-54,7,9,31,24,41,52,2
1491090736772,0,16,5,6,5,-32,-5,6,11
1491090736772,0,-41,11,18,26,69,70,8,14
1491090736773,1,16,-9,-2,2,-5,-9,-116,-20
1491090736773,1,36,-1,-4,-42,-4,-34,80,43
1491090736819,2,4,-5,-9,7,-39,-17,-20,-29
1491090736819,2,-5,-8,-13,-13,-51,10,27,-14
1491090736821,3,-3,2,0,-2,0,-54,-88,29
1491090736821,3,-3,-30,-23,-28,-15,21,27,9
1491090736821,1,-22,-18,-16,-63,-89,-16,39,-15
1491090736821,1,3,-5,-15,20,30,46,13,-19
1491090736822,2,-25,4,10,-5,-19,54,-79,-33
1491090736822,2,46,-18,-16,-53,-53,-53,50,63
1491090736868,3,-2,8,23,54,88,114,38,6
1491090736868,3,13,11,-9,-5,-1,59,-12,11
1491090736869,0,-57,-4,-9,-41,-113,9,4,-4
1491090736869,0,-5,-8,8,81,127,5,-7,-32
1491090736870,2,42,17,14,46,28,10,-65,30
1491090736870,2,-39,-19,-14,-15,11,25,-3,-9
1491090736871,3,35,5,11,-20,-14,-19,-84,18
1491090736871,3,-77,-5,3,8,-13,46,-16,-59
1491090736966,0,17,-6,-3,-33,-30,33,35,28
1491090736966,0,-37,11,0,-1,43,48,54,-18
1491090736967,1,50,-9,-3,39,-5,-60,-24,32
1491090736967,1,-5,0,0,15,48,101,78,-1
1491090736968,3,-63,-3,-3,-3,21,58,29,-26
1491090736968,3,36,16,5,-2,1,49,10,18
1491090736969,0,27,-12,-6,8,-38,-54,63,-19
1491090736969,0,4,-7,0,-16,19,-22,14,11
1491090737014,1,-47,5,4,41,88,63,5,-31
1491090737014,1,-30,-23,-10,-20,-47,-128,-54,-5
1491090737016,2,8,1,-4,38,34,103,17,-29
1491090737016,2,-72,0,9,-9,-7,-45,-12,37
1491090737016,1,-17,-6,-13,-14,-44,77,3,-19
1491090737016,1,24,8,9,4,30,-42,-37,-16
1491090737017,2,-4,-1,5,3,-41,-63,4,13
1491090737017,2,16,4,14,42,79,64,11,11
1491090737069,3,-51,14,9,25,28,7,36,-50
1491090737069,3,-20,-21,-20,-46,-30,31,-29,39
1491090737070,0,-5,27,15,-10,-39,84,71,3
1491090737070,0,15,1,5,-5,-6,-78,-66,3
1491090737070,1,-5,-15,-11,-24,-52,11,-61,-19
1491090737070,1,27,8,7,18,70,2,-2,12
1491090737071,2,-37,-10,-10,25,27,33,43,14
1491090737071,2,15,7,6,10,0,66,4,24
1491090737112,3,62,19,14,-23,40,-128,45,41
1491090737112,3,-31,-25,-26,-30,-41,-45,-36,-33
1491090737113,0,53,-8,-3,0,-33,9,-39,10
1491090737113,0,-19,2,17,107,107,20,43,3
1491090737114,2,-43,-16,-10,8,16,-65,-13,-17
1491090737114,2,39,0,1,34,27,-4,-19,54
1491090737114,3,14,-5,-2,9,18,35,18,-25
1491090737114,3,-96,5,4,-24,-41,101,30,-6
1491090737161,0,25,31,19,95,80,37,23,18
1491090737161,0,-24,-7,-4,-76,-94,-91,-81,-42
1491090737163,1,10,13,-3,-4,-20,51,40,-1
1491090737163,1,-8,9,13,65,104,70,12,11
1491090737164,3,15,8,-5,-2,-36,2,26,7
1491090737164,3,-30,9,9,-2,-62,9,-20,-19
1491090737165,0,21,-17,-13,-7,46,65,1,31
1491090737165,0,16,11,5,31,50,0,79,-6
1491090737210,1,2,-13,1,-4,-33,-42,-53,-1
1491090737210,1,-42,4,-6,-36,-32,-11,-21,13
1491090737212,2,60,-5,-4,-4,-1,-76,-125,-20
1491090737212,2,-14,30,13,-16,-42,21,56,-32
1491090737213,0,33,4,-8,-43,-85,-68,22,29
1491090737213,0,-78,-32,-12,-17,-40,108,-24,-28
1491090737214,1,18,18,15,54,122,-16,17,25
1491090737214,1,-47,18,20,25,-16,57,53,-44
1491090737258,2,32,-5,-11,-21,92,23,-15,39
1491090737258,2,20,-13,-11,-20,-26,-22,6,-4
1491090737260,3,-54,-2,-5,-3,-20,0,-27,13
1491090737260,3,17,-10,-15,-31,-8,4,85,12
1491090737260,1,5,-7,-6,-49,-40,1,9,25
1491090737260,1,16,1,-3,14,-64,-9,4,-13
1491090737262,2,-67,-3,4,28,77,-19,28,-27
1491090737262,2,29,-1,8,-1,16,28,-9,10
1491090737307,3,-36,-12,-25,-42,-73,-31,-34,-7
1491090737307,3,18,-10,-20,2,66,14,-13,3
1491090737308,0,-33,-2,11,10,-6,-53,80,-21
1491090737308,0,10,-8,8,16,34,-6,-60,29
1491090737309,2,2,-17,-19,-12,-25,-107,71,-5
1491090737309,2,-3,7,-1,8,-3,64,2,-29
1491090737310,3,64,-5,9,14,-6,-5,-7,-2
1491090737310,3,-6,14,8,17,28,106,56,35
1491090737405,0,4,-7,-2,13,4,-59,-42,0
1491090737405,0,35,-12,-8,-53,-98,-97,-23,-8
1491090737406,1,-27,7,14,54,115,21,3,-3
1491090737406,1,-1,5,18,62,49,41,-57,16
1491090737406,3,21,-10,0,-1,-22,-69,-88,-42
1491090737406,3,-59,-22,-11,10,-34,-126,91,3
1491090737407,0,96,10,13,28,33,88,-94,-7
1491090737407,0,-65,-18,-16,-30,1,0,7,-62
1491090737453,1,48,-11,-21,-30,-60,-90,-43,2
1491090737453,1,-32,9,16,36,28,22,58,-6
1491090737455,2,14,1,24,7,-55,9,-91,-1
1491090737455,2,-10,5,-7,-24,63,2,-3,-4
1491090737456,0,-70,1,-10,-25,-37,16,45,56
1491090737456,0,-2,-4,-8,-18,30,101,-18,-35
1491090737456,0,-60,2,0,22,38,-40,-22,-36
1491090737456,0,19,5,2,-33,-82,21,-37,14
1491090737502,1,-2,16,23,83,103,68,22,-9
1491090737502,1,-6,-8,-9,-67,-88,-64,-58,19
1491090737503,2,-37,-6,-13,-9,32,105,-3,-47
1491090737503,2,8,17,7,11,9,-33,-31,8
1491090737504,1,37,0,-15,-56,-77,-3,3,44
1491090737504,1,-21,-5,-5,-42,-47,-39,-57,-39
1491090737505,2,13,-22,-8,69,62,15,87,24
1491090737505,2,-31,10,6,-22,-42,36,-32,22
1491090737551,3,-26,9,0,1,-18,-66,13,-32
1491090737551,3,101,-11,-12,27,-23,-84,-15,62
1491090737553,0,-44,14,3,-44,25,83,-54,-28
1491090737553,0,-16,-13,-3,53,-39,-61,-20,12
1491090737556,2,-2,8,2,30,-63,0,41,-8
1491090737556,2,41,-31,-25,-69,-18,-120,-12,-12
1491090737557,3,-29,-5,-6,-11,-30,61,5,-18
1491090737557,3,13,10,27,67,85,-21,20,26
1491090737600,0,-1,2,11,58,103,27,54,26
1491090737600,0,41,-10,-11,-75,-76,-54,-44,-15
1491090737601,1,-36,-5,-14,-70,-82,87,-81,1
1491090737601,1,12,6,-1,45,77,-34,27,16
1491090737601,3,52,-6,6,37,43,-60,14,43
1491090737601,3,-85,2,1,-21,-30,127,61,-14
1491090737602,0,-14,-14,-9,-32,-1,-90,-74,-21
1491090737602,0,-27,12,19,41,24,71,56,0
1491090737649,1,-24,1,0,-22,-60,-74,-21,-35
1491090737649,1,15,-4,1,17,30,35,19,-12
1491090737650,2,-56,-26,-22,-53,-63,-63,17,-14
1491090737650,2,-4,16,7,25,23,101,-32,-22
1491090737651,0,-35,16,11,14,97,127,59,-8
1491090737651,0,39,-19,-16,-79,-121,-128,-30,-28
1491090737652,1,2,-12,-9,35,87,104,81,20
1491090737652,1,-22,9,3,15,-28,36,-10,5
1491090737697,2,20,7,-2,-59,-45,-12,11,3
1491090737697,2,-36,14,11,47,24,12,-4,-3
1491090737746,3,-9,-1,7,36,65,19,-6,-15
1491090737746,3,41,-4,2,-9,-62,-2,0,20
1491090737747,1,-45,9,-13,-32,-76,-53,5,-35
1491090737747,1,40,-2,-21,-47,-19,-72,32,15
1491090737749,2,-19,24,37,51,-19,42,-103,-16
1491090737749,2,59,-9,-6,19,88,79,83,25
1491090737750,3,-15,-21,-17,-47,-67,-48,-15,-26
1491090737750,3,-44,6,9,42,80,101,55,-19
1491090737795,0,29,10,9,47,37,-22,-114,38
1491090737795,0,5,-15,-12,-73,-85,-83,18,9
1491090737796,2,27,-2,-9,13,9,39,70,22
1491090737796,2,-41,12,14,54,47,26,-21,-1
1491090737797,2,5,-23,-1,3,-17,-7,11,-31
1491090737797,2,4,-24,-24,-11,15,-86,16,54
1491090737798,3,-35,-7,8,60,23,45,31,-6
1491090737798,3,39,4,7,-21,17,-18,2,7
1491090737844,0,3,-18,-17,-46,-87,-100,-26,-29
1491090737844,0,-1,17,17,36,80,75,26,-12
1491090737846,1,-9,-4,6,44,101,30,-49,-12
1491090737846,1,22,-10,-14,1,-68,-45,40,21
1491090737847,3,52,13,-4,-67,-27,-108,-7,16
1491090737847,3,6,10,11,18,-7,95,-59,4
1491090737848,0,14,16,15,21,64,-28,-38,-40
1491090737848,0,31,-24,-10,-4,-42,1,-40,41
1491090737892,1,49,-13,-17,-32,-10,-11,6,31
1491090737892,1,-41,7,5,16,-2,65,2,-22
1491090737893,2,37,-6,-2,12,-7,-68,32,44
1491090737893,2,-23,17,10,-8,3,-7,13,-43
1491090737894,0,-6,-12,-3,42,112,23,-81,-16
1491090737894,0,-4,-3,-14,-16,-2,-47,15,-12
1491090737895,1,51,-5,-2,-63,-78,41,-76,35
1491090737895,1,-17,-13,-9,32,44,-22,-30,-34
1491090737941,2,25,5,5,40,-3,0,67,13
1491090737941,2,-18,-5,6,-18,-16,-64,9,18
1491090737942,3,15,9,1,20,33,24,-15,-47
1491090737942,3,43,1,12,34,22,1,1,20
1491090737942,1,23,7,14,79,71,77,-55,8
1491090737942,1,-1,-18,-11,-20,-41,-81,-87,2
1491090737943,2,34,3,0,-3,-32,113,46,63
1491090737943,2,29,23,19,57,80,-41,24,-11
1491090737990,3,-49,-9,-7,-47,-108,113,17,3
1491090737990,3,-9,3,3,27,26,3,39,-23
1491090737991,0,-10,-10,-12,21,53,114,-75,3
1491090737991,0,-11,7,7,-25,-15,25,46,-38
1491090737991,2,-5,-5,-7,-15,13,2,7,-26
1491090737991,2,9,-14,-9,-28,-64,-9,32,37
1491090737992,3,5,2,-8,35,62,-8,-8,-21
1491090737992,3,-7,2,11,10,-37,15,-36,29
1491090738038,0,-37,8,2,10,30,51,75,-29
1491090738038,0,-15,0,6,-7,87,70,-55,-21
1491090738049,1,-15,-27,-32,-39,-109,-93,26,7
1491090738049,1,42,-9,-17,-43,-52,-69,-32,5
1491090738050,3,-84,9,20,-8,20,56,32,-45
1491090738050,3,-14,22,3,18,6,17,-24,26
1491090738050,0,-29,-16,-5,12,36,-90,11,-47
1491090738050,0,7,3,-7,-33,-17,47,2,-17
1491090738087,1,11,-9,-5,-5,-18,-64,11,5
1491090738087,1,-2,-9,-11,12,-33,84,32,-33
1491090738088,2,28,26,15,-27,3,-18,-45,7
1491090738088,2,38,2,8,47,0,-14,25,45
1491090738090,0,7,-13,-1,23,21,5,-8,-27
1491090738090,0,34,-14,-5,-18,-21,37,-117,-19
1491090738091,1,-25,-6,-23,-58,-109,-5,25,25
1491090738091,1,43,-2,5,-1,49,-50,-41,-20
1491090738136,2,-16,-7,-5,24,37,83,28,17
1491090738136,2,21,8,25,33,29,-70,-21,-11
1491090738137,3,-12,4,-4,3,10,55,-15,-1
1491090738137,3,7,8,2,-15,37,127,50,-28
1491090738138,0,33,-9,-14,-39,-90,-109,-29,22
1491090738138,0,-31,9,0,52,90,103,-7,33
1491090738184,1,-16,1,4,14,-14,-64,85,4
1491090738184,1,-1,5,-10,-6,0,-32,-4,-19
1491090738186,2,-51,18,24,23,46,47,22,39
1491090738186,2,-12,-22,-28,-65,-128,-95,-15,-20
1491090738189,3,5,-8,-15,-46,38,-80,-46,-30
1491090738189,3,-72,2,5,26,-24,88,-22,-18
1491090738191,1,79,14,8,9,-20,21,61,3
1491090738191,1,-34,5,0,32,94,97,-23,-28
1491090738233,2,28,-4,4,-50,-103,-105,-22,16
1491090738233,2,-36,-7,-13,-9,94,60,36,-19
1491090738235,3,-21,-1,-6,-19,-85,37,-46,2
1491090738235,3,66,-7,3,58,88,-96,33,37
1491090738235,2,-3,-34,-25,-47,-33,-14,-93,-12
1491090738235,2,25,22,4,38,-40,13,-13,18
1491090738236,3,-4,-2,12,0,127,75,25,-28
1491090738236,3,-30,-4,8,8,-26,6,29,2
1491090738282,0,19,-3,0,-21,-72,-108,35,-54
1491090738282,0,-26,4,3,7,9,61,24,46
1491090738284,1,-36,9,17,77,123,-3,-48,-25
1491090738284,1,14,-12,-17,-82,-90,-49,-118,3
1491090738285,3,4,-18,-5,22,8,-30,-3,-4
1491090738285,3,73,-19,-7,0,-22,-74,-43,13
1491090738286,0,-22,6,18,28,80,69,19,-10
1491090738286,0,1,18,19,41,76,68,69,19
1491090738331,1,-36,-8,-3,-67,-75,-68,-49,-40
1491090738331,1,-13,1,-19,-17,-57,29,19,-4
1491090738332,2,51,-25,-21,-5,51,-7,-94,12
1491090738332,2,-36,-6,-11,-51,-115,-53,-74,-6
1491090738333,0,15,2,-3,33,54,52,-100,-1
1491090738333,0,-28,45,34,18,-7,-5,55,21
1491090738380,1,-1,-7,-2,-19,41,7,-15,-10
1491090738380,1,34,5,12,49,-9,-107,-34,-17
1491090738381,2,-83,7,0,55,121,127,54,-5
1491090738381,2,54,-31,-20,-107,-128,-51,-22,50
1491090738381,3,-41,8,-20,-18,-37,12,-60,-38
1491090738381,3,-48,-1,-7,-56,-25,-16,45,-42
1491090738382,1,-1,3,-1,-65,-98,69,41,29
1491090738382,1,-35,-30,-12,8,127,-36,-41,-22
1491090738477,2,-49,-9,-4,10,-92,-2,32,0
1491090738477,2,-43,2,18,1,46,83,38,-50
1491090738478,3,89,-5,13,42,65,-6,-81,116
1491090738478,3,-92,-7,11,59,36,124,37,-69
1491090738480,2,10,3,16,32,95,58,16,7
1491090738480,2,-26,-20,-11,-18,11,10,-30,-10
1491090738481,3,-6,17,6,-65,-83,0,-38,-31
1491090738481,3,29,15,2,-12,-13,-37,118,67
1491090738526,0,-29,-12,6,19,-62,-72,-43,-45
1491090738526,0,-11,-5,1,44,94,17,2,-10
1491090738527,1,44,5,6,11,-20,-2,-5,2
1491090738527,1,13,-3,-3,-25,6,-59,-33,6
1491090738527,2,-21,4,-17,-61,-80,85,108,34
1491090738527,2,-10,-5,4,18,-11,-20,23,-18
1491090738528,3,72,6,-12,-88,-86,-125,-108,-11
1491090738528,3,34,-38,-39,-16,-4,-55,15,30
1491090738575,0,21,1,10,86,45,103,40,17
1491090738575,0,-72,6,9,-5,-68,-54,-91,-37
1491090738576,1,-2,30,10,-34,30,12,-29,-16
1491090738576,1,19,15,11,25,63,46,36,0
1491090738576,0,78,-43,-35,-90,-72,-84,-1,-5
1491090738576,0,19,3,-7,-40,-27,102,-61,-3
1491090738577,1,9,2,9,96,81,22,27,7
1491090738577,1,-53,-29,-19,-40,-59,47,68,-10
1491090738623,2,-18,25,19,48,71,-36,68,-7
1491090738623,2,-14,8,7,-39,-75,-59,-49,-34
1491090738624,3,49,7,4,-11,-10,32,94,0
1491090738624,3,-60,-11,-9,-1,-2,105,30,-8
1491090738626,1,-45,25,38,41,104,95,49,-3
1491090738626,1,67,-23,-27,-76,-98,-120,-5,68
1491090738627,2,-18,-21,-17,-26,-42,49,-40,-31
1491090738627,2,-24,17,15,66,71,108,7,2
1491090738672,3,-61,-18,-18,-33,-78,-116,3,-47
1491090738672,3,42,8,-1,-40,-15,-71,103,-41
1491090738721,0,28,5,-3,16,77,34,-53,25
1491090738721,0,25,-10,3,1,-68,42,-78,20
1491090738722,2,-84,27,21,34,79,37,49,-26
1491090738722,2,-17,-3,-5,-47,-30,1,101,16
1491090738723,3,57,-19,-32,-60,-128,-16,-4,2
1491090738723,3,59,-15,8,43,67,-25,-104,17
1491090738724,0,5,21,15,29,45,-28,-52,-7
1491090738724,0,-107,-9,-1,-40,-65,66,68,-15
1491090738769,1,76,-32,-24,21,68,-119,-4,-4
1491090738769,1,-19,32,10,19,66,59,30,17
1491090738771,3,-19,8,-5,-12,-61,95,-37,12
1491090738771,3,-7,-4,3,55,34,-22,-10,-9
1491090738771,0,8,-1,6,-29,-46,-13,57,56
1491090738771,0,1,11,-14,-29,-11,-38,-21,-37
1491090738818,0,21,20,20,-24,104,65,40,12
1491090738818,0,-22,4,3,76,13,54,-1,29
1491090738819,1,-59,-13,-36,-112,-101,-63,20,-33
1491090738819,1,91,-6,-24,-40,-17,25,-21,-13
1491090738820,2,49,-10,1,86,14,-33,-10,44
1491090738820,2,-19,29,39,31,69,-8,-2,-23
1491090738821,1,41,-18,-26,-98,-81,10,11,17
1491090738821,1,-2,-10,-3,5,-85,-8,8,-37
1491090738867,2,-10,19,24,45,66,30,-4,-7
1491090738867,2,-15,-25,-16,-12,-30,-68,14,9
1491090738868,3,7,8,6,22,-2,55,-48,-22
1491090738868,3,13,18,6,5,-14,35,16,50
1491090738869,0,16,5,-8,-23,28,-22,67,-13
1491090738869,0,16,-48,-20,-17,-79,-43,-48,-25
1491090738869,1,-42,44,33,54,118,55,11,25
1491090738869,1,8,12,11,27,48,-25,-88,8
1491090738916,2,-58,-22,-16,-71,-73,-39,36,-48
1491090738916,2,-26,-6,-29,-108,-109,-22,28,-15
1491090738917,3,65,-19,-13,52,93,-11,-102,30
1491090738917,3,-51,6,-2,-3,-8,50,69,-9
1491090738917,2,16,2,3,19,-23,-128,-57,-14
1491090738917,2,28,-6,-7,-15,-8,38,-14,-16
1491090738918,3,-1,23,33,103,84,13,43,54
1491090738918,3,-18,-26,-11,-71,-19,31,32,-60
1491090738964,0,-42,-13,-29,-87,-102,2,-21,-6
1491090738964,0,93,-5,9,55,-51,46,7,48
1491090738966,1,-51,-4,-5,47,37,-15,64,-51
1491090738966,1,-37,-11,2,-65,-79,41,17,3
1491090738966,3,16,-14,-27,-39,-32,-16,33,27
1491090738966,3,-38,10,30,93,100,107,40,-18
1491090738967,0,-55,-28,-31,-46,-21,-33,57,-18
1491090738967,0,8,-14,3,-30,48,0,-19,19
1491090739013,1,-14,12,7,10,-22,54,15,-35
1491090739013,1,93,0,-26,-32,-80,-80,-76,11
1491090739015,2,-43,7,6,5,3,5,-27,12
1491090739015,2,-1,-3,-4,63,109,-31,99,-7
1491090739015,0,-11,-25,-16,41,95,95,46,-67
1491090739015,0,52,-7,-5,3,-59,-48,8,76
1491090739016,1,-36,-1,18,42,4,53,-13,-41
1491090739016,1,3,1,-18,-35,24,-115,-55,2
1491090739062,2,-20,24,7,-59,-77,64,-1,-8
1491090739062,2,40,-3,-13,14,29,39,10,25
1491090739063,3,-15,9,23,34,51,-49,72,-10
1491090739063,3,-6,-17,-20,-1,-40,40,-71,-32
1491090739064,1,-15,-12,-15,-57,-39,-114,-47,-38
1491090739064,1,6,-15,7,93,122,49,100,-5
1491090739065,2,21,-3,-5,-66,-113,16,44,46
1491090739065,2,-102,-4,-10,25,-12,98,-14,-65
1491090739111,3,110,10,14,31,53,-128,-64,17
1491090739111,3,-18,-11,-8,-60,-53,28,42,-2
1491090739112,0,16,-18,-11,-17,-51,-2,-23,-15
1491090739112,0,-48,24,14,36,13,71,6,-12
1491090739112,2,43,7,8,45,95,21,-15,40
1491090739112,2,-77,14,11,-15,34,103,12,-35
1491090739113,3,63,-11,7,45,71,-100,-6,29
1491090739113,3,-21,-9,-15,-28,-55,78,11,20
1491090739159,0,16,-4,-14,-57,-80,-17,-65,-9
1491090739159,0,-33,-20,-4,46,70,-21,-66,-6
1491090739208,1,9,45,6,-1,9,68,62,7
1491090739208,1,8,5,23,30,0,-13,-9,30
1491090739209,3,50,-32,-38,-68,-128,-22,47,32
1491090739209,3,-7,17,7,45,31,-26,36,-23
1491090739210,0,-73,14,25,86,53,43,15,-13
1491090739210,0,85,15,11,-49,7,-111,-44,28
1491090739211,1,-14,-18,-24,-70,-103,78,39,5
1491090739211,1,21,7,-5,19,-1,28,-77,22
1491090739257,2,6,-16,6,33,13,-41,13,19
1491090739257,2,-54,23,21,46,48,127,127,-32
1491090739259,3,-38,0,-4,-17,39,-27,-51,-19
1491090739259,3,-37,-10,-21,-46,-79,-67,3,5
1491090739260,0,53,-19,-11,12,12,-70,-92,32
1491090739260,0,65,-3,-9,-9,-91,1,-33,47
1491090739309,0,27,8,5,-34,16,-84,-73,-31
1491090739309,0,-51,-10,-10,11,22,64,0,-36
1491090739310,1,52,27,27,-14,-58,54,-65,63
1491090739310,1,1,-8,-5,0,27,-7,-3,-10
1491090739310,2,-58,0,5,43,64,127,106,-16
1491090739310,2,29,-2,-4,34,-10,-89,-123,7
1491090739311,1,-63,25,32,84,117,55,-2,-4
1491090739311,1,27,9,-13,-97,-47,-72,-17,-20
1491090739354,2,-15,-11,-23,-54,-128,22,33,9
1491090739354,2,-25,-31,-12,-9,15,-28,-44,-1
1491090739356,3,-2,-20,-10,44,-20,18,44,-16
1491090739356,3,-4,-4,10,-36,-71,-92,-14,6
1491090739356,2,37,24,16,-3,-17,-41,-35,65
1491090739356,2,-65,5,-28,-65,-59,26,39,-54
1491090739357,3,48,-9,-18,-53,-128,-62,27,50
1491090739357,3,20,-21,-3,42,38,-1,-26,-29
1491090739403,0,10,5,6,29,94,44,-108,14
1491090739403,0,-22,-3,24,20,10,-37,76,-27
1491090739404,1,15,0,-7,-22,-79,47,-13,31
1491090739404,1,-36,10,-4,6,57,-27,-31,-3
1491090739405,3,-11,-7,-4,-24,-71,-76,15,-10
1491090739405,3,-41,5,0,17,27,127,-18,-24
1491090739406,0,35,-23,-8,-2,-81,-103,-6,-1
1491090739406,0,-27,15,6,-15,66,98,-45,12
1491090739452,1,-33,9,22,50,-16,47,39,-29
1491090739452,1,21,-12,3,41,95,36,-51,17
1491090739453,2,-102,-9,-22,-95,-128,27,60,-57
1491090739453,2,66,-11,-6,11,-19,-14,27,61
1491090739453,0,12,11,18,26,57,-4,33,-30
1491090739453,0,21,-15,-4,3,-61,17,32,30
1491090739454,1,11,19,-6,-6,3,3,-45,-17
1491090739454,1,3,7,17,37,60,-31,34,1
1491090739501,2,6,8,-4,-63,-49,29,-81,-5
1491090739501,2,-45,-7,-6,27,64,-25,30,-19
1491090739502,3,-9,-11,1,33,-48,-18,8,-2
1491090739502,3,-21,-8,-23,-78,-49,71,41,16
1491090739502,1,25,-3,-2,-23,-64,-54,-78,81
1491090739502,1,-53,-13,-19,-4,24,20,30,-53
1491090739503,2,-28,-16,-6,6,-39,-52,7,5
1491090739503,2,17,7,0,3,54,104,64,30
1491090739549,3,-19,1,10,16,-25,-41,-80,-23
1491090739549,3,-56,24,16,18,30,41,-10,29
1491090739551,0,-17,13,6,-10,83,50,-24,-8
1491090739551,0,-49,-5,-17,-44,-111,49,28,-50
1491090739551,1,40,-21,-19,-50,-69,-116,-33,-39
1491090739551,1,-6,-12,-9,10,21,107,16,1
1491090739552,2,69,14,-6,30,-5,-4,-70,-43
1491090739552,2,-6,11,22,47,52,-24,-6,51
1491090739598,3,-49,-7,4,3,18,97,51,-26
1491090739598,3,33,7,5,-1,-29,-56,10,-1
1491090739599,0,-62,3,3,36,127,29,50,-25
1491090739599,0,-22,-19,-19,-31,-88,-30,50,-4
1491090739600,2,-46,-16,-9,-53,-28,66,75,7
1491090739600,2,59,13,10,36,-5,-16,-31,51
1491090739601,3,0,-25,-6,-22,36,-41,127,-42
1491090739601,3,26,-21,-27,-68,-121,-38,-71,-14
1491090739647,0,43,-9,-9,8,8,-2,-94,54
1491090739647,0,-31,16,19,39,-2,29,13,-24
1491090739649,1,9,19,14,59,127,46,-4,7
1491090739649,1,1,2,10,-4,-82,28,-27,6
1491090739649,3,-48,24,3,36,57,87,63,4
1491090739649,3,-49,0,18,25,24,67,95,3
1491090739650,0,50,-11,10,15,-3,-42,-31,31
1491090739650,0,-6,5,2,-26,-4,7,-41,-11
1491090739696,1,-22,-9,-18,-11,-18,-31,15,-28
1491090739696,1,-6,-8,-17,-81,-84,48,-69,2
1491090739697,2,68,-30,-29,57,-38,-51,66,-5
1491090739697,2,-1,-5,17,-4,64,62,-26,-16
1491090739697,0,-20,10,9,-7,-8,99,-14,8
1491090739697,0,-5,-9,0,5,69,-45,-36,-66
1491090739698,1,40,9,11,-12,-55,90,-10,12
1491090739698,1,25,-4,-7,0,12,-83,-5,-19
1491090739745,2,-11,-11,-2,-26,-2,7,64,43
1491090739745,2,-32,-7,-13,15,5,86,-19,-14
1491090739745,3,21,15,14,-11,-45,-22,-26,14
1491090739745,3,31,1,-1,-19,-74,-43,11,14
1491090739746,1,21,0,-4,-23,9,-67,-47,-2
1491090739746,1,-15,4,-4,-1,37,60,-32,-17
1491090739747,2,-34,-13,2,23,4,-49,98,-9
1491090739747,2,-7,1,-8,-6,-9,96,-36,-23
1491090739793,3,3,2,-6,-53,-30,-96,74,-21
1491090739793,3,12,-10,-5,33,41,43,20,28
1491090739794,0,44,0,-5,-18,-41,-50,3,13
1491090739794,0,-27,0,-4,-61,-28,16,-6,11
1491090739795,2,-19,23,30,49,98,120,56,-2
1491090739795,2,10,-22,-15,-20,-54,-128,-38,38
1491090739796,3,-25,-10,-14,-22,-48,-18,-33,0
1491090739796,3,4,9,0,3,78,31,-1,-21
1491090739842,0,-41,13,-2,-7,-67,-1,-40,-15
1491090739842,0,-41,-3,17,-19,11,-9,65,-8
1491090739940,1,62,-1,2,45,63,-37,-47,36
1491090739940,1,-14,-15,-21,-26,-24,14,16,-2
1491090739941,3,-17,25,11,54,71,127,56,19
1491090739941,3,64,-5,6,-1,-49,-119,-75,23
1491090739943,0,-37,-10,-10,-26,-24,114,44,-28
1491090739943,0,-26,29,17,34,39,14,-60,6
1491090739943,1,23,-30,-16,-14,-7,-57,21,13
1491090739943,1,8,18,15,53,73,-1,11,-21
1491090739988,2,-13,-8,3,-2,-27,13,-24,0
1491090739988,2,70,3,-5,-47,-63,-9,23,20
1491090739989,0,28,5,14,26,60,-80,14,15
1491090739989,0,-51,-22,0,62,23,54,-14,12
1491090739990,1,-10,20,11,-47,-48,29,-22,-24
1491090739990,1,16,3,-2,-24,-61,-49,-23,-4
1491090739991,1,6,-19,-5,-3,-54,2,-19,-26
1491090739991,1,1,3,-2,-8,-1,-65,58,22
1491090740037,2,-51,2,0,-19,-19,13,10,-35
1491090740037,2,-30,-7,4,4,-9,27,29,-16
1491090740039,3,58,17,12,16,89,2,18,6
1491090740039,3,-18,-6,-11,-37,-55,-63,-20,-16
1491090740040,2,30,18,12,33,49,-24,13,11
1491090740040,2,-27,-17,0,-27,-43,46,29,-42
1491090740040,3,-45,8,8,34,76,126,-23,16
1491090740040,3,52,24,19,14,-44,-41,-3,7
1491090740134,0,-25,-17,-13,-56,-21,-35,-3,-30
1491090740134,0,33,4,-4,10,24,0,-9,17
1491090740135,1,-29,-16,-5,-42,-97,-61,-63,-19
1491090740135,1,-39,-3,-8,-6,28,123,22,-3
1491090740136,3,22,-4,-1,-18,-58,-43,-40,9
1491090740136,3,-16,-8,12,51,17,80,31,0
1491090740137,0,7,17,7,-37,38,45,-47,-19
1491090740137,0,-19,-8,-28,-44,-38,-87,33,12
1491090740183,1,34,-7,3,49,21,73,83,44
1491090740183,1,4,-20,-12,-14,2,-49,-52,-84
1491090740184,2,-87,10,5,-9,-15,13,57,-38
1491090740184,2,67,2,6,-33,40,-52,-60,16
1491090740185,0,-21,-23,-5,17,16,6,-54,3
1491090740185,0,-56,7,19,-2,65,18,5,-30
1491090740186,1,-40,-10,-1,-53,-47,-24,7,-53
1491090740186,1,-43,-20,-31,-22,-10,23,58,3
1491090740232,2,58,-14,3,31,49,-34,-66,20
1491090740232,2,-4,4,3,22,-10,-11,18,-9
1491090740233,3,-8,-23,-2,33,4,8,28,12
1491090740233,3,1,7,-6,-13,50,-89,-31,-41
1491090740234,2,-22,4,-9,-76,-16,88,58,-5
1491090740234,2,4,0,-12,-24,-45,-88,-3,-2
1491090740235,3,-21,1,5,46,0,-20,-86,-4
1491090740235,3,26,-25,5,61,101,67,-32,2
1491090740281,0,-13,7,-4,-57,-89,-22,-5,-14
1491090740281,0,-51,-9,-23,-55,-39,48,119,-23
1491090740281,1,42,9,14,46,63,-66,-69,17
1491090740281,1,5,-8,-22,-63,-82,-32,53,-11
1491090740282,2,-22,-10,14,48,-11,61,59,-5
1491090740282,2,-17,-4,-7,27,67,-17,35,23
1491090740283,3,-25,0,7,-15,-44,28,20,-43
1491090740283,3,13,13,-2,-19,-3,-36,-42,25
1491090740330,0,-39,2,7,22,19,43,24,-16
1491090740330,0,37,-6,-8,3,-53,-72,-56,20
1491090740330,1,33,2,12,-13,26,48,11,-1
1491090740330,1,-33,-1,-2,-3,74,-56,-35,-21
1491090740331,3,-16,-9,-14,12,-6,19,-42,17
1491090740331,3,26,-19,-3,-28,-17,66,-27,-2
1491090740332,0,2,9,14,45,57,-63,-21,-6
1491090740332,0,-42,-7,9,26,91,90,-30,25
1491090740378,1,3,-4,-16,-57,-122,-112,52,-53
1491090740378,1,49,-5,0,-4,-23,-43,-18,32
1491090740379,2,-82,4,3,14,23,84,43,12
1491090740379,2,27,4,-1,-21,24,-15,-61,-14
1491090740380,0,-21,6,6,14,51,6,13,-38
1491090740380,0,17,5,3,-1,-14,-28,-56,-20
1491090740381,1,-44,5,8,58,82,77,21,29
1491090740381,1,28,0,3,34,49,7,24,18
1491090740427,2,35,-4,6,-23,-74,-77,-3,-3
1491090740427,2,-38,3,-10,-43,25,43,-30,-23
1491090740428,3,20,4,-6,-40,-80,-21,-13,-36
1491090740428,3,-26,22,4,-8,-2,100,23,51
1491090740428,1,31,13,19,36,34,58,27,69
1491090740428,1,-62,1,15,-1,21,-119,-33,-71
1491090740429,2,26,2,-11,-6,51,-3,-78,-14
1491090740429,2,20,-21,-29,-74,-122,23,37,-17
1491090740476,3,10,7,-6,-23,-19,-63,-11,2
1491090740476,3,-31,-5,10,38,10,48,24,5
1491090740476,0,0,37,28,71,107,-8,-21,12
1491090740476,0,-42,18,12,-10,-22,12,76,-16
1491090740477,2,-37,-13,-13,-6,48,127,89,12
1491090740477,2,20,1,-5,15,-72,-52,-58,42
1491090740478,3,7,-7,-6,-35,-102,-41,72,-39
1491090740478,3,3,-6,11,0,-26,28,-63,41
1491090740524,0,-22,-24,2,65,84,85,27,11
1491090740524,0,19,-14,3,-8,31,-89,-6,18
1491090740526,1,14,-6,7,-26,-47,-14,-7,16
1491090740526,1,1,-15,-13,-5,-1,42,-66,4
1491090740527,3,26,-7,1,19,-8,-62,-1,4
1491090740527,3,-49,13,1,-13,20,59,60,-5
1491090740528,0,-2,5,14,6,23,-18,-53,-5
1491090740528,0,92,9,6,39,67,80,34,3
1491090740573,1,5,25,6,-28,-47,-58,1,-11
1491090740573,1,-7,5,-8,-22,21,-26,105,-8
1491090740574,2,16,-8,-13,-8,-9,32,-97,27
1491090740574,2,-19,-4,-3,-14,9,7,-13,-69
1491090740574,0,17,16,15,40,12,-45,19,-1
1491090740574,0,-15,-12,15,25,-11,6,-17,11
1491090740576,1,-40,-2,-8,-38,-9,-10,38,-8
1491090740576,1,-11,3,-5,-52,51,70,-87,-22
1491090740622,2,19,-21,-34,-37,-98,-83,23,27
1491090740622,2,12,2,-1,41,0,-16,47,51
1491090740623,3,-47,6,14,57,55,38,-16,-20
1491090740623,3,-32,13,11,-2,47,73,-10,0
1491090740624,0,-3,6,-12,-6,-25,-66,122,69
1491090740624,0,15,-20,-13,-43,-76,-63,-55,-99
1491090740625,1,-30,4,0,10,65,46,64,-8
1491090740625,1,50,-24,-22,-31,-84,-128,-115,-34
1491090740671,2,-36,25,11,43,95,127,1,8
1491090740671,2,-49,-5,-2,-27,-68,-80,-4,10
1491090740671,3,34,14,3,11,69,-57,-36,2
1491090740671,3,-2,-11,-7,19,-41,59,73,-10
1491090740672,1,63,-17,8,20,67,-67,-100,-10
1491090740672,1,-58,9,3,27,26,47,46,17
1491090740673,2,-17,4,2,4,50,-2,47,-23
1491090740673,2,-12,-9,3,-30,-24,-24,-17,47
1491090740719,3,-93,1,-9,-6,15,127,-13,0
1491090740719,3,127,-23,-19,-48,-102,-128,-97,-11
1491090740720,0,-95,-6,-2,11,4,127,34,-12
1491090740720,0,0,13,7,15,54,102,25,-44
1491090740721,2,-4,-11,-16,-45,-70,-51,-31,-28
1491090740721,2,-14,-2,14,-1,-9,-9,35,11
1491090740722,3,60,6,-7,-3,-20,-46,-72,18
1491090740722,3,-16,31,25,42,33,73,79,6
1491090740768,0,30,-20,-17,0,3,-9,-27,-21
1491090740768,0,23,-4,-21,-27,-14,30,-18,41
1491090740769,1,34,-9,-7,-4,-14,-56,33,-3
1491090740769,1,8,-5,-2,-24,-33,-12,-10,-8
1491090740772,3,28,-18,-13,-27,-19,-30,-82,0
1491090740772,3,-18,1,-17,-8,3,56,37,26
1491090740773,0,42,9,24,38,19,97,2,-29
1491090740773,0,3,3,-2,0,-45,-123,-101,-6
1491090740817,1,-17,16,8,16,19,98,115,44
1491090740817,1,-1,-11,-3,1,-2,-20,14,1
1491090740818,2,-42,-17,-7,-16,5,3,-16,-33
1491090740818,2,46,26,20,26,59,33,-39,-3
1491090740819,0,74,-11,-14,-55,-53,-84,-15,36
1491090740819,0,-33,-5,-8,12,-11,8,56,-4
1491090740820,1,-9,-8,-8,13,-2,87,-56,-14
1491090740820,1,18,-5,21,42,49,43,44,9
1491090740866,2,-20,17,20,28,95,82,-98,19
1491090740866,2,54,-37,-30,-48,-95,-101,78,16
1491090740867,3,15,6,6,3,-19,11,-64,-16
1491090740867,3,6,-5,0,24,91,51,-38,8
1491090740867,1,17,20,19,48,22,-63,27,20
1491090740867,1,-13,3,5,-30,-47,53,-11,12
1491090740868,2,-30,-4,3,0,62,80,60,10
1491090740868,2,-3,-8,-5,38,37,-27,-33,-20
1491090740915,3,-3,-11,-5,23,-13,-11,-34,-19
1491090740915,3,9,8,27,17,30,-16,22,2
1491090740916,0,-12,-9,-7,3,35,15,4,-16
1491090740916,0,49,42,15,-48,-113,-84,-56,-3
1491090740916,2,13,-15,-18,-14,-126,-32,-57,15
1491090740916,2,24,8,-7,0,-38,68,15,5
1491090740917,3,-32,-10,-5,4,48,-33,-73,-42
1491090740917,3,41,-6,-20,0,-5,-32,56,26
1491090740963,0,-23,-1,11,20,34,-61,-87,-10
1491090740963,0,28,40,25,-11,45,-37,20,12
1491090740964,1,-60,7,4,-17,-41,60,40,-26
1491090740964,1,-4,-2,-10,-8,-13,-5,50,-10
1491090740964,2,-41,-12,0,4,51,23,42,-34
1491090740964,2,-25,-27,-14,5,-63,-28,-62,-4
1491090740966,3,91,-5,-15,-63,-46,-85,1,-6
1491090740966,3,-8,-3,-4,49,45,52,-53,0
1491090741012,0,48,-19,-10,-3,-69,-128,-38,-7
1491090741012,0,-127,15,21,23,73,127,-34,-23
1491090741014,1,55,-21,-24,-80,-67,-122,3,-3
1491090741014,1,-3,-9,-17,13,8,-9,10,-13
1491090741015,3,-58,-18,-16,-42,-74,22,-71,13
1491090741015,3,-27,0,2,14,73,55,58,-23
1491090741016,0,39,42,29,70,0,-43,91,38
1491090741016,0,-47,21,-8,-5,26,30,-15,4
1491090741061,1,20,-17,-4,8,-5,77,23,-1
1491090741061,1,-86,25,32,12,13,-38,-33,-2
1491090741062,2,-12,-9,-13,-88,-57,-16,29,-28
1491090741062,2,20,-30,-37,-28,-26,3,-11,52
1491090741062,0,-33,-11,9,26,9,52,41,-54
1491090741062,0,-14,-2,11,29,102,17,48,42
1491090741063,1,1,-6,-21,-102,-123,-53,16,10
1491090741063,1,66,12,0,25,6,-12,1,31
1491090741110,2,-35,-7,-9,-10,-14,43,4,-9
1491090741110,2,96,-28,0,7,14,-27,-88,15
1491090741111,3,-119,9,25,32,-22,22,11,-30
1491090741111,3,37,7,-12,-55,33,30,34,-1
1491090741111,1,-4,15,17,79,59,4,-52,26
1491090741111,1,-7,-3,3,-91,-114,-27,-9,-34
1491090741112,2,-25,-14,-19,-3,-19,127,11,-9
1491090741112,2,35,5,-17,1,-3,-115,-62,-3
1491090741158,3,121,-1,7,-4,-14,-71,-41,70
1491090741158,3,-125,-25,15,82,71,50,69,-61
1491090741159,0,59,6,-7,-49,107,-44,5,-3
1491090741159,0,-10,-10,-13,-32,-93,24,27,-1
1491090741159,2,-13,9,3,37,14,21,17,-18
1491090741159,2,-26,2,-4,-1,5,10,-42,-37
1491090741161,3,-44,10,24,-1,0,66,103,50
1491090741161,3,31,-7,-11,6,-4,-115,-72,-17
1491090741207,0,51,6,-1,-5,-81,-66,-35,34
1491090741207,0,-67,8,5,24,70,56,79,-15
1491090741208,1,6,-11,-13,-4,14,67,-30,-28
1491090741208,1,63,-4,-14,-62,-72,-29,-108,14
1491090741209,3,-2,20,10,-12,4,-45,53,8
1491090741209,3,-30,-13,-5,-15,41,-70,-6,-49
1491090741210,0,38,7,1,12,-56,25,-1,53
1491090741210,0,-19,3,0,-1,8,-7,47,-13
1491090741256,1,-64,-18,-7,16,65,0,-41,-34
1491090741256,1,85,9,-3,-19,-73,-53,9,3
1491090741256,2,-27,6,6,11,41,78,8,14
1491090741256,2,-2,19,26,63,49,-90,-36,0
1491090741257,0,-21,-5,-7,17,52,86,24,-29
1491090741257,0,42,-2,-5,-2,-39,-94,-35,6
1491090741259,1,6,1,-7,-33,-16,-24,16,10
1491090741259,1,-77,2,29,74,-3,63,75,16
1491090741305,2,38,-16,-7,-7,37,-91,-57,-37
1491090741305,2,-11,33,8,-45,-3,95,-104,2
1491090741305,3,37,-16,-24,-34,-51,-37,12,-25
1491090741305,3,-29,-6,-5,29,-25,100,19,35
1491090741306,1,-45,-10,-6,-33,70,47,-34,-51
1491090741306,1,-68,25,22,43,0,5,-28,3
1491090741307,2,-52,-17,-17,-93,-124,-88,-39,-6
1491090741307,2,64,13,6,32,88,-17,-47,11
1491090741353,3,-6,-9,-26,-5,-46,62,34,-5
1491090741353,3,80,-16,4,-16,-25,-38,-35,34
1491090741354,0,-19,12,21,77,107,102,75,-31
1491090741354,0,-21,-5,1,-22,-2,-57,-30,-12
1491090741355,1,-8,1,7,21,101,-28,81,28
1491090741355,1,43,-9,-25,-76,-97,-28,-110,-49
1491090741356,2,-52,7,5,39,96,27,65,32
1491090741356,2,10,-52,-55,-118,-128,-50,6,-61
1491090741402,3,-50,8,9,48,33,88,71,-18
1491090741402,3,14,4,17,65,108,-18,3,12
1491090741403,0,19,16,6,-13,-61,38,3,-11
1491090741403,0,-61,-6,-8,-15,32,67,50,13
1491090741404,2,49,12,3,-19,-33,106,-26,-9
1491090741404,2,-84,0,16,20,58,-128,-35,-50
1491090741405,3,32,-27,-29,-67,-105,44,-11,-11
1491090741405,3,-11,18,-11,-48,-54,116,70,40
1491090741451,0,15,-30,-19,43,-23,-128,25,-14
1491090741451,0,43,-8,-3,30,-10,49,-46,-27
1491090741499,1,-6,5,8,14,9,-46,-22,30
1491090741499,1,-2,19,14,44,72,46,79,4
1491090741500,3,6,5,-13,62,127,-68,-1,4
1491090741500,3,8,-12,-31,-111,-128,-34,-16,-23
1491090741501,0,71,2,-4,-20,-38,-10,-53,8
1491090741501,0,-26,5,16,109,17,-23,14,-28
1491090741502,1,8,3,16,-3,58,17,1,56
1491090741502,1,29,29,18,20,26,51,-56,4
1491090741548,2,40,-7,13,25,94,23,45,2
1491090741548,2,-37,6,5,-45,-51,-55,-14,-5
1491090741549,0,81,-4,-4,-35,-69,61,1,17
1491090741549,0,7,-25,-28,-41,18,6,-54,10
1491090741550,1,11,3,7,12,-56,-57,-44,-15
1491090741550,1,-30,-24,-18,-52,11,0,-4,-67
1491090741551,1,-38,9,19,0,61,75,-16,-38
1491090741551,1,13,-2,-7,34,-42,-3,32,10
1491090741597,2,48,-6,-1,-39,-5,-99,-27,1
1491090741597,2,-50,-2,-9,37,59,63,15,-23
1491090741598,3,45,-3,1,-41,33,-10,-33,27
1491090741598,3,-64,15,0,-2,-38,106,70,-11
1491090741599,2,-8,-1,-4,-19,-31,36,-90,11
1491090741599,2,21,9,23,50,52,3,-19,5
1491090741600,3,10,-13,-19,-61,-21,37,-24,17
1491090741600,3,45,-18,-17,-22,-45,17,18,9
1491090741646,0,-52,2,2,3,36,-55,12,-24
1491090741646,0,41,19,-4,-31,-58,68,27,25
1491090741646,1,-18,4,9,50,15,-29,-15,-9
1491090741646,1,-44,-5,13,51,91,49,23,18
1491090741647,3,-6,16,14,49,21,15,37,-10
1491090741647,3,16,-12,8,13,84,29,-32,-4
1491090741648,0,-45,1,-19,-21,-90,29,18,19
1491090741648,0,38,-8,-6,-56,-50,-82,-9,-6
1491090741695,1,-39,6,-3,71,63,111,17,5
1491090741695,1,76,-11,0,-35,-5,-128,-128,-36
1491090741696,2,-48,-17,-6,1,-10,87,96,16
1491090741696,2,6,-12,-3,33,17,65,-100,-3
1491090741697,3,56,13,7,-1,44,12,-28,-22
1491090741697,3,-29,1,1,5,-56,-29,7,30
1491090741698,0,21,31,22,56,96,57,100,13
1491090741698,0,-38,-14,-11,-69,-119,-7,-26,-3
1491090741743,1,10,-8,-4,-27,33,-51,-70,-43
1491090741743,1,24,-3,-2,-16,-32,68,15,10
1491090741744,2,68,-23,-11,-29,-19,-128,-13,35
1491090741744,2,-63,4,7,78,48,58,26,-26
1491090741745,0,-15,-18,-20,56,72,54,-90,-17
1491090741745,0,24,7,31,21,28,45,65,15
1491090741746,1,-40,-2,-5,4,-43,-64,-64,4
1491090741746,1,42,23,6,-42,-2,29,-24,-21
1491090741792,2,-43,9,-15,-49,-70,-26,64,36
1491090741792,2,6,-14,-7,57,111,51,-56,14
1491090741793,3,30,11,-4,-16,-73,-117,4,40
1491090741793,3,-50,8,21,30,27,90,23,-29
1491090741793,1,-42,3,-2,46,127,73,46,68
1491090741793,1,11,-19,-14,0,-49,-36,-20,-27
1491090741794,2,-11,-2,19,40,-22,-37,37,2
1491090741794,2,-51,33,7,-19,-4,-60,61,18
1491090741841,3,31,-6,-7,-28,38,-24,-72,-43
1491090741841,3,-38,1,-18,-81,-128,-62,-56,-46
1491090741842,0,48,-19,-8,23,50,-46,-56,-16
1491090741842,0,39,-10,-10,21,-27,-29,-59,50
1491090741842,2,-7,-5,-10,-44,-72,3,-8,-11
1491090741842,2,36,14,27,46,5,-41,14,17
1491090741843,3,-26,-1,-11,36,55,90,32,-37
1491090741843,3,35,-18,-10,7,-107,-62,-35,-15
1491090741893,0,-40,13,2,0,23,-63,-8,2
1491090741893,0,18,8,7,9,81,35,14,5
1491090741893,1,24,-22,-18,-92,-128,-24,-83,-9
1491090741893,1,-22,15,3,37,-9,13,91,23
1491090741894,3,-48,-3,17,96,125,57,38,20
1491090741894,3,29,-9,-8,-14,14,-87,30,12
1491090741895,0,-59,-10,-12,-51,-97,-31,-3,-17
1491090741895,0,-62,12,9,74,73,103,34,-39
1491090741938,1,90,-11,-20,-21,-39,-20,-38,50
1491090741938,1,1,3,-8,-33,-59,-29,16,-9
1491090741939,2,-31,2,-5,65,95,91,-40,4
1491090741939,2,-1,-36,-6,-51,-67,-15,71,-9
1491090741940,0,-39,1,15,-30,39,-3,54,-35
1491090741940,0,-47,-11,-14,-13,-29,-40,10,-4
1491090741941,1,2,3,3,36,-37,2,64,-7
1491090741941,1,13,-2,-16,-83,-79,40,-8,-29
1491090741987,2,77,-9,-22,-67,-95,-83,-97,59
1491090741987,2,-44,-24,-7,53,115,25,63,5
1491090741988,3,28,15,22,19,-27,-52,-13,-21
1491090741988,3,-2,4,19,45,79,82,3,36
1491090741988,1,5,-20,-15,14,25,28,-53,-16
1491090741988,1,-25,-6,25,68,83,15,27,30
1491090741990,2,-26,1,8,-18,44,66,-82,-42
1491090741990,2,-24,14,-2,-42,-97,-56,-1,19
1491090742036,3,-51,8,2,-6,5,57,37,-27
1491090742036,3,49,4,-9,32,-70,-88,35,18
1491090742036,0,4,-9,0,-10,-8,-37,-73,-18
1491090742036,0,11,-10,-18,-14,-14,31,30,-23
1491090742037,1,-3,-5,3,46,54,100,-24,54
1491090742037,1,-4,-20,9,-45,-59,-49,1,-38
1491090742038,2,-7,15,4,52,93,52,-18,-32
1491090742038,2,52,-16,-19,-30,-50,-53,21,-12
1491090742085,3,-38,-14,-17,-83,-61,-18,-16,-5
1491090742085,3,3,5,9,-4,16,44,-13,-14
1491090742086,0,22,1,6,57,21,-39,63,3
1491090742086,0,9,6,21,50,56,33,-128,8
1491090742087,2,41,17,8,-16,-94,64,-63,4
1491090742087,2,-47,-26,-15,0,54,33,50,-1
1491090742133,3,107,16,20,51,8,12,29,3
1491090742133,3,-71,8,2,-19,75,0,-21,-23
1491090742134,0,28,-4,-5,18,-29,-53,10,5
1491090742134,0,-26,15,13,48,36,7,30,17
1491090742135,1,-66,-6,-9,-58,-27,-25,4,-10
1491090742135,1,70,5,-6,16,68,6,-66,-1
1491090742136,3,0,4,-2,39,17,-5,84,-6
1491090742136,3,-9,10,-6,42,77,-26,-66,16
1491090742182,0,-23,1,24,39,10,39,67,18
1491090742182,0,-44,-4,-14,-26,-2,-34,-124,-53
1491090742183,1,72,-1,-7,-51,-84,-102,10,27
1491090742183,1,8,-15,-12,-27,-45,56,-45,26
1491090742183,0,18,4,-4,40,37,-22,-68,-12
1491090742183,0,24,16,5,46,69,111,60,12
1491090742184,1,-9,-5,7,4,-4,-90,-31,-4
1491090742184,1,-30,13,13,-4,-26,93,85,7
1491090742279,2,-4,10,-1,-13,71,83,-57,-9
1491090742279,2,-26,-17,-3,-5,-123,-48,-10,27
1491090742280,3,42,-18,-25,-20,-4,-3,-53,14
1491090742280,3,11,-4,1,35,86,59,26,-12
1491090742281,1,-31,17,18,32,81,93,-14,2
1491090742281,1,-10,-32,-27,-62,-123,-114,-32,-11
1491090742282,2,15,-11,-15,-29,-35,-38,-61,-22
1491090742282,2,11,-35,-24,-22,-36,-53,37,39
1491090742328,3,-77,29,29,80,22,25,74,-18
1491090742328,3,61,11,27,34,127,84,-3,-3
1491090742329,0,-2,-15,-10,-31,11,-56,18,1
1491090742329,0,-1,5,3,14,-32,-74,10,12
1491090742330,2,-33,5,-15,-7,-128,-44,-13,-23
1491090742330,2,-18,17,-14,-119,24,113,-95,-18
1491090742331,3,-21,2,3,12,79,17,49,35
1491090742331,3,-14,12,-16,-28,-83,-62,-88,-8
1491090742426,0,-28,3,6,-20,73,8,87,16
1491090742426,0,-11,-17,-17,-4,-99,81,11,-12
1491090742426,1,9,-16,-16,-27,-32,-110,-99,9
1491090742426,1,-7,9,10,47,3,97,-52,18
1491090742427,3,-35,0,9,41,71,82,-4,16
1491090742427,3,-44,1,-6,-27,-92,-1,25,-26
1491090742428,0,70,-2,-18,-80,-60,-14,28,-9
1491090742428,0,2,-35,-30,3,3,-64,-59,8
1491090742474,1,0,-7,-15,12,-50,104,4,7
1491090742474,1,55,-18,2,-25,70,-128,43,6
1491090742475,2,-34,-4,7,41,1,62,-5,-17
1491090742475,2,4,13,6,-59,-65,27,36,-2
1491090742476,0,50,1,17,74,79,-2,82,1
1491090742476,0,12,-6,-8,-29,-58,-41,-46,-8
1491090742477,1,26,-9,-12,-34,-61,-91,42,11
1491090742477,1,14,-2,-4,-26,-18,11,-91,26
1491090742523,2,-11,-28,-24,13,20,-36,22,-14
1491090742523,2,-14,-6,28,9,-11,17,-24,-18
1491090742524,3,-12,0,-6,10,88,1,18,26
1491090742524,3,7,13,13,36,-48,46,-12,-31
1491090742525,2,-34,10,6,35,127,62,-20,-20
1491090742525,2,17,8,-18,-36,-109,-28,-28,15
1491090742526,3,13,1,19,31,53,4,27,-28
1491090742526,3,-49,-8,5,67,8,48,15,-10
1491090742572,0,12,11,-10,-88,-110,-108,-23,3
1491090742572,0,13,-14,0,20,31,-30,-16,25
1491090742573,1,-78,-12,-7,41,15,49,61,-38
1491090742573,1,59,16,11,-33,67,-43,-69,39
1491090742573,3,-32,0,-12,-2,-51,68,38,0
1491090742573,3,-58,-12,-8,-10,-8,27,49,9
1491090742574,0,21,21,7,15,48,23,34,-11
1491090742574,0,3,-16,-3,32,93,-83,-37,21
1491090742621,1,-6,-4,10,-20,-64,40,10,-16
1491090742621,1,9,-3,-16,-48,66,53,33,-19
1491090742621,2,1,-20,-24,26,-74,-128,-63,4
1491090742621,2,-40,-11,-3,-7,-40,83,45,20
1491090742622,0,22,1,11,31,59,-21,-71,-12
1491090742622,0,23,-6,-15,-58,-84,-5,-68,11
1491090742623,1,-30,-17,-7,-20,-35,-30,31,-27
1491090742623,1,19,17,23,72,64,40,21,4
1491090742673,2,-41,-3,-5,-12,25,50,55,3
1491090742673,2,4,-15,-18,-57,-83,43,2,-19
1491090742673,3,43,21,-5,18,49,-83,-26,28
1491090742673,3,-65,-12,-7,-33,-30,-44,-28,-35
1491090742674,1,-40,7,1,-23,27,40,-3,-15
1491090742674,1,3,3,-11,-34,-39,18,-53,23
1491090742675,2,-17,2,5,9,-4,-14,-7,-23
1491090742675,2,-12,2,3,11,-4,10,42,10
1491090742718,3,18,23,9,20,-30,34,-8,22
1491090742718,3,30,7,-1,-3,-78,-101,20,-8
1491090742719,0,-17,2,-10,-38,62,53,41,2
1491090742719,0,24,-17,-3,-37,-38,-9,-40,-19
1491090742720,1,11,10,15,94,102,72,91,13
1491090742720,1,45,4,5,-5,-24,-80,-63,14
1491090742721,2,-55,-9,0,-20,-46,15,9,-19
1491090742721,2,-8,21,5,29,48,3,56,-2
1491090742771,3,-6,-3,-5,-49,-78,-48,-63,-20
1491090742771,3,-30,-17,-23,-29,-1,17,102,2
1491090742772,0,-16,8,22,80,77,111,-128,-46
1491090742772,0,64,20,8,-15,-9,-128,8,72
1491090742773,2,51,-1,-17,-15,-77,-19,-21,5
1491090742773,2,-32,-13,-10,25,6,-15,72,27
1491090742773,3,-13,3,15,-10,0,-31,-34,-24
1491090742773,3,58,-16,-9,9,-4,-69,32,37
1491090742864,0,-22,-5,-2,-17,41,38,25,-7
1491090742864,0,-33,5,7,-20,-15,75,-11,-54
1491090742865,1,57,-10,-16,11,-44,-69,29,43
1491090742865,1,14,-3,5,28,79,32,-100,-2
1491090742866,3,-5,-10,-8,-28,44,-87,23,-18
1491090742866,3,-35,2,9,22,-45,111,26,-4
1491090742867,0,11,-7,1,23,24,-62,27,19
1491090742867,0,38,-11,-7,-38,-46,2,-72,17
1491090742913,1,-16,-20,-12,0,51,-31,-7,0
1491090742913,1,-22,3,-22,-27,-80,0,-12,-45
1491090742914,2,-14,-10,21,44,5,-6,49,22
1491090742914,2,-34,21,12,17,62,25,-13,15
1491090742915,1,-32,3,6,14,12,51,83,42
1491090742915,1,13,5,8,22,6,-58,-27,11
1491090742916,2,22,-12,3,22,-12,60,-41,-25
1491090742916,2,-62,12,-2,-31,6,-77,15,-9
1491090742962,3,26,-5,-7,-16,-19,-78,20,7
1491090742962,3,-55,9,10,30,5,96,18,64
1491090742963,0,30,-19,-21,-66,-46,-54,-37,-78
1491090742963,0,-7,4,7,24,49,55,37,-12
1491090742963,2,-11,16,17,2,63,-15,-5,-25
1491090742963,2,-50,-5,15,31,-21,16,-37,-15
1491090742964,3,31,8,0,-6,19,68,-73,-29
1491090742964,3,35,-9,-19,-78,-37,-49,-17,15
1491090743011,0,-43,-17,-21,9,-64,-1,107,-32
1491090743011,0,49,-4,-6,0,27,-57,-56,32
1491090743012,1,-3,-4,15,-5,-64,60,-11,16
1491090743012,1,25,29,14,24,55,-22,35,24
1491090743012,3,9,4,-11,4,86,89,44,-1
1491090743012,3,66,0,-7,7,-13,-38,-16,34
1491090743013,0,-58,-15,-16,-16,-28,-47,18,11
1491090743013,0,-6,-4,-8,-40,-41,59,2,21
1491090743059,1,-85,-4,3,7,17,41,67,-21
1491090743059,1,3,6,12,48,53,1,-88,-28
1491090743060,2,17,15,10,27,-6,49,7,9
1491090743060,2,-39,1,-1,-23,-16,-115,-24,15
1491090743061,0,-5,-6,-9,-39,-66,60,3,46
1491090743061,0,15,1,-12,7,65,30,50,-15
1491090743062,1,51,-12,7,-21,-128,-39,-96,14
1491090743062,1,-7,-11,-13,-15,-39,-9,48,-9
1491090743109,2,-15,10,18,27,99,73,-87,-33
1491090743109,2,82,-18,-3,33,20,-101,-2,34
1491090743157,3,-30,-1,13,45,38,-83,50,-11
1491090743157,3,11,7,1,-14,-6,60,71,-15
1491090743206,0,-29,-23,-16,-59,-63,-24,-28,-19
1491090743206,0,-29,-4,-5,15,43,22,-25,-27
1491090743207,1,10,-1,-3,29,22,24,-15,31
1491090743207,1,11,-24,-14,-5,-22,24,-13,-8
1491090743207,2,2,31,19,17,13,-61,40,0
1491090743207,2,-21,10,1,23,-6,91,49,-1
1491090743208,3,24,3,1,8,54,-53,-14,-15
1491090743208,3,-51,-12,15,32,4,-28,-40,-10
1491090743303,1,-53,-5,-7,28,31,4,-1,-37
1491090743303,1,-5,15,5,3,26,86,27,77
1491090743304,2,29,-11,-12,-25,14,-50,-43,4
1491090743304,2,8,-24,-15,-1,-66,-61,-16,-15
1491090743305,3,-28,-20,-9,-27,-21,-49,-35,-38
1491090743305,3,-6,16,4,-18,-62,-69,-29,-18
1491090743306,0,8,4,-4,1,-33,54,-37,18
1491090743306,0,-48,-6,-3,37,60,46,10,-20
1491090743352,1,31,24,22,45,45,43,29,16
1491090743352,1,-18,-10,2,-21,9,-31,45,-19
1491090743353,2,14,1,0,14,58,20,37,13
1491090743353,2,-33,1,-2,-13,-85,64,-9,9
1491090743353,1,-53,-21,-3,-32,-19,40,36,21
1491090743353,1,-29,-3,-5,-46,-7,-7,30,-12
1491090743354,2,22,4,-14,-44,-126,11,-68,-5
1491090743354,2,60,5,4,21,19,-75,41,15
1491090743401,3,13,-8,4,79,95,9,-2,-7
1491090743401,3,0,-9,7,-7,-59,-44,25,-2
1491090743401,0,-74,-4,-12,-60,-49,-19,-25,-16
1491090743401,0,9,35,10,3,76,93,23,-23
1491090743402,2,30,6,0,-5,-27,28,-4,9
1491090743402,2,-33,-29,-10,-5,-10,-53,-9,5
1491090743403,3,-25,11,6,9,-21,30,-54,10
1491090743403,3,-6,1,4,-20,41,30,14,-24
1491090743449,0,58,-5,-5,50,-6,9,-40,4
1491090743449,0,-55,-7,-4,-51,-45,-54,10,-1
1491090743451,1,-15,28,24,5,56,93,23,-48
1491090743451,1,84,22,0,8,-66,-100,-32,6
1491090743451,2,-20,-41,-22,-25,25,42,41,0
1491090743451,2,46,17,5,20,-3,30,-32,5
1491090743452,3,-20,-6,-3,19,10,-83,-8,2
1491090743452,3,-48,19,5,-6,-9,78,99,-12
1491090743498,0,10,-16,-17,-48,-64,-67,-65,-17
1491090743498,0,-37,1,-12,-17,-42,-29,-46,-48
1491090743499,1,-8,-8,12,10,-3,40,46,-8
1491090743499,1,50,-4,0,74,112,-21,-110,53
1491090743500,3,25,17,-8,-6,13,87,8,37
1491090743500,3,-6,-13,17,35,64,33,47,-39
1491090743501,0,-27,3,11,21,9,47,-12,25
1491090743501,0,42,-16,-28,-85,-59,-57,-4,11
1491090743547,1,-12,-13,-22,-51,-95,52,37,11
1491090743547,1,20,6,6,41,40,-58,42,29
1491090743548,2,36,-3,12,42,37,-82,-41,-6
1491090743548,2,-33,17,11,7,-19,0,37,-59
1491090743549,0,-28,-3,6,76,109,83,48,-6
1491090743549,0,-6,11,1,2,-42,68,-5,13
1491090743550,1,31,-7,-12,-26,13,-24,-28,2
1491090743550,1,-44,26,36,29,61,50,53,-4
1491090743596,2,19,-28,-22,-20,-77,-51,97,-9
1491090743596,2,-63,6,9,-9,-17,-22,-95,-38
1491090743597,3,55,-14,-7,-39,-5,9,34,6
1491090743597,3,-34,-23,-20,-28,-59,-1,-110,-12
1491090743598,1,-69,18,1,0,-51,-17,52,-52
1491090743598,1,83,-26,-6,-15,13,-75,-92,-6
1491090743599,2,-71,14,-4,-10,-31,68,56,-26
1491090743599,2,17,-9,-10,-27,19,-65,-54,8
1491090743644,3,17,4,-4,-9,-34,-15,-6,24
1491090743644,3,-75,0,-2,-17,3,14,17,-36
1491090743646,0,-26,-2,3,15,0,29,1,-9
1491090743646,0,14,15,-2,-2,-38,29,25,37
1491090743647,2,-20,1,4,-1,-24,-48,-44,10
1491090743647,2,-54,-11,2,39,29,80,77,-15
1491090743693,3,5,-12,3,23,73,-112,-87,0
1491090743693,3,-52,3,-8,-30,-33,124,38,0
1491090743694,0,-10,-7,-9,-58,-43,-47,-26,-18
1491090743694,0,-6,-13,-25,-27,-66,-17,11,32
1491090743695,1,6,32,19,36,26,6,-34,2
1491090743695,1,-35,-1,8,38,41,98,-18,25
1491090743696,3,-1,5,-6,-62,-80,2,-12,-51
1491090743696,3,-1,11,-13,14,24,44,24,6
1491090743742,0,41,-5,5,-2,-8,-3,-57,47
1491090743742,0,-27,6,12,-2,44,57,-22,-31
1491090743743,1,-47,-23,-10,22,-40,-78,90,9
1491090743743,1,-60,-6,2,-4,30,37,16,-19
1491090743743,2,5,-3,-4,25,28,72,19,7
1491090743743,2,4,-3,-14,-48,-68,-117,-9,-49
1491090743744,0,1,11,14,56,88,109,2,-1
1491090743744,0,-28,-3,14,28,97,-20,9,21
1491090743791,1,-26,-1,15,55,38,10,-20,-26
1491090743791,1,-2,34,-2,-58,-52,-40,80,-29
1491090743792,2,47,-17,-16,-65,-75,-98,-67,11
1491090743792,2,6,10,-6,3,65,112,4,20
1491090743793,0,11,13,15,25,53,32,13,1
1491090743793,0,57,-9,5,-10,-90,-16,16,16
1491090743794,1,-24,-6,-14,-44,-3,33,-55,21
1491090743794,1,17,-20,-14,38,52,-83,1,-23
1491090743839,2,19,15,16,-32,-78,8,-5,-22
1491090743839,2,0,38,15,30,7,33,1,19
1491090743841,3,28,-2,0,5,26,91,48,51
1491090743841,3,53,-7,5,6,23,-18,-57,-49
1491090743841,1,21,-31,-23,-19,-11,5,21,2
1491090743841,1,-5,-1,-10,-17,-67,42,-28,25
1491090743842,2,-49,-10,-2,19,75,-11,26,-8
1491090743842,2,-67,-1,9,5,-10,73,36,-36
1491090743888,3,39,15,0,-7,-37,-44,13,17
1491090743888,3,36,-16,-9,-26,55,-21,-40,12
1491090743890,0,15,7,-8,-10,-77,-23,-19,-19
1491090743890,0,-7,-23,-8,7,42,57,25,-21
1491090743890,2,-53,15,16,49,73,40,50,-20
1491090743890,2,17,4,5,12,1,-42,-29,-4
1491090743891,3,-13,-8,-3,-14,4,18,14,-6
1491090743891,3,17,-2,-8,-17,-20,-29,14,11
1491090743937,0,-55,-14,-5,7,-27,1,-9,-38
1491090743937,0,3,6,-1,35,121,40,1,14
1491090743938,1,0,-9,3,-18,-97,-74,-25,-25
1491090743938,1,-6,-6,-6,-18,-24,35,2,2
1491090743939,3,46,21,4,48,123,-84,0,-4
1491090743939,3,-13,-3,2,6,-52,-13,24,39
1491090743940,0,-7,-9,-6,-18,-23,50,-56,-38
1491090743940,0,16,-19,-4,27,39,30,-32,-33
1491090743986,1,-33,-22,-6,-34,-54,-108,-26,-7
1491090743986,1,-69,21,-7,-38,-46,62,28,-34
1491090743986,2,28,-21,-21,-64,-80,-127,-24,-4
1491090743986,2,66,-3,-12,-11,-17,4,8,70
1491090743987,0,-45,11,19,2,-40,-1,53,3
1491090743987,0,-4,0,-6,-8,-15,-45,-14,34
1491090743988,1,11,10,-2,-32,-32,-55,-110,-2
1491090743988,1,-22,-3,-18,-26,-33,40,-43,27
1491090744035,2,50,8,-5,29,30,-61,3,4
1491090744035,2,-31,8,19,41,86,17,10,20
1491090744036,3,-21,-1,-6,-35,-36,35,-21,-4
1491090744036,3,-30,3,7,13,28,68,11,-4
1491090744037,1,14,37,28,46,64,10,-43,25
1491090744037,1,25,-13,-8,-24,-63,-62,5,-27
1491090744037,2,-2,12,-20,-4,-12,126,102,35
1491090744037,2,-35,-5,13,13,-24,-62,14,-2
1491090744083,3,13,-6,3,20,63,20,36,1
1491090744083,3,-27,4,3,0,43,-24,-87,-15
1491090744084,0,-4,12,-10,-7,34,77,18,6
1491090744084,0,45,-19,-15,-29,-76,-80,-35,-12
1491090744084,2,-38,-6,-1,-24,-39,27,24,-28
1491090744084,2,-34,12,-5,-35,-11,62,-60,-37
1491090744132,3,71,-23,0,34,36,-46,31,20
1491090744132,3,-48,-5,-9,-12,-11,4,0,-16
1491090744133,0,3,16,13,-31,-40,-26,-30,7
1491090744133,0,-15,-3,-11,32,48,12,12,20
1491090744133,1,-24,1,6,21,-12,75,0,-18
1491090744133,1,-15,-6,-4,-23,-37,-31,-2,8
1491090744139,3,-64,-8,-23,-80,-60,57,28,-3
1491090744139,3,69,-24,-7,30,19,-23,-67,20
1491090744181,0,-10,40,13,20,-35,-37,-18,35
1491090744181,0,-45,-48,-16,-17,33,12,5,-52
1491090744181,1,20,18,1,2,-23,74,-45,-5
1491090744181,1,-32,-12,-5,-7,-32,-104,31,-13
1491090744182,2,3,-2,7,12,7,-44,59,15
1491090744182,2,0,10,1,13,31,7,-51,16
1491090744183,3,-36,-6,-4,-26,5,59,-14,-24
1491090744183,3,39,11,0,36,46,78,86,35
1491090744230,0,-9,-19,-5,-13,-32,-121,-57,-49
1491090744230,0,39,35,19,-11,-8,3,13,6
1491090744230,1,-15,-20,-29,-50,-43,-20,-10,2
1491090744230,1,6,19,0,-12,-15,7,67,-5
1491090744231,0,47,-13,-6,-15,-24,-9,-107,44
1491090744231,0,14,21,25,52,26,59,63,-27
1491090744232,1,-34,17,18,76,127,-50,22,21
1491090744232,1,-17,-2,-4,3,-40,111,-29,-7
1491090744278,2,56,-49,-25,-100,-97,-94,-48,-41
1491090744278,2,-43,-17,-13,-11,-60,80,2,20
1491090744279,3,31,-8,-4,13,19,39,65,14
1491090744279,3,2,25,26,70,91,41,-57,-8
1491090744280,1,0,-17,-12,-23,11,-1,87,-20
1491090744280,1,-101,-20,-18,-35,-102,-35,-84,-41
1491090744281,2,41,0,-3,-63,-56,-20,55,24
1491090744281,2,-1,-2,6,53,105,-9,-16,-2
1491090744327,3,0,0,-3,-7,-95,-52,-14,-5
1491090744327,3,-24,-35,-17,-34,56,54,32,-22
1491090744329,0,3,36,11,45,20,58,31,13
1491090744329,0,65,-17,-13,-30,-42,-103,-87,-18
1491090744330,2,-81,-25,-17,8,92,127,24,-43
1491090744330,2,47,-8,0,6,-29,-100,16,14
1491090744331,3,3,0,-17,-23,-53,40,-7,-1
1491090744331,3,22,14,3,-56,-34,-49,-4,6
1491090744379,0,3,-18,-2,56,8,86,-2,27
1491090744379,0,-49,29,8,41,86,27,-13,-5
1491090744380,1,1,-10,9,39,0,-44,25,4
1491090744380,1,-102,5,8,57,78,96,59,4
1491090744381,3,-37,-48,-20,-9,-38,-51,-41,-26
1491090744381,3,20,21,8,44,35,21,37,58
1491090744382,0,-59,-21,11,49,60,35,-1,-31
1491090744382,0,6,18,15,20,5,22,-21,15
1491090744425,1,8,13,7,-12,8,-49,-40,55
1491090744425,1,6,-14,-5,-37,-45,-86,-59,-58
1491090744427,2,-55,-11,-18,-17,-8,-16,18,-1
1491090744427,2,16,5,-3,-17,-50,-6,-48,9
1491090744428,0,-13,36,4,16,-52,18,-49,20
1491090744428,0,-48,-23,-8,21,88,-72,60,22
1491090744429,1,45,14,10,-5,-43,-74,-65,5
1491090744429,1,-59,-2,-9,-39,-61,-12,-17,-3
1491090744473,2,12,-5,-12,-12,-1,-36,2,-7
1491090744473,2,-18,21,10,4,-28,-4,16,-8
1491090744474,3,0,-25,-20,-34,-12,91,-2,0
1491090744474,3,38,-15,-4,4,-18,-73,-28,4
1491090744475,1,-12,-17,-5,-5,13,24,-25,-39
1491090744475,1,-5,0,-21,-81,-87,-55,8,10
1491090744476,2,-35,-11,-9,26,-26,67,7,0
1491090744476,2,110,-12,3,7,39,44,7,3
1491090744522,3,-64,34,15,10,-36,-103,45,-5
1491090744522,3,-2,-15,-2,50,89,102,63,-2
1491090744523,0,18,6,4,-33,-36,-128,-44,-10
1491090744523,0,-86,-21,-11,-30,-40,109,0,27
1491090744523,1,-19,-8,7,54,81,54,-21,-7
1491090744523,1,64,-10,-3,60,38,-51,-33,-8
1491090744524,2,-6,18,10,-91,-78,-48,23,34
1491090744524,2,-23,2,-15,-1,0,-7,84,-33
1491090744571,3,12,10,1,24,-16,-45,-74,-21
1491090744571,3,-24,-30,-14,-28,-72,-3,-12,34
1491090744571,0,47,28,18,67,77,79,0,-5
1491090744571,0,-27,-31,-18,-38,-47,-102,-27,10
1491090744572,2,3,4,4,-13,41,-54,29,-22
1491090744572,2,-10,-21,-8,5,-63,54,21,-15
1491090744573,3,8,9,2,3,42,5,-49,46
1491090744573,3,-14,0,-2,-10,-61,13,-49,0
1491090744619,0,8,7,-4,-83,-61,41,56,-24
1491090744619,0,16,17,-4,3,3,-56,-37,-30
1491090744620,1,-20,-18,19,96,96,19,127,0
1491090744620,1,-40,15,6,-31,-27,-5,-57,-45
1491090744621,3,-38,1,-1,-21,-21,-9,13,-14
1491090744621,3,14,-7,-3,4,65,45,-104,-26
1491090744622,0,0,-29,-26,-19,-15,42,16,18
1491090744622,0,-66,11,14,-9,-44,14,-39,-8
1491090744668,1,66,-7,-7,27,49,-115,31,-19
1491090744668,1,-58,-12,-9,-35,-53,57,-5,0
1491090744669,2,-18,-17,13,59,127,27,60,17
1491090744669,2,101,46,7,-68,-106,-61,-68,-23
1491090744670,0,-41,16,-10,-53,-82,60,-14,-1
1491090744670,0,-31,-27,-17,-31,-5,7,2,-21
1491090744671,1,37,-8,-15,19,-56,-99,-27,14
1491090744671,1,-49,20,17,11,40,100,22,-5
1491090744717,2,58,-20,0,68,55,-102,-14,1
1491090744717,2,-71,9,18,33,26,53,63,-24
1491090744718,3,89,-8,-5,-52,-12,-76,-81,33
1491090744718,3,-75,-27,-20,-61,-36,32,92,-9
1491090744718,1,3,-13,-7,-21,-62,50,86,51
1491090744718,1,12,8,2,-23,19,-27,-44,-31
1491090744721,2,-81,2,10,13,5,-59,-21,-42
1491090744721,2,29,-8,4,-1,-20,26,27,53
1491090744766,3,-97,-13,-5,-13,-53,48,21,-67
1491090744766,3,25,3,10,47,79,-1,13,39
1491090744767,0,39,19,8,3,0,30,-70,-10
1491090744767,0,-4,-12,1,36,62,-9,30,24
1491090744767,2,5,13,8,10,-8,32,-6,-6
1491090744767,2,-26,-4,8,70,76,-28,22,59
1491090744768,3,-47,6,-1,-26,-6,-26,-56,-9
1491090744768,3,59,-2,-5,-36,-29,-68,42,-18
1491090744814,0,-115,14,14,47,51,63,49,-5
1491090744814,0,37,-23,-24,-27,-85,-10,-112,-25
1491090744816,1,-92,-13,4,-17,74,118,24,11
1491090744816,1,25,12,24,48,36,-97,-21,26
1491090744816,3,-9,-12,-13,-5,-40,21,19,-5
1491090744816,3,-11,-1,-1,15,-5,24,-25,20
1491090744817,0,8,6,4,-28,-67,12,26,-21
1491090744817,0,-97,7,5,24,114,86,42,-37
1491090744863,1,79,-21,-14,23,-23,-99,13,41
1491090744863,1,32,7,-6,-59,-47,77,33,51
1491090744864,2,-42,-21,-4,41,32,-9,-8,-85
1491090744864,2,-1,-42,-29,-99,-117,-58,-16,11
1491090744865,3,22,33,18,30,103,68,-37,10
1491090744865,3,-3,-13,-7,6,-66,48,-65,-2
1491090744866,0,24,22,17,-7,24,-30,-15,25
1491090744866,0,37,5,-9,28,-19,-39,-28,31
1491090744912,1,-40,45,38,36,5,-2,49,11
1491090744912,1,-69,2,8,9,110,8,12,-13
1491090744913,2,-18,-11,-21,-34,-89,61,-11,-25
1491090744913,2,13,-2,-12,-50,-77,-99,21,-11
1491090744913,0,-15,11,29,72,127,57,-44,23
1491090744913,0,39,19,16,15,79,40,77,21
1491090744914,1,-21,-25,-31,-83,-70,-30,28,34
1491090744914,1,-46,-13,-17,-47,-114,-9,-44,-71
1491090745009,2,46,-9,-2,63,46,-104,-90,86
1491090745009,2,-7,-3,12,-6,-17,74,61,-35
1491090745011,3,-78,39,26,30,90,97,-17,-41
1491090745011,3,42,-31,-28,-58,-84,-13,53,10
1491090745011,1,7,-5,-1,9,90,12,36,-13
1491090745011,1,-60,-8,10,57,19,43,-62,-2
1491090745012,2,-36,-17,-11,-31,-92,1,-7,-50
1491090745012,2,31,33,1,-54,-21,-104,-52,13
1491090745058,3,-27,-12,-5,19,12,53,5,-55
1491090745058,3,89,20,6,30,38,-98,23,70
1491090745060,0,-52,-1,-3,-49,-7,59,7,-42
1491090745060,0,-23,-23,-25,-40,13,77,-24,3
1491090745061,3,80,29,11,56,-1,-1,17,54
1491090745061,3,-57,-1,3,30,19,28,41,19
1491090745062,0,-46,-21,-11,-47,-45,14,85,-11
1491090745062,0,-3,-4,1,-12,-7,-33,-86,-10
1491090745107,1,3,-14,7,40,30,39,-11,-8
1491090745107,1,-55,19,0,-17,-29,25,87,-4
1491090745108,2,80,4,-14,-15,7,-83,-93,25
1491090745108,2,-69,6,-8,-3,18,52,18,-22
1491090745108,0,66,13,5,-16,-34,-58,-12,16
1491090745108,0,56,-14,-20,0,-55,18,40,4
1491090745109,1,-37,-5,8,32,78,52,-99,14
1491090745109,1,-20,20,16,32,48,4,-3,-25
1491090745156,2,-44,-5,-12,-35,-57,86,29,7
1491090745156,2,-39,5,2,-26,-14,-74,-56,-36
1491090745156,3,-79,-24,-20,-13,-56,-4,-38,0
1491090745156,3,42,-15,8,28,68,-128,-20,24
1491090745157,1,-28,-2,-14,-58,-13,22,-29,-21
1491090745157,1,-24,-19,-3,25,-52,66,63,7
1491090745158,2,-47,14,1,19,41,24,-69,-18
1491090745158,2,29,-24,1,21,-56,-126,-43,9
1491090745204,3,10,-19,-11,-25,-21,80,10,25
1491090745204,3,-1,26,10,-16,-1,88,-15,7
1491090745205,0,25,0,21,38,56,8,-28,20
1491090745205,0,-115,49,16,66,107,127,78,-4
1491090745206,1,106,-28,-23,-93,-74,-128,-105,-1
1491090745206,1,-12,-24,-6,45,-30,-56,23,-44
1491090745207,2,-13,1,-16,-21,-13,109,22,25
1491090745207,2,-16,-9,-8,-81,-83,-57,23,32
1491090745253,3,18,13,0,55,23,-35,52,-21
1491090745253,3,-24,7,8,19,-21,4,-15,-3
1491090745254,0,-3,8,13,7,59,-90,45,9
1491090745254,0,21,-5,-4,8,35,108,-45,-44
1491090745254,2,-25,-4,-4,-5,-70,-4,10,-4
1491090745254,2,3,14,11,43,86,51,41,49
1491090745256,3,0,5,10,7,17,113,-3,-5
1491090745256,3,54,-1,9,25,64,-101,-42,11
1491090745302,0,-9,-17,-19,-51,-38,35,25,-51
1491090745302,0,-4,-5,-8,-28,-59,-36,34,17
1491090745304,1,-25,13,-1,62,38,30,-30,-21
1491090745304,1,12,-7,1,-48,-86,-44,2,43
1491090745305,3,21,-27,-11,-22,31,-33,12,28
1491090745305,3,-31,0,6,-2,-19,52,-1,20
1491090745306,0,-13,14,11,20,30,6,-5,-43
1491090745306,0,32,-29,-31,-35,-57,-49,-73,8
1491090745351,1,-97,5,14,-30,-104,-36,33,29
1491090745351,1,2,8,15,33,123,28,-62,-66
1491090745352,2,30,-14,-11,10,-1,127,-43,24
1491090745352,2,0,3,18,23,18,-82,-29,23
1491090745353,0,-57,-2,5,19,9,-26,0,-30
1491090745353,0,21,-3,-20,-41,-8,19,-20,-6
1491090745399,1,-16,-10,-12,-6,-50,36,0,-20
1491090745399,1,35,-13,-15,-14,-48,-61,-18,6
1491090745400,2,-65,-6,26,91,95,29,30,-7
1491090745400,2,36,-7,-1,-25,-61,-45,27,34
1491090745401,3,-22,21,-1,-36,83,32,28,-19
1491090745401,3,-55,4,-1,12,-35,63,-6,-41
1491090745402,1,12,19,39,33,14,78,38,20
1491090745402,1,14,14,-5,3,3,-51,-91,13
1491090745448,2,20,-2,-8,-34,-72,-23,-16,-45
1491090745448,2,-18,-5,-3,-14,4,104,36,44
1491090745450,3,-28,1,-9,-27,-35,-7,-19,-10
1491090745450,3,53,-20,-14,-29,-12,-31,41,14
1491090745451,0,2,-4,6,56,44,19,39,5
1491090745451,0,-64,10,15,-24,-58,-5,-16,-18
1491090745452,2,25,6,-19,2,32,-109,-86,39
1491090745452,2,0,-7,-1,9,-4,5,111,3
1491090745497,3,-9,-3,18,1,-38,-70,-103,-35
1491090745497,3,-63,-4,-11,1,3,40,50,22
1491090745498,0,40,2,18,-33,-56,33,21,-35
1491090745498,0,-80,0,-16,-35,70,107,40,-14
1491090745499,3,-4,1,-13,-44,-18,9,5,25
1491090745499,3,-56,-11,15,42,53,39,3,-21
1491090745500,0,-14,21,16,16,51,32,97,47
1491090745500,0,-3,-16,-12,-21,-24,-36,-84,-64
1491090745546,1,-29,5,6,24,15,32,21,28
1491090745546,1,-22,-15,-15,-23,-18,-36,-67,-24
1491090745547,2,-31,8,16,3,57,71,36,-10
1491090745547,2,-10,2,-23,-32,-40,-26,-33,5
1491090745548,0,-21,12,-1,36,56,92,54,-2
1491090745548,0,-19,16,32,82,81,52,85,-8
1491090745549,1,-24,-13,-13,1,28,-50,-18,-1
1491090745549,1,-18,19,12,-30,16,115,-17,-13
1491090745595,2,-31,4,11,-41,-80,-55,-44,-47
1491090745595,2,-16,-5,-6,8,9,39,4,20
1491090745604,3,-12,-5,-14,-1,-15,-31,-76,-23
1491090745604,3,85,1,7,34,26,64,92,53
1491090745605,0,-49,-22,-18,41,64,-103,-10,35
1491090745605,0,-28,-2,-5,-81,-86,-4,-10,-16
1491090745606,1,-8,-8,-16,-69,-17,-54,-1,-41
1491090745606,1,-14,-10,9,27,12,-12,-31,9
1491090745643,2,4,-15,-13,33,-5,17,41,14
1491090745643,2,-12,-12,20,59,87,52,-49,4
1491090745645,3,-10,11,1,17,19,18,-11,31
1491090745645,3,-17,-13,-18,-44,-77,-23,-18,-54
1491090745645,1,16,2,-1,23,0,127,73,35
1491090745645,1,6,3,2,0,54,-93,-76,-10
1491090745646,2,-28,5,11,16,-75,-49,-44,-6
1491090745646,2,-43,14,3,-12,-16,22,70,47
1491090745692,3,33,-15,-19,-50,21,-49,-83,-48
1491090745692,3,-46,-11,-10,37,45,36,2,-3
1491090745693,0,7,1,4,30,31,13,-28,20
1491090745693,0,-1,6,15,-1,-34,-38,29,20
1491090745693,2,-4,2,-5,-49,-73,38,-49,50
1491090745693,2,12,23,14,36,13,-14,-12,-26
1491090745694,3,-57,-16,-2,51,87,-27,15,-7
1491090745694,3,68,18,16,-9,2,-41,3,48
1491090745741,0,-2,3,-27,-48,-22,62,104,-11
1491090745741,0,10,10,19,31,-1,4,-74,9
1491090745742,1,-24,-10,14,64,52,23,74,-16
1491090745742,1,-35,15,-12,-98,-76,-25,-31,10
1491090745742,3,-53,15,10,20,-33,-41,-83,-28
1491090745742,3,-36,-9,4,1,17,8,50,-32
1491090745743,0,35,-35,-38,-107,-128,0,-9,-18
1491090745743,0,-8,9,-16,6,58,35,54,7
1491090745789,1,-15,-2,13,38,-3,-63,0,20
1491090745789,1,-14,-4,3,29,31,38,3,4
1491090745790,2,20,-7,-4,12,5,-20,1,-43
1491090745790,2,-8,-11,2,20,84,47,-76,11
1491090745791,0,-37,-9,-9,-44,-23,-37,-17,5
1491090745791,0,0,-4,-11,9,-55,10,1,-7
1491090745792,1,7,4,8,22,62,76,-55,-18
1491090745792,1,-10,8,14,54,38,1,17,16
1491090745838,2,12,14,26,7,-34,-25,-44,2
1491090745838,2,-5,-19,-9,-43,-15,-38,38,6
1491090745839,3,-34,-2,-10,-25,5,77,10,-13
1491090745839,3,3,0,7,17,-79,3,38,27
1491090745839,1,-21,-27,-14,-19,-27,-56,-43,-62
1491090745839,1,30,-3,-3,-60,-43,-43,-98,-17
1491090745841,2,-36,-35,-20,36,-3,53,53,2
1491090745841,2,65,16,-8,-54,-94,0,74,28
1491090745887,3,-57,-19,4,5,31,-37,-37,-2
1491090745887,3,-14,25,14,57,24,23,48,-6
1491090745888,0,-1,-4,3,2,42,16,-15,32
1491090745888,0,-22,-19,-26,-26,-13,-2,-22,-82
1491090745888,2,-51,-6,-5,1,-81,21,71,12
1491090745888,2,-6,-12,-2,5,100,-97,-84,34
1491090745889,3,49,13,10,2,-55,-8,60,-37
1491090745889,3,-31,-7,-11,4,5,43,22,-44
1491090745936,0,-32,24,23,44,67,1,12,16
1491090745936,0,-48,-5,9,-2,-26,-6,-58,-39
1491090745936,1,-7,-1,-10,-82,-64,23,57,-1
1491090745936,1,-31,6,8,60,58,-24,30,23
1491090745937,2,-14,-4,2,31,27,51,-26,-56
1491090745937,2,-7,-18,-19,-99,-108,-107,-83,10
1491090745938,3,-1,0,-21,19,28,30,-43,38
1491090745938,3,-28,-4,10,44,7,105,25,17
1491090745984,0,-9,-21,-7,-44,7,-93,-117,-14
1491090745984,0,-28,25,29,37,10,53,11,-9
1491090745986,1,-60,16,4,23,48,100,42,30
1491090745986,1,3,-25,-24,-52,-19,-90,-5,-3
1491090745986,3,-22,3,-2,-11,2,35,77,51
1491090745986,3,-79,-6,7,-8,6,63,33,5
1491090745987,0,39,-5,-16,-44,-43,-84,-54,-29
1491090745987,0,-38,-9,-27,-14,-26,91,81,-14
1491090746033,1,32,17,50,89,93,-112,-39,28
1491090746033,1,2,8,-6,-2,-39,-22,-30,-29
1491090746034,2,-60,-10,-6,-30,-22,28,11,-4
1491090746034,2,-44,13,1,12,62,95,55,8
1491090746035,0,-45,2,18,35,-20,23,16,-53
1491090746035,0,60,-14,-22,-12,8,-88,-74,1
1491090746036,1,-17,-15,-8,-53,-40,67,26,3
1491090746036,1,-15,-3,1,9,14,2,23,-21
1491090746082,2,21,8,-3,4,-20,4,-99,17
1491090746082,2,-67,2,-3,-44,-36,19,52,-15
1491090746083,3,-14,16,2,23,-13,13,32,-19
1491090746083,3,-26,-26,-11,17,-16,14,-12,-32
1491090746083,1,8,-18,-20,-48,-67,-78,-99,-31
1491090746083,1,5,-3,-8,-56,-24,12,77,-20
1491090746084,2,-13,33,20,46,36,62,101,62
1491090746084,2,9,-6,2,18,-14,-44,-107,-72
1491090746131,3,14,-14,5,36,88,32,48,-9
1491090746131,3,34,12,-7,-71,-72,-19,25,36
1491090746132,0,30,-7,-18,-20,-21,24,9,18
1491090746132,0,-11,4,19,53,-14,7,-29,7
1491090746132,2,-1,7,-5,-44,-10,-38,-43,15
1491090746132,2,-63,2,3,5,25,35,31,-33
1491090746133,3,-5,5,1,11,-38,-30,-5,20
1491090746133,3,40,-10,-2,4,18,-44,-24,-36
1491090746179,0,65,9,11,21,55,86,74,3
1491090746179,0,-58,-4,3,11,39,-22,-20,2
1491090746181,1,-65,26,4,-33,-70,40,77,-15
1491090746181,1,-19,-9,-9,-11,-41,-61,24,-47
1491090746181,3,-6,0,4,19,28,-6,-5,15
1491090746181,3,-45,12,18,41,34,91,52,50
1491090746182,0,-16,-13,-11,-18,10,-41,-45,-58
1491090746182,0,-11,-9,-3,21,-17,74,-32,24
1491090746229,1,34,11,2,-1,38,-55,56,-21
1491090746229,1,4,-7,5,27,54,83,-30,12
1491090746230,2,-10,6,-5,-29,-63,-36,11,9
1491090746230,2,-9,-16,-23,-29,-26,-66,-42,17
1491090746230,0,12,13,8,-7,6,-68,-41,-2
1491090746230,0,-72,-20,-6,17,-2,-17,29,14
1491090746231,1,-30,-1,-9,-12,-2,11,-20,0
1491090746231,1,-15,7,13,7,30,-23,-12,27
1491090746277,2,-105,-17,-5,8,-24,118,75,-6
1491090746277,2,-4,1,-10,-30,-73,-56,-53,-26
1491090746278,3,9,-14,2,12,80,-36,-64,10
1491090746278,3,-39,2,-15,-31,-64,44,24,-7
1491090746279,0,-14,-9,20,58,42,-36,6,11
1491090746279,0,35,10,6,13,37,28,53,8
1491090746279,1,8,0,-4,-31,-28,32,31,-11
1491090746279,1,-61,0,-11,-6,-21,28,17,18
1491090746326,2,-52,-43,-26,-53,-94,-94,-116,-51
1491090746326,2,-1,14,3,13,24,-53,60,4
1491090746326,3,-36,6,7,25,18,66,34,12
1491090746326,3,-31,3,2,-13,25,-6,-21,-8
1491090746327,1,6,-21,-21,-28,-30,-45,-66,3
1491090746327,1,-49,-7,7,4,-15,-19,9,19
1491090746328,2,-59,23,10,9,26,55,21,-18
1491090746328,2,11,-18,-15,-13,9,-58,-16,-8
1491090746374,3,-9,24,26,20,0,4,-39,-1
1491090746374,3,24,-7,0,1,1,-66,-4,-1
1491090746376,0,-51,-3,-6,-25,-1,54,-40,-14
1491090746376,0,84,12,1,-6,7,-12,29,41
1491090746376,2,-16,6,7,9,-6,8,-30,6
1491090746376,2,-37,-7,-7,-3,53,74,28,-14
1491090746377,3,-15,-4,-3,5,-3,-59,7,-9
1491090746377,3,6,-7,-10,-40,-39,32,-38,-19
1491090746423,0,46,20,7,9,2,-29,57,10
1491090746423,0,-17,-4,2,24,2,-8,-63,2
1491090746472,1,29,-9,6,-9,3,20,8,-8
1491090746472,1,-9,-7,-3,-11,3,-4,-61,-11
1491090746473,3,-27,1,6,8,6,4,-6,-6
1491090746473,3,6,14,3,30,48,2,-72,-8
1491090746474,0,2,-3,-5,1,-8,3,60,3
1491090746474,0,-29,-15,-12,-34,-35,-13,-80,-28
1491090746475,1,39,-17,-27,-50,-52,-22,15,19
1491090746475,1,-13,6,9,22,3,-8,2,12
1491090746521,2,-21,1,8,20,-1,-8,16,10
1491090746521,2,-8,-2,4,33,55,31,51,9
1491090746521,0,21,-11,-7,-1,6,-58,-47,0
1491090746521,0,-15,19,4,15,-22,40,-15,12
1491090746522,1,-19,5,6,22,73,105,54,-13
1491090746522,1,-23,-15,-28,-41,-86,-75,-1,1
1491090746523,2,9,-5,-8,-27,-16,0,-3,4
1491090746523,2,30,-17,-7,-1,-1,-36,-48,-10
1491090746618,3,-64,5,12,30,12,59,23,13
1491090746618,3,-28,6,12,5,27,2,7,9
1491090746619,0,68,18,4,17,21,39,-46,-25
1491090746619,0,-7,-1,4,-4,-20,-26,46,49
1491090746619,2,-12,-7,-17,-69,-31,-11,-58,-28
1491090746619,2,0,9,15,7,-3,21,24,-11
1491090746621,3,11,-16,-13,-6,-39,-38,-19,8
1491090746621,3,-47,-6,10,7,9,17,50,-17
1491090746667,0,-35,-10,7,33,14,11,41,2
1491090746667,0,-11,-12,0,0,40,-8,-26,-8
1491090746668,1,38,3,-3,-27,-11,-17,2,-18
1491090746668,1,-70,28,-7,-4,-13,61,-4,-21
1491090746668,2,28,9,-9,-25,-13,-91,-18,-14
1491090746668,2,-52,51,-7,0,-19,3,34,6
1491090746669,3,-61,-24,-7,11,-5,-71,-41,4
1491090746669,3,1,-25,0,-26,-11,-27,16,4
