1491695939812,0,-18,-35,-66,77,-4,-40,-101,36
1491695939812,0,95,9,101,-58,-22,-25,105,-106
1491695939815,1,32,25,64,-30,-8,11,95,-112
1491695939815,1,17,20,44,-17,-9,-8,68,-85
1491695939816,2,-20,6,-6,-9,10,30,50,-63
1491695939816,2,-35,3,-32,23,7,6,-31,11
1491695939860,3,-19,-20,-33,5,-5,-18,-39,29
1491695939860,3,-19,8,-20,7,11,14,-20,7
1491695939862,0,2,0,10,-7,-3,-6,-7,27
1491695939862,0,-16,-14,-34,6,0,-1,-34,36
1491695939863,1,5,5,6,-8,-1,2,-8,23
1491695939863,1,-7,-18,-22,1,-4,-3,-26,34
1491695939863,2,15,7,22,-14,-5,-3,7,11
1491695939863,2,-3,-8,6,-1,-2,-10,-13,23
1491695939908,3,-7,0,-14,8,4,2,-17,14
1491695939908,3,3,-18,-5,0,-4,-7,-10,11
1491695939909,0,7,-1,5,-20,-5,-6,8,11
1491695939909,0,-16,15,-1,5,6,15,-3,-15
1491695939910,1,-3,-6,-15,3,-1,-3,-11,10
1491695939910,1,-1,-1,9,-2,-3,-5,-1,0
1491695939957,2,9,14,19,-14,-1,6,22,-14
1491695939957,2,-11,1,-7,9,1,5,-6,2
1491695939959,3,-7,-9,-2,3,-1,-1,-7,-5
1491695939959,3,-2,-5,-1,-2,-4,-6,2,-7
1491695939960,0,-4,5,-3,-3,-1,5,7,-22
1491695939960,0,-9,-5,-8,4,0,-3,-3,-6
1491695939962,2,-2,-1,3,-3,2,3,5,-14
1491695939962,2,-9,1,-3,3,0,0,-1,-7
1491695940005,3,-1,-11,-14,-2,-2,1,5,-10
1491695940005,3,2,4,10,1,-2,1,-3,-6
1491695940006,0,7,-5,5,-3,-2,-3,6,-9
1491695940006,0,1,0,-8,-1,0,-2,-1,-2
1491695940007,3,-8,-2,-7,-1,-2,-2,-3,-3
1491695940007,3,6,7,7,0,0,-3,0,1
1491695940008,0,-7,-4,0,-9,-3,-2,1,-5
1491695940008,0,5,3,1,-1,-3,-2,-3,2
1491695940054,1,3,9,10,2,2,-2,-2,3
1491695940054,1,-1,-7,-1,-2,-2,-2,-4,6
1491695940055,2,-3,-11,-8,-3,-2,-3,5,-3
1491695940055,2,2,11,8,-1,0,0,-6,12
1491695940056,0,8,-2,-9,-2,-2,-3,-4,4
1491695940056,0,-13,-7,3,0,-1,-1,-1,-2
1491695940057,1,9,4,2,-3,-2,-3,-1,14
1491695940057,1,15,0,-3,-1,-1,-4,-2,6
1491695940102,2,2,-8,-13,-4,2,0,-1,-1
1491695940102,2,11,-6,0,-4,-4,-3,0,7
1491695940105,3,2,2,7,4,0,0,-4,-4
1491695940105,3,-7,-1,5,-5,-1,0,1,-5
1491695940105,0,-6,-5,-13,-1,0,0,0,1
1491695940105,0,25,-21,-13,-7,-3,-3,-2,-2
1491695940107,1,-5,-2,-9,-4,-5,-3,-2,-9
1491695940107,1,-4,3,-3,-4,-3,-2,0,3
1491695940151,2,8,-15,-12,0,-1,-2,-1,2
1491695940151,2,-11,3,4,-2,-2,-1,-1,3
1491695940152,3,-1,-5,-4,-5,-5,-1,-3,1
1491695940152,3,-8,-2,1,-1,-1,-3,-5,-3
1491695940153,1,3,-1,7,4,1,-2,-2,-3
1491695940153,1,4,5,-6,-3,-2,0,-4,-19
1491695940155,2,-3,18,21,3,-3,1,3,-3
1491695940155,2,-8,-4,5,4,2,1,0,2
1491695940200,3,6,-2,-14,-4,-4,-1,-3,1
1491695940200,3,-3,-13,10,2,1,0,2,1
1491695940201,0,10,-9,-9,0,-4,-2,0,-8
1491695940201,0,-11,10,20,1,0,1,-1,-12
1491695940202,2,-3,-2,15,-6,-4,-4,-3,5
1491695940202,2,-7,-2,-11,-2,-2,-4,-3,0
1491695940203,3,2,19,15,4,0,2,0,5
1491695940203,3,-2,-13,-8,-4,-4,-2,-2,-3
1491695940249,0,-1,24,21,2,1,0,0,0
1491695940249,0,-13,-38,-37,-4,-3,3,-2,-20
1491695940252,1,-7,35,46,5,-1,-2,3,4
1491695940252,1,1,-18,-11,3,-2,-3,0,-9
1491695940253,3,2,-11,-24,-8,-3,0,0,4
1491695940253,3,2,9,0,-1,-2,-6,-4,-11
1491695940254,0,2,-17,8,-2,-2,-3,-5,12
1491695940254,0,-2,18,2,-4,-2,-7,-2,6
1491695940297,1,-10,-43,-15,-4,-1,-5,-3,-2
1491695940297,1,-5,9,12,1,2,5,-3,11
1491695940299,2,0,9,-17,-4,-1,-18,1,0
1491695940299,2,0,-15,-2,0,-4,-38,-1,4
1491695940300,0,-12,-12,-6,-1,0,9,-3,-16
1491695940300,0,12,45,27,7,3,18,-8,-8
1491695940301,1,-7,-21,-20,-4,-5,-84,2,-10
1491695940301,1,6,-2,1,1,0,-110,4,12
1491695940347,2,-6,-26,5,-4,-5,72,-25,1
1491695940347,2,-9,-7,1,2,1,-88,-27,10
1491695940355,3,-14,-8,-12,2,-2,-58,6,-35
1491695940355,3,-7,27,4,9,0,4,17,-37
1491695940356,1,8,-6,5,-3,3,28,56,-4
1491695940356,1,-10,1,2,-6,-5,11,31,2
1491695940359,2,12,-37,-15,-4,1,-62,0,8
1491695940359,2,2,-15,5,-5,-5,5,-36,7
1491695940395,3,8,73,8,13,1,-25,-39,9
1491695940395,3,-12,-32,-14,-30,-8,2,-20,3
1491695940396,0,16,9,20,21,3,-13,-3,17
1491695940396,0,11,16,8,0,5,-5,-2,8
1491695940397,2,-12,3,-8,-5,-4,-26,1,2
1491695940397,2,6,7,0,-7,-3,-29,8,8
1491695940398,3,-15,-6,15,2,0,48,-4,-10
1491695940398,3,18,2,-3,0,-4,25,-9,10
1491695940444,0,2,-2,9,0,-1,-48,7,6
1491695940444,0,-19,-20,1,2,-1,3,7,-1
1491695940445,1,-1,-11,-5,-8,0,31,-12,2
1491695940445,1,-9,-4,-9,-6,-7,-12,-11,-2
1491695940446,2,-15,-6,-14,-6,-2,-11,14,1
1491695940446,2,5,13,8,8,0,0,-1,9
1491695940447,3,-6,-5,1,-8,-5,14,-9,0
1491695940447,3,2,2,0,0,8,-3,2,2
1491695940492,0,-8,7,-5,-6,4,-2,3,-9
1491695940492,0,7,4,6,7,-6,10,-1,3
1491695940494,1,5,9,-12,-8,0,-2,-6,5
1491695940494,1,7,7,-18,-18,-8,3,-3,-10
1491695940495,3,12,-8,-1,5,2,5,-3,4
1491695940495,3,-5,15,11,6,1,0,-4,2
1491695940496,0,-27,-9,-12,-16,-5,-6,-1,-5
1491695940496,0,-7,5,-6,-1,1,-6,-1,-9
1491695940542,1,-9,0,-35,0,-8,7,-4,8
1491695940542,1,4,9,14,3,1,6,-2,-6
1491695940543,2,-19,-5,37,-1,-2,-16,1,-2
1491695940543,2,-23,7,27,2,0,1,-2,-12
1491695940544,0,7,9,-25,0,-2,-6,-1,2
1491695940544,0,-8,-20,-13,-9,-2,-7,-4,-8
1491695940545,1,9,2,3,-5,-4,17,-1,-7
1491695940545,1,-4,-5,-3,5,-1,-2,1,-6
1491695940590,2,5,-3,4,2,-2,3,4,0
1491695940590,2,20,23,-6,-6,0,2,4,-4
1491695940591,3,-23,-12,7,2,1,-29,0,-15
1491695940591,3,-10,-16,3,10,-1,21,0,-9
1491695940592,1,-8,-9,4,-4,-3,-8,1,-1
1491695940592,1,2,4,14,2,-3,-1,-4,-7
1491695940593,2,9,1,-21,-5,-1,1,3,-6
1491695940593,2,33,15,-70,-5,-9,-6,-4,11
1491695940639,3,-6,-10,22,1,0,1,-2,-9
1491695940639,3,16,-18,18,2,6,-15,-2,-7
1491695940640,0,7,17,37,0,-5,-69,2,3
1491695940640,0,-22,-22,35,-7,-5,42,-2,-7
1491695940641,2,23,3,-45,1,-1,-78,-2,6
1491695940641,2,-4,-7,41,18,6,55,4,4
1491695940642,3,21,-2,-1,-16,-7,22,-6,-6
1491695940642,3,-25,-16,21,9,0,9,4,-1
1491695940688,0,38,8,0,14,-4,15,-2,16
1491695940688,0,-22,-15,-15,-3,-7,-46,-5,-1
1491695940689,1,4,-12,-14,22,2,3,-7,-20
1491695940689,1,28,1,33,-9,14,15,12,-8
1491695940692,3,16,10,-48,-22,-9,-19,-19,-25
1491695940692,3,31,-6,-31,19,-21,-42,-26,7
1491695940696,0,2,-1,-98,2,-5,36,4,11
1491695940696,0,-125,-53,-93,-13,19,7,18,-51
1491695940737,1,-20,45,72,34,19,18,7,82
1491695940737,1,85,-24,88,25,-6,4,23,-32
1491695940738,2,116,58,126,43,9,41,11,15
1491695940738,2,-37,19,96,-52,-31,-33,-5,-59
1491695940739,0,-46,-29,-20,-4,-3,4,20,-15
1491695940739,0,-70,-10,-12,2,12,30,-2,11
1491695940740,1,-34,5,-40,-51,-33,-10,-16,-65
1491695940740,1,10,9,-128,-14,-95,-9,-14,1
1491695940785,2,28,-6,-81,-3,50,-111,-22,28
1491695940785,2,30,8,-19,27,90,54,41,24
1491695940786,3,-16,-25,11,58,117,10,-12,-20
1491695940786,3,101,2,31,27,30,-71,-18,10
1491695940787,1,116,-26,112,-10,-128,84,17,27
1491695940787,1,-128,33,-21,-11,116,-68,-13,17
1491695940788,2,50,24,-55,-39,109,77,20,-36
1491695940788,2,-37,27,-65,-11,61,-12,-45,-45
1491695940834,3,52,9,-66,-42,-109,9,10,14
1491695940834,3,23,-16,-26,22,-111,66,-13,7
1491695940835,0,-48,-14,34,10,-93,22,-2,33
1491695940835,0,45,-10,11,27,-46,-4,-9,27
1491695940836,1,-71,-3,-36,4,-7,-17,13,-53
1491695940836,1,120,40,-4,-4,6,31,15,28
1491695940837,2,-33,-18,19,3,36,-10,-10,-24
1491695940837,2,100,-6,-1,-5,-14,24,-4,26
1491695940882,3,-21,11,-14,-3,13,-37,15,15
1491695940882,3,-70,-3,-18,-15,29,3,0,-46
1491695940884,0,-4,-6,10,2,11,39,-2,-10
1491695940884,0,-24,10,13,-2,-25,-39,-27,-12
1491695940885,2,30,-3,10,-13,-10,-9,-7,10
1491695940885,2,102,-1,27,8,-13,-4,-6,8
1491695940886,3,-55,0,-23,-15,9,-46,-15,-20
1491695940886,3,36,27,-1,6,9,25,11,29
1491695940932,0,-47,-19,6,-3,-27,-13,-18,-21
1491695940932,0,-17,9,-2,-4,13,31,24,15
1491695940933,1,-45,-18,-17,-5,5,-9,-8,-18
1491695940933,1,17,-11,2,-3,-12,-14,-28,-55
1491695940934,3,90,15,4,7,9,-9,1,49
1491695940934,3,-66,-30,-12,-14,-20,-21,-13,-10
1491695940934,0,71,3,-4,-9,-5,-8,-17,7
1491695940934,0,-13,-4,10,6,-11,7,10,8
1491695940980,1,-20,-13,-5,-10,-5,-21,1,13
1491695940980,1,-56,-39,-3,2,-2,-4,9,-24
1491695940982,2,-23,-17,4,5,14,14,-18,15
1491695940982,2,-6,2,-4,-4,-20,-12,2,19
1491695940983,0,14,-3,11,7,-2,-3,-4,3
1491695940983,0,-54,-14,2,-5,-13,-35,5,-5
1491695940984,1,35,6,1,7,15,25,-21,42
1491695940984,1,105,-9,0,-5,-9,-43,7,12
1491695941029,2,-11,6,10,10,7,28,9,64
1491695941029,2,16,-11,-1,-4,-6,-23,-7,10
1491695941030,3,-30,-14,10,5,-4,-16,-22,-4
1491695941030,3,23,-2,-8,-6,1,30,7,30
1491695941031,1,35,10,-3,6,10,10,19,5
1491695941031,1,-28,2,2,8,4,31,3,-39
1491695941032,2,-42,18,2,-7,-1,-14,20,-1
1491695941032,2,46,4,-3,-5,2,20,13,1
1491695941077,3,-33,3,-2,-4,-6,-20,-29,-43
1491695941077,3,-53,26,-2,-10,-4,-16,-18,-18
1491695941079,0,45,0,-3,11,4,50,27,-21
1491695941079,0,-56,12,0,1,4,2,-11,-12
1491695941080,2,-24,6,-1,7,22,6,53,-11
1491695941080,2,-21,2,-3,-9,-5,-1,-63,-26
1491695941081,3,40,4,-7,-3,-29,-26,7,-6
1491695941081,3,-86,-11,-12,-6,1,-2,10,-55
1491695941127,0,-57,-16,-1,-12,-3,8,-7,-23
1491695941127,0,-10,0,0,7,-6,-7,-2,-5
1491695941128,1,-8,-8,-3,0,11,4,45,-11
1491695941128,1,68,8,1,1,-6,-3,-29,18
1491695941129,3,-47,-8,-8,-21,-39,-13,3,2
1491695941129,3,18,-2,-2,-6,-4,-16,9,-4
1491695941129,0,-17,-10,-5,-18,-29,-18,-41,-17
1491695941129,0,57,1,3,1,-9,26,89,31
1491695941175,1,1,-19,7,26,43,-27,-48,-14
1491695941175,1,43,1,2,9,9,34,9,58
1491695941176,2,-7,-6,-2,-15,-10,-22,59,-18
1491695941176,2,74,-8,2,-4,-24,-34,-46,56
1491695941177,3,1,-23,5,12,2,18,24,30
1491695941177,3,42,-28,3,-5,-13,-34,10,73
1491695941178,0,39,-17,3,4,4,-16,-49,33
1491695941178,0,24,-2,8,3,7,20,53,48
1491695941224,1,-6,1,2,-5,8,6,-11,44
1491695941224,1,-23,21,0,-10,4,23,41,38
1491695941225,2,-1,17,-3,-3,-5,20,-110,-57
1491695941225,2,-47,30,-6,-5,16,23,10,-45
1491695941226,0,-40,19,-8,-4,9,21,40,-68
1491695941226,0,-33,5,-7,4,5,-18,-50,-75
1491695941227,1,-30,24,-1,4,-2,16,-128,-98
1491695941227,1,-13,2,-3,9,5,25,118,-41
1491695941272,2,6,8,1,8,-1,-1,-5,-8
1491695941272,2,-3,-56,-6,-3,-12,-61,-61,-71
1491695941274,3,62,3,11,-3,-11,-7,2,-33
1491695941274,3,24,-71,-6,-9,-9,-25,-26,52
1491695941275,1,-28,-39,-3,-8,6,47,20,59
1491695941275,1,-17,19,-24,-7,5,40,-33,-61
1491695941275,2,-34,29,-11,-5,-6,-11,3,2
1491695941275,2,-80,19,22,-5,-1,14,11,-46
1491695941321,3,-13,11,-19,3,6,-19,35,-8
1491695941321,3,47,-5,-14,-6,-8,-9,-28,-55
1491695941323,0,-16,-39,-20,2,-5,11,34,-27
1491695941323,0,46,2,3,-2,-12,-26,-16,24
1491695941324,2,31,-11,-23,5,-5,-17,-39,95
1491695941324,2,49,-27,53,-10,1,27,-55,84
1491695941324,3,-27,-63,-14,-33,-4,-8,-23,28
1491695941324,3,43,-5,26,0,-12,-52,-8,47
1491695941370,0,22,-6,8,-22,-18,-69,31,86
1491695941370,0,24,-33,-3,-6,-3,-41,52,73
1491695941372,1,28,5,4,-2,-6,-3,43,82
1491695941372,1,-55,-23,-1,2,2,20,-14,40
1491695941373,3,-52,49,-8,-19,-5,25,-2,-12
1491695941373,3,-92,26,1,14,12,51,-3,-60
1491695941374,0,3,56,23,16,-4,4,-38,-24
1491695941374,0,-23,39,-33,4,3,15,-4,-22
1491695941419,1,-87,0,-14,12,16,14,8,-60
1491695941419,1,48,32,-1,1,6,-15,26,-36
1491695941420,2,-109,-8,-5,1,-1,-10,21,-88
1491695941420,2,44,-7,-6,6,2,-7,45,-35
1491695941421,0,11,-30,-3,-1,-11,-57,-3,7
1491695941421,0,76,-3,-12,-2,6,52,50,47
1491695941422,1,4,0,18,10,-6,-2,5,-13
1491695941422,1,-35,-1,-1,11,18,6,34,4
1491695941467,2,-8,-30,-7,-7,-10,0,-49,-6
1491695941467,2,-48,23,0,-5,21,-13,3,-28
1491695941469,3,4,24,-7,11,-2,-93,72,-7
1491695941469,3,-33,12,-18,-24,-56,-60,-116,-60
1491695941471,1,-20,-7,-6,-20,-5,13,19,-27
1491695941471,1,82,-19,0,22,10,-7,-9,-14
1491695941472,2,-47,18,9,13,33,-58,-56,-5
1491695941472,2,36,-3,-1,3,-4,-98,2,-1
1491695941516,3,23,-5,1,3,-29,-20,39,3
1491695941516,3,-101,-11,-4,1,18,-21,7,-35
1491695941518,0,58,33,0,-19,-15,-24,24,-26
1491695941518,0,-34,-14,-13,-15,-22,5,-21,-23
1491695941519,1,16,-7,-3,0,-9,-13,-18,43
1491695941519,1,13,-12,10,-1,0,6,69,-41
1491695941520,2,11,-6,3,3,15,27,-76,-24
1491695941520,2,4,3,-2,9,14,-72,-21,0
1491695941565,3,55,0,-2,2,5,50,54,67
1491695941565,3,-45,-10,-3,-6,-3,21,4,-7
1491695941566,0,55,-20,-7,4,-4,-15,37,78
1491695941566,0,-70,3,8,-8,-20,-14,-65,-58
1491695941568,2,39,0,2,11,7,3,-1,19
1491695941568,2,-53,-8,-8,-15,4,-1,2,3
1491695941568,3,42,13,-1,0,-2,10,18,0
1491695941568,3,-8,11,-2,-12,-2,16,-41,16
1491695941614,0,-61,2,-2,7,11,-14,-13,-25
1491695941614,0,-27,-3,-4,8,-12,45,56,-31
1491695941621,1,24,3,1,4,18,-46,-21,11
1491695941621,1,25,2,-2,-11,-23,-20,-48,-14
1491695941622,3,-47,4,0,0,0,-24,-23,-30
1491695941622,3,-13,-2,3,17,18,21,-14,10
1491695941622,0,19,13,5,14,4,-30,19,-1
1491695941622,0,-7,-11,-8,-17,-15,-11,-23,-25
1491695941662,1,-9,0,2,-13,-10,2,13,-16
1491695941662,1,7,-14,-2,2,6,-24,-18,27
1491695941664,2,9,-1,1,-4,-12,36,-3,-9
1491695941664,2,-2,-7,-1,4,4,-8,39,-28
1491695941665,0,-4,-6,-2,-1,-3,1,-38,2
1491695941665,0,-16,2,-2,1,-1,-6,-29,-15
1491695941666,1,-2,-12,-11,-6,1,33,14,-17
1491695941666,1,-8,26,13,-4,-2,-6,50,29
1491695941711,2,2,3,-3,3,-5,-1,-8,-40
1491695941711,2,2,10,3,1,1,-7,1,28
1491695941713,3,-13,-17,-9,-5,2,28,25,0
1491695941713,3,22,2,-3,2,-3,-26,-16,6
1491695941714,1,3,36,0,0,1,25,38,21
1491695941714,1,8,31,1,-2,-12,-21,-59,-15
1491695941715,2,-15,-19,-4,0,4,-1,41,12
1491695941715,2,29,-6,-2,1,0,-14,-85,19
1491695941760,3,-41,-21,-9,-23,-17,2,74,-38
1491695941760,3,12,-8,-4,-4,3,20,3,31
1491695941762,0,-16,-16,-5,-5,-14,-17,-36,-14
1491695941762,0,2,18,-5,4,9,12,66,40
1491695941763,2,21,-25,-10,1,-4,10,27,23
1491695941763,2,-17,-14,2,-22,-37,-8,9,-18
1491695941764,3,26,-16,-5,-10,9,7,-94,-36
1491695941764,3,-11,19,-4,2,-7,-1,37,-17
1491695941809,0,20,25,10,2,-14,-4,13,31
1491695941809,0,-28,16,-3,-2,28,27,37,-17
1491695941811,1,-22,-5,-2,3,-10,-34,5,-4
1491695941811,1,50,-11,-4,-6,-3,15,-13,8
1491695941812,3,-20,0,9,18,50,3,-89,-11
1491695941812,3,-13,-19,-2,4,-15,-65,-8,-41
1491695941813,0,11,21,3,-16,-13,16,14,32
1491695941813,0,0,-22,0,-14,-10,-38,13,42
1491695941857,1,60,8,2,10,-6,23,-19,-2
1491695941857,1,11,6,2,6,-12,-19,0,-9
1491695941859,2,-5,-24,1,-17,-4,27,13,-23
1491695941859,2,24,3,-1,-8,9,13,-59,12
1491695941860,3,-25,-1,-7,-14,-42,-73,4,-33
1491695941860,3,13,-44,-11,-18,12,36,61,38
1491695941862,0,-64,4,1,1,-19,-52,-63,-14
1491695941862,0,35,9,9,28,51,45,20,-22
1491695941907,1,40,17,-5,3,-12,6,-16,57
1491695941907,1,-24,-25,-1,9,25,74,42,-47
1491695941909,2,40,5,-4,-16,-27,-92,-36,19
1491695941909,2,-89,-8,-1,-3,-6,12,-52,-48
1491695941910,0,75,2,-1,7,25,51,15,17
1491695941910,0,-10,14,2,1,-21,-52,-86,-22
1491695941911,1,-34,-7,0,21,23,17,104,-5
1491695941911,1,20,-5,-7,-17,-27,5,-8,40
1491695941955,2,-76,-6,-7,-19,-3,0,18,-39
1491695941955,2,75,-6,0,5,7,-21,18,-2
1491695941957,3,-62,6,7,-3,-1,22,-17,11
1491695941957,3,-23,6,-1,22,29,16,16,1
1491695941958,1,24,-16,2,-5,4,-2,14,42
1491695941958,1,-1,-1,-4,-8,-19,11,15,7
1491695941960,2,64,-5,2,5,6,-27,5,-1
1491695941960,2,-92,-14,-1,12,17,29,58,-2
1491695942004,3,-10,-4,-4,-6,-15,-55,-29,-42
1491695942004,3,2,10,4,-2,-7,-2,21,-15
1491695942005,0,21,-4,-3,-2,3,30,-6,37
1491695942005,0,31,-1,-1,13,22,-43,24,11
1491695942006,2,-1,8,0,0,6,22,34,12
1491695942006,2,-7,-4,-6,-2,-20,-1,-15,-13
1491695942007,3,-10,5,-1,0,8,-6,-18,-4
1491695942007,3,-17,3,8,8,12,12,-24,-2
1491695942052,0,13,8,3,3,-9,9,34,7
1491695942052,0,-24,-19,1,-2,0,-39,-51,-18
1491695942054,1,33,-3,-6,1,2,-12,51,17
1491695942054,1,-12,-3,2,-1,-4,16,-17,-9
1491695942055,3,6,12,1,6,20,28,18,2
1491695942055,3,15,-5,-6,3,-3,-2,-3,-1
1491695942055,0,4,-7,-3,-24,-22,16,1,-19
1491695942055,0,-22,-6,-5,-7,-9,-32,-28,12
1491695942101,1,10,-1,15,6,6,15,5,10
1491695942101,1,-17,10,1,23,16,47,17,11
1491695942102,2,-2,-5,-6,7,4,-23,39,-3
1491695942102,2,6,-8,-10,-26,-42,-60,-92,-44
1491695942103,0,-98,9,9,20,20,-5,20,-18
1491695942103,0,21,11,-2,18,7,3,59,13
1491695942104,1,-34,10,-11,-25,-56,-19,-57,-45
1491695942104,1,57,-21,4,2,7,37,-17,15
1491695942150,2,-25,-8,-2,-8,26,-23,-53,-21
1491695942150,2,-19,23,0,5,-9,58,69,21
1491695942151,3,52,-13,2,-6,-2,-39,-54,1
1491695942151,3,-86,4,-8,0,-1,2,14,17
1491695942152,1,-32,-5,-13,-19,-39,28,66,-11
1491695942152,1,82,0,2,-10,6,-36,-41,46
1491695942153,2,-54,-8,-1,-4,3,-26,-16,-48
1491695942153,2,97,-4,-2,8,5,55,6,23
1491695942199,3,-50,3,9,12,21,77,-28,23
1491695942199,3,18,-6,1,14,-6,-117,-63,-29
1491695942200,0,-21,-28,-5,1,23,13,-7,-18
1491695942200,0,-3,16,1,-27,-33,5,-27,1
1491695942201,2,124,13,5,33,30,15,6,68
1491695942201,2,-100,-29,1,-8,-5,-22,3,-30
1491695942202,3,-70,17,13,13,8,28,-14,-3
1491695942202,3,-51,19,7,10,33,20,79,32
1491695942247,0,34,-8,-12,-22,-29,-30,-57,-3
1491695942247,0,-6,-5,-16,-14,-10,40,59,30
1491695942249,1,-35,-12,10,2,-8,-66,-67,-46
1491695942249,1,61,1,-4,22,19,11,50,8
1491695942250,2,-101,10,-9,-15,-20,60,-11,14
1491695942250,2,74,-7,-5,-23,-31,-48,-41,-1
1491695942250,3,20,-1,-4,2,10,-12,60,28
1491695942250,3,-42,0,12,4,-8,-14,-86,-35
1491695942296,0,63,-6,-5,-2,-2,-19,25,8
1491695942296,0,-75,-5,3,9,14,59,-5,-27
1491695942298,1,-2,-13,-6,-4,-9,-70,-6,2
1491695942298,1,-36,4,-5,-4,6,43,16,8
1491695942299,3,36,6,-8,6,3,-16,4,-1
1491695942299,3,-48,0,-4,-9,-9,19,6,-20
1491695942300,0,10,1,3,2,3,-25,-22,-12
1491695942300,0,-14,-4,-3,-7,-14,16,37,-9
1491695942346,1,82,-9,-9,-23,-7,7,-18,12
1491695942346,1,-27,-4,-8,-5,-28,-48,27,-17
1491695942347,2,-13,15,0,9,16,25,38,8
1491695942347,2,-31,-6,5,15,18,-12,-59,1
1491695942348,0,66,8,1,-1,11,-6,3,5
1491695942348,0,-23,-5,2,6,1,18,-3,0
1491695942349,1,-83,-15,-8,-22,-6,-17,15,-12
1491695942349,1,73,0,-2,-2,-13,-10,-37,0
1491695942394,2,-65,20,3,20,22,11,15,3
1491695942394,2,-28,-12,-4,-2,-6,-33,6,-27
1491695942395,3,40,-1,-5,-2,1,19,-10,5
1491695942395,3,-21,-15,-4,-5,0,-1,16,8
1491695942396,1,-45,-12,-3,10,12,-1,-12,6
1491695942396,1,-27,-1,3,5,8,39,33,28
1491695942397,2,67,-5,-14,1,-12,-62,-46,-17
1491695942397,2,-86,14,-2,5,2,40,82,-8
1491695942442,3,25,-10,2,2,15,-2,-1,3
1491695942442,3,26,2,-8,-17,-14,-17,-8,-5
1491695942444,0,5,4,1,-9,-12,-12,-32,-17
1491695942444,0,10,-5,-9,6,18,31,31,37
1491695942444,2,-43,-3,14,26,13,60,72,8
1491695942444,2,37,-2,-5,-17,-13,-33,-61,-31
1491695942445,3,-49,-12,-11,-23,-4,36,39,10
1491695942445,3,42,-6,-3,-2,-7,-18,2,-10
1491695942492,0,-42,9,9,-4,-2,-13,-30,-8
1491695942492,0,26,-4,-3,20,10,32,29,27
1491695942493,1,15,4,2,-8,-6,-21,-13,13
1491695942493,1,-7,-7,2,-5,-2,3,-22,-36
1491695942494,3,-39,-6,-1,2,8,29,5,16
1491695942494,3,8,3,9,2,3,19,64,22
1491695942495,0,-13,-10,1,-3,-5,-14,-37,-35
1491695942495,0,66,-4,2,-1,0,-6,-15,27
1491695942542,1,-15,12,-9,-4,-7,-16,-2,6
1491695942542,1,-56,-4,5,-5,-16,-28,5,-14
1491695942554,2,7,-10,-5,-5,1,36,37,18
1491695942554,2,62,6,-4,-8,-8,-40,-17,-2
1491695942554,0,6,9,26,4,1,1,-1,-1
1491695942554,0,-17,3,-9,-2,-8,-9,-11,-3
1491695942555,1,-29,-8,-3,0,9,24,7,-9
1491695942555,1,51,8,-7,3,-3,-13,-19,-3
1491695942589,2,-36,-15,-11,-10,-8,-7,23,9
1491695942589,2,3,-2,-5,-4,6,23,26,20
1491695942589,3,-2,6,13,17,11,17,-53,-8
1491695942589,3,56,-1,-15,-10,-13,-56,-36,-11
1491695942590,0,-16,-8,7,-3,-13,-14,-24,-5
1491695942590,0,-54,-10,-6,-12,4,29,24,9
1491695942591,1,-5,4,6,9,6,22,14,24
1491695942591,1,-11,-8,-1,0,-4,-1,16,1
1491695942638,2,15,-1,-12,-4,-2,-21,-44,-22
1491695942638,2,-21,-12,-11,8,-3,4,-18,-35
1491695942639,3,30,1,-11,-27,-10,-21,5,5
1491695942639,3,-51,7,45,18,14,34,37,15
1491695942640,1,22,-8,-13,5,12,42,15,7
1491695942640,1,22,-2,-11,-10,-4,-7,-6,10
1491695942643,2,-20,-7,-7,-16,-4,-1,18,-1
1491695942643,2,-19,-8,7,5,-4,30,7,6
1491695942686,3,12,10,2,9,-15,-78,-44,-5
1491695942686,3,-36,-18,-21,-2,15,34,6,9
1491695942687,0,30,17,15,-8,-9,-8,-29,-4
1491695942687,0,-5,4,8,12,20,19,51,15
1491695942687,2,-13,-20,-10,4,1,29,37,-8
1491695942687,2,46,9,1,17,38,60,-11,69
1491695942688,3,-31,-10,0,-36,-61,-90,-5,-42
1491695942688,3,29,-9,-4,-14,0,57,24,25
1491695942735,0,18,2,-1,23,-2,-15,-24,-8
1491695942735,0,14,8,3,-32,-21,-26,-32,-3
1491695942742,1,-99,-13,6,10,41,59,35,-36
1491695942742,1,95,8,-10,0,-19,-27,-17,21
1491695942743,3,-10,1,5,13,3,-29,-89,-4
1491695942743,3,-29,-4,-3,-6,26,-13,-58,-42
1491695942743,0,31,6,1,4,-25,46,61,28
1491695942743,0,2,-16,1,-4,28,10,-8,-13
1491695942784,1,0,-8,-10,-13,-33,-31,18,31
1491695942784,1,7,16,5,7,1,20,12,12
1491695942785,2,-5,6,0,0,3,-17,-19,2
1491695942785,2,-19,-20,-3,2,0,5,-31,-11
1491695942786,0,12,0,-8,-6,-14,-34,-41,-11
1491695942786,0,-52,6,-10,-20,-31,-51,-21,-14
1491695942787,1,0,-21,3,3,13,10,-6,-21
1491695942787,1,-2,0,0,-14,-46,-23,-35,2
1491695942832,2,39,-9,-4,-8,11,17,19,19
1491695942832,2,1,9,6,17,13,21,25,-3
1491695942834,3,12,4,-2,5,0,-2,2,-7
1491695942834,3,-30,0,-5,-6,-11,-18,-12,-20
1491695942835,1,31,12,5,-7,-6,22,26,8
1491695942835,1,-13,-13,-2,0,-7,-22,11,-7
1491695942836,2,-7,-1,-2,0,13,26,18,0
1491695942836,2,-20,-6,-2,-1,-12,-15,-11,-14
1491695942881,3,8,6,-8,-2,10,36,-11,8
1491695942881,3,3,-8,0,-4,-12,-40,-6,-6
1491695942882,0,2,0,-11,-1,1,-4,-14,-3
1491695942882,0,-20,19,29,4,2,5,13,-35
1491695942883,2,-22,-7,-4,1,5,-33,6,2
1491695942883,2,23,2,-6,21,-7,4,25,-18
1491695942884,3,-14,-4,8,-33,-15,33,-18,-16
1491695942884,3,23,-8,-9,-19,-23,-42,7,-8
1491695942932,0,7,-8,-3,-8,5,10,-44,16
1491695942932,0,5,15,10,7,0,15,-55,24
1491695942933,1,58,10,-1,14,3,-43,16,4
1491695942933,1,3,-23,3,20,26,44,-9,18
1491695942934,2,32,-10,-4,-18,-7,7,26,14
1491695942934,2,-10,-18,-12,-14,-27,-31,-27,17
1491695942935,3,12,11,-8,-15,-17,22,18,32
1491695942935,3,-8,22,14,-5,-18,-29,80,-5
1491695942979,0,-51,-21,-3,10,30,12,-37,-24
1491695942979,0,-28,-3,2,3,12,37,99,22
1491695942980,1,-30,-18,-13,-14,-22,-25,-53,-23
1491695942980,1,-3,-4,-3,-6,-25,-54,-10,-9
1491695942982,3,-69,13,14,26,7,-124,-60,-39
1491695942982,3,-18,8,-8,-8,15,107,-32,-24
1491695942990,0,49,-12,-2,-27,-38,-3,39,39
1491695942990,0,2,-13,-5,-12,2,-44,-35,-29
1491695943028,1,-65,-2,8,17,14,51,43,-10
1491695943028,1,90,5,15,29,41,14,-1,37
1491695943030,2,2,-2,-6,5,-4,-27,-54,-36
1491695943030,2,-20,16,-1,-13,-33,-21,31,8
1491695943031,0,47,5,7,31,-5,15,87,77
1491695943031,0,-3,6,-6,-30,16,-11,-50,-21
1491695943032,1,-11,10,-4,-4,-32,-8,-13,-22
1491695943032,1,19,-22,-11,-9,4,48,-7,-15
1491695943076,2,39,28,15,30,41,-22,-31,18
1491695943076,2,-89,1,8,23,-6,22,-8,-12
1491695943078,3,39,-18,-13,-11,6,-17,13,-28
1491695943078,3,43,11,-5,-4,-2,1,4,34
1491695943079,1,2,-5,0,12,28,59,-11,12
1491695943079,1,-15,3,3,9,-6,-61,-4,-13
1491695943080,2,-20,1,-2,0,15,50,7,-16
1491695943080,2,26,-3,0,-5,-9,-74,-17,4
1491695943126,3,16,-4,3,9,9,29,51,20
1491695943126,3,-60,4,-3,0,-15,-27,-27,-18
1491695943127,0,49,2,-2,-6,2,16,-2,2
1491695943127,0,5,-5,2,-4,1,2,-4,3
1491695943129,2,-10,3,0,-8,-9,-20,-10,-2
1491695943129,2,2,-12,7,8,6,24,-11,-1
1491695943130,3,-2,21,0,0,2,-21,-2,12
1491695943130,3,-26,7,-5,-10,-12,24,4,-8
1491695943174,0,24,-14,6,4,1,-7,11,-3
1491695943174,0,-5,-19,7,1,-1,-15,-9,-9
1491695943175,1,-37,2,-9,1,-1,17,-14,14
1491695943175,1,18,1,1,-8,-15,-15,-26,-22
1491695943176,3,-2,-6,5,-4,-3,-29,-2,-6
1491695943176,3,39,-8,3,29,8,17,-5,1
1491695943177,0,-71,2,0,-12,-8,-37,-45,-30
1491695943177,0,41,4,-20,-40,-49,-13,3,-7
1491695943222,1,100,14,-1,-17,-22,48,6,14
1491695943222,1,-88,-9,6,14,35,19,-41,-32
1491695943224,2,54,-19,-7,-11,-16,-40,-25,22
1491695943224,2,-43,-3,-4,17,17,-40,-13,-13
1491695943225,0,-54,14,3,-2,-40,-79,-55,-58
1491695943225,0,-27,-25,4,41,77,105,50,45
1491695943226,1,46,-5,4,-4,-6,-54,18,-13
1491695943226,1,-53,-2,-3,-19,-36,-31,-83,-74
1491695943271,2,104,-11,-7,-9,11,58,99,105
1491695943271,2,-20,13,-9,-30,-48,-69,-32,-72
1491695943272,3,-44,-21,3,10,9,40,-7,33
1491695943272,3,10,-23,-3,-3,22,43,11,22
1491695943273,0,28,21,14,30,25,-18,22,-4
1491695943273,0,-58,-3,-8,6,-8,11,-35,-2
1491695943274,1,61,10,2,-5,3,-12,9,29
1491695943274,1,-67,1,-6,-5,-32,-24,-5,-19
1491695943320,2,-48,-28,-18,-24,-5,77,30,7
1491695943320,2,96,11,25,16,18,-27,-44,11
1491695943322,3,-18,1,2,15,14,-2,38,10
1491695943322,3,28,11,-4,-1,-5,-13,-5,20
1491695943323,1,-12,7,5,0,0,25,4,2
1491695943323,1,-22,0,-3,-2,3,-26,-12,-11
1491695943324,2,-38,4,0,7,-7,-4,17,-19
1491695943324,2,40,-8,-13,-14,9,48,5,21
1491695943370,3,-61,-14,6,12,9,-8,4,-26
1491695943370,3,67,5,0,4,3,11,22,18
1491695943372,0,-29,-7,2,-4,-9,-50,-34,-27
1491695943372,0,30,14,-3,-10,-14,-12,-3,-1
1491695943373,2,46,8,16,20,14,20,-27,-9
1491695943373,2,2,-1,-2,-12,-5,-21,2,5
1491695943374,3,13,-3,-9,-3,3,16,30,21
1491695943374,3,-42,-3,2,-2,-3,-15,-13,-37
1491695943418,0,75,1,4,-1,4,16,9,8
1491695943418,0,-72,-7,-4,6,-4,-28,0,-4
1491695943420,1,43,8,1,-7,0,15,-19,-20
1491695943420,1,0,-3,-4,-3,-5,-16,16,32
1491695943421,3,-1,1,-15,-22,-10,-24,-17,-20
1491695943421,3,59,7,12,18,-1,5,23,18
1491695943430,0,-74,9,-7,-5,4,7,-9,-14
1491695943430,0,80,0,6,15,7,23,25,23
1491695943467,1,-12,0,8,8,5,-20,-12,-5
1491695943467,1,45,-19,-12,-13,-4,-14,-64,-8
1491695943469,2,-6,-2,1,-17,-16,-6,4,4
1491695943469,2,-3,5,0,-4,-1,4,-2,8
1491695943470,0,-5,-14,-4,-16,-21,14,43,-8
1491695943470,0,13,0,-12,-8,0,-41,-46,-20
1491695943471,1,58,-4,6,-11,-1,20,37,22
1491695943471,1,-66,0,0,3,-5,14,19,-7
1491695943518,2,20,12,-4,25,23,-6,23,22
1491695943518,2,9,-14,-1,9,-2,27,17,-12
1491695943524,3,-27,3,1,-21,-15,-40,-53,-15
1491695943524,3,81,2,1,5,0,22,52,39
1491695943525,1,-42,-6,-5,1,32,54,51,-9
1491695943525,1,22,-13,16,20,-14,-36,-54,-9
1491695943527,2,-14,-20,-9,-20,9,38,-13,30
1491695943527,2,34,-9,-2,12,18,6,49,0
1491695943564,3,-52,19,7,4,-7,22,-97,26
1491695943564,3,-34,-14,-6,-6,10,19,39,-23
1491695943566,0,127,18,-2,-1,-54,-65,-8,46
1491695943566,0,-128,3,-1,-15,47,50,-25,-73
1491695943567,2,-76,-7,-7,-18,-58,-13,-48,-2
1491695943567,2,57,-2,-3,-19,-3,7,11,-2
1491695943569,3,22,3,-5,37,49,-33,-22,-29
1491695943569,3,-66,2,0,58,21,29,59,30
1491695943613,0,-11,-6,6,-57,-49,-1,-9,-35
1491695943613,0,90,22,-5,-43,-27,-81,-27,94
1491695943615,1,-128,5,8,74,32,48,13,-33
1491695943615,1,-34,-8,-27,-35,-21,-16,-1,-22
1491695943616,3,-55,3,-2,-25,63,81,-10,16
1491695943616,3,83,24,28,29,-19,-35,2,10
1491695943617,0,2,1,-20,29,-36,-19,17,5
1491695943617,0,41,9,3,27,7,66,1,19
1491695943661,1,-77,-42,19,-46,-62,-61,30,3
1491695943661,1,50,10,-17,-48,0,24,-26,15
1491695943663,2,37,3,17,-5,24,21,48,12
1491695943663,2,-32,-9,1,54,2,-27,-55,-33
1491695943665,3,-23,8,-8,-9,-44,-29,32,-13
1491695943665,3,-122,11,0,-14,47,-1,-14,-14
1491695943665,0,114,17,4,12,-1,61,25,67
1491695943665,0,-128,-71,20,40,10,-71,-15,-6
1491695943710,1,94,24,-9,-11,59,37,72,-3
1491695943710,1,-96,-18,18,22,-18,-12,-67,11
1491695943712,2,75,24,-29,-13,8,-29,-39,-45
1491695943712,2,-106,17,14,-38,-51,105,51,18
1491695943714,0,-107,-1,3,-43,-21,25,9,-41
1491695943714,0,92,22,-3,71,108,26,44,20
1491695943715,1,12,-27,-9,-37,-24,95,55,47
1491695943715,1,37,17,-7,-8,-49,-50,15,1
1491695943759,2,-51,-16,-4,18,-16,-24,-24,-29
1491695943759,2,-93,-2,-5,-51,-25,6,-27,-37
1491695943762,3,75,-4,14,33,53,-18,-20,34
1491695943762,3,5,10,22,40,-7,56,66,40
1491695943763,1,-77,-2,-47,-100,-100,-52,-17,-15
1491695943763,1,88,-39,-42,43,116,69,-85,-26
1491695943764,2,-49,-6,45,96,71,-91,27,36
1491695943764,2,-45,10,13,85,51,79,21,0
1491695943809,3,16,8,10,71,17,-93,-81,-37
1491695943809,3,-33,12,-4,-128,-62,14,-14,22
1491695943812,0,24,16,2,-53,5,56,8,-27
1491695943812,0,102,-27,-26,-20,7,-97,13,33
1491695943814,2,18,-18,-4,-60,-13,33,84,64
1491695943814,2,77,18,43,50,-16,61,-27,19
1491695943815,3,-26,23,9,19,91,40,76,38
1491695943815,3,-19,-16,-14,-42,-80,-11,-31,-54
1491695943856,0,49,19,43,44,17,-68,7,15
1491695943856,0,-91,-15,-38,-52,-7,77,-28,-28
1491695943857,1,13,10,8,73,127,18,-44,21
1491695943857,1,-19,5,40,2,-84,-26,44,-18
1491695943870,3,-84,27,13,79,117,52,-40,-45
1491695943870,3,59,1,-24,-12,-46,-20,57,15
1491695943871,0,4,-16,-17,-98,-32,-90,-65,-46
1491695943871,0,-63,-20,3,57,-57,-17,-13,-69
1491695943905,1,89,5,-10,-41,34,51,91,53
1491695943905,1,-76,-13,25,-65,-39,-4,-66,-29
1491695943906,2,-15,1,-23,106,72,37,3,3
1491695943906,2,-20,-28,15,-52,-66,-49,73,4
1491695943908,0,13,-21,38,32,78,-123,-20,3
1491695943908,0,-6,1,-38,-13,35,36,-5,0
1491695943908,1,-37,13,-20,-112,-93,58,33,19
1491695943908,1,-54,-19,16,73,10,-73,-7,-24
1491695943954,2,14,-7,-30,11,-71,-24,-68,-5
1491695943954,2,-101,-19,1,-31,103,67,71,-8
1491695943954,3,71,2,1,-62,-55,-41,-67,37
1491695943954,3,84,-1,20,89,127,-8,-56,-30
1491695943955,1,29,-32,34,87,33,-57,-58,-19
1491695943955,1,-31,40,-51,-108,-48,10,48,15
1491695943956,2,43,0,42,54,68,36,24,32
1491695943956,2,65,16,-19,63,45,-3,-24,7
1491695944002,3,-85,-4,11,56,5,77,-11,-11
1491695944002,3,-53,9,14,127,-5,30,60,29
1491695944003,0,-41,20,-43,-99,23,-9,-1,-69
1491695944003,0,55,-20,7,8,-127,-60,-12,8
1491695944003,1,16,2,0,54,82,-23,4,34
1491695944003,1,8,17,2,4,-40,86,79,24
1491695944005,2,-15,-6,27,98,64,17,-10,-15
1491695944005,2,-61,33,-19,-103,-79,40,1,9
1491695944100,3,-9,-40,-44,-81,-128,-117,-15,-66
1491695944100,3,75,-26,0,-85,-88,-18,-73,39
1491695944102,0,-33,2,-17,93,69,53,51,39
1491695944102,0,-19,13,25,-37,-38,5,-29,-28
1491695944103,2,25,-18,-36,99,73,21,29,25
1491695944103,2,-83,-14,2,-69,-100,-84,27,-39
1491695944110,3,21,-30,-41,-90,-111,-46,-70,-16
1491695944110,3,-24,18,28,95,127,80,48,16
1491695944149,0,-18,10,-1,5,6,-80,52,14
1491695944149,0,38,-6,1,11,-57,-94,-33,-12
1491695944151,1,35,-5,8,-69,39,116,-4,7
1491695944151,1,-54,4,-15,118,127,54,-75,-1
1491695944152,3,16,-9,8,44,-64,-16,21,-4
1491695944152,3,-36,-3,50,-58,-89,46,-21,-34
1491695944153,0,13,-18,22,-40,-32,80,13,-13
1491695944153,0,-5,-24,-27,116,112,17,27,27
1491695944198,1,36,28,3,-110,-104,-82,-56,-38
1491695944198,1,-16,-15,3,125,93,-51,67,9
1491695944199,2,57,4,30,-39,1,-128,-48,11
1491695944199,2,-19,1,-29,-68,-42,-77,5,14
1491695944201,1,-14,-4,4,-32,-90,-84,-91,-49
1491695944201,1,-2,-17,-26,98,66,-81,-70,-11
1491695944202,2,4,13,79,102,-85,-16,98,27
1491695944202,2,-83,11,-20,-52,61,-29,-31,-20
1491695944247,3,55,-6,-62,-128,-96,42,-24,-21
1491695944247,3,-48,-16,18,5,-79,-87,12,5
1491695944248,0,14,8,32,121,123,-12,22,3
1491695944248,0,-17,5,64,116,70,-88,-113,-24
1491695944249,2,38,9,-68,35,49,29,-26,-5
1491695944249,2,-81,-11,53,87,-22,52,68,3
1491695944250,3,-36,-31,58,127,102,-65,-7,-1
1491695944250,3,-20,-17,-1,-111,-80,-104,70,-17
1491695944295,0,4,-2,-67,-51,-1,-98,-83,-15
1491695944295,0,40,-14,7,112,14,47,-7,-37
1491695944296,1,-55,-10,1,64,52,70,43,29
1491695944296,1,-50,10,-7,-1,14,-10,47,-17
1491695944300,3,86,22,31,-105,-82,-43,-55,-36
1491695944300,3,46,30,4,100,-17,26,33,41
1491695944301,0,-8,33,2,63,70,34,1,6
1491695944301,0,-48,-55,-39,-5,97,12,-24,-6
1491695944344,1,29,-43,-58,-7,25,12,45,8
1491695944344,1,-14,3,-50,-59,53,-35,-19,18
1491695944345,2,19,17,112,-27,-128,17,1,-21
1491695944345,2,38,22,24,-57,70,55,-27,-5
1491695944345,3,11,25,36,125,21,38,48,26
1491695944345,3,7,7,31,75,98,17,8,25
1491695944346,0,-3,-24,-105,-69,90,-27,-33,-15
1491695944346,0,24,3,29,-60,-128,50,-53,-39
1491695944392,1,-9,-13,75,-90,72,-71,-7,-13
1491695944392,1,35,-14,44,56,-98,-54,-32,2
1491695944393,2,5,-122,26,-40,-60,29,10,36
1491695944393,2,-26,64,-53,94,100,38,3,-12
1491695944394,0,-57,13,90,9,-49,-8,-10,-28
1491695944394,0,40,-16,48,-23,19,-14,-8,17
1491695944395,1,42,-15,61,-40,-53,101,31,3
1491695944395,1,-27,-10,-36,-9,78,-9,-28,-12
1491695944441,2,-28,-32,-75,24,-117,-20,58,-6
1491695944441,2,91,-8,-125,-103,-95,-120,-85,-17
1491695944442,3,-38,12,14,127,82,44,26,9
1491695944442,3,43,-12,106,-113,-87,-20,-4,-5
1491695944443,1,-11,-52,-75,-62,-32,-43,1,-7
1491695944443,1,7,-62,-60,101,103,-71,34,5
1491695944444,2,10,115,17,64,57,-49,-39,-4
1491695944444,2,50,-93,-111,-102,-71,-38,-29,16
1491695944490,3,-27,84,79,90,3,-77,2,-18
1491695944490,3,1,66,83,24,78,-79,20,-5
1491695944491,0,-28,9,-31,84,-53,43,13,5
1491695944491,0,-52,-41,-1,-59,127,89,6,-31
1491695944491,2,43,-7,-72,12,-89,-128,-32,29
1491695944491,2,-32,11,98,89,24,-58,-85,-6
1491695944492,3,-10,-7,116,-21,14,22,16,-22
1491695944492,3,3,11,27,62,37,38,36,-13
1491695944539,0,36,-23,-106,-69,86,50,29,18
1491695944539,0,-15,37,-97,-86,-91,1,58,24
1491695944540,1,-2,6,10,-28,-69,-53,10,0
1491695944540,1,1,-3,11,90,16,-2,54,-17
1491695944541,3,-12,3,-91,-56,-85,-49,-49,2
1491695944541,3,2,8,-38,-128,-128,49,-27,13
1491695944542,0,-37,-35,100,127,127,63,85,-34
1491695944542,0,-21,17,57,20,102,-15,18,-15
1491695944587,1,8,1,-33,4,28,7,29,36
1491695944587,1,-6,-19,-91,58,-52,17,-27,-13
1491695944589,2,-8,13,-14,-119,-116,-45,-16,13
1491695944589,2,9,42,-21,13,-44,-9,-3,-7
1491695944590,0,-11,-4,15,46,-64,-21,-31,-20
1491695944590,0,11,4,-3,-32,-18,3,16,-5
1491695944591,1,-18,-25,-8,76,69,-29,23,22
1491695944591,1,13,7,70,-7,62,50,-1,-8
1491695944636,2,6,-17,-32,-38,-6,4,-2,-14
1491695944636,2,-1,-12,-14,21,-6,-18,-17,9
1491695944637,3,6,18,-3,-67,-43,-27,-5,5
1491695944637,3,-11,-7,-3,45,56,17,-20,-12
1491695944638,1,-14,-12,0,-45,-35,-29,-10,-25
1491695944638,1,24,-7,-7,-39,-67,-13,-32,17
1491695944639,2,-32,12,14,28,21,50,35,11
1491695944639,2,1,-8,30,49,17,25,52,8
1491695944685,3,12,5,-13,-50,-44,-52,-65,-21
1491695944685,3,-17,-1,7,19,-21,16,8,12
1491695944686,0,-9,-5,-1,25,71,-5,-4,-14
1491695944686,0,-2,-10,18,-42,-39,0,2,4
1491695944687,1,-13,-5,-11,50,22,12,8,9
1491695944687,1,-23,0,9,-40,0,-17,-19,-27
1491695944688,2,14,1,10,29,10,-18,20,29
1491695944688,2,-3,4,13,-15,-17,-13,-26,3
1491695944782,3,26,3,-4,18,16,13,10,14
1491695944782,3,-11,5,-4,15,25,23,12,-14
1491695944783,0,-7,-4,-4,-20,-27,-21,-35,-32
1491695944783,0,22,2,14,17,33,6,22,22
1491695944784,2,14,-6,-34,-32,-32,17,26,3
1491695944784,2,-34,-3,37,33,23,18,25,-31
1491695944785,3,18,-2,-23,-1,12,-7,-43,1
1491695944785,3,-16,-2,0,-2,5,30,32,8
1491695944831,0,2,4,19,-15,-8,-28,-22,-19
1491695944831,0,-6,8,-7,-3,-21,-17,-15,-16
1491695944832,1,0,1,-4,39,0,32,47,24
1491695944832,1,-27,-6,-15,-1,53,24,-21,-26
1491695944832,3,-12,-3,-3,-62,-46,-16,-7,-18
1491695944832,3,-17,-11,11,30,0,-3,12,22
1491695944833,0,-14,1,-13,28,32,26,27,4
1491695944833,0,6,1,8,-42,-39,-29,-8,-16
1491695944880,1,1,15,0,17,46,15,6,0
1491695944880,1,-4,-14,-21,-25,-33,17,-19,5
1491695944881,2,20,5,7,43,-10,-64,0,0
1491695944881,2,-44,-3,-14,-73,-70,-3,4,-5
1491695944881,1,-17,0,-3,-13,-56,-6,-31,-22
1491695944881,1,-12,7,12,63,91,23,-14,-1
1491695944882,2,0,-15,0,-75,-74,11,8,19
1491695944882,2,34,2,-1,-24,-56,-55,11,32
1491695944930,3,-55,11,-7,14,-20,31,26,-15
1491695944930,3,36,0,9,34,36,-52,-48,-25
1491695944931,0,-17,-4,1,10,10,16,22,29
1491695944931,0,-13,-8,-10,-55,-7,-50,-21,-38
1491695944932,2,-42,2,-1,55,73,-35,-27,-3
1491695944932,2,11,3,8,-37,-51,-31,-52,-18
1491695944933,3,0,-11,-21,-39,-99,-16,-12,-4
1491695944933,3,0,9,22,44,19,49,24,22
1491695944977,0,-6,-11,-8,-26,56,-2,-9,-29
1491695944977,0,19,5,14,105,68,87,26,15
1491695944978,1,-13,-8,-1,-71,-39,1,-2,19
1491695944978,1,39,-5,-32,-87,-67,-25,17,15
1491695944979,3,50,20,24,46,8,-62,-7,-29
1491695944979,3,-24,-9,3,24,88,14,0,39
1491695944980,0,59,-4,-11,-52,-72,16,-27,-10
1491695944980,0,-50,10,-5,15,61,47,0,-39
1491695945026,1,-22,-19,-16,-3,-26,-19,-35,6
1491695945026,1,39,15,5,15,-12,-7,51,-9
1491695945027,2,7,-9,8,-16,-34,2,5,-1
1491695945027,2,21,7,-12,11,-28,-26,28,32
1491695945028,0,75,18,15,23,-34,57,58,35
1491695945028,0,45,-3,3,0,-37,-93,-53,-18
1491695945029,1,-16,0,-6,5,9,47,39,9
1491695945029,1,-81,-6,1,-15,-34,-122,-51,-30
1491695945075,2,-110,3,-8,12,15,59,12,-32
1491695945075,2,37,-12,2,-18,4,46,-1,12
1491695945076,3,-38,-1,5,24,13,-78,3,20
1491695945076,3,-54,-5,15,16,-4,-8,-60,-62
1491695945076,0,105,2,-8,-10,35,-16,14,24
1491695945076,0,-85,-5,2,10,-33,71,-1,-1
1491695945077,1,14,6,-5,-12,48,8,-30,0
1491695945077,1,56,-6,-12,16,4,-55,74,-1
1491695945124,2,-57,-7,-5,-85,-89,-12,-31,-9
1491695945124,2,-2,9,7,42,122,42,22,-13
1491695945125,3,11,-2,-4,13,-98,3,26,37
1491695945125,3,-26,11,9,-15,-38,-16,-36,-27
1491695945126,1,80,-5,11,35,89,-44,26,1
1491695945126,1,-41,-10,-2,26,38,47,-33,11
1491695945127,2,-33,-16,-19,-34,-25,-23,-10,-51
1491695945127,2,-23,18,5,-60,-49,64,-16,-28
1491695945173,3,108,2,-4,57,82,-114,-22,35
1491695945173,3,-19,22,1,-32,2,45,6,38
1491695945175,0,-51,16,6,-30,-34,78,20,-12
1491695945175,0,83,-31,-6,25,-26,-128,20,44
1491695945176,2,-34,-3,7,19,52,-20,8,15
1491695945176,2,-12,6,-8,-8,-21,29,-37,-56
1491695945177,3,13,-34,-7,-23,-45,79,56,25
1491695945177,3,34,16,14,10,3,46,43,-3
1491695945222,0,-26,4,-7,8,67,-33,-24,-11
1491695945222,0,40,5,-22,-28,-67,-56,-17,2
1491695945224,1,-31,-48,-3,12,-1,-4,-19,-50
1491695945224,1,2,21,6,-24,-23,44,5,-14
1491695945225,3,-24,0,-5,-25,-23,-39,-1,-34
1491695945225,3,-47,-4,-6,-28,-9,32,45,19
1491695945226,0,80,-28,9,-10,-9,14,-26,-9
1491695945226,0,-74,4,15,11,11,19,20,17
1491695945270,1,-9,22,0,41,31,-39,-30,-4
1491695945270,1,-55,-29,-27,4,17,36,35,-12
1491695945272,2,54,9,-6,-25,-45,14,8,30
1491695945272,2,0,-3,7,-28,16,13,10,33
1491695945273,0,-25,8,-9,17,31,27,-30,-41
1491695945273,0,8,-21,17,-11,-19,3,34,-13
1491695945274,1,-58,-7,-5,-26,2,68,-18,-13
1491695945274,1,73,-34,-9,-10,-14,-100,3,28
1491695945319,2,-46,-16,-35,28,7,56,-35,-37
1491695945319,2,-70,-13,-35,-38,-21,-2,-14,-30
1491695945320,3,40,-5,-50,-7,-38,-34,15,13
1491695945320,3,12,3,5,-44,-23,27,-27,5
1491695945322,1,-30,25,68,22,11,21,-18,-6
1491695945322,1,3,-21,-41,-4,-15,44,39,8
1491695945323,2,15,2,-55,-12,-11,-32,-15,18
1491695945323,2,-59,9,-18,-5,11,54,-2,-30
1491695945368,3,-50,-17,-17,1,-8,-41,-14,14
1491695945368,3,10,23,-20,-23,-24,-48,-17,5
1491695945369,0,37,-11,-69,-48,-30,-98,-24,-22
1491695945369,0,-12,-46,48,1,-23,-7,2,-7
1491695945371,2,-14,33,-14,-7,9,65,65,-1
1491695945371,2,-48,-30,-69,-21,-14,-111,-96,-60
1491695945372,3,-20,7,-118,-42,-5,-62,23,6
1491695945372,3,96,5,21,-4,8,34,1,13
1491695945416,0,-25,-5,75,1,-12,-36,-30,0
1491695945416,0,-4,-6,33,-3,23,6,46,-15
1491695945418,1,1,-8,1,-20,-34,-103,-35,-9
1491695945418,1,-2,-26,-32,17,10,95,3,-10
1491695945418,2,0,10,-39,14,8,83,-10,4
1491695945418,2,17,1,4,40,-6,44,31,23
1491695945419,3,37,-32,-14,-31,-36,24,-55,-30
1491695945419,3,-25,-7,-18,-44,3,-91,-16,-34
1491695945465,0,-76,-19,22,9,8,-22,-22,-7
1491695945465,0,-15,-8,10,0,-2,-11,15,7
1491695945466,1,-35,21,-14,20,1,9,21,7
1491695945466,1,50,-18,2,2,9,-6,1,7
1491695945466,3,10,4,-12,-23,-32,-7,-39,12
1491695945466,3,-42,-37,19,22,13,36,40,-12
1491695945467,0,-5,-3,0,1,18,-75,40,-22
1491695945467,0,-2,34,-8,-1,-3,63,5,13
1491695945514,1,58,-1,9,-5,-23,88,2,17
1491695945514,1,-9,-16,0,-6,20,8,-34,3
1491695945514,2,-21,-1,1,31,-1,11,-1,-17
1491695945514,2,3,6,-26,-29,-11,-38,43,6
1491695945515,0,50,-27,-13,-10,-9,-21,47,15
1491695945515,0,-10,20,18,19,19,-9,-26,17
1491695945516,1,-2,-9,10,17,18,0,-34,-6
1491695945516,1,-14,16,-16,-9,4,2,25,-6
1491695945562,2,60,-20,12,-20,-23,10,-16,27
1491695945562,2,8,-1,-17,-5,-8,-6,-14,-6
1491695945563,3,11,-6,-3,-3,16,8,-2,2
1491695945563,3,-20,21,28,26,-8,-20,-3,-25
1491695945564,1,-23,5,13,13,5,4,-22,1
1491695945564,1,67,-11,9,5,13,-20,45,52
1491695945565,2,-28,0,-6,-9,-4,32,-13,-28
1491695945565,2,-44,-5,-11,-29,-19,-30,-47,-36
1491695945611,3,29,-5,-2,4,-14,-10,-5,11
1491695945611,3,-20,11,10,-2,-2,-7,38,12
1491695945612,0,-11,-4,-3,27,39,44,-17,-15
1491695945612,0,31,-6,3,33,-1,-76,-41,2
1491695945612,2,-2,-2,0,13,13,-13,8,20
1491695945612,2,61,1,0,4,7,13,24,31
1491695945614,3,-71,5,5,28,42,-40,-33,-56
1491695945614,3,-21,8,-12,22,-71,65,76,37
1491695945660,0,23,4,-9,-75,-46,-77,-54,-19
1491695945660,0,58,-2,-4,-2,46,115,33,18
1491695945661,1,43,-13,1,29,1,-76,14,23
1491695945661,1,-37,-2,8,12,23,95,58,-6
1491695945661,3,42,-14,-19,-116,-87,65,92,8
1491695945661,3,57,-11,-17,-8,69,32,-51,13
1491695945662,0,-50,9,12,52,-56,-1,63,4
1491695945662,0,19,-19,-5,-18,30,17,-93,-15
1491695945708,1,23,7,20,34,6,-17,12,44
1491695945708,1,13,14,-11,-31,-30,-34,-65,-14
1491695945709,2,-90,3,-13,-16,-55,41,-12,-51
1491695945709,2,3,9,-23,-46,-32,-128,-3,-23
1491695945710,0,22,26,-2,28,30,-26,-89,-18
1491695945710,0,12,13,19,47,36,13,7,5
1491695945711,1,-78,41,-7,21,8,36,39,-37
1491695945711,1,13,-22,-24,-101,-98,-128,-104,-90
1491695945757,2,45,-33,1,30,59,8,106,98
1491695945757,2,-38,9,10,-2,48,48,-9,-45
1491695945758,3,-54,7,2,45,57,24,25,30
1491695945758,3,-50,5,6,73,-22,-85,-4,-41
1491695945759,0,-11,-15,-32,-105,-51,101,-12,-34
1491695945759,0,42,-65,-4,-29,-88,-74,-20,45
1491695945760,1,46,-16,5,-20,13,8,-41,19
1491695945760,1,-127,49,17,70,86,-65,22,-35
1491695945806,2,24,20,19,97,66,25,0,39
1491695945806,2,22,40,-26,-106,-86,23,75,-33
1491695945808,3,-118,-30,18,59,88,-7,-110,-69
1491695945808,3,59,-46,7,45,33,-15,25,59
1491695945809,1,-22,35,-8,-5,32,24,71,2
1491695945809,1,41,-10,5,29,8,27,-97,-22
1491695945810,2,-11,-45,3,23,46,-45,-67,-12
1491695945810,2,-56,4,-11,-33,-106,16,80,-4
1491695945855,3,73,4,-3,-41,-23,-2,-85,-17
1491695945855,3,-32,-6,30,-14,-17,-35,125,52
1491695945856,0,7,18,-5,105,97,106,23,-1
1491695945856,0,30,37,-14,14,-90,-89,-4,15
1491695945857,2,49,-35,28,-22,-18,59,40,46
1491695945857,2,-47,33,54,127,127,101,-43,12
1491695945857,3,4,-12,-1,46,-74,-70,-55,17
1491695945857,3,-16,19,-43,-128,-108,57,19,14
1491695945904,0,40,-5,7,9,-69,-84,-18,0
1491695945904,0,31,-26,-6,25,92,75,36,3
1491695945904,1,-2,31,10,25,2,-4,47,27
1491695945904,1,8,-29,-28,-60,-59,27,-42,-30
1491695945905,3,-13,-24,-11,-7,-58,-4,23,-17
1491695945905,3,46,-2,0,-90,-61,-73,33,-7
1491695945906,0,-44,-5,-28,4,66,39,34,-3
1491695945906,0,51,-12,1,5,45,-58,-128,-12
1491695945952,1,57,-7,16,-9,-22,-10,57,41
1491695945952,1,-77,14,18,28,30,68,39,10
1491695945953,2,12,-7,-17,-11,-52,-84,-100,2
1491695945953,2,96,-45,-24,-123,-73,-113,-21,17
1491695945954,0,107,-12,1,-70,-52,-26,59,46
1491695945954,0,-122,-7,9,100,64,30,-2,-24
1491695945955,1,35,2,-53,-123,-30,98,-49,1
1491695945955,1,48,-38,10,-44,-68,-128,-114,-41
1491695946001,2,-14,17,9,31,83,127,31,-30
1491695946001,2,-42,7,-17,26,9,86,-16,19
1491695946002,3,-14,2,-8,-63,-57,-98,65,-23
1491695946002,3,-60,18,36,51,0,54,0,23
1491695946003,1,-30,9,4,127,127,99,38,55
1491695946003,1,-11,2,2,102,35,71,5,9
1491695946003,2,-95,3,-8,-6,-38,-85,31,-31
1491695946003,2,66,-21,-15,-44,-54,34,26,21
1491695946050,3,-40,1,19,70,-15,-107,16,-9
1491695946050,3,-1,5,-23,-51,94,91,116,40
1491695946051,0,55,-43,14,19,-50,-81,-97,-58
1491695946051,0,-74,28,25,54,117,111,106,26
1491695946052,2,-20,1,41,-117,-120,-2,59,-5
1491695946052,2,11,-12,-14,24,70,-29,-93,12
1491695946053,3,-17,-16,11,18,74,43,29,25
1491695946053,3,-36,23,6,-21,-57,-57,-3,-32
1491695946147,0,-10,16,3,-5,110,122,48,14
1491695946147,0,3,-29,-33,-11,-100,-112,-59,-21
1491695946149,1,-4,-1,36,81,-11,120,4,18
1491695946149,1,30,-6,-27,-34,27,-12,-18,16
1491695946150,2,-69,-13,-5,-10,-102,-93,-78,-68
1491695946150,2,31,-2,34,-79,-73,40,58,-10
1491695946151,3,25,-8,-39,-40,11,-116,-23,-9
1491695946151,3,-19,24,23,84,51,65,3,17
1491695946196,0,5,4,-8,-92,-66,-39,6,36
1491695946196,0,-33,2,-10,91,127,-7,-1,-25
1491695946199,1,70,-13,29,21,44,-95,-10,-18
1491695946199,1,49,-13,2,-7,-44,40,-49,14
1491695946200,3,-71,15,27,-25,-125,37,-96,-45
1491695946200,3,51,-8,9,42,-7,-27,25,11
1491695946201,0,41,-17,-21,-46,-17,-20,-81,7
1491695946201,0,-4,-5,-5,115,61,-96,-40,-26
1491695946245,1,33,-14,-52,-101,-25,-9,14,3
1491695946245,1,-34,8,40,44,-2,26,12,16
1491695946246,2,-24,10,-4,-21,-2,75,65,8
1491695946246,2,-19,-8,-42,-52,-124,-18,-2,-3
1491695946247,1,-13,-6,-49,-51,49,-67,-30,-4
1491695946247,1,12,-22,-13,-108,-124,-52,9,-15
1491695946248,2,29,18,33,127,127,80,-4,15
1491695946248,2,-75,7,21,11,83,46,106,19
1491695946294,3,-21,0,1,-62,-70,51,-4,-30
1491695946294,3,112,-9,-41,-92,-128,-22,-119,-31
1491695946296,0,-12,15,14,71,83,-21,52,34
1491695946296,0,32,-3,24,-42,-29,14,86,5
1491695946297,2,-30,-1,-26,-4,99,39,76,-3
1491695946297,2,47,6,20,55,1,-47,-46,10
1491695946298,3,-9,13,6,51,-119,-19,56,1
1491695946298,3,22,-23,-29,-103,-128,-3,3,-6
1491695946342,0,-57,32,38,127,118,78,-14,-3
1491695946342,0,26,-5,-7,-22,-39,-60,-29,-1
1491695946343,1,-9,-7,-28,-37,-21,17,41,-4
1491695946343,1,4,-14,30,127,127,-77,12,29
1491695946344,3,50,-15,-15,-23,84,-43,-48,-30
1491695946344,3,-57,-13,97,107,-70,91,53,27
1491695946345,0,-27,49,-13,-53,-59,-60,-21,-21
1491695946345,0,74,-5,-30,-59,76,-38,-40,-12
1491695946391,1,-48,3,4,-50,-114,-38,33,-10
1491695946391,1,28,-23,-36,-61,-55,-60,-47,7
1491695946395,2,-9,-45,46,127,50,56,4,17
1491695946395,2,-38,-11,-63,42,86,118,26,15
1491695946396,0,2,82,18,18,-65,2,24,11
1491695946396,0,-53,86,10,60,124,27,2,-16
1491695946397,1,29,54,6,36,35,-41,33,-15
1491695946397,1,37,-10,-50,-88,-32,-74,-52,-8
1491695946440,2,-48,-20,-40,67,72,-6,6,19
1491695946440,2,-5,-40,29,47,41,5,15,10
1491695946441,3,-32,-25,89,127,71,76,16,18
1491695946441,3,-1,-111,34,-58,125,93,60,7
1491695946443,1,-3,68,-92,57,72,65,-3,20
1491695946443,1,-23,-22,-46,84,21,93,14,8
1491695946444,2,23,-128,66,-34,19,54,10,24
1491695946444,2,3,62,76,-47,-77,-78,-7,-29
1491695946490,3,13,5,32,-59,6,-58,-13,-3
1491695946490,3,12,68,-44,23,47,-99,-1,0
1491695946494,0,119,-114,-67,38,-19,104,-8,24
1491695946494,0,-52,46,97,-2,-48,100,-1,-24
1491695946538,1,-37,90,-16,71,-15,6,20,-28
1491695946538,1,-49,30,-69,-77,-96,-76,-25,-44
1491695946539,2,-43,-41,-6,52,-80,-122,-49,-12
1491695946539,2,6,-105,57,78,57,95,34,11
1491695946541,3,-14,-77,-11,68,76,127,15,20
1491695946541,3,-5,8,39,48,8,127,-12,15
1491695946543,0,20,25,91,-2,23,56,21,13
1491695946543,0,-22,-42,-2,-21,-17,-89,-13,24
1491695946586,2,-22,-73,97,-5,20,-77,2,45
1491695946586,2,34,85,-78,15,-1,50,-13,-40
1491695946588,3,-4,19,-5,3,3,55,-87,-16
1491695946588,3,-15,-8,111,4,23,118,-18,-12
1491695946589,0,-19,-46,108,0,5,-19,115,-11
1491695946589,0,7,-83,30,-116,-82,-128,-66,-18
1491695946590,3,4,1,104,-116,-26,-108,-71,-4
1491695946590,3,-14,35,127,0,19,11,-15,-15
1491695946635,0,-15,26,62,16,-10,13,12,-19
1491695946635,0,7,-17,-82,-30,-38,82,29,-4
1491695946636,1,1,-1,-95,30,-14,104,41,32
1491695946636,1,-10,4,-45,29,4,-86,6,12
1491695946636,0,-10,11,-66,-66,-30,-10,1,-13
1491695946636,0,0,-22,15,9,-17,-28,-32,24
1491695946637,1,-11,2,41,3,0,-21,27,-30
1491695946637,1,1,21,4,33,18,-23,6,-10
1491695946684,2,-4,5,-20,-10,15,25,-12,4
1491695946684,2,14,-11,43,16,28,-3,-18,-7
1491695946684,3,11,-13,25,22,-31,-54,23,-7
1491695946684,3,-8,-1,-40,-59,-1,0,5,13
1491695946689,1,-3,-9,6,2,-35,18,40,20
1491695946689,1,-7,11,-5,-12,-5,-32,-21,-5
1491695946690,2,-17,13,-20,-16,12,-8,-5,19
1491695946690,2,-11,-21,5,40,11,9,1,-10
1491695946732,3,8,-5,-8,3,10,17,-19,-1
1491695946732,3,10,-11,28,-3,-22,0,36,10
1491695946733,0,14,17,-28,-42,-18,-16,-6,0
1491695946733,0,-16,-9,24,21,-4,-8,-27,-22
1491695946734,2,-32,0,-3,-18,-14,4,2,-17
1491695946734,2,-35,-19,-9,8,1,-2,-6,8
1491695946735,3,-2,-5,21,25,13,-14,-5,9
1491695946735,3,15,3,-10,8,-21,-22,14,19
1491695946781,0,-23,5,0,-15,34,20,5,-39
1491695946781,0,5,8,28,36,16,21,14,14
1491695946782,1,-15,-10,-14,-26,-31,-5,-5,-9
1491695946782,1,10,1,20,15,28,0,-18,-18
1491695946783,3,2,-3,-3,-2,-44,-17,-21,9
1491695946783,3,-14,-3,0,-50,-15,-10,-5,-13
1491695946783,0,-14,5,26,19,15,22,23,13
1491695946783,0,2,-4,1,20,19,-55,-33,-25
1491695946830,1,-32,-2,-17,-29,-19,11,17,23
1491695946830,1,-28,3,-16,17,39,3,17,-8
1491695946832,2,-34,9,11,14,3,-6,-8,-1
1491695946832,2,-7,-17,-19,-42,-47,-1,29,21
1491695946833,3,4,0,19,44,87,12,-19,-14
1491695946833,3,0,-5,-9,-20,-58,-1,-3,-13
1491695946834,0,15,-1,-27,-26,-13,-22,-3,11
1491695946834,0,36,1,43,11,49,28,9,11
1491695946879,1,-1,-2,-17,3,8,-13,-11,2
1491695946879,1,-9,11,7,45,44,57,14,2
1491695946880,2,59,-9,2,-15,11,-32,-43,-7
1491695946880,2,-11,-15,-38,-20,-56,-14,26,11
1491695946881,0,-16,0,6,-20,-97,-19,2,2
1491695946881,0,26,1,-15,-30,84,-1,-33,-19
1491695946882,1,27,9,-5,-26,-46,-33,7,15
1491695946882,1,-19,-9,0,37,27,23,17,17
1491695946928,2,-5,8,14,59,51,-8,53,28
1491695946928,2,-46,-7,10,12,6,24,-51,-27
1491695946929,3,26,-3,-33,-68,-55,39,17,-8
1491695946929,3,21,3,2,-60,-71,-106,-4,6
1491695946931,1,5,6,10,19,-8,-78,-78,-28
1491695946931,1,-28,-2,-7,58,70,54,46,26
1491695946932,2,-2,-13,-1,-10,-52,29,0,-14
1491695946932,2,-29,7,-4,-70,-78,-31,-28,-32
1491695946976,3,-3,-3,-14,19,-10,23,52,8
1491695946976,3,-63,-1,-16,-1,16,-72,-61,-31
1491695946978,0,20,9,31,-3,-34,-24,-28,-8
1491695946978,0,10,1,-15,29,-18,35,40,4
1491695946979,2,-10,9,-6,17,106,76,43,18
1491695946979,2,19,4,13,114,42,-52,-8,10
1491695946981,3,-45,-5,-2,-89,-98,-24,-35,-30
1491695946981,3,13,-13,-7,25,49,5,74,33
1491695947025,0,-10,-4,-10,12,-37,-6,-47,-34
1491695947025,0,-10,-3,6,-24,-2,16,28,11
1491695947026,1,-45,9,15,78,51,20,-2,14
1491695947026,1,-39,12,10,-59,-18,70,-40,-12
1491695947028,3,1,24,25,-2,26,-1,-11,-36
1491695947028,3,-23,-11,-11,-40,-33,83,-25,-29
1491695947029,0,39,3,4,-13,-8,36,43,58
1491695947029,0,-44,-12,3,26,31,33,-15,-37
1491695947074,1,-16,-2,0,92,119,-7,38,-31
1491695947074,1,127,1,1,-89,-128,-20,-37,46
1491695947075,2,-64,-1,-22,29,59,29,70,-14
1491695947075,2,-15,-6,-9,-98,-128,-128,-63,-41
1491695947077,0,-50,-20,-1,14,38,40,-48,-3
1491695947077,0,27,15,17,-9,6,-62,-8,2
1491695947080,1,18,-12,-15,-62,-128,-77,-4,-13
1491695947080,1,56,5,-11,-21,-39,-118,-3,-1
1491695947123,2,-12,-2,17,7,30,14,-9,6
1491695947123,2,65,2,-10,114,104,68,40,36
1491695947125,3,-41,16,14,-76,-96,2,20,13
1491695947125,3,-69,-7,2,0,38,54,-17,-34
1491695947126,1,25,7,3,44,73,107,20,7
1491695947126,1,-84,4,9,0,-21,22,51,28
1491695947127,2,-34,8,18,10,45,23,-6,-16
1491695947127,2,21,-27,-20,-8,-53,-36,-63,-45
1491695947172,3,-3,-10,-21,-70,-27,70,9,6
1491695947172,3,-99,-19,-5,6,-19,-74,-24,-59
1491695947175,0,32,7,10,51,25,78,81,66
1491695947175,0,9,-13,0,-68,-42,-32,-81,-27
1491695947178,1,52,-9,-13,45,-15,-86,18,-3
1491695947178,1,11,-15,4,26,29,86,36,5
1491695947182,2,-11,18,-9,9,69,-36,26,61
1491695947182,2,-95,7,-1,-59,-67,76,-3,-42
1491695947220,3,24,15,-3,-1,-49,-80,-35,33
1491695947220,3,-79,12,9,32,29,43,17,-50
1491695947222,0,41,-24,-22,-16,0,-39,-20,-13
1491695947222,0,56,15,-2,-24,-63,-59,77,43
1491695947224,2,-60,10,27,30,-32,-81,-90,-68
1491695947224,2,39,4,-3,-6,41,51,55,-7
1491695947226,3,67,0,5,7,-61,-81,-63,-4
1491695947226,3,-19,0,-17,-6,16,57,46,12
1491695947269,0,8,-27,10,-3,27,75,-33,-20
1491695947269,0,1,4,-14,6,-12,-27,35,20
1491695947271,1,-54,9,31,16,70,96,-78,-32
1491695947271,1,86,8,17,5,-1,8,7,23
1491695947272,3,5,-20,-119,8,16,19,-22,14
1491695947272,3,49,-2,57,19,-14,-106,11,54
1491695947273,0,-39,-24,85,1,39,28,-26,-45
1491695947273,0,-4,15,49,-11,-4,39,8,-6
1491695947318,1,-66,26,14,-16,-40,25,11,-10
1491695947318,1,25,-3,-13,-20,-8,1,-27,0
1491695947320,2,50,3,18,6,10,-25,36,25
1491695947320,2,-37,21,14,37,44,19,-30,5
1491695947321,0,56,-5,-25,-12,2,29,-35,54
1491695947321,0,24,-7,-60,1,7,-55,-39,-26
1491695947322,1,49,-28,-55,48,32,30,49,69
1491695947322,1,-41,-49,87,-77,-96,-90,-104,-57
1491695947366,2,-31,45,71,21,23,84,34,-19
1491695947366,2,57,35,123,16,-12,-32,-16,24
1491695947369,3,-13,20,75,-9,-4,-47,9,-7
1491695947369,3,-26,-8,-69,21,62,70,2,-25
1491695947370,1,-2,-16,-2,14,45,75,41,-10
1491695947370,1,49,-3,-3,19,-12,-73,-27,18
1491695947372,2,31,-4,-29,15,46,-23,17,10
1491695947372,2,-19,4,-12,22,-24,-26,-3,12
1491695947415,3,0,-12,-82,-44,-21,47,-3,-20
1491695947415,3,29,3,86,-2,0,32,-77,36
1491695947464,0,-24,-7,75,26,29,37,53,-2
1491695947464,0,-6,4,120,-33,-54,-21,-8,0
1491695947464,2,-1,-31,-98,-13,-13,14,-26,8
1491695947464,2,-25,3,-54,2,44,49,7,-23
1491695947465,3,33,26,6,-37,-38,65,29,18
1491695947465,3,8,-8,-20,17,54,37,63,3
1491695947466,0,-89,-5,-14,-22,-65,-53,-62,-28
1491695947466,0,89,-25,-22,20,29,-27,-15,26
1491695947512,1,-88,-1,-97,-12,-26,-21,-8,-21
1491695947512,1,61,10,62,-9,7,-6,5,5
1491695947513,3,119,-8,62,10,-17,-21,1,20
1491695947513,3,-45,5,-56,-4,11,48,15,7
1491695947514,0,13,-4,-77,-4,0,-103,-3,-12
1491695947514,0,-45,-13,-85,-4,-13,57,-52,-14
1491695947515,3,-12,-16,34,1,19,-16,-33,-12
1491695947515,3,-14,34,18,13,-19,-79,-11,11
1491695947561,0,0,27,5,41,66,105,45,-10
1491695947561,0,-81,-4,-9,-1,-13,-94,49,-7
1491695947562,1,6,-23,-14,-31,-21,-11,-29,-2
1491695947562,1,12,3,11,-8,-2,18,59,18
1491695947563,0,3,14,17,32,-20,37,1,-4
1491695947563,0,-83,-4,-8,-54,-10,23,0,-9
1491695947563,1,63,6,14,18,36,-98,-34,-11
1491695947563,1,2,-27,-1,2,-58,-53,-7,-8
1491695947610,2,-74,9,-3,6,6,122,-1,-5
1491695947610,2,71,-7,-13,0,36,-32,13,-3
1491695947611,3,23,-7,0,-2,-59,-41,13,20
1491695947611,3,-19,-9,-5,-32,-19,32,13,6
1491695947612,1,116,-22,-1,24,40,-76,-9,6
1491695947612,1,-69,11,20,19,23,124,62,14
1491695947612,2,-64,-2,-17,-26,-96,-108,-53,-1
1491695947612,2,21,-10,-7,-42,-5,52,-8,-27
1491695947659,3,-18,-14,14,56,82,-54,-10,15
1491695947659,3,38,16,-9,42,-27,-17,24,-12
1491695947660,0,-15,-10,-8,-47,-24,1,-38,-10
1491695947660,0,43,-18,-21,-33,-9,1,19,15
1491695947660,2,-27,-4,3,4,-15,94,-37,-24
1491695947660,2,19,14,-5,18,69,-9,45,13
1491695947661,3,-50,-19,-16,-82,-79,33,5,-11
1491695947661,3,21,-11,-28,-58,-34,8,-55,13
1491695947708,0,19,-3,4,26,30,-66,40,63
1491695947708,0,-35,-15,18,50,-17,-51,-83,-29
1491695947710,1,13,38,11,100,127,63,-3,0
1491695947710,1,-38,-15,9,-25,-109,-63,78,-30
1491695947711,3,-113,9,-1,-24,-7,-40,-30,-57
1491695947711,3,92,-33,-10,-57,-98,-37,-91,-22
1491695947712,0,52,4,-8,60,127,127,88,71
1491695947712,0,-57,-2,8,17,-43,32,5,-2
1491695947756,1,-62,-4,-11,-60,-114,56,1,-29
1491695947756,1,-17,-5,12,5,127,-5,-26,-8
1491695947758,2,82,8,20,72,8,-89,-68,-36
1491695947758,2,-58,10,-38,-58,-5,61,62,44
1491695947759,0,21,-23,-41,-92,-128,-76,62,0
1491695947759,0,-8,-4,-2,9,127,53,-14,-19
1491695947760,1,-41,9,-20,1,-98,49,1,-59
1491695947760,1,77,-19,-4,-92,5,-86,85,50
1491695947805,2,-19,20,30,127,122,61,36,37
1491695947805,2,-39,28,14,64,-17,86,-42,-22
1491695947814,3,38,-5,-41,-84,-37,-52,-19,-34
1491695947814,3,-27,-33,-61,-37,-19,127,-5,-25
1491695947815,1,95,5,19,49,23,15,57,54
1491695947815,1,-81,28,15,8,-107,0,-98,-29
1491695947816,2,18,-8,-43,-82,2,-55,-38,-21
1491695947816,2,65,-15,22,-24,-35,-29,45,24
1491695947854,3,8,5,31,127,127,-25,36,36
1491695947854,3,-49,3,-19,-72,-77,-113,19,-24
1491695947856,0,-10,-4,20,75,51,-9,17,17
1491695947856,0,50,-23,-15,73,-67,0,12,-9
1491695947857,2,-19,27,18,-29,-8,44,37,4
1491695947857,2,-39,-17,-25,-72,0,24,-62,-12
1491695947858,3,-15,5,0,28,89,-34,-41,-12
1491695947858,3,-38,29,22,126,125,127,10,-10
1491695947903,0,26,-28,-33,-108,-128,-109,-32,-54
1491695947903,0,102,-38,-48,-66,-5,-5,-48,19
1491695947905,1,-61,14,41,77,46,63,36,23
1491695947905,1,-5,16,7,52,59,127,26,25
1491695947906,2,-24,-17,16,71,127,-60,-62,-28
1491695947906,2,-21,26,6,44,-53,1,48,-7
1491695947907,3,-127,-20,-42,-128,-82,-37,-72,-62
1491695947907,3,5,23,-18,-55,-20,42,66,11
1491695947952,0,58,-39,12,29,9,-60,-42,30
1491695947952,0,-97,32,19,92,71,-37,24,-24
1491695947954,1,41,3,1,-59,-89,-3,63,30
1491695947954,1,-38,-5,8,39,121,-31,20,-9
1491695947955,3,-24,-2,5,-34,-21,36,32,-15
1491695947955,3,35,-24,-44,-23,-77,-102,-85,-27
1491695947956,0,-16,16,-1,-31,-29,-42,90,25
1491695947956,0,-29,-13,10,50,-51,29,-52,-10
1491695948000,1,-24,6,-17,26,127,75,-44,5
1491695948000,1,72,3,-1,-2,-76,-59,15,12
1491695948003,2,-91,-14,-52,-71,-21,127,-38,-52
1491695948003,2,69,-6,19,-14,-11,8,67,25
1491695948004,0,15,24,40,-15,-84,59,13,5
1491695948004,0,-89,1,-9,-80,-57,-6,23,-16
1491695948005,1,63,-21,-19,-21,20,22,-30,12
1491695948005,1,11,8,26,-2,37,-34,58,27
1491695948049,2,-48,7,-38,121,95,2,26,-9
1491695948049,2,57,6,15,-128,-107,16,-83,-10
1491695948051,3,24,-3,-7,127,-28,14,74,17
1491695948051,3,20,30,55,-23,47,8,-11,21
1491695948052,1,-61,-26,-14,2,-104,-52,-46,-24
1491695948052,1,0,7,11,11,55,114,-16,5
1491695948053,2,-48,20,12,127,127,17,23,25
1491695948053,2,-8,11,-2,-27,-57,-29,5,-18
1491695948098,3,16,-15,18,-128,-43,29,38,1
1491695948098,3,-69,2,18,86,77,127,-21,-3
1491695948100,0,89,-1,-11,-112,-81,-92,5,35
1491695948100,0,-12,-28,-16,86,50,16,-48,-44
1491695948101,2,17,-28,-41,-69,4,65,39,20
1491695948101,2,27,-10,-12,63,97,-39,1,25
1491695948102,3,38,33,53,99,-44,62,74,43
1491695948102,3,-57,20,51,40,89,26,73,33
1491695948146,0,-66,12,2,-48,19,33,38,-40
1491695948146,0,87,-61,-53,-117,-128,-82,-78,-48
1491695948148,1,-31,12,-17,25,110,98,0,5
1491695948148,1,12,8,-22,31,15,-34,-5,19
1491695948149,3,63,-9,17,74,61,-128,-67,-33
1491695948149,3,16,-18,-18,-96,-65,28,1,6
1491695948150,0,11,10,-30,-25,-75,-29,-29,13
1491695948150,0,-51,24,53,127,127,92,40,-5
1491695948195,1,49,4,-8,-78,-124,-72,-61,-27
1491695948195,1,14,-10,-9,-48,-91,25,28,26
1491695948244,2,-25,-3,-30,-8,87,18,-47,-19
1491695948244,2,21,-3,45,30,5,-55,-53,2
1491695948245,0,51,13,15,97,93,107,29,20
1491695948245,0,-33,19,20,-77,-86,-73,-4,24
1491695948247,1,-15,-17,19,76,80,-6,22,-45
1491695948247,1,9,-6,-49,87,99,39,32,48
1491695948247,2,7,-9,4,-37,-106,-49,-15,-15
1491695948247,2,15,16,-31,-23,76,37,19,15
1491695948293,3,27,-1,-35,23,72,-23,-31,11
1491695948293,3,-14,-24,-26,-120,-128,-58,56,-14
1491695948294,0,-78,11,61,127,127,40,-14,2
1491695948294,0,-3,2,-18,-127,-128,29,-18,-20
1491695948341,1,-47,-1,36,102,127,56,-2,18
1491695948341,1,11,11,-45,-23,-5,-33,-36,-20
1491695948343,2,-10,-6,21,-99,-122,-1,-30,8
1491695948343,2,11,2,-35,11,16,-49,13,-2
1491695948344,3,-36,-16,11,44,-26,10,-27,21
1491695948344,3,-1,17,-3,-53,127,31,13,-27
1491695948345,0,23,-30,19,56,-70,1,21,24
1491695948345,0,-5,4,3,91,81,19,-18,-7
1491695948390,2,8,13,36,41,15,14,-1,-32
1491695948390,2,86,-34,-27,-99,-39,-40,-7,20
1491695948392,3,-1,13,26,76,8,-33,-2,15
1491695948392,3,-43,10,12,59,-38,8,35,-5
1491695948394,0,61,-2,-57,-128,-28,-46,1,14
1491695948394,0,-38,-15,15,85,-2,24,26,-13
1491695948395,3,-4,-53,-67,-128,30,10,-16,-20
1491695948395,3,42,-15,14,62,27,-50,-9,19
1491695948439,0,-45,49,9,-8,5,41,2,-3
1491695948439,0,19,-27,22,0,40,-31,-4,-2
1491695948441,1,16,10,45,78,23,-18,-5,-19
1491695948441,1,-20,3,17,39,66,116,33,4
1491695948442,0,12,59,-72,41,13,-19,-5,-6
1491695948442,0,-10,55,-26,55,113,-49,-58,-9
1491695948443,1,-10,-67,28,-34,-89,56,13,20
1491695948443,1,2,104,50,-68,12,-36,13,-7
1491695948488,2,-2,22,42,68,85,-50,-18,10
1491695948488,2,-11,-25,10,27,-60,73,10,1
1491695948491,3,13,-67,-38,-101,-92,52,-46,-39
1491695948491,3,-21,85,-20,64,-56,-1,-2,-3
1491695948492,1,25,-17,18,45,51,83,-22,15
1491695948492,1,6,-62,-43,-128,-44,82,4,-6
1491695948493,2,-8,-35,15,13,-30,-39,-24,7
1491695948493,2,0,-54,8,-20,-36,0,37,3
1491695948536,3,-3,-61,-26,-45,-78,-81,-34,-31
1491695948536,3,14,50,-80,38,64,-34,-13,4
1491695948538,0,-73,32,80,-51,-7,28,-7,26
1491695948538,0,-6,-98,37,-10,-35,95,-2,31
1491695948542,2,4,-127,37,116,98,42,5,-25
1491695948542,2,7,-88,70,-75,-26,115,33,-9
1491695948543,3,-15,-68,56,43,-2,-78,30,-15
1491695948543,3,9,-128,106,-14,-71,-118,18,1
1491695948586,0,4,-44,-68,-18,-58,94,-15,-26
1491695948586,0,-1,15,-93,18,26,121,-12,4
1491695948587,1,15,19,0,43,75,109,7,5
1491695948587,1,-9,15,-41,-41,7,10,21,8
1491695948587,2,10,-38,-36,8,10,2,1,43
1491695948587,2,-8,43,-8,9,-24,-29,-13,-5
1491695948588,3,5,40,-32,59,37,-46,-30,9
1491695948588,3,-7,-28,-38,-59,-32,-32,-3,25
1491695948634,0,-6,3,86,42,13,7,11,14
1491695948634,0,2,4,-24,-26,-5,-58,-16,-9
1491695948634,1,-3,29,-27,-38,-58,-60,-15,1
1491695948634,1,-7,-22,3,24,21,9,-17,-12
1491695948635,3,-6,9,-12,30,7,-4,-13,-17
1491695948635,3,-9,-19,27,9,9,2,2,1
1491695948636,0,-2,-14,-28,-52,-35,-27,-4,8
1491695948636,0,-3,0,-14,7,26,-16,-9,-26
1491695948682,1,-10,12,-20,-1,-12,9,-5,-9
1491695948682,1,9,-22,2,-4,-15,-21,4,27
1491695948683,2,-8,1,-19,-33,-18,4,-16,-13
1491695948683,2,-1,4,12,23,12,-14,-1,-11
1491695948684,0,16,1,23,28,-1,11,6,-1
1491695948684,0,10,-4,-21,-70,-63,-39,-24,3
1491695948685,1,-6,16,-11,-12,-12,-1,0,-1
1491695948685,1,-14,-15,-20,11,36,22,5,-6
1491695948731,2,-13,10,14,2,-17,-32,-28,-11
1491695948731,2,-12,4,-18,-12,-52,-38,16,-12
1491695948732,3,-5,17,-9,2,39,20,-6,9
1491695948732,3,7,-7,35,-2,10,-7,8,-5
1491695948733,1,-12,-4,-18,-12,-28,4,12,12
1491695948733,1,-15,6,7,42,21,2,-2,12
1491695948733,2,-18,-1,-6,-21,9,-5,7,-1
1491695948733,2,3,1,4,-13,-24,-21,-14,-1
1491695948780,3,34,2,-9,21,31,35,5,-12
1491695948780,3,-9,-5,13,-45,-33,8,5,-1
1491695948781,0,-16,-6,-29,-59,-48,-49,-23,1
1491695948781,0,4,22,3,18,-14,12,-17,-11
1491695948781,2,24,5,-34,-58,-28,-10,7,6
1491695948781,2,-11,-12,2,10,-9,6,10,10
1491695948782,3,10,4,9,12,14,2,11,2
1491695948782,3,11,4,-4,27,24,-7,14,27
1491695948829,0,-11,-2,15,24,15,49,8,-7
1491695948829,0,-3,-3,9,0,19,-16,-10,3
1491695948830,1,12,-5,-15,-66,-90,-2,-8,-9
1491695948830,1,5,3,-13,14,-3,-18,-8,-22
1491695948831,3,11,-7,3,32,18,-38,-11,-1
1491695948831,3,-14,2,-9,-41,-38,17,-37,-3
1491695948832,0,1,-8,-13,47,104,8,-3,-9
1491695948832,0,14,-2,4,-8,-13,22,14,13
1491695948878,1,19,2,6,-11,-48,-53,-11,11
1491695948878,1,30,-12,14,30,25,3,-9,-7
1491695948879,2,37,-14,-10,8,-84,-28,17,18
1491695948879,2,9,0,0,-38,1,-2,-54,-28
1491695948880,0,-22,-7,9,45,-2,-4,-28,-12
1491695948880,0,44,8,1,31,6,-62,55,39
1491695948880,1,-46,-16,-7,-26,-6,29,0,-39
1491695948880,1,11,-4,4,39,34,-25,24,3
1491695948926,2,2,2,5,-63,-59,-8,-24,-17
1491695948926,2,28,-3,-5,-2,70,-59,-9,22
1491695948927,3,1,2,-12,8,-17,2,-7,-27
1491695948927,3,-19,6,-4,-1,-5,8,15,-2
1491695948928,0,17,10,19,-34,-5,35,2,24
1491695948928,0,-11,-10,-11,-12,-47,34,-3,-2
1491695948929,1,-40,-3,4,8,-29,-82,-19,16
1491695948929,1,-4,20,6,43,101,79,-39,-24
1491695948975,2,18,5,4,32,-35,-54,-3,-6
1491695948975,2,-17,-8,-5,-10,8,-39,-6,-7
1491695948976,3,26,22,-14,-51,-17,67,65,36
1491695948976,3,14,-10,4,-10,-54,-99,-100,-38
1491695948978,1,-19,-7,-6,-26,22,79,-35,-20
1491695948978,1,27,-7,-23,-49,-109,-86,42,0
1491695948978,2,-38,-4,16,51,68,95,11,-12
1491695948978,2,-12,-17,-30,-39,-34,-50,4,-24
1491695949024,3,-15,2,7,12,59,-10,-55,-31
1491695949024,3,90,14,8,0,-21,31,9,88
1491695949025,0,21,-8,-4,-29,-26,-48,16,20
1491695949025,0,-89,-3,11,45,-19,-12,-4,-36
1491695949026,2,-16,-8,-6,-27,-76,-94,-17,-35
1491695949026,2,14,15,3,2,61,82,-17,-5
1491695949027,3,41,4,-1,-8,12,-19,52,38
1491695949027,3,-71,-29,-11,13,20,106,88,-10
1491695949073,0,-44,-13,-3,-21,-46,-34,-42,5
1491695949073,0,17,2,20,62,76,-21,-13,-18
1491695949074,1,-34,-2,-9,-9,-25,-58,-35,-32
1491695949074,1,-13,-24,-18,58,107,85,32,-18
1491695949075,3,-52,10,8,33,-50,19,37,-29
1491695949075,3,-29,-9,-7,-71,-32,-28,17,22
1491695949076,0,24,5,-14,-10,-64,65,-25,-59
1491695949076,0,11,20,31,26,91,104,61,64
1491695949121,1,115,5,9,48,30,16,-80,30
1491695949121,1,-85,8,12,60,75,-14,26,-22
1491695949122,2,-48,-5,-24,-24,-4,57,24,-8
1491695949122,2,12,-4,-7,-49,-63,-60,8,20
1491695949122,0,52,-14,-9,19,85,-72,-20,-37
1491695949122,0,-48,-1,-23,-22,-18,127,89,1
1491695949123,1,-23,-2,7,-11,-77,-51,-48,-11
1491695949123,1,57,1,0,20,62,-2,12,11
1491695949170,2,-19,10,27,67,110,-21,-20,-13
1491695949170,2,-47,-19,-33,-41,-90,26,53,-6
1491695949171,3,-1,-1,-15,-68,-53,-54,37,13
1491695949171,3,-34,0,-13,-37,-26,10,-55,-45
1491695949172,1,-74,-2,10,-49,7,119,-13,-21
1491695949172,1,13,14,-14,19,29,-6,-37,-21
1491695949172,2,-71,-6,1,14,-26,110,76,15
1491695949172,2,68,-17,0,-8,26,-103,-56,-30
1491695949218,3,21,-13,-13,15,19,59,-61,52
1491695949218,3,54,-29,-9,-14,-127,-104,-82,-27
1491695949220,0,-49,-2,43,22,65,105,70,-24
1491695949220,0,79,8,7,-53,-65,-100,-54,-16
1491695949220,2,55,-2,-126,-26,-13,-100,-90,25
1491695949220,2,-47,-1,13,34,-15,63,-9,-22
1491695949221,3,83,-12,87,-15,-1,-6,-32,8
1491695949221,3,12,2,48,-42,-9,15,114,34
1491695949267,0,-6,4,25,32,-22,-91,-103,-57
1491695949267,0,-3,-8,-21,38,77,92,-5,38
1491695949268,1,-9,-18,-19,-20,-10,-63,-22,-21
1491695949268,1,-30,25,23,-23,-45,3,-20,-3
1491695949270,3,-5,12,-26,26,38,50,64,24
1491695949270,3,11,-13,-34,36,37,-9,-22,43
1491695949270,0,-62,13,-33,-26,6,10,51,9
1491695949270,0,-32,-1,-75,-70,-62,-27,-16,-65
1491695949316,1,-27,-9,-109,0,5,29,13,8
1491695949316,1,32,17,69,16,-12,42,29,18
1491695949318,2,-53,-3,85,13,33,22,-35,-23
1491695949318,2,43,27,107,22,4,-31,82,54
1491695949319,3,-9,27,70,-7,25,16,64,5
1491695949319,3,-82,-3,-11,8,-36,-91,-102,-69
1491695949320,0,68,-13,-38,-45,-39,98,12,31
1491695949320,0,-71,-21,-46,10,11,6,-26,-68
1491695949365,1,-42,-16,-73,-14,6,-37,-19,-19
1491695949365,1,42,-29,-19,30,-2,-87,-15,10
1491695949366,2,23,-16,10,-2,2,66,35,33
1491695949366,2,6,21,-116,-28,20,9,-20,-7
1491695949367,0,-11,4,109,-11,24,-78,1,-2
1491695949367,0,10,9,86,20,-5,7,32,38
1491695949368,1,4,-5,-22,-1,-31,-62,0,-18
1491695949368,1,27,2,-106,-20,18,-26,-76,5
1491695949414,2,38,-2,-79,32,60,-78,18,22
1491695949414,2,19,-9,-22,-34,-28,40,29,59
1491695949415,3,-29,9,23,17,16,72,-1,2
1491695949415,3,-50,1,-32,-18,5,106,47,-38
1491695949415,1,-1,-4,14,-7,35,-119,-13,-9
1491695949415,1,-19,5,-26,4,-24,73,-3,12
1491695949416,2,-48,-19,-124,-29,-15,-13,13,-22
1491695949416,2,15,-3,36,-18,-11,-55,-9,-3
1491695949462,3,19,-27,109,21,19,39,-52,3
1491695949462,3,-80,19,115,-5,21,15,22,-40
1491695949463,0,63,45,-11,-4,-26,-43,-18,2
1491695949463,0,-36,-14,-113,-35,-52,-89,-56,-13
1491695949467,2,-50,-12,0,6,28,118,-49,-48
1491695949467,2,14,4,-3,0,24,108,84,19
1491695949468,3,-40,20,13,-17,-24,13,-7,10
1491695949468,3,62,-19,-26,-45,-52,-128,13,6
1491695949511,0,10,7,9,10,-24,20,-4,13
1491695949511,0,-1,0,13,37,75,113,28,-18
1491695949512,1,-7,-2,10,-22,-53,-43,21,-13
1491695949512,1,-6,1,-28,15,36,58,96,16
1491695949513,3,5,-9,-14,-8,-19,-42,38,2
1491695949513,3,-65,13,-24,-27,-35,-28,-69,-22
1491695949514,0,-26,-3,15,25,52,95,64,-2
1491695949514,0,44,-9,0,18,7,-53,-21,-5
1491695949560,1,22,6,6,-15,-13,2,-49,4
1491695949560,1,61,-22,-26,-39,-24,-19,-36,-25
1491695949561,2,-49,-12,15,22,-12,-26,43,26
1491695949561,2,-35,-1,0,20,21,18,-21,-11
1491695949562,0,-45,6,-15,-16,-19,-3,5,-36
1491695949562,0,-51,3,3,2,-32,-18,-30,-10
1491695949563,1,35,-17,-20,-17,18,71,23,9
1491695949563,1,-9,5,13,39,6,26,20,-16
1491695949657,2,34,-11,-14,-36,9,82,-8,26
1491695949657,2,-11,-14,12,-13,-41,-48,-14,3
1491695949658,3,-19,27,7,12,8,6,-59,-18
1491695949658,3,30,-6,-8,-4,17,5,40,46
1491695949659,1,28,-2,-27,-30,0,48,-29,7
1491695949659,1,-48,2,20,12,-14,29,31,1
1491695949660,2,58,2,3,26,19,-74,-21,37
1491695949660,2,43,2,-6,-50,-57,32,-49,-24
1491695949707,3,-65,-10,9,64,88,-42,65,-29
1491695949707,3,-18,-5,-2,-62,-61,-38,-57,19
1491695949708,0,14,2,-1,8,17,90,8,-12
1491695949708,0,61,-14,6,-32,-28,-69,-20,-22
1491695949709,1,-44,7,5,3,-20,27,65,16
1491695949709,1,-17,-11,-4,48,78,56,-54,-21
1491695949710,2,-77,8,-13,-22,47,54,-56,-37
1491695949710,2,103,-3,-3,1,-32,-53,-35,19
1491695949760,3,-46,-12,20,13,53,-61,21,13
1491695949760,3,57,10,-1,-12,-69,70,31,14
1491695949763,0,15,-15,-5,-42,-43,-13,-69,-9
1491695949763,0,0,-2,-9,40,80,-27,1,6
1491695949764,3,39,-6,17,60,110,3,-12,6
1491695949764,3,-23,7,6,42,-104,-88,-24,25
1491695949765,0,-13,13,4,-28,35,34,22,-6
1491695949765,0,-9,-3,18,113,22,42,33,-32
1491695949808,1,-4,-1,32,-45,-67,5,88,42
1491695949808,1,-53,-1,7,26,105,21,-76,-11
1491695949809,2,39,5,-22,5,-35,78,33,-2
1491695949809,2,-110,-6,-15,-93,-71,-61,13,-15
1491695949810,0,42,0,13,25,29,9,-58,43
1491695949810,0,9,4,5,110,127,51,54,11
1491695949811,1,15,-26,-30,-128,-128,-74,-21,36
1491695949811,1,113,-27,-14,-94,51,-38,-57,-40
1491695949852,2,36,0,4,7,34,55,4,1
1491695949852,2,-70,7,21,58,78,127,-3,2
1491695949854,3,-15,17,2,30,24,-38,-16,-5
1491695949854,3,21,10,-9,57,-11,-60,85,22
1491695949855,1,65,5,28,-41,-71,-1,-72,6
1491695949855,1,-46,-6,-18,-13,48,54,48,10
1491695949857,2,-5,-20,7,127,25,-75,0,-27
1491695949857,2,-3,4,-23,-109,-78,-60,45,29
1491695949902,3,-54,-6,18,113,127,73,23,-18
1491695949902,3,1,20,5,-61,-85,92,-33,17
1491695949904,0,39,1,-22,10,-23,-69,-60,-10
1491695949904,0,18,-2,-9,3,7,37,27,10
1491695949905,2,-37,16,32,127,91,-7,61,44
1491695949905,2,-4,-3,22,-24,59,35,-11,-15
1491695949906,3,16,8,-45,-59,-37,-79,-53,-44
1491695949906,3,55,-27,1,6,4,-111,-40,3
1491695949950,0,-71,10,-33,-44,-30,58,35,-24
1491695949950,0,-4,-9,14,-55,-41,65,23,0
1491695949952,1,-1,-26,-49,-38,81,-71,-13,3
1491695949952,1,4,-8,-15,45,-31,-24,42,7
1491695949999,3,-89,4,21,38,-20,9,73,-6
1491695949999,3,-37,-7,-99,-109,-78,-14,-85,-72
1491695950003,0,31,-32,16,74,79,-57,-58,-30
1491695950003,0,35,-5,-3,98,-29,-59,-60,5
1491695950004,1,5,6,10,-31,28,39,76,27
1491695950004,1,-53,7,28,23,4,-52,-67,-21
1491695950005,2,-10,-13,-2,-112,-99,61,3,9
1491695950005,2,90,-9,4,15,-10,-89,-62,5
1491695950048,3,7,17,26,112,91,76,-11,18
1491695950048,3,-14,0,-14,-38,-24,15,30,29
1491695950051,0,7,-20,-17,-23,18,17,-32,-36
1491695950051,0,-2,25,13,-61,-128,43,-8,15
1491695950052,1,-42,2,-8,0,112,23,77,-5
1491695950052,1,-28,-1,24,105,116,114,-26,-5
1491695950053,0,36,3,-42,-57,-18,-21,83,12
1491695950053,0,29,-8,16,85,19,34,-3,14
1491695950100,1,-6,24,24,40,21,-15,-66,6
1491695950100,1,-25,-16,22,127,52,14,38,-8
1491695950101,2,-5,-25,-43,-66,-37,-61,20,-25
1491695950101,2,4,3,-10,-118,-84,-66,-38,-9
1491695950145,1,37,-3,0,94,20,-77,11,8
1491695950145,1,22,-18,7,-123,-115,-19,-39,-12
1491695950146,2,-37,8,23,78,61,19,22,17
1491695950146,2,-27,1,-2,-13,-97,3,-63,-60
1491695950146,3,7,8,16,-46,20,22,39,16
1491695950146,3,8,14,-23,87,107,6,-9,7
1491695950147,0,-50,-12,34,-42,-85,7,59,12
1491695950147,0,35,-15,-91,-75,-60,-39,4,-5
1491695950198,2,-39,16,35,25,-43,103,17,45
1491695950198,2,-103,-5,8,127,127,-24,65,-29
1491695950199,3,64,-16,-57,-128,-128,-41,-76,-18
1491695950199,3,19,-6,-18,78,39,22,-3,7
1491695950199,0,-4,28,48,75,71,79,11,18
1491695950199,0,-13,-6,-2,-25,-28,-27,-73,24
1491695950200,3,-9,13,8,67,-3,37,-26,7
1491695950200,3,-13,-11,-35,-128,-128,16,47,2
1491695950242,0,13,-28,-17,-28,-81,0,-41,-13
1491695950242,0,-17,32,-9,111,80,56,42,-19
1491695950291,1,-52,-13,55,56,-61,39,20,7
1491695950291,1,29,11,41,-81,83,-9,-11,2
1491695950292,0,3,-10,5,-21,21,-27,-38,-9
1491695950292,0,-52,6,7,112,48,80,-11,-2
1491695950292,1,77,-20,-35,-103,-94,-92,-17,-10
1491695950292,1,-17,-4,10,105,108,87,25,22
1491695950293,2,13,8,-15,-105,-57,-10,-19,-17
1491695950293,2,-27,-9,20,82,-43,14,68,5
1491695950340,3,33,6,7,-11,14,31,16,21
1491695950340,3,23,-9,-78,-123,-93,-98,-20,-10
1491695950341,1,-39,11,-14,-39,-42,35,0,12
1491695950341,1,5,-23,27,108,108,-27,5,-6
1491695950342,2,-23,11,-56,-89,-99,33,46,11
1491695950342,2,48,-8,37,-104,-121,-79,-53,-6
1491695950342,1,55,-20,-17,-2,-74,24,0,25
1491695950342,1,-17,6,7,-3,-71,-47,-29,-5
1491695950437,2,25,-2,-3,80,127,12,16,9
1491695950437,2,2,0,-41,-15,-32,29,17,8
1491695950438,3,-1,2,37,-53,-72,9,-2,-21
1491695950438,3,40,-32,-24,-30,70,-8,-2,7
1491695950439,2,-23,3,-4,9,-31,-7,-6,-15
1491695950439,2,39,0,2,-64,-95,-14,-15,12
1491695950440,3,-5,20,-34,104,71,20,-5,8
1491695950440,3,2,-29,80,48,52,9,29,7
1491695950486,0,-6,35,-31,-8,19,-68,-70,-18
1491695950486,0,-3,9,15,80,58,56,29,-4
1491695950487,1,25,-22,-9,-115,-50,-64,-20,8
1491695950487,1,-26,-29,-33,-117,-100,14,-28,-21
1491695950535,3,2,-23,11,22,50,56,-9,1
1491695950535,3,27,-2,4,60,8,18,-7,-15
1491695950536,0,-14,-78,6,-19,-78,79,-10,-8
1491695950536,0,-13,44,-17,4,-45,5,6,8
1491695950536,1,-24,17,-23,35,67,9,-9,-26
1491695950536,1,-3,26,15,-51,-26,-57,28,20
1491695950537,2,-12,-2,-34,0,42,71,-34,-4
1491695950537,2,1,-65,27,-49,-38,-13,-19,6
1491695950583,1,-7,-91,-11,-53,-60,102,63,6
1491695950583,1,-6,70,-82,49,19,114,3,3
1491695950585,2,-2,127,14,-37,-44,16,-18,2
1491695950585,2,-3,15,37,-28,-18,-86,-46,12
1491695950585,3,-5,-100,7,-16,67,-112,-70,-10
1491695950585,3,6,-128,-16,1,70,87,-116,-38
1491695950586,2,1,41,96,65,52,-112,28,23
1491695950586,2,6,37,-85,2,25,-23,18,-20
1491695950632,3,4,-1,3,-61,-20,13,-18,-7
1491695950632,3,-4,-17,83,-22,-55,-19,-29,-13
1491695950633,0,-4,-98,-38,55,76,-20,-5,6
1491695950633,0,-15,-115,2,2,-10,-42,-28,15
1491695950634,3,-2,-9,-5,-2,44,48,-19,3
1491695950634,3,2,17,5,1,-56,-72,-28,3
1491695950635,0,-11,33,-28,-22,21,-4,24,0
1491695950635,0,-1,-25,-6,34,-8,10,15,-9
1491695950779,1,7,-1,24,-38,-61,-75,-93,-53
1491695950779,1,12,29,11,72,82,59,40,46
1491695950780,2,-4,24,-51,-88,-55,0,12,-21
1491695950780,2,-6,-19,3,-15,-44,8,-16,-25
1491695950781,0,-8,-6,-9,71,73,25,9,2
1491695950781,0,-20,-44,-6,-47,-2,9,21,-19
1491695950783,1,10,28,-3,-34,-59,-16,-26,-3
1491695950783,1,3,30,-22,-14,-27,-42,-15,20
1491695950827,2,7,-5,-3,-37,-18,-2,49,21
1491695950827,2,3,3,35,25,40,15,-19,-22
1491695950829,3,-14,1,-4,24,29,55,20,-19
1491695950829,3,-1,6,-36,-43,-12,-53,-27,2
1491695950830,2,40,-9,-19,-13,-8,-29,-5,17
1491695950830,2,-17,-8,32,65,-21,26,10,-29
1491695950833,3,41,12,16,48,79,-9,22,44
1491695950833,3,-89,-19,-14,-26,-2,14,-21,-27
1491695950876,0,-14,18,-1,-21,-29,34,51,-7
1491695950876,0,5,-1,1,-6,-66,-67,-50,-8
1491695950878,1,-6,-4,-3,14,60,43,33,3
1491695950878,1,30,-5,-4,-3,-34,-35,-39,25
1491695950879,3,-18,-7,12,47,-19,-52,21,-17
1491695950879,3,4,5,-7,-62,88,-53,-45,-20
1491695950880,0,7,-13,-11,5,-23,-35,-4,10
1491695950880,0,-10,9,-7,-89,-93,-59,0,-45
1491695950926,1,80,7,11,21,19,0,-10,51
1491695950926,1,-17,-18,5,29,9,121,70,-3
1491695950928,2,-15,-21,3,29,37,-36,-18,-55
1491695950928,2,10,-2,-23,-49,0,-28,23,45
1491695950929,0,-37,9,3,18,64,12,-2,0
1491695950929,0,1,-9,-21,-41,-85,85,15,-9
1491695950930,1,-47,-19,-39,-128,-128,-95,-19,-24
1491695950930,1,54,11,-1,112,99,-11,-59,-1
1491695950976,2,15,1,19,43,60,-39,14,-4
1491695950976,2,-34,6,17,72,82,87,36,51
1491695950978,3,-6,-10,2,15,-11,20,20,4
1491695950978,3,-49,-15,-11,-80,-25,39,10,-50
1491695950979,1,4,-1,-13,-34,16,-64,-36,-29
1491695950979,1,10,-3,-15,-31,-4,39,17,16
1491695950980,2,37,-10,7,12,6,21,-49,21
1491695950980,2,-46,27,18,13,54,31,16,1
1491695951022,3,4,7,4,56,36,28,38,13
1491695951022,3,14,1,-5,-20,-46,10,2,-17
1491695951024,0,-42,2,9,84,75,93,11,-40
1491695951024,0,46,-9,-20,-128,-111,-74,-2,3
1491695951073,2,7,-12,1,-16,-16,109,-1,-8
1491695951073,2,35,-9,-7,37,30,-59,-17,19
1491695951074,3,-98,1,-5,-43,-49,-32,-2,-31
1491695951074,3,79,-2,15,12,-70,26,3,20
1491695951075,0,-100,28,1,-59,-43,-102,4,-15
1491695951075,0,49,-16,-13,17,32,72,-57,-20
1491695951076,1,73,-3,-11,-7,42,95,72,56
1491695951076,1,51,5,19,62,14,-128,-23,12
1491695951169,2,4,-14,0,10,48,1,16,26
1491695951169,2,-50,8,-6,-43,-97,-82,-40,-6
1491695951170,3,50,6,2,-23,52,83,-4,6
1491695951170,3,-27,16,10,52,-6,6,22,-3
1491695951172,0,8,-33,-5,-21,66,98,18,-11
1491695951172,0,-124,-32,-17,-31,-56,46,-23,-80
1491695951173,3,-93,-15,-10,-37,-17,22,31,-41
1491695951173,3,-7,4,-3,-47,-100,75,-50,29
1491695951217,0,39,3,12,43,-6,-71,-51,-40
1491695951217,0,-28,1,-11,58,84,51,40,37
1491695951219,1,75,-38,-44,-72,-27,-43,-24,-32
1491695951219,1,-128,12,-9,-40,-104,-128,11,-25
1491695951220,0,113,-4,-30,-59,-73,-86,-12,11
1491695951220,0,-62,12,-19,7,48,81,66,-11
1491695951221,1,29,-11,-33,28,-63,41,-4,33
1491695951221,1,4,-5,42,62,122,82,19,-41
1491695951267,2,-31,4,48,-18,-68,9,-31,51
1491695951267,2,-40,12,41,18,73,103,90,-51
1491695951269,3,35,21,22,23,31,115,5,10
1491695951269,3,11,2,-72,6,-6,-52,73,16
1491695951270,2,-42,60,127,58,43,102,22,-17
1491695951270,2,48,2,126,-4,16,-49,-16,33
1491695951271,3,-56,-15,-77,4,-13,25,18,-3
1491695951271,3,-41,-39,-117,-93,-124,-74,-62,-81
1491695951315,0,-26,-1,-115,-55,6,54,104,30
1491695951315,0,80,-8,-36,28,30,-40,-37,45
1491695951316,1,-11,18,10,51,64,-83,13,31
1491695951316,1,32,-9,-112,41,-25,92,1,-6
1491695951317,3,-11,-20,127,-19,-19,-26,-57,-23
1491695951317,3,-55,33,127,-97,-65,36,-10,-10
1491695951318,0,35,-22,-32,12,-6,-75,-29,8
1491695951318,0,45,-25,-120,46,32,-110,-8,28
1491695951363,1,-54,14,-104,-1,-16,61,-36,-6
1491695951363,1,101,-32,-41,41,77,4,11,35
1491695951365,2,-64,-17,-32,-10,-41,4,-5,-7
1491695951365,2,40,12,-23,-42,-34,29,19,-1
1491695951366,0,43,5,47,6,2,-128,-45,9
1491695951366,0,-60,14,5,37,-15,-18,2,-40
1491695951367,1,18,7,-114,-9,25,89,-9,3
1491695951367,1,-4,-17,-65,1,-19,-99,39,16
1491695951412,2,-15,-64,101,-22,-12,-32,4,-24
1491695951412,2,-18,59,110,-27,-4,112,-17,-7
1491695951414,3,73,79,127,46,49,-61,36,7
1491695951414,3,-19,-14,-99,17,14,53,3,6
1491695951415,0,2,5,-128,7,-47,105,-5,22
1491695951415,0,4,-26,-116,-21,24,75,27,10
1491695951416,1,-57,-59,-25,-2,-41,-1,-26,-38
1491695951416,1,30,24,-14,-77,-31,-105,-32,-1
1491695951461,2,-16,33,-13,49,16,-24,19,9
1491695951461,2,35,-3,-20,4,13,8,-69,-7
1491695951462,3,-55,-11,-15,6,6,36,3,-41
1491695951462,3,-11,4,65,19,7,40,34,-17
1491695951463,1,49,-5,6,27,60,-73,1,30
1491695951463,1,-44,-14,9,-16,-16,34,-13,-8
1491695951463,2,-49,23,-20,-65,-68,-13,-34,-46
1491695951463,2,52,22,-7,14,40,-38,50,22
1491695951510,3,-20,-29,11,-22,-54,-64,-20,-11
1491695951510,3,-57,2,41,50,84,102,-8,-28
1491695951607,0,62,9,11,-3,-13,24,16,57
1491695951607,0,-24,-37,-18,5,4,-19,-32,-44
1491695951608,2,-102,35,6,-3,7,107,22,-26
1491695951608,2,40,-46,-18,-18,-18,-37,3,25
1491695951608,3,-29,-5,15,0,-32,75,-17,-25
1491695951608,3,20,-19,-26,-13,14,-78,-41,-15
1491695951610,0,62,-2,0,14,18,57,-12,-30
1491695951610,0,-55,11,3,-9,3,11,45,20
1491695951656,1,-20,-21,-13,1,-30,-79,-3,-13
1491695951656,1,32,14,24,-2,-10,0,-48,25
1491695951657,3,-42,3,-16,-49,-66,-53,-76,-37
1491695951657,3,94,6,15,26,45,-18,8,35
1491695951657,0,-97,28,0,-32,67,-90,63,-37
1491695951657,0,107,-27,-6,48,-52,-62,-5,15
1491695951658,1,-75,-11,9,65,-27,-21,20,6
1491695951658,1,-16,13,-9,-88,-13,-34,15,-7
1491695951753,2,45,-13,-14,58,-47,-47,14,-46
1491695951753,2,3,47,12,-64,10,59,-75,22
1491695951754,3,-38,-23,1,42,21,15,70,23
1491695951754,3,19,-4,9,80,91,29,-53,-4
1491695951755,2,-4,8,10,-53,94,125,-12,-19
1491695951755,2,20,7,16,97,69,85,-25,16
1491695951756,3,-33,-8,12,-22,-86,70,20,12
1491695951756,3,-55,14,-25,54,127,22,-77,-65
1491695951802,0,24,24,61,114,-116,74,31,64
1491695951802,0,-66,-33,-59,-128,4,-128,50,-42
1491695951803,1,6,24,-3,32,12,71,-72,-30
1491695951803,1,-19,-37,-13,-89,-109,-13,-20,14
1491695951807,3,62,-15,3,-32,-59,-3,18,-2
1491695951807,3,-42,5,-3,22,58,16,-32,-28
1491695951807,0,-12,8,40,87,56,92,-33,29
1491695951807,0,-103,9,-4,24,112,79,69,-3
1491695951851,1,25,29,-1,-48,-117,24,-22,-39
1491695951851,1,15,-34,-18,-29,-56,-97,79,1
1491695951852,2,64,-11,-5,14,55,6,-111,-48
1491695951852,2,85,22,45,87,42,85,47,100
1491695951852,0,49,-32,-67,-115,-67,-113,-61,-29
1491695951852,0,113,-29,-28,-77,21,-71,-61,-11
1491695951853,1,-30,6,-16,44,45,117,16,38
1491695951853,1,12,-1,40,54,24,-29,-14,-22
1491695951949,2,-57,0,-27,-66,46,-28,65,6
1491695951949,2,-36,25,51,83,-128,101,66,16
1491695951950,3,-12,-13,-11,65,127,-62,-79,-58
1491695951950,3,70,-25,-37,-128,-72,-27,37,-9
1491695951952,1,-46,13,-7,60,124,17,27,18
1491695951952,1,5,-9,-12,-24,-98,-32,16,12
1491695951953,2,67,7,19,29,121,41,31,4
1491695951953,2,-60,-2,-8,45,-79,100,65,-16
1491695951998,3,1,-14,-18,-87,-102,-96,-40,-3
1491695951998,3,48,2,-20,53,89,70,-61,-6
1491695951999,0,-48,-5,27,-38,-90,-7,40,-5
1491695951999,0,-49,-18,-44,-118,-26,-47,-34,-70
1491695952001,3,-7,-11,15,84,92,-36,-47,-34
1491695952001,3,-88,8,9,-35,88,52,-43,-20
1491695952002,0,-29,-4,3,25,-24,-12,15,-8
1491695952002,0,16,-2,-31,-37,-44,-28,0,13
1491695952046,1,-90,20,12,47,48,75,63,-3
1491695952046,1,63,-18,-7,-25,-21,-104,-26,28
1491695952048,2,-62,9,41,52,-37,49,19,-12
1491695952048,2,-29,8,27,-8,46,-62,-24,-14
1491695952049,0,-21,16,20,-115,-17,34,-64,-11
1491695952049,0,0,7,34,79,-48,69,70,42
1491695952095,1,-62,-8,-35,-54,73,58,-7,-36
1491695952095,1,73,0,-12,19,85,-79,-19,22
1491695952097,2,-47,4,0,-32,-44,106,92,-1
1491695952097,2,3,2,8,-25,6,-15,2,40
1491695952099,3,1,-17,-60,-54,-18,-85,-17,-20
1491695952099,3,15,0,28,-97,-128,-11,-5,0
1491695952100,1,18,3,71,-67,-113,-25,4,-1
1491695952100,1,1,-27,-78,-97,-30,-20,7,-19
1491695952143,2,0,-13,-32,70,93,-41,-34,-14
1491695952143,2,-29,-8,-19,-79,-83,69,61,16
1491695952144,3,33,18,45,91,-80,-47,-91,1
1491695952144,3,-29,-2,52,81,-37,8,-3,-28
1491695952145,0,-11,5,-7,-70,-83,-24,12,27
1491695952145,0,-32,-15,19,126,109,31,26,-40
1491695952146,1,46,-30,-98,-128,-126,-45,-17,0
1491695952146,1,0,20,-10,120,0,38,-9,-5
1491695952192,2,13,-2,57,109,90,37,0,29
1491695952192,2,-26,-6,-19,-6,-87,25,1,-15
1491695952193,3,-10,6,25,-21,-12,41,52,6
1491695952193,3,-22,-15,-37,-47,40,-46,-15,-4
1491695952194,2,-11,-15,-2,-39,-66,1,0,-11
1491695952194,2,14,25,64,91,-5,-15,-43,3
1491695952195,3,-85,-2,-33,127,82,127,73,14
1491695952195,3,16,20,48,-61,127,-6,56,-2
1491695952485,0,69,-33,-60,-95,-81,-105,-101,-23
1491695952485,0,-9,-7,-48,-104,-107,-51,-10,-18
1491695952486,1,12,-7,18,19,30,-9,-18,7
1491695952486,1,-4,27,49,60,-56,8,48,-10
1491695952487,3,-27,-9,-37,-3,-84,34,32,12
1491695952487,3,48,-6,32,-67,-128,-63,-39,-13
1491695952488,0,36,-17,-2,80,60,-19,-6,5
1491695952488,0,-27,5,-27,-18,39,-27,-8,8
1491695952534,1,1,10,-24,-51,45,14,3,16
1491695952534,1,-26,14,42,95,-46,23,-6,1
1491695952535,2,-14,-5,-33,-128,6,-40,-27,-18
1491695952535,2,7,-8,47,78,-25,103,52,15
1491695952536,0,0,14,-31,-87,-128,-26,-30,3
1491695952536,0,17,2,6,36,-38,6,5,1
1491695952537,0,7,-8,29,66,27,-7,19,32
1491695952537,0,-6,-3,-27,-46,13,27,5,0
1491695952582,1,2,1,18,-44,-100,-45,-11,18
1491695952582,1,-10,-20,0,-32,-8,-9,-10,-20
1491695952583,2,-5,4,15,1,-15,22,11,-6
1491695952583,2,3,18,-18,65,45,4,8,7
1491695952584,1,3,-13,5,61,13,62,30,-14
1491695952584,1,7,13,14,16,40,11,18,20
1491695952631,2,-7,-23,-15,-34,-39,-23,-4,-5
1491695952631,2,4,15,5,14,56,32,3,1
1491695952633,3,0,9,1,-13,-50,-2,-10,6
1491695952633,3,-9,-19,-3,-73,-24,-36,-18,-6
1491695952634,0,9,6,-1,17,-1,13,8,2
1491695952634,0,7,-30,-1,-18,16,7,14,9
1491695952635,2,-7,2,4,-16,-32,36,-4,-10
1491695952635,2,-1,4,-13,-16,-49,-46,-16,-6
1491695952680,3,5,-5,5,17,28,4,-8,6
1491695952680,3,-4,-12,-14,7,9,19,-4,-10
1491695952681,0,8,-13,-10,-1,24,-10,22,6
1491695952681,0,-18,0,22,-27,-56,-7,-17,-9
1491695952682,3,-30,12,17,16,-30,-35,-4,14
1491695952682,3,-2,-18,-22,-45,-27,22,14,-14
1491695952683,0,19,-2,-4,54,23,-4,-6,-6
1491695952683,0,-9,-11,-1,22,28,36,14,-8
1491695952729,1,13,10,27,37,53,-2,-20,11
1491695952729,1,-17,7,1,-10,-9,23,21,2
1491695952730,2,16,27,14,-9,-32,-43,4,5
1491695952730,2,20,-41,-6,27,30,5,-12,-29
1491695952731,0,-10,28,-1,-5,-19,-25,-36,-28
1491695952731,0,3,33,-5,-5,-3,9,9,22
1491695952732,1,21,7,-4,49,-52,9,11,-4
1491695952732,1,2,-1,-2,-57,76,-18,-77,-23
1491695952777,2,-19,3,2,-70,-71,6,22,16
1491695952777,2,-21,0,-11,55,68,39,5,-18
1491695952787,3,44,-23,19,-46,-49,-30,31,32
1491695952787,3,1,34,25,61,49,71,-4,35
1491695952788,1,17,9,14,-11,-14,-63,-26,-3
1491695952788,1,-62,-12,2,35,57,94,81,16
1491695952790,2,46,6,-5,39,-8,-76,-65,-10
1491695952790,2,-79,-4,6,-40,-15,74,24,-13
1491695952924,3,-13,-6,-25,-77,-60,9,-2,-6
1491695952924,3,-5,0,9,-35,-128,-68,-38,1
1491695952925,0,37,-2,-14,42,80,-48,25,8
1491695952925,0,-15,-4,-2,21,16,88,20,21
1491695952926,1,38,16,7,-16,19,-69,-31,4
1491695952926,1,21,4,7,62,68,81,-26,27
1491695952927,2,-61,-24,-5,-46,-69,28,23,-22
1491695952927,2,36,-1,-9,-29,-41,-49,-12,10
1491695952972,3,-69,-10,7,12,64,92,36,-4
1491695952972,3,28,6,1,19,-20,-106,-36,-5
1491695952974,0,-12,7,16,89,68,92,14,-7
1491695952974,0,-5,-13,-10,-72,-20,72,31,0
1491695952975,3,-21,-9,-4,-57,35,84,22,23
1491695952975,3,5,6,6,71,15,-11,-74,-49
1491695952976,0,5,5,-5,-46,-37,21,-32,0
1491695952976,0,-48,8,23,59,60,63,32,-41
1491695953021,1,86,-3,-6,76,99,-48,13,6
1491695953021,1,-6,3,-13,-120,-128,26,-15,-9
1491695953023,2,21,-10,-13,-2,61,28,-58,-22
1491695953023,2,5,7,9,35,-35,-80,16,26
1491695953024,1,-13,3,3,36,106,127,17,33
1491695953024,1,32,-13,0,46,-31,-128,-17,10
1491695953025,2,-41,10,18,-30,-6,101,38,-43
1491695953025,2,-4,-17,-17,-28,42,-41,-96,-4
1491695953070,3,22,5,2,-19,-128,45,71,14
1491695953070,3,59,4,-1,-28,40,-9,-7,-1
1491695953071,0,-99,-9,-2,60,83,23,59,-7
1491695953071,0,96,7,-1,16,-30,-87,-25,74
1491695953073,2,-22,-20,-8,15,-5,-10,-8,-59
1491695953073,2,10,-3,1,-76,-32,-59,-19,-9
1491695953073,3,34,-3,-12,-10,-73,-2,16,17
1491695953073,3,-36,-6,5,58,71,65,-62,-32
1491695953119,0,-60,-3,-15,-63,-99,-125,-60,-47
1491695953119,0,-21,-7,-50,3,11,127,85,5
1491695953121,1,-95,-3,7,-8,-12,-128,-3,-26
1491695953121,1,32,6,39,-19,-27,49,17,-5
1491695953122,3,29,1,-19,4,-30,16,53,4
1491695953122,3,-22,5,-65,32,46,9,-9,-26
1491695953123,0,-69,-30,-14,-23,-40,-7,-30,-14
1491695953123,0,-17,-3,42,-58,-70,9,-7,-82
1491695953168,1,19,3,48,34,78,50,18,76
1491695953168,1,78,31,31,18,-21,-44,26,34
1491695953169,2,-22,9,-29,-29,-10,3,-13,-21
1491695953169,2,121,2,-40,10,15,34,18,31
1491695953171,0,-10,-4,41,-71,-103,-128,2,-46
1491695953171,0,-13,4,32,15,57,66,-18,27
1491695953172,1,-43,5,19,-2,40,91,8,-19
1491695953172,1,18,-25,-24,-11,-30,-98,-13,15
1491695953216,2,12,37,-1,35,34,25,106,51
1491695953216,2,24,-13,11,7,27,18,-38,9
1491695953218,3,-5,10,-10,-14,-28,-52,-39,-11
1491695953218,3,-46,-12,-33,-35,-72,-44,5,-3
1491695953219,0,49,-21,19,26,118,110,-36,14
1491695953219,0,-17,-7,10,11,-19,30,64,20
1491695953265,1,33,-9,8,36,-36,-64,-80,-9
1491695953265,1,43,-3,50,-36,4,67,20,-15
1491695953266,2,-61,5,16,-21,-71,14,2,-30
1491695953266,2,42,11,-35,20,61,-11,-15,34
1491695953267,3,-18,3,-15,6,-9,26,68,-3
1491695953267,3,-45,26,-28,-26,6,24,3,-8
1491695953268,1,103,14,-60,-22,-44,-47,17,64
1491695953268,1,18,-1,86,44,59,46,31,11
1491695953314,2,-22,3,87,19,-5,56,20,21
1491695953314,2,-55,5,102,-20,-14,-38,4,-29
1491695953315,3,-3,-7,12,-21,-1,-22,-10,-19
1491695953315,3,-40,-7,-97,-83,-76,-17,-32,-26
1491695953316,0,48,-7,-73,34,84,10,10,26
1491695953316,0,-40,4,-22,58,41,24,36,46
1491695953317,2,43,2,-12,-23,-17,29,-4,24
1491695953317,2,19,-2,-9,-5,-9,4,16,0
1491695953362,3,-101,1,15,39,55,57,2,-34
1491695953362,3,8,-1,8,2,-3,-33,-9,5
1491695953364,0,2,-20,-21,4,-11,-2,-53,-21
1491695953364,0,11,-1,-1,-23,-43,-80,-1,6
1491695953365,3,-90,10,127,27,12,17,24,-21
1491695953365,3,-12,1,16,-42,-33,-19,-61,-17
1491695953366,0,26,7,-98,-1,-22,24,42,-16
1491695953366,0,9,-13,-99,4,-17,-61,-18,13
1491695953411,1,27,-20,-59,25,14,40,-35,-1
1491695953411,1,-35,-5,-16,-4,18,10,-6,-22
1491695953413,2,-5,-10,-9,-20,6,12,13,20
1491695953413,2,-27,8,-5,-30,-9,-14,-26,-28
1491695953414,0,-31,2,24,21,-17,-18,-86,-16
1491695953414,0,-16,9,15,-6,26,116,35,-13
1491695953415,1,-17,-4,-24,-2,-2,-31,-41,15
1491695953415,1,-12,-1,7,-6,-35,91,68,27
1491695953460,2,60,0,24,10,85,-119,3,-9
1491695953460,2,1,-15,-20,32,-30,26,-7,31
1491695953461,3,-32,4,-17,-58,-23,-23,-39,-8
1491695953461,3,100,0,17,2,-41,-8,5,17
1491695953462,1,59,-17,-8,3,10,18,38,27
1491695953462,1,-97,5,13,-10,-39,-9,-47,-16
1491695953463,2,23,-21,-16,32,20,-23,23,-19
1491695953463,2,-28,-4,-19,-81,-31,77,36,-6
1491695953509,3,27,15,22,26,9,53,-40,-6
1491695953509,3,-31,-7,5,64,14,-80,21,-31
1491695953510,0,57,-4,-5,-51,-13,-29,-28,6
1491695953510,0,16,8,-27,-6,-60,-26,-15,12
1491695953511,2,-98,31,15,48,-15,76,-1,-10
1491695953511,2,78,-14,-12,28,-9,-48,-7,-9
1491695953512,3,-50,5,-26,-47,-37,40,35,12
1491695953512,3,0,-8,18,-31,-18,3,2,-11
1491695953557,0,38,-9,-3,3,21,31,22,11
1491695953557,0,-62,11,23,101,81,127,26,46
1491695953558,1,1,18,2,-22,21,-35,-68,-51
1491695953558,1,42,-13,-28,2,-60,-53,-10,13
1491695953559,2,-63,-33,-31,-128,-95,-15,22,22
1491695953559,2,10,0,4,64,82,-17,-86,-56
1491695953565,3,74,-8,2,64,27,49,104,56
1491695953565,3,-6,21,18,20,37,-29,-104,20
1491695953606,0,39,-5,9,57,-30,15,20,-5
1491695953606,0,-109,24,11,-45,57,23,35,-61
1491695953608,1,70,-18,-9,44,24,-9,-27,29
1491695953608,1,-2,-25,-12,-114,-118,-70,-64,-19
1491695953609,3,-3,27,8,-14,33,48,12,47
1491695953609,3,-77,-20,-12,48,13,87,-24,-60
1491695953610,0,26,14,-2,-35,-22,13,11,-17
1491695953610,0,-51,-16,8,55,32,-44,-37,29
1491695953655,1,89,18,5,13,121,63,53,39
1491695953655,1,98,-7,-17,-65,-113,-128,-47,18
1491695953656,2,-112,6,-3,-35,-45,101,-29,-81
1491695953656,2,25,24,15,-29,43,127,52,28
1491695953657,0,-12,-6,-62,-91,-82,-62,-35,-56
1491695953657,0,55,-12,16,81,47,-68,15,19
1491695953658,1,12,5,31,-29,38,-8,44,10
1491695953658,1,-14,7,-8,54,117,126,113,31
1491695953704,2,49,10,7,-41,-47,-128,-113,-24
1491695953704,2,22,14,-13,-119,-128,75,-18,24
1491695953705,3,-97,-24,1,48,12,56,-50,-66
1491695953705,3,52,-9,0,82,73,-60,26,9
1491695953706,1,98,0,-4,-124,-71,-4,-65,39
1491695953706,1,-22,18,13,49,56,5,-21,-3
1491695953707,2,14,-11,-12,-26,-89,46,-42,41
1491695953707,2,-54,3,13,59,22,16,80,24
1491695953752,3,5,-24,-29,-6,-17,-92,-114,-81
1491695953752,3,-28,4,-7,-128,-86,118,96,4
1491695953754,0,99,27,30,99,127,77,12,68
1491695953754,0,-5,-1,-9,-10,-128,-103,-65,-23
1491695953755,2,-10,-6,20,85,108,-76,-1,17
1491695953755,2,-52,-12,-30,-120,-47,15,82,-24
1491695953756,3,-55,0,-1,36,-9,12,-46,-16
1491695953756,3,39,13,24,45,-15,-9,11,26
1491695953801,0,15,-10,4,15,29,127,117,43
1491695953801,0,-92,-17,-10,35,22,-90,-106,-99
1491695953850,1,20,-10,-46,-109,-66,-25,46,-9
1491695953850,1,-19,5,29,-31,-63,113,62,33
1491695953852,3,-19,-25,-20,-20,-7,127,-4,-31
1491695953852,3,20,-21,-30,-74,-70,-53,-63,-45
1491695953854,0,-34,6,4,21,-79,66,8,-23
1491695953854,0,93,1,7,-5,29,52,-62,61
1491695953855,1,-119,13,-28,73,11,69,84,-17
1491695953855,1,-10,-8,20,-58,-57,-121,-93,-46
1491695953899,2,24,-6,13,71,50,24,67,-20
1491695953899,2,-16,-16,-53,-128,-62,32,-33,-12
1491695953901,0,-44,4,13,-1,-47,-69,-3,-30
1491695953901,0,10,-25,-25,-31,-42,-39,13,-17
1491695953902,1,-25,9,6,21,39,52,30,2
1491695953902,1,-15,-8,-22,47,75,28,-19,19
1491695953903,0,68,21,94,101,106,-69,-104,-39
1491695953903,0,31,-14,-22,-99,-91,113,67,20
1491695953947,1,-3,-4,29,14,34,49,14,8
1491695953947,1,-16,7,-15,-17,-64,57,18,10
1491695953948,2,5,0,-32,-70,-84,-16,-41,6
1491695953948,2,-7,5,-17,30,127,9,-18,0
1491695953949,1,-49,-22,-32,45,-31,-76,59,17
1491695953949,1,51,-3,11,-31,-44,-53,-82,-45
1491695953950,2,22,2,-17,-118,-68,42,-48,13
1491695953950,2,-59,0,-6,69,81,-24,-19,-25
1491695953996,3,22,-1,37,82,-21,43,15,9
1491695953996,3,-21,3,-4,-54,-105,9,29,9
1491695953997,0,3,-1,21,107,76,57,17,29
1491695953997,0,77,7,-28,-128,-128,39,-38,-6
1491695953998,2,-79,2,-7,48,85,22,36,13
1491695953998,2,-3,21,59,110,63,68,70,26
1491695953998,3,22,13,35,-79,116,-13,-26,-10
1491695953998,3,-28,-25,-26,-22,-4,-66,-55,-20
1491695954045,0,41,-33,-28,28,60,-41,41,18
1491695954045,0,-12,26,-37,-99,-99,-37,1,-1
1491695954046,1,-32,0,19,72,62,93,32,19
1491695954046,1,11,25,41,66,-2,-89,-1,-19
1491695954046,3,-8,2,-12,7,19,-23,-15,12
1491695954046,3,34,-1,-12,27,-16,-8,-22,18
1491695954047,0,-1,4,-17,-29,-14,-15,3,-1
1491695954047,0,-34,-8,26,93,0,43,23,18
1491695954093,1,29,21,48,6,15,-20,-16,-6
1491695954093,1,-25,-12,-16,116,102,-17,10,-9
1491695954094,2,-11,-19,-72,-117,-126,-34,-11,-18
1491695954094,2,71,-13,24,73,34,-7,-22,8
1491695954095,0,58,13,16,34,-59,-100,-79,-29
1491695954095,0,0,-3,-39,-128,-88,19,52,12
1491695954096,1,52,-14,-43,-93,-6,-31,-36,-3
1491695954096,1,-38,-8,54,81,-17,67,10,-6
1491695954142,2,17,9,8,42,89,34,35,3
1491695954142,2,-15,5,-5,-41,-32,-74,-42,4
1491695954143,3,-56,-1,8,73,-128,40,19,-25
1491695954143,3,70,-2,8,51,38,-89,-28,2
1491695954144,1,-14,-11,5,7,17,65,17,16
1491695954144,1,21,30,6,-49,-73,-20,-14,-1
1491695954145,2,-35,-13,10,5,6,17,49,29
1491695954145,2,-13,7,18,3,97,-32,-52,-44
1491695954191,3,14,5,-1,-128,-112,-9,19,10
1491695954191,3,-89,-13,14,22,42,48,14,11
1491695954192,0,8,-6,39,37,127,-11,-8,-3
1491695954192,0,-14,17,-48,79,39,98,75,27
1491695954193,2,-23,-10,-14,15,-109,-21,5,0
1491695954193,2,10,15,30,-55,-25,-11,-29,-4
1491695954241,3,18,7,-2,96,71,18,25,2
1491695954241,3,-15,-45,8,15,-119,15,10,-1
1491695954246,0,24,31,-36,-72,50,-12,-25,-9
1491695954246,0,-19,25,19,2,-63,7,-2,-5
1491695954248,1,14,-11,-51,45,52,21,13,2
1491695954248,1,21,-25,40,43,27,-6,0,11
1491695954289,2,-19,13,-64,2,11,-6,4,-19
1491695954289,2,22,12,97,31,-46,-17,-19,-3
1491695954290,3,-13,14,-35,-2,10,-52,-8,0
1491695954290,3,10,-9,-72,94,87,29,-2,-7
1491695954291,0,-25,-35,12,-34,-54,85,35,23
1491695954291,0,9,31,-11,-17,10,-48,-42,0
1491695954292,1,-52,-2,39,77,-39,41,6,-30
1491695954292,1,50,-5,-14,-69,-27,-63,0,1
1491695954338,3,18,4,36,127,124,67,10,-14
1491695954338,3,-27,39,4,-78,-17,-24,-26,8
1491695954339,0,0,-70,56,-76,-119,-87,-11,-3
1491695954339,0,-11,14,-27,41,62,84,52,9
1491695954340,1,11,22,31,-14,-36,15,-15,2
1491695954340,1,-8,-8,29,-21,-24,49,20,-2
1491695954341,0,-19,-16,-70,3,29,73,2,-2
1491695954341,0,3,27,33,-14,33,24,12,-1
1491695954386,1,-2,-18,49,12,13,-35,-8,-31
1491695954386,1,5,21,107,-101,-100,-92,-17,0
1491695954387,2,1,14,86,127,127,127,36,19
1491695954387,2,3,-90,-66,-55,-60,-28,-6,-14
1491695954388,1,3,-4,31,38,41,38,20,-15
1491695954388,1,2,-5,-80,-85,-82,-38,-10,12
1491695954389,2,-6,20,-68,-92,-58,-13,-6,-20
1491695954389,2,-6,-14,14,-9,-5,-15,-12,-12
1491695954435,3,5,-21,-24,0,21,1,9,27
1491695954435,3,-5,19,-1,48,21,14,2,-2
1491695954436,0,-10,-1,37,40,9,1,1,-16
1491695954436,0,1,-1,-16,-15,2,7,-3,4
1491695954437,2,-8,10,-10,-57,-38,-70,-29,-3
1491695954437,2,-14,0,0,-26,-69,-5,-7,-14
1491695954438,3,1,-22,-7,5,7,19,5,14
1491695954438,3,1,9,38,66,31,15,-6,-4
1491695954483,0,-6,3,-8,-1,17,6,2,6
1491695954483,0,-5,-2,-10,-1,16,-7,11,-4
1491695954484,1,7,-15,14,73,33,27,12,9
1491695954484,1,-9,-4,32,-55,-40,-41,-24,-8
1491695954485,3,-18,-16,-4,-108,-96,-24,-13,5
1491695954485,3,2,-1,-24,32,-4,11,30,1
1491695954486,0,6,20,-12,41,12,8,-1,13
1491695954486,0,-9,-13,25,-9,22,5,-9,-13
1491695954532,1,-2,0,-5,20,15,-11,3,-8
1491695954532,1,-6,-6,-32,-54,-12,23,-1,3
1491695954534,2,1,7,22,50,43,17,-6,-15
1491695954534,2,3,9,14,47,0,-39,-10,5
1491695954535,0,-1,9,-4,20,12,35,58,31
1491695954535,0,-13,-2,6,8,20,21,5,-25
1491695954536,1,12,3,20,46,21,-10,-19,12
1491695954536,1,-14,-11,-7,-45,-21,24,8,0
1491695954585,2,-2,-5,-24,-59,-46,-50,-31,-32
1491695954585,2,-9,0,-34,-19,-30,-20,-11,-3
1491695954587,3,-5,8,11,-18,-35,13,-3,-2
1491695954587,3,6,0,17,60,78,26,20,18
1491695954588,1,5,-28,-19,-11,39,-21,-30,-20
1491695954588,1,-4,12,-15,-33,-65,-39,-13,6
1491695954590,2,-5,-2,-7,-26,-16,-12,-1,4
1491695954590,2,-12,40,36,11,-16,27,-14,14
1491695954630,3,-13,43,18,45,41,-2,39,-8
1491695954630,3,7,-4,7,6,5,4,-1,-3
1491695954679,0,8,-13,-13,85,39,19,-15,-5
1491695954679,0,9,-35,-25,-105,-80,-40,-2,0
1491695954682,1,17,-8,-31,-1,-69,-8,-1,10
1491695954682,1,-16,5,19,36,-20,30,17,-7
1491695954683,2,27,-13,6,47,93,41,11,9
1491695954683,2,-60,8,44,85,27,12,2,-23
1491695954684,3,82,-21,-46,-82,15,-20,-37,9
1491695954684,3,-8,3,-3,-45,-52,-89,-31,7
1491695954728,0,-26,-1,36,6,-41,-7,-1,-21
1491695954728,0,-20,0,-38,-58,19,27,28,20
1491695954729,2,52,29,-8,-40,-17,-34,-9,13
1491695954729,2,62,4,13,-49,-26,21,7,32
1491695954730,3,-53,-10,1,4,-24,46,8,-13
1491695954730,3,41,17,13,50,55,15,27,12
1491695954731,3,5,9,6,-33,-2,20,12,-12
1491695954731,3,-67,-1,-7,51,2,-53,-31,-35
1491695954825,0,85,-7,10,19,-31,2,4,58
1491695954825,0,-51,-2,10,74,5,-28,11,-15
1491695954826,1,-14,-16,1,30,24,-6,-30,-26
1491695954826,1,36,-7,-7,-82,-28,-12,7,12
1491695954873,0,-29,-8,-14,36,-34,58,-5,-20
1491695954873,0,97,2,-7,-76,-32,-10,16,36
1491695954922,1,-10,-7,9,87,56,23,15,24
1491695954922,1,-14,2,6,40,37,-9,6,14
1491695954923,2,44,24,15,-28,-10,50,42,31
1491695954923,2,-111,-17,-10,76,104,35,0,-60
1491695954924,3,51,-9,-9,-47,-28,-98,-96,-25
1491695954924,3,25,21,-3,-44,-12,34,65,20
1491695954925,1,-19,8,1,-16,-52,26,10,-21
1491695954925,1,14,-5,-23,-46,-12,-7,10,-23
1491695954972,2,3,23,10,5,-53,-110,-55,-5
1491695954972,2,0,-13,-8,-24,-44,73,16,-46
1491695954974,3,40,-13,1,18,80,-16,-39,-33
1491695954974,3,-53,7,-17,-19,-82,50,39,28
1491695954975,3,-32,25,9,-5,-51,28,29,-30
1491695954975,3,108,-25,-11,19,14,-120,-70,-20
1491695954976,0,-102,-4,5,23,73,90,10,5
1491695954976,0,11,-8,-15,-14,-46,-19,32,10
1491695955026,1,64,27,-1,-20,-16,-15,-42,-12
1491695955026,1,-83,-11,-6,-30,-19,127,-9,-21
1491695955027,2,82,18,2,-16,-63,-74,-27,13
1491695955027,2,-12,-15,2,43,55,122,-28,-3
1491695955028,0,-7,-5,-14,-60,-67,-82,5,-24
1491695955028,0,-44,8,8,3,29,60,24,36
1491695955031,1,-2,2,-2,68,39,51,-41,-12
1491695955031,1,3,-1,-11,-17,-4,25,37,22
1491695955119,2,-59,-21,-5,-47,-13,102,33,-23
1491695955119,2,-68,20,17,10,-10,52,2,5
1491695955126,3,-42,2,23,13,39,62,53,12
1491695955126,3,30,2,18,72,52,-22,-1,42
1491695955128,1,1,18,-11,0,-18,17,4,37
1491695955128,1,22,-8,42,-3,27,-97,-7,-47
1491695955131,2,-56,12,23,33,41,127,-1,8
1491695955131,2,97,-10,7,-24,-9,-114,-36,44
1491695955166,3,-81,10,-28,6,-59,-7,-36,-58
1491695955166,3,122,-3,-17,-38,-43,50,24,28
1491695955168,0,-53,3,22,-40,18,85,-10,-11
1491695955168,0,7,12,30,62,43,64,26,-38
1491695955170,2,3,-21,-30,-24,-45,-79,-45,0
1491695955170,2,27,16,-11,-21,29,85,-22,2
1491695955171,3,35,-12,1,-14,-11,89,23,65
1491695955171,3,-41,-17,-16,-17,-8,-97,-13,-64
1491695955215,0,61,18,25,16,18,29,42,32
1491695955215,0,32,-13,-30,0,50,57,-22,1
1491695955217,1,-44,2,22,-15,-68,-128,-71,-13
1491695955217,1,21,-10,8,-13,-7,98,7,19
1491695955218,0,62,-12,-44,-14,-14,3,-6,46
1491695955218,0,-25,-8,-120,-46,-42,-90,3,-12
1491695955219,1,20,15,100,0,7,35,14,13
1491695955219,1,-7,29,115,48,48,4,57,9
1491695955264,2,-10,-25,55,28,-16,-36,-37,-3
1491695955264,2,68,-14,4,-49,-33,45,42,-10
1491695955266,3,-38,-9,8,-37,-18,13,21,-4
1491695955266,3,42,-18,-38,-8,9,51,-32,-12
1491695955267,1,-12,-2,-44,-23,-46,-51,36,10
1491695955267,1,-19,1,-34,-9,20,57,15,45
1491695955268,2,-15,-5,-97,-3,-24,-94,-42,-60
1491695955268,2,2,-20,81,-3,-8,38,-32,-28
1491695955313,3,-5,0,87,4,3,54,-5,19
1491695955313,3,19,38,101,23,14,23,7,5
1491695955314,0,-26,-6,47,19,64,14,39,-1
1491695955314,0,-13,-2,-28,-2,-11,-47,8,18
1491695955316,1,37,15,-48,-50,-41,-57,-17,-27
1491695955316,1,-56,-14,-78,-1,-6,-11,-17,14
1491695955317,2,45,-7,-38,-13,-11,-39,-21,-17
1491695955317,2,30,13,16,19,9,89,110,79
1491695955361,3,-39,-5,-41,9,58,30,18,-2
1491695955361,3,-5,-8,-128,-6,-40,-104,6,-35
1491695955363,0,-14,3,87,-20,-32,41,-7,24
1491695955363,0,11,-15,78,8,23,-5,-65,-16
1491695955365,2,-22,5,118,17,31,39,-5,-11
1491695955365,2,9,8,0,-22,-33,42,10,-18
1491695955365,3,-33,-28,-105,-8,-3,-39,-71,-53
1491695955365,3,3,-19,-104,9,-13,26,23,15
1491695955410,0,2,-11,-111,20,42,-82,10,-25
1491695955410,0,53,20,-44,-18,-27,63,-16,50
1491695955411,1,-67,7,-14,0,28,114,28,7
1491695955411,1,61,-21,-4,-14,-50,-68,-55,-48
1491695955412,3,-17,19,16,24,33,1,18,-6
1491695955412,3,-36,9,34,22,50,0,11,27
1491695955412,0,-39,4,-3,-4,-32,24,-24,-19
1491695955412,0,-19,-5,-15,-7,-10,-45,7,-40
1491695955459,1,49,1,-3,-16,-8,31,-16,25
1491695955459,1,-17,-27,27,13,24,-54,-55,-25
1491695955460,2,9,15,4,-29,-35,44,18,11
1491695955460,2,-33,12,7,24,32,-19,-43,4
1491695955461,0,4,-26,-14,14,-11,-81,91,12
1491695955461,0,-60,-2,-9,-35,-42,93,7,-7
1491695955461,1,23,-3,2,25,26,-101,-43,4
1491695955461,1,45,3,1,26,-19,-69,-59,19
1491695955507,2,-49,10,-14,-23,31,5,-19,-42
1491695955507,2,10,-11,4,-3,-7,42,25,-20
1491695955508,3,7,12,3,37,31,-36,-6,-2
1491695955508,3,-43,-19,7,-30,-35,28,76,24
1491695955509,1,61,0,-20,-56,-29,10,-54,-28
1491695955509,1,-79,-11,4,21,63,91,27,-13
1491695955509,2,16,0,11,14,3,-65,-39,4
1491695955509,2,3,-18,-22,-64,-64,14,7,17
1491695955556,3,26,-18,-10,-24,-1,-103,-46,-21
1491695955556,3,-56,21,19,34,-40,66,39,9
1491695955557,0,73,0,-2,89,127,100,37,18
1491695955557,0,76,-6,-10,-57,-17,-125,-36,1
1491695955558,2,-38,-28,2,-7,-76,19,-91,-37
1491695955558,2,49,12,29,97,127,-104,3,34
1491695955558,3,-95,1,-8,24,16,127,127,4
1491695955558,3,100,-1,-5,-113,-98,-103,-88,-3
1491695955605,0,-1,-4,-33,-11,-52,55,124,46
1491695955605,0,-33,-16,-13,-73,-61,14,-118,-38
1491695955606,1,64,3,34,58,127,127,52,18
1491695955606,1,-84,30,12,122,65,74,-46,-22
1491695955606,3,-64,17,26,22,-65,44,46,22
1491695955606,3,19,-22,0,-15,5,-10,-1,2
1491695955607,0,-55,9,-25,31,86,-28,-31,11
1491695955607,0,-118,27,60,16,-86,54,-3,-57
1491695955653,1,12,-21,-42,-75,25,47,16,-41
1491695955653,1,122,11,17,29,-46,-116,20,26
1491695955654,2,12,-2,23,23,59,-31,-123,1
1491695955654,2,9,-7,-5,43,73,126,100,15
1491695955655,3,-39,1,8,78,-13,78,94,36
1491695955655,3,63,-20,-51,-128,-84,-96,-66,-53
1491695955656,0,-30,-1,-6,-60,22,127,86,15
1491695955656,0,5,-4,8,15,-60,-119,-5,16
1491695955702,1,49,-2,30,90,-44,-69,-41,25
1491695955702,1,-51,14,-16,21,127,117,8,-34
1491695955704,2,53,-13,1,-69,-128,-44,-3,1
1491695955704,2,-17,25,-15,-68,-33,18,96,11
1491695955705,0,14,-24,-24,-79,-59,39,-50,-3
1491695955705,0,-19,7,-10,105,122,-25,114,11
1491695955706,1,21,0,-1,-108,-82,-128,-128,16
1491695955706,1,-45,6,30,104,51,108,109,21
1491695955751,2,57,2,-9,-45,-71,-99,29,-1
1491695955751,2,-29,-10,-25,-9,56,117,-26,1
1491695955752,3,-98,-17,-12,28,71,-56,-18,-7
1491695955752,3,125,26,41,-9,-92,-47,-20,-5
1491695955752,1,-64,5,-48,-16,-27,81,-2,-38
1491695955752,1,5,-19,-4,36,68,42,-57,-14
1491695955753,2,72,9,-21,-1,-98,-109,-96,-35
1491695955753,2,5,-3,45,30,79,53,-32,-8
1491695955800,3,-46,17,-3,26,64,127,-1,-19
1491695955800,3,40,3,-6,-98,-113,22,8,32
1491695955849,0,-43,2,-7,32,43,-77,3,-13
1491695955849,0,-91,-4,-4,20,-12,10,33,-10
1491695955850,2,-25,-13,21,89,57,-128,-50,-37
1491695955850,2,-31,13,-25,-81,-34,99,105,63
1491695955898,3,6,-13,-2,15,55,39,-74,-40
1491695955898,3,-47,6,14,-49,-81,3,90,-10
1491695955946,0,-27,-13,-4,-75,-46,-12,-38,9
1491695955946,0,50,-6,16,127,68,-28,-112,21
1491695955948,1,44,7,-3,-113,-128,36,127,10
1491695955948,1,-38,-23,-9,51,127,-9,-128,-64
1491695955949,3,-32,10,74,123,96,69,24,-15
1491695955949,3,87,-10,-3,-52,-92,-128,-50,24
1491695955951,0,55,33,-15,-21,58,127,18,27
1491695955951,0,-44,-1,-5,-27,19,-6,-105,-14
1491695955995,0,-69,4,14,60,53,122,115,54
1491695955995,0,-1,-3,-38,5,12,-81,-54,-39
1491695955996,1,26,-27,-47,-103,-128,-128,-70,-27
1491695955996,1,-12,4,-44,-94,47,110,104,23
1491695955997,2,4,4,88,127,68,34,26,-15
1491695955997,2,24,-7,-56,-128,-21,-4,53,37
1491695955998,3,57,-21,-16,82,-66,-43,-70,26
1491695955998,3,-41,-4,-3,82,56,5,-30,-46
1491695956043,0,2,-9,-26,16,47,-24,5,-13
1491695956043,0,-49,18,65,76,79,17,27,-3
1491695956045,1,-42,-13,-35,-37,-67,-4,50,6
1491695956045,1,46,-13,-37,-105,-19,-81,-19,-22
1491695956046,2,-10,-5,-31,127,7,90,4,24
1491695956046,2,-8,15,99,66,-78,-11,44,-14
1491695956047,3,28,-2,-37,-29,127,42,-97,16
1491695956047,3,-58,-19,-31,-42,-127,-20,18,4
1491695956092,0,51,0,-16,-128,33,-117,-108,-40
1491695956092,0,-20,5,0,53,40,35,54,-2
1491695956094,1,-35,-6,-2,-77,35,62,55,7
1491695956094,1,28,16,37,77,20,-3,-23,-7
1491695956095,3,4,1,68,-22,-61,-11,-5,6
1491695956095,3,-34,-9,-5,94,113,19,-19,-17
1491695956096,0,-6,22,10,95,73,64,64,12
1491695956096,0,11,-28,18,-71,-100,-49,-28,-3
1491695956141,1,-36,-7,-26,44,-49,8,27,-15
1491695956141,1,38,14,3,-66,-32,-83,-30,-20
1491695956142,2,-50,-12,16,109,94,38,-46,-20
1491695956142,2,43,23,24,-7,106,21,7,-2
1491695956143,0,-12,11,10,70,-81,11,43,23
1491695956143,0,-37,-21,-37,-128,-122,0,-34,-27
1491695956145,1,39,17,12,45,-10,-6,5,-2
1491695956145,1,-1,-1,1,-55,-104,-6,13,22
1491695956190,2,-45,-15,-17,37,72,-11,-2,-7
1491695956190,2,-18,7,32,3,-88,-42,-22,9
1491695956191,3,-32,13,23,-32,-22,-19,-15,-5
1491695956191,3,-1,4,-32,96,97,67,40,-4
1491695956192,1,32,9,-19,55,26,0,-26,29
1491695956192,1,-46,-5,-9,73,-28,5,-27,1
1491695956238,2,0,-5,21,86,78,45,57,9
1491695956238,2,-34,35,47,33,59,70,5,-6
1491695956239,3,-3,-50,-13,33,32,24,20,-17
1491695956239,3,30,19,1,-95,6,-60,-14,15
1491695956240,0,-31,12,-1,-95,-46,-12,-44,-26
1491695956240,0,-20,-15,-44,15,105,-79,-29,-20
1491695956241,2,80,16,-56,-115,-31,-128,-41,-1
1491695956241,2,-28,-3,-11,-64,-78,17,3,7
1491695956287,3,26,10,23,62,93,60,-15,7
1491695956287,3,-45,-59,24,127,-6,101,46,-4
1491695956288,0,54,51,-22,10,126,10,11,15
1491695956288,0,9,-4,-18,-97,-128,-70,-9,-4
1491695956289,1,3,6,30,-42,-13,-76,-12,0
1491695956289,1,-12,-11,-20,59,66,67,13,4
1491695956290,3,-41,1,31,49,-22,121,28,17
1491695956290,3,1,9,12,25,-124,15,-9,-17
1491695956336,0,38,-39,5,-60,-82,-64,-18,-14
1491695956336,0,-6,7,-36,127,44,-48,-11,20
1491695956338,1,1,53,9,-57,31,-28,-5,-31
1491695956338,1,30,22,65,97,60,51,-6,23
1491695956339,0,-19,1,-6,5,43,36,-14,-23
1491695956339,0,4,-22,31,-50,-53,13,23,6
1491695956340,1,-19,-43,-22,-13,-44,-79,-6,7
1491695956340,1,30,-78,-63,-128,-128,-4,-45,-8
1491695956386,2,-28,56,-45,84,53,95,34,23
1491695956386,2,23,52,56,124,43,6,-12,-23
1491695956389,3,-1,-5,-22,-70,-69,-48,2,11
1491695956389,3,11,37,81,57,6,26,1,0
1491695956391,0,2,-38,-33,-61,-29,-6,-6,16
1491695956391,0,-13,7,48,98,127,125,24,1
1491695956392,1,-1,-14,-25,76,-16,-50,2,-23
1491695956392,1,9,48,40,6,61,-75,-3,-9
1491695956433,2,-8,-19,64,-50,-68,41,-11,-20
1491695956433,2,19,35,-67,-94,-37,-42,-45,-19
1491695956435,3,-9,-43,-22,45,69,108,22,27
1491695956435,3,7,-1,-121,58,22,-128,-21,21
1491695956436,1,10,-8,0,-20,-64,90,-16,-29
1491695956436,1,5,-12,-100,-124,-93,7,-5,-6
1491695956437,2,5,15,51,73,35,-77,-10,11
1491695956437,2,3,9,53,28,-14,-79,11,33
1491695956483,3,5,-22,-26,33,97,-30,-44,4
1491695956483,3,-1,36,25,-55,-13,35,53,20
1491695956485,0,1,-4,9,-47,-39,49,-29,-38
1491695956485,0,-5,-38,-10,37,79,127,20,-6
1491695956486,2,-1,-24,-16,8,64,-88,15,14
1491695956486,2,0,33,22,114,109,-38,-21,-2
1491695956486,3,-9,6,33,13,49,-30,18,6
1491695956486,3,2,-26,14,-4,4,28,11,-33
1491695956531,0,5,2,-31,-12,-63,-69,-5,18
1491695956531,0,-15,8,-14,31,22,11,6,-10
1491695956533,1,3,-17,-11,-5,10,17,14,-29
1491695956533,1,-12,-10,21,-2,3,10,2,19
1491695956534,3,-4,19,-16,-57,-34,-15,-26,8
1491695956534,3,-21,-16,52,81,56,37,-10,-13
1491695956535,0,-2,3,-34,-32,-43,-33,4,13
1491695956535,0,-9,3,20,14,5,-5,8,5
1491695956580,1,5,0,-29,15,27,50,11,-14
1491695956580,1,-10,-2,21,8,-34,-83,-16,8
1491695956582,2,1,2,-9,-36,-22,-46,-55,0
1491695956582,2,-17,8,-7,3,-8,-10,5,-25
1491695956583,0,-4,-18,-15,-1,-19,-16,14,7
1491695956583,0,-2,-10,34,33,-8,1,6,-13
1491695956584,1,12,15,4,-53,-18,-39,-22,-25
1491695956584,1,-20,-21,-31,10,-16,38,15,-10
1491695956629,2,0,43,-3,-10,-24,-38,-2,15
1491695956629,2,-16,-24,17,10,5,7,-3,12
1491695956630,3,20,2,-1,45,52,33,20,14
1491695956630,3,-22,-13,24,31,82,-4,-43,-7
1491695956631,1,-42,3,1,10,22,-9,-1,-12
1491695956631,1,36,19,-12,-90,-42,-8,6,8
1491695956632,2,-27,-22,12,48,14,-1,-15,-1
1491695956632,2,26,-7,-26,-14,14,34,17,-6
1491695956677,3,9,2,-14,-45,-82,-103,-18,3
1491695956677,3,0,11,14,64,75,37,-11,-1
1491695956679,0,8,0,30,28,12,29,15,-13
1491695956679,0,14,-1,-1,-20,9,5,10,2
1491695956680,2,-3,3,-9,-1,-18,-81,-39,-21
1491695956680,2,-14,69,5,8,-22,17,-13,-19
1491695956681,3,55,67,15,59,93,29,16,9
1491695956681,3,24,-12,6,-79,-83,-1,11,12
1491695956726,0,19,-23,-27,-68,-8,17,10,0
1491695956726,0,-14,-39,19,61,33,-22,-8,2
1491695956729,1,6,-20,11,71,52,-10,-7,-4
1491695956729,1,-2,-3,-8,-27,-77,8,0,-18
1491695956730,2,8,-27,9,20,52,-16,-15,9
1491695956730,2,-10,-19,-8,-26,-25,-50,6,5
1491695956731,3,-26,-20,-8,15,-17,49,-10,5
1491695956731,3,-13,1,11,58,112,33,-23,-20
1491695956775,0,-34,-9,-9,-4,47,8,16,-12
1491695956775,0,58,2,-28,-110,-106,-56,21,16
1491695956776,1,-24,-8,9,-15,2,39,-32,6
1491695956776,1,21,-1,-12,-6,-2,-36,13,-5
1491695956778,3,-81,-4,-3,11,17,-11,-3,-24
1491695956778,3,-23,0,-1,-40,-84,-115,-10,14
1491695956778,0,-19,4,-16,-9,37,89,22,-28
1491695956778,0,-8,-3,5,-17,-57,38,28,31
1491695956824,1,22,1,-3,-35,-1,-18,-5,-19
1491695956824,1,-13,9,-4,16,-9,13,-9,12
1491695956825,2,25,2,10,23,-76,-3,21,0
1491695956825,2,8,-11,-12,50,127,-60,-42,-4
1491695956827,0,4,-4,-17,20,27,18,21,35
1491695956827,0,-7,13,33,55,70,105,-10,-20
1491695956828,1,15,-5,4,94,95,-71,8,7
1491695956828,1,-62,-14,-18,-101,-21,14,-7,-23
1491695956873,2,8,3,-10,-16,-93,-128,-31,-24
1491695956873,2,-7,0,-1,-26,-18,53,-24,34
1491695956875,3,-25,-16,-18,-52,-52,13,5,-9
1491695956875,3,-5,-9,13,81,64,127,35,17
1491695956876,1,11,-12,-11,12,73,47,22,12
1491695956876,1,40,15,-8,-24,4,7,5,5
1491695956877,2,-32,-6,0,45,40,123,-2,-10
1491695956877,2,10,2,25,63,95,80,84,22
1491695956921,3,-25,-2,-1,-71,-128,-100,-93,-29
1491695956921,3,2,-9,-21,-4,8,27,17,-6
1491695956922,0,86,7,-5,-44,0,-45,6,32
1491695956922,0,-32,-12,-14,-11,33,50,-2,-21
1491695956924,2,-52,-3,9,45,-41,-71,-76,-20
1491695956924,2,81,3,-5,-42,36,34,21,33
1491695956924,3,-4,-14,-14,-41,-45,-56,25,22
1491695956924,3,-91,13,1,24,18,63,-3,-22
1491695956970,0,15,-14,27,52,27,5,-21,29
1491695956970,0,0,-4,-21,-9,-125,-80,3,-32
1491695956971,1,25,-3,-28,-123,23,22,-19,-4
1491695956971,1,18,-8,-17,-3,-32,-8,-2,11
1491695956972,3,78,14,18,67,19,102,38,46
1491695956972,3,54,3,-9,-45,-31,-128,-18,10
1491695956973,0,5,-10,-20,-43,-60,127,-32,23
1491695956973,0,-8,-8,-21,-54,-1,86,18,-22
1491695957019,1,22,2,8,46,-61,-122,-24,-4
1491695957019,1,-10,-2,4,37,38,85,-7,-8
1491695957020,2,-30,6,8,1,-4,60,18,1
1491695957020,2,-30,-9,-4,-79,-25,-95,-30,-22
1491695957021,0,-45,-5,11,-47,19,-43,-54,-32
1491695957021,0,-3,3,-7,-12,-79,84,11,8
1491695957022,1,-23,-1,-7,-17,-6,60,6,-3
1491695957022,1,-12,-26,-20,9,53,-24,-40,-28
1491695957067,2,-11,2,-11,0,-52,22,-4,-1
1491695957067,2,6,25,38,45,61,22,-50,-6
1491695957069,3,-36,-2,-8,-8,-13,39,59,29
1491695957069,3,-24,6,9,-79,-56,-26,24,-2
1491695957070,0,-3,-13,-40,-18,-4,43,40,7
1491695957070,0,44,7,37,88,65,-87,20,21
1491695957071,1,46,2,1,-8,-55,2,-71,-14
1491695957071,1,-17,-22,-21,44,42,124,107,21
1491695957116,2,-2,17,-2,-69,-20,16,-3,-18
1491695957116,2,15,-12,-11,-112,-88,-45,-2,-24
1491695957118,3,-4,-5,18,95,127,45,33,-3
1491695957118,3,-20,12,16,9,-12,9,-47,5
1491695957119,1,22,18,-22,-43,-18,-107,2,4
1491695957119,1,-51,6,34,-31,-44,100,8,-16
1491695957120,2,-1,1,45,64,122,110,63,20
1491695957120,2,-29,-16,-7,-28,-103,-122,-70,-42
1491695957165,3,37,-2,-25,-83,-86,59,53,31
1491695957165,3,55,2,-66,54,90,-70,-103,-29
1491695957166,0,26,6,-4,15,55,-31,42,24
1491695957166,0,24,7,32,0,-14,-60,1,6
1491695957167,2,64,-4,-13,-41,-89,-53,-60,-55
1491695957167,2,-80,2,-35,-17,58,67,-6,16
1491695957168,3,53,7,-98,-28,-63,-46,-36,0
1491695957168,3,0,-21,24,29,21,77,24,22
1491695957213,0,-63,-12,42,-28,-17,-40,-7,-26
1491695957213,0,-9,4,31,16,26,98,1,-4
1491695957214,1,-7,10,27,4,-29,-122,22,32
1491695957214,1,-64,1,-15,33,30,-26,-55,-47
1491695957215,3,-78,-7,53,11,14,44,-33,-23
1491695957215,3,77,8,-19,-1,4,-33,35,-11
1491695957216,0,-59,-2,-47,20,84,67,2,8
1491695957216,0,59,-20,-38,1,-70,-36,7,18
1491695957262,1,30,3,-39,-45,42,56,3,-23
1491695957262,1,-1,5,-47,-19,-70,-93,-24,12
1491695957263,2,-19,-10,-42,14,-2,53,-11,15
1491695957263,2,-10,11,79,56,17,-71,-20,27
1491695957264,0,17,-10,-19,-68,-8,89,18,-3
1491695957264,0,76,17,-25,-3,36,3,33,32
1491695957265,1,32,4,43,26,31,-110,-17,-2
1491695957265,1,-30,-37,-31,-11,-25,37,-3,-13
1491695957311,2,-48,26,-67,-6,-19,-27,1,9
1491695957311,2,17,-11,-46,-4,-13,-72,-29,-8
1491695957312,3,-35,-16,-45,-18,6,119,-9,-3
1491695957312,3,81,23,15,9,-2,35,9,12
1491695957313,1,-22,5,23,-8,-1,27,-21,1
1491695957313,1,-28,4,-7,20,30,-33,39,-9
1491695957314,2,61,20,-35,9,-21,-128,-53,17
1491695957314,2,-50,-10,-41,15,21,105,1,-21
1491695957360,3,58,0,8,-9,-22,-3,-6,27
1491695957360,3,-42,-25,43,-39,-43,-42,-14,-28
1491695957361,0,-1,8,50,30,-7,-17,-35,-13
1491695957361,0,25,15,-26,10,43,16,25,4
1491695957361,2,-30,-16,23,-41,-17,-34,29,-34
1491695957361,2,-6,-4,11,-1,3,32,-16,-5
1491695957362,3,-6,-23,-36,20,-13,-8,-21,-21
1491695957362,3,-4,12,-47,-9,20,64,-9,-1
1491695957409,0,45,9,-12,35,46,-98,-5,4
1491695957409,0,24,2,-20,-18,-17,-54,28,19
1491695957411,1,0,6,-102,-14,-26,-19,-22,-17
1491695957411,1,51,-1,6,25,28,31,1,29
1491695957413,3,-48,-12,38,-29,-9,-97,-47,-40
1491695957413,3,-3,8,-76,-2,-1,-13,21,-9
1491695957414,0,-34,-11,-80,8,-11,-14,5,0
1491695957414,0,14,10,-54,-7,12,10,18,5
1491695957458,1,-49,-14,-9,21,19,9,35,-31
1491695957458,1,46,4,-4,-15,-49,-79,-21,22
1491695957459,2,47,12,5,-27,8,-12,-14,-10
1491695957459,2,-56,1,-11,11,-6,36,-50,15
1491695957461,3,23,-4,6,38,31,-7,-5,20
1491695957461,3,-55,-9,4,-24,-3,51,-9,-22
1491695957462,0,64,-6,-3,-23,-13,-17,43,23
1491695957462,0,-15,-24,-28,-12,-41,-19,0,-16
1491695957506,1,5,27,44,7,-4,11,-53,-11
1491695957506,1,13,-2,21,23,8,-7,33,19
1491695957509,2,32,17,-17,19,31,66,37,15
1491695957509,2,-7,-13,-30,-1,31,-3,-54,-26
1491695957510,0,15,-13,1,-7,-48,-50,-20,-1
1491695957510,0,19,4,9,26,34,30,-12,3
1491695957512,1,-32,-14,3,21,25,46,20,2
1491695957512,1,54,-4,3,15,11,-19,-21,-4
1491695957557,2,-72,-9,-19,-38,-13,-25,-33,-12
1491695957557,2,21,-13,-13,-1,11,118,61,21
1491695957559,3,50,-21,-17,-15,-35,-117,-9,-8
1491695957559,3,-90,-2,4,-14,30,108,-16,-7
1491695957560,1,23,-3,-3,35,35,64,40,20
1491695957560,1,70,-8,1,-26,-18,-84,-35,-20
1491695957561,2,0,-1,-5,-26,-2,10,-20,-3
1491695957561,2,-5,-1,-1,31,22,44,57,19
1491695957603,3,-81,6,9,13,44,24,27,-25
1491695957603,3,31,-5,-2,-5,5,-50,-21,0
1491695957605,0,-24,0,-1,6,12,7,-44,-2
1491695957605,0,16,-13,-2,-56,-93,32,24,-16
1491695957606,2,26,-30,-7,24,-18,-39,-23,9
1491695957606,2,-98,14,-4,36,87,92,-6,-54
1491695957607,3,36,8,10,-19,-32,-96,10,21
1491695957607,3,52,0,-11,-48,-73,90,42,46
1491695957652,0,-15,-15,-17,73,77,49,-24,-34
1491695957652,0,-19,-4,8,-41,-28,-70,0,9
1491695957653,1,15,-12,6,-30,-20,20,-34,-18
1491695957653,1,-44,-2,-10,29,-36,-36,-13,-17
1491695957654,3,-33,-1,-8,-75,38,-26,-57,-1
1491695957654,3,43,-1,11,79,-17,-81,-18,26
1491695957655,0,-123,15,18,-53,16,78,66,-12
1491695957655,0,64,-44,-53,-50,-49,-50,-43,-4
1491695957701,1,20,2,15,9,-45,-45,30,-5
1491695957701,1,-40,4,-2,51,51,66,64,-14
1491695957702,2,-35,10,-8,-21,-84,-22,2,6
1491695957702,2,-34,1,3,13,84,-45,-108,-7
1491695957703,0,9,39,11,67,18,55,-115,-30
1491695957703,0,39,-4,-21,-89,-76,-70,-6,22
1491695957704,1,-66,-4,-18,-22,-3,102,3,-28
1491695957704,1,10,-16,-1,26,-10,35,-113,-20
1491695957750,2,-33,-16,-10,-31,65,25,65,19
1491695957750,2,46,6,16,62,-15,-49,-82,-68
1491695957752,3,-57,22,19,43,21,104,-8,27
1491695957752,3,58,-6,2,58,56,-107,53,-1
1491695957753,1,54,-14,16,41,30,-101,-94,-13
1491695957753,1,3,16,-3,19,12,99,-22,-2
1491695957754,2,-56,-1,32,106,127,14,-39,-14
1491695957754,2,81,22,21,2,-56,-43,-50,9
1491695957799,3,-13,-11,-36,-62,-18,18,19,-13
1491695957799,3,4,-20,-23,-123,-84,-76,7,-21
1491695957802,0,66,-10,-1,26,51,-23,22,36
1491695957802,0,-52,13,35,30,38,80,103,13
1491695957803,1,26,17,16,118,127,80,104,49
1491695957803,1,2,-19,-26,-34,-101,-97,-70,-49
1491695957805,2,-4,-22,-36,-81,-66,-63,38,15
1491695957805,2,-42,3,7,95,88,55,3,2
1491695957848,3,49,26,54,100,97,25,78,39
1491695957848,3,-106,-13,-30,-73,-17,33,-1,-75
1491695957850,0,76,-12,7,50,-73,-84,28,28
1491695957850,0,14,-20,-45,-103,-105,-64,14,11
1491695957851,2,-57,-2,25,114,7,53,54,-11
1491695957851,2,18,-13,-51,-57,-54,-56,-21,-1
1491695957897,3,-56,-24,-42,-21,-121,21,87,-45
1491695957897,3,9,-1,35,-6,-56,74,13,12
1491695957900,0,127,29,7,70,37,-76,11,83
1491695957900,0,-67,-8,48,119,77,127,45,45
1491695957906,1,-38,-6,-39,-128,-128,-24,-128,-75
1491695957906,1,56,13,86,94,101,44,-50,41
1491695957908,3,5,-14,33,-128,-128,-20,9,9
1491695957908,3,-5,-3,6,101,112,7,-49,-48
1491695957945,0,59,-7,17,22,-112,24,-7,30
1491695957945,0,-71,14,-16,33,127,98,47,-58
1491695957946,1,38,-51,-25,55,19,-95,-36,2
1491695957946,1,-5,29,-21,-128,-106,-74,33,3
1491695957948,2,-12,1,-15,45,99,35,29,-30
1491695957948,2,-17,6,54,-7,-120,-69,-19,-15
1491695957949,0,-27,4,-10,-32,60,32,-10,-36
1491695957949,0,-28,-11,63,71,13,-58,49,24
1491695957993,1,69,13,7,9,51,27,-108,-32
1491695957993,1,-95,-23,-106,-128,-128,53,95,41
1491695957994,2,-12,9,-16,59,57,86,-46,-46
1491695957994,2,36,-2,-11,-18,-37,-35,-1,-9
1491695957995,1,-41,-11,-23,71,-128,-128,-127,-67
1491695957995,1,35,-10,-44,-118,-96,12,17,-5
1491695957996,2,-79,-4,48,14,53,45,71,21
1491695957996,2,51,1,-35,10,6,-38,-128,-39
1491695958042,3,29,23,82,82,74,103,-2,40
1491695958042,3,-12,11,-32,10,-5,8,68,15
1491695958043,0,-8,-22,-77,-128,-96,-117,-43,-13
1491695958043,0,-30,-19,36,-70,-128,74,-9,5
1491695958044,2,31,4,7,-34,14,1,9,26
1491695958044,2,-26,-11,46,73,19,8,-17,-20
1491695958045,3,-29,-14,-126,-120,-107,60,34,35
1491695958045,3,-9,9,77,38,96,54,10,-9
1491695958091,0,40,17,-26,-39,-128,-25,63,-37
1491695958091,0,16,-27,-73,-16,28,-51,-5,15
1491695958092,1,18,12,44,95,88,86,34,28
1491695958092,1,-71,-8,-17,99,66,70,10,-4
1491695958092,3,4,-11,-72,29,-105,-64,-29,-2
1491695958092,3,22,-24,-31,-86,-79,6,32,13
1491695958093,0,56,22,27,11,-99,-30,29,27
1491695958093,0,-30,-7,1,53,79,51,80,9
1491695958140,1,30,11,1,53,-86,-81,97,37
1491695958140,1,5,10,39,-7,-59,-46,-43,-16
1491695958141,2,-78,-11,3,127,116,69,33,9
1491695958141,2,12,-22,-50,-128,-128,-128,-37,-45
1491695958143,3,14,10,25,-71,8,12,-9,-15
1491695958143,3,-1,-1,3,91,33,51,-62,18
1491695958144,0,9,19,34,-71,-21,44,12,9
1491695958144,0,23,-3,-70,-36,-27,-9,-92,2
1491695958189,1,-39,3,14,10,-10,-47,2,-4
1491695958189,1,-3,-8,50,37,-7,-37,16,-21
1491695958238,2,-17,-22,-55,-39,-36,-47,-42,-19
1491695958238,2,10,-1,-17,23,17,65,5,8
1491695958239,0,43,4,-13,23,-38,-4,0,0
1491695958239,0,-37,-1,20,25,-105,50,17,-2
1491695958240,1,-4,-19,-63,-127,11,-71,27,32
1491695958240,1,-33,13,-16,82,-24,4,13,-31
1491695958241,2,11,20,112,47,115,1,7,11
1491695958241,2,7,-4,-40,-128,-128,8,-36,25
1491695958286,3,11,-28,7,-54,-63,-40,0,-27
1491695958286,3,-37,-1,-11,19,28,56,-19,-12
1491695958287,1,-58,7,31,25,105,104,25,-2
1491695958287,1,28,-3,7,2,29,-44,-7,-34
1491695958288,2,42,-23,3,-33,-52,-11,-11,14
1491695958288,2,-72,13,25,127,127,116,47,18
1491695958288,2,-33,3,21,76,19,113,67,42
1491695958288,2,32,-21,-122,-120,-128,-128,-34,-47
1491695958335,3,-8,6,83,72,-16,60,29,-1
1491695958335,3,18,17,56,-98,-117,-55,-27,-8
1491695958337,0,39,-2,-34,-81,-19,-19,-9,5
1491695958337,0,-44,-1,36,79,76,82,43,25
1491695958338,3,19,-17,35,-25,-75,16,-10,-2
1491695958338,3,10,21,-29,33,104,35,14,16
1491695958339,0,-33,6,31,97,42,32,-12,-44
1491695958339,0,14,-27,-49,-101,-128,-99,-19,38
1491695958384,1,-4,-24,56,20,-36,-52,-21,-36
1491695958384,1,37,53,-15,65,-1,49,41,40
1491695958385,2,-36,-18,-45,72,43,30,-6,-23
1491695958385,2,38,-16,9,18,-71,-11,-18,-8
1491695958387,0,66,21,25,-89,3,54,-39,11
1491695958387,0,-90,15,19,34,91,61,16,-28
1491695958388,1,48,-4,-6,18,112,70,13,21
1491695958388,1,-58,-6,45,118,66,30,-3,-35
1491695958432,2,-14,-21,-80,-71,-22,-106,10,-5
1491695958432,2,8,3,-33,-78,-106,8,-19,17
1491695958434,3,-14,24,-27,107,-10,61,-23,8
1491695958434,3,-24,-37,38,76,127,111,25,5
1491695958435,1,-75,45,-14,50,51,118,20,-1
1491695958435,1,1,-26,4,57,34,36,-15,-18
1491695958436,2,-2,-26,85,108,13,10,29,15
1491695958436,2,115,-38,50,-28,33,-45,-14,-16
1491695958481,3,44,46,-3,-74,-50,-104,11,-5
1491695958481,3,7,-31,-71,44,-9,68,3,16
1491695958482,0,-52,-26,-1,-84,-81,2,-57,-30
1491695958482,0,-23,-6,-58,-44,12,41,51,17
1491695958483,1,-31,-2,-83,127,77,17,13,-26
1491695958483,1,16,5,96,-66,-47,-58,-17,28
1491695958484,2,-35,-35,-29,9,-3,57,-6,-4
1491695958484,2,-11,37,127,102,116,35,5,-3
1491695958530,3,16,30,74,-21,-62,35,-21,-11
1491695958530,3,2,0,-93,-128,-111,-109,-7,-3
1491695958531,0,25,-7,-101,26,-6,-10,-12,1
1491695958531,0,-8,21,-24,0,-11,-38,-19,-2
1491695958533,2,4,27,-15,-119,-118,-43,-7,-36
1491695958533,2,2,-14,-22,-17,-43,17,23,11
1491695958534,3,6,-7,-19,90,60,0,-13,8
1491695958534,3,5,10,34,-6,11,-1,2,-7
1491695958579,0,0,21,-31,-2,54,3,17,10
1491695958579,0,-26,-5,52,44,15,-23,-22,-22
1491695958580,1,5,-25,-18,1,-47,32,-1,-5
1491695958580,1,8,11,-25,-128,-103,5,-3,1
1491695958582,3,4,-15,5,35,60,1,-5,36
1491695958582,3,-10,7,-11,3,14,-21,-11,-24
1491695958583,0,9,19,38,-20,21,38,15,10
1491695958583,0,3,-18,9,-14,-43,-7,-16,-19
1491695958628,1,10,10,-9,14,67,9,31,4
1491695958628,1,5,14,-5,-61,20,21,-11,16
1491695958629,2,-15,-13,-21,-40,-69,-20,-29,-6
1491695958629,2,4,-2,-2,-15,-16,-20,-11,21
1491695958630,0,2,15,16,-48,-4,-1,15,-1
1491695958630,0,-1,-7,-57,-33,-2,-2,25,3
1491695958631,1,-5,9,44,9,-31,-47,-45,-24
1491695958631,1,2,-15,-48,12,-8,21,20,21
1491695958676,2,-10,8,67,59,74,7,1,-13
1491695958676,2,-1,5,-17,-62,-119,-85,-30,-18
1491695958678,3,-5,-34,-36,-72,-1,3,8,10
1491695958678,3,2,-6,44,41,8,46,25,5
1491695958680,1,-9,-23,-12,8,-25,33,19,3
1491695958680,1,3,17,15,15,-15,-62,-24,-10
1491695958681,2,-30,-7,-32,11,82,54,39,-3
1491695958681,2,-59,10,27,1,-47,-21,-19,-1
1491695958725,3,-52,-7,-28,-81,-28,-7,-4,-5
1491695958725,3,-27,-2,7,7,-22,16,26,14
1491695958727,0,8,4,27,68,42,22,-29,14
1491695958727,0,21,-18,-29,37,75,26,18,-23
1491695958729,2,32,-21,-17,28,10,-87,-16,23
1491695958729,2,-10,21,18,17,-11,43,33,3
1491695958730,3,-11,51,19,-26,-52,-45,-39,-31
1491695958730,3,22,23,-18,-81,-59,-37,11,-5
1491695958774,0,18,-22,-7,6,9,45,13,22
1491695958774,0,-2,-40,20,45,35,-2,-48,-23
1491695958775,1,31,-13,14,-4,19,46,55,42
1491695958775,1,-6,-15,-16,56,48,-12,-19,0
1491695958776,3,43,-3,-5,-71,-82,-45,-13,-53
1491695958776,3,3,2,-17,-23,14,-5,-61,19
1491695958777,0,-20,10,-7,80,31,-19,10,5
1491695958777,0,-33,8,-7,-110,-50,28,35,4
1491695958822,1,-42,-15,-2,111,55,2,17,-3
1491695958822,1,-10,-7,-14,-64,-30,57,8,10
1491695958824,2,-8,-3,-21,-98,-128,-70,-4,-19
1491695958824,2,69,26,11,114,108,34,1,38
1491695958825,0,-35,9,5,-16,36,-1,4,6
1491695958825,0,-18,-4,-10,-86,-39,-11,64,-10
1491695958826,1,27,0,-21,-42,-95,33,-102,-12
1491695958826,1,-36,-3,-4,-35,-24,-72,99,-1
