1491695986854,0,-61,51,-65,43,-5,56,-110,36
1491695986854,0,84,-82,1,-18,-2,-100,47,-95
1491695986857,1,27,6,31,-44,-17,-51,86,-109
1491695986857,1,-33,-18,25,-34,-14,-45,50,-113
1491695986859,2,-32,39,46,-30,0,20,107,-99
1491695986859,2,-41,27,-7,-13,-5,45,13,3
1491695986902,3,-35,1,-13,12,2,25,-30,26
1491695986902,3,-55,2,3,-13,-9,24,-9,-10
1491695986903,0,69,-16,0,2,-3,-11,-11,34
1491695986903,0,-12,15,-6,9,-1,11,-27,32
1491695986904,1,-24,-14,-3,-6,-4,-17,-14,12
1491695986904,1,-58,1,-13,11,4,16,1,16
1491695986905,2,15,-26,3,0,2,-1,39,19
1491695986905,2,-36,5,-1,8,5,-5,-11,3
1491695986951,3,0,9,-12,-1,2,20,-6,14
1491695986951,3,49,-1,14,19,-2,-10,-19,18
1491695986952,0,-101,-27,-18,-25,-7,-36,-30,-22
1491695986952,0,112,10,11,-9,-10,26,30,17
1491695986954,1,14,5,-10,4,0,-17,-35,-4
1491695986954,1,-4,-1,-11,8,13,41,46,32
1491695987000,2,84,-13,10,-10,-2,-26,22,-1
1491695987000,2,-76,14,5,7,5,5,-34,0
1491695987002,3,13,-4,-5,-8,-15,-36,-55,-29
1491695987002,3,69,-14,-10,10,5,2,29,65
1491695987003,0,-35,5,9,1,4,2,7,-21
1491695987003,0,-11,-6,-9,-1,5,27,9,5
1491695987004,2,-28,-22,-6,-8,-8,-17,-24,-28
1491695987004,2,47,5,3,6,6,28,1,24
1491695987049,3,-55,-22,-6,-9,-7,-24,-4,-25
1491695987049,3,0,15,-1,2,2,1,-6,-2
1491695987051,0,-25,1,3,3,-6,-22,-48,20
1491695987051,0,-29,-15,-2,-1,-1,-14,1,-23
1491695987053,3,-36,-7,-3,-6,-9,-14,-19,-11
1491695987053,3,71,15,6,-3,-5,8,16,31
1491695987055,0,-44,-4,6,8,10,-15,19,12
1491695987055,0,-44,-11,-14,-18,-27,-83,-66,-41
1491695987097,1,39,-25,5,18,27,75,28,7
1491695987097,1,-5,18,-3,-7,-16,-23,-22,-15
1491695987099,2,6,1,-4,-3,4,21,24,19
1491695987099,2,-36,2,1,-2,-12,-45,-72,-18
1491695987100,0,69,2,-4,-5,-4,20,11,-4
1491695987100,0,-57,15,6,0,-9,-13,-3,-7
1491695987101,1,-8,9,1,-2,-2,-20,-33,-2
1491695987101,1,31,2,-6,1,8,7,7,20
1491695987146,2,-27,2,3,2,8,13,4,-2
1491695987146,2,-18,-3,5,0,3,21,34,3
1491695987147,3,8,-5,-3,0,-3,5,21,9
1491695987147,3,80,-12,-10,-3,-4,-6,-12,-11
1491695987148,0,-97,-1,2,1,-3,-13,-8,-20
1491695987148,0,53,19,5,-4,-7,-6,-10,-3
1491695987149,1,-32,-3,-4,-2,1,17,38,13
1491695987149,1,-36,-8,-5,1,8,1,-10,-14
1491695987194,2,73,5,5,0,-6,-14,-4,-7
1491695987194,2,-33,-8,-5,-10,-10,3,0,-3
1491695987195,3,13,12,0,-1,-7,-19,6,11
1491695987195,3,17,-12,-6,-6,-4,4,0,-10
1491695987196,1,-83,-4,3,7,1,-18,-47,-24
1491695987196,1,63,6,5,5,-4,4,21,2
1491695987197,2,16,-1,-8,-13,-4,11,-21,-2
1491695987197,2,74,-14,0,5,-10,-25,-32,4
1491695987243,3,17,-7,-6,-8,-3,-9,-24,5
1491695987243,3,-22,10,3,6,16,30,44,12
1491695987245,0,55,-7,3,6,11,14,21,30
1491695987245,0,-95,-9,-1,-5,-3,4,-7,-19
1491695987247,2,-33,-14,-6,-3,-4,-6,-18,-22
1491695987247,2,-61,-10,-7,-7,1,-1,-6,9
1491695987247,3,6,-8,-1,-4,-21,-46,-28,-22
1491695987247,3,-15,8,-4,-4,6,14,-6,17
1491695987292,0,-59,-8,-4,-4,-4,5,3,-24
1491695987292,0,26,10,4,5,11,9,5,17
1491695987341,1,18,-14,-2,-5,-9,-13,-32,-17
1491695987341,1,1,-1,-4,-1,1,4,5,-1
1491695987389,3,25,3,-2,-4,4,-6,-9,6
1491695987389,3,9,-4,1,-1,1,-2,-25,-8
1491695987391,0,-31,0,-4,-8,-14,-21,8,-6
1491695987391,0,-18,-4,1,-1,-9,-13,-14,-15
1491695987392,1,-9,15,-2,1,2,17,38,11
1491695987392,1,-81,-10,-3,-1,-2,-4,-36,-17
1491695987393,2,-18,-1,2,4,5,-10,6,-12
1491695987393,2,85,2,-3,-3,1,20,-76,6
1491695987438,0,32,8,2,-2,-6,-5,-8,-2
1491695987438,0,35,-3,-2,0,-2,-9,-3,-4
1491695987440,1,-27,-1,-4,-6,-1,-15,-38,-7
1491695987440,1,111,-1,-6,-3,3,45,5,26
1491695987440,2,-18,-8,-8,-6,-5,17,-44,-1
1491695987440,2,52,24,9,13,24,4,63,30
1491695987441,3,-32,-24,-9,-5,-4,8,26,-24
1491695987441,3,22,4,0,-5,-7,-11,-52,-4
1491695987487,0,-36,-3,-3,-5,-16,-48,-49,-25
1491695987487,0,-14,13,4,5,7,34,75,24
1491695987488,1,68,3,-5,-3,-2,13,-24,-2
1491695987488,1,-92,-25,-7,-3,-5,-15,8,-11
1491695987489,2,29,3,-1,-2,-1,-9,-16,-27
1491695987489,2,-63,-13,-3,2,9,12,-22,9
1491695987490,3,33,11,4,0,0,-7,-5,-16
1491695987490,3,-13,5,-1,-6,-15,-19,7,17
1491695987536,0,59,7,0,1,10,17,1,1
1491695987536,0,-14,-9,-9,-5,1,-4,0,-1
1491695987537,1,-65,-3,5,-5,-14,-14,-22,-9
1491695987537,1,16,8,5,9,10,19,35,9
1491695987539,3,-18,-13,-7,0,5,24,-10,8
1491695987539,3,-12,-11,-12,-10,-15,-20,-15,-4
1491695987541,0,-43,4,4,2,9,15,32,-2
1491695987541,0,96,7,0,-1,-7,-6,-29,1
1491695987585,1,-10,4,3,3,5,-2,1,10
1491695987585,1,10,-14,-1,-3,-11,-14,-6,-14
1491695987587,2,-24,24,2,-2,-8,-24,-10,-8
1491695987587,2,-14,-2,6,10,23,58,32,16
1491695987587,0,-48,-14,-8,-5,-5,-2,1,-16
1491695987587,0,52,5,6,-2,-6,-15,-7,0
1491695987588,1,-41,1,13,1,-12,-12,-4,5
1491695987588,1,-74,-9,-5,4,7,10,12,-16
1491695987633,2,57,-17,-13,-7,-7,-21,-24,-11
1491695987633,2,-47,9,-1,-3,0,1,-4,-3
1491695987634,3,-18,-8,-8,-4,1,-1,17,-16
1491695987634,3,13,6,2,-15,-21,-18,-36,-6
1491695987636,1,77,0,5,1,10,14,49,38
1491695987636,1,-42,7,13,14,7,-1,-4,-12
1491695987637,2,79,7,-10,-13,-7,5,11,24
1491695987637,2,-59,-14,-3,-6,-4,-9,-1,-11
1491695987682,3,9,-2,-9,-6,-17,-32,-24,-11
1491695987682,3,-12,-3,-2,-1,3,1,-17,-10
1491695987683,0,-2,-5,7,8,-1,3,9,-1
1491695987683,0,-7,10,-10,-16,-1,5,30,-6
1491695987684,2,76,3,2,1,-7,-5,7,26
1491695987684,2,-10,1,8,4,-4,-14,-21,-6
1491695987685,3,-27,-3,0,8,14,27,-9,-8
1491695987685,3,12,3,-15,-24,-18,-48,-56,-25
1491695987731,0,-57,-3,3,-3,4,40,88,23
1491695987731,0,75,-2,-5,5,1,0,-17,2
1491695987732,1,-3,-4,5,1,-1,2,8,6
1491695987732,1,-35,-7,-8,-5,-5,-28,-39,-42
1491695987733,3,-108,-11,-3,-4,-2,0,0,-21
1491695987733,3,105,4,-5,0,-5,1,9,22
1491695987734,0,-19,2,0,-10,-10,-33,-28,0
1491695987734,0,17,-2,8,18,13,41,18,-5
1491695987781,1,27,0,-7,-9,-5,-14,-19,4
1491695987781,1,-44,-1,7,-1,2,17,28,-7
1491695987782,2,36,-14,-3,0,-2,3,-24,-11
1491695987782,2,20,-1,-11,-5,-2,-16,-3,-2
1491695987782,0,106,9,0,7,7,-2,-7,8
1491695987782,0,-58,-4,-4,-11,-1,5,-33,-19
1491695987783,1,7,-24,-7,2,5,28,30,-1
1491695987783,1,-17,3,1,-3,-6,-12,9,8
1491695987828,2,37,-4,1,4,0,-14,-31,-14
1491695987828,2,-70,-4,-3,-7,-9,-9,12,-10
1491695987829,3,-27,8,1,2,5,3,-3,-25
1491695987829,3,66,-2,6,12,9,12,13,14
1491695987830,1,-43,-3,-7,-4,10,33,40,10
1491695987830,1,18,0,-4,-3,-3,-9,-5,-12
1491695987831,2,-81,6,13,13,0,-17,-23,-14
1491695987831,2,70,3,-17,-11,4,12,8,18
1491695987877,3,11,14,4,5,-1,7,27,15
1491695987877,3,-15,-13,-11,-17,-10,-18,-31,-14
1491695987878,0,-6,9,6,11,8,21,18,18
1491695987878,0,-25,0,4,-5,-12,-35,-35,-15
1491695987879,1,30,0,2,15,7,14,17,21
1491695987879,1,-50,1,-9,-8,-2,13,7,-8
1491695987880,2,3,6,5,-1,-7,-12,-8,-22
1491695987880,2,-15,-10,-8,0,1,-8,4,-1
1491695987926,3,38,-1,11,-2,-5,-9,-13,-10
1491695987926,3,-19,-11,-10,-4,3,27,1,14
1491695987927,0,65,0,7,2,-6,-10,2,7
1491695987927,0,-11,6,-1,2,-4,-3,6,-16
1491695987928,2,-27,-1,-7,-12,-2,-5,-4,-4
1491695987928,2,-13,-11,-9,-7,-1,13,6,1
1491695987929,3,-20,3,-1,1,0,-12,-27,-24
1491695987929,3,27,2,4,6,1,0,17,26
1491695987975,0,-18,-4,-11,-10,-1,-2,-19,-8
1491695987975,0,-38,-3,23,10,0,0,19,-6
1491695987977,1,11,6,0,4,6,2,-8,15
1491695987977,1,-106,-3,-1,0,-3,-9,23,-42
1491695987977,3,-45,-1,2,-2,-9,-21,-21,4
1491695987977,3,110,17,6,3,0,-17,-35,-1
1491695987978,0,-123,-8,-7,0,-3,1,-2,-5
1491695987978,0,90,0,5,4,-1,5,17,13
1491695988023,1,39,-8,-7,-11,-13,-34,-37,-20
1491695988023,1,0,4,-7,-7,17,34,47,30
1491695988024,2,-31,-4,8,10,-6,-8,-13,-9
1491695988024,2,-38,-7,6,-4,-2,-10,-24,-16
1491695988026,0,124,17,-1,2,8,11,13,28
1491695988026,0,-78,-9,-3,1,-2,5,-1,-18
1491695988027,1,23,-9,-11,-17,-14,-13,-6,-2
1491695988027,1,-31,1,3,-2,-5,-1,-8,-6
1491695988072,2,21,-3,-1,-5,0,7,2,-5
1491695988072,2,-11,8,-7,-1,-4,-31,-38,1
1491695988073,3,-24,0,-8,-1,1,12,37,9
1491695988073,3,2,-7,2,-2,-4,-18,-23,-9
1491695988074,1,76,8,4,4,13,31,32,25
1491695988074,1,-26,2,1,-1,0,-6,-7,-7
1491695988075,2,-43,-1,9,6,-12,-19,-10,-19
1491695988075,2,-22,-1,-7,-6,-7,-10,-23,-5
1491695988121,3,-9,-5,2,3,11,9,24,11
1491695988121,3,7,-8,-1,4,-1,9,-18,-4
1491695988122,0,9,1,0,-6,3,-9,-12,-2
1491695988122,0,-39,-3,-5,-2,-3,2,1,1
1491695988123,2,-74,-4,0,-1,13,37,16,3
1491695988123,2,56,-2,-4,-1,-7,-4,-10,3
1491695988124,3,-31,7,5,5,3,-4,-10,-13
1491695988124,3,30,2,-3,-7,-8,-3,-3,1
1491695988169,0,8,-5,-2,9,10,15,17,4
1491695988169,0,-8,4,9,-5,-9,-14,-1,-7
1491695988171,1,2,4,10,7,-4,-13,-4,14
1491695988171,1,66,4,-4,1,7,20,14,20
1491695988171,3,-37,-1,-5,-6,-1,19,1,-2
1491695988171,3,-24,-8,-3,0,-8,-20,12,-3
1491695988172,0,2,-7,-5,-9,-13,-26,-33,-1
1491695988172,0,40,6,1,0,6,10,2,7
1491695988218,1,-76,-4,-2,-11,1,0,-27,-21
1491695988218,1,36,2,-1,-2,-3,-7,-2,19
1491695988219,2,-15,-5,-2,5,3,12,33,3
1491695988219,2,-45,-15,-2,2,0,0,0,-19
1491695988219,3,81,-9,-15,-15,-3,-8,-5,2
1491695988219,3,-35,-2,13,3,-5,1,3,-14
1491695988221,0,-2,7,6,-5,-13,-33,-29,-12
1491695988221,0,4,-6,-10,-3,-1,2,-9,3
1491695988267,1,-2,-7,-2,11,6,3,5,-10
1491695988267,1,-30,-10,-14,-15,-4,-5,-3,-10
1491695988267,2,18,-4,-4,-2,4,6,-24,7
1491695988267,2,25,-3,-1,-3,-9,-8,16,3
1491695988268,0,-55,3,2,-2,-1,-4,21,-2
1491695988268,0,-3,7,-1,21,6,5,-2,-1
1491695988269,1,-21,-15,1,-24,1,20,16,-3
1491695988269,1,-24,2,8,10,-2,0,-4,-4
1491695988316,2,26,-3,2,-1,-3,0,1,5
1491695988316,2,1,3,-7,-9,0,8,11,8
1491695988317,3,38,4,-2,3,-5,-23,-8,6
1491695988317,3,-47,6,8,7,-1,13,-2,-9
1491695988317,1,-23,-9,1,11,0,1,-10,10
1491695988317,1,-4,0,1,-6,5,3,0,-9
1491695988318,2,12,-9,-17,-11,-9,-9,7,-1
1491695988318,2,-16,-7,6,7,8,16,27,15
1491695988364,3,22,5,3,-6,-10,-15,-24,-20
1491695988364,3,-1,-1,3,6,0,0,19,19
1491695988365,0,-35,-2,-12,-9,-7,-19,-20,-15
1491695988365,0,37,9,4,-4,-4,-5,-8,1
1491695988366,2,20,-3,0,4,-1,-20,-33,-23
1491695988366,2,15,-7,-10,-15,-5,5,-16,-7
1491695988367,3,-24,-8,-2,-6,-10,-11,-8,-12
1491695988367,3,-2,1,-7,-7,-10,-15,-11,4
1491695988413,0,13,0,-9,-1,12,31,29,1
1491695988413,0,-13,-3,9,1,-6,-19,-8,3
1491695988414,1,64,6,-6,-6,-10,-12,-18,-6
1491695988414,1,-44,2,3,11,10,14,24,6
1491695988415,3,-37,-8,-15,-22,-10,-21,12,-12
1491695988415,3,78,5,4,11,6,22,13,24
1491695988416,0,-13,0,3,5,4,7,-6,-4
1491695988416,0,-33,-7,-13,-7,-4,-10,4,-10
1491695988462,1,-53,-6,-6,-4,-8,-6,-31,-3
1491695988462,1,94,4,9,2,-9,-13,-8,-3
1491695988463,2,-46,0,5,-5,-10,-18,-29,-5
1491695988463,2,29,-6,4,7,9,26,40,15
1491695988463,0,-17,4,4,9,11,3,-12,-1
1491695988463,0,-5,-4,-8,-15,-22,-42,-27,-23
1491695988464,1,6,4,4,10,17,36,49,31
1491695988464,1,-79,-15,-16,-6,8,16,-7,-8
1491695988511,2,29,-7,10,4,-11,-18,7,-5
1491695988511,2,2,-1,-4,0,1,5,0,12
1491695988517,3,16,1,-4,-9,2,-18,-13,-20
1491695988517,3,-27,6,6,-1,-1,1,3,3
1491695988517,1,25,-1,6,0,-9,-18,-27,-5
1491695988517,1,-10,1,4,4,1,-9,-13,-11
1491695988518,2,19,-4,-18,-3,4,21,39,13
1491695988518,2,6,6,16,1,-7,-5,7,2
1491695988559,3,-40,-5,-5,11,7,2,-14,-7
1491695988559,3,45,-9,-3,-1,-1,-10,15,13
1491695988560,0,-32,0,-3,-7,-3,-3,-12,-9
1491695988560,0,-8,6,1,-10,-9,8,1,7
1491695988561,1,29,6,0,-2,6,8,11,-20
1491695988561,1,3,1,10,0,-9,-6,-12,-11
1491695988562,2,-29,-9,-7,-4,-11,-19,-21,-3
1491695988562,2,-47,-10,-6,7,14,9,14,-5
1491695988608,3,84,-4,-11,-2,-8,-14,-2,16
1491695988608,3,0,3,15,15,11,18,11,12
1491695988609,0,32,1,-4,-20,-10,-14,-7,-16
1491695988609,0,-27,-10,-4,9,-1,0,-59,-16
1491695988610,2,16,-2,20,12,-6,-5,13,6
1491695988610,2,-11,-2,-7,4,5,-5,9,-2
1491695988610,3,-3,10,7,-1,5,19,23,0
1491695988610,3,-65,-9,1,6,-12,-8,12,-12
1491695988657,0,34,10,1,-6,4,-5,-10,8
1491695988657,0,-31,-2,-13,4,5,5,21,-4
1491695988658,1,11,1,7,-19,-19,-12,-27,-12
1491695988658,1,28,2,-8,0,13,11,20,1
1491695988659,3,-2,-5,-11,-10,-2,-1,-15,-13
1491695988659,3,-64,-11,-6,0,-8,-24,-11,-20
1491695988659,0,11,1,-2,-4,-2,3,-5,-14
1491695988659,0,26,-1,-10,-12,-7,9,58,-2
1491695988706,1,-26,3,20,19,2,1,-8,18
1491695988706,1,7,-15,-11,-15,-3,-2,-30,-15
1491695988706,2,6,8,-4,3,2,6,33,12
1491695988706,2,-14,4,13,8,0,-26,-29,-16
1491695988707,0,-27,-12,-8,-6,-6,-14,-2,1
1491695988707,0,29,5,2,-9,-5,-2,4,6
1491695988708,1,-30,-9,-6,0,2,5,-2,-1
1491695988708,1,59,1,0,4,0,7,-6,21
1491695988754,2,-16,-3,1,-6,-7,-14,12,-6
1491695988754,2,-24,7,-7,-2,1,-7,-40,-17
1491695988755,3,-12,3,8,0,-9,-4,25,-1
1491695988755,3,57,2,-4,5,11,6,-3,11
1491695988756,1,-29,-12,-23,-13,4,-3,-46,-17
1491695988756,1,-3,5,9,10,1,12,33,2
1491695988757,2,58,2,6,-3,0,1,-10,2
1491695988757,2,-8,-11,-5,3,5,15,15,12
1491695988803,3,31,6,3,7,2,-6,4,5
1491695988803,3,-6,-7,-3,-14,-19,-23,-17,-15
1491695988804,0,-31,-14,-11,0,5,-3,7,-8
1491695988804,0,7,14,8,3,4,13,-11,0
1491695988805,2,-21,-7,-7,6,7,18,28,-1
1491695988805,2,-17,-12,-2,-7,-16,-15,-7,-22
1491695988809,3,-4,-2,-10,0,12,2,3,5
1491695988809,3,-7,-7,-1,-4,-17,-24,-29,-39
1491695988854,0,-11,10,-2,-7,-1,3,-11,9
1491695988854,0,-16,-2,4,5,4,14,-25,-4
1491695988855,1,-19,-7,0,-7,-11,-14,27,-3
1491695988855,1,-22,-10,-8,-2,0,3,11,0
1491695988856,3,4,6,-3,4,0,-13,-36,21
1491695988856,3,25,-3,12,1,-4,-8,-12,-18
1491695988857,0,43,7,6,11,2,13,37,15
1491695988857,0,-23,-11,2,1,-1,-3,13,-6
1491695988901,1,-33,-14,-14,-14,-8,-25,-42,2
1491695988901,1,68,0,-17,-5,-2,8,2,11
1491695988903,2,-79,-7,15,5,1,-25,-32,-21
1491695988903,2,5,-12,-4,0,3,7,56,7
1491695988904,3,5,15,2,-4,-1,6,-7,-7
1491695988904,3,-11,-6,0,0,-3,3,-3,9
1491695988905,0,23,-4,-8,-5,-3,-4,-19,-1
1491695988905,0,-16,-4,1,-14,-8,-8,6,2
1491695988950,1,43,11,-10,7,-1,-16,4,-27
1491695988950,1,-33,7,20,11,-1,9,4,35
1491695988951,2,-21,-5,-16,-11,2,5,-10,-10
1491695988951,2,0,-1,6,7,14,19,28,12
1491695988951,0,20,-5,-1,3,-9,4,32,-3
1491695988951,0,-7,-6,-6,-3,7,4,-25,7
1491695988952,1,-79,-6,2,-1,-9,-15,19,-17
1491695988952,1,89,9,9,14,14,9,-3,0
1491695988999,2,-1,-2,-3,-13,-17,-18,-21,6
1491695988999,2,0,13,8,21,18,19,7,6
1491695989000,3,-25,-6,-10,-11,-9,-10,6,-9
1491695989000,3,-51,-19,-18,-13,-15,-15,-4,-5
1491695989000,1,18,-9,0,-1,-10,-13,-55,-11
1491695989000,1,-40,-2,-5,6,3,-5,11,-9
1491695989001,2,23,0,-10,-11,-13,-2,-30,10
1491695989001,2,34,15,1,-2,0,-8,-8,3
1491695989047,3,8,1,1,4,24,57,82,28
1491695989047,3,-29,-6,7,2,-1,-23,-38,-14
1491695989048,0,-45,-4,0,1,-1,-8,-18,-18
1491695989048,0,49,-1,-1,-2,-13,-25,-22,14
1491695989049,2,2,-3,3,0,-4,-36,-36,-3
1491695989049,2,-2,-11,1,12,0,1,9,-18
1491695989050,3,17,-4,-12,-18,-2,6,18,4
1491695989050,3,-9,-3,0,-8,-8,-16,-21,-11
1491695989096,0,-18,-6,-5,-5,-5,6,-10,8
1491695989096,0,-1,-15,-15,-15,-13,-28,-3,-18
1491695989097,1,-46,25,15,11,1,-15,-29,4
1491695989097,1,-46,-16,-12,-11,3,40,59,13
1491695989097,3,14,3,-2,-6,-6,4,14,11
1491695989097,3,24,8,12,18,17,-1,-24,-2
1491695989098,0,-14,0,3,-1,-2,-4,-20,-5
1491695989098,0,-5,8,-1,-3,-3,4,51,16
1491695989144,1,27,-19,-7,-7,-8,-17,4,-7
1491695989144,1,-17,-8,-13,-18,-19,-28,-56,-18
1491695989146,2,13,12,3,4,10,20,1,6
1491695989146,2,53,1,-3,-8,7,3,8,17
1491695989146,0,-8,7,-5,0,15,33,24,-6
1491695989146,0,-12,-10,-5,-16,-26,-41,-6,13
1491695989147,1,20,-6,-2,-10,-7,-4,10,5
1491695989147,1,-39,-4,-2,11,1,7,-22,-17
1491695989193,2,36,5,0,-3,6,-5,15,4
1491695989193,2,-26,-1,1,4,6,25,-6,1
1491695989194,3,5,-3,-7,-14,-11,-25,-29,-5
1491695989194,3,18,15,8,14,16,21,-3,2
1491695989195,1,19,6,2,5,24,34,59,1
1491695989195,1,7,7,-11,-27,-23,-14,-6,15
1491695989196,2,-17,-9,-5,0,3,0,-11,-1
1491695989196,2,-8,3,-8,13,22,21,31,-4
1491695989242,3,18,-14,-4,-16,-13,33,-30,-5
1491695989242,3,8,7,3,0,-6,-39,21,8
1491695989243,0,6,-12,-5,2,-3,-4,6,5
1491695989243,0,-33,5,2,-11,-16,-15,-5,-10
1491695989243,2,12,-8,-9,-14,-12,-11,25,-1
1491695989243,2,-4,2,6,8,1,0,-38,-11
1491695989244,3,-9,-7,-13,-8,-2,24,2,-7
1491695989244,3,-25,-17,-10,-17,-11,-40,-27,-9
1491695989291,0,-10,14,13,11,-3,-22,15,-3
1491695989291,0,-3,-6,-10,2,9,20,-2,-3
1491695989291,1,-8,-2,2,-13,-7,-3,29,10
1491695989291,1,-3,-9,-2,3,1,3,-2,-9
1491695989292,2,3,26,5,-7,-6,-4,5,4
1491695989292,2,-8,-5,-4,-5,5,-7,6,0
1491695989293,3,-22,-8,-1,13,4,16,2,-1
1491695989293,3,1,4,0,-9,-15,-5,47,-2
1491695989339,0,1,16,9,-4,-9,-11,5,2
1491695989339,0,-23,-28,-27,-33,-28,-7,-47,-29
1491695989341,1,-6,10,-1,2,26,12,-4,0
1491695989341,1,14,-2,0,8,5,-3,-17,16
1491695989341,3,-4,-9,8,29,4,-50,1,0
1491695989341,3,-9,-21,-18,-16,-8,65,-25,-14
1491695989342,0,-3,-9,1,-14,-10,-49,11,2
1491695989342,0,8,-4,-24,-11,-12,34,31,9
1491695989388,1,2,-18,3,-7,16,-25,-8,-3
1491695989388,1,4,4,-13,7,2,3,-23,5
1491695989389,2,-11,-28,-16,20,8,6,4,1
1491695989389,2,3,14,11,-37,-4,20,6,-1
1491695989390,0,8,26,39,27,4,11,-48,-3
1491695989390,0,-3,16,7,-6,-28,-61,38,2
1491695989391,1,13,18,27,-28,-1,25,-3,14
1491695989391,1,1,27,36,13,-3,-18,-83,-22
1491695989437,2,-10,-26,-61,-24,-5,-11,36,-8
1491695989437,2,3,15,31,35,30,4,9,1
1491695989438,3,-8,-45,-54,-13,-10,-1,-22,-5
1491695989438,3,13,23,-24,14,-21,9,53,10
1491695989439,1,0,55,20,-3,-12,33,-3,2
1491695989439,1,-6,-74,6,-22,-21,-65,17,-14
1491695989440,2,-6,-6,-68,-24,-17,33,1,1
1491695989440,2,-11,-66,-14,0,-4,-10,6,2
1491695989487,3,2,51,13,-24,-11,-23,-21,-11
1491695989487,3,-7,25,37,43,24,34,45,9
1491695989488,0,4,13,-16,21,8,-32,-19,-13
1491695989488,0,-10,-30,5,-38,-7,50,-4,7
1491695989489,2,-10,7,7,19,15,3,8,-15
1491695989489,2,-13,3,-43,-23,-4,63,21,-17
1491695989489,3,-27,-27,26,15,1,-85,-62,-5
1491695989489,3,48,0,-59,-15,-3,21,39,43
1491695989534,0,-92,-37,9,-21,-10,-39,-66,-30
1491695989534,0,121,63,33,34,15,-5,17,42
1491695989535,1,-18,-11,32,24,10,26,37,-19
1491695989535,1,-72,-20,-49,-18,3,26,33,-33
1491695989536,3,28,-3,-20,-53,-19,-6,-3,13
1491695989536,3,16,-29,-11,11,-13,-27,-1,7
1491695989537,0,-18,4,-28,-5,-4,31,5,-14
1491695989537,0,41,-6,17,5,5,-28,-20,12
1491695989583,1,-71,-8,-1,19,26,23,51,14
1491695989583,1,34,30,24,0,-9,-22,-5,-35
1491695989584,2,26,-39,-5,-29,-32,8,-51,21
1491695989584,2,-62,11,6,5,10,-15,5,-20
1491695989585,0,64,12,16,13,9,12,65,23
1491695989585,0,-10,-29,-33,0,-3,-3,-22,-19
1491695989586,1,-76,-1,-34,-25,-22,-82,-68,-39
1491695989586,1,48,11,46,15,33,71,33,42
1491695989632,2,23,20,26,-3,-19,-12,33,11
1491695989632,2,3,-1,-19,6,10,30,-19,28
1491695989633,3,-2,-40,-53,-21,-24,-49,27,-56
1491695989633,3,-27,10,43,3,-9,-48,-58,-7
1491695989634,0,1,26,37,10,12,28,0,31
1491695989634,0,-7,24,-28,-2,10,31,77,-15
1491695989635,1,4,-4,7,-7,-9,-3,-16,-16
1491695989635,1,24,-1,1,-5,-16,-22,-27,-29
1491695989681,2,-25,7,-19,-10,-6,-15,-35,36
1491695989681,2,-38,16,71,16,5,10,53,-8
1491695989682,3,38,-16,-40,-12,-16,-31,-80,12
1491695989682,3,-86,13,-9,-2,13,77,72,-7
1491695989682,1,-22,-1,-27,-6,0,26,4,4
1491695989682,1,2,30,49,7,-8,-43,-71,-13
1491695989683,2,-47,-35,-44,-3,16,35,10,-14
1491695989683,2,6,-22,-44,-11,-8,-60,13,-5
1491695989729,3,37,12,56,13,4,26,2,27
1491695989729,3,6,1,-20,-5,-9,-28,-41,12
1491695989730,0,-15,-14,3,3,-2,9,-11,-17
1491695989730,0,37,-5,-4,1,2,-48,-57,-1
1491695989731,2,29,-4,26,0,-6,4,6,11
1491695989731,2,-76,34,26,7,-2,-21,-56,-27
1491695989732,3,-96,-17,-21,-22,-25,-5,-26,-6
1491695989732,3,-29,-23,-35,1,18,-7,8,-3
1491695989779,0,21,0,13,4,0,24,-3,-4
1491695989779,0,2,1,-6,4,-11,-28,-11,8
1491695989780,1,-10,-8,20,-2,-17,-13,-65,-48
1491695989780,1,12,-2,-15,-18,-6,-1,-9,-5
1491695989781,3,87,5,16,28,13,-24,-36,-11
1491695989781,3,-74,-1,-8,-17,-32,20,37,12
1491695989783,0,-27,-19,-17,17,51,64,17,-61
1491695989783,0,-14,-18,-12,-24,-37,-20,-15,13
1491695989829,1,61,2,7,-15,-32,-56,-60,-19
1491695989829,1,39,3,1,21,42,-3,26,47
1491695989830,2,29,12,-2,-9,-23,-9,-11,12
1491695989830,2,-8,-8,4,1,-5,8,23,3
1491695989831,0,-3,9,4,-1,-27,-63,-30,1
1491695989831,0,25,-8,8,13,53,69,44,21
1491695989833,1,-13,-4,5,8,-4,-17,8,1
1491695989833,1,38,-8,-13,11,-14,-18,-24,-3
1491695989876,2,2,19,4,-26,-12,-13,-8,-13
1491695989876,2,-6,7,1,3,12,6,-23,-16
1491695989877,3,-25,-15,-4,4,-2,7,29,17
1491695989877,3,-15,-10,-4,-5,-2,-7,-26,-6
1491695989878,1,-25,-6,-2,3,7,16,56,-8
1491695989878,1,-11,-16,-2,-2,-6,1,-30,-11
1491695989879,2,4,42,8,-2,-20,-38,3,15
1491695989879,2,-8,1,1,22,19,15,2,-20
1491695989925,3,3,-18,-6,-12,12,36,20,1
1491695989925,3,-5,18,-2,1,-15,-36,-9,-12
1491695989927,0,5,-3,-4,-4,6,23,28,7
1491695989927,0,-9,-17,-8,-24,-15,-2,-13,2
1491695989928,2,-24,-22,-5,3,2,-48,-33,-34
1491695989928,2,11,18,6,24,-4,-28,-14,29
1491695989929,3,1,3,1,-12,0,51,19,-1
1491695989929,3,7,3,1,-21,-40,-73,-62,-25
1491695989976,0,31,-12,-7,31,55,76,83,55
1491695989976,0,12,-13,-5,-6,-1,12,-1,-8
1491695989977,1,-9,-3,-2,-5,4,-21,-25,-14
1491695989977,1,2,-10,-2,-14,-17,-6,0,3
1491695989978,2,1,13,17,14,2,-37,-27,0
1491695989978,2,-27,-2,-7,36,9,14,-8,-9
1491695989980,3,-18,5,-17,-59,-39,-21,0,10
1491695989980,3,21,-9,-5,-13,-7,-8,36,17
1491695990022,0,-11,-5,-6,-10,-5,-9,-33,-10
1491695990022,0,0,-2,4,-3,5,33,12,-1
1491695990023,1,-6,2,8,40,39,4,-6,9
1491695990023,1,-28,-14,-2,14,-2,-32,-44,-22
1491695990023,3,-8,6,-6,4,-20,-63,-62,-16
1491695990023,3,21,3,-6,-19,-1,39,40,8
1491695990024,0,31,-3,0,12,27,36,-10,16
1491695990024,0,-9,-4,-2,-14,-11,-43,-42,-20
1491695990070,1,11,27,4,-4,-23,-28,8,-8
1491695990070,1,-5,-1,2,21,46,57,2,-6
1491695990071,2,16,-6,-9,-9,-22,-1,61,21
1491695990071,2,-9,-3,-11,-13,-13,-5,12,-3
1491695990072,0,-10,16,6,-9,-19,-24,-17,12
1491695990072,0,11,13,5,5,15,11,4,3
1491695990073,1,-16,-43,-5,28,22,3,0,-6
1491695990073,1,18,-9,-3,-16,-11,10,37,7
1491695990119,2,10,-14,-3,2,-6,-9,-31,-11
1491695990119,2,-5,0,-4,-5,2,1,-3,-1
1491695990121,3,-6,-8,1,-3,-4,0,-8,1
1491695990121,3,-26,-4,-14,-19,-13,13,-8,-16
1491695990121,1,21,7,2,-2,12,37,22,-4
1491695990121,1,15,-19,0,-2,-1,-10,2,-1
1491695990122,2,-5,61,3,-6,-32,-35,-26,-6
1491695990122,2,-26,-23,-7,16,24,25,28,-2
1491695990168,3,5,5,1,-14,3,10,14,15
1491695990168,3,-10,-6,-2,13,7,-4,2,1
1491695990169,0,-22,-11,-6,-23,-17,-17,-27,-20
1491695990169,0,2,0,-2,-9,-8,-10,8,-1
1491695990172,2,-22,-11,-3,-9,-1,4,-21,-10
1491695990172,2,-6,17,3,-13,-23,-20,8,5
1491695990174,3,1,7,-1,7,6,-5,1,1
1491695990174,3,-19,-4,-2,-6,-2,0,8,-7
1491695990217,0,16,-10,-6,8,5,11,-10,-9
1491695990217,0,0,-8,-6,-17,-18,-19,-3,10
1491695990218,1,1,12,-5,-5,4,-3,-1,-4
1491695990218,1,0,7,-4,-2,-6,-1,10,20
1491695990218,3,-23,2,-5,-6,-14,-15,2,13
1491695990218,3,10,-13,-4,3,23,29,26,12
1491695990219,0,2,0,8,-4,-19,-19,17,0
1491695990219,0,-16,-2,-2,5,10,-4,-11,-1
1491695990266,1,5,-7,1,-3,-2,18,20,-1
1491695990266,1,-29,-7,-4,-1,-7,-17,-3,-6
1491695990268,2,22,-9,-11,-12,-8,-5,-26,-9
1491695990268,2,-2,5,11,3,7,3,6,-2
1491695990268,0,52,-3,-2,-10,1,16,41,3
1491695990268,0,-69,1,15,-4,-18,-9,-16,-23
1491695990269,1,46,6,-4,-8,-2,-14,-35,13
1491695990269,1,4,-21,-2,0,18,46,58,43
1491695990314,2,8,-21,-2,12,3,-16,-39,-22
1491695990314,2,-3,5,1,6,9,12,27,22
1491695990315,3,-21,7,0,-10,-10,-19,-24,-37
1491695990315,3,-42,9,5,1,-11,-17,23,4
1491695990316,0,-12,-5,0,0,2,6,-9,-3
1491695990316,0,27,2,-13,-19,-14,-9,10,8
1491695990317,1,-65,-5,-4,5,11,23,10,-1
1491695990317,1,20,6,-7,-2,-8,-20,-30,-15
1491695990363,2,41,9,0,-3,8,27,42,39
1491695990363,2,8,-11,0,9,2,-5,-11,-28
1491695990364,3,-6,8,16,8,-7,-12,0,19
1491695990364,3,-4,-1,-14,-31,-21,-28,-35,-51
1491695990364,1,15,-12,-9,-1,0,9,5,-4
1491695990364,1,-2,7,5,-1,-9,-8,-11,14
1491695990365,2,-37,24,-6,-10,-14,-25,-29,-26
1491695990365,2,18,8,-8,-12,-9,-16,-11,-5
1491695990412,3,32,-1,0,3,19,47,37,33
1491695990412,3,5,15,-4,-6,-11,-24,-34,-16
1491695990412,0,-7,-4,0,9,7,17,11,10
1491695990412,0,-63,-6,-2,-2,-1,-2,0,-13
1491695990413,2,49,-12,-12,-8,2,-5,3,3
1491695990413,2,5,5,-2,0,-8,-23,-16,-11
1491695990414,3,38,5,5,9,3,21,28,15
1491695990414,3,-79,0,-5,-8,1,11,20,18
1491695990460,0,-1,1,5,1,-11,-25,-33,-20
1491695990460,0,0,-2,-1,-8,-7,-3,-4,2
1491695990461,1,-14,-18,-7,-4,-2,11,8,-5
1491695990461,1,-9,-11,-12,-6,3,5,1,-7
1491695990462,3,5,0,-10,-14,-12,-19,-2,-3
1491695990462,3,24,-11,6,3,4,16,10,7
1491695990463,0,-95,-2,6,0,1,-3,-3,-21
1491695990463,0,65,3,-9,0,3,2,2,7
1491695990509,1,-57,3,4,5,-7,-11,-5,-6
1491695990509,1,18,7,7,3,1,-10,-17,-3
1491695990510,2,-13,-9,4,0,-4,4,28,-3
1491695990510,2,17,-9,-1,0,1,9,19,12
1491695990511,0,-26,4,-5,-3,-7,-8,15,-11
1491695990511,0,19,-9,-3,-2,-2,10,5,1
1491695990512,1,28,-5,-8,-9,-3,-17,-18,-5
1491695990512,1,-22,-11,4,0,-9,-9,-14,-1
1491695990561,2,-41,-3,5,8,1,-4,-1,-34
1491695990561,2,51,-5,-12,-5,-1,11,1,20
1491695990562,3,-16,-2,1,8,9,5,-18,-7
1491695990562,3,1,-10,6,-2,-6,-4,0,-12
1491695990563,1,3,0,2,-3,-6,-16,-7,-11
1491695990563,1,-20,0,-8,-3,-1,-5,5,1
1491695990563,2,9,7,9,8,-1,-9,-26,3
1491695990563,2,-29,-1,-15,-16,0,3,12,2
1491695990607,3,-5,-4,11,16,0,-1,3,0
1491695990607,3,-2,-4,-8,-11,0,3,11,-5
1491695990608,0,15,7,4,2,-5,5,-20,2
1491695990608,0,1,-10,8,21,15,22,21,21
1491695990609,2,6,-9,-15,-17,-14,-18,-12,-20
1491695990609,2,4,6,11,6,4,7,1,-11
1491695990610,3,-7,0,-1,1,0,-5,5,14
1491695990610,3,-18,-1,-3,-1,-3,-1,8,-1
1491695990656,0,-19,-5,10,4,2,6,-6,2
1491695990656,0,-16,-11,-9,-7,-1,-1,-2,-2
1491695990656,1,-21,0,-1,-6,-9,-19,-1,-5
1491695990656,1,82,9,0,2,6,8,-11,-8
1491695990657,3,5,5,2,3,4,0,-11,-1
1491695990657,3,-53,-9,-9,1,-1,-1,-2,3
1491695990658,0,51,1,-1,1,-6,-9,3,-7
1491695990658,0,3,1,0,-8,-7,-15,-31,-16
1491695990705,1,-3,-16,-17,-9,2,9,8,-2
1491695990705,1,-2,2,14,5,0,5,7,7
1491695990707,2,-38,-7,-11,-9,3,12,8,-2
1491695990707,2,71,7,1,3,4,0,11,24
1491695990708,3,12,3,4,4,-3,-8,-20,-9
1491695990708,3,5,17,-5,-2,6,10,28,8
1491695990709,0,0,-4,-1,-4,-8,-22,-18,-18
1491695990709,0,-44,0,0,8,-3,-12,-20,-2
1491695990753,1,33,2,-2,-8,5,22,31,14
1491695990753,1,-5,-16,-7,1,-4,-9,-12,-6
1491695990755,2,-14,4,8,1,0,-4,-4,-3
1491695990755,2,12,18,-8,-10,-4,-6,-23,-5
1491695990756,0,-48,-2,-10,-1,-6,1,1,10
1491695990756,0,-89,-21,13,28,10,15,17,-18
1491695990757,1,34,19,-10,-31,-11,-18,-40,-11
1491695990757,1,27,11,-1,5,13,14,16,14
1491695990802,2,39,5,11,-6,-3,7,-18,20
1491695990802,2,41,-16,-3,-16,-17,8,4,-1
1491695990804,3,-109,0,-6,36,21,12,37,14
1491695990804,3,-72,-16,9,-21,-58,-69,-71,-49
1491695990804,1,-14,-4,10,14,9,41,43,-19
1491695990804,1,-13,-20,-5,-19,18,14,27,14
1491695990805,2,-20,-14,-12,-5,-48,-26,15,-7
1491695990805,2,-9,28,10,-21,-34,-21,-20,-2
1491695990850,3,122,10,-4,11,37,-1,38,32
1491695990850,3,-88,-8,18,54,51,44,-31,10
1491695990851,0,-73,-14,-18,-32,-5,-11,-42,-16
1491695990851,0,2,-8,-12,-5,-1,-3,45,-32
1491695990852,2,-71,0,-17,-35,-71,-51,66,-9
1491695990852,2,61,-18,-8,15,52,34,-64,-16
1491695990853,3,-128,5,13,13,-31,-79,-27,-49
1491695990853,3,78,23,-5,-16,7,33,84,-1
1491695990949,0,3,-10,17,-2,23,18,-67,-30
1491695990949,0,-87,27,13,44,-59,36,57,22
1491695990954,1,25,-22,-17,-41,96,0,9,8
1491695990954,1,19,14,-5,16,-40,-25,-56,10
1491695990955,3,127,2,-18,-65,-103,21,-30,41
1491695990955,3,-6,30,25,9,85,19,-21,27
1491695990956,0,-88,-24,1,84,38,-48,-68,-50
1491695990956,0,39,-4,0,38,36,-34,20,-3
1491695990999,1,-110,-20,-6,-27,21,107,19,1
1491695990999,1,97,-20,-35,-63,-99,-95,-13,14
1491695991002,2,-4,18,16,18,13,18,11,7
1491695991002,2,-20,-1,5,54,89,45,-60,2
1491695991002,0,-43,-6,14,17,71,74,7,3
1491695991002,0,32,2,-24,-21,-53,-42,-8,10
1491695991003,1,57,-9,-29,-49,-52,-108,14,33
1491695991003,1,-52,-29,-20,-40,-80,5,-56,-66
1491695991046,2,74,0,7,-35,52,73,-33,64
1491695991046,2,-3,32,1,32,-43,-41,8,-14
1491695991048,3,-35,-7,19,97,41,30,16,8
1491695991048,3,4,-2,18,10,42,-4,-27,-2
1491695991048,1,-94,-21,-9,-37,-56,60,68,-28
1491695991048,1,-37,-6,-8,110,54,-33,-13,-9
1491695991049,2,106,0,10,80,41,-30,-116,51
1491695991049,2,-7,-7,5,-15,-2,-55,-15,-24
1491695991094,3,-15,21,15,-40,-42,50,50,2
1491695991094,3,89,-4,1,27,89,31,3,-27
1491695991095,0,44,12,-16,-75,-95,2,21,57
1491695991095,0,43,34,30,33,-4,-45,72,-6
1491695991096,2,-71,-26,-29,-100,-128,-128,-1,18
1491695991096,2,31,-15,-34,-5,89,70,-8,-10
1491695991097,3,4,50,51,4,-64,24,-1,16
1491695991097,3,-79,16,13,35,127,84,-3,30
1491695991143,0,74,-5,-9,87,-57,-29,35,10
1491695991143,0,-52,-8,9,-64,-76,-62,79,31
1491695991144,1,54,-36,-11,20,10,47,-84,-32
1491695991144,1,8,3,-25,-93,-87,15,74,-6
1491695991145,3,55,11,3,53,31,-121,18,28
1491695991145,3,-30,2,-23,-93,-74,37,-31,-3
1491695991146,0,-97,-11,13,-11,86,-78,34,-62
1491695991146,0,65,-11,-17,36,-71,32,-14,46
1491695991197,1,-42,7,28,-12,127,99,-20,8
1491695991197,1,-10,-8,14,84,-92,-78,-87,4
1491695991197,2,84,2,-5,-23,81,-53,90,-5
1491695991197,2,-50,-27,12,12,-63,11,-128,-70
1491695991198,0,-26,9,49,-105,-2,120,10,-5
1491695991198,0,23,-9,-7,48,84,-8,-2,16
1491695991198,1,-73,-29,7,5,6,-37,3,-21
1491695991198,1,45,15,1,-94,-70,100,-61,12
1491695991241,2,1,8,-3,105,87,-30,-3,4
1491695991241,2,-37,-20,21,-71,-99,-95,62,-20
1491695991241,3,-45,-18,-63,-40,-16,19,-21,-30
1491695991241,3,59,8,23,127,110,4,56,27
1491695991242,1,-30,2,6,127,20,-42,-40,-36
1491695991242,1,30,5,-4,-128,23,-74,-23,1
1491695991243,2,45,-18,-28,-98,-127,-1,31,47
1491695991243,2,6,-5,-13,76,127,0,1,9
1491695991289,3,71,22,86,-75,-128,99,-3,19
1491695991289,3,-94,-19,-33,125,127,-104,-29,-26
1491695991290,0,46,6,30,-69,-67,118,-27,-8
1491695991290,0,0,-5,-54,-98,-1,-39,-32,23
1491695991291,2,-1,13,-6,-1,-64,-66,-5,-65
1491695991291,2,-35,30,0,-82,-20,63,-45,-3
1491695991292,3,8,9,-22,78,50,11,119,69
1491695991292,3,30,-28,65,-100,-100,-76,-113,-44
1491695991339,0,-22,-15,-34,82,127,26,29,8
1491695991339,0,46,9,-4,-18,64,68,40,9
1491695991392,1,-73,3,5,94,36,-29,96,-7
1491695991392,1,32,-35,-55,-58,-77,2,45,-2
1491695991437,3,-16,6,-28,-77,-33,73,-95,8
1491695991437,3,31,-3,39,124,-55,-96,65,8
1491695991437,0,-24,16,26,-90,44,35,-16,-18
1491695991437,0,-83,-10,36,109,79,99,12,-16
1491695991438,1,122,-10,-33,-96,-74,-59,-2,-9
1491695991438,1,-31,-9,-86,-48,-27,-30,48,1
1491695991439,2,-36,24,40,127,55,76,-58,-16
1491695991439,2,4,14,60,75,90,-67,-21,12
1491695991485,3,92,-46,-89,-82,-83,-114,16,-39
1491695991485,3,48,6,41,-21,49,122,10,48
1491695991487,0,3,-23,0,24,-59,111,-25,-27
1491695991487,0,47,1,5,0,-59,-95,17,24
1491695991488,1,-27,-6,35,127,103,-101,97,52
1491695991488,1,-39,18,60,-127,-46,113,-102,-34
1491695991490,2,-19,8,-17,-99,-57,50,65,-6
1491695991490,2,34,-3,-47,31,84,94,24,17
1491695991533,3,2,-29,10,-9,-128,-46,-112,-17
1491695991533,3,-68,0,-27,127,85,66,64,2
1491695991534,0,37,12,40,-19,91,-37,59,22
1491695991534,0,71,-11,-28,-128,-6,-56,-33,-22
1491695991535,2,-44,-2,81,16,8,-3,-22,-23
1491695991535,2,-23,8,-21,-23,-87,-94,97,-18
1491695991536,3,-27,-2,-7,-51,-2,89,-102,-8
1491695991536,3,55,13,9,-2,112,127,-3,-1
1491695991582,0,-15,-19,-52,32,-91,59,14,13
1491695991582,0,34,-16,-6,-109,-73,-94,-32,-10
1491695991630,1,-105,9,47,127,31,76,49,24
1491695991630,1,-44,10,50,-40,86,-60,11,-45
1491695991631,3,-36,30,42,46,32,5,-15,-61
1491695991631,3,-67,9,15,-24,-27,50,29,26
1491695991632,0,-60,-1,15,102,53,-48,6,-10
1491695991632,0,-26,14,-1,-74,29,45,21,11
1491695991633,1,-4,7,3,36,-34,1,9,-11
1491695991633,1,90,-34,-61,-70,-81,-109,-36,-28
1491695991679,2,86,-30,-26,-62,-128,-70,-37,12
1491695991679,2,-49,-9,33,80,87,86,8,19
1491695991680,0,98,-14,25,-19,38,-112,-86,-11
1491695991680,0,-29,-45,-23,-127,-111,-44,-18,-32
1491695991681,1,61,0,-35,63,88,-35,-20,11
1491695991681,1,-41,23,-5,26,-69,59,20,11
1491695991682,1,92,6,-63,-128,-128,90,-28,6
1491695991682,1,28,1,-19,-19,13,69,-6,5
1491695991777,2,-50,-7,-40,53,69,4,38,17
1491695991777,2,-5,-3,56,127,109,10,13,-4
1491695991794,3,35,4,113,-20,-26,-28,33,22
1491695991794,3,-10,20,3,59,-54,-104,-37,-34
1491695991826,1,-15,6,-35,-45,-73,-63,10,34
1491695991826,1,-22,-8,51,82,127,-1,3,-12
1491695991874,2,6,15,91,86,25,49,-4,5
1491695991874,2,43,15,-8,-73,-21,-53,4,-7
1491695991923,3,-13,-1,78,122,127,91,8,-6
1491695991923,3,9,-17,-43,-10,-68,-28,-4,-3
1491695992070,0,-29,-32,-88,-120,-128,-104,-12,-24
1491695992070,0,13,-10,-65,85,112,50,2,12
1491695992072,2,2,30,-1,9,69,47,38,-11
1491695992072,2,10,5,-5,-86,-115,-58,-45,-4
1491695992073,3,-7,-13,-12,-69,-87,-34,-32,14
1491695992073,3,-12,-14,-51,47,11,51,48,34
1491695992074,0,13,-4,-69,33,8,-44,-63,0
1491695992074,0,-43,-18,-19,65,82,93,26,-15
1491695992167,0,56,-6,51,2,-33,-2,-2,-16
1491695992167,0,0,12,16,4,-9,-87,-21,7
1491695992169,1,-63,-9,0,-66,-63,-2,-3,-32
1491695992169,1,7,7,-3,49,28,-31,-29,19
1491695992170,2,-20,7,-19,18,32,1,20,2
1491695992170,2,19,-4,12,-21,17,47,17,21
1491695992171,0,-44,2,34,35,40,2,14,-1
1491695992171,0,10,-13,18,93,62,45,19,7
1491695992216,1,-37,-10,6,-10,48,40,21,-16
1491695992216,1,93,-16,-31,-56,-66,-32,29,21
1491695992265,2,110,9,21,-16,-13,-72,-67,22
1491695992265,2,-41,11,2,-6,-42,13,70,-6
1491695992266,1,-64,-2,-11,34,17,17,38,11
1491695992266,1,22,12,41,115,42,11,-11,5
1491695992281,2,51,36,21,62,72,25,19,22
1491695992281,2,-27,3,5,-15,43,28,-18,-46
1491695992282,3,64,-10,-21,-57,-44,-44,-16,7
1491695992282,3,-11,-5,-2,29,53,-37,-26,-38
1491695992313,0,-7,-13,-3,24,-13,-28,14,-6
1491695992313,0,10,-24,-16,-44,-39,-58,6,27
1491695992316,3,11,6,0,-82,-58,-10,88,2
1491695992316,3,-95,-27,-50,-30,10,30,-38,-22
1491695992317,0,76,6,-8,-66,-83,-15,-82,11
1491695992317,0,32,11,28,121,127,-18,47,27
1491695992318,0,-31,-2,-25,-43,-33,6,19,6
1491695992318,0,35,-20,-8,-60,-34,68,2,-7
1491695992362,1,35,9,28,112,127,-75,-37,37
1491695992362,1,-56,-8,-11,-25,-11,92,-5,-54
1491695992365,2,-39,7,-4,-20,-15,-59,-11,-13
1491695992365,2,65,7,38,64,9,19,-4,-4
1491695992367,1,-31,10,10,6,-1,76,-31,-21
1491695992367,1,54,-2,-4,27,52,52,62,-15
1491695992368,2,34,-10,-16,17,19,0,-16,12
1491695992368,2,-18,30,22,-36,-73,-93,-34,8
1491695992411,3,-50,-14,-13,23,63,-45,-46,-19
1491695992411,3,-22,2,3,-25,-78,40,-57,-33
1491695992412,0,-7,2,-2,17,-9,40,97,44
1491695992412,0,42,-6,-18,-24,49,-13,-6,15
1491695992413,2,-119,-28,-22,-20,-25,24,-33,-60
1491695992413,2,59,31,34,1,-16,17,-17,5
1491695992414,3,0,-11,-5,16,23,-76,-1,2
1491695992414,3,12,-5,-2,36,34,25,-30,11
1491695992459,0,43,-7,-5,-27,-46,-94,11,5
1491695992459,0,-22,-14,-31,-70,-63,40,3,-36
1491695992508,1,27,22,6,35,66,21,40,15
1491695992508,1,44,5,23,16,-17,-47,-33,28
1491695992510,2,-43,2,-1,35,82,117,-6,-40
1491695992510,2,5,-8,-30,-61,-71,-58,-61,-7
1491695992511,3,75,-8,-9,-34,-22,36,-3,38
1491695992511,3,-82,2,11,1,13,74,40,-15
1491695992512,0,61,-4,16,17,-30,-92,-3,28
1491695992512,0,43,-12,-6,41,56,68,-4,7
1491695992557,1,-18,-4,-5,10,27,32,59,9
1491695992557,1,32,6,-6,-31,-31,-42,-3,35
1491695992558,3,9,0,3,38,-9,-40,3,-27
1491695992558,3,-18,11,5,-16,32,43,-3,16
1491695992559,0,-27,50,-14,-33,-7,-17,2,-19
1491695992559,0,22,-3,-20,-5,-67,-65,-22,12
1491695992560,0,125,4,24,8,-30,-46,-61,15
1491695992560,0,-32,9,10,59,71,127,127,81
1491695992606,1,-32,-17,-1,31,77,-15,-19,-64
1491695992606,1,6,-5,-18,-48,-55,-49,-5,24
1491695992654,2,62,-11,-36,-29,-50,-24,-22,-4
1491695992654,2,10,-14,-42,-51,-34,-109,6,12
1491695992656,1,-28,-28,-18,-33,-34,10,-1,6
1491695992656,1,39,-2,0,26,0,-22,20,-11
1491695992657,2,-6,-13,-23,1,-25,44,-1,10
1491695992657,2,-21,-7,-5,0,14,-72,-69,-11
1491695992658,3,48,9,-2,-11,12,108,28,45
1491695992658,3,22,8,5,23,9,36,44,17
1491695992703,0,20,-6,-4,-39,-40,-15,0,-9
1491695992703,0,0,1,-13,16,19,-4,25,-8
1491695992705,2,-33,-8,-1,-23,33,69,82,-9
1491695992705,2,11,19,112,28,2,-17,-23,30
1491695992706,3,-26,-19,-4,-28,-19,-48,-49,-20
1491695992706,3,-11,-7,-10,12,22,41,41,-11
1491695992706,3,23,-1,-6,-11,7,-19,-31,-11
1491695992706,3,13,15,13,-19,-60,-92,40,-15
1491695992752,0,-82,-18,-14,-7,-20,24,-7,-1
1491695992752,0,68,23,-14,-30,-6,-28,7,44
1491695992753,1,-71,-7,-11,16,15,14,-8,-38
1491695992753,1,-12,-18,12,1,-1,42,-15,-13
1491695992753,0,41,17,19,54,25,-32,-9,8
1491695992753,0,-25,-14,-18,-41,-59,-59,-65,-37
1491695992754,1,-1,2,-13,-30,-32,41,49,31
1491695992754,1,35,-13,-18,11,63,-10,-60,-26
1491695992800,2,-19,-12,-7,-61,-59,-17,65,11
1491695992800,2,44,3,3,12,34,33,-24,13
1491695992801,3,69,6,2,42,7,41,-49,1
1491695992801,3,-44,-2,10,-7,7,-87,6,9
1491695992802,0,-5,7,-20,-38,-54,14,37,14
1491695992802,0,-72,-13,3,12,1,62,-44,-23
1491695992803,1,59,24,11,23,-18,-78,22,27
1491695992803,1,21,-9,12,0,39,40,-20,-21
1491695992849,2,14,7,13,53,52,-41,25,14
1491695992849,2,-14,-5,-6,-76,-11,59,-12,-15
1491695992850,3,-26,-27,-42,32,58,-55,-45,-13
1491695992850,3,67,28,37,-24,-62,89,77,93
1491695992851,1,-58,-32,-28,-69,22,-14,31,-48
1491695992851,1,65,13,8,70,60,-69,-43,6
1491695992852,2,-67,-6,-16,-21,-2,96,-60,-12
1491695992852,2,31,-14,14,32,-24,-79,5,-3
1491695992898,3,-35,-11,2,-21,-34,103,3,-20
1491695992898,3,49,-11,-13,-43,-36,-64,43,4
1491695992899,0,-38,-3,-6,34,89,52,-2,-9
1491695992899,0,92,11,0,126,19,3,-73,34
1491695992900,2,71,-5,-18,-21,-91,11,-38,24
1491695992900,2,-128,-4,2,6,70,-20,5,-71
1491695992901,3,127,23,20,65,14,-51,58,71
1491695992901,3,-128,-10,-8,-12,-44,105,30,4
1491695992947,0,-44,-29,-41,-114,-48,73,-27,-41
1491695992947,0,111,11,5,90,76,-119,47,43
1491695992948,1,-119,13,30,23,-1,94,-50,-9
1491695992948,1,-62,-17,-30,-76,-44,-14,-14,-34
1491695992949,3,9,-2,18,-26,-19,-116,-3,-10
1491695992949,3,-16,1,-23,13,0,-4,-104,-15
1491695992950,0,25,-5,17,100,76,103,54,14
1491695992950,0,9,1,-26,-128,-46,-11,48,-9
1491695992996,1,-38,25,11,3,-25,32,-22,3
1491695992996,1,46,-12,7,32,-17,21,-46,-6
1491695992997,2,-43,12,7,-29,-11,-20,-2,20
1491695992997,2,-4,-15,-37,61,24,-16,-3,-10
1491695992998,0,-21,29,26,95,117,9,-56,26
1491695992998,0,-46,-1,12,45,-27,-81,-39,-52
1491695992999,1,4,-15,-40,-80,0,127,69,14
1491695992999,1,47,2,-20,21,-50,-69,20,13
1491695993045,2,20,9,9,-68,-33,-96,0,3
1491695993045,2,17,-10,18,3,-13,127,-28,17
1491695993046,3,-49,-28,-49,127,89,-108,-41,-47
1491695993046,3,0,31,56,-86,-68,60,24,-29
1491695993048,1,-18,6,-15,60,125,72,11,6
1491695993048,1,52,-10,15,14,-34,-99,-69,-7
1491695993049,2,-85,-28,-22,-15,13,94,-23,-53
1491695993049,2,69,0,-7,-104,-30,-117,102,66
1491695993096,3,-10,11,12,38,77,98,-23,-29
1491695993096,3,-59,16,-27,30,-27,30,38,-10
1491695993097,0,9,23,96,-29,-56,63,53,56
1491695993097,0,-50,-23,-43,99,110,-3,-81,-37
1491695993099,2,-71,7,7,79,89,69,30,-9
1491695993099,2,-22,33,54,9,-86,-70,-88,-40
1491695993101,3,58,-6,14,-76,-100,70,82,49
1491695993101,3,26,-16,-15,92,41,9,-6,12
1491695993191,0,-17,-14,-14,-104,-121,22,43,-2
1491695993191,0,-39,2,0,0,-20,42,-81,-38
1491695993192,1,-12,-1,15,-17,0,3,52,23
1491695993192,1,50,9,3,-39,-83,-77,-52,22
1491695993193,2,-56,3,30,62,123,109,28,-15
1491695993193,2,22,-4,-20,53,-27,-96,-5,-36
1491695993194,3,35,-19,-12,-79,-127,-29,36,41
1491695993194,3,-33,16,-13,-75,75,105,73,-12
1491695993239,0,26,-4,-20,127,113,-11,-56,20
1491695993239,0,-5,-14,21,-128,2,-26,92,-4
1491695993241,1,17,-13,-110,-92,-67,-82,-34,-43
1491695993241,1,-67,26,93,9,-26,84,7,50
1491695993242,0,54,-21,-88,-109,-128,-124,-49,-4
1491695993242,0,2,-18,-26,32,72,89,-32,-39
1491695993242,1,12,-29,-30,-3,-122,-47,-34,-12
1491695993242,1,-11,-18,0,-44,11,90,33,19
1491695993288,2,-3,11,82,87,42,34,82,43
1491695993288,2,-51,9,32,10,-3,30,-12,-29
1491695993290,3,-44,26,-49,127,127,5,43,-14
1491695993290,3,-2,7,34,-63,-67,-122,-18,-39
1491695993291,1,49,8,40,127,127,-21,14,66
1491695993291,1,-59,-2,-17,22,-70,-5,-70,-22
1491695993292,2,-57,-24,-19,-35,32,-10,10,-27
1491695993292,2,58,-8,-69,-112,-111,-56,-97,-24
1491695993337,3,-5,-15,-20,-80,-29,59,4,-8
1491695993337,3,-2,12,78,120,127,-20,74,38
1491695993339,0,-16,8,105,52,79,14,8,-33
1491695993339,0,-24,-10,-62,-77,-73,-19,-57,10
1491695993340,2,-29,-13,4,112,77,37,-16,18
1491695993340,2,-24,27,95,12,15,111,41,25
1491695993341,3,-38,-18,-39,77,-7,45,0,-15
1491695993341,3,-12,17,10,-40,-99,-34,14,-17
1491695993386,0,83,-12,-50,-16,-40,-117,-86,-23
1491695993386,0,-40,-16,32,71,80,95,79,24
1491695993387,1,-19,12,87,-98,27,45,-50,4
1491695993387,1,-8,4,-39,-18,13,-18,-9,-11
1491695993388,3,-36,-14,-23,-3,-79,42,44,10
1491695993388,3,-12,-30,-16,-11,14,-30,-60,-52
1491695993389,0,100,9,65,-47,-127,-102,-41,29
1491695993389,0,-30,13,-64,-13,-59,-26,47,-28
1491695993435,1,20,7,37,46,93,-3,53,25
1491695993435,1,-71,9,-8,121,-46,127,-48,-26
1491695993436,2,27,-25,-35,-114,-85,-33,-38,-52
1491695993436,2,-7,22,35,100,-21,2,39,9
1491695993437,0,-16,26,81,87,-25,37,-51,9
1491695993437,0,8,-25,-79,19,53,-85,-56,-18
1491695993438,1,-7,19,123,3,-18,69,32,2
1491695993438,1,4,-21,7,127,127,-9,3,19
1491695993483,2,-47,6,-69,-80,-80,58,3,-43
1491695993483,2,44,-34,5,-91,-97,-77,-30,19
1491695993485,3,33,-12,-2,119,80,-7,-38,12
1491695993485,3,-3,1,32,-16,16,-5,6,9
1491695993486,1,-12,15,9,-33,-49,-73,-47,-27
1491695993486,1,50,-13,-31,5,-27,28,-5,5
1491695993487,2,-54,15,40,41,33,25,14,36
1491695993487,2,-5,15,23,37,19,98,18,-3
1491695993532,3,15,-35,-14,30,25,-83,-19,-7
1491695993532,3,31,2,-64,-109,-112,-27,11,-11
1491695993533,0,-56,-15,-26,88,18,-90,-19,4
1491695993533,0,30,12,-2,-71,101,34,-5,3
1491695993535,1,-51,14,5,127,-47,60,39,-5
1491695993535,1,22,-36,77,-128,47,-3,-74,-7
1491695993536,2,-4,-72,-27,53,-9,-42,64,-12
1491695993536,2,13,-29,25,-65,-91,-50,-23,13
1491695993581,3,18,-11,-42,34,21,-17,13,6
1491695993581,3,-39,49,114,76,4,75,39,4
1491695993582,0,20,55,-3,124,111,52,40,-12
1491695993582,0,-51,12,-73,-40,36,95,1,17
1491695993583,2,-5,13,-49,-7,63,68,-24,-6
1491695993583,2,4,-1,14,50,-45,-52,64,10
1491695993583,3,-26,2,-50,36,101,40,-26,27
1491695993583,3,-16,-2,10,66,40,14,-2,-27
1491695993629,0,2,13,-12,-128,-102,-52,8,10
1491695993629,0,-10,-6,20,45,-17,47,-5,6
1491695993631,1,-5,6,7,81,86,-8,-4,0
1491695993631,1,34,-10,-18,39,-57,-44,11,24
1491695993636,3,38,12,80,12,41,35,30,3
1491695993636,3,39,-23,-50,-93,-99,-57,-82,-6
1491695993637,0,43,-18,-89,-95,-43,-72,-37,-9
1491695993637,0,13,14,-5,75,63,58,26,12
1491695993679,1,-40,0,70,-30,2,25,15,-10
1491695993679,1,-19,20,-11,22,81,100,6,-23
1491695993680,2,35,-24,41,87,80,16,8,10
1491695993680,2,-16,-28,-62,-8,-23,-24,-17,-35
1491695993681,0,11,-12,59,93,28,33,20,10
1491695993681,0,-22,17,-52,-49,21,23,-12,-21
1491695993682,1,-98,-12,17,-44,-71,-39,-11,-22
1491695993682,1,-99,-2,49,40,36,-15,14,35
1491695993727,2,-124,-44,63,-11,-11,-73,-8,10
1491695993727,2,-48,57,8,-22,9,-10,6,6
1491695993728,3,23,32,27,-10,42,14,-17,5
1491695993728,3,-7,13,99,-5,-14,-4,29,15
1491695993729,1,3,0,-124,-42,-46,-23,-14,-23
1491695993729,1,-35,15,-87,58,48,39,35,14
1491695993730,2,-8,-5,-64,-96,-64,39,4,1
1491695993730,2,12,-18,2,-27,-25,-28,-55,-2
1491695993776,3,20,15,-4,33,-26,16,-36,10
1491695993776,3,30,-7,26,46,21,73,28,-2
1491695993777,0,6,15,-43,46,64,33,-22,3
1491695993777,0,42,-8,0,0,-19,-43,-13,8
1491695993778,2,-9,-9,-24,-6,-25,-6,5,-6
1491695993778,2,-1,16,85,99,63,13,17,-1
1491695993779,3,-11,-28,-35,24,119,48,26,5
1491695993779,3,-9,-4,8,-128,-116,-106,-56,-9
1491695993824,0,21,14,-44,-54,-77,-18,23,-7
1491695993824,0,-12,26,29,49,54,40,-11,2
1491695993826,1,1,-19,-11,-18,8,8,17,-8
1491695993826,1,-3,-14,-18,-23,23,31,11,1
1491695993827,3,21,18,-4,44,23,10,46,13
1491695993827,3,-27,-3,25,18,25,52,4,-15
1491695993828,0,1,-2,-41,-44,-69,-94,-49,-4
1491695993828,0,45,12,13,-2,-25,-21,23,39
1491695993876,1,-18,-9,14,43,27,19,-2,-7
1491695993876,1,39,-2,-29,-22,30,31,7,4
1491695993877,2,79,0,-18,-19,-34,-11,-31,-13
1491695993877,2,1,3,47,10,14,-4,-5,-11
1491695993878,3,-5,-17,-34,-29,-22,-37,-31,2
1491695993878,3,-40,4,-24,-20,-35,-1,37,15
1491695993879,0,-45,3,23,29,33,40,17,-5
1491695993879,0,-34,-23,-2,-13,11,-2,19,-11
1491695993922,1,-25,-1,-3,11,0,-44,-53,-27
1491695993922,1,-8,-9,-15,28,-20,-23,-10,24
1491695993923,2,-49,-2,-4,-57,-7,14,27,-15
1491695993923,2,-16,2,11,7,16,21,16,-1
1491695993924,0,76,-3,0,11,3,-47,-18,2
1491695993924,0,-45,-10,5,27,39,77,26,-3
1491695993925,1,-27,6,-19,-64,-76,-80,-29,-9
1491695993925,1,-119,0,-11,7,13,33,20,22
1491695993971,2,-128,-4,23,33,49,23,-1,-1
1491695993971,2,7,9,7,18,-7,-89,-31,-26
1491695993972,3,-15,-10,-15,-16,-8,32,12,9
1491695993972,3,-5,4,5,-49,-23,18,31,-10
1491695993973,1,-58,12,61,64,56,36,7,-1
1491695993973,1,-16,16,1,2,-48,-39,11,-11
1491695994019,2,-51,-10,-13,-34,-18,6,-48,-3
1491695994019,2,31,-8,1,-39,-29,-28,7,0
1491695994021,3,78,6,-22,7,25,28,-8,16
1491695994021,3,12,-9,2,21,19,67,13,-18
1491695994022,0,0,-10,1,35,21,-49,-11,22
1491695994022,0,4,8,20,-23,-46,59,27,-13
1491695994023,2,9,5,-4,7,-3,-7,-23,-23
1491695994023,2,-45,18,28,23,15,7,-17,8
1491695994069,3,-22,-4,19,43,44,45,32,13
1491695994069,3,-44,-11,-16,-3,21,-40,0,-24
1491695994071,0,-35,-4,-13,-46,-13,50,16,6
1491695994071,0,54,5,18,35,16,-77,-24,-10
1491695994071,1,-16,-2,-11,-8,-78,84,38,14
1491695994071,1,29,-13,-12,-1,16,20,-21,15
1491695994072,3,28,10,-9,20,-7,-84,-23,-9
1491695994072,3,25,-1,25,62,28,-20,-8,-9
1491695994117,0,-43,-3,12,26,10,98,-13,-33
1491695994117,0,31,0,-12,2,31,75,18,31
1491695994118,1,70,-9,-19,-89,-72,-91,-15,9
1491695994118,1,42,4,-7,-69,-27,-7,-31,-1
1491695994119,0,27,-6,-6,-10,-42,-102,-13,-9
1491695994119,0,-38,4,4,49,-4,38,21,0
1491695994120,1,-8,-2,7,56,127,60,-5,12
1491695994120,1,35,-21,-34,-120,-128,-74,-32,-25
1491695994166,2,31,6,-1,11,16,-8,10,8
1491695994166,2,27,-20,-16,-20,0,29,-1,17
1491695994167,3,62,40,25,57,47,-35,-7,-32
1491695994167,3,-39,-22,-21,-6,-52,12,-2,30
1491695994167,1,-84,8,7,62,49,121,48,2
1491695994167,1,-37,-11,9,-32,31,48,4,3
1491695994168,2,107,-5,-13,-15,-109,-107,-16,3
1491695994168,2,-44,9,5,3,40,75,-25,-6
1491695994217,3,54,-16,-16,-22,-3,73,-38,11
1491695994217,3,70,33,9,4,-65,-100,-23,-15
1491695994218,0,-113,1,4,17,53,69,59,-5
1491695994218,0,-1,14,19,25,27,12,6,-33
1491695994220,1,-81,-4,-8,-9,-35,21,88,15
1491695994220,1,49,-14,-15,-68,-73,-94,-128,-15
1491695994221,2,18,-13,2,20,69,18,-2,4
1491695994221,2,-11,-7,-12,-5,3,-5,77,1
1491695994264,3,9,-8,16,57,46,-118,-81,-36
1491695994264,3,-72,8,13,35,27,123,102,27
1491695994265,0,41,-4,-9,2,-13,6,-19,33
1491695994265,0,-58,-26,-22,-39,-6,-82,-68,-43
1491695994267,2,-36,3,10,40,16,18,5,-19
1491695994267,2,-4,3,5,62,77,10,71,57
1491695994268,3,56,-13,-5,-45,-31,28,-22,-30
1491695994268,3,23,-4,-4,-9,19,-128,-44,-5
1491695994312,0,-18,7,-3,21,42,125,12,-33
1491695994312,0,-33,1,0,-66,-120,-54,-8,-21
1491695994313,1,74,-16,-9,11,70,-12,-35,31
1491695994313,1,-25,7,11,116,54,-31,100,20
1491695994314,3,0,2,-8,29,17,-35,11,14
1491695994314,3,-40,-3,19,24,21,103,32,-19
1491695994314,0,6,5,10,61,44,-70,-35,-27
1491695994314,0,40,-7,-23,-80,-66,43,-44,39
1491695994360,1,-1,11,7,-9,-36,55,64,32
1491695994360,1,-17,-5,3,50,72,27,28,-11
1491695994361,2,-28,-6,-20,17,-23,-92,-56,-53
1491695994361,2,52,-3,-10,-49,9,63,-69,25
1491695994362,0,79,-3,2,21,13,-57,48,70
1491695994362,0,38,11,8,13,-15,-47,-72,15
1491695994363,1,-24,-8,0,-9,-26,16,-20,-57
1491695994363,1,22,11,8,25,31,-21,0,0
1491695994409,2,-106,-1,20,24,33,113,58,-2
1491695994409,2,123,4,-7,-27,3,20,2,-4
1491695994410,3,-110,-12,-22,-10,-26,77,42,5
1491695994410,3,-15,22,-42,-33,-52,-80,-40,-11
1491695994411,1,13,-1,20,-81,-27,-62,-13,26
1491695994411,1,17,-32,-14,-10,6,43,-28,-4
1491695994412,2,-20,-10,-30,-27,-6,-24,-18,10
1491695994412,2,-10,7,-62,26,31,70,19,-9
1491695994458,3,59,16,-9,38,-36,-116,-37,-5
1491695994458,3,-28,7,45,-26,-8,-10,-5,24
1491695994459,0,-12,8,20,-26,-11,-15,-29,-25
1491695994459,0,-10,13,31,20,42,22,-14,-16
1491695994460,2,-33,-13,1,-8,2,-53,40,10
1491695994460,2,-41,-7,2,-19,-25,44,-15,-31
1491695994461,3,29,-12,-28,11,-7,-72,-29,7
1491695994461,3,-46,-6,-50,17,-8,49,27,-15
1491695994555,0,44,-7,-42,-44,-25,19,12,17
1491695994555,0,34,-14,45,-32,-37,-12,24,-4
1491695994556,1,-8,-16,69,-3,21,7,3,16
1491695994556,1,-6,-2,45,11,33,59,34,-14
1491695994557,3,-20,20,2,-22,17,106,-17,-7
1491695994557,3,3,-10,-13,13,-15,-73,-16,-11
1491695994558,0,-3,-1,0,19,-2,77,1,-17
1491695994558,0,37,7,3,6,15,-126,21,16
1491695994604,1,49,6,-2,1,29,49,-7,17
1491695994604,1,-79,-10,-119,-12,-28,56,4,-14
1491695994605,2,0,-6,41,18,20,-68,19,-24
1491695994605,2,36,12,118,-5,-8,-41,-21,28
1491695994606,3,-7,0,42,-48,-37,-6,10,-30
1491695994606,3,56,14,4,-14,-3,-32,-9,38
1491695994607,0,5,4,-5,-15,5,-3,25,26
1491695994607,0,-27,12,20,10,1,10,-43,-17
1491695994653,1,30,-13,-8,10,-12,-74,-35,-17
1491695994653,1,17,-2,8,-8,2,4,8,4
1491695994655,2,11,-20,-14,-21,-22,19,29,5
1491695994655,2,-14,9,-29,-10,-6,4,-19,-20
1491695994655,1,7,-2,-16,25,17,-39,42,28
1491695994655,1,17,2,35,0,14,18,-17,-7
1491695994656,2,-82,-4,-7,2,16,57,19,-7
1491695994656,2,80,-8,4,30,-11,-30,11,37
1491695994702,3,34,0,-2,-27,18,44,-14,-21
1491695994702,3,-24,5,-3,-29,-87,-81,-31,-6
1491695994703,0,-6,-8,-17,-24,18,47,56,-28
1491695994703,0,8,-1,9,31,2,-71,-37,-10
1491695994704,2,-40,-1,2,-9,-65,-53,-86,-50
1491695994704,2,-17,4,-7,-6,69,107,113,40
1491695994706,3,-41,-7,-3,39,8,-24,-9,-17
1491695994706,3,7,6,8,-7,26,63,87,35
1491695994751,0,16,-7,-8,-19,-54,-68,-103,-8
1491695994751,0,-26,6,-1,11,54,43,15,-23
1491695994752,1,-4,-6,-9,-30,-51,-92,-48,-33
1491695994752,1,-71,-14,8,57,9,24,-47,-2
1491695994753,3,90,4,-8,12,-7,-56,-33,25
1491695994753,3,-96,-23,-27,-15,17,-30,50,-35
1491695994754,0,104,-11,-24,8,-46,-30,2,31
1491695994754,0,-78,1,-2,-42,-73,-18,-20,-20
1491695994799,1,-48,3,16,74,106,127,77,-11
1491695994799,1,-7,9,18,65,-35,-10,-76,-13
1491695994807,2,-23,-10,13,-80,-24,0,25,16
1491695994807,2,-17,7,-14,99,83,-38,38,15
1491695994808,0,-4,11,17,-21,77,88,48,26
1491695994808,0,6,-13,-20,-35,-94,29,-54,-48
1491695994809,1,-9,7,-4,-4,5,-62,59,52
1491695994809,1,87,1,0,-32,-60,-57,5,12
1491695994848,2,-27,11,50,67,116,89,19,-16
1491695994848,2,35,-21,-26,89,10,-128,-30,-7
1491695994850,3,32,-21,-48,-89,-94,127,-8,18
1491695994850,3,-38,9,-16,-87,-12,63,-35,-41
1491695994852,1,34,21,19,70,28,34,-103,-29
1491695994852,1,-20,-41,-49,-66,-60,-102,36,-4
1491695994852,2,6,4,-8,-89,-62,127,109,10
1491695994852,2,21,-3,67,87,11,-37,-23,0
1491695994897,3,-103,3,-26,-51,67,60,42,-18
1491695994897,3,47,-7,-33,-83,-50,-58,57,29
1491695994898,0,33,36,6,66,-8,37,21,-10
1491695994898,0,45,-15,-53,-5,32,-18,-20,34
1491695994899,2,40,-12,19,34,1,-128,-35,-20
1491695994899,2,-49,13,-44,-128,-103,4,9,-1
1491695994900,3,109,3,-10,73,61,-19,-54,27
1491695994900,3,-49,9,61,94,111,69,22,23
1491695994946,0,-86,1,-5,-34,33,92,35,0
1491695994946,0,87,11,-1,-42,-117,68,-11,28
1491695994947,1,-83,-27,-23,-123,-59,-59,-81,-84
1491695994947,1,112,-11,-1,-30,-58,12,54,28
1491695994948,2,-41,17,38,116,116,-66,-128,6
1491695994948,2,-7,-15,-24,-48,-63,31,17,-26
1491695994948,3,-14,-16,-18,-78,-51,45,95,9
1491695994948,3,26,10,-24,3,91,-52,-96,-49
1491695994994,0,-70,2,-18,-116,-112,127,49,35
1491695994994,0,-38,-16,-24,-54,-55,-121,-104,-48
1491695994995,1,67,13,16,103,51,56,79,53
1491695994995,1,-16,-16,3,72,98,-37,35,12
1491695994996,3,26,-10,-21,-10,-97,-4,-30,-43
1491695994996,3,-12,-4,14,-97,-112,-99,-114,-92
1491695994997,0,63,-15,-87,-96,30,5,71,9
1491695994997,0,-21,-2,38,101,19,-1,7,49
1491695995043,1,4,-4,31,4,127,-128,-45,-13
1491695995043,1,22,21,59,86,-56,127,87,31
1491695995044,2,46,-4,-59,-116,-89,-128,-110,-14
1491695995044,2,28,11,48,56,-29,104,-6,1
1491695995045,0,-73,-36,-15,-35,-72,37,42,-14
1491695995045,0,-23,21,-26,-6,106,45,113,11
1491695995046,1,94,-5,-1,0,-96,-45,-109,10
1491695995046,1,-58,8,10,-77,-12,-13,-20,10
1491695995092,2,-48,6,16,68,66,117,60,41
1491695995092,2,52,-18,5,67,39,-115,-6,1
1491695995093,3,-101,20,-75,-59,108,49,3,-26
1491695995093,3,-6,-33,-17,-74,-99,-14,30,-35
1491695995094,1,93,17,37,79,8,-83,89,32
1491695995094,1,-91,-19,-38,34,112,-60,-33,-51
1491695995095,2,64,2,6,110,82,-18,-48,-29
1491695995095,2,-79,-4,10,-128,-128,67,53,-31
1491695995141,3,65,-17,-74,-93,-115,-56,-6,30
1491695995141,3,21,17,11,50,90,127,47,34
1491695995142,0,45,22,27,51,-34,20,-28,6
1491695995142,0,48,1,32,-65,-41,11,-39,14
1491695995143,2,44,-27,-44,-82,-37,-108,-72,-2
1491695995143,2,13,-7,-33,-7,67,74,79,21
1491695995144,3,-49,3,1,-42,-12,101,64,-9
1491695995144,3,-58,7,69,111,127,1,-2,-22
1491695995190,0,87,10,-42,-37,0,-4,27,24
1491695995190,0,-70,-6,49,-51,-128,7,-25,-44
1491695995191,1,96,-9,-2,42,-98,-55,-33,32
1491695995191,1,-84,27,-6,-72,22,111,84,31
1491695995193,3,-35,9,1,91,127,113,83,27
1491695995193,3,106,23,22,-90,-128,30,-127,18
1491695995194,0,-82,-23,24,-21,-29,15,89,-13
1491695995194,0,22,2,-30,-63,-54,-75,-61,-10
1491695995240,1,-17,-28,-58,-89,1,-8,64,5
1491695995240,1,-8,-3,62,70,86,-72,-19,31
1491695995241,2,-77,11,-27,-74,32,121,23,-20
1491695995241,2,-17,-22,-9,127,86,-53,-35,-9
1491695995242,0,7,-3,50,92,65,-6,4,14
1491695995242,0,-11,26,8,124,95,102,11,24
1491695995244,1,-105,17,83,127,127,126,61,-10
1491695995244,1,66,-28,-79,-103,-128,-128,-8,-44
1491695995287,2,8,-5,52,5,-84,-54,-33,7
1491695995287,2,-19,1,-58,52,99,76,46,18
1491695995288,3,-3,-9,-5,31,-26,-36,-36,-3
1491695995288,3,-39,23,44,108,82,75,109,22
1491695995288,0,22,-11,-8,51,-46,-85,-81,-46
1491695995288,0,-13,15,21,-110,-69,74,57,6
1491695995289,1,-34,-22,-2,-53,-64,-27,8,-8
1491695995289,1,64,-13,-99,-123,-128,40,-46,-10
1491695995336,2,-5,-3,6,111,125,-18,27,5
1491695995336,2,30,20,90,121,85,71,46,44
1491695995336,3,-65,15,-65,-6,-41,105,22,8
1491695995336,3,62,-14,46,-19,-77,-128,-76,-48
1491695995337,1,28,7,-49,88,102,75,-4,31
1491695995337,1,-19,0,47,56,-34,-20,15,-5
1491695995338,2,-19,9,31,44,-37,8,-6,3
1491695995338,2,-49,1,-2,-41,32,8,75,-22
1491695995384,3,-11,-26,-52,-109,-128,-57,-14,-18
1491695995384,3,40,16,-26,127,84,-22,-31,1
1491695995482,0,-21,0,18,-107,0,-56,-57,6
1491695995482,0,-28,-38,-66,10,12,-72,-5,-10
1491695995531,2,11,9,96,127,127,114,18,14
1491695995531,2,-3,0,-96,-116,-34,42,34,-1
1491695995532,3,68,-52,0,-104,-128,-128,28,-20
1491695995532,3,49,-1,-3,-42,22,-67,-78,-2
1491695995533,0,-12,12,7,111,127,127,60,4
1491695995533,0,-25,0,-28,-100,-128,-37,25,-32
1491695995533,1,56,4,-14,57,107,-66,-30,12
1491695995533,1,-17,5,26,52,106,92,59,22
1491695995579,3,-14,-6,-45,61,-85,5,-36,-5
1491695995579,3,-34,-21,-29,67,111,-8,-9,-33
1491695995581,1,-4,-33,-29,-128,-128,-76,-13,-13
1491695995581,1,3,-43,-4,127,-8,-36,6,6
1491695995582,2,62,-25,-80,-127,48,-85,-72,-35
1491695995582,2,-30,5,16,55,-18,-26,-3,9
1491695995582,3,27,38,22,-16,85,43,14,8
1491695995582,3,29,-2,-6,-65,-92,-43,-39,-1
1491695995628,0,13,-15,63,117,73,21,53,11
1491695995628,0,62,-5,-11,-68,-63,-15,-26,14
1491695995629,1,55,9,81,17,-30,18,-27,-7
1491695995629,1,-56,-19,-68,-82,-31,-23,-1,-9
1491695995630,2,-126,-2,-22,87,34,10,8,15
1491695995630,2,-122,-10,-69,-83,-55,-39,-32,-35
1491695995631,3,-90,-12,33,15,-36,38,21,24
1491695995631,3,-24,-21,72,53,82,44,19,-6
1491695995677,0,8,-27,-24,-2,-17,-48,-16,-12
1491695995677,0,63,-30,-35,-11,19,-7,-6,12
1491695995678,1,-2,-13,44,24,3,31,14,-9
1491695995678,1,61,20,-31,-8,40,10,9,10
1491695995678,3,13,17,-16,-20,-30,-9,-10,-9
1491695995678,3,-8,27,-32,-45,-2,-48,-11,12
1491695995774,0,-12,1,-20,-38,-17,36,32,-1
1491695995774,0,26,32,89,16,-23,-33,-5,21
1491695995776,1,5,3,-33,33,44,4,-32,-27
1491695995776,1,-5,10,19,39,46,33,11,14
1491695995777,2,-16,13,8,-14,-46,-40,-10,-10
1491695995777,2,25,-15,-23,-36,-54,-17,-2,2
1491695995777,0,17,-12,-4,-53,-6,-26,-17,-6
1491695995777,0,15,0,1,35,6,16,10,-1
1491695995824,1,-38,8,7,21,5,28,5,-11
1491695995824,1,23,23,-6,-17,30,5,-6,11
1491695995825,2,-52,1,-46,-38,-56,-63,-20,-37
1491695995825,2,-3,-35,-17,1,-8,4,7,17
1491695995826,3,-37,4,-5,-18,-11,-23,-28,-16
1491695995826,3,8,-18,-28,-3,-16,9,11,7
1491695995827,2,8,-8,-22,-100,-83,-17,9,16
1491695995827,2,6,17,24,35,-31,-56,-21,1
1491695995872,3,21,-11,-23,-33,23,14,-26,-42
1491695995872,3,-7,-4,-46,-37,-54,-24,10,15
1491695995873,0,-28,-4,43,52,65,87,2,-17
1491695995873,0,-52,4,-2,47,63,-44,6,-13
1491695995874,3,-34,-4,-8,61,89,11,54,12
1491695995874,3,-28,-18,2,-75,-56,33,-29,0
1491695995875,0,20,-29,-10,29,26,7,-15,-23
1491695995875,0,-15,0,-15,-29,-39,25,40,5
1491695995921,1,38,0,29,48,39,-13,4,3
1491695995921,1,45,-15,7,127,56,-4,-45,-30
1491695995922,2,31,-19,-18,-91,-67,-31,2,-17
1491695995922,2,48,-8,-59,-98,-91,-36,-23,11
1491695995923,0,-77,-5,7,85,83,57,11,-34
1491695995923,0,11,-17,0,-60,-69,-45,-45,35
1491695995924,1,-12,3,-14,-29,44,61,101,-7
1491695995924,1,7,-5,18,7,-15,-106,-52,-41
1491695995971,2,17,13,-10,-4,31,55,18,23
1491695995971,2,65,5,16,-26,-39,-33,-21,-15
1491695995972,3,-27,-9,-16,-106,-81,29,-12,6
1491695995972,3,-42,6,23,98,80,81,12,23
1491695995973,1,78,-7,-42,-27,-35,61,11,23
1491695995973,1,64,-2,-7,-83,-125,-111,-42,9
1491695995975,2,3,4,-19,38,41,43,18,13
1491695995975,2,57,-17,22,33,50,91,75,60
1491695996018,3,-32,0,-17,12,-36,-38,-86,-75
1491695996018,3,79,-15,-7,-27,57,19,23,28
1491695996019,0,-23,-2,-18,-25,-3,64,-60,-37
1491695996019,0,52,-3,-17,27,-22,-123,16,24
1491695996020,1,34,3,2,-22,-63,20,10,19
1491695996020,1,-37,-21,-12,-85,-55,73,-1,-20
1491695996021,2,58,8,17,89,-3,-103,-15,13
1491695996021,2,-123,3,-13,-3,127,127,58,-27
1491695996116,3,88,-18,10,-21,-93,-128,-3,21
1491695996116,3,-28,-17,-11,20,-55,-21,-76,-39
1491695996117,0,22,-1,22,-20,19,13,-12,-17
1491695996117,0,-42,-12,-12,68,79,1,29,21
1491695996118,2,-70,15,-6,5,54,88,-44,-29
1491695996118,2,80,16,24,45,-19,-95,-21,35
1491695996118,3,-107,-7,0,57,96,87,-15,-17
1491695996118,3,-44,-9,-7,-46,-92,59,18,-32
1491695996213,0,87,-16,-23,-116,-128,-128,-7,31
1491695996213,0,38,-1,1,67,70,116,3,-32
1491695996214,1,-36,15,16,49,66,44,7,-10
1491695996214,1,69,2,3,14,24,-4,24,31
1491695996215,3,45,-9,-16,-3,-25,-63,20,13
1491695996215,3,-78,14,19,47,6,101,5,-37
1491695996216,0,63,-2,-10,-20,-85,-97,-69,-39
1491695996216,0,-32,-1,-12,10,7,70,52,18
1491695996262,1,93,6,4,-17,-9,102,20,48
1491695996262,1,-38,-6,4,10,-21,-48,-73,-49
1491695996263,2,-43,-18,13,71,93,-65,-56,11
1491695996263,2,-21,-21,-15,-90,-89,-105,-41,-56
1491695996264,1,73,-5,-17,-56,-21,77,12,46
1491695996264,1,-29,22,25,-9,-36,-80,6,-23
1491695996264,2,-93,-5,-4,-55,-55,107,66,-42
1491695996264,2,11,24,1,-14,-7,100,-48,2
1491695996457,3,-41,15,6,63,91,-80,3,-34
1491695996457,3,55,16,19,8,-11,58,52,40
1491695996458,0,-44,6,8,-12,-6,68,-41,-41
1491695996458,0,52,-25,-10,-28,-46,-110,21,-17
1491695996458,3,80,3,7,15,-15,-46,-37,-7
1491695996458,3,-32,7,-7,-10,30,24,-11,0
1491695996459,0,-35,-3,-1,-1,-34,-6,11,-12
1491695996459,0,22,3,0,7,25,-4,14,33
1491695996506,1,-36,-9,-3,-6,-42,31,18,-15
1491695996506,1,-23,2,3,8,77,78,4,-2
1491695996847,2,17,-12,-12,10,-29,-51,48,-6
1491695996847,2,-23,3,-36,-1,-11,-46,-17,-7
1491695996848,3,5,7,27,-21,-20,99,47,12
1491695996848,3,38,-12,14,-13,-24,-48,-19,-3
1491695996848,2,-48,-4,-15,-29,-69,-38,5,0
1491695996848,2,-20,-15,-10,20,64,16,4,11
1491695996849,3,52,22,43,27,-18,31,22,3
1491695996849,3,-39,-17,-20,-3,-5,-33,-20,9
1491695996896,0,16,13,-73,-22,-29,-65,-54,7
1491695996896,0,-31,-29,-25,-5,31,64,20,-39
1491695996898,3,72,-3,-64,41,73,-8,-18,6
1491695996898,3,-90,23,-25,-14,-33,51,3,-21
1491695996900,0,-78,0,2,85,28,56,13,-38
1491695996900,0,77,6,16,-64,-12,-26,5,30
1491695996901,1,81,-4,-35,-68,-23,17,68,36
1491695996901,1,-32,-26,-40,67,23,-2,-50,-24
1491695996944,2,37,9,22,48,31,37,54,43
1491695996944,2,-5,4,2,-123,-107,-89,41,19
1491695996945,3,-80,12,0,122,127,126,-18,-24
1491695996945,3,46,-11,-25,-128,-128,-112,-125,-48
1491695996946,2,-46,26,2,60,64,65,31,-12
1491695996946,2,54,5,-22,-119,-102,-43,-128,-42
1491695996947,3,-54,-7,-28,-51,17,48,19,21
1491695996947,3,-42,-2,-11,114,118,76,54,-14
1491695996993,0,4,-23,-38,-99,-114,-128,-83,-16
1491695996993,0,-17,-10,-18,-72,-58,50,33,-12
1491695996994,1,-12,15,37,111,52,26,50,14
1491695996994,1,-44,8,-6,-61,10,2,-33,15
1491695996995,3,11,-13,-35,81,29,55,-2,-9
1491695996995,3,53,18,80,127,-5,46,-17,8
1491695997042,0,-109,-14,-27,-118,27,91,59,-33
1491695997042,0,127,-16,-71,-86,-128,-46,-88,21
1491695997043,1,-73,-6,56,75,70,-126,-73,5
1491695997043,1,-65,-30,-62,-11,-26,94,105,-29
1491695997044,2,67,45,55,27,-10,0,-51,17
1491695997044,2,-47,-2,34,108,127,95,74,-10
1491695997045,3,-11,-1,24,-114,-128,-4,11,11
1491695997045,3,34,-21,-34,-34,56,-42,-111,-12
1491695997091,0,33,-5,25,1,-92,2,-33,10
1491695997091,0,-70,-14,-59,-67,91,116,85,-14
1491695997092,1,69,19,87,127,55,2,39,28
1491695997092,1,-50,-6,-50,-128,-127,-65,-92,-48
1491695997094,0,-49,-29,-43,-104,-93,-59,96,30
1491695997094,0,36,-22,-29,-31,5,30,9,-5
1491695997094,1,-48,-8,-21,36,63,86,-85,-48
1491695997094,1,32,20,58,-4,-4,3,125,37
1491695997139,2,-92,6,-30,-5,62,5,-33,-41
1491695997139,2,64,-24,47,-82,-128,-128,-30,24
1491695997141,3,-61,16,-34,59,65,38,59,21
1491695997141,3,43,6,15,-92,-84,70,39,30
1491695997142,1,23,4,26,0,50,2,-94,-54
1491695997142,1,49,-3,5,-61,-91,-84,-41,39
1491695997143,2,-31,-16,15,29,-47,-21,-9,-63
1491695997143,2,-24,16,-2,-63,101,78,9,-1
1491695997188,3,88,-20,-19,-1,-128,-85,24,4
1491695997188,3,-9,-9,-108,-28,63,33,-54,-7
1491695997191,0,-55,30,81,85,47,127,26,44
1491695997191,0,23,-26,25,-14,-115,-128,-43,-11
1491695997194,2,-6,-52,-72,-44,-82,36,-2,11
1491695997194,2,19,10,39,70,43,20,14,18
1491695997199,3,-33,4,1,16,-16,37,-8,10
1491695997199,3,20,7,-17,112,-14,21,35,-2
1491695997237,0,-30,30,54,42,-27,-6,17,-21
1491695997237,0,13,-8,-40,-102,-97,-98,-77,-32
1491695997238,1,75,-13,-106,-56,-66,-84,-22,-1
1491695997238,1,-116,28,127,127,92,107,98,23
1491695997239,3,25,-6,-30,10,38,72,0,-9
1491695997239,3,-62,-5,66,94,9,90,41,13
1491695997240,0,-59,21,28,83,127,127,48,16
1491695997240,0,32,-16,-74,-55,-69,-65,-23,-12
1491695997286,1,-39,-28,-35,-15,19,-60,-26,-2
1491695997286,1,28,23,5,-38,57,-41,-48,10
1491695997287,2,-15,11,61,70,-63,8,17,-2
1491695997287,2,-59,1,-6,127,106,106,18,-9
1491695997288,0,-12,6,-7,48,108,-87,-13,16
1491695997288,0,-29,29,79,37,95,104,80,6
1491695997289,1,-23,-12,4,49,19,20,-56,-14
1491695997289,1,36,-16,-44,-107,-41,-27,6,-36
1491695997334,2,51,20,16,-39,-62,39,13,39
1491695997334,2,27,21,-60,64,34,-11,-31,-39
1491695997335,3,24,27,117,61,-10,45,81,66
1491695997335,3,-28,-13,-71,-96,-114,-68,-47,-54
1491695997339,1,0,26,73,77,94,33,-4,2
1491695997339,1,11,0,0,77,37,21,7,36
1491695997340,2,-26,-4,101,86,114,115,35,24
1491695997340,2,-15,-7,-49,-98,-90,-31,-17,3
1491695997383,3,17,1,-74,36,-38,-40,-16,11
1491695997383,3,-61,-27,-6,107,75,-20,-8,-13
1491695997385,0,20,-39,32,-35,35,1,-3,-33
1491695997385,0,-12,-15,34,-15,-52,16,6,22
1491695997386,2,-8,-16,-32,4,-60,-90,-29,-3
1491695997386,2,68,33,-56,10,101,18,0,-23
1491695997387,3,-15,9,75,-81,-128,42,34,-4
1491695997387,3,42,8,8,66,78,-14,-6,-17
1491695997432,0,7,6,-90,-128,-113,2,18,4
1491695997432,0,-35,-8,40,127,20,-2,2,5
1491695997433,1,-58,14,43,80,102,83,17,1
1491695997433,1,81,29,-19,-8,-42,-94,-12,10
1491695997433,2,-55,-12,20,-82,-1,31,-30,-22
1491695997433,2,19,4,-8,34,21,-44,-29,23
1491695997434,3,-4,7,-17,-128,-52,25,58,-19
1491695997434,3,1,9,30,56,-24,-7,-11,16
1491695997481,0,1,1,-42,57,83,32,7,-14
1491695997481,0,33,-25,26,-90,-33,-11,1,0
1491695997483,1,-12,30,48,107,85,21,-13,6
1491695997483,1,-12,-10,37,-99,-86,-40,12,13
1491695997484,3,-27,4,-43,-40,-46,-44,-16,-16
1491695997484,3,-2,31,6,48,98,33,25,38
1491695997485,0,-34,-2,37,19,7,-12,-15,-12
1491695997485,0,19,21,30,-25,-46,-19,41,8
1491695997578,1,9,-16,-29,-1,-22,-26,-40,-13
1491695997578,1,-40,3,-20,14,54,55,13,-6
1491695997581,2,-8,2,39,90,108,56,54,13
1491695997581,2,-6,-6,10,-16,1,-41,-81,-34
1491695997582,0,23,12,-48,-92,-63,-4,21,22
1491695997582,0,-39,1,46,-8,-2,-43,-23,-32
1491695997584,1,-7,24,-17,57,49,31,8,1
1491695997584,1,-7,-1,-2,32,46,63,15,-7
1491695997627,2,-15,-16,34,56,17,-20,-15,-4
1491695997627,2,5,1,-47,-1,15,1,5,2
1491695997629,3,73,-2,14,-38,-59,-35,-36,9
1491695997629,3,-37,-34,-56,-22,-1,-13,9,-28
1491695997630,2,37,-2,3,-7,-6,-2,-7,17
1491695997630,2,-54,3,15,-9,-19,-52,-60,-18
1491695997631,3,-3,8,-17,-35,-20,41,16,3
1491695997631,3,-31,-6,0,-9,-16,11,18,1
1491695997676,0,10,4,-3,72,45,-10,-12,-8
1491695997676,0,14,14,48,16,25,59,47,14
1491695997676,1,-49,-10,-31,-24,8,-16,30,-16
1491695997676,1,-29,2,19,-23,-24,-24,0,14
1491695997677,3,16,-3,-5,-7,1,-19,-25,-10
1491695997677,3,25,15,-13,-6,3,58,18,-9
1491695997678,0,43,-3,10,20,-17,-89,-24,-14
1491695997678,0,-12,-16,-19,-53,-31,-4,-9,2
1491695997725,1,-36,-2,3,59,46,70,28,-1
1491695997725,1,4,42,-27,-61,-72,-3,-8,9
1491695997726,2,21,38,-7,-3,18,-57,-51,-3
1491695997726,2,-17,34,-2,-14,-15,11,24,-8
1491695997726,0,34,3,10,-78,-9,83,34,35
1491695997726,0,55,-31,-38,-44,-53,-87,-39,-27
1491695997727,1,-8,-29,43,51,22,-15,-7,-40
1491695997727,1,-8,10,-7,-12,3,-7,-4,26
1491695997773,2,-57,-17,28,78,50,70,16,-14
1491695997773,2,20,-11,-50,-55,-55,-13,2,21
1491695997774,3,13,9,15,-45,-43,37,8,32
1491695997774,3,-69,-19,-10,37,80,-14,27,-20
1491695997775,0,-55,-6,-16,-7,-52,-45,-48,-17
1491695997775,0,9,-2,1,16,44,53,78,2
1491695997776,1,-17,15,-7,-36,-35,-31,-50,-21
1491695997776,1,-39,-23,2,-40,-40,19,-5,-4
1491695997822,2,-14,5,39,84,97,70,90,78
1491695997822,2,-37,-16,-13,10,-15,-24,-38,-41
1491695997823,3,-29,-9,-45,-96,-59,-62,-60,-31
1491695997823,3,32,-5,1,-11,-18,18,-7,2
1491695997824,1,26,-1,-8,-4,84,24,-9,-11
1491695997824,1,72,-13,-14,-57,-93,27,12,6
1491695997825,2,70,-14,-61,-87,-36,-30,-38,-47
1491695997825,2,25,22,31,77,46,91,30,80
1491695997871,3,-18,-9,24,37,-5,-9,49,14
1491695997871,3,-102,-15,-29,-25,0,3,-102,-89
1491695997873,0,-9,-5,11,-6,43,-14,15,15
1491695997873,0,53,13,31,-22,-4,-20,27,-2
1491695997874,2,4,2,1,2,13,8,3,-34
1491695997874,2,-45,-5,5,18,59,61,-19,-42
1491695997875,3,87,-3,15,61,81,53,62,104
1491695997875,3,6,-2,-16,-21,-31,-39,-6,-1
1491695997920,0,19,-20,-27,-67,-89,-11,-33,-31
1491695997920,0,1,-9,9,16,-28,-91,13,0
1491695997921,1,76,35,22,76,82,84,13,23
1491695997921,1,34,-19,-22,-34,-26,-128,-13,8
1491695997922,3,-34,-20,-40,-31,17,29,-6,-30
1491695997922,3,43,-21,3,-41,-58,68,4,-7
1491695997924,0,-93,29,-1,52,38,-44,-9,3
1491695997924,0,98,28,8,40,38,65,46,31
1491695997968,1,-21,9,11,8,-23,-109,-125,-33
1491695997968,1,-5,5,10,34,100,-12,35,30
1491695997970,2,-92,-15,-1,-2,26,16,18,-16
1491695997970,2,-51,1,-29,-30,-44,56,5,-36
1491695997971,0,12,-11,4,61,44,48,2,44
1491695997971,0,-78,-2,-10,-54,-42,-101,-80,-44
1491695997972,1,-61,7,9,61,42,114,46,-58
1491695997972,1,90,7,-22,-61,1,-13,-17,42
1491695998017,2,-19,-18,-6,-74,-58,-48,15,5
1491695998017,2,48,-36,-20,48,122,102,-27,3
1491695998018,3,57,-2,-9,-9,-68,-119,-35,-10
1491695998018,3,28,4,32,48,3,48,45,0
1491695998019,1,-61,-24,-2,-88,-71,-16,-44,-3
1491695998019,1,-32,-8,-5,38,76,-44,41,-17
1491695998020,2,48,-18,-26,-4,26,50,9,-3
1491695998020,2,19,3,2,6,-13,-54,-62,-9
1491695998065,3,-45,1,30,68,67,29,30,-20
1491695998065,3,31,-9,9,-18,-57,58,-2,41
1491695998067,0,-66,-20,-27,-29,-17,56,64,-1
1491695998067,0,37,16,-7,8,7,-51,30,10
1491695998067,2,18,0,-20,0,30,-18,23,1
1491695998067,2,-4,15,12,24,15,48,11,30
1491695998068,3,-4,0,14,-2,9,35,54,38
1491695998068,3,-2,25,14,78,102,41,2,-23
1491695998114,0,-7,-5,-5,-15,1,51,-77,-14
1491695998114,0,4,-8,-13,-61,-77,-85,24,0
1491695998116,1,43,-32,-35,-24,-76,-112,-109,-31
1491695998116,1,22,26,16,16,110,81,105,57
1491695998117,2,11,-12,-7,5,-69,-69,17,-44
1491695998117,2,36,-7,22,16,77,69,-43,3
1491695998118,3,-115,22,-7,1,83,8,54,-11
1491695998118,3,-19,-11,-12,-26,-128,-100,-52,-24
1491695998163,0,114,16,11,-15,-36,40,-1,63
1491695998163,0,-26,1,1,4,11,3,-8,-25
1491695998165,1,-7,6,2,25,14,42,10,32
1491695998165,1,-77,-2,-4,9,49,17,36,-5
1491695998167,3,116,-2,-2,2,14,74,18,-24
1491695998167,3,56,12,9,11,3,11,14,15
1491695998168,0,37,-12,-8,-33,-73,-100,-46,-38
1491695998168,0,71,13,0,20,52,17,69,53
1491695998212,1,-47,-15,11,-1,-20,-30,-56,-55
1491695998212,1,-19,-11,-23,-19,-19,115,47,17
1491695998213,2,11,37,-10,-38,-47,-107,-33,-17
1491695998213,2,16,27,14,38,79,79,4,39
1491695998213,0,-115,-20,0,9,18,-5,35,-12
1491695998213,0,-20,-30,-6,2,-53,-70,-83,-52
1491695998214,1,-59,-15,-13,-22,-17,31,32,12
1491695998214,1,51,-9,10,-30,-9,-44,13,1
1491695998261,2,-36,-29,-38,2,-10,36,4,6
1491695998261,2,-53,-11,20,-34,-11,-3,22,-14
1491695998261,3,-20,9,28,35,18,3,-59,-22
1491695998261,3,-48,2,-5,20,7,-41,72,23
1491695998262,1,58,-7,-28,-18,-15,42,-8,-3
1491695998262,1,-18,-1,4,31,27,7,43,3
1491695998263,2,19,16,3,-1,-1,-19,-1,16
1491695998263,2,-24,-11,-24,-38,-57,-12,-16,-5
1491695998309,3,8,-4,1,-12,4,-59,-7,-5
1491695998309,3,9,-9,-66,22,39,92,30,3
1491695998310,0,22,1,37,35,-7,-79,6,4
1491695998310,0,-35,-17,37,-59,-44,0,-7,-23
1491695998312,2,-92,2,-26,31,71,86,-2,-29
1491695998312,2,10,4,20,40,9,-12,69,2
1491695998313,3,57,-8,-27,-27,-12,-17,-86,18
1491695998313,3,-13,10,-1,-15,-22,8,16,-30
1491695998358,0,-72,-10,-6,-14,-6,39,23,-8
1491695998358,0,70,-4,-4,32,24,-54,0,1
1491695998359,1,-17,2,-24,-8,15,33,44,17
1491695998359,1,-5,-2,-4,0,-18,-39,-44,-3
1491695998359,3,-36,-1,3,21,8,70,76,24
1491695998359,3,8,-1,-4,-9,7,-66,-50,-20
1491695998360,0,8,3,-11,-27,-7,51,-17,16
1491695998360,0,1,-9,-24,0,-22,-2,-5,-19
1491695998407,1,2,-6,-4,4,-6,-82,-49,-19
1491695998407,1,-14,14,7,-7,-7,71,74,19
1491695998408,2,-6,13,25,41,89,84,-8,-43
1491695998408,2,-3,-6,-12,17,-17,-112,-42,-11
1491695998409,0,-6,-1,-2,-10,-40,-15,38,14
1491695998409,0,-9,6,-10,2,25,26,-36,-20
1491695998410,1,4,-11,-4,4,7,10,9,-4
1491695998410,1,-55,-2,11,-3,-9,-87,-20,-46
1491695998456,2,64,-8,5,-8,-30,-6,103,101
1491695998456,2,-33,6,-12,-18,12,77,-3,0
1491695998457,3,-35,10,20,34,13,-35,16,-26
1491695998457,3,44,-4,-11,-5,23,41,11,43
1491695998458,0,-31,3,11,-3,-42,-40,-77,-29
1491695998458,0,12,-14,-22,-21,-12,-54,-22,-12
1491695998459,1,30,13,4,1,19,69,12,-9
1491695998459,1,65,-4,6,0,5,-24,16,24
1491695998504,2,-66,3,-19,11,28,3,14,-9
1491695998504,2,-19,13,52,11,-40,83,54,46
1491695998506,3,-48,-2,-18,8,55,-53,-47,-41
1491695998506,3,21,-7,5,17,-16,-67,-40,10
1491695998507,1,3,-6,-36,8,-98,-12,-42,38
1491695998507,1,-32,2,-11,-65,-38,-15,36,-57
1491695998508,2,22,-17,8,47,108,53,-27,-4
1491695998508,2,27,4,-18,-49,-31,-105,7,0
1491695998553,3,-39,-1,41,16,64,125,-6,-9
1491695998553,3,-17,-10,-27,16,-59,-19,-16,-13
1491695998560,0,-40,-3,10,17,-31,-50,22,10
1491695998560,0,75,9,-22,-14,23,33,-27,-11
1491695998560,2,-57,4,-12,58,115,56,72,8
1491695998560,2,13,-3,1,-57,-99,21,-44,14
1491695998561,3,47,10,-14,-42,-65,-128,32,-19
1491695998561,3,-44,-6,14,-29,-41,2,19,-3
1491695998602,0,16,-15,-33,40,-49,-106,-54,-32
1491695998602,0,10,0,13,0,97,111,73,-26
1491695998603,1,-57,-7,5,56,88,-4,-124,-12
1491695998603,1,62,17,-16,-96,-56,13,-16,3
1491695998603,3,16,7,-8,-8,-25,-74,42,14
1491695998603,3,-77,-6,-4,-23,7,89,-54,-24
1491695998604,0,122,6,36,-19,-13,19,-18,24
1491695998604,0,-104,8,-30,-26,-36,-41,60,-1
1491695998650,1,-9,-11,33,102,64,51,-23,-50
1491695998650,1,53,-9,-8,20,-22,-22,-65,19
1491695998652,2,2,8,-17,-66,-93,-120,-26,-49
1491695998652,2,-43,27,10,-33,14,119,42,46
1491695998653,0,-104,-12,34,-1,-51,127,-10,-50
1491695998653,0,115,-35,-67,-68,-101,-116,-80,-31
1491695998653,1,14,2,-18,-58,-91,56,-14,28
1491695998653,1,-111,-20,16,90,105,42,21,-36
1491695998699,2,127,27,13,98,116,70,8,48
1491695998699,2,-128,14,31,7,-4,-22,53,-27
1491695998701,3,0,1,-28,-82,-75,59,-34,-87
1491695998701,3,63,-30,-45,-117,-119,-128,4,12
1491695998702,1,-9,7,9,45,92,127,127,31
1491695998702,1,-24,-2,-6,-10,3,90,88,28
1491695998702,2,35,13,-3,-75,-128,-128,-102,-62
1491695998702,2,17,-5,32,64,-14,127,-31,25
1491695998748,3,-45,0,-2,44,127,54,-18,3
1491695998748,3,7,18,27,22,-59,-83,-40,-20
1491695998749,0,-40,-33,-47,-124,1,-39,-71,20
1491695998749,0,1,-19,-38,-10,-60,37,22,-44
1491695998750,2,-17,-18,-45,-95,-112,-75,-34,-15
1491695998750,2,107,3,7,53,120,-128,-52,20
1491695998751,3,-48,-20,8,8,1,102,34,20
1491695998751,3,11,30,74,28,119,95,-44,20
1491695998797,0,8,-1,21,127,37,21,101,46
1491695998797,0,-64,8,-18,-121,-128,-59,-98,-98
1491695998798,1,49,12,-14,12,85,-11,85,50
1491695998798,1,-4,-30,3,88,98,-100,-38,-15
1491695998799,3,46,8,-10,-124,-128,-128,77,-20
1491695998799,3,17,1,15,85,84,114,67,30
1491695998800,0,-26,17,20,86,111,-94,6,14
1491695998800,0,76,-2,-7,-86,-61,-50,-21,-11
1491695998846,1,13,-28,18,123,51,95,-10,-1
1491695998846,1,-78,31,6,-128,-128,-59,-15,-19
1491695998847,2,69,-27,-20,54,127,52,42,3
1491695998847,2,-51,47,53,123,127,127,-4,4
1491695998848,3,-7,-30,-55,-107,-114,-65,0,19
1491695998848,3,57,-24,-24,-21,-2,-56,4,-12
1491695998850,0,-69,6,-12,-40,51,74,37,34
1491695998850,0,-11,49,73,99,101,127,63,53
1491695998901,1,68,31,-24,22,127,-21,-53,-23
1491695998901,1,-34,-39,-44,-92,-68,-77,-24,17
1491695998903,2,47,-1,-22,-25,-42,-13,-19,-37
1491695998903,2,-36,-29,-1,85,111,52,45,54
1491695998904,0,-22,-32,-50,-41,75,39,55,-16
1491695998904,0,111,-39,-66,-85,-128,-57,-40,4
1491695998905,1,-75,19,-11,-44,70,84,22,17
1491695998905,1,-40,-5,89,127,127,-2,-57,8
1491695998943,2,-64,36,-40,-105,-128,-79,74,19
1491695998943,2,-7,-21,-73,-99,-22,6,35,-29
1491695998944,3,35,-42,-51,57,-81,-125,-128,-60
1491695998944,3,74,16,47,74,124,51,127,96
1491695998945,1,-18,-2,66,22,64,7,10,-23
1491695998945,1,40,-12,-128,-68,56,49,96,16
1491695998946,2,51,7,90,127,122,-78,-128,-7
1491695998946,2,-16,30,67,-98,-71,-5,42,19
1491695998992,3,-72,-17,-20,59,41,115,58,30
1491695998992,3,11,16,-2,-2,-106,26,-46,-57
1491695998993,0,-97,-25,-26,-126,28,-23,-10,9
1491695998993,0,127,17,-32,72,-22,-65,-8,23
1491695998993,2,52,-29,-37,-126,-128,-87,-110,-75
1491695998993,2,-4,7,23,101,108,102,21,19
1491695998994,3,20,-38,-42,-67,-24,-5,45,17
1491695998994,3,17,5,-20,-55,-19,66,-84,9
1491695999041,0,15,11,33,74,-77,-42,108,8
1491695999041,0,11,-25,-59,-128,-105,22,-15,-8
1491695999042,1,-60,13,-20,-21,-64,-81,-83,-24
1491695999042,1,53,-9,80,95,105,62,33,-10
1491695999043,3,-20,-12,-3,14,53,3,-6,-22
1491695999043,3,-58,-8,20,-22,-128,-93,-59,-36
1491695999043,0,80,-41,-97,-81,-124,3,39,7
1491695999043,0,67,-26,-7,83,31,-108,4,8
1491695999089,1,32,26,62,39,45,-54,-58,18
1491695999089,1,-5,2,54,82,102,67,13,-32
1491695999090,2,-2,14,56,-54,-50,-6,14,12
1491695999090,2,-113,4,4,25,70,-41,-40,-10
1491695999091,0,56,1,-34,-79,-38,18,-89,-5
1491695999091,0,-64,-9,-44,46,43,74,103,35
1491695999092,1,41,5,26,88,19,-106,-99,-52
1491695999092,1,-50,11,40,-14,54,55,30,21
1491695999142,2,-4,19,42,98,93,127,42,10
1491695999142,2,-29,9,14,-117,-122,-92,-50,-14
1491695999143,3,-49,-33,-64,-50,-43,-11,17,-16
1491695999143,3,55,-17,-41,-73,-71,-52,-44,0
1491695999144,1,27,9,3,86,62,-56,47,50
1491695999144,1,-16,-23,-49,-128,-107,-28,-5,-27
1491695999144,2,1,-19,-42,-20,-35,-5,5,11
1491695999144,2,42,-25,10,23,21,30,-56,-29
1491695999187,3,-49,-9,18,-98,5,63,34,-2
1491695999187,3,16,-33,-74,53,-78,-56,9,9
1491695999187,0,7,-10,-73,-78,-35,-39,-20,-3
1491695999187,0,15,13,34,80,-26,-7,28,39
1491695999188,1,-40,-2,37,98,49,86,21,-4
1491695999188,1,0,20,-1,-35,-9,-57,-11,-7
1491695999189,2,17,-16,58,0,71,-34,-30,-25
1491695999189,2,-27,0,-59,-68,-12,-22,0,-2
1491695999235,3,54,15,22,-36,-23,2,-8,18
1491695999235,3,-28,-2,54,86,24,51,12,10
1491695999236,0,11,-7,13,-5,11,36,18,-14
1491695999236,0,-46,-15,29,11,17,48,8,-6
1491695999237,2,-6,23,-20,-64,-59,-37,-26,-13
1491695999237,2,-7,7,41,96,89,35,49,4
1491695999238,3,-9,11,22,-98,-128,25,-65,-8
1491695999238,3,61,-10,-27,-77,17,-39,10,14
1491695999284,0,6,-8,-5,94,-1,-50,-13,9
1491695999284,0,-33,23,18,2,34,7,-10,-2
1491695999285,1,-31,-23,-46,43,51,7,29,-29
1491695999285,1,25,-4,45,-68,28,-10,-3,7
1491695999286,3,-23,-39,34,0,-35,13,-26,-6
1491695999286,3,-9,-23,-62,78,54,103,51,-13
1491695999287,0,24,5,43,57,71,38,13,1
1491695999287,0,24,6,49,-128,-97,-24,-13,-2
1491695999333,1,9,9,-24,-56,-111,-54,-12,-1
1491695999333,1,-41,17,11,90,79,1,-19,-5
1491695999334,2,-24,12,23,120,90,40,5,18
1491695999334,2,29,-11,-32,-72,-65,-29,-16,-29
1491695999335,0,90,35,-27,58,-10,-98,-18,11
1491695999335,0,-47,-17,-8,69,68,34,19,41
1491695999335,1,60,8,20,-66,0,43,15,14
1491695999335,1,-17,20,63,127,27,21,-7,-5
1491695999382,2,16,-11,19,46,126,76,31,-6
1491695999382,2,14,-7,-50,-124,-128,-92,-40,-42
1491695999383,3,16,-9,-43,47,35,14,38,19
1491695999383,3,1,24,-64,-38,14,-1,30,27
1491695999383,1,-28,4,96,81,55,-10,1,6
1491695999383,1,-10,-16,0,-37,-23,18,-21,-15
1491695999384,2,21,-9,-45,-28,-59,8,16,36
1491695999384,2,-73,2,3,-5,31,31,-5,-31
1491695999431,3,42,-15,-52,4,-11,47,47,0
1491695999431,3,42,3,-80,28,35,-18,-4,6
1491695999479,0,-14,-4,30,-6,34,53,0,12
1491695999479,0,21,-13,63,-43,-59,-50,-21,-9
1491695999528,2,60,22,9,8,36,45,19,11
1491695999528,2,-10,-16,-69,60,82,8,-2,16
1491695999529,3,-16,-1,39,-4,39,24,-43,-2
1491695999529,3,-3,8,-52,-73,-111,-8,13,7
1491695999529,0,-16,2,23,-31,-12,-56,-8,-33
1491695999529,0,-3,-3,0,42,20,95,40,2
1491695999530,1,16,-12,-34,10,24,30,13,-10
1491695999530,1,11,36,49,-31,-62,-105,-54,25
1491695999578,3,-40,-8,-10,23,4,67,6,-22
1491695999578,3,-41,-4,-8,24,36,7,20,-22
1491695999579,3,-3,4,-31,-43,-17,-39,-59,-5
1491695999579,3,-38,0,8,-7,-54,-41,74,6
1491695999580,0,45,8,-1,61,2,-83,-4,-10
1491695999580,0,-3,-11,-24,-93,-68,-66,-42,-20
1491695999580,1,-7,8,-17,-59,-23,49,18,14
1491695999580,1,59,-8,-9,29,10,33,2,10
1491695999625,2,-65,1,19,61,60,57,3,-6
1491695999625,2,50,-4,12,57,63,57,4,-22
1491695999626,3,50,-5,-35,-72,-80,-121,-26,9
1491695999626,3,42,2,-50,-36,-28,17,1,-18
1491695999627,1,64,5,-4,64,59,14,37,9
1491695999627,1,48,-10,-12,-85,-10,-51,-64,8
1491695999628,2,3,-26,-46,-51,-40,-23,-5,-14
1491695999628,2,-32,-16,31,4,-8,48,40,11
1491695999674,3,-34,-10,1,51,42,5,-8,7
1491695999674,3,-84,-22,23,26,-8,30,10,-20
1491695999675,0,-10,-28,-12,11,-14,-5,-10,12
1491695999675,0,-63,-7,3,-40,6,-26,-36,-24
1491695999675,2,-42,-16,-18,-119,-75,88,8,-15
1491695999675,2,52,-7,-5,-4,0,59,15,10
1491695999676,3,-99,1,25,105,82,-107,-60,-9
1491695999676,3,-110,9,26,17,21,77,26,-11
1491695999724,0,-23,4,7,2,26,49,27,7
1491695999724,0,3,-12,-6,31,17,-67,4,12
1491695999725,1,59,14,-1,-19,2,73,28,29
1491695999725,1,113,19,11,-12,-61,-59,-47,-22
1491695999726,3,28,-4,-9,-82,-69,68,-3,-43
1491695999726,3,23,5,24,120,127,-46,49,61
1491695999730,0,-81,-6,11,-14,-77,24,-39,-39
1491695999730,0,10,9,-32,-93,-47,-37,-32,18
1491695999772,1,-59,-12,-11,27,41,1,22,-21
1491695999772,1,4,-4,-16,-32,-29,77,5,-10
1491695999773,2,3,6,13,93,101,110,83,13
1491695999773,2,22,-3,42,68,-15,-103,-68,-2
1491695999774,0,11,10,14,100,112,-98,19,29
1491695999774,0,-50,-15,-10,-55,-72,71,12,-38
1491695999775,1,52,0,-9,-46,-55,-74,-9,19
1491695999775,1,-39,2,-5,1,25,-69,0,-9
1491695999821,2,109,10,8,35,17,-25,-61,16
1491695999821,2,-48,-9,-15,28,127,93,113,16
1491695999822,3,92,-13,6,-31,-68,-52,-77,-43
1491695999822,3,2,13,-8,-44,-42,-24,40,27
1491695999823,1,20,-9,-11,9,-26,68,59,24
1491695999823,1,-15,-12,1,-29,-18,-51,-65,-37
1491695999824,2,-29,13,11,-32,-128,-82,-24,-64
1491695999824,2,-38,2,-3,31,3,57,49,46
1491695999869,3,43,10,20,46,119,87,36,52
1491695999869,3,-28,-10,-11,56,10,74,26,-9
1491695999871,0,42,2,-12,-67,-93,-3,-34,27
1491695999871,0,-65,-40,3,-20,66,53,3,-75
1491695999873,1,20,42,19,-8,-119,13,9,41
1491695999873,1,14,-25,-24,-73,71,-58,-23,-32
1491695999874,2,-69,-18,-6,71,103,89,15,-12
1491695999874,2,121,3,33,-5,-77,51,33,25
1491695999918,3,18,-8,17,14,-55,-52,-115,25
1491695999918,3,-36,-8,-14,64,-55,99,68,-61
1491695999921,0,-75,24,-23,-60,-25,92,-6,-41
1491695999921,0,60,30,1,-21,32,-128,-23,64
1491695999923,2,-102,-26,4,33,-70,-86,-64,-81
1491695999923,2,65,-6,-37,-12,-77,15,-39,-12
1491695999925,3,-32,11,-10,-84,-114,-46,-3,-12
1491695999925,3,-28,-3,16,103,89,-26,-51,-8
1491695999967,0,-56,8,8,-81,62,86,55,-7
1491695999967,0,10,23,23,69,10,68,-27,-46
1491695999968,1,-23,-1,-24,-43,98,71,100,76
1491695999968,1,0,-2,5,46,-21,-39,-46,-36
1491695999969,3,-78,18,13,60,111,98,10,-33
1491695999969,3,-23,27,-4,-75,-93,-22,75,21
1491695999970,0,85,-10,18,52,50,-42,-30,5
1491695999970,0,17,5,11,22,-7,-80,-22,58
1491696000017,1,-69,-20,-38,-65,-6,61,13,-37
1491696000017,1,-15,-46,-21,2,41,18,9,49
1491696000018,2,52,20,30,-8,-31,8,-13,-32
1491696000018,2,-20,19,-2,68,127,22,20,-18
1491696000019,0,-40,0,-38,-35,-47,17,-42,-19
1491696000019,0,38,-23,-10,-9,12,-70,1,17
1491696000020,1,4,-13,-28,64,53,-47,7,8
1491696000020,1,23,44,33,16,-31,36,19,34
1491696000064,2,-10,18,19,-57,-19,-2,-3,4
1491696000064,2,-3,15,10,-15,-15,50,42,-11
1491696000066,3,101,19,9,14,-9,-59,-14,13
1491696000066,3,-73,-17,-17,30,30,21,5,-21
1491696000066,1,18,-20,-17,-12,25,-8,-17,-4
1491696000066,1,-61,-10,3,35,34,98,42,18
1491696000068,2,30,-19,17,-3,-61,-65,16,0
1491696000068,2,-62,15,11,-55,-26,51,-29,-29
1491696000113,3,64,-5,40,5,15,12,14,18
1491696000113,3,-26,11,2,34,9,27,-5,21
1491696000114,0,-12,-10,-33,3,46,-55,6,-24
1491696000114,0,-18,-12,-13,2,-31,19,3,-12
1491696000115,2,-2,21,-2,-8,25,-66,-16,2
1491696000115,2,8,-16,-2,-9,-63,-36,-44,25
1491696000117,3,-58,11,4,-22,-9,1,-10,-58
1491696000117,3,0,-6,-2,3,8,-32,-19,-7
1491696000162,0,22,6,6,33,-7,39,30,16
1491696000162,0,10,-16,-94,-43,-4,29,-46,12
1491696000163,1,-66,-6,20,-17,-38,-50,-5,-4
1491696000163,1,-28,11,94,3,20,52,1,-55
1491696000164,3,20,-4,-39,-33,-41,-72,11,46
1491696000164,3,-31,-8,-39,15,35,10,-41,-54
1491696000165,0,-17,11,-8,15,59,54,78,-2
1491696000165,0,-11,-4,10,17,-19,-77,-8,1
1491696000259,1,14,-7,-9,-36,-36,12,-10,-2
1491696000259,1,15,-4,-1,-18,-4,4,-14,5
1491696000260,2,4,-5,-8,0,5,21,-54,-9
1491696000260,2,5,1,18,46,65,26,46,-2
1491696000263,0,13,-5,-14,-5,1,-29,-13,-6
1491696000263,0,23,-1,12,-9,-8,16,14,31
1491696000264,1,-71,-15,23,23,3,-32,-36,-56
1491696000264,1,50,9,-13,15,13,8,-34,-8
1491696000308,2,-95,5,8,12,-4,2,14,6
1491696000308,2,-41,2,0,-11,32,9,-32,10
1491696000309,3,-10,4,-7,-10,-46,-19,26,-18
1491696000309,3,-35,-14,-23,-40,-7,23,-30,51
1491696000310,1,7,4,19,37,11,-22,8,12
1491696000310,1,30,4,-1,4,15,49,1,-7
1491696000311,2,-2,2,-26,-47,-17,-85,-19,13
1491696000311,2,7,-19,5,18,-38,28,16,23
1491696000405,3,0,-21,-4,-10,26,6,-10,-12
1491696000405,3,45,6,22,24,-1,24,-4,22
1491696000406,0,-39,3,-7,16,33,-51,-30,-58
1491696000406,0,50,7,-3,-7,-1,59,44,9
1491696000407,2,-4,10,-7,3,18,56,0,-2
1491696000407,2,24,-10,-9,16,23,-42,7,0
1491696000408,3,11,7,32,6,1,-13,27,0
1491696000408,3,-43,-16,-15,5,-6,-12,30,-15
1491696000454,0,-4,-6,-25,-26,-32,82,-21,8
1491696000454,0,-29,2,25,-8,14,-65,-11,3
1491696000455,1,5,10,-3,12,10,-2,-5,-12
1491696000455,1,7,2,-3,28,11,-79,5,-22
1491696000455,3,29,7,-11,7,29,-40,-26,-1
1491696000455,3,84,1,-15,-25,-28,-60,11,27
1491696000456,0,51,-17,-8,51,-44,-51,-12,-41
1491696000456,0,-102,-25,-34,-99,-88,-22,56,-23
1491696000503,1,-30,-14,2,-21,-15,70,-101,-18
1491696000503,1,16,20,-5,-16,-28,-103,24,-21
1491696000505,2,18,9,15,28,37,76,-18,42
1491696000505,2,-111,-10,7,44,69,76,10,-48
1491696000506,1,-55,25,34,23,18,-13,-68,-19
1491696000506,1,-7,-15,-1,79,74,81,4,-19
1491696000507,2,32,-11,8,-60,-92,-128,-30,-14
1491696000507,2,46,14,-30,-92,57,127,12,28
1491696000557,3,4,-3,-23,37,57,-53,82,63
1491696000557,3,-59,3,34,43,-75,-91,-128,-30
1491696000559,0,77,1,5,-52,29,100,98,34
1491696000559,0,50,4,-3,-11,-92,-40,-40,-3
1491696000560,2,31,-23,-13,-7,78,9,-26,35
1491696000560,2,27,20,39,28,-40,-108,-32,-4
1491696000561,3,-53,6,-23,-100,-7,21,8,12
1491696000561,3,57,-8,60,93,40,59,-94,-5
1491696000601,0,-112,12,-15,4,-113,-12,-72,-21
1491696000601,0,96,13,-10,15,127,16,65,19
1491696000649,1,-106,-31,-21,21,-128,49,5,-62
1491696000649,1,85,-2,-9,-128,76,-60,-11,44
1491696000651,2,-45,7,6,-6,-29,-54,-37,-59
1491696000651,2,-36,3,13,86,55,101,65,42
1491696000658,3,11,1,12,-5,25,-128,-17,-44
1491696000658,3,66,4,-71,-91,-69,125,-78,27
1491696000659,0,7,-21,-9,90,100,-51,20,-24
1491696000659,0,-128,-13,-2,0,5,72,26,-40
1491696000698,1,51,9,10,-23,11,-75,38,15
1491696000698,1,-93,48,105,117,79,107,73,11
1491696000700,3,2,-17,-40,-78,-34,112,30,32
1491696000700,3,-19,-7,-28,7,48,-104,-58,-85
1491696000702,0,103,3,23,111,-38,-64,34,82
1491696000702,0,-128,-18,-12,-50,-68,37,-37,-47
1491696000704,0,-14,4,15,-58,-20,-57,-70,-79
1491696000704,0,20,-10,-14,17,44,74,-5,40
1491696000747,1,-85,8,25,62,98,9,40,-44
1491696000747,1,8,-18,-59,-84,-42,-85,-26,-32
1491696000748,2,27,-14,-19,-72,-80,7,63,40
1491696000748,2,27,-3,-19,63,-22,41,-65,21
1491696000750,1,38,-22,-13,-101,-91,-101,41,42
1491696000750,1,-98,-37,-68,-63,68,127,-9,3
1491696000751,2,79,-6,28,80,19,-85,105,25
1491696000751,2,39,8,41,49,114,-42,-52,50
1491696000795,3,-61,6,24,97,-43,42,88,-36
1491696000795,3,-9,0,-21,-128,8,52,-59,-20
1491696000797,0,21,-26,-63,-57,-18,-1,-62,-75
1491696000797,0,0,-3,17,24,-4,19,83,19
1491696000798,2,-96,43,49,65,36,97,-13,4
1491696000798,2,36,-5,-28,-9,-65,-128,-15,-4
1491696000799,3,-53,7,-41,-128,-91,97,-54,-32
1491696000799,3,103,2,48,127,127,-52,37,59
1491696000844,0,-9,-19,-28,-38,-128,0,7,21
1491696000844,0,-42,32,42,-7,-27,121,89,11
1491696000846,1,-39,-28,-21,98,67,-35,-52,-50
1491696000846,1,43,4,-14,-128,-128,-111,-61,-20
1491696000847,3,27,42,11,86,-83,-28,-23,-26
1491696000847,3,-78,-16,1,-86,-19,113,80,-27
1491696000847,0,87,-13,14,-89,-128,-60,-73,14
1491696000847,0,-17,-16,-23,52,106,126,39,2
1491696000893,1,-58,18,68,87,98,77,35,29
1491696000893,1,41,-45,-98,-67,-113,-72,-24,-10
1491696000894,2,-51,35,10,-11,-82,78,107,-5
1491696000894,2,-3,8,24,70,38,59,-4,8
1491696000895,0,26,-22,6,-70,-67,15,41,-5
1491696000895,0,-10,-44,-115,-83,-47,-128,-27,-40
1491696000896,1,-20,6,-31,14,77,23,-48,-17
1491696000896,1,79,64,127,127,127,120,97,55
1491696000942,2,-38,-26,-55,-12,-20,-49,-43,-29
1491696000942,2,48,-16,-81,-120,-128,-50,-37,-29
1491696000943,3,-41,-10,-48,20,47,59,-78,16
1491696000943,3,55,-8,60,4,-86,-75,16,-18
1491696000944,0,-66,3,35,3,22,127,-6,21
1491696000944,0,-5,28,69,101,77,36,-16,-41
1491696000945,1,50,-34,-77,-128,-128,-42,18,-3
1491696000945,1,-23,18,-9,103,17,54,-28,6
1491696000991,2,-73,23,5,-64,-51,-53,16,-43
1491696000991,2,-1,15,42,-42,-90,49,-128,20
1491696000992,3,5,1,3,102,101,-56,61,-3
1491696000992,3,-12,-20,-83,-107,-112,30,47,-10
1491696000993,1,-53,13,96,72,-103,55,-21,19
1491696000993,1,-3,11,-21,78,96,55,9,10
1491696000994,2,62,4,-9,-52,-37,-84,-53,-4
1491696000994,2,-4,-42,-43,72,50,19,-12,-8
1491696001039,3,86,22,17,-102,11,-59,35,11
1491696001039,3,-123,-15,-30,106,62,89,19,-27
1491696001041,0,112,14,7,-33,-23,-63,-49,3
1491696001041,0,30,-10,45,94,51,-1,5,2
1491696001042,2,-23,-3,75,127,75,-46,-34,-30
1491696001042,2,-89,11,93,27,-82,47,100,-22
1491696001043,3,34,12,-11,-90,74,49,27,-4
1491696001043,3,-4,-23,-38,-91,-41,-64,-117,-25
1491696001088,0,7,-13,-76,-99,-60,114,119,46
1491696001088,0,24,-2,-29,58,69,9,12,-8
1491696001090,1,-7,42,74,-51,-16,69,1,27
1491696001090,1,-33,-24,-33,9,25,-1,-62,-40
1491696001091,3,-3,-7,-37,-128,-125,-70,-42,-11
1491696001091,3,-8,13,17,45,-60,92,68,40
1491696001092,0,-58,11,13,127,127,34,-19,6
1491696001092,0,49,-26,-81,-128,-128,-109,7,-12
1491696001137,1,10,-3,4,72,29,61,36,-22
1491696001137,1,-26,-8,20,-29,22,-40,-69,-37
1491696001138,2,-36,11,-2,-28,-66,57,45,0
1491696001138,2,23,18,88,77,1,-25,-44,32
1491696001140,0,-23,-38,-71,50,-5,11,-60,-51
1491696001140,0,-33,7,27,-26,30,-16,12,-5
1491696001140,1,-14,-21,-48,41,27,-6,-34,-18
1491696001140,1,46,28,114,65,127,39,47,40
1491696001186,2,-20,0,19,94,120,58,56,29
1491696001186,2,78,-20,-37,-128,-128,-84,-76,-9
1491696001187,3,-40,-53,-31,-14,-66,-35,-14,-19
1491696001187,3,-41,14,42,99,96,62,59,16
1491696001188,1,-67,-3,-1,-83,-112,-28,32,5
1491696001188,1,6,-1,-9,-49,-70,-14,45,-17
1491696001234,2,-76,16,73,127,109,127,68,37
1491696001234,2,-33,-15,-12,-122,-128,-46,-51,-32
1491696001236,3,24,-36,-87,-31,-32,-128,-38,-14
1491696001236,3,-55,-9,15,74,32,17,-35,4
1491696001237,0,-64,-19,37,-61,-57,-63,20,-11
1491696001237,0,13,10,-66,12,61,-5,-33,15
1491696001238,2,-17,14,-48,-37,-71,-32,54,-9
1491696001238,2,37,-34,-128,-128,-128,-127,-87,-50
1491696001283,3,-11,17,58,98,85,105,1,1
1491696001283,3,-6,-65,-56,-69,-55,96,85,37
1491696001285,0,-5,-35,2,-46,-76,-58,-77,-47
1491696001285,0,-20,27,79,89,85,111,87,37
1491696001286,1,-27,2,41,88,-21,19,-32,-7
1491696001286,1,9,27,-14,25,27,-40,-42,-65
1491696001287,2,32,-5,-28,-81,-56,-63,-2,13
1491696001287,2,-4,-6,-79,45,14,-29,-32,5
1491696001332,3,-26,3,29,-1,60,40,16,3
1491696001332,3,58,24,48,52,-45,-10,-20,-1
1491696001333,0,-15,-5,-54,-81,-72,-3,34,-2
1491696001333,0,7,11,82,127,100,24,-38,-30
1491696001334,3,-27,-55,-43,56,74,-1,-25,-27
1491696001334,3,47,19,29,39,-2,-63,-55,10
1491696001335,0,-71,19,71,127,127,127,68,5
1491696001335,0,-55,-3,43,-98,-105,13,19,16
1491696001381,1,11,-1,-68,-128,-128,-128,-38,-44
1491696001381,1,-57,-30,-67,75,10,16,5,9
1491696001383,2,23,25,58,-49,58,-20,-44,-5
1491696001383,2,-7,-52,2,60,-1,0,23,27
1491696001384,0,-47,-32,17,127,-13,63,15,-16
1491696001384,0,-38,-15,-108,-90,-84,-71,-80,-39
1491696001386,1,-101,2,4,84,-17,-52,20,60
1491696001386,1,-74,20,-63,-1,37,6,-5,-17
1491696001433,2,11,29,-23,105,73,79,9,24
1491696001433,2,14,7,80,-43,-7,93,45,4
1491696001434,3,46,-28,76,11,-36,13,-46,-18
1491696001434,3,74,3,-68,-128,-74,-34,19,34
1491696001435,1,41,20,80,18,35,-9,21,-3
1491696001435,1,-4,-6,9,5,0,-16,-6,-6
1491696001436,2,3,-14,-115,-50,-44,-6,-24,-12
1491696001436,2,-16,12,-69,87,98,35,11,-14
1491696001478,3,16,-13,-128,-29,5,7,-4,8
1491696001478,3,-4,3,-39,-109,-120,-42,-16,1
1491696001480,0,25,-5,-27,-34,-78,-1,21,35
1491696001480,0,-40,13,1,82,81,-10,-12,-25
1491696001482,2,9,0,9,-40,-33,-62,-33,1
1491696001482,2,-2,-9,32,19,1,17,33,9
1491696001488,3,-12,5,-32,-51,6,22,15,-11
1491696001488,3,-1,-11,22,-28,-75,-71,-11,-21
1491696001527,0,-8,8,4,-17,-1,13,-20,0
1491696001527,0,10,8,14,1,17,29,13,-4
1491696001533,1,10,-6,-43,-1,-24,-16,14,46
1491696001533,1,-23,-12,3,-13,16,34,1,-27
1491696001536,3,-34,-4,-9,-70,-109,-73,-41,-42
1491696001536,3,-16,4,0,-25,-2,-4,11,3
1491696001537,0,19,-26,-3,10,9,-20,-20,15
1491696001537,0,-17,24,-7,26,49,89,37,4
1491696001575,1,-7,8,28,30,33,1,-15,-19
1491696001575,1,15,-14,-28,-15,-27,-44,-33,8
1491696001624,2,-34,6,-20,-38,2,20,2,-18
1491696001624,2,-42,2,16,-8,-29,-13,16,22
1491696001626,0,-63,1,-2,-32,-67,-111,-48,3
1491696001626,0,-74,-7,-4,31,22,46,28,4
1491696001626,1,-118,-11,-31,-53,-67,-31,0,5
1491696001626,1,-120,-4,-2,11,25,15,-18,5
1491696001628,2,-59,13,29,7,54,31,17,-5
1491696001628,2,58,9,38,-35,-70,-45,11,23
1491696001673,3,-53,3,-26,6,46,49,1,-14
1491696001673,3,-30,16,33,13,-10,-43,-29,-2
1491696001674,1,26,18,8,-8,47,61,-10,20
1491696001674,1,-1,-14,-5,-8,-64,-39,51,11
1491696001675,2,46,10,-9,14,28,14,-43,-20
1491696001675,2,36,-9,0,-23,-27,-24,0,-13
1491696001676,1,7,25,-21,-45,-68,-17,-20,-6
1491696001676,1,-94,-8,8,18,37,-8,-4,-36
1491696001722,2,79,-27,15,11,-12,3,1,-1
1491696001722,2,-4,-20,-38,17,39,45,12,-16
1491696001724,3,47,-13,61,23,18,6,4,-1
1491696001724,3,31,-31,-20,-19,-24,12,-8,12
1491696001725,2,-29,-18,1,-35,-52,53,18,-21
1491696001725,2,49,10,-6,60,32,-35,-24,10
1491696001726,3,-58,-11,35,50,38,-35,17,-14
1491696001726,3,61,5,-25,-93,-19,19,-12,-22
1491696001771,0,-30,10,13,3,-53,-20,23,1
1491696001771,0,-45,-15,-23,24,86,-7,12,44
1491696001781,1,24,8,-5,12,-16,-16,-68,-14
1491696001781,1,30,19,17,38,-18,-27,46,14
1491696001781,3,36,-2,22,8,-19,-87,-32,-7
1491696001781,3,60,8,-45,-61,-27,11,-25,-7
1491696001782,0,46,-5,15,-13,43,76,20,-16
1491696001782,0,37,-3,8,28,-7,-42,36,33
1491696001819,1,56,-13,9,71,35,62,-27,4
1491696001819,1,-33,-1,-31,-50,-47,-21,37,-36
1491696001820,2,-65,3,18,-28,8,-20,-14,52
1491696001820,2,-109,4,-17,41,35,24,15,-41
1491696001821,0,74,4,1,59,52,57,-47,31
1491696001821,0,28,4,21,15,47,79,46,-21
1491696001822,1,16,-9,-50,-101,-107,-22,17,-5
1491696001822,1,57,-17,1,3,56,6,-42,14
1491696001868,2,65,22,-3,-1,-16,12,-2,-8
1491696001868,2,-34,-14,-4,-39,-78,-5,-16,-43
1491696001869,3,50,29,23,82,95,-6,0,4
1491696001869,3,-38,-31,5,-46,-73,-26,20,10
1491696001869,1,-26,2,27,67,98,106,93,17
1491696001869,1,-10,7,20,94,-9,-71,-117,-33
1491696001870,2,-8,-12,-28,-80,-13,16,55,14
1491696001870,2,42,-29,-42,-86,-128,-3,-63,-23
1491696001917,3,-43,16,7,11,28,41,27,-18
1491696001917,3,-8,0,31,111,127,127,13,43
1491696001917,0,-65,-15,18,8,29,91,55,-26
1491696001917,0,67,6,-20,-62,-42,-128,-118,3
1491696001918,2,-3,14,13,12,41,16,15,-2
1491696001918,2,-3,0,13,64,66,-1,-27,34
1491696001919,3,-64,-5,-8,-57,-26,86,87,3
1491696001919,3,107,-23,-31,-47,-99,-128,-37,15
1491696001966,0,31,3,19,30,25,-11,-21,-21
1491696001966,0,15,6,10,32,30,127,49,14
1491696001966,1,-31,-11,7,12,26,31,-42,-8
1491696001966,1,-42,13,11,-8,-34,31,127,7
1491696001967,3,26,-2,-10,-20,-35,-125,22,16
1491696001967,3,-86,-20,-6,24,68,127,18,-32
1491696001968,0,50,-15,28,71,76,-76,47,14
1491696001968,0,-57,-9,-10,-52,-60,-49,-36,-20
1491696002014,1,64,-9,-18,-121,-31,-75,-84,14
1491696002014,1,-25,-8,-8,20,20,58,-19,9
1491696002015,2,-57,5,-7,8,-34,13,20,-3
1491696002015,2,-94,1,50,67,97,110,54,-28
1491696002015,3,-7,13,3,33,91,-6,7,-24
1491696002015,3,54,2,3,13,-62,-117,-71,32
1491696002017,0,-1,-18,-23,-63,-98,-103,4,3
1491696002017,0,-14,9,-12,28,13,-128,47,2
1491696002063,1,-39,-5,2,-12,-50,90,9,-40
1491696002063,1,4,-19,-37,-24,16,53,0,2
1491696002064,2,-55,27,15,-25,-32,77,-23,-20
1491696002064,2,56,-2,4,14,34,-83,-1,-1
1491696002064,0,-30,-19,-10,-50,-22,9,4,-3
1491696002064,0,97,6,-27,-51,-50,13,-34,-26
1491696002065,1,80,11,-21,-10,21,-54,-19,1
1491696002065,1,46,-8,-11,-14,-53,-10,26,33
1491696002112,2,-21,23,12,-14,-25,20,-20,-24
1491696002112,2,20,10,42,64,61,-26,-10,9
1491696002113,3,36,-4,-11,-17,3,1,-6,25
1491696002113,3,-30,-4,14,10,-11,25,-26,-6
1491696002114,1,-15,3,5,-8,-39,-37,-19,-3
1491696002114,1,-78,-23,-23,-4,41,53,-7,-39
1491696002115,2,6,-14,-57,36,-48,-84,-68,-3
1491696002115,2,-48,-12,6,-69,-79,64,40,42
1491696002161,3,30,13,59,19,48,38,8,-16
1491696002161,3,-89,4,89,-7,21,-13,-25,-28
1491696002162,0,10,9,48,16,17,67,63,33
1491696002162,0,-18,10,-16,20,26,-26,-51,-1
1491696002163,2,19,-10,-10,-41,-34,80,-26,-39
1491696002163,2,-18,7,-10,-3,-11,-83,22,-3
1491696002164,3,19,-5,-113,0,-33,13,35,9
1491696002164,3,-12,-5,35,31,46,38,-41,-6
1491696002209,0,-8,8,107,9,8,-66,32,9
1491696002209,0,5,-20,72,-10,-2,53,11,-11
1491696002210,1,-12,-4,20,-26,-33,0,-35,-20
1491696002210,1,48,27,-86,-21,-14,-19,-13,0
1491696002211,3,54,-2,-18,33,18,92,9,32
1491696002211,3,-11,8,-14,-43,-46,28,0,-20
1491696002213,0,5,3,-2,-10,35,80,26,30
1491696002213,0,1,13,-5,52,35,-48,3,32
1491696002259,1,-20,-13,-92,4,4,-8,-25,-27
1491696002259,1,19,5,23,-9,-19,60,-24,-10
1491696002261,2,-28,-1,87,-30,-37,-128,13,-38
1491696002261,2,90,10,59,-15,-9,91,32,60
1491696002262,0,16,-9,-75,-47,-45,-15,-48,-28
1491696002262,0,6,-16,-83,-47,-18,3,-10,-33
1491696002263,1,-66,4,6,4,6,-35,30,36
1491696002263,1,33,-6,-20,-3,47,42,47,-12
1491696002307,2,19,3,18,53,-15,-49,-9,13
1491696002307,2,-20,-7,-118,3,12,-32,-43,-2
1491696002308,3,-36,-1,-9,-43,-21,114,-116,-65
1491696002308,3,53,-3,102,1,2,-128,16,14
1491696002310,1,-51,-7,1,-24,-30,3,16,-33
1491696002310,1,86,-9,-63,15,-2,15,-25,15
1491696002311,2,74,16,-88,-19,23,59,-10,27
1491696002311,2,-37,-13,-16,18,10,-41,-26,-16
1491696002356,3,-32,20,0,30,33,73,60,11
1491696002356,3,-38,-4,-6,-13,-27,-51,0,-12
1491696002357,0,-7,1,-37,-28,-22,-117,-18,17
1491696002357,0,1,18,7,33,22,127,67,14
1491696002359,1,-24,-29,2,-20,16,-30,-39,-18
1491696002359,1,-6,13,29,17,-30,24,-30,5
1491696002360,2,-22,2,-15,42,111,-23,16,-1
1491696002360,2,-55,-15,-13,-32,-52,38,-29,-29
1491696002404,3,-39,-10,14,-19,1,6,-9,-23
1491696002404,3,70,-10,7,16,-13,-44,-11,48
1491696002406,0,-88,-3,-38,-22,24,-39,-60,-57
1491696002406,0,28,-1,-95,23,-34,-14,86,17
1491696002406,2,-1,-5,127,54,52,34,55,11
1491696002406,2,-85,-12,46,6,19,2,21,-19
1491696002407,3,-65,27,-37,25,-20,-21,-20,-20
1491696002407,3,17,8,-100,-21,21,23,55,21
1491696002453,0,-26,-4,-49,22,-50,-9,-17,8
1491696002453,0,-11,-2,-27,8,90,36,-58,-34
1491696002454,1,65,-16,-26,-4,-104,-97,2,22
1491696002454,1,20,9,-38,-85,-52,-36,-10,-8
1491696002455,3,-77,-2,39,55,127,74,-13,-31
1491696002455,3,68,-6,-20,-9,-73,-51,69,7
1491696002455,0,-80,-17,-47,-61,-102,40,20,-8
1491696002455,0,127,2,35,-48,-67,-69,-91,-2
1491696002502,1,-48,6,36,2,22,66,27,21
1491696002502,1,-128,-2,11,83,109,-7,9,-53
1491696002503,2,119,5,-11,30,59,66,-38,11
1491696002503,2,-89,-8,20,19,-57,-128,-19,-40
1491696002503,0,-10,-15,-30,-14,-5,-76,-91,-65
1491696002503,0,-56,25,9,-5,10,84,29,-2
1491696002504,1,43,-15,6,97,23,-45,-43,-31
1491696002504,1,-70,-14,-50,-127,-101,-37,84,6
1491696002550,2,113,10,3,28,59,3,-82,67
1491696002550,2,-63,-10,-10,60,25,111,88,-26
1491696002551,3,81,-10,-1,-1,-19,-128,-6,32
1491696002551,3,8,19,49,12,-3,126,-57,-42
1491696002552,1,-53,7,9,77,101,96,37,65
1491696002552,1,36,-40,-28,6,-1,-31,37,-36
1491696002553,2,71,11,-32,-103,-30,-27,1,35
1491696002553,2,-69,-16,-2,74,48,120,54,-14
1491696002648,3,-44,7,31,-128,-114,-128,-67,-37
1491696002648,3,22,11,8,108,90,121,-16,90
1491696002649,0,-95,-1,15,26,-34,21,35,-51
1491696002649,0,70,8,-37,-96,-70,-16,-116,44
1491696002649,2,108,-10,4,-12,-24,-6,-70,47
1491696002649,2,2,-13,28,-10,61,52,32,-11
1491696002650,3,15,1,-19,-23,35,30,45,-20
1491696002650,3,-93,2,12,-88,-58,69,-70,7
1491696002697,0,3,32,-12,-23,-21,15,57,-9
1491696002697,0,11,-5,69,66,26,-11,-33,7
1491696002698,1,-74,-9,-38,110,86,-3,1,15
1491696002698,1,-13,-8,-24,-64,-26,-20,52,-42
1491696002699,3,41,32,92,119,109,53,-46,16
1491696002699,3,-63,-6,-28,27,-37,-81,79,-4
1491696002700,3,-28,-29,-62,-128,-128,85,-1,-26
1491696002700,3,5,1,-14,3,31,41,-40,-2
1491696002746,0,-3,-15,10,66,40,-22,6,38
1491696002746,0,107,46,88,27,57,121,65,38
1491696002747,1,-106,-5,-27,40,96,30,37,-27
1491696002747,1,30,-14,-34,-74,-89,-117,-119,-35
1491696002749,0,-103,-15,-21,-28,-78,-57,-118,-26
1491696002749,0,-63,-34,-64,-128,-85,73,36,-48
1491696002750,1,127,-6,-14,-33,-27,13,-29,33
1491696002750,1,-75,8,86,127,127,-34,34,38
1491696002794,2,-16,-1,35,22,-62,-25,-57,-55
1491696002794,2,-51,4,-53,-128,-80,-65,35,-26
1491696002796,3,-6,23,23,46,70,-94,14,32
1491696002796,3,79,-16,-24,-86,-119,58,63,0
1491696002796,1,-13,-12,-38,-128,-128,74,-102,-30
1491696002796,1,-18,38,7,90,127,-95,65,4
1491696002798,2,47,-2,-3,-17,-49,117,22,-13
1491696002798,2,60,-10,-15,-58,-85,-112,-71,-25
1491696002843,3,-98,-12,8,55,-14,75,21,13
1491696002843,3,-39,15,-42,-101,-115,98,15,-36
1491696002845,0,64,36,83,75,127,37,-60,4
1491696002845,0,-61,-19,26,36,-51,69,84,-26
1491696002846,2,-17,11,-14,-96,-47,-67,70,-15
1491696002846,2,53,15,52,112,-19,4,-77,18
1491696002847,3,-49,-47,-2,-56,-15,8,-67,-78
1491696002847,3,82,17,-72,-120,-84,-27,-11,33
1491696002892,0,-128,1,100,124,103,126,11,35
1491696002892,0,23,4,-66,60,67,53,12,43
1491696002893,1,50,-17,31,-104,-128,-64,-84,-104
1491696002893,1,59,-22,-6,127,127,112,65,22
1491696002895,3,4,41,6,52,-63,-22,19,-15
1491696002895,3,-20,-51,-66,-128,-25,-46,-37,-33
1491696002900,0,60,-10,-21,83,-46,-113,-57,1
1491696002900,0,17,1,22,-107,-22,-34,31,36
1491696002940,1,116,5,9,127,127,11,58,37
1491696002940,1,-51,12,60,-128,-128,21,7,-20
1491696002943,2,-38,-18,-38,105,121,85,32,-9
1491696002943,2,-2,-11,-21,-74,-32,86,-36,8
1491696002944,0,98,15,-65,-78,49,74,8,-2
1491696002944,0,-125,31,96,87,84,117,59,16
1491696002944,1,-10,12,-120,-128,-120,-85,-40,-12
1491696002944,1,33,2,-12,88,10,-93,-74,-16
1491696002989,2,-60,-9,-48,-10,76,-41,58,1
1491696002989,2,111,-11,49,-61,-125,-128,-80,-15
1491696002990,3,-107,55,36,76,90,127,82,31
1491696002990,3,69,17,42,127,43,-1,17,20
1491696002991,1,32,4,112,127,89,97,-2,41
1491696002991,1,-7,-2,5,88,102,125,54,21
1491696002992,2,-7,59,127,-22,-65,-78,8,-6
1491696002992,2,41,-61,-112,-111,-75,-128,-45,-13
1491696003038,3,18,7,63,46,51,27,30,14
1491696003038,3,-7,10,-13,116,127,106,-20,-7
1491696003039,0,84,14,108,-5,-58,-53,-55,12
1491696003039,0,-66,3,-66,-108,-99,77,40,-30
1491696003040,2,-44,-16,-2,124,23,127,31,14
1491696003040,2,1,35,26,-36,50,-111,5,17
1491696003041,3,54,-31,-97,-62,-109,-66,-18,15
1491696003041,3,-38,-7,119,-88,-74,5,-21,-33
1491696003087,0,3,34,-34,-9,-46,20,52,16
1491696003087,0,-67,-3,-58,92,127,60,31,-6
1491696003088,1,9,37,60,-24,-57,10,26,29
1491696003088,1,-3,-19,-24,-28,-3,-122,37,16
1491696003088,2,39,-14,-40,-114,-29,11,-89,-51
1491696003088,2,-36,19,73,127,31,-13,48,32
1491696003089,3,-42,1,-25,-37,22,-26,-6,-33
1491696003089,3,-21,-14,17,-77,-57,-39,-14,-4
1491696003136,0,-25,2,-13,127,110,8,35,25
1491696003136,0,2,-17,-43,-79,-64,17,24,6
1491696003137,1,62,-10,-22,59,27,-62,-73,-12
1491696003137,1,-20,-4,44,107,127,108,35,43
1491696003137,3,-32,-22,-72,-4,-75,-24,21,0
1491696003137,3,25,-10,-85,-28,16,-47,-27,4
1491696003138,0,-76,7,70,115,95,59,43,4
1491696003138,0,13,3,55,51,127,123,13,-13
1491696003184,1,18,-19,-31,-128,-120,-12,-19,-8
1491696003184,1,127,-5,-101,-54,-128,-128,-128,-38
1491696003185,2,-30,-36,-6,72,97,64,49,14
1491696003185,2,-63,-8,25,117,41,90,21,3
1491696003186,0,-37,25,13,-128,-86,-128,-77,-10
1491696003186,0,-23,17,22,79,-49,60,3,-10
1491696003187,1,4,-34,-36,-66,-106,-19,53,1
1491696003187,1,63,-41,-84,-94,-110,-109,-71,17
1491696003233,2,-9,48,95,70,12,63,24,1
1491696003233,2,-23,43,30,60,24,9,48,35
1491696003235,3,-28,8,-79,-52,-78,-55,20,-45
1491696003235,3,68,-79,-6,82,-50,-98,-104,17
1491696003236,1,45,-17,-45,12,33,-15,-27,17
1491696003236,1,3,72,36,-111,17,21,57,-23
1491696003237,2,60,22,-61,30,40,-29,-48,-1
1491696003237,2,-28,-25,-24,-54,101,78,19,-27
1491696003282,3,46,-2,41,-43,-62,80,-13,10
1491696003282,3,-14,27,36,42,33,1,4,-28
1491696003283,0,25,-31,-77,-20,-24,-114,-19,-3
1491696003283,0,30,17,-30,-101,10,-41,-68,-15
1491696003283,2,-18,66,87,98,117,127,37,18
1491696003283,2,101,-3,-59,-121,-87,-26,-35,1
1491696003284,3,29,3,2,127,109,100,-9,28
1491696003284,3,-106,29,104,-18,-27,121,46,-39
1491696003331,0,-49,-25,-80,-128,-128,-109,-21,-24
1491696003331,0,-59,-36,-102,-128,-99,-128,-69,-23
1491696003333,1,-89,53,-29,109,127,71,26,50
1491696003333,1,-13,48,121,127,127,22,30,-10
1491696003334,3,-10,-37,5,-128,-85,-3,-12,-42
1491696003334,3,-29,15,18,127,101,66,-40,5
1491696003336,0,49,23,25,-89,31,56,17,6
1491696003336,0,7,-3,20,6,12,19,22,13
1491696003380,1,-34,-15,108,101,56,40,22,-21
1491696003380,1,25,-50,10,-14,-12,-43,-25,5
1491696003381,2,-33,-15,-44,5,90,-6,-40,-22
1491696003381,2,71,24,-92,-83,-99,-72,5,-7
1491696003383,0,-5,7,-39,103,68,28,0,16
1491696003383,0,-17,9,104,100,79,74,32,4
1491696003384,1,-46,19,41,64,-13,35,0,-16
1491696003384,1,-37,-12,49,-28,-29,10,1,-11
1491696003428,2,-29,-28,38,-51,-88,-20,10,14
1491696003428,2,-22,-20,-38,27,57,-18,-19,-37
1491696003430,3,29,27,-73,-97,-97,-41,-23,17
1491696003430,3,-41,-24,-80,7,-39,-9,-11,-25
1491696003431,0,35,-2,-15,17,-128,-1,43,33
1491696003431,0,-17,-14,10,27,-77,-26,-45,2
1491696003432,1,-10,1,19,30,-18,-5,10,6
1491696003432,1,-4,-13,-48,-10,3,16,6,-19
1491696003477,2,15,16,24,-33,-18,-44,-18,2
1491696003477,2,-27,13,61,33,67,52,52,33
1491696003478,3,16,22,-32,-22,48,-4,-20,-3
1491696003478,3,-9,-3,-48,19,16,-16,19,15
1491696003479,1,-6,-13,13,-79,-113,-62,-21,-3
1491696003479,1,9,35,15,11,-1,-52,-4,20
1491696003481,2,-4,-13,2,63,46,18,-4,-23
1491696003481,2,-4,1,-19,7,27,2,24,-11
1491696003526,3,-8,-14,-19,38,82,43,5,11
1491696003526,3,15,4,40,-8,-50,-102,-82,-41
1491696003527,0,-31,-6,-33,-43,-34,14,46,15
1491696003527,0,6,12,-59,-40,-39,-1,31,19
1491696003529,2,-2,7,3,34,47,-28,-51,-10
1491696003529,2,12,-22,-51,-83,-83,-25,-9,14
1491696003530,3,32,10,23,47,62,36,66,22
1491696003530,3,-9,-9,10,-31,-94,-111,-72,-43
1491696003574,0,34,-4,18,54,54,36,12,19
1491696003574,0,-39,6,12,47,33,-10,10,3
1491696003576,1,-39,-8,-36,-35,23,3,-7,-19
1491696003576,1,0,6,10,-9,-23,-64,-18,-34
1491696003577,3,66,-9,-29,-13,1,-4,-4,-7
1491696003577,3,13,13,41,52,66,81,61,29
1491696003578,0,-27,5,-36,-17,13,-21,-41,-46
1491696003578,0,-14,17,34,37,32,48,20,29
1491696003623,1,-48,-7,-20,-94,-98,-23,-9,-15
1491696003623,1,-122,10,-26,-6,-58,-43,-27,13
1491696003625,2,-20,3,10,-11,2,25,11,13
1491696003625,2,-121,18,27,58,59,-21,-22,-33
1491696003626,0,45,4,46,32,-4,10,-8,-10
1491696003626,0,71,-4,-11,-19,61,16,17,5
1491696003627,1,40,-29,-10,23,-13,-3,-21,-25
1491696003627,1,0,39,13,-17,43,57,-7,13
1491696003672,2,-16,-9,-41,66,-50,-113,-31,-21
1491696003672,2,81,13,19,-61,-8,46,24,10
1491696003673,3,86,49,-17,-54,-28,-16,8,20
1491696003673,3,53,42,22,23,2,-5,-13,-24
1491696003674,1,10,-31,44,73,7,13,52,21
1491696003674,1,-14,-31,-33,-101,12,20,6,8
1491696003676,2,-21,-24,24,-67,-66,-32,-15,-22
1491696003676,2,12,-40,-30,7,16,18,6,-9
1491696003721,3,-25,-3,32,61,-3,22,12,5
1491696003721,3,30,-21,24,65,88,57,48,55
1491696003722,0,-27,-1,-43,-31,-51,-39,-20,14
1491696003722,0,-7,2,18,-57,-14,6,17,-27
1491696003724,2,70,5,-16,-96,-83,-12,-39,13
1491696003724,2,16,-8,-17,-44,3,7,49,9
1491696003724,3,4,-11,-5,19,41,6,12,-16
1491696003724,3,10,13,26,76,100,-72,-50,10
1491696003769,0,23,-5,-3,-70,-47,5,35,-2
1491696003769,0,-2,-7,-5,57,-5,-12,-68,-39
1491696003771,1,45,-16,23,-34,-17,55,76,52
1491696003771,1,-39,6,-4,18,2,-28,-64,-24
1491696003772,2,-79,20,17,25,18,127,62,18
1491696003772,2,65,-20,-17,-27,-78,-128,-43,6
1491696003773,3,-43,7,-4,-25,18,114,23,-24
1491696003773,3,127,-11,15,73,61,-27,26,-1
1491696003818,0,119,-25,-25,-53,4,-7,-28,-16
1491696003818,0,-25,16,-42,-75,-95,-41,-21,4
1491696003820,1,-25,14,60,93,90,-3,33,36
1491696003820,1,-4,15,7,-42,-87,28,19,-19
1491696003821,3,45,31,-9,-45,-57,53,-37,37
1491696003821,3,-76,-18,10,0,28,92,31,-29
1491696003822,0,76,-24,2,26,33,-128,-53,-9
1491696003822,0,-76,-9,5,67,34,127,34,10
1491696003867,1,32,9,-55,-114,-73,-93,-45,-30
1491696003867,1,11,-29,8,-18,-75,56,43,30
1491696003868,2,-78,-9,10,49,-37,-51,-9,-23
1491696003868,2,-48,-13,37,66,78,73,1,-20
1491696003869,0,-23,33,47,80,58,-53,-1,-43
1491696003869,0,6,-3,9,35,47,0,-74,1
1491696003870,1,-86,8,9,69,73,56,90,-34
1491696003870,1,5,18,15,-83,-24,108,0,16
1491696003916,2,-79,-18,-49,-73,-84,18,43,-3
1491696003916,2,-16,31,4,2,-71,-128,-47,-26
1491696003917,3,10,-10,-9,81,114,43,-85,-46
1491696003917,3,-105,-16,-21,-62,-22,-8,-4,20
1491696003918,1,45,-2,14,-23,-1,36,2,21
1491696003918,1,12,12,43,124,99,-6,40,-22
1491696003919,2,26,21,26,51,80,69,46,49
1491696003919,2,59,-17,-42,-100,-49,67,-35,-4
1491696003965,3,-30,11,-8,-15,-103,-81,-60,-44
1491696003965,3,-6,-14,-43,-49,-16,-108,-18,12
1491696003966,0,-21,5,44,19,59,85,39,5
1491696003966,0,-55,-3,-1,39,18,90,15,-31
1491696003967,2,42,5,0,18,49,30,39,-2
1491696003967,2,48,14,12,26,3,-21,11,29
1491696003968,3,-128,-19,-46,-12,8,45,27,0
1491696003968,3,-1,20,57,40,11,77,-17,32
1491696004013,0,-91,-15,-45,-105,-124,-84,-40,-8
1491696004013,0,84,39,0,-51,-26,20,20,5
1491696004015,1,111,10,-14,23,10,-8,19,3
1491696004015,1,9,-1,-21,50,11,-19,-45,-27
1491696004016,3,53,-68,-9,22,21,31,21,2
1491696004016,3,-18,-35,6,11,3,41,65,-17
1491696004017,0,-8,-11,-21,-57,-12,5,-52,18
1491696004017,0,-63,7,33,24,-42,-18,52,-21
1491696004062,1,67,47,-16,-75,-88,-113,-40,6
1491696004062,1,-104,10,17,26,19,29,-40,-39
1491696004063,2,89,-1,-66,2,21,35,30,12
1491696004063,2,22,12,14,-7,32,37,13,35
1491696004064,0,-84,-38,-10,-47,-74,19,-28,-37
1491696004064,0,-6,22,-18,-15,-1,42,71,38
1491696004065,1,-79,-37,-6,-35,-16,76,-84,-76
1491696004065,1,127,5,5,35,10,-73,36,46
1491696004111,2,44,6,19,72,41,79,-18,32
1491696004111,2,-37,-4,10,-38,29,34,45,-35
1491696004113,3,13,8,5,-40,-38,-8,25,-2
1491696004113,3,7,1,-1,24,46,26,10,12
1491696004114,0,-41,9,38,68,6,-19,-14,-20
1491696004114,0,-20,6,-33,-26,-22,-82,-54,-20
1491696004115,1,70,11,2,-23,-35,-8,-37,48
1491696004115,1,0,-7,-57,-47,-35,9,53,8
1491696004159,2,20,6,-20,17,1,-55,3,20
1491696004159,2,-53,-36,66,37,38,57,-13,-4
1491696004161,3,-68,6,66,21,10,-111,-5,-45
1491696004161,3,7,23,74,-18,-31,-12,-37,20
1491696004162,1,0,-15,-57,-25,-8,36,-33,-34
1491696004162,1,-6,-7,-28,-28,-44,29,22,-2
1491696004163,2,3,8,-21,20,10,-7,-23,8
1491696004163,2,32,-4,-26,70,86,14,73,7
1491696004208,3,45,-13,-114,-35,-72,-128,-61,-10
1491696004208,3,22,-18,-29,-50,-32,-31,74,24
1491696004210,0,-68,-15,84,-51,-19,16,9,-31
1491696004210,0,72,30,127,68,56,36,-7,45
1491696004211,2,-15,20,-19,-37,-37,-77,-22,-34
1491696004211,2,-47,-22,-45,18,3,-10,50,11
1491696004212,3,42,-10,5,8,29,7,0,-4
1491696004212,3,-11,5,12,45,7,59,-30,32
1491696004257,0,46,-13,-55,6,85,40,13,15
1491696004257,0,19,4,-81,-26,-52,57,-9,4
1491696004259,1,-84,-5,45,-62,-5,76,-15,-2
1491696004259,1,57,-10,118,40,7,11,-53,3
1491696004260,3,103,13,-86,-40,-7,-72,66,25
1491696004260,3,-41,2,-36,-1,31,-44,-26,-42
1491696004261,0,-32,13,-36,71,60,72,-3,37
1491696004261,0,57,-19,-11,12,31,-128,-41,-14
1491696004306,1,4,44,16,-55,-73,28,11,5
1491696004306,1,-97,-4,-23,-57,-71,-34,39,2
1491696004307,2,-2,-10,-128,51,71,-7,-36,-15
1491696004307,2,34,-6,42,21,4,-12,-63,3
1491696004309,0,-104,-6,54,-49,-2,-78,-88,-46
1491696004309,0,34,1,-9,6,-13,27,-15,6
1491696004310,1,112,11,-70,3,1,-75,-16,5
1491696004310,1,5,4,-14,32,69,93,87,27
1491696004354,2,127,-1,-28,12,-51,-84,-28,-9
1491696004354,2,-66,-1,-21,-45,-13,15,28,-5
1491696004356,3,-39,-9,-1,-15,-10,13,58,30
1491696004356,3,-128,-2,-13,-18,-22,-75,-60,-47
1491696004358,1,-103,-6,33,48,-35,-76,-51,-43
1491696004358,1,-1,-4,-20,2,53,46,67,23
1491696004359,2,51,-9,-7,-69,-123,-72,-7,-19
1491696004359,2,-3,-19,-25,-105,-100,-45,-45,-3
1491696004406,3,-63,-1,-2,36,71,88,9,25
1491696004406,3,6,22,35,48,23,-5,-27,-10
1491696004407,0,16,16,28,54,95,43,36,40
1491696004407,0,-63,-6,-12,48,12,-16,-15,-46
1491696004408,2,91,19,4,-15,6,81,83,57
1491696004408,2,-22,-13,10,-7,13,81,18,-40
1491696004409,3,69,-10,-3,60,37,-74,-58,2
1491696004409,3,-15,17,19,6,-66,9,87,-11
1491696004452,0,115,-14,-35,-19,-15,-111,-109,31
1491696004452,0,-59,17,30,-16,21,48,34,17
1491696004454,1,12,-12,-16,10,17,50,-17,-42
1491696004454,1,79,-1,-24,-49,-23,-18,29,-2
1491696004456,3,-43,-13,14,-11,-55,-82,-26,-30
1491696004456,3,39,-6,-18,9,59,1,-20,-10
1491696004457,0,-78,4,-17,-46,-64,127,86,-9
1491696004457,0,25,-27,-1,-9,-13,-128,-34,-18
1491696004500,1,-1,4,-12,77,86,127,23,1
1491696004500,1,84,-3,-39,-73,-51,28,-12,65
1491696004502,2,-119,-3,16,-12,-28,-99,-29,-69
1491696004502,2,47,9,29,52,38,-15,-37,28
1491696004503,3,47,57,27,78,-19,-27,-54,-36
1491696004503,3,-27,-10,-22,-53,-23,31,76,-2
1491696004504,0,6,-21,-42,-61,-56,18,19,1
1491696004504,0,11,9,5,-43,-8,45,-14,19
1491696004549,1,-44,-11,-15,96,116,-36,11,12
1491696004549,1,9,20,44,45,32,44,-34,-78
1491696004551,2,-31,-10,-6,7,59,-29,65,28
1491696004551,2,126,-12,-8,60,-111,11,5,31
1491696004552,0,7,5,42,97,127,122,-54,-6
1491696004552,0,-55,26,9,20,-63,-128,30,2
1491696004554,1,59,-26,-9,-62,20,-24,-61,-23
1491696004554,1,-32,-23,-23,-80,-101,40,-51,44
1491696004598,2,52,33,20,-28,19,-28,-25,5
1491696004598,2,-26,-15,2,105,110,110,46,16
1491696004599,3,53,8,-32,-38,-118,78,10,2
1491696004599,3,-20,-34,18,-85,-44,-128,-128,-72
1491696004600,1,-10,-1,43,41,109,-64,50,30
1491696004600,1,-114,8,19,126,89,82,97,90
1491696004601,2,-93,-19,5,-118,-128,-109,-39,-45
1491696004601,2,-128,10,4,70,125,26,33,-49
1491696004647,3,-25,-38,-59,-77,-128,54,30,-35
1491696004647,3,38,-14,-28,-39,33,-56,-97,6
1491696004648,0,32,16,59,103,90,99,115,67
1491696004648,0,1,19,-2,-48,-55,-82,-23,-27
1491696004648,2,-25,10,-40,-109,-124,36,-29,-14
1491696004648,2,21,-1,83,32,41,89,-108,-14
1491696004649,3,15,1,-5,-58,73,-47,120,38
1491696004649,3,18,-3,-6,-15,-76,126,-112,-53
1491696004695,0,11,-17,0,111,101,-128,18,-4
1491696004695,0,-32,-16,-70,-112,-121,82,-40,-5
1491696004696,1,-56,0,-11,-73,-71,36,49,10
1491696004696,1,-10,44,65,96,122,127,-37,-22
1491696004697,3,12,11,6,104,100,13,-24,34
1491696004697,3,-23,-38,-58,-96,-126,-89,12,-32
1491696004698,0,53,11,-21,-9,118,127,86,20
1491696004698,0,26,16,-7,-20,63,-104,-26,26
1491696004744,1,-18,7,92,78,-74,50,-48,24
1491696004744,1,-4,-4,-14,23,107,7,48,-36
1491696004745,2,21,-4,43,-114,-128,-91,-13,37
1491696004745,2,-4,-30,-82,-128,-102,-11,73,-33
1491696004746,0,29,-14,0,1,-15,36,12,-19
1491696004746,0,20,3,-41,-72,-71,-99,-49,-27
1491696004747,1,18,-25,-48,-59,-58,-2,-120,-56
1491696004747,1,46,5,68,75,110,77,118,80
1491696004793,2,2,16,-3,78,93,16,88,10
1491696004793,2,-54,9,44,82,95,93,6,30
1491696004794,3,-2,-4,-16,28,44,-62,-36,-60
1491696004794,3,87,-11,-21,-128,-91,35,-38,4
1491696004795,1,-108,-26,-54,56,29,18,-24,-21
1491696004795,1,-29,36,92,121,66,-104,99,-4
1491696004842,2,17,-22,-44,-48,-101,-89,-84,-41
1491696004842,2,68,14,-28,-31,-95,73,-83,8
1491696004842,3,-61,4,6,56,59,-92,94,30
1491696004842,3,30,-8,-74,-33,-57,-53,-7,-35
1491696004843,0,51,18,-8,-30,108,-39,-7,-8
1491696004843,0,-58,-9,45,100,-23,79,97,46
1491696004844,1,-87,44,92,36,-59,98,101,13
1491696004844,1,66,-29,-62,-55,-16,-76,-83,-40
1491696004890,2,7,-23,9,-14,-128,103,21,-8
1491696004890,2,62,13,-54,-2,127,94,44,25
1491696004892,3,38,6,15,50,-53,-32,-13,57
1491696004892,3,-92,-2,66,-25,-110,-67,-66,-18
1491696004893,0,9,-18,-56,-28,104,4,-25,-29
1491696004893,0,-49,14,3,-22,-126,4,-17,-78
1491696004893,2,23,-26,-53,-82,-64,-128,-77,-25
1491696004893,2,-40,-31,-57,13,76,59,47,12
1491696004939,3,-98,17,3,-55,-87,26,-3,-32
1491696004939,3,19,22,-43,77,127,-87,69,6
1491696004940,0,-50,18,126,127,13,127,94,46
1491696004940,0,78,29,-16,-116,-128,-128,-29,38
1491696004941,3,75,0,-30,-128,-128,6,-40,-23
1491696004941,3,-97,-29,-91,107,97,92,33,29
1491696004943,0,44,35,77,-29,-20,-15,55,-1
1491696004943,0,25,-24,-66,-25,-73,-93,-27,9
1491696004988,1,-46,8,43,97,84,113,76,13
1491696004988,1,77,-39,-65,-6,7,-121,-121,-44
1491696004989,2,24,24,11,33,89,-52,-71,-39
1491696004989,2,-82,13,59,20,-8,89,57,3
1491696004990,0,61,44,58,120,28,-120,-76,39
1491696004990,0,-99,-14,-32,85,19,5,84,-8
1491696004991,1,1,-5,45,-69,33,-40,25,54
1491696004991,1,-37,-6,-78,44,-15,36,-63,-11
1491696005037,2,-89,7,31,-128,-128,83,44,-37
1491696005037,2,113,-10,-3,124,-26,-60,-128,-67
1491696005038,3,42,13,-10,20,80,95,-23,11
1491696005038,3,14,-9,25,-58,50,96,78,23
1491696005039,1,14,-8,38,51,1,-102,-19,12
1491696005039,1,18,28,0,109,65,43,8,-14
1491696005040,2,-14,9,-5,-105,-17,59,52,1
1491696005040,2,59,-13,14,-5,-56,88,-78,55
1491696005085,3,-42,-19,-85,67,48,66,21,-23
1491696005085,3,-6,19,123,38,27,88,32,7
1491696005087,0,-20,-12,-68,-16,57,-3,-44,4
1491696005087,0,-26,47,109,80,73,20,12,21
1491696005089,2,51,-34,-109,-74,-103,-106,-49,11
1491696005089,2,-30,-12,65,78,127,74,69,10
1491696005089,3,-21,34,-17,47,90,97,3,37
1491696005089,3,-69,32,84,91,-15,113,9,-23
1491696005134,0,-35,-32,-60,-22,-26,-113,-85,-65
1491696005134,0,87,-38,-82,-128,-70,-75,-45,4
1491696005135,1,-5,2,61,111,35,55,9,31
1491696005135,1,51,21,48,38,36,77,-8,34
1491696005136,3,18,13,-29,51,-20,-8,-40,-11
1491696005136,3,15,9,92,-14,-95,-33,-7,-12
1491696005137,0,-16,2,-42,32,-50,84,20,13
1491696005137,0,1,-8,-3,65,43,36,24,-12
1491696005183,1,2,-40,-64,-93,18,-97,-54,-21
1491696005183,1,-10,20,38,59,-2,-28,32,31
1491696005184,2,-46,0,27,14,74,-23,-59,11
1491696005184,2,-28,-15,8,-48,-22,21,55,14
1491696005184,3,102,2,-106,-110,-128,-97,-49,-26
1491696005184,3,-20,-16,36,57,107,-46,-26,-27
1491696005185,0,-18,8,67,70,-54,98,74,0
1491696005185,0,41,5,24,-65,46,-43,-18,-8
1491696005232,1,-6,-29,-18,-98,-89,-66,-67,38
1491696005232,1,31,-18,-2,-42,-126,-107,-2,-22
1491696005233,2,66,-2,-48,127,91,11,-13,2
1491696005233,2,31,10,14,-25,-58,-12,-25,12
1491696005233,0,44,-32,41,-19,-67,42,-23,-1
1491696005233,0,91,-16,-59,-51,36,3,67,12
1491696005234,1,25,-18,40,-11,-128,-64,18,4
1491696005234,1,-81,-31,-93,-60,77,52,-73,13
1491696005280,2,-92,-1,53,127,81,35,113,-19
1491696005280,2,-106,13,9,62,-20,-41,3,-19
1491696005281,3,-2,1,-60,-91,-128,-29,28,-24
1491696005281,3,-52,3,-61,65,6,-13,-25,7
1491696005329,1,-55,14,88,-33,88,51,25,12
1491696005329,1,30,2,-92,-85,-36,-38,0,-7
1491696005330,2,-24,-13,6,15,-50,-26,-66,-6
1491696005330,2,-37,-12,-25,89,127,115,19,-15
1491696005331,3,25,65,127,127,111,122,50,8
1491696005331,3,73,-31,-68,-128,-118,-98,-27,-22
1491696005332,0,98,-15,-76,-40,-55,-128,-79,-9
1491696005332,0,-55,8,-52,107,70,83,17,33
1491696005378,2,47,-1,9,-87,-77,2,10,-4
1491696005378,2,-47,-25,-77,-52,-48,-75,-98,-17
1491696005379,3,2,16,17,23,-19,-1,-29,-27
1491696005379,3,-70,5,73,124,56,37,57,0
1491696005380,0,23,-19,-86,-71,-72,-49,-19,-14
1491696005380,0,82,-54,-38,-58,1,-7,-12,30
1491696005381,3,-38,-34,-84,-71,-18,-90,-18,-12
1491696005381,3,-56,45,-44,-117,-75,-21,23,-12
1491696005427,0,-34,49,13,-19,33,5,-27,-8
1491696005427,0,6,2,32,-18,-76,38,31,5
1491696005428,1,-39,-10,-24,-18,-11,5,-8,8
1491696005428,1,-1,-8,0,-87,6,62,11,9
1491696005429,0,33,37,39,45,53,36,-13,15
1491696005429,0,-29,-2,45,51,34,56,23,-1
1491696005430,1,19,-14,-72,-71,-39,-41,5,0
1491696005430,1,-23,11,5,-86,-71,-44,-46,-10
1491696005475,2,0,-10,3,30,36,9,14,-11
1491696005475,2,-5,8,-22,16,-16,40,39,41
1491696005524,3,7,-5,-12,1,48,46,22,0
1491696005524,3,1,-27,-4,29,-19,-40,-25,-13
1491696005525,1,-7,-22,-2,17,18,40,69,28
1491696005525,1,35,24,-34,20,-16,-54,-51,10
1491696005573,2,-23,4,38,16,42,61,50,-2
1491696005573,2,-2,-4,-38,-103,-116,-77,3,-21
1491696005575,3,14,1,56,38,1,3,-28,9
1491696005575,3,27,8,-35,-22,-2,-8,25,0
1491696005576,0,-20,-31,1,44,36,27,-11,-11
1491696005576,0,26,2,47,17,34,19,26,32
1491696005577,1,0,18,4,-33,-2,-11,-22,-14
1491696005577,1,-33,-6,-37,38,42,29,24,3
1491696005622,2,2,16,70,-13,-9,2,-17,-13
1491696005622,2,5,-23,-35,-73,-78,-42,-2,-20
1491696005622,2,-105,-17,28,-37,-8,-32,-11,-3
1491696005622,2,-46,-11,-57,-38,-26,14,7,7
1491696005623,3,-16,8,30,11,4,-6,-49,-23
1491696005623,3,60,6,-40,59,35,42,29,12
1491696005624,3,44,4,-23,42,41,-6,26,-2
1491696005624,3,11,85,-15,-61,-26,33,20,7
1491696005670,0,-10,70,10,27,-8,-25,-12,-4
1491696005670,0,-14,42,17,-6,27,7,15,-18
1491696005671,1,-15,-41,-11,19,13,33,24,3
1491696005671,1,-21,-52,2,-61,-32,-52,-59,-19
1491696005673,0,-34,-1,-22,-34,-28,-39,-67,-25
1491696005673,0,0,-14,-1,50,3,31,49,1
1491696005676,1,77,18,-25,-71,-53,-22,-19,21
1491696005676,1,-35,3,72,49,18,21,-21,-1
1491696005719,2,15,-4,-34,11,11,25,-10,-22
1491696005719,2,-23,13,4,36,83,-9,1,-17
1491696005720,3,28,1,1,-21,-53,-40,2,47
1491696005720,3,-8,25,-26,-3,4,-3,27,-22
1491696005721,1,-47,-10,-39,-128,-37,83,26,15
1491696005721,1,5,9,51,66,-31,-37,-9,-5
1491696005722,2,-66,-35,-50,-15,15,-83,79,1
1491696005722,2,-42,-4,20,-15,-34,52,-74,-65
1491696005768,3,56,-3,-35,34,3,-60,10,38
1491696005768,3,-41,4,15,-30,-45,4,30,-2
1491696005770,0,117,-3,-10,5,6,34,40,8
1491696005770,0,121,1,9,53,49,41,56,16
1491696005771,2,104,-24,-51,-60,-88,10,19,42
1491696005771,2,-31,27,9,4,64,32,8,-30
1491696005772,3,-48,107,50,23,-32,126,-11,-34
1491696005772,3,41,35,-44,-87,-73,-97,-67,-29
1491696005817,0,-42,5,-24,45,-38,-8,-51,-12
1491696005817,0,-61,-56,14,-13,-18,6,6,11
1491696005818,1,35,-67,37,95,124,-36,18,55
1491696005818,1,-128,-67,5,34,63,30,35,0
1491696005818,3,-7,-72,-15,-41,-31,-40,-37,8
1491696005818,3,113,-33,26,115,98,127,127,34
1491696005819,0,-16,29,0,2,95,-22,-63,-45
1491696005819,0,125,-13,39,37,-79,-70,-101,48
1491696005865,1,-46,-2,-32,-56,1,78,50,14
1491696005865,1,9,-42,-2,38,87,74,20,6
1491696005866,2,103,39,-1,28,127,-31,3,-7
1491696005866,2,-38,0,-39,6,-128,-48,-11,-25
1491696005867,0,-23,-10,64,85,113,127,127,59
1491696005867,0,47,18,7,-17,90,125,-12,0
1491696005868,1,-5,-7,-7,26,-49,-62,-2,-13
1491696005868,1,22,-10,-10,-65,-97,44,-35,10
1491696005914,2,-57,28,-21,-79,-56,91,-34,-36
1491696005914,2,127,-7,-47,28,29,-54,2,-27
1491696005915,3,-128,24,31,6,57,126,89,13
1491696005915,3,47,4,42,-93,-109,48,-32,30
1491696005917,0,-74,-13,-17,127,7,-128,-55,-29
1491696005917,0,31,4,-1,-123,-109,3,65,38
1491696005918,1,-48,-26,-20,38,58,64,55,-3
1491696005918,1,-48,19,40,70,115,-46,-28,-2
1491696005963,2,114,19,47,73,27,90,79,44
1491696005963,2,-7,-13,-57,-97,-89,-36,-17,-16
1491696005964,3,42,-18,-1,-10,-29,45,-8,-23
1491696005964,3,74,8,35,45,94,67,46,15
1491696005965,1,9,3,13,37,-41,-55,-98,-68
1491696005965,1,-47,8,-21,-14,121,94,78,46
1491696005966,2,-3,-50,6,24,-68,-95,-75,-16
1491696005966,2,-44,1,-13,120,73,21,52,42
1491696006012,3,-68,-17,31,-48,-39,-63,-126,-122
1491696006012,3,47,39,-35,-43,-111,-84,60,71
1491696006012,0,-100,8,-3,-71,-18,14,-29,-41
1491696006012,0,-58,-13,12,24,27,-37,-17,4
1491696006013,2,50,26,37,2,80,103,41,-10
1491696006013,2,17,-12,-2,28,-35,-35,12,13
1491696006014,3,127,-32,-30,-66,-24,-106,-87,-5
1491696006014,3,66,-30,-31,-73,-105,-13,25,-30
1491696006060,0,8,25,14,-9,36,98,26,77
1491696006060,0,-43,29,23,70,96,-32,-13,-50
1491696006110,1,-57,43,-16,24,-15,67,61,30
1491696006110,1,-2,15,17,-29,-128,-79,-42,-12
1491696006111,3,-29,-25,-3,4,1,-2,16,8
1491696006111,3,10,-16,-48,6,21,34,-7,-7
1491696006112,0,-11,-12,19,6,-8,0,-28,-37
1491696006112,0,-41,-1,-5,21,11,45,34,24
1491696006114,1,17,-8,-17,6,18,-4,33,31
1491696006114,1,-84,-1,25,22,-6,-36,-83,-45
1491696006158,2,65,-18,-15,4,50,-11,54,42
1491696006158,2,1,-15,-8,-84,-109,-52,-17,-25
1491696006160,0,-54,12,16,-49,-55,-61,-64,-16
1491696006160,0,16,-21,-15,14,-11,1,-26,-6
1491696006161,1,-6,0,-12,-50,-69,44,22,-13
1491696006161,1,26,-3,-4,0,37,-58,-45,-7
1491696006162,1,8,-7,-23,-27,-40,-6,-18,-38
1491696006162,1,32,-6,-10,-46,-40,18,-2,7
1491696006207,2,64,20,-2,-5,7,-46,-46,-6
1491696006207,2,-9,-25,-18,52,91,58,6,6
1491696006208,3,-16,8,-3,5,-34,-61,-3,-37
1491696006208,3,77,17,-20,-6,-13,-20,-19,58
