1491089977200,0,-15,-18,-76,-80,48,-45,-19,-26
1491089977200,0,-25,-12,26,53,34,61,33,11
1491089977202,1,-6,2,4,-40,6,-29,23,24
1491089977202,1,25,24,24,43,51,-76,-15,-23
1491089977203,2,20,-13,12,50,-31,95,57,69
1491089977203,2,5,39,13,15,-20,37,-23,3
1491089977203,3,-33,-18,-25,8,9,-96,-51,-81
1491089977203,3,-12,-21,-52,-119,-80,-59,20,29
1491089977249,0,24,2,12,56,2,41,-20,-29
1491089977249,0,29,8,21,1,-42,51,40,0
1491089977250,1,-13,-14,-9,16,-5,-14,-19,-4
1491089977250,1,-17,11,21,25,-26,-53,-50,-9
1491089977251,2,-27,-3,-8,1,-64,-62,-60,-34
1491089977251,2,-1,3,13,-77,-82,44,35,5
1491089977252,0,32,9,18,-117,41,72,-26,0
1491089977252,0,10,-18,-35,77,22,96,85,27
1491089977298,1,23,18,2,11,54,-113,-29,0
1491089977298,1,-20,-10,-7,-12,-7,44,-69,23
1491089977299,2,-45,-27,7,18,-116,-30,-11,-15
1491089977299,2,-1,18,49,-4,117,-47,9,0
1491089977301,0,0,20,19,57,37,-28,-8,6
1491089977301,0,-19,-10,-1,-50,-51,26,11,-35
1491089977347,1,-48,6,53,46,48,49,46,-42
1491089977347,1,47,18,-4,20,-50,-90,-51,18
1491089977347,2,-24,-36,-64,-68,-21,69,21,23
1491089977347,2,-26,-5,7,23,-4,46,-91,-1
1491089977348,3,30,28,45,-48,-35,-71,-13,55
1491089977348,3,-14,-31,-8,43,-1,19,38,-28
1491089977349,1,-39,19,27,95,111,-53,-1,-17
1491089977349,1,38,-19,-14,-59,-68,75,-45,9
1491089977444,2,-12,6,5,67,34,-23,122,19
1491089977444,2,0,-13,-15,-72,-26,-30,-15,-44
1491089977446,3,-38,-15,-7,44,45,-56,-72,-66
1491089977446,3,-30,17,-6,-49,-5,-78,42,23
1491089977448,2,-24,-22,-32,0,39,68,64,-45
1491089977448,2,0,3,17,80,4,40,-55,32
1491089977449,3,-32,-24,-5,-26,2,2,22,11
1491089977449,3,3,-10,39,59,-12,93,-7,-6
1491089977542,0,13,28,47,-39,-40,46,66,16
1491089977542,0,2,-2,12,-23,-20,-124,-31,36
1491089977543,1,-28,-32,-81,46,24,55,18,-27
1491089977543,1,8,13,39,37,-106,93,23,-13
1491089977543,0,2,-1,30,-22,-109,-80,-53,-8
1491089977543,0,5,8,-71,82,20,-82,-50,-26
1491089977544,1,20,6,6,53,-48,46,-23,-1
1491089977544,1,-26,-20,-34,81,45,3,54,0
1491089977590,2,17,-10,-40,-47,-19,-56,-18,18
1491089977590,2,-38,16,42,-44,-43,87,-13,-53
1491089977591,3,-7,-1,30,42,33,-52,72,83
1491089977591,3,-15,-8,0,23,-2,11,-70,-72
1491089977834,2,-31,-27,-52,-3,-27,9,-32,-10
1491089977834,2,-18,27,56,-36,-17,40,40,-39
1491089977835,3,-4,-12,58,51,17,-6,-100,-46
1491089977835,3,4,-5,38,23,78,-50,96,29
1491089977836,0,3,-20,-78,10,44,34,25,7
1491089977836,0,-30,-61,-123,-46,-68,-109,-69,3
1491089977837,1,9,-18,-47,-23,-58,118,17,1
1491089977837,1,35,67,60,-10,38,108,4,4
1491089977883,2,-19,11,50,37,50,-100,-24,-21
1491089977883,2,6,20,35,10,16,-10,-9,19
1491089977884,3,-5,-26,-21,24,-23,69,18,-30
1491089977884,3,23,2,29,-7,36,-42,-24,89
1491089977885,0,5,5,-3,-19,-11,-10,70,5
1491089977885,0,1,-3,42,81,45,-104,-105,11
1491089977886,3,11,16,34,28,-17,109,39,-20
1491089977886,3,-29,-19,4,-25,-40,104,-44,-23
1491089977932,0,60,36,15,95,2,-57,15,15
1491089977932,0,10,-15,-14,46,113,-77,-42,-13
1491089977981,1,3,15,-7,-36,-39,45,-37,5
1491089977981,1,-16,-10,13,33,13,12,45,-1
1491089977982,0,41,14,51,127,93,-91,52,29
1491089977982,0,-23,4,3,-24,8,-80,16,-72
1491089978029,1,4,11,-29,-113,-32,13,-35,37
1491089978029,1,21,8,15,-4,-37,82,-15,-9
1491089978030,2,-44,-16,23,22,-40,47,-52,-2
1491089978030,2,49,48,34,-52,28,-65,90,54
1491089978031,3,-63,-58,-94,-6,32,34,-49,-37
1491089978031,3,-8,-6,4,66,10,-55,-22,-31
1491089978032,1,0,19,-20,-83,-15,44,-10,-27
1491089978032,1,-19,-35,-4,127,-14,-85,-15,4
1491089978078,2,-5,0,12,-15,-42,70,-7,-18
1491089978078,2,12,25,89,87,10,-42,4,37
1491089978079,1,-11,-29,-28,-60,-22,27,-33,-13
1491089978079,1,-1,6,11,32,31,58,11,-15
1491089978080,2,-12,0,7,-62,-86,-46,-11,-15
1491089978080,2,-3,10,4,67,48,31,-33,19
1491089978081,2,34,-3,-24,-3,43,20,43,35
1491089978081,2,16,14,-36,-105,-89,117,13,6
1491089978176,3,11,-18,65,118,12,-1,-2,4
1491089978176,3,-3,61,31,-97,-18,-37,-9,19
1491089978177,0,-28,-37,-80,80,-3,-110,-42,11
1491089978177,0,-21,-36,-27,-32,-100,108,-17,-53
1491089978177,3,-31,15,34,-19,-18,110,-50,-25
1491089978177,3,9,-12,-33,-8,-3,-9,-44,-14
1491089978178,0,-10,-18,-29,-72,-10,-31,90,25
1491089978178,0,-19,-43,-85,-102,-36,-26,16,-42
1491089978224,1,2,29,40,24,-9,-61,-10,6
1491089978224,1,5,5,21,-64,20,117,17,5
1491089978225,2,-35,-14,0,57,-109,127,4,-53
1491089978225,2,2,-7,-22,116,100,-68,-53,8
1491089978226,0,76,22,97,51,26,127,19,50
1491089978226,0,2,30,-3,-128,-65,68,31,9
1491089978227,1,-16,2,-19,49,54,127,0,24
1491089978227,1,43,24,42,50,24,81,-41,-2
1491089978273,2,-20,-4,0,-21,29,-92,32,25
1491089978273,2,1,8,-4,-4,-32,4,7,10
1491089978274,3,5,3,30,7,-35,-18,-1,1
1491089978274,3,-25,-25,-71,-108,-24,-59,-35,-27
1491089978275,2,-55,-37,-36,-4,4,-115,-114,-43
1491089978275,2,51,6,44,56,0,71,-10,-25
1491089978275,3,-28,-8,-2,19,-38,108,36,-15
1491089978275,3,23,43,26,14,-59,-51,-4,40
1491089978322,0,23,5,-24,-90,-1,-33,50,47
1491089978322,0,-34,-4,-3,-33,6,43,-50,-35
1491089978323,1,19,13,18,45,32,-69,39,61
1491089978323,1,-9,-19,-20,-111,-40,-23,53,-54
1491089978419,3,-23,-40,-12,50,-41,109,-66,-8
1491089978419,3,-3,12,4,-43,3,-100,45,-17
1491089978421,0,39,-10,-21,-8,-27,71,10,21
1491089978421,0,-14,5,4,-7,2,-43,28,51
1491089978422,1,39,19,37,59,93,-8,43,-30
1491089978422,1,8,11,-9,28,-40,37,-85,1
1491089978422,2,-35,-18,-37,-75,-57,43,-2,-37
1491089978422,2,-21,3,43,20,40,-26,24,24
1491089978468,3,38,6,-28,-100,-41,-79,-56,2
1491089978468,3,0,-26,-32,76,42,47,26,-15
1491089978469,0,-6,18,2,-27,-51,-59,10,-30
1491089978469,0,-42,-5,8,-17,12,-25,-63,-1
1491089978470,1,-19,-5,20,-88,-28,21,55,-47
1491089978470,1,-17,-11,-19,113,18,85,28,20
1491089978470,1,4,29,8,-4,25,-95,-39,-9
1491089978470,1,5,-10,22,-8,-4,20,-23,29
1491089978517,2,-19,1,-13,-66,-84,50,-69,-26
1491089978517,2,4,-15,1,67,90,10,91,5
1491089978520,3,-19,-40,-29,45,-50,-97,-69,13
1491089978520,3,0,-1,34,74,20,49,-18,-8
1491089978521,2,-49,12,56,38,3,-111,-65,-34
1491089978521,2,20,-7,-23,-107,-44,65,-63,1
1491089978521,3,-10,11,21,0,-30,75,-4,15
1491089978521,3,-13,7,19,-11,80,-6,57,10
1491089978566,0,28,-22,-21,33,24,-128,-111,-36
1491089978566,0,-4,15,31,53,5,-40,6,-11
1491089978567,1,-6,-22,-25,16,18,98,104,6
1491089978567,1,-21,-4,-21,-95,-109,-84,-128,-55
1491089978568,3,4,10,17,64,9,25,-18,-6
1491089978568,3,29,32,73,79,58,-62,13,55
1491089978569,0,-36,4,-17,-29,-31,-9,-4,-22
1491089978569,0,1,-27,-29,-95,-70,111,-33,-18
1491089978614,1,-19,15,20,-12,21,80,38,67
1491089978614,1,5,-14,-26,8,35,-55,-59,-19
1491089978615,2,4,23,34,-21,4,55,44,-10
1491089978615,2,10,7,21,-8,-13,91,10,5
1491089978616,0,11,3,22,11,-16,-85,-27,24
1491089978616,0,-25,-19,-80,-52,-42,-95,-58,-28
1491089978618,1,-23,-15,-3,16,12,-52,22,3
1491089978618,1,39,16,1,-29,-72,118,79,43
1491089978663,2,10,14,25,-9,88,47,-67,-37
1491089978663,2,-15,44,102,87,3,127,85,-24
1491089978664,3,7,-12,-43,-67,22,-128,-58,16
1491089978664,3,-41,-38,-68,-67,-53,52,4,-38
1491089978664,1,28,-22,9,51,-75,-30,-97,-42
1491089978664,1,-27,14,12,77,89,43,3,7
1491089978665,2,-22,-31,-50,-29,-63,-4,-10,-19
1491089978665,2,20,10,18,-7,39,13,-54,-6
1491089978712,3,-7,5,16,-24,-20,69,45,-23
1491089978712,3,9,-2,-25,-58,-67,42,-40,-16
1491089978712,0,-10,12,38,52,34,55,-6,22
1491089978712,0,-31,-34,-3,15,-43,-89,-54,-16
1491089978713,1,-2,3,-20,-75,-14,56,117,23
1491089978713,1,32,-11,-5,30,46,-65,-97,-24
1491089978714,2,-11,-9,-28,-7,33,-38,41,24
1491089978714,2,1,6,2,-43,-43,28,-2,24
1491089978760,3,21,11,31,127,5,6,-50,-10
1491089978760,3,-2,8,-5,-122,-11,65,56,-17
1491089978761,0,9,6,-12,104,30,10,23,-16
1491089978761,0,5,-16,-34,-63,-67,-7,-43,16
1491089978762,2,8,-20,-5,57,3,-57,-102,-11
1491089978762,2,-3,19,22,15,6,-51,28,8
1491089978763,3,6,-10,-12,-35,-43,-13,-44,-18
1491089978763,3,-16,-13,20,27,-3,-19,-55,-15
1491089978809,0,-4,4,30,-13,63,82,122,58
1491089978809,0,-17,4,-43,-88,-73,122,-52,-57
1491089978810,1,21,0,-50,-37,30,-98,26,26
1491089978810,1,12,-1,-30,-69,4,2,-6,-2
1491089978810,3,-15,-10,-1,-4,23,-72,-29,-8
1491089978810,3,6,-6,-10,-20,-63,-24,17,-8
1491089978811,0,2,26,26,19,-13,-78,9,14
1491089978811,0,12,32,87,90,99,-44,3,-34
1491089978858,1,9,-8,-32,-53,-52,127,22,35
1491089978858,1,-9,-2,-4,43,-40,72,-41,-24
1491089978862,2,-23,-28,-71,-82,-22,-61,6,-16
1491089978862,2,28,-5,-28,7,-5,-59,-48,32
1491089978863,0,53,32,-6,-104,-26,-108,-32,-22
1491089978863,0,-30,-15,11,40,-6,-68,-21,-12
1491089978910,1,-16,-26,-28,32,-17,30,-17,-22
1491089978910,1,-31,14,11,15,58,35,-23,15
1491089978910,2,28,-1,-21,-40,28,-22,39,34
1491089978910,2,-2,6,2,-38,-30,53,-29,-13
1491089978911,3,-10,19,83,62,-33,20,-18,-27
1491089978911,3,-15,-19,-33,-3,18,-5,42,19
1491089978912,1,3,1,-16,-57,-43,18,-35,4
1491089978912,1,7,31,97,114,62,49,70,-1
1491089978955,2,37,-7,-2,50,118,-93,47,-4
1491089978955,2,-29,-35,-36,-31,-82,25,-94,-27
1491089978956,3,3,0,-22,-13,66,52,72,-32
1491089978956,3,24,48,35,8,28,-128,-4,53
1491089978957,0,2,10,45,45,-5,127,13,-15
1491089978957,0,6,2,-34,-23,-9,80,78,3
1491089978958,2,-44,-18,-31,3,-72,68,23,-14
1491089978958,2,23,12,19,40,12,-128,-96,10
1491089979004,3,2,5,-23,-106,-28,81,71,16
1491089979004,3,-27,-26,-5,104,35,-118,-52,-28
1491089979009,0,-3,1,-9,-87,-35,21,29,47
1491089979009,0,-44,-7,32,-18,64,-34,73,-7
1491089979009,3,-14,5,-2,44,-24,-70,30,46
1491089979009,3,-5,-10,-21,-60,-14,-24,45,-2
1491089979010,0,-34,2,8,-27,-52,17,-85,-35
1491089979010,0,10,-19,0,111,40,-98,-8,-2
1491089979053,1,-1,-1,9,-88,12,0,-6,1
1491089979053,1,11,-37,-72,-7,-29,110,-22,0
1491089979054,2,-12,-4,9,-40,-28,42,5,18
1491089979054,2,20,17,37,-15,40,127,16,-10
1491089979150,3,-7,1,-11,-60,15,-101,-34,-24
1491089979150,3,-11,-21,-11,72,-20,-14,-15,-26
1491089979151,0,-1,-7,4,26,42,80,53,17
1491089979151,0,13,5,-3,-97,-32,-66,-25,15
1491089979152,1,-8,35,35,127,25,-22,54,24
1491089979152,1,33,1,7,-21,1,-43,-2,-4
1491089979153,2,-14,0,-18,-41,-28,-18,-54,-14
1491089979153,2,-25,-14,23,92,-14,5,-34,-17
1491089979199,0,4,7,-11,22,-4,25,9,-26
1491089979199,0,4,-10,-16,-16,0,-50,20,41
1491089979200,1,-5,4,27,19,3,-12,-49,-45
1491089979200,1,13,-5,30,62,-5,53,30,18
1491089979200,2,-17,-12,-4,-60,3,23,-28,-4
1491089979200,2,-2,7,21,79,15,114,59,-16
1491089979201,2,-17,-13,0,-47,26,-70,73,18
1491089979201,2,-1,-13,-44,53,38,82,-8,-23
1491089979248,3,1,3,38,38,37,-86,7,6
1491089979248,3,-33,23,47,14,44,-28,58,0
1491089979297,0,16,-9,-31,-26,-29,66,-21,-2
1491089979297,0,24,36,35,-61,-23,-128,-2,24
1491089979297,3,-32,-6,49,29,-18,74,0,-14
1491089979297,3,7,4,14,23,48,-68,-7,30
1491089979298,0,12,10,-2,50,-53,-18,-114,-22
1491089979298,0,18,23,51,67,39,-6,60,50
1491089979299,1,8,-19,-104,6,-45,-50,-56,-7
1491089979299,1,-19,-2,-3,-5,-16,107,33,-11
1491089979345,2,1,-13,19,42,35,-110,-53,25
1491089979345,2,18,8,-8,-39,-48,93,26,18
1491089979346,0,1,-8,-11,21,58,-55,-57,-37
1491089979346,0,0,-18,-58,-29,-21,-67,25,-4
1491089979394,1,-12,-15,-10,28,6,53,23,-13
1491089979394,1,-21,9,10,-66,-12,75,-33,-6
1491089979395,1,19,0,-49,14,28,116,25,41
1491089979395,1,17,29,43,-48,-18,76,-14,-21
1491089979396,2,-17,-7,-41,48,-22,93,-40,-21
1491089979396,2,5,-1,-16,20,-17,-64,6,51
1491089979396,3,-19,-26,1,-40,15,16,-20,-65
1491089979396,3,5,8,-12,-11,-19,41,-34,47
1491089979443,2,-10,20,34,-53,-12,2,-51,-5
1491089979443,2,-19,-26,-98,-128,-74,43,-57,13
1491089979444,3,22,2,23,96,62,-79,108,41
1491089979444,3,1,-36,-34,23,-42,57,32,-17
1491089979444,0,14,1,28,-3,76,-128,-102,-1
1491089979444,0,-42,-1,26,6,-46,127,111,-18
1491089979445,2,-17,7,-15,8,70,-76,89,16
1491089979445,2,25,35,26,-27,5,75,-7,70
1491089979492,3,-11,-5,-2,-34,-58,39,101,13
1491089979492,3,8,17,37,-63,31,-62,-65,-49
1491089979492,0,13,-14,-28,-26,-91,-49,-92,24
1491089979492,0,-14,-16,-25,-33,49,-47,57,-3
1491089979493,3,3,11,-2,-18,82,-69,-82,18
1491089979493,3,6,-9,-29,22,33,-126,-84,-65
1491089979494,0,-28,15,49,106,18,46,36,1
1491089979494,0,-15,-3,-5,-53,8,-38,-75,-86
1491089979541,1,-8,-57,-29,-13,-106,127,58,33
1491089979541,1,22,26,5,23,68,-128,11,-31
1491089979542,2,-1,3,6,-9,8,28,68,-6
1491089979542,2,1,13,29,5,-16,-46,-49,19
1491089979542,0,-4,31,37,8,-11,94,-46,-24
1491089979542,0,7,-16,-7,30,43,-81,62,-32
1491089979543,1,20,23,6,-13,-46,-116,13,67
1491089979543,1,-14,-25,13,-44,-21,72,-8,-8
1491089979589,2,6,2,-53,-118,-60,-10,11,28
1491089979589,2,-16,6,41,127,31,50,-86,-49
1491089979591,3,-6,-3,-20,-48,23,13,-38,27
1491089979591,3,-7,-30,-35,-46,-24,11,53,-6
1491089979593,1,4,-2,2,16,-12,45,3,-22
1491089979593,1,-18,21,34,7,-35,99,1,7
1491089979594,2,-13,-20,-26,-69,7,73,40,0
1491089979594,2,1,2,23,91,42,-59,-73,-14
1491089979638,3,5,17,14,-59,19,8,22,-2
1491089979638,3,-8,-16,-9,27,-3,33,2,16
1491089979639,0,15,5,-20,-78,-45,-49,12,27
1491089979639,0,3,-25,-70,7,-45,-61,41,24
1491089979640,2,7,1,9,7,8,20,-1,-15
1491089979640,2,-14,15,23,-36,-53,-25,-108,-26
1491089979646,3,6,19,28,41,28,74,73,22
1491089979646,3,-14,-2,-8,-39,-10,52,-31,7
1491089979687,0,-12,8,14,-18,-17,94,101,-51
1491089979687,0,16,-23,-34,24,8,-50,-21,-3
1491089979688,1,-14,3,3,83,29,-59,-9,-2
1491089979688,1,-5,2,-29,-59,15,-35,-75,-13
1491089979689,3,-26,-8,14,59,-45,0,-50,-14
1491089979689,3,15,-1,16,-40,38,9,73,44
1491089979689,0,-4,39,34,61,47,-72,-98,-22
1491089979689,0,15,-12,-49,-106,-50,5,23,-2
1491089979736,1,6,-30,-23,9,-113,70,-68,-11
1491089979736,1,-20,25,9,-99,19,-56,-3,-23
1491089979737,2,9,-18,18,119,85,-83,-8,-14
1491089979737,2,-8,-1,3,42,8,127,87,20
1491089979738,0,-21,-20,-30,-22,-33,-107,-23,-28
1491089979738,0,-28,2,67,87,2,108,18,-28
1491089979739,1,21,-22,-72,-46,18,-6,1,6
1491089979739,1,27,10,14,33,40,11,-18,-43
1491089979784,2,-12,-6,-18,-59,-34,8,-15,-6
1491089979784,2,15,-7,4,-12,1,-56,-107,14
1491089979785,3,-19,-10,15,-17,-13,127,61,-11
1491089979785,3,45,34,38,70,31,-54,33,22
1491089979786,0,-19,4,-23,-87,-44,-63,3,-17
1491089979786,0,10,0,39,62,70,-35,-7,-4
1491089979787,1,8,-25,-34,-90,-38,30,-54,-10
1491089979787,1,-9,-28,-40,27,21,-78,31,41
1491089979833,2,4,-5,5,49,-18,32,8,14
1491089979833,2,-15,0,-13,-113,-72,-38,39,23
1491089979834,3,-26,14,17,19,44,33,38,-27
1491089979834,3,27,18,27,95,15,29,-43,30
1491089979835,1,3,19,18,34,-35,14,0,15
1491089979835,1,-21,-15,-16,-28,-11,-36,20,-19
1491089979835,2,-27,-17,10,80,14,-27,-77,-6
1491089979835,2,7,-1,-20,-104,-16,9,25,12
1491089979930,3,-9,-11,5,-26,-45,95,-2,-48
1491089979930,3,-17,-7,-25,29,75,-76,31,35
1491089979931,0,21,-39,-58,14,-29,-49,-100,-26
1491089979931,0,-18,1,3,-15,-38,25,-51,-10
1491089979932,2,21,-2,14,33,15,37,17,71
1491089979932,2,37,42,3,-67,40,127,83,37
1491089979933,3,30,16,31,72,9,-44,-36,27
1491089979933,3,-35,-5,-27,45,8,69,105,-40
1491089979981,0,-3,7,36,15,7,-128,-91,-12
1491089979981,0,-20,-35,-77,-99,-43,-91,-67,-22
1491089979982,1,-11,-9,-17,36,-38,-60,16,-13
1491089979982,1,-17,-5,7,6,-6,105,18,40
1491089979983,0,0,-42,-56,-42,47,27,90,21
1491089979983,0,-21,-1,21,59,29,-51,-34,-93
1491089979984,1,2,-15,-23,-35,-31,39,0,0
1491089979984,1,22,17,28,-13,-13,82,10,26
1491089980028,2,-18,8,19,-37,11,-24,0,-57
1491089980028,2,25,-6,-4,60,-38,72,-44,-7
1491089980029,3,24,30,25,19,8,-38,-57,3
1491089980029,3,-4,-8,-5,8,78,-1,83,18
1491089980030,1,2,-9,-30,-6,60,-128,4,5
1491089980030,1,19,-1,7,9,-20,25,25,15
1491089980031,2,0,29,56,92,34,17,-13,18
1491089980031,2,-5,-8,7,20,-24,12,5,9
1491089980077,3,2,-2,-7,5,29,-77,20,17
1491089980077,3,-6,-1,12,-59,-3,32,10,-42
1491089980078,0,4,-6,-8,34,-34,26,40,-20
1491089980078,0,-8,-16,-34,-9,-96,39,21,5
1491089980079,2,18,21,4,-100,-53,59,18,-1
1491089980079,2,-16,-29,-64,122,15,127,-30,-21
1491089980080,3,13,-10,3,51,43,-13,-13,9
1491089980080,3,-4,-4,-12,-8,31,-113,26,-21
1491089980126,0,-20,-14,2,-24,-36,4,0,30
1491089980126,0,11,43,72,-70,23,0,-16,14
1491089980128,1,-33,-26,-38,-6,-50,62,64,-26
1491089980128,1,29,-2,4,14,1,-50,-16,-6
1491089980129,2,4,-1,3,-3,62,-25,-36,7
1491089980129,2,-5,4,17,9,-2,79,31,32
1491089980130,3,2,-12,-29,-128,-110,61,6,8
1491089980130,3,-6,-23,0,75,26,-47,-69,-13
1491089980175,0,-7,27,-18,-102,-19,34,75,10
1491089980175,0,-4,-23,-50,71,95,-31,-64,5
1491089980176,1,16,14,56,7,-30,-6,-19,-9
1491089980176,1,-23,-10,-41,-42,-30,5,-29,-12
1491089980177,3,29,17,23,47,43,-70,-62,25
1491089980177,3,-5,17,12,-4,-42,45,127,5
1491089980179,0,-3,-4,-23,-13,2,-128,-61,0
1491089980179,0,-36,-35,-40,-82,-41,-41,10,-12
1491089980223,1,-3,3,27,-13,-25,42,-22,0
1491089980223,1,2,2,5,69,40,31,-25,0
1491089980224,2,-3,16,11,-11,3,-75,-45,-23
1491089980224,2,-21,-35,-43,56,-11,16,38,-3
1491089980224,0,23,1,3,-29,-27,99,51,-4
1491089980224,0,-19,12,31,13,-17,40,2,-6
1491089980225,1,29,17,48,-45,73,-44,-66,21
1491089980225,1,-38,-8,-56,-62,-35,42,40,3
1491089980272,2,5,-43,-41,16,-14,-18,-64,-45
1491089980272,2,49,20,54,50,-2,75,52,-13
1491089980272,3,-39,-11,-64,-68,-42,62,62,-27
1491089980272,3,-1,-6,-3,-1,29,-69,-94,8
1491089980273,1,-3,-5,-2,66,-20,49,71,0
1491089980273,1,23,2,33,30,52,39,50,5
1491089980274,2,-30,-11,-3,24,-51,-102,-119,10
1491089980274,2,19,23,22,-12,73,-94,110,-45
1491089980321,3,-49,-15,-50,-128,-93,16,53,-18
1491089980321,3,39,7,21,75,47,6,-108,8
1491089980321,0,-43,-12,-13,-42,-2,127,49,-12
1491089980321,0,8,-4,13,6,16,-43,-56,-16
1491089980322,2,36,26,22,5,27,-6,36,22
1491089980322,2,0,21,43,-6,-15,56,16,45
1491089980323,3,-22,-29,-61,16,49,-34,-65,-23
1491089980323,3,-7,-22,-2,32,-19,-65,-26,12
1491089980369,0,22,-6,-23,-7,-9,-88,32,13
1491089980369,0,-21,-21,-10,2,-31,77,55,-13
1491089980370,1,18,33,56,17,7,-23,-57,30
1491089980370,1,-9,8,13,-50,-3,-13,-84,-38
1491089980370,3,6,-9,5,-44,-21,123,-48,-24
1491089980370,3,-25,-18,-58,9,7,-92,105,6
1491089980371,0,22,-21,-19,-20,4,44,-10,-44
1491089980371,0,-13,30,-6,-29,-49,0,-58,-2
1491089980466,1,43,20,53,80,51,61,115,68
1491089980466,1,-4,15,8,-20,5,49,-51,-23
1491089980468,2,-17,3,15,19,12,-57,37,14
1491089980468,2,-11,-16,-28,-30,-12,-31,-51,-34
1491089980468,0,7,-8,-31,95,102,29,-65,-8
1491089980468,0,16,-29,-53,-71,-29,54,29,0
1491089980469,1,-5,-13,-36,24,7,-63,-24,-1
1491089980469,1,-4,23,41,32,-9,20,4,-6
1491089980515,2,-10,15,26,1,1,-82,-56,-15
1491089980515,2,11,-13,-26,-50,-11,60,44,-37
1491089980516,3,-4,-17,15,85,-3,9,4,-19
1491089980516,3,9,13,-3,-9,64,35,44,39
1491089980517,0,-16,2,21,-10,-19,-10,-38,-46
1491089980517,0,16,-4,-9,-55,-26,-75,-70,33
1491089980518,1,-34,-15,-15,-75,-34,-37,-90,-70
1491089980518,1,27,-11,-10,102,43,87,72,53
1491089980564,2,-6,-8,25,61,43,-45,38,-22
1491089980564,2,9,-5,-40,-44,3,-61,-8,-40
1491089980565,3,0,-14,-20,-96,-72,50,-7,6
1491089980565,3,-6,23,19,-56,-48,-26,-58,78
1491089980565,2,-14,12,43,40,21,-44,1,-5
1491089980565,2,7,-21,-59,-78,-22,36,10,34
1491089980566,3,20,29,16,5,12,-46,-37,18
1491089980566,3,-27,-12,-9,39,-12,76,-19,-66
1491089980613,0,-22,-25,-40,-63,-45,93,47,14
1491089980613,0,-14,8,19,80,84,-128,-71,-19
1491089980614,1,33,-12,0,31,-15,127,83,7
1491089980614,1,5,10,15,-41,3,-22,23,-9
1491089980614,3,-11,-18,-16,23,41,70,33,-7
1491089980614,3,17,-7,23,70,20,-66,32,-17
1491089980615,0,3,20,2,-87,-17,-8,-11,2
1491089980615,0,-14,-5,-14,-53,26,-55,-1,-19
1491089980710,1,1,19,19,4,-69,61,-7,-4
1491089980710,1,-8,-21,-18,-36,1,-54,9,-11
1491089980711,2,7,-10,-32,51,23,-45,-121,-19
1491089980711,2,-7,-4,33,59,-25,6,36,11
1491089980712,0,-1,18,24,-12,75,-59,7,-1
1491089980712,0,1,15,-14,30,9,-15,-14,12
1491089980713,1,-13,13,65,76,60,-8,14,22
1491089980713,1,6,-9,-48,-64,-52,9,-38,0
1491089980759,2,1,-36,-50,-14,-17,70,59,10
1491089980759,2,14,6,20,-18,1,-2,-25,-36
1491089980760,3,-21,-1,13,-23,-58,78,18,39
1491089980760,3,-5,23,44,59,74,-57,37,-48
1491089980760,1,-6,0,19,78,15,14,60,1
1491089980760,1,-44,-9,-10,67,-29,84,-37,26
1491089980761,2,-11,-4,-12,74,46,-6,-78,-29
1491089980761,2,26,-13,-5,15,-22,6,53,34
1491089980808,3,-40,8,-33,-36,-17,-31,30,-5
1491089980808,3,19,-25,-6,20,-23,-100,-33,-28
1491089980809,0,-6,26,58,-1,3,127,-22,12
1491089980809,0,-16,-26,-30,-6,-1,-63,7,-6
1491089980810,3,39,-17,6,-45,33,42,36,16
1491089980810,3,20,17,-38,66,10,-32,-56,-47
1491089980810,0,10,12,17,27,-4,-59,-10,61
1491089980810,0,-10,7,33,30,25,111,-26,-2
1491089980857,1,-2,-8,-6,6,-36,-76,44,-14
1491089980857,1,-20,-8,-19,17,11,-17,-16,-9
1491089980859,2,-12,-15,11,89,42,105,-14,-27
1491089980859,2,17,8,6,-35,-21,-80,-19,16
1491089980860,3,-6,27,0,-39,-28,60,-3,20
1491089980860,3,11,-21,-7,-17,-33,29,17,31
1491089980861,0,-25,16,2,7,61,119,40,-54
1491089980861,0,12,1,-4,19,22,-54,30,9
1491089980905,1,17,-18,-38,-24,-4,-77,-66,-18
1491089980905,1,-4,1,2,-4,-11,30,-3,40
1491089980907,2,3,1,35,15,-24,-62,6,-19
1491089980907,2,23,18,9,-37,21,27,36,-1
1491089980907,0,18,2,-15,-61,8,-13,108,15
1491089980907,0,18,-1,-13,-16,-36,3,4,-27
1491089980908,1,-28,-10,-14,60,85,46,-69,-2
1491089980908,1,-25,-5,9,-24,-9,-83,58,3
1491089980954,2,3,-9,-15,33,-22,-11,-98,-16
1491089980954,2,-5,17,29,-11,-32,-33,66,20
1491089980955,3,-11,-17,-43,28,-27,-38,-72,-8
1491089980955,3,31,0,-10,-34,44,35,79,3
1491089980956,1,-17,17,43,13,42,-44,28,-60
1491089980956,1,7,-14,-17,-42,-8,-24,-3,32
1491089980956,2,7,9,-9,-36,-57,-45,-32,-19
1491089980956,2,-12,-8,-13,57,32,119,9,1
1491089981003,3,14,-1,-7,-83,-27,-20,-39,21
1491089981003,3,-27,-6,1,32,35,-89,-22,-23
1491089981004,0,2,5,21,13,11,127,-22,0
1491089981004,0,0,36,45,14,-19,-66,2,1
1491089981008,2,-10,-13,-12,10,18,-14,89,1
1491089981008,2,-4,12,24,23,13,127,1,-39
1491089981009,3,20,15,-17,-58,-32,-24,58,24
1491089981009,3,-12,2,-22,4,63,90,32,-17
1491089981052,0,-13,-13,-1,18,-31,-20,-9,-4
1491089981052,0,-4,-14,-14,-20,-14,-7,-61,-6
1491089981053,1,-9,1,35,53,-11,37,-2,-17
1491089981053,1,-11,11,62,57,-14,56,-5,-16
1491089981054,3,-15,-17,-24,-23,-22,-74,-53,-34
1491089981054,3,-24,7,-3,-12,-17,-61,-81,-15
1491089981054,0,10,22,16,45,-2,-18,52,-16
1491089981054,0,2,-6,17,5,49,106,-11,-20
1491089981198,1,9,2,-14,-11,-1,13,116,71
1491089981198,1,-4,-13,-35,-70,-13,40,17,-11
1491089981200,2,-26,-1,20,8,-41,101,-37,-1
1491089981200,2,-12,-26,-8,78,61,-66,-22,1
1491089981201,0,-7,-21,-64,-70,-59,-4,-38,5
1491089981201,0,6,5,-21,-110,-15,2,57,4
1491089981247,1,-6,-17,26,109,64,115,-13,-34
1491089981247,1,7,18,36,-68,-22,-11,-3,-19
1491089981295,2,10,-7,-29,-62,-36,24,18,24
1491089981295,2,-21,-13,-21,-43,-4,-81,-107,-15
1491089981297,3,-30,-11,-28,-118,-92,55,46,-4
1491089981297,3,56,-10,-40,53,28,87,27,23
1491089981298,1,9,36,58,50,51,20,-35,-6
1491089981298,1,-23,7,15,-46,-12,-20,-15,16
1491089981299,2,-1,17,21,44,23,80,34,21
1491089981299,2,1,-8,10,19,-12,31,-39,-2
1491089981344,3,8,-11,-7,-2,1,-58,3,-15
1491089981344,3,-20,-6,-2,62,26,-52,-9,-8
1491089981346,3,5,-12,8,90,-8,47,25,60
1491089981346,3,6,26,47,36,4,42,-3,16
1491089981347,0,-9,15,28,30,13,-29,-22,-18
1491089981347,0,12,-4,18,66,55,-47,25,8
1491089981348,0,7,-12,-23,-64,-30,-99,28,-15
1491089981348,0,-8,-16,-19,-4,-16,60,-10,33
1491089981393,1,4,8,20,4,15,-1,-25,-61
1491089981393,1,-17,-31,-70,-103,-128,111,43,38
1491089981394,2,0,42,63,1,26,-54,-3,-33
1491089981394,2,3,-5,-23,-2,53,-92,-12,29
1491089981490,1,23,6,19,18,-7,-44,-12,25
1491089981490,1,8,13,30,-29,8,-49,21,36
1491089981492,2,8,15,-10,37,17,6,2,-2
1491089981492,2,2,4,11,-26,-5,81,27,-13
1491089981493,3,-13,-14,-45,-48,-20,79,-38,-14
1491089981493,3,3,37,25,31,21,29,46,-5
1491089981494,0,-5,-2,17,51,55,-83,-100,39
1491089981494,0,3,-6,-23,-120,-92,54,38,16
1491089981588,2,-11,-24,-24,95,70,50,-73,-22
1491089981588,2,-11,1,3,66,14,-2,55,-17
1491089981591,3,-2,4,0,-128,-29,35,-13,38
1491089981591,3,0,-10,-13,13,-48,-44,-35,4
1491089981592,0,23,-1,22,39,43,-73,-2,10
1491089981592,0,5,6,36,-3,-10,68,-23,-13
1491089981593,3,12,10,-7,17,20,-80,105,12
1491089981593,3,-13,-22,-16,-18,-42,-17,-107,14
1491089981637,0,-13,18,32,16,42,10,54,-36
1491089981637,0,-8,2,13,-1,-11,-107,-44,-8
1491089981638,1,-3,10,-10,-45,9,-41,55,44
1491089981638,1,25,-18,-24,19,-35,15,-63,-31
1491089981639,0,17,11,25,36,-1,-28,-74,-32
1491089981639,0,10,-23,-52,-63,40,77,122,29
1491089981640,1,-12,-6,-6,32,39,122,-23,33
1491089981640,1,-2,12,3,-68,-92,-59,-41,-29
1491089981685,2,8,-7,-24,6,107,-47,19,-5
1491089981685,2,0,-19,9,71,-13,14,83,21
1491089981687,3,-15,16,-8,-85,-56,42,-40,-23
1491089981687,3,14,-21,-25,76,-33,35,-42,-40
1491089981688,2,11,3,35,64,-7,-82,38,15
1491089981688,2,-28,-3,-28,-97,33,32,32,-55
1491089981689,3,29,-19,-48,-46,-63,-38,-56,30
1491089981689,3,7,9,-15,27,52,-93,-25,-13
1491089981734,0,-4,-29,-15,-11,-71,113,49,-16
1491089981734,0,17,45,19,-38,72,-128,68,22
1491089981736,1,-13,-11,37,87,54,-33,-32,-40
1491089981736,1,15,-11,-51,-128,-70,41,53,27
1491089981737,3,7,34,93,-12,80,91,29,9
1491089981737,3,-24,-14,-72,-10,-8,-128,-48,-13
1491089981738,0,17,-4,-12,91,-29,-27,-27,16
1491089981738,0,-20,-29,-61,-96,-38,6,62,-9
1491089981880,1,15,-8,-7,19,-25,84,-62,8
1491089981880,1,-7,16,70,25,61,19,107,19
1491089981882,2,0,42,57,-9,22,-69,-101,-4
1491089981882,2,-46,-61,-58,120,30,-125,32,-65
1491089981930,0,-7,-28,-43,-12,19,127,86,-22
1491089981930,0,6,28,95,59,-24,14,-50,25
1491089981932,1,-13,-9,-81,-10,36,-12,1,-23
1491089981932,1,-14,-15,-2,-83,-87,-5,-61,29
1491089981933,2,11,20,48,-29,16,-85,17,0
1491089981933,2,1,1,14,92,29,0,-22,-7
1491089981934,3,-10,-25,-23,-48,-49,38,66,-19
1491089981934,3,12,36,47,29,19,60,13,14
1491089981978,1,-3,-6,-18,51,19,35,59,27
1491089981978,1,-26,-20,6,-13,-67,71,9,-38
1491089982027,2,-9,1,-3,-35,8,42,8,-20
1491089982027,2,8,16,27,-50,-10,25,58,18
1491089982028,3,-23,-8,11,-30,-74,95,-82,-11
1491089982028,3,8,4,-2,19,90,-128,-86,10
1491089982030,3,5,-14,-20,-11,-4,-13,11,-9
1491089982030,3,-28,-9,7,48,8,1,-65,-33
1491089982031,0,11,11,35,-16,32,39,5,39
1491089982031,0,-5,-10,5,-20,21,83,-20,-1
1491089982076,1,-3,11,12,31,23,-117,32,10
1491089982076,1,-21,-5,0,-71,-116,96,42,-1
1491089982077,0,-23,-13,-51,-128,-93,-56,90,60
1491089982077,0,42,17,45,46,16,67,-94,-3
1491089982078,1,-1,15,-17,-19,70,-128,25,-11
1491089982078,1,13,-6,-8,37,-28,-10,-56,67
1491089982080,1,11,-1,5,15,-9,-28,-30,-3
1491089982080,1,-17,-34,-43,-72,-99,4,35,-15
1491089982124,2,6,13,-9,17,18,-75,-111,-21
1491089982124,2,-13,-16,-20,-14,2,56,29,-18
1491089982126,3,-19,-13,20,-45,-55,-96,39,6
1491089982126,3,9,9,-30,39,97,3,-95,18
1491089982127,2,-25,2,-5,-18,-29,15,4,-23
1491089982127,2,9,14,58,69,23,-14,-7,2
1491089982128,3,6,20,38,-52,-6,85,0,14
1491089982128,3,-23,-31,-66,-88,-17,-66,13,-31
1491089982173,0,9,33,30,-83,-75,107,-101,-5
1491089982173,0,4,-24,-55,-1,66,-119,107,49
1491089982174,1,-21,-24,-19,72,-38,51,-60,-67
1491089982174,1,2,-34,-8,48,27,-86,4,59
1491089982175,3,3,16,5,81,127,-13,8,42
1491089982175,3,33,8,7,-41,-52,68,-16,-43
1491089982176,0,-38,-27,-65,36,-60,78,78,15
1491089982176,0,6,-3,-43,-97,-72,-24,-32,-6
1491089982222,1,22,-5,10,98,68,25,-16,35
1491089982222,1,-8,23,43,3,3,22,70,-5
1491089982223,2,-8,-37,-17,27,22,-23,13,-4
1491089982223,2,-5,34,40,-9,28,-8,-44,-16
1491089982224,0,-3,-2,-12,-28,44,-95,93,78
1491089982224,0,16,-23,19,127,62,69,-2,5
1491089982225,1,-8,-9,-5,-96,-32,88,-71,0
1491089982225,1,-8,17,-48,-37,-6,-106,65,-22
1491089982270,2,-11,-30,-45,-68,-99,70,6,-53
1491089982270,2,-16,-5,-13,-24,33,-47,-16,-5
1491089982272,3,21,14,15,49,87,-12,4,26
1491089982272,3,-23,-15,30,127,-17,48,-17,-15
1491089982273,0,-12,7,19,-11,-34,-14,-71,-19
1491089982273,0,-4,-21,-16,-51,21,-48,98,19
1491089982274,1,8,16,-2,-43,-14,-31,25,-44
1491089982274,1,8,3,22,19,14,16,-45,27
1491089982319,2,-25,2,41,72,-69,122,36,3
1491089982319,2,16,16,-2,-68,-2,-65,-128,-78
1491089982320,3,-12,-26,-60,-86,-15,-21,117,14
1491089982320,3,12,6,-18,-57,37,22,4,-55
1491089982320,1,-23,5,-29,-16,8,-57,-12,26
1491089982320,1,13,-12,-1,-1,-52,0,-57,7
1491089982321,2,12,-16,26,84,58,42,14,-31
1491089982321,2,14,47,18,-62,-31,-88,29,36
1491089982368,3,-19,-9,-11,64,-19,-42,-8,1
1491089982368,3,-22,-20,17,41,-39,67,-39,-2
1491089982369,0,17,28,42,-17,5,38,73,4
1491089982369,0,4,-31,-41,37,61,-100,-17,43
1491089982369,2,15,-4,-55,45,62,-121,-4,34
1491089982369,2,-24,-25,-40,13,-40,115,19,-24
1491089982370,3,11,3,4,-61,0,80,13,-10
1491089982370,3,-7,0,9,71,8,67,18,35
1491089982416,0,-21,-23,8,-59,-64,17,-68,-47
1491089982416,0,0,36,42,33,26,-12,-12,20
1491089982417,1,-14,-32,-63,5,-13,-98,27,-40
1491089982417,1,8,-4,1,62,25,8,64,9
1491089982418,3,2,-2,15,-43,60,-59,11,25
1491089982418,3,-19,0,-9,45,-59,53,-29,-44
1491089982419,0,-6,10,15,47,54,-9,-4,4
1491089982419,0,23,5,-6,66,14,55,13,26
1491089982465,1,5,14,21,70,-53,90,20,11
1491089982465,1,10,6,-12,-38,106,-128,13,60
1491089982466,2,-11,-13,-25,25,-43,-77,41,-3
1491089982466,2,-10,-5,44,64,-10,105,5,-43
1491089982467,0,-15,-7,30,-75,-4,-34,-55,-11
1491089982467,0,-5,-2,-71,34,-4,-50,-42,-32
1491089982563,1,-18,-32,-30,44,-21,-2,-8,-43
1491089982563,1,2,22,28,11,-58,30,-66,34
1491089982564,2,6,17,15,-10,28,21,59,16
1491089982564,2,-13,-13,25,-43,-2,4,15,8
1491089982564,3,10,30,86,90,76,111,26,-16
1491089982564,3,-19,-22,-13,-78,-8,-87,41,26
1491089982660,1,30,-6,-69,-70,51,-86,67,51
1491089982660,1,-6,-20,-49,-37,-27,15,-63,-37
1491089982661,2,5,19,19,16,18,57,-35,-5
1491089982661,2,-7,1,23,40,-23,105,9,-17
1491089982661,3,7,18,27,-52,-43,-13,-12,1
1491089982661,3,8,12,50,89,29,77,82,20
1491089982663,0,0,-6,-49,-96,7,-54,-56,-4
1491089982663,0,3,21,72,29,-27,-30,48,2
1491089982709,2,19,-7,-16,-102,-27,41,91,55
1491089982709,2,12,5,-24,-95,-5,-52,8,19
1491089982758,3,-26,2,19,35,-11,-45,-73,-24
1491089982758,3,6,12,51,24,-18,27,46,24
1491089982759,0,16,16,30,95,54,46,-59,-11
1491089982759,0,-13,2,33,42,37,-20,71,6
1491089982759,0,-17,11,-16,-48,-28,-30,-89,-62
1491089982759,0,-10,-3,41,62,-31,127,32,-13
1491089982760,1,13,19,27,-5,56,-108,78,18
1491089982760,1,8,0,-18,-23,-12,13,-6,-20
1491089982806,2,3,-23,-25,-39,-34,-44,-38,5
1491089982806,2,-8,15,-31,16,-76,-18,-24,-38
1491089982807,1,-6,-34,-57,-26,-41,29,25,3
1491089982807,1,6,12,24,1,-20,-34,-2,-12
1491089982808,2,-1,-2,20,43,41,14,51,-6
1491089982808,2,-2,-2,25,39,44,-40,-43,33
1491089982809,2,-19,25,32,33,-11,80,-14,-19
1491089982809,2,21,-8,-13,-33,-20,13,-43,28
1491089982855,3,-15,-26,-36,56,22,-71,-31,-37
1491089982855,3,5,11,0,-14,13,14,8,40
1491089982856,0,6,-2,10,29,-39,19,17,20
1491089982856,0,-28,-9,21,51,6,63,25,-39
1491089982857,3,-12,11,0,-44,-12,-116,-7,-1
1491089982857,3,6,7,-11,43,-9,-22,-52,-38
1491089982857,0,-12,-3,17,-4,-8,117,-1,0
1491089982857,0,-8,-4,10,-99,-108,52,57,3
1491089982904,1,-17,-47,-94,-33,-6,-1,-62,-37
1491089982904,1,25,1,-21,-78,-70,-55,-54,1
1491089982905,2,-19,-13,5,43,25,16,4,16
1491089982905,2,18,51,75,2,127,-110,8,-2
1491089982905,0,49,-9,-16,-35,10,-104,-12,50
1491089982905,0,-43,-7,2,33,36,22,-72,-44
1491089982906,1,10,43,54,-11,-36,110,13,2
1491089982906,1,9,2,19,100,85,-40,-7,-2
1491089982953,2,-55,-13,-38,-29,-69,8,15,-27
1491089982953,2,29,-14,15,-24,6,34,-39,32
1491089982954,3,9,-14,-55,-49,-2,-57,-7,-16
1491089982954,3,3,-11,2,-9,-63,-28,46,37
1491089982955,0,17,25,59,54,48,87,-17,-6
1491089982955,0,12,1,-38,23,47,-37,-26,-4
1491089982956,1,-40,5,24,-23,-24,89,85,-7
1491089982956,1,47,12,19,-22,70,-75,-25,9
1491089983001,2,-52,-29,-30,22,-32,62,-48,6
1491089983001,2,5,13,40,79,55,-91,61,0
1491089983002,3,-7,16,36,-13,-10,10,-50,40
1491089983002,3,-16,-43,-49,48,-75,-62,71,-35
1491089983003,1,-9,0,-29,-69,-23,-3,-18,-20
1491089983003,1,42,-1,14,3,-3,16,-44,14
1491089983004,2,-7,-2,0,3,-50,0,-15,-76
1491089983004,2,20,15,18,22,33,75,19,56
1491089983050,3,-33,-3,40,92,36,-93,-42,-28
1491089983050,3,33,9,-2,-11,1,116,0,-1
1491089983051,0,15,-7,-29,-21,-44,18,-17,8
1491089983051,0,6,11,1,4,59,-104,11,-10
1491089983052,2,9,-10,-35,-56,34,-107,1,28
1491089983052,2,-15,-15,-10,64,-119,42,-40,39
1491089983053,3,-2,-14,-11,-87,6,30,-43,-12
1491089983053,3,11,7,-6,-30,9,105,-16,41
1491089983099,0,-26,7,-22,-77,-15,-71,54,-23
1491089983099,0,-21,-20,-29,-17,3,-12,-19,-5
1491089983148,1,10,-2,30,44,21,40,-20,-51
1491089983148,1,-9,12,36,13,-26,28,-20,27
1491089983150,3,-4,4,-6,-34,9,-71,-46,-29
1491089983150,3,-1,-29,-3,83,-35,25,50,-21
1491089983152,0,27,29,-7,-44,32,-102,-32,20
1491089983152,0,-38,-45,-69,-47,-33,115,-31,3
1491089983154,1,32,25,10,26,40,127,49,-15
1491089983154,1,-22,-3,-7,-74,15,9,-79,-42
1491089983197,2,12,37,107,127,-26,43,61,51
1491089983197,2,-10,-11,-55,-88,-1,-18,-14,-36
1491089983198,0,-12,10,52,72,-7,65,38,-69
1491089983198,0,11,7,14,-76,-56,-27,16,27
1491089983199,1,-17,5,20,66,92,-70,-30,-10
1491089983199,1,22,3,-17,-30,-74,79,66,12
1491089983245,1,-5,-18,-7,113,53,-15,-38,-15
1491089983245,1,-17,-8,12,13,61,-39,1,9
1491089983247,2,-8,-14,-3,39,-92,-66,-23,11
1491089983247,2,-7,21,39,-12,83,15,52,-41
1491089983248,3,-31,-2,3,57,-33,88,-9,-7
1491089983248,3,-12,-1,8,-63,-41,-128,-60,-11
1491089983249,2,-33,-36,-15,63,-1,-3,25,-20
1491089983249,2,-5,20,31,83,50,17,48,16
1491089983294,3,16,-11,4,-49,-35,-17,2,24
1491089983294,3,-10,5,17,-62,21,-39,-61,5
1491089983295,0,-10,-18,-34,-31,-46,31,44,-1
1491089983295,0,2,-3,20,17,-48,39,-6,-1
1491089983297,1,-6,10,29,47,84,3,-38,-25
1491089983297,1,27,2,1,20,35,-79,25,25
1491089983298,2,-6,5,-5,-21,9,-58,-40,-20
1491089983298,2,-10,-20,-6,8,-94,122,4,-13
1491089983343,3,-3,30,42,30,65,-128,40,24
1491089983343,3,23,-15,-12,17,37,-39,51,33
1491089983344,0,-18,-12,-67,-106,-20,127,-20,-13
1491089983344,0,16,4,-12,54,-29,-5,-36,-2
1491089983345,3,27,3,13,42,22,24,-15,1
1491089983345,3,-1,-5,-34,6,10,-17,25,84
1491089983346,0,-15,-11,-2,-30,-56,86,-41,-17
1491089983346,0,-2,11,27,-48,35,-55,6,-22
1491089983392,1,-8,9,8,25,53,-94,12,15
1491089983392,1,-7,3,13,-6,-1,8,86,-12
1491089983393,2,-18,-4,-5,-35,-81,-25,-98,-47
1491089983393,2,4,-15,20,63,68,112,31,26
1491089983394,0,18,-9,-7,56,100,-96,10,6
1491089983394,0,-23,-14,2,99,-8,-30,-89,-69
1491089983395,1,2,-6,12,56,-13,77,-21,-20
1491089983395,1,18,13,14,-38,4,-17,24,52
1491089983440,2,-12,-7,-24,-96,-39,-55,-30,-33
1491089983440,2,2,-13,-39,-17,16,-78,-9,-12
1491089983489,3,16,-2,7,44,-13,36,-20,19
1491089983489,3,-21,20,33,3,-51,99,-62,-54
1491089983538,1,-31,12,14,-39,-29,23,-67,-37
1491089983538,1,8,-14,-33,-58,-79,64,4,-44
1491089983539,2,-11,-40,-55,55,46,-77,-38,-6
1491089983539,2,1,1,-42,-99,-2,37,0,26
1491089983539,3,6,1,25,79,27,-10,-5,27
1491089983539,3,-9,18,30,-13,-41,-57,-22,-21
1491089983540,0,25,17,6,31,13,58,13,77
1491089983540,0,-1,5,28,0,-30,9,20,-32
1491089983587,2,-30,-11,5,1,-56,127,-43,7
1491089983587,2,29,31,31,-1,47,-85,-1,21
1491089983587,3,-20,-24,-16,-69,-35,-92,41,-21
1491089983587,3,-19,-10,-15,-29,44,-78,-10,-10
1491089983588,0,4,-9,-54,-76,-24,26,40,-14
1491089983588,0,22,10,-15,20,-44,-18,2,45
1491089983589,1,28,34,26,-68,-1,-65,-11,26
1491089983589,1,-21,-22,-30,36,39,-29,-21,36
1491089983733,2,-30,-10,16,-56,-82,39,-14,-71
1491089983733,2,1,4,10,10,34,113,-81,5
1491089983734,3,3,1,46,67,25,73,87,-5
1491089983734,3,12,26,-6,-66,-33,-120,-10,-38
1491089983735,1,-19,-12,-14,82,-91,105,-61,-7
1491089983735,1,19,35,21,-38,102,-59,114,-39
1491089983781,2,-7,-22,-45,-70,-17,29,-33,24
1491089983781,2,-4,-13,14,10,-60,-14,-4,-12
1491089983783,3,18,-4,-28,-47,10,80,20,-2
1491089983783,3,-7,17,40,37,-13,-46,-51,27
1491089983783,0,-8,14,14,22,51,-65,-2,-33
1491089983783,0,24,14,-12,-48,36,-17,-1,-17
1491089983784,1,-19,-33,-31,20,-55,10,-47,29
1491089983784,1,10,-6,23,-26,-62,87,-10,29
1491089983830,3,0,-18,-41,-43,-29,-20,-69,5
1491089983830,3,6,14,26,41,-70,29,3,1
1491089983831,0,-13,12,12,-21,85,-58,62,-17
1491089983831,0,9,-19,-8,56,-60,98,9,62
1491089983831,1,-1,-13,-51,-65,-18,-110,-24,-54
1491089983831,1,5,-22,-46,-29,19,99,14,83
1491089983832,0,-6,-7,-7,-5,-2,100,29,34
1491089983832,0,21,14,29,-1,4,-86,-34,-10
1491089983879,1,-19,9,26,14,-45,-69,24,-3
1491089983879,1,-7,8,11,-12,11,49,-28,15
1491089983880,2,24,-10,-29,-50,-41,-115,22,-14
1491089983880,2,-9,-39,-4,56,50,127,-22,-24
1491089983880,1,32,-7,12,17,5,-72,-19,24
1491089983880,1,-2,-11,-1,-7,12,-4,-21,-17
1491089983881,2,1,24,48,51,23,110,11,-27
1491089983881,2,-10,17,46,-81,-42,-101,98,6
1491089983928,3,-11,-16,-70,-13,-14,-63,-15,35
1491089983928,3,-16,-18,-12,-27,-82,30,-80,-27
1491089983933,0,-5,-11,-6,7,-3,-116,7,6
1491089983933,0,32,6,-8,-6,60,7,80,71
1491089983934,2,22,-17,-31,-19,-59,-47,-98,-33
1491089983934,2,2,8,11,58,13,31,32,-33
1491089983977,3,-39,-19,6,-15,-22,96,51,-31
1491089983977,3,8,30,32,33,32,-104,19,58
1491089983978,0,-8,-13,13,-35,51,-32,-94,-17
1491089983978,0,-10,-4,-34,10,-16,-6,34,-19
1491089983978,1,25,-5,11,13,-18,-8,30,-3
1491089983978,1,19,22,28,21,41,34,104,-2
1491089983979,3,11,7,-12,-6,89,-87,-5,14
1491089983979,3,10,-17,-57,-39,-19,-99,9,-25
1491089984025,0,9,-6,-4,71,43,-41,17,29
1491089984025,0,-23,-16,-26,-41,-46,77,-106,-10
1491089984026,1,11,25,55,66,12,85,82,5
1491089984026,1,24,16,8,-37,-4,-18,-11,-12
1491089984026,2,9,20,31,39,-15,64,33,39
1491089984026,2,-24,-28,-46,-92,-1,79,-27,46
1491089984028,3,-20,-22,-15,75,11,-113,-128,-49
1491089984028,3,16,-6,-9,27,13,-24,79,37
1491089984074,0,13,6,11,26,-3,82,45,33
1491089984074,0,2,16,29,-49,-66,61,-49,-39
1491089984076,1,12,19,48,6,74,-98,-64,42
1491089984076,1,-12,-21,-70,-44,7,-68,16,13
1491089984077,0,-11,10,19,4,81,-12,29,4
1491089984077,0,17,7,-9,-4,12,-90,-15,2
1491089984077,1,1,-2,9,-91,-100,22,41,9
1491089984077,1,-4,12,38,78,57,7,-22,7
1491089984123,2,-2,-13,-17,-2,-3,-43,8,7
1491089984123,2,-10,-25,-6,14,16,83,2,-51
1491089984124,3,-2,10,36,12,-3,-111,-51,21
1491089984124,3,-16,-8,-9,-41,-56,6,59,31
1491089984125,1,-15,-59,-59,-20,-24,-100,-5,-25
1491089984125,1,0,63,65,30,5,76,-55,-37
1491089984171,2,-37,-22,-6,27,-12,77,10,10
1491089984171,2,14,25,2,-24,32,-100,28,10
1491089984172,3,-4,-9,2,46,-3,5,-48,2
1491089984172,3,0,-10,-25,-75,-35,-5,22,-10
1491089984173,0,4,12,25,75,13,22,22,42
1491089984173,0,-1,6,-6,-77,-2,112,-22,-30
1491089984220,2,-7,-15,-31,-114,-93,88,4,-7
1491089984220,2,-3,-26,-18,63,74,-85,-4,20
1491089984221,3,-1,28,-1,-56,-6,-29,46,4
1491089984221,3,11,1,-21,-48,15,23,-77,21
1491089984222,0,12,-5,-5,-91,4,54,29,23
1491089984222,0,-18,-20,-4,114,1,-28,-31,5
1491089984223,1,31,17,-3,-38,-7,96,15,21
1491089984223,1,-19,-10,-2,24,-31,57,60,-28
1491089984269,3,15,-11,-8,4,-56,127,-30,-8
1491089984269,3,-4,-32,-16,-3,-50,-92,-28,-2
1491089984318,0,14,8,10,24,68,-102,17,0
1491089984318,0,-14,-4,2,-21,19,-41,-54,4
1491089984318,1,-15,-13,4,34,75,20,43,-4
1491089984318,1,-14,8,-2,-13,-64,14,-96,-9
1491089984319,0,-23,2,-3,43,32,-55,-38,8
1491089984319,0,16,-15,-3,37,-24,-2,-1,-12
1491089984320,1,-5,26,15,-4,-19,9,-5,-34
1491089984320,1,-14,-4,16,-61,6,-48,72,46
1491089984367,2,-13,-6,-9,70,-13,15,-62,-47
1491089984367,2,-19,-1,3,-30,-82,82,-28,-11
1491089984367,1,-13,9,-29,-11,26,19,46,9
1491089984367,1,-25,-23,-11,11,9,35,-2,-9
1491089984368,2,11,14,17,-53,13,-43,10,4
1491089984368,2,-10,-10,-3,69,-1,-81,-45,-37
1491089984369,1,32,0,-24,-75,-47,-117,111,6
1491089984369,1,-7,-33,-14,88,4,7,-24,-41
1491089984415,2,12,35,42,11,-21,118,19,55
1491089984415,2,-6,7,11,9,7,15,-26,-23
1491089984416,3,15,26,17,-40,37,57,11,2
1491089984416,3,-10,1,36,101,13,-81,-52,7
1491089984416,2,13,5,23,28,75,-102,-25,-10
1491089984416,2,19,-5,25,7,32,-26,-39,19
1491089984417,3,-31,-7,-20,-46,-70,89,-27,-25
1491089984417,3,1,-13,-24,18,-34,58,-12,-69
1491089984464,0,4,0,9,-23,78,-70,25,10
1491089984464,0,-7,-8,-7,77,-27,47,9,-27
1491089984465,1,13,15,46,35,-14,-92,-102,25
1491089984465,1,-29,-40,-61,-108,-24,100,78,-25
1491089984466,3,1,-13,-4,23,20,-42,41,-3
1491089984466,3,21,31,20,-2,28,24,-23,99
1491089984467,0,-14,-14,8,-2,12,83,33,-13
1491089984467,0,-23,-2,-5,-22,-19,127,18,-10
1491089984513,1,25,-8,-21,-17,-7,-51,-20,6
1491089984513,1,-14,6,-3,-51,-13,-71,-41,-32
1491089984562,2,6,4,7,27,4,22,11,6
1491089984562,2,-22,-10,17,53,-40,17,25,-9
1491089984563,0,8,-7,-23,-56,-86,-23,19,31
1491089984563,0,5,4,11,-39,73,-70,42,-17
1491089984564,1,10,5,12,-11,1,-86,-56,8
1491089984564,1,0,0,1,7,-23,25,87,-33
1491089984565,2,1,6,44,127,83,-65,-84,-18
1491089984565,2,13,14,-30,-91,21,28,70,-3
1491089984611,3,-4,-20,-34,3,-33,-1,112,26
1491089984611,3,-5,15,15,-43,-29,-10,-18,25
1491089984612,1,-11,-12,11,114,88,15,-34,-41
1491089984612,1,1,-23,-32,-39,-9,-55,-12,28
1491089984614,2,-17,5,29,-30,-8,99,12,-5
1491089984614,2,6,-11,8,99,98,-128,30,2
1491089984615,2,-14,-12,-31,-90,-16,-26,52,6
1491089984615,2,0,-10,-13,41,-13,13,20,2
1491089984661,3,3,12,29,23,-9,23,12,-11
1491089984661,3,2,6,1,-23,-27,-83,-47,-2
1491089984661,0,-5,-24,-28,-12,41,33,-5,-8
1491089984661,0,-17,6,31,45,-22,35,-16,1
1491089984663,3,0,10,2,17,27,-30,-57,1
1491089984663,3,5,-5,-1,-88,4,120,57,7
1491089984664,0,-10,4,-21,24,7,-128,17,2
1491089984664,0,15,-7,-10,39,-2,-75,-43,2
1491089984756,1,-31,-7,-9,-94,-45,95,-29,-32
1491089984756,1,1,-2,-4,53,12,-78,-42,13
1491089984757,2,-8,-20,-12,-5,-11,74,15,-1
1491089984757,2,-8,8,37,42,74,40,-37,10
1491089984758,3,10,16,36,31,-7,52,52,62
1491089984758,3,-10,-9,-27,-47,-16,-12,-89,-16
1491089984759,0,9,-13,-5,-12,-38,33,57,-5
1491089984759,0,9,11,-21,-62,-57,-79,-71,45
1491089984805,1,9,-5,15,43,99,62,104,0
1491089984805,1,-6,-9,-5,-13,-14,-15,-77,20
1491089984806,2,-15,-8,12,97,-44,9,8,10
1491089984806,2,6,-2,-13,-32,96,-72,-21,1
1491089984806,0,12,-10,-23,-46,-61,-15,-81,-37
1491089984806,0,-17,-6,33,21,18,127,127,18
1491089984808,1,-7,-19,-19,27,-41,-98,-31,-10
1491089984808,1,-26,-1,18,-17,-9,23,15,-3
1491089984854,2,35,23,34,-67,62,-128,20,37
1491089984854,2,-15,1,-13,84,9,22,-11,-10
1491089984855,3,-2,-22,-11,-29,-122,75,-53,2
1491089984855,3,20,16,4,8,85,28,81,-17
1491089984855,2,-7,-8,2,-6,14,46,-8,8
1491089984855,2,-4,1,6,8,-43,94,29,-11
1491089984856,3,-26,3,3,3,39,-121,-13,-19
1491089984856,3,3,3,-7,-11,-20,70,18,6
1491089984951,0,14,9,1,-11,-47,55,-7,12
1491089984951,0,9,3,-23,31,9,-63,-39,1
1491089984952,1,14,11,4,37,10,27,13,-19
1491089984952,1,-17,-31,-69,-18,63,35,19,2
1491089984954,3,-12,33,10,-48,-40,15,-54,18
1491089984954,3,30,8,32,-5,-13,-83,10,27
1491089984955,0,-21,1,-18,-37,-8,-10,24,-19
1491089984955,0,0,-17,-23,-46,-32,-38,-19,8
1491089985000,1,3,-15,5,21,14,62,37,-19
1491089985000,1,-30,8,26,46,38,-94,-38,-22
1491089985001,2,8,-4,-13,-35,-21,6,-43,1
1491089985001,2,10,27,20,17,26,-69,51,-30
1491089985002,1,19,2,-37,-27,-28,-75,24,-6
1491089985002,1,-27,-17,-21,29,-15,-1,28,35
1491089985002,2,24,24,3,-42,-69,-113,-82,-1
1491089985002,2,-2,3,8,34,23,-30,69,2
1491089985050,3,-8,-38,-23,-22,-5,127,-10,-13
1491089985050,3,3,25,29,10,42,41,-32,1
1491089985051,0,-22,-4,18,25,8,17,27,-17
1491089985051,0,7,1,-12,-55,9,-33,-30,45
1491089985051,2,5,-11,7,-4,-1,112,30,24
1491089985051,2,-1,-2,4,38,0,-38,-45,24
1491089985052,3,-3,11,21,54,43,-69,5,-8
1491089985052,3,-15,-15,-26,-58,4,55,-35,-30
1491089985098,0,7,21,-13,3,-67,-35,53,31
1491089985098,0,-18,-18,-22,-87,-66,60,-19,-29
1491089985099,1,6,26,45,40,-24,-24,-1,10
1491089985099,1,1,-1,-21,20,72,1,-3,-15
1491089985100,2,-12,-34,-45,-17,-24,-73,-35,5
1491089985100,2,-8,8,4,17,19,30,-12,14
1491089985100,3,-2,3,12,4,16,-9,-19,-17
1491089985100,3,11,14,50,12,-11,28,-26,-5
1491089985147,0,-8,-15,-19,-38,-5,12,6,-2
1491089985147,0,1,-9,-14,14,-54,-73,24,-61
1491089985148,1,-9,8,31,11,10,111,16,9
1491089985148,1,4,-19,-12,32,20,-21,91,48
1491089985148,3,8,4,-41,22,24,-79,61,9
1491089985148,3,-33,-16,-6,-58,-76,78,4,-10
1491089985149,0,28,2,20,61,47,9,6,3
1491089985149,0,22,18,5,-106,-78,31,-68,31
1491089985195,1,-15,1,2,58,-17,22,-25,-36
1491089985195,1,5,9,11,-2,32,-22,-15,21
1491089985196,2,-6,8,8,5,22,24,20,-31
1491089985196,2,-19,-1,13,26,37,40,-67,-7
1491089985197,0,-3,-23,-10,10,23,61,75,15
1491089985197,0,16,-2,28,63,13,50,72,30
1491089985198,1,4,18,14,-42,34,-38,-102,21
1491089985198,1,-4,-19,-34,27,-24,-6,24,-19
1491089985244,2,1,-5,-22,-79,-67,-128,-32,-32
1491089985244,2,-11,2,-14,57,15,-41,2,2
1491089985245,3,4,-14,-1,-13,-29,71,-31,-9
1491089985245,3,14,6,8,-51,-9,83,33,52
1491089985246,1,-6,14,17,18,-43,-29,-14,-21
1491089985246,1,7,3,16,48,56,-11,-70,-19
1491089985247,2,-21,-2,35,11,3,94,69,-29
1491089985247,2,-1,-1,-52,-36,-15,-106,-44,11
1491089985293,3,-2,-13,-39,-33,28,54,33,57
1491089985293,3,11,-16,0,-8,17,-66,-36,-33
1491089985294,0,-1,30,15,-14,-6,8,17,30
1491089985294,0,13,6,31,79,30,-105,-42,-34
1491089985295,2,-15,-41,-33,-12,9,51,-13,1
1491089985295,2,-10,7,2,-64,-45,50,30,0
1491089985296,3,10,10,20,114,57,-54,-37,-10
1491089985296,3,13,3,5,-8,-16,127,-11,7
1491089985394,0,-13,4,0,17,43,-127,9,8
1491089985394,0,6,-11,-7,9,23,31,14,-17
1491089985395,1,-8,-11,-5,-45,-61,53,37,22
1491089985395,1,9,10,24,-3,-2,-18,-41,35
1491089985396,3,-13,-9,-9,-22,5,-98,52,-2
1491089985396,3,-25,-30,-37,-26,-126,66,-7,-64
1491089985396,0,14,43,27,-40,-37,-93,-14,16
1491089985396,0,11,-19,-35,25,53,-5,37,20
1491089985439,1,-5,-23,-10,-3,11,47,-40,-31
1491089985439,1,-7,22,33,64,52,5,20,14
1491089985440,2,-1,36,35,34,7,127,-30,-42
1491089985440,2,4,17,30,-42,-2,-86,-8,18
1491089985441,0,9,4,-21,-3,-34,55,10,11
1491089985441,0,8,2,13,-33,8,47,7,32
1491089985442,0,17,-14,-20,-18,18,39,-18,0
1491089985442,0,-20,-3,30,74,12,29,52,-23
1491089985488,1,4,26,44,34,72,30,4,11
1491089985488,1,1,9,-34,-75,-31,-42,30,-20
1491089985488,2,-5,-24,-22,2,-4,-64,-53,40
1491089985488,2,-12,-17,8,-86,-78,21,-20,-28
1491089985489,1,-10,-6,6,12,27,16,-58,-51
1491089985489,1,-10,-2,6,15,-33,122,50,8
1491089985490,2,-1,10,1,0,61,-62,-13,-2
1491089985490,2,-29,-18,-8,42,12,-89,-78,-21
1491089985536,3,12,0,-16,-33,-27,23,71,-5
1491089985536,3,7,0,3,-29,-11,-8,-38,-11
1491089985537,0,-11,-22,-6,13,-10,51,-7,6
1491089985537,0,-4,-6,6,-11,-48,49,13,-36
1491089985538,2,13,6,8,-9,2,-61,31,-6
1491089985538,2,-1,-9,-39,-41,21,-3,21,-9
1491089985539,3,-9,-2,20,28,-20,94,-56,-20
1491089985539,3,1,-5,-5,-11,-1,69,72,17
1491089985585,0,9,18,-3,-42,55,-92,-57,-8
1491089985585,0,-12,-13,-12,74,-60,-45,-43,-5
1491089985586,1,7,-17,-26,-18,7,-77,-26,-40
1491089985586,1,-12,2,0,30,28,19,2,-54
1491089985587,3,-19,4,14,-10,-27,-45,-62,10
1491089985587,3,12,-8,-23,-13,-58,17,87,45
1491089985588,0,-4,-25,-25,-29,-25,16,6,-14
1491089985588,0,6,31,40,28,58,71,-38,-34
1491089985634,1,-13,3,2,-54,-3,-53,-46,6
1491089985634,1,-1,-16,-26,8,24,-84,-35,-2
1491089985635,2,-17,-15,17,-1,18,-65,1,21
1491089985635,2,25,-31,-53,-112,-71,127,32,-6
1491089985635,0,11,-2,-13,32,2,-4,5,28
1491089985635,0,-10,-11,-1,-43,-3,17,-35,-22
1491089985636,1,-24,4,29,-21,-5,78,39,-16
1491089985636,1,17,4,8,-37,-36,90,41,57
1491089985683,2,-6,9,12,61,4,-68,-8,-10
1491089985683,2,-9,0,-7,3,48,-47,-77,-23
1491089985683,3,21,-3,-25,-20,48,-52,91,-19
1491089985683,3,-32,-6,8,-4,1,49,-3,28
1491089985684,1,9,-23,-19,-7,-52,70,-15,20
1491089985684,1,-2,16,16,-26,33,-95,-30,2
1491089985685,2,-5,1,28,64,2,75,54,22
1491089985685,2,-8,-19,-46,-38,-30,-58,-49,-22
1491089985829,3,-23,-6,23,75,9,39,9,27
1491089985829,3,15,15,26,-12,34,-67,-25,-17
1491089985830,0,-10,11,-2,40,31,46,-4,51
1491089985830,0,-15,2,27,-22,-66,5,36,20
1491089985831,2,26,-4,-50,-93,-15,-21,-25,-28
1491089985831,2,-2,-45,-58,47,-66,-1,18,1
1491089985832,3,23,27,23,33,-7,-76,-25,18
1491089985832,3,-15,-31,-64,-89,-48,120,92,-100
1491089985878,0,8,18,35,51,26,-33,-103,8
1491089985878,0,1,12,2,-39,-14,-50,3,32
1491089985879,1,-2,-2,14,22,3,39,25,10
1491089985879,1,-2,-6,10,10,14,-9,58,-25
1491089985879,2,-20,21,30,2,-24,47,49,-22
1491089985879,2,28,-12,-17,31,25,2,-31,-3
1491089985926,0,24,5,16,63,48,-25,88,46
1491089985926,0,-8,17,7,-46,-50,-36,-78,-31
1491089985928,1,-1,2,34,33,-27,31,104,4
1491089985928,1,-24,-5,-28,-10,71,-71,-100,17
1491089985928,2,12,-19,-23,-35,-23,-7,22,-37
1491089985928,2,0,18,9,-23,34,-21,35,21
1491089985975,1,-5,-16,-51,-92,-49,-19,55,-36
1491089985975,1,5,-4,3,-3,-1,29,21,4
1491089986024,2,-28,-2,-3,-30,-4,-15,-86,-1
1491089986024,2,4,-32,-19,46,-34,62,39,-57
1491089986026,3,4,35,51,43,99,-97,23,42
1491089986026,3,0,2,-10,-75,-33,-65,-12,-46
1491089986027,0,3,-11,-44,-33,-6,-126,-14,15
1491089986027,0,-47,-27,0,109,87,69,15,-42
1491089986028,2,31,8,-12,-64,-14,15,13,27
1491089986028,2,-8,-3,9,-26,0,13,17,14
1491089986073,3,-4,-9,-3,-8,-23,73,24,8
1491089986073,3,-13,4,-5,-33,-26,34,-33,-4
1491089986074,3,3,-16,-18,-16,-29,-22,60,31
1491089986074,3,-10,5,-11,-47,-33,80,-15,19
1491089986074,0,1,-7,-7,-50,-27,15,67,7
1491089986074,0,5,-5,17,45,24,79,-6,14
1491089986075,1,-19,2,-13,-39,-34,-59,-90,1
1491089986075,1,30,5,-1,3,35,-22,91,29
1491089986170,2,-14,-25,-3,19,-12,51,-21,-54
1491089986170,2,8,16,-16,-68,54,-81,76,44
1491089986171,3,2,-14,0,63,9,27,15,6
1491089986171,3,31,16,-4,-23,-18,17,-109,-7
1491089986172,0,4,8,-28,-73,-17,39,50,76
1491089986172,0,-5,-25,13,59,-30,32,-50,-23
1491089986172,1,3,35,4,-69,-38,76,13,-12
1491089986172,1,-22,-10,-15,77,18,-63,-25,9
1491089986219,2,19,-17,-19,-15,5,-74,93,-5
1491089986219,2,-14,5,9,2,-25,0,-59,-27
1491089986220,3,-11,15,34,36,44,-21,41,-6
1491089986220,3,-8,-4,19,-14,-26,82,73,17
1491089986221,1,0,-3,3,0,-9,56,13,-78
1491089986221,1,-1,-5,-5,-14,6,-60,-7,41
1491089986221,2,-12,-5,-1,17,37,-87,7,-7
1491089986221,2,-1,-11,-10,20,-9,30,65,21
1491089986268,3,33,-9,-21,-29,5,-64,-82,-7
1491089986268,3,7,-14,15,56,47,52,34,-2
1491089986269,0,-24,28,12,-77,-55,-23,-91,-13
1491089986269,0,11,14,11,30,31,11,78,-28
1491089986269,3,-6,10,-9,-103,-29,-9,-108,-22
1491089986269,3,-27,-35,-15,86,25,11,56,-29
1491089986270,0,-7,-9,4,-3,-8,-21,57,28
1491089986270,0,36,12,4,-72,-19,-61,-43,-13
1491089986365,1,-26,-1,-15,52,13,18,28,6
1491089986365,1,27,11,-12,-52,-29,15,-50,-9
1491089986366,2,0,18,22,10,28,12,-41,19
1491089986366,2,-20,-15,28,63,-55,30,58,-1
1491089986366,0,37,9,5,65,25,-25,25,-11
1491089986366,0,25,2,-19,-14,38,116,30,4
1491089986367,1,-13,-3,7,8,-10,-3,24,-5
1491089986367,1,-2,24,3,-14,-17,5,6,19
1491089986414,2,-13,-12,8,-20,-24,-62,-114,-28
1491089986414,2,-11,-4,5,1,-33,24,54,4
1491089986415,3,15,-48,-29,-56,-27,-68,-6,-2
1491089986415,3,-12,25,-13,-86,-46,53,28,9
1491089986416,1,-25,1,1,34,31,77,-54,-38
1491089986416,1,19,14,44,-3,69,-108,24,-2
1491089986416,2,-18,-7,-7,-32,-51,-77,-79,-32
1491089986416,2,-6,28,36,18,6,78,62,56
1491089986463,3,36,40,50,22,59,61,-53,0
1491089986463,3,-4,-12,-34,57,39,-86,33,-12
1491089986464,0,13,-13,-30,-61,7,-35,-31,-1
1491089986464,0,-28,-10,7,36,-8,35,-37,0
1491089986464,3,-6,-13,-24,-42,-22,-39,3,-10
1491089986464,3,-3,23,35,58,21,21,-70,-21
1491089986465,0,-28,-13,-6,8,23,-29,102,-15
1491089986465,0,6,-9,-16,-4,-49,-17,-53,26
1491089986560,1,0,-9,2,20,70,-84,16,-14
1491089986560,1,14,4,-16,-78,-67,-59,-70,9
1491089986561,2,4,-6,2,-5,-7,18,52,12
1491089986561,2,28,9,9,46,-13,-27,-14,-4
1491089986562,3,-27,6,7,-8,39,56,10,-13
1491089986562,3,21,-2,-14,3,-15,75,44,13
1491089986563,0,-7,1,10,27,34,58,-37,5
1491089986563,0,1,-10,6,3,23,13,43,10
1491089986609,1,-2,16,-4,42,-60,-124,-107,-15
1491089986609,1,-12,-1,4,-62,5,127,125,11
1491089986610,2,11,21,11,-8,1,-13,62,23
1491089986610,2,-52,-19,-14,-42,-46,80,-70,-13
1491089986611,0,9,10,-25,-36,-58,116,58,-14
1491089986611,0,14,18,19,12,9,-95,-94,-11
1491089986611,1,15,-12,-20,31,-19,57,-35,-3
1491089986611,1,-13,-21,-15,-7,11,-74,-76,-24
1491089986658,2,-14,21,4,-32,22,8,42,52
1491089986658,2,41,-22,-30,-4,-18,64,-19,-10
1491089986659,3,-9,16,22,13,12,-12,15,13
1491089986659,3,-10,24,18,2,-15,82,-62,-11
1491089986660,2,-8,-15,-5,59,16,-21,-97,-46
1491089986660,2,-3,2,-1,-43,2,-21,77,17
1491089986661,3,6,7,16,67,-6,4,3,-8
1491089986661,3,-7,-15,12,61,-29,-33,-32,27
1491089986706,0,-16,-9,-22,-38,49,21,42,-11
1491089986706,0,18,-3,-13,-55,-65,87,0,9
1491089986708,1,-5,30,22,-16,57,-70,-73,21
1491089986708,1,-19,-26,-27,-19,-53,-18,109,-33
1491089986709,3,-8,6,5,-57,-52,14,-4,-45
1491089986709,3,-7,-9,-7,45,90,10,6,19
1491089986709,0,10,-15,-19,-31,-27,28,7,-8
1491089986709,0,-7,7,-16,21,4,-12,-1,-6
1491089986804,1,16,-10,17,23,-20,40,-9,10
1491089986804,1,-15,15,19,-8,-15,-21,-41,-38
1491089986805,2,-1,-15,-11,-5,-27,7,16,41
1491089986805,2,-13,6,15,-16,34,-28,-2,-12
1491089986805,0,13,9,6,2,64,6,-30,54
1491089986805,0,25,0,0,3,-2,-126,-90,21
1491089986806,1,-4,-29,-42,-19,-4,28,95,24
1491089986806,1,-4,-9,-34,-27,18,48,27,-17
1491089986853,2,-4,-11,1,5,-31,65,-50,-30
1491089986853,2,-24,-4,30,3,-26,75,-17,-13
1491089986854,3,6,-5,6,39,21,-121,-71,-52
1491089986854,3,19,7,0,-8,9,52,97,67
1491089986856,1,4,-8,-8,9,15,28,5,19
1491089986856,1,0,10,15,7,-8,9,16,-36
1491089986857,2,-26,7,21,-5,-62,72,-4,28
1491089986857,2,9,3,3,-23,-5,61,76,-1
1491089986901,3,15,12,42,44,8,-11,2,45
1491089986901,3,-7,21,3,1,44,-13,-15,4
1491089986902,0,0,-20,-22,4,-3,19,21,-14
1491089986902,0,-25,-22,-45,-32,-23,-17,-24,-6
1491089986903,2,-10,-4,-6,34,-20,100,1,14
1491089986903,2,-10,9,12,-26,30,-95,-23,-25
1491089986904,3,-13,-41,-34,5,-8,58,33,-22
1491089986904,3,-5,16,11,4,32,-74,-122,12
1491089986950,0,3,-17,3,19,0,14,63,32
1491089986950,0,2,2,-28,-80,-69,99,34,-10
1491089986951,1,-6,-3,-12,-29,40,-111,-6,-39
1491089986951,1,24,6,11,71,45,-55,-55,26
1491089986952,3,-7,16,22,81,84,67,82,4
1491089986952,3,16,-22,-30,-81,-26,17,33,27
1491089986952,0,4,12,-2,-18,-17,-71,-48,-19
1491089986952,0,-21,-14,9,42,1,69,-29,-15
1491089987096,1,-3,15,22,-51,-9,-91,1,19
1491089987096,1,-11,-32,-47,-14,11,-6,13,17
1491089987098,2,-24,19,9,3,-35,73,33,-12
1491089987098,2,37,30,42,-16,26,-128,-73,8
1491089987098,0,22,-23,-7,-14,-32,11,30,30
1491089987098,0,-20,-18,-25,51,5,13,47,11
1491089987100,1,-10,8,29,-8,-29,5,-43,-34
1491089987100,1,7,17,11,-38,-7,-38,-35,-6
1491089987145,2,8,3,-14,32,-1,-27,-40,41
1491089987145,2,-32,-15,-9,3,-2,35,9,23
1491089987146,3,18,-22,14,26,32,45,-21,55
1491089987146,3,-8,5,17,-32,-2,-17,-15,36
1491089987147,3,-21,26,46,26,0,53,-23,-41
1491089987147,3,18,20,28,-35,-36,1,20,38
1491089987148,0,0,10,4,13,-13,-82,-103,-25
1491089987148,0,19,-28,-37,-3,22,4,78,6
1491089987291,1,14,12,2,-23,-25,-12,29,29
1491089987291,1,-27,-8,7,-12,8,30,-51,-11
1491089987294,2,25,7,9,-2,25,17,58,16
1491089987294,2,-13,14,6,22,12,-2,-19,-28
1491089987295,3,-9,-19,-13,13,-10,41,-30,15
1491089987295,3,-23,-11,10,-13,-38,-52,9,-57
1491089987295,0,2,11,8,-19,19,-5,29,94
1491089987295,0,-8,-17,-23,-10,2,17,15,6
1491089987389,1,13,-3,-11,2,22,-17,5,-34
1491089987389,1,-18,2,-2,-1,-40,65,-71,-24
1491089987391,2,14,-10,20,-2,15,-35,69,-3
1491089987391,2,-35,4,-14,4,39,-76,-66,-33
1491089987392,1,23,-15,-26,-30,-58,-69,-76,-67
1491089987392,1,26,19,0,-4,-4,-5,16,105
1491089987392,2,33,35,33,3,12,27,59,6
1491089987392,2,-14,-14,4,-30,-43,-24,75,24
1491089987438,3,-3,-4,-14,-21,21,-40,-44,-54
1491089987438,3,7,6,-3,71,57,-1,-12,37
1491089987439,0,-18,-13,-1,11,10,-23,-35,-54
1491089987439,0,4,22,-10,-42,-52,38,-46,30
1491089987440,3,-10,9,9,-5,9,-27,-59,44
1491089987440,3,-3,10,12,-25,28,34,40,-21
1491089987535,0,5,28,16,-18,-26,97,29,38
1491089987535,0,-10,-1,-9,38,24,-39,-10,-9
1491089987537,1,17,0,-20,-35,-34,-19,23,-33
1491089987537,1,0,7,5,4,-40,-78,-92,6
1491089987538,2,-9,-5,5,-33,14,-30,66,5
1491089987538,2,2,-3,4,59,-5,52,-31,-45
1491089987538,1,-10,3,-14,16,3,-52,12,44
1491089987538,1,3,8,1,-8,-7,-47,3,-57
1491089987584,2,-16,13,16,10,12,-39,-94,-9
1491089987584,2,14,4,-2,-54,-72,-30,47,37
1491089987585,3,-5,-12,-19,-3,50,-10,-52,-34
1491089987585,3,16,4,-13,-18,-8,54,85,117
1491089987586,2,-4,-35,-29,-17,-55,101,16,-22
1491089987586,2,-8,24,19,-42,-14,-57,-60,12
1491089987587,2,-6,10,26,-14,-35,-81,-97,-9
1491089987587,2,12,-11,-20,-43,1,26,81,-40
1491089987633,3,-19,-3,11,-18,16,-11,-48,9
1491089987633,3,3,9,5,-25,-14,-8,13,-9
1491089987635,0,-24,-18,-13,39,-15,-3,-15,-5
1491089987635,0,10,-3,9,1,-36,-50,-128,-16
1491089987636,3,-14,-26,-31,-71,-44,39,89,-21
1491089987636,3,-1,-26,-26,13,-14,29,-68,-7
1491089987637,0,10,25,23,11,-12,24,5,-18
1491089987637,0,20,9,28,74,27,28,36,12
1491089987683,1,-21,21,5,-30,-24,-46,-58,-12
1491089987683,1,-4,-29,-24,-26,3,-3,6,-6
1491089987685,2,3,4,0,-49,28,9,12,-13
1491089987685,2,-2,-15,-19,74,-1,5,-8,-17
1491089987686,0,6,-8,-15,-2,16,-58,3,10
1491089987686,0,16,6,-6,-33,-7,-83,0,53
1491089987780,1,0,18,26,30,-6,99,48,-8
1491089987780,1,-12,2,21,-21,4,69,-127,27
1491089987782,2,8,-7,-4,-28,32,16,115,17
1491089987782,2,7,8,-15,53,57,-94,-67,-19
1491089987789,3,-13,-22,3,34,-37,6,-67,10
1491089987789,3,-25,27,16,-51,-46,15,-15,9
1491089987790,1,20,-1,-25,-28,26,8,14,-10
1491089987790,1,10,7,-10,-89,-10,21,47,-3
1491089987828,2,-25,-12,10,77,-37,63,-10,-6
1491089987828,2,-4,-8,-7,-28,-14,-116,-31,-15
1491089987829,3,-5,4,14,48,-1,-4,-82,-38
1491089987829,3,1,20,32,16,44,71,100,19
1491089987877,3,21,10,-10,-3,43,44,107,28
1491089987877,3,-22,-11,-13,23,26,-57,8,-3
1491089987879,0,1,-11,-19,-29,-40,-96,-80,-59
1491089987879,0,-12,12,17,17,-32,17,61,57
1491089987880,1,-4,-12,-21,-108,68,0,20,-15
1491089987880,1,19,-12,-10,75,30,45,3,-50
1491089987881,2,13,8,4,4,-6,18,-8,48
1491089987881,2,-23,-15,0,-25,-31,26,21,-29
1491089987925,0,-15,-21,-33,-25,-25,14,-53,-1
1491089987925,0,16,5,11,33,33,-64,0,3
1491089987926,1,-7,17,35,25,32,68,2,-33
1491089987926,1,18,0,6,-80,-57,-15,52,48
1491089987927,2,42,31,6,100,53,-87,-89,-4
1491089987927,2,-17,-24,-18,-19,53,-37,-22,-32
1491089987928,0,-13,-9,14,-27,-62,100,60,10
1491089987928,0,8,28,32,19,56,26,-23,-13
1491089988023,1,4,4,13,72,7,-58,-59,19
1491089988023,1,-40,-30,-33,29,-43,3,14,12
1491089988024,2,-24,-44,-50,-56,-34,-46,9,-24
1491089988024,2,34,44,16,23,3,53,-3,-12
1491089988025,1,-27,-28,-43,-20,-18,-18,-39,-101
1491089988025,1,1,-3,1,-25,-39,47,32,57
1491089988026,2,16,16,-16,-96,23,-66,-28,17
1491089988026,2,-27,-51,-42,60,-44,31,-4,-16
1491089988071,3,-26,16,9,-21,-13,-28,38,-29
1491089988071,3,34,-5,2,56,66,21,4,37
1491089988072,0,-6,13,26,-76,-3,59,71,-9
1491089988072,0,-7,14,-6,8,-45,35,-29,4
1491089988073,3,-29,2,11,-2,-27,26,-5,11
1491089988073,3,30,-20,-25,-20,23,-68,-21,-22
1491089988074,0,0,5,-6,38,-14,-62,-73,-25
1491089988074,0,-9,16,23,-13,-11,70,-2,12
1491089988120,1,-1,-4,6,-27,-16,-65,6,74
1491089988120,1,-28,-11,-5,-5,8,-8,-44,-78
1491089988121,2,25,-3,3,38,44,55,47,63
1491089988121,2,18,-1,11,18,18,22,9,-29
1491089988169,0,-9,12,-17,-50,-67,-30,-42,-21
1491089988169,0,-9,-22,-17,-1,-28,-33,-16,-8
1491089988218,1,-12,-13,-38,-55,-12,-49,-9,-5
1491089988218,1,16,10,29,75,69,56,44,41
1491089988219,2,1,-14,29,120,23,-64,-44,-25
1491089988219,2,-9,-1,-40,-87,-64,-34,-32,-6
1491089988219,3,18,-16,-28,2,1,-20,21,-55
1491089988219,3,-2,-2,-6,-34,-15,32,17,11
1491089988220,1,-28,-8,15,29,25,-57,-105,-35
1491089988220,1,10,0,-11,-119,22,42,104,27
1491089988266,2,12,-4,-26,34,-6,-47,-60,-9
1491089988266,2,-17,-10,21,57,-48,28,-5,-12
1491089988268,2,24,-7,-6,-15,29,-67,-21,2
1491089988268,2,-5,5,-1,34,41,-14,7,46
1491089988268,3,-7,9,43,17,28,59,62,27
1491089988268,3,-14,5,23,13,-34,19,-5,-5
1491089988269,2,-9,-2,-6,-20,33,3,-40,54
1491089988269,2,22,14,-16,-60,-22,-46,-64,-76
1491089988316,3,-11,18,22,16,-10,18,-45,34
1491089988316,3,13,9,34,78,6,22,94,71
1491089988316,0,-10,-9,-17,19,11,27,-44,-48
1491089988316,0,-22,-24,-30,-18,29,-1,14,-9
1491089988317,3,2,2,21,38,25,81,-8,27
1491089988317,3,-17,-23,-2,-17,-36,-100,3,9
1491089988319,0,23,45,30,-4,17,65,14,-47
1491089988319,0,17,9,-10,-5,62,-11,61,25
1491089988413,1,31,-1,-29,4,-4,19,-78,-15
1491089988413,1,-61,-12,-22,-80,-16,-62,-22,-31
1491089988413,2,22,-9,7,84,1,12,36,63
1491089988413,2,2,-12,-1,-34,-86,-6,-49,-51
1491089988414,0,-33,-8,15,9,4,-4,1,-34
1491089988414,0,8,-6,17,17,-11,41,25,25
1491089988462,1,13,8,-1,-48,-11,-71,-45,-24
1491089988462,1,14,4,14,-7,23,-4,-59,20
1491089988464,2,-4,25,10,15,4,15,107,7
1491089988464,2,12,-25,2,34,24,48,-65,-18
1491089988465,3,9,25,44,15,17,-88,72,2
1491089988465,3,10,-5,-21,-49,-37,-30,-84,-34
1491089988466,1,-21,-12,-27,-63,-37,76,91,-38
1491089988466,1,-20,-1,11,53,-37,16,-46,-12
1491089988512,2,-8,3,-33,-29,-72,-70,-101,-58
1491089988512,2,-4,-1,6,22,-9,-42,44,11
1491089988514,3,-7,-11,-25,-1,25,-93,45,65
1491089988514,3,50,9,4,32,24,23,-66,35
1491089988515,3,-15,-3,33,25,21,79,121,-1
1491089988515,3,11,6,23,46,67,4,-59,-14
1491089988516,0,7,-6,-3,-33,-44,3,7,-13
1491089988516,0,-45,-25,-17,-36,-76,44,1,-11
1491089988559,1,24,-3,-12,37,40,-88,-78,20
1491089988559,1,34,17,10,45,45,66,48,-9
1491089988560,2,-21,-6,-17,-10,-38,-128,-57,11
1491089988560,2,-21,-1,-3,-19,49,47,104,-35
1491089988608,0,25,5,-11,11,15,102,59,7
1491089988608,0,-20,19,9,8,-8,-106,14,23
1491089988609,1,-13,-3,4,-28,-88,-21,-102,-12
1491089988609,1,7,0,4,6,47,30,-11,-37
1491089988619,2,-12,-8,7,-27,6,12,3,-14
1491089988619,2,26,10,10,35,18,96,3,-1
1491089988620,3,-11,3,18,2,-69,127,48,-35
1491089988620,3,13,-8,-2,-10,30,-128,-96,85
1491089988657,0,-10,14,23,30,70,-40,23,-21
1491089988657,0,-23,-13,-43,-58,4,2,-20,-31
1491089988659,1,2,-35,-16,6,-29,-35,23,4
1491089988659,1,26,43,-16,-48,-24,-46,-69,1
1491089988660,2,-33,-30,-27,-12,4,118,94,-22
1491089988660,2,-7,-2,16,49,49,0,-56,-17
1491089988661,1,-20,-22,-25,-79,4,-8,-46,-33
1491089988661,1,-15,-47,-57,-55,-39,-51,-39,2
1491089988709,2,3,1,2,1,-13,33,-86,-15
1491089988709,2,-5,8,29,-19,-34,-34,11,28
1491089988710,3,-10,12,13,22,70,-31,23,24
1491089988710,3,-20,-27,-9,25,7,-59,42,1
1491089988711,2,30,8,-24,10,50,-89,-66,21
1491089988711,2,-13,-19,-30,-17,-9,-98,116,-19
1491089988712,3,3,9,-25,-105,-72,5,-56,-15
1491089988712,3,-23,-18,-2,34,-49,62,-6,-10
1491089988759,0,-6,14,24,-25,-41,93,29,-6
1491089988759,0,-6,-5,24,48,55,-14,-60,64
1491089988760,1,7,14,12,34,49,-10,5,-24
1491089988760,1,-11,-13,-13,-23,-1,-24,-34,-51
1491089988761,3,0,-5,-15,-99,-26,53,11,-31
1491089988761,3,8,5,-15,6,-71,7,7,51
1491089988762,0,-4,-30,-43,-39,37,-7,-15,15
1491089988762,0,11,-14,-34,-2,-22,5,-7,-50
1491089988809,1,-12,4,29,57,-5,12,-7,12
1491089988809,1,-6,-20,-9,-5,19,-26,-88,-41
1491089988810,2,27,9,0,11,-12,19,31,19
1491089988810,2,-15,15,27,9,17,99,34,11
1491089988811,0,-38,-1,9,30,2,23,10,25
1491089988811,0,1,-18,-9,-6,19,33,-49,-18
1491089988812,1,6,14,37,36,2,24,28,21
1491089988812,1,-29,-12,-2,10,-17,-75,64,-12
1491089988852,2,21,18,12,40,54,-63,-61,76
1491089988852,2,-15,-38,-52,-71,-49,-71,-35,-5
1491089988854,3,-5,-8,-17,15,29,93,-26,-25
1491089988854,3,-2,9,-5,-54,-16,-16,38,30
1491089988855,1,14,2,-18,-12,10,-80,7,21
1491089988855,1,4,9,27,17,42,68,-4,-11
1491089988856,2,4,8,24,3,7,-34,10,7
1491089988856,2,-16,4,0,-14,-39,57,6,17
1491089988901,3,19,-3,8,22,24,12,41,-15
1491089988901,3,1,15,4,-20,-10,13,-36,8
1491089988903,0,-19,-2,12,11,-33,79,86,26
1491089988903,0,29,-12,-4,-15,50,-62,-50,-29
1491089988904,2,2,1,5,31,-36,73,58,-4
1491089988904,2,-40,-15,-4,-24,-60,99,2,-33
1491089988905,3,-2,-12,13,28,47,-102,-61,10
1491089988905,3,4,-12,-39,-100,42,23,21,21
1491089988949,0,-11,-17,-37,14,49,-31,42,-44
1491089988949,0,23,19,13,95,17,2,-18,36
1491089988953,1,-20,-1,19,-13,-53,26,-72,-10
1491089988953,1,-8,8,23,44,-41,-14,-33,-46
1491089988954,3,8,27,39,-32,-57,29,-15,51
1491089988954,3,-12,-20,-31,3,37,-26,59,-21
1491089988955,0,-16,-6,-22,4,8,-67,-116,-49
1491089988955,0,22,0,-16,-60,24,28,70,34
1491089988998,1,-20,-8,-16,7,-33,-9,-29,-28
1491089988998,1,-4,-2,14,-13,-12,83,38,63
1491089988999,2,-5,3,18,-8,43,-74,-59,4
1491089988999,2,-18,1,12,106,21,77,26,-21
1491089989000,3,12,1,-13,-94,-40,-76,-21,-15
1491089989000,3,31,-1,-7,81,14,46,39,23
1491089989004,0,-21,-2,20,45,-56,2,-25,11
1491089989004,0,-5,8,3,-13,-23,37,-82,-35
1491089989047,1,-34,-51,-54,-29,52,-23,127,-12
1491089989047,1,11,19,-6,-30,7,-108,-99,15
1491089989095,2,5,0,-2,-17,-24,13,6,-15
1491089989095,2,-1,17,35,-26,1,-24,3,12
1491089989097,0,15,23,18,15,42,6,41,-1
1491089989097,0,23,7,-6,-38,-66,66,-26,59
1491089989098,1,-8,5,-9,-28,74,-53,-20,28
1491089989098,1,-5,-21,-20,-17,-45,-55,2,-22
1491089989099,2,-11,-6,-26,-3,-17,-44,-45,-40
1491089989099,2,-16,-16,-5,-13,-10,-42,-11,-18
1491089989144,3,-6,-8,6,47,-19,10,-11,-17
1491089989144,3,-1,-2,25,37,53,2,-59,42
1491089989145,1,-4,-6,-31,-75,-45,-26,-40,42
1491089989145,1,-12,-8,13,92,33,-11,35,15
1491089989146,2,4,-11,-22,-67,-7,62,12,26
1491089989146,2,3,-18,-35,-77,-53,-88,45,13
1491089989146,2,-12,-1,9,15,22,-24,-128,2
1491089989146,2,-10,-15,-13,-29,-66,14,99,43
1491089989193,3,9,18,50,94,76,111,-39,-23
1491089989193,3,-38,-15,-17,-91,-46,-64,6,-19
1491089989193,0,1,-2,-14,7,10,-14,19,59
1491089989193,0,24,0,-18,-29,45,-128,-46,-46
1491089989194,3,9,8,-2,-3,-24,-43,61,29
1491089989194,3,11,13,9,-27,18,3,-8,11
1491089989195,0,7,4,10,27,28,14,12,0
1491089989195,0,-24,4,32,47,-10,7,-23,-11
1491089989241,1,24,-4,9,14,-15,-2,-4,-5
1491089989241,1,18,13,2,-66,-5,22,-50,55
1491089989242,2,-2,-5,-9,39,26,7,76,22
1491089989242,2,-24,-19,-11,17,-40,27,14,-13
1491089989290,0,0,-7,0,4,81,-104,9,11
1491089989290,0,28,54,-18,-94,9,1,65,11
1491089989291,1,-36,-35,-61,61,-75,-29,-74,-3
1491089989291,1,14,-16,-10,13,-49,47,-4,-35
1491089989339,2,-9,15,1,8,-45,69,-79,-62
1491089989339,2,-2,-1,41,58,51,-23,36,69
1491089989340,3,6,20,29,-21,16,23,-6,12
1491089989340,3,-14,-2,-6,-37,-40,-19,-47,-36
1491089989341,1,7,8,37,57,50,-12,-66,-28
1491089989341,1,6,0,-11,-14,-41,94,117,41
1491089989341,2,11,13,15,-3,21,18,-86,18
1491089989341,2,-2,-14,-34,-42,101,-45,89,-37
1491089989388,3,14,-17,-56,9,-37,-56,-17,-33
1491089989388,3,-5,-3,5,-3,-20,4,-14,4
1491089989389,1,-23,-3,12,-50,17,25,31,-42
1491089989389,1,9,7,26,100,72,-17,4,41
1491089989389,2,16,18,-15,-83,-80,26,-1,3
1491089989389,2,-5,-2,-6,33,22,-10,11,12
1491089989390,2,-11,-4,-42,-91,-9,-10,63,32
1491089989390,2,9,-27,-24,49,-70,27,-94,-30
1491089989436,3,-12,15,37,25,4,-79,-30,1
1491089989436,3,-3,-8,-20,-52,-62,-3,-42,31
1491089989437,0,26,5,-8,-35,23,-41,62,-3
1491089989437,0,-25,-12,-12,-61,-28,11,-8,-10
1491089989438,3,-2,3,23,10,19,19,-67,34
1491089989438,3,-19,-7,-23,-59,-58,29,76,-3
1491089989534,0,46,54,49,61,21,-59,14,16
1491089989534,0,-4,-19,-23,-3,33,-72,6,-1
1491089989536,1,-12,-17,-12,-52,4,-97,-42,-27
1491089989536,1,9,9,-29,-13,0,72,-32,56
1491089989537,2,6,-31,-33,-10,-84,96,-3,-32
1491089989537,2,13,3,8,24,27,-7,86,59
1491089989538,0,10,-7,17,25,23,27,-84,-72
1491089989538,0,35,17,-7,-35,-47,15,5,15
1491089989583,1,-23,1,-3,-37,-55,77,27,-57
1491089989583,1,-9,-2,4,-20,9,-39,13,-13
1491089989585,2,-39,-27,-14,8,5,14,-34,-28
1491089989585,2,-12,7,26,45,-20,29,-50,-4
1491089989586,3,13,-10,-12,1,15,20,10,-51
1491089989586,3,-23,-12,-10,25,48,-96,80,54
1491089989587,2,-5,-13,-20,20,12,-11,-29,-19
1491089989587,2,2,16,35,39,29,20,-37,13
1491089989632,3,-4,-12,-7,-69,-59,59,4,13
1491089989632,3,20,21,-2,44,-39,82,28,3
1491089989633,0,-14,-12,-18,-43,-15,-116,-52,-38
1491089989633,0,-23,-1,11,77,93,-18,11,18
1491089989634,3,-10,6,-3,44,17,-9,28,-21
1491089989634,3,-3,-9,-3,-10,43,18,49,70
1491089989634,0,-5,-8,-9,-8,-41,-71,-31,-37
1491089989634,0,-33,-31,-23,-32,-16,-42,0,-8
1491089989729,1,11,10,15,32,-25,94,-21,-54
1491089989729,1,-5,30,49,23,20,-6,2,23
1491089989730,2,4,-12,-29,-82,3,-1,27,31
1491089989730,2,-7,-14,-28,35,-1,17,-14,-73
1491089989731,3,-27,-17,-7,65,15,-43,-27,31
1491089989731,3,8,-13,-4,-42,-12,-8,17,45
1491089989731,0,24,19,37,48,-13,103,-14,-22
1491089989731,0,5,18,12,-82,3,-84,28,41
1491089989778,1,-2,0,-13,44,74,45,53,-22
1491089989778,1,5,-6,-9,21,4,-118,-103,3
1491089989780,2,-10,6,-9,-23,-26,55,110,17
1491089989780,2,4,-7,8,1,-50,-30,-42,-44
1491089989780,0,-37,-30,-50,-76,-79,-103,-128,-46
1491089989780,0,60,8,-28,7,-48,7,74,47
1491089989781,1,-34,7,4,16,-12,63,1,8
1491089989781,1,25,6,16,69,32,-84,-33,-83
1491089989875,2,17,3,-49,-50,-19,-81,64,51
1491089989875,2,3,-35,-74,-72,-46,0,-34,-29
1491089989876,3,-22,-16,0,-19,-84,-11,-11,16
1491089989876,3,-9,14,32,-47,2,91,-38,16
1491089989877,2,3,4,17,24,53,80,64,-6
1491089989877,2,0,9,27,32,-44,-83,-105,-63
1491089989878,3,6,-1,-5,-91,33,6,114,47
1491089989878,3,-18,-8,-22,38,-20,14,-8,-30
1491089989924,0,8,6,23,72,34,-27,14,20
1491089989924,0,7,11,-23,-100,-13,80,60,55
1491089989925,1,2,-2,-36,12,-50,-98,-47,-80
1491089989925,1,17,-21,-45,-27,14,9,40,16
1491089989926,0,10,-5,11,53,17,102,63,-36
1491089989926,0,-17,8,40,61,2,-9,-50,23
1491089989926,1,-26,-10,-13,-35,-21,-31,-55,-20
1491089989926,1,31,12,24,18,-17,19,25,-2
1491089989973,2,7,16,-2,-9,16,-10,11,16
1491089989973,2,-12,-30,-36,-79,-3,-17,4,3
1491089989974,3,-3,-1,-4,43,16,-7,-36,-61
1491089989974,3,-19,-6,-13,-52,-29,-28,37,22
1491089989974,1,-25,28,40,21,11,-6,-11,1
1491089989974,1,-22,-22,-7,-24,14,42,45,-36
1491089989976,2,47,20,25,17,-50,-4,-9,22
1491089989976,2,-3,-10,-66,-80,-26,-77,-14,-24
1491089990021,3,-2,-1,-15,-3,6,-8,12,41
1491089990021,3,-27,-20,-26,-76,-10,-36,-40,-34
1491089990022,0,-30,-24,-6,86,27,73,4,-19
1491089990022,0,53,28,40,37,4,32,-38,14
1491089990023,1,-23,7,62,33,-4,-57,-58,54
1491089990023,1,-12,-3,-26,-14,12,-1,41,-38
1491089990024,2,0,-16,-24,-7,-29,0,-1,25
1491089990024,2,6,19,2,-55,-63,-7,22,1
1491089990070,3,12,-6,-4,22,49,-5,26,25
1491089990070,3,-26,10,34,30,24,-2,-28,-9
1491089990071,0,29,9,-1,-6,-40,37,-68,-27
1491089990071,0,-27,-15,-4,27,50,-37,-1,-22
1491089990072,2,-8,20,5,-25,-36,34,32,-57
1491089990072,2,-20,-4,-1,3,-25,-25,8,-28
1491089990072,3,-3,-28,-18,7,57,43,-58,-48
1491089990072,3,25,19,-2,17,12,9,14,45
1491089990119,0,-23,6,12,2,27,-20,-48,-20
1491089990119,0,-11,5,14,-84,-52,75,48,52
1491089990120,1,17,9,32,100,45,-77,-27,-32
1491089990120,1,-6,-25,-14,-7,-47,26,-46,27
1491089990120,3,0,24,-15,-81,-26,-44,-4,-17
1491089990120,3,-2,12,36,20,-18,47,-19,-45
1491089990121,0,-23,-7,-6,-66,0,-128,-4,36
1491089990121,0,-12,-17,-32,70,17,0,-27,-25
1491089990216,1,4,-14,11,61,9,103,6,22
1491089990216,1,29,26,13,-30,-4,28,-19,-51
1491089990217,2,-19,-15,-24,-66,-25,-15,-26,-27
1491089990217,2,-6,1,22,29,34,-16,-6,-39
1491089990218,0,-11,-15,-11,52,43,17,-25,-7
1491089990218,0,-17,-6,0,-79,-58,33,-44,5
1491089990219,1,21,-2,2,53,15,-47,-26,-27
1491089990219,1,-3,12,-7,-51,-26,11,7,-3
1491089990265,2,5,-17,-13,50,-11,-42,64,68
1491089990265,2,2,6,25,-9,-5,84,31,1
1491089990266,3,-29,-3,7,50,56,-33,-25,6
1491089990266,3,-7,-4,-43,-45,0,-78,-9,8
1491089990267,1,17,15,13,-26,-8,-5,88,37
1491089990267,1,-1,-12,12,33,9,-26,-64,72
1491089990267,2,-14,0,-6,-34,-30,-9,-71,-23
1491089990267,2,19,4,4,11,2,-80,15,10
1491089990363,3,-26,-15,-3,6,14,78,-22,-49
1491089990363,3,47,19,3,80,22,-33,8,11
1491089990363,0,0,-4,1,9,46,-49,-45,21
1491089990363,0,-6,-2,2,17,6,-1,88,47
1491089990364,3,-8,-26,-31,-42,-75,45,-22,-42
1491089990364,3,-9,-9,6,30,106,-84,-3,18
1491089990365,0,15,9,-12,-24,-53,-42,-51,-7
1491089990365,0,-29,-5,-7,-47,-28,17,-16,-14
1491089990411,1,4,-7,9,7,-10,7,-22,34
1491089990411,1,-6,-5,17,44,1,35,-15,-23
1491089990412,2,9,15,53,-21,-18,58,-45,13
1491089990412,2,-8,10,-18,3,42,4,91,7
1491089990413,0,-11,-1,16,34,25,36,61,-15
1491089990413,0,-5,15,33,-18,-22,21,-30,-7
1491089990414,0,61,2,-4,-69,-29,4,-34,-2
1491089990414,0,-20,-2,-10,31,10,-48,-61,1
1491089990460,1,3,-9,-2,-10,-25,32,-8,9
1491089990460,1,0,13,19,10,21,8,45,7
1491089990461,2,-24,-13,1,42,69,60,7,-57
1491089990461,2,10,1,-13,-21,-41,-36,-31,18
1491089990558,1,-22,-27,-21,21,16,-28,-16,-84
1491089990558,1,26,7,10,6,-4,-84,-112,56
1491089990559,2,-37,-11,21,63,19,82,66,0
1491089990559,2,2,25,48,-18,-56,50,-24,-61
1491089990560,3,1,-2,-49,-83,-5,-29,5,1
1491089990560,3,5,-32,-33,-6,20,78,11,10
1491089990560,0,28,9,-21,-73,-75,-72,-68,-12
1491089990560,0,6,0,-9,65,18,18,36,43
1491089990607,2,-27,-11,23,87,33,38,-22,-31
1491089990607,2,-13,-8,3,10,6,-44,13,12
1491089990609,3,31,17,8,22,30,1,41,35
1491089990609,3,22,15,1,-20,-17,26,41,27
1491089990655,0,-16,1,0,-4,6,36,-40,10
1491089990655,0,-11,0,27,29,64,-19,-5,-103
1491089990657,0,25,5,-19,-41,39,-22,22,-31
1491089990657,0,-2,-8,-28,-34,11,-99,-51,-23
1491089990658,1,-3,2,-10,-46,-88,7,-24,6
1491089990658,1,-5,-9,10,-39,5,16,9,-20
1491089990659,2,-16,-10,18,24,-24,8,7,26
1491089990659,2,-13,2,4,31,-38,30,-79,34
1491089990704,1,-3,-32,-53,-78,-60,-128,-128,-22
1491089990704,1,-1,-15,-15,81,58,-50,-6,-1
1491089990705,2,-15,11,62,104,93,48,56,11
1491089990705,2,27,5,4,-94,-78,50,31,27
1491089990706,2,-8,-28,-22,10,-6,-52,-11,-4
1491089990706,2,7,-11,-24,9,-17,39,-37,-60
1491089990707,3,-5,7,13,-12,-19,24,-11,55
1491089990707,3,-13,5,7,41,69,-31,-16,-10
1491089990753,0,19,6,-12,-62,-54,-59,27,-44
1491089990753,0,27,7,15,-5,2,-66,-62,33
1491089990802,1,-7,-4,16,66,49,47,98,-6
1491089990802,1,-5,-3,-10,-39,-30,63,-41,-58
1491089990803,2,-8,-7,-45,-51,3,79,24,45
1491089990803,2,11,23,45,10,16,-47,-79,0
1491089990804,3,-14,-3,10,59,6,-70,58,29
1491089990804,3,2,-2,4,-1,-8,-26,-5,-33
1491089990805,0,2,-15,-28,-54,-61,10,-38,22
1491089990805,0,-1,9,13,25,31,16,-8,-26
1491089990850,1,-30,-10,18,-22,-51,-32,-57,21
1491089990850,1,20,20,21,6,34,17,53,-36
1491089990852,3,-9,-21,-12,2,62,-72,-2,-37
1491089990852,3,18,-5,14,48,-10,-21,23,47
1491089990852,0,-30,13,18,-79,-67,14,-58,-72
1491089990852,0,0,-14,-43,7,50,15,32,19
1491089990853,0,40,-2,-28,-51,-47,-41,89,42
1491089990853,0,-24,7,16,17,35,-50,16,-12
1491089990899,1,-24,2,18,31,30,49,-43,-40
1491089990899,1,7,8,34,55,24,78,31,51
1491089990900,2,-14,-23,-19,-34,-93,-10,-30,-22
1491089990900,2,30,22,-8,31,101,-66,13,6
1491089990900,1,6,21,3,74,76,4,52,-2
1491089990900,1,-4,-25,2,27,31,-17,-7,-25
1491089990901,2,4,-6,-15,-58,20,-4,-1,39
1491089990901,2,1,1,7,23,9,-18,7,-16
1491089990996,3,-4,8,12,-71,-54,57,-28,13
1491089990996,3,-7,3,25,32,-8,-29,72,14
1491089990997,0,-1,24,38,49,57,12,-85,-48
1491089990997,0,5,-5,-30,-35,16,36,74,5
1491089990998,2,-4,-8,-18,-35,71,5,31,41
1491089990998,2,3,1,-12,-4,-8,-11,-53,-3
1491089990999,3,-12,5,17,-12,-29,68,-90,-32
1491089990999,3,-15,3,8,-58,-64,-8,47,21
1491089991094,0,1,-10,-13,87,19,-22,13,-34
1491089991094,0,7,-14,-9,7,30,-13,23,63
1491089991095,1,6,-7,-16,5,-9,-37,3,-47
1491089991095,1,9,34,69,3,-1,65,-8,40
1491089991096,3,21,8,6,-103,-55,-56,55,54
1491089991096,3,-16,-2,-23,7,47,50,29,-15
1491089991097,0,-4,-1,28,-15,3,22,-40,1
1491089991097,0,9,15,59,48,54,41,13,-16
1491089991192,1,6,8,3,53,27,-27,27,20
1491089991192,1,5,-6,-37,1,-15,-19,-31,-32
1491089991193,2,-28,-3,6,-64,-40,18,23,-5
1491089991193,2,-24,-1,5,5,6,25,2,-95
1491089991195,0,-12,6,-10,26,-40,-79,-8,-97
1491089991195,0,9,-22,-37,-45,56,-73,-19,-16
1491089991197,1,11,-6,-7,-6,-38,-73,49,30
1491089991197,1,-1,13,-1,-8,-4,-18,27,53
1491089991240,2,-5,2,6,15,35,24,3,5
1491089991240,2,12,-14,47,55,15,66,-52,11
1491089991242,3,-20,0,-44,-101,-34,52,98,21
1491089991242,3,11,-11,-64,-22,10,-55,-47,52
1491089991243,2,-8,9,17,-34,-21,22,61,58
1491089991243,2,5,-12,-3,0,-23,11,-16,25
1491089991244,3,-17,-28,-27,71,66,-128,-22,35
1491089991244,3,-15,-14,3,-23,-41,26,21,-32
1491089991338,0,13,24,0,-36,-48,41,7,19
1491089991338,0,-1,7,10,60,-26,29,1,-13
1491089991338,1,12,19,31,44,20,47,-43,-12
1491089991338,1,11,-2,-1,-20,-19,-37,-45,6
1491089991339,0,-22,-55,-67,100,-38,-109,-93,-8
1491089991339,0,30,-20,-43,-31,24,86,105,14
1491089991340,1,-5,7,5,-11,19,53,-36,-41
1491089991340,1,-18,3,45,-25,-39,-65,39,85
1491089991386,2,14,38,48,-57,90,25,41,-82
1491089991386,2,-7,-9,-22,70,30,-40,30,-15
1491089991387,3,11,-6,-11,26,-25,44,26,26
1491089991387,3,-23,-2,9,1,-6,-27,-53,-9
1491089991388,2,2,35,46,26,-23,85,7,3
1491089991388,2,-15,10,24,-26,22,-6,-49,-19
1491089991389,3,-11,-1,1,3,-27,-23,22,-4
1491089991389,3,3,-7,-16,-64,-7,15,-25,-36
1491089991435,0,11,-10,33,69,-80,-27,-23,13
1491089991435,0,-5,-12,-57,33,24,-43,34,4
1491089991436,1,13,0,-35,-71,34,-13,-52,-11
1491089991436,1,-17,-23,-35,-25,3,-5,86,11
1491089991437,2,-16,-17,-17,-8,12,-6,-67,-6
1491089991437,2,36,38,66,-14,-54,11,57,29
1491089991438,3,-17,-4,17,48,-17,-19,-23,14
1491089991438,3,-16,13,30,20,51,-17,-29,28
1491089991581,0,29,-13,-31,-61,23,59,71,-34
1491089991581,0,-17,-2,29,36,-16,18,-50,33
1491089991582,1,15,15,10,35,10,-18,-18,24
1491089991582,1,-20,-17,-27,-66,-22,-87,28,-18
1491089991583,3,-14,-21,-38,-28,-26,42,-42,24
1491089991583,3,-3,5,21,-10,-28,-9,-30,-54
1491089991584,0,0,2,3,49,19,-42,-71,21
1491089991584,0,-6,9,28,2,22,-15,-2,-45
1491089991630,1,3,-7,3,-23,-16,73,37,50
1491089991630,1,27,2,-7,27,1,29,-39,-57
1491089991631,2,-6,-8,-18,-33,-56,20,34,7
1491089991631,2,-7,6,10,50,70,-82,-62,47
1491089991631,1,-3,-24,-55,-77,-5,-91,8,-49
1491089991631,1,-5,3,-5,97,97,79,6,46
1491089991633,2,20,14,9,9,-19,34,12,19
1491089991633,2,1,9,32,44,3,23,-28,2
1491089991679,3,-26,-12,20,-59,-57,10,23,-60
1491089991679,3,-1,3,-11,111,95,-95,-18,8
1491089991680,0,24,-19,-56,-43,45,100,80,-30
1491089991680,0,19,12,-15,8,15,8,3,-29
1491089991681,3,11,28,24,27,18,43,38,-20
1491089991681,3,-17,7,29,44,-29,17,-25,10
1491089991682,0,4,8,6,-29,10,-33,-11,-4
1491089991682,0,6,-23,-21,-48,-10,6,-2,-17
