1491090620210,0,-68,-41,-87,-99,-92,-94,-42,18
1491090620210,0,14,-4,10,52,15,2,-32,-31
1491090620212,1,4,-5,10,33,13,8,-29,-26
1491090620212,1,12,16,21,30,18,18,2,-2
1491090620212,2,12,21,23,25,22,27,14,1
1491090620212,2,-5,-5,-3,-16,-11,-11,6,9
1491090620307,3,-20,-8,-13,-19,-14,-15,0,-4
1491090620307,3,-7,-17,-6,-16,-4,-1,14,-14
1491090620308,0,17,2,13,11,12,20,22,-4
1491090620308,0,-10,-5,-11,-21,-7,-4,-7,4
1491090620309,1,7,1,2,8,4,5,-4,2
1491090620309,1,-11,-5,-8,-10,-6,-2,-21,0
1491090620310,2,6,7,16,14,11,1,-46,-7
1491090620310,2,-2,2,3,3,4,6,-16,3
1491090620357,3,-6,-3,-6,-9,-6,-3,-17,2
1491090620357,3,-4,-4,-9,-6,-9,-16,17,1
1491090620358,0,7,-7,2,11,5,10,48,-9
1491090620358,0,-3,-1,-3,-2,-1,-3,52,-4
1491090620359,1,-2,-6,-4,-8,-3,1,41,0
1491090620359,1,-2,-13,-8,-3,-4,6,21,4
1491090620405,2,-5,-38,-14,2,1,15,43,-6
1491090620405,2,11,-8,1,-3,-5,-22,-17,-3
1491090620407,3,-3,40,2,3,1,2,5,-12
1491090620407,3,-4,-15,-10,-4,-2,-1,31,9
1491090620407,0,4,25,9,1,0,5,32,3
1491090620407,0,-3,26,9,1,2,6,47,13
1491090620408,3,0,-2,-10,-3,-8,-15,-31,10
1491090620408,3,17,64,23,7,0,5,-32,-7
1491090620454,0,4,20,26,5,5,12,-33,-13
1491090620454,0,2,28,14,0,-2,-3,-31,-1
1491090620455,1,-8,-43,-17,-5,0,3,-2,-6
1491090620455,1,-12,-69,-33,-6,-4,8,9,0
1491090620455,0,-5,20,-1,3,-2,-1,-2,16
1491090620455,0,-21,-92,-40,-10,-8,-10,-18,-35
1491090620456,1,18,25,-1,2,2,1,3,38
1491090620456,1,-15,0,-3,0,-2,-7,20,-25
1491090620502,2,5,25,32,6,4,19,-5,9
1491090620502,2,-4,-16,-25,-5,4,20,-18,-16
1491090620503,3,-1,54,1,1,-5,-28,57,14
1491090620503,3,-4,-23,-9,-9,-3,10,5,-15
1491090620504,0,-16,-82,-22,-7,-1,-17,-11,-9
1491090620504,0,-6,-9,-4,1,-2,-11,10,4
1491090620505,1,4,11,4,-1,2,24,-17,-12
1491090620505,1,-15,8,5,3,2,-18,-13,18
1491090620551,2,-13,-16,14,-4,-5,11,12,-39
1491090620551,2,-1,-1,-23,-10,-6,-14,50,44
1491090620552,3,0,4,6,1,-9,-11,32,-17
1491090620552,3,32,47,19,7,5,20,75,21
1491090620552,1,-3,-18,-15,-1,-2,2,3,-9
1491090620552,1,11,-3,17,1,-7,2,-22,0
1491090620600,2,13,16,-9,0,0,-18,2,3
1491090620600,2,10,27,6,-2,0,26,14,24
1491090620601,3,2,23,12,1,-1,-14,8,5
1491090620601,3,-4,-32,6,-2,0,-22,-66,-19
1491090620601,0,8,35,-11,-2,0,-2,-27,12
1491090620601,0,-1,-4,-1,3,-2,-10,-18,8
1491090620602,2,-2,-9,-3,-4,-2,10,-4,7
1491090620602,2,-1,24,15,4,6,12,10,11
1491090620649,3,-4,-32,-12,1,-7,-11,-38,-10
1491090620649,3,-12,-17,2,-12,-6,26,24,-27
1491090620650,0,6,-1,-3,3,3,-29,-20,14
1491090620650,0,3,16,4,-2,-8,-18,-21,24
1491090620650,1,-4,-28,-8,-5,0,0,-27,6
1491090620650,1,3,5,-13,1,2,15,7,11
1491090620651,3,-1,2,2,-1,-2,0,38,21
1491090620651,3,0,10,-10,-5,-2,-17,-48,-30
1491090620697,0,-3,-11,-6,0,-3,1,-29,-9
1491090620697,0,2,9,3,5,3,-4,-5,-25
1491090620698,1,5,-10,5,-1,5,39,63,40
1491090620698,1,-7,-8,-9,-1,2,8,6,-28
1491090620699,0,-15,-5,-8,-10,1,22,-14,-7
1491090620699,0,2,4,-1,-7,-14,-14,5,-11
1491090620700,1,-12,-3,5,14,6,29,-38,-21
1491090620700,1,12,-4,-4,3,-3,-43,-78,22
1491090620746,2,3,1,0,3,-3,10,45,-10
1491090620746,2,1,-1,-6,-14,-8,19,66,28
1491090620747,3,-9,-4,-4,-12,-9,-14,-7,-6
1491090620747,3,-14,-9,-9,6,17,-3,-83,-9
1491090620747,1,2,-3,-4,-10,-7,-44,71,12
1491090620747,1,-8,-4,-5,-17,3,84,34,8
1491090620749,2,-5,-13,-7,-9,16,52,-80,-2
1491090620749,2,-5,1,5,21,-3,-39,48,-36
1491090620795,3,-8,-9,-4,-11,-2,-25,-41,-6
1491090620795,3,5,-3,0,-4,-16,-10,46,14
1491090620796,0,-109,10,6,20,11,-39,-34,9
1491090620796,0,-12,5,-2,-11,-11,-17,-66,-23
1491090620796,2,24,8,5,1,-22,-23,50,1
1491090620796,2,46,-10,-8,-17,-3,5,-86,16
1491090620797,3,92,7,3,-23,-27,-47,21,6
1491090620797,3,76,-14,-13,-21,26,29,-34,11
1491090620844,0,69,-16,-11,-14,-1,-23,3,-23
1491090620844,0,47,3,0,2,10,30,-30,18
1491090620844,1,65,-2,2,-16,-7,21,9,3
1491090620844,1,25,-9,-4,2,-18,-51,-6,-19
1491090620845,2,48,5,9,-20,-2,-2,9,30
1491090620845,2,19,-6,2,-9,11,14,27,3
1491090620846,3,20,-10,-11,-15,-6,-1,-58,-12
1491090620846,3,22,18,7,-5,-13,-39,23,8
1491090620892,0,23,-15,-18,4,3,17,-24,-3
1491090620892,0,1,-10,-2,5,12,32,34,-1
1491090620893,1,45,-16,-5,3,-5,-13,-23,-17
1491090620893,1,116,-1,0,-1,-7,-8,5,7
1491090620894,3,127,-5,2,5,9,5,-11,-4
1491090620894,3,104,-13,-7,4,-6,-11,13,-8
1491090620895,0,53,8,4,-6,-10,-2,-33,20
1491090620895,0,2,-19,-8,3,7,18,-9,-4
1491090620941,1,1,7,0,1,3,4,-9,-2
1491090620941,1,-20,20,1,1,3,1,1,-2
1491090620942,2,-12,-3,9,-5,-4,-1,3,-7
1491090620942,2,-33,-9,-5,4,0,3,6,-6
1491090620943,0,-104,14,0,-2,-12,-36,-7,-9
1491090620943,0,-123,-19,-6,2,5,15,-7,-9
1491090620944,1,-128,0,-2,5,-11,-14,-16,-5
1491090620944,1,-128,5,0,1,15,30,-37,6
1491090620990,2,-128,11,-15,4,-1,-20,-39,-14
1491090620990,2,-123,1,19,8,-18,-39,-61,-2
1491090620991,3,-54,-1,-6,5,1,10,-2,2
1491090620991,3,17,-8,-4,-2,3,-3,7,1
1491090620991,1,69,9,9,-21,-16,-9,-6,-21
1491090620991,1,55,4,12,7,22,33,78,30
1491090620992,2,61,-14,-13,-6,-37,-4,-16,-14
1491090620992,2,54,-1,-9,-19,-24,-39,-52,-12
1491090621039,3,38,-10,0,-14,25,2,28,-11
1491090621039,3,30,-2,-9,-9,1,2,5,-19
1491090621040,0,22,1,26,-56,47,85,55,7
1491090621040,0,24,1,-2,79,-73,0,-3,-4
1491090621041,2,5,-5,2,17,4,-105,88,0
1491090621041,2,12,8,-10,-54,-60,-41,-91,-28
1491090621041,3,8,-3,-14,-18,7,78,105,21
1491090621041,3,-2,-12,-3,-6,-4,-128,-119,-13
1491090621087,0,1,5,21,80,-5,23,100,-1
1491090621087,0,7,-11,-17,-50,29,27,-13,9
1491090621088,1,1,14,-2,13,23,42,48,32
1491090621088,1,-3,3,15,10,9,49,-7,-4
1491090621089,3,-2,6,19,59,-20,23,36,15
1491090621089,3,-3,7,-16,-66,-46,37,-1,20
1491090621090,0,0,0,-49,-49,-38,-43,-31,3
1491090621090,0,1,-13,-2,-58,6,73,52,-9
1491090621137,1,-1,12,7,46,44,16,-40,-16
1491090621137,1,-1,-28,4,54,35,-39,-4,-22
1491090621138,2,-2,21,23,37,-48,127,-43,9
1491090621138,2,0,21,27,56,-24,-89,-29,37
1491090621139,0,-2,-7,-39,-4,15,86,-28,36
1491090621139,0,0,-18,-25,-36,22,8,3,-34
1491090621140,1,0,25,29,60,-24,-128,-60,42
1491090621140,1,-2,-11,1,-28,72,103,127,-22
1491090621185,2,-1,-6,15,-114,25,-103,-49,-5
1491090621185,2,0,14,20,94,6,-34,43,26
1491090621187,3,-1,-2,-12,-85,-13,7,-109,-28
1491090621187,3,-2,-1,0,-46,-4,-60,114,33
1491090621190,1,-1,-30,-46,-35,-79,-54,-8,-14
1491090621190,1,-2,-6,-25,5,-62,79,-31,5
1491090621191,2,-1,-10,-30,-32,-41,-44,85,-7
1491090621191,2,0,9,-19,31,89,-74,-42,-15
1491090621234,3,-1,32,57,89,75,58,-14,-7
1491090621234,3,-1,4,-8,9,-68,115,30,14
1491090621234,0,-1,-27,-53,-48,20,-47,-46,-17
1491090621234,0,-1,2,-12,13,42,37,112,-3
1491090621235,1,-1,-24,-45,-80,-124,-61,34,19
1491090621235,1,-1,-9,-21,-8,18,-128,-48,6
1491090621236,2,-1,11,23,-77,46,127,9,13
1491090621236,2,-1,16,42,73,-31,-90,11,1
1491090621282,3,0,-24,-54,-62,-13,44,-5,-7
1491090621282,3,-1,-23,-14,5,-49,-104,46,7
1491090621283,0,-1,13,24,-50,-25,-1,-58,0
1491090621283,0,-1,18,87,36,127,106,54,-1
1491090621284,2,-1,19,34,-18,109,22,-33,14
1491090621284,2,-1,-13,-22,-77,-124,58,95,40
1491090621285,3,-1,-3,-14,36,26,63,-30,-17
1491090621285,3,-1,4,23,85,36,-32,-37,-10
1491090621331,0,-1,-18,-29,-29,-117,-87,-17,17
1491090621331,0,5,6,32,56,119,127,-26,-49
1491090621332,1,23,3,-2,-28,-128,-128,63,74
1491090621332,1,7,12,-9,-108,127,-61,-2,-42
1491090621332,3,50,-16,-45,29,93,-86,-97,-19
1491090621332,3,59,19,98,127,88,93,26,-5
1491090621334,0,119,16,19,-43,-39,-10,56,17
1491090621334,0,94,-10,-42,60,-79,-42,-76,-49
1491090621380,1,-34,12,-6,49,108,-8,72,37
1491090621380,1,-66,4,5,-17,90,-105,-37,0
1491090621381,2,25,-29,1,91,-92,33,-44,-9
1491090621381,2,-113,20,34,-38,99,105,25,-18
1491090621382,0,-91,-4,46,105,127,13,3,-18
1491090621382,0,-22,16,-15,-123,-94,-39,35,37
1491090621383,1,113,-25,-43,-8,-87,84,-24,-40
1491090621383,1,89,15,-13,-89,-19,113,80,38
1491090621429,2,55,2,33,-53,53,-128,-13,1
1491090621429,2,-73,2,31,-48,-54,-34,-30,17
1491090621429,3,-126,52,93,114,93,99,-23,-22
1491090621429,3,-91,-49,-101,-128,-128,50,9,-19
1491090621430,1,17,2,-3,52,76,62,91,42
1491090621430,1,-31,-2,13,23,-45,-101,-54,15
1491090621431,2,41,17,20,9,-90,27,-26,-54
1491090621431,2,-36,-35,-106,-81,-11,81,10,-45
1491090621477,3,33,20,84,-46,88,-47,19,-43
1491090621477,3,67,5,-23,102,-102,17,50,34
1491090621478,0,63,-25,-62,-55,40,-16,-44,30
1491090621478,0,127,-3,62,51,127,-24,82,19
1491090621479,2,103,-4,-6,-91,-21,-8,35,-17
1491090621479,2,103,4,-5,127,47,45,-68,-21
1491090621480,3,-79,11,13,-10,-78,86,48,-22
1491090621480,3,-91,11,9,4,127,52,-9,17
1491090621526,0,-128,2,39,9,-128,-9,26,-8
1491090621526,0,-128,-39,-116,-127,-73,45,18,16
1491090621527,1,-124,-30,-48,-53,-89,-118,-105,-33
1491090621527,1,-91,1,10,-45,76,74,-14,-8
1491090621527,3,108,-53,-109,-118,-105,7,-34,0
1491090621527,3,115,-3,-57,-45,-51,-109,-47,-58
1491090621575,0,15,-54,-84,-21,-7,-90,-68,-12
1491090621575,0,-51,27,110,-2,49,-5,-25,3
1491090621576,1,-76,53,92,-2,-16,-34,52,17
1491090621576,1,-42,-10,-52,97,-4,-78,-91,2
1491090621576,2,-62,-27,-61,-96,-37,63,127,-77
1491090621576,2,-40,7,7,-12,23,-128,-65,45
1491090621577,3,-37,-61,-48,-24,-15,127,105,-2
1491090621577,3,-35,21,101,47,86,88,40,32
1491090621672,0,-34,67,51,-68,-128,-128,-99,16
1491090621672,0,-17,-22,-37,38,69,-2,-66,-85
1491090621673,1,-18,-28,-71,-87,107,87,52,25
1491090621673,1,-24,-18,4,41,-74,97,97,17
1491090621674,2,-16,-23,-45,48,-8,-46,-72,37
1491090621674,2,2,10,36,-70,-66,87,-36,-31
1491090621675,0,-1,7,18,12,127,-25,77,43
1491090621675,0,0,55,81,89,-128,99,53,33
1491090621770,1,-10,-45,-99,-77,34,-128,50,-8
1491090621770,1,-4,-24,17,-128,-41,-58,-87,-21
1491090621771,2,27,-58,-43,-39,46,127,35,-32
1491090621771,2,36,26,27,67,94,15,21,22
1491090621771,1,-3,-10,-23,-71,25,-42,-41,-32
1491090621771,1,-19,3,-16,-23,10,54,-51,-12
1491090621772,2,48,-33,27,127,-19,-81,-21,11
1491090621772,2,104,-11,-72,-128,-106,59,-31,-85
1491090621819,3,114,-5,-19,-101,-91,-21,-25,53
1491090621819,3,127,17,26,92,127,127,81,34
1491090621820,0,111,-2,-35,-73,-75,18,-7,-31
1491090621820,0,-58,3,32,-113,25,-35,-11,12
1491090621820,3,-57,-28,23,-93,127,83,-7,-47
1491090621820,3,-87,9,-46,51,-72,-77,25,-14
1491090621821,0,4,7,-20,103,-128,-80,-57,23
1491090621821,0,17,-47,-52,-81,-72,-79,10,49
1491090621867,1,10,18,75,57,1,127,-16,-42
1491090621867,1,25,8,-31,17,62,-128,-18,5
1491090621868,2,8,8,53,-128,-20,-19,91,-17
1491090621868,2,2,-6,-45,127,60,-128,-76,-37
1491090621869,1,81,-57,-78,-56,-2,-49,-128,-51
1491090621869,1,111,9,127,66,127,127,95,25
1491090621870,2,-67,31,-51,-29,-104,-73,-128,-55
1491090621870,2,-103,-54,-59,-94,40,70,-17,84
1491090621916,3,6,33,16,95,41,-118,31,-26
1491090621916,3,40,-28,-9,-52,23,87,38,-36
1491090621918,0,-8,15,27,40,98,113,16,11
1491090621918,0,67,121,127,22,62,3,-45,-26
1491090621919,1,-51,-39,-32,-19,7,67,28,37
1491090621919,1,-17,-96,-76,-40,-67,-81,-4,53
1491090621919,2,107,66,28,-26,77,127,55,1
1491090621919,2,-88,44,28,41,55,-2,116,8
1491090621965,3,-75,40,7,50,127,-86,-42,-9
1491090621965,3,-52,-41,-40,9,5,10,-39,-24
1491090621966,0,-4,19,-29,-64,-1,23,1,-14
1491090621966,0,127,-39,-6,52,54,127,-7,6
1491090621966,2,115,-39,-21,100,35,-127,-108,-3
1491090621966,2,102,31,3,25,-58,114,61,61
1491090621967,3,7,-44,-21,57,-14,-58,-29,-9
1491090621967,3,44,20,87,-70,-9,61,84,3
1491090622014,0,48,-32,61,14,-57,4,-55,-17
1491090622014,0,14,-48,-61,-91,-107,39,63,-76
1491090622015,1,4,29,90,93,2,41,-40,4
1491090622015,1,34,43,-59,-60,-128,33,-32,-60
1491090622016,3,127,-34,-46,-128,-128,45,-14,16
1491090622016,3,127,63,2,85,25,-109,-7,-11
1491090622016,0,100,-23,13,60,-30,103,19,-8
1491090622016,0,127,-33,-55,15,-92,-102,-25,-50
1491090622062,1,-87,-19,-37,-27,-3,-8,-21,64
1491090622062,1,76,47,60,106,80,66,-17,5
1491090622063,2,90,13,-2,53,-18,-39,59,-18
1491090622063,2,120,-34,-10,-86,-35,118,27,53
1491090622064,0,-118,-69,-81,-31,-80,-33,102,-45
1491090622064,0,-11,15,20,-38,114,111,50,62
1491090622066,1,-28,-3,-1,77,25,-124,-51,9
1491090622066,1,48,4,13,-53,29,-1,-6,-71
1491090622111,2,117,24,99,-58,102,101,65,96
1491090622111,2,11,-40,-59,69,-77,-128,10,-9
1491090622112,3,10,22,9,-58,-123,-49,62,11
1491090622112,3,-17,-8,-6,-24,68,104,-23,-84
1491090622112,1,2,41,54,-67,-17,-32,2,80
1491090622112,1,-81,-19,-38,125,17,-33,-41,-62
1491090622113,2,-95,-50,-84,-128,-46,63,-55,1
1491090622113,2,-78,44,53,10,0,-89,-128,15
1491090622160,3,-62,24,0,-10,-100,95,91,-89
1491090622160,3,-91,16,71,70,77,38,-25,28
1491090622162,0,-80,-5,6,25,46,52,13,17
1491090622162,0,-48,6,-43,-68,-67,-72,2,29
1491090622163,2,-32,65,70,127,43,89,-58,-60
1491090622163,2,-18,-19,-22,-103,-21,-17,8,47
1491090622164,3,-17,27,27,68,-38,-63,4,-22
1491090622164,3,-23,-35,-33,-6,-128,75,82,25
1491090622209,0,-9,-6,27,94,113,69,81,19
1491090622209,0,-9,61,62,39,-15,-14,-66,-56
1491090622211,1,-7,-122,-128,-40,-98,-36,-128,-1
1491090622211,1,-8,101,122,-1,127,82,110,52
1491090622212,3,0,-42,-53,75,-10,-12,-28,80
1491090622212,3,-7,-37,-18,40,18,34,-43,0
1491090622213,0,-2,55,50,-85,26,2,49,9
1491090622213,0,-74,19,49,127,23,35,-46,-62
1491090622257,1,-18,16,29,-50,20,107,81,41
1491090622257,1,-80,-117,-116,-128,-103,-39,3,34
1491090622258,2,-10,76,-5,60,-12,-38,-93,-33
1491090622258,2,24,-7,6,76,74,-20,1,18
1491090622259,3,30,24,59,25,31,22,9,15
1491090622259,3,-32,0,-40,-27,-56,63,14,-90
1491090622260,0,16,-4,56,3,2,-12,-82,76
1491090622260,0,14,-60,-23,-128,44,-69,81,7
1491090622355,1,-14,41,-17,96,-11,127,86,51
1491090622355,1,12,-2,-28,-43,-50,-128,-28,26
1491090622356,2,-47,-24,-17,-13,-67,19,-54,-80
1491090622356,2,22,-18,54,-78,81,61,11,2
1491090622356,0,-19,25,-20,37,-36,43,45,3
1491090622356,0,-13,-53,83,80,-34,-56,66,-9
1491090622357,1,-43,-48,-51,-128,-32,61,-75,57
1491090622357,1,-18,83,56,29,-45,-22,-21,8
1491090622404,2,-33,-122,-128,2,38,-32,-51,-58
1491090622404,2,-19,-35,-35,-51,-6,63,-46,22
1491090622404,3,40,30,93,6,12,-44,73,-20
1491090622404,3,2,-56,8,50,-62,-65,-29,20
1491090622405,1,-38,-26,-1,-85,84,15,-45,52
1491090622405,1,26,76,31,123,-4,52,79,-50
1491090622406,2,42,17,46,-76,-106,62,115,54
1491090622406,2,-11,-61,-92,73,-62,5,-128,-1
1491090622452,3,-6,35,-16,-102,83,-128,92,6
1491090622452,3,12,-32,-37,-92,-62,40,-36,-2
1491090622453,0,-16,-29,-76,-128,-122,13,-82,1
1491090622453,0,-2,-52,20,48,6,-15,84,59
1491090622454,3,-7,0,-39,14,-126,-121,-116,-40
1491090622454,3,-16,2,2,34,127,122,21,-1
1491090622501,0,6,45,-32,-73,-128,-97,-55,-55
1491090622501,0,-10,-9,-26,61,92,22,-15,40
1491090622553,1,6,-19,106,50,57,-70,-10,-97
1491090622553,1,-7,8,-80,-113,92,127,17,37
1491090622554,2,9,49,90,105,100,-66,72,-33
1491090622554,2,-32,-37,-104,-124,-76,-87,-70,-46
1491090622554,0,-23,-69,-22,-59,56,-36,6,2
1491090622554,0,45,123,99,95,74,76,127,5
1491090622555,1,10,18,56,86,42,-4,-24,4
1491090622555,1,-42,-79,-120,-128,-102,9,-67,-113
1491090622599,2,9,18,80,76,74,-88,-23,39
1491090622599,2,5,31,56,90,49,84,-7,-37
1491090622599,1,-6,-60,-83,-47,103,98,23,11
1491090622599,1,21,43,-53,-83,-128,60,1,-11
1491090622600,2,6,-37,-29,-69,-67,-10,-35,-37
1491090622600,2,-11,29,-49,7,45,102,44,48
1491090622609,3,-11,27,13,-57,31,-28,-4,-72
1491090622609,3,-1,-11,16,-62,-44,-75,17,59
1491090622647,0,-14,0,-22,5,-34,-56,-15,-24
1491090622647,0,-1,-27,57,-29,17,-58,-38,11
1491090622696,1,-11,-21,-29,-41,19,57,40,-7
1491090622696,1,-22,-15,-9,23,70,23,28,24
1491090622697,2,-27,-5,-2,-31,45,7,-17,-41
1491090622697,2,-7,37,32,56,64,42,-21,24
1491090622698,3,-19,3,-1,65,88,-78,-22,-29
1491090622698,3,-47,17,43,78,127,-15,11,5
1491090622699,0,8,-18,37,-127,-5,32,29,-4
1491090622699,0,-58,-110,-105,-73,-57,-126,-103,-13
1491090622745,1,48,69,127,67,8,127,17,23
1491090622745,1,9,-68,44,23,-13,78,19,47
1491090622746,3,16,10,-10,-54,-116,-10,-37,0
1491090622746,3,16,-80,-88,-68,-91,119,-14,4
1491090622746,0,-22,-78,-75,78,73,-128,-87,-22
1491090622746,0,-11,28,0,19,-9,-4,23,6
1491090622747,1,7,24,26,-6,-34,-64,23,4
1491090622747,1,14,-4,66,18,35,10,7,9
1491090622794,2,0,25,10,36,91,12,28,24
1491090622794,2,-18,-6,-75,60,-46,-77,-60,-44
1491090622794,3,12,17,45,4,-8,-50,47,18
1491090622794,3,-14,36,-119,-36,-7,-75,64,3
1491090622795,1,1,16,5,-26,-102,-23,58,9
1491090622795,1,38,8,6,56,57,47,0,-5
1491090622796,2,21,-69,25,-92,49,108,113,45
1491090622796,2,-2,28,-82,-12,-101,-98,-81,-27
1491090622842,3,-37,-60,-41,-65,86,127,-68,-18
1491090622842,3,11,2,3,97,46,31,61,28
1491090622843,0,-25,-4,12,-39,-58,-24,-3,-17
1491090622843,0,8,43,114,47,102,73,52,45
1491090622844,2,22,49,-4,5,3,0,28,6
1491090622844,2,-2,-61,5,-22,41,127,31,39
1491090622845,3,-21,-27,-56,109,-69,-73,-106,-21
1491090622845,3,-19,-4,-29,-116,-36,79,55,-43
1491090622891,0,-3,25,1,127,83,-128,-125,8
1491090622891,0,-22,-31,-32,-48,-10,-78,63,-29
1491090622893,1,10,11,44,84,127,127,127,17
1491090622893,1,-10,12,-8,-76,-55,34,-58,-2
1491090622893,3,6,35,64,-17,45,88,42,-12
1491090622893,3,-15,-11,-3,42,-56,-54,16,-43
1491090622894,0,2,-24,-68,-89,-103,-66,23,-1
1491090622894,0,40,68,115,-96,90,114,20,42
1491090622940,1,-27,-71,-128,-8,-74,-88,-27,-6
1491090622940,1,23,-1,38,-79,-44,-109,-8,-34
1491090622941,2,39,3,10,6,18,121,27,13
1491090622941,2,32,-12,30,17,62,15,61,-36
1491090622941,0,-39,-21,-43,-98,-95,-70,47,-14
1491090622941,0,-38,18,-30,79,35,42,-40,14
1491090622942,1,-20,19,41,65,68,-49,42,-13
1491090622942,1,-37,29,22,127,101,-62,4,-20
1491090622989,2,-17,-3,46,-32,5,-107,-54,-22
1491090622989,2,-17,-9,-64,15,-128,-95,23,40
1491090622990,3,-15,-24,-12,-54,43,105,9,14
1491090622990,3,-65,-7,6,90,-57,74,81,38
1491090622990,0,-80,-21,-77,-50,-91,66,-21,-45
1491090622990,0,-41,-3,53,-31,6,-106,-46,9
1491090622991,1,32,-21,-29,-51,31,37,10,37
1491090622991,1,71,14,-5,-54,-106,-102,-17,-23
1491090623037,2,55,-8,37,80,103,127,66,28
1491090623037,2,-5,6,-18,-128,-128,26,-47,3
1491090623038,3,-93,-61,-38,-35,11,-119,-87,-93
1491090623038,3,83,59,41,74,54,87,47,46
1491090623039,1,37,27,0,-125,-51,-121,-3,24
1491090623039,1,25,3,80,69,-22,-40,-35,-59
1491090623040,2,6,21,16,127,86,71,-42,54
1491090623040,2,39,23,16,-23,-83,-18,20,-22
1491090623086,3,-52,-63,-106,-66,-46,72,-5,-1
1491090623086,3,2,-4,29,-33,87,14,8,-6
1491090623088,0,-16,44,80,127,-77,102,67,-6
1491090623088,0,3,44,26,109,64,-29,-43,28
1491090623089,2,-82,0,13,-48,-17,-62,127,70
1491090623089,2,-45,-17,29,4,-68,-49,-55,-53
1491090623090,3,-19,-43,-82,-125,-128,-55,-13,-5
1491090623090,3,82,50,32,32,82,-13,-42,94
1491090623135,0,70,8,37,90,70,127,79,-12
1491090623135,0,35,2,12,-2,51,-71,55,26
1491090623136,1,91,96,127,43,-36,124,87,15
1491090623136,1,-25,-60,-128,-128,-128,-103,-96,-51
1491090623137,3,17,4,11,-20,1,44,61,12
1491090623137,3,-15,-10,6,-109,79,-22,3,-36
1491090623138,0,-77,9,-10,70,-128,15,-58,-21
1491090623138,0,-64,-18,-50,-87,80,-39,2,12
1491090623184,1,33,1,3,-13,-59,-31,-5,38
1491090623184,1,17,31,38,50,34,114,44,31
1491090623185,2,26,3,26,-128,-88,-122,-7,4
1491090623185,2,6,-22,-40,-110,-63,-14,0,-21
1491090623186,0,16,12,45,-42,127,-38,-43,-53
1491090623186,0,14,-27,-86,103,-119,73,5,53
1491090623187,1,-32,2,-13,-40,19,-72,16,-31
1491090623187,1,37,4,77,50,4,127,-44,-3
1491090623232,2,-23,-7,-54,-63,-60,-49,-25,-6
1491090623232,2,-2,-15,-11,-29,-40,-61,-15,3
1491090623234,3,65,42,83,103,80,46,-25,9
1491090623234,3,-31,-19,-89,21,-72,-30,27,-30
1491090623234,1,-16,-33,-10,94,127,92,28,-13
1491090623234,1,4,-12,37,38,-82,55,85,5
1491090623236,2,7,-10,17,-30,-16,-45,45,4
1491090623236,2,20,69,31,93,61,-17,-64,0
1491090623281,3,-3,-5,-17,43,52,-87,-97,-57
1491090623281,3,-26,-11,-11,-27,80,16,-20,10
1491090623282,0,7,2,-84,-25,-13,107,-12,-36
1491090623282,0,-11,-2,40,116,-87,0,-2,13
1491090623283,2,17,-11,6,70,-88,127,49,28
1491090623283,2,-79,-47,2,4,52,-36,32,-13
1491090623283,3,86,103,81,74,-7,-11,-21,56
1491090623283,3,-50,-43,-108,-30,-128,-128,-36,-33
1491090623330,0,-15,14,20,59,116,127,49,32
1491090623330,0,-29,-59,-40,-128,-38,-34,-88,-44
1491090623331,1,-8,22,73,42,37,33,40,23
1491090623331,1,-40,6,-48,-89,-76,-72,12,-45
1491090623331,2,12,-46,32,117,100,55,-27,-22
1491090623331,2,54,60,3,-105,-67,120,116,38
1491090623381,3,15,-15,-27,-28,-35,-76,-92,-24
1491090623381,3,-40,9,67,-12,50,127,-15,-15
1491090623382,0,-49,-39,-127,-48,-128,-128,19,-10
1491090623382,0,64,18,60,58,127,127,54,9
1491090623383,1,27,16,95,63,-23,23,15,34
1491090623383,1,-11,-27,-50,-45,-93,72,-47,-30
1491090623384,3,-42,-44,-19,-57,37,-23,49,40
1491090623384,3,34,72,29,106,71,30,30,14
1491090623427,0,-23,15,71,37,80,-73,-84,-24
1491090623427,0,39,53,50,-61,-78,84,36,17
1491090623429,1,-41,-87,-107,-12,-128,-4,-98,-58
1491090623429,1,44,-9,-15,-50,120,83,117,43
1491090623430,2,46,32,-7,-18,-121,-72,-99,-12
1491090623430,2,-40,-22,18,25,86,-5,-56,-22
1491090623431,0,8,31,-13,-95,83,-57,106,26
1491090623431,0,-24,-19,-57,43,-116,-104,-4,18
1491090623476,1,-27,-69,-95,-99,2,67,-18,-38
1491090623476,1,45,88,95,21,62,76,48,54
1491090623478,2,31,19,33,127,-122,-35,45,12
1491090623478,2,-54,-76,-96,-109,-9,-43,-28,-63
1491090623479,1,-16,3,-16,-39,-24,-2,82,-22
1491090623479,1,5,-15,-16,8,-32,-128,-116,28
1491090623479,2,17,14,60,-16,35,115,-25,-31
1491090623479,2,-14,-59,-120,-80,-122,-32,-35,12
1491090623525,3,5,-4,-9,-48,47,51,11,-7
1491090623525,3,-1,10,21,61,35,-64,-32,-19
1491090623526,0,10,-36,-11,4,-47,29,28,44
1491090623526,0,-41,56,82,48,41,41,62,15
1491090623526,2,26,24,52,32,77,101,8,-6
1491090623526,2,-13,-19,-13,113,10,85,46,29
1491090623527,3,19,-1,-22,-40,4,-76,-1,7
1491090623527,3,8,-9,-6,18,-95,-128,24,10
1491090623574,0,-36,-2,22,-38,29,25,-59,-27
1491090623574,0,42,-4,25,-33,46,51,4,32
1491090623574,1,-6,-1,-58,-105,-55,15,12,1
1491090623574,1,4,10,2,104,74,-89,-52,-20
1491090623575,3,-23,14,56,106,-5,-31,-78,-14
1491090623575,3,-36,-32,-66,-128,-14,11,36,-6
1491090623576,0,49,4,-31,-47,-38,88,91,13
1491090623576,0,3,2,18,-41,99,-128,-89,-12
1491090623622,1,-30,-11,-25,79,-77,-25,-7,-23
1491090623622,1,-5,-1,-13,-1,-55,109,50,31
1491090623671,2,-11,-1,-1,6,9,-32,-4,10
1491090623671,2,3,12,7,-13,-35,-25,-20,-12
1491090623720,0,3,-24,-23,18,13,-89,30,3
1491090623720,0,-41,-54,-83,-90,-73,94,-42,-37
1491090623721,1,-5,5,23,34,96,-33,-32,-7
1491090623721,1,-6,-5,-25,-55,-70,0,41,0
1491090623769,2,21,-1,22,110,-4,29,36,-5
1491090623769,2,-30,-10,-27,-40,-2,-128,-92,-6
1491090623769,3,16,-5,-3,51,13,3,54,41
1491090623769,3,-2,-20,-16,127,1,-28,-36,-7
1491090623771,0,-25,25,30,-79,-14,-70,-45,-48
1491090623771,0,3,20,15,37,-11,77,54,-4
1491090623772,1,9,55,3,-94,-86,-108,-54,-1
1491090623772,1,-8,-25,-60,-51,-67,76,-13,-11
1491090623817,2,49,67,61,113,102,-76,41,60
1491090623817,2,19,-10,-11,-116,-85,-119,-71,-57
1491090623818,3,-8,-1,11,112,57,30,-41,-20
1491090623818,3,-18,44,81,3,95,56,75,15
1491090623819,3,-25,-47,-14,-23,102,-27,-73,-3
1491090623819,3,5,15,9,99,-38,37,36,-1
1491090623820,0,-6,-9,0,-3,-71,-23,9,12
1491090623820,0,1,6,23,43,-13,21,15,44
1491090623866,1,3,5,0,-60,-5,-60,47,-21
1491090623866,1,-9,5,-10,-51,24,-47,-95,-34
1491090623915,2,-7,2,16,-53,12,-6,-4,13
1491090623915,2,17,20,103,-38,67,127,20,8
1491090623916,0,-19,-51,-46,-43,-48,-61,-71,-28
1491090623916,0,-7,-9,8,-116,-61,-100,6,-13
1491090623916,1,1,5,-16,35,95,110,62,18
1491090623916,1,9,49,50,12,47,-33,-52,19
1491090623917,2,15,-12,-25,10,-40,-26,6,-18
1491090623917,2,-6,10,22,64,93,62,42,5
1491090623964,3,6,-15,34,64,87,101,-18,13
1491090623964,3,35,29,42,61,-61,44,102,8
1491090623965,1,-11,-11,52,32,29,-39,-17,5
1491090623965,1,8,37,25,38,89,47,90,44
1491090623965,2,23,19,-17,113,-75,-128,-29,25
1491090623965,2,-66,-63,-109,-75,-87,-7,-19,-67
1491090624012,2,36,15,5,-1,32,-61,-76,-25
1491090624012,2,67,29,33,-28,-22,91,71,52
1491090624013,3,28,-22,-52,40,21,56,6,20
1491090624013,3,-19,36,37,5,25,93,10,5
1491090624014,0,-11,-7,3,-81,127,-35,53,-9
1491090624014,0,55,17,0,127,-90,48,59,74
1491090624061,3,32,-20,-35,-4,-27,-55,37,8
1491090624061,3,4,5,31,-9,118,7,-91,-47
1491090624062,0,13,25,74,4,52,97,93,35
1491090624062,0,-65,-48,-95,93,-88,-91,-111,-40
1491090624063,1,-18,-68,-69,100,48,4,-5,21
1491090624063,1,-27,11,14,-39,15,78,41,-43
1491090624064,3,-9,22,-7,92,31,-23,4,19
1491090624064,3,-13,-55,-46,-42,-65,-95,-44,2
1491090624110,0,-13,34,3,-40,3,80,125,12
1491090624110,0,3,-15,9,18,37,-128,-94,-24
1491090624111,1,-66,-9,-17,-116,-118,-7,58,-7
1491090624111,1,19,-59,-62,-32,12,-6,29,40
1491090624112,2,-67,20,5,-47,10,105,-28,-20
1491090624112,2,8,9,-31,9,43,-13,17,21
1491090624112,0,5,9,11,0,-70,-111,-119,-12
1491090624112,0,-19,-26,12,-72,39,126,48,-11
1491090624159,1,-6,-13,-10,-37,-11,18,80,9
1491090624159,1,32,53,53,11,-21,-43,-81,-5
1491090624159,2,51,-27,-16,31,71,-23,33,-1
1491090624159,2,64,52,54,108,-28,23,-77,-32
1491090624160,1,-27,-12,-5,60,20,37,5,-9
1491090624160,1,-25,13,54,8,0,-29,-22,-46
1491090624161,2,50,9,4,-18,-28,49,42,70
1491090624161,2,-2,1,27,-33,91,8,-4,-12
1491090624207,3,-11,9,-14,77,33,-111,-81,-42
1491090624207,3,16,27,41,-63,-12,78,0,8
1491090624208,0,4,-57,-72,57,-80,-73,-36,12
1491090624208,0,8,16,-15,-55,-34,-69,77,-3
1491090624209,2,-52,21,5,82,71,110,2,-32
1491090624209,2,-50,-42,-37,-67,-100,24,-7,10
1491090624210,3,-9,24,-14,-62,-93,-89,-6,-27
1491090624210,3,16,15,11,79,127,11,72,67
1491090624256,0,28,1,4,-9,-128,-23,-53,-22
1491090624256,0,-3,-7,-26,-20,11,-66,17,-17
1491090624257,1,77,-27,-34,-111,0,127,11,28
1491090624257,1,29,16,31,115,47,6,52,-7
1491090624305,3,-22,-18,8,37,12,-24,-30,-12
1491090624305,3,26,33,16,69,24,8,-19,-10
1491090624306,0,-73,-47,-40,-87,-45,-92,1,2
1491090624306,0,65,19,39,9,36,-45,-47,6
1491090624306,1,-23,-5,0,44,16,107,11,-21
1491090624306,1,9,-26,-87,-128,-76,-79,-48,-23
1491090624307,2,14,18,34,11,60,63,46,17
1491090624307,2,-15,23,34,19,-96,-22,-57,1
1491090624353,0,47,25,7,43,-84,-128,-35,15
1491090624353,0,-39,-18,-17,25,80,-1,22,-14
1491090624402,1,33,12,50,127,-3,94,77,1
1491090624402,1,-47,10,52,9,-2,-94,-94,-24
1491090624403,2,-18,-69,-105,-128,-79,-32,48,-1
1491090624403,2,-26,34,19,-8,76,-42,-43,12
1491090624404,1,-24,30,6,-20,21,14,-81,-2
1491090624404,1,86,24,24,121,9,38,40,27
1491090624405,2,-25,-13,-15,1,-18,75,-45,6
1491090624405,2,-36,-30,4,38,31,49,-2,1
1491090624451,3,7,16,-26,-66,-41,14,20,31
1491090624451,3,-5,-14,-10,-96,-119,-75,13,2
1491090624453,1,37,35,27,-60,-88,89,-83,-5
1491090624453,1,-37,-47,-84,-67,-81,-102,-59,-16
1491090624454,2,42,8,30,4,41,69,33,27
1491090624454,2,30,9,-5,15,-28,-91,3,23
1491090624455,3,2,27,-3,-67,51,75,-3,7
1491090624455,3,-2,-21,-2,2,-40,121,44,-5
1491090624500,0,4,6,-2,57,-67,-114,-58,-30
1491090624500,0,-10,12,-5,-54,-14,110,-76,4
1491090624500,1,-14,-34,-31,68,13,44,34,5
1491090624500,1,65,25,76,116,127,118,37,30
1491090624501,3,5,-2,23,-64,80,58,-10,1
1491090624501,3,3,27,9,11,24,6,12,17
1491090624502,0,-10,-13,13,65,64,-83,-45,-10
1491090624502,0,-5,-6,-23,44,-16,73,86,-43
1491090624549,1,-20,-67,-56,-99,-36,37,-11,8
1491090624549,1,-20,69,94,-44,48,-94,-63,-28
1491090624550,2,-20,6,-46,92,-79,24,-6,17
1491090624550,2,-33,-83,-56,49,-32,97,62,-5
1491090624551,0,-15,11,51,-35,79,44,-45,-5
1491090624551,0,33,12,18,-25,30,10,37,57
1491090624551,1,-5,5,9,-11,-49,-52,-10,-10
1491090624551,1,-10,-6,23,-36,71,22,3,-9
1491090624597,2,6,-4,-13,49,-10,23,-64,-18
1491090624597,2,-45,-17,-56,-77,-24,126,53,-11
1491090624598,3,58,-3,17,98,85,-12,-17,34
1491090624598,3,-10,-5,-42,-77,-128,-112,16,-3
1491090624599,1,-59,-53,-70,-72,16,64,0,-41
1491090624599,1,-3,18,23,-12,17,-31,-32,23
1491090624600,2,-56,-40,-29,-19,17,127,48,1
1491090624600,2,21,48,16,43,28,-65,30,-8
1491090624646,3,-25,14,2,127,-38,-57,-11,7
1491090624646,3,19,-32,-26,51,25,12,22,30
1491090624647,0,-28,-14,10,19,-78,27,85,-27
1491090624647,0,29,8,-22,-122,-115,-123,-112,58
1491090624648,2,13,37,72,113,64,-69,19,13
1491090624648,2,-35,-1,48,-88,1,127,39,-59
1491090624649,3,-12,-34,-113,-99,-128,-94,9,50
1491090624649,3,-36,-31,-28,-23,8,9,-17,-9
1491090624695,0,49,38,22,-119,68,84,60,48
1491090624695,0,-5,-26,0,119,18,9,51,-26
1491090624696,1,10,21,60,-16,119,-43,-23,16
1491090624696,1,-1,23,41,84,-34,100,87,0
1491090624697,3,-30,-38,-4,21,78,112,55,13
1491090624697,3,-29,6,-11,50,7,55,-65,1
1491090624744,0,20,15,34,-29,127,56,-37,-36
1491090624744,0,1,-4,17,77,-10,53,13,-14
1491090624744,1,-9,10,-11,11,-57,-110,-40,-43
1491090624744,1,1,-12,-16,-12,-48,5,-8,-18
1491090624745,2,-42,-16,23,49,85,39,25,12
1491090624745,2,22,9,-29,-32,-101,-53,-4,-6
1491090624746,3,-7,-12,-17,7,-61,24,-18,-13
1491090624746,3,4,15,25,-15,32,18,22,-9
1491090624841,0,-8,-9,-26,89,-22,-128,-88,-9
1491090624841,0,14,6,-30,-64,2,-39,-39,-3
1491090624890,1,16,0,62,-41,82,127,111,26
1491090624890,1,53,4,-19,27,-78,-128,-40,-31
1491090624891,0,69,-11,-6,30,-44,28,95,45
1491090624891,0,19,-29,-46,-89,-47,-103,-68,7
1491090624891,1,-7,10,-4,-44,-25,-7,-15,-22
1491090624891,1,44,4,1,-28,17,-37,-18,2
1491090624892,2,43,-4,22,108,26,-68,-10,-10
1491090624892,2,-11,28,9,-10,3,72,34,21
1491090624939,3,27,9,30,59,28,-66,-33,10
1491090624939,3,-23,-17,-33,-64,-22,44,40,10
1491090624939,2,19,46,-2,-44,-42,-86,-76,26
1491090624939,2,-1,-35,-35,-79,-20,-64,84,9
1491090624942,3,-12,0,-19,-7,98,-22,0,-2
1491090624942,3,-34,-19,-24,-55,-9,81,-22,-32
1491090624942,0,16,34,47,65,57,-128,-81,-5
1491090624942,0,-50,-40,-59,-26,50,22,12,17
1491090624987,1,38,6,6,103,-70,25,35,14
1491090624987,1,-26,4,-4,-85,30,-37,12,4
1491090624988,2,20,-1,-4,28,-74,-10,-37,-31
1491090624988,2,-4,-8,58,16,74,116,-1,-17
1491090624989,0,-9,3,-52,-47,-98,-4,19,15
1491090624989,0,-17,14,22,127,79,-128,-23,-17
1491090624990,1,7,-7,-24,-5,-10,127,55,-17
1491090624990,1,2,-18,-58,-11,-32,9,-25,18
1491090625036,2,-30,5,50,32,121,61,-19,7
1491090625036,2,20,-7,-14,-59,-70,-50,28,16
1491090625037,3,-1,7,20,16,99,-12,9,10
1491090625037,3,0,7,41,-21,-74,100,-5,-14
1491090625038,1,28,15,51,88,105,49,-20,7
1491090625038,1,6,-1,-28,25,-100,-106,17,32
1491090625039,2,-3,-10,-10,8,13,49,122,-1
1491090625039,2,-15,-12,3,-34,-73,-75,-57,-41
1491090625085,3,-48,-9,-46,-68,13,-10,-71,-12
1491090625085,3,-2,-18,13,43,105,86,71,-11
1491090625085,0,19,23,-15,-91,-107,-93,-19,36
1491090625085,0,27,-6,0,59,73,-5,13,22
1491090625086,1,9,10,45,14,20,25,10,19
1491090625086,1,-6,-6,-46,-12,-57,29,18,1
1491090625134,2,-31,9,4,-10,31,81,-15,5
1491090625134,2,45,16,48,0,55,-36,-7,-23
1491090625135,3,-25,-38,-27,28,16,53,-62,-20
1491090625135,3,-2,20,1,-3,-31,-35,34,14
1491090625136,0,-2,4,8,12,-33,-118,-111,-11
1491090625136,0,-59,9,-27,-28,-70,38,-45,-22
1491090625160,2,18,2,23,14,46,-79,-7,-12
1491090625160,2,26,24,9,-65,-49,20,12,-9
1491090625182,3,-12,-4,-2,68,47,-20,-2,9
1491090625182,3,-1,-4,-45,-128,-116,-128,-79,7
1491090625183,0,-48,-78,-108,-35,11,10,-1,-30
1491090625183,0,65,41,72,-77,60,68,45,57
1491090625184,1,-13,2,-3,95,33,32,4,-1
1491090625184,1,-30,-4,7,49,-18,-69,2,1
1491090625185,3,-3,-7,7,-41,-111,-128,-77,23
1491090625185,3,42,50,54,90,66,29,35,19
1491090625232,0,-29,-20,-15,-5,-15,24,20,10
1491090625232,0,-12,-21,-52,75,4,115,51,-33
1491090625232,1,6,23,34,49,58,-118,-24,-9
1491090625232,1,-44,-58,-58,-91,-89,74,-21,-8
1491090625234,0,3,5,42,105,-68,95,102,38
1491090625234,0,-28,-29,-49,-79,-35,-62,-42,-10
1491090625377,1,-13,-6,70,-67,-2,83,87,7
1491090625377,1,15,23,-15,84,-66,-128,-128,-3
1491090625378,2,12,-10,-50,-60,-42,127,4,-28
1491090625378,2,-38,-18,16,-37,-59,17,2,26
1491090625379,3,36,-13,-47,20,-15,96,3,-23
1491090625379,3,26,6,26,38,36,-29,4,-27
1491090625380,1,-7,17,6,-85,-15,95,45,15
1491090625380,1,8,11,17,85,64,-42,-7,0
1491090625426,2,-24,-4,5,-30,-93,-59,-108,-59
1491090625426,2,58,5,11,-3,22,-104,71,25
1491090625427,3,-31,-22,-33,-1,-114,-101,43,16
1491090625427,3,21,-8,-18,-50,26,91,-13,-17
1491090625427,3,-8,-19,-4,-5,30,-24,-49,-53
1491090625427,3,26,10,0,-79,20,73,83,9
1491090625429,0,72,11,3,-33,-23,3,6,26
1491090625429,0,-12,0,-12,13,6,-37,-16,-20
1491090625475,1,18,-14,-11,-13,-128,-128,-7,21
1491090625475,1,-18,-10,-1,-6,47,32,-10,-12
1491090625482,2,8,-8,-12,56,50,106,18,-19
1491090625482,2,-14,11,27,-7,35,77,-1,3
1491090625483,0,0,5,-8,-27,-106,15,-12,-4
1491090625483,0,28,9,12,-16,19,-18,8,18
1491090625484,1,-24,22,42,-112,-54,87,11,-17
1491090625484,1,9,-22,-65,-102,-115,-67,-10,-3
1491090625524,2,0,-44,-35,25,-17,-126,-110,-14
1491090625524,2,28,31,17,-119,16,41,10,32
1491090625524,3,-19,-1,-20,56,50,50,44,-17
1491090625524,3,-7,-5,37,56,39,36,14,4
1491090625572,1,40,30,-11,-92,-19,-94,-82,27
1491090625572,1,-12,-6,12,-27,5,120,-15,-43
1491090625573,2,-20,-8,0,-73,-85,-81,-21,17
1491090625573,2,7,16,-3,-32,27,-12,34,-18
1491090625574,3,-12,10,14,42,-68,-37,-14,-11
1491090625574,3,-60,-59,-68,-97,-84,-128,-68,-26
1491090625575,0,40,20,32,13,52,127,28,-36
1491090625575,0,6,24,18,30,49,28,-10,16
1491090625621,2,-24,-23,35,-2,106,115,45,-25
1491090625621,2,1,25,7,56,-117,-124,-96,-3
1491090625622,3,-25,-20,-42,-108,-39,-46,38,-17
1491090625622,3,24,-17,-11,25,80,103,21,24
1491090625622,0,-6,17,16,33,-3,-26,41,31
1491090625622,0,-1,-3,-10,-12,-37,-23,33,5
1491090625623,3,18,4,-7,99,-39,-63,-25,16
1491090625623,3,-27,-15,6,49,35,6,-19,-40
1491090625670,0,7,-2,-16,-109,-24,29,-42,35
1491090625670,0,-10,9,45,118,74,22,13,-11
1491090625671,1,3,6,-10,-90,10,108,86,37
1491090625671,1,-11,-18,-43,-14,-27,-45,-7,-22
1491090625671,0,44,-10,-43,-54,-40,77,57,19
1491090625671,0,-7,-5,-1,20,21,-116,-24,-4
1491090625672,1,-1,10,32,-87,4,89,35,-32
1491090625672,1,9,9,-2,74,4,-81,-19,43
1491090625719,2,-52,-29,-12,32,22,-9,3,-22
1491090625719,2,37,17,20,-38,22,-30,-1,39
1491090625720,3,-32,-41,-73,-62,-85,64,-17,-20
1491090625720,3,6,-5,-2,-73,13,-78,8,23
1491090625720,1,25,19,33,80,80,-75,11,-30
1491090625720,1,-5,16,5,-18,-72,127,-49,-4
1491090625721,2,8,-14,5,5,9,-128,-31,6
1491090625721,2,9,8,10,-8,59,127,62,30
1491090625767,3,-6,2,-20,31,-72,-111,-63,-29
1491090625767,3,-7,-36,-16,80,-25,-7,-64,10
1491090625768,0,-2,33,19,-26,35,127,-4,11
1491090625768,0,-3,-11,-37,-2,-48,-96,29,-3
1491090625769,2,-19,-17,-1,32,-4,-19,-33,-3
1491090625769,2,-25,6,29,-2,109,127,9,-8
1491090625770,3,18,19,13,43,-54,53,-8,19
1491090625770,3,-15,-14,-14,-19,-18,-38,38,14
1491090625816,0,-2,14,17,32,51,-20,48,7
1491090625816,0,12,-21,-66,-20,-8,39,-59,-27
1491090625817,1,-5,7,20,93,-19,-25,10,31
1491090625817,1,-19,-13,-2,44,-73,-52,-25,-9
1491090625818,2,-5,9,23,45,57,47,38,-37
1491090625818,2,11,5,-7,-37,-49,-67,2,8
1491090625819,3,-26,-38,-37,-61,30,-17,-14,-18
1491090625819,3,33,43,30,-115,10,37,24,15
1491090625865,0,-17,-16,-28,24,-63,19,-22,-33
1491090625865,0,11,15,45,54,90,21,-8,-2
1491090625866,1,-22,5,45,28,36,-60,4,-13
1491090625866,1,29,-19,-24,15,2,44,20,6
1491090625866,3,7,13,16,62,3,-109,-63,31
1491090625866,3,11,10,5,-37,31,-14,5,-17
1491090625869,0,4,18,26,51,-7,48,7,32
1491090625869,0,-3,-21,-44,-39,-106,14,-14,-22
1491090625962,1,-12,-4,-3,-21,66,84,10,6
1491090625962,1,6,16,53,110,92,91,6,-29
1491090625964,2,4,-14,-33,-127,-63,-106,-10,8
1491090625964,2,-1,-13,-25,-83,-14,31,8,27
1491090625964,0,5,9,20,-31,11,-38,-8,-4
1491090625964,0,-4,1,11,83,74,68,13,-16
1491090626011,1,3,-36,-33,1,-31,-42,29,9
1491090626011,1,19,17,30,19,-7,-76,-35,38
1491090626013,2,2,-5,-37,-5,-63,44,-32,-31
1491090626013,2,-21,-2,72,80,61,43,-67,20
1491090626014,3,-7,7,-44,-127,-73,-53,-19,-53
1491090626014,3,12,-15,-52,-34,-24,-18,56,8
1491090626014,1,-8,-8,30,26,-8,64,25,46
1491090626014,1,-1,3,-5,-53,-9,-22,-34,-49
1491090626060,2,6,32,37,71,14,-54,13,10
1491090626060,2,-8,3,19,22,-11,-116,-24,-8
1491090626061,3,2,7,6,-90,37,75,-6,-13
1491090626061,3,-11,-4,1,-50,-23,-60,24,27
1491090626062,3,-17,28,66,59,3,-10,-51,-18
1491090626062,3,10,12,34,49,86,92,12,24
1491090626063,0,-4,5,-15,-10,-54,-128,-19,19
1491090626063,0,-1,-3,-3,-45,12,4,26,-5
1491090626109,1,11,2,22,76,55,78,23,77
1491090626109,1,1,12,11,-71,-58,-68,91,16
1491090626110,2,-22,-20,-17,-57,-33,-13,-99,-25
1491090626110,2,17,22,33,-106,31,92,0,-6
1491090626111,0,68,19,18,-20,22,71,85,80
1491090626111,0,-43,-28,-74,-99,-95,-128,-51,-21
1491090626112,1,-22,-6,37,-4,35,53,-23,-19
1491090626112,1,45,50,58,33,127,127,83,16
1491090626157,2,-6,3,1,85,-95,-29,-62,-42
1491090626157,2,-23,-18,-10,-15,-11,-92,-31,-12
1491090626158,3,5,-13,30,-11,-39,35,6,1
1491090626158,3,3,11,-11,13,90,10,2,10
1491090626159,0,-16,-29,-61,-107,-60,6,23,-16
1491090626159,0,-19,20,-16,56,-64,-103,16,48
1491090626160,1,-29,-32,-15,23,32,-97,-45,-27
1491090626160,1,57,-6,-8,-25,-20,28,23,11
1491090626206,2,23,39,94,127,127,127,24,-5
1491090626206,2,-12,1,8,-49,-15,48,-41,-16
1491090626207,3,-7,-11,-45,-60,-80,-107,5,-17
1491090626207,3,-78,-34,-23,-14,-56,-34,-49,-15
1491090626207,1,-23,0,20,6,-36,-111,39,-17
1491090626207,1,-20,-11,-58,-100,-59,-128,-122,-11
1491090626209,2,7,-15,-21,104,11,91,-11,-32
1491090626209,2,37,15,22,14,-7,112,54,31
1491090626255,3,-2,-3,-3,-53,-12,-45,-29,6
1491090626255,3,-5,-4,13,26,1,14,45,-13
1491090626255,0,-9,-9,-10,-77,20,56,27,12
1491090626255,0,-19,8,13,48,32,52,-10,-19
1491090626256,2,-13,-39,-10,-91,-20,-7,-46,-32
1491090626256,2,-7,11,-34,111,22,40,1,-14
1491090626257,3,-8,-11,-33,-95,-71,-94,17,17
1491090626257,3,-14,-29,-16,-3,-68,37,-14,-2
1491090626304,0,-9,2,8,-45,74,87,23,7
1491090626304,0,9,17,41,90,58,60,-36,-13
1491090626304,1,6,19,1,-108,-66,67,5,-31
1491090626304,1,-19,1,-21,-44,21,50,13,7
1491090626305,3,-2,25,45,89,103,-30,-51,-28
1491090626305,3,-3,-16,-8,2,-84,40,13,1
1491090626352,0,-43,-16,-8,56,4,-128,-35,-32
1491090626352,0,-3,-9,-37,-89,-69,92,-27,20
1491090626353,1,32,-6,-5,-36,3,-73,51,30
1491090626353,1,-6,1,8,64,39,-14,32,-23
1491090626354,2,-4,18,10,-22,3,80,3,4
1491090626354,2,13,10,27,10,97,19,25,15
1491090626355,0,-1,-7,-3,56,11,-66,54,6
1491090626355,0,-8,-10,-1,-81,-65,8,34,-38
1491090626401,1,-68,-27,-44,4,43,122,-40,30
1491090626401,1,40,24,7,-1,21,-57,-17,-32
1491090626403,2,8,23,21,19,23,44,-41,-10
1491090626403,2,28,-2,65,79,72,11,20,4
1491090626403,3,-29,1,-25,-94,-58,-47,45,-15
1491090626403,3,19,-28,-40,-4,127,68,-19,-17
1491090626404,1,54,38,16,76,4,-96,32,36
1491090626404,1,-64,-26,-26,-80,-95,12,3,-21
1491090626450,2,1,-16,-40,-13,65,96,-4,-2
1491090626450,2,14,2,17,34,-29,-90,22,36
1491090626451,3,6,-10,-17,77,-9,-61,-55,-57
1491090626451,3,34,18,59,109,120,89,-4,13
1491090626452,2,26,0,82,127,123,92,-8,23
1491090626452,2,-7,2,-49,-78,-68,-102,-53,-14
1491090626453,3,-12,2,-10,-44,109,82,2,-29
1491090626453,3,2,11,31,84,-114,-29,-20,32
1491090626499,0,-21,-13,-39,-67,-114,-128,-1,-3
1491090626499,0,-9,-16,-20,-39,11,-14,8,33
1491090626500,1,18,8,15,-10,63,5,-38,-90
1491090626500,1,-20,14,34,23,51,29,22,59
1491090626500,3,22,-2,18,45,5,39,10,6
1491090626500,3,-27,-13,-6,-44,-17,-36,3,-19
1491090626501,0,-10,-35,-81,-115,-56,-69,-28,6
1491090626501,0,6,5,55,97,82,85,68,16
1491090626547,1,22,14,-36,-25,-11,60,-22,2
1491090626547,1,-17,-9,-4,-55,32,-54,-1,-34
1491090626549,2,-2,-9,-15,-16,-64,-95,-29,28
1491090626549,2,1,-17,-14,-24,-32,-15,-6,-23
1491090626550,3,-13,19,79,77,74,57,11,42
1491090626550,3,20,20,12,-2,38,58,61,34
1491090626551,0,-26,-19,-30,74,-56,119,80,-8
1491090626551,0,40,9,-19,78,78,-91,-76,-32
1491090626596,1,-39,-33,-11,-51,-91,22,-11,-32
1491090626596,1,1,23,-9,-75,-22,-9,4,24
1491090626597,2,11,22,63,121,89,-4,60,3
1491090626597,2,-1,-10,-48,-107,-86,29,-90,-13
1491090626598,0,1,4,3,-6,45,-105,18,11
1491090626598,0,3,24,80,91,49,-13,-12,-2
1491090626599,1,5,-32,-92,-125,-66,48,-5,-20
1491090626599,1,4,9,16,14,-36,-39,58,68
1491090626645,2,-13,13,-10,-3,-94,-96,-41,-76
1491090626645,2,-32,-7,-10,-54,31,127,10,33
1491090626646,3,11,-6,6,8,13,-128,-10,-21
1491090626646,3,-18,-12,10,-27,82,87,-19,-30
1491090626647,1,-13,2,3,75,-67,5,-31,-6
1491090626647,1,10,-12,-32,-55,18,3,24,-9
1491090626694,2,9,-4,12,-49,-14,-34,-30,15
1491090626694,2,19,10,5,-64,-92,-27,9,9
1491090626695,3,-16,16,73,73,94,54,32,0
1491090626695,3,39,-6,-39,-35,-126,-5,-17,29
1491090626697,0,-21,-47,-71,10,24,-27,-65,-14
1491090626697,0,16,11,-7,53,13,-45,58,-1
1491090626698,2,-7,-31,-17,-19,-41,-59,-51,-26
1491090626698,2,4,-4,0,34,10,74,26,18
1491090626791,3,-8,13,8,-22,-17,78,45,10
1491090626791,3,-10,-18,-26,-15,-5,15,11,-34
1491090626792,0,-5,19,55,-35,53,-12,-10,0
1491090626792,0,7,-17,-40,-78,-45,-14,3,-11
1491090626792,3,4,27,24,24,93,34,61,39
1491090626792,3,12,-14,-24,116,-105,-104,-67,-34
1491090626793,0,-12,-16,-53,-68,117,42,-45,-4
1491090626793,0,6,-6,28,-53,65,19,21,24
1491090626840,1,7,-8,-27,45,-23,-13,-35,-1
1491090626840,1,-28,-23,-15,-37,-38,10,-1,-19
1491090626842,2,4,19,44,-88,39,50,35,1
1491090626842,2,5,-4,-57,-56,-41,23,43,25
1491090626843,0,-23,-11,-26,26,39,-35,-52,-5
1491090626843,0,21,22,10,-1,-7,-114,2,11
1491090626844,1,15,-21,-38,-60,-99,-80,37,16
1491090626844,1,-30,1,3,-32,127,54,-35,-6
1491090626889,2,22,28,49,91,-33,108,63,61
1491090626889,2,-4,2,-2,-72,-47,-49,-28,-36
1491090626889,3,-39,-36,-59,-22,-86,-92,-39,-4
1491090626889,3,34,-24,-27,-64,8,-55,7,29
1491090626890,1,20,26,60,50,127,26,-17,23
1491090626890,1,2,-9,3,-97,-128,-5,-1,-17
1491090626891,2,-23,-32,-54,118,-25,-57,9,-37
1491090626891,2,-25,-9,-25,-5,-24,76,-9,-3
1491090626937,3,-4,-4,2,52,31,61,10,4
1491090626937,3,35,12,9,46,-30,-107,-43,16
1491090626938,0,-16,-2,6,-70,119,-59,1,-37
1491090626938,0,33,19,21,23,-96,72,-21,24
1491090626939,2,31,33,77,17,94,-24,50,34
1491090626939,2,-14,-19,-36,-28,-74,86,-43,-45
1491090626940,3,-29,-5,-19,-118,-45,-66,7,3
1491090626940,3,13,-19,-48,3,-36,-8,11,-3
1491090626986,0,11,12,56,4,65,68,-8,-10
1491090626986,0,0,-4,-34,-58,20,81,54,43
1491090626988,1,-6,2,8,-81,-21,-74,11,4
1491090626988,1,10,-12,-27,56,-2,-104,-88,-30
1491090626988,3,-28,-17,-26,14,-123,-87,-35,-17
1491090626988,3,-30,7,36,68,112,48,30,17
1491090627035,0,9,-15,-33,-46,-128,11,14,-15
1491090627035,0,-40,-36,-78,-105,-86,-95,-43,-15
1491090627035,1,8,3,-3,-64,108,51,-11,0
1491090627035,1,13,22,27,40,13,92,9,-9
1491090627036,2,21,13,31,112,57,44,3,-9
1491090627036,2,11,13,19,-57,54,-2,35,14
1491090627037,0,9,0,6,-77,-47,85,39,-16
1491090627037,0,-23,-19,-83,-43,-95,-128,-77,-24
1491090627084,1,9,4,19,31,46,-49,3,6
1491090627084,1,0,-2,11,-60,44,109,63,-10
1491090627085,2,-2,8,4,52,14,-105,-91,31
1491090627085,2,-12,6,66,127,117,18,40,4
1491090627085,1,17,15,19,-7,71,87,-14,-16
1491090627085,1,14,5,24,-19,-27,-19,16,35
1491090627086,2,6,5,-12,-2,20,101,44,-8
1491090627086,2,2,-8,14,82,102,-12,26,8
1491090627132,3,16,13,3,-28,-28,120,-5,14
1491090627132,3,2,-2,-10,-50,-53,-81,-19,-31
1491090627134,0,-22,-10,2,36,32,-94,-38,12
1491090627134,0,-2,16,61,69,-73,-26,33,-9
1491090627134,2,-20,-3,-17,13,-82,1,-16,17
1491090627134,2,12,8,14,-3,27,111,44,35
1491090627135,3,-14,-7,31,59,21,97,23,-17
1491090627135,3,18,28,42,46,121,22,38,8
1491090627181,0,9,-10,-1,19,-4,-128,-33,2
1491090627181,0,24,4,4,-11,45,59,-60,-24
1491090627183,1,2,-3,9,-52,16,60,7,-2
1491090627183,1,-4,-24,-51,-107,-72,-76,-32,-29
1491090627184,3,3,4,-21,-53,-49,-128,-9,40
1491090627184,3,-37,-12,52,107,46,122,8,-18
1491090627185,0,26,-24,-76,-115,-19,114,-38,-22
1491090627185,0,-12,-6,-45,-48,-57,-94,-45,22
1491090627230,1,-2,14,57,127,62,-17,84,8
1491090627230,1,-2,14,18,-79,67,44,-4,21
1491090627232,2,-7,4,-3,-27,-75,40,22,-10
1491090627232,2,-34,-23,-31,-24,4,-43,-38,-42
1491090627233,3,37,13,23,-117,62,34,-6,-2
1491090627233,3,-14,9,9,102,-66,71,38,-2
1491090627234,0,17,-21,-45,-43,-7,-53,-40,14
1491090627234,0,0,-8,27,79,63,127,39,-10
1491090627279,1,-20,29,39,51,-99,0,-23,6
1491090627279,1,15,-21,-84,-106,35,-65,-35,-4
1491090627280,2,-2,4,20,5,-58,74,14,-26
1491090627280,2,-2,-11,-30,-45,-52,35,12,34
1491090627281,0,-24,-2,38,33,97,-33,-20,-4
1491090627281,0,14,9,-29,-95,-32,60,43,19
1491090627328,1,12,-14,-10,113,-6,-6,33,43
1491090627328,1,-23,-14,-22,-44,-128,-98,-89,-45
1491090627329,2,0,-12,-13,-60,21,-16,-7,4
1491090627329,2,-1,35,83,83,94,94,-24,4
1491090627330,3,38,-10,-40,55,12,110,9,25
1491090627330,3,-31,-21,-49,-77,-75,-82,0,-12
1491090627331,1,-23,2,-21,-69,-31,-65,-29,-55
1491090627331,1,44,16,83,122,127,127,34,36
1491090627376,2,21,12,-13,-69,-107,-13,28,40
1491090627376,2,-65,-50,-105,-116,-80,-90,-30,-29
1491090627377,3,-6,28,23,-7,-12,-128,-25,12
1491090627377,3,40,2,21,61,20,25,-2,8
1491090627378,0,-3,10,35,44,24,49,20,-30
1491090627378,0,-16,-7,30,127,105,-128,-55,-6
1491090627379,2,-3,8,9,108,-41,35,26,-3
1491090627379,2,-25,-29,-58,-62,-52,70,78,42
1491090627425,3,-8,13,32,95,32,-106,-96,-8
1491090627425,3,-61,-30,-45,-128,-105,-35,-24,-7
1491090627426,0,25,13,54,127,123,98,19,-25
1491090627426,0,25,3,-36,-28,1,29,11,11
1491090627426,3,-16,-1,-29,-114,-24,106,25,-23
1491090627426,3,-3,-7,-38,127,-118,-79,-69,4
1491090627427,0,-9,-20,-51,55,41,30,-32,-19
1491090627427,0,-22,8,8,-44,92,71,64,25
1491090627474,1,-4,-12,4,33,58,61,-41,-41
1491090627474,1,13,18,56,-118,-9,-2,-12,17
1491090627475,2,-10,16,27,-11,-27,17,70,12
1491090627475,2,13,-26,-46,27,-58,-81,-74,-23
1491090627476,0,14,-13,2,78,19,12,-21,-1
1491090627476,0,2,19,48,-6,29,-71,-18,-22
1491090627477,1,-25,-9,-25,-47,-91,66,38,15
1491090627477,1,13,-24,-65,-86,-44,-41,-29,-13
1491090627522,2,21,3,-5,-37,-30,-38,30,39
1491090627522,2,-32,1,-3,-10,-1,47,-10,-36
1491090627523,3,6,-6,15,82,112,7,9,-9
1491090627523,3,17,30,90,127,82,127,-20,-4
1491090627524,1,28,-2,-1,45,-30,-128,1,-9
1491090627524,1,-32,-7,21,76,60,64,0,-1
1491090627525,2,34,-11,-26,-40,-43,104,16,-7
1491090627525,2,-13,14,31,-111,-31,1,-15,0
1491090627571,3,-23,-43,-49,46,-59,-72,-43,-21
1491090627571,3,20,11,5,47,116,73,51,39
1491090627572,0,27,2,31,-7,-13,-10,-5,18
1491090627572,0,-35,10,-12,-33,-57,-95,-65,-40
1491090627573,1,18,16,36,-11,-20,-77,-24,15
1491090627573,1,0,-2,6,28,-14,53,34,-3
1491090627573,2,-25,-12,-40,-4,-21,-34,-30,-3
1491090627573,2,15,4,29,115,56,-26,27,-21
1491090627620,3,-11,-22,-52,-111,-108,7,-53,-4
1491090627620,3,-37,-14,-57,-79,-34,33,11,-30
1491090627621,0,13,1,16,93,100,39,-7,8
1491090627621,0,28,34,63,73,62,42,37,3
1491090627621,2,-1,-6,-14,52,31,110,15,0
1491090627621,2,-15,-24,-50,-76,-101,-119,-84,-13
1491090627669,3,14,12,71,97,127,-21,50,11
1491090627669,3,-46,-12,-58,-112,-86,-103,-73,1
1491090627670,0,8,-16,-10,-43,-10,39,-20,-13
1491090627670,0,21,30,36,31,14,-28,33,27
1491090627671,1,-6,-21,-49,-54,-112,0,15,-15
1491090627671,1,18,6,16,22,22,32,49,1
1491090627672,3,-42,-16,9,-2,18,-79,-83,-16
1491090627672,3,10,17,-21,33,23,-9,45,-13
1491090627717,0,4,27,25,38,52,65,42,9
1491090627717,0,-35,-16,-26,-56,-20,110,-8,19
1491090627766,1,4,-10,-14,-13,68,73,13,-4
1491090627766,1,24,0,9,55,-34,-29,24,21
1491090627767,0,48,-10,-19,-38,-46,-84,27,21
1491090627767,0,-13,1,26,-40,56,-15,-12,-40
1491090627768,1,-19,-1,-24,2,-66,96,21,50
1491090627768,1,1,22,19,-24,-2,37,-49,-41
1491090627815,2,-2,17,18,-32,67,46,24,-30
1491090627815,2,44,-13,25,111,101,50,-18,26
1491090627816,3,10,21,-2,-20,-81,-56,14,2
1491090627816,3,-41,-32,-27,-91,-97,-118,-76,-36
1491090627817,1,-20,15,8,-92,-10,-79,82,11
1491090627817,1,-14,-27,12,-8,41,111,89,28
1491090627818,2,18,0,58,63,-21,71,-14,-4
1491090627818,2,-33,-34,-89,-113,-114,-54,-3,11
1491090627912,3,38,6,4,38,74,-31,15,-16
1491090627912,3,-38,10,28,96,106,16,8,17
1491090627913,0,12,-8,-24,-48,-86,-128,-42,-10
1491090627913,0,-34,-13,10,-8,-19,81,-37,-20
1491090627914,1,14,-1,16,43,24,127,8,12
1491090627914,1,92,36,-17,-38,-55,-6,57,2
1491090627915,3,-14,-18,-50,-110,-99,-17,-7,-1
1491090627915,3,-15,-8,34,127,51,54,-5,-10
1491090627961,0,0,4,8,-108,59,-10,8,-6
1491090627961,0,17,20,-9,-44,-41,16,23,11
1491090627962,1,-35,2,10,-21,-2,-27,-48,6
1491090627962,1,-18,-13,-14,40,28,-1,25,-37
1491090627963,0,3,10,21,51,53,-58,-24,62
1491090627963,0,-1,29,36,-52,105,122,59,-9
1491090627963,1,12,11,35,127,-30,12,-25,11
1491090627963,1,-24,-10,-40,-55,-107,29,9,5
1491090628010,2,29,5,6,-64,0,102,-30,-25
1491090628010,2,6,-9,-16,51,31,-85,-29,32
1491090628011,3,19,-2,0,27,69,-105,-46,-10
1491090628011,3,19,16,17,-66,-72,84,70,53
1491090628013,1,-45,-24,-81,-89,-80,5,-12,8
1491090628013,1,-12,-30,-46,17,22,7,-46,-19
1491090628059,2,-18,7,19,63,-58,-31,4,-20
1491090628059,2,4,12,35,92,50,70,13,74
1491090628060,3,-4,-5,-15,-82,-79,-44,-8,-8
1491090628060,3,7,-3,-16,-74,11,50,56,-16
1491090628060,0,-7,7,79,-57,102,102,56,23
1491090628060,0,49,13,-40,61,-115,-16,-9,-32
1491090628061,2,-20,-7,-25,-20,-65,-128,-12,-29
1491090628061,2,-30,-18,63,32,88,88,24,-40
1491090628107,3,56,34,-20,-31,-71,53,53,33
1491090628107,3,-40,-40,-72,-33,-56,-105,-42,-8
1491090628108,0,5,6,27,24,24,68,-12,6
1491090628108,0,7,6,-34,-48,41,-20,30,16
1491090628109,3,-3,-18,6,-33,24,67,-24,-4
1491090628109,3,-11,17,-6,-61,7,55,-19,16
1491090628110,0,4,-12,-14,82,4,-76,100,-1
1491090628110,0,-30,-5,-15,-85,-79,-24,-81,-32
1491090628156,1,17,3,44,-1,87,26,-10,-15
1491090628156,1,-19,13,-8,-13,-48,-18,-26,-26
1491090628157,2,-4,-12,-31,-41,-59,-52,7,23
1491090628157,2,-9,-20,-22,-46,38,-74,-42,-1
1491090628158,0,-9,6,0,-59,25,102,-36,5
1491090628158,0,7,4,-36,-66,-116,-20,29,16
1491090628159,1,10,4,6,59,65,14,-6,13
1491090628159,1,12,-6,39,-42,104,78,-18,-22
1491090628205,2,13,23,14,116,-97,38,44,23
1491090628205,2,-27,-47,-42,-82,-15,-44,-54,-36
1491090628206,3,-1,-12,-12,17,13,-84,-22,-13
1491090628206,3,15,16,17,3,25,-18,-3,-2
1491090628207,1,-8,0,-14,-20,-58,9,46,17
1491090628207,1,40,2,4,-4,44,62,32,3
1491090628208,2,38,22,55,-57,127,-21,-68,29
1491090628208,2,5,8,-12,63,-128,-7,15,-15
1491090628254,3,-47,-36,-56,-42,6,-23,-13,-35
1491090628254,3,7,2,52,48,90,101,36,6
1491090628255,0,-24,-12,-84,-125,-63,-32,-92,1
1491090628255,0,28,8,1,-38,-8,-36,77,42
1491090628256,2,-4,7,-7,127,-17,-62,12,2
1491090628256,2,-3,-34,-23,-27,92,72,13,5
1491090628257,3,3,22,14,7,-99,-110,-17,-12
1491090628257,3,-8,-1,-11,60,-16,-17,-52,-20
1491090628304,0,-29,0,30,85,94,118,34,-10
1491090628304,0,9,-12,-7,-81,-80,-68,-24,-12
1491090628305,1,86,25,16,-20,46,37,79,36
1491090628305,1,-44,-6,18,82,-8,29,15,-18
1491090628306,2,17,0,-34,-128,-82,-89,-28,3
1491090628306,2,-24,-26,-84,-19,-52,34,-28,-30
1491090628307,3,17,-10,0,45,26,11,35,20
1491090628307,3,-2,26,9,-75,-26,-88,-32,16
1491090628352,0,2,0,55,51,76,127,21,-35
1491090628352,0,-15,14,29,111,36,-85,33,19
1491090628354,1,-40,-13,-32,-68,-61,-119,-76,-32
1491090628354,1,15,3,20,-25,59,80,18,2
1491090628355,3,-7,-3,-35,-41,-100,-64,-50,-19
1491090628355,3,-26,-16,-21,120,69,-108,40,12
1491090628356,0,7,-7,-31,-128,-114,-63,-24,-24
1491090628356,0,11,6,33,-44,18,2,21,13
1491090628400,1,-29,0,34,56,127,127,11,-6
1491090628400,1,3,-18,-80,-57,-128,-112,-61,-7
1491090628403,2,-21,-13,-10,-28,9,32,16,-9
1491090628403,2,9,-1,22,6,7,88,-1,-7
1491090628404,0,4,-19,-37,-4,-87,-62,-52,-45
1491090628404,0,0,1,-13,-25,12,95,12,38
1491090628405,1,-8,10,37,23,56,-23,83,-36
1491090628405,1,-26,-24,-38,12,-70,-63,-34,-14
1491090628450,2,26,0,-10,-103,6,-41,-1,44
1491090628450,2,-23,1,9,90,6,9,6,-16
1491090628451,3,8,13,17,-9,46,75,0,-25
1491090628451,3,28,6,-29,-9,-66,104,28,51
1491090628452,1,-9,-8,-22,100,-79,-78,-64,-5
1491090628452,1,-16,-5,36,115,98,4,-24,-34
1491090628454,2,55,25,59,12,-80,26,30,56
1491090628454,2,-30,-37,-99,-118,-57,16,-7,-11
1491090628499,3,-5,-15,0,29,10,-12,23,-19
1491090628499,3,3,-10,-23,-123,-97,-72,-70,39
1491090628500,0,-31,2,31,127,81,-56,-24,-29
1491090628500,0,3,-10,4,-15,17,35,34,9
1491090628501,2,-27,-12,-16,106,-51,25,31,-1
1491090628501,2,7,10,25,43,7,7,-17,3
1491090628546,3,2,-5,25,100,44,32,-11,-45
1491090628546,3,-14,10,6,6,0,-50,54,33
1491090628548,0,-5,-17,-75,-128,-48,30,-42,-27
1491090628548,0,3,4,-2,-116,-111,-25,23,9
1491090628549,1,25,-4,-25,102,27,-22,12,14
1491090628549,1,0,3,11,45,21,-28,-60,9
1491090628550,3,-31,-35,-16,-123,-61,-51,-2,-32
1491090628550,3,40,30,24,-68,41,-100,-7,21
1491090628595,0,-16,-3,-7,74,-75,-53,48,-11
1491090628595,0,-16,-27,-20,-28,31,-16,-56,-31
1491090628596,1,-12,11,-5,-53,12,98,31,19
1491090628596,1,-5,-15,-17,-3,-17,63,11,-14
1491090628596,2,7,18,46,99,127,-44,-58,-29
1491090628596,2,12,18,34,9,12,26,38,25
1491090628597,0,0,53,80,-114,127,-92,26,36
1491090628597,0,-8,-10,-24,114,-125,1,-34,-42
1491090628643,1,6,-12,-30,27,-18,-42,-30,41
1491090628643,1,-42,-12,1,-7,0,-14,44,-36
1491090628644,2,-10,-30,-22,-6,0,35,-20,-16
1491090628644,2,17,29,61,22,81,4,49,10
1491090628693,0,-20,-14,1,19,10,126,32,6
1491090628693,0,17,0,-5,-92,41,118,-1,0
1491090628696,1,46,24,48,117,40,-40,2,-14
1491090628696,1,2,-25,-91,-77,-99,-95,-22,8
1491090628698,2,-28,-31,-55,-62,-83,19,4,6
1491090628698,2,24,16,22,-30,35,-26,-26,0
1491090628700,3,15,18,85,-18,93,126,38,-15
1491090628700,3,19,5,3,79,-39,-59,18,15
1491090628742,1,-13,2,-6,-128,44,-76,-21,25
1491090628742,1,42,16,43,127,16,38,95,-14
1491090628744,2,-32,-11,-17,-58,-30,-9,-38,-15
1491090628744,2,-20,-15,-10,41,55,-8,-54,-4
1491090628746,3,8,8,16,63,89,-14,39,2
1491090628746,3,-9,18,44,-91,-91,81,20,1
1491090628747,2,28,-7,-11,49,83,65,1,5
1491090628747,2,-24,5,12,-42,-94,40,13,-22
1491090628790,3,4,-19,-26,-114,-19,-58,-34,41
1491090628790,3,-31,-3,13,119,57,-92,-39,-21
1491090628791,0,-5,-13,-23,-42,-6,93,44,20
1491090628791,0,33,17,23,-9,22,-16,39,-10
1491090628792,3,8,-14,5,-18,-58,-8,0,-18
1491090628792,3,-6,27,97,118,127,49,-31,-8
1491090628839,0,0,-16,-81,-92,-128,-17,-15,21
1491090628839,0,-15,-24,-33,8,-16,13,43,-3
1491090628840,1,5,20,-3,-45,-49,21,-20,-31
1491090628840,1,5,-6,-18,52,33,-13,18,16
1491090628841,2,-3,-6,62,55,81,19,-45,-17
1491090628841,2,20,33,63,49,79,13,56,-8
1491090628842,0,36,23,53,-74,-73,-16,40,2
1491090628842,0,-7,-33,-72,24,-37,-128,-41,57
1491090628887,1,-11,-18,-2,4,63,97,22,8
1491090628887,1,21,40,62,29,26,126,14,-21
1491090628899,2,-26,-16,-77,-29,-27,-66,-25,-1
1491090628899,2,-29,16,21,-16,-5,42,29,30
1491090628900,1,18,-1,-3,23,-29,-1,-51,0
1491090628900,1,22,-11,23,50,49,-27,-13,-1
1491090628900,2,-8,33,51,43,-53,23,-5,3
1491090628900,2,1,-20,-61,-126,-64,85,36,-23
1491090628936,3,-32,-33,-52,40,60,32,30,-4
1491090628936,3,-9,-7,-39,36,-126,-103,-56,16
1491090628937,0,-13,-19,19,-12,115,-26,-40,21
1491090628937,0,11,28,38,70,22,81,-1,-19
1491090628938,2,-5,3,22,5,-2,-17,-28,-18
1491090628938,2,-14,-5,9,38,59,125,-3,-16
1491090628939,3,10,31,41,-32,85,35,29,12
1491090628939,3,-11,3,-28,58,-58,-78,-34,40
1491090628985,0,-14,-31,-55,-36,-67,-74,-23,-26
1491090628985,0,4,-15,-9,3,-31,20,63,-24
1491090628988,1,22,17,18,-3,-20,67,49,10
1491090628988,1,-6,16,66,-73,92,-98,-59,20
1491090628988,2,13,4,-11,6,-72,-55,62,-8
1491090628988,2,-25,-5,21,-98,-59,-94,-128,-43
1491090628989,3,-33,-36,-118,104,56,-63,17,9
1491090628989,3,14,-9,-32,-64,30,123,37,-15
1491090629033,0,29,26,27,126,126,100,49,3
1491090629033,0,41,3,24,13,-67,-128,20,64
1491090629034,1,-69,-21,24,-57,-89,31,-37,-69
1491090629034,1,-16,11,49,103,115,126,14,-2
1491090629035,3,16,-19,-27,5,-22,72,18,25
1491090629035,3,12,-12,-9,21,-25,-115,16,-8
1491090629036,0,-20,9,46,-72,-28,-84,-53,-4
1491090629036,0,-16,-6,-41,-48,-14,122,20,-6
1491090629082,1,22,-11,-47,-36,-53,-128,-29,19
1491090629082,1,-34,-10,-1,58,37,127,58,-20
1491090629083,2,31,16,46,96,109,32,-48,-6
1491090629083,2,6,1,-25,65,-78,31,3,11
1491090629084,0,-6,14,25,93,73,-23,25,-3
1491090629084,0,10,0,33,-17,85,6,-15,-6
1491090629085,1,8,-17,-11,-80,-84,4,-3,4
1491090629085,1,1,23,45,-9,71,-36,-22,-43
1491090629131,2,55,-3,-47,-11,-85,65,10,85
1491090629131,2,-7,-22,-67,-47,-33,-73,6,-19
1491090629132,3,-15,-13,21,91,12,-66,-52,-10
1491090629132,3,-8,-6,-5,18,-11,-128,-97,3
1491090629132,1,-1,22,2,53,-30,24,2,-10
1491090629132,1,4,-20,-25,-47,23,30,-22,17
1491090629133,2,-16,0,9,47,62,12,24,-35
1491090629133,2,18,21,49,62,59,26,-13,14
1491090629180,3,-23,9,39,-67,63,76,39,-4
1491090629180,3,27,-12,-7,-14,3,124,32,3
1491090629180,0,-3,-29,-56,-59,-71,-91,-25,2
1491090629180,0,-10,1,4,32,1,-27,-25,-28
1491090629229,2,-6,-9,-13,-100,14,-17,45,-51
1491090629229,2,-7,-6,0,-3,-9,20,-6,-10
1491090629229,3,37,1,14,46,-54,-34,-10,28
1491090629229,3,-50,3,-14,-59,-16,30,-9,-10
1491090629230,0,-2,-11,-13,9,60,22,-9,-5
1491090629230,0,0,17,44,80,60,-18,26,-2
1491090629231,1,20,10,20,-24,49,83,2,-7
1491090629231,1,25,-10,-39,-66,-96,-50,22,-14
1491090629326,3,6,2,-7,38,-9,-88,-37,15
1491090629326,3,-21,2,0,-17,-34,-42,9,-51
1491090629327,0,-16,-48,-32,44,-16,101,0,21
1491090629327,0,36,9,27,40,8,-60,-28,39
1491090629328,1,-51,-8,24,-1,64,-73,-47,-33
1491090629328,1,24,16,-8,-72,-64,25,20,-1
1491090629329,0,40,12,3,-37,-72,12,15,32
1491090629329,0,-24,6,-7,-5,37,-33,-42,13
1491090629375,1,16,13,24,37,56,71,32,-30
1491090629375,1,1,1,32,36,14,-54,-30,0
1491090629376,2,-25,-27,-81,-57,-69,-51,-2,1
1491090629376,2,-29,-26,-21,-36,47,-34,-13,-43
1491090629377,1,-6,0,58,92,107,56,29,9
1491090629377,1,13,-7,-26,-128,-128,127,114,28
1491090629378,2,-41,2,-35,38,-9,-113,-128,-48
1491090629378,2,5,-18,5,13,-12,45,90,-1
1491090629424,3,5,37,26,-54,14,-4,50,32
1491090629424,3,-14,-30,10,115,110,127,7,-59
1491090629425,0,44,62,73,-17,-31,-24,66,58
1491090629425,0,-34,-48,-99,-128,-76,-78,7,7
1491090629425,2,0,26,41,-6,47,42,96,11
1491090629425,2,-16,10,37,82,1,20,-28,-54
1491090629426,3,2,-45,-23,-88,19,88,35,11
1491090629426,3,2,29,-7,81,-62,-4,0,56
1491090629472,0,-14,-30,-43,-7,-32,-128,-87,-47
1491090629472,0,-27,-1,0,-43,6,-24,-7,-8
1491090629473,1,26,1,4,-10,17,92,28,-18
1491090629473,1,-2,-2,9,-17,-19,29,-21,21
1491090629475,3,21,9,22,68,1,3,-20,4
1491090629475,3,-11,19,33,64,110,18,48,19
1491090629475,0,36,3,30,-56,-1,90,-38,-19
1491090629475,0,-12,-22,-75,-29,-59,-57,-2,33
1491090629521,1,-32,-16,-52,-12,-11,-87,-10,5
1491090629521,1,30,-9,-26,-57,-53,-120,-106,-40
1491090629524,2,-2,-3,38,127,126,122,57,-5
1491090629524,2,-4,40,49,-48,20,89,39,17
1491090629525,0,-9,-7,-17,1,48,-14,-32,-31
1491090629525,0,14,14,30,-53,1,68,-13,0
1491090629526,1,-8,-4,-36,68,-20,-65,-17,-4
1491090629526,1,11,2,0,-81,-7,-25,-1,-22
1491090629570,2,3,-9,-1,53,-6,-25,1,35
1491090629570,2,18,10,29,70,71,68,6,7
1491090629570,3,16,-8,5,-43,-50,127,109,42
1491090629570,3,-2,34,38,5,57,-72,-105,-33
1491090629571,1,4,3,-3,-50,-17,33,-62,22
1491090629571,1,-14,-6,-16,-47,36,99,66,-4
1491090629572,2,23,16,13,52,36,-75,-28,25
1491090629572,2,-17,30,44,-4,-59,-10,11,-45
1491090629619,3,3,-1,0,31,5,-67,-34,29
1491090629619,3,6,-17,-44,-56,-67,21,31,19
1491090629620,0,-9,-39,-42,-47,5,73,-31,17
1491090629620,0,15,32,13,-1,20,-19,-13,-7
1491090629716,2,1,-6,-22,-9,-42,-30,-51,23
1491090629716,2,-20,-29,-15,-11,-26,-81,-28,-18
1491090629717,3,-12,2,-3,-7,72,-33,-35,-44
1491090629717,3,0,6,18,25,15,23,-72,-20
1491090629717,0,26,-22,-13,34,-77,-55,-16,-10
1491090629717,0,-31,-13,-8,3,41,68,-8,35
1491090629718,1,-18,45,24,35,-77,-88,12,2
1491090629718,1,-5,-44,-98,-88,-49,-71,-31,20
1491090629765,3,-18,-5,13,-5,17,76,52,8
1491090629765,3,24,8,22,35,41,33,12,2
1491090629765,0,2,17,23,29,30,111,54,24
1491090629765,0,-1,1,29,59,81,-116,-79,-61
1491090629766,1,-6,-22,-28,-44,-66,-31,25,33
1491090629766,1,19,-36,-37,-10,-26,44,56,2
1491090629767,0,-19,0,-18,-36,-67,-15,-25,4
1491090629767,0,-22,-36,-48,-64,-98,-101,8,6
1491090629814,1,-16,12,-12,-83,-46,93,14,-44
1491090629814,1,5,19,32,38,39,-29,-37,29
1491090629862,2,-18,-3,1,21,18,33,37,-39
1491090629862,2,36,13,21,-9,104,95,26,41
1491090629864,1,4,-14,6,37,-1,-5,1,33
1491090629864,1,12,50,54,46,18,-87,-23,-41
1491090629865,2,-11,-35,-23,-80,44,-69,5,-16
1491090629865,2,0,-10,-28,28,-101,49,13,-5
1491090629866,3,-13,3,0,-67,-16,-5,12,22
1491090629866,3,-15,-22,-1,71,-41,-79,-58,-18
1491090629912,0,-28,-1,-15,-102,-27,28,-13,4
1491090629912,0,-2,5,0,-16,-12,-6,-27,-28
1491090629915,2,11,43,44,6,-33,-50,-4,-13
1491090629915,2,-6,-3,-27,41,29,-13,0,21
1491090629961,3,13,-1,5,35,24,40,-36,-5
1491090629961,3,39,23,6,-10,-65,13,58,8
1491090629963,3,-35,-22,-15,28,38,-128,-11,-15
1491090629963,3,15,8,28,-27,-19,60,-14,-2
1491090629964,0,2,-24,-26,22,23,28,9,45
1491090629964,0,-21,-8,17,-43,90,32,18,-27
1491090629965,1,23,42,28,47,-47,33,8,18
1491090629965,1,-37,-27,-24,-38,-60,57,19,18
1491090630009,0,6,-9,-37,10,-106,-18,30,19
1491090630009,0,-2,11,9,25,67,60,-68,-21
1491090630011,1,17,21,28,22,79,-85,39,21
1491090630011,1,-33,-35,-44,-47,-55,-32,5,-41
1491090630012,2,3,-10,10,52,71,75,-11,-14
1491090630012,2,8,1,-10,-81,-78,-22,73,52
1491090630013,1,2,7,23,54,0,-9,3,-6
1491090630013,1,-8,-13,-22,-46,-21,15,3,29
1491090630057,2,17,19,-17,-83,-75,-10,-24,10
1491090630057,2,-5,-15,8,44,59,-10,28,3
1491090630106,3,5,10,-11,-85,-85,127,69,1
1491090630106,3,-23,-6,1,89,-35,-84,-89,-21
1491090630108,1,-6,-49,-55,57,-50,-77,11,-20
1491090630108,1,24,41,35,37,30,35,-8,-10
1491090630108,2,-40,-6,-1,-15,16,-100,2,-14
1491090630108,2,12,-12,-8,-60,-50,-62,-2,-30
1491090630109,3,19,4,32,37,41,77,-5,41
1491090630109,3,-20,-5,-18,-59,-68,34,-1,6
1491090630155,0,2,-4,-26,-47,-14,-57,-64,-2
1491090630155,0,-10,8,8,-20,-12,24,-14,-43
1491090630156,2,10,12,19,-2,-26,22,54,37
1491090630156,2,-16,-19,-14,20,30,44,-4,-4
1491090630156,3,-34,-24,-35,-21,-24,3,-22,-14
1491090630156,3,2,-11,2,14,-14,85,25,16
1491090630157,0,21,20,21,-61,98,-5,-11,-7
1491090630157,0,5,-5,11,99,-70,3,29,5
1491090630204,1,-6,19,8,-20,-35,-69,-32,-10
1491090630204,1,-30,-45,-33,-36,51,-32,-36,-25
1491090630204,2,12,20,18,73,-28,94,56,24
1491090630204,2,5,-18,-24,-112,-62,-92,23,-18
1491090630205,0,-2,-14,-31,-87,-45,-100,-26,1
1491090630205,0,-3,11,10,12,14,-40,11,-16
1491090630206,1,2,-4,9,-3,6,125,24,-1
1491090630206,1,-2,20,1,16,55,4,-21,-2
1491090630253,2,8,-28,-37,-70,-55,-76,-11,32
1491090630253,2,11,24,34,-16,26,8,35,-1
1491090630254,3,-4,-1,-1,-50,-55,33,16,-18
1491090630254,3,-36,-13,-27,-52,6,69,-42,-11
1491090630301,1,3,5,40,-66,61,-61,-19,-46
1491090630301,1,-3,14,0,26,-36,11,15,11
1491090630302,2,-7,-40,-44,-25,-5,2,-16,-11
1491090630302,2,-19,4,11,41,10,-42,12,-36
1491090630302,3,28,4,-14,-48,-33,8,-25,23
1491090630302,3,-6,-24,-16,11,3,21,25,-9
1491090630303,0,-6,8,9,-48,12,107,31,-4
1491090630303,0,11,3,4,54,44,10,-43,5
1491090630350,2,-22,-27,-13,39,23,33,3,-17
1491090630350,2,5,25,-2,-21,-16,14,-53,27
1491090630352,3,-2,-4,-8,-11,-3,-14,15,31
1491090630352,3,-18,13,18,77,46,18,-21,22
1491090630353,0,-5,5,15,-81,-42,2,0,-13
1491090630353,0,6,-21,-10,99,8,-3,-19,-13
1491090630399,3,15,3,13,8,25,37,-20,-7
1491090630399,3,-5,-1,22,78,89,107,45,-5
1491090630400,0,-14,9,7,-23,-63,-89,18,-5
1491090630400,0,-7,-8,-18,-117,-49,-20,-68,-31
1491090630400,1,-12,-14,-26,39,-54,81,22,-15
1491090630400,1,18,6,20,-13,76,0,-68,17
1491090630401,3,-24,-9,-32,-70,-11,23,-9,-33
1491090630401,3,-12,-24,-43,-76,-57,-34,-9,30
1491090630447,0,16,23,30,-75,127,76,1,-17
1491090630447,0,6,0,10,69,-79,-27,35,35
1491090630448,1,11,-6,6,81,29,98,1,-4
1491090630448,1,11,7,-1,26,19,-37,16,18
1491090630449,2,8,1,9,-23,-42,-35,-15,3
1491090630449,2,-20,5,8,42,57,72,22,-24
1491090630450,0,-45,-43,-31,-14,-21,-9,-90,-18
1491090630450,0,1,5,-10,-3,3,28,64,20
1491090630496,1,-6,20,23,89,0,60,-35,-3
1491090630496,1,-32,-6,7,-40,-28,-128,-61,-30
1491090630503,2,19,13,12,18,7,15,13,14
1491090630503,2,16,-11,-10,-49,20,104,58,3
1491090630504,1,39,14,-15,-74,17,49,-20,15
1491090630504,1,-28,-20,-2,-2,-117,-85,-4,-31
1491090630505,2,-2,-8,-16,7,-20,82,21,55
1491090630505,2,-12,-5,-14,-10,48,-88,-69,-29
1491090630545,3,30,-10,11,0,-58,-45,15,-9
1491090630545,3,-30,-18,-27,-25,38,41,-54,17
1491090630546,0,-10,23,22,1,-20,-1,39,-8
1491090630546,0,17,15,24,-63,-38,-96,-44,3
1491090630547,2,-3,-10,3,61,9,5,36,5
1491090630547,2,-5,10,-13,-77,-21,81,-20,-14
1491090630548,3,-7,1,-2,-94,-62,-128,-32,4
1491090630548,3,22,22,37,91,80,86,50,7
1491090630593,0,4,-6,-16,98,-80,-24,-26,-10
1491090630593,0,-3,-15,-42,-50,37,-87,1,-15
1491090630594,1,-26,-26,-25,-28,-62,127,-13,-4
1491090630594,1,3,8,4,-60,-35,-128,32,15
1491090630595,3,-15,-7,2,49,25,53,23,-5
1491090630595,3,5,-5,-12,-48,12,-46,-50,-4
1491090630597,0,4,19,4,-47,43,8,46,9
1491090630597,0,-6,-12,-8,-46,-24,7,15,39
1491090630642,1,-5,-7,-15,-18,-14,-70,-39,-69
1491090630642,1,-9,-19,5,-11,7,87,26,15
1491090630645,2,15,53,53,79,55,47,-31,-32
1491090630645,2,2,4,8,-90,0,17,-11,34
1491090630646,0,-31,-48,-52,-34,-55,-51,1,16
1491090630646,0,12,2,17,20,96,31,-10,-12
1491090630646,1,6,28,12,-55,-60,-3,28,-18
1491090630646,1,-12,7,2,-36,11,-24,-27,-25
1491090630691,2,-12,11,12,-11,2,36,-33,9
1491090630691,2,26,0,-1,14,54,54,43,19
1491090630692,3,-33,-2,9,29,71,20,-24,-70
1491090630692,3,20,-4,15,8,-12,11,1,33
1491090630693,1,-42,-6,-28,10,-54,-123,-77,-37
1491090630693,1,3,4,-7,-1,-49,-36,17,-10
1491090630694,2,-11,-17,8,-4,-20,94,-5,-20
1491090630694,2,4,7,11,63,78,73,-25,35
1491090630740,3,9,-13,7,30,-35,-51,19,-1
1491090630740,3,20,2,-19,-47,36,-16,29,-11
1491090630741,0,-15,4,5,-13,-7,52,10,4
1491090630741,0,2,-8,-8,-27,-47,-11,-57,-77
1491090630741,2,-23,-28,-21,-28,-9,12,38,-46
1491090630741,2,-7,-7,16,19,50,-117,-42,2
1491090630743,3,16,29,57,127,7,68,11,28
1491090630743,3,-6,-13,-34,-78,-78,-34,-20,3
1491090630789,0,5,-18,-14,-70,76,86,-21,12
1491090630789,0,-30,-12,-33,34,-74,84,55,-25
1491090630790,1,19,-3,-15,-72,-25,-107,-34,19
1491090630790,1,-25,1,16,-68,37,95,37,-46
1491090630791,2,28,27,10,127,4,28,24,4
1491090630791,2,4,-2,21,51,22,60,5,16
1491090630792,3,-7,0,-3,-80,28,22,-31,-22
1491090630792,3,-20,17,5,31,-21,-9,18,-37
1491090630886,0,8,-11,-7,-55,50,-1,-5,14
1491090630886,0,12,13,17,2,10,76,43,-11
1491090630935,1,14,-6,-15,110,-62,-76,-30,14
1491090630935,1,-14,-33,-24,26,-28,-52,-48,-12
1491090630936,3,-1,-11,9,-24,70,31,-5,-17
1491090630936,3,-5,0,-6,-69,-57,82,29,4
1491090630936,0,6,-15,-60,-54,-79,-86,-33,-27
1491090630936,0,-27,-6,14,-128,27,-48,-2,1
1491090630937,1,-11,0,-22,86,42,9,2,6
1491090630937,1,-8,5,18,39,-15,-33,3,-22
1491090630983,2,36,12,-7,-52,-22,37,16,34
1491090630983,2,-20,-12,-13,-1,-54,-92,-51,5
1491090630984,1,-4,8,1,-61,-15,43,-47,24
1491090630984,1,7,-5,-10,-26,20,-40,4,-4
1491090630985,2,-9,5,-31,-73,11,-17,-29,15
1491090630985,2,18,-8,-18,-37,15,47,-22,-18
1491090630986,3,-10,-9,-8,-31,19,44,45,12
1491090630986,3,-21,-31,-15,105,70,-20,-64,-16
1491090631032,0,25,26,47,77,5,61,57,32
1491090631032,0,11,10,23,16,45,-7,-27,-60
1491090631033,1,-3,-3,-28,-60,-67,75,14,27
1491090631033,1,29,6,4,-25,42,-114,-19,22
1491090631034,3,1,-15,-3,3,-23,-64,13,-34
1491090631034,3,-7,5,0,-14,-75,-26,1,41
1491090631035,0,-13,-14,-14,-22,-41,22,-46,-25
1491090631035,0,-13,1,30,10,30,3,18,8
1491090631081,1,13,14,22,16,84,84,-22,-11
1491090631081,1,5,10,7,-13,-26,27,30,22
1491090631082,2,-11,-19,-54,-76,-81,-77,-22,-25
1491090631082,2,-30,-11,18,49,45,-17,5,-12
1491090631082,0,-22,-6,5,7,-38,6,-18,-38
1491090631082,0,-17,-9,-26,-90,-2,-128,-23,-1
1491090631083,1,4,-9,-41,33,-72,-39,-10,5
1491090631083,1,6,-9,10,20,20,93,14,-16
1491090631130,2,-19,-5,-11,14,33,127,47,17
1491090631130,2,5,-3,-1,-13,48,-82,-8,-2
1491090631131,3,-4,13,19,35,-52,-117,-78,17
1491090631131,3,-26,-25,-15,-41,10,-5,2,-48
1491090631131,0,1,25,12,-18,-10,-15,11,24
1491090631131,0,17,0,9,-70,0,14,13,-11
1491090631132,1,-6,2,16,64,57,40,-1,35
1491090631132,1,13,-25,-57,-84,-52,20,-14,0
1491090631227,2,-28,-29,-33,-41,-99,-85,-23,-20
1491090631227,2,36,22,60,24,63,127,47,1
1491090631228,3,7,14,-20,-70,-89,-50,26,14
1491090631228,3,-6,4,10,49,36,53,32,-62
1491090631232,1,-37,-16,-11,-11,29,40,-5,4
1491090631232,1,9,17,33,36,48,-51,9,10
1491090631233,2,6,8,4,-1,18,-91,-20,1
1491090631233,2,-16,-3,-24,-47,-82,114,2,-18
1491090631276,3,12,-3,-10,43,41,47,4,-20
1491090631276,3,2,3,8,-3,62,57,67,3
1491090631278,0,2,-4,0,98,-83,-51,-59,-23
1491090631278,0,1,-8,-13,5,-32,-37,-3,35
1491090631278,2,48,13,24,64,27,-39,49,61
1491090631278,2,-32,-10,-17,7,-60,-93,-26,-15
1491090631279,3,22,-1,14,-10,-43,3,-4,-5
1491090631279,3,-17,-5,-3,8,9,54,8,6
1491090631325,0,19,4,-3,-20,10,-93,-9,-19
1491090631325,0,-4,7,13,20,37,76,21,21
1491090631326,1,-34,-17,-12,-3,-15,37,-20,16
1491090631326,1,21,15,14,-34,-10,36,-3,13
1491090631326,0,-26,5,8,-36,50,3,-19,-12
1491090631326,0,10,1,-10,42,7,38,3,25
1491090631327,1,-4,-2,-10,-43,28,-46,5,-21
1491090631327,1,-7,-10,29,81,11,-29,-27,-7
1491090631373,2,5,-1,4,-46,-21,110,59,-8
1491090631373,2,-8,-4,-3,-27,-3,-16,-41,-10
1491090631374,3,2,24,15,0,75,-97,24,38
1491090631374,3,-12,-5,-21,-84,-100,-55,-60,0
1491090631422,1,27,24,9,-86,-16,-44,-39,13
1491090631422,1,18,-7,-18,79,4,-126,24,11
1491090631423,2,-6,3,7,94,-6,-9,-4,-4
1491090631423,2,-17,9,-16,-69,-14,127,65,-39
1491090631424,3,-7,-27,-11,34,44,-30,-60,-17
1491090631424,3,6,15,19,-38,-7,-59,15,4
1491090631425,0,-29,-16,-48,-128,-75,90,2,1
1491090631425,0,36,2,0,124,-26,41,26,-9
1491090631472,2,-17,-14,25,82,84,73,-36,-35
1491090631472,2,14,3,7,-14,32,-26,9,21
1491090631473,3,-6,0,8,27,-34,-9,27,-40
1491090631473,3,20,29,34,-112,32,68,18,20
1491090631474,2,-4,9,37,-42,65,46,25,-21
1491090631474,2,1,12,32,-34,-10,29,3,25
1491090631475,3,-18,-20,-27,33,27,68,0,-15
1491090631475,3,-17,-11,-17,11,-19,46,-7,3
1491090631520,0,12,12,12,18,10,0,10,-13
1491090631520,0,29,-6,4,12,-35,-19,7,60
1491090631521,1,-10,30,74,-37,120,127,46,-58
1491090631521,1,-20,-25,-51,22,-110,16,-72,-44
1491090631521,3,28,4,19,2,36,82,3,-9
1491090631521,3,22,5,19,10,56,7,43,10
1491090631522,0,-17,-2,8,17,17,16,-1,4
1491090631522,0,43,-10,-14,-58,3,74,26,38
1491090631569,1,-30,5,13,122,47,-39,-30,-47
1491090631569,1,37,8,19,-62,-55,-26,-15,39
1491090631570,2,-18,-15,-23,-37,-31,-3,41,-11
1491090631570,2,-13,-2,-7,-86,9,-51,8,-25
1491090631570,0,10,-9,-23,-33,-16,-32,-13,14
1491090631570,0,-23,4,21,110,62,78,-26,-21
1491090631571,1,26,23,11,-11,5,98,22,0
1491090631571,1,-23,-18,-16,-49,-53,-103,-18,-4
1491090631617,2,23,18,16,-69,-14,75,3,30
1491090631617,2,10,1,-1,34,-19,-46,-19,-43
1491090631618,3,-30,3,-18,-55,-17,27,-17,-11
1491090631618,3,10,-9,1,78,72,18,18,3
1491090631620,1,-14,-10,-10,-33,-44,-35,12,13
1491090631620,1,-5,8,20,25,50,-46,47,-21
1491090631621,2,-7,-1,-2,28,12,18,-43,31
1491090631621,2,4,14,14,2,32,-4,-26,-19
1491090631666,3,-9,-10,3,-22,-64,-34,-16,-10
1491090631666,3,-25,-28,-39,40,-14,-25,9,18
1491090631667,0,20,3,-11,24,-22,-9,1,-7
1491090631667,0,-8,-25,-21,-79,22,76,-3,2
1491090631668,2,-25,-6,-14,-5,-63,-87,-12,-27
1491090631668,2,6,20,0,3,-8,-84,-22,41
1491090631669,3,4,2,0,-33,12,10,52,2
1491090631669,3,-15,-13,13,-5,32,-15,-27,-7
1491090631715,0,-10,-4,13,55,56,72,3,-14
1491090631715,0,-5,-17,2,-16,-14,45,-7,-29
1491090631716,1,20,8,3,29,23,17,4,52
1491090631716,1,14,19,1,-26,23,27,21,16
1491090631717,3,-8,20,-1,-66,-24,46,-9,-8
1491090631717,3,5,-13,-46,-39,71,112,-17,-28
1491090631717,0,5,9,33,51,71,36,4,-23
1491090631717,0,4,30,20,13,-19,50,52,7
1491090631764,1,22,-15,-18,-14,-19,-94,-29,40
1491090631764,1,-24,-2,29,-1,3,-3,13,2
1491090631765,2,-6,4,35,70,118,48,51,-33
1491090631765,2,80,11,-14,-36,-128,60,8,40
1491090631766,0,16,5,-16,-125,-13,74,-69,1
1491090631766,0,-20,19,19,114,53,-88,53,-27
1491090631767,1,6,-17,-12,6,2,-44,-31,31
1491090631767,1,-39,-19,-26,-72,-92,37,-1,-27
1491090631812,2,11,10,23,24,45,107,20,6
1491090631812,2,4,11,3,2,26,-30,24,-1
1491090631813,3,-12,-23,-24,-34,-16,18,3,-6
1491090631813,3,12,34,54,79,52,-53,-21,24
1491090631814,0,13,-7,-1,-40,-76,15,-5,10
1491090631814,0,-13,-4,-28,-62,-57,-34,-10,-27
1491090631815,1,-13,-12,-15,17,28,41,7,-1
1491090631815,1,-6,6,9,-121,-2,83,-29,-19
1491090631861,2,0,0,10,127,52,60,42,0
1491090631861,2,4,15,58,106,75,-77,-58,17
1491090631862,3,16,-11,-38,-33,-120,-50,18,-19
1491090631862,3,-25,-22,-44,-47,-39,-36,-31,-29
1491090631863,1,35,36,49,62,73,43,19,56
1491090631863,1,-38,2,10,32,-11,-13,-39,-45
1491090631863,2,44,10,-2,-53,-9,-60,89,54
1491090631863,2,-25,-26,-13,29,9,100,-2,-18
1491090631910,3,5,9,28,46,93,118,-9,11
1491090631910,3,0,1,4,-1,-97,-102,-1,-15
1491090631911,0,-25,-13,-26,-15,-47,-51,-45,23
1491090631911,0,15,-1,25,-76,71,100,29,2
1491090631959,2,2,-3,16,47,-72,-85,3,-12
1491090631959,2,9,7,-42,-104,-33,26,-56,-15
1491090632007,3,-4,-16,-18,-40,15,65,12,-38
1491090632007,3,11,-3,38,117,127,84,38,76
1491090632008,0,2,13,5,-45,-50,-17,6,-26
1491090632008,0,5,18,16,68,4,-12,10,10
1491090632009,1,5,-6,6,-40,-3,-42,5,-5
1491090632009,1,-25,-6,-10,-40,-25,76,-20,-39
1491090632010,3,-24,-19,-8,-90,-71,-49,-57,-29
1491090632010,3,10,-6,-33,24,-69,60,38,-2
1491090632056,0,-60,-18,-11,10,6,21,-22,-19
1491090632056,0,44,11,5,-30,-16,-25,-18,2
1491090632057,1,-7,-26,-37,-55,-20,-12,-11,34
1491090632057,1,23,29,46,18,58,28,26,18
1491090632058,0,-20,-10,-36,1,-46,-99,-42,-12
1491090632058,0,-33,-3,6,-13,8,80,-8,-26
1491090632058,1,-4,-6,-11,29,62,49,7,-16
1491090632058,1,-17,-3,5,31,30,3,5,7
1491090632105,2,20,13,14,-21,-33,52,4,-3
1491090632105,2,-16,1,17,41,60,19,-5,-31
1491090632106,3,5,-7,10,50,-9,34,31,10
1491090632106,3,6,2,-26,-74,-21,-89,-42,10
1491090632154,2,-16,-4,-1,46,8,50,15,6
1491090632154,2,-27,1,0,13,43,10,2,2
1491090632155,3,5,5,15,-53,27,42,18,-9
1491090632155,3,16,19,-1,-33,-30,76,41,10
1491090632156,0,8,-1,30,89,75,8,17,-9
1491090632156,0,-10,-32,-28,-64,-97,-35,-19,1
1491090632157,1,-2,15,-47,-45,29,31,23,28
1491090632157,1,17,12,20,1,40,41,-1,-7
1491090632202,3,5,0,-5,-32,-49,-99,44,-21
1491090632202,3,-6,-11,-12,-16,62,2,2,-34
1491090632204,0,13,21,29,-69,-27,77,40,48
1491090632204,0,-24,-6,-9,24,-47,-116,-15,-30
1491090632205,3,-6,-5,-23,4,-2,7,38,7
1491090632205,3,-11,-4,2,41,46,109,4,-29
1491090632206,0,4,6,-8,10,-34,-37,-5,13
1491090632206,0,6,1,16,88,19,-74,-37,0
1491090632301,1,-10,20,14,-88,-11,6,-27,2
1491090632301,1,-16,-7,-16,-29,16,52,46,-12
1491090632303,2,-17,-14,-11,14,-53,74,-16,-44
1491090632303,2,1,0,-22,-90,0,-53,9,-3
1491090632303,0,-19,-12,-11,74,12,-41,-12,-4
1491090632303,0,-1,-4,-3,5,19,-8,-6,-31
1491090632304,1,9,7,16,-10,-3,12,5,13
1491090632304,1,-9,-4,-9,-14,-23,27,8,-35
1491090632348,2,-39,-16,-25,-40,-22,41,-22,33
1491090632348,2,39,7,7,30,77,68,26,55
1491090632350,3,41,38,24,-1,-1,-65,-43,-34
1491090632350,3,-2,-4,-2,86,-66,-102,-24,-18
1491090632350,1,-44,2,8,29,58,2,61,25
1491090632350,1,62,28,26,-39,-82,17,-19,51
1491090632351,2,-8,25,17,-5,-47,-32,-26,-3
1491090632351,2,45,-27,16,66,110,46,47,24
1491090632397,3,-42,12,8,-40,-56,-7,-23,-25
1491090632397,3,-9,-10,-37,-93,-75,-16,-22,-1
1491090632398,0,-9,-28,-33,-13,5,-5,-18,-16
1491090632398,0,-19,20,15,73,72,46,36,22
1491090632399,3,-15,-14,-30,-101,-54,89,5,-68
1491090632399,3,-6,-18,11,90,127,-20,-17,13
1491090632400,0,31,-3,14,10,-61,-33,23,-8
1491090632400,0,-14,26,-7,-104,1,-122,-36,24
1491090632446,1,-21,-29,-9,57,1,61,17,14
1491090632446,1,10,15,20,11,21,-16,-34,29
1491090632447,2,30,-28,-35,16,-78,-17,28,39
1491090632447,2,0,23,9,-128,-41,57,-4,-53
1491090632448,0,58,32,27,45,50,51,23,22
1491090632448,0,-8,3,-7,-21,-71,-82,-32,-5
1491090632449,1,-3,-2,4,-35,127,71,45,-8
1491090632449,1,0,26,40,57,-36,127,32,-41
1491090632495,2,1,-16,-6,32,-6,-86,0,57
1491090632495,2,9,-7,-19,-12,-80,13,4,-61
1491090632495,3,21,5,10,55,54,-128,-52,49
1491090632495,3,-5,-33,-30,-56,-109,-37,2,-11
1491090632496,1,26,18,18,45,-18,-7,4,23
1491090632496,1,-20,-8,-43,-60,-60,-57,-34,-9
1491090632497,2,22,-10,-16,16,23,-17,-38,10
1491090632497,2,9,17,2,-1,-41,-81,-22,-2
1491090632543,3,-9,15,-4,-16,17,11,2,-6
1491090632543,3,13,28,58,81,56,39,47,14
1491090632544,0,-29,-23,6,-42,-20,102,-1,-17
1491090632544,0,17,-5,-5,64,78,51,-60,20
1491090632545,1,44,8,0,-19,-45,-49,62,37
1491090632545,1,-25,-15,-1,2,-9,-71,-45,-15
1491090632546,2,-1,-11,-19,-43,-31,-33,31,24
1491090632546,2,-61,-46,-28,-30,-65,-4,-11,-41
1491090632592,3,8,36,-19,-65,13,28,-49,-9
1491090632592,3,22,5,-6,-13,-14,-62,2,1
1491090632593,0,-31,11,37,117,47,-53,-29,3
1491090632593,0,-23,-13,8,44,10,-2,29,-6
1491090632594,2,35,16,-5,-30,1,33,-5,-17
1491090632594,2,7,3,-6,26,-49,76,28,32
1491090632641,3,12,9,20,17,12,10,8,-1
1491090632641,3,7,-21,-18,-24,-18,-76,-24,-10
1491090632642,0,-21,-17,2,87,22,61,-5,-38
1491090632642,0,2,7,-22,-66,-55,5,36,2
1491090632643,1,-29,-9,20,100,35,-42,4,-31
1491090632643,1,12,-14,-8,-24,-1,35,-23,14
1491090632644,3,-11,-27,-9,50,49,107,10,12
1491090632644,3,27,20,24,-26,-92,104,28,-7
1491090632690,0,-7,-1,-9,-6,-12,5,-16,38
1491090632690,0,-15,-7,2,-93,56,-37,-35,9
1491090632691,1,-12,-8,6,17,-13,-81,28,-2
1491090632691,1,50,17,0,30,69,5,23,36
1491090632691,2,40,20,59,-47,93,125,-16,-53
1491090632691,2,-13,2,10,30,-90,-116,-10,11
1491090632692,0,-7,-26,-29,11,-50,-56,7,-44
1491090632692,0,-10,2,6,16,41,-2,24,2
1491090632739,1,-11,14,44,45,69,107,4,-12
1491090632739,1,-2,4,-4,-24,-32,77,62,24
1491090632740,2,-36,4,-11,-33,-45,-128,-84,-25
1491090632740,2,21,4,15,36,30,-3,-9,15
1491090632741,1,19,-15,-19,-41,-111,14,-41,-9
1491090632741,1,-18,5,-16,-30,19,-39,-2,-39
1491090632742,2,34,1,-4,11,-21,-9,21,29
1491090632742,2,8,-1,8,-83,-30,4,20,-5
1491090632788,3,-11,11,-7,-2,49,39,-10,20
1491090632788,3,2,-21,4,21,59,22,29,-11
1491090632790,0,6,2,-30,47,-72,-57,-4,5
1491090632790,0,-21,-16,23,29,-15,-38,-31,5
1491090632792,2,-20,-11,-25,-50,-8,96,19,-24
1491090632792,2,13,-11,-21,13,20,5,15,-15
1491090632793,3,-17,12,32,14,-7,-75,-8,-7
1491090632793,3,16,26,27,53,69,3,-11,-1
1491090632885,0,-15,-13,-5,-45,28,8,4,8
1491090632885,0,-8,-12,-40,1,-83,25,-60,-14
1491090632885,1,-21,-16,-21,-128,-56,-88,14,23
1491090632885,1,17,18,44,88,41,-28,-7,0
1491090632886,3,-3,-13,-29,82,-54,64,-13,-3
1491090632886,3,38,12,51,66,-64,-73,-16,14
1491090632887,0,-14,-23,1,-40,37,-42,1,-7
1491090632887,0,6,-6,-31,72,-16,-7,-17,16
1491090632933,1,25,19,8,16,79,82,-29,10
1491090632933,1,-29,5,-1,14,55,58,71,-9
1491090632934,2,30,12,4,-39,-75,52,-3,-3
1491090632934,2,-11,-11,-2,-42,-1,4,-5,16
1491090632936,3,17,-7,16,38,3,-23,2,9
1491090632936,3,-6,3,-7,-15,-2,-16,-5,-8
1491090632937,0,-11,28,5,-8,-62,-128,-24,20
1491090632937,0,56,-5,16,40,48,34,24,-13
1491090632982,1,-9,3,16,-25,18,18,8,-12
1491090632982,1,-14,-10,-16,-13,-6,44,-48,-12
1491090632983,2,12,-7,-18,25,-17,-106,35,17
1491090632983,2,-40,-7,3,-11,4,5,5,-39
1491090632984,1,2,-10,-16,51,-121,15,10,-21
1491090632984,1,-7,-13,5,66,40,16,-5,4
1491090632985,2,-16,6,0,10,24,-56,14,25
1491090632985,2,-39,-39,-42,-65,-42,86,-4,-3
1491090633031,3,18,10,0,-57,8,-51,-14,15
1491090633031,3,-5,-23,-16,-51,12,39,0,5
1491090633032,0,15,19,43,54,11,-75,12,3
1491090633032,0,-11,-11,-5,33,4,-42,-27,12
1491090633034,2,-2,-10,-34,-79,-91,-46,-31,-15
1491090633034,2,22,5,4,-70,-24,-28,-13,31
1491090633034,3,-17,4,7,-106,7,6,26,10
1491090633034,3,30,-12,-27,47,13,75,14,11
1491090633080,0,-13,3,-11,17,29,31,-32,-23
1491090633080,0,14,6,11,18,40,22,46,-4
1491090633081,1,9,13,20,59,2,-49,-31,-41
1491090633081,1,-25,-3,8,-72,40,68,11,46
1491090633081,3,-3,-9,-2,-25,1,63,22,-14
1491090633081,3,23,5,8,2,19,-28,-20,0
1491090633082,0,-28,3,14,72,8,100,50,-10
1491090633082,0,-17,-27,-26,-38,-52,-50,-26,-12
1491090633128,1,-22,-11,-5,-82,-12,-119,-36,13
1491090633128,1,5,0,13,70,-13,69,-36,-46
1491090633129,2,5,12,9,-59,40,-72,23,48
1491090633129,2,-37,-17,-34,51,21,2,-18,-39
1491090633130,0,5,4,39,40,12,90,15,-3
1491090633130,0,-3,5,-10,-32,-84,28,6,-3
1491090633131,1,45,-12,-8,9,-9,-20,-2,11
1491090633131,1,3,3,-9,-30,5,5,-9,-19
1491090633177,2,47,15,16,58,62,115,2,26
1491090633177,2,14,8,36,30,29,-100,19,-30
1491090633178,3,-24,-9,-10,9,-32,-64,-79,28
1491090633178,3,-9,-26,-35,-112,-43,-128,-58,10
1491090633179,1,23,7,-34,-37,-40,107,62,-6
1491090633179,1,-38,5,10,-6,-3,-127,-64,-25
1491090633180,2,-30,-5,5,45,-40,2,-36,-14
1491090633180,2,21,-6,11,34,21,62,-6,14
1491090633275,3,4,13,26,-21,45,-21,15,-25
1491090633275,3,7,-5,-26,22,-30,57,37,30
1491090633275,0,-21,-25,-6,-35,33,51,16,-22
1491090633275,0,37,29,41,57,83,55,-26,10
1491090633323,1,-11,7,-6,-1,-30,-88,-4,3
1491090633323,1,-26,-15,-10,-28,-62,-82,-19,-27
1491090633324,2,68,0,-22,-106,-102,-20,50,31
1491090633324,2,-58,-18,-24,58,15,25,-68,-22
1491090633325,3,-15,10,23,55,31,17,18,-20
1491090633325,3,-29,-6,4,37,70,112,39,-22
1491090633372,0,30,12,2,5,-40,68,-19,48
1491090633372,0,-24,-19,-26,11,-58,-96,-48,-14
1491090633373,2,22,19,33,12,40,56,-11,7
1491090633373,2,-12,3,12,11,20,-82,12,-28
1491090633374,3,-38,-45,-23,-69,29,-78,-64,-6
1491090633374,3,33,42,34,26,28,-8,5,-8
1491090633375,0,13,13,-12,-45,-42,-36,20,-19
1491090633375,0,0,9,6,-62,-28,13,32,19
1491090633421,0,-18,-2,16,23,103,22,6,-8
1491090633421,0,-20,11,27,-25,-18,24,-14,-27
1491090633422,1,-6,19,24,3,104,35,-16,-11
1491090633422,1,1,-15,-28,90,-93,-87,19,46
1491090633422,2,-15,-10,-34,26,-10,-90,-71,-49
1491090633422,2,8,-25,-45,2,-19,-37,-9,-11
1491090633423,1,20,15,13,56,1,-17,-25,-31
1491090633423,1,-6,-6,-2,-20,7,79,1,-10
1491090633470,2,-8,0,5,33,-66,-128,-23,2
1491090633470,2,-1,-6,-4,10,6,15,9,5
1491090633470,3,16,-14,-17,-94,4,104,35,0
1491090633470,3,-9,10,11,120,-34,-103,-57,-36
1491090633471,2,-8,-35,-70,-128,-101,-83,-64,31
1491090633471,2,-6,4,12,108,33,84,55,-11
1491090633472,3,18,23,-24,-50,-66,-46,-37,-14
1491090633472,3,-48,-40,-48,-44,-21,-82,-30,16
1491090633518,0,-10,25,55,-64,44,50,-13,-6
1491090633518,0,9,14,25,93,44,38,21,10
1491090633520,1,28,-9,7,18,52,39,19,12
1491090633520,1,14,5,3,92,-12,3,44,-4
1491090633521,3,-14,18,-7,-82,-116,3,-4,9
1491090633521,3,12,-35,-94,-53,-81,-70,-9,49
1491090633521,0,30,-2,-13,41,17,96,16,-12
1491090633521,0,18,40,10,-28,-10,-50,-28,24
1491090633567,1,6,-4,37,60,61,31,33,-31
1491090633567,1,-29,-18,9,24,28,-82,-61,-13
1491090633568,2,-11,-20,-10,-17,-5,-105,34,8
1491090633568,2,17,9,12,-6,2,107,-30,3
1491090633569,0,-9,-18,-14,34,44,56,24,-50
1491090633569,0,-1,16,3,-19,16,-50,1,4
1491090633570,1,13,2,29,15,-19,-74,-14,15
1491090633570,1,-15,6,17,-112,75,127,0,-18
1491090633616,2,-2,1,-14,87,-33,-93,0,24
1491090633616,2,-12,-33,-36,-55,-100,-103,-4,3
1491090633617,3,-14,-11,-13,12,-76,-118,-42,-27
1491090633617,3,-1,5,26,-15,52,97,36,-12
1491090633617,0,31,24,57,-37,-63,39,22,31
1491090633617,0,-8,-39,-115,-128,-127,-69,-50,-40
1491090633618,1,-1,-17,-11,50,85,65,41,12
1491090633618,1,-17,18,26,-10,-3,37,-15,-22
1491090633665,2,23,13,-7,36,37,21,9,31
1491090633665,2,-4,20,31,23,53,6,58,-22
1491090633666,3,4,-5,32,53,-26,-35,-46,85
1491090633666,3,1,3,-20,7,39,66,14,-24
1491090633667,1,22,14,-24,-58,-97,-89,-29,5
1491090633667,1,1,-16,-51,-86,-69,-88,16,10
1491090633667,2,-13,-15,-7,-26,-1,23,-41,-8
1491090633667,2,-44,1,-2,110,59,72,58,-24
1491090633713,3,-21,-25,31,17,122,127,-32,-47
1491090633713,3,73,52,44,57,-35,-97,22,31
1491090633714,0,4,-13,-41,-42,24,9,-28,-12
1491090633714,0,-11,-13,-7,-65,-95,-10,-12,12
1491090633715,2,27,2,-4,-12,-27,-49,-12,9
1491090633715,2,3,-7,-32,-85,-22,98,-2,26
1491090633716,3,0,1,-1,46,10,54,26,-7
1491090633716,3,-11,7,1,49,16,-109,24,14
1491090633762,0,-26,1,15,-3,13,-73,8,-11
1491090633762,0,40,-3,11,39,13,-45,-6,32
1491090633764,1,-13,-6,-21,-53,-32,41,35,-23
1491090633764,1,-5,7,8,24,61,-51,-67,-17
1491090633764,3,-48,-21,-22,21,26,11,-3,8
1491090633764,3,31,-8,17,47,29,38,38,12
1491090633765,0,20,10,7,-27,40,15,5,-1
1491090633765,0,-44,8,5,91,21,28,-56,4
1491090633811,1,26,4,-12,-19,-20,-32,63,14
1491090633811,1,-7,-19,18,41,45,71,-5,-24
1491090633812,2,12,34,16,69,-17,53,18,31
1491090633812,2,-11,5,-15,-87,-52,-17,8,-14
1491090633813,0,9,8,16,18,-27,-60,-26,-21
1491090633813,0,-39,4,35,39,56,-7,-6,-6
1491090633813,1,2,10,7,77,-37,86,57,7
1491090633813,1,-8,-3,-60,-81,-104,-125,-34,-5
1491090633860,2,-14,-32,-15,20,66,64,-19,-21
1491090633860,2,46,13,20,24,46,19,34,33
1491090633861,3,-3,23,30,32,67,-35,-8,8
1491090633861,3,-4,2,-15,-6,-15,100,49,1
1491090633862,1,14,24,30,-22,11,-30,-42,-19
1491090633862,1,7,-16,-6,-8,-21,-19,-23,1
1491090633862,2,-20,-5,-19,33,37,45,29,-21
1491090633862,2,25,19,-5,-29,-27,42,9,14
1491090633909,3,34,-11,13,10,101,-63,39,11
1491090633909,3,-35,-11,0,68,-116,47,-56,-33
1491090633910,0,-22,-46,-90,-120,-64,-128,-48,7
1491090633910,0,-8,14,28,93,79,52,16,-8
1491090633911,2,-12,-7,43,66,-17,36,28,-18
1491090633911,2,-20,-15,-14,-46,-49,2,11,-22
1491090633912,3,23,-3,-2,9,-2,-128,9,38
1491090633912,3,-6,-20,-11,-91,14,69,-12,-49
1491090633957,0,5,17,20,57,52,127,22,42
1491090633957,0,3,11,0,-95,-88,-110,-21,-1
1491090633958,1,-87,-38,-35,-25,-60,-70,-29,-55
1491090633958,1,5,-1,10,-16,58,-108,-21,-29
1491090633959,2,33,17,22,34,35,46,37,44
1491090633959,2,-10,6,-9,-8,55,7,-19,-37
1491090633960,3,-21,-33,-28,-63,-128,-84,-12,-11
1491090633960,3,-3,-8,-54,-114,1,44,12,11
1491090634006,0,-28,-14,14,39,3,21,11,-24
1491090634006,0,42,36,42,78,126,25,5,41
1491090634009,1,-10,7,0,-15,-10,60,-7,10
1491090634009,1,-22,2,16,39,1,19,4,8
1491090634013,3,18,6,-38,40,-17,-94,-14,-20
1491090634013,3,-12,-65,-55,-79,-128,-68,-1,17
1491090634013,0,21,33,7,27,65,53,-35,-12
1491090634013,0,-22,-2,-23,-20,-114,-75,-18,1
1491090634105,1,3,14,20,-14,22,-33,-41,0
1491090634105,1,-15,-15,16,127,98,3,-11,-1
1491090634107,2,24,-20,-27,-118,-29,19,18,-6
1491090634107,2,13,0,-5,-6,32,116,-14,23
1491090634108,0,-22,1,-3,25,-32,-42,-45,-8
1491090634108,0,36,-1,-13,4,-26,-27,45,24
1491090634109,1,-9,-41,-15,-22,36,97,-31,-50
1491090634109,1,-15,22,-15,12,11,-70,28,44
1491090634152,2,5,12,29,-23,23,38,7,4
1491090634152,2,4,-9,12,35,59,-99,-12,1
1491090634154,3,-21,0,-1,-56,-88,-22,-1,0
1491090634154,3,41,-19,-63,-97,11,17,-62,-44
1491090634155,2,-32,-21,19,-49,17,16,-45,-28
1491090634155,2,-2,13,-42,-68,-29,87,9,0
1491090634156,3,39,5,17,36,107,27,36,-1
1491090634156,3,24,27,30,-77,-62,108,18,-7
1491090634201,0,-8,-7,-34,2,-29,-26,-13,6
1491090634201,0,-25,-12,16,19,5,-5,-1,-1
1491090634203,1,19,10,-18,2,-5,-36,-13,13
1491090634203,1,-39,-28,8,44,31,80,35,-9
1491090634204,3,-35,1,9,-45,-31,-78,-12,12
1491090634204,3,47,11,9,13,-20,14,3,-38
1491090634205,0,-46,1,-20,35,27,41,-55,8
1491090634205,0,31,-1,18,67,-30,127,18,-2
1491090634250,1,-21,-14,-24,-101,-39,-68,27,22
1491090634250,1,-6,-18,-46,-43,-18,-15,4,1
1491090634251,2,-11,2,-1,-33,18,42,-19,20
1491090634251,2,47,24,12,114,43,58,37,51
1491090634252,0,-18,-26,-39,27,15,-37,-17,-28
1491090634252,0,-16,-18,-16,-15,-24,64,-16,15
1491090634253,1,25,-3,-7,-97,-26,81,44,48
1491090634253,1,-29,-17,10,127,30,-60,-4,-22
1491090634298,2,38,14,30,-69,30,24,-22,-32
1491090634298,2,-5,-1,-2,-42,-88,-92,27,13
1491090634299,3,-3,-41,-44,-19,31,100,9,-15
1491090634299,3,-3,45,47,48,76,5,-36,13
1491090634300,0,-18,-5,-28,-4,-117,0,20,29
1491090634300,0,-8,-50,-26,28,61,-6,-69,-17
1491090634301,1,3,63,55,37,-17,53,77,-13
1491090634301,1,14,-16,-26,-64,-7,-112,-23,-3
1491090634347,2,-4,-12,6,49,-28,-99,39,17
1491090634347,2,-23,-3,-7,-48,-55,29,-29,-40
1491090634348,3,-20,-17,-7,22,27,88,17,30
1491090634348,3,26,1,10,29,114,127,24,3
1491090634396,1,1,20,31,30,38,52,-27,10
1491090634396,1,-36,-1,-46,-107,-41,37,59,-10
1491090634397,2,-1,-28,-26,-7,-33,-128,-21,-7
1491090634397,2,-13,-30,-18,3,63,90,-32,11
1491090634397,3,67,56,33,62,0,-78,16,0
1491090634397,3,-47,-43,-12,-7,-79,-87,-39,0
1491090634398,0,-11,34,68,-57,99,61,-1,-46
1491090634398,0,-31,-3,-13,19,-109,31,13,5
1491090634445,2,-2,14,10,-51,-63,28,40,47
1491090634445,2,-5,19,33,64,33,60,-42,-25
1491090634446,3,-13,-28,-44,-23,-38,-90,-6,19
1491090634446,3,-21,5,-20,-23,-30,-56,-1,-37
1491090634446,3,-7,-15,17,-21,93,-27,-67,-7
1491090634446,3,-44,-6,15,36,3,48,22,-28
1491090634447,0,52,16,-5,96,-38,107,21,-15
1491090634447,0,1,-7,-43,-90,-108,-69,-39,1
1491090634494,1,-14,-38,-55,-58,-26,-23,0,-32
1491090634494,1,43,28,35,0,71,55,-26,39
1491090634543,2,3,3,-27,-15,5,-64,39,31
1491090634543,2,-9,9,22,42,66,90,11,-30
1491090634544,0,-37,-23,-8,7,24,26,11,-25
1491090634544,0,37,8,12,0,28,-20,-14,-15
1491090634545,1,-17,12,23,26,26,8,3,8
1491090634545,1,-11,-11,-10,-82,-15,-53,24,-23
1491090634546,2,0,-2,-16,40,-56,-14,-35,30
1491090634546,2,3,0,-3,13,33,40,-3,22
