1491090488733,0,0,14,-90,-112,-112,-58,-87,57
1491090488733,0,93,-7,95,97,-74,-74,20,-110
1491090488736,1,42,14,6,-71,36,98,-44,-83
1491090488736,1,-9,-12,38,81,81,-77,1,-36
1491090488736,2,30,6,81,103,106,-62,79,-11
1491090488736,2,-23,5,-23,-53,106,101,7,28
1491090488781,3,76,16,23,33,-24,59,16,-40
1491090488781,3,3,23,-40,-84,-72,-30,-74,22
1491090488878,0,-18,-9,58,69,34,124,65,42
1491090488878,0,97,-7,-119,-128,23,-128,27,46
1491090488879,1,27,6,59,127,30,84,7,33
1491090488879,1,78,-52,2,85,103,127,83,-45
1491090488880,2,69,20,-5,58,22,18,-24,-34
1491090488880,2,-65,-20,10,109,-10,0,-25,12
1491090488881,1,-46,-43,-82,-103,87,-128,-108,-17
1491090488881,1,-49,-11,-1,40,10,127,58,9
1491090489024,2,-14,-2,85,33,127,71,54,-5
1491090489024,2,-62,47,3,10,-106,2,29,-14
1491090489025,2,37,-7,-45,-51,-15,75,4,-56
1491090489025,2,89,-23,-7,-79,127,67,-3,20
1491090489026,3,33,39,31,115,-108,-106,84,29
1491090489026,3,5,11,21,-77,107,-44,-77,-47
1491090489073,0,36,0,-10,-124,-19,54,31,33
1491090489073,0,-4,-10,-64,-83,-108,-94,39,-4
1491090489074,1,-36,-13,-2,2,15,78,-83,-3
1491090489074,1,99,35,35,54,106,70,79,104
1491090489075,2,-118,9,82,127,-118,-128,-26,-43
1491090489075,2,78,-39,-80,-128,101,100,-104,-42
1491090489075,0,23,5,12,21,52,26,-42,43
1491090489075,0,-19,10,48,-8,-4,35,51,3
1491090489122,2,1,-10,38,12,85,86,12,16
1491090489122,2,-37,5,50,-46,13,-16,48,-68
1491090489123,3,12,24,-13,-61,-91,127,116,91
1491090489123,3,-22,-39,-29,-33,41,-88,-8,-51
1491090489124,3,7,-11,-33,86,-81,76,17,-70
1491090489124,3,60,-60,-83,-68,-128,-123,-71,68
1491090489124,0,-25,14,17,24,81,66,7,-54
1491090489124,0,127,19,-19,12,-54,-78,-128,127
1491090489170,1,-94,2,68,-82,-15,-7,36,-105
1491090489170,1,34,14,51,-4,65,127,-1,-69
1491090489172,2,92,-57,-87,-128,-128,-128,-4,-26
1491090489172,2,-128,48,65,103,120,127,1,-28
1491090489173,0,3,20,108,18,65,36,65,5
1491090489173,0,-2,-8,-68,124,-128,58,-5,-47
1491090489173,1,-16,-44,-24,2,127,-99,-24,35
1491090489173,1,-68,27,15,49,-122,78,34,-21
1491090489268,2,54,-25,-57,46,4,-12,50,36
1491090489268,2,-6,22,42,81,92,-9,5,54
1491090489270,3,68,13,21,-9,51,-29,36,-15
1491090489270,3,-28,42,75,111,-36,-10,-53,-24
1491090489270,1,51,-43,-67,-109,13,48,27,-1
1491090489270,1,-34,9,67,81,127,89,58,4
1491090489271,2,25,52,75,-97,37,-128,-128,10
1491090489271,2,-11,-10,-19,-92,-62,30,31,16
1491090489317,3,61,-17,-59,-84,78,-17,-81,-14
1491090489317,3,-9,-9,8,-5,93,49,7,-3
1491090489318,0,-59,15,8,-22,-106,35,29,-59
1491090489318,0,53,-3,22,51,127,33,-28,59
1491090489319,2,69,-18,-55,-92,-89,35,30,29
1491090489319,2,-3,-33,-48,99,-109,-11,-87,45
1491090489320,3,1,12,-76,36,-44,-8,77,31
1491090489320,3,51,-40,-48,-128,10,-128,-118,-48
1491090489366,0,11,24,66,127,67,63,83,-10
1491090489366,0,-42,-8,6,-15,-63,88,8,-18
1491090489414,1,-26,-15,41,27,81,91,63,54
1491090489414,1,-16,17,20,93,-105,-110,-27,18
1491090489415,3,70,-31,-55,109,38,-91,-56,23
1491090489415,3,40,0,32,-79,-119,127,63,-37
1491090489416,0,-36,-33,-76,60,36,101,79,12
1491090489416,0,20,23,70,37,127,-128,-78,29
1491090489416,1,-82,39,107,-83,-42,67,-58,-115
1491090489416,1,-11,-26,-101,-110,-3,19,24,69
1491090489463,2,9,-9,11,-97,39,39,5,51
1491090489463,2,-83,-24,-4,-1,-128,29,-12,-12
1491090489512,0,19,-20,-27,-75,-128,-31,61,61
1491090489512,0,49,48,30,36,123,-106,-89,-82
1491090489513,1,21,-38,-104,-14,-128,-66,-71,-33
1491090489513,1,20,-13,-19,-90,120,64,-51,-4
1491090489514,2,-62,8,-36,127,-25,-27,46,-25
1491090489514,2,65,-39,-49,-71,-118,-83,-107,-9
1491090489519,3,-71,-3,43,-44,9,-37,44,-56
1491090489519,3,36,34,1,-31,52,0,19,18
1491090489560,0,-42,43,127,110,120,127,-48,-87
1491090489560,0,0,-14,-93,75,-109,-82,29,41
1491090489561,2,8,-25,-45,-97,-58,-55,9,-95
1491090489561,2,-29,30,47,49,6,125,9,10
1491090489562,3,-6,2,-5,-19,-5,89,13,42
1491090489562,3,-24,35,98,70,25,-82,71,19
1491090489563,3,-77,-3,26,-74,-80,-47,20,-37
1491090489563,3,-7,5,8,-70,-106,-57,-112,-78
1491090489609,0,-27,-10,-31,115,-12,45,60,32
1491090489609,0,24,-25,-88,-116,2,-34,-16,7
1491090489610,1,53,-15,-44,94,-3,-6,-52,-46
1491090489610,1,20,-57,-71,74,44,15,-2,-22
1491090489610,0,-22,9,-9,112,105,127,-11,41
1491090489610,0,9,39,-25,-10,-51,-92,-13,2
1491090489611,1,61,-54,56,-79,21,-19,-19,-16
1491090489611,1,3,75,51,127,-64,48,-8,-58
1491090489658,2,14,-36,8,-94,-56,-23,3,54
1491090489658,2,-37,25,80,-82,-128,73,38,-32
1491090489659,3,69,-117,-128,56,27,-115,-31,57
1491090489659,3,-27,92,88,-120,53,100,7,14
1491090489659,1,18,47,27,-9,121,111,27,-5
1491090489659,1,-36,-92,5,-29,127,53,53,12
1491090489660,2,39,105,15,-13,-98,-30,-75,17
1491090489660,2,19,-99,-30,-10,-37,-8,36,41
1491090489707,3,-47,-19,-13,14,16,50,-12,-82
1491090489707,3,-29,25,-55,37,101,-110,43,42
1491090489708,0,-46,-52,29,-43,3,-102,-26,16
1491090489708,0,-117,67,42,-41,-100,79,27,-31
1491090489710,1,7,-30,-78,35,1,-76,-74,110
1491090489710,1,-20,32,106,19,4,110,25,-58
1491090489710,2,31,60,8,-67,52,6,62,42
1491090489710,2,71,-92,-81,-11,-71,-87,-70,47
1491090489755,3,23,28,21,-45,-51,22,69,-18
1491090489755,3,49,-12,-55,20,14,63,-6,-32
1491090489756,0,-21,-63,-63,-7,124,127,78,14
1491090489756,0,46,88,99,108,127,-91,-76,11
1491090489757,2,-120,84,94,-48,92,-33,52,45
1491090489757,2,-34,-62,-47,23,24,49,48,29
1491090489758,3,16,-18,-19,-15,14,-125,-112,5
1491090489758,3,44,23,4,-61,-76,104,84,-48
1491090489804,0,59,-36,-32,43,-125,-7,-69,-101
1491090489804,0,28,9,-12,60,107,6,22,57
1491090489805,1,14,23,18,-47,-115,106,35,-43
1491090489805,1,32,-13,-9,83,-113,-128,-5,72
1491090489806,3,21,-1,12,-50,-123,24,65,-24
1491090489806,3,56,-10,5,78,23,51,-24,-20
1491090489807,0,72,-1,68,118,98,-15,-3,13
1491090489807,0,46,29,-61,-67,-104,-121,10,-31
1491090489853,1,56,0,-39,-22,120,26,-53,3
1491090489853,1,39,-42,3,-13,57,82,25,-13
1491090489854,2,22,10,-13,8,-99,-71,-112,-3
1491090489854,2,1,8,18,28,41,127,110,67
1491090489855,0,127,4,26,111,56,80,-8,12
1491090489855,0,60,-12,43,-32,-108,12,-92,-72
1491090489856,1,38,-10,-1,115,110,121,99,33
1491090489856,1,13,4,37,37,-59,-121,-62,49
1491090489902,2,-34,-11,-62,-128,-128,101,39,-6
1491090489902,2,-92,-36,-28,68,99,6,-47,-57
1491090489902,3,-25,-16,-14,-52,-27,-116,-79,45
1491090489902,3,-126,-10,14,-5,-29,48,87,5
1491090489903,1,-7,40,45,-22,121,32,-34,72
1491090489903,1,16,-11,-14,-17,58,19,-19,-55
1491090489904,2,-38,-77,-109,43,-115,-22,-1,-17
1491090489904,2,-30,16,9,35,51,20,-44,38
1491090489950,3,-122,3,56,-37,1,-3,36,-28
1491090489950,3,-80,34,8,48,74,78,53,4
1491090489952,0,-6,14,-31,-58,-44,-21,-48,94
1491090489952,0,23,-11,21,-97,105,31,-31,-60
1491090489953,2,42,13,13,83,106,-34,-29,24
1491090489953,2,6,-13,-43,81,-16,-63,-13,-33
1491090489954,3,52,-19,9,56,107,-71,-110,26
1491090489954,3,-4,14,20,-7,66,25,40,-35
1491090489999,0,45,16,52,2,101,-60,22,20
1491090489999,0,-41,23,-2,18,-91,47,-18,-23
1491090490000,1,-46,-44,-50,61,-53,-52,81,15
1491090490000,1,13,12,69,122,60,-101,-40,2
1491090490002,3,-83,29,61,6,-1,91,100,-43
1491090490002,3,76,7,-43,-53,-128,-128,-62,48
1491090490007,0,-38,-63,-32,-87,59,116,52,-57
1491090490007,0,12,39,98,-73,5,16,88,55
1491090490048,1,45,-54,-120,-31,-92,79,-21,-24
1491090490048,1,54,-4,-15,-111,83,-125,-87,17
1491090490050,2,-100,6,47,127,-127,127,113,-64
1491090490050,2,92,-5,-35,42,-37,-93,-120,43
1491090490051,3,8,32,-23,3,76,19,-36,36
1491090490051,3,-49,-31,24,-38,81,114,89,-74
1491090490052,0,-61,22,-17,-27,43,34,25,15
1491090490052,0,12,7,-10,109,50,-26,103,63
1491090490097,1,64,31,111,-41,-37,-128,-60,26
1491090490097,1,-84,-29,-14,12,-93,48,13,-33
1491090490145,2,-47,46,38,-92,-39,35,114,5
1491090490145,2,39,-29,-96,105,-54,-71,-49,10
1491090490147,0,37,-12,17,13,-20,-128,-24,-26
1491090490147,0,-23,27,68,-109,50,123,-104,-100
1491090490148,1,-92,9,32,95,-118,1,112,-5
1491090490148,1,49,33,38,-47,-45,37,-72,-4
1491090490149,2,16,2,-54,-68,27,-15,-44,5
1491090490149,2,-32,-68,-65,-128,-23,99,83,-12
1491090490195,3,16,72,23,60,18,1,46,58
1491090490195,3,47,-19,-31,-34,-63,-33,-8,-55
1491090490196,1,-124,-43,53,30,29,127,55,-35
1491090490196,1,-69,9,19,-6,-68,-128,-24,-29
1491090490197,2,41,5,4,4,-73,-106,19,27
1491090490197,2,18,-26,-23,-90,-29,83,-116,-24
1491090490197,3,44,33,45,82,102,97,-39,14
1491090490197,3,-113,1,0,-74,0,96,90,19
1491090490243,0,101,-18,-41,84,-78,-79,-103,-17
1491090490243,0,-18,1,-7,-13,22,-12,26,-36
1491090490244,1,97,-51,-110,19,-62,34,-53,13
1491090490244,1,-17,-13,-8,15,-18,-57,-47,-34
1491090490244,3,-26,32,68,-15,100,-47,-10,-21
1491090490244,3,47,21,16,55,-24,-42,10,-11
1491090490245,0,5,-29,-46,-82,-124,-95,-86,-74
1491090490245,0,-19,-85,-91,-94,101,3,53,3
1491090490292,1,-36,36,38,72,13,-10,4,-7
1491090490292,1,49,-10,-20,-46,-17,5,-49,26
1491090490293,2,-25,26,22,127,110,50,26,26
1491090490293,2,15,24,27,0,-128,-8,36,-3
1491090490293,0,47,-9,-78,-40,-81,73,-28,30
1491090490293,0,-18,12,17,57,74,127,47,-7
1491090490294,1,53,24,-17,-90,-31,-128,-73,-3
1491090490294,1,-61,-10,-23,-28,39,107,61,-25
1491090490340,2,-85,-34,34,38,25,117,11,62
1491090490340,2,12,54,0,65,81,-118,42,49
1491090490341,3,84,-14,1,-97,-128,-79,-92,-28
1491090490341,3,-21,-18,29,125,115,127,25,-40
1491090490342,1,18,-30,-97,-13,32,31,-15,13
1491090490342,1,2,19,58,-45,-73,72,44,67
1491090490343,2,0,-7,-40,90,-7,-59,-36,-101
1491090490343,2,-57,-35,-49,-128,-90,9,-21,-31
1491090490389,3,0,22,-48,39,56,55,31,-19
1491090490389,3,55,24,55,8,-55,57,-2,53
1491090490390,0,8,-2,47,46,73,-38,-37,-76
1491090490390,0,-5,35,57,-50,95,-54,-45,-32
1491090490391,1,-31,-95,-74,-122,-128,90,29,44
1491090490391,1,-66,6,-64,28,39,-6,72,-30
1491090490391,2,14,23,63,-83,58,52,12,91
1491090490391,2,20,-27,-10,94,-128,35,-48,2
1491090490438,3,16,-52,-60,-111,-41,64,34,-47
1491090490438,3,-30,-16,12,57,86,-82,15,-11
1491090490439,0,21,17,19,-52,-15,-128,-69,-17
1491090490439,0,-9,6,13,91,127,-29,-26,9
1491090490439,2,-29,-8,18,70,-25,-3,-32,48
1491090490439,2,34,-19,-45,-70,-1,90,-33,-47
1491090490440,3,-37,22,18,37,-128,68,87,-4
1491090490440,3,89,-43,-30,21,95,-69,-14,-23
1491090490487,0,-58,29,36,81,-48,-87,-52,34
1491090490487,0,95,43,77,-22,86,34,57,7
1491090490488,1,6,4,-21,-51,-41,30,14,-78
1491090490488,1,-4,-34,-37,-46,-54,-49,-83,24
1491090490488,3,50,0,-3,127,57,-8,-43,-53
1491090490488,3,-67,-46,-63,-95,-92,99,-79,-47
1491090490489,0,41,1,-16,-37,6,-9,-35,5
1491090490489,0,-103,15,22,36,54,104,52,-79
1491090490535,1,-43,13,14,88,8,-128,54,127
1491090490535,1,-9,14,84,48,8,-43,-43,-59
1491090490536,2,12,37,18,4,58,119,85,19
1491090490536,2,-36,-11,-23,-76,3,114,11,22
1491090490537,0,23,-2,-2,13,107,-74,26,79
1491090490537,0,55,19,25,-120,-57,-46,-11,-31
1491090490538,1,8,37,51,-18,-4,-128,-44,75
1491090490538,1,29,20,5,58,39,98,-21,-14
1491090490584,2,25,-37,-5,-43,-57,117,52,-53
1491090490584,2,-45,-7,-21,-44,-6,-47,-2,-51
1491090490585,3,-6,-28,10,-22,-46,-84,-6,37
1491090490585,3,-1,48,-3,119,22,46,42,24
1491090490586,1,44,16,8,-83,19,104,49,-50
1491090490586,1,-11,-2,42,86,100,77,28,57
1491090490586,2,-73,-4,16,49,-34,-72,-23,-80
1491090490586,2,0,-19,-25,-24,-52,-14,41,53
1491090490633,3,13,1,27,-24,13,77,-8,-40
1491090490633,3,9,-4,-8,-103,17,-8,2,120
1491090490634,0,92,-25,-62,23,-28,12,-85,-93
1491090490634,0,113,10,-1,31,-39,-128,7,-40
1491090490635,2,-128,-8,-2,-2,42,15,23,28
1491090490635,2,-2,14,27,-68,21,120,19,-21
1491090490636,3,78,-40,-83,-21,-41,-55,-22,1
1491090490636,3,42,-18,-57,-34,-51,-105,-37,20
1491090490682,0,12,10,1,-8,-32,33,-12,-26
1491090490682,0,-95,17,51,3,111,127,14,-5
1491090490683,1,-65,32,86,76,127,-52,1,-18
1491090490683,1,-33,2,-6,-82,-111,65,77,-21
1491090490685,3,36,-5,9,27,75,112,74,-11
1491090490685,3,-80,-6,16,21,49,-128,7,-9
1491090490686,0,77,-10,-17,-1,-105,-59,-48,-25
1491090490686,0,-20,2,-3,-30,-27,67,101,31
1491090490730,1,-7,18,-2,-69,33,77,39,-10
1491090490730,1,-14,0,24,127,-38,18,12,32
1491090490731,2,-23,17,6,-69,-19,-66,-4,-20
1491090490731,2,-17,-5,-10,-51,1,-20,-105,25
1491090490732,3,-59,-21,-3,-88,-78,77,3,-75
1491090490732,3,47,-27,-29,-65,115,9,43,-38
1491090490733,0,-99,-41,-24,127,-39,119,21,127
1491090490733,0,96,20,14,117,1,-128,-80,39
1491090490780,1,-46,37,74,96,101,114,52,-19
1491090490780,1,-60,-34,-36,-63,-117,113,-16,-64
1491090490780,2,91,-18,-29,-57,-27,-4,10,14
1491090490780,2,-112,-6,23,26,55,-41,74,60
1491090490781,0,-76,52,86,-17,85,5,-74,-26
1491090490781,0,46,-35,-111,-128,-41,102,80,5
1491090490782,1,120,0,-38,-21,-128,-128,-105,78
1491090490782,1,30,5,43,8,43,-35,10,-63
1491090490828,2,-123,1,80,83,101,106,61,-73
1491090490828,2,105,7,-38,-42,-124,64,31,20
1491090490829,3,28,-18,-48,-70,-92,-90,-34,14
1491090490829,3,-11,-19,-4,-30,83,84,-56,-18
1491090490830,1,113,-16,-34,96,-87,-44,8,-15
1491090490830,1,-44,-35,-48,-87,-83,-35,-91,30
1491090490830,2,52,16,-13,-103,-9,41,-45,-45
1491090490830,2,-85,-35,-107,-113,22,-89,-113,12
1491090490877,3,-14,26,86,70,59,127,110,43
1491090490877,3,111,15,-19,84,-44,-128,-58,-67
1491090490880,0,33,-13,-28,33,63,-26,37,69
1491090490880,0,34,26,61,98,-128,48,87,34
1491090490880,2,-72,50,58,-57,-5,73,66,-47
1491090490880,2,123,-27,-31,64,-62,-128,-30,24
1491090490881,3,-34,15,68,61,127,127,3,18
1491090490881,3,-21,-71,-89,-63,-128,-50,51,29
1491090490926,0,88,-31,-95,-64,19,-103,-35,29
1491090490926,0,-128,22,69,40,101,35,6,34
1491090490927,1,48,28,16,-39,17,-11,-113,-74
1491090490927,1,-110,23,82,89,127,127,76,1
1491090490927,3,75,-66,-110,60,-108,-87,49,89
1491090490927,3,85,17,-36,-111,-1,41,57,-38
1491090490928,0,-5,4,37,53,38,-124,-60,-38
1491090490928,0,-59,8,-6,-5,48,119,-69,-23
1491090490974,1,30,59,23,-75,-75,-75,-42,-28
1491090490974,1,42,19,20,-3,22,81,56,14
1491090490975,2,-56,-29,28,-19,5,123,127,9
1491090490975,2,127,-22,-48,-37,-17,-28,-49,-27
1491090490975,0,-70,5,-23,-68,21,108,-1,-14
1491090490975,0,-3,-24,0,69,-102,-112,32,0
1491090490976,1,-52,49,51,51,121,-42,-15,-5
1491090490976,1,11,33,29,-55,-21,39,-13,-32
1491090491023,2,69,-20,-44,0,30,-38,-51,-10
1491090491023,2,-49,28,48,-52,-67,-55,16,7
1491090491024,3,102,-41,-59,-67,-38,-58,-33,-14
1491090491024,3,-70,-16,31,-91,-17,6,48,-54
1491090491025,1,-90,-47,-18,2,32,-30,-4,9
1491090491025,1,27,55,14,27,-14,38,-26,86
1491090491027,2,-4,27,11,-97,20,21,-28,-3
1491090491027,2,-1,-22,26,38,85,36,13,-28
1491090491072,3,41,-11,5,18,-68,98,23,-32
1491090491072,3,25,-18,-64,-125,-3,-128,-78,86
1491090491073,0,-24,-22,11,127,59,80,21,-38
1491090491073,0,67,-29,2,0,31,-106,-42,30
1491090491073,2,17,24,1,-128,23,-32,81,-23
1491090491073,2,28,-52,-49,117,-2,127,72,-91
1491090491074,3,-31,19,12,-84,60,-51,79,-8
1491090491074,3,43,-3,6,85,-125,-80,-54,41
1491090491120,0,-105,35,64,33,-14,34,34,-5
1491090491120,0,108,-39,-100,-100,-100,-102,3,-43
1491090491121,1,-53,-107,-62,46,61,62,-53,4
1491090491121,1,7,93,68,8,50,26,6,1
1491090491122,2,-103,-5,64,4,102,-54,-44,3
1491090491122,2,-35,19,40,29,-79,127,95,-47
1491090491123,3,32,-11,-65,47,-69,-71,15,23
1491090491123,3,-29,10,2,28,88,9,-50,4
1491090491169,0,110,-70,-120,-58,-128,-39,-61,-38
1491090491169,0,-75,59,47,12,121,30,-4,30
1491090491170,1,12,-25,20,115,-87,-88,-52,36
1491090491170,1,-63,28,43,12,54,65,-1,-45
1491090491170,3,22,-53,-53,-83,-18,14,28,-11
1491090491170,3,48,36,-36,-127,-77,10,-38,-2
1491090491171,0,78,16,30,86,10,7,60,100
1491090491171,0,18,-15,-49,-128,-90,-106,-128,-40
1491090491218,1,-37,43,55,127,67,-42,72,61
1491090491218,1,-85,-94,-41,-76,-33,17,-28,-34
1491090491219,2,37,17,16,36,81,-19,24,6
1491090491219,2,60,24,10,33,24,-74,-17,23
1491090491219,0,-24,7,-11,-77,-102,-100,-23,28
1491090491219,0,-30,-37,-33,-52,4,78,-68,-2
1491090491220,1,63,15,-4,57,89,94,-1,-47
1491090491220,1,-53,-12,19,44,82,-21,-29,-25
1491090491267,2,36,16,13,-85,-83,-128,-59,-8
1491090491267,2,50,-62,-79,-43,-104,-121,29,27
1491090491267,3,-28,77,70,-6,127,121,34,-22
1491090491267,3,38,7,23,48,-85,-64,74,-20
1491090491268,1,26,41,63,0,53,74,13,57
1491090491268,1,-52,2,37,-11,127,-79,-1,0
1491090491269,2,29,7,9,-58,-64,55,23,-67
1491090491269,2,-26,1,-30,127,-84,6,14,20
1491090491315,3,34,-32,-50,-27,26,96,38,48
1491090491315,3,14,24,11,-39,-14,37,-79,30
1491090491316,0,44,-33,-30,-36,-92,-106,-84,-64
1491090491316,0,31,32,40,-17,55,124,16,-45
1491090491317,2,-120,-53,-31,-85,99,127,13,61
1491090491317,2,-31,4,17,127,39,55,9,30
1491090491318,3,-34,55,9,-26,-54,-48,31,61
1491090491318,3,2,-8,15,14,112,39,53,-75
1491090491364,0,21,-14,-13,-37,-90,87,43,28
1491090491364,0,69,17,-7,-16,-92,-128,30,7
1491090491365,1,-11,-27,24,-70,56,-25,-89,-50
1491090491365,1,-6,-26,-42,45,-1,99,15,81
1491090491366,3,53,-47,-76,-128,-128,-128,-128,17
1491090491366,3,51,-38,-49,-108,-97,70,22,-48
1491090491366,0,112,21,-20,64,-1,-60,-98,3
1491090491366,0,-46,26,40,59,91,127,113,117
1491090491413,1,17,-3,31,-2,-12,82,-82,-87
1491090491413,1,37,47,81,-49,127,56,78,-44
1491090491414,2,-27,4,9,120,83,-64,-14,54
1491090491414,2,-45,-42,-51,-62,-115,-90,20,-31
1491090491414,0,61,-38,-75,-106,23,-17,31,-45
1491090491414,0,-85,15,58,111,127,44,-4,51
1491090491415,1,-71,-3,4,29,32,-64,-39,-46
1491090491415,1,19,0,-11,-45,-120,-69,14,-27
1491090491462,2,-7,-44,4,-45,-24,-14,-27,24
1491090491462,2,1,2,-46,-23,-80,14,-47,-16
1491090491463,3,11,-10,6,21,53,127,30,-44
1491090491463,3,-98,26,83,11,91,50,76,18
1491090491510,0,-32,13,-11,113,-98,-94,-128,4
1491090491510,0,-31,-29,-11,-102,-44,-37,57,-63
1491090491511,1,22,46,74,89,50,80,42,23
1491090491511,1,-57,-10,-1,12,-86,18,74,-58
1491090491512,2,83,-19,-79,-42,-60,-25,-47,11
1491090491512,2,8,-33,-15,-99,-7,80,34,0
1491090491513,3,40,14,2,78,77,-23,-35,1
1491090491513,3,6,-16,3,63,-23,-44,-3,-6
1491090491559,1,-31,-23,-33,-99,18,-27,53,45
1491090491559,1,50,44,34,40,97,-23,-33,45
1491090491560,2,-28,-12,-50,116,-113,21,20,-25
1491090491560,2,127,-60,-78,-102,-19,-128,-123,-25
1491090491561,3,-29,5,6,-14,-61,14,66,26
1491090491561,3,40,-2,-3,-71,56,83,-43,-42
1491090491561,2,3,0,-23,-128,42,64,35,-18
1491090491561,2,-73,23,-22,12,-30,-42,-19,-34
1491090491608,3,-89,-42,-23,-33,-53,-128,46,28
1491090491608,3,-34,42,95,108,119,-74,-2,-26
1491090491657,0,-39,-29,-9,-87,16,127,66,-17
1491090491657,0,66,48,-15,16,-56,64,-21,109
1491090491658,3,-47,-20,-14,57,-8,20,1,15
1491090491658,3,80,-48,-58,-96,-97,-36,-50,-14
1491090491658,0,-24,14,35,-20,24,-88,-19,19
1491090491658,0,-73,-24,10,57,-11,13,-5,-70
1491090491662,1,15,24,11,33,83,127,114,14
1491090491662,1,44,-6,-45,-110,-119,-56,27,10
1491090491705,2,-13,-30,-35,-29,-102,-92,-90,-13
1491090491705,2,101,19,36,0,100,-128,-21,29
1491090491707,0,-11,-25,55,42,81,81,-40,-27
1491090491707,0,55,40,-21,-128,-47,-71,-5,24
1491090491754,1,-69,28,49,-128,33,-11,-37,-39
1491090491754,1,21,4,-35,-50,-118,20,-23,33
1491090491755,1,-50,-1,21,-86,43,-103,-48,-40
1491090491755,1,15,28,24,102,31,28,16,-46
1491090491755,2,14,5,-9,-125,-58,13,-30,21
1491090491755,2,50,13,-6,107,-24,40,-12,9
1491090491756,3,-62,-20,28,55,83,64,7,-83
1491090491756,3,2,4,-31,-58,-78,-35,-19,69
1491090491852,2,-16,-13,1,13,-64,42,33,-49
1491090491852,2,46,-21,-31,52,-65,12,6,40
1491090491853,3,46,-14,-29,30,108,26,18,67
1491090491853,3,-90,-48,-57,42,-109,3,33,-68
1491090491853,0,79,59,-15,45,52,12,13,44
1491090491853,0,-18,25,43,4,127,-90,-48,-17
1491090491854,2,-51,-37,32,18,-11,-48,73,17
1491090491854,2,7,2,34,42,123,-69,-118,-59
1491090491900,3,-31,-1,-46,-31,-128,23,44,-29
1491090491900,3,-73,-74,-59,-45,116,127,60,12
1491090491901,0,30,48,38,2,12,-47,-107,54
1491090491901,0,127,-10,-68,-108,-65,-114,-23,-21
1491090491902,3,-51,-37,-17,80,-116,16,58,22
1491090491902,3,37,46,12,55,-30,-27,-75,9
1491090491903,0,5,-19,-52,-128,38,-118,-54,15
1491090491903,0,29,-30,-76,96,-90,89,-45,-10
1491090491949,1,-44,29,56,12,127,-13,-37,1
1491090491949,1,67,21,28,5,-2,-40,25,-33
1491090491950,2,10,-62,-20,-61,-70,-4,20,-65
1491090491950,2,-6,11,14,32,63,85,34,28
1491090491951,1,68,-30,-39,-9,-106,-23,31,37
1491090491951,1,-43,31,56,-9,22,96,71,-22
1491090491951,2,-27,-11,-23,-60,16,-24,-23,-40
1491090491951,2,19,6,25,33,17,14,16,15
1491090491998,3,100,-1,4,-17,82,24,46,20
1491090491998,3,12,0,23,34,-4,-68,17,62
1491090491999,0,-28,27,-31,15,-72,-17,-44,-46
1491090491999,0,-9,2,76,-25,127,94,-19,-10
1491090492000,2,18,-5,-5,-21,-128,-66,-29,-40
1491090492000,2,45,-14,-14,-33,9,-124,6,49
1491090492001,3,-13,29,66,-5,127,88,23,-40
1491090492001,3,1,32,42,60,-2,103,1,-8
1491090492047,0,23,8,10,111,39,114,-7,-14
1491090492047,0,-99,1,-1,-22,-24,3,81,20
1491090492048,1,23,-20,-35,13,-117,-76,-80,-10
1491090492048,1,-76,-16,18,45,117,127,26,28
1491090492049,3,62,8,53,-76,71,63,81,23
1491090492049,3,27,18,-14,8,47,-128,-60,9
1491090492050,0,-54,-14,6,53,-90,120,8,2
1491090492050,0,61,-20,-36,-49,24,-128,-54,-25
1491090492095,1,-23,5,30,-93,82,84,32,15
1491090492095,1,-54,33,35,98,-90,69,77,-31
1491090492096,2,30,0,-23,-57,-36,10,-41,54
1491090492096,2,-27,-5,11,-34,-53,-75,86,-18
1491090492097,0,-53,12,10,-21,-50,20,-12,5
1491090492097,0,27,-8,-35,1,-75,10,43,-3
1491090492098,1,-75,-9,3,78,86,70,53,-31
1491090492098,1,-6,-8,23,-34,-128,-89,-14,20
1491090492144,2,-103,17,18,-51,120,14,-29,-25
1491090492144,2,27,11,22,116,-78,8,40,40
1491090492145,3,82,-58,-85,-59,-13,-52,-113,15
1491090492145,3,78,9,-2,70,-34,-54,-8,-25
1491090492145,0,106,-5,21,106,96,32,47,30
1491090492145,0,-58,16,30,54,106,117,14,-11
1491090492146,1,-27,6,-28,-10,-100,-21,-33,0
1491090492146,1,-25,-33,-24,-21,-3,-3,3,6
1491090492242,2,17,-6,17,-20,27,31,30,8
1491090492242,2,-14,56,83,116,127,94,-25,5
1491090492242,3,-27,-13,-42,-99,-128,-16,95,-41
1491090492242,3,78,-25,-38,-83,48,-87,-111,30
1491090492243,1,-27,25,53,54,94,-78,-32,-19
1491090492243,1,-99,12,75,21,31,126,122,-45
1491090492244,2,114,-52,-115,-42,-37,-110,-87,8
1491090492244,2,18,-12,-5,-115,-23,26,-2,78
1491090492290,3,-77,11,12,-56,-19,69,-12,-9
1491090492290,3,30,12,26,79,101,31,0,-5
1491090492291,0,23,54,87,64,37,81,28,14
1491090492291,0,-20,-30,-17,9,31,-106,7,-25
1491090492292,3,-27,18,54,22,2,77,-17,-7
1491090492292,3,16,28,-42,-99,-79,86,15,86
1491090492293,0,39,-12,-2,63,-4,-83,-60,-19
1491090492293,0,-27,-12,-13,17,-2,-37,-57,-83
1491090492339,1,41,-12,-7,-45,12,45,-6,-10
1491090492339,1,-36,-37,-7,36,-30,-71,0,-83
1491090492340,2,-44,46,47,69,77,127,127,91
1491090492340,2,127,23,-3,-106,-69,-128,-128,-6
1491090492348,0,-10,-18,-11,118,-10,55,-75,-83
1491090492348,0,-36,-54,21,-112,-109,44,33,75
1491090492348,1,13,67,60,126,112,90,-36,-15
1491090492348,1,-35,-13,-41,-79,-29,73,3,-55
1491090492437,2,-70,0,20,-97,-40,-128,58,-14
1491090492437,2,19,-78,-121,51,-77,57,-16,-3
1491090492438,3,39,-20,-22,-13,-13,-128,-104,26
1491090492438,3,-36,49,100,127,101,76,73,15
1491090492438,1,-3,34,-11,12,18,-13,20,40
1491090492438,1,88,12,27,-23,8,-49,26,-34
1491090492439,2,-11,2,-13,18,56,52,-25,9
1491090492439,2,50,46,43,5,80,-54,77,5
1491090492485,3,-18,2,-22,9,-55,-22,-57,-8
1491090492485,3,-70,-14,71,-104,16,75,-33,40
1491090492486,0,14,1,-39,18,-99,-128,-59,13
1491090492486,0,14,-11,-46,-14,-2,1,30,-36
1491090492487,2,-7,-19,-7,127,35,-13,44,-13
1491090492487,2,37,-38,0,11,-49,-102,-64,8
1491090492488,3,-88,-26,13,68,67,127,18,-11
1491090492488,3,63,-49,-49,41,-18,48,1,18
1491090492534,0,-53,36,69,49,122,-87,4,-6
1491090492534,0,-10,36,19,40,-2,81,18,-1
1491090492535,1,24,-12,28,-91,-91,-89,-33,8
1491090492535,1,-39,-14,-64,33,-82,-54,35,-16
1491090492536,3,-87,16,22,-83,-97,-6,49,14
1491090492536,3,87,-3,-30,17,45,-86,-43,-4
1491090492536,0,39,15,20,-34,-63,9,30,1
1491090492536,0,76,18,10,13,22,56,46,21
1491090492583,1,-88,-6,33,-64,69,75,4,-74
1491090492583,1,-50,10,16,25,86,42,-16,13
1491090492584,2,20,1,-54,-106,-128,-29,-24,39
1491090492584,2,-17,-18,22,30,85,-20,-42,-5
1491090492585,0,-64,-56,13,-82,-19,69,37,-25
1491090492585,0,12,48,-12,73,-1,3,-73,51
1491090492585,1,64,-28,-42,51,-17,-29,-76,15
1491090492585,1,-71,21,37,-77,-8,101,63,15
1491090492632,2,38,7,-4,-10,28,-36,-1,-19
1491090492632,2,2,-23,53,75,103,103,-1,-73
1491090492632,3,-40,22,1,76,-47,101,46,19
1491090492632,3,106,3,-18,-34,-99,-99,-48,-7
1491090492633,1,86,-19,-63,-80,38,-87,-92,23
1491090492633,1,-83,-11,49,-23,66,85,42,13
1491090492634,2,-26,47,17,46,-33,93,77,32
1491090492634,2,55,-18,-58,-75,-66,-128,-67,17
1491090492680,3,8,5,46,58,115,-13,-51,-39
1491090492680,3,-30,17,3,64,-55,92,80,-45
1491090492681,0,-41,-27,-7,7,110,-18,-77,32
1491090492681,0,-68,8,21,-7,-128,-41,109,16
1491090492682,2,14,7,15,46,25,99,-15,-5
1491090492682,2,1,19,18,-7,39,75,51,0
1491090492683,3,-102,32,75,35,99,115,57,13
1491090492683,3,-45,17,-9,98,-62,-117,-42,-18
1491090492730,0,52,-28,-56,18,-41,-34,-53,-38
1491090492730,0,-32,-12,-7,-65,-26,62,-65,10
1491090492731,1,-48,4,38,84,68,-92,49,-3
1491090492731,1,99,-21,-17,-128,-34,-38,-31,9
1491090492732,3,-39,-64,-103,-128,-83,103,53,-127
1491090492732,3,-36,13,-9,-48,98,4,-10,41
1491090492733,0,4,-19,-22,72,-108,6,92,31
1491090492733,0,9,2,24,33,98,38,-70,14
1491090492778,1,32,36,32,127,-70,-107,-27,41
1491090492778,1,-52,-3,-9,-25,9,-38,65,3
1491090492779,2,40,23,0,-90,54,111,-50,0
1491090492779,2,-56,-14,4,-48,28,57,77,4
1491090492779,0,31,68,24,-24,109,42,23,-3
1491090492779,0,10,12,63,69,74,-64,-16,-2
1491090492780,1,-30,5,-46,-32,-68,96,34,-22
1491090492780,1,-26,1,-23,51,116,-75,-118,-69
1491090492827,2,40,-48,-40,-99,-66,-41,17,62
1491090492827,2,67,-36,-81,-66,-91,-106,-66,21
1491090492827,3,-26,28,43,35,97,-5,45,37
1491090492827,3,-37,4,37,-26,-46,64,-58,-45
1491090492828,1,-11,-3,5,57,58,61,18,43
1491090492828,1,8,16,26,-98,-71,-58,30,-17
1491090492829,2,-58,-11,41,-2,-22,-57,-27,-30
1491090492829,2,4,-13,-79,-83,-70,117,25,18
1491090492875,3,65,-35,-63,-17,-5,-36,-61,12
1491090492875,3,16,35,61,9,-40,5,-21,41
1491090492876,0,12,26,9,-88,-118,-103,-40,53
1491090492876,0,-82,-23,-1,-10,47,92,-44,-61
1491090492877,1,-14,-4,1,25,42,-59,21,2
1491090492877,1,127,11,20,66,93,-119,-55,87
1491090492878,2,-117,20,36,-52,75,112,84,-57
1491090492878,2,57,11,-16,48,-128,-95,33,18
1491090492924,3,1,-27,-17,30,101,60,-85,-59
1491090492924,3,26,8,6,-51,1,77,67,45
1491090492925,0,-20,-37,-35,32,-16,-110,-44,-38
1491090492925,0,-37,14,45,40,125,102,45,-28
1491090492926,2,19,-18,-19,27,18,88,0,-7
1491090492926,2,-23,-6,4,-56,-6,-2,29,23
1491090492926,3,-78,-14,55,55,96,38,-43,-41
1491090492926,3,47,41,-1,83,-106,127,29,2
1491090492973,0,18,-39,-97,-32,-48,-128,-53,0
1491090492973,0,-27,-15,-4,24,27,-17,-32,-7
1491090492974,1,59,46,27,21,90,75,10,-29
1491090492974,1,-33,-13,-1,10,13,60,-58,11
1491090492975,3,-20,-30,-68,-128,-76,14,15,31
1491090492975,3,-7,-8,17,10,46,16,77,19
1491090492975,0,49,10,-3,-21,-26,66,-49,-19
1491090492975,0,-4,29,26,66,78,-74,15,74
1491090493022,1,8,-17,37,-1,-80,36,28,-18
1491090493022,1,-61,-6,-64,-60,-58,-114,-56,23
1491090493025,2,38,-3,-2,-15,29,-65,-52,47
1491090493025,2,17,16,-36,-48,-26,91,104,-60
1491090493026,0,-32,23,57,-48,47,89,90,71
1491090493026,0,41,12,9,58,-26,-115,-60,0
1491090493027,1,-24,2,10,7,-99,-67,77,16
1491090493027,1,20,-37,-82,-128,-79,12,21,-5
1491090493071,2,-40,-63,-34,0,66,67,-3,-36
1491090493071,2,-40,60,93,62,53,-4,27,34
1491090493072,3,38,-26,-62,-85,-48,26,-15,-51
1491090493072,3,60,-14,13,-6,88,-94,1,64
1491090493073,1,-4,6,26,29,-15,-55,-85,-22
1491090493073,1,-100,-9,10,10,24,-41,-4,1
1491090493074,2,9,18,-17,40,-128,-52,-18,17
1491090493074,2,-36,-58,-66,-83,-32,87,-41,-59
1491090493120,3,51,57,24,54,104,47,-2,66
1491090493120,3,29,-1,8,3,-31,-34,24,-3
1491090493122,0,12,-3,6,15,47,-128,-80,-40
1491090493122,0,-44,12,12,1,4,63,77,-21
1491090493123,2,25,16,-46,102,-97,-128,-1,51
1491090493123,2,105,-15,-50,24,-86,-68,-27,-13
1491090493124,3,-76,2,28,-21,100,104,-13,2
1491090493124,3,9,-11,-4,-5,6,68,79,-25
1491090493169,0,-44,-20,-27,-64,-51,-71,-13,-49
1491090493169,0,57,6,35,-41,10,-104,-116,25
1491090493171,1,37,-22,-41,58,-28,6,45,15
1491090493171,1,-84,36,108,61,112,89,19,-43
1491090493172,3,67,-12,-27,-29,-97,-128,52,11
1491090493172,3,38,-31,-30,18,-54,-55,-3,-57
1491090493173,0,-21,25,49,-31,97,127,37,-9
1491090493173,0,-60,-20,19,-98,-43,69,19,-7
1491090493217,1,0,-22,-47,-20,-24,-62,-99,21
1491090493217,1,36,18,-22,-19,-69,16,35,25
1491090493219,2,4,8,68,-69,83,-76,26,-16
1491090493219,2,-111,-11,-5,86,-15,122,24,-48
1491090493220,3,43,28,-4,-55,57,-103,-7,-8
1491090493220,3,38,-18,-9,34,-128,-22,-16,56
1491090493222,0,19,15,60,73,127,124,-26,-12
1491090493222,0,18,-31,-50,-118,-102,-119,-48,-40
1491090493266,1,-33,19,-9,-17,19,75,45,67
1491090493266,1,-1,-11,-21,28,24,-67,4,17
1491090493267,2,1,2,-14,-57,106,124,-8,-68
1491090493267,2,46,42,60,76,-111,-33,-18,109
1491090493268,0,8,-11,-50,22,-69,-23,9,66
1491090493268,0,16,-21,-20,-80,4,-16,-69,-36
1491090493269,1,-28,-4,59,82,-4,35,45,-37
1491090493269,1,-47,-15,-25,32,-2,34,-49,4
1491090493315,2,57,-1,-24,-32,-66,57,48,-33
1491090493315,2,24,10,-16,-3,41,0,40,47
1491090493317,3,-6,11,24,127,107,104,0,23
1491090493317,3,-52,-41,-32,-103,-58,127,-73,-94
1491090493318,1,-31,-32,7,-49,84,65,17,-28
1491090493318,1,51,35,18,14,-96,-20,14,-5
1491090493319,2,-47,-11,-2,19,8,-52,-26,-8
1491090493319,2,69,-8,20,-1,117,107,112,-37
1491090493363,3,-45,52,47,-48,42,-4,17,45
1491090493363,3,20,-45,-89,-104,-56,19,31,-12
1491090493364,0,-23,51,87,-18,62,85,-40,1
1491090493364,0,-57,-2,-30,54,-81,-51,75,7
1491090493365,2,54,-17,17,-18,-15,51,7,-10
1491090493365,2,-33,-22,-33,-88,42,49,-18,-83
1491090493366,3,-17,17,-14,7,-39,71,17,13
1491090493366,3,34,-16,-2,5,2,-119,2,-3
1491090493461,0,-50,7,31,-74,97,66,45,-33
1491090493461,0,21,12,65,102,-107,60,-70,31
1491090493462,1,-73,-13,-35,-51,-15,-95,41,15
1491090493462,1,72,-14,-56,-116,-30,31,-46,-35
1491090493463,3,-70,-7,42,117,-12,-51,-57,-57
1491090493463,3,-21,40,76,35,127,68,54,-13
1491090493464,0,-23,-6,-45,8,-120,-96,-63,-57
1491090493464,0,59,-37,-25,0,127,-50,-29,54
1491090493509,1,-28,3,44,127,-110,29,39,-17
1491090493509,1,2,11,-26,-82,7,50,86,12
1491090493558,2,38,-45,-48,54,-26,-107,-76,-11
1491090493558,2,-47,10,43,67,10,-49,69,16
1491090493559,0,49,-29,-38,-32,-128,74,-89,-31
1491090493559,0,108,24,-6,-58,-1,-67,6,29
1491090493560,1,-33,-13,-73,-109,-79,91,24,38
1491090493560,1,68,-23,-58,-6,-98,-128,24,-7
1491090493560,2,31,1,2,-41,-23,-32,48,10
1491090493560,2,-60,-16,26,86,123,127,19,-40
1491090493655,3,-3,67,75,106,-64,85,55,23
1491090493655,3,69,-19,-32,-3,93,-109,-106,-1
1491090493656,1,67,-25,-13,9,-19,-128,-41,-30
1491090493656,1,-67,-5,-5,-111,19,64,49,-9
1491090493753,2,-3,-7,-9,-61,-49,79,-68,-4
1491090493753,2,-48,6,30,4,49,46,-4,-42
1491090493754,2,-22,-30,-50,-59,61,-128,-2,-38
1491090493754,2,74,-23,-45,27,-122,-15,-41,-9
1491090493754,3,24,20,14,-94,95,36,14,30
1491090493754,3,-41,4,27,127,28,-73,19,20
1491090493755,0,14,2,-3,-58,14,33,-14,4
1491090493755,0,-101,19,32,-26,33,96,-10,-62
1491090493851,3,36,-23,-54,-82,-64,60,-22,-5
1491090493851,3,-29,22,49,119,48,-4,-105,-44
1491090493853,0,-32,-36,-32,81,-50,-104,-8,18
1491090493853,0,1,-40,11,33,41,-50,-3,6
1491090493854,1,-28,21,24,116,53,15,-12,55
1491090493854,1,10,-20,-20,-128,-47,8,91,-23
1491090493855,2,-12,-17,-12,-49,-74,72,0,-7
1491090493855,2,-43,2,-3,-25,48,96,14,3
1491090493899,3,7,63,116,127,126,29,18,-11
1491090493899,3,11,24,19,-57,-60,80,49,40
1491090493900,0,-70,-6,-17,-40,21,-61,0,-46
1491090493900,0,96,-33,-95,28,-128,-87,-68,7
1491090493901,3,-26,-24,-26,-27,-47,-61,-26,17
1491090493901,3,67,-11,-18,-58,-58,-112,-11,30
1491090493902,0,43,8,-15,-79,-101,-96,-35,-1
1491090493902,0,13,-25,-71,-128,-50,19,1,25
1491090493949,1,8,-18,8,-68,-105,-68,-31,26
1491090493949,1,-37,-5,67,91,101,110,-14,-31
1491090493951,2,-10,16,-39,-50,-76,86,111,12
1491090493951,2,30,12,0,-32,-14,-118,-104,-17
1491090493952,0,-10,-72,-50,-8,75,45,-110,-9
1491090493952,0,-25,45,20,-27,7,101,77,37
1491090493953,1,2,11,-34,0,27,-23,-16,14
1491090493953,1,-6,8,47,42,22,88,56,24
1491090494000,2,25,-33,-11,44,62,-7,-63,-60
1491090494000,2,-12,-2,27,60,-1,21,21,21
1491090494001,3,49,44,109,65,-19,-13,-54,68
1491090494001,3,52,-24,-91,-123,-58,-62,22,-108
1491090494002,1,54,11,-49,-105,-68,-22,-26,-26
1491090494002,1,31,20,25,124,100,79,-6,50
1491090494003,2,-13,26,4,24,-128,-58,-9,10
1491090494003,2,2,-35,-38,-26,65,105,-23,13
1491090494046,3,19,-13,0,19,127,-10,-28,-46
1491090494046,3,-21,25,-13,-111,-71,-128,-58,10
1491090494048,0,-7,-1,28,-119,66,41,32,-4
1491090494048,0,-48,16,42,20,-81,61,-28,13
1491090494049,2,-22,16,-11,86,-61,68,-2,22
1491090494049,2,-6,8,26,-102,30,-128,-66,-76
1491090494050,3,36,-25,-43,65,-42,-5,56,60
1491090494050,3,-76,-35,-36,-84,-62,-67,47,10
1491090494094,0,20,56,70,101,67,50,39,-58
1491090494094,0,18,-21,-44,19,-19,-30,-38,18
1491090494095,1,-34,-7,12,-53,34,99,65,-65
1491090494095,1,10,53,35,43,14,-44,5,69
1491090494096,3,48,-19,-20,24,87,-19,21,-29
1491090494096,3,-36,-23,-13,-15,56,106,-45,19
1491090494096,0,56,3,-18,0,14,43,17,46
1491090494096,0,-34,43,65,26,127,-62,-24,-37
1491090494143,1,-67,-23,-47,-15,-128,127,73,5
1491090494143,1,42,-23,-29,27,-71,41,-98,-60
1491090494144,2,40,-4,11,-73,127,-93,44,49
1491090494144,2,-33,7,35,30,-93,-98,22,25
1491090494145,0,1,15,-20,-66,-3,-15,-6,9
1491090494145,0,39,4,-7,-83,-12,9,13,10
1491090494146,1,-100,23,50,14,100,127,53,-16
1491090494146,1,-31,16,55,19,51,75,96,4
1491090494192,2,36,-29,-48,14,-98,-115,-43,-10
1491090494192,2,66,57,75,-11,95,-60,18,44
1491090494193,3,-18,-23,-53,35,-79,90,-2,-58
1491090494193,3,-38,-1,44,-56,123,-81,-6,-9
1491090494193,1,20,37,74,-27,127,67,-20,47
1491090494193,1,-33,6,3,43,-75,8,-44,-24
1491090494194,2,4,6,-6,8,46,-64,81,13
1491090494194,2,-17,-32,-2,1,-23,-7,27,-58
1491090494240,3,-42,30,67,-83,90,65,5,-9
1491090494240,3,69,-5,-34,-51,-94,24,85,34
1491090494241,0,-18,1,-15,112,118,-88,-51,9
1491090494241,0,56,-32,-59,-52,-128,-42,13,10
1491090494242,2,-11,23,37,-26,41,-26,28,14
1491090494242,2,69,22,61,8,109,75,-12,-45
1491090494243,3,-61,10,-11,127,-35,-12,-64,36
1491090494243,3,100,-38,-87,-110,-115,-110,-98,-80
1491090494289,0,27,-17,2,-85,53,100,52,-54
1491090494289,0,-69,7,-10,92,-71,11,43,73
1491090494290,1,16,-1,0,-33,-70,-128,-91,-11
1491090494290,1,-33,32,54,107,63,51,10,21
1491090494290,2,-14,-50,-52,-87,-52,40,45,23
1491090494290,2,49,44,37,-28,84,47,-37,22
1491090494291,3,-28,-28,-2,15,66,20,69,-13
1491090494291,3,-44,-20,-7,28,-56,81,15,21
1491090494338,0,-13,-7,-7,-44,-57,19,1,-53
1491090494338,0,-6,30,87,77,90,-31,16,-5
1491090494339,1,58,-27,-96,-111,-1,56,-89,4
1491090494339,1,80,17,-14,3,-34,-128,26,67
1491090494339,3,45,30,66,50,93,2,10,31
1491090494339,3,-77,22,60,118,80,127,62,5
1491090494340,0,4,-30,-61,-102,-116,-47,-78,-1
1491090494340,0,73,6,-34,-71,-96,-125,-37,53
1491090494389,1,-9,-24,5,46,37,66,83,-31
1491090494389,1,-29,-6,5,-102,-47,-68,23,-23
1491090494390,2,10,66,102,1,74,109,110,78
1491090494390,2,-56,-39,-33,48,93,-91,-103,-10
1491090494390,0,20,-13,-13,127,-80,-85,-124,-1
1491090494390,0,-7,-52,-58,-94,-69,77,110,-5
1491090494391,1,-68,49,53,35,9,63,49,8
1491090494391,1,6,-33,1,-11,18,-17,-53,-21
1491090494435,2,-40,5,24,6,57,43,41,-23
1491090494435,2,-3,39,63,38,118,77,22,71
1491090494436,3,-77,-49,-46,-67,-128,-37,41,-36
1491090494436,3,-7,-4,18,76,66,90,33,-16
1491090494437,1,-8,-10,-41,-60,29,-107,-78,2
1491090494437,1,95,33,60,61,67,71,24,46
1491090494438,2,-9,21,20,-76,-85,38,-5,51
1491090494438,2,-3,8,5,-6,-43,-50,-76,-87
1491090494484,3,-71,-90,-38,97,43,99,-58,-100
1491090494484,3,-98,82,92,-63,71,69,116,30
1491090494485,0,108,-2,-46,127,-49,127,47,50
1491090494485,0,28,-9,-46,-31,-90,25,15,71
1491090494485,2,8,-4,34,-93,46,-62,-1,65
1491090494485,2,57,14,-8,19,-29,45,-36,-65
1491090494533,3,-28,7,79,-48,70,122,89,-19
1491090494533,3,19,3,-32,102,-119,-120,-31,2
1491090494534,0,-90,-45,-70,-108,-17,15,-81,-89
1491090494534,0,63,39,25,-27,22,-73,122,121
1491090494534,1,65,19,27,104,42,-94,-92,13
1491090494534,1,-44,-16,-4,-21,83,82,54,-8
1491090494535,3,37,18,5,-55,-5,5,16,58
1491090494535,3,11,-19,-73,-3,-21,-128,-68,-6
1491090494582,0,-3,-29,-49,-90,16,31,14,-47
1491090494582,0,43,0,4,-62,22,94,22,29
1491090494582,1,-54,22,20,70,9,-65,25,-30
1491090494582,1,75,-29,-38,-102,-128,61,-43,55
1491090494583,2,-29,19,54,124,127,49,-75,-30
1491090494583,2,45,23,27,6,-85,86,112,-5
1491090494584,0,-17,26,26,-113,-90,63,36,20
1491090494584,0,-57,33,53,92,89,24,-14,-5
1491090494630,1,78,3,-73,-55,-104,-72,-31,21
1491090494630,1,55,-25,-41,-35,-67,-87,-11,16
1491090494631,2,-74,13,15,63,9,79,34,-2
1491090494631,2,-24,-28,20,61,50,-16,-86,-52
1491090494632,0,-15,12,0,49,-4,13,30,7
1491090494632,0,39,-26,-47,38,-1,-128,-69,-18
1491090494633,1,-32,-15,-5,109,87,78,25,-21
1491090494633,1,-74,-5,-5,-97,-56,80,14,-30
1491090494679,2,53,7,-2,-76,3,-57,0,-3
1491090494679,2,-10,2,-17,16,64,28,42,-10
1491090494680,3,42,21,13,122,53,6,8,-11
1491090494680,3,8,17,12,-61,33,27,28,3
1491090494680,1,70,-19,-19,-77,-2,127,-2,13
1491090494680,1,-57,37,65,119,-41,-96,22,40
1491090494681,2,67,-16,-19,-128,-32,-128,-86,-29
1491090494681,2,-16,6,-30,-72,-19,125,76,1
1491090494728,3,7,-8,18,1,-51,-111,-110,35
1491090494728,3,-40,16,30,87,91,115,107,-30
1491090494731,0,13,-24,-9,-46,-60,14,24,-23
1491090494731,0,-37,18,30,73,110,79,-60,-1
1491090494732,2,39,1,4,127,28,-28,-31,10
1491090494732,2,-48,-22,-2,-69,55,-27,-25,-29
1491090494733,3,-3,41,27,71,24,61,13,44
1491090494733,3,74,-3,-1,-29,-93,-128,-8,12
1491090494777,0,-22,1,16,-23,120,123,-60,-63
1491090494777,0,100,3,8,37,-128,-128,-5,48
1491090494777,1,-128,-31,-39,-57,-61,-74,-45,-48
1491090494777,1,127,-4,-27,51,60,86,80,-19
1491090494778,3,-54,-42,-39,-9,-9,-14,13,-39
1491090494778,3,-4,12,-31,-77,24,127,43,24
1491090494779,0,67,11,3,14,-32,-91,-32,45
1491090494779,0,-48,24,39,-33,93,4,-37,-24
1491090494825,1,-27,-11,17,93,-123,86,40,4
1491090494825,1,65,-13,23,16,46,31,-108,-21
1491090494826,2,-38,1,-14,-54,6,-17,77,1
1491090494826,2,-14,-45,-39,2,-128,-14,-39,-28
1491090494827,0,106,-11,-41,35,6,-59,-50,2
1491090494827,0,-6,-25,-15,-67,39,25,42,-63
1491090494828,1,6,11,9,95,42,113,100,24
1491090494828,1,-55,-38,-36,-10,11,51,-7,-15
1491090494874,2,-10,38,79,93,114,125,70,44
1491090494874,2,-3,-10,-53,-117,-128,-99,-102,-17
1491090494875,3,34,0,2,-23,32,15,55,-7
1491090494875,3,-41,17,35,40,68,-128,-55,-4
1491090494875,1,64,-7,-32,32,-128,-128,-24,52
1491090494875,1,-1,-31,-32,-108,1,0,51,12
1491090494876,2,-53,20,28,68,49,-38,-53,-52
1491090494876,2,95,3,-24,-70,-42,-75,-11,28
1491090494923,3,-106,0,21,-77,22,-50,-70,-43
1491090494923,3,59,-36,-44,-28,-96,98,54,-20
1491090494923,0,64,-14,-45,63,-110,-73,31,82
1491090494923,0,-77,11,16,-19,33,-19,-57,5
1491090494924,2,-12,-27,-36,-32,-32,15,61,-8
1491090494924,2,-22,7,8,18,-43,39,14,34
1491090494925,3,-7,8,17,-55,21,66,-57,-51
1491090494925,3,16,24,23,87,18,-15,59,53
1491090495020,0,-1,-12,-19,-93,-16,-25,-37,9
1491090495020,0,-55,-21,-12,108,-83,-87,75,4
1491090495021,1,-15,10,-16,-78,-85,-83,-54,-33
1491090495021,1,-22,-12,8,48,23,-90,-14,-62
1491090495022,2,-2,33,31,-75,7,95,21,3
1491090495022,2,-31,-24,-42,-102,-29,36,-18,-12
1491090495023,3,-32,-31,-31,37,55,8,6,8
1491090495023,3,49,60,3,-118,-54,65,47,25
1491090495069,0,-31,-25,32,60,1,-57,-17,-28
1491090495069,0,52,14,37,113,56,25,-22,42
1491090495070,1,-10,-14,-42,21,18,73,43,7
1491090495070,1,45,-11,9,65,30,-128,-4,63
1491090495071,3,32,-31,-46,-33,-98,36,44,-79
1491090495071,3,-85,17,36,122,127,15,3,42
1491090495072,0,-7,-7,-6,5,57,44,-4,-6
1491090495072,0,-84,-14,4,85,12,-4,7,-27
1491090495118,1,71,25,-21,7,-26,-69,81,22
1491090495118,1,-37,-36,-13,-93,-30,26,-43,-63
1491090495119,2,7,3,-31,-3,96,-37,-61,39
1491090495119,2,-36,8,19,16,-50,-9,29,-57
1491090495119,1,-43,-47,-31,-66,-1,-32,-33,25
1491090495119,1,-16,2,-35,51,-128,60,-9,-21
1491090495120,2,-2,5,6,66,66,-15,-55,27
1491090495120,2,67,-3,-13,-62,52,-15,-19,-5
1491090495166,3,-43,-17,-28,-30,13,53,43,-53
1491090495166,3,-74,-25,0,-2,38,53,26,6
1491090495167,0,-15,36,45,2,27,77,-25,-34
1491090495167,0,-83,-1,8,18,-4,30,-19,-13
1491090495168,2,-41,-55,-71,-76,-106,-117,-21,36
1491090495168,2,-39,22,-9,1,40,-55,-24,-3
1491090495169,3,-21,15,56,41,71,119,10,-45
1491090495169,3,-10,54,53,98,14,-82,-53,27
1491090495215,0,61,-15,-29,12,-36,-93,-3,44
1491090495215,0,20,-10,52,38,76,109,-63,-5
1491090495216,1,17,-21,-47,17,-128,37,36,4
1491090495216,1,40,-5,-55,-26,-48,107,50,15
1491090495264,3,-55,21,73,-32,9,-123,-32,0
1491090495264,3,85,1,-17,2,-48,-128,-32,-27
1491090495265,0,-80,-44,-68,24,-50,127,91,-35
1491090495265,0,-94,43,52,-37,63,-55,-24,25
1491090495266,1,112,-7,-15,104,-4,-16,-6,108
1491090495266,1,3,10,75,-10,28,58,-43,-72
1491090495313,2,55,-5,-6,-63,-35,76,59,29
1491090495313,2,-73,-37,-58,-15,-45,-25,23,-53
1491090495314,0,-16,19,22,-17,-15,127,-47,-16
1491090495314,0,-97,13,39,76,56,-42,120,-1
1491090495315,1,127,23,-50,-123,-115,-97,-25,32
1491090495315,1,-88,-10,-7,26,44,29,-68,-34
1491090495316,2,-54,1,16,-62,101,-16,56,-5
1491090495316,2,117,-13,-45,67,-87,-65,-65,20
1491090495362,1,-79,-10,4,38,64,80,-85,-90
1491090495362,1,-2,7,22,-25,-12,-45,74,73
1491090495363,2,-26,-5,-2,3,-21,-108,-26,-57
1491090495363,2,66,1,0,25,-19,111,127,-9
1491090495364,3,-28,9,21,-10,79,97,-10,-38
1491090495364,3,-56,-5,3,0,39,50,6,14
1491090495365,1,-37,11,-11,-65,82,70,-18,-13
1491090495365,1,-17,-22,-20,35,-19,-48,15,27
1491090495459,2,43,12,23,-72,39,-77,-24,-29
1491090495459,2,-42,28,78,88,50,97,64,-33
1491090495460,3,98,-12,-68,-78,-74,23,61,-41
1491090495460,3,18,-5,-14,-83,-23,-122,-25,-8
1491090495461,2,72,-30,-50,7,-85,-85,-32,-7
1491090495461,2,-27,18,-8,-7,73,127,-46,-13
1491090495461,3,-23,26,57,127,47,-128,14,108
1491090495461,3,23,-36,-3,-128,-49,-118,-69,-62
1491090495508,0,48,28,45,101,63,127,61,-2
1491090495508,0,-79,-24,-33,-62,-14,-111,-47,35
1491090495557,1,21,-6,-39,-39,-53,-128,33,-23
1491090495557,1,-32,-28,-49,37,-45,-8,-22,1
1491090495558,0,-51,-24,-40,15,-28,-79,-38,0
1491090495558,0,17,9,19,-17,70,-81,35,4
1491090495558,1,36,-19,-44,19,-44,49,-67,6
1491090495558,1,-45,-29,26,17,120,101,-11,-7
1491090495559,2,-37,65,47,-2,80,122,86,-34
1491090495559,2,6,-35,-48,68,-128,-36,42,26
1491090495605,3,90,-24,3,12,-14,-95,-26,66
1491090495605,3,-3,34,30,-3,29,87,-36,-31
1491090495606,1,68,17,-18,58,-31,-111,33,80
1491090495606,1,-68,-16,-14,-55,-58,91,41,-81
1491090495607,2,30,2,-10,101,-64,-110,-94,-23
1491090495607,2,13,13,22,5,28,48,79,-2
1491090495608,2,56,-24,-29,-103,52,112,7,24
1491090495608,2,-56,-47,-24,90,-97,8,-92,-10
1491090495654,3,-17,33,37,40,-38,30,85,-13
1491090495654,3,59,21,56,79,13,-128,-72,-20
1491090495655,0,-47,-18,-8,15,42,29,22,-20
1491090495655,0,52,-1,-24,-61,-39,3,-51,75
1491090495655,3,25,26,34,72,71,71,39,-1
1491090495655,3,17,-25,-21,-59,-39,-22,54,-13
1491090495656,0,-15,-3,-23,-101,-85,-113,-61,23
1491090495656,0,-59,3,57,-71,95,12,31,-45
1491090495752,1,-14,8,-20,37,5,-98,-50,-12
1491090495752,1,74,3,-46,33,-37,-33,-41,93
1491090495752,2,-42,-4,33,-6,20,76,14,15
1491090495752,2,-24,16,-16,-96,-38,31,68,33
1491090495753,3,60,-10,12,3,-42,-50,-18,-5
1491090495753,3,-79,-38,-4,34,32,-14,-48,-62
1491090495754,0,30,40,3,1,-27,35,41,38
1491090495754,0,43,14,1,26,97,77,35,8
1491090495800,1,-67,-21,13,-48,-38,93,50,-70
1491090495800,1,-15,21,15,-43,72,37,52,75
1491090495802,2,86,-15,-20,60,-121,-96,-74,9
1491090495802,2,-46,-11,-33,50,76,43,16,-53
1491090495802,0,-68,-5,-6,-25,20,90,70,14
1491090495802,0,52,32,13,-54,-117,-128,-29,-77
1491090495803,1,-36,-44,-29,-128,-37,65,23,-13
1491090495803,1,-45,31,-1,69,37,122,92,-19
1491090495849,2,4,11,30,34,-19,-97,-128,24
1491090495849,2,97,-4,-15,2,-45,-128,-35,22
1491090495850,3,-46,-5,29,40,100,60,34,-83
1491090495850,3,34,2,-6,69,-119,123,-6,41
1491090495850,2,-12,74,56,29,50,79,82,28
1491090495850,2,-21,12,22,-39,110,-52,-49,8
1491090495851,3,43,22,31,-17,-49,-94,2,-11
1491090495851,3,-22,-5,-10,-91,81,84,92,7
1491090495898,0,-32,-6,3,79,-26,17,-25,-13
1491090495898,0,14,-18,11,-94,-68,-67,30,64
1491090495899,1,31,-56,-93,-38,-27,87,4,1
1491090495899,1,-39,16,6,21,74,40,43,-15
1491090495899,3,-115,15,48,10,-3,53,-98,10
1491090495899,3,96,28,25,20,-31,-4,24,-2
1491090495900,0,-94,-6,-12,-91,45,102,78,-23
1491090495900,0,42,7,-9,127,-44,-18,-40,2
1491090495947,1,-1,-11,13,26,89,38,78,49
1491090495947,1,-3,-34,-75,-62,-104,-62,-14,-28
1491090495947,2,36,-10,38,59,79,-55,-63,-3
1491090495947,2,-35,13,11,-92,-119,-80,-22,9
1491090495948,0,-36,1,-4,5,25,40,-21,-26
1491090495948,0,28,-27,-16,1,117,127,18,-41
1491090495949,1,-60,3,38,68,45,-6,-9,-34
1491090495949,1,-25,37,9,-102,-19,24,62,-15
1491090495995,2,101,-7,-16,60,-107,-128,-101,16
1491090495995,2,-83,-39,-3,15,-39,127,27,4
1491090495996,3,57,43,35,127,-26,-49,-25,0
1491090495996,3,-52,-33,-9,25,10,-9,-69,10
1491090495997,1,-50,2,-8,-68,-35,-7,25,-13
1491090495997,1,40,-22,-78,-29,-27,-44,-53,32
1491090496044,2,-93,-34,-4,-2,49,107,63,-11
1491090496044,2,-31,10,8,7,6,71,80,-6
1491090496045,3,6,31,50,69,-34,-66,-48,67
1491090496045,3,69,-9,31,3,-20,25,-56,-20
1491090496045,0,-30,-28,-50,-73,-68,65,-88,4
1491090496045,0,63,-27,-39,8,2,-89,23,-23
1491090496046,1,-28,18,67,44,127,-40,13,-61
1491090496046,1,81,20,-11,-97,-100,18,43,77
1491090496093,2,-31,-33,-70,-107,-53,-39,-31,-11
1491090496093,2,-64,8,5,-30,-16,38,-37,-64
1491090496094,3,-1,-3,-18,11,50,45,-17,60
1491090496094,3,-92,-3,30,105,83,59,29,-38
1491090496094,0,51,36,92,14,101,2,127,74
1491090496094,0,66,10,7,3,-55,-117,-88,-47
1491090496095,2,8,-10,-19,76,-114,65,-23,-46
1491090496095,2,-4,34,14,-5,5,-98,38,53
1491090496142,3,25,-2,34,29,74,-8,13,-90
1491090496142,3,-29,-34,-53,-128,-117,-128,-128,9
1491090496143,0,-47,6,1,38,-9,61,109,54
1491090496143,0,57,0,-35,20,-67,-84,-128,-4
1491090496143,3,39,-2,30,65,94,-32,75,33
1491090496143,3,-24,-4,-18,24,-64,-3,-125,-21
1491090496144,0,62,3,-52,-128,-123,-111,-92,5
1491090496144,0,13,-4,2,33,127,49,56,22
1491090496190,1,-17,1,-2,-128,-128,66,-2,-8
1491090496190,1,5,11,6,86,20,-22,63,27
1491090496192,2,26,-8,13,11,59,-20,-32,-41
1491090496192,2,19,41,56,118,-17,100,-38,-14
1491090496192,0,-52,-16,-18,-30,-18,46,77,-2
1491090496192,0,-44,-13,17,-2,111,-118,-66,-53
1491090496193,1,59,53,75,43,-20,127,-20,24
1491090496193,1,-24,-32,-60,-20,-128,-23,68,-2
1491090496240,2,90,-3,-30,45,53,-128,-13,-3
1491090496240,2,-12,-6,44,-128,76,127,15,-10
1491090496240,3,2,25,1,126,-92,-84,40,2
1491090496240,3,-9,-18,-39,-68,-1,-15,-66,16
1491090496241,1,47,44,22,-109,5,-103,-77,47
1491090496241,1,-4,-12,19,2,0,-37,-4,-71
1491090496242,2,2,6,24,63,18,59,2,-15
1491090496242,2,-41,7,22,-52,-39,82,64,39
1491090496288,3,5,-14,-31,112,-43,125,35,31
1491090496288,3,34,-13,-26,-34,-33,-94,-81,23
1491090496337,0,-19,-11,-9,-98,-75,10,23,-14
1491090496337,0,-30,-12,-9,96,83,11,-10,-67
1491090496337,2,-37,7,-11,-98,-67,92,-94,-6
1491090496337,2,95,-3,-40,-74,-4,-21,37,-15
1491090496338,3,-48,-37,-24,19,-36,11,9,8
1491090496338,3,-10,28,52,53,127,-36,-27,45
1491090496339,0,20,10,31,98,28,-67,36,-1
1491090496339,0,22,11,-50,45,-32,25,-25,17
1491090496385,1,-23,-30,21,-31,107,106,29,-65
1491090496385,1,-31,6,-21,-43,-128,-81,-54,-12
1491090496386,3,-25,-12,5,92,79,94,113,-52
1491090496386,3,-75,36,66,-15,-19,123,-100,-33
1491090496387,0,-1,-19,-43,-3,-84,-74,-18,51
1491090496387,0,23,-20,-5,4,39,36,2,-30
1491090496388,3,-69,27,76,59,117,42,12,-20
1491090496388,3,40,47,18,-44,-64,-15,-11,30
1491090496434,0,48,-38,-78,-77,-109,-79,-97,-58
1491090496434,0,-1,-31,0,39,25,36,39,-18
1491090496435,1,26,22,39,-13,-2,-1,14,-1
1491090496435,1,-2,-48,-36,-58,-13,20,34,-42
1491090496436,0,-22,2,33,-60,-52,127,35,-1
1491090496436,0,-45,18,60,40,127,81,52,-30
1491090496437,1,-15,43,26,-42,3,93,-116,62
1491090496437,1,52,-20,5,-10,-104,-73,46,-23
1491090496483,2,-24,-56,-85,-107,-94,74,11,-32
1491090496483,2,22,42,13,31,-24,-128,-24,28
1491090496484,3,1,-65,-53,-19,30,66,117,-34
1491090496484,3,-65,27,-5,68,91,-74,-113,-22
1491090496485,1,38,-2,4,-94,-102,-11,-47,-14
1491090496485,1,-21,-41,-46,127,16,124,75,36
1491090496485,2,25,9,21,85,90,12,-82,5
1491090496485,2,-32,8,8,22,-35,0,-8,-27
1491090496532,3,-31,-10,16,-29,-31,-41,62,0
1491090496532,3,55,13,20,-107,96,127,-44,45
1491090496532,0,3,-6,-5,6,-76,-100,-36,21
1491090496532,0,2,-39,-45,-33,-68,-50,63,-57
1491090496533,2,-22,38,37,-17,52,127,73,-80
1491090496533,2,31,-9,-13,-43,42,12,-39,-4
1491090496534,3,-40,22,28,113,-5,-43,16,-19
1491090496534,3,-78,-35,-36,-79,-51,20,49,30
1491090496580,0,106,-4,-7,24,21,-75,-37,9
1491090496580,0,-17,31,19,-17,-43,-74,20,30
1491090496581,1,-17,-13,-10,21,26,-45,-9,-41
1491090496581,1,56,15,28,42,104,127,109,50
1491090496629,3,32,-29,-48,-81,-89,45,19,69
1491090496629,3,-95,-20,5,-14,66,-91,43,-75
1491090496630,0,70,31,11,90,32,-22,-54,15
1491090496630,0,-28,-5,-21,-58,-87,-41,-30,36
1491090496630,1,-7,7,-10,30,57,32,-23,-42
1491090496630,1,-74,-28,-7,-63,-17,31,-13,-17
1491090496631,2,-2,22,34,15,86,51,62,-15
1491090496631,2,38,9,28,57,61,81,-16,38
1491090496678,0,-101,-25,-30,44,-61,-86,-70,25
1491090496678,0,104,-14,5,78,33,-111,-80,13
1491090496679,1,-32,2,7,-58,-46,74,57,-54
1491090496679,1,34,26,13,120,55,-44,7,21
1491090496679,1,-72,-24,-13,13,36,62,53,-30
1491090496679,1,68,4,-10,-32,-19,0,-113,-14
1491090496680,2,-14,-7,9,-9,71,-18,31,6
1491090496680,2,15,29,31,-9,-79,-86,33,0
1491090496727,3,4,-18,-18,-17,0,-128,-59,52
1491090496727,3,-4,2,-10,-16,-92,-3,-74,-30
1491090496728,0,-11,5,28,-118,18,112,84,-28
1491090496728,0,62,38,1,99,17,127,104,6
1491090496728,2,-62,7,-10,-17,0,41,-21,11
1491090496728,2,-30,-9,21,7,-28,94,22,-28
1491090496729,3,-15,21,45,-37,56,105,63,31
1491090496729,3,43,-19,-12,77,-29,-47,-60,8
1491090496775,0,-91,16,-4,7,94,67,-67,-66
1491090496775,0,49,-10,13,-58,-123,91,47,62
1491090496824,1,94,15,-18,8,-20,-101,-71,70
1491090496824,1,-13,15,17,-68,-17,101,82,-38
1491090496825,2,18,-23,-33,76,-61,82,109,53
1491090496825,2,-13,-7,-36,55,-2,-128,-113,-67
1491090496873,3,-34,2,0,26,96,8,60,48
1491090496873,3,-15,19,16,-2,-19,12,-64,3
1491090496922,0,-10,-17,14,-49,-1,-25,42,-15
1491090496922,0,-68,8,8,42,22,74,-11,-28
1491090496923,1,15,-7,9,-99,-89,87,26,35
1491090496923,1,-21,-15,-2,-68,108,-93,12,-54
1491090496924,3,36,-6,11,-27,-58,27,12,19
1491090496924,3,-90,-15,-10,-13,-76,40,-28,-16
1491090496924,0,-30,-13,-37,-76,-34,-47,-29,-12
1491090496924,0,46,38,-10,-98,-14,-108,-55,-18
1491090496970,0,-11,-18,17,20,6,94,-10,48
1491090496970,0,-9,-22,16,64,104,4,-19,-55
1491090496971,1,2,8,5,-41,-126,-38,-31,-25
1491090496971,1,17,5,-48,-14,-28,-120,73,33
1491090496972,1,40,-24,-3,-6,13,-69,-70,23
1491090496972,1,44,2,-6,-62,-103,-70,35,-2
1491090496973,2,-68,-39,-18,-37,-7,7,18,12
1491090496973,2,-23,35,45,4,46,127,25,-4
1491090497019,3,10,4,-2,37,-21,-50,-29,-21
1491090497019,3,-31,0,16,-36,-37,52,100,16
1491090497020,0,11,-31,15,-83,85,28,-74,-45
1491090497020,0,105,-4,-31,-98,-122,-128,-27,10
1491090497021,3,-12,-3,16,30,82,114,75,-4
1491090497021,3,30,-12,-2,-23,-2,47,-19,9
1491090497022,0,-16,32,26,57,5,-11,-20,-25
1491090497022,0,66,-28,-2,-17,36,-13,-16,6
1491090497068,1,-38,19,33,84,34,127,111,-1
1491090497068,1,22,31,18,-87,49,-59,-128,-56
1491090497117,2,30,11,-19,88,-104,72,102,59
1491090497117,2,11,-23,-24,-9,-2,-77,-88,39
1491090497117,0,27,23,16,-61,23,21,-4,-21
1491090497117,0,-111,-28,-6,-41,80,127,69,-18
1491090497118,1,-49,-8,27,96,104,75,18,46
1491090497118,1,-26,-1,16,45,-50,72,-6,-76
1491090497119,2,46,26,33,62,61,-14,18,24
1491090497119,2,26,9,-52,-61,-93,58,0,19
1491090497165,3,-12,-29,-34,-42,-5,17,-7,-45
1491090497165,3,-67,-20,6,58,1,53,-32,-5
1491090497312,0,36,7,-13,62,76,-55,-26,8
1491090497312,0,-49,10,67,-12,-42,-108,-40,35
1491090497312,1,73,3,-25,-4,-73,-83,-35,-54
1491090497312,1,43,-16,-56,-38,-10,-35,23,71
1491090497313,1,13,33,69,81,92,-50,-102,-14
1491090497313,1,-46,16,15,-49,2,113,100,-15
1491090497314,2,-28,-47,-24,31,10,-128,38,10
1491090497314,2,8,37,37,23,-29,111,-68,-70
1491090497360,3,30,-15,-6,37,-78,-81,-37,99
1491090497360,3,-87,12,28,16,66,62,7,-32
1491090497409,2,-79,-26,26,29,51,68,-31,-34
1491090497409,2,12,-2,-31,10,-9,-2,-72,-7
1491090497410,3,-39,-3,17,3,64,89,81,-12
1491090497410,3,15,10,28,-74,21,-66,-77,16
1491090497410,1,-33,4,-4,35,-57,37,-127,-73
1491090497410,1,14,10,-30,-32,-18,-128,34,26
1491090497411,2,-31,-13,3,24,5,10,36,-3
1491090497411,2,15,-5,-6,5,35,55,-23,-9
1491090497458,3,-2,4,23,-85,-8,9,5,-54
1491090497458,3,-27,20,12,60,-59,47,50,18
1491090497460,2,-66,-5,-19,22,30,36,14,41
1491090497460,2,-7,2,-1,-16,-34,-22,-24,21
1491090497462,3,-33,-11,2,51,85,50,-18,29
1491090497462,3,-6,30,42,-41,-5,91,60,-70
1491090497464,2,92,27,0,34,21,-89,-78,-104
1491090497464,2,18,10,26,104,84,65,33,7
1491090497507,3,-14,12,13,-61,-6,95,35,-6
1491090497507,3,-45,-62,-14,52,55,96,38,-26
1491090497510,0,-71,-17,-38,-10,-91,-43,-13,-37
1491090497510,0,87,6,-5,58,-23,7,-14,27
1491090497512,3,43,14,23,8,-17,33,80,59
1491090497512,3,33,-21,2,35,-82,-76,-128,-22
1491090497514,0,-13,9,-17,-46,44,-35,39,3
1491090497514,0,-30,4,-25,-49,-76,37,7,21
1491090497555,1,77,21,26,54,115,-24,-17,15
1491090497555,1,83,38,52,-61,-5,24,-18,7
1491090497557,2,-75,12,7,46,-15,71,46,-31
1491090497557,2,63,-41,-62,-57,-126,-54,-8,-6
1491090497558,0,-58,-22,0,-21,78,57,21,-12
1491090497558,0,12,19,49,78,28,23,17,22
1491090497559,1,-46,9,-5,-90,-59,-95,-50,31
1491090497559,1,13,-43,-23,116,72,63,89,55
1491090497604,2,-58,1,-24,-87,-73,-71,-30,-35
1491090497604,2,-65,19,23,-12,123,77,43,11
1491090497605,3,15,4,-17,16,-128,1,58,-36
1491090497605,3,-12,-4,-34,-16,1,-128,-20,5
1491090497606,1,48,-12,31,-16,38,26,-26,-28
1491090497606,1,-68,17,10,-23,2,90,127,-4
1491090497607,2,77,-2,-25,27,-64,-23,-47,32
1491090497607,2,-56,-11,9,-66,-71,-128,-78,-10
1491090497653,3,78,-18,-38,19,90,14,-18,-18
1491090497653,3,-56,-6,6,8,-27,51,18,-42
1491090497656,0,-11,17,51,126,67,124,53,26
1491090497656,0,67,17,24,-55,3,-95,-19,64
1491090497657,2,43,-5,-45,-82,69,24,-110,25
1491090497657,2,-31,0,18,-68,94,-43,-62,-34
1491090497657,3,14,23,30,127,-49,71,123,6
1491090497657,3,102,-24,-19,-55,-58,-54,32,20
1491090497702,0,-57,60,71,-12,12,-51,-48,-30
1491090497702,0,-43,-29,-20,48,6,92,73,-13
1491090497704,1,33,21,30,-86,21,-103,-106,53
1491090497704,1,-47,9,15,94,14,43,-26,2
1491090497707,3,-35,-50,-65,-59,-90,-126,-109,-48
1491090497707,3,49,2,9,-43,36,87,62,19
1491090497707,0,-35,11,9,71,120,-42,23,49
1491090497707,0,105,11,20,-13,-96,-53,-57,4
1491090497750,1,-32,1,7,-88,-17,-90,-86,-77
1491090497750,1,-52,-51,-58,-11,-91,-9,34,-15
1491090497751,2,-53,0,37,21,49,13,-79,-21
1491090497751,2,82,11,-14,-23,33,127,-47,-68
1491090497752,0,-51,-27,-22,6,-64,69,50,40
1491090497752,0,0,-14,-21,116,59,-42,-21,40
1491090497753,1,17,17,4,48,64,127,2,30
1491090497753,1,2,18,46,-19,103,18,27,6
1491090497799,2,42,-11,-1,41,-38,-36,-16,-5
1491090497799,2,21,-64,-83,-98,-112,-84,-6,37
1491090497800,3,44,-10,-43,-98,33,-55,69,-7
1491090497800,3,-49,-5,-27,81,-63,-128,-126,-38
1491090497801,0,48,55,108,87,99,44,101,7
1491090497801,0,-55,2,-13,-85,-64,85,27,2
1491090497801,1,4,-28,-62,42,5,99,37,-18
1491090497801,1,-53,14,6,-23,-6,-51,-21,63
1491090497848,2,-59,-32,-10,58,14,-10,-79,-83
1491090497848,2,23,-10,21,50,42,123,19,-21
1491090497849,3,-9,-3,20,-21,17,-2,49,41
1491090497849,3,40,49,30,-45,84,48,-4,42
1491090497849,1,85,-18,-40,93,-83,-128,-70,13
1491090497849,1,70,-31,-46,-15,-52,-100,-86,-46
1491090497850,2,91,24,30,-24,67,125,-40,16
1491090497850,2,-55,9,0,-43,-20,-5,36,-45
1491090497897,3,-107,0,12,37,99,58,-15,-25
1491090497897,3,-48,-1,60,112,10,19,121,27
1491090497898,0,-52,-1,-38,-38,-118,52,5,10
1491090497898,0,110,-15,-34,4,-32,-19,-76,8
1491090497898,2,-53,-22,-24,-73,68,6,35,25
1491090497898,2,20,60,97,76,127,87,70,13
1491090497900,3,18,-27,-6,-53,-32,41,-87,-28
1491090497900,3,1,27,-47,-96,-86,-49,-89,-2
1491090497945,0,-34,5,31,-86,-35,19,88,-38
1491090497945,0,-35,-45,-62,75,-32,-48,45,7
1491090497946,1,71,24,20,-14,-27,-94,-108,6
1491090497946,1,32,14,27,-30,112,127,97,31
1491090497947,3,75,30,55,-32,-33,-43,19,-8
1491090497947,3,-68,-42,-26,62,-4,16,-36,-15
1491090497948,0,20,29,-6,-64,-68,-61,32,-9
1491090497948,0,-27,-37,-80,-40,-32,75,19,6
1491090497994,1,-8,27,18,63,116,-23,11,-16
1491090497994,1,48,-3,-9,-39,36,105,53,2
1491090497995,2,-15,-13,25,102,110,-24,-99,14
1491090497995,2,16,21,16,-30,-94,-128,-95,24
1491090497996,0,47,18,-32,-76,73,117,104,49
1491090497996,0,33,20,-12,66,55,36,23,20
1491090497997,1,10,27,18,-89,-58,2,-29,-5
1491090497997,1,-16,-41,-50,94,-42,-59,-11,32
1491090498044,2,-10,-50,-17,42,63,29,59,0
1491090498044,2,-75,69,59,-43,4,50,91,-64
1491090498045,3,56,7,0,-23,-4,19,-52,60
1491090498045,3,-63,-9,13,-59,-12,74,58,-20
1491090498045,1,-40,-23,21,127,43,-30,75,31
1491090498045,1,9,25,-29,-98,-128,-95,-113,-88
1491090498046,2,95,-15,-115,-25,-58,51,-71,-9
1491090498046,2,-29,-14,-11,14,91,-50,24,-23
1491090498091,3,-22,33,19,101,73,10,24,43
1491090498091,3,-12,-4,36,-85,44,27,34,49
1491090498092,0,-41,-17,23,57,-32,20,76,-22
1491090498092,0,10,-4,13,34,10,-7,-89,-2
1491090498093,2,10,-6,4,-65,-85,-90,-54,-70
1491090498093,2,90,-18,0,40,61,-21,-5,88
1491090498094,3,-51,5,3,9,-37,-50,-11,-97
1491090498094,3,-11,-27,-8,99,-77,76,77,-23
1491090498140,0,88,8,9,116,84,85,41,83
1491090498140,0,31,21,-3,-105,-128,-122,-83,1
1491090498141,1,-62,-16,-59,-55,35,-2,-31,-62
1491090498141,1,8,4,18,-29,62,37,14,17
1491090498142,3,45,20,-8,-32,-17,55,55,42
1491090498142,3,-8,-39,-37,-108,49,14,-4,-11
1491090498143,0,73,53,11,127,9,-110,76,48
1491090498143,0,86,-34,48,-107,3,83,-30,-21
1491090498189,1,-42,16,8,84,-28,21,7,-14
1491090498189,1,-5,-20,6,59,4,-94,-41,34
1491090498190,2,-25,-17,-22,-68,-53,26,34,-14
1491090498190,2,-15,12,-82,3,-102,-128,50,-47
1491090498191,3,49,-24,10,75,115,29,-74,-17
1491090498191,3,-62,9,11,-42,-119,13,96,5
1491090498192,0,1,19,-11,-59,-23,43,-106,0
1491090498192,0,-56,28,44,13,42,38,63,14
1491090498238,1,16,-36,-22,30,29,-14,9,-11
1491090498238,1,-4,33,49,47,125,19,-2,-15
1491090498238,2,-61,-41,-7,-38,-114,-82,-33,-1
1491090498238,2,-11,-22,-6,-73,49,107,8,-81
1491090498239,0,3,-28,-105,-116,-109,-77,-63,-2
1491090498239,0,-42,-4,-19,-5,-36,-23,-13,-83
1491090498240,1,24,14,59,18,63,45,61,60
1491090498240,1,66,26,-21,-42,-128,-68,21,22
1491090498287,2,-46,-27,-29,-19,26,4,-16,-23
1491090498287,2,-72,12,52,-42,90,33,0,-25
1491090498288,3,-16,-10,-19,40,-128,12,15,1
1491090498288,3,106,1,-19,-23,37,13,-20,19
1491090498288,1,-35,8,21,-53,15,74,11,-21
1491090498288,1,-18,14,23,-6,2,-2,-68,-37
1491090498289,2,47,-31,-22,-1,24,-42,1,-9
1491090498289,2,6,4,40,122,108,92,69,67
1491090498335,3,54,-1,-48,-128,-104,-84,-48,14
1491090498335,3,-28,-17,-53,127,-9,-128,-60,-65
1491090498336,0,-67,-3,52,103,121,119,85,-19
1491090498336,0,-12,6,-37,-41,-107,-54,30,25
1491090498337,2,22,21,19,-94,-63,72,26,-5
1491090498337,2,-68,-21,-37,-5,-29,-41,-36,-15
1491090498338,3,-20,-7,6,20,59,-52,-65,6
1491090498338,3,-44,-6,-11,-17,-109,-79,-6,-31
1491090498384,0,18,-11,-12,-11,-52,-88,-14,-68
1491090498384,0,16,-8,17,58,19,55,-25,21
1491090498385,1,8,34,4,-19,15,62,57,-32
1491090498385,1,36,15,-1,-10,-20,-62,-18,57
1491090498386,3,65,3,-88,-65,-49,-104,89,24
1491090498386,3,1,-11,32,-31,-40,-5,-33,2
1491090498386,0,95,-14,-7,19,3,36,-22,31
1491090498386,0,-57,-17,-17,87,43,117,-13,-52
1491090498433,1,-62,15,54,97,85,86,12,-12
1491090498433,1,31,34,27,-79,71,-21,-66,8
1491090498434,2,18,-15,-27,29,-41,-67,15,45
1491090498434,2,33,3,34,32,118,56,0,0
1491090498434,0,1,-40,-64,-117,-82,-27,-23,6
1491090498434,0,53,27,15,83,13,-38,-61,-10
1491090498435,1,18,-8,-45,-98,-67,-15,-40,36
1491090498435,1,-48,0,69,-30,35,127,15,-21
1491090498481,2,18,15,47,97,33,70,5,-17
1491090498481,2,26,-28,-81,-75,-128,-79,21,66
1491090498483,3,-67,-11,8,13,-8,-31,-43,-27
1491090498483,3,53,38,90,127,112,120,28,-25
1491090498483,1,32,1,-14,-40,-110,-72,-12,9
1491090498483,1,-52,-29,-43,-124,66,127,13,-19
1491090498484,2,68,47,50,83,-66,-40,-11,16
1491090498484,2,20,-5,-19,8,-2,-19,-14,-45
1491090498530,3,-29,-53,-42,15,-54,45,-14,6
1491090498530,3,18,3,51,96,104,70,16,15
1491090498531,0,-63,30,8,-44,-70,67,2,-41
1491090498531,0,41,5,-28,22,-29,26,61,57
1491090498532,1,70,43,84,106,106,-12,39,24
1491090498532,1,25,-4,-37,-17,-50,2,0,-21
1491090498533,2,-75,9,40,23,127,69,63,-10
1491090498533,2,-6,-2,-38,-128,-124,48,54,5
1491090498579,3,44,-28,-80,2,104,-71,-86,20
1491090498579,3,21,-18,-50,32,51,-128,-55,12
1491090498580,0,23,1,68,81,127,12,7,5
1491090498580,0,-24,47,65,12,-10,-76,79,-16
1491090498581,2,3,-82,-103,41,-95,-4,-15,-24
1491090498581,2,17,6,-37,-114,-65,-55,3,75
1491090498581,3,-25,-51,-44,-76,33,69,-17,-7
1491090498581,3,17,13,7,3,47,1,-23,8
1491090498628,0,-19,62,70,-128,127,127,32,-27
1491090498628,0,-72,3,62,127,-68,-38,-16,-25
1491090498629,1,33,-42,-72,-72,-126,-110,-17,8
1491090498629,1,-13,-17,-26,-24,-60,-54,-51,-20
1491090498629,3,51,34,33,51,52,-76,42,-11
1491090498629,3,-33,-14,-33,18,-47,69,2,0
1491090498630,0,-32,-7,10,-48,68,-16,-63,-42
1491090498630,0,79,3,25,109,17,-41,-51,56
1491090498676,1,-29,-6,-32,-106,-74,1,80,4
1491090498676,1,88,7,-43,-34,-61,-126,-42,-15
1491090498678,2,-49,5,45,-89,2,18,88,-6
1491090498678,2,81,-20,-36,7,31,-62,-73,31
1491090498678,0,-18,73,55,114,-46,-33,-69,35
1491090498678,0,-16,-19,-22,-100,40,116,25,-7
1491090498679,1,26,-10,-4,20,-13,-10,27,39
1491090498679,1,-22,10,18,56,67,88,17,0
1491090498725,2,22,-6,48,-3,-40,-22,-34,-28
1491090498725,2,-53,-40,-78,-80,-93,-71,-40,31
1491090498726,3,81,-33,-39,-16,-41,-2,95,-53
1491090498726,3,-3,45,39,49,69,-91,-74,36
1491090498727,1,-10,-6,-22,-34,-38,127,32,-26
1491090498727,1,-30,4,-13,-45,-36,-17,-27,29
1491090498728,2,69,10,-42,33,-27,-2,53,50
1491090498728,2,-2,-7,31,-15,98,-82,-60,-23
1491090498774,3,-30,11,65,-77,-47,76,31,-1
1491090498774,3,-14,-13,-38,30,-88,7,27,24
1491090498776,0,-28,-34,-18,94,68,-57,-128,-5
1491090498776,0,41,19,-17,-128,-108,-44,66,-19
1491090498777,2,40,2,2,-31,-21,-111,-79,-51
1491090498777,2,-13,-21,20,127,86,126,55,-53
1491090498777,3,-65,31,-8,52,-42,19,-60,8
1491090498777,3,22,8,-7,-37,79,-64,-49,-43
1491090498823,0,-28,4,-18,-62,-124,46,67,67
1491090498823,0,1,-2,6,-83,31,77,47,-21
1491090498824,1,8,4,20,115,127,7,-46,17
1491090498824,1,-15,-27,-22,-36,-89,14,11,-28
1491090498825,3,-64,-32,-29,-16,19,1,-70,-12
1491090498825,3,62,14,15,14,70,75,38,-13
1491090498826,0,27,-7,-48,-1,-78,-118,4,37
1491090498826,0,-71,-64,-47,-77,-128,-49,-81,-37
1491090498872,1,18,54,45,115,114,91,59,68
1491090498872,1,-36,-7,-4,-69,-54,-56,98,11
1491090498873,2,45,-31,-20,-83,38,-90,0,-63
1491090498873,2,19,3,-31,73,-65,1,-39,-7
1491090498873,3,-25,-8,9,62,56,116,54,2
1491090498873,3,-11,25,75,25,58,15,-11,-23
1491090498920,0,-14,13,-9,48,-35,22,-13,20
1491090498920,0,10,6,31,22,60,-90,0,-11
1491090498922,1,19,-9,-20,-126,-13,51,23,37
1491090498922,1,-37,-10,-20,74,-104,-13,-40,-8
1491090498922,2,88,22,8,-21,44,25,-26,-8
1491090498922,2,-10,-17,-40,-18,-58,-86,-15,18
1491090498923,0,-20,0,31,4,124,46,-1,17
1491090498923,0,-14,-29,-47,-78,-110,50,32,-6
1491090498969,1,-48,38,-6,65,21,-128,22,27
1491090498969,1,21,12,35,-24,113,127,70,33
1491090498970,2,-100,-26,-15,92,-118,-88,-15,-73
1491090498970,2,80,21,25,-42,20,90,30,54
1491090498971,1,-10,46,30,-37,-16,-2,-78,-52
1491090498971,1,2,11,73,-45,114,62,21,-56
1491090498971,2,-12,-19,-51,-56,-81,127,65,7
1491090498971,2,-1,-31,-87,13,-30,-84,-50,-23
1491090499018,3,31,-9,33,51,-36,-128,-58,-13
1491090499018,3,-40,-38,-80,-92,-64,-34,-6,5
1491090499019,0,67,14,-21,-57,-5,9,18,-16
1491090499019,0,-26,15,11,58,83,69,1,-42
1491090499019,2,-73,-20,-38,-42,-44,28,11,-72
1491090499019,2,17,20,13,22,59,-10,10,53
1491090499020,3,8,2,7,-113,19,-89,19,13
1491090499020,3,2,20,11,127,40,28,49,3
1491090499067,0,-31,-17,44,127,-77,-74,-60,56
1491090499067,0,47,-14,-58,-101,-8,-32,-83,-19
1491090499068,1,-25,-18,-52,24,-50,44,36,-55
1491090499068,1,-3,-5,35,-86,118,36,63,1
1491090499068,3,10,-33,-53,26,36,-6,1,-23
1491090499068,3,28,10,-5,46,108,61,2,11
1491090499069,0,-48,-10,35,-13,-62,-67,-69,-59
1491090499069,0,50,26,83,97,127,19,109,67
1491090499115,1,-22,-2,38,-128,8,65,-2,-15
1491090499115,1,-61,-49,-94,-92,-128,-61,25,23
1491090499116,2,77,17,-19,-13,20,-121,-97,42
1491090499116,2,-98,-26,19,-27,-96,88,15,-45
1491090499117,0,75,-70,-106,-122,-112,-38,-37,28
1491090499117,0,-17,10,26,-5,99,38,-1,16
1491090499118,1,-40,8,50,127,92,81,72,43
1491090499118,1,62,25,54,-55,-128,16,-9,25
1491090499164,2,6,36,9,-62,74,12,64,-41
1491090499164,2,-43,0,7,87,-18,125,-61,9
1491090499165,3,73,-10,-44,-10,-61,-57,-13,24
1491090499165,3,-12,-11,-1,-77,109,-128,-9,10
1491090499166,1,46,20,2,-10,-98,99,9,14
1491090499166,1,-6,7,22,46,27,62,64,-50
1491090499166,2,35,7,25,127,117,26,-67,84
1491090499166,2,-1,-5,32,-2,91,9,30,-75
1491090499213,3,-59,-17,-52,-88,-107,-61,-89,-4
1491090499213,3,6,2,17,-43,46,64,14,10
1491090499214,0,-25,-28,-10,10,14,-5,-8,-48
1491090499214,0,12,1,24,28,4,24,70,38
1491090499214,2,63,3,-66,-58,-108,-59,-39,97
1491090499214,2,-20,-29,-20,-112,-20,-97,-50,-87
1491090499215,3,-9,-31,-38,39,103,125,71,22
1491090499215,3,-39,28,50,-103,37,77,-45,-53
1491090499262,0,-3,57,69,127,83,6,84,22
1491090499262,0,10,16,3,-13,-26,-82,36,-3
1491090499263,1,46,-2,24,-105,-70,-13,1,45
1491090499263,1,24,-42,-93,2,-37,41,7,-51
1491090499269,2,6,2,-18,28,-64,-37,-13,20
1491090499269,2,26,14,23,9,-40,-47,-25,26
1491090499269,3,-77,-3,2,27,68,-3,-27,-83
1491090499269,3,38,48,69,42,14,67,33,91
1491090499310,0,-78,-36,-45,-93,40,127,-21,-62
1491090499310,0,57,3,-29,-9,1,2,5,-11
1491090499311,1,-58,-26,-1,56,-36,-103,-9,26
1491090499311,1,-2,-10,-81,-83,-128,26,15,-27
1491090499312,3,-33,-3,1,20,124,122,-23,18
1491090499312,3,16,11,24,127,-128,-128,1,53
1491090499313,0,4,-24,-57,-75,-16,52,23,-23
1491090499313,0,-34,20,48,4,127,127,43,-14
1491090499359,1,-40,-14,-13,-9,92,88,56,-19
1491090499359,1,12,8,7,-128,-73,-106,-55,5
1491090499360,2,6,-38,-77,2,7,-72,13,-14
1491090499360,2,37,-7,41,110,100,-20,-8,68
1491090499361,0,16,17,98,10,84,-79,28,13
1491090499361,0,5,-19,-98,-128,-128,-40,-98,-44
1491090499361,1,-30,-38,-63,-33,-11,47,52,51
1491090499361,1,-10,-4,5,36,-113,24,-32,-31
1491090499408,2,-37,1,44,127,49,109,38,-25
1491090499408,2,-39,35,83,1,100,73,26,59
1491090499409,3,45,-3,1,-17,-44,-15,-15,9
1491090499409,3,-36,0,-7,-20,26,-54,-24,23
1491090499409,1,89,-53,-108,-63,18,-61,-104,29
1491090499409,1,23,-39,-74,-99,-77,91,11,-11
1491090499410,2,-23,-17,-18,-37,9,14,10,58
1491090499410,2,4,-20,-52,-128,-82,-46,-44,-64
1491090499457,3,100,22,2,114,85,-81,-78,5
1491090499457,3,-84,3,39,57,127,6,-10,-40
1491090499458,0,-40,20,93,3,-9,127,96,46
1491090499458,0,-9,-8,-18,-52,-52,121,26,14
1491090499458,2,11,53,89,-106,-9,-37,-17,-51
1491090499458,2,34,-27,-76,-5,-54,26,55,111
1491090499459,3,-17,-21,-11,18,65,81,-4,-30
1491090499459,3,1,30,86,17,-9,11,10,-10
1491090499505,0,39,-5,-49,-78,-13,122,30,23
1491090499505,0,23,-23,-18,-12,-5,-103,-91,-7
1491090499507,1,-40,-15,-26,-124,-43,-43,-5,-9
1491090499507,1,60,3,16,-120,-54,78,31,-4
1491090499507,3,-27,-8,-13,24,-7,116,28,3
1491090499507,3,-52,11,-20,-12,9,-93,-45,41
1491090499508,0,0,-29,-41,-51,-101,52,-4,-7
1491090499508,0,2,12,-31,-45,97,-17,9,-15
1491090499554,1,-7,-54,-23,32,-15,113,87,41
1491090499554,1,15,55,54,90,-1,-90,-68,29
1491090499555,2,-29,-27,-18,-98,34,55,17,-30
1491090499555,2,30,36,10,127,-54,-97,-118,22
1491090499556,0,-32,-14,-11,18,107,45,25,75
1491090499556,0,-45,-6,43,-44,-6,127,92,-12
1491090499557,1,66,56,50,104,81,106,6,13
1491090499557,1,-34,-31,-17,-98,-58,119,60,-26
1491090499603,2,24,2,-95,100,-128,-128,-31,71
1491090499603,2,-32,-18,-11,39,33,-58,-87,-76
1491090499604,3,31,-1,51,46,9,-25,-15,34
1491090499604,3,-31,44,60,-89,127,87,61,-69
1491090499604,0,-18,-24,-36,125,-128,87,6,12
1491090499604,0,39,-27,-43,7,-7,-58,-81,-8
1491090499605,1,-39,7,7,-30,-7,-9,-34,1
1491090499605,1,-35,-26,-7,71,-83,94,-20,-52
1491090499652,2,39,-17,-13,-20,22,-90,54,-11
1491090499652,2,6,14,9,59,55,-76,16,54
1491090499653,3,22,5,38,73,-9,-52,-107,-54
1491090499653,3,-1,-10,-16,-59,10,64,54,11
1491090499653,1,80,18,-99,77,-124,-127,79,65
1491090499653,1,-12,-50,-70,4,-86,-128,-96,37
1491090499654,2,2,-15,15,62,70,67,3,-35
1491090499654,2,-40,16,35,-80,5,112,28,-59
1491090499700,3,-33,15,-4,-18,-38,127,45,53
1491090499700,3,29,-39,-31,103,43,-102,19,17
1491090499702,0,-7,32,54,-62,21,-128,-105,-33
1491090499702,0,55,16,21,96,127,68,14,-4
1491090499703,2,60,-10,-26,-128,-118,39,-5,45
1491090499703,2,-35,-26,-57,0,26,-65,4,-30
1491090499703,3,-21,33,25,72,-107,123,-17,-18
1491090499703,3,41,-24,-2,81,56,104,22,32
1491090499749,0,-35,2,60,102,117,-48,-71,-46
1491090499749,0,16,-3,-26,-94,-56,43,23,48
1491090499750,1,0,-1,7,-31,28,19,4,8
1491090499750,1,-3,49,93,-94,24,98,16,-31
1491090499751,3,46,-28,20,-95,-53,-128,-21,2
1491090499751,3,-28,-18,-84,-104,-28,108,79,23
1491090499752,0,53,-2,-8,91,36,-59,-72,-35
1491090499752,0,68,38,67,71,-16,-113,-1,68
1491090499798,1,-57,-9,-33,12,-37,19,34,41
1491090499798,1,-22,-19,-15,-60,-84,79,-64,-23
1491090499846,2,-2,31,61,47,22,97,77,39
1491090499846,2,-26,30,51,-35,-31,69,51,-40
1491090499847,0,12,36,31,89,69,-18,-11,-2
1491090499847,0,-13,21,99,25,12,-59,-30,32
1491090499848,1,8,3,28,-24,55,25,-18,-27
1491090499848,1,22,-2,-25,-21,47,22,93,-6
1491090499849,2,-1,-36,-42,-60,-128,-74,-69,42
1491090499849,2,-4,2,65,-52,127,127,46,-76
1491090499895,3,-62,16,9,23,-98,-86,38,-15
1491090499895,3,1,30,73,121,107,-39,-61,-42
1491090499896,1,-12,19,62,3,127,99,48,2
1491090499896,1,42,37,59,117,-39,-128,-118,13
1491090499896,2,13,-71,-46,-45,82,127,-24,-78
1491090499896,2,65,67,18,2,-128,127,40,102
1491090499898,3,-10,-20,12,-51,127,70,4,47
1491090499898,3,-43,-14,-102,-62,-85,-124,-57,-18
1491090499944,0,-42,-19,-7,-30,-58,-72,-5,-47
1491090499944,0,52,-9,42,20,98,77,87,4
1491090499945,1,41,46,67,58,66,78,-38,25
1491090499945,1,-42,-22,-57,-118,-39,-37,80,-13
1491090499945,2,-22,14,10,-92,-41,-16,-25,-3
1491090499945,2,-29,-25,-9,41,61,61,9,-13
1491090499946,3,-49,-8,30,106,-109,-74,-13,-40
1491090499946,3,52,-42,-28,-48,-11,-66,-26,50
1491090499993,0,87,29,-9,-90,8,92,63,-16
1491090499993,0,-75,28,22,22,76,-107,-80,-45
1491090499993,1,8,-32,-42,95,-57,-73,-13,31
1491090499993,1,28,-1,33,-12,127,-117,22,-39
1491090499994,3,27,8,26,-28,-47,-7,-34,-83
1491090499994,3,-31,-6,-11,-74,-26,-106,-81,-20
1491090499995,0,116,-5,-26,96,-34,-35,-18,23
1491090499995,0,-45,-49,-92,14,-55,105,82,43
1491090500041,1,-27,30,5,-43,28,-128,-32,-18
1491090500041,1,33,27,76,10,104,8,-28,46
1491090500048,2,-50,0,79,127,127,78,80,0
1491090500048,2,3,29,29,84,-128,-104,-31,-38
1491090500049,0,-80,-2,-17,64,61,-11,-38,24
1491090500049,0,36,-5,38,8,-127,99,32,-48
1491090500050,1,-4,9,-21,68,127,127,127,72
1491090500050,1,-8,45,127,-38,77,-57,-41,-56
1491090500090,2,-9,-49,-87,53,-128,-105,-50,3
1491090500090,2,1,-31,-61,-29,116,9,-63,6
1491090500139,3,112,55,69,7,57,80,23,-33
1491090500139,3,-47,-19,-120,-44,-112,127,48,32
1491090500141,1,-37,1,7,4,-35,24,-11,-5
1491090500141,1,57,38,64,88,34,72,40,36
1491090500141,2,10,9,33,-113,-95,-28,-25,11
1491090500141,2,38,-41,-99,66,54,-126,0,-6
1491090500142,3,-31,39,14,36,-123,-128,-117,-41
1491090500142,3,-21,-12,-33,127,23,102,124,51
1491090500188,0,24,-18,-14,-27,73,-103,-115,-59
1491090500188,0,-31,-9,28,2,-107,52,15,-30
1491090500189,2,-25,10,-40,-69,-128,-21,8,51
1491090500189,2,52,-40,-94,-128,15,-63,-65,28
1491090500189,3,6,-16,-12,37,43,-22,-62,-44
1491090500189,3,-36,-6,3,4,36,56,21,9
1491090500190,3,80,13,42,-6,127,13,4,28
1491090500190,3,-36,-50,-98,-104,-128,26,17,-19
1491090500236,0,-14,9,-53,-67,-7,99,-48,-28
1491090500236,0,-41,6,42,54,94,70,6,5
1491090500237,1,-8,-2,39,92,123,63,69,-8
1491090500237,1,-62,34,99,24,106,65,27,-6
1491090500238,0,-38,-7,12,124,-122,41,89,6
1491090500238,0,62,-14,-42,-128,-50,-88,-90,9
1491090500239,1,-97,-66,-31,19,32,58,0,-39
1491090500239,1,3,60,43,-14,-128,41,26,-28
1491090500334,2,32,5,-50,-116,-24,61,62,24
1491090500334,2,32,27,45,-75,-6,-26,-50,4
1491090500335,3,-5,19,59,28,18,34,65,36
1491090500335,3,6,-43,-63,108,-78,-105,-43,-33
1491090500336,0,-42,-14,40,5,127,52,-32,-38
1491090500336,0,52,-13,-48,-74,-128,26,65,5
1491090500336,1,-4,-16,-92,-104,-46,-85,-39,28
1491090500336,1,27,35,47,57,61,35,25,25
1491090500383,2,-33,-14,58,-18,58,16,-25,-12
1491090500383,2,-35,31,100,14,127,127,4,-32
1491090500383,3,104,7,33,87,-85,-72,21,72
1491090500383,3,-62,-82,-128,-77,-73,-85,-25,-46
1491090500384,1,-24,56,62,34,105,104,-3,-22
1491090500384,1,70,30,44,127,86,86,35,-3
1491090500385,2,51,5,5,-28,28,-48,-1,-7
1491090500385,2,-98,-45,-60,12,-70,29,-76,-84
1491090500432,3,66,31,60,127,127,127,119,36
1491090500432,3,-20,-47,16,-89,-128,59,-20,-16
1491090500432,0,-29,23,-25,-93,-43,49,-8,55
1491090500432,0,70,42,6,49,36,-36,-5,19
1491090500433,3,24,18,19,27,59,-32,-39,78
1491090500433,3,-23,12,26,69,78,0,39,7
1491090500434,0,-42,-34,-78,34,-86,-123,-52,-32
1491090500434,0,-35,-9,26,-5,10,44,1,-25
1491090500480,1,-40,-21,0,74,94,127,26,43
1491090500480,1,15,37,45,-61,6,-100,-24,-32
1491090500481,2,55,-3,-12,-62,-80,10,-59,84
1491090500481,2,123,-7,-27,23,11,99,-58,-6
1491090500481,0,-23,-23,-39,-55,83,-64,-13,-63
1491090500481,0,-60,-31,-14,71,-26,34,41,32
1491090500483,1,10,20,16,27,100,74,-18,-28
1491090500483,1,-69,18,-16,14,22,59,5,17
1491090500529,2,-33,28,14,-69,-53,70,7,-43
1491090500529,2,-36,-27,-13,84,-32,29,49,33
1491090500530,3,36,11,11,33,12,-55,-81,-48
1491090500530,3,-60,-21,19,20,18,25,43,21
1491090500530,1,-8,-16,64,50,-14,-101,-33,13
1491090500530,1,59,-20,-93,-77,-112,-24,-17,-23
1491090500531,2,-52,-66,-51,15,77,118,18,84
1491090500531,2,60,68,101,-128,40,4,11,-95
1491090500578,3,-3,-35,-112,43,-128,-19,5,41
1491090500578,3,-30,-36,-13,-20,55,45,-16,-18
1491090500579,0,15,15,36,-26,-14,59,14,-22
1491090500579,0,-44,-22,-56,-107,-2,-51,43,21
1491090500579,2,-6,-4,-68,7,-73,65,-6,16
1491090500579,2,-15,-5,-51,107,-89,-103,-128,-10
1491090500580,3,19,-20,-47,-128,-79,-33,-40,-32
1491090500580,3,55,51,106,17,85,97,101,3
1491090500626,0,-23,13,27,35,-54,-128,-27,4
1491090500626,0,12,-40,-78,-84,73,-15,-50,97
1491090500627,1,-69,17,67,-114,29,127,47,-82
1491090500627,1,8,-27,-128,-92,-105,-117,-54,35
1491090500628,3,24,17,21,-86,76,123,14,63
1491090500628,3,55,63,104,127,127,-19,30,13
1491090500629,0,-94,18,15,93,28,-114,18,-33
1491090500629,0,71,-86,-85,-51,-78,-73,-36,8
1491090500675,1,35,50,53,-38,79,114,5,-21
1491090500675,1,3,-6,-1,65,-113,127,-81,19
1491090500676,2,-3,-53,-51,-18,-38,-118,79,-16
1491090500676,2,58,22,9,-1,109,8,-22,25
1491090500677,3,-65,-7,36,-52,-64,73,-12,-45
1491090500677,3,30,-33,-74,-127,-128,80,-37,-5
1491090500678,0,-2,3,-61,-32,31,127,4,18
1491090500678,0,9,31,27,-19,7,-20,75,11
1491090500724,1,-116,-21,-23,25,36,-92,-6,26
1491090500724,1,69,30,44,-29,-12,-22,-26,-30
1491090500725,2,-31,-18,66,127,21,99,-16,-16
1491090500725,2,27,28,47,12,12,-34,102,44
1491090500726,0,99,46,36,36,21,21,-28,19
1491090500726,0,-70,-9,18,29,32,93,35,-40
1491090500727,1,-27,1,-4,92,90,65,61,-42
1491090500727,1,-41,21,66,-26,103,84,49,13
1491090500773,2,-24,-66,-87,-128,-128,-107,-91,-43
1491090500773,2,65,27,37,-64,14,-52,-53,82
1491090500773,3,1,-6,-3,-31,51,2,-14,44
1491090500773,3,33,62,47,75,-73,93,112,31
1491090500774,1,-39,-40,-66,-94,-10,15,21,-75
1491090500774,1,23,-3,-29,-69,-57,-20,-100,-8
1491090500775,2,33,-4,5,40,55,-6,-24,67
1491090500775,2,-35,-12,-34,-42,-26,-3,-14,-98
1491090500821,3,59,52,86,92,75,45,65,-24
1491090500821,3,-39,32,12,-43,19,61,-1,-17
1491090500823,0,37,-36,-78,-47,-35,-100,-7,69
1491090500823,0,-31,-10,-18,44,59,6,-22,-25
1491090500823,2,84,36,57,6,2,-76,21,3
1491090500823,2,-27,0,11,0,40,127,11,-50
1491090500824,3,20,-11,-56,-62,-103,-128,-55,50
1491090500824,3,0,2,9,-42,40,-92,-15,-88
1491090500870,0,-28,5,75,57,105,102,61,-35
1491090500870,0,-38,-12,-11,-75,-102,58,33,23
1491090500871,1,45,-10,-95,82,-58,62,-62,-3
1491090500871,1,-21,-34,-12,61,61,42,19,-8
1491090500871,3,29,-4,-36,-128,-89,-44,-60,31
1491090500871,3,-11,-42,-38,44,46,-128,-42,78
1491090500873,0,-62,43,96,-79,27,127,50,-100
1491090500873,0,101,33,7,119,-28,119,-29,56
1491090500919,1,-65,-37,-28,-35,-60,-128,-60,-15
1491090500919,1,-6,14,50,-1,116,79,101,66
1491090500920,2,-19,-39,-87,-83,-103,39,-20,-44
1491090500920,2,-85,-23,-15,-105,20,84,-6,-79
1491090500920,0,-24,9,53,39,127,60,-10,-5
1491090500920,0,16,-4,-12,-63,-96,16,-5,57
1491090500921,1,-3,-15,-31,-44,26,127,78,-11
1491090500921,1,-18,20,-7,16,10,44,6,71
1491090500968,2,3,5,56,127,101,-117,-90,-32
1491090500968,2,8,-14,10,40,-83,-9,33,-40
1491090500968,3,-52,-8,-17,23,-37,-88,-5,29
1491090500968,3,43,-55,-122,94,-128,-65,-100,-29
1491090500969,1,15,-5,11,-14,-11,127,97,1
1491090500969,1,5,23,-1,24,46,-16,-50,-44
1491090500970,2,-3,-8,11,127,88,50,-15,-5
1491090500970,2,-27,32,69,-122,-38,-35,-36,-18
1491090501016,3,-26,-53,-28,-84,-29,-65,12,21
1491090501016,3,88,4,-10,-7,-39,23,51,25
1491090501017,0,-45,-7,55,-50,28,45,-45,-50
1491090501017,0,46,30,-9,1,29,20,43,-21
1491090501018,1,67,-24,-74,-22,-78,-66,-33,26
1491090501018,1,-78,8,21,-59,32,-2,-4,-40
1491090501019,2,8,-40,-44,-65,-128,77,58,35
1491090501019,2,62,65,51,13,127,-84,-13,68
1491090501066,3,-74,-12,63,61,-25,-58,-23,-47
1491090501066,3,-12,-1,-19,126,-41,-64,6,-32
1491090501067,0,3,-27,-53,-13,-128,11,39,26
1491090501067,0,-23,-41,-54,-38,102,-9,-34,-1
1491090501069,2,17,35,23,113,80,16,24,78
1491090501069,2,-25,7,28,32,-43,-73,-21,-4
1491090501070,3,-29,-16,47,-74,34,66,51,-19
1491090501070,3,5,-6,-50,15,-72,-99,-59,53
1491090501114,0,41,-52,-83,-72,59,-128,-75,-100
1491090501114,0,-16,12,29,88,-25,115,38,85
1491090501116,1,-45,-10,-46,-87,-38,-93,-18,-34
1491090501116,1,10,7,44,-29,87,47,9,-1
1491090501117,3,15,23,14,-14,118,127,31,29
1491090501117,3,13,6,41,42,62,-17,-26,-19
1491090501118,0,-52,9,36,-40,-43,-25,1,-22
1491090501118,0,1,27,22,123,28,127,86,-40
1491090501163,1,27,-11,-37,29,-18,-32,24,45
1491090501163,1,-8,0,18,3,12,28,-66,-23
1491090501167,2,76,35,25,-37,-43,-128,2,81
1491090501167,2,-49,-31,-4,60,-43,-105,-32,-92
1491090501168,0,-17,-20,-36,-16,54,-65,2,38
1491090501168,0,13,25,28,47,-128,61,79,-1
1491090501168,1,63,-22,-68,-25,-51,-105,-29,13
1491090501168,1,-17,-86,-38,-66,-10,112,0,-10
1491090501212,2,-28,48,62,-38,66,10,0,-35
1491090501212,2,17,-3,-26,-60,-61,-89,-34,30
1491090501214,3,-57,-23,10,54,37,107,-9,-38
1491090501214,3,16,-7,-29,-79,-63,-125,28,33
1491090501215,1,3,29,21,24,-50,-99,-97,-6
1491090501215,1,-3,-15,18,-74,68,-32,98,-36
1491090501216,2,-16,6,1,127,-105,31,21,-12
1491090501216,2,20,9,59,-114,18,-29,-35,11
1491090501261,3,35,-16,-84,69,42,37,4,61
1491090501261,3,-24,-11,-43,8,-120,-4,-69,39
1491090501263,0,57,-2,-8,33,-1,50,30,-20
1491090501263,0,-5,-18,-54,8,43,127,11,16
1491090501264,2,-12,-17,-13,38,9,114,24,12
1491090501264,2,-27,8,21,17,3,-79,-8,14
1491090501265,3,26,9,60,19,78,-82,12,-45
1491090501265,3,-63,10,20,3,33,-12,-20,-47
1491090501317,0,13,-14,8,-54,26,18,21,-41
1491090501317,0,-21,-34,-75,-128,-83,-76,-95,52
1491090501319,1,-22,-34,-79,-8,72,-47,-13,-72
1491090501319,1,20,0,42,71,-25,86,30,76
1491090501320,3,9,37,77,74,110,91,77,8
1491090501320,3,2,19,8,-38,-56,-36,-71,-21
1491090501321,0,-28,-6,-32,86,-87,-71,-30,-11
1491090501321,0,-34,-35,-33,9,41,-25,52,13
1491090501358,1,24,31,88,37,19,50,-25,6
1491090501358,1,-12,11,-43,4,-30,127,125,41
1491090501358,2,67,-52,-94,-94,-50,-85,-22,23
1491090501358,2,-34,0,-20,-12,-6,-128,-22,-120
1491090501359,3,38,33,73,-94,57,-48,-67,69
1491090501359,3,-63,12,40,127,55,12,66,-4
1491090501360,0,4,2,-7,16,100,97,-89,-21
1491090501360,0,41,-59,-36,-85,-128,127,66,-8
1491090501407,1,-27,64,78,87,-43,86,56,29
1491090501407,1,-30,5,5,-73,-81,-39,9,-6
1491090501408,2,31,-30,-70,-46,-55,18,-11,9
1491090501408,2,-12,4,-34,-14,73,33,-31,10
1491090501408,0,-55,18,46,101,119,6,28,19
1491090501408,0,54,49,79,52,10,93,72,49
1491090501409,1,31,-4,-36,-89,-128,-119,-49,-38
1491090501409,1,19,-44,-105,-128,-5,112,28,43
1491090501455,2,-18,-46,-48,95,-78,93,-39,-74
1491090501455,2,14,15,-26,74,-47,17,-12,15
1491090501456,3,3,-39,-17,36,12,25,60,22
1491090501456,3,-25,12,24,-26,113,62,-62,-66
1491090501457,1,53,-14,-14,35,-43,59,22,-31
1491090501457,1,24,-55,-37,-73,81,27,16,58
1491090501458,2,30,18,35,74,115,-52,20,14
1491090501458,2,19,15,54,-24,127,-44,-62,-32
1491090501504,3,-26,-7,-51,-41,-108,67,25,-10
1491090501504,3,30,-20,-81,19,-88,4,-44,-40
1491090501505,0,-36,-28,-25,-66,10,127,73,2
1491090501505,0,43,29,-30,54,-27,-105,-23,81
1491090501505,2,29,-9,-5,-43,-70,70,-11,-10
1491090501505,2,36,36,65,-86,70,127,48,-13
1491090501506,3,-32,16,51,118,-71,-28,-33,-22
1491090501506,3,-5,4,-1,-81,83,10,-4,20
1491090501553,0,-29,-25,-23,41,-85,-2,-15,-31
1491090501553,0,40,-7,0,42,-13,56,-31,18
1491090501554,1,-23,-32,-98,-124,-86,-53,41,77
1491090501554,1,6,8,7,33,34,-120,-117,-67
1491090501554,3,24,-31,9,51,-26,-82,22,17
1491090501554,3,-58,13,56,28,51,-95,6,-22
1491090501555,0,-28,-20,-7,-106,-55,53,-10,-34
1491090501555,0,-4,-23,-30,106,4,2,-17,0
1491090501602,1,20,37,52,22,127,20,32,20
1491090501602,1,-40,-29,-28,-31,-128,7,-61,8
1491090501602,2,91,3,-41,67,-46,-38,-22,-5
1491090501602,2,-49,-49,-67,-54,-71,-61,15,16
1491090501604,0,-30,42,110,62,127,79,25,19
1491090501604,0,-57,-17,-50,-128,-92,116,0,-45
1491090501604,1,25,28,-1,127,-74,-50,-15,86
1491090501604,1,-16,-25,-17,-8,-25,-110,-102,-42
1491090501650,2,50,-8,-8,-50,-78,43,104,11
1491090501650,2,21,13,78,-30,127,-105,-113,-67
1491090501651,3,-1,17,-10,-6,-77,75,15,50
1491090501651,3,4,-31,-80,-68,-110,2,109,28
1491090501652,1,6,19,26,-70,-19,108,-28,-86
1491090501652,1,71,44,40,2,79,87,35,-14
1491090501653,2,-37,-59,-113,-90,-122,76,-26,23
1491090501653,2,47,-8,-44,9,-58,-94,-34,59
1491090501699,3,-23,0,27,1,47,-110,-34,-68
1491090501699,3,108,14,41,-35,-46,-71,-43,27
1491090501700,0,-36,15,76,87,127,-3,49,-8
1491090501700,0,-22,-10,-13,-37,-128,127,40,-65
1491090501748,1,-54,-10,-55,16,-29,-24,-43,25
1491090501748,1,49,0,-13,-21,-8,-60,12,-25
1491090501749,2,-38,8,22,10,-24,-118,-33,24
1491090501749,2,29,-24,-35,-23,29,4,7,-28
1491090501750,3,-34,1,43,39,90,126,55,4
1491090501750,3,-24,53,34,110,-94,79,76,10
1491090501751,0,-17,-34,-67,-69,78,-7,-128,-13
1491090501751,0,10,30,64,118,98,7,82,26
1491090501797,2,-74,-28,-15,-9,34,17,52,-4
1491090501797,2,30,10,-16,-10,-33,96,-57,-37
1491090501798,3,-38,-1,55,42,91,51,21,-7
1491090501798,3,0,33,44,50,-7,-47,-63,0
1491090501798,0,53,0,-28,-9,-42,32,-31,81
1491090501798,0,5,-12,-6,-114,57,25,24,-67
1491090501799,3,9,-34,-19,48,-11,-62,-47,11
1491090501799,3,-2,-9,32,-83,32,127,58,-90
1491090501845,0,0,10,-66,15,-110,-128,-35,68
1491090501845,0,-2,-31,-19,74,71,45,11,25
1491090501846,1,73,3,-26,-10,44,61,4,-18
1491090501846,1,-17,-7,39,-57,80,63,43,-11
1491090501847,0,-3,-16,-25,-128,-128,127,50,-21
1491090501847,0,-58,-6,-73,-59,-80,-86,-54,-27
1491090501848,1,0,-22,14,21,102,-75,53,33
1491090501848,1,46,11,-31,46,-14,60,43,22
1491090501894,2,13,7,15,-50,-80,18,-70,-45
1491090501894,2,-44,-4,39,29,75,-74,-20,12
1491090501895,3,41,-15,-42,14,-128,-24,-28,-84
1491090501895,3,-27,-16,-42,-7,29,-128,-69,25
1491090501896,1,41,9,13,73,26,57,59,38
1491090501896,1,5,-4,33,112,-54,8,12,29
1491090501896,2,51,-24,-16,-47,119,-102,-63,-24
1491090501896,2,52,33,-14,13,-128,6,58,62
1491090501943,3,-57,-13,-31,-53,121,73,-62,-33
1491090501943,3,11,-17,-74,-89,-18,24,56,18
1491090501943,0,-24,12,47,87,40,-52,-20,16
1491090501943,0,-7,-22,43,120,74,-70,57,-32
1491090501944,2,30,6,23,59,86,99,94,83
1491090501944,2,-78,6,39,118,-58,22,-53,-64
1491090501945,3,-22,14,-6,-117,-116,102,11,-43
1491090501945,3,53,-7,-57,-62,-98,-101,-39,44
1491090501992,0,3,-10,-48,75,19,-102,-74,-5
1491090501992,0,64,-13,-39,-111,-62,2,37,45
1491090501992,1,-45,6,47,104,101,16,-106,-100
1491090501992,1,-52,-10,-33,-42,-95,19,9,-60
1491090501993,3,2,-13,10,-128,51,-6,-23,36
1491090501993,3,57,4,30,11,79,54,1,-23
1491090501994,0,38,-3,16,16,-54,33,27,-26
1491090501994,0,-68,-22,-13,-7,60,-77,-85,-15
1491090502040,1,59,39,19,5,-115,-16,113,62
1491090502040,1,13,27,38,63,127,127,-88,-20
1491090502041,2,-48,-27,-54,-65,-123,14,13,-45
1491090502041,2,121,7,1,93,95,-41,0,104
1491090502042,0,102,85,88,-31,122,-16,27,34
1491090502042,0,-10,0,3,84,9,117,-66,-9
1491090502043,1,-53,-73,-102,-66,-12,-63,-26,1
1491090502043,1,9,6,-1,-29,20,-18,83,42
1491090502089,2,-65,-7,14,-44,-21,43,-61,-64
1491090502089,2,-38,7,43,-46,-8,61,39,30
1491090502090,3,44,34,50,60,77,85,91,25
1491090502090,3,-74,-50,-20,-44,-61,2,-96,-27
1491090502091,0,73,77,64,127,126,64,103,22
1491090502091,0,12,-31,-95,-120,-128,-114,-92,20
1491090502092,1,53,-36,-37,-42,66,-42,17,-19
1491090502092,1,-63,44,34,93,-15,86,36,70
1491090502138,2,40,-27,-54,-106,8,-72,-47,-30
1491090502138,2,14,5,9,-58,-27,-86,-4,-34
1491090502139,3,-49,-13,-5,14,-1,21,-33,-7
1491090502139,3,-25,13,71,107,122,97,22,-12
1491090502139,1,62,-31,-30,-44,41,-13,-40,-19
1491090502139,1,-77,-35,-10,127,-5,100,46,5
1491090502140,2,-20,3,49,-19,-6,-46,-34,-50
1491090502140,2,33,-16,-54,-128,-87,-99,-20,20
1491090502187,3,-7,16,26,-22,61,-92,12,30
1491090502187,3,3,28,38,-62,-65,-21,-93,-77
1491090502189,0,-48,-61,-90,-3,-65,95,78,25
1491090502189,0,2,42,6,8,-30,-44,-21,-8
1491090502189,2,-7,23,74,100,-4,83,46,10
1491090502189,2,-53,-17,14,83,127,-4,-33,-38
1491090502190,3,-19,2,-15,22,-90,-60,-10,-13
1491090502190,3,42,24,35,28,19,-67,38,-20
1491090502235,0,-46,-30,-42,-102,-84,-42,-20,66
1491090502235,0,71,-1,-28,71,11,127,109,-6
1491090502236,1,-19,-17,10,67,97,52,-69,-28
1491090502236,1,-53,-4,-50,-65,-118,-27,67,-35
1491090502237,3,-16,-5,-27,57,-59,-32,41,-29
1491090502237,3,55,-7,-21,1,34,-116,-28,78
1491090502237,0,11,13,-9,-37,83,0,26,-29
1491090502237,0,39,17,66,-12,-31,48,28,14
1491090502284,1,-14,-2,85,17,27,80,55,-85
1491090502284,1,-9,-1,-107,-86,-71,71,33,19
1491090502285,2,59,-24,-88,-19,-128,-88,-81,12
1491090502285,2,-30,21,38,-106,105,60,85,15
1491090502285,0,58,-3,-1,96,-10,-116,-128,37
1491090502285,0,-21,-61,-49,23,-78,-57,4,-28
1491090502286,1,-22,0,28,80,97,71,51,27
1491090502286,1,27,26,38,-28,-60,12,-56,40
1491090502333,2,-39,-14,-15,-4,67,54,-42,-111
1491090502333,2,-33,5,20,32,-9,6,8,24
1491090502334,3,37,46,53,-121,57,15,-38,20
1491090502334,3,-43,-33,-69,127,-46,-123,-42,1
1491090502334,1,83,-18,-29,-48,44,-24,17,98
1491090502334,1,-3,36,100,-71,103,-18,-99,-47
1491090502335,2,-8,-11,-17,74,-23,53,56,-19
1491090502335,2,-65,18,54,87,127,-28,-31,-29
1491090502381,3,-2,-31,-104,-118,-128,-95,-49,5
1491090502381,3,13,-21,10,127,127,-18,-4,-2
1491090502383,0,-80,-19,16,47,-36,6,11,73
1491090502383,0,70,20,-55,-128,-12,127,37,-25
1491090502383,2,-24,-28,3,21,37,-106,-98,-14
1491090502383,2,29,-28,-6,-23,-13,101,81,17
1491090502384,3,-73,-18,17,-3,93,22,-3,-4
1491090502384,3,52,9,9,-119,-6,-3,27,8
1491090502430,0,82,37,86,82,45,18,83,-1
1491090502430,0,32,-43,-89,-84,-123,44,-75,35
1491090502431,1,60,18,-16,-69,-4,-74,-75,-52
1491090502431,1,-44,-68,-90,-95,-39,-22,15,-22
1491090502431,2,91,8,43,25,41,-20,-37,-42
1491090502431,2,-79,48,70,-99,27,61,29,12
1491090502432,3,-93,-26,-24,118,-2,-54,41,-27
1491090502432,3,25,-44,-45,66,110,42,49,45
1491090502479,0,-77,6,0,-115,-123,-13,-51,20
1491090502479,0,41,5,19,56,23,-128,19,6
1491090502480,1,-102,18,9,-36,-128,-44,-78,34
1491090502480,1,30,7,-7,-27,-14,-23,-9,-43
1491090502481,3,72,14,13,-102,-128,64,-17,5
1491090502481,3,-25,-46,-25,2,-47,116,34,-2
1491090502482,0,-18,93,52,14,27,30,54,32
1491090502482,0,113,-38,-15,-95,-77,-128,-21,-31
1491090502528,1,-63,14,62,44,127,74,13,-32
1491090502528,1,26,76,59,50,-35,-23,-24,5
1491090502528,2,2,-54,-69,99,-25,20,37,-9
1491090502528,2,-63,-45,-116,-87,-112,-128,-108,96
1491090502529,0,-29,49,83,91,107,123,86,-29
1491090502529,0,3,0,37,-43,-46,68,84,10
1491090502530,1,12,-12,-59,-28,-33,-20,-76,-10
1491090502530,1,59,0,0,-21,14,-32,-28,8
1491090502576,2,-37,16,1,15,-51,-40,-17,18
1491090502576,2,21,13,45,97,127,127,10,-2
1491090502577,3,-60,27,75,37,-50,-37,15,-45
1491090502577,3,-75,-62,-86,-96,-82,-128,-54,11
1491090502578,1,-27,-41,-4,-78,0,-46,-78,25
1491090502578,1,10,-5,66,127,127,48,-43,-68
1491090502579,2,15,-16,-36,-85,-51,57,61,1
1491090502579,2,-22,55,59,-79,82,91,20,0
1491090502626,3,-6,-22,-68,126,-80,26,13,-7
1491090502626,3,38,-69,-76,-88,-65,-102,-26,72
1491090502627,0,-44,-3,-9,-62,8,-13,-30,-12
1491090502627,0,22,63,67,-47,100,91,55,-75
1491090502627,2,-55,-37,-8,-38,-57,-93,-43,-29
1491090502627,2,-15,7,-31,-38,-98,-14,-45,-46
1491090502628,3,15,-13,-6,-58,-25,127,39,63
1491090502628,3,-51,-21,-76,-45,-99,107,16,-6
1491090502674,0,48,3,28,-35,-4,-67,6,80
1491090502674,0,73,-25,-3,127,-24,-17,71,-36
1491090502675,1,100,12,14,91,53,98,-48,-6
1491090502675,1,-72,50,69,63,109,-56,-63,-73
1491090502676,3,-21,17,-9,-58,26,43,49,-44
1491090502676,3,58,-6,7,29,69,46,88,37
1491090502677,0,-30,19,23,7,-18,127,-6,-43
1491090502677,0,-59,6,-5,110,-22,-128,-128,38
1491090502723,1,63,1,-12,-55,79,-8,13,3
1491090502723,1,-128,-6,2,-92,-88,94,38,-80
1491090502724,2,33,-25,-26,-89,28,84,30,40
1491090502724,2,71,43,83,80,-37,22,13,45
1491090502725,0,-6,21,21,47,41,18,-1,5
1491090502725,0,-32,-17,-8,-27,6,31,16,-17
1491090502726,1,-4,1,49,54,-42,-22,51,20
1491090502726,1,35,52,62,16,-25,76,51,-17
1491090502820,2,26,37,9,50,63,-85,-110,21
1491090502820,2,-19,-15,-37,82,124,-65,84,-85
1491090502821,3,-59,31,42,57,70,-128,17,38
1491090502821,3,-97,-6,40,-122,16,-16,-3,-98
1491090502822,0,51,-19,-54,120,-101,127,66,34
1491090502822,0,-45,-14,-68,29,93,5,-88,13
1491090502823,1,34,-26,1,-3,-114,110,46,13
1491090502823,1,63,17,-4,-62,-63,-40,-16,31
1491090502869,2,-51,40,7,-56,-7,-46,-56,-4
1491090502869,2,-9,-13,3,66,7,97,68,0
1491090502870,3,-98,-20,-4,54,35,-66,-31,-10
1491090502870,3,62,45,66,67,90,65,31,1
1491090502870,2,-62,-25,22,85,94,35,55,19
1491090502870,2,-3,-17,33,-67,81,-68,-91,-38
1491090502871,3,-25,59,0,-45,-49,1,11,38
1491090502871,3,59,-20,-25,77,-42,6,-56,-47
1491090502918,0,-85,-11,-6,39,-93,-126,46,-6
1491090502918,0,-28,-1,-12,-19,33,-31,50,-17
1491090502919,1,-4,-32,23,39,78,101,64,19
1491090502919,1,-72,36,51,48,98,102,8,5
1491090502919,3,88,-13,-69,-128,-109,47,0,0
1491090502919,3,10,-13,-13,58,45,6,45,23
1491090502920,0,-32,-3,12,-26,52,90,82,42
1491090502920,0,54,2,21,127,28,16,-64,-4
1491090502966,1,-52,48,85,-97,48,59,-11,-31
1491090502966,1,-81,-34,-23,62,-56,-44,-113,-11
1491090502967,2,-4,-13,-37,67,-25,-100,27,-23
1491090502967,2,-13,-14,13,48,49,-52,63,51
1491090502968,0,74,33,12,-27,14,107,-41,50
1491090502968,0,49,29,12,-53,25,84,98,8
1491090502969,1,-77,-25,-17,77,-59,-72,78,13
1491090502969,1,127,25,5,-56,44,-52,-56,41
1491090503016,2,-17,-53,-11,29,25,1,-21,-29
1491090503016,2,-11,16,4,-44,3,81,10,-22
1491090503017,3,-56,3,26,94,49,-49,-37,-33
1491090503017,3,-4,28,79,-91,116,43,44,-34
1491090503018,1,-53,-2,-25,2,-4,-67,-14,1
1491090503018,1,88,48,60,122,110,-102,36,74
1491090503018,2,-5,29,78,-78,59,49,-2,-121
1491090503018,2,-39,12,-10,-86,-83,-48,26,60
