1491090210712,0,42,-11,-54,-28,90,53,-104,13
1491090210712,0,-4,-24,-43,52,-27,-45,-31,-13
1491090210714,1,0,15,68,54,36,-19,-107,28
1491090210714,1,-14,5,-63,-72,-48,-120,50,63
1491090210715,2,10,18,69,32,19,64,-3,-48
1491090210715,2,28,33,73,-6,-91,127,61,57
1491090210715,3,-25,-53,-61,-91,-4,3,52,-10
1491090210715,3,2,8,-3,108,73,-88,-75,-39
1491090210760,0,4,-7,-37,-36,-73,63,45,8
1491090210760,0,-41,-20,-26,15,22,-115,-79,-48
1491090210761,1,-3,9,23,-23,-91,-94,-54,-15
1491090210761,1,-3,-23,23,23,42,127,5,45
1491090210762,2,-44,22,-6,27,-43,-65,-128,-52
1491090210762,2,47,4,26,78,62,98,14,80
1491090210762,1,23,-7,-40,93,72,-120,6,37
1491090210762,1,-3,-4,1,-119,-89,87,-97,-74
1491090210809,2,-37,-33,-26,102,-7,88,127,71
1491090210809,2,26,23,65,-48,-44,-117,7,-26
1491090210811,3,24,5,-43,-60,-21,64,-55,-2
1491090210811,3,-6,-19,-61,33,51,-14,-33,-10
1491090210811,2,0,-30,-52,-20,15,-128,2,-85
1491090210811,2,6,5,34,20,-28,104,64,47
1491090210812,3,-3,45,66,-40,12,73,58,-31
1491090210812,3,21,-1,-40,116,-53,-59,73,62
1491090210857,0,-11,-8,-15,-79,-31,127,-44,-84
1491090210857,0,13,-23,-61,-65,-73,-50,-72,28
1491090210859,1,-13,2,35,-3,32,-62,42,-26
1491090210859,1,67,34,68,91,61,127,127,55
1491090210862,3,-4,11,32,114,56,116,66,15
1491090210862,3,-5,-4,8,-34,-7,37,68,-57
1491090210863,0,-14,-13,-27,-75,-68,-38,-20,-17
1491090210863,0,-14,14,60,-38,2,62,-56,-18
1491090210906,1,-18,-32,-107,100,-32,3,97,1
1491090210906,1,16,31,45,-20,28,-93,-128,-59
1491090210907,2,11,-8,-9,-71,-11,127,96,-58
1491090210907,2,-1,47,27,100,20,-65,-45,3
1491090210907,0,-3,-17,1,41,-72,15,33,77
1491090210907,0,-8,5,-38,-19,16,-39,-53,-57
1491090210909,1,0,-34,-24,26,-12,81,11,-3
1491090210909,1,16,4,20,-114,-25,8,44,12
1491090210955,2,35,33,26,127,58,-95,80,14
1491090210955,2,-5,-1,-10,-128,-37,66,12,27
1491090211004,3,-2,-14,-40,-77,-41,48,35,8
1491090211004,3,-29,8,29,37,30,78,-53,-17
1491090211053,0,8,-28,-10,-64,5,-65,8,34
1491090211053,0,16,37,27,63,114,63,-2,-5
1491090211054,1,-6,3,-4,10,13,34,-128,-13
1491090211054,1,-9,-25,13,29,-49,-64,35,-20
1491090211055,2,-24,-21,-14,-2,-2,33,5,11
1491090211055,2,18,13,-8,-105,-119,-6,127,38
1491090211056,3,-8,-8,33,74,99,-86,-128,-7
1491090211056,3,2,12,6,-70,-57,109,-61,69
1491090211101,1,22,-5,-16,-44,-11,-34,-95,-4
1491090211101,1,13,22,-10,5,10,4,-111,37
1491090211102,2,20,16,23,72,76,-42,-41,-43
1491090211102,2,24,13,-15,-6,69,-73,14,8
1491090211109,3,53,23,30,23,60,-66,-61,32
1491090211109,3,-23,-43,-54,-34,-46,66,33,-56
1491090211110,0,-5,-4,12,-11,26,35,-26,47
1491090211110,0,-14,-14,-14,-19,-22,122,68,-38
1491090211150,1,-4,38,27,-39,0,-58,-14,13
1491090211150,1,20,-6,6,111,25,-61,-42,-6
1491090211152,2,-21,-4,-22,-57,-1,19,19,-12
1491090211152,2,-4,-25,-14,16,27,82,20,20
1491090211153,0,34,-34,-102,35,-2,7,3,-32
1491090211153,0,-27,17,-7,50,0,-45,13,12
1491090211153,1,31,-4,-13,-35,-38,62,7,8
1491090211153,1,-9,3,27,40,29,9,-87,5
1491090211199,2,-23,4,23,-29,-12,90,75,-54
1491090211199,2,16,24,5,-70,42,-128,-7,52
1491090211201,3,-15,-7,7,52,67,103,-51,-65
1491090211201,3,-26,-19,-24,-71,-8,53,25,-38
1491090211209,1,-23,1,8,-60,-34,32,-17,-9
1491090211209,1,13,-1,-10,13,65,13,61,16
1491090211210,2,-39,-3,10,-14,51,-40,-28,-28
1491090211210,2,5,-1,-26,-54,-18,-8,-23,-15
1491090211248,3,9,-12,-3,-39,-75,47,-47,37
1491090211248,3,19,-13,-9,21,-31,-39,110,-1
1491090211250,0,-12,13,40,30,2,92,-8,4
1491090211250,0,-14,3,29,38,-30,-32,-49,-23
1491090211251,2,24,14,3,98,-76,-52,-56,13
1491090211251,2,-3,-6,8,52,-26,75,80,-30
1491090211252,3,11,-6,-7,-5,-57,15,96,25
1491090211252,3,-7,10,14,-35,-50,-31,-62,-46
1491090211296,0,21,8,28,5,-22,67,42,28
1491090211296,0,-11,-8,-31,-73,-65,-39,-79,0
1491090211297,1,-28,-25,-7,2,-51,-25,0,-10
1491090211297,1,12,15,4,-74,-8,-4,3,15
1491090211298,2,9,-7,-20,-28,5,35,46,1
1491090211298,2,-6,0,0,1,-17,-89,48,15
1491090211299,3,0,-6,1,-36,-8,93,-90,38
1491090211299,3,18,14,-16,73,44,-51,49,43
1491090211345,0,-15,-14,-16,7,-44,-128,-59,2
1491090211345,0,-1,-17,-4,6,41,103,-96,-19
1491090211347,1,-10,-1,-21,-47,-41,-31,82,-21
1491090211347,1,8,27,67,40,11,110,51,28
1491090211348,3,16,40,14,-82,26,-113,-115,-17
1491090211348,3,-17,-54,-56,-18,-70,-41,34,-20
1491090211349,0,29,21,-8,-91,-22,-11,-31,9
1491090211349,0,-10,7,22,9,19,29,37,-1
1491090211394,1,-8,6,0,35,-5,20,50,51
1491090211394,1,6,-5,9,4,37,-31,-58,-68
1491090211395,2,-2,11,22,-25,-4,80,74,12
1491090211395,2,-28,-10,13,92,-40,-43,-48,-10
1491090211396,0,-14,-33,-45,-95,-25,52,41,0
1491090211396,0,41,31,46,-13,68,-33,-31,51
1491090211397,1,6,1,-32,77,-49,-2,8,-41
1491090211397,1,16,-5,1,-18,-20,-8,14,45
1491090211443,2,-14,9,25,-11,25,107,-94,-40
1491090211443,2,-11,-21,-31,-56,-13,-49,109,5
1491090211444,3,-14,-4,14,35,-6,19,53,5
1491090211444,3,9,15,6,-67,-13,-29,-58,-13
1491090211445,1,-7,-17,-25,-19,-1,-48,-33,-26
1491090211445,1,-24,8,23,84,77,71,53,-45
1491090211446,2,10,-6,-5,-94,-30,98,74,-6
1491090211446,2,-4,1,13,27,-12,-108,-48,-28
1491090211491,3,-7,-12,-16,-65,-26,88,33,-11
1491090211491,3,-3,0,-36,-42,-34,-7,58,47
1491090211493,0,6,7,47,127,71,-44,-95,-21
1491090211493,0,-9,-10,-35,-61,-51,-14,-45,7
1491090211494,2,8,6,-11,-58,-19,-1,84,-2
1491090211494,2,-18,4,48,127,23,83,-80,-41
1491090211495,3,-16,-36,-21,-5,3,-61,82,11
1491090211495,3,-1,20,19,14,-37,127,-16,-56
1491090211540,0,12,-24,-61,-89,4,-128,-11,35
1491090211540,0,-3,5,-11,2,-30,127,120,22
1491090211542,1,10,8,5,-101,-39,33,-63,-31
1491090211542,1,9,-2,17,127,87,2,97,-14
1491090211543,3,13,-7,-35,-78,-27,3,-10,65
1491090211543,3,-23,-19,10,-9,-16,121,12,9
1491090211544,0,10,27,14,18,-29,-78,-72,25
1491090211544,0,7,12,-31,-89,-39,-70,35,-37
1491090211589,1,-37,8,46,124,33,21,-99,13
1491090211589,1,10,-22,-39,-77,84,23,93,-42
1491090211590,2,22,-24,2,69,-30,12,-35,62
1491090211590,2,-27,14,21,-46,0,20,-75,-5
1491090211591,0,-9,-15,30,9,-28,100,53,-39
1491090211591,0,1,-2,-26,72,51,-57,-44,-14
1491090211591,1,-22,-17,-26,-5,-3,-56,101,-52
1491090211591,1,-15,2,84,25,25,126,26,29
1491090211638,2,-10,-5,-59,-58,16,-108,-13,-9
1491090211638,2,15,-29,-22,-21,-54,-38,-102,6
1491090211639,3,-24,-7,0,-21,-5,-42,-67,-5
1491090211639,3,42,23,25,78,-11,-38,-51,-16
1491090211639,1,3,-5,1,102,56,-87,-50,13
1491090211639,1,-16,-26,-16,-60,-75,0,-128,-32
1491090211640,2,-17,5,-23,13,-37,86,90,32
1491090211640,2,60,6,-35,8,34,53,-55,24
1491090211686,3,-18,-11,3,-24,9,56,-53,-3
1491090211686,3,-14,2,9,-5,-22,55,63,31
1491090211688,0,-6,12,21,30,23,-74,-66,-13
1491090211688,0,-10,-6,13,17,-20,24,37,36
1491090211689,1,18,-6,-12,-39,-19,29,3,-43
1491090211689,1,-2,7,5,12,5,74,-12,-13
1491090211690,2,-2,5,4,-53,6,-111,-128,-44
1491090211690,2,-10,17,-5,19,-16,127,95,66
1491090211735,3,25,17,-6,-128,-7,24,-6,-14
1491090211735,3,-12,-15,-47,34,20,-90,-24,15
1491090211737,0,-10,-32,2,43,-13,40,49,-25
1491090211737,0,4,12,18,3,58,-45,-25,14
1491090211738,2,-2,-11,6,-7,26,-21,-33,-8
1491090211738,2,-6,-1,-1,-25,-45,-10,19,-3
1491090211739,3,1,21,35,95,-7,110,-2,-25
1491090211739,3,5,-12,-38,-127,-31,-128,93,58
1491090211784,0,-2,-33,-33,64,56,-116,-72,-26
1491090211784,0,3,10,5,-62,-32,127,127,15
1491090211785,1,-2,-20,-34,87,39,-128,-107,-30
1491090211785,1,-16,-31,-18,0,-3,-25,-13,-1
1491090211786,3,-9,21,18,16,-45,50,92,44
1491090211786,3,-5,-31,-23,-37,-27,-96,-80,-37
1491090211786,0,5,18,-6,-98,-44,38,17,2
1491090211786,0,-14,-26,12,103,85,-62,-92,-68
1491090211833,1,-1,8,-7,-11,19,17,46,28
1491090211833,1,15,8,31,65,-12,37,-7,50
1491090211834,2,-3,5,-27,-128,-31,107,93,21
1491090211834,2,19,-14,-28,-24,-11,-128,-68,1
1491090211835,0,25,-5,5,106,55,-33,-76,-9
1491090211835,0,-3,-9,-17,-88,-47,74,5,39
1491090211836,1,-7,-6,-1,101,3,-6,9,-13
1491090211836,1,2,12,66,31,69,-9,2,35
1491090211881,2,-9,-35,-73,-80,-90,45,80,8
1491090211881,2,-9,-2,-15,62,44,-82,-75,-9
1491090211883,3,-11,-7,3,28,-3,13,51,-20
1491090211883,3,-3,-3,-40,-106,-64,98,-24,-29
1491090211884,1,-3,27,-15,-90,-8,23,-52,15
1491090211884,1,-3,1,30,32,16,-35,20,-34
1491090211885,2,-1,-17,6,53,13,-14,1,49
1491090211885,2,-3,-26,-15,-44,-16,76,1,-34
1491090211930,3,3,81,41,6,22,-3,-5,3
1491090211930,3,-4,-40,-49,-54,-61,4,43,-24
1491090211932,0,-3,40,39,-11,-51,71,-90,-21
1491090211932,0,-9,-24,-43,-65,18,-83,79,-39
1491090211933,2,-3,-15,10,41,8,-36,-76,-69
1491090211933,2,0,63,66,50,9,20,-44,25
1491090211933,3,-19,-91,-50,-57,-22,-54,-39,-33
1491090211933,3,5,-66,-59,-6,23,-28,2,0
1491090211979,0,2,30,20,30,-32,10,48,37
1491090211979,0,-6,60,26,46,7,89,47,-1
1491090211979,1,1,-93,8,-35,2,-5,-33,42
1491090211979,1,-10,30,-4,60,-11,25,-14,-12
1491090212028,3,-5,21,-34,-26,-14,-1,61,-17
1491090212028,3,7,5,0,45,8,42,-52,13
1491090212029,0,-20,-43,5,52,28,-26,92,-25
1491090212029,0,-15,-21,-28,-63,-44,68,11,3
1491090212029,1,13,45,51,17,29,-128,-8,13
1491090212029,1,-24,-88,-20,25,29,-34,-72,-17
1491090212030,2,8,56,-3,22,-10,61,22,10
1491090212030,2,-7,-111,0,13,2,-18,-51,-29
1491090212076,3,-28,-33,-44,-35,-69,97,21,-65
1491090212076,3,7,55,5,20,40,-90,-63,-24
1491090212077,0,-1,-2,9,42,-12,89,73,9
1491090212077,0,17,20,-15,22,52,-23,-56,-6
1491090212078,1,-5,-17,9,48,1,18,-50,37
1491090212078,1,-4,14,-31,-122,-88,124,42,-31
1491090212079,0,11,36,-5,-128,8,20,-22,4
1491090212079,0,-3,1,35,101,-32,-42,76,-28
1491090212125,1,-1,-36,-25,-62,13,-128,-80,45
1491090212125,1,-4,36,-1,-61,12,90,48,33
1491090212126,2,12,23,9,44,8,-75,43,-8
1491090212126,2,2,-9,15,-71,3,127,-15,32
1491090212126,1,3,45,57,-119,-12,49,127,-15
1491090212126,1,8,-35,-98,127,-18,-128,-95,35
1491090212127,2,1,-1,-32,-64,-33,-19,-66,-7
1491090212127,2,3,13,13,24,-2,111,127,21
1491090212179,3,16,25,76,-11,2,61,-20,4
1491090212179,3,-6,31,76,64,30,-112,-13,-34
1491090212180,0,-8,-32,-44,-109,-14,-51,-128,48
1491090212180,0,-9,-22,-27,85,-29,86,66,-21
1491090212180,2,-11,10,45,104,15,48,-49,-62
1491090212180,2,26,28,-11,-94,56,10,-83,87
1491090212181,3,-36,-28,-38,71,31,39,11,-44
1491090212181,3,25,16,13,-12,19,-19,-71,19
1491090212223,0,-8,-12,-9,7,-47,-74,-69,-79
1491090212223,0,-8,-4,0,-89,-27,90,-16,-28
1491090212224,1,13,1,-13,96,71,-75,36,35
1491090212224,1,-5,6,10,-29,-14,-80,-22,11
1491090212224,3,9,-16,-40,17,15,-52,90,85
1491090212224,3,-46,-35,-18,-35,-28,74,38,-74
1491090212225,0,31,22,34,70,13,90,32,8
1491090212225,0,-13,-1,-28,-77,29,-88,7,55
1491090212271,1,-24,-36,15,-68,-83,117,-86,-72
1491090212271,1,12,8,15,-40,44,0,-16,64
1491090212273,2,-6,-22,-47,48,-10,32,-6,-2
1491090212273,2,14,2,15,127,5,-64,26,-16
1491090212274,0,-16,10,13,74,97,-78,-11,-19
1491090212274,0,20,-31,-30,0,-56,-23,-8,17
1491090212275,1,1,34,23,9,34,82,23,-20
1491090212275,1,18,1,30,61,5,-31,-63,-5
1491090212320,2,-42,9,26,9,-7,-17,-22,-20
1491090212320,2,-17,-29,-58,-60,16,-15,96,-34
1491090212321,3,20,-8,-57,34,-14,65,12,63
1491090212321,3,-6,9,28,63,8,-79,-62,-31
1491090212322,1,-4,-18,1,-50,12,-86,-11,8
1491090212322,1,10,-10,-53,-15,-20,45,-6,-4
1491090212322,2,0,4,13,-7,-21,-37,14,23
1491090212322,2,7,17,15,-107,-11,94,47,-28
1491090212369,3,-30,20,23,-28,-26,12,-67,11
1491090212369,3,14,-16,9,125,67,-39,127,-7
1491090212370,0,27,5,-39,-113,-13,-87,-77,40
1491090212370,0,-22,-12,-1,-5,11,79,83,12
1491090212370,1,-6,7,99,83,8,2,-19,-29
1491090212370,1,-2,21,-67,-89,18,-16,14,8
1491090212371,2,-13,-40,-26,64,-58,58,-98,-22
1491090212371,2,36,57,35,43,32,-40,30,28
1491090212418,3,-10,-13,-14,12,-32,29,-75,-38
1491090212418,3,3,9,44,19,-13,32,47,31
1491090212418,0,3,9,-8,-56,42,24,-14,42
1491090212418,0,-25,-34,-29,60,-7,-47,40,10
1491090212419,2,5,-7,-20,-17,-42,20,8,12
1491090212419,2,-13,12,45,45,11,75,-63,-18
1491090212420,3,22,16,-21,-6,10,-116,37,58
1491090212420,3,-23,-19,-8,-118,-78,127,-5,-73
1491090212466,0,-11,3,17,111,68,-46,60,30
1491090212466,0,31,-5,-10,-76,-14,23,-9,-12
1491090212468,1,8,-31,-57,49,-34,-89,-40,3
1491090212468,1,-34,9,7,-18,-30,61,127,21
1491090212469,3,21,-5,0,-27,0,-18,-91,14
1491090212469,3,-16,-8,-9,-3,-17,116,93,-12
1491090212470,0,37,40,36,12,41,-105,-70,13
1491090212470,0,-31,-11,-1,14,-12,64,-3,-55
1491090212515,1,16,-20,-14,-25,23,-58,7,8
1491090212515,1,-9,-10,14,63,31,-112,-53,-29
1491090212517,2,-11,2,-11,-123,1,96,79,-33
1491090212517,2,-9,-17,-34,-1,-10,-128,-128,69
1491090212520,0,-20,-1,27,86,6,18,36,22
1491090212520,0,-20,-11,-16,-44,-9,-22,-112,-104
1491090212521,1,5,20,13,75,-32,82,90,37
1491090212521,1,10,0,1,-12,27,-101,-3,28
1491090212564,2,7,-19,-10,-10,-59,82,-57,-71
1491090212564,2,-4,1,16,-28,20,76,110,50
1491090212565,3,1,17,35,71,59,-104,-62,4
1491090212565,3,-26,-12,-7,-34,-12,125,-27,-2
1491090212566,1,-21,9,17,-21,-2,-45,-3,-63
1491090212566,1,12,29,-13,-7,-8,-9,7,6
1491090212567,2,-37,-14,3,-35,6,71,47,1
1491090212567,2,11,-8,11,20,-6,-23,33,4
1491090212613,3,11,24,50,-12,-16,-37,34,-16
1491090212613,3,-35,-23,-49,71,2,-103,-107,6
1491090212614,0,17,-23,-25,65,-47,-2,102,-7
1491090212614,0,14,42,6,-84,-4,-41,-10,-5
1491090212615,2,-2,-1,-7,-25,-50,-41,-43,29
1491090212615,2,-24,-1,5,31,83,-7,-16,-19
1491090212615,3,27,7,4,-83,-32,127,3,19
1491090212615,3,-2,13,14,-58,-34,120,-14,24
1491090212661,0,-14,-27,-18,-3,17,-108,-32,5
1491090212661,0,-5,12,11,62,9,25,-12,-21
1491090212663,1,-18,2,-6,-56,-18,87,81,2
1491090212663,1,50,-6,-6,-2,-4,-46,-14,39
1491090212664,3,-15,-33,-70,53,21,-54,-20,-23
1491090212664,3,3,13,48,66,38,26,49,16
1491090212665,0,44,23,0,-60,18,-26,-60,59
1491090212665,0,-14,-15,-12,12,-19,32,-80,-5
1491090212710,1,-36,-6,-4,-38,-33,112,67,-65
1491090212710,1,62,11,29,30,13,-80,69,28
1491090212711,2,-28,-12,-20,-3,8,57,22,-9
1491090212711,2,-6,4,-2,-17,-38,32,-4,-10
1491090212759,3,-4,-4,-15,-58,-12,-57,14,-7
1491090212759,3,-22,-21,3,23,-4,-15,32,-1
1491090212760,0,0,40,23,-42,5,8,-120,-59
1491090212760,0,10,-46,-37,80,-33,-46,37,29
1491090212761,1,-4,17,4,-37,22,-54,-74,22
1491090212761,1,-27,8,19,-42,16,43,-7,-39
1491090212762,2,48,-14,-16,45,-9,-27,17,3
1491090212762,2,-33,15,30,-121,-27,3,21,-15
1491090212808,0,-34,-12,21,25,-22,127,26,14
1491090212808,0,45,44,26,38,89,-112,-44,-17
1491090212809,1,-10,-9,4,-74,-2,-12,-5,-14
1491090212809,1,-13,-4,-19,53,4,17,-34,7
1491090212810,2,-46,-25,-6,-15,-37,44,-19,-17
1491090212810,2,-5,3,14,63,-1,9,58,26
1491090212811,1,-30,-14,-9,-16,-24,103,38,-23
1491090212811,1,36,42,62,2,80,-50,-44,14
1491090212856,2,-17,-19,-3,127,-1,-24,13,1
1491090212856,2,-31,-2,-9,-26,42,52,49,-21
1491090212857,3,-28,6,-10,11,-78,127,71,7
1491090212857,3,60,-1,-19,-12,26,-93,-58,6
1491090212858,2,42,-3,-38,-17,-59,-128,-18,-5
1491090212858,2,-21,-21,-20,-68,-69,55,-19,-46
1491090212859,3,-21,-37,37,-4,19,-31,52,-4
1491090212859,3,8,30,18,-30,18,-62,-23,-11
1491090213002,0,-6,19,-4,36,56,6,40,29
1491090213002,0,-3,-1,-11,-53,-68,2,-19,1
1491090213003,1,-15,-27,-35,85,17,-86,-57,-35
1491090213003,1,-7,-21,-3,-106,-38,116,-48,-20
1491090213004,3,-12,31,20,75,18,0,-128,-24
1491090213004,3,3,-17,-8,-24,26,-60,119,60
1491090213005,0,-19,-20,5,-110,-43,125,-61,-14
1491090213005,0,-1,-7,-48,-55,-23,-126,-2,-9
1491090213051,1,32,9,-5,50,97,-73,-11,17
1491090213051,1,-30,-3,-40,-63,-72,-1,-66,-8
1491090213052,2,-4,-11,9,-83,-110,101,-6,-15
1491090213052,2,20,16,37,117,118,-67,103,48
1491090213052,0,-3,-11,6,29,33,55,37,-27
1491090213052,0,-5,8,19,-23,-18,72,72,-7
1491090213054,2,-10,-1,50,59,45,-23,-83,-10
1491090213054,2,-3,-8,-32,-57,-84,31,-94,-44
1491090213100,3,34,-5,-4,24,34,-93,45,37
1491090213100,3,7,-27,-39,-81,-67,66,-16,-36
1491090213101,0,-27,11,19,92,24,33,39,-10
1491090213101,0,2,-10,11,-14,0,-34,-13,-8
1491090213101,2,-1,5,-2,-128,-4,-13,66,42
1491090213101,2,4,4,5,122,50,21,-17,29
1491090213102,3,-3,-2,-16,-15,-9,35,81,8
1491090213102,3,19,-11,-20,-21,-18,76,47,8
1491090213149,0,-31,16,35,58,-79,-39,-13,43
1491090213149,0,37,3,-11,-42,67,-91,-17,7
1491090213150,1,-14,-15,-43,-101,-78,-51,-128,-48
1491090213150,1,-10,-7,28,45,26,127,29,6
1491090213151,3,-7,4,31,17,44,38,18,-9
1491090213151,3,-11,2,16,73,15,71,1,-9
1491090213151,0,9,27,26,-10,99,-86,-40,-45
1491090213151,0,6,-25,-41,-121,-107,-28,127,15
1491090213199,1,8,-4,0,127,22,-56,-37,25
1491090213199,1,-21,7,25,27,-2,15,28,-12
1491090213199,2,28,-3,-17,-81,-42,105,55,21
1491090213199,2,0,-13,10,100,125,40,-66,20
1491090213200,0,0,-13,-10,-3,-22,16,-70,-56
1491090213200,0,-24,-7,14,-17,-50,127,10,-4
1491090213201,1,10,29,31,100,72,-90,-108,-10
1491090213201,1,-21,-2,28,10,23,45,101,-43
1491090213246,2,-12,-5,-35,-20,-17,-75,-128,-16
1491090213246,2,6,-17,-21,5,0,16,127,13
1491090213247,3,23,-1,23,6,7,96,34,-44
1491090213247,3,23,34,25,-4,26,12,-71,-19
1491090213247,1,-21,-12,-1,-14,-22,40,62,2
1491090213247,1,13,-7,3,-51,-59,41,31,-13
1491090213249,2,3,17,17,113,52,124,-25,-9
1491090213249,2,-9,-15,-14,-63,-6,-104,-117,30
1491090213295,3,4,-8,-24,-104,-70,42,54,-14
1491090213295,3,-24,-10,-14,16,-41,55,-1,7
1491090213296,0,16,19,26,-22,62,-94,-89,-36
1491090213296,0,18,1,-14,-5,17,78,127,38
1491090213296,2,20,0,-1,-7,-11,-74,30,22
1491090213296,2,3,9,0,20,-13,-40,-128,-73
1491090213297,3,-14,-21,-5,28,10,66,73,87
1491090213297,3,7,-1,-20,-122,-4,-120,-51,-43
1491090213344,0,4,-4,-6,33,-50,29,58,38
1491090213344,0,-1,15,46,12,-1,48,-47,-44
1491090213345,1,-31,-8,-10,6,22,53,-66,-16
1491090213345,1,28,7,-3,36,32,-100,2,29
1491090213346,3,12,13,7,71,76,-11,27,15
1491090213346,3,-19,-15,-25,11,-29,-49,-90,-16
1491090213347,0,-13,1,4,-37,-19,91,98,-11
1491090213347,0,-3,11,18,-19,-18,78,23,-16
1491090213392,1,-31,8,-3,-82,-43,-31,-88,-68
1491090213392,1,13,-10,-8,58,24,-27,106,35
1491090213394,2,-20,-20,-7,3,15,66,-48,2
1491090213394,2,12,1,-9,-42,-22,-88,35,-24
1491090213395,0,11,6,1,66,-12,-16,-31,-35
1491090213395,0,-6,-20,-26,-65,-9,-65,92,10
1491090213398,1,-15,6,1,-24,-28,55,27,0
1491090213398,1,5,2,29,-25,13,-120,-4,11
1491090213441,2,-3,1,22,113,74,54,-34,43
1491090213441,2,-6,-4,-34,-51,4,47,2,-9
1491090213442,3,-17,-40,-38,-128,-59,-98,-62,-7
1491090213442,3,17,24,7,86,-14,56,33,20
1491090213490,0,1,6,20,7,32,-13,-92,-21
1491090213490,0,14,-5,9,16,-9,39,97,22
1491090213491,1,-20,-18,-32,-40,-47,-2,-82,-12
1491090213491,1,-21,-5,27,25,16,117,59,49
1491090213492,2,46,13,-14,-8,-43,-128,-41,-38
1491090213492,2,-23,2,-4,-3,45,76,17,17
1491090213493,3,17,5,22,21,38,73,-27,14
1491090213493,3,-14,2,2,39,-47,-95,-96,10
1491090213539,1,8,-2,-23,10,-53,83,66,-67
1491090213539,1,17,12,-1,-44,49,-65,-88,-19
1491090213540,2,-13,-5,34,-26,-12,84,127,54
1491090213540,2,-1,-3,-47,-21,6,-128,-128,-5
1491090213541,3,0,6,1,40,38,-64,-3,9
1491090213541,3,-6,-13,-19,-78,-53,0,43,-30
1491090213542,2,-15,-19,-29,-41,20,-93,-36,-48
1491090213542,2,29,28,21,-29,-44,77,-46,12
1491090213588,3,-36,13,21,-29,56,-5,-31,-24
1491090213588,3,9,-4,13,57,39,106,79,26
1491090213588,0,-5,7,-2,9,-39,-50,-38,-39
1491090213588,0,-17,-10,-16,-88,-29,65,2,-3
1491090213589,3,-16,-11,-8,-33,-11,-79,-110,20
1491090213589,3,18,-13,-22,-57,-1,82,127,13
1491090213590,0,0,-5,3,28,-12,18,-47,9
1491090213590,0,-9,-9,-10,8,-1,92,108,-51
1491090213636,1,12,26,46,113,39,-50,-37,7
1491090213636,1,-18,-15,-35,-100,27,65,35,-20
1491090213637,2,-9,-33,-27,16,-45,5,-38,2
1491090213637,2,-8,18,27,55,53,30,10,5
1491090213638,0,5,-6,-6,-90,-12,41,32,26
1491090213638,0,-14,9,-6,43,-32,16,-80,8
1491090213639,1,-8,-1,16,20,39,-97,0,-4
1491090213639,1,3,0,9,-42,-1,36,-76,5
1491090213685,2,-6,6,6,-60,-13,82,-8,-45
1491090213685,2,-9,-35,-51,45,29,-80,98,8
1491090213686,3,2,4,17,24,-33,52,21,23
1491090213686,3,-21,11,31,16,35,-70,-102,-26
1491090213687,1,10,13,0,-20,30,122,-2,-2
1491090213687,1,-22,-18,-9,7,-33,-26,50,29
1491090213689,2,0,13,9,16,26,28,-43,-19
1491090213689,2,1,-6,24,58,-10,-100,-62,41
1491090213734,3,-2,-27,-58,-64,-18,71,70,-16
1491090213734,3,8,-4,0,58,-10,-65,-30,21
1491090213735,0,-4,4,9,-23,1,-21,17,44
1491090213735,0,-26,-19,-19,-63,-38,-1,5,-26
1491090213736,2,25,15,-3,60,10,-108,-122,-20
1491090213736,2,-22,-8,11,64,40,32,81,11
1491090213737,3,-1,-1,-29,-105,-56,50,-18,-17
1491090213737,3,-25,6,-3,14,32,-32,41,-14
1491090213783,0,10,-7,5,-56,-9,43,53,35
1491090213783,0,9,19,20,49,6,-30,-128,-39
1491090213784,1,-13,-12,10,-13,-22,92,12,-17
1491090213784,1,23,0,-22,-60,-8,-45,7,65
1491090213785,2,-33,-13,5,53,34,-16,-34,-55
1491090213785,2,30,-3,-35,-87,-35,-55,18,12
1491090213786,3,6,-4,20,122,39,75,65,27
1491090213786,3,22,22,15,-17,-33,-39,-43,-12
1491090213831,0,-4,23,9,-6,34,-23,104,45
1491090213831,0,-43,-12,-10,-69,-21,127,-79,-41
1491090213833,1,29,-4,-10,10,11,-114,4,-1
1491090213833,1,-2,7,25,44,2,30,83,-9
1491090213834,3,-30,-18,-47,-128,-47,-74,-48,-90
1491090213834,3,21,3,24,113,39,68,-43,25
1491090213835,0,0,-12,-56,-128,-25,-8,97,-3
1491090213835,0,-30,-32,-16,35,-21,-31,-91,-45
1491090213880,1,34,25,32,50,45,4,83,94
1491090213880,1,-3,-4,-9,-38,-4,78,5,-31
1491090213881,2,7,19,9,26,-26,-39,-113,22
1491090213881,2,-12,5,30,-11,4,-39,-3,-32
1491090213882,0,34,17,61,76,78,-43,-14,111
1491090213882,0,7,-7,-45,-123,-64,-41,82,46
1491090213884,1,-24,-21,-15,115,47,-96,-90,-37
1491090213884,1,-19,-4,-4,64,-60,41,-112,-39
1491090213929,2,-37,-35,-38,-88,-37,-13,78,-9
1491090213929,2,36,13,10,-7,50,99,39,-6
1491090213930,3,28,15,22,8,28,56,-10,81
1491090213930,3,-18,-13,-13,-67,-30,-70,17,-23
1491090213931,1,4,9,7,-33,-50,36,2,-4
1491090213931,1,-23,-17,-26,-31,32,-105,-56,9
1491090213932,2,2,-7,8,-6,-7,-7,-9,-28
1491090213932,2,-1,9,29,11,18,87,41,-7
1491090213978,3,-20,-7,-30,-32,-2,-73,-20,-19
1491090213978,3,31,-27,-25,-106,-62,13,59,11
1491090213979,0,-26,16,8,73,31,38,33,-49
1491090213979,0,13,-1,4,61,17,37,-72,77
1491090213980,2,-16,-35,-35,-47,7,16,36,-70
1491090213980,2,16,12,-2,13,-7,-15,25,8
1491090213981,3,-21,12,14,-15,12,-33,-119,0
1491090213981,3,10,0,16,31,4,-3,51,20
1491090214026,0,-12,10,-8,-93,-47,85,23,9
1491090214026,0,-9,-2,8,120,75,-13,30,-29
1491090214028,1,9,-15,-22,-52,-47,127,51,2
1491090214028,1,-17,14,-15,-35,7,-44,-62,-64
1491090214029,3,-2,-1,-8,-41,-10,-39,48,-50
1491090214029,3,-12,4,17,45,-7,127,7,43
1491090214030,0,3,15,14,-9,14,-46,-60,-50
1491090214030,0,2,-7,-20,-26,-7,-110,-67,3
1491090214075,1,-10,-2,6,10,6,127,87,23
1491090214075,1,-1,-13,-4,-75,-13,-54,-87,-24
1491090214076,2,-4,5,-1,51,-64,-5,-59,23
1491090214076,2,40,-4,-5,75,55,41,68,19
1491090214077,0,7,-4,-9,-32,-37,-60,-10,-22
1491090214077,0,-17,11,20,-26,-12,-17,-58,28
1491090214078,1,2,-10,-2,40,-6,14,36,43
1491090214078,1,-8,-2,5,3,23,115,10,6
1491090214124,2,12,15,11,-14,22,-69,-97,-47
1491090214124,2,-16,3,18,16,-27,10,101,-42
1491090214124,3,17,-6,-22,-62,17,4,-63,18
1491090214124,3,-21,-20,-38,-95,-100,16,19,-14
1491090214125,0,0,6,-18,47,26,-69,54,34
1491090214125,0,-18,-25,20,20,0,65,-39,-51
1491090214126,1,23,23,12,64,59,17,78,56
1491090214126,1,0,-9,16,126,-7,-47,-80,8
1491090214172,2,-13,-9,-11,-49,-30,35,26,12
1491090214172,2,6,2,-10,-50,-13,2,88,-7
1491090214173,3,-13,-3,7,-30,-36,-2,-82,-10
1491090214173,3,1,4,18,41,85,47,93,30
1491090214175,1,-26,-7,6,18,-34,58,10,-11
1491090214175,1,27,15,-27,-34,22,-73,-36,-22
1491090214221,2,-7,-6,25,-1,26,96,0,-25
1491090214221,2,-17,3,-5,-67,-17,46,-5,-13
1491090214222,3,8,-17,-15,41,0,23,10,2
1491090214222,3,33,27,37,40,14,-24,-4,21
1491090214222,0,4,2,-4,-91,27,47,18,41
1491090214222,0,-4,0,-16,17,-11,15,-39,-34
1491090214224,2,-1,1,-29,-61,-28,-20,95,-23
1491090214224,2,3,-17,-13,-88,-16,-35,24,34
1491090214270,3,-7,-7,-33,-54,-49,-48,-119,-53
1491090214270,3,-8,5,29,47,9,80,-42,17
1491090214271,0,-12,-8,-16,35,-8,-39,-125,-28
1491090214271,0,-13,0,13,79,67,100,127,57
1491090214271,3,8,17,36,30,-7,-87,-17,15
1491090214271,3,-23,1,5,-89,5,93,20,10
1491090214319,0,10,-8,-32,19,-25,-48,-42,-5
1491090214319,0,-4,-4,15,4,4,33,37,23
1491090214320,1,14,13,2,-8,14,-46,-81,-5
1491090214320,1,-20,-10,2,17,-32,33,78,-51
1491090214320,2,-15,8,21,-18,7,-41,-55,-23
1491090214320,2,6,-16,-32,3,22,-6,42,-4
1491090214321,0,-2,0,1,-29,15,105,81,18
1491090214321,0,-13,5,20,7,-26,66,-28,-15
1491090214367,1,9,13,22,76,34,-45,12,-9
1491090214367,1,18,-14,-21,-19,-12,-86,-34,20
1491090214368,2,2,-22,-2,19,-3,4,-29,-30
1491090214368,2,-4,12,-18,-92,-53,23,28,38
1491090214369,3,14,3,31,100,51,32,-32,-5
1491090214369,3,-4,19,6,-102,-19,72,39,-2
1491090214370,1,-3,-1,-8,-59,-8,37,46,-31
1491090214370,1,-32,-16,-1,74,-11,-44,14,-72
1491090214416,2,20,15,30,-28,12,65,-18,39
1491090214416,2,1,-2,-27,2,-8,-73,-87,-15
1491090214417,3,-34,-14,11,22,-12,64,55,-70
1491090214417,3,28,7,-14,-32,30,-101,-26,86
1491090214514,2,36,9,-17,-73,-14,25,65,7
1491090214514,2,-6,8,36,120,39,77,-97,14
1491090214516,3,-11,-11,-39,-69,-5,-128,56,6
1491090214516,3,12,-9,5,17,-4,45,-74,22
1491090214517,0,8,23,13,15,2,-27,83,53
1491090214517,0,-21,-1,10,-2,7,78,-40,-96
1491090214518,1,5,11,8,29,12,-25,-49,37
1491090214518,1,-10,-4,41,31,15,21,22,14
1491090214563,3,-9,11,7,-19,14,104,27,-40
1491090214563,3,11,19,29,13,-9,15,19,32
1491090214564,0,4,4,12,35,28,-9,-43,-43
1491090214564,0,19,12,-6,-90,-3,-68,-65,13
1491090214565,1,6,0,-25,21,-33,-39,53,56
1491090214565,1,-10,-15,-14,-50,-29,40,-15,-57
1491090214566,0,39,-11,-37,-34,-11,2,19,-8
1491090214566,0,-25,0,-4,-23,1,1,-27,4
1491090214612,1,-6,-12,-6,-29,-9,48,-93,-37
1491090214612,1,6,2,6,10,-18,88,58,-3
1491090214613,2,-9,-3,13,-6,4,-121,-50,17
1491090214613,2,18,20,54,20,43,108,120,23
1491090214613,1,9,15,23,1,27,-51,-19,21
1491090214613,1,-15,-6,-6,-47,16,78,87,42
1491090214614,2,-5,-7,-5,33,-13,-6,-27,-52
1491090214614,2,-21,-12,-8,-39,-3,1,-17,-22
1491090214660,3,9,4,12,17,4,-29,21,-5
1491090214660,3,8,-11,-18,23,2,0,-46,1
1491090214662,0,-35,8,24,41,16,-18,-21,-8
1491090214662,0,12,-1,-35,-128,-30,-40,32,41
1491090214663,2,-9,14,36,3,-6,-3,85,57
1491090214663,2,15,-14,-40,-113,-55,2,27,-19
1491090214664,3,8,-3,-4,89,38,-87,39,34
1491090214664,3,10,-12,-34,-21,2,17,-15,12
1491090214709,0,4,6,8,38,-10,67,-44,-17
1491090214709,0,5,0,26,25,15,-17,16,26
1491090214710,1,-20,3,-14,-72,-8,35,14,18
1491090214710,1,-6,-7,-7,5,-4,42,-9,-39
1491090214710,3,-4,0,-32,13,-17,-49,47,-25
1491090214710,3,-4,-5,-8,18,24,-94,-66,7
1491090214711,0,-32,-19,-26,-18,-8,127,-44,-61
1491090214711,0,-10,-3,3,20,-4,-50,-45,-8
1491090214757,1,35,17,26,7,28,8,13,76
1491090214757,1,3,19,7,-53,-23,-65,-40,-41
1491090214758,2,3,-12,-8,74,33,-2,73,-7
1491090214758,2,-22,-20,-19,17,0,39,-92,-5
1491090214806,0,-2,4,7,9,-37,35,-34,-11
1491090214806,0,-3,6,1,17,66,-37,49,-5
1491090214807,1,-15,-10,-2,-42,-47,45,-44,-38
1491090214807,1,-4,-3,1,0,17,-20,-4,15
1491090214808,2,-10,-20,-10,9,-22,45,-7,-9
1491090214808,2,15,19,6,69,67,-128,-128,-16
1491090214809,3,0,-2,11,38,-7,11,116,-30
1491090214809,3,-8,-10,-5,-52,-54,98,-77,-28
1491090214855,1,-3,-3,28,41,24,12,-15,-2
1491090214855,1,14,20,-5,11,30,9,70,8
1491090214856,2,17,-4,9,20,-9,-71,-128,3
1491090214856,2,8,-8,-16,-28,-7,48,116,8
1491090214856,3,-23,-9,2,-25,-19,-65,-80,-14
1491090214856,3,-1,6,13,40,12,76,14,-29
1491090214857,1,4,-17,-19,3,-47,99,42,10
1491090214857,1,15,6,11,2,53,-58,-30,-6
1491090214904,2,-8,8,19,-42,-28,21,10,-24
1491090214904,2,-6,-10,-17,7,-59,-20,16,36
1491090214904,3,-35,-9,-25,-83,22,-3,-18,-62
1491090214904,3,-14,-10,14,86,-8,104,-33,7
1491090214905,2,-17,-4,22,64,71,54,21,-21
1491090214905,2,1,-17,-6,25,-58,27,-32,-26
1491090214906,3,4,-18,-28,-49,9,-42,40,15
1491090214906,3,-3,-6,16,-13,5,-28,-35,-2
1491090214952,0,-2,12,-9,-48,-63,63,-75,-9
1491090214952,0,-10,-19,-12,25,55,-77,-19,-19
1491090214953,1,24,15,20,6,10,80,37,49
1491090214953,1,-16,-3,-18,-21,-20,86,-25,12
1491090214954,3,19,-3,-21,82,34,-78,31,18
1491090214954,3,11,-6,5,19,-2,20,84,13
1491090214955,0,1,21,7,-25,1,3,-71,-16
1491090214955,0,14,-2,-2,46,11,18,81,49
1491090215001,1,-11,0,9,-15,27,15,-33,-13
1491090215001,1,-8,-1,6,-23,-72,17,20,-4
1491090215050,2,-9,-23,-39,-64,-41,-55,-89,-60
1491090215050,2,-1,2,24,47,56,-37,75,50
1491090215099,0,18,18,35,45,42,54,95,42
1491090215099,0,-12,-1,-30,-75,-50,-21,-74,-35
1491090215100,1,8,-8,2,49,-4,-5,33,30
1491090215100,1,6,22,27,-11,18,-51,-72,-32
1491090215101,2,-39,-24,-36,30,10,119,46,7
1491090215101,2,30,5,9,6,5,-73,-29,67
1491090215102,3,-25,5,39,45,6,106,-6,-19
1491090215102,3,9,7,-29,-128,-98,-88,0,20
1491090215147,1,13,-11,7,80,-22,-8,-64,26
1491090215147,1,-13,-3,-10,-45,20,10,48,10
1491090215149,2,-1,-8,-12,-107,-64,-3,22,20
1491090215149,2,-7,0,-20,-12,-22,38,-5,-28
1491090215150,3,-27,-16,-18,-38,-38,-16,-79,-25
1491090215150,3,-3,-12,7,25,41,52,101,26
1491090215151,0,-14,-2,-18,17,-35,-66,-2,-25
1491090215151,0,-26,-2,-10,-100,-34,-28,-54,14
1491090215199,1,8,10,19,95,29,31,77,-61
1491090215199,1,12,-6,16,17,31,86,-25,18
1491090215200,2,-12,-12,-4,-25,-15,-23,31,8
1491090215200,2,8,14,6,-20,-6,-13,-11,-40
1491090215201,3,-26,-1,3,-32,-38,36,-68,21
1491090215201,3,-28,-21,-6,-3,1,-91,67,-12
1491090215202,0,26,20,19,40,19,114,-6,14
1491090215202,0,13,13,8,12,50,-79,-1,6
1491090215245,1,22,-3,-10,-37,-8,49,30,28
1491090215245,1,9,-5,-35,-97,-63,-1,2,-62
1491090215247,2,-15,-9,2,88,27,48,3,11
1491090215247,2,-11,-11,-12,-2,-14,-90,-65,12
1491090215257,0,6,4,23,24,25,93,-35,38
1491090215257,0,11,0,-31,-84,-23,43,-8,4
1491090215258,1,-8,-5,16,4,-14,-2,127,-7
1491090215258,1,3,4,-42,12,-30,-39,-128,-42
1491090215294,2,-11,-16,-40,-68,-33,-14,21,-16
1491090215294,2,-7,3,38,84,51,83,28,47
1491090215295,3,37,3,-17,3,7,-128,-105,-4
1491090215295,3,1,-9,-7,-13,-2,66,105,6
1491090215298,1,18,7,8,-68,-32,18,-54,-3
1491090215298,1,-10,0,11,52,24,51,-12,34
1491090215299,2,0,2,22,-10,15,-67,-28,-4
1491090215299,2,-24,-14,-37,-69,-47,-9,-16,-53
1491090215343,3,4,-13,-17,3,7,1,10,42
1491090215343,3,25,22,37,79,28,5,38,-18
1491090215344,0,-24,-9,-31,-124,-52,108,-40,2
1491090215344,0,36,4,7,55,24,-104,24,-17
1491090215346,2,15,12,23,19,61,61,116,33
1491090215346,2,-17,-15,0,-19,-4,39,-55,-23
1491090215347,3,8,9,-17,18,21,-90,-1,-20
1491090215347,3,-4,-2,-9,-68,-42,-14,-34,28
1491090215392,0,-20,-14,-8,-9,12,44,37,0
1491090215392,0,0,9,12,4,19,-63,-41,-27
1491090215399,1,-15,3,33,12,26,-2,33,64
1491090215399,1,4,19,-8,-9,-6,126,-13,-5
1491090215400,3,2,15,20,35,18,4,-27,19
1491090215400,3,-17,-11,-15,-73,-5,70,-55,-33
1491090215401,0,-6,-18,-12,46,7,-104,16,8
1491090215401,0,-8,-1,-7,4,-28,-38,-37,-23
1491090215441,1,-1,16,49,-27,30,116,90,-17
1491090215441,1,-22,-25,-41,80,9,42,23,-28
1491090215443,2,41,7,-11,-13,-20,-108,-128,0
1491090215443,2,-6,0,3,2,-9,127,92,31
1491090215444,0,-25,-27,-2,4,-6,4,-84,-47
1491090215444,0,16,34,74,111,114,79,4,55
1491090215445,1,-12,-17,-72,-128,-43,-85,41,0
1491090215445,1,1,-20,-29,83,-11,32,-62,6
1491090215489,2,-30,-1,25,-16,7,-51,70,7
1491090215489,2,61,6,-49,-128,-39,91,-73,-22
1491090215492,3,-39,-20,-6,87,-19,80,59,-13
1491090215492,3,14,8,28,42,65,63,82,19
1491090215493,1,-43,-6,-14,-29,-20,-26,-34,-57
1491090215493,1,59,1,37,-101,-77,50,127,24
1491090215495,2,-10,-3,-28,96,76,-32,45,29
1491090215495,2,-5,-13,-17,79,17,-119,-44,32
1491090215538,3,-4,-14,-27,-15,-53,25,-3,-33
1491090215538,3,0,14,18,23,33,-128,-51,52
1491090215540,0,14,43,113,9,2,127,20,-42
1491090215540,0,-4,-13,-84,-103,-59,-2,13,3
1491090215541,1,-23,-36,-32,-29,-24,40,-72,33
1491090215541,1,-13,-21,-14,-3,4,-3,35,-37
1491090215542,2,22,22,13,80,29,-28,-56,-13
1491090215542,2,8,11,17,-31,-5,67,51,46
1491090215587,3,-33,-50,-28,36,-29,-84,-70,-66
1491090215587,3,-15,60,40,-34,-18,-42,-46,-5
1491090215590,0,15,-11,-25,-74,30,-53,-43,-44
1491090215590,0,-53,-33,3,77,26,62,19,-80
1491090215591,2,-22,-20,-104,-73,-76,23,100,44
1491090215591,2,8,3,-4,-67,-78,-65,-53,-10
1491090215636,3,11,5,22,49,30,15,49,-4
1491090215636,3,-6,-3,15,99,18,54,-14,-12
1491090215638,0,-19,11,33,-16,-36,25,-31,-27
1491090215638,0,-6,-12,6,55,71,-51,-4,-27
1491090215639,1,1,-28,-35,-18,-33,-17,-20,47
1491090215639,1,-5,1,-24,-99,0,54,-33,-51
1491090215640,3,3,10,28,38,21,33,48,-8
1491090215640,3,12,18,-21,-90,-45,45,23,16
1491090215684,0,-16,9,-8,-36,1,-11,21,-44
1491090215684,0,2,-5,18,55,35,-33,-5,-8
1491090215687,1,22,62,68,65,48,-13,-70,-26
1491090215687,1,-10,-22,-50,-83,-6,-62,21,72
1491090215688,0,13,-16,-18,29,34,72,31,41
1491090215688,0,-37,-16,35,12,15,96,19,-4
1491090215689,1,47,22,22,-6,14,-93,-53,-35
1491090215689,1,-37,-32,-57,11,1,-28,32,10
1491090215734,2,-15,-4,7,-67,-38,102,-22,-15
1491090215734,2,19,19,-4,62,-2,-7,-24,46
1491090215736,3,-37,-1,-16,-128,-89,-92,-6,-37
1491090215736,3,37,1,25,127,99,-39,-26,-34
1491090215737,1,12,1,0,53,-8,16,42,1
1491090215737,1,-35,-28,-58,-128,-19,5,58,-1
1491090215738,2,20,-13,-40,62,1,-59,-108,-78
1491090215738,2,0,9,34,64,26,-22,-39,-33
1491090215782,3,-6,-8,-15,-32,9,22,65,74
1491090215782,3,-21,14,58,64,29,126,-74,-24
1491090215783,0,21,-18,-45,-92,-76,-80,-35,-42
1491090215783,0,-10,23,-10,-83,-23,-27,72,42
1491090215785,2,-28,24,41,-88,40,-65,-70,3
1491090215785,2,18,-4,-8,37,-19,-52,22,25
1491090215785,3,-17,14,78,102,36,89,66,-7
1491090215785,3,-1,-21,-57,-43,18,-6,-7,48
1491090215830,0,-10,-33,-47,127,-29,-75,-31,12
1491090215830,0,-3,-16,-20,-96,-47,49,24,-3
1491090215831,1,8,15,1,-61,21,8,3,12
1491090215831,1,-21,-30,-62,-51,-105,73,-28,-41
1491090215832,3,-28,1,21,74,19,-127,-112,-29
1491090215832,3,11,5,26,40,30,-45,25,-8
1491090215833,0,-43,-5,17,-21,-41,51,51,68
1491090215833,0,-24,-22,44,71,15,113,65,-87
1491090215879,1,29,13,-59,-121,12,-80,-66,-40
1491090215879,1,-11,-35,-28,12,-25,-113,5,8
1491090215879,2,-14,32,57,68,-14,127,37,-14
1491090215879,2,24,2,13,37,79,17,-29,-9
1491090215880,0,21,13,23,-65,4,41,58,39
1491090215880,0,7,10,23,50,17,-64,-52,3
1491090215881,1,-26,0,33,56,81,123,-32,-12
1491090215881,1,3,7,7,99,16,-98,9,-15
1491090215927,2,27,11,2,-60,27,110,-35,-19
1491090215927,2,11,6,-37,-78,-71,63,16,-20
1491090215928,3,6,-18,-38,-51,29,-90,-104,2
1491090215928,3,9,19,61,77,35,55,61,49
1491090215929,0,2,6,-24,-70,-35,-52,35,17
1491090215929,0,24,-6,-20,22,3,-18,0,-4
1491090215930,1,-65,12,40,-23,-60,17,31,18
1491090215930,1,29,-11,-9,-24,13,24,-8,-47
1491090215976,2,36,23,-9,84,49,-79,-69,21
1491090215976,2,-44,-28,-34,-107,-38,55,-51,-55
1491090215977,3,3,-9,0,18,-46,39,-11,-13
1491090215977,3,-15,22,76,37,6,24,26,-11
1491090215978,1,2,-14,-47,-56,-58,-27,-90,-61
1491090215978,1,12,12,7,8,34,77,44,22
1491090215979,2,12,5,-4,-24,4,80,32,8
1491090215979,2,-1,7,-1,-38,12,-37,-60,28
1491090216025,3,17,10,25,78,16,-26,59,-22
1491090216025,3,-20,6,8,-51,-11,-19,-29,51
1491090216026,0,4,10,40,-62,-2,66,112,-29
1491090216026,0,-3,14,23,-56,-53,5,-118,38
1491090216027,2,-1,31,60,-66,-81,44,73,-73
1491090216027,2,-20,-40,-96,127,17,-32,-27,-3
1491090216027,3,4,-8,-38,-97,-50,78,32,36
1491090216027,3,2,-7,9,-5,11,91,0,-53
1491090216074,0,-2,18,42,-15,10,11,-28,21
1491090216074,0,-22,-17,0,3,-21,22,-30,-77
1491090216075,1,27,44,34,19,11,-65,56,17
1491090216075,1,20,-28,-42,-48,-8,12,8,29
1491090216075,3,-12,-3,-18,-65,-7,-112,18,-19
1491090216075,3,-11,-3,34,120,81,116,16,37
1491090216076,0,-7,-14,-15,-46,56,105,-8,-17
1491090216076,0,4,8,-3,-48,-70,-44,9,52
1491090216122,1,-3,0,39,-52,18,24,-55,-28
1491090216122,1,-5,2,-39,-67,-20,-35,45,-35
1491090216123,2,3,-51,-70,-48,-119,-67,-10,4
1491090216123,2,-33,-37,-53,116,84,-106,-7,-12
1491090216124,0,-8,17,-1,70,23,25,21,7
1491090216124,0,6,15,34,-113,-51,44,43,16
1491090216125,1,-19,-14,21,72,58,31,-12,14
1491090216125,1,-24,-10,-26,-72,-58,70,-75,-47
1491090216171,2,29,1,8,104,73,-86,31,78
1491090216171,2,-7,34,29,-128,5,75,-27,-73
1491090216172,3,0,-43,-68,127,-10,-40,-23,1
1491090216172,3,-9,-2,-22,-62,-13,-28,2,-42
1491090216173,1,-5,16,56,98,109,114,40,17
1491090216173,1,-30,-12,16,-3,-59,3,-47,-9
1491090216174,2,-9,-25,-53,-23,6,20,-70,-20
1491090216174,2,8,-8,-8,70,-7,-44,-13,12
1491090216220,3,10,-13,-43,-128,-83,-25,20,-18
1491090216220,3,-15,-1,-12,-24,-44,-61,70,38
1491090216221,0,-1,18,56,72,89,22,-47,-14
1491090216221,0,1,0,-4,58,59,13,-16,39
1491090216221,2,-13,-84,-68,127,35,-89,-4,21
1491090216221,2,4,39,31,52,-77,73,-18,-5
1491090216222,3,-9,-16,-42,-75,17,-28,-16,61
1491090216222,3,11,10,14,-14,35,-92,-54,-30
1491090216269,0,11,10,6,-80,-46,70,28,-3
1491090216269,0,0,-13,-15,-15,58,-16,-40,-20
1491090216269,1,16,11,31,32,-65,82,62,9
1491090216269,1,-25,9,11,3,-6,-76,-128,-9
1491090216270,2,2,-3,-1,16,32,32,126,15
1491090216270,2,37,8,3,4,-32,58,61,5
1491090216271,3,-11,4,44,-34,7,-43,-15,17
1491090216271,3,0,-25,-73,-57,-23,-62,-88,-39
1491090216317,0,-27,-21,-20,72,25,-115,15,-83
1491090216317,0,-10,-11,-34,-68,12,-29,83,65
1491090216329,1,18,13,23,15,14,37,-42,-47
1491090216329,1,-10,-4,8,-54,-26,87,49,41
1491090216329,3,-24,-9,-30,65,-14,7,23,-21
1491090216329,3,23,11,28,24,-26,-33,-47,20
1491090216330,0,5,9,-3,-55,-33,75,93,25
1491090216330,0,-3,-5,-1,18,-43,-61,-119,42
1491090216366,1,-8,-6,8,-47,53,-15,62,-4
1491090216366,1,36,9,-14,21,-7,-14,-25,35
1491090216367,2,-25,6,12,37,1,-4,-58,-2
1491090216367,2,8,-8,-11,44,16,-11,13,-61
1491090216369,0,14,2,-28,-128,-92,-16,-35,-28
1491090216369,0,-34,-11,-14,26,-4,-93,-56,-3
1491090216369,1,-3,-16,-14,-93,-83,31,-71,-22
1491090216369,1,16,5,29,127,50,88,69,42
1491090216415,2,23,13,1,-100,38,-66,-18,-7
1491090216415,2,-16,1,5,-96,96,-44,-80,-10
1491090216416,3,-36,-26,-32,60,-62,-39,86,14
1491090216416,3,-14,-20,45,-28,-80,38,7,-39
1491090216417,1,-16,-1,-23,-124,63,41,-18,0
1491090216417,1,-5,7,-14,84,-15,-75,-87,-48
1491090216418,2,-12,8,40,-51,-4,85,82,21
1491090216418,2,-9,-3,64,79,55,46,-72,-47
1491090216464,3,38,5,-31,-65,-83,-54,14,15
1491090216464,3,-29,-20,-9,24,41,-23,12,-20
1491090216465,0,-1,1,46,68,12,43,-58,4
1491090216465,0,28,-16,-50,-96,-71,94,103,-1
1491090216468,2,-5,-10,34,-14,56,86,4,-51
1491090216468,2,-4,-36,-66,-112,-41,-87,56,-10
1491090216469,3,-6,-6,-54,-83,-89,-2,-66,-14
1491090216469,3,8,-4,-11,15,73,43,45,-15
1491090216512,0,22,25,66,-50,-28,92,7,26
1491090216512,0,-16,10,-3,127,72,8,3,14
1491090216513,1,-6,-14,-30,-17,-24,6,-43,-26
1491090216513,1,-6,0,3,-90,42,-62,-49,-4
1491090216514,3,-4,-2,7,68,-13,-40,6,-27
1491090216514,3,-2,2,13,2,-51,127,15,-27
1491090216515,0,-9,7,13,108,79,-79,-109,-18
1491090216515,0,15,-8,-35,-57,30,-69,25,33
1491090216561,1,17,-4,13,-26,2,109,46,-10
1491090216561,1,-8,19,-15,29,40,7,48,16
1491090216562,2,-1,3,32,-32,-63,47,-5,32
1491090216562,2,-8,27,6,127,39,-7,-29,-65
1491090216563,0,9,-18,-55,44,-30,-8,-12,-8
1491090216563,0,-3,41,94,27,-35,2,-25,21
1491090216564,1,-2,26,28,-73,46,102,68,-70
1491090216564,1,1,-39,-32,60,29,-85,-87,19
1491090216610,2,2,24,21,65,1,-77,-49,54
1491090216610,2,4,-11,-3,-45,14,-8,-56,27
1491090216611,3,-5,1,-53,42,-32,100,79,-22
1491090216611,3,-30,-55,-52,39,-4,77,87,-37
1491090216611,0,10,11,18,-47,-32,-51,-6,58
1491090216611,0,-21,-22,-29,-15,21,59,19,-1
1491090216612,1,2,0,8,73,22,-23,-52,36
1491090216612,1,22,32,78,12,54,-42,-109,5
1491090216659,2,6,-1,-15,-102,-73,35,122,-53
1491090216659,2,6,-10,-51,-69,-69,21,11,45
1491090216659,3,-8,3,48,82,46,-118,-78,-34
1491090216659,3,0,22,35,90,45,127,115,7
1491090216660,1,-17,-3,28,-4,-2,62,-81,-23
1491090216660,1,34,8,26,59,-5,-114,-91,92
1491090216661,2,-37,-42,-80,-61,-44,25,31,-105
1491090216661,2,14,0,1,-128,4,101,-86,-48
1491090216707,3,-6,-13,-34,-29,-32,8,71,42
1491090216707,3,-2,29,73,19,2,7,-35,-61
1491090216708,0,-6,9,-10,-76,108,11,19,45
1491090216708,0,-20,-36,-29,102,-22,8,36,-27
1491090216709,2,16,-7,11,78,69,-78,4,23
1491090216709,2,-5,11,12,-75,25,-14,81,-40
1491090216710,3,5,-24,-74,-27,-34,-45,-114,19
1491090216710,3,-29,-4,-32,-128,-61,76,-8,-40
1491090216756,0,7,7,53,-28,-45,127,105,3
1491090216756,0,-20,26,29,-23,-1,-82,-128,-81
1491090216757,1,-30,-41,-13,51,62,7,127,-33
1491090216757,1,16,-19,-93,-54,-43,-37,43,23
1491090216758,3,37,-7,-17,-38,-37,-23,-42,75
1491090216758,3,-8,18,42,-28,14,-111,-52,-71
1491090216759,0,-4,-21,-55,23,-18,2,-44,-6
1491090216759,0,-17,-10,-9,52,-44,55,27,-38
1491090216805,1,-20,12,20,-40,-15,96,54,37
1491090216805,1,10,-1,9,66,33,-21,-61,-2
1491090216806,2,-16,5,-3,-128,-33,4,-7,1
1491090216806,2,3,-27,-58,100,42,16,54,16
1491090216807,0,37,2,-18,116,47,-114,20,-5
1491090216807,0,-12,9,83,77,31,11,-53,29
1491090216808,1,20,-15,-76,-37,-67,-60,-108,-74
1491090216808,1,-33,-7,7,1,-63,19,75,35
1491090216854,2,6,8,15,27,35,51,-39,-7
1491090216854,2,11,4,5,-18,-1,-20,35,24
1491090216855,3,4,18,66,50,38,84,-50,-9
1491090216855,3,-9,-6,-12,-122,-62,127,100,-26
1491090216855,1,23,1,14,-13,39,-38,103,46
1491090216855,1,-6,17,-17,11,31,-32,-96,-59
1491090216856,2,-21,-2,17,-45,-28,23,-23,64
1491090216856,2,24,25,95,-6,5,52,23,43
1491090216902,3,-36,-20,-61,-37,-22,41,44,-27
1491090216902,3,22,-13,-15,53,-17,-27,30,17
1491090216903,0,10,11,39,57,10,9,23,-33
1491090216903,0,-10,7,-50,-92,-11,-89,-125,26
1491090216904,2,-20,5,13,13,-18,127,-63,-97
1491090216904,2,8,16,34,78,43,-81,48,37
1491090216905,3,7,-16,-12,-56,-17,-21,54,-40
1491090216905,3,-19,0,15,59,-36,-80,-94,20
1491090216951,0,-18,0,-10,-122,-39,103,-6,-102
1491090216951,0,11,-9,-57,105,-47,-54,-3,19
1491090216952,1,-4,-12,-2,53,39,70,-48,32
1491090216952,1,1,-2,-25,-80,-11,44,5,-50
1491090216953,2,4,-9,-12,98,-45,-22,-12,98
1491090216953,2,-25,-6,20,-102,16,41,-52,-55
1491090216954,3,-1,19,12,10,-19,-12,56,7
1491090216954,3,23,5,25,15,44,61,45,-12
1491090217000,0,4,2,20,-6,42,-106,-57,66
1491090217000,0,-8,12,41,34,-2,119,85,-11
1491090217001,1,33,-2,-21,-56,-20,61,58,-27
1491090217001,1,-2,-15,-43,83,38,-74,-97,-22
1491090217001,3,-27,52,104,40,-22,57,28,10
1491090217001,3,-1,-30,-44,106,81,102,20,18
1491090217002,0,-17,-15,-4,21,-34,-24,35,-17
1491090217002,0,7,30,15,-54,-28,-81,-81,-13
1491090217049,1,4,4,16,-55,-23,-59,-78,8
1491090217049,1,-17,-2,-8,36,13,-25,97,-29
1491090217050,2,17,-12,-3,45,-18,58,-16,20
1491090217050,2,8,29,45,7,80,-35,38,24
1491090217050,0,9,-9,-22,-32,13,80,73,-37
1491090217050,0,32,41,56,56,48,-64,-13,46
1491090217051,1,-18,-19,-88,-70,-8,29,-58,-38
1491090217051,1,-1,-7,10,11,-7,21,-39,65
1491090217097,2,14,23,-5,-16,12,68,62,-25
1491090217097,2,-17,-22,-4,-33,-53,22,-6,-12
1491090217098,3,-4,12,31,81,84,-94,-10,6
1491090217098,3,-22,-7,-3,-120,-15,-14,-98,-35
1491090217099,1,3,13,33,127,94,-112,-78,14
1491090217099,1,18,7,8,-82,-41,36,83,-1
1491090217100,2,-7,21,-9,-77,2,27,20,63
1491090217100,2,17,-51,-47,45,23,-106,-76,-40
1491090217146,3,1,21,55,109,-45,63,46,3
1491090217146,3,-1,10,9,-74,97,127,-31,-31
1491090217147,0,0,0,-29,90,6,-128,-27,28
1491090217147,0,-24,-29,-36,-18,-75,61,35,7
1491090217147,2,11,-7,15,35,-11,84,-11,-40
1491090217147,2,-7,-13,-33,-55,-27,-43,14,4
1491090217149,3,-3,-3,10,84,37,-49,-8,-21
1491090217149,3,-5,-7,1,-34,-25,98,22,34
1491090217195,0,0,36,79,74,4,-12,-36,-49
1491090217195,0,10,-9,-70,-104,-3,-14,-31,21
1491090217196,1,-28,-43,-10,43,1,96,86,31
1491090217196,1,30,32,-9,-6,17,-112,-59,3
1491090217196,3,-21,-32,-43,-57,-39,-102,-41,-36
1491090217196,3,-6,-2,10,63,12,81,-21,2
1491090217197,0,15,14,22,-61,-6,-33,16,58
1491090217197,0,-16,12,-5,-128,-62,39,60,-17
1491090217244,1,20,3,-13,-2,25,-22,-2,27
1491090217244,1,0,-16,-4,81,-13,32,-55,-11
1491090217245,2,-25,-18,-24,-63,-60,-28,-29,-55
1491090217245,2,1,5,35,25,52,-48,115,31
1491090217245,0,-18,-3,-31,-120,50,-85,-16,-32
1491090217245,0,5,-23,-49,40,-30,127,-27,-9
1491090217246,1,15,39,13,-116,-45,-13,58,19
1491090217246,1,7,-9,-28,78,10,-44,-18,-8
1491090217293,2,-22,6,26,37,31,13,-56,-7
1491090217293,2,-30,-3,36,108,37,92,69,-33
1491090217294,3,17,0,-19,-72,-51,-106,-58,13
1491090217294,3,9,-26,9,-19,1,127,6,2
1491090217295,1,-22,-1,-26,-12,-44,127,-32,6
1491090217295,1,-11,3,-6,-87,-30,-43,29,-20
1491090217295,2,18,-9,15,109,49,96,-9,-11
1491090217295,2,-8,6,-9,-54,-44,92,7,-35
1491090217341,3,-5,-22,-3,54,81,-94,-83,-40
1491090217341,3,-4,25,27,56,2,95,-11,9
1491090217342,0,-17,-4,-23,3,-31,-46,31,-5
1491090217342,0,31,15,16,-9,57,-51,10,50
1491090217342,1,7,-13,-10,-47,-51,-50,11,-54
1491090217342,1,20,27,-4,18,2,15,-7,67
1491090217344,2,-3,3,41,67,82,21,-30,-29
1491090217344,2,-36,-31,-31,-110,-96,83,21,-5
1491090217390,3,12,15,6,45,4,-96,31,36
1491090217390,3,-9,-29,-19,-40,-3,76,1,-46
1491090217391,0,-7,16,5,8,0,-32,-63,-6
1491090217391,0,-14,-6,34,1,-13,75,-54,8
1491090217391,2,24,-3,-16,29,-35,40,-103,-29
1491090217391,2,-25,36,63,82,89,27,93,-22
1491090217392,3,38,18,-22,-78,-17,-15,-37,-21
1491090217392,3,7,-16,-38,73,-36,-3,39,32
1491090217439,0,-8,-27,-28,-53,3,27,59,16
1491090217439,0,7,23,26,40,-44,-90,-128,7
1491090217439,1,-3,5,26,-33,15,4,-9,-1
1491090217439,1,-7,1,0,-5,35,-63,41,0
1491090217446,3,-31,-3,-13,127,94,-32,-75,10
1491090217446,3,20,3,20,-89,-62,59,100,-7
1491090217446,0,10,-25,-28,-20,-11,-108,-34,40
1491090217446,0,-12,-21,-25,79,-27,-20,42,-15
1491090217487,1,6,13,1,-55,-7,35,1,41
1491090217487,1,-39,-11,21,64,0,-24,-6,-74
1491090217488,2,-5,13,0,-111,-46,3,-1,-21
1491090217488,2,17,2,1,82,26,27,25,42
1491090217489,0,-4,26,22,0,36,50,41,0
1491090217489,0,19,18,-8,-42,-18,-55,-41,14
1491090217490,1,-19,-12,7,50,-63,63,-28,-47
1491090217490,1,23,41,85,60,119,-41,28,13
1491090217536,2,-1,-4,-60,-82,-109,-35,-77,-1
1491090217536,2,-11,-25,-24,61,-2,-60,61,-24
1491090217537,3,-20,-7,35,-102,-53,34,40,56
1491090217537,3,-18,-17,-40,82,79,-25,1,45
1491090217537,1,11,2,-6,-32,-72,24,37,41
1491090217537,1,-18,4,21,-5,-13,-18,-6,-13
1491090217539,2,-7,14,17,28,36,40,25,-14
1491090217539,2,-24,-21,-5,30,17,9,-127,-37
1491090217585,3,7,-1,26,45,45,-73,57,-36
1491090217585,3,15,25,-17,-108,-5,-10,-7,-12
1491090217586,0,-11,-21,13,-23,-72,90,117,16
1491090217586,0,18,27,-15,26,74,-3,-23,15
1491090217587,2,8,-18,31,106,54,32,-21,38
1491090217587,2,-2,2,-36,-91,-36,-26,-12,-50
1491090217588,3,6,-20,-14,-13,-11,77,34,12
1491090217588,3,18,24,14,-27,4,-19,-4,50
1491090217634,0,-19,13,69,106,22,-19,25,-31
1491090217634,0,24,6,-21,-73,24,41,61,80
1491090217634,1,-1,-23,-48,-16,-28,-65,-111,-57
1491090217634,1,-12,-2,4,-128,-92,25,-59,-33
1491090217635,3,-22,25,26,-88,-26,127,15,-38
1491090217635,3,19,-2,23,127,27,-125,-45,13
1491090217636,0,-5,-20,-50,-101,-8,55,5,34
1491090217636,0,-14,-29,-51,-119,-43,-65,58,-27
1491090217682,1,6,-8,3,64,39,-8,-35,42
1491090217682,1,-8,25,59,-40,-17,31,41,-28
1491090217683,2,2,-1,-29,24,-26,69,-13,4
1491090217683,2,2,-13,-5,16,-9,-63,-5,-4
1491090217684,3,-9,11,-2,-43,-15,-4,-8,22
1491090217684,3,1,-15,-4,95,38,30,0,32
1491090217687,0,-13,0,34,49,5,32,-99,-75
1491090217687,0,-14,16,45,14,38,19,93,15
1491090217731,1,-10,-7,-52,-31,-12,-32,-5,-48
1491090217731,1,-8,-22,-23,4,-50,-87,-2,20
1491090217732,2,17,51,17,-128,-1,-9,51,26
1491090217732,2,-7,-52,-63,127,-14,15,-4,14
1491090217733,0,-1,-18,-15,19,-29,-70,-14,-2
1491090217733,0,-9,16,43,-117,-16,-25,-102,-27
1491090217734,1,0,-18,-18,118,26,108,61,24
1491090217734,1,-10,8,7,-88,-58,13,4,-46
1491090217780,2,25,-3,-5,2,10,-128,-70,50
1491090217780,2,-4,0,-15,-56,-22,127,67,2
1491090217781,3,-5,5,16,-2,-17,-28,-110,-32
1491090217781,3,14,3,8,-21,38,18,80,-20
1491090217781,1,-17,-38,-46,-37,-40,-100,-101,-21
1491090217781,1,8,29,36,52,59,89,73,21
1491090217782,2,15,-10,-2,43,2,54,73,-36
1491090217782,2,3,-9,-14,65,-10,3,-75,-43
1491090217829,3,18,4,18,14,0,-72,125,92
1491090217829,3,-28,17,-8,-35,-41,-44,-109,-74
1491090217830,0,-9,-27,-14,-50,-46,64,-14,4
1491090217830,0,6,29,53,46,92,-54,26,-25
1491090217877,2,-19,-8,-10,-37,-68,10,96,-26
1491090217877,2,3,-4,-23,61,3,48,-128,55
1491090217879,3,-21,38,60,115,127,7,35,-6
1491090217879,3,30,-8,-24,-102,-45,91,122,-19
1491090217881,0,-31,-24,-35,89,-12,-49,-112,-42
1491090217881,0,4,6,28,48,43,37,81,42
1491090217881,1,13,13,3,-66,-6,-66,-7,39
1491090217881,1,-24,-24,-10,-11,-65,9,-42,-37
1491090217926,3,2,-14,38,31,-38,38,-98,-27
1491090217926,3,28,13,-40,-33,48,-25,65,-6
1491090217928,0,-18,-23,-42,27,-35,-47,-56,20
1491090217928,0,-5,15,74,70,78,87,-17,-53
1491090217929,1,4,-5,-31,-75,-75,123,17,-27
1491090217929,1,-8,-29,-12,99,2,-75,2,70
1491090217930,0,4,-4,-1,-5,46,-112,-18,76
1491090217930,0,-15,-4,12,40,-42,-61,-128,-47
1491090217975,1,-6,3,-6,16,-33,121,113,-26
1491090217975,1,38,-6,-45,-28,16,-53,1,30
1491090217976,2,-25,-1,-19,-15,-17,2,-33,-33
1491090217976,2,3,-9,11,-54,-24,76,18,-9
1491090217977,1,20,-6,14,12,8,8,-46,46
1491090217977,1,-2,13,1,24,76,39,-38,-20
1491090217978,2,-25,-31,-55,-57,-79,-91,-66,-53
1491090217978,2,16,1,-9,-33,1,62,127,12
1491090218024,3,3,19,27,101,78,-100,-75,37
1491090218024,3,27,-5,4,-23,-48,36,-99,-49
1491090218025,0,-1,18,57,-9,56,109,127,87
1491090218025,0,-24,1,-42,-41,-24,-96,-34,-26
1491090218026,1,-13,-59,-69,-69,-55,-21,-33,-17
1491090218026,1,2,10,37,71,12,35,-11,7
1491090218027,2,-9,15,-7,-45,-3,-26,-32,-27
1491090218027,2,17,-12,2,17,-57,-18,61,57
1491090218073,3,-13,12,3,-104,57,2,40,6
1491090218073,3,-6,-29,-22,127,44,-53,-72,-22
1491090218073,0,27,26,18,-90,-55,78,0,30
1491090218073,0,-6,-3,-9,-3,38,-87,51,-28
1491090218074,2,-32,-24,3,127,56,118,-13,-29
1491090218074,2,10,34,39,-41,9,47,0,11
1491090218075,3,25,-24,-57,-4,-48,-49,-62,-22
1491090218075,3,-23,5,10,-26,-29,10,48,-14
1491090218121,0,8,-4,-6,74,0,13,44,-10
1491090218121,0,-4,2,7,-1,-7,-21,-93,12
1491090218123,1,-13,-15,11,-23,58,-29,71,-24
1491090218123,1,4,7,2,13,-23,-86,-87,50
1491090218124,3,13,20,27,79,-19,39,91,-58
1491090218124,3,-11,-1,-2,-40,57,-49,-55,11
1491090218125,0,-5,-12,-16,-36,-47,20,114,-30
1491090218125,0,31,20,61,68,77,29,-30,41
1491090218170,1,-32,-16,-53,-36,4,24,37,-44
1491090218170,1,16,-21,-20,68,5,14,20,30
1491090218171,2,-9,14,29,29,22,-57,-77,-3
1491090218171,2,-6,-2,-33,-63,-39,25,26,40
1491090218171,0,5,-31,-32,40,14,-62,62,8
1491090218171,0,-14,9,38,33,-14,113,-17,-20
1491090218172,1,2,8,-9,-80,4,-61,42,6
1491090218172,1,-20,-20,-8,61,-1,-27,-41,-27
1491090218219,2,34,27,33,54,67,27,14,16
1491090218219,2,-33,-11,-36,-51,-16,12,69,-45
1491090218219,3,-6,-13,3,-37,-55,91,-26,13
1491090218219,3,-25,1,17,61,-3,0,-5,9
1491090218220,1,-3,-8,-12,122,11,85,-119,16
1491090218220,1,9,12,12,-69,-23,-110,-42,-19
1491090218221,2,-35,1,12,-7,39,58,44,-20
1491090218221,2,12,-15,18,5,25,14,-10,28
1491090218267,3,-9,4,18,76,3,-40,-21,-20
1491090218267,3,-1,-3,-10,11,-39,16,-32,-6
1491090218268,0,2,7,-13,-43,-7,-65,-50,-1
1491090218268,0,-9,-13,3,-72,-44,-38,-15,-18
1491090218269,2,-10,34,6,21,-3,-10,127,-8
1491090218269,2,-5,-20,-16,-46,4,-99,-124,9
1491090218270,3,-1,5,24,12,17,12,29,20
1491090218270,3,-23,-7,11,-65,10,-18,89,-4
1491090218316,0,24,-3,-63,-103,3,-58,-128,8
1491090218316,0,8,-25,-28,127,-1,60,59,6
1491090218317,1,1,28,13,-95,-14,44,-19,-19
1491090218317,1,8,-6,-29,-3,3,-98,-72,15
1491090218318,3,46,-5,-11,-29,-48,69,76,35
1491090218318,3,-3,0,27,49,35,18,8,-10
1491090218319,0,-6,-9,-16,23,-10,3,-55,33
1491090218319,0,-11,-37,-27,-55,-43,28,22,-100
1491090218365,1,-7,51,15,-115,-36,65,-77,-27
1491090218365,1,21,15,26,79,75,-68,-85,60
1491090218366,2,11,-33,-50,-60,23,8,86,54
1491090218366,2,-29,-14,-46,-96,-66,-10,8,-51
1491090218366,0,7,-5,21,37,47,67,14,0
1491090218366,0,35,24,27,10,-7,-107,-97,74
1491090218367,1,-7,-12,-2,-9,28,47,102,-17
1491090218367,1,-15,10,-9,-20,-60,17,48,-28
1491090218414,2,-8,-14,-7,21,-17,48,-26,-30
1491090218414,2,-2,11,18,14,-25,-54,23,3
1491090218415,3,25,-12,-8,-41,71,-65,-94,56
1491090218415,3,-7,-23,-32,60,13,-57,33,-17
1491090218415,0,11,22,36,18,-42,44,6,-23
1491090218415,0,-5,-4,-17,16,-32,107,-82,-8
1491090218416,1,9,1,0,-2,34,-128,44,42
1491090218416,1,-10,-10,-6,-37,-3,74,50,15
1491090218463,2,29,17,-1,19,10,39,-20,9
1491090218463,2,-24,9,14,-7,2,-65,-76,-32
1491090218464,3,-5,2,30,73,-35,15,50,-13
1491090218464,3,5,-3,-46,-128,-5,61,-16,12
1491090218465,1,-23,2,-22,85,15,-15,-67,-31
1491090218465,1,-1,-10,14,-7,-50,39,84,-7
1491090218466,2,-8,26,32,26,-39,-86,-113,-16
1491090218466,2,-11,-43,-67,-124,-17,22,94,13
1491090218512,3,-8,-17,-6,1,0,44,8,-71
1491090218512,3,57,53,79,104,32,-16,35,54
1491090218513,0,-13,-21,-26,-55,26,5,2,-70
1491090218513,0,-20,9,-22,-23,9,98,102,10
1491090218514,2,-16,19,19,12,-15,-118,-33,-14
1491090218514,2,-11,13,14,39,29,-28,-25,11
1491090218515,3,-18,1,26,-63,-14,57,14,15
1491090218515,3,-11,3,-20,0,-21,-101,1,20
1491090218560,0,6,-15,-11,33,-4,-63,-110,4
1491090218560,0,-18,13,49,62,46,127,122,-24
1491090218609,1,-5,-13,-50,-92,-70,33,-45,21
1491090218609,1,2,-9,-2,35,33,-79,-16,-13
1491090218610,3,2,20,-7,21,19,-94,-75,31
1491090218610,3,-28,5,47,65,88,127,47,-33
1491090218610,0,-25,-26,-47,-90,-57,17,-22,-33
1491090218610,0,-12,-14,0,12,-39,56,-37,-1
1491090218611,1,14,15,47,79,57,-78,-2,2
1491090218611,1,-12,-8,-59,-128,-74,-33,20,-4
1491090218657,2,1,1,22,18,14,72,-27,-16
1491090218657,2,-2,17,22,23,3,44,-39,26
1491090218658,0,7,-20,-23,-10,-10,-78,-19,-17
1491090218658,0,9,27,13,-50,-55,-102,39,-1
1491090218659,1,-28,-12,-29,127,77,34,-28,23
1491090218659,1,-4,-19,29,-27,-48,127,-50,-39
1491090218660,1,0,-4,-17,-109,-43,-9,-17,60
1491090218660,1,25,3,-19,-38,11,65,56,13
1491090218706,2,16,19,6,45,-15,-93,0,12
1491090218706,2,10,-33,-29,12,66,-85,-64,75
1491090218707,3,-29,3,8,-26,-77,10,44,-61
1491090218707,3,20,-36,-29,-83,25,34,-26,-5
1491090218708,2,8,-3,5,-44,-11,1,101,-3
1491090218708,2,4,13,11,-7,56,28,-71,-2
1491090218709,3,-25,-3,6,-12,-20,-7,22,3
1491090218709,3,-5,11,16,-1,-23,-22,73,-6
1491090218755,0,15,-2,8,15,45,86,-78,-31
1491090218755,0,-15,26,-9,-27,-43,-29,8,-10
1491090218756,1,12,9,10,-128,-19,28,96,6
1491090218756,1,2,3,-15,88,22,-39,27,3
1491090218757,2,-15,-13,-41,-56,-28,-18,68,51
1491090218757,2,-10,-8,-16,43,67,118,57,-52
1491090218757,3,-4,-11,28,48,-37,30,-78,2
1491090218757,3,-13,24,20,-5,11,-10,-44,-21
1491090218804,0,11,-8,22,45,21,-3,16,-45
1491090218804,0,-11,-15,-43,-80,-21,-13,-15,-4
1491090218804,1,4,6,6,19,-25,18,-64,-3
1491090218804,1,-11,-22,-2,3,7,-38,6,-19
1491090218805,3,39,21,34,127,120,-128,-116,5
1491090218805,3,-35,-10,-22,-114,-78,62,52,-43
1491090218806,0,-19,-52,-56,-6,-10,78,-28,-24
1491090218806,0,10,23,18,89,45,-111,-66,-80
1491090218852,1,-28,-5,-34,-80,-39,109,23,23
1491090218852,1,22,12,18,51,-20,-7,-96,-10
1491090218853,2,-15,11,14,0,19,28,-17,33
1491090218853,2,-22,-16,4,-56,-44,-57,41,31
1491090218854,0,23,-3,2,-21,1,-7,28,8
1491090218854,0,-16,-15,-1,33,40,-29,-43,-52
1491090218855,1,-9,5,26,58,18,-26,23,-12
1491090218855,1,3,-19,-31,-116,-24,106,-44,58
1491090218901,2,-40,-3,5,-53,-19,-100,-92,-65
1491090218901,2,41,11,12,84,61,-8,78,81
1491090218902,3,-22,-8,-30,-103,-44,-28,-22,-42
1491090218902,3,10,-11,-10,0,-8,58,67,6
1491090218902,1,-10,-9,9,47,13,-10,10,-23
1491090218902,1,-1,-14,11,2,1,57,-31,-8
1491090218904,2,9,23,32,28,29,-55,14,50
1491090218904,2,-11,-23,-21,-39,-33,-63,-71,-87
1491090218950,3,15,-3,-19,-13,-54,127,88,58
1491090218950,3,5,20,7,3,28,-128,-39,0
1491090218951,0,-4,-8,-5,-80,2,35,39,-16
1491090218951,0,-17,-14,9,120,2,22,-35,-7
1491090218952,2,9,-17,-54,68,79,50,-53,0
1491090218952,2,-9,-5,18,45,7,118,47,30
1491090218952,3,-31,-11,-6,-95,-13,-35,5,-32
1491090218952,3,-4,6,10,1,75,-3,19,-29
1491090218999,0,31,17,9,-62,-56,34,96,0
1491090218999,0,9,9,18,-56,17,93,-46,-39
1491090219000,1,-16,-6,8,76,-18,50,-17,-23
1491090219000,1,-7,-3,10,33,14,-46,12,-35
1491090219000,3,17,22,16,-94,7,-110,-17,72
1491090219000,3,-19,-24,-46,51,63,12,-2,28
1491090219001,0,-6,-22,-3,44,-17,122,65,-1
1491090219001,0,-36,-9,-4,-25,-22,-3,-38,63
1491090219047,1,31,15,26,50,24,77,18,-106
1491090219047,1,5,12,-17,-10,-17,-22,-3,24
1491090219049,2,-5,4,7,56,24,18,32,6
1491090219049,2,-10,-23,-9,-72,-39,-63,-12,-13
1491090219050,0,33,-15,6,17,-18,-59,16,-7
1491090219050,0,-18,12,-2,-78,4,-3,-56,8
1491090219051,1,-10,-22,-32,13,-18,81,4,-1
1491090219051,1,40,21,29,15,5,-57,-49,5
1491090219096,2,-31,-13,-25,25,-18,0,46,-32
1491090219096,2,67,20,9,24,117,58,-58,119
1491090219097,3,-34,-12,-34,6,-15,-101,-62,-23
1491090219097,3,-12,-9,4,-23,-48,79,-39,-65
1491090219097,0,-23,12,38,34,33,-10,51,42
1491090219097,0,18,-12,-6,-68,-33,5,105,-72
1491090219099,1,15,36,9,85,40,-4,-47,-7
1491090219099,1,15,-6,-22,-80,-40,28,7,-18
1491090219145,2,9,-9,13,-9,-59,-86,-15,-1
1491090219145,2,-25,-1,-17,-79,53,-51,55,-56
1491090219146,3,32,-10,-37,-51,-11,-50,1,46
1491090219146,3,-22,-9,-15,26,-3,32,18,-30
1491090219146,1,-21,5,28,52,61,-24,127,-34
1491090219146,1,9,-8,-20,-15,16,20,-44,20
1491090219147,2,-18,-2,17,16,19,83,80,-19
1491090219147,2,-15,-13,1,63,-21,-60,-86,-27
1491090219194,3,13,14,24,-16,24,-24,67,52
1491090219194,3,-5,-10,-12,-37,-59,93,43,-2
1491090219195,0,-9,-3,-41,-128,17,83,-35,-61
1491090219195,0,-2,-3,21,120,33,-85,-6,14
1491090219196,2,46,47,21,-10,60,-128,-106,80
1491090219196,2,10,-4,-17,48,22,-52,83,-43
1491090219197,3,-17,-22,-7,-52,-31,124,-21,13
1491090219197,3,4,24,60,127,90,-85,-10,22
1491090219242,0,11,-14,-39,-108,-87,12,-53,62
1491090219242,0,18,6,-10,-28,0,127,46,24
1491090219243,1,-19,-7,-1,32,10,-20,-35,-47
1491090219243,1,4,-7,-28,-128,-60,33,-79,-20
1491090219244,3,39,13,11,1,-31,25,16,8
1491090219244,3,-19,0,-9,-38,-12,-64,-100,20
1491090219245,0,-5,-9,7,18,34,1,-18,-80
1491090219245,0,-34,10,15,-81,-86,100,101,38
1491090219291,1,23,-12,-39,76,49,1,-57,43
1491090219291,1,-10,1,8,67,-8,-102,-30,-56
1491090219292,2,-10,-12,46,16,-15,62,53,0
1491090219292,2,35,9,-42,-24,24,-39,-103,-59
1491090219293,0,-6,-18,-19,85,-11,-44,68,2
1491090219293,0,-12,20,37,-10,24,5,-37,17
1491090219294,1,-10,2,21,43,0,-28,73,4
1491090219294,1,15,-10,-33,-64,8,14,-15,13
1491090219340,2,-16,9,11,21,-10,20,-60,-36
1491090219340,2,-2,-27,-27,-33,-41,42,33,-3
1491090219341,3,-13,-21,-12,24,13,-109,-83,19
1491090219341,3,0,13,22,39,29,102,89,-28
1491090219341,1,7,-9,23,-55,-15,-6,-92,40
1491090219341,1,-38,-13,-23,18,1,59,126,-60
1491090219342,2,-51,-19,-5,-4,-4,55,-55,-72
1491090219342,2,46,17,-9,-7,-25,127,-43,-6
1491090219389,3,-59,-3,3,-9,1,-89,2,-20
1491090219389,3,36,15,27,-27,-29,-97,-25,14
1491090219390,0,-19,-25,-46,73,-24,-38,21,-40
1491090219390,0,-33,-7,-12,9,-55,-32,-55,23
1491090219437,2,-10,8,35,-11,-1,-71,-59,15
1491090219437,2,-3,0,2,-17,13,108,71,-3
1491090219438,3,23,-2,-47,23,-38,-114,-20,-8
1491090219438,3,2,-5,4,-19,42,42,-4,83
1491090219439,0,21,3,24,15,24,97,-87,-33
1491090219439,0,-27,-5,-25,-74,-12,-97,67,-11
1491090219440,1,31,2,-16,-36,-37,12,-72,-77
1491090219440,1,-20,-14,-4,40,0,4,45,13
1491090219486,2,24,20,60,73,69,17,-33,60
1491090219486,2,-7,-14,-36,-109,-56,59,19,-4
1491090219487,3,-52,-18,-6,96,-16,47,19,-39
1491090219487,3,11,-4,5,78,-30,-81,-56,16
1491090219488,0,17,-12,-2,8,43,-73,76,5
1491090219488,0,-28,-6,-2,-25,25,9,-56,-17
1491090219488,3,-32,-4,-10,-39,10,-17,-15,10
1491090219488,3,-13,26,38,-17,-24,85,-20,-36
1491090219535,0,23,21,23,-76,-7,-1,77,-27
1491090219535,0,-27,1,0,-5,-5,-6,-34,60
1491090219536,1,-2,-31,-6,42,14,93,-91,3
1491090219536,1,3,19,53,109,85,-41,-21,-20
1491090219536,0,0,11,41,65,50,4,24,-58
1491090219536,0,6,8,-4,-4,5,20,91,-13
1491090219537,1,-10,8,19,29,-5,-42,17,17
1491090219537,1,-27,-25,-44,-85,-78,-33,-35,-48
1491090219584,2,22,12,3,-26,28,5,-49,13
1491090219584,2,7,-7,34,3,11,14,11,7
1491090219584,3,7,19,-2,76,26,6,-32,1
1491090219584,3,-10,-11,-15,-68,-44,127,102,4
1491090219585,1,29,11,-8,-109,12,78,27,-15
1491090219585,1,-14,-9,-12,81,42,-77,-28,-19
1491090219586,2,39,5,-5,-20,-60,104,113,14
1491090219586,2,-32,24,98,127,56,24,-76,-38
1491090219632,3,-29,-14,-52,-32,57,3,-128,-24
1491090219632,3,16,-20,-38,-40,-35,-9,127,49
1491090219633,0,62,3,-15,-37,-45,29,-17,17
1491090219633,0,-27,14,23,69,28,-26,-74,18
1491090219634,2,-43,-38,-55,-67,-49,107,-68,-70
1491090219634,2,36,2,-10,-80,-111,45,83,90
1491090219635,3,-1,-2,-13,53,51,-103,-14,5
1491090219635,3,44,26,-4,20,35,23,-34,31
1491090219681,0,-40,-17,3,18,21,-6,-49,50
1491090219681,0,22,-24,-20,-128,-32,127,55,-12
1491090219682,1,-4,33,40,127,38,-101,52,30
1491090219682,1,12,-7,3,-25,21,-57,-41,-50
1491090219688,3,-42,-19,-27,-34,-74,-52,-53,-6
1491090219688,3,28,4,20,42,12,44,48,20
1491090219689,0,-20,18,8,24,-13,-20,-7,45
1491090219689,0,16,-7,-17,11,24,-31,20,-63
1491090219730,1,-16,-23,7,-11,25,60,45,-25
1491090219730,1,-6,1,-6,-16,-13,90,-62,-12
1491090219730,2,-2,4,3,-8,16,32,43,-39
1491090219730,2,4,29,32,-42,28,-112,-54,39
1491090219731,0,-26,-15,-24,-88,60,125,117,18
1491090219731,0,51,0,-8,77,21,-14,-81,9
1491090219732,1,5,32,16,-115,-71,-4,95,75
1491090219732,1,-2,-28,-12,-7,-15,-17,19,-78
1491090219779,2,-11,19,4,-19,5,63,-45,-30
1491090219779,2,-12,5,9,42,18,-81,-60,2
1491090219780,3,42,3,24,16,-29,-9,71,20
1491090219780,3,-10,0,-4,19,34,-58,-4,10
1491090219780,1,11,-19,-9,105,61,23,-116,-43
1491090219780,1,3,12,49,14,6,107,108,21
1491090219781,2,-40,1,-14,-51,-15,-128,-128,-48
1491090219781,2,50,4,-44,-21,24,59,65,-29
1491090219827,3,-30,-3,62,36,-5,-52,-30,60
1491090219827,3,38,-4,-42,-97,-8,72,19,38
1491090219828,0,0,-15,2,48,-22,-98,-12,-16
1491090219828,0,-10,-3,12,35,-33,99,-44,8
1491090219829,1,-11,16,5,-12,10,-5,15,-5
1491090219829,1,-15,-14,-14,6,2,58,47,35
1491090219830,2,30,21,10,20,43,-37,-40,29
1491090219830,2,-22,-6,6,-67,-53,68,7,-52
1491090219876,3,31,-18,-37,36,61,-70,4,-5
1491090219876,3,-53,-7,17,88,-42,-79,-96,-29
1491090219878,0,-9,15,54,75,65,-101,46,49
1491090219878,0,27,-17,-63,-10,-18,48,-30,-42
1491090219879,2,-3,3,-7,31,17,62,-21,27
1491090219879,2,-30,19,48,43,26,-128,-37,0
1491090219879,3,0,1,5,-85,-28,99,36,-2
1491090219879,3,-16,-38,-17,-25,1,-84,-42,-13
1491090219925,0,2,-1,7,-18,-47,127,4,-41
1491090219925,0,-14,10,-18,-15,-4,-90,-32,35
1491090219926,1,-3,-9,31,-41,-52,83,65,-9
1491090219926,1,2,4,-16,72,20,58,-37,-45
1491090219926,3,-27,-2,9,-36,-49,-128,-76,-84
1491090219926,3,-15,8,41,37,-32,117,-31,-2
1491090219927,0,48,1,13,19,49,24,127,61
1491090219927,0,-65,5,-31,11,6,-110,-50,-10
1491090219974,1,67,-10,-53,11,-71,16,56,19
1491090219974,1,-22,20,-4,-49,14,48,-38,-29
1491090219974,2,-37,-61,-23,-1,-82,51,-46,-56
1491090219974,2,2,33,52,25,23,-25,-10,37
1491090219975,0,-5,18,25,-5,13,7,15,23
1491090219975,0,2,0,47,59,-15,92,-52,-5
1491090219976,1,-6,-2,-11,-64,32,-7,-20,-9
1491090219976,1,29,-14,-85,-83,-24,-128,8,103
1491090220022,2,15,-30,-44,-41,-21,-37,-2,-99
1491090220022,2,-30,7,6,18,-15,88,-40,0
1491090220071,3,-10,5,15,-28,-32,127,32,22
1491090220071,3,15,44,33,49,37,-35,11,-29
1491090220072,1,-11,-6,-14,60,-75,103,-39,25
1491090220072,1,-8,-6,8,-32,111,-119,62,-4
1491090220072,2,32,31,21,25,-18,-7,-13,5
1491090220072,2,-1,-16,-7,26,-30,-37,77,14
1491090220073,3,20,0,-30,-126,-19,60,-102,4
1491090220073,3,-21,11,-18,38,-7,-71,16,41
1491090220120,0,4,14,2,35,0,73,20,-5
1491090220120,0,26,-8,41,40,16,39,8,-8
1491090220121,2,-21,9,-18,-5,-29,-83,-64,-22
1491090220121,2,20,-7,0,72,43,-55,-53,48
1491090220122,3,-31,12,17,28,-77,-82,-60,5
1491090220122,3,29,-18,-41,-25,-1,33,-3,-65
1491090220122,0,-34,19,41,78,70,46,32,8
1491090220122,0,-10,-17,-6,-35,-6,60,-43,-35
1491090220169,1,-5,-7,23,17,-16,-30,-19,4
1491090220169,1,-4,32,26,12,-1,-128,-91,-21
1491090220170,2,24,-10,-26,-48,-31,90,53,20
1491090220170,2,7,-6,-32,54,53,40,127,-20
1491090220170,3,5,19,100,95,80,33,-22,68
1491090220170,3,-18,-27,-103,-85,0,-111,-42,-24
1491090220171,0,8,-12,3,4,-32,39,-29,-26
1491090220171,0,39,21,15,-29,-23,9,5,101
1491090220217,1,-18,12,-21,-44,-28,52,14,-63
1491090220217,1,10,-14,53,-3,17,92,14,31
1491090220218,2,-29,-15,5,77,5,1,51,18
1491090220218,2,45,36,8,-36,21,56,-45,-40
1491090220219,0,10,1,-42,-33,30,-111,-40,-17
1491090220219,0,-24,-16,32,3,-98,-11,-8,4
1491090220220,1,-3,18,-16,-1,38,-55,-68,-9
1491090220220,1,-12,-17,-36,15,-35,64,-2,-18
1491090220266,2,12,-17,35,64,41,60,74,24
1491090220266,2,-18,24,20,-82,-76,89,-98,-33
1491090220267,3,3,-5,-27,70,92,-17,69,23
1491090220267,3,4,-5,20,-3,-56,-80,19,71
1491090220268,1,-23,-24,-91,-128,-88,-31,64,-1
1491090220268,1,42,12,30,-18,22,45,59,48
1491090220269,2,-47,-64,-100,-114,-82,-39,-100,-31
1491090220269,2,4,-2,13,103,5,-82,53,-30
1491090220315,3,-15,4,26,-45,61,26,-19,25
1491090220315,3,-16,-15,-26,91,-33,-37,-66,-3
1491090220316,0,-3,12,26,-29,-14,-31,-25,-33
1491090220316,0,-5,-8,-21,-72,26,-98,33,40
1491090220319,2,-1,13,-25,-33,22,-93,-70,20
1491090220319,2,-10,2,50,90,76,19,-33,7
1491090220319,3,10,-20,-89,-105,-105,72,92,-23
1491090220319,3,-43,1,3,-31,-87,41,-70,-50
1491090220364,0,21,-11,20,127,76,76,34,37
1491090220364,0,13,25,-8,-29,-7,-93,56,-24
1491090220365,1,-11,11,46,1,-5,94,-45,44
1491090220365,1,-32,-14,-3,-38,-56,-40,-128,-85
1491090220366,3,-2,17,60,127,-43,93,-33,-28
1491090220366,3,1,-1,-7,33,81,-2,4,37
1491090220367,0,-6,6,13,-88,-42,-66,25,-20
1491090220367,0,20,-10,1,54,-73,-11,-10,29
1491090220412,1,-8,4,-48,-128,-92,40,-45,-37
1491090220412,1,32,10,26,127,126,-37,12,46
1491090220419,2,0,-16,-24,-111,1,81,25,-29
1491090220419,2,-14,-2,-16,-4,-57,1,-22,69
1491090220419,0,51,3,10,30,-20,50,2,9
1491090220419,0,-45,-6,-5,-26,-22,6,-6,-7
1491090220420,1,-15,-1,27,4,101,-10,10,17
1491090220420,1,37,6,13,45,53,-59,-37,-4
1491090220461,2,-5,14,23,-40,-52,96,77,-59
1491090220461,2,-6,-9,-28,-5,4,-84,-72,-48
1491090220462,3,21,-9,-31,-26,16,-70,10,-2
1491090220462,3,-6,-7,68,0,-2,119,63,-59
1491090220464,1,36,16,-4,74,55,18,15,-23
1491090220464,1,-14,-30,-11,-40,-38,-14,40,57
1491090220465,2,0,57,67,81,-11,104,-111,-23
1491090220465,2,-12,29,24,-128,-40,-17,10,-43
1491090220510,3,-29,-76,-78,127,10,-58,77,-31
1491090220510,3,-9,0,-9,-23,-4,-15,-7,18
1491090220511,0,-15,5,12,-3,52,27,76,-43
1491090220511,0,24,12,-10,-27,5,-47,-41,22
1491090220512,1,-6,16,35,-31,19,24,6,21
1491090220512,1,-15,-14,11,11,-42,54,24,-17
1491090220512,2,17,11,-13,49,-7,3,3,19
1491090220512,2,-5,1,-15,32,53,-28,-4,-1
1491090220559,3,-11,-31,-21,-64,-49,-23,-42,16
1491090220559,3,3,38,18,-84,-27,85,74,-12
1491090220559,0,12,-2,-2,103,9,-82,-16,65
1491090220559,0,12,-19,-23,-40,24,10,-62,-77
1491090220560,2,4,-10,61,67,58,-86,-5,-15
1491090220560,2,-15,-5,-41,5,55,-59,-4,43
1491090220561,3,-45,-44,-39,-16,-28,22,-81,-61
1491090220561,3,-7,23,36,47,11,62,-38,-24
1491090220607,0,42,-2,-31,-43,-15,100,89,18
1491090220607,0,22,11,9,80,15,94,-16,50
1491090220609,1,-13,-2,23,-91,-96,39,2,-7
1491090220609,1,-4,-17,-46,19,79,-91,-43,45
1491090220609,3,9,-12,-28,119,92,-9,3,51
1491090220609,3,1,-7,-13,-49,-49,-38,7,-7
1491090220610,0,-26,-2,-6,-36,2,-128,9,-12
1491090220610,0,4,-25,0,11,-11,32,-60,2
1491090220656,1,21,28,42,3,30,58,36,7
1491090220656,1,22,4,-8,-18,-13,-21,22,14
1491090220657,2,-10,22,52,32,45,24,49,10
1491090220657,2,-49,-46,-55,51,-58,120,-42,51
1491090220658,0,-35,-20,-54,39,-49,-40,-77,14
1491090220658,0,-1,3,25,10,-6,80,-16,-29
1491090220659,1,9,14,13,22,54,-104,-25,56
1491090220659,1,-23,-10,10,-1,2,19,-4,-23
1491090220706,2,-9,4,28,-43,1,78,-3,-15
1491090220706,2,13,14,23,37,33,19,-3,-6
1491090220707,3,-19,-20,-34,-53,-29,43,-38,-32
1491090220707,3,13,-1,27,28,34,-12,6,1
1491090220707,1,48,11,-4,-108,-67,26,73,34
1491090220707,1,-39,4,10,6,8,79,-35,-48
1491090220708,2,-13,-28,-41,-105,-24,-71,-99,-10
1491090220708,2,-10,17,38,18,68,1,27,-7
1491090220754,3,10,-1,17,91,6,0,-34,-10
1491090220754,3,-20,-5,-25,-67,-46,2,13,-5
1491090220754,0,8,-9,5,9,-24,46,-13,34
1491090220754,0,15,16,35,38,59,-54,12,-85
1491090220755,2,-55,-13,15,37,-4,47,32,-5
1491090220755,2,30,-6,-44,-30,-9,26,43,-43
1491090220756,3,6,-21,-6,-24,-4,43,15,44
1491090220756,3,16,17,31,-81,-46,26,-6,-28
1491090220802,0,-8,16,-21,-7,10,-128,-84,33
1491090220802,0,-13,-22,-8,-2,-19,6,9,-62
1491090220803,1,-29,-24,-6,11,1,124,11,-12
1491090220803,1,17,37,44,-12,-10,-23,44,47
1491090220804,3,9,-18,-64,88,-30,26,-95,-25
1491090220804,3,-44,-48,-54,28,17,-26,57,-13
1491090220805,0,27,42,42,29,2,-64,-92,-46
1491090220805,0,-7,7,21,-17,21,20,31,38
1491090220851,1,-22,21,61,-32,-38,127,46,-27
1491090220851,1,10,-32,-25,-60,44,-95,19,-83
1491090220852,2,14,2,-33,27,-28,-84,24,36
1491090220852,2,-26,-9,-7,-39,12,31,-50,-16
1491090220852,3,12,14,36,72,121,37,106,37
1491090220852,3,-26,-8,-20,-56,-103,42,-74,-13
1491090220853,0,-4,-16,-6,102,18,30,-9,-40
1491090220853,0,8,-14,-28,-43,-96,6,-8,28
1491090220900,1,-21,3,19,1,81,-83,-70,-19
1491090220900,1,24,29,2,-62,-11,70,14,29
1491090220901,2,17,2,-48,10,2,78,68,5
1491090220901,2,-11,-2,2,86,55,-104,-66,48
1491090220901,0,-37,-23,-33,-50,-39,114,2,-24
1491090220901,0,10,3,21,80,42,42,-35,16
1491090220902,1,-36,38,33,-19,39,-67,-3,-55
1491090220902,1,15,-37,-43,-40,-32,-63,26,58
1491090220949,2,8,23,26,67,-5,127,58,12
1491090220949,2,5,11,22,14,82,-109,1,67
1491090220949,3,-18,-22,-56,-76,-64,-91,-88,-16
1491090220949,3,6,18,7,-6,-77,101,-48,-71
1491090220951,1,-39,-8,-17,99,-22,32,-23,-69
1491090220951,1,62,-2,15,2,30,106,-7,60
1491090220952,2,-19,19,36,-23,-14,-14,-65,-27
1491090220952,2,6,4,31,31,21,-23,43,-3
1491090220997,3,-6,-4,-13,0,-37,77,41,70
1491090220997,3,-39,-19,-32,-9,28,-101,-36,-46
1491090220998,0,-3,1,8,-9,38,-55,-5,-39
1491090220998,0,11,10,-8,-9,-26,64,-87,11
1491090220999,2,-15,-42,-69,11,-98,43,-6,-14
1491090220999,2,-8,-4,-10,-83,35,-20,-73,-18
1491090221000,3,43,-12,-7,-48,-17,62,87,-25
1491090221000,3,16,64,45,17,70,45,-13,49
1491090221046,0,-37,-13,41,-11,15,60,21,-18
1491090221046,0,-36,-21,-9,51,7,46,-10,-82
1491090221047,1,32,-6,-18,-44,-32,-111,-44,20
1491090221047,1,-2,20,70,47,27,-6,40,79
1491090221048,3,-11,4,18,54,51,84,57,57
1491090221048,3,-8,-12,-14,-20,-10,-19,10,10
1491090221049,0,29,-4,4,-18,35,-69,-49,16
1491090221049,0,-35,2,20,-41,-34,55,88,-10
1491090221095,1,-13,2,55,100,29,21,-35,-5
1491090221095,1,23,-15,-65,-35,-24,9,-20,-22
1491090221096,2,-21,-16,-16,-91,-17,75,-10,46
1491090221096,2,17,44,-21,4,-33,-128,-11,-6
1491090221096,0,-20,-3,15,36,47,-24,-109,-51
1491090221096,0,-12,-13,33,89,-33,-49,96,20
1491090221097,1,15,-3,-48,-112,-49,-101,29,10
1491090221097,1,-49,-15,16,102,79,38,3,2
1491090221144,2,72,32,1,-76,-33,-6,80,62
1491090221144,2,12,-13,-8,-15,-16,39,-74,-9
1491090221144,3,-5,17,5,-117,-84,108,21,-30
1491090221144,3,-12,-24,-30,60,54,-127,-128,28
1491090221145,1,32,-26,-27,-50,5,49,39,47
1491090221145,1,-25,36,37,-59,-34,-10,-38,-24
1491090221146,2,2,6,20,63,10,100,47,-12
1491090221146,2,2,-22,7,41,-23,-34,-128,-21
1491090221192,3,-15,-20,-18,-1,17,-40,36,-15
1491090221192,3,13,27,7,45,-22,63,103,70
1491090221193,0,10,-12,-12,-59,-4,-51,2,-15
1491090221193,0,-11,0,-5,-45,7,98,-62,-3
1491090221194,2,13,34,-11,-113,-10,40,2,19
1491090221194,2,-17,-49,-45,69,28,24,62,-18
1491090221195,3,-24,-19,-5,29,-19,42,-82,15
1491090221195,3,9,14,16,35,12,21,-88,-76
1491090221241,0,23,27,8,-21,6,-42,102,61
1491090221241,0,33,2,20,-21,-15,77,62,4
1491090221242,1,-6,6,-24,-15,1,-50,-28,-1
1491090221242,1,-7,-34,-13,-13,-62,-20,21,-66
1491090221242,2,-3,20,15,-54,-4,-31,57,45
1491090221242,2,-14,-6,-9,65,54,67,-64,-15
1491090221243,3,28,2,-3,54,-24,16,-43,35
1491090221243,3,-5,9,7,-16,-27,-99,69,3
1491090221290,0,-14,-20,-7,-60,-13,-62,-108,-29
1491090221290,0,-6,5,-15,-96,-13,-71,122,-17
1491090221291,1,11,7,-4,-13,18,-96,-26,36
1491090221291,1,-34,-10,-12,51,-26,100,-14,-89
1491090221291,3,1,8,-25,48,12,16,-4,1
1491090221291,3,22,-1,-4,33,12,6,-55,-22
1491090221292,0,-14,1,-2,-20,-13,41,96,-21
1491090221292,0,7,-2,21,93,-1,32,-128,-10
1491090221339,1,-18,7,19,-13,6,65,93,-27
1491090221339,1,24,-10,-18,-44,-8,-32,-67,14
1491090221340,2,5,21,21,29,-7,-82,-24,0
1491090221340,2,-14,-20,-21,-38,15,-108,-21,54
1491090221341,0,0,16,20,46,44,7,-18,-63
1491090221341,0,-13,-17,-21,-27,-3,29,55,-1
1491090221342,1,-18,-14,-25,-72,-68,-19,0,2
1491090221342,1,24,-19,-30,35,-2,106,42,14
1491090221387,2,-16,19,70,119,12,-11,-48,-7
1491090221387,2,38,-4,-48,-68,18,-15,2,-20
1491090221388,3,0,-19,-11,-32,-18,55,64,30
1491090221388,3,-12,7,6,-101,-18,13,-33,-19
1491090221389,1,-2,18,29,-11,47,-38,-1,-21
1491090221389,1,30,1,-28,-19,46,-106,0,57
1491090221390,2,-15,-9,-15,-87,-56,40,48,-14
1491090221390,2,-49,-26,-47,-24,-76,-94,-57,-27
1491090221436,3,38,-21,-16,11,-13,37,-3,24
1491090221436,3,-26,8,14,-12,17,15,14,-3
1491090221437,0,19,26,9,5,-8,42,-100,-51
1491090221437,0,11,-2,6,104,-7,7,-69,86
1491090221438,2,-9,-15,1,43,0,-61,10,11
1491090221438,2,-44,12,25,-78,-30,-37,-35,-48
1491090221439,3,18,-8,-30,-1,9,-45,29,0
1491090221439,3,-29,10,28,51,79,76,37,34
1491090221534,0,32,-6,-21,-116,-22,-55,50,1
1491090221534,0,-21,-7,-29,91,39,61,116,23
1491090221534,1,-7,2,3,-62,-87,-31,-33,16
1491090221534,1,21,17,-8,40,-35,73,-20,-11
1491090221535,3,7,-12,-12,21,14,81,57,-5
1491090221535,3,1,4,-14,-20,-21,-43,51,-19
1491090221536,0,25,13,18,49,35,78,9,6
1491090221536,0,20,1,4,-13,-4,51,10,-11
1491090221582,1,27,21,8,-9,11,-15,-75,63
1491090221582,1,-9,2,25,0,8,-9,58,-54
1491090221584,2,19,21,-34,-13,28,-109,0,100
1491090221584,2,-15,-21,-25,-63,-37,-25,-90,15
1491090221584,0,-33,-26,-11,98,30,94,64,-27
1491090221584,0,46,24,13,18,29,21,60,110
1491090221585,0,13,-13,8,-39,-1,90,65,20
1491090221585,0,-6,9,-43,-5,22,-62,35,-37
1491090221631,1,-31,6,42,-3,-8,27,-38,9
1491090221631,1,4,17,4,74,40,-7,-32,-35
1491090221632,2,0,-28,-37,15,-17,31,-37,-29
1491090221632,2,25,5,22,-10,-17,60,-8,-69
1491090221633,1,23,26,-18,-44,20,-128,38,59
1491090221633,1,-5,-21,15,18,19,34,85,-8
1491090221633,2,53,-4,8,-78,-84,68,44,-78
1491090221633,2,-22,1,-21,54,84,-102,13,-14
1491090221680,3,4,-4,-10,37,-31,4,10,45
1491090221680,3,-6,-3,-5,-60,-3,24,-4,-30
1491090221681,0,22,2,-20,38,-38,28,-56,55
1491090221681,0,-10,2,37,30,-18,-9,-17,-36
1491090221681,2,-27,-14,3,2,3,30,-128,-43
1491090221681,2,17,-17,14,-38,1,103,88,-31
1491090221682,3,-35,12,22,112,28,84,-24,38
1491090221682,3,24,-7,-5,-97,-44,-92,63,21
1491090221729,0,-21,-15,-50,6,-2,-128,-89,17
1491090221729,0,-21,-17,-15,-25,35,6,107,-76
1491090221730,1,28,13,21,-128,-33,123,54,-88
1491090221730,1,-2,19,33,127,41,-55,0,-1
1491090221730,3,34,-12,-22,10,-20,2,-97,-39
1491090221730,3,2,2,-12,-85,-1,111,14,-46
1491090221731,0,9,3,5,-31,14,58,65,12
1491090221731,0,-20,-29,-18,69,-75,-8,-128,-17
1491090221777,1,-11,15,34,-8,45,15,81,-19
1491090221777,1,-1,8,-24,-3,11,-11,8,49
1491090221779,2,-15,-14,3,21,54,-103,-57,-10
1491090221779,2,35,14,-17,-52,-64,41,77,-16
1491090221780,0,-27,-2,8,-47,-26,-21,-67,-46
1491090221780,0,-49,4,6,-5,-2,36,72,64
1491090221781,1,0,-12,-6,114,55,19,-13,-69
1491090221781,1,11,15,32,29,-13,127,19,-6
1491090221826,2,31,30,11,4,-6,-51,84,53
1491090221826,2,3,5,38,-94,-49,-49,-3,22
1491090221827,3,-50,-46,-77,45,39,29,22,-15
1491090221827,3,45,-3,3,86,-9,-105,-92,-17
1491090221828,1,-48,-8,-22,-63,-17,-33,-46,12
1491090221828,1,19,-21,-47,-101,-80,115,69,5
1491090221829,2,52,34,33,127,90,-113,-48,-2
1491090221829,2,19,-2,41,-70,7,96,-18,14
1491090221875,3,17,-4,1,-28,-10,69,88,27
1491090221875,3,-15,59,57,26,78,-79,-104,-22
1491090221876,0,12,-16,26,0,-58,81,109,-11
1491090221876,0,-32,-12,-31,-49,54,23,-6,-16
1491090221877,2,-17,14,33,93,68,-127,-91,24
1491090221877,2,32,13,3,37,20,0,-52,-3
1491090221877,3,-8,-11,16,-19,-55,82,81,11
1491090221877,3,-16,30,17,-97,36,-98,-69,-3
1491090221924,0,-28,-30,-2,78,28,41,110,-10
1491090221924,0,38,-3,-32,-77,-24,-44,46,-9
1491090221925,1,-22,35,3,-56,-90,48,-54,-77
1491090221925,1,-8,-27,-18,93,-34,32,25,46
1491090221925,2,-5,-5,-24,-5,47,19,-93,-21
1491090221925,2,18,14,18,108,21,-49,1,19
1491090221926,3,-5,2,-14,38,23,-66,17,58
1491090221926,3,-16,-1,39,56,53,62,14,-36
1491090221972,0,0,6,-28,-128,-92,1,-5,-12
1491090221972,0,-11,-34,-30,-54,-43,21,1,15
1491090221973,1,-1,-10,27,-77,16,-9,-42,35
1491090221973,1,16,20,8,113,37,77,10,-19
1491090221974,3,-26,-19,-39,-123,-59,-73,0,26
1491090221974,3,-49,-51,-54,33,5,-6,-97,-79
1491090221975,0,39,-15,6,32,8,78,-2,0
1491090221975,0,23,55,6,-73,-46,127,49,37
1491090222021,1,-11,-15,-12,127,62,-109,-59,-39
1491090222021,1,-2,-16,-13,-41,-37,-77,-13,23
1491090222023,2,-28,-3,-31,-33,6,67,-35,1
1491090222023,2,-24,-10,41,35,-14,-56,32,0
1491090222024,0,-18,24,39,52,-79,88,-20,4
1491090222024,0,-7,-23,-30,30,99,-77,34,-16
1491090222025,1,15,11,7,98,50,74,-13,1
1491090222025,1,-4,5,34,-81,-53,66,83,14
1491090222070,2,-13,7,-56,-44,-39,-98,-61,-23
1491090222070,2,-19,-49,-34,49,-52,127,80,35
1491090222071,3,33,18,-16,-128,-34,30,15,32
1491090222071,3,-10,-12,7,121,73,-55,-25,34
1491090222071,1,-14,7,39,96,32,-43,-31,-5
1491090222071,1,0,5,20,-38,5,127,18,-13
1491090222074,2,-14,-29,-38,-53,16,-88,-44,-6
1491090222074,2,-16,-16,-42,-28,-41,-117,-64,-19
1491090222119,3,14,-8,5,-25,-67,-3,49,30
1491090222119,3,-29,10,33,5,34,-60,-104,-18
1491090222120,0,40,5,-2,-65,22,109,123,37
1491090222120,0,2,14,42,115,58,-37,-74,-76
1491090222120,2,-4,-13,-13,-63,9,-37,-28,-40
1491090222120,2,30,5,5,9,-9,92,62,31
1491090222121,3,-38,13,40,-31,-45,30,-96,-49
1491090222121,3,13,1,6,-90,-23,-39,44,11
1491090222167,0,-16,-15,-35,101,-5,-22,-18,-9
1491090222167,0,-18,-19,-23,-22,-33,22,-55,-10
1491090222169,1,-19,-7,21,81,-16,10,-1,-26
1491090222169,1,9,-13,-41,-88,-4,45,77,18
1491090222170,3,1,-9,2,127,46,-3,103,4
1491090222170,3,56,24,3,-20,-10,-62,-64,14
1491090222172,0,-13,14,-17,-39,-15,-47,0,9
1491090222172,0,-11,7,24,94,47,-20,5,13
1491090222216,1,26,-2,7,-19,-10,-25,-3,-6
1491090222216,1,-19,14,29,-23,-23,21,-13,-3
1491090222217,2,-12,-23,-20,-32,-42,-5,-20,-38
1491090222217,2,-19,-4,-40,-61,31,59,2,32
1491090222218,0,-1,-3,-11,72,-13,-27,-56,-20
1491090222218,0,30,0,13,25,-1,-58,4,40
1491090222219,1,-27,-3,-34,-98,20,22,53,-22
1491090222219,1,-7,-39,-39,127,63,-6,-36,-3
1491090222265,2,-16,-13,12,-84,-17,-48,-19,-18
1491090222265,2,13,21,16,-28,6,32,60,67
1491090222265,3,25,32,14,-60,-20,-21,-60,5
1491090222265,3,-31,10,44,66,10,91,4,-44
1491090222266,0,3,6,8,-76,3,75,7,28
1491090222266,0,-3,-20,-45,15,-63,-17,124,12
1491090222267,1,18,-4,-16,-41,10,-27,-106,-20
1491090222267,1,0,3,29,84,19,77,26,35
1491090222314,2,-18,-10,-31,-58,18,-4,48,12
1491090222314,2,-10,-11,13,-28,-19,-55,-33,-39
1491090222314,3,-36,-9,5,-50,-55,-57,19,20
1491090222314,3,37,4,-16,-51,-45,47,-80,-12
1491090222315,1,13,-5,-23,-1,27,62,114,17
1491090222315,1,-9,19,-3,-38,-60,-63,-39,-6
1491090222316,2,0,3,46,26,26,91,31,-67
1491090222316,2,-4,2,-55,-91,-50,9,-28,-32
1491090222362,3,-34,-21,-15,127,44,-59,-81,-9
1491090222362,3,14,-14,17,30,-56,52,100,55
1491090222363,0,-5,13,-20,-80,13,22,-96,-20
1491090222363,0,-2,3,53,127,93,-18,39,-32
1491090222364,2,-14,-42,-10,-77,-84,76,-1,26
1491090222364,2,-11,11,-8,-52,15,-41,-78,12
1491090222365,3,6,-19,-24,-38,-77,43,35,-57
1491090222365,3,44,36,32,35,78,-20,42,51
1491090222411,0,-17,-12,-15,11,43,89,-17,-14
1491090222411,0,-16,-36,-3,118,72,-28,-106,-52
1491090222412,1,24,30,9,-59,-8,29,81,55
1491090222412,1,-25,-40,-45,-50,-52,-58,-25,25
1491090222412,3,15,-5,-32,-32,-12,-59,37,-48
1491090222412,3,-6,-11,6,71,14,-30,-11,-9
1491090222413,0,3,-10,-41,-57,-58,-93,-34,28
1491090222413,0,13,11,35,2,-1,89,11,-5
1491090222460,1,-2,-6,35,75,39,-67,-41,26
1491090222460,1,-30,-3,-57,-128,-100,72,48,5
1491090222461,2,-30,-37,-51,126,33,-128,-52,-37
1491090222461,2,40,17,25,-70,-83,8,32,62
1491090222461,0,-32,12,-16,-84,-41,-87,-102,-30
1491090222461,0,-29,-18,-15,-25,-14,29,64,-31
1491090222462,1,31,28,59,30,38,43,48,59
1491090222462,1,26,19,15,-48,-16,-49,44,24
1491090222509,2,-7,-24,-13,-19,-13,8,6,18
1491090222509,2,-10,-5,-1,27,3,14,-11,-14
1491090222510,3,26,3,-14,-68,-6,-31,-79,-44
1491090222510,3,-35,-14,-19,84,7,59,-54,22
1491090222510,1,-8,-44,-35,-122,-112,91,-85,-42
1491090222510,1,41,33,-23,65,92,-27,57,-18
1491090222511,2,-5,-28,-31,-30,-77,100,15,-16
1491090222511,2,9,5,8,27,-33,-60,-17,5
1491090222557,3,15,4,8,-28,58,55,-12,-20
1491090222557,3,-53,-16,-4,-91,-4,39,2,27
1491090222558,0,3,26,32,22,-26,-39,-25,-7
1491090222558,0,13,4,27,60,46,79,36,-54
1491090222559,2,-8,-7,-11,-74,-13,53,92,-21
1491090222559,2,56,12,-5,-21,-74,80,-34,-6
1491090222560,3,-38,-13,-9,79,33,-102,22,-8
1491090222560,3,2,10,-22,-128,8,-29,-108,6
1491090222606,0,43,3,-24,-31,-51,-68,-41,-34
1491090222606,0,-29,-4,16,-13,-73,118,77,16
1491090222607,1,10,-4,-11,82,55,20,-22,-5
1491090222607,1,17,14,13,78,44,-128,16,-13
1491090222608,3,7,14,-3,-90,-105,55,127,-3
1491090222608,3,-18,-9,33,-35,0,1,30,12
1491090222609,0,7,28,14,127,88,-39,-54,-48
1491090222609,0,-14,-39,-59,-48,-41,-87,-63,8
1491090222655,1,-32,2,12,-29,-22,111,24,-5
1491090222655,1,43,24,26,48,-26,-24,-125,76
1491090222657,2,8,10,29,-23,-6,83,127,-27
1491090222657,2,-24,-7,17,-86,-37,36,10,-53
1491090222658,3,14,16,-41,48,94,-101,-79,49
1491090222658,3,-7,-35,-68,-76,6,58,11,-51
1491090222659,0,-3,14,27,-5,42,27,-34,21
1491090222659,0,24,27,4,-101,-43,95,33,-28
1491090222704,1,-38,-40,-4,127,34,-72,-91,-43
1491090222704,1,9,-12,-25,-53,-60,-17,24,-1
1491090222705,2,27,12,12,33,7,-7,-41,18
1491090222705,2,0,14,14,-45,24,-5,22,23
1491090222706,0,-9,-11,-26,3,-23,123,49,-21
1491090222706,0,32,37,34,74,20,-116,-23,41
1491090222707,1,4,-2,-3,9,40,46,68,37
1491090222707,1,27,-13,20,85,22,-26,-108,-29
1491090222752,2,14,36,49,-10,34,-115,87,56
1491090222752,2,-13,-31,-118,-58,-56,5,56,-19
1491090222754,3,-4,-13,-20,-3,-98,57,-101,-35
1491090222754,3,8,14,-8,15,11,94,76,25
1491090222755,1,37,14,-10,-35,-23,-20,82,41
1491090222755,1,-17,-10,16,-6,-8,57,35,-28
1491090222756,2,-16,-37,-41,-37,-53,-7,-26,-53
1491090222756,2,7,21,33,76,81,-65,-8,36
1491090222801,3,-27,-6,9,-23,-72,28,59,-46
1491090222801,3,39,20,15,-24,43,62,8,34
1491090222802,0,-23,-7,-4,68,31,14,-15,-24
1491090222802,0,18,-13,-29,-53,38,-75,-21,-13
1491090222804,2,1,-5,-32,65,-42,80,-12,15
1491090222804,2,-1,2,23,45,23,84,5,-4
1491090222805,3,16,25,60,70,61,1,17,-17
1491090222805,3,-27,18,23,-30,40,-29,11,-12
1491090222850,0,5,-15,-34,-128,-75,-11,-41,8
1491090222850,0,-39,-13,3,49,-15,-28,-79,-34
1491090222852,1,2,0,29,-34,21,-41,88,115
1491090222852,1,-27,-12,-14,-55,-58,-33,-121,-89
1491090222852,3,-9,-1,-25,-116,-3,118,-21,-58
1491090222852,3,-14,-14,34,105,-48,37,9,25
1491090222853,0,-14,5,-38,-103,-67,-70,-37,-33
1491090222853,0,2,-29,-60,-21,-71,44,38,41
1491090222900,1,-8,-5,10,18,30,17,-52,35
1491090222900,1,16,-4,-1,9,15,-65,18,9
1491090222903,2,-11,12,38,10,33,30,42,-34
1491090222903,2,-1,7,37,35,35,50,40,-3
1491090222909,0,30,1,-8,-26,89,-49,74,-4
1491090222909,0,-16,-3,-22,-16,11,-14,92,24
1491090222914,1,-3,-18,-1,51,28,118,-46,-31
1491090222914,1,-30,22,8,-26,-22,-98,-54,-36
1491090222947,2,-19,-12,16,-46,-28,58,57,88
1491090222947,2,18,14,-32,-59,-52,36,-58,-19
1491090222948,3,14,-9,-12,1,-12,12,39,17
1491090222948,3,-13,-6,-7,-14,3,18,-3,6
1491090222949,1,19,11,1,-5,-19,1,77,70
1491090222949,1,0,22,35,90,31,-21,20,-18
1491090222950,2,-2,-11,-15,-45,-19,-19,-70,4
1491090222950,2,-15,-19,-14,-1,63,24,-18,24
1491090222996,3,54,16,-13,19,12,-58,64,-46
1491090222996,3,5,20,3,-127,-46,-60,-23,68
1491090222997,0,-22,-17,14,119,49,37,58,-67
1491090222997,0,31,9,-12,-100,-54,18,30,2
1491090222998,1,-22,-31,-25,2,0,-41,-72,2
1491090222998,1,1,34,47,35,-30,40,22,-13
1491090223001,2,-15,10,-5,-56,1,59,-22,16
1491090223001,2,-37,-31,-43,-8,15,-53,39,28
1491090223045,3,29,14,14,-4,-28,-36,-61,-70
1491090223045,3,-4,-28,-16,20,6,-6,112,26
1491090223046,0,6,24,34,36,49,-5,-59,35
1491090223046,0,-14,8,44,28,-11,127,-36,-57
1491090223046,2,5,-1,-40,-128,-105,54,-1,5
1491090223046,2,-7,-23,7,90,42,1,-19,-32
1491090223047,3,-17,6,30,52,21,52,-92,16
1491090223047,3,-13,-4,-7,-67,-22,104,34,-16
1491090223094,0,17,0,-14,-42,2,-78,48,36
1491090223094,0,11,37,1,-114,-51,-55,-103,17
1491090223095,1,9,-14,-14,46,8,-50,118,-2
1491090223095,1,-2,-16,-15,97,36,126,95,-13
1491090223096,3,-17,3,-5,-75,-25,-59,-52,8
1491090223096,3,21,-9,-8,-2,13,88,-3,-46
1491090223096,0,9,-5,-4,-6,-85,20,-6,-37
1491090223096,0,0,24,64,127,75,47,14,12
1491090223142,1,-10,-16,-14,-88,58,-92,-11,-48
1491090223142,1,10,-31,-37,-74,-8,-6,-8,29
1491090223143,2,-29,-20,-24,-54,-44,43,13,2
1491090223143,2,25,-12,20,69,-13,-38,-19,16
1491090223144,0,3,11,40,2,-61,114,127,39
1491090223144,0,58,42,-19,-16,77,-108,-54,47
1491090223145,1,-47,-35,-18,-5,-53,44,28,-35
1491090223145,1,-14,2,15,-6,-18,50,-24,-14
1491090223191,2,-9,12,-2,31,-9,24,-59,-31
1491090223191,2,-20,-5,10,-28,-6,42,69,-49
1491090223192,3,3,0,29,113,68,2,22,37
1491090223192,3,24,-4,20,18,11,38,116,-19
1491090223193,1,-9,8,-21,-49,7,-57,-48,-29
1491090223193,1,24,0,22,17,-35,-68,-8,11
1491090223193,2,15,13,-8,22,70,-4,-27,-18
1491090223193,2,-20,-20,-35,28,-15,-115,-103,22
1491090223241,3,10,-41,-30,-103,-43,-3,54,-22
1491090223241,3,-25,0,-7,-19,8,64,1,-28
1491090223242,0,0,25,31,-34,-20,-56,-72,-95
1491090223242,0,-12,10,25,-10,-4,107,92,11
1491090223243,2,1,-19,-1,-35,-38,90,-66,16
1491090223243,2,-17,-7,-42,20,-3,-10,82,-16
1491090223243,3,5,-14,-22,8,-23,-124,-93,-21
1491090223243,3,11,31,0,0,78,-60,68,36
1491090223289,0,-39,-51,-38,-53,-35,57,-57,-37
1491090223289,0,31,12,14,-33,-26,63,54,-7
1491090223289,1,10,5,-3,-12,-56,42,74,-19
1491090223289,1,8,18,15,16,5,28,-32,-6
1491090223290,3,36,16,49,115,26,114,30,24
1491090223290,3,-10,-2,-45,-128,-67,-57,-82,8
1491090223291,0,2,-10,-6,127,41,-3,12,-22
1491090223291,0,-25,-16,-24,-92,-33,6,22,-11
1491090223337,1,19,15,21,60,45,-81,88,65
1491090223337,1,-49,-13,25,-29,46,-18,-106,11
1491090223338,2,22,40,69,-20,-25,-7,127,-26
1491090223338,2,8,-9,-86,-77,-65,2,-14,40
1491090223339,3,-42,-45,-42,-27,-54,24,71,-42
1491090223339,3,7,25,63,66,-9,-29,-72,33
1491090223340,0,-4,-21,-42,-14,58,29,9,-7
1491090223340,0,-4,-12,24,11,-11,39,-31,13
1491090223386,1,5,24,16,-57,-58,-1,-52,-41
1491090223386,1,26,2,-27,27,15,-36,41,57
1491090223387,2,25,-6,11,60,44,1,23,-46
1491090223387,2,-20,13,34,-53,-36,23,-8,46
1491090223387,0,-31,-14,-20,-36,-48,-16,72,30
1491090223387,0,36,4,-18,11,-38,44,1,-22
1491090223389,1,-35,-26,6,-15,39,66,17,18
1491090223389,1,-12,15,8,-5,53,-93,-69,-3
1491090223435,2,-2,-16,-17,-75,-80,111,95,25
1491090223435,2,10,1,12,-31,-32,-62,-56,-21
1491090223436,3,-49,6,10,-57,19,12,-50,-68
1491090223436,3,5,-23,-60,15,-7,88,78,-45
1491090223436,1,-9,13,2,64,21,-121,-45,31
1491090223436,1,-11,-15,-13,-43,5,5,-22,-34
1491090223437,2,-4,-18,-30,-55,-64,-42,-41,-15
1491090223437,2,-1,12,27,70,56,-38,-29,-55
1491090223484,3,28,36,42,27,13,-14,124,74
1491090223484,3,-21,10,19,-79,-89,127,-31,10
1491090223485,0,-12,-46,-55,113,95,-105,-38,-30
1491090223485,0,32,29,3,12,-5,-88,14,-12
1491090223485,2,10,27,21,-9,-3,49,-4,29
1491090223485,2,-28,-4,42,34,28,9,36,-8
1491090223486,3,4,-20,-39,91,54,2,-112,-11
1491090223486,3,4,-17,-25,-54,-103,-57,-14,-29
1491090223533,0,-17,-8,-15,6,24,-8,-23,-17
1491090223533,0,-7,-9,-9,48,47,-77,-20,-24
1491090223535,1,-20,-4,16,-29,-6,26,-45,5
1491090223535,1,6,-4,8,1,12,-52,-43,4
1491090223537,3,2,0,-40,-117,-40,23,-13,13
1491090223537,3,-1,-22,-16,72,-4,-65,-71,-31
1491090223540,0,0,24,11,-69,-21,9,24,7
1491090223540,0,-20,1,-1,-5,28,110,90,16
1491090223581,1,15,-2,1,74,-6,-6,-84,-7
1491090223581,1,0,-10,12,117,47,29,97,10
1491090223582,2,10,11,-7,-49,-4,-91,76,47
1491090223582,2,14,-16,-28,-25,-26,25,-45,-24
1491090223583,0,2,-5,4,-52,-31,-6,-17,-2
1491090223583,0,22,7,27,18,23,6,-23,0
1491090223584,1,-12,-4,-38,-77,-37,-20,11,3
1491090223584,1,7,0,18,-10,-23,-21,4,10
1491090223630,2,-18,-14,17,67,51,94,74,-8
1491090223630,2,3,41,7,-3,-14,-27,-62,27
1491090223631,3,-41,-23,1,32,-40,68,-35,-45
1491090223631,3,68,30,13,-23,65,-89,91,14
1491090223632,1,-12,-15,-26,91,-38,-5,-24,-35
1491090223632,1,-30,10,24,-102,-32,44,-45,-44
1491090223633,2,-9,-11,-53,44,69,-6,29,35
1491090223633,2,15,-3,16,82,-52,-38,12,27
1491090223679,3,-34,-10,-4,-81,-10,3,32,14
1491090223679,3,42,-2,3,30,-5,-16,-39,-13
1491090223680,0,9,33,51,-6,-25,5,14,-6
1491090223680,0,-11,-7,-25,-128,-33,33,-26,20
1491090223681,1,-1,5,5,112,64,-51,13,12
1491090223681,1,-37,-35,-3,55,-40,-26,-32,-81
1491090223682,2,14,-7,-11,-96,18,-42,47,20
1491090223682,2,25,33,-29,-84,57,-27,-49,-42
1491090223727,3,33,8,4,-94,-8,12,12,34
1491090223727,3,-31,-7,-6,-67,-72,16,-90,42
1491090223729,0,33,18,10,79,16,-35,3,-77
1491090223729,0,-26,-28,-10,90,21,-5,-5,14
1491090223730,2,-7,23,36,28,11,41,-26,-40
1491090223730,2,-8,-31,-46,-45,-88,-19,0,22
1491090223731,3,7,-1,14,100,38,-20,-52,-39
1491090223731,3,-17,-11,-3,3,45,91,124,-19
1491090223776,0,-3,-17,-32,1,6,-128,-128,62
1491090223776,0,-7,13,50,91,75,113,1,-27
1491090223777,1,21,-4,-5,-108,-89,78,27,67
1491090223777,1,17,11,-47,30,59,-107,63,-11
1491090223778,3,1,0,23,-66,-45,71,21,-63
1491090223778,3,8,14,19,84,25,84,-5,36
1491090223779,0,-7,-14,-36,-82,-54,-42,85,15
1491090223779,0,-19,-6,59,102,4,-16,-31,-34
1491090223825,1,2,-6,-19,9,45,-17,42,10
1491090223825,1,-13,6,-17,-52,-35,-49,-84,-2
1491090223827,2,-17,-1,14,69,1,-47,72,17
1491090223827,2,10,-6,5,8,-12,18,-22,-22
1491090223828,0,-13,-2,-1,-15,-7,-37,-128,-21
1491090223828,0,21,-3,-3,-6,4,-27,-3,48
1491090223830,1,-4,19,8,-2,38,7,120,14
1491090223830,1,-17,-10,-3,-59,-50,-15,-128,-15
1491090223874,2,6,-7,7,54,-51,2,-76,-19
1491090223874,2,-7,-13,-16,-23,18,61,117,27
1491090223876,3,-10,1,-2,-20,-5,-79,-109,-22
1491090223876,3,-7,-18,-20,18,-18,16,-29,0
1491090223877,1,41,3,-13,39,12,-56,-12,13
1491090223877,1,-8,-13,-2,-20,-16,-113,46,27
1491090223877,2,1,3,6,-108,-26,97,24,57
1491090223877,2,-17,-20,-26,90,23,-63,97,-11
1491090223922,3,-9,20,21,84,21,-5,-37,11
1491090223922,3,-6,-1,10,3,7,-4,-84,-14
1491090223924,0,2,-21,-28,-44,-28,-95,-119,-64
1491090223924,0,-15,32,25,-70,-24,58,87,53
1491090223925,2,-8,4,29,-77,-5,43,-59,-42
1491090223925,2,28,-17,-54,20,-3,-51,27,-4
1491090223926,3,-21,-22,-32,52,-10,22,35,-53
1491090223926,3,4,-6,-8,-26,-28,40,-23,-9
1491090223971,0,-6,-1,17,51,8,30,127,21
1491090223971,0,1,40,61,-52,113,34,-64,-42
1491090223972,1,10,-7,0,53,8,-125,-31,16
1491090223972,1,28,-16,-13,-12,-10,-17,85,46
1491090223973,3,-39,5,11,-7,-14,80,75,5
1491090223973,3,-5,7,24,17,35,2,-108,-50
1491090223974,0,9,-9,-2,15,46,-3,30,2
1491090223974,0,-10,-10,-46,-105,-62,-1,-7,0
1491090224020,1,-13,-8,13,11,-65,-10,-64,-19
1491090224020,1,27,28,-17,-23,25,-5,-6,11
1491090224020,2,-17,-38,-28,68,32,-15,82,-13
1491090224020,2,17,21,33,46,-20,-36,-120,12
1491090224021,0,22,-9,-19,7,15,20,54,9
1491090224021,0,-29,-15,-3,-34,-26,90,-19,32
1491090224022,1,-3,4,-7,61,-7,44,-55,-9
1491090224022,1,-23,-7,1,-40,-79,75,-79,-28
1491090224069,2,-10,-43,-38,-26,-23,10,71,-27
1491090224069,2,26,42,30,88,45,-57,18,28
1491090224069,3,3,-8,5,-57,-6,-1,-38,-4
1491090224069,3,-8,5,9,51,14,65,80,-5
1491090224070,0,-2,-7,3,15,-28,-41,-96,-17
1491090224070,0,-8,-24,-22,-110,-5,89,59,-30
1491090224071,1,14,12,5,71,15,-119,-128,16
1491090224071,1,3,-14,2,47,25,44,117,25
1491090224117,2,-12,13,-5,6,-22,34,-3,0
1491090224117,2,15,-19,-6,14,51,-71,-1,-32
1491090224118,3,17,26,57,-17,14,-25,82,27
1491090224118,3,-21,-28,-79,-77,-5,53,16,0
1491090224119,1,-3,5,9,14,37,1,-24,48
1491090224119,1,-6,20,82,58,33,31,58,30
1491090224120,2,-27,4,4,32,-32,36,-77,-37
1491090224120,2,26,-34,-30,68,26,-74,104,40
1491090224166,3,-4,7,0,-128,-27,-76,-50,9
1491090224166,3,3,10,-8,59,14,-3,30,-14
1491090224167,0,-17,-30,-40,-87,-2,48,-11,-46
1491090224167,0,-7,20,45,59,25,-15,-40,-3
1491090224167,2,-17,2,12,-14,39,-6,102,23
1491090224167,2,13,10,1,-21,-72,59,-80,-40
1491090224168,3,-31,-6,-6,29,1,29,3,-66
1491090224168,3,29,15,6,39,-1,-58,-24,81
1491090224215,0,-1,-4,8,-41,10,-1,-68,-51
1491090224215,0,-15,-10,-9,32,-51,29,100,86
1491090224216,1,-7,-2,-19,-69,-5,-49,-97,-74
1491090224216,1,22,0,14,55,49,34,118,48
1491090224216,3,15,9,3,40,0,127,77,-46
1491090224216,3,-31,-6,-35,-59,-48,-22,56,-68
1491090224217,0,14,-29,16,47,29,25,-20,106
1491090224217,0,-10,3,-31,-127,-115,-58,-73,-50
1491090224264,1,-19,-18,-14,3,37,-79,107,-6
1491090224264,1,32,-15,-3,53,39,36,26,5
1491090224265,2,-3,44,22,-33,-10,71,8,-18
1491090224265,2,6,2,20,78,33,21,-27,-4
1491090224265,0,-12,-8,-7,43,30,-31,11,6
1491090224265,0,11,17,37,-14,46,51,4,-42
1491090224266,1,-1,7,-21,-25,-7,72,49,18
1491090224266,1,-26,-25,-36,-50,-51,-48,-32,-13
1491090224313,2,34,-17,1,38,22,-122,-128,24
1491090224313,2,2,-25,-15,-27,-24,42,101,15
1491090224315,3,11,41,36,-98,-42,26,-42,-4
1491090224315,3,-9,6,4,86,58,-27,-128,-30
1491090224316,1,3,-24,-31,-37,7,-49,-13,11
1491090224316,1,-9,-4,4,30,-32,47,33,-17
1491090224317,2,-12,26,13,32,36,23,0,-24
1491090224317,2,22,-15,-13,23,24,-24,-16,10
1491090224361,3,32,5,11,-41,-45,-3,-61,-7
1491090224361,3,3,46,29,4,-22,52,54,59
1491090224362,0,-9,1,13,93,69,-28,-77,-54
1491090224362,0,-9,-3,-21,-105,-32,36,-19,-39
1491090224363,2,7,-1,-37,-66,-79,-55,70,-1
1491090224363,2,-23,-8,-19,-27,-6,-80,-47,69
1491090224363,3,23,10,12,-29,-6,106,28,-18
1491090224363,3,-17,-11,12,46,45,-5,-98,-43
1491090224410,0,-20,18,26,39,5,54,10,39
1491090224410,0,7,-2,-2,-18,16,0,-20,-36
1491090224411,1,-7,12,-4,-5,-42,6,56,-14
1491090224411,1,-16,-29,16,34,-23,-7,-28,28
1491090224411,2,1,-2,-33,-67,-7,94,1,-19
1491090224411,2,-14,-18,-2,13,-9,-92,-71,-31
1491090224412,3,8,26,49,89,69,56,50,62
1491090224412,3,15,-2,-36,-69,-17,-52,-54,-8
1491090224460,0,-23,-20,-9,-14,-36,-12,21,-2
1491090224460,0,-17,-4,-9,-44,-9,52,-22,-24
1491090224461,1,-1,-13,-16,55,-23,-42,-23,2
1491090224461,1,18,20,39,27,58,46,99,63
1491090224461,3,-11,2,3,-22,-36,32,-24,-47
1491090224461,3,0,-11,-14,-13,-5,-18,15,-20
1491090224462,0,0,2,7,48,-3,38,-54,-18
1491090224462,0,10,15,43,54,76,-30,63,8
1491090224507,1,-17,-17,-33,-54,-26,-17,-65,-45
1491090224507,1,4,3,16,-12,23,-8,78,13
1491090224508,2,-17,47,34,-6,-4,-54,-74,6
1491090224508,2,4,-33,-64,-19,-5,29,25,-20
1491090224509,0,-17,13,19,-9,-20,-105,-88,-36
1491090224509,0,28,2,4,31,67,-2,85,67
1491090224510,1,-31,10,30,49,-4,-16,-32,-36
1491090224510,1,-19,-33,-26,-20,-32,59,-23,-34
1491090224556,2,17,-17,-18,-70,14,23,27,3
1491090224556,2,-11,-5,-11,33,-17,-96,-68,-25
1491090224557,3,-9,-23,-28,-7,-11,7,20,-7
1491090224557,3,-2,18,30,22,-10,39,-38,-11
1491090224557,1,-27,-9,2,-31,-22,-66,-17,28
1491090224557,1,56,14,-14,-55,15,-105,-104,16
1491090224558,2,-4,-26,-19,3,-7,24,127,40
1491090224558,2,-10,44,52,35,11,68,-10,50
1491090224605,3,30,11,22,74,9,77,-4,-11
1491090224605,3,-48,-26,-19,-38,-23,0,40,-12
1491090224606,0,15,10,11,-23,10,-46,-29,-11
1491090224606,0,-19,-34,-46,-22,-29,-53,-67,-23
1491090224606,2,40,12,24,65,-8,-29,-52,42
1491090224606,2,-9,-5,10,16,26,65,58,-27
1491090224607,3,-1,11,7,-26,30,49,34,11
1491090224607,3,3,-15,-11,-74,-93,53,-5,5
1491090224654,0,8,44,13,114,123,-59,1,3
1491090224654,0,-32,-30,-24,-47,-65,31,40,16
1491090224655,1,-7,-40,-28,-40,-14,-23,-27,-47
1491090224655,1,0,-9,-14,-11,6,27,-47,-29
1491090224655,3,-1,-5,-10,90,32,-97,52,-54
1491090224655,3,8,20,15,94,-2,-20,-55,50
1491090224656,0,-12,-10,-21,-105,-31,97,32,-33
1491090224656,0,-15,0,14,127,7,-60,-117,-29
1491090224702,1,9,13,22,-37,23,114,110,17
1491090224702,1,4,-6,-3,9,5,-80,15,-11
1491090224703,2,-7,-14,-10,59,75,-49,60,-13
1491090224703,2,30,1,7,-34,-3,-32,-20,34
1491090224704,0,4,-12,-27,-16,-34,40,48,1
1491090224704,0,-25,1,7,-28,-31,59,16,-51
1491090224705,1,1,-1,21,39,37,-11,-101,31
1491090224705,1,1,-5,14,35,33,-45,99,11
1491090224751,2,-20,-10,-4,15,-24,70,-68,-50
1491090224751,2,-6,-8,-8,-24,-37,-55,14,-28
1491090224752,3,4,16,-1,-33,-26,65,-27,-4
1491090224752,3,-34,-34,-11,-62,24,97,81,-23
1491090224753,0,0,32,2,-2,44,-98,-115,1
1491090224753,0,29,-17,11,59,-14,-41,-64,-46
1491090224754,1,-25,23,-11,-24,2,39,82,46
1491090224754,1,-5,-10,-21,-3,20,-100,-73,-84
1491090224800,2,23,-13,3,-10,21,116,65,29
1491090224800,2,-30,-37,-7,-20,15,9,-64,16
1491090224801,3,7,33,21,5,-56,-66,-21,-22
1491090224801,3,-7,19,19,12,-21,26,21,21
1491090224801,1,23,-10,0,10,-18,76,-42,22
1491090224801,1,32,46,57,43,-12,32,-5,58
1491090224802,2,-30,-20,-14,-12,12,-64,73,-43
1491090224802,2,-3,-5,-27,4,3,-19,57,36
1491090224850,3,22,-6,-22,-47,22,11,78,26
1491090224850,3,1,-14,53,91,54,-27,-80,-10
1491090224852,0,-9,11,-30,34,-37,-96,-73,-26
1491090224852,0,11,7,-11,26,-38,84,54,-22
