1490139484756,-23,12,-72,-60,-46,-18,-23,-13,26,-36,-3,36,8,-5,-4,15
1490139484805,4,-18,-67,-90,-18,-6,6,4,-42,1,22,4,-2,-4,-9,-24
1490139484806,-10,47,70,110,81,14,2,-20,24,23,58,77,60,22,3,-18
1490139484854,-47,-26,8,13,-76,-1,-5,-13,-30,30,35,36,-5,-3,6,6
1490139484903,41,-19,54,88,62,20,19,3,-27,25,92,70,84,26,1,15
1490139484951,-28,44,9,-34,42,21,9,18,-1,-34,14,42,2,4,-16,-19
1490139485000,-5,32,29,95,-4,-12,-10,8,38,62,119,112,33,12,0,-2
1490139485048,29,56,111,21,27,17,-13,24,-25,22,-16,74,42,5,5,7
1490139485050,-32,5,-19,-54,-1,-68,-28,-49,43,-9,-43,18,71,9,12,14
1490139485098,-4,5,63,70,-53,16,-8,-6,45,35,37,26,115,-5,-7,3
1490139485147,-2,-29,-87,79,127,47,7,-5,-25,15,86,80,67,42,10,-9
1490139485195,-29,-36,-61,41,85,-10,-11,-10,17,4,80,97,127,63,18,11
1490139485244,-8,-1,-91,-71,3,3,1,6,1,-3,-52,-91,-82,-36,-11,22
1490139485245,-33,-32,-78,-78,-71,-81,-47,-60,2,-24,-1,-5,-7,-54,-16,-2
1490139485293,28,33,8,-74,-19,35,24,21,-10,-22,-54,-48,-103,-63,-37,-24
1490139485341,12,8,-41,-87,-88,-7,10,18,2,-9,39,127,21,39,13,11
1490139485390,23,38,42,-128,-128,-45,-12,-14,-13,-9,-128,-57,18,9,-4,5
1490139485439,5,-5,-11,-80,10,80,-23,-4,-6,-21,-45,-61,-63,-4,-5,-3
1490139485487,17,51,-18,-17,-10,-11,-12,6,-16,-81,-21,-1,4,47,0,3
1490139485488,10,-4,21,-53,-21,-35,1,2,3,6,-21,-6,35,18,6,2
1490139485538,-14,-21,-85,-95,-65,-25,-34,-23,11,30,21,-10,-1,-28,35,30
1490139485585,-4,16,41,89,84,-13,18,13,8,0,-26,-71,-63,-7,10,1
1490139485634,-4,30,37,70,95,-1,10,9,-1,-20,-26,-77,-58,3,-23,-28
1490139485682,-13,0,-21,-13,-38,-39,-14,3,-1,-24,7,41,51,77,-7,-9
1490139485683,-13,-41,-49,-104,-55,-59,-4,-29,14,13,27,19,-6,-34,3,-6
1490139485731,12,24,7,22,39,23,10,27,-3,-11,-15,-1,-32,-9,-13,-22
1490139485780,13,6,17,-25,1,32,-23,25,-19,-29,-10,11,-4,40,20,-27
1490139485829,-7,-9,-26,-66,-20,33,-10,0,6,4,8,-5,-16,20,-3,3
1490139485878,-23,-65,10,12,23,33,0,-17,10,2,-10,-46,-37,-21,10,14
1490139485926,-9,40,27,-66,-62,-23,4,27,4,32,-7,-17,14,-50,-5,-10
1490139485927,4,22,43,102,28,-12,1,-4,1,18,19,14,-30,-2,8,-3
1490139485975,8,0,15,58,12,68,13,2,-18,-41,11,11,-13,-82,-34,-23
1490139486024,-11,-28,-59,-128,-125,-40,-8,-19,1,-5,2,61,-76,-18,2,-7
1490139486073,35,45,107,74,127,80,20,26,7,5,-30,-128,-107,-4,-4,-2
1490139486121,-3,-36,99,98,120,18,-9,-12,-11,-24,-82,-53,-49,-18,1,4
1490139486169,5,56,29,86,77,56,13,13,-19,-18,-75,-128,-44,-59,-36,-20
1490139486171,1,-37,-76,50,94,-5,-2,-14,-46,9,26,91,0,-11,-11,0
1490139486219,13,9,126,121,114,61,-8,44,-1,-43,-128,-128,-128,-34,13,-11
1490139486268,-60,-11,-48,-107,-97,-59,6,-27,10,-10,21,-31,16,6,-8,11
1490139486316,44,61,-70,127,127,54,16,21,7,7,91,-8,-30,17,1,-1
1490139486364,-22,17,-83,-23,9,-20,-10,-8,-5,-10,9,62,24,3,3,2
1490139486366,11,36,113,69,64,9,-4,-5,-1,-64,-90,-127,-69,-9,7,9
1490139486414,-49,-10,-18,-54,-37,-3,7,-35,59,5,42,-44,-35,-15,-9,30
1490139486463,-7,39,127,86,-23,2,-4,-17,-8,10,4,-11,36,-8,-11,-5
1490139486511,8,24,39,78,30,13,-11,10,-26,-60,-105,-93,3,-20,-7,-31
1490139486561,-11,9,109,127,83,26,24,35,51,30,-29,93,67,18,5,-9
1490139486608,8,-22,86,-59,-7,0,8,3,-22,25,68,-16,-27,-14,-13,-8
1490139486609,2,28,6,16,13,-2,-1,10,-1,32,127,113,74,35,37,17
1490139486658,5,-1,4,59,-11,-11,-21,-26,-8,78,38,-62,4,5,27,12
1490139486706,18,-1,-40,14,-27,5,7,18,-31,-65,-60,-60,-33,-18,-17,-20
1490139486755,24,-12,-72,-24,-3,-4,13,9,-7,32,34,-41,-16,1,-4,16
1490139486804,16,-36,-27,-40,-59,-26,2,-10,11,37,51,124,45,10,2,24
1490139486901,-39,92,-70,-9,30,8,-14,-15,-15,-7,-1,63,28,8,-16,-8
1490139486902,61,9,95,66,0,10,9,31,-10,31,-39,27,58,20,3,10
1490139486902,-25,0,2,-55,57,17,22,23,3,-31,-8,-8,-25,-15,-11,-12
1490139486951,19,-1,53,-5,-54,-39,-19,-25,-13,27,61,76,52,26,12,12
1490139486999,5,-16,-50,-80,-4,13,21,11,10,22,58,91,56,13,4,-5
1490139487047,23,45,91,-45,11,23,14,10,-36,-62,-86,-106,-105,-47,-22,-10
1490139487048,-46,-43,-109,5,75,3,-3,-15,28,75,85,28,-84,31,26,31
1490139487096,15,12,83,111,-6,6,21,-10,-8,-5,-100,-68,-11,28,6,-9
1490139487145,-22,19,35,-36,-84,-97,-46,-32,12,-3,6,127,127,18,15,12
1490139487194,-10,-23,-13,-128,-128,-88,-8,-2,13,20,121,127,127,26,3,7
1490139487243,-46,-13,-48,-90,-120,-16,-13,-61,-18,-55,-46,-65,10,-25,-14,-25
1490139487291,-44,-91,-98,-70,-64,-111,-45,-36,7,66,63,119,85,-5,4,-7
1490139487292,29,4,23,110,70,92,8,53,-11,3,-54,-51,-53,-42,12,-14
1490139487341,-10,11,-34,9,-1,-3,-2,-18,20,4,1,-48,44,27,24,46
1490139487389,2,20,16,-17,-41,-28,-16,-2,-29,-46,-87,4,12,-30,-12,-6
1490139487438,2,-28,-12,57,-1,82,5,-8,6,25,89,47,66,-41,-18,12
1490139487486,-8,-11,-23,27,0,22,10,-8,-4,-3,-44,-62,-60,-18,-2,-15
1490139487534,4,-13,-31,-40,2,16,41,34,7,-3,79,90,79,64,0,6
1490139487536,1,24,-15,-45,19,41,4,11,-14,-23,4,15,-29,-4,25,-13
1490139487584,-5,24,-3,-13,-18,-79,-25,-25,-3,3,5,-20,-51,-35,8,-1
1490139487633,-16,12,-20,2,-10,-65,-10,-20,37,-14,12,27,41,51,40,37
1490139487681,0,13,3,17,-4,17,10,-2,-3,-18,-29,-35,6,24,11,2
1490139487730,-5,-30,-54,-95,-34,-19,-3,-14,-10,4,29,29,52,71,-27,-5
1490139487733,3,-21,-6,13,-4,-46,7,14,7,28,11,0,33,42,8,4
1490139487779,0,8,-6,11,-12,-54,-6,-6,2,1,28,97,45,18,32,2
1490139487828,-6,20,5,11,-35,20,-13,0,6,-7,13,49,34,-28,3,9
1490139487877,-10,-67,-65,-123,-112,-44,1,-2,-5,-1,65,65,90,16,7,11
1490139487925,-12,11,50,39,-34,-46,-1,4,6,-6,14,91,78,9,-3,-16
1490139487973,-6,8,-96,-128,16,14,8,-24,4,-9,35,72,30,19,0,-5
1490139487974,16,16,56,39,122,105,14,15,-8,-3,-24,-111,-110,-51,-17,-25
1490139488023,-9,-9,39,47,-86,-17,-8,3,12,24,20,49,65,17,3,27
1490139488071,22,16,33,-97,-75,-50,-24,-15,-12,10,13,-80,5,-38,-11,-16
1490139488120,-26,2,49,-48,2,-6,5,-7,-6,-33,4,62,112,4,-5,-3
1490139488170,9,-19,-72,3,-15,-47,-7,0,-13,29,33,45,51,29,7,3
1490139488218,1,-28,-21,61,43,13,3,-12,-1,-10,74,40,28,15,5,14
1490139488220,7,23,31,93,108,11,-9,10,-3,-26,23,-16,-64,-27,-11,-14
1490139488267,5,8,54,9,-73,14,7,-11,-17,-20,-14,15,21,12,-3,-11
1490139488363,21,5,-101,-128,-123,-62,-40,-9,-28,-7,75,55,-17,1,19,-12
1490139488364,-21,-28,-94,-72,64,25,8,14,-20,-26,30,-35,-55,-44,-26,-28
1490139488412,13,40,1,39,-8,2,0,-2,-14,-26,-8,54,79,32,-11,10
1490139488413,-9,5,51,-57,-55,-21,-14,-3,-10,-14,-128,-79,-40,-26,0,3
1490139488461,10,3,2,-7,-38,-3,1,24,23,3,-13,20,25,11,4,7
1490139488510,-30,-19,14,-74,-73,-20,-13,-32,5,-4,-3,-15,-4,-7,-4,9
1490139488559,-4,-85,-81,-24,-31,-7,-13,-1,-7,7,42,9,19,-3,-19,-11
1490139488608,-32,28,98,50,-1,-6,-17,-12,9,-35,-55,-83,-15,2,22,-7
1490139488656,21,5,-48,106,62,41,36,30,20,23,43,-9,85,9,8,7
1490139488658,-15,-8,-94,-26,-27,-14,-36,-22,41,22,21,107,32,20,20,39
1490139488706,17,0,11,-66,-46,-23,-13,-2,-21,-6,90,-21,-51,-27,-32,-25
1490139488754,12,52,91,19,4,10,16,-3,-10,-14,-80,-97,-12,4,17,25
1490139488803,-17,-54,45,-54,-21,-11,-6,-24,8,102,-44,-90,-42,-19,-11,-32
1490139488851,10,-18,-128,34,28,10,-3,15,3,-1,127,39,22,10,15,3
1490139488852,-24,10,-24,41,-34,-5,8,-15,28,18,-125,-36,29,-2,-30,16
1490139488900,26,60,105,75,26,0,-20,-22,-10,-56,-68,-55,37,17,35,26
1490139488949,-15,36,51,77,76,22,16,9,33,-56,-47,47,2,5,4,38
1490139488998,24,-8,-11,-22,93,9,-2,4,33,60,-16,-127,-113,-8,7,28
1490139489047,-6,39,100,87,66,49,18,-3,15,30,-51,-37,86,32,10,17
1490139489096,25,-20,10,-128,-53,-2,30,36,-40,-30,-24,93,70,-11,-3,-36
1490139489099,6,-45,-30,-52,-10,-9,-6,4,4,9,76,127,-26,33,7,20
1490139489145,-2,-52,-49,-38,54,-9,-15,-7,-28,-11,0,-57,0,-29,-11,-34
1490139489192,-3,8,107,107,59,-47,-19,-1,4,-13,-20,127,127,35,1,22
1490139489241,-28,-39,12,77,-87,-94,-31,-27,-16,9,-45,52,83,-23,-6,-13
1490139489290,27,64,91,14,-30,53,16,7,-19,-63,25,-85,-78,-35,-11,-24
1490139489338,24,62,121,127,127,53,43,43,5,30,118,-86,59,21,20,6
1490139489339,23,33,-46,-12,3,-40,-3,18,0,9,-3,16,16,19,-7,-3
1490139489387,-6,15,-9,-98,-82,-58,6,7,-5,-10,-14,13,3,38,7,-23
1490139489436,18,-21,37,71,25,39,11,27,2,56,127,67,-42,-39,-10,8
1490139489485,-5,-7,-35,26,-37,24,13,-6,-3,-15,-33,-118,-30,25,-26,13
1490139489534,-6,20,29,12,-24,-27,9,-29,6,10,37,124,127,45,8,21
1490139489536,-30,-5,-36,-128,-58,-42,8,-30,5,-35,-26,-40,-72,0,-8,18
1490139489582,5,30,47,61,102,108,-11,4,-6,-21,12,29,-22,-71,-22,-14
1490139489631,-3,-24,-3,37,9,18,-6,8,17,21,5,34,81,111,18,13
1490139489680,15,2,-8,23,22,51,38,21,4,11,-17,10,-8,-48,11,-12
1490139489729,-8,-2,-4,-10,-23,30,4,-5,6,2,-1,9,17,22,8,14
1490139489777,15,16,-12,-18,-6,-66,-23,-21,-14,-37,-45,-59,-25,-14,10,-6
1490139489778,3,19,-3,9,1,-58,1,14,4,-44,0,-27,-35,-3,-41,6
1490139489827,-3,29,12,21,-13,8,3,-7,4,-24,-43,-39,-30,-39,13,8
1490139489876,-1,4,26,34,38,13,-14,8,-2,-3,13,1,-38,-28,-1,5
1490139489924,18,14,5,43,21,-4,11,12,-19,-28,-4,-41,19,30,-9,-29
1490139489974,-19,-38,-83,-70,-26,-39,-26,-24,10,69,57,114,73,43,12,-19
1490139490021,10,45,82,-19,-31,21,21,11,-5,-56,-67,-55,-111,-20,-18,3
1490139490022,10,17,81,90,-81,-22,-13,0,8,30,35,48,102,45,11,10
1490139490070,-9,-19,-71,-66,-57,-2,-1,-8,-8,-11,16,-13,-102,-52,-18,-9
1490139490119,31,25,63,66,77,27,6,-6,0,-19,-79,49,65,49,23,32
1490139490167,-7,20,-30,-9,-42,1,-7,-1,17,5,42,-44,48,17,14,23
1490139490216,13,-5,4,16,100,31,8,24,-29,0,-23,-33,31,8,-1,-11
1490139490217,12,29,-33,-6,-76,7,6,12,-5,-26,58,126,116,24,-2,-2
1490139490265,-12,-57,-67,-125,-91,-15,8,23,-21,-16,-119,-94,21,-2,-7,-15
1490139490314,-29,-27,-74,-70,-104,-53,-14,-25,11,10,2,14,24,13,11,8
1490139490363,-16,-5,-15,-28,-66,-10,-9,-11,30,10,111,5,-27,-10,-6,17
1490139490412,-15,-21,-20,-46,-42,-21,-14,-12,1,16,21,31,32,22,1,5
1490139490460,11,45,-35,17,21,7,28,8,-2,-53,-72,-106,-75,-12,-4,3
1490139490462,8,19,11,127,62,3,-5,-12,4,-3,11,45,6,-1,3,9
1490139490511,15,-14,-101,67,94,20,18,33,11,-35,37,10,-62,-2,-8,19
1490139490560,-13,-22,-57,-62,-90,-16,-1,-13,0,15,18,28,19,1,10,11
1490139490607,-3,-52,-95,-70,-18,-7,2,-19,-4,18,23,34,-21,-10,-29,-19
1490139490655,-12,-53,-79,57,-15,-6,-12,7,-4,-4,33,61,36,4,-27,-10
1490139490704,5,33,6,-92,-68,-15,-14,-20,-4,3,-49,9,-8,1,16,22
1490139490706,-10,16,55,2,-17,-6,-6,-27,-1,-31,-3,28,36,12,-11,-8
1490139490753,-6,14,52,36,34,9,9,1,-30,-23,48,6,-17,6,6,-18
1490139490802,9,-3,73,98,45,-4,4,-3,26,73,62,44,11,7,9,34
1490139490850,7,9,-14,11,-11,-1,0,9,-9,-8,29,-13,-3,0,-5,30
1490139490898,-6,-11,-48,17,-42,-9,-12,-15,9,-10,-5,-43,23,-8,-3,-4
1490139490900,14,96,85,32,0,-25,-30,10,-6,-45,-128,-26,-19,4,5,-11
1490139490948,-22,-50,46,60,-11,5,7,-20,-11,-30,-44,-64,25,-16,-23,-8
1490139490996,2,5,21,102,9,15,9,19,14,-77,-115,-43,20,8,-1,28
1490139491045,-4,-49,-28,-4,1,-23,-44,-55,18,4,73,91,54,-1,14,25
1490139491094,1,-30,-52,-16,-28,-5,-3,-5,23,39,81,125,61,57,16,-6
1490139491142,-34,-58,8,-7,-24,-16,-35,-11,1,21,-68,-125,-114,-44,4,5
1490139491146,1,29,-13,-128,-20,-48,-13,-1,-5,12,-39,55,45,-26,-9,-10
1490139491192,-12,-16,-65,-85,-54,0,14,-5,12,-12,-34,5,8,-24,0,31
1490139491242,-1,16,-29,60,78,4,-12,3,6,55,63,3,-64,40,17,6
1490139491289,13,-28,-47,-128,8,-16,-12,19,-23,30,127,127,106,14,2,-18
1490139491337,-6,-52,-83,-51,-7,10,-7,6,-20,0,-30,42,-46,-66,0,-21
1490139491338,0,9,76,71,62,-29,-1,-27,-1,-8,-19,-117,-39,26,-9,11
1490139491386,13,40,51,127,87,53,28,4,20,60,127,2,103,66,11,16
1490139491435,-4,-42,-112,-51,-60,-14,-16,37,-21,-12,14,-26,-19,-18,-2,-26
1490139491484,-4,-11,-35,27,-67,-41,6,-14,-5,-10,27,42,-5,-57,-11,-14
1490139491534,-2,6,-1,-48,15,45,-10,19,-5,7,27,52,15,6,22,-25
1490139491581,4,34,35,-31,-26,-5,11,12,-8,-35,-82,-44,-13,3,-22,-4
1490139491582,-12,-18,28,12,5,-7,3,-25,10,11,1,6,14,5,-10,6
1490139491630,1,13,12,34,86,-41,3,1,-2,-10,-28,-50,-61,-10,-6,-31
1490139491679,15,27,-9,-60,-67,-35,22,33,-10,-23,9,59,62,-28,-16,17
1490139491727,-8,-37,-38,-15,-35,7,-3,14,0,-7,21,-11,-8,-37,-8,-25
1490139491776,-1,42,32,22,58,23,-33,-13,6,-13,-9,3,-9,-24,19,13
1490139491824,-1,14,1,-4,-36,-42,-10,-9,8,14,-16,-6,10,29,3,16
1490139491827,4,27,-6,-2,-13,-9,-2,11,5,5,16,28,87,47,-3,-8
1490139491874,8,-31,16,29,45,62,6,-4,-13,4,-13,-11,-11,2,-5,7
1490139491923,-2,-1,-14,-5,1,-1,7,4,-3,-17,-17,4,9,-2,-7,1
1490139491973,3,12,5,11,-5,19,-5,2,4,18,2,-6,-3,13,17,4
1490139492020,-4,-19,-29,-32,-45,-26,-19,-8,2,2,20,-10,-13,-42,-4,-18
1490139492022,2,-2,-7,-87,50,15,33,7,-15,-22,-56,-88,-84,-54,-17,-17
1490139492070,-11,5,15,-115,-108,-50,-25,-25,-2,3,5,106,112,20,34,4
1490139492120,-2,-12,3,-63,-105,-24,-16,-8,-11,-10,-49,-71,-31,-25,-21,-29
1490139492167,7,13,33,118,72,4,-9,-5,-1,19,-22,47,-37,-15,4,-5
1490139492216,11,32,44,-18,62,-2,-5,-14,-13,14,49,89,127,59,14,1
1490139492263,-8,-18,-26,-80,-128,-59,-9,-26,-4,21,-15,-95,-91,-35,-18,-11
1490139492264,4,21,19,12,-9,19,19,2,-14,-36,32,127,127,37,-5,-41
1490139492313,-8,-29,-4,-50,-11,18,-1,-3,14,26,-7,-84,-112,-43,2,5
1490139492361,12,-16,40,63,80,5,-7,-13,30,19,46,27,-56,-3,-1,29
1490139492410,8,15,7,-30,-18,-3,-18,-2,-14,-30,-11,51,-44,-4,7,2
1490139492459,-7,21,17,-37,-26,1,2,-6,13,-6,-1,20,74,38,12,25
1490139492507,-21,-17,-73,-99,-106,-48,-10,-5,-10,-50,-37,-10,0,7,-8,-35
1490139492508,17,33,62,77,35,15,5,14,6,8,-9,-10,39,16,-3,-1
1490139492557,-16,-56,-124,-82,12,-45,-37,4,-8,-11,-13,66,9,-15,9,17
1490139492605,20,21,37,7,14,22,17,21,-6,0,-88,-125,-84,-19,-22,-25
1490139492654,28,17,34,107,44,26,17,5,10,13,15,57,56,26,12,-16
1490139492702,-11,-39,23,-82,-99,-39,-18,-17,-12,-22,-3,-25,-52,-26,-10,-21
1490139492704,-4,-77,-50,-4,-29,-25,-29,-1,1,14,52,19,15,-3,-2,-4
1490139492752,10,27,-54,-21,-21,3,-12,-8,25,-2,-47,-60,-2,5,23,36
1490139492800,-2,46,62,-8,6,-2,-42,-9,-4,-77,-92,-41,-30,-14,25,-12
1490139492849,1,19,-86,-72,-25,-17,16,-9,-9,-7,-12,-25,-34,-14,-7,-9
1490139492898,12,29,-62,13,11,-3,-16,4,38,29,-19,-75,-12,2,8,18
1490139492946,2,16,115,112,9,-14,-25,-32,9,69,-26,15,16,16,7,-10
1490139492947,-27,-34,78,-34,-58,-17,-16,-28,-9,-26,-21,-17,36,-19,-41,-28
1490139492996,-18,-25,110,74,86,23,17,-15,-9,45,-66,-57,-73,-7,5,-20
1490139493044,11,-35,-44,-22,48,19,7,33,-2,40,38,41,127,28,5,0
1490139493093,7,11,45,-45,-60,-19,-11,36,10,-43,-11,47,32,17,3,4
1490139493144,14,-34,-33,-83,2,24,4,5,-6,2,69,66,-27,-4,0,38
1490139493191,-13,-60,-104,-61,-122,-31,-6,4,-20,-36,-86,-52,25,-15,-21,-16
1490139493193,-15,3,-33,-50,-13,25,8,-33,-7,35,-19,86,-44,-15,-5,34
1490139493240,-10,3,-83,-128,-88,-45,-23,-12,-14,-33,-12,44,-3,14,3,-15
1490139493288,14,31,116,69,43,18,6,21,27,10,62,127,127,81,16,13
1490139493337,6,-21,76,39,58,32,18,29,7,-8,-118,-13,-10,-4,13,4
1490139493385,-21,-13,-68,-108,-96,-29,-19,-25,4,4,-37,56,-34,-10,9,15
1490139493387,2,-3,1,-28,-29,-30,-7,9,6,21,71,92,113,62,20,20
1490139493434,-18,-8,-8,-23,-34,-58,-18,-26,8,12,116,95,110,53,6,-15
1490139493483,0,-15,-64,23,-8,-23,5,20,-2,-28,-61,-71,-90,-22,-2,-1
1490139493532,11,19,18,99,18,42,-6,18,-5,-31,-17,-94,-35,-35,13,1
1490139493581,-3,-20,-99,-113,-69,-36,-15,10,-9,17,37,89,86,50,12,-22
1490139493628,-13,2,6,8,27,20,10,19,-2,-23,-39,-32,-57,-18,-12,-8
1490139493629,-6,30,-9,-19,0,86,-2,-40,8,-36,11,17,15,-16,-7,1
1490139493677,-7,37,45,22,68,49,8,16,-3,2,5,4,-56,-67,-23,-20
1490139493726,8,12,-16,-32,-59,-72,-3,-12,-9,-7,-13,-11,16,-20,3,0
1490139493775,2,9,-1,8,-19,38,20,1,-11,11,20,38,67,65,-23,-21
1490139493824,-16,-7,-21,-21,-35,-24,3,-52,19,-7,3,-1,-20,-24,30,14
1490139493872,5,3,0,-12,13,-10,-23,12,-3,7,16,19,22,-36,-10,11
1490139493873,4,35,2,-6,-63,-35,-2,-6,-4,0,0,5,-5,-6,-9,4
1490139493922,-2,-15,-13,11,-2,26,-2,0,-7,13,7,24,36,50,-8,-31
1490139493972,-4,23,23,84,21,24,7,10,-4,-7,-13,-10,10,5,-12,-13
1490139494025,-2,-5,-5,-10,-27,18,-15,-32,4,4,18,3,-2,-70,12,11
1490139494071,4,44,22,45,29,27,-3,-17,2,-50,-11,-51,-77,-49,-16,-20
1490139494073,4,-9,13,119,123,34,-2,9,6,14,29,48,13,28,28,12
1490139494117,8,15,-4,21,46,-6,17,6,9,17,6,-33,-14,-15,-14,3
1490139494165,9,0,-15,7,-46,-2,5,11,-5,1,-67,-111,-87,-42,-24,-8
1490139494214,-7,12,23,-18,13,-18,-7,-27,-16,-19,-8,-38,-46,-19,4,-7
1490139494263,5,22,78,30,66,49,12,-22,-3,25,55,83,84,38,-4,2
1490139494311,-19,-21,-28,-48,-53,-74,-41,-35,-14,0,-70,-35,-27,-22,-18,-16
1490139494313,11,13,40,96,38,0,-4,-16,3,5,-23,-64,-62,-38,-22,-19
1490139494360,0,5,-2,-44,-24,23,-9,7,26,8,30,121,127,48,34,31
1490139494409,31,-30,-76,7,111,27,7,29,-11,16,-23,-128,-106,-30,-6,-40
1490139494457,-3,16,-5,19,1,-2,-2,-26,44,6,40,68,31,30,13,60
1490139494505,15,25,54,-55,-96,-23,-1,5,-24,5,-36,-38,-51,-58,-25,-15
1490139494507,5,-4,-3,-66,-72,-17,0,5,-16,15,60,-55,-42,-22,-31,-20
1490139494555,-23,-49,-32,-36,-70,-19,-7,-25,-3,26,72,93,11,-10,-7,-7
1490139494604,20,-9,-69,-72,-16,-6,7,9,-19,-29,32,-29,-25,-3,6,-50
1490139494702,-4,-1,57,76,58,-1,11,37,3,27,-63,-54,15,13,16,6
1490139494707,-25,-14,16,33,10,-11,-10,-36,-11,46,127,113,54,20,27,3
1490139494798,-4,-30,-92,31,16,-2,2,-9,-10,14,-8,-89,-43,-7,-3,0
1490139494802,5,9,-12,-77,-91,-21,8,-8,-25,-27,-63,-58,-45,-40,-20,-31
1490139494803,-3,24,-94,-53,-25,-10,-10,-14,7,-20,27,10,-30,4,-4,13
1490139494848,-19,1,11,-26,24,2,5,19,-8,-28,-23,80,4,0,-5,16
1490139494896,39,-1,-103,-16,50,8,-5,4,15,24,5,-98,-58,-15,3,29
1490139494945,-15,-41,27,17,20,15,-5,-11,24,22,24,98,68,25,23,37
1490139495042,3,6,-43,35,4,13,5,-10,0,-50,65,29,68,19,19,23
1490139495042,16,86,-40,-115,-65,-6,-2,2,-39,-26,-13,-76,-8,-16,-9,-21
1490139495044,-45,-4,77,38,-25,-10,-7,-28,-16,30,-112,20,11,12,6,-16
1490139495095,37,26,-2,-128,-95,-41,-27,2,-50,-103,-124,-18,31,-8,-24,-53
1490139495140,0,27,-45,60,-72,-17,-9,-6,21,25,4,-31,-7,11,9,14
1490139495188,-26,11,22,-25,-49,-65,-9,-18,6,-10,50,97,91,-20,-21,-16
1490139495189,-45,87,73,-25,-78,-35,-20,-41,47,11,123,26,97,21,8,42
1490139495238,-8,-17,110,20,-14,-1,-3,-10,28,-15,-112,23,57,15,8,22
1490139495286,23,-1,1,127,96,68,39,20,14,21,42,4,10,48,20,17
1490139495335,-15,-54,-94,57,55,-33,-22,-8,-10,1,-2,17,4,-32,-5,-2
1490139495384,22,7,19,-106,14,5,3,6,-26,-14,-94,-33,-58,-76,-30,-31
1490139495432,-8,-2,26,111,127,55,12,0,-3,20,-31,-67,-21,24,-11,-14
1490139495435,-8,6,-71,-80,-101,-37,-3,-18,-8,31,111,127,103,25,0,1
1490139495482,-14,-5,-17,-4,-17,-14,-11,-5,9,14,92,62,81,47,23,9
1490139495534,10,-25,-85,-86,21,0,-1,9,-13,-16,-4,-12,101,92,-11,-17
1490139495579,5,13,-21,11,-33,-11,-10,4,-10,-21,-17,-77,5,4,4,-22
1490139495675,-6,0,-25,1,30,30,-1,1,10,9,2,19,-27,-28,-7,5
1490139495676,-10,0,24,20,23,39,-39,-20,-1,-9,-17,-21,-31,-61,18,-16
1490139495677,-15,18,5,0,-24,-24,-7,-9,5,-20,-10,18,27,94,-25,16
1490139495725,-6,-25,-8,-8,-22,4,16,7,5,-12,-28,-6,-24,-65,-1,5
1490139495774,0,20,-3,6,-13,16,4,-15,1,-14,-26,0,25,16,-6,14
1490139495823,3,-21,14,2,-21,26,2,16,1,4,21,21,34,16,35,-1
1490139495919,2,-3,3,-9,-24,-27,-7,19,-7,24,17,26,35,27,20,2
1490139495929,-9,3,-16,-39,-43,1,22,-2,4,-14,5,-4,2,12,-39,-10
1490139495929,-1,0,-11,28,44,11,10,26,-10,-36,-18,-46,-68,-63,-5,1
1490139495969,-5,-8,-3,1,-47,-45,5,-42,-8,23,54,35,46,21,2,-9
1490139496017,11,19,80,91,127,73,-8,16,-9,-33,-61,-79,-100,-27,-12,-30
1490139496066,7,43,-22,-23,51,-12,3,10,2,-19,21,119,66,32,2,-4
1490139496114,6,5,45,80,124,51,21,15,14,60,1,-117,-70,-21,-3,5
1490139496115,10,16,64,-38,-17,26,2,-2,6,-16,38,-26,23,17,8,11
1490139496164,18,16,35,19,-86,-7,0,0,-21,-39,-105,-128,-75,-49,-9,-12
1490139496215,3,42,117,32,98,84,-3,-12,1,-23,-62,-112,-55,-47,5,11
1490139496262,3,-12,-18,-19,-50,-13,6,22,-1,11,-35,55,107,20,-7,0
1490139496311,0,-14,4,27,44,-16,-9,-5,12,35,66,24,32,6,5,11
1490139496358,0,3,80,79,-5,-19,-15,4,-7,-35,-47,-79,65,7,20,6
1490139496359,15,24,43,115,-6,-4,12,28,3,-8,-80,-88,-37,-7,-3,2
1490139496407,-22,23,15,-35,55,18,4,-12,26,-62,-80,-117,-120,-16,-13,25
1490139496456,5,12,48,36,20,19,-1,4,-24,-13,2,-45,-27,-34,-14,-15
1490139496505,-11,-12,18,35,29,27,9,-21,1,18,72,127,83,25,23,5
1490139496553,-18,2,-76,-6,28,9,-4,-4,4,4,63,-58,-50,-24,0,4
1490139496555,-2,-12,63,5,-12,-8,9,40,12,-13,-63,-31,-11,-4,-1,24
1490139496603,-8,3,10,27,16,-14,-16,3,-19,6,76,22,-4,20,11,-14
1490139496651,-23,-18,-36,-48,-12,0,10,-24,-1,28,-44,94,35,18,3,-17
1490139496700,3,6,40,35,-3,7,11,18,-4,-32,4,-26,11,-2,3,9
1490139496749,4,61,55,-6,-3,-7,2,-4,8,-13,-67,-54,-31,3,9,14
1490139496797,-13,-2,-27,-14,-27,-6,-12,-12,-8,8,8,95,42,4,10,-17
1490139496798,-4,35,-128,-3,20,2,10,5,5,-26,56,13,-3,-7,-6,32
1490139496847,-24,-83,62,33,-10,4,1,-10,23,80,-105,-94,-14,-3,-3,27
1490139496895,-7,-11,-90,-35,11,1,1,-34,0,-93,-46,-18,-10,3,-7,8
1490139496945,14,68,40,-82,-23,-10,-1,3,-18,4,69,30,13,9,2,-2
1490139496996,13,29,-42,73,33,0,11,10,-7,-37,79,115,11,21,16,21
1490139496997,-45,-22,68,42,-6,2,23,-37,20,-51,15,16,-13,3,-16,-5
1490139497089,46,48,-86,-31,24,14,18,44,-29,-30,-33,-92,0,5,3,-23
1490139497091,-1,-15,64,89,52,43,16,3,-7,48,50,46,90,27,-2,23
1490139497139,7,-21,-23,-17,3,-6,-10,-2,-22,73,61,124,74,5,-1,-15
1490139497188,14,46,-18,-6,74,70,23,-15,-15,27,-15,41,-16,-13,-5,-3
1490139497236,-34,-40,30,-11,23,-63,-31,-47,2,-45,-1,31,39,6,7,6
1490139497238,2,-21,-60,-80,-58,-33,-9,-51,12,31,127,-37,-95,-9,2,3
1490139497285,26,8,-2,95,111,70,38,15,17,0,-10,11,45,27,1,2
1490139497334,9,62,122,127,127,72,24,49,-7,-2,-64,-40,-106,2,7,-23
1490139497383,-16,-29,-18,34,35,38,2,-31,15,29,122,112,93,34,19,41
1490139497431,7,-46,-12,14,2,18,5,11,-12,-23,-65,-57,29,-38,0,-7
1490139497483,-10,-9,-4,-29,1,50,2,-1,4,-1,90,34,-19,-77,-5,-8
1490139497487,5,5,-70,-46,-60,-3,-1,30,11,22,-14,34,38,34,-5,8
1490139497530,7,10,-21,3,31,-22,-3,-4,-4,-12,0,-24,12,53,-2,-2
1490139497578,-1,-19,8,-25,-33,-5,-12,-16,-8,27,5,-54,-19,45,-1,6
1490139497626,-9,-21,-11,-31,-13,49,-6,-31,-13,5,23,10,-1,44,7,19
1490139497674,-10,-7,32,13,11,44,-16,-22,4,3,64,37,-17,-23,10,-15
1490139497676,-25,-17,3,-17,-24,-24,16,-16,-1,-32,-63,-34,-26,-43,-6,-18
1490139497724,10,56,14,20,3,-80,-5,10,-17,-27,-28,-29,-1,53,-2,-4
1490139497773,-16,-8,-15,-3,2,32,5,0,15,2,9,-21,-34,-36,-7,22
1490139497869,-7,-1,59,35,73,39,-14,-7,14,-53,4,-21,-50,-86,22,0
1490139497871,-11,29,2,-6,-3,-31,-8,22,4,19,7,19,41,47,-20,36
1490139497918,2,29,0,4,27,63,7,-19,-1,-56,-4,2,-38,-69,12,-24
1490139497925,2,-20,-26,-2,-2,7,-3,-14,1,-15,-31,-29,-8,-13,-10,2
1490139497967,1,-1,-17,-13,0,40,6,61,-10,49,41,46,27,-27,-11,63
1490139498016,-11,-18,-25,-14,-39,-24,5,6,1,2,2,-23,3,13,2,-17
1490139498065,-9,-28,8,5,3,6,-9,-31,1,-16,1,-32,-32,18,11,-70
1490139498114,0,5,10,10,-22,19,-2,-13,0,-8,-8,-29,-12,-41,2,19
1490139498163,3,1,-81,12,-7,18,11,17,-5,10,54,-52,22,5,2,23
1490139498167,11,-23,-20,-26,50,-8,-18,9,-6,-24,-28,-20,-20,-16,-8,24
1490139498212,-2,13,106,71,25,14,13,-14,12,36,12,69,20,25,12,19
1490139498261,41,43,73,127,68,51,3,62,-5,-16,-70,-89,-35,-13,25,-12
1490139498357,-13,0,43,28,36,-8,-6,-17,27,45,92,78,127,62,21,31
1490139498359,14,65,-3,27,32,22,13,22,13,10,44,95,-4,15,2,10
1490139498362,4,27,-117,-3,45,-2,-8,-5,-11,9,-23,-79,-112,-43,6,0
1490139498406,-6,57,95,81,-4,9,26,-5,23,63,27,103,51,13,-24,23
1490139498457,-9,-22,-71,-111,-76,-27,-6,1,5,11,72,33,4,-1,-7,7
1490139498504,-10,-60,-27,16,-4,-3,-25,-8,-8,-18,-68,-91,-25,-13,-10,-3
1490139498553,11,-2,44,56,28,17,19,17,19,5,45,38,38,6,21,32
1490139498600,-6,-7,68,-67,-36,-13,-9,2,-25,8,-95,43,-6,-7,-28,-31
1490139498602,-22,-12,30,2,-9,6,25,-8,34,-12,-76,-80,-19,-2,8,8
1490139498650,-3,14,-8,40,13,-4,-22,-7,17,48,81,101,50,22,9,22
1490139498699,15,15,-54,-32,-1,7,23,12,-6,6,16,24,6,-9,-10,-9
1490139498797,-12,26,112,64,13,3,-18,-53,-1,-2,-127,-78,-13,1,11,15
1490139498801,-2,30,35,-18,3,-26,-36,8,13,48,117,-20,-15,15,38,21
1490139498845,28,20,-97,-12,48,29,45,68,-26,36,-125,-89,-70,-18,-25,-32
1490139498846,7,21,-85,6,1,-3,-2,-15,22,-74,15,67,38,0,-24,-2
1490139498894,-1,-2,79,12,-30,-4,13,-36,-27,-43,-66,68,40,-1,0,13
1490139498942,-40,40,-128,-128,-69,-41,-34,-46,21,65,53,40,29,2,18,3
1490139498991,10,-11,4,80,98,31,10,4,0,16,-115,-64,1,15,-7,-25
1490139499039,-15,-2,-7,-26,50,-2,-10,3,-9,-64,6,-70,-63,-8,14,29
1490139499139,20,7,-98,-23,31,19,17,31,0,10,107,16,-14,-3,-1,7
1490139499142,29,-17,42,-12,20,-2,0,21,-16,12,-101,-5,46,-20,-2,-11
1490139499145,-20,-51,104,74,-13,-5,58,-3,-10,-5,47,54,61,27,9,24
1490139499188,16,-7,-82,24,67,-1,-2,-2,26,20,71,67,0,5,-4,26
1490139499235,9,-11,-23,37,23,5,6,-1,-1,18,72,127,125,75,30,-3
1490139499283,-22,-28,63,-128,-128,-24,8,-8,-33,-96,-82,-111,-101,-65,-17,-35
1490139499284,-3,45,81,97,61,-7,-8,-32,48,39,50,-107,-52,-2,17,43
1490139499332,20,18,28,124,82,88,27,33,1,-9,-72,-50,-9,20,10,6
1490139499381,27,-20,-46,-62,56,40,6,25,-5,-62,-77,-115,-118,-47,-5,4
1490139499430,11,-3,-37,-24,17,-6,31,28,-20,-28,-43,-68,-128,-114,-42,-32
1490139499479,-5,-16,65,62,-14,51,3,34,-6,32,46,108,124,33,23,2
1490139499527,-36,-48,-122,-55,-17,-55,-42,-30,6,-1,5,-34,-24,-2,8,19
1490139499531,5,-37,-65,127,112,22,4,-3,-3,4,15,-104,-128,-50,-12,15
1490139499577,-6,-2,21,-18,-9,37,-3,-5,-1,2,30,17,5,-42,-5,-40
1490139499625,6,32,38,95,49,-7,30,-6,11,-12,-11,-58,-59,-30,-4,49
1490139499674,-5,-17,44,5,13,17,-14,-21,2,3,32,30,10,15,8,25
1490139499722,1,-9,1,-15,-8,61,-13,-21,-2,-11,-8,11,43,14,19,15
1490139499771,5,-34,-36,-56,-57,-62,8,-1,-21,-4,15,26,63,-50,-19,-20
1490139499773,-4,-14,-6,-7,-48,-21,5,18,15,11,-9,2,17,56,-14,14
1490139499820,21,-26,-1,-1,0,-36,-7,-2,-8,-10,-10,4,-1,-37,-35,10
1490139499917,-1,3,0,13,18,46,13,-3,6,3,1,11,7,-83,11,7
1490139499918,1,7,12,15,6,16,-10,12,-11,3,17,21,44,43,12,-8
1490139500014,6,-19,-15,-2,12,-29,3,11,6,9,9,19,15,-8,7,7
1490139500015,8,19,30,-1,-34,-20,5,65,-5,-20,-26,-7,-21,9,0,60
1490139500016,-2,-35,-77,-8,55,28,-19,-64,2,31,53,29,-52,-10,17,-59
1490139500064,-8,-9,-30,-14,48,11,-1,-7,10,55,-52,-51,7,12,10,7
1490139500112,5,27,-23,-14,61,-5,-12,10,0,-15,27,33,52,31,31,5
1490139500160,18,6,15,72,58,-5,-10,18,-21,-52,-128,-128,-128,-67,-2,13
1490139500161,3,1,9,-53,-37,7,-5,17,4,16,50,-11,27,-2,4,-18
1490139500210,-37,8,10,47,-34,-42,-24,-25,-14,49,-8,-42,-44,-24,-31,-21
1490139500259,20,-2,-45,91,99,30,19,10,17,12,92,74,98,64,9,24
1490139500307,-24,-8,-116,-115,-36,-12,-1,-25,18,-28,-19,-91,-128,-53,-41,27
1490139500404,-22,-43,-21,119,-27,-52,-38,-37,-5,24,-49,-46,-8,-14,12,-32
1490139500405,38,13,90,68,73,22,0,23,1,17,49,55,68,30,25,2
1490139500406,34,5,-9,58,102,39,7,15,-8,-2,69,-103,-46,-2,3,-22
1490139500455,-11,22,10,-20,2,5,1,12,19,-20,-48,71,125,73,13,-1
1490139500502,-9,-28,-54,-113,-128,-12,-14,-26,-15,-37,74,-1,-82,-35,18,7
1490139500551,2,-14,-22,-22,-16,0,-4,-13,-11,5,-73,20,60,19,24,11
1490139500600,0,-39,-107,-34,-34,-11,-2,4,-14,-2,51,-13,43,4,-5,-25
1490139500648,-28,20,21,92,46,15,-8,-12,8,-12,32,18,1,-1,-2,0
1490139500649,-6,5,23,4,10,0,4,-10,21,47,61,-16,29,19,3,7
1490139500698,26,66,-12,6,-5,7,17,39,4,-57,40,24,34,15,31,13
1490139500747,-36,51,14,-87,-76,-39,-5,-48,-11,8,29,24,-60,-25,-13,13
1490139500795,6,-10,107,14,-18,-10,-18,-21,-22,-55,-124,-85,-63,-13,3,-13
1490139500845,8,15,45,66,17,-6,16,21,30,-24,-9,16,18,31,37,-3
1490139500847,-10,-40,-55,-26,-42,-9,-21,-27,13,40,83,91,24,0,7,4
1490139500893,8,-35,-32,42,37,-7,6,27,-26,21,23,21,5,-1,-22,-29
1490139500942,-23,67,51,-87,-101,-18,34,3,-46,-7,-41,-128,-65,-11,-17,-42
1490139500990,24,58,-86,-16,48,24,25,62,-9,9,-39,-4,-10,-15,-32,-22
1490139501039,-17,-13,102,11,11,27,83,-20,11,-6,-18,8,63,30,25,21
1490139501189,-12,-21,94,43,-17,-4,-15,-8,-12,-97,-97,-56,42,11,2,-23
1490139501190,23,-78,52,-6,-56,-18,-40,-5,0,55,68,-8,-78,-19,-1,26
1490139501190,-5,59,93,28,-18,2,-8,-34,2,6,49,-37,-44,0,46,5
1490139501191,8,57,1,-59,-33,25,29,12,-26,-75,-125,-78,-110,-59,-42,-18
1490139501234,-34,-105,-38,-61,-95,-40,-25,-12,-21,90,40,46,76,10,-4,5
1490139501283,-33,-30,-104,-91,-62,-77,-30,-10,-14,29,127,94,27,26,-1,-41
1490139501330,15,1,70,-123,-76,-25,7,16,-38,-75,-92,-112,-51,-114,-43,-35
1490139501331,-4,-12,1,127,127,52,35,-12,52,53,97,99,127,111,30,75
1490139501380,0,-41,-118,-112,-90,-18,-24,3,-17,-9,-48,-79,-24,-45,-13,-23
1490139501429,26,34,27,52,117,24,8,14,7,12,99,86,-97,-16,0,17
1490139501477,-27,-33,-67,-76,-128,-50,-27,-30,-4,12,17,10,53,-11,-6,-8
1490139501525,5,13,38,65,82,32,19,49,3,-2,9,-42,-68,-37,6,11
1490139501526,-4,-1,-5,-8,-7,-13,-5,-24,-3,-3,-3,-20,3,2,15,11
1490139501575,-2,4,11,-7,26,53,2,-21,-4,-26,-1,23,39,26,4,-4
1490139501624,0,8,-44,-79,-58,-19,-18,13,-14,-44,-11,6,52,75,-12,-20
1490139501673,3,-24,6,-6,19,14,-12,7,-12,17,-28,-40,-50,-40,21,12
1490139501722,-9,-3,15,25,16,-21,-13,5,3,21,13,39,30,33,-1,10
1490139501769,1,-16,-5,-26,-41,-15,4,-7,-19,-12,8,27,55,70,-12,-14
1490139501770,-2,-16,17,6,2,-45,-31,-39,5,29,18,25,25,24,3,31
1490139501819,-3,14,-30,-35,-15,-60,-22,4,-7,-11,-17,-21,-21,-26,9,-18
1490139501867,4,-36,4,6,-15,24,7,27,8,-1,1,-24,-36,-25,9,-19
1490139501964,-2,-5,-7,2,26,-9,0,-30,15,8,2,24,48,32,-27,37
1490139501966,-3,29,8,25,34,35,49,-15,7,12,-5,16,15,-4,5,-3
1490139502014,0,-24,-8,-9,5,20,26,13,-9,-4,-11,4,3,13,7,5
1490139502017,-4,3,-37,-1,82,71,11,-23,8,-7,6,-24,-73,-56,4,9
1490139502062,-10,-16,0,43,2,1,-7,-27,2,34,17,-17,34,42,-6,-2
1490139502111,7,-3,69,86,44,24,-6,-9,8,30,55,-27,-13,-4,6,16
1490139502160,-16,-2,-22,-13,-59,-76,-19,-21,-10,-30,-5,-85,-30,-2,13,-1
1490139502208,7,18,74,32,-44,-17,-11,35,7,-5,-11,-111,-77,16,4,-7
1490139502209,-3,-24,-28,-18,33,-30,-9,19,9,32,-34,17,-25,-3,9,71
1490139502257,0,3,23,-15,-42,-11,17,19,-6,12,40,74,74,15,2,-27
1490139502306,1,31,25,57,90,17,2,-3,12,-21,-3,-31,-21,6,-6,9
1490139502355,11,-57,-112,-128,-128,-60,-41,-26,-5,19,-3,86,28,-32,4,11
1490139502404,12,9,13,-85,-66,9,6,-6,-17,-44,-63,17,-41,-22,-16,-25
1490139502452,-6,27,67,22,11,19,5,2,-4,13,96,104,81,46,35,19
1490139502454,-3,22,8,-70,-73,-29,-8,23,-16,-90,-59,-68,-27,-2,-11,-28
1490139502501,7,8,21,-41,-40,-9,3,27,3,34,-17,68,15,1,1,-19
1490139502550,-17,-59,-94,-32,-57,-61,-50,-28,-16,-36,-60,-68,-49,-25,-16,-7
1490139502599,11,-15,20,43,41,4,4,6,-1,0,49,26,19,6,-10,8
1490139502647,-40,-65,-30,50,3,-15,-36,-27,25,15,67,127,126,55,45,13
1490139502648,41,51,-70,14,40,20,2,11,-61,2,1,14,15,1,12,-11
1490139502696,-5,-27,-14,9,-4,4,17,4,21,-11,43,83,36,2,18,5
1490139502745,-8,-48,-72,-32,-31,-2,-26,0,19,22,116,61,30,-3,-7,0
1490139502794,-16,-21,49,74,41,16,5,16,-3,-38,-75,-56,31,20,1,-5
1490139502842,4,37,48,-21,-28,-10,1,-17,-14,-22,25,-21,-20,-5,-10,-2
1490139502890,0,-14,55,84,74,28,20,24,5,-42,72,-6,102,12,7,7
1490139502891,-13,31,-1,-55,-60,-23,-5,-19,15,-53,-19,-23,-41,-8,-3,31
1490139502988,9,-44,30,55,88,5,-33,14,-9,58,-52,-40,-51,-2,-6,-7
1490139502989,-2,-23,-6,24,-19,3,-9,-44,13,25,127,115,104,25,17,58
1490139503038,1,49,-36,37,26,13,-19,-28,-4,26,27,-34,-20,10,29,14
1490139503087,-12,-48,-21,-107,-103,-13,1,3,22,31,-6,-12,-11,-8,-23,-23
1490139503135,24,53,116,-35,-48,-5,34,36,6,-9,-56,10,-6,-9,-1,7
1490139503139,27,77,5,82,114,37,-23,20,-55,-59,7,-117,-119,-38,-10,-5
1490139503187,-10,-1,25,26,-56,16,20,16,13,-63,32,63,125,43,20,24
1490139503233,19,-4,47,22,-93,2,16,9,12,20,15,-1,61,22,-16,-12
1490139503281,11,40,100,60,13,30,9,6,6,51,68,83,90,50,18,14
1490139503329,-25,-51,-31,7,-19,-43,-25,-44,-17,22,108,127,127,31,6,7
1490139503330,-2,-2,63,5,74,30,16,10,-6,-38,-128,-103,-59,-9,-7,-13
1490139503379,-30,-18,-96,-41,-42,-18,-19,-39,18,-24,37,48,37,-9,5,22
1490139503427,5,12,114,26,-12,-4,5,2,-2,9,-35,63,105,28,-13,11
1490139503476,-20,-32,-48,-25,-32,17,9,-2,0,-2,7,24,-38,-66,-23,-20
1490139503526,13,30,-15,-33,45,1,-7,1,7,12,4,-66,-89,-13,5,17
1490139503574,-1,33,-39,-13,-42,-23,-2,-2,5,-58,29,30,30,21,41,-4
1490139503576,7,-6,18,-4,-2,44,14,3,-7,13,-34,-5,-7,-52,-35,4
1490139503622,1,13,9,15,-12,-8,6,3,-1,-4,-19,-22,-31,-67,-13,-8
1490139503671,6,-5,-13,-22,-47,7,1,-3,-6,12,16,21,35,-12,-22,-22
1490139503720,0,-18,-27,-17,-53,-14,-21,12,-15,25,15,0,22,38,9,-13
1490139503817,-4,-20,-13,-14,-48,-67,17,-6,10,5,12,32,62,12,-3,6
1490139503817,-13,-28,-2,11,11,4,0,-16,18,-2,-9,-28,-74,-62,-12,44
1490139503818,-8,-3,-16,-9,-21,-2,32,1,11,10,25,34,91,101,-24,-13
1490139503866,3,15,9,6,-9,-92,-25,4,-7,-16,-6,0,7,44,14,-26
1490139503916,7,-25,-9,-5,-29,4,13,30,-4,-39,-11,1,14,28,-4,-14
1490139503966,-2,-5,0,27,-4,-9,-42,-6,0,5,3,-20,9,38,32,7
1490139504012,7,-20,-25,15,4,20,11,15,-3,19,41,33,24,-20,-17,0
1490139504025,-1,-1,-1,4,-8,9,37,-4,2,1,2,-52,0,28,-1,-8
1490139504109,13,14,8,105,21,18,-20,12,2,-24,9,-73,29,35,19,9
1490139504110,1,8,82,68,116,29,34,-5,0,-2,-56,-112,-98,-28,-21,14
1490139504159,-4,-15,48,43,12,5,0,7,8,22,-9,-24,94,37,20,7
1490139504207,6,-10,-49,-20,4,23,18,11,9,55,84,127,42,33,-28,13
1490139504255,-25,-9,-33,-43,-85,-51,-31,-42,-6,-76,-97,-93,-33,-26,5,21
1490139504256,11,4,63,107,14,-2,-7,23,-15,14,101,127,109,47,-18,-39
1490139504305,10,-15,-24,-128,-26,-13,-15,4,11,-25,-7,-46,-25,12,3,22
1490139504356,-15,-6,-87,-39,-1,-65,-25,-15,4,-14,51,6,106,42,22,-2
1490139504403,6,0,-33,-128,-51,-4,-7,35,-3,30,34,35,1,14,22,5
1490139504452,5,12,71,94,51,53,42,14,18,6,-8,-51,-1,10,17,8
1490139504500,5,-20,32,76,-96,-27,-30,-21,14,27,78,16,69,58,27,15
1490139504502,17,20,-38,-126,-117,-21,6,3,-12,-33,-45,-70,-21,-30,-17,-9
1490139504549,-34,22,80,127,92,41,10,15,16,11,15,75,127,66,8,-7
1490139504645,65,3,-76,-127,-112,-28,-9,10,6,-15,-82,-56,22,3,-13,7
1490139504646,-22,-11,38,110,89,24,11,-14,-24,8,73,24,84,15,-8,17
1490139504694,1,-5,17,66,-16,-7,-1,-17,-30,8,95,42,-52,-4,17,7
1490139504695,54,-48,-84,-102,-45,-16,0,52,-44,70,4,-60,-71,-19,16,-19
1490139504792,19,26,-20,40,-45,10,24,11,21,-7,72,-39,8,1,0,26
1490139504796,6,48,16,8,-14,-6,-4,-10,21,0,4,65,21,-6,-13,5
1490139504844,-8,-22,1,-66,-47,-19,-7,11,15,49,-76,-16,-26,1,2,-36
1490139504892,32,8,24,3,-26,16,7,18,-30,-1,-88,-19,-26,-5,1,-4
1490139504938,-3,-6,-70,-39,-26,-14,-13,-18,-13,-40,40,27,10,-3,-16,6
1490139504939,40,55,124,-21,66,-1,7,19,-7,-11,-84,46,74,2,-13,-9
1490139504987,-33,46,41,30,42,13,-3,18,-22,-38,16,76,74,14,15,-11
1490139505036,-36,34,-82,-75,-105,-38,-19,-31,-40,7,85,-1,-24,-35,-22,-21
1490139505085,28,-29,-89,-9,-40,12,-3,-11,43,3,-96,-47,62,11,2,51
1490139505134,3,69,11,-99,-67,-32,-5,-13,-21,-16,22,-82,-68,-37,-29,-6
1490139505182,-44,-35,-101,-65,-3,-23,5,-22,-46,24,10,-76,-53,-57,-21,-43
1490139505184,45,-37,-37,-12,-64,15,6,13,75,-59,-100,-88,69,59,21,-9
1490139505233,-38,-24,127,67,103,17,-18,-1,45,-5,-101,-102,-107,-44,-4,45
1490139505281,-7,4,-38,127,69,50,19,18,5,6,114,108,67,23,17,7
1490139505329,-22,-32,-81,23,-101,14,5,5,-28,-23,-77,-60,-100,-86,-20,-34
1490139505377,-23,24,-9,4,41,23,1,9,-4,-18,61,76,2,11,2,3
1490139505378,-39,-18,-99,-112,-111,-43,-18,-41,-14,28,59,42,23,9,14,-4
1490139505426,41,44,127,118,109,106,28,35,7,27,29,14,27,12,12,41
1490139505475,-9,0,21,16,30,18,-9,-5,7,1,-2,-1,-81,-65,2,-15
1490139505524,-2,2,-32,-28,-5,8,-3,6,5,-7,29,-48,-73,-5,11,30
1490139505573,-6,20,-13,14,25,56,7,-13,0,-8,25,-6,-38,-19,-4,11
1490139505621,2,41,24,34,85,96,5,-9,-6,-15,-11,-28,-78,-81,-9,-23
1490139505622,-5,-7,-2,25,29,-53,18,-7,6,-12,-32,-24,10,80,-4,7
1490139505670,5,-20,-14,-44,-100,-40,-24,-8,-8,-7,-14,-36,-40,-15,18,6
1490139505719,-13,-45,-2,-15,3,17,-7,-7,5,16,39,8,-6,-40,-37,-6
1490139505767,6,4,2,-22,-51,-3,31,7,-3,-12,8,19,35,10,17,4
1490139505815,2,8,-12,-6,-12,-33,9,11,-8,-10,-17,-42,-71,-40,11,-19
1490139505816,-5,-13,-26,-11,5,5,43,8,2,-17,16,-1,-9,-9,-1,-18
1490139505865,-9,15,19,19,36,-10,3,-6,8,-12,-22,-47,-48,-24,-41,3
1490139505915,-8,-42,5,-1,-13,12,-11,-11,0,-2,-17,-13,-51,-19,0,13
1490139505963,9,20,12,-8,-7,-6,5,11,-6,-27,-28,27,-29,-2,-3,-4
1490139506060,-15,-4,-42,61,29,-78,-17,-4,10,-6,38,56,127,67,26,-2
1490139506062,8,23,83,28,52,41,13,-8,-8,2,-106,-91,-107,-82,-2,13
1490139506064,3,-61,-99,-125,42,52,47,14,-18,-17,7,-11,-128,-124,-22,-19
1490139506109,-25,-19,-89,-91,-46,-26,-31,-21,52,-1,127,105,127,118,38,18
1490139506157,-39,-74,-100,-126,-121,-111,-69,-44,-11,-13,86,87,-102,-35,-14,-17
1490139506206,21,-7,-3,-80,-36,-26,-27,1,20,63,65,75,127,65,30,31
1490139506255,-14,16,-33,21,-77,-60,-18,-16,-27,-36,-109,-127,-52,-34,-30,-38
1490139506303,53,56,127,127,127,92,24,15,-1,-9,-42,-83,-70,-28,9,-3
1490139506305,-4,59,-40,-58,-75,18,22,34,4,-27,-37,-70,-38,-17,-12,0
1490139506352,39,50,127,127,127,55,13,63,64,13,22,17,116,61,15,33
1490139506401,-9,-42,39,37,38,11,3,-6,15,41,90,41,-29,20,-9,21
1490139506450,-28,-2,-65,-58,-83,-73,-22,2,10,-14,-58,53,-45,-15,24,17
1490139506498,-4,-37,62,-17,-35,-13,-15,-1,29,52,51,127,71,16,15,20
1490139506501,41,1,-19,-1,-5,0,20,19,-23,-12,8,-9,2,6,0,-14
1490139506548,-12,-53,-4,-52,-22,-4,-29,5,10,-26,-60,-29,-19,-14,-2,-2
1490139506597,-15,12,-38,-28,-18,0,22,5,-8,20,17,14,3,-5,-14,-2
1490139506645,-8,-51,-23,15,10,3,-4,-5,4,81,-23,0,4,8,11,23
1490139506694,-25,-7,22,55,10,-6,-33,-17,-6,-22,76,77,50,6,27,9
1490139506743,7,-1,-14,1,-8,2,21,26,-52,-108,-90,-67,-14,-14,-15,-28
1490139506746,-19,6,37,34,-4,-1,-3,-13,12,12,15,-24,-14,-13,-18,-3
1490139506793,1,29,29,-14,-21,-12,-7,5,-13,-2,68,33,17,-1,-22,-1
1490139506843,0,-43,-55,-16,-27,-6,10,17,-26,-50,91,29,-7,-8,2,-5
1490139506889,-3,91,127,51,18,4,22,-15,5,91,84,41,18,15,3,36
1490139506938,5,121,79,35,61,-7,-17,5,15,33,-128,-107,-18,-21,-9,-7
1490139506986,2,-92,-31,-36,16,3,6,-24,13,51,-111,-10,-28,-6,6,-11
1490139506988,64,-34,-54,-86,-58,-41,-12,19,-60,-106,26,51,26,3,19,-45
1490139507035,-41,-2,15,127,127,72,4,-34,48,127,-14,-99,-71,-12,1,57
1490139507084,3,-1,56,124,77,46,37,13,0,-119,-88,-68,-11,14,6,-2
1490139507132,-21,-17,-47,84,30,21,7,-23,68,70,95,49,31,38,6,45
1490139507180,-21,-28,-7,-80,-95,-24,-16,-67,19,-72,-16,50,29,-2,-1,10
1490139507181,-22,-9,-58,-128,-128,-77,-17,3,-41,-8,56,127,127,2,-7,9
1490139507230,-3,1,20,-91,-82,-10,-1,20,1,6,48,-87,-67,-55,-14,-22
1490139507279,-9,18,0,-38,-71,-38,-20,-24,19,56,-84,105,28,37,8,19
1490139507328,-16,-15,-8,48,13,-19,-7,0,18,-28,-12,96,37,18,6,9
1490139507377,19,76,127,127,99,104,39,19,5,-6,47,-128,-128,-30,12,43
1490139507425,-19,-36,-8,13,-2,-35,-8,-20,2,31,81,65,16,23,7,1
1490139507427,20,36,53,22,13,18,-4,14,-11,-77,-127,-128,-128,-105,-13,-12
1490139507474,-4,4,-106,13,1,-27,7,0,-10,-74,-117,-128,-42,-11,-10,-15
1490139507525,13,1,-16,-20,61,4,-7,-3,6,20,-22,20,28,10,-2,-32
1490139507572,23,6,-19,-41,-73,-91,20,20,-3,-17,-4,-80,-36,61,-31,-8
1490139507621,-8,-6,27,54,50,31,16,7,19,9,3,1,-30,-21,-3,10
1490139507668,-17,15,-17,-50,32,4,-21,-2,-3,-36,-5,2,20,46,-8,1
1490139507669,-12,-9,32,32,10,22,-2,-18,11,-1,-12,-14,1,-24,23,24
1490139507717,-3,42,7,33,40,-31,22,1,22,-72,-14,11,3,-10,5,35
1490139507766,-4,10,14,40,77,-11,16,-13,21,-3,-35,-18,-10,35,12,-21
1490139507863,17,10,-5,-1,-20,8,56,14,5,-2,-47,-11,-17,-20,-10,-5
1490139507866,-10,-29,-25,-44,-62,-40,7,24,-5,-2,-4,-8,-42,-88,-25,17
1490139507873,-5,8,-26,-16,4,4,39,16,7,-19,1,7,-7,-39,1,18
1490139507912,-8,-4,32,10,15,15,-23,106,-12,0,-3,-9,-13,11,24,19
1490139507961,-2,-27,-21,10,23,21,-9,-71,6,66,45,40,10,-5,-9,-37
1490139508010,-22,-16,-3,9,16,22,-8,-15,11,9,-19,-29,-3,22,0,8
1490139508059,2,35,-29,14,73,42,-3,-51,21,12,9,-9,19,23,-2,63
1490139508107,-12,-43,-35,66,-24,-30,-3,-57,10,10,24,52,87,25,28,0
1490139508109,2,-56,-14,-21,-102,-30,-8,7,-9,20,63,40,-23,-43,-17,-51
1490139508156,-3,41,73,62,127,50,17,-13,5,-12,73,106,40,52,-4,11
1490139508205,4,-4,7,-115,-16,5,20,4,-7,-17,52,7,-43,2,0,10
1490139508254,-16,17,-4,18,97,-26,-22,5,3,-39,-73,-60,-57,-36,-5,21
1490139508302,40,11,93,88,85,65,2,27,-21,-8,-109,-58,-77,-23,8,14
1490139508304,-18,-38,-106,-36,-96,-114,-50,-56,-26,-12,36,82,21,-37,-4,-19
1490139508351,33,-39,-85,-83,-1,31,16,25,-26,40,4,109,124,1,-15,-17
1490139508400,5,-1,-26,-27,-81,-3,10,34,5,31,4,50,-66,-48,-12,-15
1490139508448,-8,7,25,6,72,17,11,7,6,16,37,93,5,41,15,-9
1490139508497,-6,-21,-38,-17,-35,1,-11,-1,-23,17,31,19,17,5,10,-8
1490139508545,-23,-14,45,60,-6,-6,-10,0,35,8,-77,5,32,13,19,17
1490139508598,25,31,-5,52,50,6,3,-6,-22,-100,-37,-124,-69,-12,-16,-16
1490139508602,3,-6,41,-111,-59,-58,-21,-25,-18,5,-17,-32,22,-32,-13,-19
1490139508649,11,-8,62,-27,-62,-9,2,8,-22,-31,14,21,13,-11,-9,0
1490139508692,36,-18,39,25,-26,-18,-2,-13,1,11,25,38,4,35,46,26
1490139508741,11,1,17,-38,32,5,-2,-29,-23,-7,7,-37,-3,2,-7,-4
1490139508789,1,0,21,-53,103,13,-14,5,-47,-87,-64,-93,-54,-2,15,-21
1490139508790,-9,63,43,60,22,4,-5,-18,14,38,72,31,15,0,21,28
1490139508838,-2,-58,-116,-42,-58,-18,25,41,10,113,61,-5,-6,-7,-8,-21
1490139508887,10,-11,44,69,90,10,-3,32,7,-90,-77,3,7,15,-2,-9
1490139508936,-43,-16,19,-56,-2,-23,-31,-2,21,-6,3,-39,-43,-34,-17,29
1490139508985,13,50,101,-2,35,5,-13,5,-6,-3,-108,-15,50,-18,-7,-16
1490139508991,-14,-76,-88,10,-11,-11,-27,-22,20,-79,61,-116,-30,-13,-4,8
1490139509034,-17,31,48,19,-36,-19,3,41,-37,15,-26,-70,-82,-12,4,-102
1490139509083,4,-87,-128,-119,-85,-38,-5,11,-27,13,41,16,14,-42,-6,0
1490139509132,0,-7,48,-85,-61,-11,4,-15,1,-14,17,119,95,30,7,7
1490139509180,-27,-37,37,-63,-5,20,6,-57,5,60,83,93,117,44,12,20
1490139509228,-4,37,-8,11,26,20,7,41,26,28,-11,-109,-128,-5,17,10
1490139509229,50,41,55,-115,-92,-8,-1,50,-17,-7,29,102,87,-26,-3,-9
1490139509277,17,47,98,127,95,94,27,21,22,-35,-128,-128,-128,-42,-2,12
1490139509326,-14,2,38,-16,58,12,5,-22,18,21,4,91,-7,-13,4,6
1490139509376,5,-11,-114,-99,-118,-6,-8,8,-58,-97,-82,-97,-99,-119,-68,-59
1490139509424,2,16,73,82,30,33,0,11,-18,-72,-115,-84,-77,-41,-3,-12
1490139509473,8,0,-69,-106,-106,-26,-13,-15,-7,-35,-46,-59,3,5,-20,2
1490139509475,-25,-8,-2,24,21,-28,2,-61,4,4,65,54,18,-23,-28,-25
1490139509522,4,-12,-30,7,17,18,-3,9,-5,9,22,27,43,-24,-4,-9
1490139509570,12,-20,-44,-22,-64,-62,10,3,-18,-7,27,5,2,32,16,-3
1490139509618,-17,-1,-7,6,77,71,-4,9,19,37,-2,-10,-63,-76,22,11
1490139509667,-10,-28,-10,-36,-93,-113,16,-9,-10,2,25,7,-14,-19,-4,-25
1490139509668,19,44,5,15,43,-13,-15,7,-10,-36,14,22,35,15,-11,-13
1490139509716,-9,11,12,27,76,64,-42,-6,-2,26,8,-9,-49,86,11,7
1490139509767,-15,-17,-29,-24,-33,-35,36,-21,0,10,12,17,33,3,-31,-1
1490139509815,-1,-19,-19,-23,-44,-57,14,0,-2,-11,-7,15,24,42,4,-14
1490139509863,-6,9,4,5,29,36,-27,11,-1,-14,-10,-14,-1,-31,28,-2
1490139509911,27,9,4,20,-24,-36,-5,36,-1,-2,-5,-48,-22,-53,40,0
1490139509914,-6,-1,18,6,15,47,25,29,5,6,-3,1,-31,-23,-37,12
1490139509961,-21,-13,6,21,-17,1,-27,-34,12,29,23,-58,-34,29,1,-16
1490139510009,1,-24,14,13,7,9,-1,-6,3,17,2,32,25,7,19,7
1490139510058,18,19,-19,-111,-28,-23,-34,45,-11,-38,-48,-84,-76,10,-13,-20
1490139510107,10,57,103,65,127,88,36,10,7,-31,-62,-101,-57,-32,-15,-9
1490139510156,6,-2,-5,52,58,25,30,10,13,41,75,83,91,63,14,8
1490139510158,6,5,19,51,43,17,-11,-1,-32,-30,-2,-78,-87,-54,-24,-37
1490139510204,21,50,127,127,127,65,4,0,-19,-65,-120,-128,-128,-107,-23,-10
1490139510301,-6,-33,6,-54,-84,-14,-3,1,5,24,-16,61,48,24,2,-5
1490139510303,-18,-22,-26,38,69,-4,-14,-26,-1,19,45,24,18,4,-4,3
1490139510350,21,-34,-103,-117,-32,-17,9,33,-8,-9,-41,-17,52,-5,-6,-14
1490139510353,6,53,83,25,-27,17,2,-13,35,-47,5,59,-4,-34,-4,33
1490139510399,5,8,-40,1,-5,14,2,3,-8,-15,-11,-80,-112,-74,-18,10
1490139510448,-32,-89,-118,-110,-66,-50,-14,-23,-14,-8,95,94,-14,-12,-4,-3
1490139510497,0,37,91,-41,50,31,27,17,0,0,-10,105,127,41,7,-5
1490139510546,16,49,82,127,114,37,2,8,-3,-43,-63,-128,-77,5,-6,-12
1490139510593,-1,13,-46,66,7,-6,7,2,12,7,-80,-24,83,21,0,5
1490139510594,24,88,-48,-76,-65,-33,-19,15,17,-30,29,88,79,15,-4,-5
1490139510642,-13,-23,-41,-42,-39,-1,6,-9,2,-11,26,-41,-23,-29,-42,-2
1490139510691,-18,-24,88,42,75,12,4,-2,-32,-40,-64,-106,-79,-23,-9,-16
1490139510740,-4,95,8,26,22,26,22,13,12,67,127,71,-1,-9,-22,-12
1490139510788,-7,-5,41,75,89,23,30,9,1,-42,-46,-68,19,19,21,18
1490139510837,11,-8,59,47,25,-6,-4,-13,-61,-90,49,82,-25,10,-6,-9
1490139510838,-11,26,-44,-42,-36,-15,1,-8,22,-40,16,17,13,11,2,9
1490139510886,34,-6,12,119,58,23,-3,-15,-7,90,43,36,63,30,43,-6
1490139510937,26,-79,-120,-111,-95,-29,-7,-4,-28,44,-28,-49,-98,-37,-10,-34
1490139510984,-2,-16,19,24,-49,3,27,49,-16,114,116,-63,39,29,20,-13
1490139511033,15,94,19,7,54,-1,-4,13,-26,-93,-128,58,76,16,-2,-17
1490139511035,9,30,35,-54,-53,-2,6,-22,-5,-46,-67,-125,19,-14,-13,-2
1490139511085,-13,-43,-109,-27,19,22,9,1,-60,20,-6,-65,-51,-1,-19,-26
1490139511130,68,-12,-34,75,-7,10,14,35,0,-29,19,-62,-102,-38,-2,3
1490139511179,62,29,-27,-103,-75,-27,-29,29,-10,-19,-30,-13,-1,-39,-3,-32
1490139511228,-30,3,26,17,-9,-2,8,-6,25,16,-42,-41,11,19,11,9
1490139511276,26,102,122,-48,-103,28,19,1,16,-66,75,-34,-11,-69,-27,-12
1490139511278,-6,-9,48,91,32,5,2,17,-20,-40,-59,-76,-117,-73,-37,-24
1490139511325,-11,-62,-70,-52,-115,-34,-11,0,10,-52,-51,-8,31,33,9,-5
1490139511373,-31,11,51,54,-119,-69,-26,-10,-8,-38,-88,58,34,-3,15,4
1490139511422,8,3,-60,69,14,-57,15,12,-15,-48,-36,-67,2,50,2,-9
1490139511470,-7,-6,8,29,54,75,-15,-6,9,49,14,-34,-47,-52,9,-7
1490139511471,2,-13,-18,-20,-44,-22,9,2,-9,36,58,41,57,12,-10,-11
1490139511520,13,23,31,18,2,-35,17,9,1,13,20,-1,24,36,9,21
1490139511569,-3,6,11,-11,-24,-58,-12,19,4,9,-2,-8,1,23,31,0
1490139511618,3,-37,-34,1,45,72,-23,-14,3,19,8,2,3,41,-40,-21
1490139511667,-3,-21,2,-15,-16,35,8,5,3,16,28,34,65,19,-38,5
1490139511718,-23,1,25,-34,-36,24,6,-27,7,17,-12,-25,-58,-114,-6,-13
1490139511719,-6,13,37,41,52,65,5,8,3,-4,-14,-44,-65,-73,-10,1
1490139511763,-6,21,-7,-21,-18,-61,-57,-63,14,-58,4,5,0,4,1,-21
1490139511812,6,-18,-24,0,-10,42,52,-10,1,-2,-8,3,43,46,-22,32
1490139511861,-1,13,-8,-16,-17,-14,-10,18,-39,-14,9,4,25,12,-5,27
1490139511910,-6,-30,2,-7,-7,-28,-6,-10,4,9,-16,-10,-22,20,19,5
1490139511958,-2,4,-3,15,31,43,1,49,9,7,13,12,0,-13,6,11
1490139511959,7,9,6,-23,-20,-4,-4,-48,-8,2,-1,10,15,5,30,-105
1490139512007,-2,-26,-41,-19,-19,-30,-13,-17,-5,19,7,28,23,-15,-7,-12
1490139512057,1,-7,19,-36,-54,-11,4,-7,2,-23,-25,45,45,2,-17,9
1490139512106,-10,14,-47,-4,127,10,-9,1,-7,-13,-33,-122,-128,-51,-21,-25
1490139512157,20,20,126,47,43,92,30,22,4,-20,-30,61,-79,-58,8,-9
1490139512161,10,-5,-25,40,121,8,3,31,14,30,50,-74,-56,10,6,2
1490139512204,-7,-28,-92,-95,-128,-86,-49,-35,-22,-58,-80,21,59,8,2,-42
1490139512251,7,-23,-39,15,31,45,13,19,-27,-11,1,-81,-40,-11,-37,-29
1490139512300,-2,6,-61,33,-49,-85,-27,-8,-24,6,-53,-103,-89,-22,-22,-12
1490139512349,0,-24,-79,-128,-94,-32,-18,-25,-23,37,23,50,48,5,-14,3
1490139512397,8,-13,-100,-59,-72,-51,-23,-10,23,36,86,105,75,27,-2,12
1490139512399,19,3,77,-44,-102,-5,0,32,5,-19,-93,87,66,18,5,8
1490139512447,-23,15,100,97,44,12,-2,-23,40,18,62,66,127,79,45,46
1490139512495,15,-17,-5,-100,-63,-46,-18,-43,-8,7,17,-22,-22,-31,6,-17
1490139512544,-9,62,97,88,-21,23,28,-7,2,-43,-128,-88,-71,-23,-5,-3
1490139512592,-4,-32,-82,-12,29,5,-4,33,-11,13,25,61,34,14,-1,-18
1490139512641,-4,32,-32,-85,-81,-51,-19,5,10,-19,-3,-10,-4,-3,-6,18
1490139512642,-30,-53,10,-24,-9,-16,-18,-46,21,-54,-45,-58,-75,-42,-17,-20
1490139512691,-16,27,61,70,75,20,9,-8,-3,8,127,109,108,54,6,18
1490139512739,33,43,117,53,40,-3,30,11,-15,14,-97,2,-33,19,4,-10
1490139512788,-7,-6,49,-44,-11,-8,-30,-45,0,-23,44,29,3,1,41,-29
1490139512837,-10,8,-12,17,0,2,-25,-28,3,24,50,20,34,7,-7,-1
1490139512839,-27,-25,15,44,-54,-2,33,-24,10,-13,3,37,-21,-4,-11,6
1490139512885,30,84,34,7,9,16,43,41,-70,-95,-128,-85,-83,-34,0,-31
1490139512935,-9,-63,-68,-15,-79,-32,-18,-27,-13,20,35,55,25,-7,-24,-12
1490139512983,-1,-114,-73,-82,-121,-32,13,34,-69,-55,-5,-27,-49,-38,-16,0
1490139513032,67,-7,-25,38,84,29,5,47,-25,-31,116,27,-26,23,-7,58
1490139513079,18,117,31,75,127,68,16,-7,12,-119,29,-71,-100,-6,-12,6
1490139513082,1,88,14,27,-42,-1,-14,3,-36,7,73,90,49,-19,-12,-34
1490139513132,-12,-18,91,99,68,14,1,25,0,-67,-19,-40,-3,19,2,-6
1490139513177,-62,-58,-60,-81,-65,-85,-36,-4,30,-53,57,83,12,-38,0,-3
1490139513226,-24,-60,-86,-95,-72,-56,-9,-14,-7,32,-20,-14,-100,-46,-15,10
1490139513275,-45,11,95,42,-21,-33,-16,-51,18,1,119,116,123,15,5,32
1490139513323,-30,11,64,58,48,-55,-36,-64,-11,-45,-128,-29,-128,-12,-11,27
1490139513324,25,42,59,95,25,33,-6,0,25,62,60,-45,-26,15,25,26
1490139513373,18,66,110,3,25,63,25,40,-1,-46,-43,-64,-3,-14,-14,-10
1490139513422,5,31,72,127,93,22,3,-18,17,26,27,-39,110,89,11,-12
1490139513470,-2,1,-49,-23,-8,14,-5,-9,-9,-24,15,127,42,-12,4,1
1490139513518,-22,-36,-30,-62,-71,-54,-12,-11,13,43,77,42,107,26,5,-1
1490139513520,5,-6,52,-54,-39,78,8,7,-16,-79,-126,-86,-72,-55,3,-7
1490139513568,-5,-5,63,-65,-40,25,-10,-3,-7,9,2,-79,-38,-66,-17,-19
1490139513617,-2,-75,-4,52,24,-14,12,-23,22,98,104,127,127,44,-3,27
1490139513666,-1,10,-36,-59,-13,-32,-34,2,-21,-14,-7,-55,-2,28,-16,-37
1490139513714,9,36,7,-81,-90,0,17,0,-8,-10,-91,-5,-14,-21,7,11
1490139513762,-14,5,4,58,14,-58,-3,-3,7,7,0,18,11,35,-16,3
1490139513764,5,-3,-11,-13,-67,-12,26,1,2,25,7,18,11,17,49,19
1490139513812,-2,-50,-34,-32,-10,16,14,-21,-4,18,-27,-36,-53,5,-26,-22
1490139513860,-15,43,-13,54,49,-79,10,-8,0,-75,-7,-71,-86,-87,-34,-53
1490139513909,27,-26,-70,-28,-35,117,3,73,0,-13,-15,13,42,12,15,61
1490139513957,1,-8,10,27,65,22,-13,30,7,-10,-33,-54,-62,11,22,44
1490139513958,1,16,-21,-23,-43,-26,-36,40,-19,-34,-10,1,20,-19,-17,75
1490139514006,2,-3,9,47,32,-9,-30,31,-3,-9,-29,-95,-83,-17,24,-25
1490139514055,-7,15,-23,-46,-15,-22,-28,-96,-3,-13,-15,55,74,72,28,-28
1490139514103,0,-34,-10,-124,-128,-46,-13,-1,-24,-5,-50,-100,-91,-75,-10,-11
1490139514152,-2,22,11,66,53,9,18,24,12,19,66,96,70,53,14,16
1490139514201,2,0,48,-82,-6,42,-8,7,9,20,-22,-41,-71,-16,15,19
1490139514203,-28,38,51,-98,-95,30,-5,14,14,4,-6,50,-45,-57,-5,-4
1490139514250,25,28,106,121,81,47,18,26,-38,-26,-20,-128,-117,-42,-28,-14
1490139514299,10,43,34,92,29,16,6,9,15,59,34,35,77,14,3,-17
1490139514395,-10,-31,-70,-93,-54,1,6,17,17,-1,88,95,104,50,-5,7
1490139514396,35,-16,-61,-60,-4,3,5,18,-20,-47,-4,-100,-55,-12,4,9
1490139514444,-23,60,-37,-58,-55,-34,29,3,28,20,33,19,37,58,45,25
1490139514445,24,9,80,118,63,46,16,20,-23,47,-85,-51,-73,-26,-14,-39
1490139514494,-17,33,39,4,12,-4,-14,-46,3,25,101,93,49,10,21,8
1490139514542,-17,-1,-2,-55,-19,0,0,-14,4,-22,2,-50,-54,-27,-45,-24
1490139514591,-3,15,54,38,11,4,-6,24,-25,9,30,-9,-23,13,-2,-13
1490139514642,13,-11,-126,-2,-4,0,-12,11,28,42,73,35,8,9,16,15
1490139514644,24,75,40,44,11,4,27,-3,-14,9,70,-32,-5,-2,-18,-8
1490139514689,-33,-55,-93,-97,-23,-2,3,-1,18,-13,-16,-13,-20,-9,-2,10
1490139514738,8,19,-81,18,34,11,6,9,-28,-11,127,-62,-76,-13,1,-22
1490139514789,-25,-62,53,2,-25,-7,-33,-30,10,50,73,86,32,-8,-38,3
1490139514835,18,-13,-71,-79,-54,0,18,-6,-18,22,11,4,-11,-8,5,5
1490139514884,-5,-6,64,5,1,-8,1,-12,-5,-12,-46,43,7,21,46,4
1490139514898,-14,43,20,-38,-32,-20,-13,-13,14,13,78,20,-5,-10,5,13
1490139514933,1,59,84,21,-14,-1,-28,5,-3,-65,-70,-43,-29,1,20,34
1490139514981,-89,14,24,74,32,-7,-7,-50,35,83,-128,9,-30,-13,-6,8
1490139515030,-12,-53,-63,95,34,-25,-30,-31,-25,-110,-32,-90,-127,-56,-47,-55
1490139515078,-17,72,-19,-73,-59,9,13,41,50,70,70,127,127,56,23,41
1490139515126,1,-8,88,-11,-15,4,25,33,6,29,78,127,121,36,14,9
1490139515128,-12,-8,62,47,83,32,2,15,39,78,83,-9,-79,20,36,18
1490139515177,47,35,62,23,83,45,44,22,7,-10,-75,-57,-13,-3,-11,19
1490139515226,23,-33,87,90,-64,2,-11,-33,46,33,69,127,127,41,16,56
1490139515275,-6,17,44,54,36,33,-8,58,-26,-46,-40,-29,17,-37,-35,-55
1490139515321,-19,-65,-128,-128,-128,-96,-24,-35,-58,-10,64,69,-65,-50,-35,-49
1490139515323,-9,27,86,127,127,51,12,-19,-5,-45,-112,-128,-126,-56,-3,9
1490139515371,-7,-31,-6,80,105,85,45,15,5,-7,38,-12,26,28,19,3
1490139515420,-5,32,34,14,60,8,-4,25,21,-19,27,33,91,65,15,6
1490139515468,6,19,-37,16,83,47,-1,-6,-19,-45,-65,-63,-88,-55,-4,7
1490139515517,11,9,98,-38,-24,-14,10,-14,-13,-21,-126,-92,-115,-33,-15,-9
1490139515565,4,27,-10,94,53,40,3,-4,-5,17,32,19,-98,-73,-43,-7
1490139515567,-10,-32,-49,-7,-33,8,-10,-20,-7,12,74,125,127,-16,-6,7
1490139515615,-8,16,22,57,47,58,0,-12,14,11,-35,-57,-45,-71,13,4
1490139515664,-7,3,-27,-36,-32,-56,-15,-7,-7,-11,7,6,50,64,-25,-28
1490139515713,-16,-9,-46,-45,5,41,-6,1,18,13,47,46,42,17,13,26
1490139515762,-10,-4,9,14,31,57,8,-29,-11,2,21,0,-7,-30,9,-4
1490139515810,20,2,-31,-49,-98,-75,40,48,0,27,8,34,53,57,-17,45
1490139515812,17,-35,-39,10,-5,17,4,-14,-7,25,32,-4,-1,39,24,15
1490139515859,8,21,5,39,52,31,-5,0,20,-9,-15,-44,-21,32,28,36
1490139515908,5,-16,3,-1,16,-22,-4,-9,-19,-36,-3,-13,-42,-27,0,28
1490139515956,5,19,-5,-14,-24,3,8,23,4,-18,-29,-8,-11,-24,-7,44
1490139516004,-9,-4,3,20,27,-18,-9,-3,-5,1,24,-24,-15,29,-24,-25
1490139516007,-9,1,42,38,45,37,9,-61,14,35,44,80,101,50,-16,-18
1490139516054,-8,-33,-75,-82,3,37,10,19,2,-7,-36,-79,-68,-45,-3,-21
1490139516103,-13,18,13,86,54,27,5,-38,11,17,51,59,71,11,-10,5
1490139516158,-15,-9,-9,3,-22,-23,-34,27,-30,-78,-55,-104,-101,-18,1,-81
1490139516200,7,-4,68,105,85,45,30,18,2,42,-34,-109,-42,-30,-30,0
1490139516248,-8,-6,15,33,71,0,-10,5,23,15,-13,-9,63,10,14,17
1490139516249,11,20,-16,-93,-72,16,24,12,-15,-4,0,-71,-109,-68,-3,-2
1490139516297,17,-21,-29,6,-60,-31,-12,64,-18,-60,-61,-80,-86,-38,-18,-64
1490139516346,-22,-34,-19,33,-43,-44,14,-40,-5,25,63,64,57,24,-23,-5
1490139516443,30,32,113,69,54,36,16,2,14,-33,-68,-109,-15,2,8,46
1490139516445,12,21,-6,73,67,35,30,29,10,49,114,-99,49,41,22,14
1490139516492,-28,-63,-52,-70,23,24,10,8,14,-71,-115,107,30,-3,-5,-10
1490139516494,21,12,108,109,65,33,17,-9,-7,0,-23,-5,-12,-3,-2,8
1490139516541,-2,8,23,-37,-12,-4,-30,-59,7,0,-6,19,13,1,14,-1
1490139516590,4,95,-8,35,14,21,21,6,-4,-92,-75,-62,-9,-10,-12,-8
1490139516639,8,42,73,23,-1,-1,11,5,9,-15,-45,-16,14,7,13,1
1490139516687,-17,-35,-66,-31,-14,-1,-5,46,-6,30,68,-4,-26,-21,-48,-44
1490139516690,5,-22,6,7,6,4,-16,-9,2,-8,-108,-28,-9,6,17,40
1490139516736,-8,2,-10,-7,19,6,-8,-4,23,-12,69,8,-11,14,47,22
1490139516785,6,-3,17,19,27,4,27,-6,-5,20,-31,-73,-17,-5,-6,-23
1490139516833,-3,-58,-41,-9,6,5,-9,-46,-13,38,-33,-38,7,-3,-8,80
1490139516882,0,31,-26,39,13,2,2,-3,-22,-40,83,40,25,11,-3,0
1490139516930,28,127,119,99,94,7,-17,2,2,11,127,68,22,-1,17,13
1490139516931,6,68,103,57,32,3,22,6,66,-5,-128,10,18,23,19,58
1490139516980,1,8,-115,-31,-41,-14,-12,-60,-8,-36,-49,2,5,24,0,6
1490139517029,-2,29,24,105,71,-2,-17,-53,-8,-114,-59,-31,45,-2,-6,17
1490139517078,-25,-46,0,-9,58,6,10,9,13,-16,6,49,61,4,-30,-18
1490139517126,-26,-100,87,-7,0,-1,-24,-48,32,10,-49,48,-67,3,13,73
1490139517128,7,-40,95,97,91,39,4,48,22,79,-69,14,53,33,8,-16
1490139517176,-1,127,-4,127,35,-18,-10,5,-40,-36,9,-60,-60,-29,-11,-14
1490139517223,-41,-12,44,-128,-93,-21,-16,-29,3,-71,-65,28,-30,-40,-23,15
1490139517272,64,42,-90,-46,-61,53,28,66,-75,-104,-9,-37,-36,-14,-14,-24
1490139517321,9,12,85,19,52,15,12,18,-13,-12,19,-18,33,22,-34,-9
1490139517369,-5,-9,-9,79,102,56,35,87,28,48,56,58,83,37,-2,-21
1490139517370,1,-6,88,111,39,-2,-19,-31,-8,20,-28,-5,20,10,12,17
1490139517418,-3,32,54,19,50,13,-7,-29,26,50,99,103,-91,4,6,24
1490139517469,-14,-54,-128,-107,-3,10,-9,-14,0,6,62,74,17,-8,-10,-16
1490139517520,2,-13,14,21,29,39,14,-34,4,37,32,90,85,-25,15,-6
1490139517566,-10,9,14,15,-4,32,-17,-9,-19,-26,-26,-54,2,-30,-3,-67
1490139517613,1,-5,-17,1,-43,-3,-2,17,-6,-29,8,-23,10,-4,-10,7
1490139517614,0,21,-16,-5,-1,80,-2,3,-5,-54,-5,-19,-16,-86,11,-22
1490139517662,-19,18,26,32,-15,-124,2,-16,15,3,-8,21,42,22,13,34
1490139517711,9,-16,-5,-52,-56,-46,8,25,-10,9,-13,-33,37,83,-10,3
1490139517760,-14,-40,29,25,29,33,-3,-3,17,52,-2,7,21,-49,-20,-1
1490139517808,-4,-14,-15,-41,-56,11,-6,-19,5,23,1,12,16,21,-26,1
1490139517809,10,12,-26,-44,-26,5,0,22,0,-21,-17,-20,-62,-69,22,-1
1490139517858,-1,35,7,-2,-5,60,7,0,4,-55,1,14,13,-29,49,13
1490139517906,1,-19,-4,-1,-37,-67,-3,-17,-16,11,4,-1,-5,-41,-24,-7
1490139517959,3,-7,1,12,-6,22,-1,-7,3,27,7,-1,1,39,-5,12
1490139518003,6,-3,1,22,37,-20,-19,19,5,17,0,2,2,52,22,-7
1490139518051,5,13,-4,42,45,21,1,-4,-2,-12,1,38,31,25,-7,-10
1490139518052,-11,-3,-16,-68,-42,-40,19,0,7,-75,-6,12,3,0,13,29
1490139518101,16,3,-23,70,69,-1,-5,19,0,20,49,-83,-105,-39,-13,-1
1490139518150,-22,64,-35,-33,-22,15,-16,-46,4,-56,8,-6,52,6,-19,5
1490139518246,-23,-7,40,72,22,9,3,-53,24,17,38,-45,-32,-10,8,44
1490139518248,23,50,69,103,127,51,59,65,2,28,99,82,-69,45,-4,2
1490139518296,16,38,74,127,127,101,44,38,30,65,69,36,89,-7,-21,-1
1490139518302,-12,3,61,39,50,8,9,7,-18,-42,-40,-73,-79,-18,-14,0
1490139518352,11,17,16,-80,14,13,27,4,-7,-5,-54,29,59,-15,-13,-6
1490139518393,2,-38,-54,-76,35,57,12,-11,-7,26,21,47,-46,2,22,5
1490139518490,-33,-15,54,10,-20,-18,-15,-20,17,63,55,112,61,5,-5,-9
1490139518491,13,-9,-1,-75,-128,-55,-18,-2,-15,-1,38,40,-40,-22,-35,-41
1490139518492,18,10,-10,-28,33,42,19,25,-43,-19,9,-44,-33,-17,-2,8
1490139518540,28,65,127,127,108,46,27,48,3,-22,-121,-113,-59,-6,15,11
1490139518589,-27,-44,10,-69,-47,-22,5,-26,-25,13,-51,-36,-41,-11,-19,-52
1490139518638,-2,9,-121,-39,-41,-1,54,36,34,-3,-73,-128,-50,-22,-3,30
1490139518687,31,64,88,32,45,0,-19,-26,1,26,67,63,13,14,11,29
1490139518735,-22,-12,23,19,-19,14,25,1,56,-51,-103,-4,32,-2,5,30
1490139518737,-30,92,103,127,37,12,-8,-10,54,-63,2,-8,1,17,9,42
1490139518783,34,44,-38,-19,-36,-3,-2,-7,-15,14,41,44,4,-16,-22,-46
1490139518832,33,-22,-79,-49,-17,4,31,20,-54,5,27,47,6,-6,-2,-23
1490139518881,-5,7,13,6,19,24,45,3,8,-61,-47,6,-9,-1,-3,27
1490139518930,-7,86,64,9,9,-5,-13,-14,-33,-18,-65,-31,20,3,1,-15
1490139518978,20,10,-26,53,42,5,-18,-28,-19,7,14,-26,-41,1,12,28
1490139518979,-25,-97,17,50,41,12,-13,-9,-39,37,-76,-51,-2,0,8,-5
1490139519027,21,31,18,5,-7,-5,4,2,-4,-25,20,3,0,1,-12,-5
