1490743537064,-36,-58,-112,-42,-63,23,19,-27,18,-14,-88,74,1,48,-108,-49
1490743537112,-23,-6,3,-95,-73,-78,75,30,12,4,36,22,49,1,11,-16
1490743537113,-9,6,-21,8,-51,18,-35,-59,-16,-16,11,0,-46,-111,98,72
1490743537161,18,6,50,14,127,100,5,2,-42,-2,-18,-92,-78,119,-27,11
1490743537210,-88,-37,-13,6,104,67,91,-37,107,54,58,-65,-61,61,1,59
1490743537259,-54,-8,-5,-64,-37,75,17,-41,36,10,44,10,-17,71,94,31
1490743537307,19,8,-18,-84,-104,-128,-74,41,-26,-20,-5,99,127,-10,107,-8
1490743537355,13,18,120,-114,-43,-93,99,43,92,-14,-6,1,34,86,-116,-25
1490743537357,13,19,-44,59,-4,52,-128,-30,12,17,-6,-34,21,19,81,19
1490743537405,37,-1,-108,98,17,-63,-73,61,-12,-28,-128,37,-114,118,-35,-38
1490743537502,-28,18,74,86,127,-8,-2,-31,18,-9,31,28,-88,-128,70,19
1490743537503,23,28,113,-112,-37,127,60,24,-62,-25,77,-36,-53,-39,-74,-38
1490743537551,3,5,-16,28,2,-64,-8,-28,-34,0,-76,-67,-65,-27,41,62
1490743537552,4,-28,46,77,101,104,3,-1,10,4,44,-128,-128,-66,0,-20
1490743537600,14,-6,-127,19,-88,-124,-32,24,0,7,-7,61,25,127,115,27
1490743537649,-9,-9,127,62,127,54,-83,-31,7,-6,80,9,36,-55,29,25
1490743537697,9,-18,127,-44,-47,64,-49,-41,-13,-22,110,42,-8,-9,33,18
1490743537746,10,19,53,81,36,79,-35,-7,3,-3,-128,59,3,90,71,18
1490743537794,-1,0,30,-96,15,36,60,7,-6,15,58,-45,18,-98,-73,-13
1490743537796,20,47,17,-3,23,20,55,28,-9,6,3,2,-10,15,-70,-2
1490743537844,3,10,-36,100,37,31,-21,-4,5,13,14,80,109,84,30,-7
1490743537892,-10,-11,-50,25,68,63,64,-10,-3,-7,-16,-23,-90,-104,-64,5
1490743537989,-11,21,19,9,-72,97,-126,15,-14,41,88,-27,-18,127,100,-5
1490743537990,24,-49,-12,-18,3,-33,19,11,-21,-55,1,-11,1,-1,-24,-15
1490743537991,-11,-24,30,12,37,27,40,-3,6,-28,-43,-3,16,-20,-45,-19
1490743538039,-24,-14,5,-3,5,9,-3,14,13,-3,-29,-17,3,-22,-8,-1
1490743538087,0,-13,10,39,-7,-18,59,9,-15,1,-24,21,13,-21,-101,-13
1490743538136,9,-24,-2,-16,-12,-7,8,-19,-9,-52,-22,-22,13,74,48,24
1490743538185,26,7,61,104,106,20,-56,-15,-1,10,-73,-25,-96,-79,-19,-8
1490743538233,-5,84,64,29,28,-20,-43,13,13,53,102,122,127,14,62,0
1490743538234,-12,-40,-35,-22,-10,100,-25,16,11,51,51,68,86,97,45,12
1490743538282,-11,1,2,8,37,-128,-120,-56,-7,-31,-28,-63,-89,73,114,15
1490743538331,-14,-25,4,72,40,37,88,3,3,-18,-4,-15,67,69,35,34
1490743538477,35,-14,-76,-63,-90,12,51,23,-23,4,68,51,9,-26,-96,-34
1490743538478,-28,18,70,64,108,127,88,25,14,-26,-96,-53,-104,58,-27,-30
1490743538478,16,31,101,24,66,41,-9,24,-29,-62,-96,-37,-88,-96,64,5
1490743538479,11,12,29,102,88,107,41,-32,-5,49,15,-42,-7,127,-17,28
1490743538526,-34,-87,-5,42,48,18,31,-16,18,-20,92,-35,-13,25,-20,-1
1490743538575,-26,-56,-79,80,-31,-99,-14,-9,54,-16,16,32,-29,112,-20,52
1490743538624,16,18,49,51,70,53,89,56,-60,18,-69,-112,-102,26,102,-4
1490743538672,5,-10,-57,-21,100,-42,-31,-22,10,26,46,24,15,-80,74,7
1490743538673,10,3,29,21,-1,37,-3,-5,12,-32,-86,-20,10,-113,-100,-23
1490743538721,1,3,12,-128,-43,47,-38,-17,-24,-2,19,127,56,49,50,-23
1490743538770,30,24,44,-10,-22,102,73,16,-30,3,-2,-18,-58,-47,-100,-41
1490743538819,4,-2,12,27,-41,35,77,8,-16,6,41,2,9,-4,-18,45
1490743538867,-36,-17,-6,-128,-77,43,-5,12,6,7,30,103,-8,25,-5,-12
1490743538915,-43,-13,-12,84,114,114,80,-3,-6,26,17,-7,39,-128,44,45
1490743538917,1,24,74,33,24,-128,-72,-31,52,-21,-61,-55,52,81,72,95
1490743538965,17,-12,-44,11,127,41,-128,-68,-32,2,15,-88,11,-30,21,-10
1490743539014,-23,-27,-58,-91,-33,-89,-22,-84,0,13,50,-74,-12,-17,51,17
1490743539062,-10,-5,-91,-107,-77,-88,-63,-2,-10,-7,20,-1,0,127,34,25
1490743539112,47,-3,-30,52,18,-128,45,-20,-31,-13,32,35,-114,105,21,38
1490743539159,-15,0,11,-101,26,73,21,77,-45,5,108,56,81,38,18,-108
1490743539160,-6,4,42,127,51,-128,18,49,-2,-3,-15,0,121,127,-29,-102
1490743539209,28,9,-12,18,26,-128,117,65,69,36,27,-60,-93,127,-90,39
1490743539257,9,-59,-117,-73,-67,87,31,14,-18,48,65,-93,-35,22,20,-32
1490743539306,20,-22,-98,-99,-128,0,-83,-64,-20,-39,-35,-84,78,68,-32,17
1490743539354,20,6,33,15,8,-37,11,-34,-17,27,49,-51,-87,46,57,26
1490743539355,-10,-1,49,58,51,-4,-60,-38,4,30,-46,9,-6,10,84,-32
1490743539404,36,24,5,74,-27,-118,23,68,-44,-21,-32,-12,-83,100,-61,-43
1490743539452,-28,-25,-74,3,-65,-10,89,-89,8,24,53,65,127,-58,-84,38
1490743539501,2,27,104,-55,-74,-44,-32,57,-12,-20,-34,124,106,33,-53,-36
1490743539550,-26,1,2,-41,20,127,9,-30,-17,6,67,66,18,94,73,9
1490743539598,-14,-19,-84,-54,-34,-128,-46,-17,6,-3,-23,8,8,111,-7,-10
1490743539599,-17,-13,-11,61,12,-72,2,4,39,-6,2,-7,-16,-95,-14,-16
1490743539647,13,4,-10,-44,-4,6,-8,15,-7,2,17,43,18,16,7,-1
1490743539696,9,-8,-1,32,22,-2,54,15,-13,-2,10,-27,-17,-44,-34,-11
1490743539745,3,21,2,4,-27,65,36,2,-5,-9,-15,40,30,-29,3,3
1490743539794,-5,0,36,56,40,42,32,12,6,-1,-41,-86,-21,-18,-29,3
1490743539843,38,66,12,-29,-106,-95,-29,10,-16,4,11,10,62,53,20,-4
1490743539844,-24,-11,15,11,1,8,8,-9,-2,2,-53,-67,30,19,14,-16
1490743539891,6,-21,-8,-35,-25,-74,-30,-10,-18,-17,-6,18,-26,-2,-18,5
1490743539940,-11,5,3,28,-26,24,-18,-13,26,-7,-44,-24,-72,-62,-38,-1
1490743539989,61,-1,34,0,-25,21,33,41,-11,-14,17,9,-21,-4,19,1
1490743540037,-11,-20,9,29,43,31,15,6,-10,-2,9,14,17,-3,-5,2
1490743540038,-8,-20,-3,35,5,-20,-7,-2,-20,-10,-20,18,41,2,-7,-4
1490743540086,-7,26,31,16,20,26,-12,-9,-10,10,4,19,18,-12,19,5
1490743540135,5,67,-15,-8,6,12,18,-3,-7,35,5,32,28,16,20,2
1490743540232,-1,-112,-9,-15,-26,-77,-40,-3,13,-98,9,-5,-48,-74,-30,6
1490743540282,-13,7,-38,32,-15,-5,-6,-2,-7,19,33,22,68,-15,-40,-6
1490743540284,8,63,-11,25,-111,64,-48,6,23,34,-22,-17,-110,-73,2,-22
1490743540286,41,3,6,18,61,66,29,34,5,-35,-76,-79,-128,-78,-18,-23
1490743540378,42,39,18,-9,-28,-59,25,17,-11,19,7,-47,22,43,54,10
1490743540379,-21,-18,4,19,25,101,-14,-40,-10,8,29,-128,-35,103,13,28
1490743540476,-5,20,-59,-46,127,38,-8,-9,9,-8,-91,-68,-124,-68,-6,-12
1490743540477,0,-26,-4,103,-42,40,58,17,-7,4,-42,-11,-25,31,-90,-16
1490743540525,1,-8,-12,-49,-62,-128,-68,-18,-24,0,26,63,8,58,-49,-42
1490743540528,-19,3,8,9,80,-58,-58,-17,10,3,85,93,36,58,-60,14
1490743540574,-6,-8,21,37,-51,-50,-55,-31,19,1,-67,-108,-27,-90,-12,-10
1490743540623,-9,11,42,113,89,37,-30,-8,-16,2,-10,-17,-28,37,76,5
1490743540672,-6,-20,-24,-110,-93,-13,-12,7,10,2,11,54,48,-14,-42,2
1490743540721,-23,-5,52,63,20,-63,44,10,3,0,12,127,73,117,122,6
1490743540724,54,10,33,-121,62,84,-39,49,-32,-23,-36,86,11,-101,14,-50
1490743540771,-16,-4,-6,-26,-18,-11,41,4,5,0,44,9,19,76,-70,-4
1490743540818,12,-13,19,-29,-124,-22,-104,-72,-17,2,-32,-82,-39,-8,-53,-5
1490743540867,11,3,-44,16,24,4,-36,9,8,-28,-11,-94,-84,127,78,9
1490743540915,-18,-23,-69,7,70,96,56,-41,13,10,30,-26,64,-13,-81,35
1490743540963,-4,-1,28,71,32,-47,-24,8,32,-1,9,-54,98,66,39,25
1490743540964,-23,-21,12,42,-84,-21,-1,-25,-3,34,-15,-40,58,-43,59,60
1490743541012,51,17,1,84,-10,-120,43,-16,1,8,-3,31,59,68,-26,41
1490743541061,-17,-15,-24,-128,3,122,39,0,-18,-3,51,127,65,-104,85,-7
1490743541110,-14,-20,-15,40,73,-107,-125,20,59,-2,77,107,-10,120,6,-25
1490743541158,5,-19,-113,-128,105,50,-102,-67,-34,9,60,96,110,-117,-8,-47
1490743541160,12,-12,-53,58,84,-84,-7,14,-34,-19,-33,-58,-29,74,-30,-37
1490743541208,-14,5,26,5,-69,115,-49,5,25,55,127,23,38,38,114,56
1490743541257,20,-24,-80,9,-103,-128,50,1,-24,5,81,73,9,127,-46,-25
1490743541305,-14,-20,-91,-76,-53,60,59,3,-20,-13,-40,-100,-86,-116,-22,-5
1490743541354,-4,13,106,80,116,-19,27,4,10,-12,-94,-93,-84,28,-43,17
1490743541402,16,1,-63,0,-47,-96,-107,2,-8,-13,-21,-42,-2,63,83,12
1490743541404,-8,12,-43,-62,30,-53,73,-18,5,16,68,23,75,118,99,7
1490743541451,-20,-12,-69,-67,-21,66,-66,-53,7,13,63,62,6,8,127,16
1490743541500,20,34,116,74,60,90,-18,29,-9,-18,-91,47,27,-98,-84,-31
1490743541598,-4,-4,-14,-44,-40,-5,35,6,-7,-21,-48,-106,-10,127,-34,-24
1490743541600,23,-3,-113,-128,-126,-128,-30,-8,-19,-22,-51,-88,-30,-50,-5,-35
1490743541648,-7,-10,-37,-39,-18,-7,-52,-13,-3,6,25,17,22,-3,4,-20
1490743541656,13,-7,-22,-31,-15,-84,-8,-10,-1,6,51,-41,75,127,-22,23
1490743541697,-10,3,0,29,16,-13,-26,-13,-8,1,-9,49,34,-1,2,-16
1490743541792,-5,-18,16,-4,-18,-30,7,3,-3,-9,-16,32,22,0,-17,-10
1490743541793,2,3,-1,-33,2,0,-1,-5,-9,-19,-15,-6,-13,-40,-68,-13
1490743541840,-13,-19,1,25,30,22,-7,0,9,12,-35,1,4,20,12,27
1490743541841,7,-128,-3,-24,-64,-28,1,-1,10,-128,11,4,2,40,-7,-1
1490743541890,-10,6,-13,-7,14,-4,4,-3,-23,-8,15,-18,7,4,-13,-12
1490743541939,-1,5,-29,-7,50,8,23,13,-5,-2,9,-67,41,55,6,2
1490743541988,-13,24,81,90,98,-18,10,11,13,-14,-105,-93,-124,-97,-52,-3
1490743542037,23,-6,-24,-44,-94,25,-41,-13,-3,6,-3,24,43,63,11,24
1490743542084,-16,-25,-72,-95,-128,-53,-77,-48,-5,-17,11,-34,2,22,93,26
1490743542085,-26,19,19,37,62,95,41,-6,35,23,38,11,-8,-98,-53,-33
1490743542133,-5,-10,-47,100,1,-41,-64,-7,17,4,21,53,65,8,49,-31
1490743542182,-9,14,45,37,-4,40,86,2,15,4,0,-21,16,73,-41,18
1490743542231,-6,-2,22,65,61,14,-120,-42,20,10,33,-58,-95,2,97,60
1490743542280,0,17,80,110,37,127,97,21,32,-5,-74,-96,-71,-128,-108,-20
1490743542328,-53,-5,-62,-128,-126,67,11,2,41,-9,-21,127,92,-9,64,-3
1490743542331,5,-27,-40,70,2,-83,-99,-22,12,-7,-21,-44,-8,31,-3,-17
1490743542378,-22,-1,28,-19,-18,117,127,-3,19,-4,-41,67,7,-128,-70,15
1490743542426,-12,8,4,-65,4,-20,67,-1,0,12,26,5,-41,38,-10,-10
1490743542479,-18,-7,-5,72,75,-58,80,18,5,27,67,-5,-57,127,52,-25
1490743542523,1,-11,7,-38,-28,-57,-28,-31,0,18,13,86,-10,-42,31,-11
1490743542526,14,0,-16,68,90,-50,-73,-7,-4,-1,-15,22,71,29,-106,-40
1490743542572,43,-10,-13,-34,-35,75,-14,-18,-36,-1,13,-70,-44,67,-47,-20
1490743542621,3,13,27,-2,51,100,-16,17,-17,-15,-5,81,3,-105,80,36
1490743542670,-58,-5,12,29,-15,104,127,-10,10,-12,52,47,72,-117,10,37
1490743542718,14,18,62,26,4,123,66,71,-74,-17,-78,-82,-105,-92,-20,-42
1490743542766,20,26,36,-36,-65,51,104,39,-1,12,23,-1,45,122,91,62
1490743542768,27,-8,-21,-76,1,-1,21,40,15,-9,6,111,0,-25,-19,12
1490743542816,4,4,-41,-107,5,25,53,27,-1,29,59,-9,-128,127,-59,0
1490743542865,-6,-14,-114,-33,-69,-20,-115,-43,43,-20,24,52,57,118,-59,-26
1490743542917,-23,29,127,124,109,-1,-63,-2,-16,5,-54,-124,-128,27,84,-26
1490743542967,34,12,-14,-51,-35,98,19,-61,-32,-8,4,27,26,60,-33,-11
1490743543011,12,-10,-79,-42,-45,-94,16,29,7,-21,-63,-118,52,59,-20,-28
1490743543013,-3,11,57,46,66,-95,-14,-4,1,22,85,-21,-44,22,22,31
1490743543060,-16,-3,34,75,-30,-112,-76,-9,11,10,-66,-73,76,-62,-43,-1
1490743543109,6,1,88,17,41,58,-44,7,1,3,3,-65,-21,-1,1,-29
1490743543158,0,-17,-48,16,-27,-2,5,-25,-19,1,38,31,75,85,80,10
1490743543206,-3,-3,19,-48,84,127,63,6,1,7,-19,77,-35,-79,-87,0
1490743543208,-3,2,-6,-29,-10,14,60,-21,-3,-3,-70,-128,-79,34,9,-31
1490743543255,3,9,48,111,72,-128,41,34,13,9,-14,97,-24,3,36,20
1490743543304,-8,8,11,22,-61,20,97,31,-13,-8,-29,-127,-93,-37,-128,-29
1490743543353,3,10,43,64,78,84,12,-5,-5,10,40,31,37,70,-6,18
1490743543409,3,-14,-86,-71,-89,-103,-61,-25,6,5,-15,-30,15,-31,-16,2
1490743543453,14,14,-29,-17,7,-9,15,14,-5,0,-16,-82,-44,-25,3,4
1490743543453,11,-15,1,12,-52,-2,-31,-1,-4,5,4,79,16,-29,7,7
1490743543498,10,-1,-22,10,60,-28,-69,-8,6,-1,-4,-58,-23,-4,59,6
1490743543547,-9,106,25,15,13,-78,10,-16,-20,-6,-11,-28,14,10,-34,0
1490743543596,-5,-18,-13,-57,-19,12,-16,-5,-1,5,13,8,-14,-38,22,2
1490743543644,-5,-25,7,14,10,24,31,9,2,-22,-27,-5,13,29,-26,9
1490743543645,6,-7,17,10,102,28,2,8,-3,-3,-19,-26,-102,-127,-36,-3
1490743543694,0,5,4,-11,-23,-34,-31,-2,-16,-25,-6,9,29,71,41,12
1490743543844,19,-88,-22,-42,-48,-86,-23,-3,-6,-71,7,14,-37,-46,-32,-7
1490743543846,16,-128,16,28,6,-37,35,33,-5,-124,1,-15,-12,95,-8,-10
1490743543848,-18,77,9,27,70,-97,-19,-25,-22,16,32,38,69,57,9,10
1490743543894,-25,-123,49,42,113,127,39,-24,10,-109,28,82,-128,57,59,36
1490743543910,2,-18,35,11,-3,-55,-43,-18,-12,32,12,39,84,106,17,7
1490743543937,3,82,-77,-67,-118,-37,-24,7,-16,40,-4,-5,74,-25,-30,-27
1490743543986,17,-128,-32,-7,-56,-14,-49,14,-2,-15,-30,-128,-128,58,-17,18
1490743544035,-23,-56,10,0,-59,6,7,5,0,15,-28,-53,28,-7,7,-6
1490743544083,-16,52,-4,-20,16,81,94,17,13,49,-18,-54,46,-16,-126,-16
1490743544131,-2,25,91,127,64,0,-18,14,10,8,-9,-44,-13,-8,-30,1
1490743544133,-23,-6,-3,-23,65,26,-35,-38,18,14,-5,-46,-24,0,63,34
1490743544181,0,2,-28,127,33,-64,-117,-56,29,-3,-18,-39,-67,118,58,-34
1490743544230,-11,-8,-17,-35,-116,-128,-58,-40,-14,-13,-7,-7,50,74,-25,-4
1490743544279,-1,3,23,54,-56,-47,-63,27,12,-7,-9,-71,38,73,-22,16
1490743544327,-15,-22,-42,-84,-102,-95,-39,-14,39,27,32,6,0,75,4,1
1490743544328,-21,-24,-55,-63,3,50,-59,-56,-21,2,64,40,33,21,58,38
1490743544376,3,125,-1,25,2,-113,-75,-15,-7,127,-23,-21,38,-94,1,-5
1490743544425,-28,-28,-8,-107,-103,-67,-9,18,16,-30,3,83,81,91,57,2
1490743544473,38,33,26,46,112,-72,-20,-14,11,-66,14,64,67,-24,99,40
1490743544522,14,29,28,-60,-84,-5,31,-3,28,15,-25,-61,-54,-77,-11,6
1490743544570,2,-9,20,41,34,102,103,25,-11,28,89,105,89,-7,-63,-49
1490743544572,13,29,69,32,90,-98,-67,14,-27,13,42,-30,74,127,20,5
1490743544668,1,14,79,108,127,85,-8,-6,-16,11,-34,-65,-113,-61,-128,-14
1490743544669,54,18,-14,111,87,96,127,92,-28,9,64,77,76,30,-48,-48
1490743544718,-25,-16,4,-49,-97,73,-60,-23,-5,7,8,-50,-103,-128,96,20
1490743544766,13,17,48,31,38,5,90,44,-36,-9,22,-69,-62,104,15,-1
1490743544814,16,16,14,-119,-79,64,-25,-15,-43,-7,51,47,76,116,-45,-23
1490743544815,-9,-2,-81,-58,37,84,35,-59,16,19,81,98,66,-57,-128,3
1490743544864,8,-9,25,2,83,50,87,0,-3,-2,66,-45,-30,91,120,35
1490743544913,2,36,115,95,36,102,3,5,-5,26,18,127,108,104,127,81
1490743544962,14,25,-20,32,44,-128,-28,9,-23,-19,-4,-76,34,120,39,6
1490743545009,-9,-3,69,35,36,59,6,10,5,-14,-104,-40,-80,-53,-71,-40
1490743545011,-8,-11,3,5,28,42,-27,-7,-28,-12,40,51,65,73,58,-14
1490743545107,22,42,117,-86,57,78,55,61,6,-26,18,127,84,69,-13,-1
1490743545108,-2,-12,8,-9,-28,20,-5,-9,-4,11,-8,-24,10,0,16,21
1490743545157,-10,6,16,42,57,54,41,4,5,4,-6,-74,-108,-96,-53,-10
1490743545208,-12,-30,11,-15,47,-3,-5,-15,4,-22,-2,-2,4,9,3,11
1490743545253,2,7,-36,-15,-97,-44,-50,-13,-6,5,-23,-6,6,-9,-17,7
1490743545254,19,21,-16,-19,-70,-101,-1,-5,-2,29,17,-9,10,21,22,39
1490743545302,9,-6,-21,-37,-79,-59,-16,-3,29,-2,-4,-20,-41,-9,-29,-2
1490743545352,8,-10,-7,-8,14,21,-3,12,11,37,14,24,-5,6,17,1
1490743545400,-20,40,117,24,44,17,-7,1,-13,-46,119,5,16,10,33,-2
1490743545449,-1,6,-22,26,71,58,-16,-20,5,7,-74,-30,-13,1,-11,-7
1490743545546,-4,8,36,8,114,74,46,18,5,-29,-27,-87,-112,12,-16,-16
1490743545549,4,-3,-15,-15,1,-60,0,17,-23,13,52,-2,40,-28,-8,-44
1490743545551,21,-34,-46,-78,-47,15,6,-25,-7,12,21,20,60,68,-2,11
1490743545603,21,-33,7,41,19,126,-2,-9,-35,-11,-6,-47,19,127,-22,-4
1490743545643,-9,-113,32,4,18,-43,17,11,6,-128,6,38,18,-9,57,11
1490743545692,14,-36,-66,65,7,-128,-11,-9,2,-45,-65,-92,-85,-117,-53,-43
1490743545694,-9,12,26,127,64,127,90,42,12,41,-5,34,39,-43,47,26
1490743545741,-36,25,45,102,56,101,53,-1,30,-4,-27,-75,-55,-92,-40,13
1490743545790,22,36,6,101,74,-76,-37,11,-17,35,-5,-71,-32,6,-12,-29
1490743545839,47,-27,15,29,21,-9,23,52,2,-13,21,49,59,-13,-65,-10
1490743545887,10,16,34,17,-26,-11,-11,12,-41,20,22,-16,-44,67,68,-14
1490743545936,-1,27,10,-41,28,54,-58,4,-5,40,-15,10,-2,50,81,-4
1490743545938,2,-128,-41,-99,-78,-83,-2,-39,-9,-125,-73,-102,-104,37,-123,-35
1490743545985,8,-3,23,-15,-9,90,27,5,29,-10,-29,117,117,-92,-79,14
1490743546035,-24,18,74,-25,63,38,23,-15,65,24,36,127,6,87,15,58
1490743546083,1,-33,-10,-27,-36,1,37,36,-7,7,58,21,-18,38,63,-53
1490743546131,1,-3,-27,-56,-30,-61,-50,-44,31,-12,-3,-22,36,-54,45,2
1490743546180,45,9,-24,-106,-52,-69,-76,12,-61,-5,-42,18,-128,121,15,-4
1490743546183,-30,-15,-24,-32,-46,22,-57,-45,2,39,85,66,70,-51,-27,41
1490743546229,-16,-11,15,42,119,72,-86,-71,-10,-3,33,32,29,113,8,14
1490743546278,56,-2,81,45,121,82,-74,4,12,-14,-97,-128,-108,-56,-61,14
1490743546326,15,16,98,61,77,43,127,99,-16,6,-79,-84,-90,-2,-53,-12
1490743546374,-8,10,26,-116,-38,67,34,-8,-11,-5,27,3,-80,55,37,44
1490743546377,11,0,-32,2,17,-78,30,-49,-16,-8,39,107,127,98,-4,-32
1490743546424,-19,19,94,-18,-81,21,42,-32,35,22,96,3,8,116,103,108
1490743546473,10,-25,-22,35,61,-24,-34,-9,-15,20,47,-119,-47,44,60,6
1490743546521,20,0,25,17,-8,77,61,33,13,38,98,68,49,-91,57,40
1490743546571,-1,12,86,127,26,21,-46,18,-16,-4,2,61,-108,-23,51,2
1490743546619,11,12,-101,-124,-83,58,-30,-34,-31,-40,-79,-88,-109,-42,-14,-43
1490743546620,1,-11,-49,37,-29,102,30,32,-8,-8,54,42,101,-6,69,-15
1490743546668,-33,-67,-35,9,-10,-115,67,-40,31,29,39,47,-31,83,-19,29
1490743546717,3,18,33,-77,7,120,75,2,-7,5,28,71,52,15,34,-2
1490743546814,-13,-18,7,11,47,127,-31,-32,9,4,-23,-3,-1,-128,-52,-5
1490743546816,-3,61,62,92,9,57,-1,8,2,-15,38,71,87,126,59,18
1490743546818,4,-15,-26,-49,-22,-61,11,-20,-5,-4,7,47,26,76,48,11
1490743546910,18,-18,-29,-75,-103,-122,-95,-32,-11,-15,44,55,50,-23,-110,-51
1490743546911,-11,54,99,126,99,62,31,36,-9,36,-27,-6,21,-80,13,0
1490743546960,16,-53,-52,9,79,98,-4,10,-6,-1,56,6,67,-18,3,-1
1490743547008,-45,-15,50,46,40,85,42,1,6,22,4,71,59,5,13,-10
1490743547056,16,10,-3,-19,-48,-128,10,5,-17,-20,13,14,-14,-6,-13,-5
1490743547058,-9,-4,27,61,24,20,44,1,-5,-15,10,42,6,14,-3,0
1490743547106,23,9,-20,58,-28,-66,-33,1,10,-7,-31,-59,-105,9,-1,5
1490743547156,31,9,124,-16,-23,28,31,20,-17,-8,49,-54,94,102,79,12
1490743547204,8,-47,-122,-36,-54,-32,-23,-12,4,-2,-59,93,38,96,127,6
1490743547256,16,10,6,-36,-49,-63,-128,-31,-12,5,-9,-46,52,-53,17,5
1490743547301,68,7,-9,-36,-1,-90,-95,-14,18,26,40,19,-64,-5,6,-10
1490743547302,-20,8,-6,-42,24,9,-11,7,5,-7,-49,-57,94,105,-3,-24
1490743547398,-30,-14,9,75,100,112,31,-10,-15,-34,-70,-77,-96,14,33,14
1490743547401,13,11,-40,-102,-128,-55,-78,21,-20,-14,80,110,-39,-72,15,-44
1490743547448,-26,5,19,8,83,127,61,29,2,-26,-72,-124,-98,31,-3,-31
1490743547495,-5,12,47,78,32,-113,-94,-15,26,14,-5,-117,6,127,126,30
1490743547497,-20,-12,-24,-120,-96,77,88,1,22,15,-7,86,26,-128,-30,-6
1490743547546,-18,9,-15,-32,-59,14,101,-22,10,63,-43,-128,-45,-45,-100,-23
1490743547594,8,-28,-58,-74,23,51,-30,-48,17,40,53,6,22,-27,-40,71
1490743547643,4,-128,60,125,127,90,10,55,-20,-117,13,-44,-66,32,31,7
1490743547691,-8,11,-53,-54,82,-77,-77,-100,12,27,38,61,65,-16,111,80
1490743547739,-8,-14,-44,31,55,-86,-30,11,15,36,44,-36,-10,118,32,-57
1490743547741,-6,32,-65,-55,-63,-86,-96,-63,-29,2,-4,12,50,93,65,7
1490743547789,36,-18,-3,-22,-58,4,-98,25,-22,34,70,13,127,101,42,-33
1490743547838,-29,-123,-2,-65,27,62,67,-1,-36,-43,-23,-51,-84,-59,-93,-35
1490743547887,20,-5,-4,-63,-12,32,-32,-21,11,35,49,-125,-86,34,119,52
1490743547937,6,44,-48,-70,-90,4,-2,-4,-25,-18,-75,-22,-56,100,-128,-30
1490743547983,59,-7,41,57,61,-105,105,64,-43,-69,-33,-50,-21,-31,52,-75
1490743547984,-38,-27,-75,-54,-44,-105,46,-66,49,20,73,-32,-48,32,-44,29
1490743548032,-53,-1,40,91,-89,20,61,29,-39,-17,-72,-72,23,5,-33,-43
1490743548081,7,-4,21,-55,-4,22,28,-7,-16,27,55,25,79,-14,-86,42
1490743548131,-23,8,77,115,67,-22,5,-27,-7,16,-77,-72,62,-128,10,-45
1490743548178,-37,-17,-65,-84,43,-61,-31,0,-23,-34,-93,-59,-109,-43,-59,11
1490743548180,-19,-3,22,-39,-86,87,55,-18,59,-4,15,74,21,-29,-3,7
1490743548228,2,-13,-82,-117,-75,-50,-9,35,4,-9,-4,9,-23,127,82,-49
1490743548277,17,42,74,39,46,-35,54,52,-18,-19,-95,69,46,-47,-83,-9
1490743548326,-16,-42,-21,66,20,32,5,-61,-2,18,43,-81,-31,65,-72,46
1490743548374,10,43,-33,-84,-64,86,-39,51,-7,-4,13,7,51,-97,23,-28
1490743548422,0,-10,-16,-15,-35,-103,-43,7,1,-13,37,29,18,73,46,13
1490743548423,26,69,45,64,9,94,30,6,-7,11,56,12,127,-81,-34,22
1490743548471,-14,-38,-14,-111,-31,-42,5,-25,32,82,74,26,30,127,-19,34
1490743548568,-2,-4,31,8,90,1,-45,-4,-6,-12,-65,102,-21,-23,-6,-28
1490743548570,2,-1,-124,-75,-78,-59,-39,-5,1,-4,-102,-128,-86,-49,-5,1
1490743548618,6,1,20,56,-1,-2,16,19,-10,-7,10,19,-35,-17,-37,-18
1490743548665,-6,26,-33,24,46,43,-23,-23,7,18,61,122,100,-28,2,28
1490743548667,24,111,9,-51,-29,-42,7,5,-20,12,45,-2,-18,41,21,10
1490743548715,-6,92,3,-1,-11,-60,-56,-15,-2,124,-6,-9,-10,48,75,7
1490743548764,-16,-112,-16,-16,-59,-58,-67,-43,15,-69,-21,-51,-64,-61,-12,1
1490743548812,12,-65,-41,-24,13,-13,18,11,-24,-32,0,-3,40,73,31,-16
1490743548860,1,-73,-12,-27,-54,-16,6,9,-5,-24,3,-46,-27,-49,-36,-29
1490743548862,-9,-49,20,57,111,81,91,-1,-4,19,-9,-51,120,-36,-49,1
1490743548910,22,-128,14,-13,-42,-11,63,8,23,-103,9,54,95,127,39,24
1490743548959,24,-25,-5,120,-80,-105,-35,-6,4,7,71,83,70,-5,32,31
1490743549007,-21,50,52,35,27,-114,-61,51,-35,48,20,64,52,95,41,-13
1490743549057,8,8,57,-2,83,62,68,38,-25,5,-71,-103,3,80,48,-9
1490743549105,-38,-22,5,125,78,-97,-23,-36,22,-26,-7,-16,-96,85,92,45
1490743549107,-4,46,51,10,-40,1,47,63,-15,-37,-128,-104,-128,-33,-111,-69
1490743549202,25,120,86,42,78,-128,-71,-13,-11,34,-55,-44,58,127,15,19
1490743549251,-16,-63,-108,-101,-93,127,-45,-25,19,-37,-59,-103,-113,-128,-122,-33
1490743549252,34,-118,-90,-74,-73,-66,115,31,-12,-116,73,-15,-36,-11,-61,-17
1490743549300,5,4,72,-44,-95,98,-109,5,40,37,2,91,94,-68,114,29
1490743549303,-3,50,59,70,62,127,34,-24,-16,37,21,100,86,-72,9,39
1490743549349,-7,33,-19,-56,-18,-41,7,-2,-6,30,-14,-73,2,-8,-88,-28
1490743549397,-15,-37,-92,-127,84,102,-107,-12,-12,-3,-40,-23,-48,109,-42,-63
1490743549446,-6,32,32,30,103,-56,7,-5,-3,9,7,20,35,-46,-28,-6
1490743549495,-23,-36,-92,-39,-117,-76,-128,-10,17,36,60,76,109,103,59,-17
1490743549543,-12,-15,-9,-128,-53,-96,-86,-58,19,26,75,107,67,127,-59,30
1490743549545,78,38,-1,-105,-52,8,-60,42,-48,14,-47,97,127,72,106,-39
1490743549592,27,-8,-15,-93,27,51,55,39,5,0,99,127,93,127,49,36
1490743549642,13,-15,-3,-69,-12,62,54,26,-19,-35,-42,-23,19,67,63,-4
1490743549690,-28,-5,-28,-61,-57,82,9,-39,-11,8,52,-9,52,-128,-70,65
1490743549739,4,-24,-57,-47,-58,0,-45,-79,5,12,-2,36,-109,-7,75,90
1490743549836,13,-13,-111,-77,-79,-128,-99,28,-19,28,122,95,114,127,-33,-85
1490743549839,6,4,84,50,-13,1,-20,-36,-7,8,11,75,-64,105,122,26
1490743549845,0,1,-76,-40,-119,-76,23,-16,-9,-35,-61,-27,116,44,-3,-37
1490743549886,11,11,66,112,127,92,-101,25,-17,17,-20,-16,-21,-4,101,28
1490743549933,-17,2,-33,-4,-117,16,127,26,38,11,9,109,72,12,-114,-25
1490743549981,-14,7,22,52,-6,5,105,-12,24,11,43,-80,3,-23,-61,11
1490743549982,-2,-23,7,86,127,55,20,-1,-8,12,19,-67,-42,-54,8,-17
1490743550031,-2,-9,9,-46,90,-69,-85,-36,-9,16,72,84,70,127,12,-40
1490743550080,-3,7,1,-7,9,10,46,8,-10,-1,98,0,127,127,60,3
1490743550128,-8,-6,-62,-87,-128,-120,8,-28,-6,-9,-37,10,-82,43,-120,-65
1490743550178,0,-18,-30,-81,-53,-90,-101,-26,-1,5,50,120,127,47,-31,5
1490743550226,-6,-5,6,39,0,-28,-12,-15,1,4,37,51,82,109,105,35
1490743550228,12,-4,-6,-9,75,59,12,-10,11,6,53,11,5,8,30,25
1490743550275,1,13,27,22,-39,-15,-6,11,1,-3,97,126,127,127,25,5
1490743550323,-26,57,33,14,1,-65,-64,-19,-5,58,110,99,-68,44,-7,7
1490743550372,-9,-73,61,80,-44,-40,-31,-16,-5,-115,-3,-100,104,59,32,0
1490743550421,-3,-9,-63,-53,-16,-29,-46,-44,29,35,-35,46,122,52,20,46
1490743550469,8,90,-24,-1,12,46,-9,4,-15,127,-17,35,-82,-40,-10,5
1490743550470,6,84,13,37,-31,2,25,8,8,22,40,-3,19,-31,-4,6
1490743550521,-39,-11,32,15,48,45,19,13,6,9,28,48,26,-128,9,-5
1490743550568,21,6,-60,-83,-101,-52,38,8,-32,-14,45,-86,82,92,-39,-11
1490743550620,-15,-65,14,53,88,82,18,-10,27,-30,39,62,77,-102,48,33
1490743550667,10,4,26,14,-1,53,-25,-1,-26,12,48,127,79,110,37,-1
1490743550670,-5,72,48,49,-94,-113,-92,-30,-10,28,-5,-53,-96,42,78,3
1490743550714,4,-46,-22,-40,-4,-60,119,47,1,15,101,71,69,106,-77,-32
1490743550763,-2,21,-74,-72,36,-84,-6,14,29,19,78,43,-44,-79,-43,-16
1490743550811,8,11,4,63,6,-3,43,32,-29,33,100,82,103,127,109,17
1490743550860,17,18,11,68,-4,-83,-9,20,-18,28,82,76,61,47,86,12
1490743550910,-16,-7,-72,-51,-107,-94,-102,-32,27,-17,-49,-63,12,-1,27,-24
1490743550911,-46,6,55,92,51,11,81,-14,55,42,39,-20,-76,8,-6,19
1490743550959,1,-31,46,51,120,127,-42,2,-65,-65,-103,-109,-128,-17,27,-41
1490743551007,-16,17,-9,-125,-3,36,16,-15,-12,-9,-11,69,60,-61,101,8
1490743551057,-63,-11,-42,33,-81,85,-42,2,26,22,5,-62,37,-90,-19,-9
1490743551104,5,23,20,-49,-5,-64,105,61,13,-37,-99,-106,-128,-123,-71,-33
1490743551152,-16,-12,-56,88,52,-4,29,0,-1,25,76,120,127,127,34,-14
1490743551154,29,7,19,-23,-128,-128,-49,-1,29,26,84,-9,97,127,82,43
1490743551201,-72,-18,5,-116,-87,75,29,-29,28,11,45,47,127,-106,-43,-33
1490743551347,-30,11,43,7,75,68,-86,-69,20,4,69,127,96,88,46,26
1490743551352,-54,-6,-5,82,127,-41,-8,-18,24,-31,-105,-97,-128,43,-21,-6
1490743551353,15,10,37,4,71,69,22,14,40,-8,-23,-25,10,-125,-2,62
1490743551355,20,-5,-78,-128,-128,2,-104,25,-31,-19,-46,-83,-46,-76,25,-22
1490743551397,36,-36,-59,-59,-102,-13,-65,43,-27,5,41,71,127,107,-17,30
1490743551445,-28,4,29,56,66,25,10,16,-7,28,127,125,-42,40,113,50
1490743551493,14,32,-22,-128,-95,56,99,28,-74,-12,-29,-46,-65,18,-88,-64
1490743551542,3,39,83,100,54,10,-113,22,-37,-40,-35,-88,-92,-82,92,1
1490743551590,9,2,9,-52,96,59,41,-7,-2,-4,12,25,-65,47,22,20
1490743551591,-28,-13,-18,-128,-128,-124,-121,-61,-13,-10,8,36,36,127,17,71
1490743551640,-11,9,72,56,63,37,9,5,4,-4,-55,-68,-123,-128,-30,-31
1490743551688,-52,26,127,53,-47,102,46,34,-9,-29,-113,-93,-118,-93,-75,-38
1490743551737,-7,4,-18,8,-128,-47,69,39,28,9,-6,-79,-76,-18,-58,-15
1490743551787,-14,-35,-122,-128,-59,8,-55,-15,3,-2,-57,-105,-81,-88,13,-57
1490743551835,-1,-5,-14,-102,-104,81,-33,2,9,2,-7,-26,106,-1,-2,-1
1490743551837,16,19,99,125,81,-28,108,45,-3,23,52,75,47,74,55,18
1490743551883,1,17,70,36,-17,37,44,61,0,-4,-5,-51,-115,-80,26,38
1490743551932,-7,1,7,1,-44,4,5,-21,-11,-9,19,-4,39,127,98,22
1490743552029,8,-2,-11,93,5,-87,-58,-12,13,73,119,113,125,106,122,57
1490743552030,0,-4,24,-11,71,45,19,12,-8,9,24,88,-69,80,68,10
1490743552031,-32,85,-96,-46,-91,74,52,0,28,116,-69,-3,-125,-125,-86,-31
1490743552078,-16,49,51,24,25,-26,-22,32,5,69,-101,33,-128,-39,-28,-25
1490743552127,12,-115,-30,-17,-61,17,17,8,11,-54,47,-90,73,104,18,-15
1490743552177,-26,-52,-12,11,-36,-55,13,-26,35,-42,-44,-23,-21,-77,-46,0
1490743552225,8,3,-3,5,62,23,40,7,-34,21,71,117,46,-28,-7,-7
1490743552273,-8,14,41,91,41,-61,-24,-1,-10,18,23,34,79,81,22,8
1490743552275,27,4,26,40,24,-21,13,40,-18,5,30,-26,-70,-17,-44,-15
1490743552323,-1,0,30,55,-28,-44,-52,-23,34,18,18,-56,-23,7,-4,38
1490743552371,-6,-14,8,-41,15,95,14,-6,-11,-18,-11,76,127,2,-14,1
1490743552420,2,-21,-84,-110,65,-11,-43,-20,21,30,66,102,28,-9,62,12
1490743552516,-34,20,-4,90,63,-36,-4,-3,21,7,-89,-119,-112,90,67,12
1490743552565,-5,9,30,39,24,127,9,-17,-16,-26,22,51,95,-5,-24,12
1490743552566,-41,-9,-95,-42,32,18,-40,-27,44,8,31,-116,-19,17,45,-27
1490743552567,7,9,-55,-66,-128,-53,-91,-16,-19,12,97,125,127,127,77,-3
1490743552615,43,19,56,-11,62,-106,-77,6,-30,-1,14,-97,17,47,5,19
1490743552766,-26,-1,-5,-79,-17,6,-15,-36,4,-31,-60,25,79,21,-18,-30
1490743552771,26,33,83,85,32,103,108,61,-4,18,-12,-20,-43,78,-106,-18
1490743552774,-46,10,46,115,60,0,28,-26,36,-26,84,-70,-47,79,-56,-13
1490743552783,-16,0,-85,-4,0,-128,-76,-36,-27,-9,43,126,81,48,-6,1
1490743552812,-31,-14,-20,-106,-128,127,127,30,20,-13,-72,-81,-76,-128,-92,-28
1490743552858,65,35,-22,4,-15,55,81,59,9,2,12,-68,60,-58,-29,-16
1490743552907,-1,-16,-9,-10,71,-87,-33,20,-16,-10,15,23,-88,-98,127,21
1490743552955,32,-8,-3,59,50,-19,-96,-2,32,46,122,96,67,86,-50,28
1490743552956,10,-7,-24,3,28,-72,-121,24,1,-16,44,18,42,106,100,46
1490743553005,31,22,112,127,95,58,85,-9,19,14,25,-61,-116,25,-90,34
1490743553101,27,-8,-28,-53,19,-26,-6,-51,6,-16,-70,-103,-11,-2,-62,-17
1490743553102,-21,-29,-1,16,-52,-61,-82,-5,46,-14,-46,10,-72,-78,123,47
1490743553150,14,22,33,-76,-71,11,67,40,-15,-62,-95,24,-128,-128,-104,-46
1490743553152,53,-8,-46,-77,-55,-73,-126,32,37,26,15,-53,77,35,108,-16
1490743553200,103,28,-30,-76,68,-128,-97,77,-33,13,70,67,103,-24,-43,-30
1490743553249,-41,-13,-1,88,29,114,-113,-110,-5,-1,-4,75,-97,51,63,51
1490743553345,-31,18,113,-32,-53,127,100,23,-4,-6,-56,40,31,88,84,21
1490743553346,-105,2,19,69,50,91,25,-14,72,-5,-51,-76,-41,-115,-18,-37
1490743553394,-32,-2,-64,-128,-119,-2,-63,-22,-22,2,4,22,89,58,-30,-22
1490743553396,2,-23,-86,-128,-128,-33,-128,-38,-28,-36,-128,41,-128,11,-122,-67
1490743553443,6,-18,-73,-115,-116,-104,-3,-3,-3,-18,-58,-121,-52,46,-103,-47
1490743553492,-5,19,39,51,-12,57,-68,-7,4,-28,-44,16,-94,-128,-110,28
1490743553590,-5,-32,-102,24,-76,-128,-28,-49,3,0,-33,-80,-39,-46,19,6
1490743553592,0,-4,-10,69,55,34,15,-16,17,15,-8,74,-13,-112,-75,25
1490743553639,-3,-2,2,-41,-26,50,32,20,-9,2,39,52,97,13,3,-12
1490743553641,2,29,77,-44,17,-79,-101,-17,-6,-28,-73,-26,-87,7,-128,0
1490743553687,-6,1,24,5,-74,-3,34,7,4,3,70,51,67,43,10,48
1490743553736,9,35,28,50,36,115,37,11,-5,9,41,9,35,34,73,25
1490743553833,-10,-11,24,33,16,89,15,26,-6,12,-39,-46,6,57,85,-10
1490743553834,1,-8,-16,-28,13,-64,-32,-8,-1,25,38,23,74,123,13,-3
1490743553834,-8,-7,-4,26,-5,12,24,-14,6,-5,-16,-41,-20,-53,-2,11
1490743553882,0,32,44,-15,-22,72,37,12,-3,-11,-33,-59,-121,-107,-120,-25
1490743553931,-5,28,63,98,118,127,104,21,28,-10,-56,-87,61,62,31,21
1490743553980,21,23,16,-33,-82,-34,-21,18,-30,-18,26,38,-62,-11,-1,-26
1490743554029,-28,-33,-14,-43,12,51,29,-22,-3,4,4,37,36,20,8,8
1490743554077,-7,-4,1,-19,-21,-17,7,-5,-1,10,11,-9,15,-21,-7,-3
1490743554093,-4,-2,11,-14,-24,-30,-1,-1,-20,-2,-25,46,15,45,6,2
1490743554126,-13,4,38,48,100,116,64,17,0,0,-47,-73,-89,-105,-90,-24
1490743554175,22,15,4,46,64,84,69,11,21,22,9,51,-13,-30,1,-4
