1490654056971,36,-10,-63,36,42,-4,-104,-64,-114,-59,27,55,-89,36,81,-7
1490654057019,14,-71,-84,-81,-74,29,82,-47,127,28,17,7,123,-77,4,0
1490654057020,-128,8,16,31,86,12,-87,-57,-9,-3,-8,-15,-69,70,-15,11
1490654057068,-23,-74,-32,-121,-124,-4,-66,31,-110,26,52,-4,-11,65,-70,26
1490654057117,-84,33,-30,111,60,50,52,114,19,12,26,-79,-92,-80,-33,-23
1490654057166,16,-27,-6,-126,-3,-128,-77,-54,81,-55,-21,-3,69,35,52,10
1490654057263,55,-2,62,65,44,-30,32,27,-17,42,-3,-120,-88,46,64,23
1490654057264,10,-37,0,-37,-67,120,-68,-26,-64,-28,45,120,127,-7,-47,-107
1490654057265,-73,-38,12,52,46,8,-12,75,127,-76,-55,-121,-128,-128,-113,-61
1490654057312,-115,39,-11,-56,-2,127,69,-37,29,20,-30,-36,-78,-55,9,56
1490654057361,-71,14,-33,12,-68,-76,-84,15,6,41,16,-7,127,70,61,54
1490654057411,36,-4,-99,-67,-15,104,10,53,-72,13,59,40,16,127,-99,-20
1490654057458,7,25,-6,-83,38,64,-17,-4,115,19,36,-18,-65,-78,-92,6
1490654057459,-88,-11,-16,3,82,127,119,-13,68,-15,0,-7,-72,-123,-112,-35
1490654057507,19,-4,82,0,-114,-8,-9,-16,10,25,23,14,80,80,122,37
1490654057556,-90,-26,-9,124,17,122,59,16,-73,57,51,57,-43,-73,-85,-21
1490654057605,11,-77,-108,-102,56,7,-75,-4,61,20,113,45,-36,42,12,2
1490654057653,-108,-67,-4,127,-53,-11,-114,-39,-77,-24,-48,-118,-47,89,-45,-2
1490654057701,-106,3,9,56,119,88,-4,-6,-40,-49,31,-5,23,22,-58,3
1490654057703,-96,-90,127,25,-33,-1,19,32,36,-75,53,34,63,-33,23,31
1490654057751,36,90,82,5,19,-55,-13,11,95,10,-88,-3,-5,-51,-44,-12
1490654057799,95,-78,-10,28,2,43,95,33,14,-91,-92,65,30,27,-1,-26
1490654057848,57,127,59,7,-20,-1,-21,-64,75,50,28,7,-39,-65,-15,-101
1490654057896,10,15,-20,-5,0,70,-18,39,117,11,-18,36,21,124,-14,43
1490654057898,-112,90,111,-2,96,-2,127,5,-121,-75,88,42,123,49,63,1
1490654057946,127,-91,-128,3,94,60,-72,88,122,80,126,4,-15,127,-79,114
1490654057995,8,0,-95,-68,-81,-14,-83,52,-5,-87,-128,69,-52,-29,-62,-73
1490654058043,54,-36,-3,106,-24,-38,-38,-128,7,-24,75,-107,-35,16,4,-126
1490654058092,32,26,33,-45,-52,-92,-19,-42,7,59,-20,-97,6,-31,-65,-63
1490654058140,26,-13,-33,-74,-81,-19,-15,65,-17,22,13,-20,-32,4,-23,-53
1490654058141,19,53,-65,22,17,35,1,-1,28,24,-121,-4,-1,14,13,9
1490654058190,-25,127,75,27,13,-56,24,-22,1,127,93,68,68,-7,48,50
1490654058238,-19,-61,-24,11,47,66,3,4,-8,14,-96,-22,-24,24,21,28
1490654058287,-20,-34,69,37,14,19,-48,-29,11,-71,8,-6,-3,18,-19,-8
1490654058337,44,-9,-30,-9,-91,-95,-79,-41,-56,34,-36,-30,12,-26,-9,-16
1490654058384,-37,21,-8,61,84,83,48,36,126,-11,-19,45,61,25,-39,-31
1490654058385,12,-108,-56,-2,-3,20,16,71,-71,-64,-26,-12,-38,-48,-77,-49
1490654058433,34,-54,25,-38,-49,-10,-11,-10,-94,-79,-16,-35,2,20,-21,24
1490654058482,47,-24,24,10,-18,-21,9,10,60,-86,-20,-16,-35,-44,40,6
1490654058531,75,36,-47,-14,42,1,1,2,2,47,-60,-67,-44,-72,-2,-22
1490654058579,-38,0,8,109,91,55,82,70,-114,-49,46,64,98,47,-28,-4
1490654058581,74,-128,-54,-97,-121,-119,-78,-28,43,-46,5,41,7,57,69,15
1490654058628,30,-25,46,-12,51,-85,-41,-64,-81,-69,-82,-89,-123,2,-39,-66
1490654058677,-55,-56,26,102,94,113,-3,8,-48,0,-8,79,49,-66,4,36
1490654058726,-22,-40,-58,-128,-78,15,16,61,20,10,70,12,-62,7,72,5
1490654058774,-34,-64,20,81,4,12,-29,-43,-9,-105,-15,-59,-66,-47,34,62
1490654058823,96,-101,-80,-102,-122,-49,-29,26,115,-16,-102,-37,-20,-53,-74,61
1490654058824,-97,32,14,-65,-36,31,43,52,-99,1,-26,-6,-16,54,11,-44
1490654058872,-97,7,-97,-24,89,7,-70,-16,127,24,34,52,-15,60,126,62
1490654058921,-28,-17,86,80,55,-74,7,-60,-128,101,25,-99,-75,-12,23,4
1490654058970,1,-8,33,0,22,127,40,64,66,-52,70,-28,-104,-106,-15,-38
1490654059018,4,45,-6,-55,-42,-24,-84,-9,27,15,-35,40,59,-49,42,-56
1490654059066,8,-44,3,6,79,46,16,-62,94,-3,-45,16,-22,-10,-25,72
1490654059068,-95,24,-57,-12,-51,-64,-25,1,-57,25,-10,16,62,-22,65,48
1490654059116,92,-47,11,-39,-19,19,24,-1,62,30,46,33,-5,-26,-72,-32
1490654059164,23,-20,-40,-19,-8,1,-24,-16,-2,2,-23,-33,-28,-1,-6,26
1490654059213,22,-15,0,17,17,-86,-17,-13,-1,-18,8,13,29,-124,-49,-42
1490654059262,5,25,-43,67,42,83,61,13,4,-9,40,4,-7,71,-21,-33
1490654059263,2,7,24,0,11,-21,9,-17,38,-74,-20,-12,-14,-7,-2,-5
1490654059311,-67,-12,-16,6,-12,13,39,14,22,22,-24,-12,-5,81,-9,1
1490654059359,-128,-7,-1,9,11,91,-10,-29,-117,-31,-39,-24,19,127,-9,2
1490654059408,-65,-4,23,8,9,-45,-45,17,127,-4,23,-57,14,-103,-75,-7
1490654059457,23,-16,1,9,-53,-69,5,31,-27,-22,-22,-20,5,-24,52,67
1490654059505,-104,14,8,39,-5,-74,9,-40,-17,-12,-11,17,-30,-2,17,11
1490654059507,0,25,-10,12,-18,-54,-30,15,-51,57,45,27,-104,17,71,44
1490654059554,57,3,-6,12,-25,28,-85,21,-44,3,15,21,48,109,32,-3
1490654059603,9,33,29,4,-39,13,-33,19,-121,2,12,15,-37,70,83,-33
1490654059652,-128,-32,-56,-46,-86,-53,-24,-56,112,21,-56,-9,-92,-39,37,56
1490654059701,68,-25,39,49,127,-66,36,115,-17,5,-49,-100,11,-70,-78,-29
1490654059749,-28,1,59,119,127,78,47,81,-69,-40,4,-8,-65,-28,-128,-38
1490654059751,41,61,43,-40,-41,23,-1,6,118,-86,-58,8,-32,-76,-11,14
1490654059798,-50,42,60,58,55,53,67,-42,68,73,59,103,94,67,6,-3
1490654059847,62,-54,-13,40,61,-53,-128,-119,-7,60,99,84,114,85,95,109
1490654059896,77,-40,26,77,62,-128,-128,-127,127,-57,12,36,41,43,36,39
1490654059993,-38,-4,-65,-114,-46,-18,-41,-8,-94,-10,4,4,-30,18,-73,12
1490654059994,-24,-2,-36,-98,-104,24,-54,28,120,1,-21,62,47,-96,-17,-128
1490654059995,89,2,49,-60,-85,-117,-117,47,115,86,-8,-45,19,38,103,8
1490654060048,-6,-35,4,127,127,5,-120,57,-93,-85,-30,-128,-128,25,-44,-88
1490654060091,-101,-22,22,105,89,127,110,-51,51,-38,-64,-103,-108,-88,-64,47
1490654060139,-40,42,14,37,-54,-128,-114,-39,-128,-17,-30,-94,-53,120,4,2
1490654060187,127,-23,-87,-64,-116,-15,114,12,-82,32,61,47,27,61,33,8
1490654060188,77,62,-35,-99,-128,-73,-30,-21,125,28,4,-44,-82,66,-97,3
1490654060237,-87,-34,4,23,127,119,122,-15,-77,-10,-4,102,-41,9,-115,-86
1490654060286,85,-27,-62,-128,-128,-70,2,5,-70,4,34,127,127,91,66,43
1490654060335,-47,-42,-19,99,72,-17,62,16,-65,-15,-11,-77,83,51,-23,-72
1490654060383,127,-10,-30,-61,38,-119,-72,40,0,-20,63,30,94,46,-81,-38
1490654060431,38,28,99,110,-21,116,-68,-4,58,13,11,-111,-114,-103,-50,63
1490654060433,-27,10,2,-65,-65,-68,-109,-25,-66,-24,-27,19,9,3,26,-31
1490654060484,-53,-68,-89,-109,-128,-117,4,-24,40,-14,2,-87,61,-26,-76,39
1490654060530,-15,57,67,51,-27,21,67,23,111,-7,-26,127,86,95,-96,25
1490654060579,57,-19,21,-112,68,10,21,-41,11,37,64,105,-44,-10,-15,-10
1490654060628,25,40,-45,-80,-80,-82,76,10,-35,-2,-100,33,-90,-42,47,-25
1490654060632,-45,-5,-28,-118,127,-9,-36,11,1,-7,-20,-105,-108,-59,-82,-13
1490654060677,-28,-26,-50,77,68,18,-7,5,-67,3,30,112,101,84,22,12
1490654060725,40,-5,-5,-128,-128,-123,-97,-46,6,-15,46,15,-53,-43,-37,-4
1490654060773,-46,44,39,127,71,52,24,16,-38,-81,29,44,38,17,-11,-17
1490654060824,-16,-36,-58,-93,-20,62,43,33,68,4,11,-91,-40,-46,-61,1
1490654060871,112,28,-43,46,18,-45,-1,-4,39,-37,-50,-97,-50,8,-13,2
1490654060874,-27,118,48,-34,-65,-11,5,-30,-33,59,-69,24,61,51,60,27
1490654060920,37,-56,7,-89,-80,17,-31,-38,32,14,46,9,-16,22,-12,20
1490654060968,-66,96,-27,-118,-108,3,-17,-31,-37,111,61,127,107,12,6,-14
1490654061017,-81,-37,5,-2,-70,17,-19,-13,23,-32,-57,-99,-128,-18,-41,0
1490654061065,-14,-110,-36,-120,-90,-80,-37,-20,98,20,-118,-95,-25,-93,-74,-38
1490654061114,-4,-56,16,65,6,-93,-9,15,-13,48,-6,89,6,-40,16,14
1490654061115,-1,-119,-57,29,-56,6,75,-4,-5,-57,127,20,-64,2,74,21
1490654061164,17,26,-40,-61,-34,-22,-28,21,-21,52,37,111,47,2,-5,-11
1490654061212,87,47,47,-31,-3,42,-47,-2,92,-37,0,-22,11,24,-15,-54
1490654061261,-89,56,30,16,27,14,9,51,-6,-68,-54,31,32,47,21,6
1490654061309,-105,127,9,-38,-11,-19,-9,21,-110,90,-50,-61,-11,50,2,6
1490654061311,13,-28,-26,14,12,18,11,-12,94,35,-36,-18,-6,-19,-9,22
1490654061358,59,-23,30,18,19,28,-7,-60,75,-122,26,51,35,22,-1,26
1490654061408,-18,39,-35,-90,-107,-48,-42,-22,91,57,39,20,32,25,14,27
1490654061456,-9,14,-5,7,10,-2,-10,-2,47,17,42,-4,-41,-61,0,-6
1490654061505,-113,-103,-53,-49,-22,-10,-16,-31,-100,6,16,9,15,2,8,17
1490654061553,-101,-3,-10,95,56,-67,-5,-88,54,-57,-6,-110,-27,6,-25,29
1490654061555,-27,98,-7,21,6,38,-11,15,-8,63,31,18,-25,3,30,2
1490654061602,22,-70,7,3,31,85,103,32,-114,-44,24,47,17,-83,-35,-13
1490654061651,-47,-20,-39,-128,-128,-121,-56,-31,13,-16,-6,43,35,127,-5,-10
1490654061700,22,34,7,75,91,-11,-53,25,53,4,-15,-64,-102,-39,48,-16
1490654061748,127,-25,-32,-76,-29,-98,22,-16,-117,-34,38,91,112,29,-8,49
1490654061749,30,-49,25,-19,-74,12,-94,-23,49,34,8,44,85,21,81,12
1490654061797,-39,-23,-6,67,24,127,127,40,28,8,-14,-128,-119,-37,-67,-36
1490654061846,94,24,-25,54,62,50,18,27,13,68,57,56,-12,-41,71,-24
1490654061895,-37,-13,11,7,-8,-16,-36,20,33,-75,-39,-50,27,53,83,69
1490654061943,12,93,-18,-82,-109,-103,-25,-20,1,38,-78,-79,-6,-16,-13,-30
1490654061992,65,61,56,38,84,-56,8,14,107,-55,-19,14,-109,-30,-60,-8
1490654061993,72,-48,1,-89,-69,-8,58,42,-1,-21,5,80,-5,-115,-86,-54
1490654062041,-67,-3,-17,-77,9,7,114,58,-50,-6,-50,-128,-60,-4,-86,-92
1490654062089,-8,-11,-6,61,63,110,85,78,-42,58,19,-48,-5,28,-14,-31
1490654062138,-33,3,-18,64,1,-36,-75,-97,47,-44,29,-31,-60,5,49,55
1490654062187,19,32,20,-36,-70,-23,7,14,-120,31,42,-10,22,-74,-64,-86
1490654062237,-44,23,26,-42,22,37,14,-3,46,11,-31,39,68,59,-2,74
1490654062239,-79,-8,-40,-32,-13,-41,7,-44,53,-16,-5,-5,15,-2,26,25
1490654062285,0,18,50,78,38,9,20,60,-52,-15,-21,17,12,16,-30,-22
1490654062333,-74,-15,-40,-37,-32,-22,-65,-89,99,-1,-20,-30,-15,-46,-19,24
1490654062382,76,-33,-2,-18,13,2,-39,-46,118,24,13,21,28,29,21,33
1490654062430,-85,-33,6,-7,-21,-58,-55,-42,45,9,-9,-31,-9,53,74,25
1490654062431,-22,11,-22,-24,-28,26,11,19,-83,-2,20,120,-5,13,-1,16
1490654062479,-26,-11,-9,6,0,-2,0,32,0,7,2,4,0,21,-1,26
1490654062528,-77,-4,17,-24,41,89,48,34,-67,-32,-27,19,-3,-7,3,27
1490654062577,-106,-6,-7,-1,8,-8,-19,-10,-62,6,-2,-22,9,39,-16,-41
1490654062629,87,1,25,34,21,-26,10,21,-14,-5,-11,35,21,7,3,-24
1490654062674,90,2,-31,5,-60,-32,-62,31,-83,-19,53,89,-4,9,-5,-76
1490654062675,-115,-82,-26,-4,-44,-13,-27,-55,26,-8,-27,-95,68,46,26,114
1490654062723,47,9,40,-66,-128,-102,-65,-68,-73,-12,-17,-108,31,98,77,-3
1490654062772,-20,45,36,127,110,109,24,20,-19,-40,-33,-51,-74,1,93,-12
1490654062821,-39,2,-34,-39,85,-41,26,62,1,-45,-67,104,-85,54,-116,-72
1490654062870,-77,54,14,85,92,4,-128,17,-77,-20,13,22,49,-1,17,-5
1490654062921,-78,8,77,126,-74,100,41,70,-96,12,-28,-59,-73,-91,46,-22
1490654062924,90,-17,-23,-124,47,81,113,88,102,10,57,89,71,84,-91,-79
1490654062967,-51,-16,-18,-80,-128,-122,-81,-72,-40,-33,-73,-128,-77,-71,34,-44
1490654063016,33,16,51,-32,-97,45,-63,82,-106,-3,-10,39,86,96,120,29
1490654063065,8,3,-49,-17,-49,-1,65,41,-58,45,53,103,94,-47,67,-24
1490654063113,-51,-44,51,98,-9,-113,-128,-120,-128,-88,-54,-31,-70,-22,-39,-55
1490654063114,45,-16,33,38,127,127,127,34,51,67,51,96,14,-103,-91,-32
1490654063162,93,0,-13,-102,-82,-61,-98,89,124,-49,-22,7,53,55,-13,66
1490654063211,-36,26,-18,62,127,127,127,68,-50,76,-30,16,10,-84,-126,-35
1490654063259,-41,-19,-41,-128,-128,20,-74,75,39,8,41,64,99,6,10,-15
1490654063309,62,-10,-4,0,-59,-82,-67,-24,-74,-55,7,-8,61,81,5,-25
1490654063356,83,24,21,-31,-90,-67,15,11,-73,-22,-21,-2,40,71,-84,-52
1490654063357,-128,2,101,96,12,15,127,-57,127,-2,0,-18,15,-9,-69,-11
1490654063454,-59,-47,-117,-100,103,-25,-128,-14,29,19,-29,-6,-78,25,83,11
1490654063456,57,60,70,-44,-122,26,65,65,-47,27,-31,-56,-58,94,50,29
1490654063504,-35,-30,-66,74,117,102,109,11,-61,-95,11,-76,-104,-41,11,44
1490654063552,-8,25,69,24,-126,-16,66,42,53,78,-14,60,70,-6,-60,-85
1490654063553,48,60,-10,101,127,-24,96,51,31,37,79,63,57,-33,-87,-1
1490654063649,-84,-2,-48,-128,-126,-66,-93,-67,64,18,-57,5,-26,9,-38,11
1490654063650,31,-7,-4,20,-75,106,42,45,-55,-65,-25,51,-58,-128,-49,-21
1490654063698,-60,-70,11,-78,-128,2,10,4,18,-7,-24,21,127,15,2,-36
1490654063747,-52,-19,-2,58,83,-8,-11,-36,78,5,17,60,81,-95,3,34
1490654063795,35,-38,-82,-118,-60,0,-5,-20,-55,-17,52,-46,70,72,-69,82
1490654063797,9,58,113,115,-21,-98,-60,-53,12,43,-48,-99,-89,-54,37,-10
1490654063845,-25,28,12,127,127,-57,42,-1,-25,69,54,-128,-77,125,16,37
1490654063893,-3,-58,9,127,116,59,-36,-24,21,-16,-36,6,-29,-54,10,-10
1490654063945,-17,8,72,32,-112,127,115,6,52,-50,-15,102,8,-81,-128,-52
1490654063991,115,11,105,127,106,53,40,29,35,-40,-6,-107,4,61,-9,-6
1490654064040,13,-47,-29,23,27,-117,-67,-29,-70,12,62,69,42,-52,-18,-35
1490654064042,-57,-60,-11,75,45,18,18,3,-46,29,-33,55,98,28,-12,2
1490654064136,26,25,50,107,-18,17,12,-10,30,9,-42,-93,42,50,-1,20
1490654064138,-23,15,127,117,104,45,8,1,-71,0,60,73,35,19,27,14
1490654064235,91,69,88,-14,-49,42,17,40,49,-12,-128,-128,-128,-128,-58,-13
1490654064239,31,9,77,6,-22,-36,-3,22,-38,-60,-56,82,5,-6,3,-7
1490654064243,35,-40,-21,-92,8,-19,-19,-12,84,14,-52,-121,-97,-39,-23,0
1490654064290,34,-40,54,97,50,-5,0,-11,36,-106,-10,-3,24,-10,-13,-26
1490654064334,-90,15,9,-71,0,32,4,-46,-72,-94,-3,-2,-40,-2,-7,25
1490654064381,-54,-105,-78,-20,-57,-37,-15,-50,-10,-27,19,-4,-12,-28,4,-10
1490654064430,11,-67,-78,45,31,12,32,61,19,67,-18,-30,-12,-6,52,13
1490654064477,94,-17,47,-8,-2,-21,-22,22,51,-79,105,96,12,-5,-10,2
1490654064479,-25,26,-26,12,18,-9,18,1,-32,32,19,75,24,-1,-1,-2
1490654064527,-51,-128,8,8,11,30,12,11,26,114,-58,-65,-27,-12,-8,-54
1490654064576,-1,22,-69,54,27,39,5,-17,14,-62,110,42,1,22,-4,28
1490654064626,15,86,28,-20,-21,-32,-9,33,6,-33,-14,50,18,18,-7,-19
1490654064674,114,13,9,0,15,10,7,-29,5,63,11,-30,-1,12,8,-44
1490654064722,-127,-24,82,26,29,37,28,54,-56,17,-78,-12,-4,-3,-5,4
1490654064724,-85,41,-4,-37,-5,34,17,9,77,6,-44,-14,2,-1,-4,1
1490654064771,8,-93,-15,-17,10,-5,17,5,114,-72,-48,-30,5,-14,-4,-2
1490654064819,3,71,25,20,8,4,18,27,-84,87,-28,-7,-13,-19,-30,-22
1490654064868,-5,127,-28,-8,0,28,24,1,19,89,-33,-28,-46,-84,-54,24
1490654064916,11,-42,-22,-88,-102,-95,-40,-47,33,-89,14,-26,-58,-32,-68,-12
1490654064917,11,56,64,59,78,58,24,-29,28,106,-23,87,71,98,84,34
1490654064966,107,22,41,-100,-73,-12,10,1,103,14,-35,-78,-84,-64,-66,-26
1490654065015,-53,-5,5,-49,-33,11,-17,-42,-78,5,-53,-22,-27,-96,-81,-36
1490654065111,-57,-1,20,86,88,79,93,-10,75,-43,20,33,36,84,37,84
1490654065112,30,22,-62,-20,48,36,12,43,7,64,11,-45,-66,-106,-50,-22
1490654065160,-16,8,13,39,96,55,-72,-58,15,104,62,127,96,55,43,28
1490654065162,55,4,0,19,29,-25,-49,-46,-82,-39,5,-68,12,27,-26,31
1490654065210,-41,50,56,-12,13,0,45,1,121,0,-12,22,53,121,8,107
1490654065258,-77,0,13,-128,-107,14,111,-34,32,23,-2,66,50,-66,-117,-39
1490654065307,87,13,-2,46,-5,127,40,84,-23,-65,-53,-67,-81,-87,-14,-107
1490654065356,90,21,18,-23,-63,55,-28,46,-45,-37,-39,-4,86,36,-26,-85
1490654065405,120,54,5,-40,-26,-88,-43,-9,-45,-27,12,61,42,37,12,64
1490654065406,-30,-18,-41,-19,116,62,-22,14,126,-29,-18,-15,6,-123,-3,-44
1490654065456,-16,-23,37,-111,-100,-71,-4,20,52,-44,-24,18,57,30,13,-7
1490654065502,-84,30,-51,-21,-3,3,-8,1,10,22,-19,-59,-98,-18,17,24
1490654065551,-97,-19,34,100,124,44,50,-4,46,-62,-24,-62,-84,88,80,102
1490654065599,-3,-40,-45,-6,-55,-15,-35,31,-89,27,34,-2,-7,-7,-4,-32
1490654065600,62,-22,-5,78,-1,-84,-20,27,-1,9,23,-4,-22,83,94,112
1490654065648,73,0,-13,34,11,26,-31,-12,-72,-22,-1,53,15,2,-13,16
1490654065697,-89,8,-4,-41,-17,4,-28,-37,-60,-66,-11,-24,4,-48,-41,-66
1490654065746,72,2,25,38,15,42,31,81,-62,-11,10,13,-3,-39,-37,-47
1490654065795,79,3,-30,-18,-15,3,-13,-33,-8,-7,26,3,-21,30,6,41
1490654065844,-100,-35,0,17,-8,-30,-37,-88,127,27,-26,58,6,-25,-16,10
1490654065849,122,19,12,-48,-17,-18,22,-5,37,2,-55,-88,14,26,21,12
1490654065892,-75,-10,-2,34,20,30,-5,-36,103,9,45,45,26,44,30,24
1490654065941,72,-26,-33,-30,-43,-75,-88,3,69,-7,3,7,16,-11,60,3
1490654065989,-84,-21,-32,-7,-7,16,-6,-60,27,24,11,-1,0,-12,29,57
1490654066038,-59,-20,-15,60,11,-16,-21,-9,-128,15,-11,-10,-16,-8,-18,-15
1490654066086,-31,14,21,14,1,-4,-46,-10,-15,-8,26,8,18,86,18,-7
1490654066087,102,5,-37,-11,10,-77,5,-5,-4,6,33,18,36,69,85,102
1490654066136,44,4,5,15,-11,-10,54,19,-93,-27,-42,-21,6,15,12,-15
1490654066184,30,15,-4,-6,-27,17,16,57,103,15,-17,50,49,-22,24,-47
1490654066233,28,1,15,23,-87,21,25,-1,-64,-23,36,-28,58,29,-37,-31
1490654066281,-90,-38,-3,43,118,-26,2,-20,123,0,-1,-2,-53,-71,-32,-15
1490654066282,-114,8,103,78,56,97,69,11,58,65,9,-58,127,127,58,111
1490654066330,73,-51,-95,-128,-128,-115,-32,-29,94,8,-7,65,97,111,-43,-15
1490654066380,28,59,9,1,32,88,-32,37,-27,59,55,110,36,-16,11,70
1490654066428,-24,-3,-48,-92,-28,-4,56,17,109,48,43,121,111,65,-55,82
1490654066477,-128,3,26,-100,-128,-28,-42,18,-128,-15,22,13,13,57,74,-31
1490654066574,-109,-45,-61,-93,-128,-112,-41,-115,83,-12,-25,65,51,23,-32,99
1490654066575,101,57,116,67,-72,-78,-71,69,5,0,-76,-101,-128,-18,45,-66
1490654066576,-97,35,88,127,127,21,127,-39,89,-20,1,-76,-128,-105,56,15
1490654066623,-5,40,7,-69,15,127,87,74,-77,15,-4,55,-68,-71,-128,-49
1490654066672,112,-28,-84,-77,-9,-46,-104,-128,-5,11,112,127,-24,87,-10,-8
1490654066720,51,47,34,43,47,116,49,126,-49,49,31,37,-10,-94,40,73
1490654066721,-99,-70,7,-23,-2,-34,-24,-86,-46,-19,-12,42,25,109,-6,0
1490654066770,60,-58,-90,-128,-17,51,1,127,111,77,86,21,54,10,-51,-53
1490654066818,-104,-1,-18,124,4,-54,-45,5,15,3,62,103,120,87,114,-35
1490654066870,82,49,104,127,56,-57,-43,-77,-115,-48,-29,-67,-98,68,77,49
1490654066916,35,58,15,-78,-14,-108,-15,28,-1,4,-32,36,40,49,-68,103
1490654066964,50,-35,-37,-96,-78,-101,28,-1,14,94,56,-35,77,-11,24,22
1490654067013,60,-25,-55,-35,-55,-128,-105,-65,-100,-15,10,85,127,127,48,116
1490654067020,85,25,-44,60,15,-119,-50,22,-96,24,56,-57,51,127,127,-17
1490654067063,-51,-19,17,113,112,59,-54,47,83,43,-8,53,39,38,-53,-44
1490654067111,-79,-34,-26,-126,-91,-94,33,-22,-1,12,-28,-48,-31,74,31,49
1490654067159,-14,1,84,69,94,89,7,29,103,21,-124,-115,-97,-81,-101,-42
1490654067208,-12,41,18,1,29,78,35,-39,0,51,12,-30,-5,79,-78,49
1490654067210,-45,-76,19,68,-42,38,98,27,-26,14,3,104,99,-79,-61,-57
1490654067258,43,-5,21,-121,-59,54,-1,23,48,-53,-7,-81,-45,1,96,21
1490654067355,-37,-12,-14,11,1,-110,-22,-40,-3,-36,28,1,44,72,127,24
1490654067357,-37,11,78,119,119,68,33,7,24,11,-45,-12,-24,-36,119,10
1490654067406,4,2,70,85,118,100,40,20,-84,15,80,127,126,-89,-85,-1
1490654067413,-17,-14,0,-55,34,45,127,0,41,-10,-97,-122,-93,-79,-128,-13
1490654067452,-26,5,9,-35,-51,-32,-68,13,-105,-24,9,81,68,96,83,30
1490654067500,53,23,36,-13,-121,-71,-101,-40,-25,17,44,-2,104,77,4,-1
1490654067549,-63,-17,-73,-34,-81,-14,13,7,-30,-2,56,127,127,37,73,8
1490654067598,-59,16,67,-59,-33,-49,-49,-15,43,0,-7,66,4,-35,18,-9
1490654067647,82,-21,-36,-111,-96,6,-43,14,-36,-27,-78,-85,-105,-24,-64,-41
1490654067650,35,-7,-51,0,-128,-116,-15,-17,-35,-3,-63,-49,-40,7,-15,-15
1490654067697,-27,7,58,112,59,-1,11,-4,-87,8,-60,127,62,117,59,30
1490654067744,-43,-40,-37,-58,-55,-1,6,-6,-26,5,59,92,92,41,13,13
1490654067793,54,0,-94,-108,-8,-33,2,-5,23,-7,-14,-38,0,-26,-23,-23
1490654067842,43,66,57,-3,-17,-5,2,9,38,1,3,0,-13,8,11,13
1490654067890,94,-70,-85,-88,-36,-45,-23,-6,-21,-71,-45,-54,-18,-41,-6,-21
1490654067939,4,-11,-27,73,44,26,19,67,-14,3,-17,-84,-36,-13,-25,-57
1490654067940,43,125,-18,-50,4,-4,-7,-17,11,-60,-39,35,33,15,15,30
1490654067988,5,-64,-51,-25,-22,-26,-6,7,-128,-64,-17,24,41,1,17,-11
1490654068037,14,-120,-112,40,11,29,4,-6,44,-61,49,-20,-19,29,19,11
1490654068085,127,36,50,-43,27,-54,-5,7,21,62,11,31,-15,-55,-11,2
1490654068087,-13,-1,-95,-5,-15,20,21,1,-30,42,37,48,1,21,6,5
1490654068135,-67,94,-8,-29,-6,-33,-16,3,-90,-28,-19,25,17,-21,10,33
1490654068183,73,-31,5,22,12,16,11,0,24,-106,-41,-37,-26,11,14,34
1490654068232,-28,-71,-18,7,-13,27,0,36,30,-21,24,2,-7,26,2,4
1490654068281,100,0,13,-24,-16,-62,17,-11,92,0,-57,-23,-8,-28,-25,25
1490654068328,-49,-4,-6,16,28,38,11,35,-2,8,13,22,19,-6,7,8
1490654068330,-29,-51,-27,10,-16,-5,-28,6,-12,58,25,4,-4,6,42,-21
1490654068378,-95,-93,11,-27,2,43,19,49,-128,112,29,38,6,4,9,-13
1490654068475,-44,127,32,-20,-23,-15,2,-6,-43,91,-21,-22,-40,-53,-40,-21
1490654068476,44,-128,-2,-17,-68,-107,-21,-33,-20,-107,-52,-13,-40,-64,-53,-20
1490654068525,-128,37,-39,92,127,114,34,-51,34,83,124,77,76,94,44,83
1490654068573,62,-12,51,29,28,74,13,-12,113,53,-5,0,-17,-66,-16,-16
1490654068574,-99,37,28,-101,-110,78,-33,-19,-17,2,-47,-70,-48,-7,-76,-63
1490654068622,53,53,47,22,-16,-22,49,5,-128,-58,-20,18,40,127,-16,37
1490654068671,96,-22,27,66,34,-15,17,16,26,-20,4,103,113,4,14,-8
1490654068719,-49,-78,-86,-26,-40,-38,25,-6,-24,50,4,62,0,-46,37,-18
1490654068768,55,-4,-1,49,69,26,-24,21,110,-18,42,78,-9,1,82,71
1490654068770,-13,89,8,-63,-68,48,-97,-74,-52,-19,21,-12,-26,35,114,101
1490654068817,-128,-49,-46,-75,-128,-45,-14,-58,87,-50,-69,-128,-119,-128,-62,53
1490654068866,43,-51,-48,-16,-29,11,7,36,-55,104,47,-60,-11,100,21,11
1490654068915,127,68,55,-33,-70,-104,-17,70,-128,-19,7,85,116,48,-14,-123
1490654068963,75,36,-41,-61,-10,-74,36,9,-31,-36,20,-26,6,44,-4,97
1490654069011,-59,-75,-45,-107,-128,-1,-83,-77,81,-20,-29,-26,76,-59,77,57
1490654069012,33,22,22,-23,-41,53,-91,17,-82,-15,-21,-28,-70,-82,82,-33
1490654069061,1,33,31,-6,-13,-41,-29,-3,-4,-20,-6,82,48,43,-66,5
1490654069109,25,28,47,28,6,-4,-2,-4,-48,1,-30,52,40,42,76,-16
1490654069158,116,44,66,100,51,29,17,54,-36,-39,-5,-75,-77,-43,-98,20
1490654069206,-10,-13,7,-25,-20,18,24,-34,29,37,22,-47,-44,-17,-41,-41
1490654069208,-83,0,29,127,51,52,43,-7,-53,-89,0,20,20,-17,-62,-64
1490654069256,79,-18,-3,-48,30,-28,-56,14,-125,6,11,56,40,8,5,-44
1490654069305,20,6,-37,-65,-21,16,8,85,-29,-2,39,5,26,-1,-6,-1
1490654069353,-79,-29,19,-12,-17,8,-25,-38,32,-9,-41,-30,52,32,75,23
1490654069402,-77,20,63,33,20,-5,29,40,-93,-31,-3,12,-1,11,3,-16
1490654069450,-76,-29,10,16,5,-49,-30,-76,115,8,-38,-50,-5,63,102,62
1490654069451,-59,-46,-37,-39,-8,-24,-30,-22,35,24,38,52,18,15,-12,-44
1490654069500,-90,-38,-40,-80,-14,13,28,54,-42,-8,18,-32,2,-26,-19,27
1490654069548,38,48,33,75,0,-33,5,22,8,-18,-45,9,26,20,29,1
1490654069597,77,19,11,20,-5,-11,-29,-37,91,-9,-30,-9,10,32,18,87
1490654069646,-104,-9,1,40,39,21,16,-5,23,5,-3,-5,13,-31,-11,-1
1490654069694,-31,1,-9,5,-29,56,-2,47,54,-15,6,7,-33,2,-17,-45
1490654069695,-6,3,-1,-9,-19,-2,4,-9,-111,-12,22,13,-19,-63,-56,-10
1490654069744,73,35,14,26,-4,81,103,30,17,14,-7,29,-25,36,-22,37
1490654069792,-12,-7,-7,-4,23,42,39,13,-83,1,8,-16,0,12,-39,19
1490654069841,-128,7,-3,-19,-32,-78,-49,-23,6,8,-8,4,-17,-36,4,17
1490654069889,-44,9,-10,-1,20,30,30,7,13,15,12,9,8,-15,-9,-34
1490654069890,24,5,-10,11,14,95,25,-17,-124,-21,22,-7,-7,69,-30,-116
1490654069938,-79,-40,-9,0,-15,-62,-91,-55,-106,1,-6,-9,-7,-98,15,58
1490654069987,6,-5,9,45,40,98,-10,-5,-69,-43,-32,-36,-80,-27,-69,-88
1490654070037,-115,-59,-5,57,106,107,36,-106,89,35,0,3,-46,-50,-5,85
1490654070085,-40,-3,-35,-75,-83,-13,5,17,6,-7,-27,-45,-55,-62,-27,-43
1490654070133,78,-13,-15,83,57,-56,-118,-38,-42,-16,31,110,17,-18,-7,0
1490654070134,69,-32,-40,-82,-118,-22,-8,-64,-128,55,70,81,101,88,-9,32
1490654070182,17,9,-41,-128,-87,-71,71,62,96,32,-47,-128,-128,-41,10,26
1490654070231,63,-48,-72,-69,-43,30,4,-80,-120,19,71,113,25,-27,-87,-23
1490654070280,-128,83,86,9,10,26,94,-16,-101,-62,-61,-1,-16,-58,0,-32
1490654070329,13,32,-43,-81,11,0,-74,-54,-128,-15,-45,13,-107,-84,18,20
1490654070377,-32,-56,-43,-58,-50,-58,-22,66,98,38,-5,32,109,-67,-60,-49
1490654070379,113,32,76,53,75,29,119,36,-12,17,52,-65,-67,-81,-48,-39
1490654070426,43,42,30,127,127,53,-106,30,-74,-41,23,27,13,63,35,-18
1490654070474,-84,-11,-64,-128,-127,84,41,-49,127,70,29,104,127,59,127,113
1490654070523,-31,-80,-46,-10,-128,-128,-102,-119,16,65,-66,-125,26,85,78,-55
1490654070571,102,45,-9,-77,-18,-77,18,47,-71,-106,-46,-8,-57,69,-48,-32
1490654070573,64,66,-5,77,111,67,99,73,47,-27,-38,-125,-128,-106,-110,-73
1490654070621,19,28,23,-38,77,-115,-128,-58,-16,4,-72,77,97,-41,114,56
1490654070670,-62,17,2,-40,86,50,-71,-39,-13,9,5,13,7,62,68,95
1490654070718,83,16,-13,6,-33,-90,-48,20,-108,8,-27,-34,-72,-34,-57,-55
1490654070768,60,9,-51,14,-128,-74,-15,-34,102,8,80,-128,-92,-46,-67,58
1490654070815,-128,-121,-107,-14,86,90,11,-28,105,66,65,-46,-51,-58,68,88
1490654070816,-12,76,76,41,-58,-8,13,1,-68,-39,-44,127,83,27,-4,90
1490654070913,-23,-22,-88,26,-93,-103,43,-44,-90,13,67,112,68,78,100,-37
1490654070914,95,11,53,-15,16,-27,49,39,-13,3,-67,-128,-103,-83,-52,-60
1490654070963,4,-20,-27,-95,13,30,-128,-128,1,-40,-48,33,80,108,97,83
1490654071011,-128,-41,-71,-97,-69,6,-21,-72,127,13,-61,20,-24,-100,28,81
1490654071061,1,-11,32,124,79,-53,-66,4,-122,-6,-43,-20,1,127,6,-32
1490654071062,58,23,22,127,127,61,-97,-27,-36,16,2,-90,-51,-18,72,52
1490654071109,-32,-64,-10,53,-115,-115,-128,-74,-24,89,24,93,127,127,38,79
1490654071157,119,-44,-40,-118,-115,-98,-55,4,25,50,-11,121,127,20,5,56
1490654071205,-50,44,-22,-71,-80,77,-107,38,50,21,56,21,48,107,126,36
1490654071253,-19,-2,-53,-20,-118,-75,1,-14,-115,-17,51,127,70,-25,49,-30
1490654071255,0,-32,13,-95,127,127,61,-22,-50,35,106,47,-128,-112,11,27
1490654071303,-3,69,-22,34,121,-73,62,33,56,43,84,39,68,30,-6,61
1490654071352,-40,-21,-41,18,-77,34,-36,1,-2,1,33,-128,-128,-77,-60,-13
1490654071401,23,18,61,-47,-42,12,70,37,-75,-16,79,113,118,37,-74,-42
1490654071449,55,26,-29,-77,-73,-103,16,26,40,41,-30,-102,-128,49,-91,-19
1490654071501,0,-11,-25,101,127,34,57,-2,7,12,94,24,82,108,-95,-7
1490654071504,57,3,-47,-71,-103,-74,-114,-10,112,-21,-44,53,69,-93,-69,-23
1490654071547,-39,-2,14,102,127,127,64,64,-3,12,6,-41,-36,-35,-14,-15
1490654071596,65,-12,41,-91,-92,-48,7,-21,65,45,-6,-25,28,1,-9,12
1490654071645,-80,-7,-70,103,-4,32,-37,-6,25,26,101,-66,-26,-42,-1,-16
1490654071693,13,1,-37,60,9,-7,6,-6,-5,6,25,76,108,48,32,27
1490654071741,-38,34,95,-51,30,32,-20,-28,-109,-3,106,92,76,85,83,14
1490654071743,6,31,120,-55,69,81,29,13,8,14,49,104,2,-31,-3,12
1490654071791,-7,-19,-37,-21,-25,14,36,17,41,51,84,68,39,34,32,-2
1490654071840,-67,16,116,52,81,28,17,-2,-33,11,3,40,102,57,38,23
1490654071888,52,-28,-39,-2,11,-16,-13,-27,-18,-36,-85,-62,-37,-31,-8,-7
1490654071936,-11,-6,-26,83,23,27,33,34,-10,82,43,-33,31,-4,6,0
1490654071939,24,-9,-66,-80,-30,-8,1,13,-81,-2,-78,37,46,12,10,3
1490654071985,-75,38,99,127,56,30,11,12,-25,-22,13,30,40,19,1,14
1490654072034,-25,-21,-25,-104,-61,-14,5,-20,-59,-2,48,116,55,27,6,-9
1490654072083,73,-3,-14,-7,-18,2,-6,30,-59,17,50,25,-64,-48,-28,-54
1490654072132,55,-9,-1,-75,-63,-83,-13,-25,-26,18,4,-34,-49,-77,-3,9
1490654072180,31,85,-11,-43,5,5,1,36,80,-70,-120,-71,-13,-17,-9,13
1490654072181,49,-37,-75,-38,-32,-108,5,-15,75,99,108,25,24,-124,-15,6
1490654072230,-13,-64,-16,84,7,10,-9,-86,22,-128,4,-101,-54,-3,-15,14
1490654072279,-16,127,68,44,19,51,8,-18,-37,95,18,25,3,68,-10,23
1490654072327,-14,-10,-50,-25,-13,10,5,-17,-77,-112,57,-38,-34,-16,34,32
1490654072375,50,-41,-20,-17,7,-10,-1,-15,32,-20,-23,-53,5,1,14,49
1490654072376,18,90,10,5,0,5,42,74,-77,-32,-87,-14,-14,11,-24,-29
1490654072424,-22,-91,3,21,6,-19,-11,-42,-37,-20,50,99,47,29,32,49
1490654072473,-67,-84,9,61,17,-2,-3,-36,35,46,15,-8,-1,-10,-1,-26
1490654072522,-21,14,-2,-5,-13,46,-12,43,25,96,18,11,-6,46,39,68
1490654072571,57,-99,-61,-36,-7,-13,11,29,-12,31,30,22,4,-22,-36,-109
1490654072619,-1,44,47,-8,3,-12,4,-4,-123,-39,12,13,6,4,9,17
1490654072621,-53,-28,40,17,11,22,37,37,-36,40,-17,-19,2,4,16,5
1490654072669,30,60,9,4,-10,-32,21,-32,-44,17,18,-25,-16,-26,-55,-21
1490654072717,112,9,-38,34,37,3,8,17,127,-15,-31,-16,-27,-41,-34,-34
1490654072765,35,-21,51,-14,-18,15,-67,-36,8,-14,-20,13,0,4,-4,51
1490654072814,-8,78,-23,23,38,-10,-17,1,-2,-29,1,-66,-22,28,44,23
1490654072862,77,36,-58,-72,-109,-115,34,-12,127,0,-9,38,35,10,-54,-33
1490654072865,-96,32,26,70,87,60,31,21,-41,17,-1,-108,-99,-26,-31,-39
1490654072912,49,-37,18,78,47,13,-83,-7,109,-29,-19,-59,-66,24,23,7
1490654072960,-30,-48,32,123,69,19,3,5,-41,-20,-28,-53,14,80,9,29
1490654073009,-21,10,-24,-58,-32,29,-85,-95,59,-15,74,-78,-72,-31,90,63
1490654073057,32,22,-25,23,64,-70,-4,-33,70,6,0,-74,-81,30,-37,28
1490654073059,45,82,-40,111,75,-98,-80,-55,36,61,62,-49,-101,11,69,-54
1490654073108,-61,-26,-44,-87,-7,43,31,-16,-19,80,28,-65,-87,-44,-13,42
1490654073156,106,96,87,101,78,-3,25,77,55,-9,-24,29,-50,-31,-6,34
1490654073204,-62,-32,-56,-97,-110,-13,-41,-46,-19,0,-9,-60,-54,-90,21,-23
1490654073253,77,13,-18,25,-11,-58,-74,-45,-128,-30,0,-58,-46,69,-8,26
1490654073303,59,13,-26,102,116,-19,11,77,34,-2,50,127,89,18,-37,-66
1490654073351,-113,-60,-37,-82,-79,-19,42,-62,-78,62,15,86,76,15,-45,-63
1490654073352,-28,72,22,20,102,-9,-36,-44,-50,-31,34,108,127,127,65,47
1490654073403,2,-110,7,36,4,84,18,65,69,-127,12,26,-38,-51,81,-25
1490654073448,-46,107,-28,29,40,127,55,84,35,96,63,33,14,36,57,31
1490654073497,11,22,25,105,92,14,25,1,65,69,9,-33,-9,-14,-27,40
1490654073545,-48,93,23,60,66,33,17,43,-27,82,1,85,76,114,81,80
1490654073546,-62,-34,-27,-10,-1,41,-8,-43,28,-24,-13,-27,-22,-14,13,4
1490654073594,-34,-91,3,24,4,29,8,-11,-70,-83,36,72,24,-20,4,2
1490654073643,-72,9,1,-80,-16,8,-6,33,1,13,-16,-22,-17,-45,-10,-10
1490654073692,-89,126,76,41,2,14,-11,-25,-23,57,-47,-125,-66,-61,-51,-1
1490654073740,7,-46,-8,20,-21,-27,-32,-48,127,-4,9,-5,-3,-5,-25,-24
1490654073742,42,-20,-27,0,-16,-32,-31,-10,27,-93,-19,27,27,34,27,20
1490654073790,27,28,-19,-26,-16,-43,-42,-5,-66,13,-14,-18,-8,15,-15,7
1490654073838,75,3,-4,26,0,-22,26,-23,20,29,37,37,25,-1,-7,10
1490654073887,15,25,-8,-1,-7,11,21,-17,-48,-16,-28,-33,-2,-47,-21,21
1490654073937,-70,-17,-24,1,2,-1,-26,-70,-107,13,16,28,0,-6,12,-48
1490654073985,29,-18,-42,-41,-36,-26,-26,-6,37,-32,5,9,-16,-7,-54,-67
1490654074034,-1,-16,-28,-27,-7,-33,-30,-10,-8,17,-7,-23,0,0,37,-8
1490654074035,4,8,5,11,-8,-61,-67,23,-20,-27,-21,-27,0,0,-15,-45
1490654074084,-18,-35,-3,-7,17,2,32,69,-81,25,12,-9,-45,-8,-38,-76
1490654074131,-85,6,-38,-110,-3,80,28,11,76,1,4,-16,-10,43,-39,52
1490654074179,-100,-12,22,59,63,26,50,-99,-125,-29,14,41,77,109,-1,4
1490654074227,-48,-32,-45,-81,-106,-39,18,-55,-21,-19,-68,-114,68,-89,-76,-49
1490654074228,83,-28,-54,14,-15,-8,-16,-56,-59,26,43,-14,-68,6,-37,-31
1490654074277,-24,2,-16,-2,-7,-61,-92,3,84,-37,-50,77,116,126,114,56
1490654074325,-63,-38,-65,-43,-19,32,63,-7,-9,-18,111,57,-24,61,22,-9
1490654074374,-6,-15,-87,-62,-49,62,-24,17,-30,43,11,23,37,-39,-56,-59
1490654074422,18,63,127,94,96,50,-24,39,60,35,-30,60,67,12,45,103
1490654074423,6,-17,-31,65,15,75,66,-69,-128,90,95,85,80,84,-10,-4
1490654074472,-35,26,-47,47,-99,-128,-128,-125,-20,-17,-58,-128,-30,81,-53,-12
1490654074569,104,15,-14,-69,-37,113,123,127,-57,-12,-27,53,2,-41,-128,-128
1490654074573,-105,-38,-50,-103,-95,-42,-64,-74,35,-20,-31,1,-85,-21,34,39
1490654074621,43,74,127,127,127,30,-33,-33,-124,-51,-6,-67,-128,54,109,11
1490654074666,-112,-47,-55,-86,-83,48,20,-71,80,37,60,22,127,13,23,-43
1490654074667,10,59,-14,39,91,-41,-68,92,50,20,15,31,-57,126,9,102
1490654074716,1,85,76,-49,29,98,-84,-41,0,-57,2,15,-23,101,75,58
1490654074764,-46,9,47,86,83,7,-84,21,-128,13,-8,-34,-68,2,-28,1
1490654074813,-58,-78,-33,52,104,87,-4,-20,127,32,-63,-15,-67,12,-113,-23
1490654074861,50,67,126,127,102,87,61,12,-123,-1,2,-12,-15,5,-72,3
1490654074862,-16,34,13,32,102,127,122,17,84,-6,-53,-81,121,-97,-101,-104
1490654074911,-84,-108,-128,-128,-128,-42,-115,-91,41,98,109,-65,104,127,101,69
1490654074961,-100,-48,-71,-70,-32,56,-65,-39,72,-10,-31,-63,-128,-89,29,-3
1490654075008,-58,33,39,-34,65,69,73,59,12,14,-17,127,92,-5,101,59
1490654075057,4,-22,30,90,22,-36,-15,14,33,59,-28,37,-21,34,-78,30
1490654075105,7,-20,-128,-70,-122,-27,81,-1,-50,-85,82,11,80,117,-67,-104
1490654075106,127,-12,-94,-90,-128,10,-61,27,-18,-1,102,49,27,12,87,58
1490654075154,64,20,20,-14,-32,118,-30,-40,37,25,-30,96,49,74,-43,65
1490654075203,126,76,0,-80,-12,56,-8,9,-125,-70,-24,-87,-108,127,127,93
1490654075252,-41,15,14,127,127,95,30,-71,-84,-32,6,96,127,88,127,30
1490654075301,-42,17,-30,-86,-74,24,-92,-28,77,15,-67,-22,-39,26,-10,36
1490654075349,-128,-58,-11,-57,-16,42,100,37,87,-7,48,-22,32,-7,26,28
1490654075352,69,-7,114,-6,-99,-74,-32,-61,-21,-12,-78,-71,-28,-50,6,-22
1490654075399,-69,28,127,127,36,-41,72,-10,8,-3,-73,-92,-124,-110,-84,-30
1490654075447,-119,-43,-3,54,-119,86,78,-10,-35,-27,-8,127,127,-70,25,-35
1490654075496,-60,45,50,109,127,44,-16,24,73,-2,8,-123,-128,-53,24,-35
1490654075544,12,-18,-26,-126,-128,33,-2,-20,-76,-16,5,119,127,10,64,43
1490654075545,12,4,-7,127,127,92,61,31,-95,18,127,-125,-128,-87,-104,-76
1490654075594,16,-56,-51,-88,-35,-33,-77,-45,67,-12,-84,-48,-60,57,-62,-113
1490654075642,-37,84,127,40,-25,22,127,75,-74,-35,-97,-107,-88,-30,26,1
1490654075691,28,-16,-113,87,101,110,122,0,84,-18,100,127,77,-128,-52,5
1490654075739,1,21,37,92,39,60,-81,2,10,30,55,117,103,20,115,35
1490654075787,-19,-13,-73,-111,-95,-55,-55,10,-11,-36,-97,-55,-111,-6,-94,-16
1490654075788,-60,37,52,102,69,68,60,-23,-15,5,28,127,114,-31,-39,9
1490654075837,16,2,37,-24,13,-69,-61,-42,-67,26,48,62,73,108,58,7
1490654075886,-81,5,24,-72,-57,127,23,22,-29,-23,-98,-108,-83,-95,-6,-33
1490654075934,-35,-43,-65,-68,-128,-90,-9,-22,52,-21,-128,-128,-124,-56,-35,-7
1490654075983,127,36,101,-108,-105,-43,24,1,22,-33,-47,2,-85,-15,-12,-34
1490654076031,-105,-26,19,127,39,25,-19,-32,-11,-7,43,104,79,13,21,14
1490654076033,21,-29,-64,54,37,-34,-6,3,-9,11,4,11,45,41,3,5
1490654076081,16,6,-52,-22,-67,20,-13,4,18,-19,-45,-91,-128,-30,-16,-31
1490654076129,29,15,114,-1,-91,-7,0,21,19,-28,44,83,30,-24,4,-2
1490654076178,-26,-14,85,64,64,8,9,12,-70,-10,-50,-111,29,103,54,27
1490654076226,-90,4,-12,-23,-102,2,16,-14,-8,-7,-1,70,74,-37,-16,-11
1490654076229,8,32,1,-128,-113,-31,-5,1,43,31,-126,-29,-84,-37,-12,-6
1490654076320,-111,4,127,74,-9,-22,-5,-33,30,-4,-112,-3,-6,-2,13,26
1490654076324,-48,9,-27,-71,-7,17,6,18,9,-28,27,78,51,25,19,-4
1490654076373,-14,-9,-50,-16,-31,-39,-31,-14,1,7,1,-126,-88,-58,-31,-15
1490654076470,-52,32,6,-21,28,21,7,-2,-6,106,74,113,121,59,36,1
1490654076470,43,27,-7,-95,-48,-40,-25,-4,-44,-59,-39,-56,46,12,-4,13
1490654076471,-92,-1,47,113,104,74,39,20,50,-20,-79,-128,-98,-63,-31,-10
1490654076519,115,19,66,-95,-95,-91,-51,13,-21,127,-43,-30,-69,29,-2,-47
1490654076568,7,-38,1,42,1,-28,-24,-20,15,-110,20,26,20,0,11,20
1490654076617,-100,-37,-12,-32,-3,1,12,1,82,16,92,37,11,2,12,14
1490654076666,115,-31,-56,-14,-11,2,-9,2,-62,-36,12,70,2,-7,-10,0
1490654076714,-3,26,-69,-37,9,-4,7,-24,73,1,12,-47,-27,-20,-29,-23
1490654076715,-61,-24,48,56,48,35,42,60,-103,5,58,87,50,22,16,8
1490654076763,81,-35,-31,-97,-57,-18,11,23,3,37,-3,-20,-17,-44,27,17
1490654076814,-6,57,-47,52,55,32,43,27,0,27,32,-7,52,17,25,24
1490654076861,59,-19,19,4,24,14,6,-10,-10,36,-31,-72,-71,-8,33,22
1490654076909,39,76,-14,91,38,-28,-42,-2,13,-37,-11,-105,-91,-21,-20,18
1490654076912,90,10,10,49,24,-44,-45,-22,8,-13,20,-76,1,11,-13,56
1490654076958,28,23,-4,-80,25,60,90,22,-8,-66,-32,-32,-2,-13,-118,1
1490654077007,-84,7,31,-79,-43,-28,29,20,-7,12,-48,48,-38,40,-116,-18
1490654077056,0,-56,-46,-124,-88,-8,34,-48,-6,-31,-17,117,101,-18,37,50
1490654077105,39,-53,10,0,17,95,-128,34,15,68,18,27,-44,27,10,-17
1490654077154,26,-46,1,-56,-116,-128,-63,-20,-34,-96,-38,-49,22,37,6,-45
1490654077158,74,-56,24,-112,-52,-31,3,18,-4,-1,-3,52,61,25,-33,-7
1490654077202,-114,-7,-4,75,68,68,-22,26,69,0,36,111,110,2,41,6
1490654077251,88,-32,33,50,-119,43,2,108,58,-6,-17,-53,-16,22,-17,-8
1490654077300,-88,-3,-13,-11,-40,-43,18,-40,64,6,-14,37,123,127,-86,-10
1490654077348,26,-17,-43,-82,-58,43,-104,-13,-76,-21,-21,-43,-19,-80,-41,-67
1490654077396,-52,-52,3,103,66,66,57,-59,127,7,4,-87,-128,-109,-38,42
1490654077405,-17,11,-21,10,-7,-21,-21,64,16,61,23,57,-1,62,22,56
1490654077446,67,-31,39,-29,-61,-60,-77,12,28,34,-1,-21,-49,80,125,-11
1490654077494,99,-2,3,67,-68,-46,-46,92,-78,100,29,40,73,9,19,-20
1490654077543,24,55,37,-29,-84,-35,-45,-9,27,-15,-43,-16,-78,30,-41,-35
1490654077591,102,18,20,-25,-39,-87,-90,-52,-41,12,24,-26,-15,17,35,27
1490654077593,-46,8,10,32,29,13,-2,16,86,-38,-16,20,36,-32,15,2
1490654077641,-79,4,22,72,63,40,69,45,-108,-3,14,52,21,-54,-61,-33
1490654077690,22,-15,-10,-19,-5,77,24,-6,11,13,12,6,-8,14,7,7
1490654077738,61,-8,0,-5,-4,-14,-18,29,10,-1,-7,6,17,11,8,-8
1490654077787,-7,-19,17,-1,-2,-5,10,-10,55,-7,-13,1,16,24,-4,5
1490654077835,-20,-3,1,-14,-30,-42,-31,-24,-31,-42,-24,14,-5,-23,-15,-10
1490654077836,42,7,31,-19,1,33,22,60,15,-6,44,44,22,-10,-40,-48
1490654077885,89,22,5,4,44,57,65,88,91,-1,-23,-17,0,-8,-1,-9
1490654077933,-27,-15,-24,-2,-8,-4,-12,-61,98,64,-6,-40,3,-43,-19,10
