1490743895862,35,69,-30,18,43,-65,28,-13,-58,-66,-12,-63,-18,-14,-53,-31
1490743895910,-12,-82,-4,47,40,-22,-40,1,37,-15,-8,-31,-13,-41,18,-4
1490743895912,5,13,-9,30,2,-4,-5,-2,24,16,1,-7,-84,-19,-23,-50
1490743895959,2,-2,11,-7,-13,122,91,7,-62,-37,-10,-10,-80,-126,-126,-104
1490743896008,-6,-34,-16,23,-1,-105,-106,-28,57,8,15,-9,35,-4,-39,1
1490743896057,-65,-44,-5,-43,-42,93,-37,-72,-54,-19,-38,-49,-30,-14,-35,32
1490743896106,39,2,-3,26,-9,-4,89,96,-42,-10,-30,-48,10,26,59,16
1490743896154,-19,17,-38,-124,22,-53,-9,1,0,23,23,98,119,44,13,50
1490743896155,-19,16,3,-23,-31,-35,-73,4,1,-1,-2,-61,-128,-65,49,-3
1490743896203,1,2,8,22,119,7,-17,28,-41,-9,2,11,-108,-52,-21,-17
1490743896252,-5,1,24,59,127,-49,7,-38,17,-32,-10,-40,-38,-20,-61,12
1490743896301,-50,3,-11,-37,-14,-56,-26,-34,10,18,-30,1,23,57,24,24
1490743896349,13,20,-8,40,103,23,17,36,47,35,51,103,-15,86,56,-12
1490743896350,55,13,-5,-21,-78,-75,17,-29,-7,16,20,18,76,127,127,85
1490743896398,-4,-31,-3,15,-20,-13,-12,-17,48,6,10,92,52,33,38,28
1490743896447,34,-5,-10,-18,17,66,38,85,-20,-17,-22,-20,65,-98,-59,-98
1490743896496,-8,-3,-3,-64,-25,15,53,3,-19,-8,0,33,-128,-128,-46,-27
1490743896544,3,-7,26,53,100,35,-32,-24,56,13,35,65,-33,63,24,30
1490743896593,-20,0,52,120,65,-4,-21,-32,-4,-4,-43,-128,-99,-41,-25,16
1490743896594,11,4,14,102,79,21,44,-3,-42,-2,-27,-101,-127,-61,-47,-38
1490743896642,12,-11,43,36,26,47,1,-19,20,-14,-49,67,67,58,37,39
1490743896691,12,-21,37,51,35,21,-5,-4,10,-21,2,79,44,56,20,7
1490743896740,-13,-105,-15,-44,-80,15,13,11,-4,-81,-6,-81,-53,-81,-42,-6
1490743896788,49,94,-10,-69,-58,-27,-16,-3,-8,33,-5,50,36,1,1,-7
1490743896789,0,-1,-76,-50,-5,-1,-7,-3,-13,100,77,51,17,-2,6,0
1490743896837,22,-15,-7,-9,-4,-3,-11,-6,-23,3,-13,-39,-29,-13,2,-3
1490743896886,-22,48,64,-5,-19,-5,-8,-2,-22,-20,22,70,28,-5,-1,-9
1490743896935,-37,69,-47,4,-12,-11,-4,-7,-14,91,12,34,12,18,-1,-4
1490743896983,-45,-38,29,25,3,-8,-3,-6,54,-18,-7,-1,-24,-6,-2,1
1490743897031,-21,-45,-24,26,15,-7,3,4,-54,-31,-6,-83,7,-13,-4,-9
1490743897033,-20,2,6,-47,-4,-14,-7,21,-14,-2,52,26,8,-7,-7,-5
1490743897081,33,-48,-17,-1,25,14,5,5,-15,-3,-9,15,-9,-6,-1,-6
1490743897129,8,-30,-62,57,21,11,14,-4,4,41,20,-41,-45,-9,-1,11
1490743897178,22,-40,13,-37,4,1,7,-1,-16,-44,-1,-13,17,6,14,3
1490743897227,-10,10,37,-15,-4,0,-3,-8,20,-7,-13,-8,-5,6,4,2
1490743897275,18,4,8,-2,-6,1,0,8,-10,15,8,24,7,6,1,-3
1490743897276,11,-73,-12,-4,-8,5,16,13,22,-37,29,-2,-12,-8,-12,3
1490743897324,36,55,7,-6,-1,-8,2,-2,-29,-3,-8,10,9,0,3,-3
1490743897373,-12,29,5,6,-1,-5,9,-3,0,6,-33,-16,2,5,8,3
1490743897422,-1,10,5,-8,-5,-6,-3,-2,-29,23,37,9,-7,-7,7,16
1490743897470,34,-28,-2,20,20,-11,-1,9,-52,46,2,14,26,6,-11,-2
1490743897472,-13,35,-7,5,-20,11,-38,-24,-16,-48,9,2,36,14,-7,-3
1490743897519,10,11,-28,14,60,2,8,30,23,12,40,0,-32,26,5,-2
1490743897568,13,90,6,-43,-30,-15,9,-2,-14,92,16,45,76,59,40,18
1490743897617,-29,-44,-20,-28,41,-36,-49,-26,-34,-6,15,16,5,-33,-43,-15
1490743897666,12,-65,6,2,10,28,16,16,15,-44,-3,5,17,-29,6,16
1490743897714,-2,3,26,21,-10,-1,23,9,-48,12,-3,21,99,17,-12,-9
1490743897715,71,102,6,-23,-37,57,9,-5,-124,15,5,-1,24,-50,-22,-17
1490743897763,-33,-40,-14,-4,-6,-24,-21,-10,5,-38,-2,-21,-64,-7,-24,-24
1490743897812,-25,-47,3,6,-24,-34,10,30,-61,-51,2,-14,-39,-10,-27,-7
1490743897861,11,3,-2,-6,24,38,6,-10,20,4,-1,-1,-8,5,33,0
1490743897909,46,8,-5,-23,-38,-40,33,27,-41,7,-12,-5,-3,-4,-25,-18
1490743897957,-26,8,-11,-16,-24,-44,33,6,14,-5,-9,-21,-25,17,-21,-7
1490743897959,55,10,3,15,18,-8,-31,15,49,12,-4,0,1,6,62,19
1490743898007,-69,-6,-4,-9,-1,31,13,-26,4,-3,0,-1,4,-22,-20,-9
1490743898056,-37,3,-14,-35,-14,-30,26,-2,-29,-12,2,21,2,-2,-50,-36
1490743898104,32,-3,-2,0,1,-29,-72,-28,18,8,5,-8,-3,5,-1,15
1490743898152,41,5,-3,12,-5,-2,4,19,-28,-7,-18,-17,-8,21,9,-29
1490743898155,49,-3,-1,9,-12,0,7,4,-39,-14,-17,-8,0,0,-2,7
1490743898202,7,-2,1,-1,3,9,-27,-6,28,6,-7,6,-7,-4,4,15
1490743898251,-26,0,6,17,2,14,-3,-11,35,-3,-11,-2,8,8,-34,1
1490743898299,-6,5,4,10,-7,-24,-18,-23,-18,-11,-6,6,-2,-9,5,-10
1490743898348,15,5,6,-21,0,-2,-12,6,-8,5,-1,-51,0,-3,-3,-8
1490743898396,8,12,6,-4,-8,-2,1,-1,-9,12,-1,-4,-4,1,1,3
1490743898398,56,2,2,-1,-2,3,17,23,-26,6,4,7,1,-5,2,-10
1490743898446,-45,-1,-6,-5,3,1,-9,-9,-6,11,2,7,5,7,13,0
1490743898495,55,11,2,18,-7,4,9,14,-22,-10,3,3,-6,-2,-3,4
1490743898543,15,13,9,18,11,7,11,18,58,-11,-5,31,-5,-2,-6,-9
1490743898592,11,-7,7,8,-11,-24,-22,-21,-34,4,4,18,17,34,33,21
1490743898640,-13,6,1,26,12,46,-28,9,-24,1,-9,-4,1,17,69,7
1490743898689,-2,14,18,33,47,-8,30,21,-44,10,-6,22,-7,-3,-14,-4
1490743898690,-41,13,7,49,9,19,34,-11,69,11,1,26,31,28,13,48
1490743898738,18,-3,1,-57,-48,-33,56,9,9,-3,-8,-38,-49,-13,-28,-15
1490743898787,25,-7,-16,27,-6,-5,-22,-6,-3,-3,2,-45,-17,-32,4,-1
1490743898836,0,-12,-26,-63,-46,-28,-40,-5,-12,-10,14,51,52,-9,37,20
1490743898837,-51,-3,-10,-72,-62,-8,45,22,58,1,-6,22,62,44,-24,12
1490743898885,0,-3,-11,-21,127,40,-1,11,-31,0,5,42,-94,-24,71,-19
1490743898933,9,-19,-10,-23,21,31,-32,-36,-8,-5,17,58,61,1,-41,33
1490743898982,32,10,37,-7,112,100,95,39,-43,-26,-38,-22,-77,-48,-81,-14
1490743899031,-21,-17,42,120,127,91,15,40,66,-30,-25,-43,-108,-85,-27,-32
1490743899079,-40,4,8,90,65,46,78,-3,17,8,-1,-31,-128,16,-39,-3
1490743899081,3,-6,-19,0,-74,-54,-78,-6,-15,-4,-29,22,44,-36,100,-4
1490743899128,5,9,13,-69,37,90,-85,-63,6,80,-10,7,80,-99,-80,-75
1490743899177,-7,-60,-21,-10,-48,35,18,16,6,-50,19,44,55,54,-12,-29
1490743899227,-30,-3,-17,-7,117,23,14,-18,75,17,9,59,3,37,31,58
1490743899275,-8,62,19,126,18,33,73,38,-53,-108,-24,-126,-128,-122,-93,-10
1490743899323,17,54,12,81,35,60,49,-8,6,-55,-29,-73,-19,-115,-107,-10
1490743899324,21,-78,8,50,64,-1,-70,-1,2,39,50,127,112,69,106,51
1490743899372,2,71,-19,-45,-28,103,58,46,14,119,19,51,-42,32,15,0
1490743899421,17,26,16,77,107,53,42,-11,-6,0,-48,-60,-106,-40,-25,-2
1490743899470,2,5,26,-1,32,44,14,4,13,-7,-12,-45,4,13,17,14
1490743899518,-37,23,39,46,14,2,13,-2,12,-45,-30,14,59,-9,-3,-6
1490743899519,7,-44,0,-87,-55,-10,-2,-8,-21,-13,-21,-60,-49,-13,-18,-16
1490743899567,-3,-29,-17,15,15,-8,11,16,12,5,36,18,-26,-45,-17,-10
1490743899616,-70,-16,-17,58,41,33,14,-8,47,7,33,-64,-25,-18,-6,9
1490743899665,-8,-13,5,39,7,-4,-10,-4,-12,-1,-14,-15,12,5,11,0
1490743899714,-20,-17,-29,-46,-11,5,2,7,-5,-8,-27,-20,-7,-4,-9,-2
1490743899762,-11,64,12,-12,-10,-3,6,16,10,-21,-36,-1,14,-6,-18,-10
1490743899764,26,16,36,19,-18,6,-4,-6,-32,-64,-76,-23,-14,-4,-7,-3
1490743899813,3,-2,-22,-33,1,2,-2,-3,19,54,10,46,-2,0,-1,3
1490743899860,30,-12,-36,-13,0,0,1,3,-9,-20,29,29,22,8,3,11
1490743899908,-63,-36,5,65,37,20,4,8,16,23,-21,-32,-45,-21,-13,-2
1490743899956,4,-15,4,-29,-28,5,4,-6,-74,-7,-15,-70,-6,1,-6,-16
1490743899958,-19,-3,-42,-16,6,-3,-11,-6,60,5,-30,-2,6,3,-6,9
1490743900006,-13,-19,-5,-11,12,-2,4,-10,-45,-21,-20,-14,2,-9,-4,-18
1490743900055,17,0,3,38,-10,-7,-6,-1,14,-2,11,21,-1,0,-4,-3
1490743900103,-11,11,15,-7,-6,4,-3,-6,-43,-4,-11,7,12,5,0,-1
1490743900152,-27,-41,23,-16,-11,0,0,-2,-11,-18,-16,4,8,-1,-2,-4
1490743900200,19,49,-10,34,-3,-10,-2,7,18,-78,21,22,11,-5,-2,7
1490743900202,-13,19,-8,-4,-5,2,-4,5,-9,10,11,-12,-1,3,2,3
1490743900250,-18,-7,21,7,17,5,-4,3,23,25,-19,7,-20,-9,-6,-6
1490743900298,-5,-69,-18,-5,4,-4,-4,-7,6,-75,-11,-12,-6,-18,-2,-11
1490743900347,-19,11,-15,-11,-32,-12,3,-7,-9,10,-13,1,14,30,23,19
1490743900396,0,20,-12,7,52,5,13,7,22,34,13,-37,-76,-22,-4,-6
1490743900444,18,36,-7,-5,-26,9,27,3,-64,27,-13,-26,-29,-27,-46,-29
1490743900445,-22,6,-7,-3,-23,-25,-5,-5,44,-29,-6,31,56,40,36,6
1490743900493,10,36,-2,-14,-88,-4,15,14,-40,15,35,40,94,-10,-5,0
1490743900591,-6,16,6,54,51,3,-39,-11,-32,44,4,-31,-29,-2,18,10
1490743900595,-54,23,10,-4,46,40,12,4,-6,4,6,68,127,82,26,20
1490743900641,51,-40,-8,-15,-64,32,84,13,33,18,21,-11,-38,17,20,34
1490743900649,-21,-20,-12,-54,-87,-45,-75,-36,-19,-3,2,-7,-1,-14,13,0
1490743900689,-2,-23,-19,3,21,86,93,18,-64,17,-2,-23,-33,-108,-128,-48
1490743900737,-60,-3,-4,-9,1,-14,-1,-34,57,-31,-20,-3,6,-4,-70,-20
1490743900786,51,15,-7,-15,-20,-2,49,27,50,2,-7,-4,-43,-21,-17,-24
1490743900834,-8,10,13,19,18,7,-36,12,-25,-4,-27,-5,5,-3,15,-18
1490743900883,-38,-15,-15,1,15,30,-18,-1,-59,30,11,4,7,-13,7,14
1490743900884,39,7,3,7,-1,2,-12,-5,19,12,8,1,11,-16,7,-15
1490743900933,39,-11,-3,-6,-4,18,6,-4,-3,-3,19,9,-6,9,25,20
1490743900982,-12,2,3,9,13,3,15,4,23,5,-5,4,1,1,-24,-9
1490743901030,-9,-12,-1,-21,0,25,27,17,6,-4,2,-10,-12,-28,-37,-13
1490743901078,31,3,-4,-2,7,0,7,7,-8,10,3,-34,-13,-15,-19,-5
1490743901126,-2,3,-5,-22,-8,-7,1,-1,-9,0,-1,26,1,1,5,-5
1490743901128,-40,-2,2,-3,-7,10,15,5,88,10,11,-11,-4,-2,-2,10
1490743901176,-30,7,-4,-23,1,-1,-1,-2,-22,3,7,5,3,-3,7,-11
1490743901225,-44,-10,-3,-14,-13,-11,-3,-19,-1,-11,-2,8,0,5,-31,12
1490743901273,24,1,-8,-13,5,4,35,24,7,1,13,3,6,0,-12,-17
1490743901321,-27,-33,-12,-11,-7,-11,-13,-12,17,6,-6,-22,-8,-4,9,7
1490743901323,28,-5,-8,4,-2,-8,-13,-23,-11,22,4,-4,-6,-16,-16,-18
1490743901371,-10,22,16,32,7,0,-12,-4,23,0,-4,-23,-2,1,13,3
1490743901421,-5,-5,-12,-15,1,20,30,11,-65,-32,-9,19,7,-1,-5,-20
1490743901468,47,20,-4,-20,-1,9,17,8,31,11,-8,-13,-34,-48,-36,-14
1490743901517,-52,-10,-4,6,2,12,7,-15,13,-7,2,2,-16,10,-5,-2
1490743901565,-122,-18,-13,-7,27,-9,-48,-49,-31,-15,-8,1,-25,11,37,2
1490743901567,10,-3,7,23,14,-3,-26,-11,40,11,3,-12,-10,-6,-12,-2
1490743901616,33,18,0,-9,-12,-33,3,-17,78,-1,8,4,-14,-9,-19,-28
1490743901664,-14,-2,1,-6,-97,-18,-10,-3,48,0,-6,2,-28,-3,13,32
1490743901712,-28,7,3,-5,6,12,26,13,-48,-6,2,-16,12,-31,-10,-19
1490743901761,85,20,1,27,66,21,-12,3,-56,-16,-11,-32,-128,-74,-60,-32
1490743901809,-36,-6,-21,-35,-39,-13,45,-4,-107,-1,-19,-42,-31,-7,20,7
1490743901810,52,-8,5,42,91,3,-36,4,-66,-1,1,9,-24,30,21,-13
1490743901858,1,2,7,-2,7,-35,19,-9,-13,6,10,47,56,-21,-54,22
1490743901907,62,8,6,49,-11,-17,-29,52,0,8,-7,-56,46,103,19,1
1490743901956,-54,-12,19,30,20,21,66,20,21,1,4,21,89,121,-14,-40
1490743902004,38,-5,7,-28,19,79,-33,25,54,-7,13,41,13,-62,-29,-5
1490743902007,-38,13,3,32,83,61,55,7,11,-13,-11,-71,-122,-104,-15,-22
1490743902053,20,-5,-5,-46,-57,-65,-27,-11,16,-11,-13,52,57,127,57,-11
1490743902102,9,-18,14,108,121,-110,-128,-17,-40,-13,-34,-47,-128,-40,64,-13
1490743902151,-56,6,26,53,127,127,63,9,5,5,-25,37,-33,-75,42,57
1490743902199,-14,-5,29,54,85,126,96,51,-4,-14,-10,2,68,-45,-104,-46
1490743902247,26,3,-7,-49,-128,-103,-28,-87,60,9,-2,-1,-2,30,-36,21
1490743902248,9,-2,33,66,12,58,16,16,-12,8,38,-27,-40,8,104,-3
1490743902297,-29,-8,-24,-71,-92,-36,77,-8,-28,1,3,13,-25,-17,-55,-7
1490743902346,22,8,-9,62,53,30,70,24,-109,1,11,-52,-112,-40,-68,-7
1490743902397,-6,6,15,-52,15,-3,-16,42,-40,-8,-6,-55,-111,-40,-75,-72
1490743902442,-51,3,-9,-23,-40,-13,-58,-16,12,-9,-32,-123,-96,-128,25,46
1490743902443,-21,0,3,118,82,123,89,13,-19,-8,-12,-5,20,-84,28,1
1490743902492,45,-13,-6,-3,-24,-61,-15,20,21,13,16,64,57,75,34,10
1490743902540,15,15,-13,-115,-118,-49,-14,-2,-17,-14,-2,10,44,-68,-5,-3
1490743902589,-14,9,-52,-9,-88,-30,6,18,-1,13,15,27,-10,8,-71,-33
1490743902638,10,-62,52,84,-53,46,22,5,22,-63,8,-10,-124,-82,-9,-3
1490743902686,13,-6,-18,-20,-64,37,-4,-37,6,-8,-8,20,43,30,19,26
1490743902687,63,-29,38,109,114,49,27,15,-1,-16,42,21,-12,18,-14,-8
1490743902736,-8,-12,-85,-72,56,20,-7,-14,8,11,115,127,29,81,45,25
1490743902785,-19,4,10,-33,-72,-24,-49,-10,-19,-6,-37,-34,42,19,-9,-26
1490743902834,36,8,-13,-56,-66,24,12,9,-34,-53,26,10,-46,-61,-37,-46
1490743902931,-19,-20,14,66,13,17,-11,-9,12,-5,-14,-96,-73,-79,-28,1
1490743902933,-2,12,3,-14,-65,-48,-18,1,-1,-52,-30,-37,54,12,-3,-9
1490743902935,-10,-11,-22,-31,4,-11,-15,-13,-15,-9,18,90,53,24,16,14
1490743902980,21,86,-18,-90,-83,-38,-23,-8,14,8,-16,-12,2,2,2,5
1490743903076,6,44,13,23,23,-7,6,2,-28,-4,12,2,-34,-28,-16,1
1490743903077,-15,19,7,-9,-13,-8,-6,-5,-27,16,5,1,-8,-6,-2,-5
1490743903125,5,-55,-36,7,36,26,9,6,11,15,21,-11,-29,-14,-4,2
1490743903174,44,42,20,-12,-34,-9,-2,10,0,6,-30,-32,2,-1,0,-7
1490743903175,12,2,66,93,48,20,14,8,3,16,-37,-92,-28,-5,-10,-5
1490743903223,19,-13,17,55,27,19,2,-2,-11,-26,-17,-16,-13,-9,-2,-2
1490743903272,-9,-43,28,-9,2,2,7,4,16,-42,-25,9,19,2,-4,7
1490743903321,46,-22,-21,-17,-3,5,-2,0,11,-20,-17,-9,5,1,-3,0
1490743903370,-66,74,3,3,-12,-5,-5,-6,-11,63,-9,-5,-9,2,-7,-5
1490743903372,-8,3,2,-13,-12,-7,-6,-4,12,-7,-34,-24,-6,-2,-6,-7
1490743903418,-24,-37,13,2,-3,-6,-5,-7,10,-53,-14,14,17,4,-1,6
1490743903564,-22,15,-10,-2,-18,-10,0,-1,-29,41,-9,-5,-3,8,7,-5
1490743903567,-23,16,-8,6,7,6,-1,-8,22,-3,39,7,12,-3,1,0
1490743903569,0,-41,-34,-6,-9,-11,19,-5,22,-91,0,-8,19,4,3,-6
1490743903615,2,37,8,-2,43,-5,5,20,-26,60,-22,-29,-40,-10,-22,-12
1490743903624,-14,-5,-7,22,26,27,5,5,-1,-34,17,6,-16,-68,-40,12
1490743903663,23,-10,4,-6,37,91,64,16,16,-32,-1,-6,-39,-49,41,11
1490743903711,0,29,-19,-14,-23,6,68,-3,-5,24,-10,6,38,27,13,7
1490743903759,-12,-24,-7,6,-19,-46,-35,-4,48,-13,2,-20,-34,15,42,19
1490743903807,10,-31,15,6,-10,9,13,9,-11,-38,-23,-40,-19,-54,-46,8
1490743903809,39,38,-12,-14,-13,-24,2,36,-71,22,4,-10,-14,21,-3,-17
1490743903857,30,-5,-9,13,15,-12,-92,9,26,10,22,16,0,19,75,-18
1490743903906,21,-34,1,14,2,-28,-33,-5,-7,-18,-5,6,30,24,7,30
1490743903955,-4,-21,-5,-5,-29,-17,28,-50,-13,-16,-5,-13,-19,-25,-79,-32
1490743904004,-75,-12,-3,-7,-32,-53,-29,9,39,6,2,5,3,-3,-13,-23
1490743904051,12,-17,6,7,17,7,-29,3,29,7,-5,-13,-7,-14,-15,-5
1490743904052,-32,2,-7,-2,24,7,-34,-31,84,26,25,6,29,4,-38,37
1490743904101,-19,-1,-7,7,-2,-30,-3,3,-45,-10,-12,-2,9,16,12,-9
1490743904149,42,-16,-10,-8,-22,12,7,8,-45,-31,-2,-10,-18,-32,-17,-18
1490743904246,46,-17,-1,1,-4,-22,-13,9,-46,6,-11,4,14,6,19,-8
1490743904247,21,16,1,3,5,6,12,2,34,7,-3,-3,-4,-1,-4,13
1490743904344,-21,-12,-7,5,-1,-7,15,-2,-6,-23,-9,0,-1,3,-25,-11
1490743904346,7,-9,5,-1,5,4,8,-19,-55,-6,4,11,14,5,29,14
1490743904347,23,17,16,8,6,5,2,14,-8,1,-2,-11,-10,-1,-8,-22
1490743904394,13,18,4,4,-1,4,4,6,26,17,5,14,8,23,36,30
1490743904442,-65,-1,-6,-9,-9,-8,29,2,39,3,12,16,6,1,-20,-9
1490743904490,-17,-21,-6,4,-1,4,11,-8,-30,-4,-5,5,-8,-22,-24,-24
1490743904491,29,-4,-4,-2,6,13,21,16,-26,2,-3,-5,-6,-16,-13,-8
1490743904539,-12,33,0,-8,-6,0,-10,-9,37,8,2,12,-3,1,8,2
1490743904588,32,17,8,1,-2,4,8,22,-14,-8,0,-5,-2,2,-1,6
1490743904637,-20,-10,-3,1,12,17,-7,-8,14,1,2,4,0,10,10,10
1490743904686,15,-1,-1,-6,-5,-8,-13,7,-27,-11,-13,-7,-8,-8,-10,-15
1490743904736,-42,-8,-3,-10,-8,-13,-37,-14,12,-11,4,8,-2,0,18,25
1490743904739,43,31,7,-10,-2,-10,-12,-11,-33,-15,-10,-20,-33,-3,1,-19
1490743904784,-2,-14,-4,8,25,23,19,10,71,37,13,-1,-4,1,6,12
1490743904832,-86,23,-17,-22,-32,36,-34,-40,48,49,-5,-3,-50,-29,11,-1
1490743904880,-21,-28,-12,-14,-26,-59,-48,-24,-94,-25,-7,-42,-69,-25,-49,-29
1490743904929,101,22,4,-52,-64,-36,67,33,-8,-4,15,25,27,73,26,24
1490743904977,57,-7,-20,-13,-10,17,74,58,-4,-3,-1,47,41,-23,7,-14
1490743904978,25,13,22,45,110,127,82,64,-77,-19,-26,-13,-105,-105,-37,-71
1490743905027,-8,31,16,99,120,34,-1,14,-15,3,-28,-36,-57,-45,79,1
1490743905076,13,-21,-20,-28,18,-128,-128,-34,40,-1,-13,46,12,127,127,85
1490743905130,26,18,6,53,96,56,-19,11,-84,52,13,-35,-107,-53,-118,-36
1490743905172,38,-3,2,25,61,-9,34,-7,33,-25,26,82,5,93,127,125
1490743905173,25,-9,-35,-12,-128,-12,-69,-71,-66,-22,-25,-97,-124,29,24,13
1490743905222,-31,-17,-51,-75,-53,-64,15,-13,4,7,21,13,4,45,127,87
1490743905271,2,-22,-15,-41,-22,-70,52,-12,-44,1,25,67,21,36,-26,3
1490743905319,36,9,-8,19,57,10,80,97,-37,-11,-11,-22,-128,-105,-71,-101
1490743905368,9,-5,-26,-73,-78,9,13,-24,5,5,5,65,85,62,105,47
1490743905417,23,-5,20,106,88,-19,-63,-12,-25,8,-5,-15,43,21,45,28
1490743905418,9,-13,-38,-58,-32,-3,-74,-53,-32,-10,-56,-128,-128,-128,-84,-67
1490743905466,-28,19,69,126,127,127,64,30,-1,15,8,70,-39,127,66,32
1490743905514,1,-8,-44,-42,-84,-90,-91,-56,-5,-6,-19,-76,0,-54,-51,-18
1490743905563,-46,-1,-59,-82,-62,-68,-63,-42,81,12,56,121,96,107,70,38
1490743905611,-25,-8,-34,-44,46,3,0,-7,-3,59,-5,84,67,62,19,24
1490743905613,13,-2,13,-28,-23,10,3,9,-4,37,-20,33,54,29,22,6
1490743905709,8,-68,-10,-87,-119,-116,-82,-34,-21,-34,-29,-48,-25,-89,-58,-34
1490743905713,-17,-9,32,55,113,62,34,4,-4,-94,28,27,9,102,41,2
1490743905759,20,-5,-49,6,86,11,1,12,-3,-45,16,-37,-35,-48,-39,-7
1490743905807,-38,2,21,30,-10,6,2,-6,8,27,-6,-50,-38,-24,-13,-3
1490743905855,11,26,-2,37,-52,-48,-25,-9,-18,-20,-26,21,3,17,1,-5
1490743905856,-2,-31,29,73,50,27,25,13,30,-35,11,118,38,29,2,-1
1490743905904,9,-28,1,-32,-52,-19,-15,-12,15,-70,7,-124,2,5,7,3
1490743905953,30,79,0,-76,-18,-3,0,6,3,0,5,-97,-12,-16,-17,-16
1490743906002,-39,-38,-7,88,20,17,-16,-7,-53,-88,-24,29,-19,-10,10,0
1490743906051,9,-63,47,1,-32,-17,-10,1,53,-43,-66,-18,-4,-4,-10,-6
1490743906099,72,-80,-2,-122,10,-19,4,1,11,14,-23,-101,8,26,11,9
1490743906101,-40,89,20,8,2,-2,7,-8,63,-64,-63,73,20,3,-13,18
1490743906148,26,22,-13,-33,-50,-9,11,30,-42,-12,14,-10,-15,-9,-5,-18
1490743906197,-37,7,-8,12,-10,-6,-9,-15,6,3,-10,18,16,-8,-11,3
1490743906245,-19,0,50,56,9,8,1,0,-28,12,-56,-46,-9,11,-5,-13
1490743906294,18,7,8,8,3,4,-5,-4,27,-44,-34,33,-9,-10,-10,-7
1490743906295,21,9,32,17,0,0,-11,-1,-23,-32,5,16,9,10,4,5
1490743906343,-12,10,-2,53,11,-1,11,12,-16,49,7,-33,-11,-11,0,-6
1490743906392,35,-37,-37,15,-13,0,-4,2,-32,29,-9,-26,-3,3,0,0
1490743906441,-12,4,-7,-21,5,4,4,1,32,22,-13,54,12,-1,5,3
1490743906490,36,41,-21,-28,-43,-12,-17,-4,9,67,31,7,8,2,1,0
1490743906538,-15,1,-24,-16,9,2,2,-1,12,12,-10,26,4,4,8,-5
1490743906540,-18,-21,19,11,10,3,6,1,41,19,0,0,-2,-8,-4,-8
1490743906588,28,99,-7,5,7,-2,-17,-13,4,-78,21,23,5,8,3,-1
1490743906635,-10,-101,58,14,-8,-10,8,2,-49,-114,-20,22,-10,-7,-5,4
1490743906684,-36,-27,10,4,2,3,33,-6,49,-56,11,1,-9,-5,-8,7
1490743906733,-16,41,-10,4,22,16,11,16,45,38,-18,-5,-13,-19,-37,-19
1490743906781,-21,-3,0,5,-29,-7,-4,3,57,9,2,-15,14,7,-2,17
1490743906782,-54,-12,-7,-4,-3,38,27,-13,46,0,26,-17,-16,-13,-17,22
1490743906879,1,46,26,-4,23,34,15,-1,-3,60,15,12,-5,3,-7,12
1490743906886,103,35,-12,-12,7,-43,-30,3,-36,37,29,1,-45,-41,-9,-4
1490743906931,17,-16,-14,18,7,41,32,24,-28,-24,-11,35,10,-7,-46,-47
1490743906976,-85,-60,4,4,26,48,-42,-26,127,-19,5,-21,-8,-64,-35,-17
1490743906977,-69,-59,-27,-31,-24,-1,-33,-7,-58,23,51,15,6,-19,-33,-37
1490743907026,24,-47,-27,-18,-17,-25,-27,0,6,-70,4,4,-6,-9,15,30
1490743907074,18,6,3,2,-6,-24,-35,-13,50,-4,-13,-1,-28,-29,-12,-7
1490743907123,31,32,2,26,-3,4,10,3,-64,-8,-10,-18,6,7,-6,12
1490743907172,-19,29,-12,-22,-27,-47,-38,1,11,19,-3,2,-11,-5,12,-7
1490743907220,-96,-11,4,-5,3,1,34,2,94,11,-1,-14,-7,0,-22,22
1490743907222,-37,-2,17,8,4,10,24,2,-49,-15,-17,-18,-13,-13,-12,-12
1490743907270,-35,-12,-10,2,2,10,52,-1,34,7,13,4,3,13,-42,-2
1490743907319,33,-2,-7,-15,-8,-4,-17,-1,-22,3,2,-8,8,12,17,-3
1490743907369,-39,-12,-13,-14,0,2,-9,8,8,8,16,22,1,-16,-4,-5
1490743907416,-55,-7,12,55,13,27,-7,-9,36,-1,-1,75,-9,-26,0,8
1490743907464,-37,-6,-4,-24,-9,7,23,6,-9,4,-1,-15,0,-15,-22,-5
1490743907465,-9,4,-1,12,-14,-13,-25,-12,5,2,8,-3,-6,10,27,7
1490743907513,29,-1,-4,33,-1,0,11,27,-38,6,-3,109,-10,8,13,-4
1490743907562,10,-2,-6,-21,7,-17,-7,4,26,2,-10,-34,25,-7,-1,9
1490743907611,4,-6,-10,22,-14,-7,-23,-15,-6,-11,-1,-2,1,12,2,0
1490743907658,27,-17,2,23,8,15,18,4,-23,-22,-4,9,-12,-5,-5,-10
1490743907660,13,-11,-1,8,-1,1,-15,-18,8,0,9,-16,2,15,27,19
1490743907708,24,17,-1,-42,-5,20,-21,18,-68,-1,-8,1,2,-13,-8,-12
1490743907758,15,112,-4,24,3,8,33,20,-52,-73,-1,-2,-5,-22,-29,-1
1490743907806,83,42,14,12,22,-12,-13,35,-80,77,-5,-4,-11,-11,-110,-63
1490743907854,6,-85,0,-19,-11,30,-17,-5,25,-18,14,23,-82,-63,-21,-37
1490743907902,-8,99,-22,-58,-77,19,11,-21,-17,62,-11,3,-56,-18,-25,-4
1490743907903,-19,-41,-14,-29,-56,-68,-53,21,18,-29,-13,-29,-27,21,23,-20
1490743907952,71,18,-4,68,127,87,62,10,-99,-9,5,-3,-20,54,61,20
1490743908001,37,-9,-16,15,24,8,21,21,71,35,47,101,110,118,11,10
1490743908050,48,-14,-27,-124,-102,33,-37,-41,-71,-26,-34,-52,122,57,51,26
1490743908101,65,-5,35,29,71,-20,8,37,15,21,10,30,-97,113,61,10
1490743908103,-48,-31,-77,-128,-128,5,30,7,6,-1,43,16,78,56,-51,-95
1490743908147,-36,-25,-11,-21,-69,-128,10,14,42,18,-7,-16,-17,80,-61,-3
1490743908195,-23,8,-12,-36,127,17,-60,-71,28,-16,9,46,-128,-128,-63,-13
1490743908244,59,33,-27,-78,5,2,92,64,-62,-19,-21,-9,-118,-128,-116,-108
1490743908293,25,-1,8,21,36,23,-76,-49,2,10,37,127,127,119,53,36
1490743908341,88,10,-4,-85,10,34,125,106,-65,-5,27,20,117,62,-26,-58
1490743908342,-16,-2,-44,-76,-11,65,28,5,6,-4,-45,-123,-115,3,53,-5
1490743908391,-62,-16,6,-16,21,-34,-39,-66,-7,10,-31,-55,-51,-34,-86,-17
1490743908439,11,5,-7,127,-19,14,10,31,-30,3,56,127,5,-15,-15,-32
1490743908488,2,13,-9,47,-72,95,-14,3,-19,6,-45,-89,-74,-105,-7,-42
1490743908537,4,13,63,94,89,86,70,34,18,19,45,122,127,30,1,6
1490743908585,15,-16,13,-48,-128,-122,-35,9,8,8,16,87,127,118,39,-3
1490743908586,43,25,72,76,107,63,85,66,6,2,-5,-6,-86,-21,-70,-29
1490743908634,16,3,27,76,54,74,67,37,13,-8,-3,-62,15,-26,-13,10
1490743908683,-38,-1,-25,70,-5,-15,-5,-33,-22,8,-1,-33,-98,-19,-21,1
1490743908732,-33,-23,-46,-81,-128,-128,-79,-27,10,-24,1,-27,-46,7,-21,-15
1490743908781,-2,-25,-37,-128,25,-9,-27,-20,-2,-14,-24,-24,-17,-13,9,7
1490743908786,-1,26,5,-55,-39,7,11,11,-8,-10,-24,56,10,78,25,3
1490743908829,11,0,33,98,71,36,10,6,-17,15,19,86,-17,15,-1,-4
1490743908878,-7,-57,-23,-80,-39,1,13,7,-2,-14,-21,-73,-22,-62,-32,-6
1490743908927,-18,-1,21,-100,-17,-72,-13,-8,-5,20,-21,-50,11,-13,-18,-8
1490743908975,17,-16,5,3,32,44,15,3,-15,23,-78,-127,-128,-97,-10,0
1490743909023,9,43,15,84,68,37,10,7,14,-46,-23,74,48,45,13,9
1490743909025,-35,28,-24,-63,22,-14,3,3,46,-95,-30,-77,-38,-15,-4,17
1490743909073,-3,-26,15,29,59,18,7,10,-58,17,-25,-86,-59,7,3,-8
1490743909124,7,23,6,-19,-80,-65,-25,-11,9,20,-16,12,14,14,9,-4
1490743909173,-8,-43,-53,0,7,16,-6,6,-5,40,22,-27,-44,-21,-6,-2
1490743909220,-6,-8,6,-11,-7,-15,-2,-1,-13,-31,34,3,17,12,-4,-2
1490743909272,-36,-40,22,41,23,10,-3,-21,-74,-41,-7,4,-1,-10,-8,-10
1490743909273,18,-2,40,33,12,9,-3,-8,-19,6,5,-69,4,4,7,5
1490743909317,-44,-40,0,13,27,0,10,2,20,19,10,-1,-12,-14,-3,-11
1490743909366,34,-68,-36,22,11,7,6,16,-7,66,9,2,-10,11,-2,-8
1490743909415,13,4,-17,-4,-4,-1,-1,0,-28,-16,-1,-17,-22,-5,-10,-19
1490743909463,6,45,25,-14,-9,-12,-7,4,-28,-15,15,23,11,11,5,-5
1490743909465,9,-36,-12,16,1,4,4,-7,16,-9,32,34,14,7,-1,4
1490743909513,-45,15,-17,-20,-20,-9,-12,-12,15,-30,-3,-4,7,-1,10,12
1490743909560,-3,16,39,2,5,6,12,14,23,-34,-23,39,6,7,18,5
1490743909609,-27,12,25,21,9,1,4,-6,17,-5,9,16,6,-2,-2,5
1490743909658,24,21,-32,-41,-1,10,4,3,-61,-49,30,14,-2,-2,-9,-8
1490743909706,70,-27,14,7,0,-13,-10,2,-16,-19,-2,7,0,-1,-4,8
1490743909707,-43,-37,-22,6,13,0,4,1,23,-13,-8,0,-7,0,0,-6
1490743909756,16,-74,-9,-4,-16,3,4,0,-17,-63,12,-7,23,-18,9,14
1490743909806,-51,9,-8,-13,-27,1,-32,-20,-17,-40,2,-4,-9,-8,-1,-1
1490743909853,37,88,35,18,-3,-4,-5,6,-21,-10,8,8,20,63,40,21
1490743909902,32,-23,-40,1,34,23,26,19,3,-72,40,3,-26,-7,-18,-24
1490743909950,-53,-30,18,27,21,41,-4,-14,69,-23,-23,-11,-8,55,16,10
1490743909951,1,-4,31,18,-16,-37,-31,-14,-2,44,1,0,-7,16,2,-3
1490743909999,-3,19,-11,-5,6,33,42,32,-29,3,10,-4,-4,-79,-15,-32
1490743910048,10,22,31,-1,43,11,22,11,-22,-22,-16,-9,-45,-64,-14,8
1490743910097,-25,-21,24,4,-1,-23,-25,3,33,-20,-38,-21,-5,26,-3,-7
1490743910194,-8,3,-14,16,13,-72,-70,-31,25,13,1,-4,4,61,15,43
1490743910197,14,-8,-8,-19,10,73,28,18,-15,3,11,9,9,-83,-58,-10
1490743910198,-40,-9,-6,3,-17,14,10,-7,96,5,-4,0,13,11,-8,10
1490743910244,-29,14,-5,-1,-5,22,0,3,-14,17,6,1,-11,4,28,-10
1490743910292,80,0,-1,1,49,-6,3,15,-49,8,-11,-15,31,-35,-17,1
1490743910340,-24,104,13,15,-1,10,14,-11,-1,57,-18,-39,-23,-23,-68,1
1490743910389,-7,-50,24,-9,1,2,-8,-17,49,-14,12,13,3,30,26,27
1490743910390,-23,-11,1,36,1,-2,21,23,-13,-18,3,20,-13,-7,-15,-25
1490743910438,-10,-8,-8,-5,-4,-3,9,8,65,11,9,26,-6,5,10,3
1490743910487,5,-12,-10,-14,-5,-12,-24,-4,-14,6,-3,-24,-4,-9,2,8
1490743910536,65,6,-5,-1,9,-6,-1,18,12,-12,-6,1,3,13,-8,-9
1490743910584,5,-5,-5,-13,-10,5,12,-5,0,8,-2,15,-4,4,-1,-2
1490743910633,-29,5,3,-40,-8,-9,1,9,-16,-14,-5,-6,-2,-6,-3,1
1490743910634,-1,7,6,12,4,-13,-5,5,-21,2,14,8,1,-2,-10,-12
1490743910682,16,-7,-3,-13,-8,-9,-15,-6,8,15,5,-16,1,-3,19,18
1490743910730,-6,-11,-8,-1,-1,0,-3,-9,1,-2,-3,1,-2,0,-8,-14
1490743910779,-20,3,-2,3,-2,-12,18,7,-47,-20,1,40,7,15,-8,12
1490743910827,37,4,-3,1,-18,-11,9,-2,-50,-2,0,29,4,-10,0,-9
1490743910828,-5,-4,-3,-15,-5,-13,38,25,49,-4,7,-18,3,4,-16,-5
1490743910877,51,8,3,8,13,9,30,37,-44,-2,25,26,-7,14,-25,-24
1490743910926,-68,-16,-17,-17,-13,-23,-42,-29,99,22,20,10,-26,3,-42,4
1490743910976,72,20,15,19,69,-15,-25,-12,-128,-24,-2,-27,74,49,-4,-6
1490743911025,54,19,-13,-38,-51,-34,-25,-9,-28,32,26,59,12,94,62,52
1490743911072,70,11,6,11,-89,9,71,48,-45,-23,-31,-64,-63,-31,-36,-40
1490743911120,-117,-2,5,-9,28,-10,-47,-5,26,-8,-6,-86,-28,-38,84,15
1490743911169,53,6,21,55,-8,49,15,15,11,3,-10,29,45,47,19,59
1490743911171,-90,3,9,71,116,56,87,7,92,-2,-10,45,-28,90,-9,50
1490743911218,61,-15,-1,-18,50,3,58,37,-88,-4,38,31,-16,80,69,7
1490743911266,-36,-32,-30,-34,-22,-123,108,49,-37,-2,-38,-128,-128,-28,-128,-91
1490743911267,70,-8,-27,-22,-1,13,74,-1,-30,-31,-35,59,41,-122,-61,-32
1490743911316,51,14,0,-68,-34,-5,-72,-59,9,6,33,83,127,100,101,71
1490743911364,-34,-16,21,85,111,127,42,4,10,8,37,23,-62,71,78,50
1490743911413,6,-4,-40,-70,-51,-17,15,-10,-5,-1,-9,-52,-20,41,74,37
1490743911462,1,8,-20,68,80,-82,-111,-28,-3,-1,-18,-99,-128,-100,-6,30
1490743911559,10,1,2,20,61,73,80,33,11,1,-13,-6,-58,-27,-21,-15
1490743911563,-20,-7,13,-49,85,-45,-98,-57,14,7,8,82,-6,7,52,25
1490743911565,10,4,-25,-69,-92,-16,16,-12,-9,-3,27,-28,11,-52,7,33
1490743911609,-65,-9,8,-42,-31,38,37,39,21,12,16,62,50,26,26,20
1490743911657,1,0,-4,32,78,66,82,-29,-18,-4,-22,46,-58,-8,-47,-32
1490743911705,22,3,-19,-79,-48,-36,36,44,21,0,-20,89,127,30,74,62
1490743911753,26,-2,24,52,72,65,86,58,0,-6,20,-52,-81,14,-44,-35
1490743911755,4,8,24,14,43,-7,-8,1,2,-4,-54,-96,-74,-60,-42,-31
1490743911803,20,-3,-6,86,33,84,38,8,-5,-4,50,11,-100,10,5,-2
1490743911852,7,-5,-30,-89,-128,-99,-76,-57,13,7,25,81,127,108,31,20
1490743911901,18,12,9,66,6,61,50,31,-19,-2,-6,16,-4,-68,-38,-38
1490743911949,7,-6,-40,-114,-128,-79,-29,-7,-20,-9,-3,23,7,0,-3,-7
1490743911951,6,22,35,35,34,43,13,12,-10,6,10,53,5,24,11,5
1490743911998,3,-58,-53,58,17,-17,-17,-6,20,-17,33,18,-32,-33,-5,-2
1490743912048,15,25,23,28,15,-10,12,21,-79,-7,-4,-59,55,7,-10,-13
1490743912096,29,49,-32,-15,-101,-49,-39,-25,82,-6,28,74,76,11,19,30
1490743912144,-26,-8,-34,-71,-35,-39,-18,-2,-43,-24,-19,42,60,10,18,-9
1490743912192,17,35,36,19,12,-4,3,6,-25,-53,23,33,42,49,9,-7
1490743912193,18,40,-15,-54,-23,-6,-7,-3,6,55,7,-34,39,17,-2,0
1490743912295,43,15,37,28,70,23,9,-2,-75,95,43,-42,-59,-25,-29,-15
1490743912299,22,-43,-16,21,-47,-16,-18,-6,18,-10,-25,-18,-46,-18,-4,0
1490743912343,35,-128,4,19,0,2,1,-1,9,-115,-31,-65,18,0,9,9
1490743912393,-9,28,-1,9,-13,-14,-13,0,27,59,-5,-25,-14,-20,-10,2
1490743912436,-54,-14,19,-23,0,-6,-2,-13,-113,-2,-50,-18,-3,2,-1,-1
1490743912437,-5,-17,-14,38,2,2,1,-6,11,-11,13,38,-6,3,7,13
1490743912485,-14,52,-14,-7,-1,2,-1,-1,5,-32,54,3,5,4,3,4
1490743912534,31,-28,7,27,-10,-1,12,14,-21,-9,-25,23,-1,-5,-14,-11
1490743912583,-16,16,15,28,-9,-9,-12,-9,7,-10,-40,-12,2,4,-6,-6
1490743912631,-10,-37,-36,-34,5,1,13,4,17,-17,1,-25,-6,-6,-3,-1
1490743912632,12,-2,1,8,8,17,25,11,-45,-14,1,9,-6,-1,-11,-17
1490743912681,1,-10,3,-13,-5,-6,-14,-1,28,3,30,-10,-16,4,-7,0
1490743912730,-6,18,-6,-11,-11,-6,10,6,2,16,9,18,-1,16,23,7
1490743912779,-28,80,5,48,-1,-10,14,16,34,-32,-54,-12,12,1,-32,-12
1490743912827,23,-49,9,35,20,30,7,4,-12,-2,25,32,17,-5,26,9
1490743912875,8,1,7,3,14,5,19,17,7,-28,-7,-19,-18,-25,-43,-11
1490743912876,-25,26,-25,-14,-2,0,12,-7,33,-15,18,-4,-10,1,-2,13
1490743912924,36,-30,-48,-22,-12,-35,-5,-28,-1,6,-17,-3,-47,9,53,22
1490743912973,-15,-4,-17,0,1,-16,-28,-20,11,-15,1,-35,4,37,11,-1
1490743913022,2,30,-16,-16,-33,2,20,15,37,34,-4,-20,13,1,-8,10
1490743913070,-50,-11,-3,-32,-58,-5,31,1,-15,78,-6,20,35,-11,-8,7
1490743913119,15,14,23,15,-24,-29,-64,8,-19,-19,-40,-38,-87,-47,0,-33
1490743913120,23,14,0,15,15,-34,-15,-1,-80,-50,18,18,3,42,63,26
1490743913169,-87,-9,-18,2,9,53,34,3,66,7,15,21,51,-22,12,8
1490743913218,-28,25,-2,-30,26,40,76,27,55,1,-2,32,10,-59,-45,-2
1490743913267,59,-31,-6,30,64,57,-15,0,-66,-42,-4,-15,-44,-75,-37,-54
1490743913314,-16,46,24,-53,-5,-22,-21,-17,15,28,-23,-8,-8,6,-32,-11
1490743913317,45,7,-8,28,-9,-28,-10,-27,39,29,6,-2,7,31,-59,-12
1490743913363,-28,-3,-6,5,-6,-5,-29,-27,-16,14,4,-17,-16,-7,-5,-10
1490743913412,0,-5,-9,-1,-1,55,72,25,-11,1,15,22,24,-31,-14,10
1490743913462,-15,-11,20,1,-7,-24,-43,-29,-52,-12,-13,3,1,10,8,7
1490743913509,11,-2,2,-4,3,13,21,10,-5,5,17,23,9,-8,-8,-8
1490743913557,16,6,13,2,-12,-1,16,-8,-56,-17,-21,9,-4,10,4,-2
1490743913558,16,-1,-8,3,-1,-17,-20,-8,-17,-6,-2,14,1,-7,5,-5
1490743913607,-13,0,1,-11,-6,14,3,-5,-20,8,-5,-32,-5,-10,-38,-18
1490743913656,-23,12,7,-2,-3,-11,-11,-11,-7,-11,7,19,5,9,35,7
1490743913705,-17,4,2,3,-5,1,-6,-2,-4,-14,-7,-18,-6,-5,-23,-5
1490743913753,39,6,-3,9,6,11,5,9,-13,7,3,6,-6,9,32,21
1490743913755,-19,-1,-7,-5,-15,0,-10,-8,-11,-27,-3,-12,0,-8,-5,-4
1490743913802,-24,-8,-3,10,-2,-1,32,26,-7,22,7,25,1,-13,-17,-10
1490743913850,44,9,1,5,-2,-5,-22,-13,-21,13,11,-4,-1,-1,-7,-5
1490743913899,38,-10,16,55,-19,-14,-9,-12,1,15,-3,10,0,6,1,-4
1490743913948,58,-1,-4,-8,7,18,53,41,-8,-4,18,28,17,-10,-10,-1
1490743913996,68,-8,-10,1,0,1,-3,13,-21,-4,-6,-8,1,29,37,5
1490743913997,45,12,11,-9,-1,-9,5,10,-9,-5,-12,-15,-29,-13,-8,-8
1490743914046,40,20,19,1,82,12,-18,-10,-49,13,-12,-5,-40,2,8,-9
1490743914094,-25,-8,-16,-45,-125,-33,-98,-41,-19,-17,15,19,77,-12,35,-2
1490743914144,-9,28,-4,-53,-65,17,22,39,-13,-25,-30,-53,-62,62,17,2
1490743914192,18,-2,-18,-33,-29,26,83,11,8,-2,-34,-84,-114,-65,4,15
1490743914241,-7,19,28,32,107,33,57,1,58,-4,-8,43,1,-83,-8,-7
1490743914242,68,0,5,83,77,66,-16,3,-43,29,43,46,127,84,-58,-6
1490743914289,10,-9,-10,-13,-44,54,61,33,-38,-28,-45,-128,-75,-1,-6,-21
1490743914338,-35,11,0,-76,-99,-67,44,-24,74,19,24,75,76,63,85,56
1490743914387,-30,17,8,44,16,26,-96,-84,41,-1,3,-98,-106,-127,64,63
1490743914435,-29,14,48,93,99,50,127,110,-12,-9,-26,56,-15,-15,-52,-85
1490743914436,45,-2,0,-63,105,-28,-24,42,-11,-9,15,50,96,54,2,-7
1490743914484,-119,-19,-47,-80,-73,-128,-41,-55,105,4,21,44,55,58,27,51
1490743914533,18,7,-25,-41,-100,86,125,48,-17,12,-25,-98,25,58,-35,-79
1490743914582,26,54,121,127,127,-47,-38,39,-59,10,-15,-49,-38,-94,-59,-18
1490743914631,-49,3,2,26,37,-100,-90,-27,30,3,8,62,8,59,31,-2
1490743914680,0,2,-24,42,48,30,42,2,37,20,41,12,-56,106,113,69
1490743914682,58,5,9,80,59,59,48,8,-31,-9,-37,-95,-81,-58,-63,-11
1490743914728,25,-95,-68,-101,-128,-90,5,0,23,73,59,0,34,87,29,13
1490743914777,5,36,9,16,55,-24,-30,-11,-55,11,4,-56,-6,27,-2,-9
1490743914826,-38,13,-5,-58,-82,31,20,1,28,-60,24,45,79,-15,20,-17
1490743914874,20,-35,-16,-33,-34,-56,-54,-3,39,-12,-14,27,-73,-102,-82,-18
1490743914922,15,1,16,127,29,32,50,20,-9,2,1,-20,-125,-26,-53,-13
1490743914924,-46,-22,8,0,99,127,52,19,8,7,19,25,-37,-14,-2,28
1490743914972,-7,-9,-20,34,51,42,-4,-11,8,1,17,53,10,90,21,25
1490743915021,12,4,-24,-65,-10,43,8,21,-7,-13,63,89,68,86,19,9
1490743915070,-13,3,-9,-84,-128,-126,-77,-24,-27,-11,-31,-19,20,-10,4,-62
1490743915122,28,0,-11,-71,-83,-34,-8,6,-16,-3,-17,-52,-30,-67,-32,-10
1490743915166,-17,-11,7,28,119,62,33,-17,16,5,-6,-43,-106,-10,-11,14
1490743915215,-13,-3,-18,21,-78,40,39,4,12,-4,45,12,-37,-108,-58,-21
1490743915217,37,48,-61,-84,-57,-4,-21,8,-8,45,21,69,-31,-66,2,7
1490743915264,-25,17,19,0,32,-47,-6,-10,-7,-8,-49,-65,-37,-11,-8,16
1490743915313,-13,-78,2,-4,-14,-25,22,-8,49,-67,-30,40,107,56,22,6
1490743915361,-29,-58,-27,-41,28,22,24,14,-32,-27,32,87,86,-3,4,-6
1490743915362,-50,-41,-14,-2,33,52,6,-9,11,-2,19,-12,10,6,-6,-3
1490743915411,46,-60,-2,29,23,47,11,1,-26,30,-33,-39,-69,-67,-58,-14
1490743915459,58,-52,-36,41,67,33,20,12,-47,6,-9,-96,-74,-21,-26,-18
1490743915508,-23,39,-21,-28,-17,-24,-13,-12,7,-11,18,13,33,19,23,1
1490743915557,-17,40,48,29,-14,-21,10,7,6,-31,-47,-46,34,12,19,11
1490743915608,-1,-10,-47,0,-9,-9,-13,-10,5,42,6,17,0,-2,3,12
1490743915612,-58,44,-28,-74,-22,-4,11,0,20,-29,-63,4,32,9,-6,-9
1490743915654,1,9,60,17,1,-4,-11,1,22,21,-35,15,-28,-14,-1,-11
1490743915703,22,45,2,10,-3,2,7,18,-32,5,26,-43,-3,-2,-9,-10
1490743915752,4,-10,-6,-3,14,8,-5,7,-8,25,-6,-15,-9,-11,-1,10
1490743915800,-26,34,-14,-14,-24,-9,-5,-8,27,-38,20,34,3,-5,5,12
1490743915801,55,18,-7,23,0,-1,-3,9,-23,-28,-18,21,11,13,12,-2
1490743915849,-35,7,13,-39,-9,2,4,4,-5,-60,-5,-19,18,7,3,-5
1490743915946,4,16,-8,20,-7,4,5,4,-41,10,-21,-5,-30,-22,-12,-10
1490743915962,19,-14,-12,6,43,19,8,-6,-14,0,-6,-36,-9,10,-4,-8
1490743915997,77,11,-41,-30,-53,-27,4,32,-5,53,28,-10,-27,-7,-24,-22
1490743916044,56,10,5,-10,-17,-45,-70,-14,-26,-22,-17,10,7,36,49,2
1490743916045,-2,-40,8,-15,8,17,0,-13,-5,-21,0,10,-21,2,14,34
1490743916093,-28,-34,19,28,82,19,6,2,17,-32,-14,-2,-39,9,-10,7
1490743916142,55,1,-44,-21,12,-76,-15,13,35,66,8,-13,-24,-10,-30,-12
1490743916190,-98,28,-40,-14,-49,-1,-32,-19,-2,-32,21,20,19,0,42,17
1490743916239,32,-26,-11,-15,-50,16,4,16,-19,-80,7,5,-23,-31,-21,-18
1490743916288,61,-43,-7,-24,-30,-44,-40,21,41,-68,-4,-9,-12,50,68,3
1490743916290,-59,-100,-38,-29,-23,2,-19,1,-12,-95,7,-7,-18,-6,7,20
1490743916337,18,-9,-2,10,26,79,69,-2,-123,-7,-16,-11,-45,-91,-69,-57
1490743916385,11,-24,2,12,3,10,-36,-9,51,8,-24,25,43,54,62,41
1490743916434,-89,-64,-28,2,-17,-28,-44,-39,0,-45,7,-69,-102,-1,35,-2
1490743916482,-42,-74,-9,-24,-28,-20,-6,-15,3,17,12,10,-2,41,53,-1
1490743916483,49,32,-16,-8,7,84,29,9,-66,-41,7,-39,-35,-101,-58,-8
1490743916533,-12,23,3,21,3,11,18,-26,-50,35,4,10,-18,24,3,3
1490743916581,-85,-1,-2,-11,-11,0,19,-7,111,-1,1,22,33,69,46,12
1490743916632,-25,11,-1,-7,5,11,-18,-3,-9,2,5,2,7,-3,-12,-18
1490743916678,-18,12,8,25,-8,-15,-28,2,23,11,0,0,-6,-24,-12,-4
1490743916726,94,9,8,-9,5,4,26,42,-57,0,-4,-10,5,5,-12,-20
1490743916728,2,-10,-18,-19,13,-11,-24,2,-52,-4,7,14,14,-2,-46,-10
1490743916775,60,-5,5,7,-2,9,-19,15,-42,-6,4,27,4,2,9,2
1490743916824,-21,-22,-1,-18,-3,-4,-24,-17,58,-20,-8,-8,-9,4,23,4
1490743916873,19,19,6,-7,21,7,-26,-12,71,5,-8,-18,8,3,-1,15
1490743916921,59,-5,-4,2,-8,-23,-14,-15,-102,-4,-3,-6,5,-9,20,-5
1490743916922,33,2,4,9,-4,-12,-23,-10,-22,-11,-1,12,13,-4,-18,10
1490743916970,-11,0,-16,-47,6,14,18,11,22,-16,12,34,1,1,-9,5
1490743917019,-33,-1,-3,9,-3,2,-11,-17,-28,-11,-8,-9,-4,-4,-15,-28
1490743917068,-82,-6,14,19,-2,0,23,26,-48,-20,-8,-4,17,21,-49,-30
1490743917117,-7,-24,2,-1,-8,0,-9,-17,-31,8,4,-12,19,-18,-5,-15
1490743917165,-107,-11,-2,-21,5,15,6,7,40,-5,-3,16,3,-51,5,-4
1490743917166,30,8,8,15,-57,-31,-26,10,14,16,-3,-32,21,28,40,13
1490743917214,-117,-31,-8,29,58,11,68,-50,26,-44,-22,-28,-35,-45,-71,-26
1490743917265,-77,-1,-23,-11,22,14,-9,-18,-81,52,14,70,86,20,91,21
1490743917314,-76,-1,-6,-24,-26,-29,-59,-3,22,-13,-1,80,61,46,24,29
1490743917361,97,-11,-21,-128,-41,-31,-116,6,-37,-3,2,-9,-33,26,35,-12
1490743917408,46,-13,-41,30,-114,-109,44,9,-111,-20,6,-103,-78,-115,-81,-36
1490743917409,-128,41,31,100,101,90,58,8,103,39,25,69,34,21,-35,13
1490743917458,-29,-15,19,56,98,-128,-128,-112,11,-11,-6,35,-123,11,28,6
1490743917507,-53,-12,-19,48,6,-21,-22,-24,6,31,6,-126,-96,27,-37,-11
1490743917555,63,41,21,69,127,79,67,46,-10,-18,-28,-83,-128,-113,-51,-39
1490743917603,34,-22,-23,-9,42,63,31,57,-71,30,-32,36,101,71,-40,-11
1490743917604,82,-40,7,-102,-98,2,-65,-37,1,-10,18,1,55,127,40,24
1490743917653,-128,-27,-75,-26,-123,-128,-14,11,17,-23,-36,-62,-128,-128,-97,-106
1490743917707,105,5,-8,-10,41,13,22,41,-63,23,21,58,61,-16,4,-17
1490743917750,-34,24,18,34,29,122,102,12,33,16,28,-32,50,-42,12,8
1490743917799,0,-5,-49,-82,-87,-120,-128,-15,-53,-13,-70,-49,-75,99,127,-12
1490743917847,48,-2,53,127,127,80,11,16,43,12,-29,-53,-7,-128,-74,0
1490743917848,-128,3,1,17,-78,66,81,-3,115,8,27,19,-44,-18,-30,-1
1490743917897,-49,21,39,115,4,127,117,-15,3,10,-33,-86,47,-55,-48,-16
1490743917945,-12,-17,49,-14,-60,66,80,-27,-8,-6,-13,-72,-128,-83,-128,-26
1490743917996,-5,-26,16,99,-9,-122,-89,-31,-14,-6,-52,-62,111,79,-5,-10
1490743918047,-22,-2,-4,67,-92,13,-25,-7,-7,5,7,-122,-7,12,-21,-18
1490743918091,-26,-5,-67,-34,49,-40,41,48,13,17,29,59,87,59,56,-10
1490743918092,24,1,40,50,-12,36,-50,17,-47,7,11,17,-37,29,-2,-25
1490743918140,-25,-10,-39,-26,1,-63,-21,-15,10,-2,87,62,97,53,-9,-1
1490743918189,-30,-4,-28,-78,-94,25,-6,-3,25,-1,-8,-80,-121,-128,-32,20
1490743918238,26,16,67,86,49,-41,65,42,-5,-9,-27,-42,127,32,-83,-80
1490743918286,-16,-4,-33,35,61,49,8,-3,16,-2,24,57,48,-47,-23,-17
1490743918287,-12,3,-26,-3,-116,-63,-1,-14,18,6,9,-39,-91,45,18,19
1490743918336,8,-2,3,-56,-9,-34,18,13,-7,-4,-4,60,42,34,25,14
1490743918385,-8,2,13,-24,10,-61,-5,2,12,5,-27,6,-80,-55,-14,11
1490743918433,24,15,81,109,70,120,42,28,-16,-26,11,-3,-67,19,64,13
1490743918482,17,-7,1,11,-20,2,-6,-5,19,8,31,62,36,23,-8,-8
1490743918530,-46,15,-1,43,-4,-9,-34,-19,16,-27,5,-26,16,18,6,7
1490743918531,-16,-31,-19,34,30,12,0,-12,-24,-16,38,109,74,47,23,6
1490743918579,-8,7,11,14,-11,-19,-11,-12,-26,67,27,-15,6,-18,19,0
1490743918628,-1,3,1,-37,-29,-22,-14,-2,-48,-45,-28,-30,17,31,9,-8
1490743918677,31,-4,37,31,-28,8,9,1,-37,-28,-31,-33,-5,-8,-2,-2
1490743918728,-1,-40,-24,20,5,19,3,-7,16,-16,14,42,25,6,14,8
1490743918774,50,-27,8,-13,-4,-1,-8,2,36,-67,-40,18,28,27,17,10
1490743918776,-45,29,6,-32,-38,-11,-15,-12,40,31,6,-36,1,4,5,10
1490743918823,-22,23,-13,-47,-11,-3,-1,-1,5,-20,23,16,15,1,6,-8
1490743918871,-2,87,12,1,-3,-4,-16,-6,-20,-73,11,26,18,7,6,-7
1490743918920,8,49,-33,-58,-32,-15,-12,-4,0,-68,-29,24,12,0,11,-1
1490743918968,11,-50,-17,14,24,11,9,9,15,20,30,-14,3,6,6,12
1490743918970,10,-66,-3,-3,2,-11,-9,-3,13,95,-27,-11,-3,4,-2,0
1490743919018,-19,7,-46,-41,-7,0,-4,-6,2,-53,59,-5,-46,-20,-12,4
1490743919067,19,-114,54,33,1,-1,3,11,-27,-39,-46,4,0,-1,3,3
1490743919115,-7,-1,15,-6,-5,-8,-7,7,-3,-58,-4,3,15,6,3,7
1490743919164,17,41,47,8,-4,-12,-5,11,13,-83,-20,8,30,5,2,-2
1490743919212,-26,-77,-14,-3,8,-22,-23,-51,-2,127,4,-21,-38,-25,-30,36
1490743919213,-3,115,25,31,38,24,-27,-16,20,45,-10,-5,-26,-18,3,11
1490743919262,11,-19,-38,25,58,20,32,-27,54,56,83,-7,-49,14,33,45
1490743919311,12,-63,33,-13,-53,-9,-2,-4,-24,47,-120,-7,15,-8,-10,33
1490743919360,-11,-20,-1,9,-59,-17,-38,-19,-21,-91,-45,-46,-75,-29,-28,-3
1490743919411,-14,41,-36,-21,-20,1,-8,-31,-17,-62,-26,0,36,1,62,94
1490743919413,24,15,43,34,71,12,1,0,-2,19,-38,11,-47,61,15,-27
1490743919457,25,-61,-5,-44,-16,2,-5,-30,-4,-42,25,22,53,65,-6,-16
1490743919505,-7,-46,-17,-35,-84,-128,-107,2,0,-25,-17,-79,-20,-17,-85,-85
1490743919554,101,30,1,33,-17,22,39,6,-72,11,8,34,19,12,-43,-14
1490743919603,-35,25,14,79,127,105,3,24,7,38,39,68,27,-33,-90,-34
1490743919651,-5,45,-6,-10,75,54,-24,42,97,27,-4,21,32,-6,93,34
1490743919652,-15,2,-22,-7,2,78,124,12,-20,14,6,24,64,-78,-73,18
1490743919749,-19,-18,-5,-5,-17,70,74,59,8,-26,-28,-30,-86,-64,-46,-12
1490743919752,69,22,13,3,9,-68,-108,-41,-32,-14,-2,-32,-39,24,40,25
1490743919799,-52,-88,-17,-12,-36,-22,-68,-48,76,-43,4,28,46,70,41,48
1490743919848,75,32,-2,23,53,57,-22,-18,9,30,9,-28,-47,-39,48,34
1490743919895,-49,-29,-23,-10,-10,-26,-42,-36,10,-20,12,1,20,53,33,-4
1490743919896,-11,62,12,-6,-10,19,48,53,-14,45,4,-5,-20,-16,-21,-31
1490743919944,-67,4,10,14,20,-9,26,-9,-14,-30,-6,5,-16,-13,-34,-13
1490743919993,-38,-27,-9,-13,3,-4,-83,40,105,3,8,10,10,10,15,-2
1490743920042,14,2,-3,-7,-4,-7,-14,-16,-81,-1,-9,-4,-2,-4,-20,12
1490743920090,54,-14,-9,2,8,-21,-53,10,-25,-7,2,9,2,37,57,21
1490743920091,-34,-28,-16,-12,-2,-11,-14,-22,65,14,8,-2,2,4,17,46
1490743920139,97,-4,-13,-7,4,21,90,41,-33,-7,1,7,8,-5,-35,-31
1490743920189,-65,2,0,-3,2,-11,12,-10,-22,-17,-11,-6,5,19,17,2
1490743920237,-33,-5,-7,0,14,19,23,1,-9,23,7,10,-5,-15,-22,-20
1490743920286,21,0,-5,-2,2,-8,-5,-1,-79,-3,-1,-4,-3,18,20,14
1490743920334,5,2,0,-7,-16,-2,-37,-6,-5,-4,3,13,7,6,37,34
1490743920336,19,9,9,3,7,3,-51,10,30,11,-16,-22,-16,-15,20,-14
1490743920383,62,-1,2,23,7,6,63,39,-3,-5,9,4,2,-3,-20,23
1490743920432,38,2,-16,-11,-15,-1,40,26,-15,-13,-1,-3,-14,-24,-6,-27
1490743920529,81,-3,-16,-29,-22,-13,-2,-1,-99,-4,-3,11,9,-4,-50,-12
1490743920529,21,-7,12,42,26,23,-5,-13,-46,-13,-15,-3,-56,-19,-62,-72
1490743920577,-41,22,29,10,-45,-17,-24,-9,39,0,15,9,7,50,43,25
1490743920580,-19,-19,-16,-15,-9,16,-38,-32,-35,-25,-18,-24,-18,-37,-14,17
1490743920627,33,17,-20,-8,15,20,47,31,-99,-5,22,43,11,40,2,-43
1490743920676,117,16,-37,-62,-96,-122,-82,-46,-83,-33,-29,-83,-49,65,121,69
1490743920724,86,33,39,18,-1,-85,13,26,23,-2,-27,4,82,106,14,-3
1490743920772,44,3,-31,-47,-128,-5,-111,-69,-80,-26,-2,-58,33,-36,59,25
1490743920773,16,-10,-34,-98,-97,-39,-71,-43,20,-4,-4,-16,48,16,-85,-27
1490743920821,29,-38,-52,-62,-50,-64,-46,-53,69,-12,-27,-83,-128,-30,60,23
1490743920870,-96,19,-41,-68,43,8,42,56,-7,-3,13,35,6,-88,-4,-15
1490743920919,79,-47,-48,14,6,61,49,-19,-22,-39,15,-21,78,72,52,49
1490743920968,-117,14,13,52,53,38,-14,-49,-3,-23,-10,-38,-127,-128,-72,-40
1490743921016,122,15,33,37,109,63,-32,11,-34,-14,4,64,-23,-100,-76,-83
1490743921019,30,9,-16,-48,57,8,51,18,-77,-7,-12,0,-128,-79,-45,-31
1490743921066,32,5,-50,-6,7,-11,9,23,1,8,-40,-59,25,25,-31,9
1490743921114,-125,-23,-10,-23,-54,-65,-66,-50,-20,-8,-16,-57,-10,27,83,-1
1490743921163,39,7,34,44,-23,74,-4,-2,46,5,9,34,75,-22,-38,30
1490743921212,59,24,15,32,58,-3,26,43,31,2,49,29,54,59,1,6
1490743921260,-26,-29,-34,-26,0,33,28,9,26,4,9,30,75,3,-89,8
1490743921261,-41,9,74,28,103,69,7,3,-45,-2,13,28,-128,-53,-4,12
1490743921309,-100,-31,-32,-92,36,91,2,-25,83,-12,4,-36,-33,127,74,20
1490743921358,-2,-82,-36,-26,53,-128,-8,39,50,37,-4,-80,-82,-10,4,8
1490743921407,36,-36,-70,-96,-61,-111,-77,-61,-37,86,65,57,-95,7,-8,-4
1490743921455,15,22,-23,65,34,-10,-50,-28,-22,-71,28,75,0,89,23,10
1490743921457,-14,-25,-14,-66,-125,-86,-26,-25,-28,18,42,47,-11,25,-6,1
1490743921504,3,74,-3,-64,-54,-85,-50,-7,-1,2,72,125,127,127,85,23
1490743921553,11,10,39,19,116,83,2,4,-16,-113,-47,59,50,-17,-9,-17
1490743921602,-12,6,-22,-14,-107,-85,-46,-32,-7,28,-46,-128,-6,-25,-11,0
1490743921651,-29,10,48,127,127,77,52,19,8,-32,-3,-55,-49,-49,-24,-14
1490743921699,-13,-40,-38,-73,-55,17,4,-5,3,-12,-7,-38,-52,0,-31,-8
1490743921703,25,-23,-33,-28,-43,-13,-8,8,-28,10,18,64,49,27,37,-2
1490743921748,-15,-94,-18,-103,20,29,25,1,13,-17,-7,-10,-32,-40,-13,-8
1490743921797,-31,-66,-50,18,74,20,16,-11,-80,74,19,-30,-81,-25,-26,-19
1490743921845,1,49,-4,1,-3,-4,0,10,-27,26,-8,25,2,-4,-33,-23
1490743921894,40,-3,22,98,37,10,26,6,-23,-100,-66,-9,44,11,-10,5
1490743921942,41,0,34,30,5,-2,2,4,41,-73,-11,-29,17,-14,-5,-3
1490743921943,19,-28,-17,-26,-2,3,2,17,-12,25,24,16,-17,-6,-6,-4
1490743921992,-51,40,-3,2,-17,9,44,-5,47,-69,-15,-47,7,1,-13,-6
1490743922042,1,34,75,5,1,-4,-5,-3,-20,-17,-33,-65,-64,-19,4,9
1490743922094,30,14,32,0,-25,-4,-11,-5,-24,6,-37,0,-8,13,9,0
1490743922137,-21,36,-35,-5,-8,-4,-17,-15,-49,-104,89,75,33,11,4,-5
1490743922138,-7,43,3,17,-4,-3,-4,-7,-68,-16,-49,-65,27,5,3,-3
1490743922186,6,-11,-19,-25,-5,3,-10,7,-12,6,-34,-33,-11,-15,-9,-5
1490743922235,-8,28,-38,-18,-3,-7,1,-9,15,-25,14,-7,11,9,2,-6
1490743922284,-3,-54,11,-22,-15,-10,-13,-2,-12,2,27,13,1,1,6,6
1490743922333,41,-65,6,1,7,16,20,10,19,0,4,16,11,7,6,26
1490743922381,-15,23,-28,-3,8,13,1,-2,38,-50,-17,-10,-10,-11,-12,2
1490743922383,-24,64,-12,3,15,0,-18,7,-68,9,-14,-18,2,4,17,-14
1490743922432,43,23,-43,-43,-6,22,30,25,-28,-56,21,9,21,-27,-16,-3
1490743922480,-68,21,6,-3,-11,6,80,29,97,-4,11,-2,10,-10,-22,5
1490743922528,79,-75,-8,-43,-98,-15,-3,20,-15,0,-42,-91,-100,-21,-61,-33
1490743922577,84,32,-10,-5,22,18,-18,18,-58,-4,2,14,-3,-15,-5,-32
1490743922579,-19,4,-4,17,49,-6,8,3,17,-19,-5,-40,-81,-21,-14,-23
1490743922626,-68,-7,-24,-44,-36,4,21,0,-2,-11,22,36,-2,-1,3,-4
1490743922674,-94,-7,1,-15,-22,-24,-6,-27,71,-12,-14,-16,-1,23,44,53
1490743922723,5,-39,11,-2,77,2,28,34,0,-62,-2,19,53,-41,-63,-16
1490743922772,17,-18,-8,-4,0,46,-15,-9,32,-3,12,-16,-48,-37,4,11
1490743922820,32,22,-6,11,-27,-18,9,8,-53,23,2,-15,-19,10,30,15
1490743922821,94,-5,3,6,30,-51,-27,-18,-114,-13,-2,24,-13,31,2,-27
1490743922869,19,1,12,-6,-12,19,-1,22,27,-10,-11,24,43,6,37,6
1490743922918,-64,-71,1,-2,-48,-16,40,-3,-37,-38,5,-22,-7,23,-59,-38
1490743922967,13,96,-5,12,30,69,52,19,5,85,-2,-15,-37,-99,-53,-12
1490743923016,-89,2,21,-4,1,25,23,3,-65,-51,-9,-15,3,-13,6,-7
1490743923064,-35,-26,-9,-5,3,-30,4,-19,100,22,10,2,-1,-14,-59,-1
1490743923066,-28,1,2,7,-3,-57,-26,3,-88,1,0,9,3,61,104,25
1490743923113,21,38,-2,7,5,0,-20,-18,-14,-21,-6,0,20,7,7,18
1490743923161,38,13,9,15,32,57,11,-7,-60,12,0,-6,-8,-26,-32,-21
1490743923210,82,-5,-8,6,0,8,56,46,34,19,-5,-12,-9,7,-7,6
1490743923258,17,14,0,-22,-15,2,-26,-5,-4,0,2,1,-1,20,-21,-10
1490743923259,24,-13,2,5,-5,2,-6,-2,-43,-4,-4,1,-3,1,-25,-29
1490743923308,48,-12,-10,-2,1,-11,-24,-2,-75,-4,-2,-7,-4,-10,-18,-27
1490743923357,-7,-2,1,12,-17,1,11,4,-42,-2,1,11,2,17,4,-3
1490743923405,-14,10,-12,0,-4,-16,-10,-16,47,-31,-2,9,-18,-19,-16,-10
1490743923454,-5,24,-2,3,-1,-2,-15,-21,-4,23,-5,-2,5,10,43,25
1490743923503,-17,-8,-5,-6,2,4,1,-9,12,4,-7,-9,-5,-21,-35,-26
1490743923505,0,-7,7,12,-15,-1,6,4,29,4,12,5,-8,-6,11,23
1490743923552,30,5,-2,0,1,-9,-4,5,-25,7,1,-1,5,2,3,14
1490743923600,-10,5,1,-4,-4,-3,-22,-9,42,-10,-5,-11,-3,-7,14,2
1490743923649,30,-5,2,18,6,13,-28,-21,39,4,9,13,6,-7,19,18
1490743923698,-47,-5,10,3,1,-14,-41,-26,-10,-9,-5,15,7,-1,22,0
1490743923746,17,0,-7,-27,-14,-20,-43,-27,-49,-12,-10,13,-27,17,16,15
1490743923747,7,-1,-3,-26,-42,18,13,15,-62,7,23,-11,-34,-22,-20,-13
1490743923795,-21,4,11,23,39,7,44,33,26,4,-18,30,25,31,-45,-36
1490743923844,82,5,-13,-53,-11,3,-13,11,28,-5,2,16,4,0,2,-2
1490743923895,93,61,15,14,-81,-18,-14,7,-128,-14,-21,-73,0,17,34,-8
1490743923941,-15,21,34,22,-12,31,70,-19,46,0,11,64,65,4,58,45
1490743923943,66,42,-3,-76,28,16,-44,-2,-66,27,18,77,-8,59,26,15
1490743923990,125,106,2,102,125,123,33,26,-90,108,29,7,-107,-87,-72,-24
1490743924039,-112,-80,9,56,2,36,-22,-10,99,-12,38,81,124,110,127,1
1490743924088,57,19,34,20,-128,51,115,82,-109,-28,-56,-76,127,9,-48,-66
1490743924136,-91,-17,-5,-67,-128,-78,-44,-63,65,-5,17,-91,1,106,85,74
1490743924184,36,-17,-31,-70,-1,9,-16,3,-45,21,43,64,117,127,23,26
1490743924186,-98,-13,-28,27,-67,-128,-85,-45,13,-35,15,-53,-111,-89,-3,24
1490743924234,117,-12,-65,-73,-35,-83,-90,-3,17,-4,-38,-113,-57,-100,-32,-21
1490743924283,28,18,-31,-93,-97,103,55,-10,1,-21,-39,31,22,60,17,-15
1490743924332,-37,-7,20,84,49,-39,-93,8,6,1,-6,-55,-14,-70,-60,-53
1490743924380,59,10,-21,-14,-106,82,96,72,23,-2,30,3,106,-18,-35,-56
1490743924428,-19,-13,-43,-115,-16,-3,-40,6,17,23,29,127,109,88,86,-26
1490743924429,-36,2,21,91,-100,-101,35,31,-14,-17,-61,-88,-94,-103,-22,-54
1490743924478,23,6,54,60,116,81,76,6,47,5,6,80,66,-84,-63,67
1490743924526,-14,-5,-35,-20,-116,-70,-128,-95,-25,2,-22,-62,-128,-17,45,11
1490743924575,-42,-17,16,25,-63,-57,-57,0,16,-2,11,-78,-87,-37,-68,-22
1490743924625,5,-6,-25,-126,-128,-110,-75,-28,22,-2,-3,-42,-14,84,52,32
1490743924627,30,-11,-77,-100,-32,-64,-52,15,4,8,22,103,92,69,15,0
1490743924675,3,9,87,127,127,93,-22,-5,18,2,3,-35,-102,-13,104,30
1490743924722,23,3,18,-54,106,56,67,39,-15,-1,10,126,8,125,46,24
1490743924770,-8,24,-3,42,-121,-109,-84,-43,-21,-38,-24,-32,-43,8,-29,-14
1490743924819,-28,-11,12,112,111,111,49,-2,16,35,48,-12,-73,-105,-83,9
1490743924867,-5,-8,3,60,-24,-1,2,20,16,24,-28,-28,37,52,-5,-11
1490743924868,4,5,8,-55,-47,6,-3,24,14,0,-11,-45,60,-106,-7,-13
1490743924965,44,-1,33,71,108,117,65,26,-14,-67,32,127,77,76,59,25
1490743924966,20,-47,-25,30,96,18,18,-2,11,-43,-29,0,-64,-21,-25,-10
1490743925016,55,-52,15,-14,-31,24,2,-1,30,-25,-30,-59,-88,-66,-22,-6
1490743925062,-10,-26,2,15,41,42,30,17,-8,30,24,51,-8,26,-10,-13
1490743925064,71,-66,19,75,127,79,39,23,1,-27,82,40,82,49,-12,-4
1490743925112,-88,25,-21,-28,-2,-16,7,1,7,6,10,68,6,32,-3,7
1490743925161,14,-32,0,42,46,12,-3,-15,22,31,-8,-45,5,21,19,14
1490743925209,-26,-4,-22,51,0,-15,-15,-12,-48,63,-15,-47,-30,1,-14,7
1490743925258,-23,14,-20,-94,-41,-9,1,-12,-4,-19,-2,63,14,14,23,6
1490743925306,-20,-13,-4,-14,6,-15,-21,-11,49,-9,0,41,-4,1,4,12
1490743925307,-81,39,41,6,-26,-19,-19,-22,3,-90,-20,18,29,5,4,7
1490743925356,-29,-13,19,-24,-2,-12,-4,-3,-19,-48,-7,28,18,3,4,0
1490743925405,5,-5,-10,8,6,7,11,4,40,29,4,-40,-14,4,-5,0
1490743925453,7,1,-15,-10,-7,1,3,-2,-27,-37,-23,28,30,4,4,-1
1490743925502,10,-23,12,-1,17,19,37,26,-1,48,35,41,12,3,-2,-3
1490743925550,43,30,-24,-41,-32,-10,-10,11,-10,-27,-2,-1,6,3,11,4
1490743925551,18,-7,-2,1,20,4,5,3,6,86,44,-19,-18,-1,-3,-2
1490743925599,-36,10,13,8,-5,1,-8,-10,39,-79,-43,-1,14,13,10,3
1490743925648,-24,-21,0,14,-6,-21,-30,-23,17,-12,14,-37,-46,3,-14,-7
1490743925697,56,-3,-17,-16,-27,20,-11,-17,-10,27,32,64,127,5,7,-4
1490743925745,10,34,9,-23,15,-21,-8,-10,-1,24,-32,-50,-77,-27,-40,-16
1490743925749,-53,-6,-24,-31,-70,-13,19,-7,0,47,-6,-87,-47,-13,-22,3
1490743925795,69,-7,7,22,-60,24,0,18,-32,-41,-25,12,22,-13,7,3
1490743925843,6,5,25,0,40,47,38,-15,-32,-13,54,61,35,60,28,12
1490743925892,-62,-18,1,44,59,-26,-9,-19,57,-43,16,48,119,56,57,26
1490743925941,-2,6,25,25,-55,-12,-23,6,33,-9,-32,-17,27,0,-6,-5
1490743925988,20,0,11,29,4,8,30,11,-15,11,14,34,22,44,1,-4
1490743925992,-87,-13,-2,-74,-56,-44,-35,-35,39,-2,3,8,14,19,16,25
1490743926038,27,17,22,59,58,58,68,7,-67,7,-20,-18,0,-29,19,5
1490743926087,44,2,-26,-9,-21,-56,-28,11,30,-29,5,18,58,55,43,49
1490743926135,-7,-12,-20,-46,-89,-86,-70,-10,80,3,-3,-38,79,11,-25,-12
1490743926184,127,-12,-11,0,5,-11,-45,4,-78,0,-2,6,-11,-23,-15,-25
1490743926232,-58,-4,-3,9,-25,123,97,43,-25,-3,-21,-28,-46,-84,-93,-55
1490743926234,53,-19,-27,-8,59,-76,60,15,53,14,9,21,-107,-109,-15,-15
1490743926282,-4,-39,-8,20,-31,-104,-119,-59,-34,-17,-7,-57,-76,98,65,18
1490743926331,-44,-1,-22,-13,-16,0,43,-7,-74,-15,13,-6,-17,-55,-27,-25
1490743926380,66,13,-9,-18,61,96,1,9,-45,-11,5,18,-6,-73,-26,10
1490743926429,-8,-12,-11,-10,9,57,48,12,1,4,9,60,58,0,-12,-5
1490743926431,6,-57,1,-10,-9,16,-51,-15,29,-84,10,12,8,-9,0,13
1490743926477,-15,52,18,-8,-19,-29,-27,-7,21,28,-7,-3,-2,22,-5,15
1490743926525,30,19,17,6,9,19,84,31,9,-13,-4,16,15,-61,-110,-23
1490743926574,-13,2,20,10,4,-12,-25,-4,26,-21,5,6,-4,-3,-31,-10
1490743926623,-7,-2,-5,9,1,-68,-38,-15,13,0,-6,-6,3,16,31,23
1490743926671,9,-11,5,4,1,20,-12,13,6,-14,5,1,2,14,2,-6
1490743926672,-16,21,-12,-21,-16,-2,5,0,-11,25,-7,-5,-9,-15,-5,-20
1490743926720,4,-38,-2,-8,-5,7,-32,2,-15,-29,-1,4,-5,-2,29,3
1490743926769,34,5,5,10,8,15,9,8,-37,-20,-15,-18,-8,2,-3,-2
1490743926818,-27,-32,-6,1,1,-5,-3,-3,25,-19,4,4,10,-8,3,5
1490743926869,-11,39,-3,3,6,13,-3,-1,-11,-2,-7,-1,-3,-4,4,0
