1490228763180,45,-12,-57,-101,-6,-95,24,-32,-50,-18,20,60,3,16,-85,-34
1490228763229,-58,-12,14,16,-2,37,37,-7,60,2,-4,6,5,6,29,36
1490228763231,-18,10,33,19,-7,-2,14,-6,11,-7,-8,2,-8,8,31,25
1490228763278,77,-12,-7,-9,-14,-17,-34,-6,-45,4,6,8,8,-14,7,-23
1490228763327,-27,-9,-6,-5,-6,-5,1,11,-65,0,17,-1,9,14,48,30
1490228763375,-128,-33,-7,-5,-16,-19,14,-8,27,8,7,9,17,26,9,-22
1490228763424,63,0,5,31,2,-22,-34,0,41,-17,-6,-2,18,43,44,27
1490228763472,-23,-2,35,86,29,22,17,-20,-80,-54,-52,-9,1,-21,-46,-22
1490228763475,31,42,29,49,7,-5,40,-19,102,26,-60,-102,-21,1,-11,92
1490228763522,50,-9,6,-31,10,9,-96,-18,-33,36,9,39,4,-6,98,8
1490228763571,-19,34,71,90,52,45,-16,83,-128,-70,-20,-56,-12,-20,-85,-23
1490228763619,11,10,51,30,-14,-38,-24,-34,22,49,127,127,33,40,-34,-13
1490228763667,83,12,-4,46,2,4,-65,18,111,24,-49,5,-19,-22,-19,20
1490228763668,78,104,82,94,57,28,90,-22,90,-88,-107,-92,-4,17,-25,45
1490228763717,69,60,69,87,43,24,28,6,-128,-80,-128,-79,-42,-11,-55,-50
1490228763765,-128,-21,35,-10,-2,34,-15,-31,101,15,-25,115,23,-26,1,31
1490228763814,-61,-42,50,-38,-8,47,42,50,-78,50,52,51,1,-66,-59,-41
1490228763863,41,-20,-128,44,17,-15,13,-61,-117,-24,115,-124,-85,-67,-67,-97
1490228763912,-68,7,41,127,77,49,-23,36,58,43,-124,85,3,-48,25,19
1490228763913,-128,-87,-91,-50,-15,3,-12,44,19,-4,86,5,25,41,92,47
1490228763960,27,51,-15,-79,-3,8,-4,-5,-19,-128,-59,16,-59,-13,-21,1
1490228764009,90,-57,-1,-124,-100,-84,-34,101,-24,-55,127,120,72,92,82,-28
1490228764058,56,7,-128,-67,-61,-17,-10,-45,-38,60,44,57,5,10,32,-12
1490228764155,57,-6,9,-28,5,-27,-49,19,-3,-78,79,14,1,4,-22,13
1490228764156,-113,-119,-122,58,32,67,38,-23,43,-28,111,-66,25,-9,-2,-40
1490228764158,-8,-128,-32,-47,-6,-58,29,-66,-64,-33,-115,-123,-33,67,50,-52
1490228764204,18,71,127,64,78,-11,-38,19,49,57,-62,1,-57,1,6,-13
1490228764253,56,18,110,56,21,28,14,-49,-75,-52,52,83,51,-10,-27,-52
1490228764302,-19,5,-110,-128,-102,-21,4,-23,48,15,0,37,-4,-42,-9,-47
1490228764350,5,-75,-46,-10,-95,-15,39,-22,-27,70,18,-89,102,-17,-9,-57
1490228764352,-24,-47,-113,20,45,-28,62,0,107,-31,106,23,-91,37,66,86
1490228764399,1,58,67,90,44,6,-19,-20,74,58,-111,28,-18,-35,52,43
1490228764449,55,59,125,127,88,51,79,48,-9,-56,-121,-76,-34,-26,-83,-45
1490228764497,33,67,57,-10,86,85,44,14,-38,-48,-122,-119,-98,-69,18,-2
1490228764546,-61,-39,-11,-123,-128,-42,-77,-72,51,0,-55,-20,-46,47,41,61
1490228764593,-33,-67,-47,-32,-128,-84,-49,-22,53,123,118,127,127,69,-5,16
1490228764594,-82,-98,-128,-124,-79,-50,-7,-52,-62,-54,-19,-109,-128,-3,-59,-11
1490228764643,-66,-68,-31,-18,-25,-23,-6,-21,39,77,96,127,-6,-34,-69,-19
1490228764692,8,-45,-84,-42,23,0,-25,-3,-12,40,95,73,57,23,-42,-25
1490228764740,59,90,48,-30,61,-5,64,52,-44,-74,-75,-73,-71,-2,53,-34
1490228764788,14,61,10,107,53,37,-15,-13,-8,56,72,47,-12,1,78,30
1490228764790,16,-5,24,43,46,95,-57,-9,45,40,74,40,-124,118,35,37
1490228764838,-3,4,19,20,9,-128,-3,-3,21,-3,-27,26,-128,-113,10,-1
1490228764887,3,17,-1,24,-77,2,-60,-30,-50,-19,-33,-60,69,47,0,-15
1490228764936,11,8,18,25,-66,1,75,-2,0,5,-11,17,29,-19,-30,7
1490228764984,-23,-19,-10,-72,-58,-43,-27,-28,19,-27,-28,29,-26,11,-34,-3
1490228765032,5,-25,-40,-76,45,127,-19,9,-11,-15,-48,-14,96,-53,-11,-4
1490228765033,43,14,28,-4,31,-25,-37,36,-6,7,41,27,-23,81,12,-28
1490228765082,-32,-37,-13,4,15,55,-46,5,-21,-1,23,58,-50,-41,51,-6
1490228765178,28,-109,-37,-49,36,-29,-43,30,-54,-39,-26,-25,98,56,7,-30
1490228765180,-39,29,-16,6,18,-39,-120,-93,44,26,1,-2,28,-76,32,45
1490228765229,33,5,-51,-3,125,65,-80,-6,-20,4,-28,-24,-43,1,-95,-62
1490228765276,-8,5,40,35,91,-25,38,-5,31,-17,-9,-24,46,-4,81,20
1490228765277,2,-10,21,18,10,-35,39,-4,-11,-19,-23,-38,33,92,36,19
1490228765325,40,19,20,13,43,-72,34,44,-47,-18,-21,-45,-31,104,-42,-32
1490228765374,-41,-13,2,9,-53,93,-13,-4,35,-12,-9,-11,30,-17,15,-3
1490228765423,-30,-43,5,-7,-22,-58,-12,-20,79,35,45,72,-15,-50,43,47
1490228765471,45,9,-44,-52,-52,-36,2,-16,-119,-94,-36,6,4,15,16,2
1490228765473,29,-30,-46,-33,-39,-127,-17,47,-46,51,-38,-14,18,-47,-29,-15
1490228765520,13,-27,-104,-112,-24,47,16,-37,127,38,-66,91,13,-16,-2,29
1490228765571,-68,-45,-31,43,-40,80,-24,-2,-69,-12,45,-38,28,90,18,-15
1490228765618,-11,-18,-32,21,39,121,-67,-63,35,58,-32,-114,27,109,-4,115
1490228765666,-77,-84,-99,-88,-99,-9,1,-24,17,6,-7,-20,24,13,23,-9
1490228765714,87,76,31,47,3,-51,2,73,-102,-10,-128,-43,-16,-58,-21,7
1490228765716,-93,-111,-92,-28,-61,-75,70,65,30,110,-78,76,64,-20,-34,-4
1490228765764,41,-13,-99,-92,13,1,-61,78,-52,-20,106,41,-32,-3,23,-27
1490228765813,74,32,74,72,50,-25,45,15,-32,8,-36,2,-24,9,-17,-22
1490228765862,-65,84,46,71,-6,-4,-9,-82,-48,60,127,121,64,27,5,98
1490228765910,-90,-47,21,78,71,-6,8,20,127,54,127,127,76,10,41,62
1490228765958,-76,-73,-124,-39,-21,-27,-60,-47,34,60,27,-103,0,-9,-16,63
1490228766007,-88,-108,-54,12,-17,11,7,-30,127,18,62,-42,0,-26,-3,53
1490228766008,112,-16,-114,-119,-31,26,11,54,-106,-24,-95,-62,-30,34,11,-62
1490228766057,34,42,-11,75,29,74,-15,-48,-65,-6,-30,-25,-17,-19,-6,-40
1490228766105,79,25,-65,-98,-35,-5,-13,-19,-105,-56,32,23,-16,-46,-11,8
1490228766202,79,18,-109,-46,-22,-57,-2,18,-128,-64,-16,-84,-6,23,-9,-67
1490228766204,-44,-4,-80,-14,-35,-88,-18,-8,62,-69,-50,-76,-24,-1,-5,40
1490228766205,-68,29,22,-7,29,49,5,-57,-51,63,26,37,2,10,-9,37
1490228766254,-38,-36,-45,-24,-4,-14,19,-19,28,-2,46,0,2,-28,-19,3
1490228766301,66,6,6,14,10,22,4,21,-61,-65,-23,-10,1,-24,0,-1
1490228766349,86,1,27,-16,-25,-37,-43,64,-126,-51,-28,9,16,35,7,-19
1490228766397,-116,15,4,24,5,22,54,-8,47,76,20,13,-1,33,-52,12
1490228766399,-78,-2,7,-4,-12,-7,-15,-22,-104,-21,-1,4,8,-28,-15,-5
1490228766447,27,-13,-8,27,5,6,65,25,-39,5,8,16,17,27,-2,2
1490228766495,70,13,-1,8,8,-5,5,17,-10,-12,1,1,5,-10,20,7
1490228766544,-26,-10,25,15,13,7,-65,6,37,15,7,-3,6,19,7,-40
1490228766593,-32,-30,-26,14,-9,-19,-22,-4,27,20,-11,-65,-9,15,-13,9
1490228766641,-5,-17,37,11,7,23,-37,22,78,36,-13,34,7,-13,19,35
1490228766643,14,0,-57,-72,-25,-14,11,-9,-51,-12,28,38,5,-7,63,54
1490228766691,7,2,-1,19,-8,-3,26,16,-23,30,59,0,-12,-17,-73,-33
1490228766739,38,4,-16,-9,-8,-20,-17,-40,-14,-21,10,-48,14,8,-31,-12
1490228766788,-128,-7,-16,26,17,17,7,-29,100,24,-108,25,-47,-68,-41,37
1490228766837,34,35,-63,31,5,-6,35,-86,3,38,103,59,39,60,-28,-22
1490228766837,67,45,-82,-93,-29,-7,8,17,77,-30,-107,-26,-30,18,-58,-84
1490228766885,99,26,76,-96,-8,20,21,4,-80,-39,71,36,-50,-90,-125,-33
1490228766935,-33,-78,13,23,-12,25,59,50,-118,101,-47,-60,11,8,36,-1
1490228766983,30,93,127,-50,9,6,41,14,-10,-62,-128,12,13,-9,-89,-25
1490228767035,83,-117,6,-120,-49,-17,-34,16,-49,-25,8,-112,-54,-66,-37,13
1490228767081,-123,-104,-117,-101,-41,0,70,-10,68,79,127,43,41,41,-9,-36
1490228767084,-102,-116,-10,110,-5,26,-17,-27,-87,48,-119,-82,-61,-75,-23,-53
1490228767129,8,-28,-61,-23,-32,-40,-19,-26,-19,69,120,8,17,16,21,-25
1490228767178,107,124,83,127,124,91,76,101,22,-27,-7,50,60,37,-22,-30
1490228767228,-89,54,59,87,-8,-90,-72,8,80,85,40,-18,38,-3,-24,36
1490228767275,29,-62,49,-48,17,89,50,11,-4,31,45,51,-27,17,-5,32
1490228767276,-17,-23,-87,127,68,50,75,12,98,55,-82,-99,-72,-1,-48,30
1490228767324,-62,35,24,116,79,45,-63,14,-128,-121,-128,-128,-81,-41,72,-18
1490228767373,-71,96,43,41,-58,-61,-19,-22,-34,-128,-114,-43,-13,3,-44,-46
1490228767422,20,-48,16,-57,-10,27,10,37,13,73,99,38,69,20,51,-10
1490228767471,32,-43,-128,-101,-119,-79,-113,-20,33,-6,-1,39,17,70,18,30
1490228767519,-15,28,12,81,28,41,39,3,103,77,-128,-62,-88,0,-67,15
1490228767523,-66,8,124,15,-78,29,51,-7,21,2,91,124,15,-8,16,10
1490228767569,73,-97,-128,-101,25,-17,-13,-3,-109,18,60,12,6,-38,27,-4
1490228767618,-79,-115,-74,-75,15,-1,-57,-16,30,22,36,61,30,11,-4,-13
1490228767666,-5,23,66,-11,-36,6,-16,4,75,43,-87,-88,-37,-45,-22,-18
1490228767714,73,47,18,9,-27,7,78,67,-21,4,49,36,82,33,39,28
1490228767762,-72,-22,18,76,-15,33,34,-57,30,-3,-70,-3,-27,-55,11,12
1490228767764,17,44,22,-42,127,100,28,17,-45,-38,-19,-68,-62,-26,-74,-40
1490228767812,42,22,-15,12,32,-85,-70,10,41,-6,-38,-92,-82,-23,6,33
1490228767860,13,27,31,71,44,-17,20,16,-40,-27,-37,-32,20,28,13,-23
1490228767909,15,15,25,23,-6,119,34,62,-12,12,36,74,-45,64,5,3
1490228767957,-14,-13,-20,-68,79,-128,-76,-26,30,27,74,-1,49,-126,40,25
1490228767958,-27,11,25,98,-2,-1,34,-12,-15,-19,-30,-49,-23,61,-20,-12
1490228768007,0,3,-36,-47,-35,8,37,10,33,30,51,86,-56,-58,-8,15
1490228768055,-36,-13,-12,2,-31,90,85,-26,-7,-5,13,50,50,-41,-30,-10
1490228768104,41,35,54,122,8,-37,49,41,-15,-23,-63,-100,22,101,42,-26
1490228768154,32,9,24,4,23,-38,-63,25,-26,-10,-11,1,14,0,14,-18
1490228768201,23,18,-11,35,-8,-80,-55,-9,-55,-9,6,-5,-73,85,67,3
1490228768250,-10,-6,-45,-65,68,32,48,24,26,15,31,-19,-39,-64,-74,-13
1490228768251,21,54,54,93,-55,-23,107,16,-12,15,-28,-23,-46,-47,-15,6
1490228768300,21,0,5,3,-20,-47,11,3,8,16,-18,-30,-15,111,6,44
1490228768348,12,44,45,66,47,-27,10,15,11,19,4,-35,24,-20,46,1
1490228768397,-13,1,-61,-52,-110,6,79,10,20,-1,-80,-109,103,126,-31,-3
1490228768445,48,-8,-63,-35,127,4,45,6,-35,-8,58,57,-108,-50,-20,-33
1490228768447,-7,11,27,44,-14,-12,64,14,-4,2,-5,23,-72,0,31,7
1490228768494,-4,5,-17,12,-55,-11,-21,16,-10,-9,-13,-6,79,-10,-80,-15
1490228768543,16,5,20,-28,-106,31,70,11,-10,-3,2,14,16,-33,28,11
1490228768592,-35,-2,-43,-95,-86,52,94,-24,57,28,21,37,25,-48,-29,21
1490228768640,-12,8,8,37,19,25,49,0,-1,-10,5,-1,-8,11,10,14
1490228768642,23,19,66,61,35,-94,-6,22,-32,-24,-31,10,31,54,-17,-38
1490228768737,-8,9,-9,-20,21,90,38,30,-15,1,42,38,-18,73,34,-1
1490228768739,-70,-54,-23,26,-54,-32,54,-47,-19,8,-6,-17,37,-128,-100,-42
1490228768786,73,86,61,42,22,-39,-9,12,-27,-7,-14,11,-7,-102,44,35
1490228768835,6,32,64,59,35,83,11,-2,30,22,-48,-58,-14,53,5,-12
1490228768884,-28,-121,71,64,20,102,-27,39,-20,19,35,31,35,48,36,-14
1490228768885,-23,14,72,-65,-10,25,-65,6,-23,-53,-81,-61,-16,12,29,-3
1490228768933,126,67,30,-116,8,57,39,107,-35,111,66,38,33,22,-46,-65
1490228768982,17,-24,13,83,49,-17,-25,22,62,18,51,25,1,-30,-31,-2
1490228769030,-61,-15,-19,-12,30,-49,-27,-16,-76,-43,-20,-7,-6,-66,16,8
1490228769079,14,18,4,-18,-6,-10,23,53,-15,48,71,117,23,-13,29,35
1490228769127,-69,-39,50,21,31,31,-19,-33,34,103,-46,-48,20,27,26,7
1490228769129,-10,38,72,49,43,8,-14,17,36,-37,54,32,2,0,12,-14
1490228769224,-101,-106,-127,-42,-24,-5,24,-32,-43,9,33,-75,23,5,63,22
1490228769226,98,34,57,-3,36,21,-16,38,56,42,95,108,38,7,27,-10
1490228769274,-8,-64,44,-128,-24,5,-23,-24,-18,19,38,62,-3,-3,-38,-38
1490228769322,80,77,101,87,22,0,-15,44,-91,-35,-128,-57,7,16,14,21
1490228769324,69,78,38,-5,17,-8,77,-9,89,-34,21,40,23,-5,-97,10
1490228769372,-4,0,-47,1,-17,-1,-37,-2,-23,-44,18,26,24,8,7,-56
1490228769421,14,64,-63,8,12,20,-3,18,-72,-51,24,-71,-69,3,-4,-59
1490228769469,-40,14,49,50,44,28,-22,10,-39,-12,-77,6,15,4,22,28
1490228769520,21,8,3,28,42,-11,69,14,-7,-13,-61,-27,-10,-18,-117,-34
1490228769567,-9,-14,47,-22,-20,-33,-18,5,-63,-19,-63,-19,-20,0,-28,-49
1490228769573,46,-8,23,11,-8,-8,-42,-37,19,4,5,-7,7,14,33,5
1490228769615,32,2,35,22,0,8,42,15,-43,-25,23,38,42,9,73,14
1490228769664,-67,-7,-16,-21,-9,-37,-15,-21,14,21,2,-23,-2,-27,-51,-9
1490228769713,-66,-11,-8,-18,-23,-7,-48,-15,-80,-18,17,21,13,14,79,32
1490228769761,102,13,0,18,-13,2,20,3,-55,-28,5,29,12,6,14,0
1490228769762,-53,-15,-3,26,50,12,-16,-38,3,-10,10,5,7,19,46,20
1490228769811,66,23,3,15,38,39,-6,29,-54,-8,-12,-6,-10,11,-14,-28
1490228769859,-2,-17,-8,19,4,16,12,9,36,4,5,-4,-17,-20,-22,-5
1490228769908,71,15,-18,-29,-22,-31,-5,18,48,50,37,37,-12,-15,-31,0
1490228769957,55,0,17,-8,-5,-27,-41,-38,28,-2,52,35,8,4,13,19
1490228770005,-16,21,-13,36,-9,-15,-73,-24,37,-21,-31,-54,-23,-9,-62,-29
1490228770007,-128,4,27,33,-6,-5,-71,-22,-91,-3,57,20,17,0,95,43
1490228770054,60,2,-81,-55,-40,-32,23,31,-74,45,1,-14,-17,-22,-44,-25
1490228770103,104,33,-44,33,0,26,113,33,-58,-48,60,1,-23,-60,-90,-55
1490228770152,63,52,-23,101,44,48,-91,-16,-84,0,78,-33,32,8,124,63
1490228770200,48,-8,-126,-47,-10,-11,4,33,-64,-41,-16,-42,22,63,14,-8
1490228770249,-40,-10,52,19,-16,-15,-102,-114,-99,47,79,107,82,95,51,3
1490228770251,-7,18,103,42,55,-24,29,55,-58,58,-29,127,47,20,-100,-116
1490228770298,92,-2,36,62,-13,-33,-15,41,-63,2,-98,-42,-81,-55,23,-24
1490228770395,-62,-104,-128,-116,-28,-19,1,-42,-69,31,94,36,-4,-19,62,86
1490228770397,-46,76,6,-128,-30,-20,7,6,18,35,65,108,36,62,-7,49
1490228770444,-54,-22,-16,127,-29,-42,-76,18,127,1,-29,-5,16,55,-47,-27
1490228770445,-114,-9,-13,-107,-41,-30,-29,-64,91,-80,-128,-122,-51,-44,-99,7
1490228770493,127,37,-99,-77,2,-3,-80,5,-95,-52,78,-90,-98,-32,11,-55
1490228770542,7,-29,5,-6,-17,-31,67,124,-116,-83,-26,-100,3,3,-49,-121
1490228770591,127,108,52,53,70,54,24,1,-33,-91,-96,-82,-80,-39,-38,-7
1490228770640,-28,-73,17,-43,-38,-9,0,45,19,12,31,54,-36,-1,80,5
1490228770688,75,75,-9,-28,-7,-9,-43,-34,7,127,31,65,35,23,45,12
1490228770692,41,94,127,124,-50,-60,57,57,127,-31,-49,57,109,115,21,62
1490228770737,44,0,32,28,-38,-39,11,11,-60,-16,11,53,34,42,4,31
1490228770785,-25,-101,-128,-38,-7,8,26,5,-128,-57,-128,-128,-111,-25,-52,-68
1490228770835,-61,14,38,89,20,22,30,27,-61,-63,-29,-30,-59,3,45,15
1490228770883,86,89,-25,14,80,10,45,68,-89,-127,-61,-103,-3,-43,21,-86
1490228770931,127,127,51,96,-7,39,-18,32,63,-10,19,88,14,-55,-26,41
1490228770932,69,-45,-128,-46,-13,-68,-2,13,-49,-91,-64,-64,42,0,-64,-16
1490228770980,-11,-27,9,17,54,28,78,24,48,6,-32,-30,-103,-47,-50,6
1490228771029,-110,-16,-3,81,-39,-52,-71,-35,-35,-14,-105,-120,20,18,4,-28
1490228771079,21,22,-36,-65,-70,-7,38,26,52,-31,-62,-48,117,-13,-24,18
1490228771126,-35,-95,-75,-8,0,-60,60,-41,-20,-31,-21,57,34,-5,-26,28
1490228771131,-39,-14,-37,-34,-19,-59,-23,-38,-50,-18,-61,-21,58,86,0,-10
1490228771176,-2,7,33,20,-74,127,104,22,-13,-16,15,11,-49,120,-77,-26
1490228771224,-31,-5,-72,-53,55,-77,-33,-39,-7,10,-3,-20,-65,-123,71,19
1490228771273,27,35,38,94,70,37,82,29,23,10,48,51,-27,-21,21,-9
1490228771322,-56,-8,23,-24,-110,12,-27,-30,34,18,-29,-25,-12,-67,-92,-12
1490228771370,-31,-31,-11,-21,-44,-31,107,-1,8,8,-13,-53,28,25,-85,-6
1490228771372,-10,-47,-32,-113,82,3,3,-43,-16,-43,8,-52,34,-23,29,16
1490228771419,-6,-7,38,55,-99,-75,-94,3,-20,-45,-18,69,71,59,-75,-51
1490228771468,28,-74,-70,4,127,50,-117,26,-42,-92,-84,-89,24,34,86,-7
1490228771517,-7,59,-15,41,-45,13,6,-7,4,123,47,110,39,-123,-55,-7
1490228771565,17,-8,-16,-37,86,-72,-23,16,-34,-57,7,45,-55,7,-52,-4
1490228771614,-13,-44,60,16,-79,-103,-66,-24,18,-53,-40,-47,79,111,99,36
1490228771615,-25,-35,-12,25,40,-55,38,-14,14,-4,58,86,-103,-104,-111,7
1490228771663,-8,-15,-1,-4,47,82,83,16,22,12,11,18,89,50,6,3
1490228771712,1,-13,-62,-84,81,46,98,9,8,15,25,37,-36,9,17,3
1490228771761,20,60,-24,67,108,-2,15,17,-19,-12,14,-15,-124,-15,-62,2
1490228771813,6,127,12,8,-43,23,-15,5,10,102,-15,-21,-14,49,-47,-9
1490228771815,23,-6,-3,-12,-30,-21,60,-5,14,-3,0,46,28,-14,127,26
1490228771858,34,-5,53,58,-20,-53,-66,6,-34,-38,-47,-67,-16,36,35,-10
1490228771907,-74,-21,11,-5,-59,53,3,-45,1,5,12,21,-5,92,7,-13
1490228771955,-5,-2,-14,-29,-47,118,18,10,24,29,12,-11,1,127,16,7
1490228772004,16,59,27,-14,-17,-128,5,45,-8,-68,5,4,2,-128,-12,-12
1490228772052,-81,18,25,11,16,30,-58,-44,-8,-9,-20,82,6,14,24,1
1490228772054,-96,-112,-109,-53,-9,-11,-13,-32,-31,30,-39,-48,-15,54,-87,-40
1490228772102,34,23,-55,4,-3,121,-6,-30,58,-86,-118,-104,-70,117,-58,14
1490228772150,7,-54,-34,-116,-75,-97,-38,-9,-52,10,1,26,5,-102,-27,-6
1490228772199,-96,-50,-6,-55,-5,-51,-31,-58,-19,-10,118,61,-10,-7,-18,-82
1490228772248,42,18,53,122,38,-8,56,49,-58,3,70,42,64,1,50,-17
1490228772296,-128,-118,-60,-74,13,16,36,-23,57,8,41,-12,-39,5,0,58
1490228772298,-1,-85,-60,-62,-24,-40,-35,2,54,49,-46,-24,37,24,25,20
1490228772345,11,-28,-59,-70,-27,6,8,-29,-38,38,33,127,22,60,-84,-13
1490228772394,-83,48,108,8,10,1,-24,6,126,32,-71,96,48,-21,15,10
1490228772443,-121,24,51,57,14,1,-1,-58,23,14,102,101,18,25,-23,30
1490228772491,101,-63,-128,-128,-35,-38,8,-17,-128,-17,118,54,-7,-21,-61,-84
1490228772493,-47,29,39,-96,-52,13,54,-2,79,34,-112,1,40,-25,-40,-26
1490228772540,84,-64,-22,-50,-35,-24,-37,-26,-128,-51,-10,-61,-27,-32,40,-13
1490228772592,-6,16,-29,112,11,-25,13,-21,102,7,-9,-64,-58,-5,-44,18
1490228772638,-116,10,86,59,29,7,-87,-19,-43,24,-66,-46,11,-27,10,9
1490228772687,12,19,36,-13,-37,19,89,56,32,36,-2,86,18,-25,-87,-44
1490228772735,54,-49,-43,66,44,6,-29,-51,-59,-34,-80,-128,-58,-70,-95,10
1490228772737,-31,-31,11,-34,-12,-27,58,39,-3,14,40,23,-20,14,54,-24
1490228772785,34,4,-10,-18,-20,3,37,7,24,-42,60,73,29,25,64,39
1490228772833,127,53,57,19,12,10,93,92,-102,-14,-3,77,55,18,4,-13
1490228772882,-8,-43,4,14,50,35,24,-23,6,-25,-22,-64,-50,-11,-27,5
1490228772931,109,-27,10,32,-1,60,20,26,16,-17,-36,-47,-15,-19,-48,-29
1490228772932,-14,36,-14,-46,2,-24,-23,-24,30,24,5,4,2,5,47,27
1490228772979,15,-15,0,-5,45,17,57,5,-18,-16,7,-7,8,7,-5,-13
1490228773028,-8,-2,-5,9,-4,-46,-1,-1,33,-1,-4,1,-6,10,8,8
1490228773076,-4,-8,-23,-47,-36,13,10,2,-13,20,-9,-12,0,-26,-13,-12
1490228773125,79,34,32,14,9,-10,15,22,-16,-7,-14,-20,-6,-36,-39,-15
1490228773173,-19,-13,21,3,-4,15,25,-19,-76,-44,-27,-10,4,-6,60,9
1490228773175,-93,29,-26,-85,-40,-63,9,-19,40,-6,45,29,31,47,-34,9
1490228773223,122,6,30,-93,-15,35,-22,41,12,37,89,86,35,37,52,-5
1490228773272,-128,-128,-117,-55,-14,-23,-24,-60,-97,-4,10,-21,-31,15,81,-26
1490228773320,69,63,120,127,23,58,-47,-9,82,-5,-114,-128,-44,-73,-1,87
1490228773369,37,-58,56,17,4,-13,6,49,40,96,126,92,67,-7,26,-29
1490228773417,7,24,-24,39,-43,-107,-128,-39,-15,-88,-102,-51,-29,30,22,-25
1490228773420,9,-92,-126,-102,-36,-62,-62,-97,9,-22,91,66,33,5,-23,52
1490228773467,-38,-6,10,57,-2,-20,-65,-13,-91,31,84,-113,-33,-14,94,15
1490228773515,118,74,-62,-93,12,40,-56,15,-124,-96,-128,-20,-61,-121,50,-70
1490228773564,-69,35,87,95,61,13,3,-18,12,114,-68,-30,40,9,-1,15
1490228773612,-69,-71,-34,38,-32,-19,4,-16,16,93,127,-52,15,4,-37,39
1490228773613,75,84,61,53,67,17,53,98,20,50,79,-63,37,0,54,-88
1490228773662,-50,54,102,-81,-68,16,34,-90,-128,29,-23,53,41,38,-59,67
1490228773711,127,71,13,42,2,34,86,39,-94,-110,-40,-21,10,-48,-30,9
1490228773759,-14,50,50,-9,8,35,25,51,39,31,-14,-32,-23,11,16,37
1490228773809,103,12,-36,-14,-31,-41,-19,20,-6,127,7,102,107,-26,-4,-22
1490228773856,-117,-128,-16,-128,-88,-8,-5,-77,127,127,127,127,6,40,8,64
1490228773857,-52,-67,-21,-128,-68,-68,5,-11,52,21,30,85,81,90,26,98
1490228773906,-43,75,95,127,11,64,23,11,-84,-74,-43,-36,11,-105,-113,-46
1490228773954,70,44,39,6,-3,-17,-20,76,-100,-43,-43,-33,74,45,53,-29
1490228774003,127,112,108,117,94,56,-1,33,-59,-48,-82,-84,127,99,8,73
1490228774052,-97,-19,-82,-76,-20,30,58,94,98,-13,76,10,-63,-16,10,-13
1490228774100,-61,29,90,-71,-114,-33,-45,30,-3,16,-33,127,53,-18,-63,-3
1490228774102,39,53,-42,-49,-7,-35,75,-39,127,61,-36,9,15,64,-23,74
1490228774149,-6,14,92,52,-30,-22,-75,-17,75,66,25,-96,-5,-17,2,21
1490228774198,114,-14,81,93,124,77,62,46,-105,-93,-90,-109,-128,-47,-9,21
1490228774247,-84,-116,96,111,22,30,81,50,-76,-16,-111,-128,13,21,26,-6
1490228774295,101,118,17,107,127,4,-63,20,-110,-85,-32,-127,-99,-72,-23,30
1490228774296,2,38,10,-2,91,29,-32,-22,127,127,127,127,30,62,78,66
1490228774392,40,63,88,96,-47,-48,-14,-25,18,-17,19,-50,-7,-18,-46,-45
1490228774394,-5,-72,-34,-23,64,77,53,-1,27,101,107,127,-29,8,-63,-18
1490228774441,7,2,-12,-114,33,-14,28,-5,-28,-40,-98,-115,37,-50,1,-1
1490228774491,7,10,-3,27,-68,-19,-3,-18,86,50,49,34,-13,10,-3,39
1490228774538,8,-14,1,-5,52,-128,37,12,-44,-45,-52,-58,-61,-125,-32,-3
1490228774541,-7,-4,21,9,29,20,-102,-30,-5,-17,34,31,-94,-51,95,-13
1490228774588,5,31,46,57,8,-8,88,32,17,27,44,-34,31,-44,-110,8
1490228774637,13,30,10,30,28,0,-69,-32,-19,-4,-18,-40,34,71,-9,12
1490228774685,-26,-18,35,46,37,61,42,-3,7,-30,-19,-47,85,108,-65,-23
1490228774734,35,-87,-42,-3,53,-4,-9,37,19,-52,-49,57,-103,-23,38,5
1490228774782,9,54,61,-3,-22,-85,-69,8,18,25,3,-59,1,68,23,11
1490228774783,-37,-47,-23,-15,50,-4,-92,-43,-20,-25,-31,-39,50,-93,0,16
1490228774831,-8,8,-7,-38,-45,52,119,11,18,16,20,12,-22,-76,-91,37
1490228774882,19,16,30,47,-79,-117,10,5,4,5,-30,77,100,113,20,0
1490228774929,-9,8,-1,-45,-16,52,-79,-17,36,4,5,-17,-25,1,-72,2
1490228774977,29,-7,13,6,-96,-98,-45,38,12,13,48,56,-47,-29,75,-1
1490228774979,7,-6,7,-65,-40,-51,51,-6,-3,-16,2,9,-86,41,28,5
1490228775027,-7,-98,52,122,-13,69,86,47,-5,-128,-14,-62,-49,-11,-65,-12
1490228775075,10,127,-17,25,25,-36,19,-26,-30,127,0,-33,-45,-26,7,6
1490228775124,30,-23,12,27,113,45,77,34,19,-17,8,17,-35,7,17,-4
1490228775221,4,4,-13,-63,-63,-73,-53,10,16,17,-22,-6,80,18,21,8
1490228775223,13,17,35,16,-73,-30,-38,17,-48,16,-2,34,6,-4,-1,-17
1490228775224,-58,0,-3,-83,-60,1,35,-22,59,0,-12,-21,-12,-34,-5,36
1490228775271,-1,-5,4,52,8,-54,-32,13,-10,8,-18,32,15,-34,-3,18
1490228775319,127,15,-65,-58,-44,-82,22,8,-113,-30,6,46,6,-46,3,-24
1490228775368,-27,-28,14,-71,-6,-108,18,-25,-85,12,-4,8,-28,-100,-34,-16
1490228775416,-80,-1,-33,8,-13,83,32,-27,-3,-19,-27,28,16,49,-87,-68
1490228775417,-27,-66,-113,-95,-52,-1,24,31,24,67,78,64,23,11,-52,-71
1490228775465,-65,-36,-126,-128,-55,-8,-3,-16,-7,-10,14,20,-6,-72,-19,7
1490228775514,-86,-51,-71,-80,-10,-35,-28,-18,103,65,80,98,36,-47,52,83
1490228775563,90,76,32,-49,-74,-11,-89,37,-27,-47,-11,-15,23,7,26,-22
1490228775611,-121,-67,23,7,69,52,75,45,48,-32,-37,105,-7,-25,-50,-93
1490228775659,33,12,-128,-34,3,22,0,3,52,-41,-15,-109,-64,5,-5,26
1490228775661,36,-128,-64,-38,-15,12,8,4,30,-16,-46,-20,-3,21,19,38
1490228775710,26,16,-30,25,31,8,2,1,-39,83,124,127,48,15,45,37
1490228775758,-71,-119,-33,-110,-37,-2,-1,17,19,70,15,49,45,33,0,-3
1490228775807,-76,77,8,44,-52,-27,31,-50,-14,-44,-79,-8,36,8,47,65
1490228775855,-74,-89,-103,-52,-1,-18,-48,-38,50,-87,-31,-115,-32,1,-19,31
1490228775904,-42,-49,-15,11,-39,-17,48,54,0,-10,-32,-100,-29,-22,7,14
1490228775906,127,-14,-48,2,-9,-29,-29,-13,-128,57,102,-52,-5,4,-35,-54
1490228775953,22,-5,-45,38,43,-8,11,32,67,34,-35,100,3,-6,53,28
1490228776001,-7,12,78,-13,-36,-48,-32,-15,-85,-44,-51,-48,24,-5,83,8
1490228776050,51,52,29,64,2,-9,-69,1,64,14,-59,-31,9,35,-14,-29
1490228776099,-12,14,-7,-4,28,6,-6,-9,70,78,75,29,-30,-18,-29,-46
1490228776101,-101,-52,55,-39,-3,-29,-80,-15,33,-1,-16,5,-10,-22,51,26
1490228776148,-31,-22,-43,-30,-11,-11,-11,-18,69,0,2,-46,-17,-4,-54,15
1490228776197,-61,-20,-13,-33,-96,-9,22,-4,45,-21,2,30,93,16,-43,-9
1490228776245,6,17,38,81,55,38,22,37,-55,-3,-1,-9,-31,-8,-15,-21
1490228776294,-4,12,0,-22,0,21,2,-6,-57,7,30,57,49,-25,-5,-9
1490228776342,-57,-30,6,-4,0,-24,13,-27,-57,-29,-6,14,-12,23,-12,-9
1490228776344,50,28,2,-10,-28,-60,-20,11,9,23,-3,4,-25,24,-4,-30
1490228776392,-5,-23,-11,9,2,-11,-21,1,-15,-22,-9,-43,-25,2,-31,4
1490228776440,-59,18,-3,-6,19,22,-37,-31,37,35,-6,-3,20,26,34,22
1490228776489,67,8,-17,5,17,15,-25,3,-88,-16,-2,-15,0,-24,41,1
1490228776538,99,8,10,25,5,1,52,60,-8,-10,28,7,5,34,22,-13
1490228776586,55,-2,14,-20,-17,-43,-19,-17,48,32,15,8,6,-1,42,32
1490228776587,-3,-36,6,5,-15,-40,-12,22,20,7,21,22,14,25,58,19
1490228776635,-113,-23,61,-19,-4,-5,-2,6,15,-8,-80,36,3,3,-86,-30
1490228776684,21,9,-76,120,-12,-74,-14,-48,-113,-99,-84,-86,-29,10,29,10
1490228776733,54,85,78,-5,1,-5,76,28,-95,-61,-99,-6,11,22,-98,-34
1490228776781,-4,-73,-92,-120,-104,-27,-39,-1,5,84,120,26,-7,38,10,21
1490228776783,48,20,-70,-65,53,117,42,-3,45,67,74,-35,-74,-109,-28,25
1490228776830,91,-20,106,-54,4,-26,5,81,90,2,12,124,-16,-35,44,55
1490228776879,-108,-30,6,8,3,-31,6,-13,127,-31,-70,-34,0,-20,-20,7
1490228776928,-44,-128,-114,85,-25,-32,-24,26,74,-56,50,-128,-81,9,-15,36
1490228776977,-2,35,-68,30,30,-12,34,32,90,120,18,-30,-3,-35,-1,82
1490228777025,-5,5,127,-51,53,79,6,-47,-64,121,92,127,93,-5,57,13
1490228777027,-30,-3,39,5,-44,-41,-23,-82,65,29,-18,20,13,4,-99,29
1490228777074,56,41,28,55,66,48,-14,26,-79,-73,-65,-128,-42,-38,34,-74
1490228777171,91,10,16,-104,-29,56,44,53,-85,-63,-70,89,51,49,49,44
1490228777173,-53,-5,-80,-128,-63,-32,36,-72,-18,97,120,105,-49,-18,-4,122
1490228777221,3,-99,-128,8,41,29,-19,-18,95,-57,-91,-113,-82,3,-29,31
1490228777269,3,-30,1,-63,-40,-62,-48,30,-89,16,26,-19,-4,22,8,27
1490228777272,-128,-55,49,115,-52,-1,-18,-82,41,-50,-108,-28,98,-1,-12,-53
1490228777318,127,-23,-31,99,-53,-86,-88,88,-70,-50,-88,-122,-77,61,-34,-65
1490228777414,83,32,-74,61,36,59,25,53,-77,-85,59,-70,-36,-49,43,-60
1490228777416,58,62,-32,-12,68,1,21,-30,77,42,4,-102,29,49,-41,44
1490228777463,1,6,74,13,-96,-43,-56,61,-94,12,-82,-126,-53,23,32,-96
1490228777465,-13,-87,-113,-128,-128,-31,19,-28,40,127,127,127,94,-49,-40,-13
1490228777513,20,74,-3,127,39,-15,-45,65,-38,-98,-66,-128,-22,2,-19,-28
1490228777562,61,103,127,-62,-99,16,-80,-10,75,65,110,66,85,111,127,115
1490228777612,64,-28,-128,-116,90,-11,-42,11,-85,-41,-13,-84,-122,-61,-10,-69
1490228777659,-24,0,-62,38,-44,32,44,27,-30,-58,-4,-53,15,-16,-64,47
1490228777707,-13,66,127,22,74,7,-65,-18,17,87,-38,124,5,20,53,30
1490228777709,-23,21,68,-30,-61,10,71,45,9,76,68,39,0,-28,54,22
1490228777757,-100,-128,-128,-128,28,-11,22,-36,48,127,127,18,-62,-43,-8,1
1490228777805,37,60,-58,-44,-31,5,85,31,-58,-123,-98,-68,18,10,-114,-40
1490228777854,12,-28,1,-17,-49,-13,-67,26,25,-40,102,120,73,-6,61,34
1490228777903,-18,-8,62,-59,103,50,79,4,32,55,99,108,-60,-42,-62,9
1490228777951,-25,-17,13,-42,79,40,-27,-14,-6,-26,55,-11,-126,-33,76,33
1490228777952,-95,-22,37,76,13,-45,-20,-28,0,29,-1,4,67,-31,14,-9
1490228778000,-42,-6,-19,-41,61,75,-13,-46,11,12,-5,-61,-90,-105,70,14
1490228778049,-3,23,42,45,51,13,34,4,19,20,52,5,-63,-10,57,20
1490228778098,-7,13,-37,-87,-36,103,-1,-36,18,35,1,22,-10,-14,-98,-10
1490228778195,14,-1,-17,-9,52,-35,-82,-11,-6,14,27,-22,-54,91,30,-4
1490228778196,41,47,41,101,21,-18,77,65,-19,27,63,93,-77,-117,-24,-25
1490228778197,-10,-43,-47,-25,-64,2,-18,-19,61,33,83,38,55,-97,-61,22
1490228778244,41,93,12,57,-84,30,-16,-4,35,54,-46,16,-24,-98,17,26
1490228778294,32,39,18,53,-23,-95,-29,-6,-1,-14,19,71,-36,-85,11,3
1490228778342,-22,-20,-59,-75,73,96,49,-18,-2,-46,-53,-5,61,100,26,-15
1490228778390,26,-22,49,87,49,-84,9,49,6,-14,-23,-36,-47,44,-80,-42
1490228778391,-31,6,16,52,6,-39,20,1,-6,15,-24,-28,85,125,-43,6
1490228778439,-31,-18,-5,-37,28,74,58,-17,9,11,21,57,-99,25,-24,35
1490228778488,38,34,75,98,-15,-128,-12,41,-2,-43,-36,-72,-9,76,15,-16
1490228778586,1,-13,29,-18,-16,-116,-55,9,-29,-34,-74,-73,-52,95,15,-47
1490228778588,-5,-7,-11,16,16,2,35,30,-10,-113,8,49,0,90,29,-9
1490228778635,9,115,40,82,71,6,11,17,-27,113,1,-57,-93,-128,13,6
1490228778637,3,-30,10,27,-37,-3,-81,-23,11,-44,26,52,89,19,1,1
1490228778683,4,-66,-4,-19,-128,-105,-32,-17,38,-21,12,34,70,-99,15,17
1490228778732,7,21,-4,-25,-9,-30,95,12,-8,25,16,4,-42,71,-30,-12
1490228778781,20,10,23,18,16,58,61,8,16,3,5,23,-21,-120,37,3
1490228778828,-43,-28,-12,-10,-13,-24,-22,-12,39,-4,32,57,-1,-65,-7,68
1490228778829,-30,12,13,-7,-57,73,-19,-39,-32,-48,-62,-85,-28,127,-18,7
1490228778878,-92,-22,-33,-48,16,-11,18,-96,86,2,-24,37,-12,-33,-44,71
1490228778927,30,97,86,2,39,2,22,60,8,-79,-115,-92,-12,108,20,2
1490228778975,-5,-5,-78,-86,-28,48,-7,-3,-95,59,127,24,15,123,35,-12
1490228779025,-9,-89,-102,-15,-25,-3,26,42,24,-51,-35,10,-3,7,-36,-28
1490228779072,8,-17,120,28,-36,-65,-9,-11,-19,-6,19,-49,1,-63,18,19
1490228779075,-48,-77,-47,22,0,-39,44,0,10,75,-128,89,36,20,-22,15
1490228779172,20,-62,24,-9,-17,-28,-15,-27,30,81,67,5,25,-14,-56,8
1490228779173,53,57,-49,13,35,-36,17,23,-105,-86,27,-33,-48,4,-24,-75
1490228779221,80,-111,87,17,4,21,40,75,-97,-18,-82,91,5,3,56,12
1490228779267,-74,57,56,25,23,20,-26,23,-43,99,127,127,56,16,15,91
1490228779268,-24,25,-75,-38,7,-13,-3,-2,21,4,-28,17,-10,-16,-63,-77
1490228779316,43,127,79,76,37,13,-83,-37,40,61,85,104,74,18,127,107
1490228779365,-2,-22,-119,-41,-19,4,16,44,-4,-22,-38,-87,-25,-13,-68,-105
1490228779414,-53,-99,-37,-85,-48,-11,62,25,-98,-30,-109,-110,-92,-30,-60,-111
1490228779463,-59,-52,-1,23,-3,-5,32,-34,-25,-6,9,-39,-41,2,-11,5
1490228779512,-71,-61,-51,-29,-8,-6,-54,-3,127,-13,-45,33,7,28,56,27
1490228779516,-43,-20,-7,-7,-17,19,-40,-84,63,32,-53,10,-36,-32,-75,-23
1490228779561,31,-52,-53,-45,-27,-48,-41,-39,-114,-53,12,16,5,28,7,-13
1490228779609,48,40,4,-57,-30,-8,6,3,32,-30,48,56,46,2,48,42
1490228779658,7,3,-93,-103,-14,3,32,-2,26,32,20,-2,-29,4,-20,38
1490228779707,62,23,-39,126,100,54,68,18,-3,39,14,-13,0,-2,-12,-27
1490228779754,56,38,95,28,-24,-22,44,12,40,-30,19,15,32,20,58,6
1490228779755,0,5,6,-21,-32,-12,-59,7,-68,-27,-20,-38,-30,-45,-72,-23
1490228779804,-13,-26,-52,-7,-17,-38,17,8,-43,-19,-60,-46,-29,-4,-59,6
1490228779853,61,25,10,41,16,20,12,14,9,-1,10,18,18,10,11,-8
1490228779901,-47,1,8,41,10,11,11,42,84,13,-8,35,-7,-19,-37,-29
1490228779950,-54,-114,-10,-36,12,-34,-28,-8,19,-109,-6,-22,-23,-16,9,-6
1490228779951,23,58,14,21,-3,9,0,7,-61,7,-12,20,14,10,51,5
1490228779999,-2,-11,4,-3,3,-7,-8,9,42,13,-14,30,14,-13,-23,-3
1490228780048,91,14,20,23,25,-33,10,-6,-7,17,9,-46,-41,-22,-13,22
1490228780097,-15,2,0,8,47,38,-32,-30,60,-3,-19,-41,-6,12,11,20
1490228780145,-32,-4,-17,-8,-1,-8,47,-2,-17,15,19,11,-1,-27,-51,-26
1490228780194,-35,-5,-1,12,-11,24,-53,-51,-9,-10,-9,-10,37,27,36,16
1490228780196,-71,-39,-6,-6,8,-13,-3,-3,-44,9,8,6,-8,-10,-27,-84
1490228780243,-79,-8,-27,-63,-19,-18,-30,-29,93,17,5,0,-9,-16,-46,12
1490228780292,81,49,22,-19,-4,-40,-87,-40,-82,-47,-39,-35,-38,-38,39,25
1490228780341,89,24,29,95,16,-8,29,-8,41,-34,-62,-72,-12,-31,70,28
1490228780389,127,126,69,111,39,79,81,48,127,-53,-105,-27,-31,-70,-64,-17
1490228780437,-18,1,-1,64,40,14,-64,45,-128,17,89,-16,-10,-4,-59,-6
1490228780439,127,127,127,-40,10,-7,-36,-2,-121,-81,-88,-11,-10,-33,-76,-57
1490228780486,-113,-2,-121,97,56,21,-18,39,-73,-93,-62,-113,-58,9,-39,-20
1490228780535,-73,-5,-93,14,45,49,34,73,-128,-67,-41,-26,-44,24,124,-32
1490228780584,-106,-16,12,45,53,7,38,46,85,-2,-29,-78,-49,-26,-15,-36
1490228780632,-128,-54,50,-42,-81,-50,-33,-64,-8,71,127,104,39,7,-103,36
1490228780633,102,70,7,-128,-57,-7,84,66,-128,-83,-7,3,-41,-46,-48,-14
1490228780682,23,28,-23,-87,-97,-17,45,-113,-3,127,127,127,74,83,89,74
1490228780730,-51,23,24,43,-44,-26,-8,9,12,67,6,106,52,19,21,61
1490228780779,-73,-66,-48,-128,-76,-94,-12,55,-63,-81,-127,-43,-12,13,-24,-98
1490228780828,127,7,-124,7,55,33,31,7,-112,-68,-56,-105,-18,-83,-58,-80
1490228780876,-59,-34,99,100,79,39,-97,-99,76,13,-44,36,-67,-63,-31,86
1490228780878,127,-41,-88,-48,-5,26,17,99,59,73,-22,-65,-95,-67,33,-48
1490228780925,127,72,-128,47,30,25,0,88,-128,-37,44,-85,-40,-23,0,-124
1490228780974,58,44,-36,-62,-57,-29,62,-13,84,81,127,90,44,-35,38,73
1490228781024,-128,35,-56,127,30,-7,94,-5,112,19,17,30,12,26,13,31
1490228781072,-106,-47,-64,-26,-25,-63,16,-51,-14,55,1,8,59,83,68,66
1490228781073,81,62,-9,-49,-26,-23,-40,74,-14,-36,31,35,-51,38,21,-107
1490228781120,-51,-80,-47,14,-23,-38,-63,-77,54,14,-42,13,1,-5,-4,53
1490228781169,-87,-40,34,126,127,110,122,-43,90,-25,-10,41,17,21,-54,79
1490228781218,127,-14,-48,-39,-15,-46,-12,22,-128,-5,-61,-44,3,-58,-28,0
1490228781267,-47,126,-7,127,108,55,52,50,38,44,-93,-38,-25,-73,-37,0
1490228781315,94,108,89,84,17,-39,-47,-3,96,0,-83,100,88,50,90,42
1490228781316,36,127,-61,-72,-109,-38,-33,-22,56,2,120,73,26,-27,40,32
1490228781364,-20,-63,45,-128,-41,-5,35,-78,62,33,-57,-78,-116,-34,-6,18
1490228781413,-47,106,90,103,18,25,50,9,-24,69,24,-38,40,12,-128,-69
1490228781462,32,-66,-71,-67,78,-5,-79,8,24,-113,-91,-128,-128,-34,26,-19
1490228781511,-128,-116,-9,-7,-47,-6,12,-28,88,109,60,-86,-82,-3,-109,-57
1490228781558,20,53,5,-15,59,41,82,68,-41,-15,-10,-74,75,40,60,-23
1490228781559,-112,43,-95,-77,-43,-26,87,-51,-31,-5,-79,-89,-89,46,33,42
1490228781608,-46,58,-63,-116,-74,-1,-36,-66,36,-95,81,-15,-32,-64,37,23
1490228781656,-74,-21,-53,-11,-47,-40,20,-102,74,12,-73,-55,71,68,1,25
1490228781705,-31,53,25,86,-117,-57,20,-63,85,116,112,127,71,19,-7,-32
1490228781754,-5,15,46,68,-58,8,7,-4,65,-47,-118,-128,20,0,-40,-2
1490228781756,-43,29,10,127,41,54,53,38,-31,-61,-97,-37,2,0,-64,-66
1490228781803,-33,-91,-112,-128,30,-15,12,-37,23,62,89,70,-128,-86,-59,-17
1490228781852,-99,1,-5,6,-113,-41,-124,-31,16,53,94,8,52,34,-34,-7
1490228781902,91,127,127,92,77,31,12,29,-41,-86,-124,-117,32,38,72,1
1490228781949,43,-21,-59,-40,89,78,-32,27,-29,11,-19,53,-124,-104,-96,-72
1490228781997,64,55,89,78,-84,-112,39,53,9,22,67,-37,29,-122,53,-20
1490228781998,15,26,75,78,-65,-18,9,11,21,-22,-27,-34,-99,-24,10,14
1490228782046,-8,1,-23,60,-64,-40,-60,-26,21,-2,-2,-22,26,54,30,38
1490228782096,35,8,71,67,-81,-103,-46,7,-8,-14,-4,81,-66,65,-21,-24
1490228782145,-4,-34,-61,-26,66,39,53,34,-28,-11,-2,-100,-61,8,-1,-1
1490228782193,5,17,-40,-122,91,27,44,-31,49,64,61,87,-69,-83,17,27
1490228782241,-7,-49,-49,25,10,-54,-4,24,-12,-12,-21,49,73,-63,36,14
1490228782243,35,12,9,-51,-68,44,-3,9,-4,0,-1,-20,17,-53,-71,-7
1490228782291,-21,-2,20,56,-16,-66,-17,11,2,-6,-13,-101,-111,101,-28,-34
1490228782339,21,3,-15,-74,11,-21,-49,-24,49,-22,-18,-68,-62,73,87,20
1490228782388,-22,-5,22,35,-5,-30,-46,-10,-2,26,-38,35,127,87,31,30
1490228782436,1,20,26,24,27,52,41,2,7,-15,47,100,57,-58,74,32
1490228782437,7,61,-10,-25,-46,48,-52,16,-35,77,-3,31,80,61,-10,-47
1490228782582,-38,-8,-49,-112,52,127,8,-19,27,-33,66,73,-102,-100,76,47
1490228782584,19,-12,49,62,-4,-21,89,16,-21,-18,-12,11,-77,119,-37,-19
1490228782588,-8,7,-43,-26,96,66,96,-16,9,3,11,17,-17,-17,-22,2
1490228782631,18,8,0,-17,-66,-89,5,43,-33,12,40,25,46,-47,33,-23
1490228782679,0,0,6,-7,41,32,-85,-34,-28,-5,16,-6,8,-22,-24,7
1490228782681,11,10,37,24,-43,-3,93,30,2,-12,-30,-6,4,-27,20,-17
1490228782729,37,31,42,53,-3,39,51,72,-67,-67,-82,-93,-16,5,-42,-36
1490228782778,37,12,13,73,56,-120,-112,-69,-44,-50,-48,-51,-39,84,32,-6
1490228782827,-25,-15,-16,-128,-23,123,-20,7,9,54,102,72,17,63,73,37
1490228782875,-45,22,11,69,46,119,34,18,-9,-8,24,37,-29,70,-19,-26
1490228782923,-7,49,55,113,52,102,-21,9,71,-11,30,11,58,106,-19,37
1490228782924,17,100,98,110,10,-41,-34,36,37,-18,-44,-67,41,8,39,-38
1490228782974,16,-88,-67,-69,-8,-53,50,-40,-73,93,50,87,-13,-22,-8,11
1490228783022,-89,-8,-2,-37,-30,9,-46,-52,127,-8,2,79,41,49,127,70
1490228783071,43,58,68,66,18,61,-32,50,-91,17,92,37,5,75,57,-34
1490228783118,-31,-70,-82,-128,-24,-68,8,7,-62,-63,-128,-112,-117,-128,-128,-65
1490228783120,87,86,73,8,21,8,-71,-82,79,43,-83,-102,-26,-14,-8,35
1490228783168,-64,-17,31,26,-53,16,82,-45,48,-11,115,103,72,-15,-103,127
1490228783217,11,81,-76,127,40,-1,79,121,-85,37,112,127,17,8,-8,-96
1490228783266,89,-22,-28,29,10,6,-38,62,18,-109,-128,-117,-33,-25,26,-35
1490228783314,69,91,127,93,37,3,14,55,68,80,61,127,73,11,-42,23
1490228783362,88,31,-45,-11,26,-6,-70,-13,-118,4,58,-66,-25,6,89,-58
1490228783365,-74,-18,-36,8,-29,16,-46,-14,114,49,-55,-19,19,-5,81,16
1490228783412,-73,51,79,50,-10,-16,-7,73,77,-30,-16,-93,-16,8,22,-26
1490228783460,97,-61,112,108,53,23,98,41,-76,-24,-60,-2,3,-17,-32,-2
1490228783509,-44,61,102,-28,20,28,8,-19,39,29,39,103,64,45,-29,-9
1490228783557,127,37,-28,-18,-53,-20,16,-31,51,6,13,-72,9,27,-16,26
1490228783606,6,-49,-45,-48,-1,4,5,-36,-40,23,-78,-64,-35,-17,-65,10
1490228783607,-52,-22,-10,-74,-45,-40,30,-31,70,33,90,24,44,-18,-40,31
1490228783655,-56,-14,26,25,20,9,76,33,-44,-14,59,72,3,-33,-52,-14
1490228783705,1,-11,-31,6,14,-14,-51,-12,67,8,40,-73,-12,-13,38,51
1490228783753,10,-24,-40,19,-12,-30,17,-7,-13,-14,-57,-29,12,6,-87,-29
1490228783801,75,14,-45,-28,35,2,113,48,-30,6,7,18,-14,30,1,-14
1490228783803,102,17,15,61,14,51,60,41,30,26,27,54,24,14,-83,-49
1490228783850,5,-3,-11,-13,-16,-31,-4,-19,10,-2,6,-1,5,-14,-39,0
1490228783899,127,19,2,-14,11,33,-3,8,21,-3,-11,-14,-31,-36,20,-8
1490228783948,-12,8,15,-15,-27,-40,-61,-20,-13,20,-2,43,27,13,11,2
1490228783997,13,18,17,1,9,47,-18,8,-48,19,-15,1,-7,-24,-31,-4
1490228784046,46,127,14,5,-14,47,79,13,-4,5,-4,-34,16,1,10,6
1490228784050,30,-36,-22,-13,-4,-1,3,-14,-91,-35,-22,-11,-20,-10,5,4
1490228784095,-1,12,24,-3,-6,12,10,23,61,-6,-2,11,9,-26,-20,-35
1490228784144,8,14,3,18,-5,-9,57,18,-55,-18,-19,19,12,15,3,0
1490228784193,121,0,-30,-32,-25,0,-1,-7,-7,-9,2,-17,3,4,-10,-20
1490228784239,-60,-38,7,-5,20,29,-22,-3,104,-8,-21,-13,-24,2,64,-2
1490228784241,-46,-23,-2,-26,-25,-6,-81,-6,-85,9,17,2,17,12,18,35
1490228784289,19,0,33,29,-6,8,-7,51,-110,-15,-6,9,12,15,-67,-53
1490228784337,-38,29,23,-3,35,40,42,-25,104,-9,-2,-8,-17,-21,-59,18
1490228784386,-126,-62,-44,1,-13,14,-27,-18,85,-23,-32,32,18,38,127,26
1490228784435,63,0,-31,-8,-13,-37,-35,-20,-77,46,-27,-40,-21,26,50,-2
1490228784532,-62,-29,-23,-25,-34,-76,34,-33,109,80,56,64,32,-11,-59,37
1490228784534,-47,28,53,-53,-55,30,13,22,-49,-7,87,43,-6,10,48,45
1490228784536,61,112,4,-21,3,1,-94,2,115,-31,9,94,-37,-76,-101,39
1490228784582,-71,85,107,127,64,43,38,30,32,0,-124,-69,7,-43,45,53
1490228784630,-114,-23,-9,125,49,-10,-32,16,-101,-78,-109,-119,-73,-32,-68,-118
1490228784679,20,-30,-95,-89,-64,-116,-52,-43,17,44,102,-11,25,71,-89,-57
1490228784727,-74,-122,-128,39,-17,53,-39,-56,43,3,1,-123,-19,-48,53,67
1490228784729,-58,111,5,-87,-30,43,-78,-65,95,33,-2,112,53,24,101,92
1490228784777,-73,64,114,3,8,41,110,35,33,87,49,53,56,-19,43,49
1490228784825,49,-128,104,-18,-13,32,19,-4,84,91,-123,-40,-83,-55,-96,7
1490228784874,-15,94,-34,127,-38,-37,-19,25,-24,-3,-97,-61,-27,-45,28,31
1490228784922,-74,-39,87,47,1,-84,37,90,64,-29,-89,28,-34,41,66,-44
1490228784924,64,43,127,96,-15,-61,99,-92,-113,-64,-65,22,7,4,-127,83
1490228784972,-65,-105,-117,123,67,54,-15,22,12,46,-15,-83,-23,-15,-86,-58
1490228785020,103,-15,-128,-128,-66,49,-26,-35,-128,-24,127,4,27,60,48,-67
1490228785069,-128,-38,-75,81,-62,6,36,-8,-53,-12,-32,-128,-38,-61,-65,-52
1490228785118,-39,-48,-70,-93,-25,-30,-63,-21,67,59,3,-21,-82,-79,-97,61
1490228785166,-43,91,127,127,-25,-108,-87,-78,-72,85,-84,-10,92,70,-15,-66
1490228785175,-4,-127,-104,69,-86,-95,9,38,-31,-58,127,-26,-64,97,2,-35
1490228785215,-82,10,49,-12,24,0,48,20,80,67,88,68,96,67,95,-63
1490228785265,-44,48,62,29,90,62,45,71,-50,78,75,98,-22,5,-27,-35
1490228785313,76,73,-121,-64,-16,59,44,-24,-103,-8,9,11,47,-40,21,31
1490228785362,59,7,-127,-83,-68,-60,-102,-128,12,-128,-128,-16,9,32,54,107
1490228785410,17,76,-36,13,68,-36,-59,13,85,-66,-128,-34,-26,38,12,-28
1490228785411,73,92,127,20,-12,24,-9,60,23,64,58,97,127,52,1,-6
1490228785459,-112,103,67,68,51,20,-31,-106,28,106,-15,-22,26,-16,96,33
1490228785508,-12,-35,-46,-22,-67,-64,-55,55,-24,-39,-99,11,117,110,80,2
1490228785559,-26,-104,-65,-44,-79,-28,37,-69,115,73,85,50,-22,-27,-116,29
1490228785604,48,28,29,-48,-128,-88,1,-54,83,74,120,107,69,71,6,18
1490228785605,-72,-106,-18,38,34,1,52,-46,-71,4,-124,-93,-59,-15,-120,-43
1490228785654,85,98,127,127,41,-45,27,47,38,1,-128,-128,-109,-107,-95,-71
1490228785702,-76,-39,-23,54,-2,20,91,31,48,77,96,23,18,38,-96,-82
1490228785751,-4,19,82,87,92,47,-108,53,-20,38,-109,-78,-69,-27,127,42
1490228785800,-81,114,67,-128,67,91,53,39,70,39,110,127,-34,-25,-29,-6
1490228785848,44,4,54,-64,-2,20,-49,-23,-77,80,61,123,27,34,32,-45
1490228785850,-111,-62,-128,-67,-9,-8,94,-16,88,-50,-128,-128,-112,-62,-119,-36
1490228785898,-58,-66,-21,33,101,5,127,-26,-69,-67,-105,-128,-128,-4,-48,9
1490228785947,107,127,82,54,-27,-25,-128,-54,-19,-80,-80,108,63,49,112,-9
1490228785995,-51,-124,-122,-37,-39,-111,-120,-55,-56,26,111,-82,21,44,-2,-28
1490228786044,82,-85,-128,-67,36,76,-32,-56,77,19,40,75,-55,-1,-3,72
1490228786092,90,127,-71,33,2,40,115,24,-20,-69,54,-82,-5,17,0,43
1490228786094,71,-36,-81,127,-56,97,127,65,40,-97,-128,-123,4,-100,-91,-52
1490228786141,-75,-9,127,82,108,74,-57,6,112,91,96,127,52,15,-8,86
1490228786190,-20,7,64,76,9,11,-72,-1,20,-99,-67,8,44,2,14,53
1490228786239,-2,94,74,6,10,-31,60,-82,71,-64,-78,-76,2,31,10,74
1490228786287,26,-32,-116,3,-24,12,19,14,-77,11,-49,-4,-42,-58,12,-46
1490228786292,94,110,-5,-98,-25,18,-10,41,-48,-107,-40,127,25,-19,-37,-23
1490228786337,-51,-128,-107,-128,-34,25,22,-54,22,26,127,127,-108,-36,15,-6
1490228786385,73,48,41,89,93,-45,-78,11,56,120,45,-69,92,38,125,30
1490228786434,-72,-8,54,59,126,-12,-22,-16,-43,3,-27,-9,-39,32,-98,-9
1490228786483,62,57,124,42,59,15,20,45,21,67,17,91,-73,-21,1,27
1490228786531,-14,-31,-28,-49,-71,4,-37,-2,11,37,106,127,96,3,-8,12
1490228786628,-17,-31,-44,-81,66,61,95,11,26,-16,43,17,-70,-69,-14,28
1490228786631,-28,-63,-71,-28,-69,-91,-90,-29,-48,-11,29,78,-41,-34,76,20
1490228786632,-31,-1,-8,19,-108,-113,22,-26,26,-4,-32,-19,81,99,-8,20
1490228786679,21,12,-4,-56,2,11,95,58,-26,-12,15,-11,72,41,-19,-32
1490228786725,13,5,20,-44,-80,-16,40,26,-49,-15,-4,-12,26,51,17,-22
1490228786727,-37,-9,-15,-104,-30,-35,-106,-28,-17,-19,-22,-69,-20,-55,-2,-25
1490228786775,38,0,-16,81,67,-73,-55,4,-27,7,12,21,9,-37,-37,-27
1490228786824,8,121,35,4,-104,60,12,27,53,59,-2,55,85,8,-13,11
1490228786872,-25,-23,-34,-37,-19,21,74,-33,43,-10,16,72,-45,-19,1,24
1490228786921,23,8,61,42,-128,-98,24,-14,-1,-9,21,4,92,73,83,8
1490228786969,-1,-13,-12,71,72,43,69,31,-2,9,19,48,-22,-45,-47,19
1490228786970,-22,-18,9,28,-113,-67,8,-6,19,-40,-38,42,61,-54,11,0
1490228787019,27,29,79,105,-45,-81,-60,-28,60,36,68,40,-103,-58,24,34
1490228787068,-32,0,-59,-70,-2,94,-54,10,-80,-16,-19,-80,67,-10,-12,-8
1490228787116,-48,-1,-33,-49,-128,-1,-56,-20,-8,2,25,47,69,64,-25,-58
1490228787165,13,19,33,7,0,-121,70,48,21,29,49,70,-24,10,-104,-42
1490228787213,20,25,27,78,-48,6,66,22,2,-8,-56,-31,67,33,21,18
1490228787214,18,20,8,-17,30,46,-3,16,10,16,15,13,-49,118,41,36
1490228787263,-24,3,11,9,23,-56,29,-10,45,15,36,-4,-64,12,-74,29
1490228787312,18,-10,5,-7,8,-5,-55,7,-18,-1,18,-5,-73,-43,19,-11
1490228787360,5,-8,-15,-9,46,-27,11,18,-10,-4,10,-40,-22,-79,-2,-10
1490228787408,-3,6,17,41,26,37,-26,-2,-29,-4,-16,-5,22,-8,-3,-28
1490228787409,-3,12,31,60,2,-12,-30,-9,7,15,2,-67,-20,57,62,19
1490228787460,-76,-64,-39,60,-31,-90,77,-33,-21,-41,-76,-97,-75,20,-6,-2
1490228787507,-56,52,57,21,-13,22,-123,-5,-3,-52,-9,-35,17,39,127,-23
1490228787555,-107,-78,49,-30,37,101,69,-31,12,52,-5,-26,11,-63,3,9
1490228787604,52,-7,-37,8,-24,83,-5,27,42,-38,-81,-94,-20,44,37,76
1490228787652,-86,-4,-5,77,-14,127,-59,-21,39,70,26,29,41,70,37,69
1490228787654,11,-11,103,73,-15,-113,-12,45,-61,-3,78,103,58,-70,-3,-69
1490228787701,-19,9,-81,-64,12,57,-2,-91,-88,-17,-113,-128,-75,57,-5,8
1490228787750,47,61,-128,-21,-15,-53,-25,1,17,-42,116,-49,-5,20,-6,-16
1490228787799,-79,24,-28,-69,1,14,-37,-46,44,-97,-27,30,-14,58,91,111
1490228787847,46,-31,-56,-96,-26,-12,109,16,29,37,44,-4,-22,-24,-56,-92
1490228787895,-25,51,63,83,28,-42,63,48,78,118,127,76,29,-2,41,27
1490228787897,-109,74,92,106,17,3,88,44,72,-64,-128,-128,-14,4,23,-32
1490228787945,-30,-118,-78,-57,-28,20,58,77,48,23,-73,-118,-55,37,108,-64
1490228787995,73,101,-66,-71,-38,-47,-3,-17,60,64,99,91,53,2,-118,42
1490228788044,-90,-73,-86,-85,-62,-20,-62,-115,45,90,89,-13,82,20,-82,60
1490228788091,53,89,87,66,71,3,17,-26,-118,-40,-2,14,-16,3,20,79
1490228788093,32,-36,-128,-126,-41,-2,-14,78,30,-49,-100,-44,-44,-21,-9,-83
1490228788140,112,107,1,78,31,21,3,-9,-24,-128,-52,-62,-37,-22,26,-6
1490228788189,13,-75,-91,82,21,5,19,-4,-35,27,-28,-87,-56,7,-7,-54
1490228788239,56,19,77,92,38,14,17,76,-82,-28,-12,-59,-66,-18,32,-116
1490228788286,-16,-106,-48,-30,-25,-2,41,19,50,38,124,-17,-1,19,29,14
1490228788334,17,-2,13,66,32,0,89,23,-48,34,-16,46,22,1,-61,9
1490228788336,127,126,27,-21,-4,-9,-36,22,-77,-43,42,-7,17,-7,50,5
1490228788384,25,8,-76,12,32,2,-13,4,-66,-82,53,-25,-5,27,64,-21
1490228788433,72,8,-79,-115,-62,14,18,31,40,-20,-79,8,-27,-9,-7,-9
1490228788481,-70,8,20,-12,71,45,-31,-41,-45,-46,-52,15,-15,-12,-64,-1
1490228788532,-29,-9,39,-30,-28,7,120,13,98,87,49,80,54,-17,-18,68
1490228788578,-34,-46,-37,-43,31,19,-16,-4,-34,24,34,19,-38,-13,-10,33
1490228788580,82,51,-10,34,26,-44,33,-19,-9,11,2,4,-36,50,-44,-41
1490228788628,-76,-21,-34,-9,-2,30,-28,-46,-12,-28,-60,-23,-44,-4,-16,28
1490228788724,127,14,4,5,-27,-16,-65,45,-21,-35,-1,12,56,16,76,1
1490228788726,-5,5,-27,28,15,-33,49,16,35,12,-2,-20,9,36,-68,-9
1490228788773,-54,3,-14,35,54,7,88,-16,-10,17,5,23,-27,-2,-88,-33
1490228788774,-47,8,8,-6,22,43,39,36,-35,6,-16,-8,-23,-47,-42,-26
1490228788822,45,-1,-37,-69,-33,6,-12,-5,-9,-4,10,-57,-36,-26,-26,22
1490228788871,-74,-5,25,-15,3,0,-36,-6,40,-6,-27,-22,15,-11,-6,-20
1490228788920,-8,-24,11,29,-13,-10,37,-26,-8,15,22,24,-6,9,-11,-12
1490228788970,-23,-10,-6,-8,-13,-28,14,-19,-13,5,-16,-48,-53,-43,-67,-21
1490228789017,-8,3,-10,-44,-26,-17,-21,-27,-45,-5,-1,48,75,46,23,-4
1490228789018,-28,52,13,17,41,-5,37,23,30,17,-6,7,-18,-2,-64,-8
1490228789066,-111,-41,-16,-11,-29,-12,-1,-49,0,-14,3,-24,-29,-52,-58,-6
1490228789115,-67,-50,-32,-29,-30,-2,84,-13,72,-50,3,-20,-16,-33,23,22
1490228789164,18,26,16,44,32,-3,-88,-57,51,34,1,46,32,-10,103,27
1490228789213,-10,3,0,17,17,36,57,-2,4,10,-15,-24,-19,-31,21,25
1490228789261,-17,-4,1,1,25,-12,-21,14,-26,14,10,-3,0,-51,45,18
1490228789263,-47,22,7,-1,28,12,47,-5,100,22,11,8,2,39,-32,41
1490228789310,8,9,3,3,10,-5,-13,-1,5,16,-10,-38,-53,12,58,8
1490228789359,94,12,-9,25,34,-1,-47,4,-16,-2,2,7,-11,-10,4,-7
1490228789408,1,-10,12,-27,-55,2,-17,7,-27,-7,-17,14,58,-17,-59,-6
1490228789456,35,-3,0,-6,1,5,-7,-24,-30,-18,3,9,56,27,35,12
1490228789458,33,3,4,29,27,-1,64,7,74,18,13,34,-22,-30,-56,1
1490228789505,-39,-48,1,-30,-70,-10,104,1,-1,-29,7,-11,11,14,-67,-32
1490228789554,-67,21,-3,-11,2,46,-35,-4,10,24,-21,-38,-7,-12,-8,-21
1490228789602,-50,-9,-20,1,47,25,-26,-31,-19,8,7,26,59,-3,8,-20
1490228789652,-60,-14,13,-17,-77,6,-47,-26,114,6,-8,11,14,-28,-29,43
1490228789699,-4,8,-2,-55,10,-7,-62,-19,1,-6,2,43,42,17,110,30
1490228789700,2,10,22,20,38,19,-27,12,33,14,1,32,36,-18,-39,18
