1490227548868,-29,-27,-41,-3,37,-37,15,-9,-90,-32,-20,-70,-3,111,-44,-40
1490227548919,-95,-34,18,8,-3,79,-1,-33,116,26,55,62,32,-98,43,51
1490227548920,-20,-74,-20,-31,17,45,40,5,-72,91,31,-17,-11,32,-36,-51
1490227548965,-128,-18,6,-50,-15,57,-10,-21,127,81,-16,-22,-2,-73,-18,35
1490227549014,-114,-84,-39,37,-9,-16,-23,-52,94,17,6,17,12,25,18,26
1490227549063,127,27,16,-1,13,-38,8,97,-125,-85,8,20,-10,55,-71,-69
1490227549112,-71,-26,-74,-41,-30,7,3,1,21,-25,3,-30,-1,-16,53,-1
1490227549160,75,125,17,-10,12,79,-85,-83,43,97,0,28,-3,-28,43,60
1490227549161,-49,-13,27,-25,2,3,-7,-35,33,53,35,43,25,22,-9,41
1490227549209,-35,-102,-60,13,-6,89,-46,17,-122,-34,19,-2,10,39,-22,-12
1490227549258,50,20,81,-26,15,127,-7,-65,-21,-21,-70,-57,8,-68,-14,-8
1490227549307,69,-76,-16,-43,-8,34,25,88,-128,-118,-128,-11,-8,-25,-88,-128
1490227549355,-56,-89,45,-58,-6,22,-15,2,107,126,35,9,13,27,125,122
1490227549356,-48,64,-17,-90,-25,57,38,86,78,14,29,28,-16,-39,29,-10
1490227549404,-24,127,-16,40,7,-46,-23,-123,86,-110,-57,-83,-49,46,18,127
1490227549453,-46,-101,-104,122,4,-37,27,74,58,69,90,110,30,57,-75,33
1490227549502,-43,127,-11,-26,-7,-95,-82,62,17,-101,-1,97,22,-15,60,-37
1490227549552,-36,-47,-38,-25,8,-70,23,-25,-93,-17,127,84,-4,-106,-61,-26
1490227549598,70,-42,127,25,57,103,76,65,-116,-91,-89,-52,-64,-45,-55,-125
1490227549600,21,-26,-91,-78,-34,25,-90,-38,-118,-98,-34,71,41,-2,53,-63
1490227549648,105,102,-32,-15,15,-37,-38,15,-113,-89,-44,-10,-26,108,-34,6
1490227549697,31,3,-49,105,22,-15,-10,40,32,-128,108,49,2,79,-54,0
1490227549745,6,-128,-128,-92,-20,48,127,83,-57,-31,-8,-40,-11,-107,-121,-102
1490227549842,-94,-19,101,-23,51,-31,-40,-68,21,47,-128,-128,-58,-36,27,-5
1490227549844,127,30,-9,15,15,-64,11,97,-92,-9,-46,101,20,88,48,-17
1490227549845,97,-89,-35,-42,-1,-17,-38,-10,127,-60,127,124,51,4,-4,-36
1490227549892,50,-40,-28,-76,-7,-46,-67,47,-50,-109,-78,56,9,22,113,19
1490227549940,-101,-74,-69,47,9,-48,-71,25,-56,51,75,-103,8,-103,81,-84
1490227549989,-128,83,-14,70,-2,-68,55,-66,-15,8,19,73,18,5,-24,19
1490227550037,-128,-64,-4,-23,61,56,55,-3,-108,-5,30,-10,16,-32,-68,-15
1490227550039,120,5,75,-57,24,13,120,74,-77,-10,-96,-75,-18,127,-33,-4
1490227550087,-109,-87,14,106,38,82,-77,1,-81,88,127,33,-7,68,-63,21
1490227550135,91,-94,-128,-61,-60,65,127,127,98,-62,92,-14,8,75,-23,7
1490227550184,-125,93,-33,18,70,-93,20,70,-128,-35,-38,-31,-46,-107,13,59
1490227550233,74,-117,-103,-128,-86,-35,-120,-22,-124,-128,87,125,-28,-110,-128,78
1490227550282,-73,-103,-48,-73,-87,-128,-55,-40,73,90,6,25,9,91,-81,78
1490227550283,-67,-59,105,83,-51,-78,-116,-74,-12,-47,37,35,-52,-105,95,-125
1490227550330,50,-61,38,-5,13,117,0,10,52,-89,87,23,-5,0,8,20
1490227550381,86,111,-60,104,-4,87,127,-81,127,-32,41,20,78,-47,-42,-35
1490227550428,-128,54,122,45,7,-68,51,-78,-101,45,117,-2,48,58,10,74
1490227550476,-106,-96,-16,-128,69,-116,94,-77,-123,72,-124,-51,11,92,-59,-125
1490227550479,120,-40,-97,-34,127,-8,73,123,108,-91,-85,-61,35,-52,16,97
1490227550525,-106,-31,-81,87,25,86,21,-12,34,-116,-128,74,104,34,-18,-31
1490227550574,116,-104,-10,-71,66,97,44,81,119,-105,98,-84,81,-128,-103,75
1490227550623,-107,77,-16,29,-56,-17,-74,-45,-59,35,-40,6,-58,45,67,-37
1490227550672,19,-15,8,-3,-30,-61,4,-39,0,-6,-21,6,55,-25,-22,1
1490227550720,9,-3,-19,-55,-54,29,-7,17,9,2,29,44,-91,-36,-3,-10
1490227550721,-13,-6,-12,-15,19,7,8,-36,-10,-12,-29,-30,-49,-22,-8,-9
1490227550769,-10,17,8,-13,-1,-25,13,18,-9,-3,2,-16,-10,-47,-3,17
1490227550818,-93,-59,-8,-10,-64,-23,-1,-6,20,-13,-23,5,40,-28,8,1
1490227550867,17,29,52,5,21,2,5,39,-42,-4,23,-7,-4,40,-13,-13
1490227550915,-17,0,-92,-62,39,19,-4,13,-3,-17,25,20,-21,33,10,-2
1490227550964,60,7,72,-10,31,-54,39,14,-54,-2,-105,-17,-53,10,-8,44
1490227550965,-9,4,55,-13,-15,-32,-29,-71,24,56,-5,-6,11,-65,39,-1
1490227551013,-88,103,19,63,6,-2,22,37,-42,-53,-57,-62,31,21,10,-2
1490227551062,-31,-57,-64,-23,-16,-2,-36,33,3,55,-37,-94,-43,-42,-95,-104
1490227551110,-17,4,70,21,3,-53,-74,2,49,-15,-63,1,-12,-2,104,-59
1490227551158,-84,68,90,105,36,58,-44,37,107,-20,76,115,20,40,-10,6
1490227551160,-23,-83,21,-10,10,-15,-63,-45,20,45,52,84,9,9,74,-12
1490227551208,-46,-31,33,-23,5,11,43,-32,-52,17,-100,-7,-31,-2,11,43
1490227551257,-85,-96,6,18,-8,-41,-18,-48,60,-57,42,95,-2,-19,34,53
1490227551306,-62,-10,-19,-25,31,-65,-61,-36,67,-26,-5,-25,39,66,-29,-44
1490227551354,105,-1,-6,-9,-54,57,-26,-11,92,-18,-127,-91,-95,13,-18,-53
1490227551402,-75,-30,71,60,127,101,-4,-78,4,18,-80,14,127,127,75,60
1490227551404,107,57,97,61,-6,42,-19,44,81,-14,23,7,-34,85,45,2
1490227551452,-100,99,-31,-41,-128,-68,-1,18,-83,-40,-22,-11,-108,-98,-37,-51
1490227551500,-51,-128,-50,-45,-91,-128,38,6,-20,112,60,16,-16,-128,-20,-27
1490227551549,30,14,-12,25,-93,-10,-1,-8,-29,-95,12,-19,-83,-43,-28,-10
1490227551598,82,87,-3,31,33,-1,-2,-19,127,126,25,21,2,-2,-12,30
1490227551646,-109,-122,-36,-43,118,20,37,42,63,-122,-19,2,37,-36,14,-3
1490227551647,77,-118,21,6,-1,33,-62,-39,127,-128,-11,16,10,10,54,36
1490227551696,118,-125,-8,68,110,-24,-75,6,75,-67,22,71,107,50,89,-2
1490227551745,36,88,-4,-15,-65,-23,9,-20,-53,127,4,26,-91,-49,27,41
1490227551794,-79,-85,16,-4,11,53,66,-8,-7,-124,-22,-6,26,-26,-3,25
1490227551841,127,99,-27,-2,58,50,-92,-62,117,44,-51,35,127,-16,55,47
1490227551842,-25,-32,-41,-27,-35,-8,20,49,99,99,52,11,-14,53,-37,-9
1490227551891,20,-34,-37,-11,-44,-68,-50,83,-128,-57,51,-25,6,-21,28,0
1490227551939,-71,69,43,-23,0,72,-58,-61,68,-44,66,11,-7,-25,-8,2
1490227551988,-85,8,46,96,10,-10,-47,-128,43,5,-10,62,28,27,112,95
1490227552037,8,73,52,91,2,-12,-6,-55,6,-58,-81,-13,3,10,10,39
1490227552085,-98,-128,-48,61,-7,46,32,-64,-103,-63,-84,-55,5,-22,47,48
1490227552088,-22,85,86,-128,-31,-127,-28,7,86,-44,95,18,-6,19,-11,100
1490227552136,20,62,-110,110,65,44,44,118,-82,-14,81,-113,-76,51,-77,-41
1490227552183,17,11,118,3,24,43,29,95,-59,-38,5,-17,20,6,-62,-128
1490227552232,66,18,12,27,-23,96,-29,17,-68,32,46,45,18,51,-1,-82
1490227552280,1,83,-29,-39,-45,-69,-8,122,68,-128,-109,-106,-31,35,37,-17
1490227552329,53,42,127,92,47,127,-4,94,-128,-116,-48,-14,12,78,55,-46
1490227552330,12,-55,68,8,11,-110,63,-68,57,123,127,114,111,15,15,84
1490227552378,-63,43,-4,-113,-50,-84,-121,-95,55,-71,-56,8,-28,-41,16,-38
1490227552427,127,49,-84,67,13,63,24,92,-103,57,97,-18,42,52,-101,-40
1490227552476,-14,-42,77,10,6,-53,-17,36,38,109,-6,37,-4,-12,27,66
1490227552524,-94,-48,-84,-3,-24,38,80,30,5,-46,-128,45,4,-85,-14,13
1490227552525,90,-57,-24,-89,39,-36,-35,75,88,50,123,-13,-104,36,0,-66
1490227552573,61,-59,-37,-1,-20,8,21,2,-19,13,38,36,74,37,69,-91
1490227552622,63,48,-10,-82,-42,-62,-76,16,-27,81,-39,17,25,34,20,-61
1490227552671,43,32,-13,-25,-26,68,19,42,-128,-37,37,58,-11,-48,-7,-121
1490227552719,127,121,4,127,47,122,62,94,-34,-15,12,-11,63,111,-35,34
1490227552768,1,21,63,86,4,90,-69,-48,-35,-73,-1,-22,10,-20,24,23
1490227552770,4,-17,-91,-124,-51,-97,-19,-15,8,127,85,84,6,0,0,-36
1490227552817,99,-98,-31,-67,-90,-19,3,-20,-63,86,32,2,74,-25,20,9
1490227552866,18,99,72,127,23,62,17,26,-10,94,6,17,1,-19,-56,-16
1490227552914,-37,-111,-108,-94,-77,30,-47,8,-27,-74,-100,-18,-46,-103,-63,-38
1490227552962,-103,-31,-29,8,-59,-103,-23,-23,50,0,-2,-28,94,-128,29,50
1490227552965,-9,29,54,1,41,-28,34,6,-12,-59,-106,-47,-27,-77,-29,-16
1490227553012,55,-34,-28,2,2,101,19,-29,-2,52,16,-24,33,127,-33,-14
1490227553061,-65,-115,-9,-1,2,-93,-21,-20,-21,15,-4,21,11,-116,-21,-7
1490227553109,-13,-18,-27,11,22,-2,5,8,70,30,4,4,-18,-52,-24,26
1490227553158,-33,-42,40,-10,-16,23,-27,-38,64,-128,35,61,50,-10,-20,-114
1490227553206,-98,-93,-106,-109,-110,-11,36,-119,-13,117,-128,107,-82,31,127,40
1490227553208,-122,33,-98,127,-67,-111,-30,112,-117,-30,-128,121,-71,-4,4,64
1490227553262,77,127,-67,53,75,-113,-128,-59,-85,-80,22,95,-58,54,24,-62
1490227553305,98,-37,87,-80,105,61,-108,19,76,-34,68,-116,67,34,-65,42
1490227553354,-60,13,-108,-68,-101,10,53,-84,119,-50,22,-73,45,-43,106,11
1490227553402,127,-85,-128,50,-71,-21,-5,1,127,-103,-12,-23,13,12,33,-60
1490227553450,-5,-93,19,-10,-5,-10,-101,-35,56,58,0,96,-50,-9,-45,-12
1490227553451,-91,18,-23,1,-35,-11,-3,-4,-83,-5,-40,-47,41,3,50,-17
1490227553499,65,-7,-9,-9,-48,-18,49,-7,112,3,-9,-22,-21,-2,3,-37
1490227553548,37,6,5,-12,2,52,-29,8,-24,-3,-14,-14,-7,23,-3,-19
1490227553596,11,-5,-7,7,-2,-13,29,-4,-2,-1,-2,-14,-13,13,-19,8
1490227553645,-78,-68,-40,-9,-7,-24,77,-5,-1,37,24,26,34,51,-13,-57
1490227553646,19,11,-2,5,2,27,-11,3,-25,-9,-25,-12,-23,-120,19,28
1490227553694,40,58,15,46,-26,66,-47,26,2,39,-29,83,14,-3,-20,-73
1490227553746,14,-11,34,-6,18,-30,17,75,41,-85,-19,33,5,33,-43,-17
1490227553795,-31,82,-74,-37,8,23,-14,11,20,102,10,65,-3,-15,63,-6
1490227553841,5,-26,123,-75,-35,-62,-28,-6,33,4,-87,-83,-27,24,-37,-1
1490227553889,-40,-128,-16,-77,-14,104,-5,38,69,-111,-35,29,-28,69,16,14
1490227553891,127,117,-92,64,31,30,18,-28,113,16,110,52,74,2,35,-1
1490227553938,17,112,0,-13,7,-38,26,-59,53,127,-22,-1,-82,-18,40,-73
1490227553987,127,56,90,34,-68,28,-9,21,-51,104,-99,34,-3,47,34,-56
1490227554036,-71,-57,-1,82,-128,32,16,-15,-128,-89,116,43,24,44,-32,22
1490227554084,-4,43,61,32,-47,-15,-27,-61,127,112,-48,-55,-30,22,102,-26
1490227554133,-37,-26,-83,-39,103,-22,-25,19,-122,-2,59,-52,41,51,-6,-3
1490227554135,93,-41,127,74,46,-8,77,-12,127,18,11,127,127,53,-113,-5
1490227554182,-43,58,-66,18,-117,-128,-86,-44,-24,0,22,-128,-93,-128,85,-21
1490227554231,46,-114,-49,-116,-117,-47,32,61,127,-44,46,1,-60,-16,47,-27
1490227554279,-77,25,79,-128,-128,-12,67,13,-25,-11,-61,2,-66,106,13,49
1490227554327,-31,-4,127,-118,111,83,-95,-5,-105,-15,-124,-110,90,123,-53,0
1490227554329,-127,111,62,109,97,-40,19,2,-48,127,127,-19,8,-11,-23,17
1490227554377,34,127,127,69,-49,113,-128,-70,-73,127,117,127,-97,118,-114,-93
1490227554426,-21,-101,-93,-20,-42,-42,-1,16,21,-70,-105,-90,-56,10,19,14
1490227554474,122,127,-80,-69,127,60,-128,-78,127,127,86,115,-82,39,-77,-53
1490227554523,-60,-125,-26,-34,-94,-12,80,60,-75,-66,-122,-50,-16,-27,-36,20
1490227554571,-118,-96,-25,44,-32,-108,117,58,-48,-94,109,53,24,-24,30,31
1490227554573,-128,-128,3,13,-12,-46,59,14,-109,80,28,7,33,26,-36,17
1490227554620,-94,-52,127,30,-2,-50,37,29,-38,-126,122,-27,-4,24,13,-17
1490227554669,-35,-43,56,-1,-2,6,-40,-32,86,51,40,10,12,-4,42,7
1490227554718,76,-1,-27,-20,-8,-2,8,-17,31,14,13,4,-13,20,-11,6
1490227554767,7,-25,2,21,-24,-6,8,-32,47,-5,-47,-60,-26,-5,-7,-27
1490227554815,63,50,-33,-80,-10,-1,-8,24,-110,-42,-77,12,-6,19,-42,-41
1490227554816,27,7,-74,-52,-6,-27,29,47,62,2,22,3,-14,60,-86,-12
1490227554864,74,46,2,52,1,4,11,-8,-50,-11,69,-91,-2,36,-43,68
1490227554913,127,28,10,-66,-13,-24,-24,-48,-19,26,11,51,35,-12,68,45
1490227554962,127,-10,-95,-46,-11,76,-54,127,-127,-72,70,50,22,-31,66,-74
1490227555010,-128,-108,76,79,0,-63,35,-42,127,87,71,31,25,4,37,86
1490227555012,-10,-80,-119,21,11,45,-69,33,-115,114,9,-102,-18,-36,90,-29
1490227555059,-82,-45,-128,-31,-41,-2,-45,-22,127,31,-122,-71,-13,-24,53,95
1490227555108,-44,44,-56,-60,-39,-38,20,-121,22,-63,16,31,-2,-46,3,-27
1490227555204,59,77,-35,5,-6,55,-11,53,68,11,1,32,9,68,-22,21
1490227555206,82,64,93,127,47,4,13,-4,-20,-68,-9,76,15,55,-77,50
1490227555253,92,17,51,-67,-13,11,-20,59,-88,73,-58,0,3,18,4,79
1490227555255,68,120,-102,-44,-13,-70,-6,-128,70,-39,86,-62,-39,8,-52,70
1490227555303,60,-14,84,80,66,34,-58,-36,-128,-19,59,59,9,22,31,48
1490227555352,-128,-95,-128,-18,-29,-46,3,-13,-60,-13,37,-128,-39,-12,11,-74
1490227555400,-11,56,87,107,19,17,27,70,58,12,-59,-32,-2,-19,-5,-50
1490227555449,-81,25,-73,-10,-38,-59,8,-27,-17,-69,80,37,36,-33,-2,15
1490227555455,-35,-121,-126,-96,-74,-77,50,-28,-20,-63,58,0,12,66,40,18
1490227555498,-13,-8,126,14,61,27,-27,26,105,2,-128,-128,-17,-58,-42,13
1490227555547,-5,112,16,-19,19,17,-39,35,-44,17,107,46,32,-41,43,-18
1490227555596,-56,-128,0,-20,-19,-4,-40,-29,35,88,-4,-16,16,6,8,30
1490227555644,-30,-40,81,38,9,-23,25,58,33,-79,33,13,-18,22,-2,-6
1490227555692,-12,-87,-78,-58,-34,-31,0,-11,-25,-90,-7,42,-31,14,-4,-7
1490227555694,51,5,-6,23,28,5,-40,-25,30,-94,2,-7,-11,76,-8,-9
1490227555741,-58,20,-5,-13,-23,-29,-4,7,-18,23,79,50,67,-32,-40,-1
1490227555790,81,27,8,14,0,72,-20,-9,60,-6,-114,-45,-3,46,-60,-3
1490227555839,-17,-16,5,-23,-46,34,37,-12,85,-127,-13,1,31,64,16,0
1490227555888,14,-31,-35,-19,102,7,69,-3,81,-5,98,68,-20,17,-27,26
1490227555936,-43,-28,-58,-26,-76,90,-14,-11,-29,-54,-84,-4,122,78,26,0
1490227555937,-47,36,-32,7,9,-9,-10,-7,-76,45,-128,11,-1,-52,26,-6
1490227555985,5,32,127,-35,-43,34,23,-15,9,23,44,6,118,-29,31,31
1490227556034,59,-85,-17,-26,-62,41,-101,-39,56,-101,-95,-40,-118,88,74,-47
1490227556083,-104,80,-110,9,-118,-4,124,69,108,34,-32,-58,36,26,127,92
1490227556131,-65,-128,-128,3,122,78,-29,-119,-69,12,-115,7,-57,-67,83,1
1490227556133,94,-46,104,-32,5,-71,26,-128,119,-66,127,6,-15,-18,-100,-128
1490227556181,-84,30,80,-116,-40,1,43,35,-18,-11,47,-72,94,2,-80,-58
1490227556229,-105,95,-30,33,-1,0,-26,110,31,66,-5,2,41,6,-15,91
1490227556278,60,-12,-14,-32,0,3,-64,-30,-9,-31,-18,-15,-5,2,91,43
1490227556327,73,-28,-17,-4,18,-2,39,-22,22,-23,-13,-11,-46,5,50,14
1490227556375,-128,9,3,16,26,8,21,-64,-27,1,-4,-1,33,-2,-95,-71
1490227556377,-33,-7,-7,-19,9,-13,4,-8,-30,-6,4,6,-15,-8,2,-41
1490227556426,-28,-13,8,24,29,3,-89,-56,42,9,-4,-6,-41,4,44,10
1490227556473,-30,9,-4,4,1,-2,-5,-20,9,-13,1,-6,5,-3,-6,16
1490227556522,-1,14,1,-24,-6,14,-11,6,9,0,5,0,26,20,-21,-29
1490227556571,-34,-29,-8,108,-5,30,-3,-25,-1,9,14,84,-1,22,5,-28
1490227556619,-18,-52,-28,-66,26,-10,-5,-26,31,76,-12,-4,-3,-1,1,7
1490227556620,57,12,15,14,-42,-21,10,34,13,1,30,-26,-13,-2,19,46
1490227556668,-65,7,-63,-64,-8,-11,3,-44,52,-40,-55,-33,-22,-44,-98,-76
1490227556717,26,68,71,97,-15,-10,-75,7,-92,12,-68,-34,1,6,43,-54
1490227556766,-10,-21,-102,-83,-6,-2,-36,-32,8,3,13,-75,-30,-33,-14,9
1490227556814,37,15,6,-53,-7,2,36,51,113,80,49,93,36,35,51,73
1490227556817,-71,79,-95,-37,-33,26,56,28,-2,84,127,56,-24,12,13,48
1490227556863,102,23,118,50,-43,-17,-81,-69,0,56,-99,-32,89,12,32,-4
1490227556912,-126,10,91,24,-70,5,-7,25,39,49,-9,32,-80,-3,-29,-9
1490227556961,81,-15,-106,-128,-7,-35,20,78,-128,36,-22,-112,-94,20,64,11
1490227557009,97,-8,-52,-92,93,-3,-7,-69,87,39,80,-128,-95,-43,-24,-17
1490227557057,25,110,-71,127,127,31,-79,-85,-128,-128,74,43,127,21,-128,-118
1490227557059,127,-60,22,44,-128,-89,30,-31,39,-63,-24,-94,79,-35,6,24
1490227557107,-93,-65,36,-76,127,12,-15,20,-75,-17,22,-102,5,77,-8,-26
1490227557155,127,41,-80,87,86,-32,39,72,-128,2,-68,50,125,-43,118,70
1490227557204,-108,-7,127,116,84,18,-106,-112,-22,98,125,66,124,-29,-73,-91
1490227557302,117,19,45,-106,36,7,120,127,127,-82,-4,-128,76,-8,127,127
1490227557307,127,50,-118,-101,-99,23,59,24,6,-80,-102,-118,-128,-81,112,53
1490227557315,-49,41,-118,34,-82,-10,26,20,109,36,-87,90,-128,-22,85,111
1490227557354,-128,45,127,127,127,64,-128,-128,35,125,22,-1,127,41,-80,-106
1490227557399,-58,-97,15,5,-11,-5,30,22,-20,-43,34,-14,26,-16,-20,22
1490227557448,88,-26,97,-7,15,19,-4,26,47,-96,107,-3,33,-3,20,4
1490227557496,-61,-34,-62,31,5,-11,-17,4,-49,53,13,32,15,-12,28,-2
1490227557497,19,-4,31,-19,-6,10,9,15,-44,13,1,-27,-4,-3,-2,-19
1490227557545,-25,-16,5,15,5,-4,-8,-18,-68,7,7,-13,-7,-3,-13,-11
1490227557594,-72,16,17,13,20,3,-23,-11,127,54,-40,-5,2,4,69,-1
1490227557643,-47,-21,-12,42,9,-5,45,31,-23,4,-29,0,9,2,-76,11
1490227557692,-66,-10,14,-23,1,-3,43,-13,-24,-13,-19,15,-5,-4,-27,-24
1490227557740,-48,-61,-34,58,20,-3,-18,-66,96,0,118,14,-5,2,3,40
1490227557742,127,-46,-48,-110,-22,6,-43,-23,20,43,-105,-4,-11,2,21,-16
1490227557789,126,-3,-6,-32,-11,-17,6,10,4,11,-23,7,-3,-8,5,26
1490227557838,7,39,107,-65,8,9,43,-58,114,64,-50,-35,-33,7,-60,86
1490227557887,16,-21,63,-30,-5,28,19,64,-82,35,8,-18,-4,-11,-15,-80
1490227557936,45,65,76,62,0,5,-32,108,98,-79,31,19,-3,-20,-31,52
1490227557984,67,112,-98,-26,-46,-1,-84,54,-70,-107,54,6,37,8,87,4
1490227557985,101,46,-45,-128,-10,-21,-71,-49,63,-15,18,37,2,2,95,98
1490227558034,-64,16,36,23,16,2,12,24,-12,-15,-124,12,3,2,48,-57
1490227558082,-128,71,-59,62,-19,-9,-126,-117,35,-110,-128,-115,-55,-23,57,1
1490227558131,-128,-16,-39,-15,-12,7,93,18,65,127,26,11,-8,3,-71,-17
1490227558227,-128,-30,39,-14,-22,-11,66,-10,124,127,-42,-23,-13,-1,-101,-60
1490227558232,-39,24,-18,-24,19,-1,-3,-24,58,-38,107,-12,8,23,20,-30
1490227558233,-74,-116,-58,51,28,-1,17,-44,68,121,-22,-94,-66,-39,-92,-36
1490227558277,98,-12,52,35,-38,-2,-65,21,-126,-44,57,-25,8,34,64,24
1490227558327,-106,-83,67,52,35,-29,43,-29,39,15,-54,6,46,-5,-27,-39
1490227558374,16,107,39,-3,55,28,-52,-21,37,92,-60,7,-70,-21,-9,0
1490227558422,79,49,74,17,-11,-41,-29,-15,50,-68,-46,-73,-13,24,-39,-7
1490227558424,-28,103,-98,18,-30,18,59,-26,-31,-71,36,90,27,-21,30,-37
1490227558472,-25,-107,-128,-128,-14,60,61,27,45,56,69,-29,21,-62,35,45
1490227558520,-80,-60,-90,41,10,-33,-46,-54,19,1,90,-63,10,4,15,25
1490227558570,59,55,55,17,59,3,-43,-24,19,41,86,96,10,2,-26,13
1490227558617,-73,-76,-35,61,-46,12,66,-26,34,-28,-48,-122,-7,9,44,-5
1490227558619,-20,-90,-84,-49,-4,-16,12,16,-45,22,25,70,41,37,40,8
1490227558667,54,90,68,-17,-13,-29,-76,17,61,8,7,55,-65,18,-3,29
1490227558716,-63,-4,-99,-13,-7,-12,-30,-86,98,-88,-126,-113,18,37,69,21
1490227558765,-52,6,24,36,93,-2,-82,-21,3,17,23,-79,8,-13,47,-20
1490227558813,-16,39,51,31,43,-29,26,-3,10,14,2,-14,-49,-15,16,36
1490227558861,40,107,35,29,22,-74,-6,16,18,127,18,-38,-18,-54,-45,11
1490227558863,56,1,7,-5,-23,-32,19,-15,-27,27,74,79,37,2,-4,-23
1490227558910,30,-23,-63,-19,-16,-105,-1,15,-39,-128,-96,-57,-44,-31,-2,-22
1490227558960,-39,54,-66,-35,43,-8,81,3,24,91,83,-4,-26,-123,-19,11
1490227559008,49,-41,-84,-105,30,-6,9,-12,35,-3,-39,103,106,-78,-26,-9
1490227559057,127,9,67,47,2,-58,10,-27,93,61,5,1,11,28,-25,-22
1490227559105,-87,69,104,-31,-34,96,24,32,-93,118,126,58,-11,39,-18,-25
1490227559106,-103,-6,-110,48,-117,41,-55,-94,-113,-38,2,56,-14,39,-26,-44
1490227559157,11,49,115,-56,94,35,-77,-40,22,111,127,-81,-116,12,32,17
1490227559203,-47,-128,-98,-123,86,-84,-22,-46,-114,-81,-104,-79,-6,-54,31,-36
1490227559252,44,5,127,33,6,2,25,82,36,-125,118,10,-38,-31,-34,40
1490227559299,68,127,7,-24,-97,5,24,34,-56,119,-3,-4,20,-20,53,76
1490227559301,18,-14,-14,-9,-13,10,32,-43,17,8,-4,23,63,-7,-8,-78
1490227559349,79,2,-14,-11,15,10,-15,-18,24,-6,5,-6,-22,-6,-53,-28
1490227559398,2,7,13,20,38,-9,-86,-29,4,10,5,1,-82,-5,29,30
1490227559447,-7,-24,-7,-6,1,-7,19,22,12,-22,-7,-4,3,-5,26,22
1490227559495,-18,-22,-8,1,23,3,33,31,22,-3,-1,-6,-11,-11,-7,-5
1490227559544,-118,-81,-3,21,53,8,8,5,100,-2,-10,-11,-13,6,42,-16
1490227559545,-28,-37,-8,0,35,19,6,-8,-30,-15,-4,-7,13,-14,-16,-6
1490227559593,83,21,9,-3,-29,-34,7,9,-3,52,-6,0,20,-20,39,-23
1490227559642,-49,-36,24,18,-5,41,-5,39,79,-11,-44,-41,-1,-13,15,15
1490227559691,-27,31,18,29,35,-72,12,-60,0,35,30,-5,8,33,-38,-25
1490227559739,-2,46,12,29,-3,53,-20,-15,-26,-20,13,8,-5,-16,30,-27
1490227559787,-15,-90,-23,-16,19,11,-47,-75,46,-13,-28,0,-1,29,25,34
1490227559789,-81,-56,7,-16,76,-5,31,-8,71,70,-43,-16,13,5,7,-3
1490227559837,38,25,60,0,-18,10,36,-26,10,58,-27,-43,-73,23,-9,36
1490227559885,29,54,58,56,36,92,19,-85,-50,15,21,1,36,-84,-50,-31
1490227559935,127,10,-87,-69,-29,-29,-42,46,-46,-128,-23,-7,19,54,20,-55
1490227559983,71,127,75,11,18,-4,18,8,127,94,-46,31,-84,0,-79,64
1490227559985,-48,127,-9,55,22,102,8,-62,-65,96,-64,-40,-71,120,62,39
1490227560079,-34,23,-46,48,11,-4,46,44,121,39,49,-14,41,-9,-45,-18
1490227560081,-91,38,43,12,7,31,69,23,4,23,-106,-2,26,3,4,23
1490227560129,127,-5,51,57,-7,-39,4,77,9,10,-4,49,-13,-18,-41,-23
1490227560178,-28,50,-80,59,23,22,10,-18,38,30,68,31,-20,7,26,21
1490227560226,112,-17,20,-24,-11,-15,-5,56,-80,26,91,77,14,-19,23,11
1490227560227,60,100,24,-21,-7,-52,-35,11,52,70,9,-35,-23,-6,29,-34
1490227560275,27,38,-94,-40,-30,-22,-15,2,-121,-33,4,64,36,-15,36,10
1490227560324,78,11,123,88,13,-1,3,45,-56,29,-101,-80,-38,-57,-23,-19
1490227560373,109,-3,-13,-9,-65,-22,-60,-16,-81,-10,-74,-50,-17,-13,23,18
1490227560421,24,-3,125,-46,-44,0,38,-8,95,3,-35,-8,108,-1,-6,-31
1490227560519,43,127,-41,65,127,17,-21,16,112,72,8,-48,-44,0,-54,-35
1490227560523,-63,-82,46,127,49,17,-4,-51,-50,16,-84,123,115,50,-30,-63
1490227560529,-42,-41,-3,-16,-128,-1,2,2,37,47,8,-62,-128,1,-24,-5
1490227560570,121,-99,-128,-78,-72,-44,75,103,47,30,-64,86,-128,-38,127,126
1490227560617,96,-13,-127,-104,94,-42,9,-43,100,-50,-82,-128,-18,-33,64,29
1490227560664,7,21,127,86,68,49,-92,8,-128,122,106,122,108,20,-74,-93
1490227560666,-118,-106,-128,-39,-85,-30,111,118,-101,-112,-63,-58,-24,1,16,60
1490227560714,-67,107,106,-104,126,74,-101,-88,-105,50,127,-128,-44,32,-102,-97
1490227560763,113,111,-128,-116,-94,1,-58,-79,127,35,-128,-35,-44,3,-32,-10
1490227560812,12,-6,95,21,-21,2,-4,11,-37,35,-7,65,5,-11,7,-5
1490227560860,100,-14,-16,-38,-26,-13,38,-21,-19,7,-2,-8,4,2,-7,8
1490227560909,16,-43,-14,127,-5,-3,-19,-45,118,55,-18,-68,-14,-4,33,21
1490227560910,-20,40,35,-33,3,-8,-35,-10,-33,-8,-41,60,-9,6,-33,-55
1490227560958,-18,28,16,-128,-9,5,-25,-15,-72,-23,17,39,26,-18,40,-27
1490227561007,-76,-23,97,96,26,-1,-11,36,0,-20,-107,73,-12,0,-70,59
1490227561055,39,70,50,-61,-42,2,32,65,-63,-51,-38,53,51,-30,7,-89
1490227561152,78,22,-42,85,-11,-20,-44,-48,11,-29,-100,-100,-31,14,8,38
1490227561201,-4,29,44,-58,11,-23,-84,-51,8,112,61,36,2,35,61,69
1490227561201,76,121,-83,21,-72,15,-80,13,-116,-128,-26,14,19,-48,90,-55
1490227561203,-117,-128,-69,1,34,-2,11,-12,33,33,34,-53,-9,-15,26,-63
1490227561250,-80,63,-45,-63,-2,-20,-71,-104,-80,-79,36,-46,33,-11,62,127
1490227561299,127,78,14,-75,-14,24,19,114,-46,-83,31,35,8,-4,33,-109
1490227561347,26,69,-31,-93,-17,8,-65,7,-108,-21,75,90,70,16,78,80
1490227561348,-126,7,-20,105,-52,-22,-1,-106,19,80,-85,-110,25,24,26,-19
1490227561397,-105,-44,79,96,22,12,-10,-40,72,-34,-22,-72,-60,30,-89,50
1490227561446,-76,-99,-17,37,27,-18,31,22,61,78,-25,58,-6,-24,-19,59
1490227561494,97,-24,28,-73,27,-15,48,11,-13,87,127,36,28,4,-1,-34
1490227561543,-117,-126,-121,-10,2,12,-4,-109,28,14,42,64,9,-13,-48,106
1490227561591,-90,70,-23,44,16,0,35,-70,127,-114,59,-42,-13,5,-15,32
1490227561593,31,4,66,54,17,-8,52,-54,50,82,-72,-5,-23,9,-41,26
1490227561640,19,41,29,22,-19,-20,-63,-41,54,48,-98,-58,-11,-19,29,59
1490227561696,30,-51,0,-30,-12,20,60,65,-67,-42,66,34,30,13,-13,-55
1490227561738,16,-40,46,-7,-26,19,9,-24,9,-67,50,27,89,-3,-41,-32
1490227561786,2,110,23,18,46,-5,1,-10,76,32,-48,-29,-74,-22,-26,19
1490227561788,-3,-41,-5,8,36,-33,26,5,-5,13,13,13,-18,-7,15,-17
1490227561835,-7,8,9,23,-15,24,-98,-3,38,-17,-52,-39,39,12,7,9
1490227561884,-30,-67,-5,0,-35,-13,64,-40,23,-73,-68,-40,37,-35,-12,26
1490227561981,13,27,30,-39,26,32,37,8,2,-12,9,1,2,-70,-6,3
1490227561983,30,-3,-14,97,75,5,28,10,21,-11,19,51,-5,-122,-12,4
1490227562030,-94,87,48,12,-18,-81,-51,-6,21,56,68,-19,27,-20,-3,-32
1490227562078,-105,-3,-55,29,104,98,22,20,83,17,-100,34,-90,66,5,19
1490227562080,-42,-13,61,-50,67,-81,77,4,-33,-11,41,20,26,-60,-12,37
1490227562128,127,61,-75,-16,63,81,-1,-21,23,-128,-95,-20,41,78,-37,-29
1490227562177,-91,-128,-128,-121,-71,11,-56,-34,-40,22,65,-79,-81,-23,-32,-33
1490227562225,4,-109,104,0,18,-28,-29,-24,1,-17,84,86,-3,-70,-56,-6
1490227562273,10,95,-53,54,-99,-78,-8,65,115,25,-128,-68,127,43,-12,-27
1490227562275,-76,-7,-128,-106,-80,-22,2,-84,-118,15,-116,-110,-92,31,31,-52
1490227562323,-10,54,127,30,-45,4,-71,102,13,26,110,42,53,12,88,51
1490227562372,-20,-32,-124,-90,-124,-2,117,38,38,-44,-111,-21,-127,-7,84,45
1490227562420,-79,127,96,127,-128,-10,-55,-42,-37,114,106,116,-125,1,-18,96
1490227562468,23,-17,-77,-55,-54,-16,6,48,13,-9,-32,-50,-47,8,-12,14
1490227562470,21,1,-12,-6,-18,-1,-11,23,-12,-7,-10,-8,-24,-5,-5,59
1490227562518,-24,-16,-17,-28,-48,8,6,-75,-21,5,6,2,-14,-1,-5,-80
1490227562568,-4,0,-3,12,33,-2,6,-15,-12,14,3,9,50,1,2,-38
1490227562615,-4,23,-1,12,22,-5,-38,-37,34,3,-3,-18,6,3,-18,78
1490227562664,-24,-16,15,26,60,6,-8,-50,-15,-30,-17,-8,-16,0,11,-16
1490227562713,-23,-35,-4,4,0,4,35,24,41,16,-3,-2,-2,2,20,-3
1490227562716,-53,5,31,16,16,1,-21,-26,4,-28,-13,-2,-5,4,1,-11
1490227562762,8,55,11,-13,-26,-1,-14,16,16,48,56,33,9,14,4,-11
1490227562811,-9,-87,-30,1,-2,-3,-39,21,-3,-71,34,89,57,-4,24,36
1490227562859,10,-74,-25,-99,-33,-44,3,-25,23,-73,30,48,-68,-38,-3,-10
1490227562908,-53,58,127,127,15,-59,-21,-52,17,68,-128,25,-12,-35,49,2
1490227562956,-11,-31,-99,-23,110,124,69,62,52,-54,101,-3,74,72,59,104
1490227562958,-54,-86,-42,-87,-59,-20,-44,-34,-60,-19,-83,-54,-82,2,-16,-63
1490227563005,-92,-105,57,24,-13,-18,-15,-37,21,-51,-38,-87,-114,-24,-49,-24
1490227563054,17,98,-19,37,-9,3,-10,-23,-35,-34,-15,7,41,-12,-11,-37
1490227563103,-62,12,65,6,6,11,11,-61,22,5,-13,8,-16,-4,-47,-35
1490227563199,107,-4,-5,-74,-118,-63,14,-32,119,-66,84,-94,-106,-50,23,43
1490227563248,-58,-8,111,-8,127,-70,-56,-31,-8,15,-98,0,19,-106,43,-20
1490227563250,54,-12,54,-18,-108,14,-15,12,87,50,45,-27,-125,22,44,-21
1490227563253,-55,-19,-43,-90,-106,26,21,42,29,-120,50,94,68,63,-35,-31
1490227563298,-115,127,127,74,-128,-64,-56,-68,-128,107,-81,58,-67,-81,-26,-128
1490227563347,-89,-87,-78,-80,2,8,25,11,-110,-111,126,-31,-128,-2,20,30
1490227563395,-119,-102,121,10,-45,-68,-12,127,-121,-98,-122,-46,43,-121,-47,69
1490227563396,127,127,84,-96,99,47,15,-115,-99,7,81,-57,24,-15,6,-6
1490227563444,38,-108,-127,-84,117,36,18,64,56,16,-94,-38,-96,-12,16,113
1490227563493,23,-97,96,108,62,16,-18,37,3,-80,127,127,74,67,9,-45
1490227563543,-89,-89,-128,-11,-98,-71,9,98,-128,-124,-121,-91,-38,-51,1,127
1490227563591,-117,127,-124,127,78,91,30,-128,-128,52,-6,115,127,79,12,-72
1490227563638,-123,-106,-101,-21,55,-46,-28,123,-128,-89,-128,29,-7,31,-4,55
1490227563643,-128,-127,-83,118,-99,100,21,-104,91,-84,-88,-121,-88,116,56,-114
1490227563688,-48,-128,79,-3,17,-13,-22,47,-23,-38,-60,21,63,-1,-16,63
1490227563737,-107,-70,82,103,118,-40,-39,105,65,76,2,-109,-4,74,-3,-102
1490227563786,-51,122,-108,-92,-99,-63,8,70,-128,120,-94,-7,45,-62,-27,127
1490227563833,43,-37,-9,50,15,24,28,-24,20,4,-5,-8,34,8,33,-12
1490227563835,15,-19,13,18,-73,-2,6,-22,83,53,-9,-75,-60,7,-20,13
1490227563883,97,-63,-84,-66,-14,-3,-32,-20,-45,14,67,68,21,0,14,47
1490227563932,112,98,70,-64,-19,11,2,32,3,-49,58,39,-3,2,-1,-22
1490227563981,93,23,-5,-62,-56,15,-26,-5,-35,-6,-55,59,-24,1,24,-26
1490227564029,60,20,-40,-61,0,-14,-15,-65,-128,55,7,-49,14,-1,-3,-1
1490227564077,28,62,-34,98,-6,20,29,81,20,-64,-34,8,22,-13,-17,-52
1490227564078,-37,54,-3,82,-2,5,14,21,-24,-61,35,37,30,-5,9,-24
1490227564126,35,-128,-87,-102,-76,18,10,92,-90,127,-72,-13,21,-13,-36,-107
1490227564175,-28,-5,-80,-49,80,-32,-23,-4,-73,13,61,57,42,-5,-23,-70
1490227564224,-105,112,127,100,13,38,15,48,-28,-128,-33,68,81,-39,14,-41
1490227564272,-93,-88,-89,79,-39,1,26,101,76,-57,-76,14,43,-15,35,-28
1490227564273,-36,127,127,19,-25,38,-72,-128,39,37,-128,48,-83,23,27,25
1490227564324,61,4,-62,53,54,-42,-6,-49,30,39,108,-63,-91,41,-6,36
1490227564371,-94,-115,54,63,1,-20,6,107,-49,60,41,49,-20,0,-23,-68
1490227564425,45,-91,-89,-27,-126,17,-12,-2,127,65,-62,-88,-44,-1,5,23
1490227564468,-71,-32,-84,-60,39,-14,46,-48,87,-27,6,-76,-69,19,112,89
1490227564516,17,-128,-96,-20,-2,-33,-22,-91,35,92,63,-106,25,-14,-27,22
1490227564517,127,68,127,37,-80,18,-21,103,14,-128,48,54,0,5,-49,-60
1490227564565,85,127,-28,-47,-28,17,-32,127,-111,-128,8,89,32,-13,54,-45
1490227564614,-119,-97,-72,-10,54,-11,36,-31,3,84,28,-10,-17,14,-23,17
1490227564663,-83,103,127,74,72,2,21,77,1,-69,-128,36,-15,-14,-43,-94
1490227564712,-89,122,-39,-38,-80,121,7,4,20,18,37,43,29,36,10,12
1490227564760,34,-117,-77,-20,30,-26,14,10,-43,-128,-128,69,-10,-16,-8,59
1490227564761,55,36,79,30,-19,14,-8,66,63,3,-21,-32,54,-7,-18,-2
1490227564809,20,31,-90,26,-5,0,-2,20,-26,-67,-71,-38,-25,-18,-3,-24
1490227564858,-22,-9,-73,-1,7,6,-17,21,-68,-112,-45,17,37,-19,51,26
1490227564907,85,75,97,-3,-27,24,15,19,-128,-81,-82,-25,-40,-32,27,-76
1490227564955,55,-56,95,69,-1,5,-32,10,-87,41,114,41,69,8,-38,-98
1490227564956,-128,-74,-128,-49,-53,3,26,-38,24,5,39,-24,16,34,6,1
1490227565004,97,63,96,-57,4,17,-11,-40,127,-11,-128,-85,-64,-21,-33,32
1490227565053,-47,-1,-67,-24,-82,76,27,-30,-128,-30,-2,59,68,39,12,-55
1490227565149,-128,-5,13,63,29,120,-39,2,89,54,6,-17,-57,127,15,67
1490227565151,39,-106,-9,-88,-25,113,-27,7,48,1,11,-21,64,126,29,59
1490227565198,105,-12,-8,-23,41,-15,38,-1,17,15,86,12,-6,-70,-58,-11
1490227565199,48,31,94,62,27,-25,69,-91,40,45,61,75,83,-60,70,50
1490227565248,-17,-22,125,48,119,-94,55,54,-22,53,127,19,112,-58,37,77
1490227565296,12,-85,-128,-52,-65,51,-65,-95,-87,-90,-111,-66,115,12,100,-104
1490227565345,-97,-60,64,-10,-115,3,-122,-5,-11,-108,47,-48,31,5,56,-80
1490227565394,36,76,127,81,-71,7,-2,83,-81,-10,76,5,-128,20,-56,45
1490227565442,-12,117,-14,-23,85,4,29,14,-2,58,56,-13,8,9,-18,19
1490227565443,84,-9,-128,-10,-28,-9,-16,-61,12,-110,-101,-12,34,-18,-17,-106
1490227565492,-38,26,93,-128,-36,41,-6,-33,19,97,127,-85,-104,38,75,-59
1490227565540,43,44,-55,65,-35,1,-11,4,30,-24,-75,95,119,-5,-2,-58
1490227565589,63,110,117,127,54,2,52,119,67,61,33,25,96,2,56,127
1490227565637,-32,-13,-24,1,-27,-1,-5,-35,5,-13,-20,-35,-5,-4,10,8
1490227565638,2,-29,-6,-33,-63,-2,3,-8,5,12,5,19,37,-1,-55,-71
1490227565687,-13,-13,-4,9,-6,0,-15,-48,-5,-43,-2,-6,1,3,-13,-49
1490227565735,-3,-6,2,-2,6,-4,7,-5,-51,-9,5,21,11,1,14,-9
1490227565784,7,-2,-3,11,13,0,-4,3,-43,-30,-20,17,28,1,-14,-12
1490227565833,29,87,41,8,-32,-7,-35,-22,-35,9,8,17,27,-4,39,36
1490227565883,-3,48,-21,-29,-8,-3,2,24,-10,6,-14,-20,-7,11,-4,-44
1490227565884,-7,23,34,30,-2,-1,-23,-22,49,56,21,30,-19,-1,1,13
1490227565931,-15,44,-54,5,21,1,13,-35,13,56,58,17,21,17,-12,37
1490227565979,9,-41,23,12,-31,-4,0,30,12,27,7,-6,-8,7,-1,100
1490227566028,-20,22,-39,-113,-30,-10,-3,-5,39,53,-47,-58,-11,-16,6,-30
1490227566124,-10,54,10,56,-3,4,-2,73,-4,93,-48,83,-8,-10,11,10
1490227566125,-3,97,35,-13,19,28,-9,7,-5,51,2,-62,20,10,19,-7
1490227566127,-29,11,15,76,10,9,32,24,58,-24,36,86,37,10,76,96
1490227566174,74,54,72,40,101,8,78,99,-24,-78,43,35,9,-7,5,-8
1490227566223,0,-128,-19,127,8,-4,-31,-33,-61,-103,0,-88,-5,15,21,-12
1490227566272,10,-5,-128,55,30,-9,33,28,-40,93,17,-128,30,-15,3,-57
1490227566320,127,20,-3,-102,-14,-3,-49,-53,53,27,104,-101,-6,-7,-11,-49
1490227566322,20,127,116,68,15,29,7,-2,12,55,-13,33,1,18,-49,-18
1490227566369,123,-128,50,-114,-5,-29,-30,-9,-27,-65,-81,-39,-31,-9,50,77
1490227566418,-29,108,-54,-103,38,-12,27,103,-67,86,122,-122,127,-8,-26,-57
1490227566471,7,71,-127,-79,-128,-27,-15,-42,-115,-54,-128,-19,-103,-37,-4,-6
1490227566515,20,83,-121,89,93,12,-73,-125,-30,113,-97,127,92,-36,-96,-67
1490227566563,-128,-128,74,-126,-122,-67,3,46,-78,0,95,27,-128,22,116,127
1490227566565,5,78,77,91,120,1,-106,-3,36,-126,-58,57,127,-60,-22,-49
1490227566613,-81,-41,-17,98,-119,76,52,99,8,127,-35,-112,99,57,61,125
1490227566661,115,76,-128,-35,-74,-45,-102,-110,100,97,-86,-95,-52,0,-53,-78
1490227566710,-20,11,31,-61,114,-64,-17,46,-104,-128,-91,-10,74,-91,40,82
1490227566758,107,113,-128,-70,-126,21,-95,-128,127,-60,-124,-40,26,-18,-81,-85
1490227566760,-128,-70,-49,-66,-2,11,-26,125,-123,-126,-126,-76,14,23,-25,110
1490227566808,-91,-2,127,102,81,45,59,127,-118,-78,126,7,101,127,32,62
1490227566856,127,127,-128,-11,-89,-90,-38,-93,106,99,-41,-39,-63,-71,-35,-63
1490227566905,105,-122,-77,17,0,50,-13,-10,94,-54,9,-2,-1,45,-38,-52
1490227566954,124,41,-19,-7,-93,-25,9,-75,69,127,-57,13,-62,31,-30,-69
1490227567002,-57,-123,88,0,79,1,14,28,-128,-99,43,-1,38,-2,16,8
1490227567003,-27,79,127,26,34,6,5,-16,28,81,21,-13,-28,34,-3,-29
1490227567052,73,89,37,9,81,-5,7,63,-89,127,-94,-52,45,-44,10,-44
1490227567100,16,-31,-80,-68,-128,-8,-23,-23,-81,8,25,-53,43,-69,3,66
1490227567149,40,-5,3,-24,33,7,8,14,-1,69,56,-29,-9,26,-4,-18
1490227567198,18,-34,41,17,6,-9,-6,57,-50,-50,-51,19,12,5,0,-5
1490227567294,18,80,-17,-46,-27,4,-6,-33,-12,-55,58,17,14,8,1,17
1490227567296,-30,127,95,29,-9,-2,-21,-61,19,-116,-77,4,-36,-4,-5,-28
1490227567297,-42,34,91,13,12,0,18,28,64,100,-35,-7,14,10,26,44
1490227567344,35,32,-16,10,28,20,-8,-63,106,-39,-100,-28,35,-8,7,70
1490227567393,-31,24,47,-17,3,-2,-10,-46,82,20,84,13,20,16,-6,79
1490227567441,86,16,-115,-21,-5,8,6,42,75,88,13,-30,7,-14,4,28
1490227567442,-84,-64,-97,57,-2,-18,-2,-128,-64,-83,-21,23,68,-18,14,97
1490227567490,95,96,-33,-34,-38,-4,-44,31,9,-7,-26,-3,-61,27,-66,58
1490227567539,17,-66,18,-13,-11,-11,11,29,-128,116,90,3,-29,-5,-46,-122
1490227567588,70,18,40,28,28,13,22,17,-69,69,-34,3,42,9,-26,-83
1490227567637,-20,66,50,-44,-101,15,-43,10,-57,-89,-121,64,74,-46,38,-84
1490227567684,107,111,-10,-30,-14,13,8,85,7,-70,54,26,-12,14,9,-4
1490227567686,34,88,-116,24,30,-14,-17,-85,-56,-68,-57,-20,10,-4,-31,18
1490227567734,-77,-116,18,35,6,4,-4,-47,25,127,117,-42,-45,8,-30,-31
1490227567783,-128,-128,-95,-24,19,-30,-31,-60,83,36,86,8,31,7,18,46
1490227567832,54,74,-3,8,22,0,-29,10,-83,73,-58,-38,-94,8,-6,46
1490227567880,-33,-69,107,11,66,-5,82,50,89,127,-28,-56,-40,4,-5,-55
1490227567928,90,64,107,-19,23,26,-22,79,-79,-21,-17,32,19,7,-31,-9
1490227567929,85,-97,2,7,33,18,-11,97,26,-60,31,-25,-32,-2,18,-4
1490227567978,30,25,-13,124,-3,-26,5,56,-102,-57,127,24,26,5,56,-37
1490227568026,97,-44,-75,-35,-46,16,-3,29,-51,-93,-79,0,-5,-24,-6,-42
1490227568075,80,61,73,-118,3,10,-56,35,5,-35,-44,-68,0,5,-1,-10
1490227568123,-89,-92,76,61,31,-8,53,-122,83,6,-37,67,-47,9,-35,10
1490227568125,3,0,-63,34,10,-12,48,-18,27,36,127,94,-15,15,-21,24
1490227568174,-7,33,-45,5,-16,-4,-9,84,69,-76,88,1,0,14,31,71
1490227568221,1,-9,7,-19,1,18,12,-7,-25,-37,-128,2,-44,1,7,12
1490227568270,-26,-57,-125,-21,-39,-4,-38,-53,-78,-47,34,3,41,2,-1,-23
1490227568320,31,111,40,28,22,4,36,37,-19,31,58,-6,-68,-64,-18,4
1490227568369,-22,-72,-103,-9,5,37,25,0,13,-28,53,8,-29,-5,39,23
1490227568374,16,100,101,-26,-20,-15,72,20,-24,-16,-44,-76,13,-8,-14,5
1490227568417,121,15,-43,-9,-18,6,-45,-49,56,-28,-113,20,17,21,-110,-77
1490227568465,-3,-8,15,-16,16,-7,29,-34,-28,41,4,26,26,16,126,23
1490227568514,-14,96,8,-8,-79,11,-53,-16,110,-48,-61,12,16,-36,-23,-43
1490227568563,11,-31,10,-17,3,15,29,11,-1,-10,54,33,-27,-51,-8,29
1490227568611,62,15,-31,19,27,1,-115,-19,33,18,-39,-13,-28,15,38,-4
1490227568613,101,61,-128,-9,-22,-3,-17,-18,0,-29,7,-5,110,11,-66,-31
1490227568660,66,-101,3,-6,-59,-1,97,71,-46,-87,-47,6,-76,1,54,-89
1490227568709,-90,127,36,-16,-128,-2,14,-43,74,127,125,23,-34,3,106,-28
1490227568758,-77,3,88,71,15,3,-1,50,-24,-41,63,46,-38,-1,-22,102
1490227568806,127,-98,-95,0,24,1,127,25,70,41,-98,-80,-49,-1,28,11
1490227568807,-9,21,-37,-1,56,2,-113,-5,9,-112,-109,-89,-82,0,-118,-20
1490227568855,79,93,90,-128,-9,-5,49,-22,-59,113,29,-71,61,-8,-49,63
1490227568905,-18,17,127,102,-81,4,111,14,11,2,127,116,-49,2,94,79
1490227568953,-37,7,-31,-34,0,4,-64,-55,2,43,-20,-1,13,1,-9,9
1490227569049,-11,1,-13,-20,21,3,31,19,-27,3,-13,-54,-111,3,20,12
1490227569051,-22,-20,3,-3,-24,1,19,-3,4,-17,-9,24,37,-8,-8,1
1490227569052,-19,-33,-5,6,25,-2,8,-27,9,15,3,-16,-18,-2,-25,-18
1490227569147,5,23,-1,-15,13,5,-8,-19,3,-9,-12,-40,-9,-3,12,7
1490227569148,6,-28,-5,-15,17,-1,-16,-10,-38,-128,-8,3,0,-2,-18,-25
1490227569197,32,38,15,-2,23,-2,-6,-14,35,-59,-9,-10,-12,1,4,51
1490227569245,1,9,-12,-6,-11,-3,-7,-3,-19,-37,-25,-1,-22,-3,26,3
1490227569294,9,-14,35,-29,-36,-5,-9,10,16,-92,71,7,18,5,-44,9
1490227569344,-55,-47,15,22,14,-23,28,-31,-33,23,28,13,11,-65,-32,-31
1490227569346,3,46,91,121,19,92,-23,24,9,127,18,127,43,49,28,59
1490227569392,37,-128,-74,-73,4,-74,19,-52,-16,-128,-76,48,-15,-76,-31,18
1490227569440,50,105,-58,119,-14,-38,-8,54,44,90,41,112,31,-10,50,-20
1490227569488,-42,-49,-128,-101,27,102,109,98,36,-128,127,18,70,121,127,54
1490227569490,13,-46,-64,83,-28,29,-38,21,-24,10,-128,-51,-4,89,50,49
1490227569538,14,-128,11,4,15,-24,8,44,-35,-56,-128,3,8,-14,33,7
1490227569587,32,66,66,17,-19,21,-18,-8,23,1,-6,41,-11,-35,8,48
1490227569635,127,74,73,5,5,-11,101,-16,60,127,127,7,6,14,-4,-30
1490227569684,-106,-91,-128,-119,-10,-8,18,-43,-16,8,51,-27,82,4,7,-14
1490227569732,78,96,-30,87,-40,-3,-20,-67,122,76,-85,12,-15,-31,-1,-9
1490227569734,-70,-48,-107,55,127,74,-16,1,-79,30,42,127,75,75,-60,16
1490227569782,84,122,48,-30,-128,-44,2,25,127,-104,-57,-35,-94,-98,-43,-91
1490227569830,-16,125,127,-5,89,-76,49,79,-75,50,111,102,87,-81,73,90
1490227569879,127,12,43,-119,-55,-7,-22,10,127,27,127,-76,-111,35,27,37
1490227569927,-59,6,93,89,88,-85,-29,13,12,-91,-108,38,72,-128,-14,-25
1490227569928,-3,15,-90,-97,-128,59,15,-26,71,53,25,-60,-127,47,21,43
1490227569976,-8,106,-87,-25,5,-39,24,70,-93,-83,127,-128,-55,-15,78,123
1490227570025,127,48,118,-47,-119,-20,-4,-24,117,-92,79,-15,-35,-38,42,-49
1490227570074,117,32,26,-12,10,-8,42,-12,-40,43,-39,-16,-10,-30,-35,15
1490227570123,-122,-103,75,-39,4,22,34,113,-105,83,82,4,5,31,-9,74
1490227570171,97,-37,-125,48,-126,30,-77,-96,-38,-128,-39,43,-97,-6,-23,-116
1490227570172,-128,-97,-16,-27,12,-11,25,37,-7,-12,-80,-14,8,48,6,30
1490227570220,-33,82,103,17,37,-28,-8,53,35,-73,49,13,50,-66,0,16
1490227570269,-103,23,-32,0,-17,-10,-12,-68,-128,-106,92,2,21,-54,58,24
1490227570318,-57,-107,-118,-2,4,-1,-11,38,12,-90,75,1,-6,14,-7,24
1490227570367,114,-92,-45,5,-31,97,9,-109,127,-51,-128,-7,-113,125,-1,-128
1490227570415,-85,127,99,-8,19,-31,-8,39,-73,127,45,-7,19,-32,1,31
1490227570419,1,37,30,0,18,19,0,-2,46,4,5,-4,1,14,4,24
1490227570465,70,89,-12,-10,-3,13,8,58,-28,-30,-65,-3,-7,-12,-29,9
1490227570513,-26,-4,30,6,-5,-1,14,-55,46,99,-32,-3,0,2,0,2
1490227570562,39,-16,68,-9,-5,1,-14,-14,-68,-43,-84,27,-7,5,0,-43
1490227570610,-75,-78,-48,-65,-8,4,-5,-41,78,-20,12,-46,-10,8,20,90
1490227570612,109,102,32,-2,6,4,-77,38,-29,36,127,18,10,-1,-95,-14
1490227570659,67,-96,20,-7,-33,-6,-23,43,22,32,-10,-20,14,9,-12,42
1490227570708,25,-46,117,16,42,-3,17,-31,59,-35,-83,7,18,-8,-10,43
1490227570757,-128,-72,-30,17,7,15,-24,-55,-20,81,19,19,14,-4,-8,-44
1490227570805,14,-92,-54,-32,-33,28,-1,41,102,60,46,13,-11,21,-7,33
1490227570853,31,-36,47,43,15,7,-13,-48,42,-38,-77,-23,20,5,-19,15
1490227570854,-50,-80,-88,12,5,1,-15,-11,-66,-66,57,5,-7,-14,1,-73
1490227570903,-35,-103,20,8,27,-7,37,-8,-37,79,84,23,7,3,-4,51
1490227570952,7,69,-62,-6,-24,-46,-37,37,-24,-50,-17,-10,-5,-20,36,-51
1490227571000,127,127,38,-7,0,24,-32,-71,-108,-116,-50,-23,-25,-25,12,54
1490227571049,-43,-128,-98,-113,54,53,-65,-90,16,2,-19,-24,47,42,41,-56
1490227571097,-85,-54,-12,-23,-32,25,21,1,94,92,119,0,-12,43,-20,108
1490227571100,-9,80,71,38,-18,32,-8,18,43,-83,-77,23,-5,33,11,30
1490227571147,127,127,-33,-4,1,10,-6,90,-120,80,-31,-10,-8,3,-51,-119
1490227571203,49,104,15,69,16,-15,33,-11,1,2,-9,127,1,-17,44,-62
1490227571244,37,37,-11,-11,-11,2,-33,-19,-2,-78,63,-56,12,-11,-18,0
1490227571292,-11,-77,-49,-12,-4,-23,3,9,45,17,-38,-23,6,-5,-9,-16
1490227571294,-21,83,-43,-40,-6,-50,-44,-65,21,86,-41,3,-11,-57,-10,2
1490227571342,39,127,127,43,60,20,-28,-98,48,48,-85,16,17,51,-52,6
1490227571390,15,-54,-110,-92,17,-66,6,-12,9,52,90,-41,-41,25,-2,23
1490227571439,19,77,77,-13,19,12,34,-37,26,30,78,-34,-15,-8,17,95
1490227571488,8,20,39,42,3,-33,-40,6,53,49,-51,7,-9,55,31,15
1490227571536,-26,-70,-55,-112,-24,-63,-1,8,-15,1,-37,-90,39,-128,-35,-25
1490227571538,-3,-46,-89,-3,-44,5,-52,-12,-73,-128,-106,-107,-37,122,22,35
1490227571585,-75,-65,-72,12,25,127,-95,-65,-43,-114,-109,-112,-27,127,-49,60
1490227571649,-14,-98,-32,-6,-7,61,95,-10,45,-8,63,53,0,-123,-24,1
1490227571683,-15,92,114,26,-3,127,51,43,-89,127,-77,62,42,127,19,64
1490227571731,64,-45,34,-12,10,74,-43,-23,123,35,88,35,61,-63,11,7
1490227571779,-115,-109,-103,-44,6,-4,-31,27,36,-16,6,-17,31,101,67,15
1490227571781,-115,60,-3,-32,-50,-7,40,-121,-128,-23,-71,123,52,-67,105,98
1490227571829,27,54,-48,-5,13,61,-90,-11,-128,77,-74,-128,23,44,-97,-83
1490227571878,-75,112,102,-29,-18,-9,-41,58,-85,28,74,-19,-16,5,-100,-16
1490227571927,127,41,-14,118,20,-6,-18,31,69,9,49,5,-111,2,11,20
1490227571975,-21,113,-50,44,-12,4,-61,-31,127,-27,-42,10,66,1,-82,1
1490227571976,96,-128,58,17,-123,1,36,21,-62,-91,66,1,-85,-2,127,84
1490227572024,-51,112,-5,44,23,0,33,29,-49,9,-17,-28,-61,1,59,-4
1490227572073,-128,-13,76,-22,64,2,-32,-34,49,-50,77,-15,-44,-2,-26,4
1490227572122,-50,-26,52,9,5,1,-16,-60,-90,-39,100,92,-29,0,-8,-28
1490227572170,14,20,-17,12,32,-1,-21,-12,13,-31,-42,-73,-32,1,16,19
1490227572218,21,34,5,-19,-14,-4,-43,13,10,-9,-14,-20,-8,3,-28,-19
1490227572220,32,22,5,28,-13,-1,10,43,91,-21,-3,11,4,-2,17,5
1490227572268,-5,-7,-17,65,-17,-2,-13,17,-22,-15,-9,61,0,0,13,37
1490227572317,-49,-16,-11,-29,-18,-2,29,-5,6,24,18,-18,4,-1,-11,-1
1490227572413,-2,-31,-28,-31,-6,-2,20,21,27,-1,5,15,13,-3,-21,-6
1490227572416,38,39,51,32,-5,-30,14,-33,-2,-29,-40,6,-22,16,-33,-32
1490227572417,-38,-55,-67,-4,16,-3,50,1,10,32,-81,10,-2,-7,-7,30
1490227572463,46,94,127,23,9,110,-13,-8,102,-26,-23,8,-14,58,-17,-72
1490227572512,7,36,47,-2,-11,-120,-24,-35,-79,-24,-15,6,-3,-91,-15,-49
1490227572560,-3,71,84,37,24,-32,-44,-35,-38,-37,-110,4,7,-3,-5,-24
1490227572609,3,32,22,-20,10,41,-7,-11,2,-66,-57,0,9,-74,21,-12
1490227572657,3,-83,-21,110,1,99,4,-17,13,-54,-45,46,-2,73,-3,-44
1490227572706,-55,29,-60,-89,-3,-128,22,-1,12,127,89,-116,-10,-58,-66,14
1490227572708,2,-106,67,-128,23,-104,-47,27,17,-28,52,57,0,-77,-73,-17
1490227572756,67,-53,127,52,-20,-30,54,68,-54,-127,-122,-54,21,-17,43,43
1490227572804,65,116,76,3,-13,27,-95,-105,61,72,-76,-85,-1,37,17,10
1490227572854,-1,21,40,13,10,-69,43,63,-43,16,27,35,-11,-32,10,-14
1490227572901,7,5,-34,17,-7,41,-13,18,73,2,-20,27,5,-22,-25,11
1490227572902,19,81,-81,55,-24,-22,4,1,23,99,63,-31,0,-13,-1,-1
1490227572950,11,-3,-128,-44,-3,36,21,9,57,18,106,-85,10,-9,-3,91
1490227572999,127,75,62,-15,-6,35,-38,-6,28,-9,-21,86,2,-29,9,-60
1490227573047,127,-128,-104,-42,-7,6,3,-105,83,127,-59,-7,8,37,-25,-5
1490227573096,-52,31,-77,8,5,-32,-19,-42,-109,-127,-69,-92,10,-51,51,-3
1490227573098,-53,-106,30,-76,-33,67,-4,15,46,78,29,96,-122,28,0,127
1490227573146,-66,-60,-36,-128,43,6,43,46,-87,5,11,-128,-90,-38,9,-64
1490227573194,-18,36,61,-46,99,-118,3,10,-68,-73,-10,-43,127,-128,15,-41
1490227573243,97,50,17,54,126,28,-16,32,-39,15,21,29,-96,-8,-42,6
1490227573292,-7,-35,-27,-93,-109,-95,3,-12,79,60,76,-52,-98,-22,-8,48
1490227573340,15,127,50,24,-44,23,-8,26,-57,69,-62,-28,-21,-6,-28,-15
1490227573341,110,12,83,57,66,91,7,-24,104,-75,78,15,127,102,10,-28
1490227573389,-95,24,64,6,-106,-37,29,-33,-71,38,-5,20,-61,22,-34,-12
1490227573438,-120,-67,83,14,78,-51,10,80,-92,105,-107,-3,101,13,-16,9
1490227573487,50,50,19,-68,40,-41,1,58,-16,-66,-98,-80,-63,-73,10,74
1490227573535,66,93,31,74,-2,18,81,-50,126,95,111,127,-21,54,15,-69
1490227573583,-56,10,-126,127,-90,2,-21,1,-105,-40,18,-80,-97,14,-4,33
1490227573584,-121,13,-68,-55,-5,34,-1,-11,-83,-28,-89,0,-18,21,-7,-14
1490227573633,-119,127,9,85,48,31,0,-65,-71,127,90,89,-128,34,1,-51
1490227573681,-108,-67,-90,52,6,-28,-2,8,-74,-25,6,30,42,17,-3,-31
1490227573731,104,-8,-86,3,7,-1,-2,15,127,-89,-117,9,-13,3,0,-9
1490227573778,-111,-90,28,2,-17,-11,1,-6,-61,-34,-16,22,16,-3,1,-18
1490227573780,-51,31,42,15,3,8,1,6,-36,-10,24,3,3,2,-3,-6
1490227573828,-33,51,58,12,-1,-5,-2,60,21,-18,43,-17,14,13,-2,43
1490227573877,84,74,65,13,14,-2,-2,-51,21,-82,-93,21,7,2,1,-21
1490227573925,-46,-45,-2,5,-3,6,-24,12,-105,103,50,10,7,-30,-12,-64
1490227573974,41,67,66,-36,-3,-16,-4,7,-19,31,126,-7,-6,-8,4,-44
1490227574022,-50,-128,67,2,20,-50,8,21,59,127,-53,-17,29,29,-2,-31
1490227574024,-64,16,-128,8,-4,-43,-14,-85,-59,-128,-69,-42,-2,-17,24,-5
1490227574071,31,123,99,-30,-28,64,-6,59,43,-42,-18,46,39,-10,4,72
1490227574120,-62,-57,-55,-3,44,-1,-3,-18,127,59,90,13,23,-10,-8,80
1490227574169,81,-56,-82,-28,-4,-7,1,-71,39,-79,-82,-40,38,9,10,66
1490227574218,65,127,127,31,11,11,1,25,-32,127,122,73,-24,7,0,-100
1490227574269,-27,57,-56,48,-14,47,12,-50,61,56,-11,-52,-10,-19,6,5
1490227574271,-98,-47,-108,-77,-9,1,116,19,-95,127,97,-12,21,-51,19,-56
1490227574315,-95,25,109,0,7,15,-13,22,-21,-106,-69,-65,-2,2,-27,39
1490227574365,96,110,106,-17,-42,26,-96,32,-42,49,115,71,-14,21,-50,49
1490227574412,5,-56,29,127,-30,-74,28,8,15,-55,-98,118,-23,-35,80,41
1490227574461,-36,-106,-128,109,-35,-55,6,-105,79,72,110,127,-29,-6,31,103
1490227574462,91,73,66,-63,-2,-45,-11,73,-13,29,-63,-97,-13,-28,7,-128
1490227574511,-31,-59,2,26,-2,6,-6,25,-39,116,84,-95,-11,38,-19,-11
1490227574561,-72,-42,-128,-109,-22,-24,7,-22,-58,-55,55,-56,-4,-23,28,6
1490227574608,72,47,29,95,6,-4,-12,47,-13,-31,-89,40,-38,-5,34,33
1490227574656,17,-88,-128,10,42,14,-54,23,5,-101,-97,-106,18,2,-18,-26
1490227574704,-53,-44,-19,-108,4,9,38,13,79,90,100,-128,5,39,51,62
1490227574706,104,72,-65,2,-38,5,-36,-12,41,-16,24,-44,-21,-31,36,35
1490227574754,16,-14,-22,119,21,-9,-4,-8,-59,-100,38,87,-3,-11,30,-34
1490227574802,0,124,127,-24,-28,29,-59,28,-58,12,82,11,9,22,-124,-93
1490227574851,-52,44,69,-8,-20,2,-34,-21,57,88,-26,58,38,-15,-48,-29
1490227574900,38,17,127,-105,-30,43,-81,73,-56,-46,-56,70,41,-21,-94,-128
1490227574948,-56,-55,-128,89,9,33,-3,-14,5,47,127,27,-58,32,-19,35
1490227574949,-70,-112,35,42,13,-56,12,-41,-42,-45,-47,25,12,-125,34,0
1490227574998,-22,-57,-77,-54,-22,100,-30,-31,-3,-64,16,-67,19,97,71,-18
1490227575047,-97,-25,-58,-99,-44,-84,-76,15,-76,-1,-21,-115,-49,55,34,19
1490227575144,-124,-128,-84,-76,-14,91,3,-24,-20,65,127,-72,20,-68,47,11
1490227575148,95,-13,84,31,-8,-48,-83,54,93,-119,18,-64,-93,87,4,-62
1490227575156,-112,2,-52,75,-51,-16,-24,-7,-95,-20,-71,-18,45,-58,-22,-89
1490227575195,-25,48,47,-40,98,-5,-19,-85,-4,98,51,-32,73,-38,44,-64
1490227575241,34,72,-113,-23,20,2,-31,127,40,126,-42,71,52,-3,87,61
1490227575290,-42,-1,-90,-40,6,1,88,125,-114,-50,-128,8,2,-8,23,127
1490227575339,127,-128,61,82,-1,-6,37,86,23,-102,42,88,3,-5,47,69
1490227575387,94,-110,6,-23,-32,1,-37,-28,127,-122,49,-15,-13,-4,86,-66
1490227575388,-113,29,46,-3,2,1,66,-45,-82,23,17,-74,-11,0,92,-103
1490227575436,4,5,-19,11,-69,-4,-37,-11,14,-23,-36,-30,-83,-2,-27,-20
1490227575485,3,3,-7,107,30,-4,-22,-44,-18,12,12,79,25,1,-30,-19
1490227575534,-1,28,8,48,-22,2,-91,-23,-32,-31,-7,-3,-12,-2,-9,10
1490227575631,-49,83,-9,-61,-24,0,-75,-61,-13,69,-13,-54,-9,1,-32,59
1490227575632,27,-22,13,7,-15,7,80,-24,-18,-11,-8,-48,-31,0,-4,-37
1490227575634,-36,-12,-11,-1,13,-3,-33,-18,-1,15,-4,-1,32,-3,4,-14
1490227575682,-2,-6,32,4,2,-5,-21,-124,34,7,2,-1,-2,-2,31,-46
1490227575730,-33,21,20,12,7,-11,-1,2,-43,-3,-5,9,6,-18,-19,21
1490227575778,21,4,-17,-34,-17,98,17,16,-12,52,77,22,6,121,-16,-17
1490227575826,29,62,1,30,31,-20,-1,-3,22,-28,1,-3,-9,-37,-11,35
1490227575827,26,0,78,13,-16,106,-1,-6,27,15,0,17,-47,1,15,-17
1490227575875,-51,-45,36,-30,1,100,5,9,18,-53,-125,-38,-18,116,26,14
1490227575924,-32,37,127,34,2,6,7,-20,-5,-5,8,32,-23,117,10,-2
1490227575972,-17,-68,-127,-40,-14,77,6,-43,-34,42,2,4,9,89,-97,-30
1490227576021,45,-23,-128,-5,36,-84,-53,5,-49,-124,-62,31,-6,-91,28,38
1490227576071,-50,127,127,-48,18,-14,-55,-38,82,127,59,-102,21,8,-34,26
1490227576075,56,81,75,100,-10,-2,1,40,73,-30,-37,109,13,23,-103,-62
1490227576119,-55,-80,-84,-47,10,-58,-40,-41,-56,-106,50,127,-26,-15,53,29
1490227576168,-61,-39,-128,-108,-33,-1,1,-10,92,88,16,-101,-2,-58,-27,76
1490227576216,31,107,70,92,8,-104,-10,10,21,93,-68,-3,-14,-24,61,32
1490227576265,12,14,54,71,13,-52,-54,-39,41,-30,-127,-9,15,-60,-125,-5
1490227576266,-49,7,-16,58,3,9,33,-4,8,50,35,-68,-6,20,39,-41
1490227576314,88,14,54,-25,1,-10,1,32,64,79,73,-25,21,55,87,26
1490227576363,-108,41,-92,20,-1,-24,-40,-63,36,65,23,21,28,39,12,39
1490227576411,-14,51,17,1,-39,7,15,-95,18,-10,-112,112,-12,37,13,-14
1490227576460,55,-128,66,0,-21,-34,31,27,1,-128,101,-49,28,-24,48,-39
1490227576508,-68,127,-39,-65,-74,-33,-118,-7,31,101,-33,-128,-53,-19,-126,17
1490227576512,83,-25,-66,-37,-32,19,11,6,84,28,-43,-99,72,-19,-28,12
1490227576558,89,58,-85,-60,-88,98,-13,-3,59,47,-45,-104,-128,-17,13,-34
1490227576607,115,124,127,124,-52,-38,-20,53,-128,-95,0,122,87,-123,109,-7
1490227576655,82,59,87,-63,108,-4,-25,4,-32,95,127,-54,73,6,6,-23
1490227576704,-128,-128,-128,-107,-23,29,3,14,-88,1,48,-122,-45,-47,-6,5
1490227576752,90,70,37,-103,127,14,5,-47,94,46,71,-35,117,2,15,33
1490227576754,-89,38,-113,35,-38,-9,13,-36,57,45,-103,47,-89,51,-69,-7
1490227576803,51,70,-116,40,-24,17,-12,41,103,82,30,-37,-50,-25,3,0
1490227576850,-105,-93,-29,0,-14,-24,-1,-64,-32,-45,-52,127,65,28,11,-10
1490227576899,80,1,127,127,-65,30,-7,-1,-63,-84,71,-13,5,1,-13,13
1490227576947,110,49,-89,-69,119,0,-1,50,60,16,-5,25,122,11,2,45
1490227576948,-54,61,-82,-7,-73,14,11,-64,-29,-9,-92,-10,35,4,20,-62
1490227576996,127,-38,-115,-94,-77,-2,20,-65,111,26,77,-23,-86,9,-8,-38
1490227577045,-77,-1,127,11,127,3,-31,58,-18,72,88,-5,127,-16,-28,23
1490227577094,75,62,75,-8,-21,9,-4,7,-114,0,32,-12,20,19,16,-19
1490227577143,-37,-15,6,21,-1,-19,-19,-30,41,-33,-86,30,-20,-21,-18,-21
1490227577191,57,-25,-23,-59,-3,-21,-36,6,17,-29,-18,-44,8,30,34,63
1490227577194,41,-52,-39,24,9,7,20,-76,75,42,30,-27,29,35,5,34
1490227577240,-60,-27,127,-39,17,-1,-14,38,-4,9,-99,-26,11,-5,6,-77
1490227577289,118,127,95,-78,98,-43,-16,66,76,113,-26,-112,29,41,-2,83
1490227577338,-70,-96,-94,-72,15,-12,-4,-47,2,-62,11,-74,-18,8,9,53
1490227577387,4,31,18,50,33,19,-8,17,77,127,18,59,55,2,-10,29
1490227577435,-79,-27,123,27,7,11,-17,-18,32,120,99,3,24,16,-7,-8
1490227577436,-12,113,-19,21,-30,-22,-13,-90,-33,-95,37,-37,-29,-12,1,95
1490227577484,72,90,127,37,59,12,-10,82,-30,127,-5,-39,62,13,-30,-2
1490227577532,1,-3,97,-26,7,22,-2,-70,-89,-124,-128,10,-15,-13,-1,5
1490227577581,8,-90,-47,-4,-23,-58,-9,-25,21,16,8,-67,-25,-18,106,75
1490227577629,-3,-3,-101,-40,-33,-11,-13,-49,-73,-46,45,-79,-64,-74,-24,-82
1490227577631,29,-81,-86,78,-18,37,7,70,-64,-44,43,80,-40,12,-10,-100
1490227577679,45,56,35,6,-16,-21,-48,114,49,82,119,50,61,52,-76,2
1490227577728,17,-18,-124,76,-4,-9,18,-2,127,127,63,41,18,4,-14,127
1490227577777,76,-22,20,-1,-76,-14,7,12,-27,125,63,-84,-11,19,-26,36
1490227577825,-23,29,-27,71,16,-16,-9,-64,26,127,108,44,-4,24,-83,13
1490227577873,115,83,111,22,39,21,-7,121,-106,-92,-128,-5,-26,-25,-34,-128
1490227577875,27,53,38,-50,21,6,-42,79,14,-94,48,127,52,16,45,52
1490227577923,11,21,-103,-116,-25,-49,-17,-4,11,-8,-106,73,-34,-73,49,-63
1490227577971,15,-7,-86,-87,-76,-10,12,-40,67,61,109,33,-19,60,-4,83
1490227578020,-64,-4,-54,-27,20,-21,-3,-58,42,-128,-117,-44,-5,-21,-9,-18
1490227578068,-73,-72,-51,-59,6,-4,-14,28,52,81,88,-53,-77,-18,4,-8
1490227578070,-48,33,127,85,21,-13,-15,-86,-4,-13,-58,-55,13,-28,-40,7
1490227578118,-65,-38,127,39,-7,-5,28,-27,61,66,-56,31,-7,7,-111,60
1490227578168,26,-67,-107,-80,-49,-45,73,-46,-38,-13,24,-102,-88,-46,100,-7
1490227578215,-3,29,19,38,26,15,-89,52,62,94,119,41,-20,14,-23,21
1490227578264,-9,-105,-127,-115,-50,-27,-3,15,38,-38,41,-101,-46,-60,-20,18
1490227578312,22,-4,-74,-84,-26,-10,-85,22,-14,1,-16,-29,33,32,-128,-33
1490227578314,12,115,92,127,106,-19,-84,19,5,-50,-111,42,-35,-34,-18,-4
1490227578362,-8,-112,-23,-119,-9,-35,99,-25,-29,4,92,77,-20,21,51,-28
1490227578412,-15,11,-94,110,53,90,84,25,-8,-51,-128,-128,-22,56,106,-30
1490227578459,-70,-5,-91,-87,-40,70,-33,-27,-30,-87,-128,-32,-6,92,-97,-13
1490227578508,-35,55,127,57,63,-121,-70,12,-128,34,-128,50,49,-128,-78,-71
1490227578556,28,-68,-95,-53,-32,-5,-48,-15,33,-64,-54,-16,-63,61,-56,26
1490227578557,53,25,65,46,72,-59,10,-16,65,53,67,68,89,-49,-8,18
1490227578605,2,-10,-39,67,-109,-19,1,-67,18,11,115,-73,-36,-19,-18,18
1490227578655,0,-3,117,39,127,-22,6,65,4,-2,10,-78,65,3,11,14
1490227578704,12,-10,-6,-32,4,-4,-27,112,8,-5,21,127,2,-2,-38,27
1490227578751,84,-24,68,-78,-26,-4,68,-100,109,-39,69,34,-91,-4,-25,-114
1490227578753,1,-9,0,24,78,-2,-30,23,7,-29,57,68,57,1,-14,-13
1490227578800,-101,-49,-30,-94,-39,-7,12,-10,-71,20,14,-9,-59,-5,7,5
1490227578849,-17,-11,-12,64,-18,-1,16,-35,-54,-9,-23,-36,-50,-1,-10,-12
1490227578898,27,15,-14,-53,-66,-2,56,20,-7,15,12,17,8,-1,-31,-2
1490227578947,-10,9,-2,-69,-32,2,4,4,-1,24,26,82,35,-3,1,4
1490227578995,7,14,11,17,24,-2,-10,7,17,-2,24,30,40,1,-90,-4
1490227578998,4,0,18,23,27,-2,47,12,43,12,-22,-83,-34,-5,106,88
1490227579044,-26,-5,-6,9,28,-1,49,-39,-4,14,41,-9,-30,3,-10,-65
1490227579094,35,30,21,11,11,-1,67,17,-37,-37,1,45,28,-5,28,-12
1490227579142,35,24,52,-13,-8,4,-59,8,38,9,2,-26,-43,-3,-58,16
1490227579190,42,61,95,4,40,-42,9,6,33,55,64,48,16,-55,-46,14
1490227579238,-5,-83,-107,-108,-16,-43,-5,-118,33,96,93,33,23,73,3,-75
1490227579239,34,13,16,68,25,82,-75,100,29,23,49,41,17,-49,-113,21
1490227579287,-9,24,123,76,15,-68,127,19,-26,84,-77,-3,5,-128,64,-53
1490227579336,-121,0,52,99,18,15,-51,-24,80,30,82,89,35,-92,-3,93
1490227579385,-82,-19,28,46,-18,-18,-2,-45,-9,110,-72,26,-11,-32,24,-94
1490227579482,123,59,-58,-4,-13,-19,91,44,-48,-67,101,76,12,9,71,23
1490227579483,4,-67,-24,-24,-21,-76,-34,35,7,69,-70,47,29,-109,8,0
1490227579485,11,-30,115,-16,-5,50,-88,-39,-75,-123,-53,-128,-26,-20,-119,11
1490227579536,-63,21,-13,-45,-12,-128,86,-6,15,75,60,-73,17,-87,101,-94
1490227579581,-83,-128,-106,115,-32,35,-111,-102,6,-128,-106,27,-13,72,9,41
1490227579629,121,47,-97,42,34,-54,23,-7,-45,104,127,58,-8,-30,0,52
1490227579677,-50,32,41,59,7,-6,1,-71,5,87,57,-19,-39,-21,-6,15
1490227579679,67,34,24,-25,-18,36,-21,28,3,-32,-54,38,20,45,48,45
1490227579726,41,-51,-85,-128,38,6,23,41,52,70,55,-114,39,38,-28,21
1490227579775,45,45,68,127,20,-49,-12,50,39,-53,35,65,-11,18,-15,3
1490227579824,-93,-7,-7,-7,-14,40,-36,-82,12,127,-42,89,-13,-15,4,-16
1490227579873,44,-128,-86,102,29,34,-9,27,-41,-28,24,-27,-60,1,13,-85
1490227579922,41,-43,-90,-128,1,-8,-5,-36,-2,-43,-47,-104,5,21,2,21
1490227579926,-31,-78,-20,19,-21,-13,4,-11,54,38,9,84,-23,-74,-46,-8
1490227579970,-19,80,33,-69,16,109,6,-30,-6,47,18,-22,-25,127,16,-7
1490227580019,-82,-121,3,-42,-27,-53,27,-60,1,-40,-59,-13,12,14,51,14
1490227580068,-31,13,1,-128,12,-21,-41,-50,48,76,32,-41,18,6,-6,33
1490227580116,28,30,-11,-45,10,-13,-11,4,-39,-24,5,45,84,-62,-34,-27
1490227580117,-9,-39,21,97,15,-8,29,10,-78,-105,-75,88,91,-5,-4,-56
1490227580165,8,-38,17,50,-13,31,-38,26,-22,-43,8,13,-95,97,13,32
1490227580214,-74,107,27,12,-35,-7,-20,-15,31,98,17,-7,75,56,-22,-28
1490227580263,106,-83,0,75,-113,-26,-21,-58,-31,-111,-6,-37,-112,-43,-14,-95
1490227580312,26,69,-22,118,71,59,17,-12,-6,-6,21,-97,37,23,-12,-1
1490227580360,64,-128,113,-128,21,42,-3,61,8,-85,-85,-105,54,41,0,25
1490227580361,17,56,-3,-91,8,107,-31,5,39,55,-36,-86,21,112,62,31
1490227580409,3,21,40,37,41,-125,-98,32,-40,-15,12,-77,-57,-118,-67,54
1490227580458,-59,-3,9,28,-3,16,86,-51,-25,1,21,15,15,-19,-52,-72
1490227580506,39,15,18,8,1,-10,-66,17,-117,-47,-7,-11,-26,-21,-27,-47
1490227580555,48,30,-1,-33,1,-4,-2,39,113,-30,17,-30,16,-1,-16,20
1490227580603,-33,27,4,-128,-21,-12,-19,-20,31,126,3,-67,-1,13,-40,6
1490227580604,-50,-116,-17,-18,-9,-1,13,8,68,-26,-12,21,19,18,-29,4
1490227580652,68,2,16,-3,-29,4,8,8,-42,-35,-11,11,-1,-9,-10,3
1490227580702,27,10,7,15,20,28,4,-13,27,11,8,-8,-1,-13,13,27
1490227580752,12,8,7,-15,14,11,-1,1,-33,4,7,-13,0,6,7,-4
1490227580799,39,4,1,-5,-9,13,11,10,24,-10,-14,-11,1,-4,-9,-11
1490227580799,37,21,15,-35,25,14,27,12,56,9,10,-55,-19,6,3,-1
1490227580848,1,-19,-12,-5,10,5,2,5,-26,12,-4,0,-21,15,-22,-1
1490227580897,19,-23,14,1,-3,-7,-15,1,-90,-51,5,10,-7,1,6,-40
1490227580945,-31,-12,-25,-25,-9,-6,-16,6,44,15,-5,-40,-12,25,21,21
1490227580994,12,20,21,25,-3,-14,49,25,-109,-49,-12,17,-1,-6,-20,-23
