1490228041827,-35,-20,-53,-89,33,-72,24,-44,-12,-25,47,1,-7,8,6,-26
1490228041875,39,-5,18,-4,7,5,-8,39,-46,20,56,62,10,-10,19,-39
1490228041877,-93,-116,-73,15,-18,-3,28,-11,27,79,101,38,6,2,-5,5
1490228041924,124,15,-46,5,-22,-30,-40,-81,-128,-16,70,47,-5,18,-10,-24
1490228041974,106,31,85,-23,30,7,76,31,-14,74,-35,-63,0,-14,-13,-38
1490228042022,-79,-28,-34,46,-1,9,-38,-52,104,72,6,36,-6,1,24,71
1490228042071,86,49,82,-39,-10,-1,13,-33,51,103,42,54,3,-14,-32,-8
1490228042119,65,-128,-126,-83,-66,-65,-35,-5,-53,-46,-18,-128,-13,7,50,24
1490228042120,127,-35,-11,-7,-39,11,44,-6,-9,-37,1,-67,-16,5,-9,-57
1490228042168,-90,-1,19,-17,39,40,-64,-61,19,32,-128,-108,-1,0,32,90
1490228042217,-24,30,127,22,10,-18,-47,-3,10,-76,115,127,61,26,-10,-43
1490228042266,-18,-69,-111,-10,34,15,107,-61,89,21,47,81,21,27,-8,72
1490228042314,-10,-7,113,1,31,40,41,-9,-99,8,-55,119,-6,-13,-16,-92
1490228042316,-57,5,37,-128,-67,-29,-4,4,-112,-13,-39,25,-5,54,7,-58
1490228042363,47,-76,-121,70,25,-21,99,90,-27,-110,-36,-128,-26,-14,10,-66
1490228042412,-63,109,127,127,72,39,-20,39,127,-53,-128,-120,-40,-23,-9,-75
1490228042461,89,90,36,24,0,-20,-44,-128,-17,-69,-3,-1,-21,-18,0,107
1490228042510,37,119,127,44,-4,-5,-22,21,-25,8,-84,127,25,-14,2,25
1490228042558,93,-31,-128,-117,-105,13,22,33,36,47,127,101,50,-7,-22,-83
1490228042559,80,41,48,-128,1,28,-6,-2,-87,-104,-4,92,32,2,17,96
1490228042607,65,-50,-18,-15,-34,-31,-69,-110,-101,-21,76,-19,7,47,-22,47
1490228042656,19,71,123,127,45,-26,13,-94,-76,-99,-35,-128,-26,-34,-31,-128
1490228042705,-10,127,0,127,4,31,48,73,-109,-88,-128,-79,14,25,-12,61
1490228042753,-54,91,50,-16,-3,-58,25,110,-58,-115,-128,-128,-77,-14,-40,-82
1490228042754,-128,40,69,64,29,54,38,33,72,80,127,127,61,30,7,-13
1490228042802,72,57,-99,-94,-49,-55,-53,28,-125,-117,-124,-120,-20,-46,-37,-128
1490228042851,39,-103,-84,-94,-84,-13,-31,43,-89,-52,-128,-33,-80,-24,-21,-41
1490228042900,-44,-92,-102,-67,15,10,-44,-29,-39,-5,10,-23,-1,15,2,-4
1490228042948,3,127,127,127,41,1,-44,-11,103,18,-60,40,31,9,33,110
1490228042996,101,-43,-110,-128,-16,-25,-21,23,-118,-63,127,127,-46,3,-7,-110
1490228042998,-19,-26,-96,43,-17,14,11,-14,42,-7,-32,-27,59,-25,-24,-8
1490228043046,-128,-121,-92,-49,22,-35,10,-49,49,45,74,47,19,15,-24,-13
1490228043095,-88,-128,-111,-128,-47,-8,-29,-44,31,43,87,68,-49,-34,-14,-1
1490228043143,26,83,82,47,46,6,-5,-16,32,-42,-128,-128,-36,-18,3,20
1490228043193,51,83,127,126,116,87,17,5,53,56,-15,69,67,48,41,47
1490228043240,13,57,50,63,21,-10,-34,-20,-24,-48,-12,-27,52,4,5,5
1490228043242,-36,-90,-91,-75,-58,-61,17,-12,11,-52,-57,-77,-62,-27,-54,-5
1490228043290,5,28,24,33,-6,50,-1,32,27,31,36,37,-62,-49,-39,-10
1490228043338,9,37,-30,62,2,31,8,-9,-17,3,33,25,-51,-57,-33,-32
1490228043387,7,54,32,22,79,-9,-31,4,64,109,104,116,-16,6,3,18
1490228043435,-32,-51,-51,-95,-31,-16,-17,-19,8,22,0,53,62,1,42,16
1490228043484,25,67,62,53,26,-77,12,-3,-31,14,-18,-31,127,52,-52,-14
1490228043486,22,-38,-41,-53,42,83,-64,27,-37,-17,12,-29,-61,36,33,-30
1490228043533,2,33,5,-58,-94,8,4,14,8,10,22,-30,4,127,17,-1
1490228043582,-1,-28,28,21,50,-68,40,23,-24,-26,25,24,-43,-82,-23,-6
1490228043631,7,-48,20,18,37,3,-52,3,15,-71,37,57,-99,-75,-14,-6
1490228043679,14,-39,-44,28,73,30,19,-3,-3,-46,-25,-15,-40,-84,-86,-9
1490228043682,46,12,-8,16,86,-105,32,17,-42,15,-9,33,11,16,4,1
1490228043729,12,36,11,88,64,0,5,17,36,20,20,35,3,22,-64,12
1490228043777,-17,-17,-11,34,-12,69,-20,-22,-9,1,9,36,5,-62,-91,61
1490228043826,74,82,46,13,-20,-23,56,127,-97,-75,-14,-4,52,-62,66,23
1490228043875,-111,-28,24,1,-45,-1,-9,-23,15,-5,-11,46,81,-25,121,-12
1490228043923,24,17,75,7,-44,-37,-14,62,-5,-29,-75,-28,-33,-66,-23,4
1490228043924,23,-50,-71,-20,20,28,12,-84,46,53,31,-31,-18,11,30,43
1490228043973,-68,-22,-43,-17,31,82,78,-8,23,11,91,23,-69,-54,-28,-6
1490228044021,-49,13,-68,-47,39,87,66,-4,40,8,1,82,26,123,-1,61
1490228044070,127,23,-90,-1,4,127,-110,53,-59,19,0,22,11,9,111,40
1490228044118,65,90,93,-11,-16,-79,9,37,-60,-65,-108,27,11,-15,36,8
1490228044119,-28,-31,-36,-88,-38,72,-90,23,-84,-76,-128,-66,7,69,-54,-78
1490228044167,50,60,115,23,-16,-23,-40,-7,127,127,15,49,10,-26,58,35
1490228044216,76,-25,-53,-44,-6,-15,14,8,8,-13,4,-23,-7,-18,65,-5
1490228044265,-37,28,-34,-28,47,-1,78,14,-25,8,15,33,-10,-74,41,-8
1490228044313,-52,39,-70,-61,-19,-25,-96,-89,29,-22,-61,-17,-19,-18,12,15
1490228044361,-1,56,127,124,40,17,7,0,13,15,30,31,11,-23,-26,32
1490228044363,52,112,-90,-57,-37,-42,-7,29,-71,-59,107,-7,-2,-4,-38,5
1490228044411,-97,-40,-5,18,13,-12,-16,-28,79,21,-16,-36,-32,-9,54,-35
1490228044460,26,-11,40,56,30,-17,-33,-19,85,-48,-92,-81,-24,0,32,7
1490228044508,-47,-56,27,-64,-35,-27,-104,-43,85,85,57,96,47,42,57,24
1490228044557,-63,-41,-34,96,-13,-26,-51,-6,49,-5,-47,-87,-6,26,-24,27
1490228044605,-22,68,88,-21,15,22,-15,8,18,-34,-48,2,3,-22,26,1
1490228044607,-71,-47,-27,43,22,57,0,31,29,25,64,11,24,36,37,-30
1490228044655,-9,-10,-1,-24,-25,-49,57,31,-22,-24,7,-2,-6,1,5,-2
1490228044703,20,-12,-21,36,-25,-53,-43,-4,59,22,31,17,2,8,-20,1
1490228044752,118,67,56,50,-15,-10,-42,-16,-6,-29,-45,-13,4,35,59,22
1490228044800,94,32,16,0,18,-18,34,0,-2,37,1,9,-6,-44,-49,14
1490228044805,17,1,-22,-4,-10,35,14,9,-21,-11,-10,2,-1,-25,-14,-24
1490228044850,-21,-7,3,-10,0,-15,-13,-17,59,20,36,28,1,-7,12,9
1490228044947,53,-14,13,8,-4,7,23,-2,45,23,3,-16,-10,16,-37,-2
1490228044951,14,13,44,-25,-49,-77,-44,-6,-103,5,28,8,14,18,-5,-13
1490228044996,-35,6,-25,2,4,18,29,51,74,98,20,22,-9,-23,34,20
1490228045044,-57,-29,1,-8,17,13,18,-25,78,6,-6,16,-3,9,-27,27
1490228045046,50,-10,-18,-15,0,-29,-40,4,-88,-54,-32,-15,8,31,23,-23
1490228045094,-14,9,50,18,23,19,15,0,26,-5,39,19,-1,-21,55,26
1490228045142,33,13,25,8,9,9,36,27,80,61,-9,17,7,11,-48,38
1490228045191,-128,1,-85,-14,-26,-42,-43,-16,-85,-19,80,-34,-7,5,66,-10
1490228045240,-110,2,-32,18,31,31,63,-26,28,28,28,59,17,-15,-21,-4
1490228045288,-25,-113,-98,-24,-14,-19,-2,4,-56,-95,10,-70,-23,-11,4,17
1490228045290,-95,57,69,102,27,1,-37,-13,11,45,113,68,32,15,16,16
1490228045338,-60,-88,11,-60,18,30,64,-1,-7,28,18,-22,-2,-11,-32,-27
1490228045386,21,-23,-43,-55,-4,0,-20,-25,-84,34,82,57,-17,-54,-16,-46
1490228045483,20,-71,78,66,35,7,-104,-19,127,105,-29,67,43,25,127,84
1490228045485,42,-26,-56,-36,-102,-54,-71,-52,-115,-66,78,-3,23,2,26,-8
1490228045485,77,38,-27,-62,50,48,25,49,-57,-78,-40,-12,-4,-4,15,-24
1490228045532,103,-57,-68,-25,-25,-23,-46,26,-59,-81,94,96,30,-35,-9,24
1490228045581,-128,-106,5,52,-5,-14,10,-11,113,100,36,4,32,53,-76,-8
1490228045630,-109,-128,-84,-128,-19,-34,-110,-91,93,37,-26,-6,-41,3,14,5
1490228045678,-34,-21,-96,-96,-17,-62,-93,38,111,127,63,63,4,-15,7,23
1490228045728,26,76,-9,-15,-51,-77,-32,-29,97,73,79,60,29,49,9,23
1490228045731,-21,96,127,70,39,64,-43,-16,-32,-64,-97,79,22,-38,-20,-92
1490228045777,-37,59,-12,62,67,-56,-24,10,-119,-128,-128,-128,-12,40,43,-4
1490228045825,-97,-128,100,-12,16,-43,10,55,-48,47,-128,-30,-15,8,-46,-108
1490228045874,83,-95,-128,-113,34,73,120,-36,87,77,127,127,28,-27,-31,-9
1490228045922,127,75,35,53,-27,2,23,32,3,-67,-74,67,-54,-7,-56,-68
1490228045923,-52,-68,24,-95,-81,-51,-119,-97,34,54,73,118,-29,23,81,21
1490228045972,-100,-34,-33,-19,48,36,69,-29,4,-24,-63,-27,-5,-17,-16,3
1490228046019,-8,127,-17,-24,47,-32,-25,-64,-98,-120,-124,-21,-56,-7,5,-42
1490228046068,50,-34,79,127,20,21,10,-54,56,-128,-59,-117,-25,3,72,77
1490228046118,-66,63,113,10,-109,-26,-33,18,53,67,6,68,89,31,13,-3
1490228046165,-32,17,103,66,54,14,16,127,-124,9,-103,-103,-69,10,16,-46
1490228046168,46,-83,-89,50,-53,2,-7,-33,105,65,28,35,-100,-9,104,46
1490228046215,44,101,-15,-120,21,-53,-79,-42,-15,-111,35,-56,1,-28,17,32
1490228046264,113,35,-52,-60,101,78,26,11,100,-128,-128,-128,-67,-36,-93,41
1490228046312,-44,53,117,-73,-52,-44,-79,-40,-29,-88,-104,-105,-99,8,-28,-30
1490228046361,80,39,-54,-17,9,50,46,3,-47,-86,-75,-60,-25,-53,-39,-14
1490228046409,-38,-97,-51,-33,-29,-11,-15,-16,-70,9,115,98,-84,-58,-5,-27
1490228046410,36,49,72,18,-124,-27,-13,-7,81,52,80,76,64,-5,75,40
1490228046459,39,59,123,106,-106,-27,-28,17,114,89,-34,24,107,55,95,89
1490228046507,22,23,125,88,-13,12,-30,1,-73,-95,-128,-117,20,-37,-46,-4
1490228046556,-7,11,-32,-47,98,15,19,2,-27,-43,-119,-99,-38,-88,41,25
1490228046605,-72,-74,-117,-99,-69,-21,-38,-43,-13,-27,-45,-80,72,21,-37,-23
1490228046606,47,63,45,76,0,124,0,21,-15,62,119,106,-28,126,-10,-20
1490228046655,24,-11,-28,-91,-28,-128,-3,10,-25,-40,-36,-7,9,-95,15,-18
1490228046799,-38,-11,-90,-68,-23,100,-19,0,-22,-48,-8,22,74,11,-54,-4
1490228046849,22,20,0,11,58,48,48,2,-2,21,-32,-78,-42,-106,-64,4
1490228046857,32,29,50,65,-30,85,-44,2,25,18,73,53,-128,-25,67,10
1490228046864,-11,-12,-12,-21,-3,-11,-50,-25,26,50,68,69,-15,-99,1,26
1490228046897,4,-25,1,-26,25,26,26,31,-9,-50,-53,-21,-45,-40,68,-4
1490228046897,-14,2,-11,-51,24,122,55,-15,6,-3,0,-27,-27,30,-10,14
1490228046946,-25,-27,-72,-55,52,-12,-15,-20,24,-8,2,-5,-77,3,-86,-9
1490228047042,10,-18,74,55,-32,-7,25,11,7,-21,11,47,62,25,13,-4
1490228047044,12,-20,12,-5,4,-10,19,16,5,-48,-18,-36,4,12,-10,-20
1490228047140,9,20,-17,19,4,-8,-127,-13,-10,26,12,97,42,12,25,30
1490228047141,-21,7,-6,23,-33,-3,-19,-18,3,14,19,13,-38,-1,66,10
1490228047189,-7,-40,-14,15,45,-5,48,3,10,-26,3,-34,-11,-1,62,28
1490228047238,-14,-6,-17,-45,-16,46,-29,32,70,31,-18,16,21,19,-128,12
1490228047240,-63,-34,-18,-6,-27,103,33,-34,26,-7,17,-9,-45,-75,-40,-4
1490228047287,97,-14,-33,-101,-23,-101,-48,-23,-106,-7,14,6,-39,-128,53,-37
1490228047288,-20,-27,-16,44,14,-39,-12,0,71,84,80,88,15,-47,-2,29
1490228047336,-83,-29,-10,-49,-51,48,-24,-41,-56,-82,-78,8,60,-99,-26,-29
1490228047385,51,-54,61,60,25,70,10,5,16,-70,-30,-30,-9,104,8,-25
1490228047434,-83,88,49,10,-1,10,59,2,52,48,-20,50,33,16,7,42
1490228047482,-128,-59,-73,-15,-29,78,31,-46,20,-65,-30,-45,-34,127,-20,14
1490228047579,10,-5,99,51,37,-106,-51,-50,23,127,118,104,29,-128,-28,15
1490228047580,-18,-8,-90,-128,-33,-58,21,48,23,-56,45,13,-20,-54,-104,-73
1490228047583,108,-60,-127,-89,1,83,33,55,-98,-104,103,-6,-51,32,-25,-17
1490228047629,-122,47,31,30,7,-9,-47,38,-50,8,3,54,60,4,77,-16
1490228047677,69,-7,18,66,20,15,-21,15,127,127,122,86,25,18,17,14
1490228047726,-5,88,79,127,58,-16,48,-9,-11,-71,-74,15,1,-43,-69,-37
1490228047774,-21,-121,-128,-103,-11,26,100,24,-26,37,113,-1,13,15,-51,-30
1490228047775,-128,-112,-128,-93,-40,-4,15,-128,15,11,69,22,2,13,-35,52
1490228047823,127,41,-53,102,84,9,-65,-18,-110,-128,-71,-9,-2,10,64,-41
1490228047872,25,55,63,61,30,18,-22,10,-66,-128,-88,56,-7,-12,-10,17
1490228047921,-99,-47,-110,28,-37,-29,13,25,127,96,127,56,31,-28,0,-33
1490228047969,127,4,-61,9,5,-39,-29,-27,-100,-46,-38,-64,-38,-13,-29,-2
1490228047970,-77,41,127,54,32,60,6,18,-32,-5,-75,37,14,4,23,26
1490228048066,17,69,11,-2,-23,-27,-25,-15,46,46,22,110,26,36,-13,-7
1490228048067,31,18,-56,-1,26,2,67,-3,-102,-99,-21,-51,-32,-12,-24,-7
1490228048123,-42,-1,31,-3,24,6,-15,-9,105,40,41,24,3,35,-10,38
1490228048212,59,39,24,13,11,15,-44,-25,-84,8,65,66,18,-22,36,24
1490228048214,-106,-23,-39,-51,-14,-6,-78,-7,-3,24,35,22,26,16,60,12
1490228048223,-68,1,19,-24,-12,-13,-14,9,-25,-12,-14,32,-20,-19,-22,-20
1490228048263,-103,-24,-32,-28,-14,17,85,-15,69,-8,-41,-69,-48,-22,-48,16
1490228048313,58,-14,6,53,38,17,53,12,47,-6,26,-69,-50,-20,-35,-23
1490228048360,17,5,2,6,1,-5,-25,9,4,-12,-19,-4,26,-6,-21,-2
1490228048408,77,17,-7,18,68,-1,-49,45,13,-24,-29,-53,-33,-66,-2,-48
1490228048457,-1,-4,-17,-45,-25,-4,-51,-27,-4,1,-2,-10,3,-8,106,35
1490228048505,-6,-20,1,54,73,19,43,12,-79,-17,21,9,-3,10,-24,-40
1490228048507,19,23,11,18,2,-3,37,18,-5,25,6,26,12,-29,-34,-17
1490228048555,-50,-12,-76,20,-5,15,8,-54,101,46,45,-11,18,-6,-4,16
1490228048604,-64,92,94,35,23,48,23,21,73,-14,-60,-19,-15,-9,-62,-1
1490228048652,-97,-74,-64,25,-26,25,-25,-31,-40,-12,8,-50,-8,-17,-53,31
1490228048653,12,11,-18,35,18,-1,19,46,-15,13,64,93,-1,-57,-35,25
1490228048705,91,-65,-128,-112,-77,-38,8,-82,-8,-17,127,102,31,39,-4,2
1490228048750,112,36,-17,-6,15,-41,30,49,1,30,-2,-29,-32,-18,-71,-36
1490228048798,-128,21,99,61,7,-39,66,-96,55,48,-36,-112,32,79,54,17
1490228048847,-65,-101,47,-50,-27,-21,-63,66,96,70,81,91,-6,8,19,-86
1490228048895,-72,-56,-115,-27,36,32,0,37,107,68,78,72,-14,-59,80,54
1490228048897,-38,-7,55,97,64,20,-4,-16,9,5,-128,-84,-99,-101,-33,-8
1490228048945,14,-59,-77,-6,11,24,71,-57,9,93,127,-45,33,28,10,31
1490228048994,-88,-104,-69,-69,3,-11,-32,-24,91,-3,-21,33,-62,-61,-19,17
1490228049090,-75,-61,51,-118,-29,-24,10,-16,112,94,-14,84,15,43,-67,92
1490228049094,-80,-90,103,-56,19,15,4,-100,89,77,-16,90,-31,-11,6,46
1490228049097,123,93,-66,45,-70,-26,-72,59,-82,-36,-71,-53,36,77,48,-4
1490228049140,127,127,85,-65,-54,-43,22,3,77,91,28,94,19,98,63,53
1490228049189,47,58,-120,-128,-68,-5,94,72,-51,-41,74,8,37,-32,-122,-3
1490228049241,35,117,127,127,34,63,7,-79,-121,0,-128,-88,1,9,12,47
1490228049286,19,15,-74,42,4,54,7,-66,11,-38,100,-38,1,-59,47,2
1490228049334,57,-109,-104,-128,-6,-34,8,13,-128,36,41,-54,-128,1,-45,-52
1490228049335,-97,-128,112,-78,-103,-92,-91,-86,90,13,100,69,13,71,107,65
1490228049383,-2,-112,127,81,-15,24,102,92,20,-27,-106,-76,-6,-49,-14,-20
1490228049432,36,98,44,94,55,101,50,29,-108,-50,-65,0,-78,35,69,83
1490228049481,69,59,54,25,35,-20,-99,-50,69,11,-68,-50,-52,20,64,-27
1490228049529,-128,-90,-104,-99,-14,-31,-35,12,-74,-64,-35,-76,13,16,31,-46
1490228049577,-57,5,-108,-40,10,14,-128,-80,96,22,-71,-74,25,-21,16,-53
1490228049579,-57,-27,-86,-128,-66,-59,-51,-3,-14,66,88,99,78,-13,-91,-68
1490228049627,122,127,82,91,115,122,17,-50,-50,-57,-101,-74,-86,-37,-64,9
1490228049676,-92,-104,51,-15,-35,-28,-12,25,22,127,127,127,121,74,41,18
1490228049725,-32,-70,-116,-128,3,-4,-73,-31,22,105,127,127,97,-15,35,17
1490228049773,33,64,-42,-48,-128,-14,-38,-59,-53,-79,-90,-59,72,-52,-20,19
1490228049775,67,-27,4,-27,21,-43,1,-26,-40,16,65,26,46,-1,-22,-7
1490228049822,-4,-37,-4,-16,-108,0,-28,25,-35,-39,-38,-16,33,19,54,-33
1490228049871,-15,37,14,-41,118,90,51,9,6,-10,4,-6,-115,-54,-37,-23
1490228049919,-57,-29,-52,-45,-90,49,60,-34,37,26,12,69,78,-25,-68,16
1490228049968,4,-18,-5,24,14,100,45,5,9,1,-28,-60,8,87,-49,-5
1490228050016,-18,25,20,-27,-41,-75,-16,7,15,23,17,40,-95,2,-70,-37
1490228050017,25,16,4,50,-4,69,100,71,9,19,19,27,14,-58,-42,-7
1490228050114,22,-22,-9,14,22,-2,-9,-2,19,-34,-22,-61,21,-106,21,24
1490228050115,-28,31,-5,-28,25,-65,-50,-34,-8,1,-5,42,33,10,13,-32
1490228050163,5,14,25,-2,18,-22,-82,6,-5,4,40,-9,32,23,22,-16
1490228050212,32,10,10,54,-28,-7,0,16,-36,-21,-8,26,-29,17,-93,-29
1490228050260,-31,-16,-39,-87,7,0,-113,-45,5,-29,-57,2,-37,4,36,22
1490228050262,-2,-23,-40,-44,-50,-7,37,-39,35,13,-21,-48,67,-1,-20,27
1490228050309,31,-19,-10,-31,23,-4,7,1,7,19,-10,16,40,2,-52,14
1490228050358,-16,-9,-3,0,60,-1,127,18,19,43,49,74,-54,1,83,-30
1490228050407,-12,5,-21,-34,19,0,44,2,-5,15,1,-46,-15,6,-46,-8
1490228050456,-9,-4,-5,23,23,-3,-24,-26,17,11,0,-7,-9,1,127,55
1490228050458,-6,14,7,29,-10,-1,10,-8,0,10,-4,-50,-3,-2,43,19
1490228050506,-4,-14,-23,-85,-54,10,34,12,10,29,7,-76,-32,80,-15,17
1490228050555,-67,-18,-59,41,4,-30,-67,-93,79,41,8,-24,-30,-103,-101,76
1490228050605,-26,-116,-50,-30,0,-24,23,-30,-38,-12,3,83,34,-27,-33,12
1490228050651,-84,-41,-30,-54,-55,107,-30,-27,42,71,7,6,46,-33,13,21
1490228050699,-100,-82,22,29,-20,114,-39,-31,50,40,65,61,9,127,-2,96
1490228050701,-28,-10,-23,30,2,48,-114,34,53,-6,119,-30,-6,55,20,-6
1490228050748,15,70,107,108,39,24,13,-36,3,16,84,121,61,118,-25,27
1490228050797,-128,6,40,30,19,31,-60,0,29,78,-109,45,21,70,49,-51
1490228050846,-64,-99,19,15,13,-92,27,62,-99,-59,127,97,48,-52,5,73
1490228050895,-65,49,-128,-44,-7,28,-22,4,-8,23,-36,-58,-20,74,-14,-49
1490228050944,-91,-43,-70,-86,-49,-46,-8,-17,-50,6,-54,-34,0,30,53,-39
1490228050945,126,12,57,-51,-8,-36,54,87,-102,24,59,90,61,-2,59,18
1490228050993,38,-97,-101,-50,-39,-5,-23,-19,-44,-53,127,10,19,4,2,-41
1490228051041,-110,7,-51,-70,16,4,36,47,127,-51,-59,-100,-73,-47,-111,-118
1490228051138,-26,-3,21,-95,-1,-46,-21,-52,-45,23,66,9,11,-15,-1,48
1490228051139,-100,-110,-104,-12,8,26,5,13,121,96,38,-31,-18,24,-28,11
1490228051141,-6,11,127,71,56,23,29,95,-20,14,-66,105,18,-23,-29,-73
1490228051188,-13,-31,76,-10,-19,6,80,1,-2,86,-48,76,-47,-10,-50,-29
1490228051238,64,69,5,-55,-13,24,4,7,-101,-44,-10,-6,11,23,44,11
1490228051285,80,-15,-68,-78,-36,-14,-82,-68,72,59,73,5,46,2,81,10
1490228051382,-102,-39,-62,-48,-4,-26,-17,-58,73,28,69,18,-24,-12,-46,21
1490228051384,-46,-24,-40,-70,-21,12,2,7,7,7,38,11,-2,24,10,-12
1490228051385,6,-18,-36,-45,-8,-17,-23,-17,-42,-47,-42,-43,-10,-37,-6,-10
1490228051431,-2,18,19,29,47,10,-79,-31,-27,-15,21,60,25,0,64,4
1490228051480,-29,-20,9,43,-12,1,-15,-7,-43,-32,-16,-83,-50,6,-65,-11
1490228051528,6,-2,11,-10,16,17,45,31,40,20,3,-3,-1,-24,-65,-26
1490228051577,14,16,5,12,44,3,-80,-15,3,-30,-29,24,-21,-10,18,4
1490228051578,20,21,-17,-24,-3,41,33,10,-21,-2,-24,-32,-1,-23,-77,-54
1490228051626,12,5,-13,-31,-6,-4,9,12,-12,25,-31,0,3,38,7,-4
1490228051675,-42,0,-12,-22,-14,-17,-33,-32,41,12,9,-13,-17,-27,-50,12
1490228051724,-31,11,-5,-8,22,37,16,-1,-128,-49,-4,-30,-26,-5,108,-55
1490228051772,-83,-28,82,80,34,10,-73,5,-46,-19,4,1,-37,-22,-3,-21
1490228051820,52,-4,-23,16,5,8,110,11,-81,-89,-95,-48,-12,-27,-105,-33
1490228051822,-26,-14,-55,8,-9,-13,33,13,-9,18,53,12,15,32,77,13
1490228051870,6,13,54,71,8,12,55,-21,37,-14,-92,27,-11,-42,-98,1
1490228051918,127,116,58,97,39,-2,72,42,-87,-93,-72,8,-34,-55,-89,-5
1490228051967,-49,-71,-34,-58,16,34,25,-28,100,92,41,34,-9,-21,-28,-38
1490228052017,84,103,72,49,38,-1,25,44,-64,-96,-66,-106,-77,-16,-3,5
1490228052064,-71,45,-110,69,23,25,8,-15,43,3,125,9,-45,-18,73,0
1490228052162,70,9,11,24,32,-29,13,82,101,127,-44,-36,59,23,-33,44
1490228052163,67,32,13,63,-1,45,41,-26,-6,0,-71,-111,37,-26,-67,17
1490228052164,55,44,-128,83,48,36,54,34,71,-115,-100,-128,-112,-25,-53,-30
1490228052212,35,-12,8,25,-7,-12,-32,56,64,77,59,38,-2,-86,26,28
1490228052259,-117,-111,-41,-6,-22,-32,93,-124,80,-1,26,15,42,19,-90,19
1490228052261,118,101,127,46,-41,-95,-26,-19,-128,-125,2,71,51,-19,6,-22
1490228052312,-37,-70,-107,-128,-26,-98,-128,1,-49,4,-5,-117,49,8,-66,-92
1490228052357,-113,-25,118,94,15,39,23,-65,71,36,43,7,1,39,64,102
1490228052406,127,75,87,35,-37,3,-31,-7,-38,-91,53,35,24,-55,-114,9
1490228052455,12,-10,112,-60,-49,-16,71,121,18,-68,-128,12,-14,-31,-69,-82
1490228052502,127,72,71,83,77,97,53,47,-93,-24,-46,52,43,-36,26,34
1490228052504,-97,95,127,51,34,58,-50,-59,50,36,25,105,48,42,10,66
1490228052552,-100,-95,-20,-56,-2,-48,-69,-104,-115,4,-80,3,-94,-57,-25,-20
1490228052601,22,43,78,61,32,15,98,95,74,6,-45,-55,5,14,30,25
1490228052649,-82,-70,-126,67,12,56,82,-23,67,109,125,27,70,-31,-67,4
1490228052698,37,49,49,-39,9,45,-44,33,-62,-62,-112,-128,-78,-19,20,-73
1490228052746,104,49,-95,-60,-102,-86,-47,-7,17,61,55,28,-43,32,-1,18
1490228052748,-59,-34,-8,-74,-105,-36,-37,65,-59,26,79,27,-30,-80,3,-108
1490228052796,15,-37,-44,-24,-67,-39,39,60,-68,-128,-40,-128,30,9,4,-82
1490228052845,-73,83,127,83,22,21,-24,-9,-23,-20,-3,88,40,46,28,-41
1490228052894,77,-45,-57,-85,34,-30,-44,3,-112,45,29,91,-50,-65,33,9
1490228052942,78,68,72,102,67,49,26,-1,-79,-23,18,-73,40,14,1,22
1490228052943,33,93,127,127,59,62,31,-18,21,16,-68,-41,127,50,12,2
1490228052991,-45,87,119,113,44,5,36,-26,70,127,23,123,39,-7,-16,72
1490228053040,51,26,-2,25,52,39,-38,43,-7,18,102,127,-68,-57,34,-15
1490228053088,-34,35,40,60,66,9,77,-21,40,40,-71,26,-36,8,-73,12
1490228053185,-22,-62,4,-128,1,20,-11,8,68,86,127,102,-128,26,37,22
1490228053187,-41,-91,-128,-78,-113,-42,-13,-24,-17,13,64,11,-55,-48,-75,-23
1490228053188,-18,-65,-128,-76,-128,-80,50,16,-52,-69,-42,12,-39,-21,13,-32
1490228053235,-12,5,15,-33,30,-9,-106,0,31,-13,45,28,15,97,62,-2
1490228053284,8,-8,-1,60,-128,10,-26,-13,-16,-25,-14,75,102,127,46,-15
1490228053332,26,16,63,13,30,18,79,-5,13,2,-30,-92,24,29,-79,33
1490228053381,-9,-4,-3,74,-29,-43,-8,-7,9,1,10,49,6,-104,62,13
1490228053429,23,-5,4,46,3,44,-68,33,12,6,85,28,-80,-22,72,-5
1490228053430,35,-20,26,66,-65,97,-15,-4,4,-28,7,-32,12,127,41,11
1490228053478,9,13,-13,-40,-9,-45,11,3,-13,-22,-2,23,-60,-12,-29,-13
1490228053527,-15,-12,-27,-5,-35,-4,-30,-40,-5,8,-34,-22,100,11,5,-14
1490228053578,-56,-25,-34,-34,-12,3,-16,-55,22,-18,-20,-16,7,0,23,-5
1490228053624,15,-11,-16,13,97,-2,-8,8,-8,-15,-7,-23,-53,1,-26,-11
1490228053626,8,6,-4,36,-32,4,33,18,0,4,-21,-11,-62,-3,39,-29
1490228053673,-29,41,3,-16,-18,-4,-28,-16,1,53,1,8,24,2,-113,0
1490228053722,-8,31,2,-34,24,-4,78,13,5,20,32,-16,-31,1,73,1
1490228053771,23,-13,-15,-12,7,20,-43,-7,-69,-16,-12,-18,-7,96,-14,5
1490228053819,-75,-9,17,12,-26,-100,28,-19,-3,30,36,21,8,-128,-15,4
1490228053868,-45,-5,-3,25,17,-105,54,2,0,-28,-17,-5,0,24,-22,-4
1490228053869,-67,-57,-35,-47,-6,28,-20,-45,17,40,74,78,6,-98,48,-9
1490228053920,41,-4,-64,-88,-38,-104,-31,75,10,-68,-43,-50,-14,-75,-35,7
1490228053966,58,121,113,11,19,125,-6,26,5,-30,-65,-55,-72,94,-3,-9
1490228054015,39,-62,-76,-85,-20,15,-14,5,-25,81,41,-59,-12,30,-3,-8
1490228054063,-27,47,-38,56,6,125,52,33,58,77,31,72,4,56,-43,9
1490228054064,-88,57,87,90,88,-126,43,32,-55,-73,-57,-23,12,-128,-25,-69
1490228054112,-67,1,-89,-48,-43,-52,-18,-36,-81,-81,-128,-128,-66,-34,10,-10
1490228054161,-32,54,58,25,51,-26,12,-56,-13,-5,8,76,23,-56,-36,9
1490228054210,-8,28,95,86,10,-2,-63,9,85,113,127,127,68,42,20,44
1490228054258,-42,-42,-49,-114,-52,-8,-14,26,-33,33,85,77,15,18,-39,-71
1490228054307,-41,31,92,-104,-11,26,-9,70,-22,-98,-84,-18,-26,-5,-34,-45
1490228054311,-77,-61,-77,-62,9,24,-50,-87,45,18,94,-3,-26,-57,-10,11
1490228054356,-75,22,-26,127,-9,-4,-61,-31,6,8,-68,-13,-24,24,30,-23
1490228054405,3,41,-68,-32,11,-6,101,18,68,95,102,42,17,12,12,4
1490228054453,-8,-69,-128,-86,-41,-38,-42,7,-21,-4,53,86,70,37,4,18
1490228054502,66,49,28,-64,-2,-13,4,47,-16,-73,-128,-114,-13,-2,-57,-86
1490228054551,-11,41,68,40,13,14,1,-41,17,63,-7,61,1,-7,50,38
1490228054552,-48,-86,-15,-26,-5,-16,-46,1,-16,-2,23,-13,-27,2,35,12
1490228054600,32,9,-48,36,-4,3,-80,-5,-44,-9,-29,-56,18,-3,-10,1
1490228054648,-23,-13,2,26,-23,3,-2,-20,-100,-21,-34,-81,-18,-6,0,-39
1490228054745,-14,-11,-5,73,-5,-28,83,15,-41,-27,-5,-36,17,7,-77,-40
1490228054794,-50,-21,15,-6,-32,-33,9,-12,25,-14,11,26,31,2,77,-3
1490228054796,-39,-3,6,-17,22,23,85,-9,-47,-4,7,-8,-22,-14,37,17
1490228054801,-67,-12,10,13,-29,-3,52,4,41,-29,9,39,31,31,-14,42
1490228054844,-47,-94,-11,-3,-12,-9,-81,-15,39,-37,-10,-9,-16,32,-15,-21
1490228054892,1,-11,-33,7,-7,-24,-46,13,50,-9,-70,-7,-44,-6,61,16
1490228054941,-76,24,8,-14,10,32,33,-16,34,32,2,-32,6,-10,33,13
1490228054989,-14,-9,-23,19,33,-13,42,49,95,13,-19,-10,-9,19,-46,-2
1490228054990,-24,17,-22,-25,-21,-6,48,15,34,40,-16,-36,-14,9,37,28
1490228055038,14,-17,-54,35,20,32,-30,26,-92,-6,-20,-10,-33,-30,-62,-48
1490228055088,106,29,-11,-40,-2,10,74,50,-32,42,-22,-39,10,14,56,43
1490228055137,-16,-22,-3,-20,-23,-6,18,6,81,75,127,93,38,32,-15,14
1490228055185,72,-33,-67,46,-16,24,-4,-18,-100,-38,-21,-83,-12,-16,24,25
1490228055233,47,70,127,24,-33,-26,-69,39,66,49,-10,82,29,43,70,-3
1490228055234,-19,-58,127,-43,-6,14,55,19,32,78,10,87,28,28,16,27
1490228055282,75,123,127,66,77,39,59,36,54,5,88,127,3,-50,-69,-14
1490228055331,59,-119,-128,-48,-3,16,-4,-14,-128,-55,72,-5,-54,16,-11,-37
1490228055380,-128,-22,-78,-42,38,51,28,-51,2,-113,-120,-68,-40,-26,-49,-27
1490228055428,-128,10,4,12,-64,-65,-17,-29,-53,-47,-97,-82,29,8,0,-24
1490228055430,-120,-111,-48,-27,-37,-28,4,-31,76,87,126,-128,2,111,-25,1
1490228055477,63,52,-41,59,33,-12,20,119,-10,-5,-42,-75,12,42,83,-27
1490228055526,127,-55,-24,-29,-75,-45,-79,2,-128,-34,119,98,6,5,10,-60
1490228055576,-24,-60,60,-67,-29,16,63,53,89,115,-16,-29,-21,12,-12,-82
1490228055623,127,127,114,92,64,-36,-108,-6,-86,38,-57,127,63,39,13,44
1490228055672,-106,-92,-1,28,76,-29,71,-81,127,105,97,-59,14,4,-123,-57
1490228055674,-27,82,94,-10,-7,-30,8,41,-109,-128,-100,64,-78,-3,-80,-61
1490228055723,40,-27,-56,14,-46,55,59,65,-19,-85,10,-33,12,9,15,68
1490228055770,4,-5,19,67,100,52,8,-11,116,57,-108,-107,-123,-36,76,92
1490228055866,-124,47,-46,-110,-41,-30,-124,-32,-60,114,-50,96,20,27,71,40
1490228055868,-70,-103,-88,71,91,4,62,41,58,-27,113,-38,-47,-37,-99,-37
1490228055915,-86,-108,-7,-57,-33,-58,-117,-52,92,59,83,14,-62,-37,107,31
1490228055964,54,-93,-26,-71,-30,-39,14,-15,4,22,79,-32,2,-19,-20,-49
1490228055968,-77,-9,-65,127,60,66,110,0,10,107,-94,-91,-114,10,39,-53
1490228056013,93,62,127,79,44,43,-25,85,-128,-128,49,127,46,54,59,102
1490228056062,-64,-61,117,95,18,-24,21,-88,117,76,-31,-33,61,52,-13,90
1490228056111,-93,-119,5,40,-19,54,24,-52,-15,2,44,-49,-128,-65,-22,-78
1490228056113,-46,-110,-128,-108,37,10,-11,24,-33,-128,44,-128,-50,-18,13,-93
1490228056160,86,-32,-73,-31,11,59,35,34,95,-6,-50,39,-29,-67,-2,32
1490228056209,67,51,-23,-61,13,-12,-8,-12,35,2,16,127,102,37,-31,37
1490228056264,-95,-86,45,-84,-47,33,-17,-8,99,127,125,114,127,38,10,-32
1490228056307,-44,-66,-128,-24,-12,-19,-72,-42,13,-40,44,-68,-128,-76,4,76
1490228056354,-23,-80,-128,-128,-33,2,-33,-36,-128,-40,-128,-128,66,-28,-75,-68
1490228056357,56,29,-74,-56,-108,0,4,-10,-12,-46,-83,-56,107,-17,28,14
1490228056403,92,84,118,120,-18,-8,-16,56,-34,25,-92,99,-99,-21,37,-79
1490228056452,15,-19,-11,127,-46,-42,-62,-33,14,28,3,9,127,11,-27,11
1490228056501,-13,82,76,47,85,-11,88,3,56,12,11,-51,-23,32,-59,16
1490228056549,-5,-45,43,8,77,2,-51,5,77,127,127,127,62,63,107,78
1490228056598,64,88,127,127,110,29,7,21,62,116,83,113,10,49,-4,23
1490228056599,-7,-116,-125,-115,-95,-34,-29,-3,-7,10,-24,-2,-38,-27,71,-37
1490228056647,-94,-128,-128,-128,-28,-99,-2,-38,38,-23,101,18,-128,24,-23,-7
1490228056696,-27,10,-61,-66,-62,20,67,23,-59,-93,-98,-89,5,-12,-4,-36
1490228056745,22,45,127,115,-72,-73,-64,3,27,45,60,1,-70,29,48,3
1490228056793,-70,-47,-86,-103,127,101,-37,-69,-9,6,-8,-54,58,100,11,2
1490228056794,-40,16,48,60,-18,-31,17,-39,4,21,3,67,65,56,-15,1
1490228056842,32,-19,-18,-90,10,96,28,11,-22,-4,-1,12,34,73,-17,-16
1490228056892,18,11,33,-78,5,-10,-50,6,-6,12,68,-23,70,-128,71,-1
1490228056940,14,-3,-10,96,-36,-87,-21,14,-3,-19,-11,-3,-19,-43,41,-11
1490228056989,9,-30,-64,-51,127,-42,39,-9,-18,46,13,12,-65,-30,-69,4
1490228057038,-27,8,35,32,-11,-34,-42,-33,26,18,-22,-62,33,19,53,31
1490228057039,0,3,27,24,-107,-12,51,2,-29,0,-52,16,127,11,-99,-34
1490228057087,64,21,3,2,61,0,73,95,14,24,9,32,-80,-4,71,-36
1490228057135,-18,11,23,73,-40,5,5,-9,-10,-1,-27,-21,-3,3,70,37
1490228057183,40,3,-29,-19,81,4,-106,-8,23,-12,12,54,-80,-3,8,17
1490228057232,-6,42,-3,12,-1,2,36,-3,0,35,3,-10,6,1,22,-18
1490228057233,-57,12,26,5,-102,-6,-13,-23,14,1,-21,-28,80,5,123,34
1490228057281,-18,-29,-2,1,-4,-1,-42,-14,2,6,29,44,-68,-2,-59,-23
1490228057330,9,18,47,4,-8,27,-2,6,38,-16,-34,-56,-19,86,-7,4
1490228057379,-8,60,54,20,-8,115,12,22,-19,-67,40,28,12,113,41,-16
1490228057427,95,59,26,-64,4,-85,48,22,-89,-79,-114,-113,-38,-53,-33,-24
1490228057478,-19,100,6,37,11,-100,36,-1,46,-20,77,10,-11,-107,-35,80
1490228057479,-68,-94,-112,-122,5,-21,-5,-23,38,37,38,31,-13,36,-28,3
1490228057525,-89,-26,-84,69,-9,88,-12,-32,64,11,52,-83,24,61,62,43
1490228057575,31,-28,-40,61,26,14,-63,-45,5,16,55,-52,21,-14,123,69
1490228057670,70,-87,13,-87,-33,107,-27,-2,-30,1,32,119,18,122,113,-23
1490228057674,43,63,-11,-4,2,-109,-102,22,-64,-70,-118,-113,-85,-128,-36,-53
1490228057720,121,63,115,118,44,-40,-26,-42,-45,-20,-34,-46,12,-39,91,7
1490228057723,-105,-48,-71,-33,-18,-17,-9,22,-8,-79,-100,-98,-34,-49,-90,-71
1490228057769,-101,-93,-39,-28,-22,51,118,-20,126,120,92,98,30,51,-84,65
1490228057817,62,95,-8,-28,40,9,-14,-17,56,-76,-34,29,-9,-35,-26,42
1490228057869,-21,-38,-88,48,26,-55,-99,41,-72,35,82,6,13,74,62,34
1490228057914,127,108,64,127,33,-18,29,-9,-128,-83,-128,111,35,-9,-30,-81
1490228057916,-15,26,-117,-92,-52,-33,-21,-1,-7,-92,-22,-107,-31,-7,-5,-4
1490228057963,-15,-62,-69,-79,-50,-45,4,-18,29,-22,-3,-54,-57,12,-30,21
1490228058012,-128,-125,-71,-37,20,1,-15,-1,74,35,-72,-128,-47,-53,-13,-34
1490228058109,-66,57,83,127,21,25,39,14,90,28,126,50,-2,11,49,102
1490228058112,66,12,40,22,42,22,-32,-5,17,58,-38,34,1,21,74,28
1490228058158,56,5,127,82,11,14,58,1,13,63,-102,-62,-8,6,-46,8
1490228058160,-18,-46,-30,-19,-54,-18,3,2,-57,-31,-91,-37,0,-36,-28,-30
1490228058207,112,39,5,-13,-13,-22,47,30,62,-10,58,52,17,5,-7,17
1490228058304,0,-17,0,50,39,-1,12,31,15,4,22,-2,16,30,-2,-11
1490228058306,-27,5,-2,-80,7,2,-97,-35,-31,3,20,-22,-6,23,48,46
1490228058353,26,-5,-4,-21,0,4,-128,-15,-14,-6,-20,7,-3,2,-11,-12
1490228058401,-12,-34,13,37,-8,64,57,9,-71,-6,17,49,33,-27,-43,-2
1490228058403,40,22,-7,-4,-24,-54,23,43,-53,-19,-26,-37,-33,-9,-50,-32
1490228058451,-57,31,-11,-16,-19,18,5,1,116,35,-32,5,23,40,24,16
1490228058500,34,12,-8,2,10,-3,-22,-7,-61,5,8,-26,-28,-7,42,0
1490228058548,3,1,-3,31,16,13,-1,15,13,8,6,15,-9,-9,66,-6
1490228058604,-105,-55,-19,-16,-13,-5,3,-23,50,-10,-25,-5,14,34,1,7
1490228058605,-38,13,-23,-48,-53,-10,-32,-59,-6,54,-21,-12,28,1,-59,17
1490228058646,86,35,26,11,4,2,0,19,-116,-32,-19,-6,-14,-25,0,-53
1490228058695,-128,-53,28,15,11,25,10,-10,126,35,-17,-7,5,0,49,59
1490228058743,-35,-14,-5,11,-11,-19,-32,-20,40,-14,38,24,-13,-18,49,16
1490228058792,-65,2,20,-11,-6,13,28,-1,55,52,44,69,28,33,18,19
1490228058840,0,-31,6,55,4,1,-58,-43,-119,62,-47,-57,-9,-53,-53,-40
1490228058841,127,126,42,93,19,-13,73,30,-104,-31,11,29,26,16,-66,-20
1490228058890,-128,-52,108,65,-15,-27,56,-24,127,127,127,15,36,33,11,45
1490228058938,82,-13,-68,10,-40,-22,-15,13,-124,-101,41,-3,39,24,37,6
1490228058987,-20,42,21,-70,68,114,70,14,127,17,-82,53,-41,-56,4,16
1490228059036,87,86,71,18,-46,-24,-19,-41,27,-75,-70,-118,-88,-89,-53,20
1490228059084,65,-40,-67,-21,-6,-51,-86,9,-42,-23,77,-31,-5,-60,3,-14
1490228059086,-42,-31,124,46,-1,-21,-17,-20,-94,-27,-92,-91,-74,-11,61,18
1490228059133,84,127,127,-69,40,31,-7,12,13,-11,-75,88,-23,2,8,-8
1490228059182,101,49,108,42,38,50,41,12,-40,88,-50,73,39,-16,-50,18
1490228059231,-128,11,21,-3,-11,-12,-49,-16,127,91,74,98,63,73,8,66
1490228059279,-1,-128,-117,-52,-85,-51,33,39,31,54,98,-120,-13,79,-2,-25
1490228059281,-70,23,127,127,54,3,-73,-34,94,-7,-128,-6,-43,45,73,10
1490228059328,108,41,50,24,58,100,93,-44,-128,26,40,74,38,-38,-26,43
1490228059377,-74,60,119,-112,-81,-34,59,51,-128,-57,-128,72,59,17,57,-100
1490228059426,-16,78,12,13,-12,11,103,-86,-25,-101,0,76,-58,-31,-102,27
1490228059475,-33,87,-33,-51,-96,-64,-43,-52,74,-81,-73,-120,39,47,89,-41
1490228059523,61,-9,-116,68,51,-21,65,121,35,-67,-73,-128,-104,-75,-114,-76
1490228059526,113,49,-36,14,88,53,-71,66,73,60,11,-79,-106,-89,-13,-75
1490228059620,-108,16,-7,60,-5,-66,-75,-3,-53,-98,-65,-8,-72,68,-1,10
1490228059624,127,91,65,-128,-51,-73,-60,-80,-105,-106,-84,-128,-82,-84,-44,-69
1490228059670,-47,-89,-49,-20,127,7,78,-34,62,90,-29,-63,-12,60,-18,95
1490228059718,49,-43,-61,101,-32,-19,-69,-24,-70,127,127,125,88,76,-7,27
1490228059720,106,-84,-32,-97,-33,-5,-46,87,-116,92,125,119,-3,-35,15,-72
1490228059767,-128,-7,-68,-46,38,16,-71,5,37,74,-126,-128,22,33,-59,52
1490228059816,110,101,70,54,-71,-86,122,56,96,-13,28,37,30,61,11,20
1490228059864,28,-8,-15,126,98,25,25,-17,117,92,-27,3,-59,19,48,22
1490228059913,-119,-106,102,-128,-85,37,47,-58,88,-90,-90,-29,-35,-52,-51,-80
1490228059962,-128,13,42,127,-6,-66,-74,1,117,63,-50,-55,-108,90,-91,-81
1490228059963,-92,-67,-1,-94,127,100,18,-13,88,-41,-60,-82,-128,-58,37,82
1490228060012,-9,19,-128,-47,-12,-71,-52,-51,-74,49,82,-4,18,77,106,42
1490228060060,-68,-98,22,9,-47,29,21,-20,65,63,99,127,-98,-55,14,31
1490228060108,33,127,-115,94,5,4,21,-15,90,-43,-61,-117,-109,-35,-75,-42
1490228060157,127,85,61,71,90,77,52,29,88,71,-76,-61,-61,-23,16,56
1490228060205,24,-74,-118,-9,-56,-31,-42,-38,-6,-105,7,-63,-44,15,57,20
1490228060206,114,95,67,66,-46,2,53,51,3,15,-58,-35,83,-10,-39,-45
1490228060254,79,75,77,93,17,19,-63,47,-41,-57,-66,-65,-15,11,26,18
1490228060303,45,-23,62,-94,-57,-81,1,-16,-61,27,-57,74,27,66,39,-29
1490228060352,2,-31,43,49,-23,-44,-85,-21,-57,-92,-127,-92,37,29,23,0
1490228060400,-28,48,1,-47,-54,-7,16,-43,16,-23,-77,-34,41,21,-25,24
1490228060402,-3,-96,-95,-103,-2,45,26,36,-85,-128,-128,-128,-128,-62,-83,-51
1490228060450,23,127,80,5,-8,17,-42,-24,-32,-68,-68,-90,-17,4,-5,-10
1490228060498,-29,-13,-73,-84,-45,-40,19,-6,10,-40,-53,-72,92,58,-19,30
1490228060547,-15,-43,-89,-100,-68,-42,35,11,21,5,15,34,-128,35,-13,-1
1490228060596,5,3,-61,-70,6,126,-28,-15,15,42,53,22,84,127,97,22
1490228060644,15,25,18,13,26,32,-2,30,-14,21,26,25,-13,83,50,-3
1490228060646,-28,2,-73,5,8,57,9,-18,2,31,-13,-64,31,113,-43,-3
1490228060694,3,-25,32,-14,21,-40,-18,-20,22,-36,28,22,8,17,-4,32
1490228060742,-4,9,57,117,23,24,-21,-13,-49,-26,-92,-81,43,26,-60,-30
1490228060791,-18,82,62,101,-93,-18,-53,-19,-30,-10,-66,-30,70,-6,1,-19
1490228060840,-9,-40,27,-50,-11,-1,53,6,-31,-59,25,2,-62,5,-79,-24
1490228060890,0,-59,22,58,-116,1,27,-11,38,-28,-91,-87,112,-1,46,26
1490228060891,33,58,90,70,-20,-4,71,17,-10,33,16,-25,-36,2,-37,-5
1490228060940,-25,-7,-45,-44,99,0,-39,-8,-11,17,-9,34,-31,-2,1,-10
1490228060986,7,36,13,32,4,-1,-33,-6,-11,-6,27,76,15,-4,-22,-24
1490228061035,26,-14,-4,42,-31,3,31,34,20,7,-23,-62,-73,-2,60,7
1490228061083,9,14,-14,-42,59,4,-128,13,18,20,-6,-1,34,4,-77,5
1490228061084,13,31,18,12,-51,-1,108,4,-8,2,-12,11,121,0,33,-6
1490228061132,-9,-36,-19,-24,-19,0,13,1,-11,-30,-7,-22,-33,4,-50,32
1490228061182,-11,-23,-30,-31,-7,-2,-4,20,-15,-17,-22,-12,2,0,-22,-31
1490228061230,-57,-57,-6,6,-26,-1,-8,4,-9,-11,-35,-30,-43,13,-26,5
1490228061280,10,9,-11,3,-21,-56,47,-23,21,12,41,46,29,59,5,63
1490228061328,-64,-6,60,3,24,-39,26,-9,-23,-5,-15,61,-19,-79,9,-18
1490228061329,-28,-12,-17,-30,-19,-17,-29,-47,-13,59,13,-49,-24,48,-84,-20
1490228061376,-120,5,74,-44,-57,114,-77,-54,49,17,-76,-1,27,112,11,29
1490228061425,63,21,-17,72,55,118,-3,-20,3,-39,44,25,1,101,24,38
1490228061473,-5,57,120,11,-1,-38,4,-28,42,84,63,101,35,-110,75,33
1490228061522,-3,-29,73,-62,-26,-100,-106,-68,23,96,109,83,18,-128,8,-20
1490228061570,89,-82,-53,-67,-65,13,-12,23,-95,8,31,64,-24,61,-81,-40
1490228061572,-25,11,127,127,68,52,20,62,64,32,89,85,72,96,-29,-23
1490228061620,-87,-90,-128,-98,1,39,-28,-4,7,-49,89,4,5,65,29,10
1490228061671,109,127,-46,67,6,-16,-79,-18,-59,-44,78,88,35,15,56,31
1490228061717,60,30,80,68,19,1,-13,12,57,-107,-128,-113,-9,30,2,30
1490228061765,-128,-51,37,-11,18,-15,12,65,127,127,127,127,54,6,73,-43
1490228061767,21,12,-73,66,9,-2,16,28,-121,-128,-128,-128,-115,-70,-78,-16
1490228061815,26,-17,-14,-59,22,-13,21,15,98,0,-54,0,16,11,5,27
1490228061863,10,-39,-4,106,10,12,10,11,-111,-70,-105,-43,-47,-23,-37,-79
1490228061913,44,107,100,17,-9,29,-4,-32,-128,19,86,123,31,22,20,70
1490228061961,-2,-28,-79,-52,-41,-26,-85,-83,93,-9,-76,-102,-42,-2,15,8
1490228062009,-73,-128,-31,-70,-35,-28,-58,29,25,54,29,59,-11,12,-23,-78
1490228062012,18,-8,-24,-2,-20,-30,-2,4,27,23,2,-113,-4,14,-8,-32
1490228062058,-36,-14,9,-20,-44,-6,42,-16,31,-4,-51,-31,-26,-6,-43,4
1490228062107,88,34,-12,-35,5,30,8,33,-38,-20,-55,29,-16,4,8,6
1490228062156,52,26,-74,-90,1,-19,105,19,-12,-45,10,40,34,-6,0,-16
1490228062204,17,28,65,27,-1,2,-56,-11,43,25,-32,-6,6,32,115,54
1490228062253,41,-11,-14,-16,2,-13,21,5,61,-11,-40,2,-9,-54,-102,-38
1490228062256,-22,0,-10,9,30,6,40,3,21,24,-10,58,40,-22,-39,-14
1490228062302,-16,15,14,5,-11,24,48,32,9,-6,-14,13,2,2,-46,14
1490228062351,-8,13,9,16,-6,-14,3,-12,-9,-8,-25,-59,-89,-13,-17,0
1490228062400,-55,-49,7,20,13,19,3,-10,7,-17,13,-13,-13,-4,-47,8
1490228062448,19,-7,-9,5,-5,4,31,10,-96,-11,-5,-26,-16,23,46,-5
1490228062449,106,36,6,-25,-2,-3,24,25,1,21,5,-16,-15,-20,-16,4
1490228062497,-120,-34,-7,19,2,0,-31,-26,-107,-19,-20,-26,-17,11,33,-12
1490228062546,-16,16,-67,-20,7,31,43,-7,3,24,9,-23,-16,-11,-17,-11
1490228062594,-53,-29,-57,1,11,11,40,-1,74,80,83,19,9,16,-40,22
1490228062643,77,13,75,5,-3,4,-69,23,28,-5,-55,-29,-35,-38,4,-24
1490228062691,-82,-26,-3,-12,-11,26,64,1,109,-38,-23,-25,-3,10,-57,-64
1490228062693,100,-41,-128,27,-45,-15,62,27,-128,49,62,-34,-40,-22,-27,47
1490228062741,-102,-88,127,-24,-4,14,-2,-55,82,54,46,75,65,29,-64,2
1490228062790,20,119,127,44,-37,-39,0,-16,-116,-24,127,127,38,9,-1,-62
1490228062842,-45,29,-25,23,79,67,-52,5,-93,121,-81,75,56,16,-7,-17
1490228062886,-128,-113,52,34,14,26,3,-12,22,80,2,124,35,72,60,-16
1490228062888,-120,-79,-68,-73,18,-27,-42,71,28,-92,16,-69,-49,-18,-72,5
1490228062936,121,95,29,21,19,80,-61,6,52,-9,-128,48,49,-12,-6,19
1490228062985,46,59,60,61,34,-7,22,-111,-17,-35,-2,9,29,73,-10,-10
1490228063034,-76,-34,-117,-56,1,56,-38,-13,82,-66,-93,-115,-52,-79,-9,-41
1490228063083,-128,-71,25,-38,-63,-71,27,-29,22,-62,-78,42,-7,54,86,42
1490228063130,-10,71,127,-86,-35,-43,-128,45,15,-125,-104,127,34,-27,8,6
1490228063133,100,44,-128,2,-15,-6,-43,23,-53,-58,-55,-73,-65,-40,-4,9
1490228063180,31,56,-86,2,-33,-59,-56,43,-87,-35,-3,-67,0,77,74,20
1490228063228,81,88,-25,49,26,38,73,16,119,-59,-12,69,47,40,33,-9
1490228063277,-56,26,56,25,-48,-32,-31,-5,17,127,127,68,104,7,88,-18
1490228063326,-69,-128,-41,-119,-116,-18,-25,-107,-9,127,114,-17,2,-32,-128,-5
1490228063374,2,-128,-109,-55,16,-65,65,11,-85,7,-107,-128,-122,-19,12,-42
1490228063423,126,61,-66,-53,6,61,-64,49,-128,-97,64,75,53,-63,-35,12
1490228063425,36,-19,-64,-101,-128,-2,-22,-16,98,76,69,63,15,-15,42,6
1490228063473,-128,-128,78,-108,-43,23,53,50,26,96,-54,-24,-76,-5,-68,-88
1490228063521,25,127,123,-43,74,51,-68,-36,-128,52,57,99,-49,-128,62,55
1490228063569,-3,-22,-80,-41,-2,10,55,-61,-98,-91,-116,-21,107,36,49,-45
1490228063571,71,-35,43,-17,-96,-111,-43,-7,127,-50,51,-43,-9,47,74,34
1490228063618,-78,57,-1,5,20,33,-40,2,94,-95,76,100,66,60,-29,-1
1490228063667,9,75,-17,-96,-96,-8,103,65,104,54,60,-44,50,7,-71,-36
1490228063716,-17,-35,-116,-67,116,21,-48,-32,7,53,59,52,22,6,-29,-9
1490228063765,-128,-87,-80,-18,38,56,7,-10,-128,-128,-73,-128,-92,-75,-128,-89
1490228063813,43,127,75,127,90,81,35,-22,27,85,17,18,100,24,33,43
1490228063814,5,-106,-68,-100,-116,-79,-20,-103,38,44,47,-72,-20,20,-3,25
1490228063862,59,119,127,78,9,10,2,44,-72,-26,64,10,-47,42,81,16
1490228063911,-47,-17,2,-41,111,34,-24,-47,100,127,34,-45,-128,-41,8,72
1490228063960,10,33,37,68,48,13,34,24,-70,-2,-25,-17,-23,-42,-1,10
1490228064008,93,37,19,-35,-16,29,-2,106,-22,8,127,7,-103,-25,-23,-55
1490228064058,12,-34,1,37,-47,-39,16,-7,63,38,48,85,24,-2,25,0
1490228064059,-10,-42,-71,-97,96,56,-41,21,24,-15,-26,-2,20,43,14,24
1490228064105,-9,-104,-120,-107,-125,-24,13,-5,-75,-120,-93,-15,-61,-49,-41,-10
1490228064154,0,-79,-38,-38,0,-58,-33,-27,-36,56,43,55,-64,36,-41,-13
1490228064203,-19,32,-37,-73,-101,-74,-26,-19,-41,-95,-65,30,1,31,68,-18
1490228064252,-34,-65,-74,-64,-34,24,13,-12,-2,39,63,59,-15,-49,-68,-8
1490228064254,34,58,66,19,-128,8,31,45,-46,-25,-7,-101,-14,16,-38,-8
1490228064301,57,110,115,66,-71,-86,-25,-6,34,37,58,44,30,19,-30,22
1490228064350,-34,-60,-55,-23,-91,-1,-15,-3,29,-47,-34,34,-110,-60,-16,-15
1490228064398,-11,-54,-62,-48,-61,-82,22,14,-28,-55,-74,-92,-22,-125,-112,-33
1490228064447,-24,2,-6,24,-4,-85,48,6,-8,11,37,81,52,-37,20,-7
1490228064495,17,33,12,-38,90,127,45,9,50,55,102,-14,4,-27,-2,23
1490228064496,-14,8,-19,3,84,29,-7,-27,5,-13,-49,-71,0,-24,9,3
1490228064544,-3,25,2,-19,22,54,-10,11,39,10,28,22,-26,-81,17,14
1490228064599,-56,-25,29,34,-93,-82,-71,-71,30,-3,12,25,51,-20,93,82
1490228064642,0,-17,4,15,-16,80,46,-16,5,3,45,127,-31,112,-83,-3
1490228064691,12,0,3,-22,38,-79,-57,-10,-2,19,-26,42,91,-61,54,-2
1490228064739,12,17,11,-36,-76,-17,51,6,0,-31,-36,17,84,18,70,21
1490228064740,17,19,20,27,-52,4,40,30,-20,14,-48,-11,41,8,51,-26
1490228064788,-67,-19,-42,-6,127,-1,83,-30,43,41,-10,14,24,0,-13,14
1490228064837,-3,-4,14,50,-15,2,-75,-21,1,-7,35,59,-88,7,62,25
1490228064886,22,32,44,34,19,2,-17,12,-5,8,2,4,8,0,-90,-36
1490228064934,-42,14,21,79,-10,-7,49,-8,14,-13,-12,-24,13,-4,-95,-10
1490228064936,5,6,-26,-17,123,-3,-103,-10,8,-37,-13,16,-17,1,-121,-5
1490228064984,-17,23,-12,14,-44,-4,50,-12,-5,54,19,26,32,0,51,-9
1490228065032,-7,4,19,15,25,-5,-72,-7,6,13,-1,-33,-18,-3,-124,-8
1490228065081,-22,-34,-18,-29,-55,-2,-9,4,-16,-4,29,35,25,4,-33,-8
1490228065130,-12,-18,6,-2,14,-1,-22,-40,10,-8,9,13,-54,100,2,7
1490228065178,6,-7,-24,-9,-41,35,-6,8,-19,-3,-60,-61,-38,85,10,-41
1490228065179,-31,-32,-18,-14,3,127,7,4,-50,-5,-21,3,5,72,7,20
1490228065227,77,52,35,23,44,-91,-20,-25,-53,-11,72,-19,-30,-56,-44,27
1490228065276,20,-56,-17,53,-2,-128,-14,-41,119,81,20,16,6,-124,-10,11
1490228065324,-59,-26,-108,-67,-56,3,-20,13,8,-33,-14,57,42,67,-5,-81
1490228065373,103,114,96,127,87,75,39,96,-62,-70,33,-79,-24,62,25,15
1490228065375,85,57,-54,-84,-26,127,82,-10,14,-29,-92,2,35,127,8,-37
1490228065422,36,32,75,124,81,-88,39,-11,-39,14,75,95,-6,-56,-57,-18
1490228065471,-63,-23,66,-45,-18,-53,-86,-16,1,114,127,127,105,-73,49,94
1490228065519,-20,-99,-47,118,13,75,41,-17,61,-95,-128,-128,-38,41,-53,-41
1490228065568,-82,-11,31,-65,-5,38,21,96,27,-53,-95,-53,-9,5,7,-12
1490228065616,-67,69,61,66,19,-2,-9,6,2,-57,-18,18,-16,-6,78,39
1490228065618,-8,-89,-88,-128,-74,-72,-46,-1,39,107,127,127,26,9,-66,-69
1490228065666,11,40,-74,-29,-20,0,-9,35,80,127,127,123,59,28,17,51
1490228065714,-88,-71,-86,55,22,-9,55,-11,88,39,101,-42,-7,0,48,-41
1490228065764,19,-10,85,-112,-9,-16,-9,17,52,-25,-91,-75,-27,-18,-60,3
1490228065812,34,-20,51,8,21,-2,-4,45,-66,-27,-63,-72,-45,14,-7,-28
1490228065863,95,-85,-34,-80,-91,-32,17,-27,-96,48,113,114,20,45,-25,37
1490228065864,-107,-48,-63,82,25,36,-21,-44,7,49,17,-16,3,2,68,-14
1490228065910,77,73,49,28,20,3,-84,66,-128,-53,110,104,35,4,21,-67
1490228065958,-53,-39,78,-87,-27,-28,3,-95,-23,-56,-127,-121,-80,-38,-15,-14
1490228066007,51,-26,-100,-27,-31,-9,44,-14,-70,-42,-3,-52,-3,19,-11,32
1490228066055,13,79,31,-9,26,26,41,4,22,43,100,49,26,25,-64,-40
1490228066056,49,32,30,90,83,15,73,23,13,-18,-2,14,0,12,-13,11
1490228066104,25,-59,-3,-25,-12,0,-18,10,116,63,27,16,3,-25,-55,-12
1490228066154,-45,10,62,42,-49,-10,53,13,-5,-33,-51,38,79,-4,-69,0
1490228066202,-93,15,-20,-25,-13,-16,3,-31,-74,-32,-39,-54,-16,16,3,-7
1490228066251,90,-14,-29,-12,-21,-9,38,-1,-128,-15,-45,-76,-37,-32,4,-2
1490228066299,8,29,31,49,2,28,-25,-19,-51,-9,20,29,0,-6,0,-19
1490228066300,-31,-2,4,17,21,-5,-29,17,-58,-36,2,-12,5,-36,-27,-9
1490228066348,5,41,9,35,-5,-6,-20,9,22,15,-4,9,8,47,15,-10
1490228066397,13,16,21,-6,10,-21,-19,-44,41,55,11,47,10,-17,-8,15
1490228066446,-62,-56,-4,-10,12,-6,23,-7,116,25,17,8,0,-14,33,34
1490228066494,61,26,18,23,21,12,-21,9,-57,-16,-4,-22,-24,19,33,10
1490228066542,51,11,-10,-10,-17,-43,-22,-23,30,7,8,-6,14,32,74,23
1490228066543,-39,-9,-5,-23,2,-7,-105,-41,-30,-29,13,-12,-1,-11,-78,-13
1490228066592,-28,11,27,15,0,-6,37,-9,92,54,13,15,2,-1,-20,-28
1490228066640,34,40,-9,-41,-12,-24,-42,-27,-8,8,-40,8,-6,4,-38,-12
1490228066690,-5,-12,-10,25,-9,-22,67,33,7,-37,-58,-61,9,38,-14,7
1490228066738,-64,-85,39,-93,-2,14,-55,27,-20,52,-35,24,-25,5,-52,-32
1490228066739,20,36,-73,4,-49,-97,88,-16,-128,-101,7,30,56,48,-24,-28
1490228066787,14,-44,30,127,40,57,70,11,-86,51,127,104,89,46,-75,-93
1490228066836,93,-35,31,74,-1,-17,43,15,127,127,124,64,69,33,27,49
1490228066885,-72,82,-11,79,118,88,-72,51,96,92,-35,-84,-55,-81,-23,9
1490228066934,-34,-110,-86,-95,-6,12,-39,8,-29,12,115,122,24,-23,-73,-44
1490228066981,-42,-32,-96,-83,-31,-14,-18,-86,30,-126,69,-54,0,-12,18,30
1490228066982,94,-11,66,-62,-39,-19,-3,-6,-93,-19,46,58,-61,-58,49,58
1490228067031,5,-3,-59,51,-26,-49,-63,-7,-66,-66,-67,-75,-3,60,53,-54
1490228067080,58,127,124,123,74,127,127,50,-44,-70,-116,76,59,24,-26,-37
1490228067128,97,24,50,-3,-41,-73,-28,-6,105,77,-5,-16,-6,63,86,19
1490228067178,78,61,-56,-128,-22,-39,4,-10,-120,59,80,103,-25,37,-48,-22
1490228067225,-54,-8,8,-63,-60,36,22,7,52,51,127,17,29,0,43,42
1490228067226,-77,74,18,-39,68,50,-51,-63,53,-48,-124,-21,-101,-47,30,58
1490228067274,127,104,-128,12,-94,-108,-27,46,-58,-128,-114,-18,55,61,-79,-37
1490228067323,37,66,-8,93,-63,21,48,70,-128,-103,-2,58,37,-32,4,-11
1490228067374,79,8,83,73,16,53,15,-90,-111,47,127,60,48,33,-45,78
1490228067420,-126,-50,-7,-102,-25,-1,-126,7,127,-29,-14,-83,-42,-87,-100,-51
1490228067423,60,-20,2,-46,-25,59,93,4,49,-53,-128,-128,-24,68,-4,48
1490228067469,84,116,101,63,20,-32,4,101,-36,-83,-28,-87,-36,34,-23,-55
1490228067518,17,-12,73,85,84,-24,-30,79,81,121,66,-24,-99,-13,127,-5
1490228067567,-128,-92,-113,-58,-72,-62,-64,-22,10,-128,70,-76,-31,18,44,-12
1490228067616,42,44,77,-52,-68,-21,-125,-102,63,-98,54,43,-128,-50,5,10
1490228067664,-117,-77,28,-13,-87,-45,-32,13,-75,98,9,23,18,-9,-3,-56
1490228067666,-103,-17,-49,-51,-30,-72,-28,-58,76,-24,-128,-123,27,82,6,7
1490228067713,-41,45,-39,68,24,-31,-28,-57,-128,-73,-57,-10,-101,-61,-8,-70
1490228067762,-99,-119,113,70,69,20,20,15,127,127,54,120,89,36,-77,14
1490228067811,21,-80,0,-121,-128,-75,-1,25,68,-21,69,11,-35,29,36,45
1490228067859,51,121,45,-66,32,40,38,62,4,-4,127,127,96,28,9,-4
1490228067907,-44,-99,-53,-92,26,-34,-27,-71,-8,-3,-128,-124,22,47,100,11
1490228067909,-83,-110,-128,-19,-40,-56,23,-3,-18,25,74,-81,-48,-16,87,89
1490228067958,24,78,-98,-68,-113,35,-53,46,30,-29,94,-10,-48,-33,22,19
1490228068006,74,81,25,59,-21,2,127,86,-81,83,23,47,-42,68,30,-80
1490228068056,-124,-100,117,97,12,78,-24,38,29,-27,-128,-86,-42,18,54,5
1490228068103,-92,-5,53,71,34,-13,-82,-22,-7,89,-90,-128,-100,-73,-2,29
1490228068104,127,-61,-128,-61,-6,-14,10,-33,-120,-103,-87,47,54,1,30,-5
1490228068152,-46,39,-104,-89,-98,-43,-18,0,-87,-64,-66,15,66,-10,-57,-28
1490228068201,127,99,-22,-45,-72,-4,20,59,-89,-63,-80,38,38,-9,-90,-90
1490228068250,-96,-113,127,-83,-128,0,6,-19,-13,38,102,-73,84,-12,-60,-13
1490228068298,-8,-67,83,-78,-4,-71,-45,-55,30,81,55,115,-41,-38,-40,35
1490228068346,-5,118,110,100,45,-23,30,2,32,0,23,-75,-22,53,6,7
1490228068347,0,81,97,79,-23,78,29,18,56,67,20,127,-80,-74,-6,-14
1490228068445,-21,6,-102,-70,-1,-47,-41,-29,30,-54,97,-62,1,-1,30,26
1490228068447,31,-1,-81,86,31,31,-27,-1,-12,111,26,6,-96,-40,32,37
1490228068496,-50,-85,-64,-86,-54,-75,-84,-27,16,19,-35,-27,-34,2,-33,0
1490228068541,28,6,9,23,-128,-45,46,16,-32,-26,3,40,127,25,-12,-11
1490228068543,-50,5,9,-72,-15,-13,-36,-33,-6,-36,-11,30,-44,-58,-88,-28
1490228068591,-14,-27,-12,-57,63,21,99,22,-10,-16,-20,-38,-30,-55,9,-3
1490228068639,38,21,-3,65,52,-55,3,32,-9,9,17,13,-19,-76,-20,7
1490228068688,-19,-11,-7,-33,3,20,22,5,4,10,7,2,68,18,72,-8
1490228068737,-2,16,21,0,22,98,-84,-42,-4,5,-16,-46,-33,-9,-7,-17
1490228068785,9,30,98,93,0,-121,25,23,-32,-53,-16,-113,28,-59,-128,-74
1490228068786,16,-13,4,-40,-18,-72,-1,8,5,-20,-5,72,56,101,36,16
1490228068835,1,33,38,47,-33,-19,0,1,-13,37,-3,6,-54,-44,-60,-6
1490228068886,-24,-13,-20,29,57,2,-66,2,-1,24,12,48,-79,-7,123,18
1490228068932,-24,-4,-54,-52,45,3,127,-13,-14,-18,-42,0,11,-14,-82,-6
1490228068981,38,23,54,38,12,6,92,31,11,4,13,65,37,-3,67,4
1490228069029,-3,-36,-25,-91,127,-2,15,-16,22,-32,23,-7,-115,1,-49,-4
1490228069030,12,4,25,85,1,1,41,9,-15,-10,-9,-30,41,0,-26,16
1490228069078,-41,-29,-46,-10,-50,1,4,-3,-5,-24,3,7,-39,2,-60,-23
1490228069127,-45,13,16,22,-15,2,-17,6,-24,7,-31,2,-6,0,-37,1
1490228069176,22,-7,15,4,11,2,-84,5,2,-1,13,24,58,1,57,15
1490228069224,9,-1,-3,11,34,-9,29,-3,-7,40,37,-8,-47,-3,-68,12
1490228069226,-11,-11,14,42,2,-1,26,9,-34,-25,-24,-41,-34,-3,-9,-14
1490228069273,-17,-23,-5,7,0,-6,-6,-5,32,-20,-3,-8,40,4,-72,5
1490228069322,4,-3,8,-28,-64,2,-52,-10,7,-12,4,18,59,2,36,14
1490228069371,3,-3,-15,-11,-12,-15,25,20,-25,-9,0,-18,-4,-10,-2,7
1490228069468,-3,-11,-13,8,25,-33,6,1,-18,-15,-25,-11,13,-112,20,-26
1490228069469,3,-5,-21,-20,-24,19,-64,-79,25,-1,11,60,42,110,88,35
1490228069470,-30,10,-30,-10,-17,127,19,-5,52,76,39,-6,34,51,23,11
1490228069519,0,41,21,27,-34,90,21,8,-62,-26,-65,-93,9,17,-56,1
1490228069570,49,-59,-85,7,1,-18,-28,-14,58,-20,-58,-61,-21,-128,11,-20
1490228069615,33,1,75,85,77,-44,-62,12,54,25,-50,107,19,-18,-9,27
1490228069663,4,-29,-95,-128,-41,-23,-66,-5,46,102,65,-46,25,2,-34,23
1490228069711,70,65,79,115,28,-3,83,46,-70,-68,-126,-92,7,120,-2,-58
1490228069713,-71,-114,-84,-90,-119,53,21,45,-74,2,-90,-38,-112,-61,-128,-85
1490228069761,-5,127,112,127,49,-52,24,49,-13,-83,127,115,50,1,-29,-7
1490228069810,-56,27,127,67,16,-66,-27,70,-56,36,21,127,55,-112,-97,-69
1490228069858,23,-60,-128,-114,-105,67,71,-48,92,-82,-79,-106,-27,95,53,29
1490228069906,-128,-108,-77,-108,-28,-40,-81,-49,127,127,127,71,26,27,26,32
1490228069908,93,-52,-20,63,57,-23,68,8,127,114,103,125,-15,-40,-45,-128
1490228069956,66,-57,-51,-128,-46,14,-62,-35,-6,126,127,127,57,32,60,81
1490228070004,96,127,115,127,97,29,27,28,82,-67,-66,-45,54,36,5,-18
1490228070053,-128,-47,9,23,-13,-9,10,-35,17,28,-10,55,26,-3,-41,85
1490228070107,-87,-56,-128,-125,-31,0,1,-29,46,1,-67,39,27,8,68,43
1490228070151,74,61,14,-19,-18,6,71,77,92,-53,64,36,2,30,-12,-48
1490228070152,-2,53,-37,-20,1,10,25,68,-83,-33,-11,0,2,-19,-56,-31
1490228070199,-111,13,-64,-67,26,2,-39,-68,25,93,95,70,4,17,65,6
1490228070248,12,71,127,50,-7,-6,-23,-3,17,0,89,68,54,39,-62,-3
1490228070297,-113,-28,74,103,7,-26,-43,-69,81,-9,73,59,22,-30,68,9
1490228070346,-69,19,96,84,1,1,53,-63,32,47,-53,-10,19,4,19,61
1490228070394,58,-11,13,41,73,-5,-77,-56,4,39,-38,14,12,-4,-4,45
1490228070396,100,80,8,-23,-33,4,127,17,-41,22,116,76,5,25,-26,14
1490228070491,41,24,-16,-44,-25,-21,48,84,38,-45,-2,-32,7,68,-44,-128
1490228070493,-99,-89,7,20,-1,7,-11,50,102,43,19,-11,-29,-30,-40,-20
1490228070541,-6,-27,13,2,-15,26,124,70,-101,-25,-9,7,28,5,-99,-26
1490228070588,94,-27,26,-19,-3,-3,30,-2,9,15,-79,33,0,-20,-33,18
1490228070590,-11,-38,-7,3,-13,19,5,-12,11,-6,-27,-54,3,20,97,-25
1490228070638,-24,-8,-35,0,-6,3,-23,-40,-53,-43,3,10,-12,14,-3,-6
1490228070688,-24,-16,-13,-14,-34,-4,-24,-21,11,21,-3,-72,-16,-10,93,24
1490228070736,-35,3,-8,-2,-9,17,-13,-8,-80,3,-12,3,16,-44,-7,-3
1490228070785,-56,-29,12,2,10,6,-47,-16,18,-11,-15,-25,-26,-41,-95,18
1490228070833,48,19,3,11,25,-13,-90,26,-14,7,16,11,-31,-48,-29,4
1490228070836,8,-2,-5,-21,-26,43,-28,17,-14,8,12,-15,5,-35,43,-2
1490228070882,-1,5,-4,-5,-26,3,-3,-16,-5,-9,-14,-11,30,-20,-11,14
1490228070931,-52,-23,-27,-20,10,19,61,-3,40,7,5,-7,-23,-13,-49,-25
1490228070979,-44,-2,-11,7,9,8,-104,-48,21,11,11,24,11,-26,35,29
1490228071028,127,20,-8,-4,12,-21,-24,46,-40,0,4,-8,-5,21,5,-7
1490228071029,24,14,10,-14,-16,25,67,28,-31,-16,-17,-10,32,-10,-33,-5
1490228071077,-23,-4,2,-28,-17,-4,-96,-10,11,5,-2,2,17,25,44,21
1490228071126,-95,-29,-6,6,-13,14,67,-12,29,-3,4,-17,-9,-11,-64,8
1490228071174,4,-3,4,26,4,-25,-41,13,-58,1,6,-5,-14,-12,-58,-54
1490228071223,-17,-6,-9,27,62,5,-96,-31,82,12,1,-5,-34,7,20,45
1490228071272,-39,7,4,-1,-25,9,-3,-18,-17,-13,-3,-14,-44,15,6,-32
1490228071275,-24,-22,-5,-41,-72,-7,26,30,-70,0,13,38,43,27,11,-29
1490228071321,-45,-6,2,1,19,8,-6,-2,-62,-15,-2,-3,-55,-9,-9,7
1490228071370,-30,-15,-7,-24,-30,-19,-56,-19,8,-3,-1,-5,32,-7,4,6
1490228071418,-31,-4,-15,-29,-50,-35,19,-1,37,15,5,-10,36,25,-21,-1
1490228071515,82,8,-8,1,15,7,-33,-9,-16,-11,-11,-16,15,5,36,-19
1490228071516,-59,-29,-23,-17,-12,1,-34,41,113,34,-3,-23,14,20,108,45
1490228071517,-38,-3,6,6,8,-17,-51,-32,72,10,17,-13,-75,-27,40,72
1490228071564,18,3,-2,59,115,45,37,3,120,17,-6,9,0,5,-35,26
1490228071661,-15,-15,1,-6,-9,10,54,17,-69,-3,-10,-29,-33,13,-47,-26
1490228071662,-39,-2,-7,0,52,11,1,11,-21,-3,-4,-13,-35,-11,19,-9
1490228071710,22,3,-11,26,49,-2,-18,9,-26,18,8,11,17,4,54,23
1490228071711,85,28,20,26,17,13,17,3,-25,-7,6,-14,-76,-9,-66,-24
1490228071759,-128,-31,4,-27,-104,-10,19,-50,127,46,9,12,61,25,-8,77
1490228071808,32,9,13,21,33,3,18,7,-50,-25,-7,-29,0,6,7,-26
1490228071857,73,13,10,30,0,-25,61,46,22,9,0,5,-21,17,-4,-4
1490228071906,6,2,-8,-7,-7,8,-31,-23,-23,-27,-1,-8,-13,13,101,41
1490228071954,1,-5,-12,1,11,-12,-25,-20,-37,-1,-11,9,61,40,0,-8
1490228071957,-70,-5,4,-47,-97,-30,0,-41,37,-11,-1,44,66,-4,28,60
1490228072003,55,12,-3,-9,-46,19,48,21,-118,-15,-2,3,27,-14,7,-62
1490228072051,29,13,8,3,-8,30,-5,26,79,8,-4,-26,-47,16,-4,-2
