1491695794781,0,11,13,67,34,56,71,-70,36
1491695794781,0,-18,-37,79,17,-31,-50,65,53
1491695794783,1,12,-21,-100,-99,-71,-55,42,-64
1491695794783,1,4,-28,110,114,-44,-70,76,-31
1491695794784,2,-7,28,-9,-102,40,-5,11,-64
1491695794784,2,13,23,-9,-93,-9,10,-4,21
1491695794829,3,-19,2,27,79,67,-59,-44,7
1491695794829,3,30,54,-14,37,60,110,14,-3
1491695794831,0,-30,-30,-58,-4,-69,-47,-23,14
1491695794831,0,23,24,-9,-23,-2,-11,2,0
1491695794832,1,-7,8,34,-39,-7,-22,-7,5
1491695794832,1,13,1,-43,-11,30,66,-1,-2
1491695794833,2,5,-3,-20,70,127,43,41,-3
1491695794833,2,16,3,53,-10,-102,-60,-49,9
1491695794878,3,-10,8,19,-24,127,42,6,-4
1491695794878,3,-22,-37,-79,-112,-85,98,-54,-6
1491695794880,0,1,-20,6,-6,9,-41,34,18
1491695794880,0,0,7,-82,11,127,24,3,-25
1491695794891,1,0,-3,91,98,-123,-6,-10,10
1491695794891,1,-8,2,89,14,45,-89,4,10
1491695794927,2,25,32,-38,40,-29,94,-8,-3
1491695794927,2,-20,-30,-39,10,5,-21,12,-23
1491695794975,3,-18,12,12,-51,5,-13,-15,-19
1491695794975,3,31,23,24,12,-42,18,0,26
1491695794977,0,3,3,-27,-126,36,53,38,3
1491695794977,0,-12,-7,49,114,-43,-3,31,-22
1491695795073,2,-9,-16,16,71,66,-14,55,-4
1491695795073,2,-12,-11,-52,-49,1,16,-104,-6
1491695795075,3,-3,-3,-30,-42,-25,81,114,12
1491695795075,3,-19,-25,14,27,-44,-34,-34,-8
1491695795122,0,20,36,35,-75,-85,-38,-10,7
1491695795122,0,-4,-8,-12,107,75,-41,-2,-11
1491695795171,3,-26,-35,-47,22,-58,-75,-92,1
1491695795171,3,16,25,-79,6,127,12,60,2
1491695795172,0,7,-13,14,113,78,37,1,-20
1491695795172,0,-11,-8,15,-67,-89,16,43,13
1491695795173,1,6,-11,95,68,-47,-83,-32,18
1491695795173,1,-3,2,-128,-128,109,56,30,-16
1491695795174,2,-4,12,104,127,-41,-48,-15,11
1491695795174,2,-27,-33,-31,45,15,-9,-32,-21
1491695795219,1,27,20,2,-38,127,63,12,27
1491695795219,1,21,32,8,37,-82,27,-8,-25
1491695795220,2,13,21,-80,-113,-7,-36,24,14
1491695795220,2,2,4,-31,8,89,63,-6,-14
1491695795221,3,-20,-31,-91,-9,-128,-82,-9,-20
1491695795221,3,-17,-22,-17,-1,73,-1,-25,-62
1491695795223,0,31,16,18,50,74,-25,26,70
1491695795223,0,-2,6,14,56,9,97,13,-21
1491695795268,1,9,1,-44,-81,-40,56,-6,0
1491695795268,1,-19,-25,-104,-103,-128,-108,-20,-9
1491695795269,2,-14,3,93,36,127,74,4,-15
1491695795269,2,13,13,-5,-55,-111,1,-5,-4
1491695795270,0,-14,-20,-82,-46,-121,-44,-27,-2
1491695795270,0,-10,-19,-46,-1,21,-49,-8,19
1491695795271,1,6,19,39,-53,101,-67,-3,-18
1491695795271,1,4,7,0,-29,-116,77,80,19
1491695795317,2,1,10,12,47,92,14,-61,-13
1491695795317,2,-6,-6,11,30,50,-47,-11,2
1491695795319,3,-1,0,-62,-48,32,-22,5,-16
1491695795319,3,8,-2,99,121,-57,-37,15,14
1491695795320,1,4,18,-66,11,-54,-41,-42,11
1491695795320,1,0,-7,31,50,57,-6,-17,-4
1491695795365,2,-17,-17,-10,-61,-62,97,27,-22
1491695795365,2,-3,-6,5,19,-3,-66,-21,-2
1491695795366,3,3,1,82,85,-52,45,1,18
1491695795366,3,11,39,-30,-128,50,70,12,-17
1491695795367,0,-12,-21,-100,52,3,1,-15,-15
1491695795367,0,5,10,121,82,-10,-25,10,8
1491695795368,2,-11,30,87,-8,-14,42,-11,-15
1491695795368,2,26,24,33,87,-68,-2,-38,7
1491695795609,3,-2,6,66,51,-54,-100,-12,-15
1491695795609,3,-9,-23,-59,-67,-8,-21,-21,11
1491695795611,0,21,25,-74,-82,32,101,21,-10
1491695795611,0,-14,-21,32,73,-40,-35,15,-5
1491695795612,1,-5,-13,-6,-89,14,48,3,-2
1491695795612,1,-10,-10,-36,-20,7,24,-19,25
1491695795658,2,-1,-5,51,26,-10,-93,39,-16
1491695795658,2,18,19,-12,-32,22,44,15,20
1491695795660,3,6,17,27,21,-38,70,-15,-14
1491695795660,3,-8,-3,-51,-17,90,38,21,4
1491695795661,0,-5,-3,48,55,-37,-104,-53,-20
1491695795661,0,5,1,-66,-70,78,1,27,8
1491695795662,3,-9,0,53,-8,70,33,11,-6
1491695795662,3,-21,-22,-5,75,16,-75,-26,3
1491695795707,3,-4,-18,-25,-15,67,97,31,36
1491695795707,3,-3,-10,-19,-89,-86,-76,-35,19
1491695795710,0,14,21,48,93,73,-47,20,62
1491695795710,0,-17,-14,-71,-35,10,62,8,-55
1491695795755,1,4,-8,-14,0,109,8,14,-14
1491695795755,1,-3,-9,30,10,-48,-29,-5,-36
1491695795757,0,0,-2,-82,-44,25,-51,-7,-48
1491695795757,0,6,-6,20,42,67,-18,-3,55
1491695795757,1,2,10,62,61,22,43,-4,-37
1491695795757,1,-22,-26,20,7,-7,-4,16,-6
1491695795759,2,-6,-5,-20,-39,1,23,-21,-30
1491695795759,2,22,34,21,7,8,65,9,42
1491695795804,0,12,4,-39,-72,-106,-87,4,13
1491695795804,0,-7,-26,-90,-72,-17,31,-14,2
1491695795806,1,6,27,26,34,99,74,14,3
1491695795806,1,4,9,31,-16,-41,-18,-1,-15
1491695795807,2,-13,-14,18,-26,104,-82,2,-13
1491695795807,2,-7,-13,34,93,-101,109,0,-25
1491695795808,1,-5,-27,-4,63,8,16,2,-26
1491695795808,1,6,4,-7,9,45,-67,-10,19
1491695795950,2,3,5,-16,-55,30,85,3,33
1491695795950,2,-14,0,30,-6,0,7,4,-61
1491695795951,3,-1,-12,-88,-82,-44,-32,-8,-29
1491695795951,3,-13,4,-8,-52,75,-37,-14,-36
1491695795952,2,-1,0,22,-11,59,19,-1,-5
1491695795952,2,7,25,-76,-99,33,22,11,-19
1491695795953,3,0,-17,48,-27,22,-68,-12,-2
1491695795953,3,-12,-15,-2,45,7,-42,-16,7
1491695796000,0,-11,-27,-11,-22,20,105,6,-61
1491695796000,0,26,20,33,-6,100,-26,-7,22
1491695796001,1,-8,11,16,64,-91,88,42,35
1491695796001,1,4,6,-52,-18,75,-16,1,-56
1491695796002,3,-5,-14,-7,55,-16,-77,6,10
1491695796002,3,-14,-1,-51,-97,-29,17,-36,-36
1491695796003,1,11,16,40,65,127,66,-39,-12
1491695796003,1,-11,-4,-27,-10,-96,-15,4,27
1491695796048,2,-12,2,-105,-86,87,-19,-2,-82
1491695796048,2,-11,2,67,100,-75,2,-32,-10
1491695796049,3,8,14,0,-102,27,-10,40,-1
1491695796049,3,1,-15,-59,15,30,-29,-11,50
1491695796050,2,7,25,16,-3,127,30,-2,32
1491695796050,2,7,-19,-74,-44,-45,-99,-1,-5
1491695796050,3,3,4,-33,-60,-60,6,-25,0
1491695796050,3,-11,-5,108,70,127,44,-16,-34
1491695796096,0,5,11,-6,-52,-79,-27,7,10
1491695796096,0,5,17,8,-32,127,102,40,49
1491695796097,1,2,-17,-53,87,-40,-10,2,15
1491695796097,1,-8,-16,-85,-91,-2,1,-15,-63
1491695796098,3,-2,-2,19,2,-128,-48,1,37
1491695796098,3,11,18,-35,26,99,-90,8,-23
1491695796099,0,3,6,24,16,33,63,-8,36
1491695796099,0,-9,-12,93,89,-30,1,-5,-61
1491695796243,1,-7,1,-12,22,48,64,4,-9
1491695796243,1,-4,-7,14,19,-96,-105,-18,7
1491695796244,2,15,7,-96,-128,7,-61,-9,31
1491695796244,2,-13,-15,37,97,-107,28,36,19
1491695796245,3,1,9,-9,-72,65,30,5,-10
1491695796245,3,-9,-13,-9,40,119,-9,-25,-4
1491695796246,0,7,6,21,105,-86,-49,8,29
1491695796246,0,-14,-14,-55,-86,39,14,-10,-22
1491695796292,1,3,-2,-27,-33,67,-18,15,-14
1491695796292,1,2,15,-13,-33,-92,-8,13,27
1491695796293,2,-8,-20,22,42,19,28,31,-12
1491695796293,2,-3,-2,66,20,-8,42,-48,-4
1491695796294,0,-11,-19,-30,-54,-102,-83,-16,-9
1491695796294,0,-3,2,2,-15,32,-28,13,7
1491695796295,2,29,32,80,64,8,-75,19,38
1491695796295,2,-8,-3,-80,1,-36,-24,-13,-53
1491695796340,3,6,0,19,-27,33,58,-4,1
1491695796340,3,-3,2,-17,-78,-70,-40,-4,6
1491695796341,0,-16,-27,-23,-32,1,80,16,-11
1491695796341,0,3,22,80,98,37,-26,6,-18
1491695796342,3,-16,-22,-22,-49,83,-63,5,-44
1491695796342,3,12,29,48,9,101,22,-5,10
1491695796343,0,-11,-8,20,-32,-35,55,-17,-42
1491695796343,0,-2,-8,-80,2,-31,-113,27,33
1491695796389,1,-4,-10,-43,-83,-16,20,-7,-45
1491695796389,1,12,10,10,-17,50,64,-3,20
1491695796391,2,-7,-4,7,-8,-113,-56,-7,62
1491695796391,2,10,6,6,35,127,-9,-26,-21
1491695796391,0,-2,-19,-74,-88,-67,95,12,12
1491695796391,0,13,23,104,60,37,-22,-39,2
1491695796392,1,-13,-2,-74,-18,83,27,3,7
1491695796392,1,6,2,26,97,-106,72,7,-7
1491695796439,2,-16,-7,5,12,13,-46,-24,-11
1491695796439,2,-11,-15,-90,-128,63,-49,6,9
1491695796441,3,-4,-1,80,83,18,17,-2,-2
1491695796441,3,23,16,-31,-47,-67,-50,-9,0
1491695796442,1,-8,1,14,-2,-97,13,-3,19
1491695796442,1,-8,-6,6,-36,40,-31,7,-6
1491695796447,2,2,8,-25,-17,37,15,-10,-70
1491695796447,2,10,14,64,75,72,-21,36,53
1491695796487,3,17,4,-5,53,69,-33,-11,-25
1491695796487,3,-19,-9,-29,-37,-124,-24,-24,-9
1491695796489,0,-11,-24,-60,-88,69,-7,-6,-38
1491695796489,0,1,17,46,77,24,23,-8,4
1491695796490,1,7,1,-6,-61,-65,-11,2,-14
1491695796490,1,1,-11,11,26,65,44,7,11
1491695796491,2,3,13,53,-6,-25,-58,1,-32
1491695796491,2,-22,-22,-59,-23,-7,59,1,-20
1491695796535,3,1,3,45,50,71,-50,8,-5
1491695796535,3,5,6,-31,-10,-65,6,-10,-18
1491695796537,0,-5,-6,58,108,39,101,8,24
1491695796537,0,-3,-14,46,-31,67,-29,5,-40
1491695796539,2,10,8,22,25,49,-22,9,55
1491695796539,2,4,8,63,36,-2,5,-6,-24
1491695796540,3,-10,-2,35,-9,-69,9,19,-3
1491695796540,3,-6,-3,-36,-40,89,85,-11,-27
1491695796584,0,9,15,-11,-1,43,-14,-7,16
1491695796584,0,5,-11,-16,-26,-55,46,30,-4
1491695796586,1,-23,-26,2,6,15,-29,-30,-12
1491695796586,1,-6,2,52,66,-11,-105,-25,6
1491695796587,3,6,10,-81,-76,-124,38,15,16
1491695796587,3,-1,-12,-37,-41,32,14,7,16
1491695796588,0,-14,-13,-14,36,-2,-31,-3,-36
1491695796588,0,-8,-13,45,21,-52,21,-14,-42
1491695796634,1,4,-4,-20,18,28,-27,13,32
1491695796634,1,-6,7,50,-63,51,9,4,-16
1491695796635,2,17,23,-50,-31,-61,-27,-25,26
1491695796635,2,-2,-11,-14,18,20,-22,17,10
1491695796636,0,-12,-31,-86,-64,-92,-99,-24,33
1491695796636,0,6,5,15,-34,47,-10,2,26
1491695796637,1,0,-12,-59,-42,-4,59,7,-16
1491695796637,1,3,15,22,-1,27,17,0,10
1491695796682,2,-12,-16,92,121,-46,-50,-3,-8
1491695796682,2,-8,-11,-45,-68,-102,-97,-25,-1
1491695796683,3,0,6,68,27,71,70,14,20
1491695796683,3,13,11,36,104,67,20,1,-4
1491695796684,1,5,9,6,4,22,-21,7,0
1491695796684,1,6,14,106,127,32,-112,-4,-2
1491695796685,2,-2,5,-77,-81,-11,114,2,-32
1491695796685,2,-18,-38,-88,-79,-20,-72,10,-3
1491695796731,3,7,0,31,53,-23,-45,6,-3
1491695796731,3,-19,-13,31,50,26,65,-18,25
1491695796732,0,7,12,46,-25,127,-32,9,12
1491695796732,0,1,17,-88,-115,-19,-28,28,11
1491695796733,2,-1,-1,21,8,-24,-16,-23,-34
1491695796733,2,3,7,13,-18,2,47,16,36
1491695796734,3,2,-15,-83,33,21,-47,0,-7
1491695796734,3,-8,1,87,35,-50,15,-20,-47
1491695796782,0,-3,-21,-87,-76,-29,31,1,-23
1491695796782,0,-2,13,-75,-21,-66,-65,-18,-9
1491695796783,1,-4,-7,29,-32,50,-37,2,12
1491695796783,1,-7,-1,2,9,-40,11,-26,-31
1491695796784,3,-14,-11,-48,-22,-13,16,-20,-16
1491695796784,3,11,5,-46,-32,43,3,3,26
1491695796785,0,11,13,27,45,-22,-67,-20,15
1491695796785,0,-5,-21,-23,-7,-20,17,9,-10
1491695796828,1,-13,-11,0,-66,42,-23,-7,-7
1491695796828,1,5,-9,-46,-24,16,-23,-12,-20
1491695796830,2,11,22,101,55,-33,49,18,16
1491695796830,2,5,9,20,91,43,33,7,-32
1491695796832,3,-1,-4,-128,-128,-39,-16,-2,32
1491695796832,3,-10,-17,4,32,91,17,2,-60
1491695796833,0,-7,-15,40,26,-128,-50,38,-13
1491695796833,0,12,20,123,88,115,63,-49,21
1491695796877,1,5,5,-24,-47,43,12,26,34
1491695796877,1,-18,-12,-76,-100,-98,20,-3,20
1491695796878,2,-15,-7,15,47,127,1,-7,-38
1491695796878,2,-6,-5,3,-33,-74,-35,-17,-32
1491695796925,0,-13,-7,37,14,88,-26,-18,-17
1491695796925,0,-7,8,-73,71,93,107,-8,-20
1491695796927,1,-9,-24,-5,-19,-128,-66,-15,-26
1491695796927,1,2,1,-40,-107,16,-86,5,23
1491695796928,2,5,14,9,27,-70,119,-7,35
1491695796928,2,-8,-3,76,66,82,-21,9,-8
1491695796929,3,6,17,60,56,-75,3,-2,27
1491695796929,3,3,2,-89,-57,94,-26,17,-25
1491695796974,1,12,22,81,50,36,39,-2,29
1491695796974,1,-12,-16,-68,-21,-12,2,12,-10
1491695796976,2,-11,-29,-104,-62,14,-24,-23,21
1491695796976,2,-2,-4,-40,-128,-82,-86,10,-20
1491695796976,3,7,3,121,127,102,95,-1,-16
1491695796976,3,1,23,96,73,-40,23,-19,-31
1491695796977,2,7,-4,-22,8,17,40,14,44
1491695796977,2,5,11,54,-50,68,-35,17,-45
1491695797023,3,-13,-11,-55,-26,-128,-112,-8,87
1491695797023,3,-7,-19,-38,10,83,124,-1,-6
1491695797024,0,2,15,69,36,31,-67,3,-21
1491695797024,0,8,-4,-23,40,-12,47,2,-3
1491695797025,3,-16,-16,-14,-13,-89,28,-25,-65
1491695797025,3,8,21,38,12,85,-64,17,-4
1491695797026,0,-3,1,-12,10,-68,-83,-11,4
1491695797026,0,-5,-1,48,93,46,81,-17,-15
1491695797072,1,4,-7,-27,-64,9,40,19,-1
1491695797072,1,9,8,37,-40,-78,-19,9,2
1491695797073,2,3,12,-41,-30,22,29,-1,-21
1491695797073,2,-13,-22,2,80,67,-40,-2,10
1491695797075,0,-6,-8,-44,-116,-17,-5,-9,11
1491695797075,0,5,8,1,-21,-23,-41,-2,-3
1491695797076,1,0,4,-7,39,14,-16,-7,4
1491695797076,1,-6,-16,-45,-54,20,59,20,46
1491695797120,2,6,1,17,31,-16,-21,-29,26
1491695797120,2,1,-1,-50,-72,-10,-14,11,11
1491695797122,3,0,17,50,97,12,10,22,-25
1491695797122,3,3,0,-22,-33,-24,-38,-8,3
1491695797123,1,-14,-6,-69,-67,30,-48,-23,-18
1491695797123,1,-5,-3,-29,-4,-68,-72,-33,-5
1491695797124,2,8,1,-3,16,127,76,25,28
1491695797124,2,-1,8,36,-50,-105,-94,9,-21
1491695797169,3,-6,2,26,-7,60,-4,-31,-2
1491695797169,3,-13,-20,-50,1,26,64,14,4
1491695797171,0,3,1,-19,-35,76,-46,-10,12
1491695797171,0,3,4,44,127,-53,-2,-9,18
1491695797172,1,-4,-2,13,-32,17,-21,25,8
1491695797172,1,3,-1,-24,-56,12,-53,-10,-23
1491695797173,2,1,6,14,32,20,36,-1,-25
1491695797173,2,2,14,84,-2,27,0,-2,-15
1491695797218,3,9,-3,-21,8,-106,-7,29,40
1491695797218,3,-11,-8,-62,-41,53,-48,-14,-35
1491695797221,0,-13,-22,-95,-112,-126,-5,-2,-26
1491695797221,0,-7,-22,65,82,127,71,-26,6
1491695797221,2,-1,5,-53,-62,2,-98,-4,5
1491695797221,2,-15,-11,-50,-40,-28,-40,-16,-56
1491695797222,3,15,3,27,69,46,18,-1,19
1491695797222,3,4,-3,-64,-57,37,41,41,65
1491695797267,0,-13,-7,14,-22,-62,0,-10,-64
1491695797267,0,2,7,-67,-26,60,10,3,30
1491695797268,1,-7,-14,51,51,-21,-61,-20,-43
1491695797268,1,19,17,82,72,66,38,-6,27
1491695797268,3,-10,-8,-54,-78,21,-13,12,-21
1491695797268,3,-3,-7,81,80,-128,-49,-8,-21
1491695797272,0,0,8,64,58,69,31,12,26
1491695797272,0,2,11,-23,0,-40,-22,-24,7
1491695797315,1,12,17,-56,-67,51,16,5,-43
1491695797315,1,-17,-25,9,36,1,37,-29,-30
1491695797317,2,-1,5,-60,-55,14,35,5,-12
1491695797317,2,-1,-12,-13,-3,-72,-17,6,11
1491695797318,0,17,11,53,66,22,78,30,37
1491695797318,0,-8,-8,-87,-128,73,-66,-6,-5
1491695797319,1,-7,0,-63,-44,-98,109,14,-17
1491695797319,1,0,-14,12,45,56,-72,-9,1
1491695797364,2,-1,0,72,73,118,6,7,41
1491695797364,2,-5,3,48,-8,-50,51,-7,-11
1491695797365,3,0,10,11,38,72,31,4,-15
1491695797365,3,16,16,-43,-62,-66,-24,16,1
1491695797366,1,-1,-9,50,125,61,-3,-13,53
1491695797366,1,8,3,-52,-44,-19,-49,11,34
1491695797367,2,-4,-11,-29,-9,-3,12,-6,-1
1491695797367,2,15,1,-11,-43,6,14,13,7
1491695797413,3,-9,11,95,84,85,49,-11,-31
1491695797413,3,-2,-1,-23,-15,-60,14,-2,-39
1491695797414,0,10,-5,12,-31,-32,35,7,51
1491695797414,0,0,8,-32,36,63,-9,3,12
1491695797415,2,-10,0,-18,-2,-40,21,-19,-51
1491695797415,2,1,-10,18,62,120,-12,2,30
1491695797416,3,0,1,0,34,-74,-21,12,-14
1491695797416,3,-4,1,5,26,56,7,-15,37
1491695797462,0,3,3,-24,-84,105,18,7,-31
1491695797462,0,-16,-11,-10,-11,-44,-104,-22,7
1491695797463,1,-2,-16,-18,31,91,-5,10,-27
1491695797463,1,-2,-7,-25,-6,-24,34,0,-3
1491695797464,3,-9,-17,-31,-39,-4,-107,-24,-12
1491695797464,3,4,-5,12,-52,-63,110,-14,15
1491695797465,0,8,3,40,127,124,76,40,82
1491695797465,0,-8,-9,51,-20,-65,-56,-23,-60
1491695797510,1,5,7,13,-5,-16,-15,17,22
1491695797510,1,0,5,15,-49,49,-19,-15,15
1491695797511,2,-3,0,-63,-50,-25,-77,-1,-9
1491695797511,2,-1,-2,-29,27,37,49,-25,10
1491695797512,0,-6,-6,-36,-37,-52,14,-33,-10
1491695797512,0,-5,-2,26,63,123,-5,14,2
1491695797513,1,2,-3,-43,-54,-78,31,-4,-14
1491695797513,1,-9,-11,-32,40,14,-21,12,-2
1491695797559,2,-13,-6,19,-26,-19,-56,-14,6
1491695797559,2,5,14,26,17,110,67,-3,-22
1491695797560,3,10,3,17,6,-55,8,20,47
1491695797560,3,-20,-18,-19,24,-79,-75,-21,-10
1491695797561,0,6,-1,-53,-118,-3,11,-6,-36
1491695797561,0,-1,-10,12,83,41,2,8,3
1491695797562,1,-10,-5,45,13,-18,10,-4,10
1491695797562,1,-4,-2,-51,-43,66,27,0,2
1491695797608,2,4,2,17,67,-51,-71,7,-22
1491695797608,2,13,23,83,44,21,22,0,8
1491695797609,3,-5,-3,-78,-78,20,-21,-25,-27
1491695797609,3,13,-12,-40,-68,-92,-27,20,75
1491695797610,1,-5,-4,9,45,101,13,-8,-5
1491695797610,1,9,11,63,78,111,-14,18,-26
1491695797613,2,15,13,14,2,-80,-21,-24,20
1491695797613,2,-6,-2,-27,-19,-107,-31,29,-35
1491695797657,3,0,-3,-7,-8,28,-29,-34,30
1491695797657,3,-2,10,3,-3,52,62,12,-70
1491695797658,0,-8,-29,-17,-6,32,18,1,59
1491695797658,0,-1,-6,29,-8,-54,-16,37,-5
1491695797658,2,-13,-7,46,16,68,-37,10,-53
1491695797658,2,6,8,-17,15,32,39,7,-10
1491695797661,3,3,0,-20,-62,-61,-72,13,5
1491695797661,3,-5,1,25,-4,53,81,-1,-27
1491695797705,0,5,1,25,71,-13,-40,-19,27
1491695797705,0,-8,1,7,11,-26,17,4,26
1491695797707,1,9,1,-78,-80,24,93,-1,-31
1491695797707,1,-9,-14,-10,12,-8,-56,-12,21
1491695797707,3,6,-10,-6,-16,-76,26,10,40
1491695797707,3,-5,11,46,29,49,-15,2,-2
1491695797708,0,10,-9,-92,-118,36,20,-17,-30
1491695797708,0,-1,8,37,54,16,7,4,32
1491695797754,1,-8,0,10,8,44,-1,-5,-32
1491695797754,1,-11,-25,-20,-31,-81,-27,-17,-15
1491695797756,2,-7,-1,-14,62,-25,-13,7,31
1491695797756,2,8,2,2,-41,32,21,-30,-20
1491695797757,0,1,12,90,34,-7,-7,-14,-60
1491695797757,0,-2,-11,-60,-14,-47,-40,-3,15
1491695797758,1,-8,8,7,35,89,46,6,-20
1491695797758,1,3,-13,-57,9,6,19,12,29
1491695797803,2,-2,-27,-6,-115,-91,-17,4,13
1491695797803,2,-8,-14,14,-40,-13,-19,-21,5
1491695797804,3,4,14,52,56,26,-53,2,7
1491695797804,3,4,15,-1,46,127,42,12,-27
1491695797805,1,0,-7,-69,-76,46,-43,-3,6
1491695797805,1,-4,0,43,53,-8,22,-8,43
1491695797806,2,-15,-12,-62,-76,88,15,-8,-59
1491695797806,2,9,-7,37,2,-86,9,21,18
1491695797852,3,-12,1,27,27,14,-11,-18,-13
1491695797852,3,5,5,27,-43,33,1,-4,-23
1491695797853,0,0,2,-75,17,-64,-6,1,-17
1491695797853,0,-5,-9,-38,-35,-16,-105,-11,9
1491695797854,2,0,-4,0,24,2,-7,-9,9
1491695797854,2,-8,2,-6,-69,16,56,-7,-38
1491695797855,3,11,-6,7,-15,-29,-1,30,57
1491695797855,3,4,5,17,13,-25,31,-9,-7
1491695797900,0,-1,6,0,74,82,-19,-5,78
1491695797900,0,4,-1,0,8,12,12,6,-48
1491695797902,1,2,12,18,-6,22,29,16,16
1491695797902,1,0,5,-10,-23,58,-40,6,-18
1491695797903,2,-10,-25,-37,25,-52,106,10,-37
1491695797903,2,-10,-8,-56,-59,0,-97,-35,43
1491695797904,3,4,-7,14,1,14,-17,-13,3
1491695797904,3,1,9,8,-21,-35,35,18,-18
1491695797950,0,6,3,67,64,96,36,-4,73
1491695797950,0,-6,8,49,46,30,-15,17,-30
1491695797952,1,15,5,-11,43,-88,-46,3,18
1491695797952,1,10,-4,-15,-26,50,-32,4,28
1491695797953,3,0,7,65,17,9,4,-10,-3
1491695797953,3,-13,-15,-29,56,-48,-33,-10,-8
1491695797954,0,-1,17,-14,-44,127,2,12,-46
1491695797954,0,3,-1,12,-10,-107,12,-8,26
1491695797998,1,-13,-9,-6,53,63,-74,-25,-41
1491695797998,1,-4,-14,-52,-78,-5,35,1,5
1491695798001,2,-10,-6,20,-36,9,-16,5,1
1491695798001,2,-10,-3,-2,14,63,28,5,15
1491695798002,0,-3,-11,-2,6,54,-6,-20,-29
1491695798002,0,5,2,-16,-55,-79,-29,17,7
1491695798003,1,-7,-10,-33,-17,6,62,-16,19
1491695798003,1,-1,-3,52,89,63,-69,-19,7
1491695798046,2,4,8,9,-11,-32,88,-1,-37
1491695798046,2,-10,-12,-60,-34,-17,-31,9,-3
1491695798047,3,-1,5,40,-26,-60,29,3,-15
1491695798047,3,-5,-2,-43,33,-64,-37,-9,31
1491695798048,1,-7,-20,-1,18,15,-22,-13,-3
1491695798048,1,8,10,-13,-58,40,15,-14,-40
1491695798049,2,-3,7,-7,40,-79,-69,-11,37
1491695798049,2,6,5,-15,-46,94,114,5,-39
1491695798095,3,-17,-20,0,-2,-87,7,18,2
1491695798095,3,-1,1,-30,-31,-13,-45,-6,-37
1491695798096,0,5,4,10,30,39,-30,0,38
1491695798096,0,5,3,-4,3,26,-25,-17,-41
1491695798097,2,-2,-7,1,-17,-53,-64,15,-9
1491695798097,2,0,-8,-30,12,46,30,-12,-10
1491695798098,3,-7,6,20,12,25,-44,18,-19
1491695798098,3,-2,-9,-38,-39,19,50,-35,1
1491695798144,0,-6,-12,-33,-82,-96,40,13,14
1491695798144,0,-13,1,50,89,-48,-89,-21,-14
1491695798145,1,7,12,-22,-55,79,43,7,-9
1491695798145,1,-3,-13,-20,33,-59,-6,7,24
1491695798146,3,-5,4,-16,-5,-8,-2,-27,-28
1491695798146,3,13,2,85,72,-82,1,5,-4
1491695798147,0,-13,-12,-56,-22,82,49,16,-9
1491695798147,0,3,-12,-14,-21,-68,8,13,54
1491695798193,1,13,8,47,15,41,-106,-3,-8
1491695798193,1,-13,-14,-32,-46,-86,26,34,-42
1491695798194,2,-4,1,-2,30,34,-53,-90,-5
1491695798194,2,10,21,117,91,111,7,16,30
1491695798194,0,3,14,35,50,-44,-38,6,17
1491695798194,0,-1,4,5,7,72,67,0,-18
1491695798195,1,11,9,-6,-33,27,55,3,33
1491695798195,1,-4,-3,26,90,10,-25,5,11
1491695798241,2,-2,5,21,-13,12,7,20,6
1491695798241,2,-15,-13,-30,22,-19,-28,-33,-55
1491695798242,3,4,-1,19,16,-50,60,16,-2
1491695798242,3,-1,-1,-49,-74,13,-59,24,64
1491695798243,0,5,-3,70,103,-92,63,-14,-9
1491695798243,0,-5,0,-53,-95,65,-55,-7,7
1491695798244,1,2,-12,14,65,-38,25,-16,-18
1491695798244,1,4,12,51,24,41,-22,-20,25
1491695798290,2,-1,0,-8,61,32,14,12,11
1491695798290,2,-5,-15,-88,-79,-71,-75,-12,-11
1491695798291,3,-16,-15,-8,-9,42,55,7,-19
1491695798291,3,0,0,5,-49,1,-32,-29,-15
1491695798292,1,-3,-4,-39,-10,24,8,2,-8
1491695798292,1,6,2,63,38,-20,57,5,38
1491695798293,2,-10,-10,14,-16,-26,-27,-3,-34
1491695798293,2,8,9,-3,72,1,-3,20,-15
1491695798339,3,-7,-12,-12,-50,10,-18,-8,20
1491695798339,3,-4,10,-12,31,-34,116,9,28
1491695798340,0,0,-3,-15,-65,9,8,-13,-28
1491695798340,0,7,-6,-29,-64,-47,-27,-4,28
1491695798341,2,6,8,30,87,78,39,1,3
1491695798341,2,-5,12,34,-41,-106,-17,-14,-1
1491695798342,3,20,0,21,24,46,4,26,66
1491695798342,3,-3,-3,-15,-39,-28,-51,1,-14
1491695798388,0,2,-1,-6,1,17,-77,-7,-20
1491695798388,0,-15,-11,-3,9,79,101,-5,-55
1491695798390,1,14,12,-3,50,-44,-49,2,51
1491695798390,1,4,5,-28,-55,85,29,19,-21
1491695798392,3,4,9,29,33,-18,26,-11,-10
1491695798392,3,-6,-4,-67,0,119,-86,-15,-16
1491695798393,0,5,8,17,-46,-65,77,18,3
1491695798393,0,-8,-15,5,33,80,-8,0,56
1491695798437,1,-5,-11,-22,-24,6,15,5,-20
1491695798437,1,6,2,13,-29,-31,-71,-17,-26
1491695798439,2,-1,6,-20,-27,43,75,-7,-21
1491695798439,2,-8,-6,36,58,-23,-33,12,15
1491695798440,0,7,1,-13,-53,95,30,31,-16
1491695798440,0,-3,0,-15,-21,-99,-87,-24,-5
1491695798441,1,0,-7,-13,-41,72,-23,-10,-6
1491695798441,1,-18,-8,38,46,26,26,-6,-8
1491695798485,2,11,-2,11,24,52,3,7,20
1491695798485,2,6,5,-52,7,0,31,11,58
1491695798487,3,-12,2,46,9,-64,-17,-27,-58
1491695798487,3,-7,-7,-29,-13,-9,-24,8,-10
1491695798489,1,-6,-6,19,54,-85,3,-8,30
1491695798489,1,-3,-9,-24,-96,-104,-26,3,-8
1491695798490,2,-14,-19,-79,-63,30,0,12,27
1491695798490,2,19,28,-5,-45,35,-25,-7,5
1491695798534,3,-1,5,35,85,60,46,3,-15
1491695798534,3,1,2,40,42,-6,-28,8,16
1491695798536,0,-9,-11,-18,18,-21,18,-3,19
1491695798536,0,-16,-12,-26,-62,-90,33,18,-22
1491695798538,2,-1,14,1,-30,41,-60,-4,-59
1491695798538,2,6,-7,27,76,-40,90,26,3
1491695798539,3,-19,-20,-56,-125,-33,-31,-16,-37
1491695798539,3,5,7,-52,-103,73,42,25,28
1491695798583,0,1,-15,-28,28,-58,-35,-31,-25
1491695798583,0,5,5,84,39,78,41,6,5
1491695798585,1,5,8,-92,-73,4,-68,11,43
1491695798585,1,-1,-3,62,71,11,106,-13,-73
1491695798586,2,-2,6,-72,-56,-71,-56,-9,19
1491695798586,2,2,-13,-128,34,86,-11,4,-26
1491695798587,3,-4,-10,127,-46,-56,31,4,7
1491695798587,3,-6,-17,7,56,50,-46,6,32
1491695798632,0,1,10,66,-85,-70,9,-6,35
1491695798632,0,17,9,-44,71,62,-8,-6,-23
1491695798634,1,3,13,3,100,87,48,12,10
1491695798634,1,4,17,-9,-37,32,31,6,10
1491695798635,3,-11,-25,-51,-40,66,15,3,-54
1491695798635,3,-3,-3,66,34,-98,16,-12,21
1491695798636,0,-4,-13,47,27,-46,-61,-27,-37
1491695798636,0,-10,9,113,76,60,31,8,37
1491695798681,1,7,-14,-99,-114,4,-56,-10,-16
1491695798681,1,-18,-28,-100,-50,-92,-4,-4,9
1491695798683,2,-11,-6,36,38,98,-44,-13,-11
1491695798683,2,10,18,79,61,52,109,10,-8
1491695798684,0,-5,-5,-54,-19,-13,-4,-1,-68
1491695798684,0,-14,-19,-56,-57,37,-43,12,31
1491695798685,1,6,4,41,74,-15,0,-7,12
1491695798685,1,12,33,5,-34,67,1,8,-24
1491695798729,2,0,-17,1,22,-61,-42,-8,25
1491695798729,2,-19,-20,-108,-120,52,53,-1,-63
1491695798732,3,10,0,71,31,-52,-67,-16,30
1491695798732,3,4,0,3,34,-34,37,6,9
1491695798733,1,-26,-41,-121,-96,-101,-65,-14,-24
1491695798733,1,-12,-10,75,28,0,-16,-13,21
1491695798734,2,8,26,45,-7,101,104,9,-13
1491695798734,2,11,4,83,127,11,-31,14,30
1491695798778,3,-4,2,-30,-85,11,-15,-9,-6
1491695798778,3,-15,-11,15,-104,10,-42,-13,2
1491695798781,0,-17,-11,-114,46,-66,39,0,-28
1491695798781,0,7,-20,7,86,58,22,10,-3
1491695798782,2,22,22,66,23,-64,-38,7,22
1491695798782,2,-16,-4,38,-41,19,3,-10,-13
1491695798783,3,3,12,-24,123,103,40,-8,-2
1491695798783,3,12,4,64,46,-84,-83,15,16
1491695798826,0,-23,-14,-98,-103,-77,-48,-31,-36
1491695798826,0,20,-4,77,-6,34,77,13,82
1491695798827,1,-22,-23,-104,-14,-1,37,-13,-96
1491695798827,1,4,2,-11,-32,-57,-59,-1,37
1491695798828,3,5,7,14,-4,33,17,9,8
1491695798828,3,4,4,14,27,62,39,-20,-43
1491695798829,0,13,15,-21,20,38,31,12,7
1491695798829,0,1,12,112,51,-79,-37,-6,-1
1491695798924,1,-5,1,8,-64,-7,-11,-20,-22
1491695798924,1,-19,-21,-40,-22,3,-7,3,-13
1491695798925,2,3,-14,-26,41,62,19,-11,20
1491695798925,2,4,8,-73,-85,-70,41,-8,-28
1491695798926,0,3,-4,79,46,110,-22,17,22
1491695798926,0,-5,-13,-65,-117,-100,-57,-21,39
1491695798927,1,-7,-8,-51,99,50,-14,3,-23
1491695798927,1,2,-2,-2,-6,62,5,-8,-37
1491695798973,2,7,6,15,29,24,54,12,18
1491695798973,2,-4,10,82,16,-34,-37,-11,23
1491695798974,3,3,0,42,-27,-16,-7,3,26
1491695798974,3,-2,10,-20,18,-23,-11,-1,-30
1491695798975,1,9,10,59,76,-7,41,21,-24
1491695798975,1,-16,-33,-47,-111,-76,-27,-21,-12
1491695798976,2,-5,-6,-57,-20,-49,33,1,-8
1491695798976,2,4,16,68,120,120,5,16,22
1491695799021,3,2,24,14,-124,-128,-53,0,-40
1491695799021,3,15,6,-49,86,127,56,-3,38
1491695799023,0,-7,-14,11,-128,-96,18,3,-40
1491695799023,0,-9,-39,-6,127,45,-20,-10,49
1491695799023,2,-19,-3,-11,92,-46,25,-18,-3
1491695799023,2,-6,-18,10,-128,-67,-20,9,-12
1491695799024,3,13,3,-30,-3,3,57,4,46
1491695799024,3,-18,-13,-36,-8,51,-46,-4,-31
1491695799070,0,14,7,55,35,25,-7,0,14
1491695799070,0,-2,7,-63,96,127,32,2,-40
1491695799071,1,-13,-28,14,-60,-125,-60,-23,-9
1491695799071,1,1,-7,-10,-94,-38,70,29,52
1491695799072,3,14,14,-7,-36,-65,-46,8,6
1491695799072,3,-4,12,53,-18,105,33,-3,0
1491695799073,0,-23,-61,-128,-58,-87,-24,-12,30
1491695799073,0,-19,-31,47,-87,-73,29,-7,-40
1491695799119,1,-10,13,53,98,77,9,1,8
1491695799119,1,27,42,37,-18,45,48,10,11
1491695799121,2,6,17,52,-15,-75,-49,14,11
1491695799121,2,-6,-14,-72,-67,16,-21,-6,3
1491695799122,0,6,18,-48,63,-35,6,1,-23
1491695799122,0,-6,-16,23,33,-8,15,33,55
1491695799123,1,2,6,53,68,67,15,0,-45
1491695799123,1,-2,-26,-33,-39,-101,-71,-10,6
1491695799168,2,-16,-21,-109,-128,10,-66,-20,-17
1491695799168,2,19,34,81,-37,-60,-79,-3,-40
1491695799169,3,-22,-10,4,-4,-18,51,-9,8
1491695799169,3,29,46,127,127,88,38,10,-6
1491695799172,1,-29,-18,-51,-20,-112,-34,-9,28
1491695799172,1,-4,-26,41,77,29,38,6,1
1491695799180,2,-5,-3,-76,81,50,-101,-44,-19
1491695799180,2,1,25,32,0,50,84,24,-38
1491695799217,3,37,16,-12,73,-72,-28,12,39
1491695799217,3,-9,-20,-87,-128,-57,40,33,-24
1491695799218,0,-9,-2,127,109,98,-40,-31,58
1491695799218,0,-18,-33,-62,-74,-81,-37,-25,-33
1491695799219,2,0,11,27,82,-18,-60,27,-13
1491695799219,2,12,13,68,97,94,49,-12,24
1491695799223,3,8,2,11,-36,-91,30,-7,27
1491695799223,3,-9,-46,-66,-8,62,-95,-6,-5
1491695799265,0,-16,8,-38,-71,60,122,5,-15
1491695799265,0,11,38,127,31,107,60,20,-22
1491695799267,1,-7,-14,-128,30,-37,-57,3,18
1491695799267,1,-35,-58,89,-87,-114,93,-14,16
1491695799268,3,31,54,93,72,127,119,40,21
1491695799268,3,1,14,-39,-12,-86,-63,20,-15
1491695799269,0,9,20,56,18,38,13,-21,20
1491695799269,0,7,16,56,-101,-82,-24,10,44
1491695799314,1,-32,-75,-93,58,-30,-128,-15,-62
1491695799314,1,-40,-24,38,45,-21,103,-65,-4
1491695799315,2,-20,-29,52,12,88,84,28,-26
1491695799315,2,51,35,-20,39,51,-56,15,102
1491695799316,3,33,49,9,-97,121,31,9,-16
1491695799316,3,-12,-2,15,90,-105,-78,-41,-87
1491695799317,0,-9,-39,6,6,16,107,46,60
1491695799317,0,-8,38,-20,94,12,-76,-5,-36
1491695799363,1,7,6,111,19,104,55,5,39
1491695799363,1,28,-3,-68,91,25,20,13,3
1491695799364,2,3,-12,-109,-128,-113,-115,-29,-87
1491695799364,2,-22,-51,-69,-34,-85,-22,9,25
1491695799365,0,-10,6,-2,-20,10,31,-31,0
1491695799365,0,11,20,53,25,0,0,32,30
1491695799366,1,5,27,59,-16,77,34,-5,-40
1491695799366,1,-16,-17,-73,-3,-14,5,4,-4
1491695799412,2,-4,-24,-30,81,71,-6,2,27
1491695799412,2,7,-33,58,-90,16,-98,-22,-10
1491695799413,3,8,83,-10,-109,7,30,-6,-66
1491695799413,3,18,-5,-51,64,97,1,2,10
1491695799414,1,16,-29,93,-40,67,56,19,88
1491695799414,1,-13,48,75,41,-65,-52,-32,-119
1491695799415,2,21,0,-94,-74,49,77,42,24
1491695799415,2,-23,-52,-31,31,54,-21,-43,28
1491695799460,3,24,40,41,-6,-6,22,4,17
1491695799460,3,7,3,-24,95,116,-67,23,53
1491695799462,0,-6,9,52,-52,-63,-18,-7,-42
1491695799462,0,-13,-9,19,-27,-42,99,-8,-32
1491695799463,2,39,38,18,58,121,-2,22,-38
1491695799463,2,-12,-34,4,-55,-91,-66,-25,-49
1491695799464,3,-6,9,-73,-25,18,14,14,21
1491695799464,3,-19,-73,-39,44,-25,13,-18,-80
1491695799509,0,-29,-24,95,32,-105,-99,-22,-7
1491695799509,0,18,71,73,-10,26,57,18,12
1491695799510,1,-8,-43,-58,67,53,-51,-26,16
1491695799510,1,1,47,-24,-128,-61,-72,-7,-10
1491695799510,3,4,-4,-127,-85,-119,-37,2,-8
1491695799510,3,-38,-53,-62,-128,26,1,-9,-40
1491695799511,0,20,47,88,64,-13,56,5,21
1491695799511,0,17,-19,-128,-128,-28,-26,42,-33
1491695799558,1,-43,-63,121,5,-128,-41,-46,-25
1491695799558,1,10,6,-20,-15,43,17,14,49
1491695799558,2,-6,-2,-59,-126,18,-41,-22,-9
1491695799558,2,-22,-50,-38,37,50,20,-5,-3
1491695799559,0,-9,43,101,94,1,-71,-8,-14
1491695799559,0,21,-5,-114,-120,-53,88,24,20
1491695799561,1,-4,-36,-2,7,31,-7,-20,-30
1491695799561,1,-13,-14,95,85,81,-66,-14,85
1491695799607,2,35,59,-79,3,19,83,31,-67
1491695799607,2,3,34,-2,-48,-72,-11,4,-28
1491695799607,3,-64,-128,-128,96,-10,-74,-19,-5
1491695799607,3,5,19,111,68,88,14,13,49
1491695799608,1,33,63,-36,-87,127,97,29,-11
1491695799608,1,10,-30,-14,-98,-128,-100,6,12
1491695799609,2,-24,-47,40,124,64,33,-25,-10
1491695799609,2,-24,-39,110,121,45,16,32,-18
1491695799655,3,19,27,-58,-84,1,-4,-25,40
1491695799655,3,-3,-28,-60,-60,-51,24,-11,-42
1491695799656,0,5,13,17,-88,51,-38,-2,18
1491695799656,0,34,60,37,101,-35,-12,3,19
1491695799656,1,-33,-118,-55,-21,-29,-49,-10,-6
1491695799656,1,-22,-4,70,36,79,29,-26,-30
1491695799658,2,10,45,-11,-47,-88,-115,-9,22
1491695799658,2,-34,-50,71,29,-64,46,3,16
1491695799704,3,-2,40,110,75,81,59,41,-22
1491695799704,3,12,57,54,35,45,21,3,12
1491695799705,0,15,4,-43,-96,-46,35,1,-28
1491695799705,0,-61,-89,-112,-1,89,-40,-20,-13
1491695799706,2,23,9,107,87,127,54,15,29
1491695799706,2,-8,6,-128,-128,-128,-105,-17,3
1491695799707,3,-37,-70,100,29,79,-21,-14,-60
1491695799707,3,10,44,44,-21,62,45,4,-25
1491695799753,0,39,80,59,-60,73,12,25,26
1491695799753,0,0,-91,-74,127,-65,-67,-49,-4
1491695799754,1,-39,-31,-18,-31,30,-44,-43,13
1491695799754,1,11,34,34,-43,73,28,28,30
1491695799755,3,26,-14,15,58,-4,-40,34,-41
1491695799755,3,13,-3,-76,-14,-38,-46,-27,-24
1491695799755,0,-28,-44,44,2,8,8,0,-2
1491695799755,0,-2,-26,-120,-72,-87,21,-27,-5
1491695799802,1,-2,-23,56,-99,-2,7,11,56
1491695799802,1,-7,-16,-71,45,6,14,20,0
1491695799803,2,9,-6,75,72,28,-10,-5,18
1491695799803,2,16,32,-66,22,-19,-103,-25,-20
1491695799804,0,14,39,38,68,90,80,18,23
1491695799804,0,-74,-5,7,-4,7,-36,11,-1
1491695799805,1,53,40,-6,19,-79,51,20,23
1491695799805,1,-10,-60,-112,-86,60,-93,-19,15
1491695799850,2,10,8,-86,-70,41,-13,-11,-42
1491695799850,2,31,42,40,-29,127,127,27,-9
1491695799852,3,-44,11,103,123,17,-63,17,42
1491695799852,3,60,8,13,-82,33,73,10,-24
1491695799853,1,-10,108,84,51,84,48,13,4
1491695799853,1,-86,16,111,29,125,90,-4,5
1491695799854,2,95,-4,13,21,-98,5,25,32
1491695799854,2,32,-22,-8,-39,-73,17,9,35
1491695799899,3,25,-2,-101,-68,-9,17,-22,-25
1491695799899,3,-15,6,6,9,10,7,-4,-22
1491695799902,0,-95,50,-10,-11,-93,-82,-9,-26
1491695799902,0,74,-22,0,-45,-33,-86,-14,-13
1491695799904,2,-48,-9,-31,-27,127,23,-10,-19
1491695799904,2,-85,56,118,25,81,127,13,-15
1491695799905,3,82,49,-7,14,113,-29,-21,-34
1491695799905,3,35,-42,-33,21,-128,-17,5,3
1491695799948,0,41,19,40,-22,-92,-45,1,-7
1491695799948,0,-33,22,12,-9,-49,-12,24,-8
1491695799950,1,-74,-8,74,86,-72,10,-26,-34
1491695799950,1,-97,3,-35,3,-43,-24,23,48
1491695799951,3,3,15,-11,-3,-30,-21,25,42
1491695799951,3,39,85,108,60,44,12,-15,-70
1491695799953,0,-43,56,43,48,43,56,9,19
1491695799953,0,-39,3,-86,10,39,29,6,6
1491695799997,1,-8,-28,-2,-32,-7,-71,-18,31
1491695799997,1,-3,61,45,19,92,18,11,-37
1491695799999,2,-8,-89,-5,-41,-54,-96,-26,-10
1491695799999,2,-21,-55,11,6,13,50,-15,-12
1491695800000,3,-27,0,33,9,101,21,17,21
1491695800000,3,-91,-97,-112,-38,-113,22,-7,2
1491695800001,0,102,106,19,8,-75,-26,8,-14
1491695800001,0,56,26,2,6,20,58,6,16
1491695800046,1,50,34,10,4,-49,-80,15,64
1491695800046,1,-23,2,-46,-30,75,-20,-24,-29
1491695800048,2,-8,-51,-6,3,73,28,15,1
1491695800048,2,-42,-6,-33,-30,-4,8,-7,-36
1491695800049,0,-28,-11,-38,-37,-36,-44,-6,3
1491695800049,0,3,-73,-3,-24,91,2,3,-13
1491695800050,1,-50,-58,-3,14,4,29,-5,-3
1491695800050,1,41,62,-1,-13,58,-78,5,12
1491695800094,2,23,62,57,60,-23,69,-1,-2
1491695800094,2,-23,-73,-57,-21,-81,-23,1,30
1491695800095,3,-14,17,-56,-24,-63,2,-1,-19
1491695800095,3,7,-11,13,-19,-50,34,-7,-17
1491695800095,1,14,20,-19,-22,-64,-34,-18,-41
1491695800095,1,14,-2,59,60,75,1,19,47
1491695800096,2,-12,5,-69,-78,3,64,-2,15
1491695800096,2,10,9,30,16,71,-74,3,31
1491695800143,3,10,26,28,-7,-48,-30,-5,-44
1491695800143,3,1,11,-3,-8,-15,46,-7,-11
1491695800146,0,-10,-22,-22,-24,73,34,3,-2
1491695800146,0,5,27,49,2,74,34,13,-33
1491695800147,2,18,-21,2,28,68,-8,3,35
1491695800147,2,-20,25,32,0,-52,-19,-13,-28
1491695800149,3,-8,9,-42,29,72,69,-12,-32
1491695800149,3,10,-19,22,-11,-92,-48,-1,1
1491695800192,0,11,77,20,-34,127,76,40,20
1491695800192,0,-16,-43,-28,40,-84,-78,-29,-3
1491695800194,1,-7,-63,-9,-53,-68,-75,-20,-5
1491695800194,1,13,1,14,-16,-98,15,2,28
1491695800195,3,-26,-70,-87,-70,-111,79,-1,-16
1491695800195,3,0,-14,-83,-14,95,-37,-13,-14
1491695800197,0,-10,-5,100,62,44,15,-7,-53
1491695800197,0,25,58,7,-47,8,-21,3,24
1491695800241,1,4,-31,-68,-3,33,11,56,47
1491695800241,1,1,11,78,8,-44,-20,-30,-7
1491695800243,2,-3,-16,-59,-28,-35,-23,-3,3
1491695800243,2,-20,21,-98,-64,58,27,-16,-16
1491695800245,0,-28,-14,85,-39,-78,-128,-31,-46
1491695800245,0,33,-10,-91,33,-41,90,27,103
1491695800246,1,-21,14,19,-95,79,13,-8,-74
1491695800246,1,-1,12,8,110,76,52,-6,14
1491695800289,2,-9,-37,14,-39,-81,-96,-12,32
1491695800289,2,17,35,85,89,-49,81,72,-13
1491695800291,3,6,-9,-60,-40,78,13,-15,13
1491695800291,3,-20,-18,-29,-76,-95,-78,-19,11
1491695800292,1,-15,9,113,103,76,-15,-6,38
1491695800292,1,10,9,127,12,27,-19,-3,-64
1491695800293,2,11,-36,-119,-128,-127,27,12,71
1491695800293,2,-15,-3,45,-33,-15,-33,-10,-39
1491695800338,3,25,45,119,57,84,53,20,1
1491695800338,3,-1,-35,-48,-37,-63,-46,-1,17
1491695800339,0,-13,-17,66,62,99,55,-9,-21
1491695800339,0,-5,8,-58,-100,-95,-124,-14,44
1491695800343,2,11,-5,13,90,112,-21,14,7
1491695800343,2,-8,17,-10,123,-40,95,14,60
1491695800344,3,-11,-25,-3,-123,-128,-78,-11,-36
1491695800344,3,15,19,-118,-53,-3,33,-8,27
1491695800387,0,-30,-28,37,5,-51,6,-22,-79
1491695800387,0,2,37,32,-54,118,-15,5,-26
1491695800389,1,22,35,83,58,-110,-111,10,10
1491695800389,1,-12,-19,-79,55,-65,123,-15,-49
1491695800390,2,-18,-17,-22,-106,0,20,-3,13
1491695800390,2,-8,-71,41,-10,-62,-96,9,36
1491695800391,3,-9,-14,51,87,114,69,-30,-47
1491695800391,3,20,56,-1,-53,-23,10,30,-39
1491695800436,0,27,43,-93,61,17,52,-2,-2
1491695800436,0,3,-29,-72,19,-38,70,-6,29
1491695800439,1,-28,-44,60,93,-46,-62,14,-29
1491695800439,1,-20,-15,-12,-66,87,1,-26,17
1491695800442,3,11,40,22,85,68,73,31,11
1491695800442,3,-15,-61,-46,42,-91,-3,-3,34
1491695800446,0,-5,22,47,-87,-104,-57,-9,-34
1491695800446,0,-2,-34,-59,122,127,-19,-24,-13
1491695800485,1,11,5,-1,-61,-53,23,3,33
1491695800485,1,-14,37,73,31,40,-10,-7,-79
1491695800488,2,-10,26,-40,-15,-69,29,25,15
1491695800488,2,-7,-14,-35,89,92,94,10,-31
1491695800490,0,6,32,95,-28,23,-15,-20,-15
1491695800490,0,-10,8,21,-19,-38,-29,-11,-50
1491695800492,1,20,-23,-108,-21,40,15,1,66
1491695800492,1,6,-10,26,49,90,40,4,-44
1491695800534,2,5,-10,38,73,-114,-73,-2,73
1491695800534,2,-10,7,23,-84,86,48,-16,-43
1491695800538,3,-4,32,88,4,62,22,-19,-54
1491695800538,3,-10,-10,-76,-10,-52,-12,26,38
1491695800541,1,-30,-43,-34,-47,-5,-55,-21,-40
1491695800541,1,-2,27,-5,-76,79,73,19,33
1491695800543,2,10,-25,16,-14,-42,27,32,37
1491695800543,2,-1,10,-61,-59,42,-5,-16,58
1491695800594,3,15,20,47,9,-3,25,-11,-49
1491695800594,3,-2,19,86,107,-108,-50,1,20
1491695800598,0,-17,-23,-98,-59,-55,-58,-11,-7
1491695800598,0,-31,-35,-37,-79,-15,-9,-19,-122
1491695800601,2,-24,2,-1,54,-73,-5,14,-44
1491695800601,2,-12,-40,7,-7,-7,4,-11,4
1491695800604,3,3,-5,-128,-77,85,-54,-59,-68
1491695800604,3,13,7,24,92,-106,9,55,102
1491695800630,0,-16,-9,93,-66,127,-22,-22,-9
1491695800630,0,20,27,63,33,45,22,21,-46
1491695800632,1,-21,21,-15,-3,55,-28,-5,28
1491695800632,1,2,-17,-45,-113,-16,-11,13,33
1491695800633,3,-15,-25,12,-50,-32,38,-37,-75
1491695800633,3,24,14,-30,-42,29,-52,-7,11
1491695800634,0,-13,-7,-10,-33,-47,10,5,1
1491695800634,0,14,35,117,98,-43,33,2,41
1491695800679,1,-13,-35,-30,-28,-38,-16,-15,11
1491695800679,1,-1,-9,-97,24,52,30,4,-2
1491695800681,2,-16,-7,44,27,99,6,-12,-39
1491695800681,2,16,15,83,56,1,-57,-14,-42
1491695800682,0,4,-12,-20,-7,-35,82,-19,1
1491695800682,0,18,18,-90,5,67,-61,7,17
1491695800683,1,15,2,127,113,-96,55,31,90
1491695800683,1,-18,-17,74,96,100,-108,-50,-55
1491695800728,2,-5,17,-93,-109,-97,57,33,-22
1491695800728,2,4,22,22,-21,93,49,-7,-42
1491695800729,3,7,-7,87,118,52,-55,1,-15
1491695800729,3,-8,-18,-87,-94,-46,28,-1,-22
1491695800730,0,-7,-6,-39,24,26,-27,-12,26
1491695800730,0,-16,-50,27,14,12,0,-18,-54
1491695800733,1,8,52,-128,-128,4,30,33,-7
1491695800733,1,17,48,127,127,-85,14,-27,-51
1491695800777,2,-11,-29,27,14,25,-69,-11,2
1491695800777,2,-21,6,-67,-27,17,7,-9,-10
1491695800778,3,13,-8,61,107,55,-37,7,9
1491695800778,3,26,19,-89,-124,-37,32,35,27
1491695800779,1,15,91,-8,47,-28,-37,12,21
1491695800779,1,-19,-72,22,87,73,111,-2,-16
1491695800780,2,22,34,-94,-65,-62,-103,9,-5
1491695800780,2,14,22,93,64,10,57,16,3
1491695800825,3,-36,-76,-80,-16,94,27,-24,-8
1491695800825,3,2,-2,-77,-38,-11,-40,8,-40
1491695800827,0,-2,-6,-62,-86,61,14,5,35
1491695800827,0,-7,80,68,49,-24,0,12,13
1491695800828,2,30,52,44,127,41,-37,-5,20
1491695800828,2,19,23,-29,-25,-13,38,4,-24
1491695800829,3,-29,-24,-3,-87,-21,22,-15,4
1491695800829,3,-8,12,36,7,29,-80,1,-3
1491695800874,0,6,-65,11,30,15,9,-13,8
1491695800874,0,10,18,-62,-25,120,95,22,107
1491695800875,1,-17,-30,-78,26,-121,-46,-20,-74
1491695800875,1,6,5,116,62,19,-33,15,25
1491695800876,3,-3,-22,75,23,36,89,25,-25
1491695800876,3,17,43,14,-6,12,-9,-54,-23
1491695800876,0,-6,77,127,127,127,55,42,-9
1491695800876,0,19,-36,-2,-20,-121,-63,13,25
1491695800923,1,-23,-6,-117,-126,-94,-64,-25,-56
1491695800923,1,-28,-9,-14,-10,31,91,-4,-19
1491695800924,2,-1,-21,14,6,-6,43,7,-31
1491695800924,2,-5,3,-56,-25,24,-12,-15,-25
1491695800925,0,-30,-61,-113,-126,-87,69,-12,-102
1491695800925,0,-8,-11,-8,-10,82,-74,-16,12
1491695800926,1,3,2,18,17,-63,45,8,106
1491695800926,1,-3,11,54,47,37,-21,13,11
1491695800976,2,24,-2,-26,-13,90,-35,3,4
1491695800976,2,-9,-11,10,33,-53,38,-12,-37
1491695800977,3,6,15,-10,-98,-31,-100,-29,-60
1491695800977,3,-12,-3,-36,-74,-51,38,10,46
1491695800978,1,-30,-41,-68,-52,72,-91,-25,-41
1491695800978,1,-18,-56,64,44,24,-72,-10,66
1491695800979,2,-18,-7,-2,-47,-63,33,-12,-5
1491695800979,2,-11,-29,-66,-8,44,32,-4,19
1491695801025,3,29,74,119,36,13,-11,33,45
1491695801025,3,8,1,-93,-90,-120,12,1,-57
1491695801026,0,-5,-8,41,104,97,30,-18,83
1491695801026,0,-24,-29,17,-72,15,-57,11,-52
1491695801027,2,3,35,44,77,109,-60,-32,-82
1491695801027,2,-21,-19,57,18,-128,-40,12,0
1491695801028,3,-1,4,-33,-46,127,25,-12,-60
1491695801028,3,20,17,43,127,118,43,23,81
1491695801069,0,10,-14,34,-54,-1,38,-17,-53
1491695801069,0,-12,64,11,-28,127,48,21,47
1491695801072,1,3,-74,-50,-42,-107,-39,-30,-14
1491695801072,1,-21,-21,-34,-118,-86,-82,1,6
1491695801073,2,4,47,-13,29,22,-35,8,19
1491695801073,2,16,-20,127,81,-15,-77,-29,14
1491695801075,3,-16,59,-40,-63,91,84,23,20
1491695801075,3,30,-1,9,127,-97,-25,27,-44
1491695801118,0,-10,-98,-64,-111,10,-68,-17,-52
1491695801118,0,-1,74,48,0,-121,-2,-60,-10
1491695801120,1,8,-7,-40,-15,23,49,35,88
1491695801120,1,-36,-34,-98,-112,-76,-41,1,-61
1491695801121,3,34,36,127,127,-22,38,-7,47
1491695801121,3,-4,25,-69,-91,91,1,18,-29
1491695801122,0,-6,-14,20,73,-61,-118,-50,17
1491695801122,0,-3,15,57,49,63,57,15,-8
1491695801167,1,12,-51,-16,60,-68,49,28,57
1491695801167,1,-27,31,-22,-49,6,-111,-81,-48
1491695801168,2,20,-29,19,19,-78,105,44,61
1491695801168,2,-3,29,-27,-35,32,33,25,-21
1491695801170,0,-5,-1,-106,50,11,-99,-6,-8
1491695801170,0,-25,-41,40,-31,-59,-62,-10,39
1491695801171,1,1,-1,-51,-11,111,99,24,-16
1491695801171,1,-1,-2,-66,-9,-100,-35,1,-55
1491695801215,2,-9,13,79,15,127,92,12,36
1491695801215,2,6,-12,-90,-94,-104,-79,-8,4
1491695801217,3,-12,35,83,-24,-29,-71,-23,-46
1491695801217,3,2,-36,-89,-97,53,65,-4,35
1491695801218,1,-2,-9,-15,-128,-121,-46,-22,44
1491695801218,1,-16,-25,127,127,127,109,18,-23
1491695801219,2,-23,3,-15,-31,-128,-128,-22,2
1491695801219,2,59,62,22,-21,127,-8,22,13
1491695801264,3,-26,-2,-29,62,-77,101,-14,-104
1491695801264,3,-3,23,127,30,62,-120,-7,52
1491695801266,0,15,-52,-128,-123,19,119,10,-10
1491695801266,0,-30,-15,-119,-102,31,-91,-3,-8
1491695801267,2,8,114,127,8,90,56,6,-1
1491695801267,2,18,-21,-93,-42,-41,35,5,-57
1491695801268,3,4,9,-39,-1,-63,-17,4,14
1491695801268,3,17,56,99,127,73,54,31,103
1491695801313,0,13,-1,-100,-128,1,-24,18,47
1491695801313,0,-44,-112,-48,-47,-66,6,-34,-50
1491695801314,1,-13,17,11,68,111,47,-23,-20
1491695801314,1,5,-8,43,72,-106,-62,2,14
1491695801316,3,0,-69,-110,-128,-14,-73,2,25
1491695801316,3,-1,21,-11,-12,1,115,5,-40
1491695801318,0,8,37,-42,-32,40,-88,-26,-34
1491695801318,0,8,-4,107,32,-87,-26,0,21
1491695801362,1,11,1,56,38,104,-15,31,19
1491695801362,1,4,28,-56,-62,-26,72,9,-44
1491695801364,2,-48,-115,-80,-69,-72,-104,-65,11
1491695801364,2,-4,-23,24,58,127,20,-19,-40
1491695801366,0,20,42,-28,54,-128,43,27,15
1491695801366,0,-34,-80,-128,-87,-4,-51,-22,-21
1491695801367,1,18,34,106,37,10,42,9,4
1491695801367,1,18,21,-1,24,113,70,11,-14
1491695801411,2,-12,-72,-63,-107,-103,-58,7,4
1491695801411,2,3,-41,-36,-58,35,-35,3,30
1491695801413,3,-19,-25,34,74,-13,-5,-18,-31
1491695801413,3,-5,14,-128,-56,-72,-17,-17,-19
1491695801414,0,2,-12,74,97,101,-29,-8,27
1491695801414,0,11,116,45,-81,105,106,-1,1
1491695801415,1,-2,-57,11,-77,-128,-50,11,-10
1491695801415,1,-2,-15,-106,30,35,45,4,-15
1491695801459,2,-18,-28,57,127,-6,-89,-29,-15
1491695801459,2,25,7,34,-82,34,4,9,44
1491695801461,3,-19,-24,-102,-28,43,35,-12,-2
1491695801461,3,3,76,127,127,90,-7,3,-5
1491695801463,1,-4,-11,-38,-111,-15,-49,-24,-10
1491695801463,1,-17,-85,-92,-127,-81,-43,-17,-34
1491695801464,2,9,16,112,-20,54,70,3,26
1491695801464,2,4,75,62,76,-82,-76,-2,-3
1491695801508,3,32,16,110,80,127,127,12,27
1491695801508,3,4,56,-128,27,86,-48,35,-44
1491695801510,0,-47,-104,-43,-24,-92,-68,-22,4
1491695801510,0,-12,1,35,38,127,71,-1,-1
1491695801511,2,1,-78,-19,101,-4,62,14,-1
1491695801511,2,-4,-43,-108,-72,-128,-124,-18,-1
1491695801512,3,-24,25,-57,8,-91,-21,-10,-2
1491695801512,3,16,7,3,-50,-8,52,1,56
1491695801557,0,35,127,121,113,127,49,44,-20
1491695801557,0,-34,-127,-102,-79,-112,-77,-40,21
1491695801559,1,-15,32,-30,-40,-62,-58,-16,-54
1491695801559,1,-11,-45,82,16,-79,27,2,-29
1491695801560,3,13,-1,-58,-128,-52,-21,15,-7
1491695801560,3,-3,-17,61,77,-50,-94,-29,2
1491695801561,0,-14,6,-70,-88,-80,2,-4,-6
1491695801561,0,22,50,35,-15,85,47,5,-6
1491695801606,1,8,-46,27,56,94,41,15,4
1491695801606,1,-7,-43,-12,61,37,-51,-11,14
1491695801607,2,28,6,25,-114,-45,8,5,16
1491695801607,2,-26,-39,-46,-48,-83,-96,-28,30
1491695801609,0,6,25,72,72,127,44,30,-14
1491695801609,0,0,-25,-57,59,-87,-56,-8,-32
1491695801610,1,-6,24,103,56,3,60,13,39
1491695801610,1,-22,-49,-128,-90,-102,-58,-38,-50
1491695801654,2,-38,-114,-102,2,-106,-76,-2,18
1491695801654,2,24,127,127,-2,64,39,27,40
1491695801656,3,14,2,66,121,50,8,-12,-18
1491695801656,3,-7,56,8,-128,31,-25,1,55
1491695801657,1,24,-27,-31,-16,-1,-44,3,44
1491695801657,1,-6,-34,65,27,93,75,15,7
1491695801658,2,-25,-49,-127,-72,-122,-82,-39,-46
1491695801658,2,17,32,97,-39,41,31,-21,-53
1491695801703,3,2,-12,-37,-40,14,20,6,50
1491695801703,3,-27,-78,26,47,25,-62,-19,-33
1491695801705,0,23,61,54,2,98,39,18,-14
1491695801705,0,4,30,17,127,-34,-36,2,38
1491695801706,2,1,-24,6,9,69,-13,5,29
1491695801706,2,8,60,43,-4,51,-8,-4,-8
1491695801708,3,31,-13,22,52,107,-20,19,16
1491695801708,3,-10,-33,-51,-30,-128,-87,-22,10
1491695801752,0,-9,20,21,-20,-46,26,-11,-14
1491695801752,0,15,-43,-50,-68,89,7,16,18
1491695801753,1,-20,10,14,32,23,75,20,-44
1491695801753,1,11,8,-15,-65,51,7,-9,38
1491695801755,3,14,45,-73,-43,13,-24,11,52
1491695801755,3,-9,23,28,7,3,36,7,-36
1491695801756,0,3,-27,15,28,102,37,6,12
1491695801756,0,-4,69,9,14,-83,3,14,46
1491695801802,1,13,-85,-10,-28,14,-3,1,-9
1491695801802,1,-5,29,-61,-62,-41,-28,-29,-64
1491695801804,2,-24,13,24,5,52,0,6,28
1491695801804,2,21,-49,25,36,42,60,29,6
1491695801805,3,-21,62,12,3,-73,33,-5,-4
1491695801805,3,-5,2,-40,-41,33,-19,12,36
1491695801806,0,-16,-62,-61,-32,51,28,-18,-58
1491695801806,0,-6,31,39,48,69,22,15,-10
1491695801849,1,9,18,0,-41,-5,-18,10,-8
1491695801849,1,7,-8,-40,9,64,78,4,12
1491695801851,2,-12,-25,-40,-38,-107,-86,-26,-4
1491695801851,2,-5,8,32,-5,73,5,4,-33
1491695801852,0,15,-11,32,-11,127,53,12,11
1491695801852,0,-17,-27,-48,-13,-128,-68,-24,-31
1491695801854,1,-16,6,3,82,59,-42,-2,-23
1491695801854,1,9,-11,45,-52,-24,22,-3,53
1491695801898,2,5,-37,-38,-3,-13,-79,-6,-16
1491695801898,2,-21,-14,-18,-5,-17,18,-6,-8
1491695801900,3,-15,30,3,9,-101,13,-25,-30
1491695801900,3,19,-66,44,50,117,45,24,3
1491695801901,1,7,47,-31,-1,33,-5,-14,-13
1491695801901,1,-22,16,23,1,-38,-2,6,-53
1491695801905,2,8,-17,8,10,-30,54,5,31
1491695801905,2,-16,-22,30,53,127,14,4,-20
1491695801947,3,-1,21,38,12,-42,-36,-11,12
1491695801947,3,9,13,-56,-30,-96,-17,-5,-31
1491695801949,0,-4,-32,-9,-25,-96,-40,9,6
1491695801949,0,-7,-57,-15,10,17,36,-21,31
1491695801950,2,-21,-37,-77,-87,-81,-69,-13,28
1491695801950,2,22,14,-24,-107,-44,31,-8,-58
1491695801951,3,2,-59,-33,-36,-21,0,16,80
1491695801951,3,-17,46,39,39,75,-23,1,-44
1491695801996,0,12,41,127,127,75,71,5,-23
1491695801996,0,11,33,-48,0,5,5,17,2
1491695801998,1,-9,-50,-28,-128,-81,-67,-33,3
1491695801998,1,-7,-8,-93,-78,38,17,-5,-19
1491695801999,3,0,-9,28,25,41,32,7,-25
1491695801999,3,-27,-42,-15,-51,-50,-55,-12,20
1491695802000,0,18,45,127,99,79,29,-7,-6
1491695802000,0,2,48,-121,-117,-64,11,-5,-53
1491695802044,1,-15,-26,-16,-55,36,-40,-8,21
1491695802044,1,11,-33,114,102,-66,-29,-2,77
1491695802046,2,-18,-18,-73,-42,63,1,-2,-8
1491695802046,2,-15,51,47,42,50,4,-11,-67
1491695802047,0,-6,-44,10,-84,39,2,27,86
1491695802047,0,3,54,-10,54,50,13,-6,-3
1491695802049,1,-9,0,-45,-68,34,11,1,-91
1491695802049,1,15,27,106,107,-21,-70,3,49
1491695802093,2,16,17,-65,-83,-122,6,-9,-56
1491695802093,2,-23,-63,62,-52,-13,25,-1,84
1491695802095,3,1,68,-41,-1,63,22,-10,24
1491695802095,3,-20,-53,-13,-11,95,22,9,-48
1491695802096,1,16,-5,37,-14,103,32,22,7
1491695802096,1,8,27,67,79,-5,-95,0,17
1491695802097,2,-47,-77,-98,-116,-54,-47,-35,-54
1491695802097,2,2,-39,-7,-49,-17,70,12,-42
1491695802142,3,25,66,39,89,-128,43,3,81
1491695802142,3,-18,40,39,-50,127,19,-6,-72
1491695802144,0,-1,-25,-8,23,127,-47,-4,61
1491695802144,0,20,-30,30,69,-26,-3,18,10
1491695802146,1,-26,11,-60,-24,66,-12,8,-79
1491695802146,1,47,3,7,-53,-76,91,15,111
1491695802147,2,-28,-12,86,127,-30,-14,-16,-72
1491695802147,2,1,24,13,-66,1,-9,-9,29
1491695802191,3,-1,-50,-69,74,69,-23,-12,-2
1491695802191,3,-18,-64,-37,-80,-78,-10,-18,-45
1491695802192,0,6,24,-38,-116,-111,-60,4,69
1491695802192,0,-20,19,3,58,82,56,-9,-77
1491695802194,2,-10,26,10,10,36,25,5,14
1491695802194,2,-12,-1,18,13,61,-28,-24,31
1491695802195,3,17,-9,65,108,-35,-1,16,27
1491695802195,3,8,17,-76,-100,5,24,18,21
1491695802239,0,1,11,-17,91,44,61,10,-80
1491695802239,0,7,-15,-15,30,-53,-119,-16,54
1491695802241,1,-31,-25,-126,-107,86,-23,-28,-15
1491695802241,1,-3,-4,127,76,-16,-55,-11,-20
1491695802242,3,-7,-36,24,-87,-55,-62,-28,-42
1491695802242,3,0,54,90,100,46,76,34,41
1491695802243,0,-13,-29,19,-78,72,-34,-27,-70
1491695802243,0,-8,-6,-33,-72,-75,-35,5,23
1491695802337,1,-7,-19,-68,-114,19,7,-37,5
1491695802337,1,4,-30,2,93,-62,18,48,40
1491695802340,2,-13,53,127,122,38,4,-27,-88
1491695802340,2,-5,-55,-66,-26,27,6,0,-24
1491695802341,0,5,23,99,110,65,27,-17,-51
1491695802341,0,12,-21,-1,51,4,-10,7,-14
1491695802342,1,-6,-6,-64,-44,40,59,23,40
1491695802342,1,-12,7,-67,74,-36,-48,-19,-26
1491695802385,2,10,16,-44,-83,-24,-1,9,43
1491695802385,2,9,16,127,50,19,24,-13,-9
1491695802387,3,-21,-27,-2,-12,-19,-21,17,-17
1491695802387,3,20,25,31,-56,70,63,7,-15
1491695802388,1,-32,-2,28,56,17,38,-38,-55
1491695802388,1,-7,22,91,57,118,68,28,-7
1491695802434,2,-4,-22,-67,-4,-66,-64,4,-14
1491695802434,2,-9,-25,-4,-87,-24,-10,-20,46
1491695802436,3,1,36,30,25,31,17,7,-18
1491695802436,3,0,-6,-94,-80,94,-52,-15,-13
1491695802437,0,11,9,127,108,81,95,27,-35
1491695802437,0,-27,16,-111,-83,-118,20,-10,1
1491695802438,3,5,-17,107,127,-128,92,32,-30
1491695802438,3,-6,-20,-86,-114,-15,-128,-47,-27
1491695802483,0,-12,46,86,-74,-4,111,17,64
1491695802483,0,-1,-41,66,10,99,40,-6,-71
1491695802484,1,28,-11,8,61,-17,-64,1,106
1491695802484,1,-24,-4,28,89,13,52,2,2
1491695802485,2,24,14,-107,-88,68,59,25,22
1491695802485,2,-1,-22,24,11,-125,-108,-9,10
1491695802486,3,-23,1,73,26,-29,-57,-34,-72
1491695802486,3,18,53,-1,40,8,42,7,-17
1491695802532,0,-12,-28,-35,-49,46,-46,6,33
1491695802532,0,-5,11,-26,3,-39,103,32,-23
1491695802533,1,-8,-23,-83,-34,17,-68,-54,-18
1491695802533,1,12,-12,3,-17,-14,-1,-4,24
1491695802534,0,-11,45,18,-18,-42,16,9,-21
1491695802534,0,31,8,-41,-10,28,-48,7,5
1491695802535,1,11,-44,-99,-47,-93,-14,9,14
1491695802535,1,-29,32,32,-67,30,6,12,-4
1491695802580,2,-11,-12,8,43,-100,35,-13,-30
1491695802580,2,8,-27,67,39,110,9,-14,42
1491695802582,3,17,13,-78,49,102,-41,-1,33
1491695802582,3,7,9,37,9,-78,-50,7,-28
1491695802583,1,1,-1,118,69,127,3,15,47
1491695802583,1,9,18,18,83,-112,-93,-34,-13
1491695802584,2,-23,-21,-77,-112,-28,49,6,4
1491695802584,2,-27,-25,-31,-44,-44,-38,-18,-27
1491695802632,3,18,-19,-48,-53,1,-32,10,6
1491695802632,3,1,46,24,83,119,21,11,16
1491695802633,0,40,28,127,127,50,5,-5,51
1491695802633,0,-22,-11,15,15,-37,3,-4,-3
1491695802634,2,-11,8,-38,-13,50,-52,-35,73
1491695802634,2,47,37,65,26,18,22,62,-6
1491695802635,3,-64,-69,-73,-128,-99,-69,-20,-23
1491695802635,3,12,4,9,-44,-54,-17,-1,61
1491695802678,0,-9,-28,17,39,78,-49,-20,-62
1491695802678,0,-2,53,76,75,-47,27,-10,-4
1491695802680,1,31,13,-12,-23,37,21,10,-4
1491695802680,1,-5,24,77,84,75,-44,29,27
1491695802681,3,15,14,57,-41,-5,-33,-27,-72
1491695802681,3,-10,6,58,55,104,50,23,-8
1491695802683,0,12,44,65,73,-9,45,13,-35
1491695802683,0,3,-23,-107,-72,-57,93,3,27
1491695802727,1,-33,-87,-44,-82,-104,-5,-27,-25
1491695802727,1,-15,15,1,-46,-82,-21,-18,-10
1491695802728,2,-15,22,47,72,42,-92,1,18
1491695802728,2,21,1,-5,-52,122,7,23,-28
1491695802729,0,0,-69,-48,-36,62,17,36,4
1491695802729,0,-9,52,82,56,19,-27,-35,-12
1491695802730,1,23,23,14,102,127,-30,31,-21
1491695802730,1,-2,-3,-14,-125,-106,44,6,-27
1491695802776,2,-1,73,76,-1,-28,75,-19,-39
1491695802776,2,10,-97,-114,-70,24,-8,27,-8
1491695802784,3,-37,-7,-36,-91,-72,21,-8,-7
1491695802784,3,-11,-5,18,48,64,-38,-25,-10
1491695802786,1,-8,-39,-2,113,-84,33,-24,-55
1491695802786,1,-23,-81,-66,-128,-34,-115,-2,78
1491695802790,2,-17,-13,13,-49,53,-85,-60,-69
1491695802790,2,17,42,-29,46,123,49,20,105
1491695802824,3,7,32,103,58,111,-21,41,-5
1491695802824,3,0,4,2,27,-86,-13,-24,70
1491695802826,0,12,-13,-31,-42,47,64,54,54
1491695802826,0,-41,-74,-60,-25,-128,-60,-50,-46
1491695802827,1,-1,-44,57,-14,32,-1,16,35
1491695802827,1,-13,59,79,53,74,10,14,-53
1491695802828,2,29,27,20,27,37,-33,11,40
1491695802828,2,-38,-5,-39,-47,-76,-34,-12,-70
1491695802873,3,29,53,-64,-78,1,66,-18,30
1491695802873,3,-20,-33,2,-35,-32,-110,-41,-60
1491695802875,0,-4,-20,-46,-9,29,-60,-13,-61
1491695802875,0,16,46,42,46,96,93,47,-11
1491695802876,2,-27,-38,-100,-128,-31,-83,-53,-24
1491695802876,2,-12,-44,80,7,-31,-105,-17,19
1491695802877,3,32,109,81,46,88,48,14,37
1491695802877,3,10,10,7,127,127,93,30,-58
1491695802922,0,-5,-61,-128,-119,-128,-79,-9,24
1491695802922,0,-27,2,20,-27,-47,-1,-42,-85
1491695802923,1,-29,-17,-28,-34,23,-39,-11,17
1491695802923,1,25,48,117,80,127,100,52,15
1491695802925,3,-42,-21,-72,-114,-66,-63,-81,-71
1491695802925,3,12,18,-6,42,25,103,57,35
1491695802926,0,-7,-19,74,-16,48,-30,-22,-57
1491695802926,0,2,23,48,36,-6,-34,-27,12
1491695802970,1,-14,-34,-22,92,-1,18,31,48
1491695802970,1,7,47,16,-66,127,4,-10,-67
1491695802972,2,-14,-29,-52,-6,-53,39,1,49
1491695802972,2,-12,-67,-44,-51,-69,-50,10,-36
1491695802974,0,-9,-11,-3,86,12,127,1,-1
1491695802974,0,29,-21,74,122,-16,-84,-5,61
1491695802975,1,-31,13,-5,-105,-2,-90,-32,-34
1491695802975,1,-16,-9,75,-18,-66,38,-15,16
1491695803019,2,22,28,-9,-9,28,47,48,91
1491695803019,2,10,-11,50,56,123,15,-13,-57
1491695803021,3,25,64,56,-1,127,100,31,-62
1491695803021,3,-28,-76,-97,63,-113,-128,-31,-35
1491695803022,1,31,24,-109,-61,30,-82,2,-39
1491695803022,1,-41,-6,7,28,-38,-41,-31,-26
1491695803023,2,-18,-64,80,52,31,-37,-12,17
1491695803023,2,-2,-11,-70,59,118,62,4,-23
1491695803068,3,-15,-43,-14,-42,-117,-58,-4,33
1491695803068,3,14,12,57,61,4,23,-1,22
1491695803070,0,13,70,-45,-94,-78,-12,7,-31
1491695803070,0,-15,-34,-62,-116,-6,-62,-30,-16
1491695803071,2,9,2,87,3,63,-10,12,-4
1491695803071,2,23,77,-70,-45,-123,43,11,-8
1491695803072,3,-31,-110,-36,85,-63,-83,-29,21
1491695803072,3,15,21,127,87,78,63,1,8
1491695803117,0,-28,-17,-11,-12,14,-11,-5,-31
1491695803117,0,8,56,100,28,94,19,7,5
1491695803119,1,-16,-38,-77,-93,-128,-62,-17,-29
1491695803119,1,-10,-63,78,29,38,-29,-13,23
1491695803120,3,-9,34,41,42,45,92,9,0
1491695803120,3,25,15,-58,-51,8,-6,14,27
1491695803121,0,-2,85,-60,-49,74,15,11,-27
1491695803121,0,14,-42,61,120,-57,28,-3,-22
1491695803165,1,-20,-52,27,89,-67,-63,-28,6
1491695803165,1,-17,-55,-89,-125,61,-60,-10,17
1491695803167,2,-2,23,10,10,0,31,-6,-11
1491695803167,2,39,106,7,-101,127,77,19,27
1491695803169,0,7,-10,29,14,13,-23,-4,-35
1491695803169,0,-23,-74,-115,-104,15,19,-8,-6
1491695803170,1,43,127,127,50,42,28,31,26
1491695803170,1,1,-7,-83,6,-24,23,1,-30
1491695803214,2,0,-45,-13,34,-62,-48,-10,43
1491695803214,2,-21,42,10,-43,-33,42,-27,-23
1491695803215,3,10,24,-7,73,110,-38,2,-16
1491695803215,3,16,16,24,-6,61,115,23,10
1491695803217,0,-14,25,-107,-111,-101,-11,4,-14
1491695803217,0,-32,-105,-61,95,-23,-90,-27,-13
1491695803217,1,-8,-9,12,-39,63,50,2,12
1491695803217,1,27,2,74,-16,27,-52,-9,3
1491695803263,2,-8,65,-15,78,38,39,-5,-38
1491695803263,2,15,-34,58,-16,54,-53,24,37
1491695803265,3,-10,-14,-75,-78,-116,-18,8,20
1491695803265,3,-1,-46,-34,-55,12,-53,-28,-44
1491695803266,1,2,-89,79,39,-16,-18,-9,-15
1491695803266,1,-7,-50,32,26,31,14,-7,-11
1491695803267,2,-15,33,15,-60,-114,-128,-14,64
1491695803267,2,-15,-68,-26,17,73,21,-17,-30
1491695803312,3,26,15,-17,-40,51,125,21,-13
1491695803312,3,-11,-87,-111,-17,-52,16,-1,40
1491695803313,0,25,50,18,62,8,-9,15,21
1491695803313,0,2,82,98,-7,61,-20,10,30
1491695803315,2,-41,-90,72,56,117,95,25,-11
1491695803315,2,23,50,-57,15,-118,-25,3,40
1491695803316,3,12,3,86,18,90,14,22,12
1491695803316,3,-14,26,-20,28,-92,-54,-20,14
1491695803360,0,4,2,-50,-24,12,-5,-17,-43
1491695803360,0,-4,-41,60,6,-45,19,-9,31
1491695803362,1,-3,-30,-47,-114,-8,23,-6,-10
1491695803362,1,-2,30,18,44,34,6,28,34
1491695803363,3,-2,38,-59,-120,-65,-9,-9,38
1491695803363,3,-12,6,67,58,106,94,24,-41
1491695803364,0,-13,-50,-101,18,-50,-70,-38,10
1491695803364,0,6,36,-5,-18,-11,-44,-12,-24
1491695803409,1,11,50,69,18,86,-4,11,24
1491695803409,1,6,51,34,75,127,53,8,-27
1491695803410,2,3,-25,-33,18,-35,15,-18,-29
1491695803410,2,-19,-29,-34,-64,-51,-13,12,30
1491695803413,0,5,18,10,27,127,-35,1,8
1491695803413,0,-19,-71,15,-8,-114,-13,-3,1
1491695803414,1,21,84,8,22,72,39,16,-27
1491695803414,1,-6,9,53,-43,-107,-89,-20,13
1491695803458,2,17,-25,-14,-17,-7,43,5,5
1491695803458,2,-6,32,-21,-17,17,40,13,-27
1491695803459,3,-49,-48,4,-5,-94,-32,-22,-28
1491695803459,3,11,32,26,30,13,-4,23,-13
1491695803460,1,21,56,-14,4,23,37,6,9
1491695803460,1,-24,24,60,100,-30,11,2,0
1491695803461,2,-18,-59,21,-65,78,9,7,24
1491695803461,2,-2,-5,-66,-1,-55,-57,1,22
1491695803506,3,-15,-17,14,-52,-19,-12,-26,15
1491695803506,3,17,39,1,-2,14,24,13,-8
1491695803507,0,-32,-84,69,53,17,4,-13,-25
1491695803507,0,2,23,-26,-30,0,-19,4,12
1491695803508,2,12,13,-33,-6,-5,37,18,14
1491695803508,2,22,-15,34,-3,-12,31,-8,-10
1491695803509,3,-10,-22,9,30,40,-15,14,13
1491695803509,3,1,11,-83,-42,-58,0,-28,-11
1491695803555,0,1,11,95,41,-61,16,12,-23
1491695803555,0,-5,-4,-52,-40,122,10,-20,-32
1491695803556,1,3,-14,3,8,-46,-86,14,46
1491695803556,1,17,-12,3,52,127,67,41,74
1491695803557,2,-18,-25,6,-46,-64,14,-38,-84
1491695803557,2,13,-4,-38,19,47,27,3,6
1491695803558,3,-13,-23,-55,-47,-15,-24,-20,-39
1491695803558,3,-2,22,-29,5,58,-5,11,68
1491695803604,0,-14,-24,45,20,-47,-30,16,-5
1491695803604,0,-5,-5,44,29,18,10,-24,-37
1491695803605,1,41,12,-2,-3,50,28,7,32
1491695803605,1,-15,-6,-29,21,-38,21,5,-7
1491695803606,3,4,-61,23,56,24,63,-3,-2
1491695803606,3,-16,-22,-49,-43,-30,-28,-15,-8
1491695803607,0,-3,1,51,-5,31,9,11,32
1491695803607,0,-6,-21,-113,-84,-49,42,11,16
1491695803653,1,-3,3,61,39,16,-36,0,-17
1491695803653,1,16,37,16,-18,70,16,5,17
1491695803654,2,-14,-22,-93,-33,16,-4,0,-12
1491695803654,2,13,5,105,66,21,-31,-13,-22
1491695803655,0,18,85,-18,-26,29,-61,5,74
1491695803655,0,14,8,2,-25,-72,-38,-2,-2
1491695803655,1,-14,1,82,92,83,0,-17,-29
1491695803655,1,3,-20,-99,-105,-112,11,25,58
1491695803701,2,-6,-2,45,64,90,-4,-22,-28
1491695803701,2,-12,5,76,91,35,-63,-2,-28
1491695803702,3,-20,-50,-113,-111,-128,-11,-18,-17
1491695803702,3,20,69,116,-21,-27,49,-3,-5
1491695803703,1,25,-16,-27,45,127,6,32,41
1491695803703,1,-12,20,-18,-62,-85,45,-29,-50
1491695803704,2,9,-22,-20,-119,-85,-32,5,43
1491695803704,2,2,42,61,104,-4,-39,8,-35
1491695803750,3,-20,-51,-13,-7,25,-15,-10,-15
1491695803750,3,10,18,-47,2,39,7,-5,41
1491695803751,0,-5,17,77,40,-20,-10,-16,-46
1491695803751,0,-5,-80,18,46,38,3,22,66
1491695803752,2,-25,-28,79,97,-57,-76,-6,-11
1491695803752,2,-9,-27,-115,-128,-112,42,-36,-31
1491695803754,3,16,10,25,-38,-62,-59,-18,-9
1491695803754,3,-8,-53,24,7,95,20,14,-12
1491695803799,0,-3,65,5,-51,41,-22,0,-17
1491695803799,0,-11,8,74,75,-65,24,-5,9
1491695803800,1,7,-8,-1,4,13,-38,-13,-9
1491695803800,1,-12,-25,-36,-4,9,-26,-15,-44
1491695803801,3,-21,-9,-33,-41,-64,-31,-17,28
1491695803801,3,8,-16,50,-20,69,-94,-19,-20
1491695803804,0,17,-14,48,-45,91,49,25,40
1491695803804,0,-7,29,53,-23,60,-2,9,-6
1491695803848,1,17,40,104,120,16,54,22,22
1491695803848,1,-15,-26,-114,-62,52,-15,3,-9
1491695803849,2,-15,-61,-65,-90,-119,30,-22,-22
1491695803849,2,8,1,70,34,-20,1,-2,57
1491695803850,0,-1,-14,-42,35,127,80,-3,15
1491695803850,0,-28,-10,-87,-120,-86,11,14,13
1491695803851,1,18,16,97,117,-109,-68,-17,-33
1491695803851,1,12,16,22,-1,8,42,17,53
1491695803896,2,-22,-14,-18,-62,87,85,-2,-73
1491695803896,2,-10,-33,-36,4,-20,-52,4,2
1491695803897,3,0,10,-104,-89,84,55,6,-2
1491695803897,3,-6,-39,69,65,6,-9,7,26
1491695803898,0,4,46,-14,4,-128,-101,-20,-5
1491695803898,0,13,-3,10,7,64,71,9,34
1491695803900,1,-19,8,50,25,-11,-4,-2,-42
1491695803900,1,14,-13,-17,98,67,-11,0,4
1491695803994,2,1,-7,25,36,-106,3,-8,-20
1491695803994,2,3,1,-39,-31,7,-56,-15,3
1491695803996,3,-10,-19,-105,-1,21,11,-16,23
1491695803996,3,-30,-23,42,10,47,-44,-14,-16
1491695803997,1,1,-29,64,64,71,-38,-5,29
1491695803997,1,-9,-12,-17,-39,21,55,14,74
1491695804010,2,-2,-17,-20,-66,127,-55,-8,-10
1491695804010,2,-13,41,79,29,-29,-9,-16,-62
1491695804043,3,8,-20,-79,-123,35,47,29,45
1491695804043,3,4,56,113,99,-31,-45,-16,-70
1491695804044,0,5,-14,-128,1,-104,-26,3,28
1491695804044,0,-16,-65,96,-79,-27,-40,-26,-39
1491695804045,2,39,47,65,16,-39,-19,-11,41
1491695804045,2,20,18,59,99,-43,1,42,29
1491695804046,3,4,51,32,32,-120,6,-13,-1
1491695804046,3,6,-21,-57,-67,25,-25,11,-36
1491695804091,0,-29,-71,-77,-63,-92,36,7,33
1491695804091,0,10,4,69,-45,38,-125,2,34
1491695804092,1,1,-10,-92,64,125,114,0,19
1491695804092,1,-5,9,10,32,-67,42,-5,18
1491695804093,0,-21,-16,-14,-88,-37,0,25,-34
1491695804093,0,-16,-51,-36,19,36,-49,-30,36
1491695804094,1,3,4,82,46,59,-29,-5,26
1491695804094,1,10,34,-13,57,-60,-9,24,-24
1491695804189,2,-6,-8,-7,-42,84,87,-7,-67
1491695804189,2,0,-15,-76,-51,-9,-99,6,-10
1491695804190,3,2,45,48,30,2,-8,5,-35
1491695804190,3,-23,-36,36,10,-114,0,-5,44
1491695804191,1,-13,78,-94,-123,60,16,-9,-21
1491695804191,1,9,-20,64,63,-23,29,1,9
1491695804193,2,-19,15,63,64,-30,-1,22,30
1491695804193,2,1,-7,57,22,28,109,7,37
1491695804286,3,18,-49,-34,15,-52,-97,10,29
1491695804286,3,-16,-18,10,-118,7,-87,-33,-19
1491695804287,0,2,-15,-26,-24,97,-9,1,31
1491695804287,0,2,39,14,49,41,47,9,-99
1491695804288,2,-12,6,-47,-98,81,-128,-19,17
1491695804288,2,23,-23,-67,-28,-34,87,48,78
1491695804289,2,-20,-92,-19,-17,-19,106,3,-3
1491695804289,2,1,62,-20,6,40,-42,-2,-7
1491695804339,3,7,13,10,-20,94,-22,10,-5
1491695804339,3,-3,-10,-61,-54,-24,71,23,57
1491695804340,0,-4,-48,-85,-48,-103,-16,-27,-17
1491695804340,0,-18,11,-15,-6,18,-21,-49,-53
1491695804341,3,-18,-4,47,45,74,78,0,-2
1491695804341,3,10,81,-61,-62,45,-76,0,-65
1491695804342,0,-21,-9,-7,3,4,-87,-37,-43
1491695804342,0,39,26,8,1,40,45,19,36
1491695804388,1,6,-9,10,58,-59,7,18,37
1491695804388,1,-9,-16,49,30,75,127,16,-18
1491695804389,2,-8,-14,-95,-60,90,-13,9,-13
1491695804389,2,-4,58,99,80,-72,-34,-6,8
1491695804390,1,-8,12,4,38,-9,14,3,-10
1491695804390,1,-7,-31,-1,7,-117,16,7,19
1491695804391,2,-13,12,6,-15,13,108,-24,2
1491695804391,2,-11,10,105,93,59,-8,2,-94
1491695804433,3,18,2,-88,-74,65,-68,-10,-35
1491695804433,3,-5,-68,-88,-1,-69,-100,-1,70
1491695804434,0,-1,23,30,-26,100,-80,8,-52
1491695804434,0,-7,-43,-73,-46,23,89,0,45
1491695804435,2,0,12,-5,18,-46,-12,-27,-22
1491695804435,2,-3,-23,32,48,83,-50,15,-13
1491695804436,3,-17,-11,-25,16,-128,-25,0,-3
1491695804436,3,0,-12,18,-64,127,102,-13,44
1491695804482,0,-11,22,39,70,26,43,27,-17
1491695804482,0,-14,-52,-48,-25,-87,13,-16,30
1491695804484,1,19,-12,-12,-99,105,58,9,-15
1491695804484,1,16,24,1,127,-52,-38,41,52
1491695804485,3,15,15,-55,-68,-40,-68,26,25
1491695804485,3,1,3,-29,5,40,3,-41,2
1491695804486,0,11,-3,45,80,46,-12,7,-25
1491695804486,0,6,-9,-98,-53,21,-9,1,-9
1491695804530,1,5,-24,72,127,-92,9,27,-36
1491695804530,1,-27,-9,41,-128,-30,5,-48,-66
1491695804533,2,-15,-30,-74,-39,6,91,-1,7
1491695804533,2,-13,-12,-96,-128,42,-33,4,8
1491695804535,0,12,-26,79,127,21,-74,-3,12
1491695804535,0,11,89,90,-47,13,-16,-24,-20
1491695804537,1,-12,-29,-128,-128,43,32,-15,19
1491695804537,1,3,-34,-20,115,-103,-26,11,-14
1491695804579,2,20,25,-54,-83,42,59,-8,11
1491695804579,2,-8,-57,86,106,-41,-78,8,67
1491695804581,3,21,16,102,66,-46,65,3,-27
1491695804581,3,-58,-1,-26,15,85,-35,-29,-33
1491695804582,1,-15,-7,6,-19,-94,-19,-5,-23
1491695804582,1,3,37,97,44,125,-10,-12,16
1491695804583,2,-3,-14,-43,-5,-72,-41,32,73
1491695804583,2,-42,-85,-1,-72,25,-35,-27,-74
1491695804628,3,44,72,-10,85,49,-12,6,67
1491695804628,3,7,-30,-25,-80,62,-18,-15,-4
1491695804630,0,-20,-3,51,68,20,78,16,22
1491695804630,0,4,82,73,31,-74,10,10,-7
1491695804631,1,-10,-76,-35,28,95,-30,-15,-15
1491695804631,1,7,46,-38,-32,-88,12,23,-39
1491695804632,2,-9,-38,-7,34,37,-45,-33,14
1491695804632,2,29,-43,-55,-35,-6,99,42,35
1491695804677,3,-21,58,17,-117,4,-90,-41,13
1491695804677,3,-6,-46,-89,-4,80,-7,-16,-80
1491695804678,0,1,6,10,33,-128,-64,14,40
1491695804678,0,4,2,62,59,127,51,-19,-9
1491695804680,2,-5,127,32,39,8,50,-14,-33
1491695804680,2,13,-36,-79,-9,-125,-20,20,-49
1491695804681,3,-15,-21,-38,-108,70,70,-17,-28
1491695804681,3,-14,-4,56,58,-101,-20,14,77
1491695804725,0,9,17,26,-29,63,-1,-16,-62
1491695804725,0,-3,-26,-110,127,25,-128,-8,87
1491695804727,1,-32,-76,20,-90,-69,75,-23,-34
1491695804727,1,-11,50,42,9,-55,-33,20,52
1491695804729,3,-22,-49,-125,-54,-59,56,41,-45
1491695804729,3,-17,-61,21,-35,-51,39,-11,6
1491695804730,0,-9,-113,127,23,12,-50,-2,46
1491695804730,0,7,56,79,106,127,39,9,5
1491695804774,1,21,38,-64,7,-57,-35,17,47
1491695804774,1,-4,36,-41,-127,-41,20,-38,-68
1491695804775,2,25,41,35,5,60,30,43,62
1491695804775,2,-24,-69,-120,47,122,30,-9,-36
1491695804776,0,-11,-11,-75,-38,89,-128,-57,10
1491695804776,0,-18,-114,-13,-102,-69,16,27,-24
1491695804777,1,12,107,127,95,-38,29,11,68
1491695804777,1,-12,-30,-128,-94,-73,-75,-21,-39
1491695804871,2,-5,-25,-15,-37,14,75,-21,-77
1491695804871,2,15,62,7,-6,7,14,52,114
1491695804876,3,-3,-31,-100,-89,65,-25,-13,-83
1491695804876,3,8,-34,-20,81,-44,-35,-33,22
1491695804877,1,-6,8,50,10,3,-7,-6,-7
1491695804877,1,16,20,-3,94,82,14,16,21
1491695804878,2,11,14,-8,31,-128,30,11,24
1491695804878,2,-23,4,-107,-111,7,-15,-33,-34
1491695804920,3,2,-34,92,49,66,-84,-21,-42
1491695804920,3,7,24,49,67,-37,30,21,11
1491695804921,0,11,40,-22,-128,66,17,14,3
1491695804921,0,-25,-68,-74,45,-110,18,-15,-16
1491695804923,3,-1,-23,3,-14,69,48,-3,30
1491695804923,3,26,86,45,-105,60,69,25,-8
1491695804923,0,-1,33,48,101,-6,-11,17,-39
1491695804923,0,32,-37,-18,94,44,-7,-24,47
1491695805018,1,3,4,-64,-83,-128,16,26,-8
1491695805018,1,1,49,18,62,127,106,6,35
1491695805069,2,6,-31,-128,-121,-90,-12,10,-27
1491695805069,2,-81,-83,-51,-34,-86,-105,-66,-19
1491695805116,3,28,83,119,127,127,42,-14,33
1491695805116,3,20,54,52,-44,-5,50,20,-7
1491695805164,0,-6,5,-46,33,38,-25,4,32
1491695805164,0,23,13,-16,-3,37,-27,33,4
1491695805165,1,-22,-43,44,92,62,69,3,-26
1491695805165,1,4,-18,-58,-128,-55,-112,-19,-26
1491695805166,2,13,53,127,102,115,15,13,47
1491695805166,2,-1,-19,-81,-32,-96,-54,-11,-71
1491695805167,1,13,2,-121,-121,-39,23,11,42
1491695805167,1,-21,-45,-33,96,-75,-128,-17,-77
1491695805213,2,0,66,6,-14,59,76,8,6
1491695805213,2,17,2,28,-24,127,32,13,26
1491695805214,3,9,-4,-91,-71,-62,-88,-13,-44
1491695805214,3,-12,24,-52,-53,-35,21,8,30
1491695805214,0,-8,31,68,-128,39,80,3,0
1491695805214,0,8,-95,-95,-4,-128,-94,-27,21
1491695805215,0,-21,-114,-100,-62,-35,-18,-5,-27
1491695805215,0,-34,61,86,62,116,6,-5,-22
1491695805261,1,44,-42,50,-84,-37,89,0,1
1491695805261,1,1,21,67,82,-29,-46,-4,70
1491695805262,2,-27,-30,-37,-7,-128,22,-7,-1
1491695805262,2,-9,-70,-60,-3,0,65,39,21
1491695805263,1,-22,-72,-15,-19,-31,-38,-2,-71
1491695805263,1,-12,86,32,-8,-77,40,-10,-21
1491695805264,2,25,2,-1,18,89,0,10,32
1491695805264,2,-30,-69,-97,-59,-128,-89,-20,-60
1491695805310,3,-6,-5,-23,-61,127,87,-7,27
1491695805310,3,16,-3,47,46,-32,-47,7,-27
1491695805311,0,12,17,10,-16,-5,15,-7,-33
1491695805311,0,24,-4,41,43,94,-9,39,56
1491695805314,1,-12,30,-15,-6,-118,-10,-42,-11
1491695805314,1,-12,-7,-38,-22,36,52,16,6
1491695805316,2,3,20,83,26,76,10,-6,4
1491695805316,2,4,-15,-8,27,7,29,6,14
1491695805359,3,-15,-16,-81,-45,-66,-119,2,-2
1491695805359,3,2,9,41,-58,45,6,-23,18
1491695805360,0,-1,-50,11,52,57,6,-1,-62
1491695805360,0,-21,1,-26,44,-53,2,-5,42
1491695805361,2,-11,-38,-44,-89,65,52,0,45
1491695805361,2,-2,31,101,-6,-97,-44,-8,-48
1491695805362,3,-8,4,-19,68,94,8,-1,27
1491695805362,3,16,-16,29,57,84,8,22,-44
1491695805408,0,14,73,6,45,72,-66,-32,43
1491695805408,0,15,24,-31,1,83,-3,17,6
1491695805409,1,-12,-52,-61,-36,-75,47,23,30
1491695805409,1,-8,-16,8,27,-27,1,-16,-39
1491695805410,3,-10,-1,-19,-9,-9,-42,-22,15
1491695805410,3,4,64,88,84,112,21,18,-11
1491695805410,0,-10,-28,-40,2,-128,-61,13,13
1491695805410,0,4,48,74,59,96,71,-33,-6
1491695805457,1,-7,-39,-44,-69,127,6,22,-25
1491695805457,1,-10,-81,-128,16,-72,28,-8,28
1491695805458,2,20,118,111,38,-62,-91,-2,-16
1491695805458,2,4,-19,-55,-47,47,53,18,-16
1491695805459,0,-19,-53,-97,-52,49,-21,-1,36
1491695805459,0,0,29,77,22,7,-10,11,-72
1491695805460,1,2,5,54,30,22,10,3,97
1491695805460,1,20,18,92,20,127,34,22,-61
1491695805505,2,1,22,-4,-58,46,50,3,-17
1491695805505,2,4,-60,-123,-29,-53,34,2,56
1491695805506,3,-20,2,23,62,127,-37,-21,-34
1491695805506,3,16,3,74,-45,39,-13,4,11
1491695805507,1,-10,-88,-128,69,52,83,-12,-39
1491695805507,1,-24,-25,-78,-51,-128,-128,-17,69
1491695805508,2,5,4,20,-31,-49,27,-4,-52
1491695805508,2,-3,-30,79,-32,127,85,-10,23
1491695805554,3,16,36,59,10,23,-34,3,-37
1491695805554,3,-26,28,-58,-8,4,5,-8,-32
1491695805555,0,1,-47,50,97,-16,10,14,29
1491695805555,0,2,37,18,-3,-29,-51,-7,-28
1491695805556,2,10,5,34,-48,97,15,16,30
1491695805556,2,-3,-8,24,-15,8,-65,13,-4
1491695805557,3,6,55,-63,65,101,39,18,-39
1491695805557,3,11,-20,50,4,-5,-42,-8,74
1491695805603,0,-9,-4,-97,11,-86,4,2,-3
1491695805603,0,7,0,97,19,-18,-10,8,-64
1491695805604,1,2,-8,-72,-43,54,26,-7,51
1491695805604,1,-10,10,94,-28,-52,-37,9,-38
1491695805605,3,-6,-21,-3,-54,-128,-73,-2,-23
1491695805605,3,18,68,121,127,35,13,0,57
1491695805606,0,3,-52,-95,-43,-7,28,25,5
1491695805606,0,-9,37,16,13,-34,17,-24,-40
1491695805651,1,-4,-25,-43,-80,-24,-33,1,0
1491695805651,1,-3,-56,-75,-50,25,-37,-8,-55
1491695805653,2,11,109,106,6,127,108,10,34
1491695805653,2,-15,-58,-128,-103,-125,-128,-42,33
1491695805654,3,-5,3,93,123,88,50,21,42
1491695805654,3,-9,-13,35,57,127,73,2,-40
1491695805655,0,12,21,-5,32,102,-97,-9,24
1491695805655,0,-3,7,78,4,-53,44,7,46
1491695805701,1,-5,12,-37,-95,40,-67,-19,-37
1491695805701,1,21,-20,9,15,-90,71,28,19
1491695805703,2,1,-18,51,120,-63,-44,-5,30
1491695805703,2,-3,1,-66,33,58,27,11,-7
1491695805704,0,-26,-6,25,36,-35,-16,-8,-62
1491695805704,0,17,8,-13,-74,-36,5,12,16
1491695805705,1,6,2,55,62,-13,-37,-27,-26
1491695805705,1,0,19,50,32,127,102,13,-19
1491695805749,2,1,-8,-51,10,-68,57,6,-13
1491695805749,2,-21,-45,-32,121,12,-91,-23,44
1491695805750,3,-4,58,38,-42,38,95,8,15
1491695805750,3,13,-38,29,31,39,-23,-7,18
1491695805751,1,-6,16,29,-7,-47,4,-2,-24
1491695805751,1,-11,-14,82,75,112,-72,6,16
1491695805752,2,7,25,-115,-128,-59,107,-2,6
1491695805752,2,7,-33,88,45,100,-68,-4,-74
1491695805798,3,17,24,-49,-52,2,-33,3,36
1491695805798,3,-25,-33,-58,-43,-107,19,16,-8
1491695805800,0,-5,-12,71,76,127,-18,-6,-8
1491695805800,0,-10,11,58,64,-48,45,-17,-4
1491695805801,2,-8,0,8,-36,12,2,-7,-20
1491695805801,2,19,0,-62,-78,127,9,18,47
1491695805802,3,-4,8,127,97,127,127,21,-17
1491695805802,3,6,-67,-128,60,-82,-64,2,83
1491695805847,0,-7,13,-32,-97,-95,-12,-12,-54
1491695805847,0,-27,3,84,65,116,-10,-32,-78
1491695805848,1,4,24,-34,-31,102,-83,6,12
1491695805848,1,8,18,127,77,9,2,3,-4
1491695805849,3,10,41,68,59,-128,-40,-35,-10
1491695805849,3,-33,-24,-6,-20,-58,-46,-10,-35
1491695805850,0,21,35,118,113,127,-8,19,59
1491695805850,0,-24,3,-8,-52,0,37,-10,-36
1491695805895,1,25,-36,-45,34,-37,26,4,68
1491695805895,1,-17,-13,-105,-116,97,6,-25,-91
1491695805897,2,30,26,47,23,-114,32,12,34
1491695805897,2,-21,17,-15,-30,-33,49,14,28
1491695805898,0,-47,-58,-75,42,-50,-128,-33,5
1491695805898,0,20,25,58,1,-23,-29,-18,-41
1491695805899,1,6,-34,-42,-34,-33,104,14,-17
1491695805899,1,-2,52,63,-24,-105,-98,-11,-12
1491695805944,2,5,-22,-44,-64,75,-35,2,19
1491695805944,2,-2,-16,-74,17,-29,45,6,45
1491695805945,3,-33,-47,33,115,-9,-6,9,-79
1491695805945,3,23,57,24,-55,-1,28,2,38
1491695805946,1,23,-34,-19,-21,-41,14,10,68
1491695805946,1,-22,-20,16,72,-26,15,15,-42
1491695805947,2,-9,25,-32,-80,17,-18,-31,-47
1491695805947,2,7,-18,8,65,116,61,23,74
1491695805993,3,-13,84,48,-32,121,40,-1,-46
1491695805993,3,3,-17,-10,21,-91,-83,-20,54
1491695805994,0,-10,-59,-25,6,-5,-29,-21,-17
1491695805994,0,-4,26,6,-13,-22,-12,5,-8
1491695805995,2,-4,-25,-80,-39,25,60,19,-61
1491695805995,2,-25,-22,39,-28,-21,-10,-17,0
1491695805996,3,7,28,-89,-86,-128,-116,-9,-75
1491695805996,3,16,-11,81,47,73,93,23,17
1491695806042,0,-12,-22,-29,13,-31,-60,-20,54
1491695806042,0,27,0,24,37,28,-35,-20,-65
1491695806044,1,-9,30,29,-121,87,13,2,9
1491695806044,1,-7,-33,-24,13,-60,-25,-15,4
1491695806046,2,21,64,71,87,127,91,33,11
1491695806046,2,6,-22,-1,-86,-128,38,5,27
1491695806047,3,-9,-22,-46,79,92,-7,-6,-16
1491695806047,3,-25,-30,-128,-83,-48,-73,-24,9
1491695806090,0,20,27,127,117,-55,0,23,40
1491695806090,0,-11,-5,-71,-17,32,-12,-14,-39
1491695806092,1,20,-9,-16,58,43,116,17,43
1491695806092,1,-18,9,-32,-85,4,-76,-11,-25
1491695806093,3,-26,6,-4,-67,-128,-25,-16,28
1491695806093,3,2,11,89,72,73,-31,-8,15
1491695806096,0,6,2,-65,0,106,-28,7,-51
1491695806096,0,-10,0,-39,-11,-111,-59,10,4
1491695806140,1,-18,-22,-12,15,25,63,-40,1
1491695806140,1,19,4,13,-29,42,45,6,13
1491695806143,2,-5,25,89,50,-57,-17,15,-23
1491695806143,2,7,-22,-101,-27,47,-58,11,24
1491695806144,0,-1,33,68,74,66,9,-4,-3
1491695806144,0,23,22,87,-30,97,60,26,49
1491695806147,1,1,-36,-101,4,10,-69,8,41
1491695806147,1,12,67,4,45,37,51,15,-12
1491695806188,2,-28,-13,-58,-99,-42,7,-19,23
1491695806188,2,-18,-2,46,52,23,-22,-19,-78
1491695806188,3,24,-12,12,58,16,43,14,59
1491695806188,3,0,-3,-83,-59,84,11,12,-66
1491695806189,1,-24,-2,-26,-6,-103,37,-4,-48
1491695806189,1,6,-25,93,117,14,-29,13,38
1491695806190,2,5,30,-123,-62,95,22,-9,-36
1491695806190,2,-4,-25,95,32,40,-31,-4,-26
1491695806236,3,2,16,-64,75,15,57,9,24
1491695806236,3,4,-13,4,-86,-9,-44,-8,18
1491695806237,0,-15,-45,33,-52,8,7,-2,-19
1491695806237,0,1,25,3,-15,11,-4,-2,-15
1491695806238,2,-2,7,24,63,20,-24,-1,15
1491695806238,2,-10,-1,28,42,1,43,9,22
1491695806239,3,22,8,-28,-95,-29,-45,22,24
1491695806239,3,-1,3,-38,-68,-14,-34,-22,-22
1491695806285,0,9,-10,1,30,-12,5,2,12
1491695806285,0,0,21,33,51,38,-3,-4,27
1491695806286,1,-16,-23,19,41,39,-33,-18,-25
1491695806286,1,3,-18,-34,-29,-43,-2,36,29
1491695806286,3,-13,1,127,79,14,-41,-14,-38
1491695806286,3,-21,34,-21,-31,96,66,5,12
1491695806288,0,3,-36,21,127,43,6,-21,0
1491695806288,0,-18,-3,-92,-111,-69,-48,-13,-78
1491695806334,1,0,-32,39,-67,59,63,16,-72
1491695806334,1,15,27,-50,-60,67,36,3,74
1491695806335,2,9,14,-18,30,-111,-85,7,27
1491695806335,2,-27,-1,21,39,109,66,-1,8
1491695806337,0,27,20,-50,-99,48,27,15,55
1491695806337,0,-15,-40,-128,-54,-72,-23,-21,-50
1491695806338,1,-39,44,74,-62,-8,-65,-43,-40
1491695806338,1,39,-16,15,30,47,99,4,3
1491695806383,2,-14,-5,45,77,-17,-20,15,-1
1491695806383,2,6,26,76,108,28,-57,21,25
1491695806386,3,-4,16,-79,-69,92,102,-5,2
1491695806386,3,-5,-77,-59,-70,-87,-95,10,13
1491695806386,0,4,58,36,-45,-34,-20,-22,-56
1491695806386,0,2,11,78,87,-48,72,-26,-29
1491695806388,1,-1,-1,32,102,64,-6,24,31
1491695806388,1,34,32,-9,-66,49,-49,3,73
1491695806431,2,-18,-39,25,57,33,83,-4,-61
1491695806431,2,11,29,-109,-46,45,117,25,40
1491695806432,3,-2,-57,30,-31,-112,8,-9,48
1491695806432,3,-3,36,-6,-42,-22,-68,-11,-33
1491695806434,1,15,66,-27,-19,-123,44,14,-62
1491695806434,1,-20,-11,-21,26,36,31,7,-29
1491695806434,2,4,-19,73,87,43,-98,-17,47
1491695806434,2,-1,31,127,127,9,93,13,-93
1491695806480,3,22,3,-91,-92,33,-92,-24,31
1491695806480,3,-45,-34,-86,-104,-128,-75,20,-71
1491695806481,0,-23,-19,0,-59,127,94,-10,25
1491695806481,0,39,-26,20,37,-92,-3,-18,31
1491695806481,2,0,-19,-26,-67,-52,95,39,41
1491695806481,2,-21,-53,-23,-70,55,-13,-22,-10
1491695806483,3,24,59,-35,41,16,9,54,31
1491695806483,3,-20,-39,7,32,-85,-72,-38,-23
1491695806529,0,27,-13,-50,-99,86,42,33,53
1491695806529,0,4,36,31,3,-128,7,-21,-37
1491695806530,1,-19,-45,-4,26,22,-76,7,-8
1491695806530,1,14,11,-55,-47,-4,79,2,77
1491695806531,3,32,17,-70,12,21,-4,2,22
1491695806531,3,-18,-67,127,81,-91,83,0,-29
1491695806536,0,22,86,94,57,61,43,45,72
1491695806536,0,-7,-9,-108,-73,-34,-21,-27,-66
1491695806578,1,-31,-38,71,63,-2,100,47,-15
1491695806578,1,5,-36,-10,-26,106,33,9,-12
1491695806579,2,-10,37,-41,-18,-101,-33,-42,-50
1491695806579,2,-19,-58,-108,-115,70,-61,7,2
1491695806580,0,-10,-50,-46,-76,-10,-79,-15,-5
1491695806580,0,6,25,-105,-112,-52,11,17,-24
1491695806582,1,16,-28,101,62,63,-58,-5,-2
1491695806582,1,21,25,-24,62,99,-57,-3,44
1491695806627,2,-25,-62,-64,75,-62,12,-14,-73
1491695806627,2,22,50,104,80,-128,24,-6,78
1491695806628,3,-31,-50,-119,-128,-34,-64,-54,-98
1491695806628,3,22,86,127,104,84,93,46,45
1491695806629,1,18,-22,46,70,-5,-8,-7,82
1491695806629,1,-19,-50,-102,-128,-25,-21,-32,-93
1491695806630,2,-7,-14,82,-63,-53,17,27,37
1491695806630,2,51,45,-19,102,-15,-27,15,9
1491695806676,3,-2,16,80,34,33,8,10,42
1491695806676,3,-30,4,-52,13,32,-46,-11,-71
1491695806677,0,26,54,15,4,51,18,-32,44
1491695806677,0,31,-36,-13,69,-49,-17,26,-15
1491695806678,2,-36,-67,15,43,-75,87,2,-74
1491695806678,2,19,29,54,-18,127,67,-29,75
1491695806679,3,4,16,88,91,-128,-102,-5,-52
1491695806679,3,-14,-25,-102,-111,-15,-43,7,-41
1491695806724,0,-25,13,60,-111,86,9,21,95
1491695806724,0,-12,24,93,107,53,-101,-7,30
1491695806726,1,0,-54,-110,-128,9,31,-7,-5
1491695806726,1,-5,8,127,127,-64,-43,-6,8
1491695806727,2,23,-1,-57,-70,-82,-13,1,13
1491695806727,2,-11,75,10,-109,121,-36,-1,-49
1491695806728,3,-38,-70,-50,45,-29,94,7,12
1491695806728,3,34,52,-4,-55,-128,-27,-17,34
1491695806773,0,-10,-83,-117,127,31,9,13,-66
1491695806773,0,-4,-34,13,-78,31,-13,-33,39
1491695806775,1,1,55,-8,-16,103,43,48,22
1491695806775,1,20,-38,88,103,-61,-19,-19,-109
1491695806776,3,-40,-42,-112,-72,-91,-38,-26,-49
1491695806776,3,-3,37,127,31,91,14,-41,21
1491695806778,0,-17,-45,-29,41,14,20,2,-12
1491695806778,0,-30,30,-1,14,-52,-52,-15,-43
1491695806822,1,37,-17,44,-33,3,-23,4,15
1491695806822,1,-2,28,32,18,3,16,26,47
1491695806823,2,20,63,118,73,40,30,-20,-99
1491695806823,2,-8,-14,-73,62,-17,0,25,48
1491695806825,0,-7,-7,-44,-15,-10,44,39,50
1491695806825,0,38,17,115,26,-73,-33,-40,-9
1491695806826,1,-20,-10,-110,35,-20,-45,-7,47
1491695806826,1,-25,-61,38,125,84,90,-8,20
1491695806870,2,37,67,39,-128,-50,-20,41,-1
1491695806870,2,-22,13,-15,-44,-13,18,-31,-17
1491695806872,3,14,-31,106,109,51,6,2,29
1491695806872,3,-3,8,-16,13,14,30,14,21
1491695806873,1,-27,-15,-19,-89,-84,-99,-47,-63
1491695806873,1,-4,1,-8,-65,115,92,16,-16
1491695806874,2,6,44,92,72,72,-62,-18,-2
1491695806874,2,-30,-22,-71,-68,-101,3,1,-53
1491695806919,3,-22,21,63,36,112,114,18,19
1491695806919,3,7,23,-62,-22,6,-65,-8,-23
1491695806921,0,36,38,14,38,12,31,35,46
1491695806921,0,-22,-51,-61,-52,-52,-120,-49,-29
1491695806922,2,-7,45,38,-53,83,68,-11,-11
1491695806922,2,1,28,31,127,115,15,31,37
1491695806923,3,16,-43,-8,-100,-117,-92,-12,-22
1491695806923,3,31,52,-11,-47,-10,40,12,18
1491695806968,0,-37,-34,-98,-128,-23,-47,-11,-7
1491695806968,0,-14,-38,-77,29,-17,32,-2,-4
1491695806969,1,12,70,66,116,127,9,-2,27
1491695806969,1,26,-75,44,101,30,28,20,26
1491695806970,3,28,32,2,-85,32,-16,37,36
1491695806970,3,-7,-6,-117,8,-20,-18,7,-54
1491695806971,0,5,-6,-18,105,90,127,-18,-15
1491695806971,0,9,8,-15,-54,-120,-70,-17,-46
1491695807017,1,26,-28,-47,30,114,50,21,44
1491695807017,1,-22,7,-24,-50,-95,8,11,-2
1491695807018,2,11,-73,28,53,-74,-90,-16,-5
1491695807018,2,9,58,-40,-109,54,73,27,-58
1491695807019,0,-5,-126,-46,-84,-75,31,8,50
1491695807019,0,10,95,124,76,68,3,-14,-33
1491695807020,1,36,66,-28,-55,-68,85,28,28
1491695807020,1,-5,-23,39,119,106,-35,17,77
1491695807065,2,-16,10,-27,20,90,58,8,-10
1491695807065,2,-10,-110,-8,23,-6,1,-23,-6
1491695807067,3,-6,56,-5,-19,-47,59,1,-79
1491695807067,3,12,49,111,89,73,71,3,-29
1491695807068,0,39,81,-60,-31,27,6,26,29
1491695807068,0,16,-4,48,31,58,1,28,85
1491695807069,1,-32,-87,-91,66,-88,-64,-11,-23
1491695807069,1,-64,-58,-83,-128,-102,-74,-58,-12
1491695807114,2,-21,19,119,107,-49,-31,-40,-27
1491695807114,2,14,2,93,94,69,5,22,60
1491695807115,3,5,6,83,49,52,-9,8,-14
1491695807115,3,55,63,20,-13,127,18,26,-10
1491695807116,1,-9,81,8,-62,6,-4,-20,14
1491695807116,1,-17,-13,-12,-32,68,41,-16,-77
1491695807117,2,14,43,-1,-64,37,5,13,-5
1491695807117,2,-20,-53,15,-29,3,-24,-31,-36
1491695807163,3,25,42,127,58,124,-44,44,21
1491695807163,3,-5,7,-117,-39,-89,-67,-23,23
1491695807164,0,13,-13,67,-115,0,-53,-5,1
1491695807164,0,-11,-37,-35,18,-26,-44,-37,5
1491695807165,2,-29,-29,27,77,-9,-75,-20,56
1491695807165,2,23,40,25,-105,17,71,15,-47
1491695807167,3,8,50,44,42,-20,-17,-18,59
1491695807167,3,16,13,69,-23,-8,-21,-13,-35
1491695807212,0,-14,-6,71,30,55,71,25,-22
1491695807212,0,-6,27,-65,-13,-22,-73,-12,-4
1491695807213,1,-7,-24,-96,-54,-73,-17,-1,15
1491695807213,1,7,-56,24,18,-28,-24,1,31
1491695807214,3,3,47,-30,-5,-25,-65,-23,-23
1491695807214,3,-14,-6,-2,74,67,67,13,41
1491695807215,0,70,-69,-85,-89,-1,-26,10,-57
1491695807215,0,18,75,-25,-51,-38,31,12,35
1491695807261,1,42,-42,-24,1,50,57,-19,-33
1491695807261,1,-64,-22,71,-11,-45,13,26,47
1491695807262,2,37,69,14,46,44,-19,4,16
1491695807262,2,27,-7,-3,64,-64,-17,0,-73
1491695807263,0,-53,53,-47,-47,-79,-72,2,-43
1491695807263,0,9,3,-16,-17,66,17,4,19
1491695807264,1,19,8,53,112,116,20,26,42
1491695807264,1,13,-1,-14,-16,127,41,-30,-97
1491695807309,2,-7,19,27,14,-9,-33,8,-11
1491695807309,2,25,11,26,2,-64,25,-37,-50
1491695807311,3,-24,6,36,-15,32,-14,25,3
1491695807311,3,-7,-75,-105,-70,-31,-7,-20,-18
1491695807312,1,15,62,-59,36,50,-10,3,-19
1491695807312,1,20,63,36,28,-120,-11,-16,23
1491695807313,2,-34,-65,-44,-6,97,33,-3,-62
1491695807313,2,14,1,54,-65,-82,-45,17,51
1491695807358,3,-19,-27,-12,-51,-22,-6,-19,-7
1491695807358,3,-10,42,14,2,76,11,11,-46
1491695807358,0,42,6,53,73,-15,12,3,51
1491695807358,0,-13,9,-18,127,107,-1,10,-40
1491695807359,2,-26,34,-74,-92,-52,-7,-44,6
1491695807359,2,-12,-29,-48,-66,37,-28,-7,6
1491695807360,3,-22,-5,59,56,-16,-58,-9,-19
1491695807360,3,11,50,75,68,46,48,7,-10
1491695807406,0,32,-2,28,56,-86,27,28,93
1491695807406,0,3,13,36,-21,106,-8,10,-27
1491695807407,1,-8,-4,-73,-24,-31,-31,-44,-53
1491695807407,1,-13,-14,-8,-15,24,20,35,53
1491695807408,3,5,72,52,-19,-75,-23,1,18
1491695807408,3,-18,-12,55,44,57,5,8,28
1491695807409,0,-5,7,45,73,-56,-52,10,-42
1491695807409,0,11,-1,95,91,59,-6,-1,71
1491695807455,1,-15,-12,-28,-45,23,14,10,3
1491695807455,1,-13,-54,-83,31,-35,-21,-25,-56
1491695807456,2,-41,-59,-4,-12,25,28,-32,-36
1491695807456,2,23,27,-34,-57,-87,-26,52,55
1491695807456,3,-12,-21,17,1,50,51,-3,17
1491695807456,3,33,65,11,18,46,-27,17,50
1491695807458,0,-10,-30,15,5,56,27,-6,-21
1491695807458,0,-18,57,45,40,-94,-44,-1,20
1491695807504,1,20,-20,-15,4,-11,43,8,-14
1491695807504,1,-5,-29,-53,-81,60,87,0,9
1491695807505,2,31,34,79,110,37,-24,16,46
1491695807505,2,-26,28,-45,-96,25,-90,-20,-13
1491695807505,0,-26,23,50,78,112,76,13,-33
1491695807505,0,7,-31,13,-49,-67,9,6,18
1491695807506,1,6,24,49,0,12,-43,-19,-24
1491695807506,1,-11,-55,-99,-46,-30,5,2,-82
1491695807553,2,2,-17,-93,-38,38,-14,2,42
1491695807553,2,-11,46,85,30,-58,65,4,-36
1491695807554,3,1,-11,31,22,63,-61,-19,-14
1491695807554,3,18,25,72,3,92,-16,14,39
1491695807555,1,-13,-13,79,-66,89,71,7,-86
1491695807555,1,-7,-30,-10,82,-128,-103,-6,36
1491695807556,2,-37,-16,-127,-125,41,0,-32,-128
1491695807556,2,31,-44,20,54,76,2,-6,48
1491695807602,3,19,52,51,46,-55,-80,4,52
1491695807602,3,-21,-34,74,4,99,40,8,-56
1491695807603,0,-13,25,-2,-19,-34,26,9,8
1491695807603,0,-23,-14,-117,-41,-16,10,-20,-107
1491695807604,2,-4,26,24,-79,-21,25,-7,-10
1491695807604,2,-20,28,13,16,-69,15,-24,-21
1491695807605,3,-35,-45,-75,-26,-32,-10,22,-3
1491695807605,3,21,16,10,-5,-11,-25,-5,65
1491695807650,0,41,50,102,-14,48,85,42,-5
1491695807650,0,-12,9,-24,33,56,9,1,-8
1491695807652,1,21,16,119,120,-68,-85,-31,-21
1491695807652,1,0,-19,-128,-128,-128,95,12,33
1491695807653,3,27,66,64,31,110,104,12,31
1491695807653,3,-23,21,49,71,-50,-111,-20,-46
1491695807654,0,27,68,-94,-35,58,13,18,22
1491695807654,0,-13,-32,20,32,-115,-5,0,4
1491695807699,1,-37,-91,-53,-85,55,-16,-43,-16
1491695807699,1,10,83,21,-31,-16,-4,4,-50
1491695807702,2,-13,-80,-9,85,38,-39,-18,-55
1491695807702,2,2,12,-60,-60,125,30,28,111
1491695807703,0,-20,-106,-89,93,21,-32,-31,-9
1491695807703,0,-25,-19,-30,16,26,-53,12,2
1491695807704,1,-11,43,-47,-73,-118,-1,0,6
1491695807704,1,3,-22,31,-29,85,-23,-13,-2
1491695807797,2,53,74,127,90,85,79,18,-3
1491695807797,2,4,13,-86,-18,-72,-47,2,31
1491695807798,3,-33,-22,-54,-118,16,-50,-30,-14
1491695807798,3,-3,50,67,103,65,5,-14,-94
1491695807799,1,-24,-63,11,68,-43,-57,6,84
1491695807799,1,11,18,-17,46,-17,40,-3,18
1491695807801,2,-2,-2,127,125,51,-49,-2,-58
1491695807801,2,25,3,-29,-38,-98,6,-15,-38
1491695807894,3,-12,62,-112,-91,81,56,12,23
1491695807894,3,1,-1,125,127,-29,-40,-5,-22
1491695807896,0,-17,-19,-128,-105,57,42,-6,23
1491695807896,0,-10,10,-52,-101,-61,-69,5,53
1491695807897,2,-5,-11,-5,79,-128,41,2,-31
1491695807897,2,34,86,-49,-18,17,68,22,-20
1491695807899,3,-42,-74,-47,21,-52,-45,-30,-30
1491695807899,3,-13,-9,-1,-46,-38,3,-1,34
1491695807992,0,40,-10,19,32,57,42,-10,-25
1491695807992,0,-25,13,82,56,51,-58,-2,15
1491695807993,1,53,42,88,44,21,117,32,31
1491695807993,1,-17,5,24,-52,22,28,11,8
1491695807994,0,8,44,125,127,78,-22,-3,22
1491695807994,0,-16,1,-111,-37,-67,37,1,-11
1491695807996,1,-21,14,18,-91,-67,26,-7,-39
1491695807996,1,-32,-56,-62,-12,-117,-2,-26,2
1491695808040,2,14,11,-71,-105,38,-28,0,56
1491695808040,2,3,70,127,76,30,-82,12,21
1491695808042,3,22,13,11,43,-29,81,-19,-76
1491695808042,3,-31,-53,-128,2,37,-7,1,-64
1491695808043,2,-3,53,68,10,-3,-10,-14,29
1491695808043,2,22,-7,9,80,5,6,24,2
1491695808044,3,-16,-15,-77,-98,-45,-51,7,-10
1491695808044,3,-4,-14,49,-33,39,-51,-15,-16
1491695808089,0,2,4,10,-6,-70,39,3,14
1491695808089,0,-14,-21,-3,49,102,119,1,-44
1491695808091,1,7,23,39,75,72,14,14,-2
1491695808091,1,-12,-41,-79,-20,-48,-62,2,-12
1491695808092,3,-2,-23,-112,-85,-78,-105,-28,71
1491695808092,3,-20,27,-39,-97,6,74,-24,-30
1491695808093,0,-7,-30,50,37,-57,-7,12,76
1491695808093,0,-11,-15,25,-7,34,-26,2,-83
1491695808138,1,4,40,9,14,38,-25,-9,13
1491695808138,1,55,45,46,38,0,-54,13,10
1491695808139,2,11,-29,-79,-21,-26,84,-11,15
1491695808139,2,-19,3,-22,38,59,43,-12,-24
1491695808140,3,-8,9,-87,-93,-64,-36,22,-27
1491695808140,3,-12,-10,127,121,-71,14,14,7
1491695808142,0,19,-13,-63,-92,22,-103,5,8
1491695808142,0,-23,-52,-68,-19,58,28,-32,26
1491695808187,1,-24,4,29,28,79,47,2,-11
1491695808187,1,36,35,37,20,-97,-1,0,36
1491695808188,2,21,-15,16,31,62,-48,10,12
1491695808188,2,-11,2,-55,-27,8,-23,7,-17
1491695808189,0,12,-22,-54,-1,-1,-51,-10,-12
1491695808189,0,-6,-8,27,-43,-110,16,13,-43
1491695808190,1,1,4,58,55,-6,-31,-16,43
1491695808190,1,-15,-17,-47,-66,55,-12,-3,-19
1491695808235,2,7,44,67,-16,12,60,30,22
1491695808235,2,-12,6,-96,-67,-5,-93,-3,-5
1491695808237,3,5,-15,-28,70,-90,13,-45,-48
1491695808237,3,-13,-47,-1,-9,-4,-94,-13,-21
1491695808238,1,15,7,-64,-61,-31,55,23,-40
1491695808238,1,21,18,92,65,48,15,1,50
1491695808239,2,-26,-42,-92,-57,-34,-78,-45,-52
1491695808239,2,21,-14,27,44,69,73,10,-1
1491695808285,3,-3,-15,-19,5,5,-43,-2,12
1491695808285,3,-29,-10,-28,-21,-10,58,-2,-68
1491695808286,0,13,45,58,16,-107,-40,15,100
1491695808286,0,1,-5,38,-2,-23,-66,-12,-3
1491695808287,2,15,-26,2,35,-23,27,8,0
1491695808287,2,-21,-36,-90,-65,-40,9,-3,-11
1491695808300,3,-1,-5,-32,-41,-12,49,12,-10
1491695808300,3,17,4,-15,26,-5,-69,-17,-22
1491695808333,0,-13,17,61,12,100,28,14,21
1491695808333,0,34,62,121,87,-98,-102,2,42
1491695808336,1,-22,-13,-3,-22,-27,57,22,-60
1491695808336,1,-50,-86,-78,6,-25,12,-44,-36
1491695808337,3,14,33,-24,-14,81,-67,-1,44
1491695808337,3,-20,-40,27,15,-90,26,26,-28
1491695808338,0,8,-53,-79,78,-66,-1,-23,54
1491695808338,0,-6,57,29,29,98,1,-26,-126
1491695808381,1,10,-42,-8,-34,-31,-12,30,103
1491695808381,1,25,27,-40,-7,27,69,6,-22
1491695808382,2,-47,-23,54,0,-5,43,17,-30
1491695808382,2,0,-23,-14,49,84,-8,11,-55
1491695808383,0,-2,2,72,-66,66,6,-17,-59
1491695808383,0,18,2,-90,-122,60,86,47,127
1491695808384,1,-1,-13,126,109,-54,-36,-9,-8
1491695808384,1,-31,21,111,105,44,37,26,-18
1491695808430,2,-15,-1,-119,-75,31,-52,-66,-56
1491695808430,2,-35,-30,-114,-107,-43,68,38,-77
1491695808431,3,0,-4,4,-54,-15,-60,-6,56
1491695808431,3,18,29,62,-11,-43,-4,-34,45
1491695808431,1,-5,-10,44,-68,9,-5,-28,-128
1491695808431,1,-14,-15,-80,-123,-84,-31,-4,120
1491695808433,2,-39,-12,-7,-25,-35,-60,-11,-47
1491695808433,2,26,36,100,98,-19,-46,-5,38
1491695808479,3,-25,47,-11,56,-16,-26,-40,-24
1491695808479,3,-7,-78,-74,-52,33,11,-12,-37
1491695808480,0,2,10,-12,-122,-98,43,3,63
1491695808480,0,25,-19,21,57,38,49,44,81
1491695808480,1,-41,40,-5,106,-8,-12,2,-113
1491695808480,1,55,-14,55,-70,38,-45,10,126
1491695808481,2,-7,33,-56,47,33,10,24,-17
1491695808481,2,-32,-57,-62,-24,-77,46,-45,-48
1491695808528,3,0,1,-7,-57,113,88,30,-29
1491695808528,3,4,8,43,24,-59,-23,-6,15
1491695808529,0,38,7,31,-13,-6,-52,-2,12
1491695808529,0,-11,28,73,36,30,14,-43,-31
1491695808529,2,19,-2,96,22,107,43,29,-12
1491695808529,2,-54,-107,-128,-75,-128,-13,-37,-101
1491695808530,3,-5,52,10,-36,-29,-32,-37,75
1491695808530,3,23,-2,80,-17,104,-99,9,-70
1491695808576,0,2,-11,50,127,-47,100,25,27
1491695808576,0,-20,-8,-50,-9,88,-5,14,-73
1491695808577,1,22,10,-84,-117,-71,69,35,15
1491695808577,1,6,29,77,127,-77,-10,-14,-25
1491695808578,3,37,49,-97,-92,72,11,-3,4
1491695808578,3,-40,-58,-86,-96,-66,3,-11,-15
1491695808579,0,11,-74,-128,-28,-21,-48,-21,-46
1491695808579,0,-18,50,127,42,-25,1,-14,17
1491695808627,1,28,-21,127,58,92,-18,14,27
1491695808627,1,9,76,-47,66,8,33,19,-29
1491695808629,2,-23,-44,-90,-65,-65,-103,-28,-76
1491695808629,2,10,68,54,52,127,31,12,55
1491695808630,0,-20,-16,67,1,79,35,-1,-38
1491695808630,0,8,19,-54,-37,-116,-50,5,49
1491695808631,1,-18,-15,-2,52,96,40,3,-63
1491695808631,1,15,6,-19,18,-14,12,8,24
1491695808674,2,11,68,88,127,29,-17,2,40
1491695808674,2,19,3,-97,-128,-33,43,4,-21
1491695808675,3,-71,-111,-87,-69,-98,-63,-34,-26
1491695808675,3,18,46,61,60,66,-40,-11,33
1491695808676,1,28,76,92,-85,127,-13,16,20
1491695808676,1,-13,-79,-121,-105,-85,13,21,-14
1491695808676,2,-31,-27,13,-66,118,58,-28,70
1491695808676,2,39,88,103,103,104,74,45,-37
1491695808723,3,-32,-7,-106,-67,-63,-72,-15,3
1491695808723,3,5,-9,-48,-96,20,-42,-29,-31
1491695808724,0,13,32,-21,32,59,17,23,3
1491695808724,0,-7,-29,11,67,-23,-85,-41,-55
1491695808725,2,-38,-69,6,3,-70,-57,-29,-46
1491695808725,2,20,55,59,38,37,45,13,33
1491695808727,3,27,12,66,127,124,6,23,-20
1491695808727,3,1,46,58,107,-40,14,-11,-11
1491695808771,0,7,-27,-128,-95,-128,-25,11,81
1491695808771,0,-33,-93,1,-128,96,-71,-34,-79
1491695808773,1,-23,-20,105,98,37,73,-8,38
1491695808773,1,30,77,2,-7,127,42,31,15
1491695808775,3,-29,6,-120,-128,36,-33,-53,-80
1491695808775,3,19,-34,127,52,117,80,29,38
1491695808776,0,-2,76,-93,13,-13,-22,8,-38
1491695808776,0,-3,-31,-46,119,22,25,8,-45
1491695808820,1,9,21,87,84,-30,19,-20,74
1491695808820,1,1,-5,9,-88,-47,-38,2,-60
1491695808822,2,-18,-31,-84,-128,-87,-13,-41,-19
1491695808822,2,-6,-16,80,-66,-4,-46,13,5
1491695808823,0,15,5,83,83,85,11,13,15
1491695808823,0,1,-5,-119,-29,8,12,2,3
1491695808824,1,3,63,43,-114,-55,10,29,-26
1491695808824,1,19,18,-14,81,18,-41,-22,80
1491695808869,2,-24,-115,-128,-95,-69,81,2,-12
1491695808869,2,-8,39,127,127,101,-28,-8,24
1491695808870,3,26,1,-127,-119,-122,-119,25,30
1491695808870,3,-33,-69,-55,57,65,-4,-37,-22
1491695808870,0,-8,16,127,94,118,35,-27,-15
1491695808870,0,1,5,98,100,74,-6,23,-6
1491695808871,1,-3,-30,-74,-30,-45,20,-3,21
1491695808871,1,6,55,63,-128,56,-89,-6,-24
1491695808918,2,15,-22,-51,43,86,4,10,50
1491695808918,2,8,62,83,7,-31,65,9,-12
1491695808918,3,-2,-18,64,127,62,-34,-17,26
1491695808918,3,-6,-49,-22,-43,-128,27,22,9
1491695808919,1,-2,-92,-95,97,-8,1,17,-5
1491695808919,1,-22,-1,-59,-77,24,-53,-13,-20
1491695808920,2,-35,-72,-92,69,-80,3,-12,10
1491695808920,2,14,-72,-57,-35,25,-60,-15,11
1491695808966,3,-25,67,127,46,74,31,-35,-66
1491695808966,3,23,24,127,56,97,34,13,-19
1491695808967,0,1,-28,-46,-7,-42,-78,14,40
1491695808967,0,23,38,-45,-44,6,85,41,71
1491695808968,2,-19,-38,-51,-128,-86,-57,-27,-53
1491695808968,2,-31,-81,-3,20,-31,-54,-28,-23
1491695808969,3,17,27,68,-17,93,6,-1,50
1491695808969,3,15,99,104,-37,-21,86,26,-45
1491695809015,0,-2,-71,-16,0,-42,14,-14,19
1491695809015,0,-3,49,42,34,36,-15,-10,23
1491695809017,1,-1,-30,-114,-127,-128,-33,-8,27
1491695809017,1,-22,-53,-99,-67,71,52,-17,-19
1491695809018,3,4,30,107,57,47,-22,-8,6
1491695809018,3,8,-40,-36,86,11,37,5,52
1491695809019,0,9,83,-44,39,50,-3,9,-51
1491695809019,0,-30,-59,-44,-39,-128,-54,-14,-29
1491695809064,1,-11,13,23,41,10,-45,-14,-42
1491695809064,1,39,64,47,-27,42,26,8,48
1491695809066,2,-24,-61,-10,127,-27,-41,-11,-34
1491695809066,2,7,-11,-15,-17,-101,2,-24,-2
1491695809067,0,-4,-14,-6,-128,-31,6,-4,-18
1491695809067,0,-29,-41,20,-55,-76,22,-6,13
1491695809068,1,-1,-52,10,17,-42,6,-2,52
1491695809068,1,14,38,-6,-97,-15,-28,18,31
1491695809113,2,26,112,127,113,127,55,16,-16
1491695809113,2,-17,-38,-128,-37,-34,-36,-14,-6
1491695809115,3,-2,-25,2,-20,73,-31,-1,-31
1491695809115,3,-14,15,19,25,-45,12,-10,-21
1491695809117,1,-30,-95,-126,33,-77,-28,-22,-14
1491695809117,1,0,-14,-128,-71,-113,-38,-11,-52
1491695809118,2,4,15,64,-78,-128,-95,-33,36
1491695809118,2,12,117,72,15,127,97,20,-1
1491695809162,3,-4,32,74,16,29,-6,-6,-23
1491695809162,3,-27,-118,-23,67,11,-11,19,45
1491695809163,0,13,-5,57,25,4,6,2,-14
1491695809163,0,19,-25,77,81,75,14,-3,-6
1491695809164,2,36,46,-38,-113,-8,81,21,14
1491695809164,2,-45,-83,-85,-29,-93,-58,-44,11
1491695809165,3,-9,-16,62,-68,26,-25,-3,11
1491695809165,3,17,13,24,27,84,61,10,31
1491695809210,0,16,105,90,110,127,45,19,68
1491695809210,0,-21,-32,-128,9,-23,-32,17,-74
1491695809211,1,-5,-60,-33,-21,-14,35,-12,-15
1491695809211,1,-13,20,38,-24,-8,9,18,0
1491695809212,2,-3,6,53,-29,-101,-37,-21,22
1491695809212,2,-7,81,83,122,106,14,2,-32
1491695809213,3,-2,-32,-128,-125,-128,12,-7,-15
1491695809213,3,-4,-16,7,-27,54,-38,6,-8
1491695809259,0,2,12,10,24,120,30,8,-9
1491695809259,0,-14,-33,-60,1,43,4,-5,16
1491695809260,1,16,35,21,66,77,59,24,-4
1491695809260,1,-15,-32,-49,-94,-110,4,-19,-4
1491695809261,3,-9,24,106,46,117,1,8,5
1491695809261,3,-1,-7,-50,-63,-92,-46,-31,32
1491695809262,0,-24,-30,-71,-15,46,98,11,-28
1491695809262,0,17,-19,-1,49,-54,-6,-16,-19
1491695809308,1,6,-22,11,-28,-29,27,14,37
1491695809308,1,2,53,94,35,-5,-66,-3,-13
1491695809309,2,1,-7,-30,19,106,-23,8,-65
1491695809309,2,10,-21,26,52,-106,9,-19,41
1491695809309,0,23,-14,-32,-46,7,-24,11,43
1491695809309,0,-1,34,46,-4,41,15,19,-20
1491695809310,1,25,19,35,83,85,25,1,16
1491695809310,1,3,-3,15,104,-52,-49,2,27
1491695809356,2,-33,-25,-73,-22,109,60,-3,-57
1491695809356,2,6,-12,-21,-36,-12,-42,-12,72
1491695809357,3,3,34,62,19,58,-19,20,5
1491695809357,3,14,3,90,116,123,13,5,-37
1491695809358,1,-14,3,20,-21,-29,-3,-13,-38
1491695809358,1,-2,-28,52,48,74,20,9,11
1491695809359,2,7,47,108,46,45,2,1,14
1491695809359,2,0,35,71,28,65,20,2,11
1491695809407,3,12,-35,-125,-77,-103,-4,2,-9
1491695809407,3,4,54,-71,-35,-72,-35,-11,-40
1491695809408,0,-21,6,43,34,47,-46,-5,32
1491695809408,0,-19,-77,-118,-84,-12,50,21,-81
1491695809409,2,32,-37,-68,-86,-98,-5,-7,3
1491695809409,2,-22,6,-22,-61,4,-43,2,-8
1491695809410,3,-9,-3,11,60,51,-19,-6,-11
1491695809410,3,12,74,82,50,21,15,18,27
1491695809454,0,-17,-34,105,127,31,-25,-19,6
1491695809454,0,28,-6,-35,-58,-16,-13,2,-9
1491695809455,1,-2,-52,-128,-48,-47,-17,-22,-38
1491695809455,1,-15,10,11,-22,-20,-18,-11,-20
1491695809456,3,-5,-10,41,59,-66,94,4,-38
1491695809456,3,35,-40,-113,-120,-23,26,-5,86
1491695809457,0,-21,-9,22,38,-128,-87,-16,-12
1491695809457,0,5,31,90,86,67,16,10,25
1491695809503,1,14,-29,-110,-4,81,7,11,47
1491695809503,1,-12,59,127,127,127,41,12,-18
1491695809506,2,22,-36,-128,-25,-11,40,11,59
1491695809506,2,-13,-38,-69,-90,-128,-79,-30,-13
1491695809507,0,-10,18,-13,-13,-2,-20,-22,-53
1491695809507,0,3,34,63,70,102,94,9,-35
1491695809507,1,-8,-23,44,-85,-128,-40,2,41
1491695809507,1,41,54,-55,68,25,-15,11,-59
1491695809551,2,-22,-106,-61,-121,-82,-79,7,-3
1491695809551,2,-8,-30,76,54,60,81,15,3
1491695809552,3,3,36,49,-11,-37,46,1,17
1491695809552,3,-21,4,-4,62,-14,-43,-44,-5
1491695809553,0,37,102,49,-16,112,86,42,-3
1491695809553,0,19,-65,-66,-3,-115,-106,-25,26
1491695809554,1,-30,6,-18,45,-42,29,22,-41
1491695809554,1,-7,-55,42,-5,93,42,-8,-32
1491695809600,2,24,72,31,90,-4,0,30,56
1491695809600,2,-9,38,-31,-93,1,37,-11,-7
1491695809601,3,37,-16,-73,26,-6,-61,-9,6
1491695809601,3,-39,-7,101,-8,-85,-58,0,50
1491695809602,1,-39,-5,42,105,21,-11,-6,-86
1491695809602,1,-7,-34,-54,-43,4,-35,-29,-72
1491695809603,2,-6,-6,50,-58,8,25,21,8
1491695809603,2,-11,43,12,57,-22,-12,-7,27
1491695809649,3,23,-11,-14,24,0,-45,-31,-3
1491695809649,3,-10,-30,40,71,98,69,22,-33
1491695809650,0,29,-8,-23,-90,-109,9,11,102
1491695809650,0,-33,42,10,111,66,-63,-7,-112
1491695809651,2,29,-3,11,-25,113,77,10,2
1491695809651,2,9,1,-38,57,-23,-4,21,63
1491695809652,3,-13,0,82,54,-60,-62,-11,-8
1491695809652,3,-18,-33,-128,-108,-66,-10,-11,-39
1491695809698,0,-45,-3,50,14,30,-30,-12,-77
1491695809698,0,6,7,8,-65,22,73,-30,-18
1491695809699,1,28,22,-2,7,108,54,40,25
1491695809699,1,3,37,98,77,-93,-52,-10,37
1491695809700,3,-20,-23,-18,-39,47,33,4,-1
1491695809700,3,-8,3,-9,-23,41,-8,11,2
1491695809701,0,31,43,120,126,62,-44,-7,29
1491695809701,0,-7,-19,-59,-54,-116,-43,3,-9
1491695809751,1,20,-2,-101,-77,-8,-4,-5,53
1491695809751,1,-32,-26,14,-89,-34,-66,-12,-80
1491695809752,2,2,3,25,127,-9,39,-12,-27
1491695809752,2,-1,1,92,61,28,-3,9,6
1491695809753,0,1,-33,14,-73,-83,-58,-29,-43
1491695809753,0,-16,2,-16,-63,80,22,10,38
1491695809754,1,-2,-13,-43,-58,11,-42,-13,22
1491695809754,1,-6,14,-16,42,84,74,20,-38
1491695809892,2,15,32,17,71,-34,-59,3,36
1491695809892,2,23,0,-6,-23,-66,29,16,5
1491695809902,3,-26,3,-12,-4,-33,-95,-43,-44
1491695809902,3,33,9,-23,-3,33,81,11,74
1491695809904,1,-14,-3,-56,-49,26,-41,12,-12
1491695809904,1,-19,-36,19,-32,-84,89,10,-45
1491695809905,2,-1,4,10,65,48,-28,1,19
1491695809905,2,21,-33,127,-68,65,43,-3,78
1491695809990,3,-7,41,0,68,-44,19,-3,-40
1491695809990,3,18,-28,-98,-3,-46,-102,7,29
1491695810039,0,-46,-19,24,-51,16,-35,-47,-40
1491695810039,0,16,16,-21,59,35,79,26,2
1491695810041,2,0,-79,-95,81,-78,115,23,-6
1491695810041,2,-26,36,15,-24,-10,-55,-32,-18
1491695810042,3,-14,11,-3,-101,-87,-57,-12,14
1491695810042,3,-9,1,-30,-17,52,34,9,33
1491695810044,0,4,1,-30,67,-128,-107,-31,-50
1491695810044,0,-25,-68,-64,-78,88,58,-5,34
1491695810088,1,2,-3,106,47,5,36,-13,-3
1491695810088,1,2,42,19,-23,76,-5,30,10
1491695810088,1,-1,-64,-9,8,-12,-92,-20,66
1491695810088,1,1,54,-24,-14,29,40,11,15
1491695810137,2,-12,-7,41,2,9,3,-20,-12
1491695810137,2,22,-10,-20,-18,51,86,38,37
1491695810140,2,-28,1,22,27,69,23,-6,-29
1491695810140,2,-4,0,69,24,74,-27,-5,-28
1491695810141,3,18,56,75,44,85,16,17,34
1491695810141,3,9,9,33,19,-30,-62,-7,-44
1491695810143,0,-17,-28,-10,-37,-38,-17,-5,-14
1491695810143,0,2,-8,-48,3,37,29,7,80
1491695810185,3,-12,34,17,-28,55,-70,-5,-25
1491695810185,3,29,-10,35,103,85,75,15,34
1491695810187,0,-21,0,42,11,-42,13,-8,-72
1491695810187,0,2,7,48,84,-9,23,-2,65
1491695810188,1,14,-8,-56,-62,-21,-59,6,0
1491695810188,1,-6,15,-96,-82,3,7,-16,-24
1491695810189,0,10,12,-60,-83,35,-31,16,-16
1491695810189,0,11,8,-38,-70,16,21,-10,-59
1491695810234,1,-2,-4,-22,-83,113,1,-5,32
1491695810234,1,-8,26,6,-31,-59,-31,4,-67
1491695810235,2,-1,8,111,118,-79,57,6,49
1491695810235,2,-6,-40,-52,-22,50,-65,-1,-15
1491695810236,1,10,25,36,51,27,-14,-5,-37
1491695810236,1,6,12,0,-4,14,-20,44,20
1491695810238,2,9,-11,16,48,-1,64,-9,-59
1491695810238,2,-14,50,-104,-113,44,-57,-19,5
1491695810283,3,5,0,50,67,-29,-18,13,53
1491695810283,3,-10,-12,13,14,-39,48,-14,-47
1491695810284,0,-18,2,40,49,34,-38,-9,5
1491695810284,0,18,-29,-10,-36,51,35,21,-51
1491695810285,1,17,-12,-43,-32,-32,38,-1,58
1491695810285,1,7,30,32,-29,-33,-67,2,1
1491695810286,2,-2,6,-15,34,3,28,-30,-60
1491695810286,2,-17,-4,8,12,-30,-17,-21,24
1491695810332,3,8,-16,-46,-38,95,-29,11,-15
1491695810332,3,-15,16,87,-3,-24,106,-4,61
1491695810333,0,21,3,-58,34,39,-39,12,23
1491695810333,0,-28,-22,-65,-22,-28,-40,-3,-36
1491695810334,2,1,24,12,-72,75,-34,-10,-2
1491695810334,2,-29,-1,-18,-50,-107,7,-11,-27
1491695810335,3,-31,-47,-81,-42,9,-46,-33,-56
1491695810335,3,25,19,66,84,31,-26,0,21
1491695810380,0,13,3,20,33,69,61,9,-1
1491695810380,0,22,-16,0,4,104,43,34,-6
1491695810382,1,1,35,0,-36,-87,8,1,49
1491695810382,1,-31,8,47,17,-3,-77,-29,-83
1491695810383,3,-31,-52,-107,-38,39,-3,-22,-47
1491695810383,3,23,-23,-49,-99,-59,-18,8,58
1491695810384,0,-13,-6,21,-84,60,2,-6,3
1491695810384,0,13,24,127,37,75,50,33,-20
1491695810429,1,-6,41,56,88,43,-86,-23,-4
1491695810429,1,13,3,-29,80,68,124,24,25
1491695810430,2,-8,-40,-4,91,-116,-53,5,-8
1491695810430,2,21,17,-21,-12,-14,-32,-4,37
1491695810432,0,-6,1,-70,40,-101,39,-25,27
1491695810432,0,-10,-31,-46,-34,-25,9,5,-36
1491695810433,1,-19,-18,19,-22,-1,2,14,50
1491695810433,1,9,57,113,57,72,19,1,29
1491695810478,2,-5,-21,-80,-59,9,-22,-4,-40
1491695810478,2,11,34,77,17,-128,-25,-4,27
1491695810479,3,-9,-46,54,55,-39,-46,-29,-37
1491695810479,3,-18,6,-57,-58,127,43,15,16
1491695810480,1,-2,-57,-28,-128,14,-22,-15,3
1491695810480,1,-10,-23,-117,-58,-91,20,-5,-74
1491695810481,2,16,-6,14,36,90,12,16,21
1491695810481,2,5,38,-50,-37,16,-24,3,-9
1491695810527,3,7,40,27,127,42,89,14,-5
1491695810527,3,-21,-19,28,-110,-63,-50,0,-2
1491695810528,0,20,-37,37,14,-65,16,7,69
1491695810528,0,-13,-2,34,120,112,24,-1,4
1491695810529,2,42,98,-68,-128,-31,18,18,36
1491695810529,2,-17,-55,127,127,-73,-14,-2,35
1491695810533,3,23,70,-39,43,74,-5,31,-18
1491695810533,3,4,22,52,-21,-49,-11,-9,-60
1491695810577,0,-28,-117,-123,-128,0,-21,-34,8
1491695810577,0,5,-3,-24,-9,94,-28,-5,28
1491695810579,1,-7,-68,58,10,-62,-10,-6,-20
1491695810579,1,-20,38,107,-13,-82,-8,-16,22
1491695810580,3,-26,22,-18,111,75,34,12,21
1491695810580,3,3,-63,-5,13,-57,-43,4,16
1491695810583,0,-24,-28,-72,-59,-29,-77,-3,-7
1491695810583,0,7,56,5,-66,-45,-8,-23,-64
1491695810624,1,-47,-61,-105,-96,41,-74,-39,-79
1491695810624,1,60,17,-25,84,74,29,40,89
1491695810627,2,4,-15,-118,-82,-83,75,-13,9
1491695810627,2,6,17,86,99,18,-58,8,-5
1491695810629,3,9,11,25,-114,-1,54,31,24
1491695810629,3,-22,28,-92,-54,-112,-63,-57,-89
1491695810630,0,9,80,127,127,127,82,4,-98
1491695810630,0,14,-78,48,64,72,-53,21,127
1491695810673,1,13,74,102,-71,-111,44,1,0
1491695810673,1,-10,13,-36,72,-86,-88,-8,-22
1491695810679,2,-46,-79,-48,-110,-5,58,-14,17
1491695810679,2,7,-6,-128,-89,56,24,0,-55
1491695810681,0,8,60,127,127,37,-22,-14,36
1491695810681,0,8,33,85,19,-38,-3,31,5
1491695810682,1,30,63,23,41,79,0,13,-54
1491695810682,1,20,45,-75,-37,55,39,-13,-16
1491695810722,2,-42,-71,-95,-83,-88,-43,-12,-20
1491695810722,2,-27,-39,91,42,54,-23,0,-28
1491695810723,3,20,19,-128,-84,-128,-8,1,40
1491695810723,3,-8,-18,38,45,70,69,16,27
1491695810724,1,20,9,104,13,28,-71,17,60
1491695810724,1,-18,-28,-76,107,113,70,-2,-3
1491695810725,2,11,-41,-4,93,-65,75,22,54
1491695810725,2,-21,-31,-117,-128,-66,-4,-41,-85
1491695810770,3,25,50,-44,-27,78,21,20,45
1491695810770,3,-15,-40,-93,-10,-73,9,-4,-33
1491695810772,0,-20,-15,70,28,-52,-85,-15,-29
1491695810772,0,21,45,77,32,-14,49,4,37
1491695810773,2,-25,-62,-85,102,-27,2,-31,-39
1491695810773,2,-5,1,-23,-99,-90,-73,-3,-14
1491695810775,3,0,48,-7,-4,-3,29,-3,20
1491695810775,3,24,9,71,-11,61,-34,14,68
1491695810819,0,26,121,76,-128,22,70,1,-53
1491695810819,0,-41,-118,-128,-81,-113,-25,-16,-37
1491695810821,1,-32,-55,71,-31,15,-12,-38,-10
1491695810821,1,-11,16,94,-24,-20,-128,-21,-7
1491695810822,3,7,-18,-44,-18,-10,11,16,-7
1491695810822,3,-35,-53,-46,-128,-108,-35,-25,-25
1491695810823,0,-12,-4,-115,-31,16,-104,-31,-23
1491695810823,0,10,-2,62,114,24,-9,10,-17
1491695810868,1,20,69,53,-17,24,55,21,4
1491695810868,1,-8,-55,-55,127,-43,-33,-12,25
1491695810870,2,-15,-7,-15,-71,27,-26,-4,-19
1491695810870,2,-42,31,28,-63,-44,19,-15,-8
1491695810871,0,-4,-12,-128,-109,-80,47,16,-72
1491695810871,0,-58,-83,-10,111,77,-85,-42,-4
1491695810872,1,-1,55,83,86,46,21,10,41
1491695810872,1,8,-52,10,31,25,-12,-27,2
1491695810917,2,91,55,76,84,127,4,32,53
1491695810917,2,33,32,28,-2,-56,31,2,-16
1491695810918,3,-6,2,10,-21,-54,13,19,-24
1491695810918,3,7,-47,-120,-107,-76,3,14,39
1491695810920,1,-14,7,-128,-55,-96,-14,-10,5
1491695810920,1,-35,-54,92,87,21,-8,-9,-16
1491695810921,2,-9,33,7,56,5,-15,-8,22
1491695810921,2,35,69,80,24,38,26,7,73
1491695810965,3,-30,-36,-31,-37,1,-16,1,-37
1491695810965,3,13,61,19,-64,31,88,23,-18
1491695810967,0,19,-44,-73,7,91,7,12,10
1491695810967,0,-11,-20,-127,-28,-97,-39,-6,0
1491695810968,1,3,-26,19,-63,60,0,4,49
1491695810968,1,-9,32,14,-10,9,0,-15,-48
1491695810969,2,0,20,83,80,125,36,-2,22
1491695810969,2,48,127,-2,-121,71,85,51,-3
1491695811014,3,-43,-128,-128,127,-119,-98,-52,14
1491695811014,3,-12,-37,68,101,97,-12,-23,-20
1491695811015,0,-17,76,127,-48,3,-35,6,7
1491695811015,0,4,9,58,5,4,78,10,-20
1491695811017,2,15,-67,-64,-45,17,-24,12,-34
1491695811017,2,-1,16,-75,-37,-9,-24,-21,-22
1491695811018,3,33,1,8,-15,124,82,29,2
1491695811018,3,-9,-35,-60,99,-111,-70,-13,-10
1491695811063,0,-17,-39,-54,-28,-56,-91,-7,40
1491695811063,0,4,50,34,-25,62,43,0,-7
1491695811064,1,-37,-48,-87,127,-107,-51,-26,26
1491695811064,1,4,-38,104,-79,65,26,3,-1
1491695811066,3,41,119,127,86,127,20,2,13
1491695811066,3,0,-5,-127,-54,-23,47,1,-35
1491695811067,0,-28,-13,-70,-14,-72,4,-15,4
1491695811067,0,0,-23,86,98,87,49,-4,-6
1491695811112,1,25,-3,-66,-121,-94,-21,47,-2
1491695811112,1,-33,-3,-26,11,-102,-100,-38,18
1491695811113,2,5,-16,57,-74,115,28,-9,-33
1491695811113,2,-28,-100,-128,37,-102,-51,-11,-25
1491695811114,0,7,14,-54,-68,-54,-11,-3,24
1491695811114,0,17,95,19,-49,104,-9,37,17
1491695811115,1,-49,-92,-128,-31,-95,-27,-51,-59
1491695811115,1,33,7,-13,28,29,18,15,41
1491695811161,2,8,27,84,-20,-18,15,7,-18
1491695811161,2,-23,-72,-87,-49,-79,-77,-7,24
1491695811209,3,20,25,52,52,58,25,6,-19
1491695811209,3,-22,41,54,57,107,27,2,-33
1491695811211,1,39,-47,-67,3,-128,-20,-19,-43
1491695811211,1,-66,28,31,92,61,15,17,-6
1491695811212,2,6,-75,-121,-6,-60,-82,12,-13
1491695811212,2,67,32,83,69,38,92,-48,24
1491695811214,3,-120,67,58,-28,-23,-38,-21,-54
1491695811214,3,15,-76,49,97,40,-15,-8,-75
1491695811258,0,2,34,-15,-12,102,108,28,31
1491695811258,0,-124,-93,-128,-100,-128,-85,-8,15
1491695811260,2,53,35,127,127,112,51,12,-16
1491695811260,2,11,9,-57,31,36,30,-2,-46
1491695811261,3,42,31,5,-19,16,-6,34,71
1491695811261,3,7,-42,-90,-66,-84,-55,7,-33
1491695811262,3,-25,-42,-71,45,35,-6,-34,57
1491695811262,3,17,-21,-59,-111,-104,9,-18,15
1491695811306,0,-10,-8,-17,-38,3,-15,13,-2
1491695811306,0,-16,-52,79,15,-21,-36,1,-11
1491695811308,1,8,31,-42,26,98,28,-3,29
1491695811308,1,10,15,33,33,38,55,26,-32
1491695811309,3,-11,-35,1,-27,12,41,2,-32
1491695811309,3,-6,-25,-7,-34,67,-22,-1,0
1491695811310,0,-50,15,30,23,-50,35,21,-22
1491695811310,0,35,-32,-7,51,100,-10,-16,13
1491695811355,1,27,-8,-50,-119,-75,8,-1,47
1491695811355,1,-18,73,-1,81,87,14,2,-46
1491695811356,2,7,-60,13,-40,-127,-59,-22,1
1491695811356,2,3,-2,-12,-21,25,-34,-4,-33
1491695811356,0,-23,45,-16,7,54,5,0,23
1491695811356,0,20,18,64,64,121,74,13,-18
1491695811357,1,3,-3,4,-41,-128,-60,9,14
1491695811357,1,-15,15,14,-10,127,63,-5,-17
1491695811404,2,10,4,-42,48,-22,-4,9,14
1491695811404,2,-6,-53,-33,-78,-30,-25,-18,21
1491695811405,3,11,21,102,127,127,35,12,-6
1491695811405,3,2,36,51,-100,-117,-7,1,-21
1491695811406,1,-26,-19,64,91,72,24,12,22
1491695811406,1,-4,44,91,122,18,-70,19,-35
1491695811410,2,16,-9,-72,-7,-51,10,4,84
1491695811410,2,-20,1,57,-62,25,-24,-9,-33
1491695811453,3,35,-35,-60,-104,-22,1,-8,-14
1491695811453,3,8,-37,-69,-31,24,59,-11,23
1491695811454,0,11,63,73,86,5,-26,14,-106
1491695811454,0,9,-46,-75,-56,-71,-34,21,127
1491695811455,2,10,-50,-37,-6,-116,-22,4,-3
1491695811455,2,-13,18,11,14,71,21,-3,-30
1491695811456,3,-13,-46,-126,-120,-128,-80,-5,17
1491695811456,3,11,-43,-65,-38,-19,-8,-12,-8
1491695811501,0,3,75,119,127,127,50,-3,16
1491695811501,0,3,-29,-68,60,-1,-16,9,-34
1491695811502,1,-13,-14,3,-45,-78,6,3,15
1491695811502,1,-11,-30,-5,-21,11,-46,-2,-7
1491695811503,3,-4,3,39,33,-7,8,23,55
1491695811503,3,-7,-13,-52,-95,89,3,-4,2
1491695811504,0,-19,-14,-69,47,-69,-76,-15,-48
1491695811504,0,-47,6,120,38,-3,-30,-13,-23
1491695811550,1,55,-27,-119,-50,9,37,7,-2
1491695811550,1,-23,11,10,-46,-12,-42,-45,-4
1491695811552,2,-13,-50,66,25,79,91,4,43
1491695811552,2,-12,41,87,22,-10,68,16,7
1491695811552,0,1,-23,-128,-111,70,55,30,-11
1491695811552,0,4,24,44,113,61,13,2,-11
1491695811553,1,-23,-32,-27,-87,-38,44,-7,-11
1491695811553,1,20,-5,73,9,11,-55,0,41
1491695811599,2,-13,11,-97,75,-16,-9,-6,-71
1491695811599,2,-6,-26,-2,-128,-81,23,-4,6
1491695811600,3,19,40,54,-13,127,-15,8,2
1491695811600,3,-12,-47,-126,14,-128,-48,-27,13
1491695811601,1,-33,11,119,127,95,16,2,10
1491695811601,1,17,30,-63,-66,-91,9,16,-30
1491695811602,2,6,12,-33,-49,3,-26,-2,8
1491695811602,2,-5,0,-128,-104,-15,-84,-5,-10
1491695811648,3,0,23,94,79,81,33,-10,30
1491695811648,3,-16,-21,-38,71,70,66,19,-49
1491695811649,0,-6,-22,11,-99,16,-39,-12,25
1491695811649,0,14,36,14,-11,-120,-41,-20,-65
1491695811650,2,-2,-43,-57,82,74,8,8,-68
1491695811650,2,-23,-36,-72,-72,-59,-68,-22,-17
1491695811651,3,-31,-17,-48,22,-128,-48,-29,-47
1491695811651,3,27,-22,83,98,89,27,-6,44
1491695811696,0,-3,50,55,-5,12,35,13,-34
1491695811696,0,-4,-36,-29,11,48,-45,13,82
1491695811698,1,36,-22,-51,-88,-4,-27,2,-10
1491695811698,1,-2,7,-79,-83,-60,57,0,-72
1491695811699,2,13,9,106,34,70,-46,-6,33
1491695811699,2,-3,32,99,59,-30,127,4,-31
1491695811700,3,1,-37,-127,-75,52,-3,1,30
1491695811700,3,-11,-16,-20,-96,-102,-108,4,-19
1491695811745,0,-11,-19,-21,-31,33,-20,-34,7
1491695811745,0,-27,-3,-63,11,103,32,1,-36
1491695811746,1,-3,35,127,49,120,86,23,14
1491695811746,1,-12,-14,-52,18,-52,-44,-13,7
1491695811747,3,-1,56,108,91,4,68,2,-35
1491695811747,3,-10,34,-20,-4,89,48,23,25
1491695811748,0,-12,-16,-5,-18,-69,-19,6,27
1491695811748,0,3,-54,-44,48,-82,-16,-6,-51
1491695811794,1,-10,7,-98,-49,31,-128,-17,60
1491695811794,1,-17,-20,51,8,6,52,-12,-11
1491695811795,2,15,69,103,39,-32,30,1,-13
1491695811795,2,24,-3,-26,17,127,-63,7,34
1491695811796,0,12,-14,-56,-43,-105,33,21,45
1491695811796,0,-6,-1,27,-37,-32,-31,-7,20
1491695811797,1,-11,-14,-51,-31,47,-31,-28,-34
1491695811797,1,49,51,52,111,91,27,24,28
1491695811842,2,-21,-39,20,52,19,43,4,-10
1491695811842,2,16,53,43,55,-128,-17,-10,16
1491695811844,3,-1,2,14,-1,22,-22,23,16
1491695811844,3,-27,-25,40,-46,72,0,-9,72
1491695811845,1,-17,-27,94,106,20,28,-5,-11
1491695811845,1,-24,-54,-13,28,-81,-50,-22,-106
1491695811845,2,21,22,28,-11,12,-44,9,112
1491695811845,2,3,21,97,4,35,-5,12,-6
1491695811891,3,12,1,-58,-20,24,39,4,-86
1491695811891,3,4,58,91,79,-65,-23,8,-23
1491695811893,0,-31,-87,-122,-96,-41,21,-28,-33
1491695811893,0,29,-37,-28,-40,38,-34,23,66
1491695811895,2,32,57,31,72,36,1,36,21
1491695811895,2,-9,-28,-46,-47,-68,74,5,-55
1491695811895,3,-8,-10,-37,-53,-14,-82,3,-8
1491695811895,3,-14,22,-35,28,15,127,18,-24
1491695811989,0,-3,0,-12,-4,43,-26,-11,5
1491695811989,0,21,23,71,-60,-21,16,8,56
1491695811990,1,-23,-7,-57,-22,-103,-90,-34,-55
1491695811990,1,-12,-39,-127,-57,62,0,-5,-76
1491695811991,3,16,-32,43,-16,81,75,-13,43
1491695811991,3,-11,-12,-15,-53,-79,-35,9,59
1491695811992,0,6,-22,69,86,107,68,-1,-107
1491695811992,0,2,68,-46,-65,100,-43,-7,28
1491695812043,1,12,5,-72,5,-69,-30,25,53
1491695812043,1,-4,-21,-11,46,49,-31,-2,-14
1491695812044,2,-31,-24,4,-97,-105,49,-7,-20
1491695812044,2,5,-6,84,84,33,-23,-6,36
1491695812045,0,19,36,67,23,-3,-28,16,9
1491695812045,0,-20,3,65,84,9,98,1,-22
1491695812046,0,2,-2,-4,14,50,-40,-9,-2
1491695812046,0,5,7,-29,58,-18,29,-18,-20
1491695812086,1,8,-15,-23,-111,-75,-21,11,92
1491695812086,1,13,7,13,-97,73,-71,-13,-43
1491695812088,2,-19,5,34,53,-58,46,-9,-76
1491695812088,2,15,-7,-104,-16,8,26,44,70
1491695812089,1,9,29,-89,53,105,-14,19,71
1491695812089,1,5,22,-48,-75,-47,-54,-14,-31
1491695812090,2,-28,-5,-6,53,-58,-1,-15,-35
1491695812090,2,-8,-23,-7,-73,33,14,-10,-48
1491695812135,3,28,-7,-48,-22,2,-1,7,47
1491695812135,3,-9,-17,51,3,41,66,-20,-30
1491695812137,0,-18,-12,-5,-88,-80,-62,-6,23
1491695812137,0,12,-2,-23,-39,76,-39,-3,69
1491695812137,2,19,38,-16,-2,24,11,25,16
1491695812137,2,-24,-39,24,70,-40,66,-47,-48
1491695812139,3,52,8,-1,-85,-116,-72,60,100
1491695812139,3,-30,-48,65,98,117,-58,-13,-40
1491695812184,0,3,75,31,1,67,83,4,-45
1491695812184,0,-21,-39,-101,-107,-53,-3,-10,-54
1491695812185,1,16,-3,-34,-27,-39,-24,4,35
1491695812185,1,-18,-31,-92,-19,-66,-15,-8,39
1491695812187,3,-26,2,48,21,-39,-1,-16,-82
1491695812187,3,14,15,-98,-28,-40,44,32,72
1491695812188,0,-41,-56,-25,-67,-104,-64,-41,-74
1491695812188,0,-8,6,22,-3,19,20,45,92
1491695812233,1,1,-8,36,38,77,48,-48,-66
1491695812233,1,8,21,1,-10,52,26,15,-25
1491695812234,2,10,26,-1,101,-65,-41,-35,7
1491695812234,2,-7,-33,-24,-95,-92,0,26,-14
1491695812235,0,17,33,13,23,17,127,22,25
1491695812235,0,-2,-11,21,34,55,-71,-9,-8
1491695812236,1,-31,5,-42,-94,90,-25,4,0
1491695812236,1,17,-14,-71,-83,-110,85,-5,-41
1491695812281,2,8,-20,47,58,-36,-72,9,67
1491695812281,2,-11,6,59,116,61,32,-2,28
1491695812283,3,-15,7,39,69,119,-36,-5,-34
1491695812283,3,40,24,59,-60,-92,-31,43,119
1491695812284,1,2,54,-26,4,37,38,20,-36
1491695812284,1,10,-11,49,57,2,83,0,-14
1491695812285,2,-2,-15,73,17,11,-2,20,-7
1491695812285,2,-13,56,-49,-57,-108,-62,-21,-67
1491695812330,3,-22,-58,-128,-105,-27,-4,-14,6
1491695812330,3,-8,-31,77,96,10,-42,-23,-6
1491695812331,0,-16,-7,7,-64,-7,-55,10,27
1491695812331,0,-3,3,51,49,96,11,-27,-75
1491695812333,2,54,-19,-38,-12,-60,127,27,54
1491695812333,2,-19,-17,-50,-75,-60,-73,-9,-48
1491695812334,3,21,44,98,92,30,28,-8,0
1491695812334,3,21,-15,-13,-43,70,2,31,59
1491695812379,0,-18,-13,-6,0,-35,-101,-41,1
1491695812379,0,12,48,35,-5,-23,-7,22,3
1491695812380,1,-10,-51,-75,-1,-64,75,-1,-24
1491695812380,1,-12,-2,-18,-72,36,-51,1,37
1491695812381,2,-19,-23,45,81,10,-27,5,82
1491695812381,2,45,78,-116,-114,53,1,14,-37
1491695812382,3,-29,-68,127,127,98,-20,-25,38
1491695812382,3,7,29,-53,-110,-80,-92,-39,-70
1491695812428,0,-4,-53,-128,-64,11,102,36,-27
1491695812428,0,-32,-13,107,26,9,-50,-46,-23
1491695812429,1,32,81,72,73,33,79,56,16
1491695812429,1,28,68,-47,53,104,31,9,81
1491695812430,3,14,-83,-12,-74,68,64,5,-24
1491695812430,3,-17,83,39,44,71,51,20,3
1491695812432,0,25,74,-10,-12,66,-42,-9,39
1491695812432,0,-7,-38,-17,39,-49,-19,6,8
1491695812476,1,-7,29,-15,-84,-20,-128,-36,-26
1491695812476,1,15,44,94,64,-123,109,27,19
1491695812478,2,15,-67,-125,-80,-14,-100,-36,-86
1491695812478,2,-25,-84,19,-31,10,127,-5,3
1491695812479,0,-24,-5,52,15,-21,-65,-26,-78
1491695812479,0,25,-12,100,116,110,79,11,82
1491695812480,1,-8,-15,-128,-116,-102,-69,22,-44
1491695812480,1,-22,-33,17,7,49,51,7,19
1491695812525,2,1,3,-83,-68,18,47,25,2
1491695812525,2,-18,-38,49,115,79,5,-22,-85
1491695812527,3,10,27,113,100,82,59,15,14
1491695812527,3,-15,39,-14,-18,-95,18,-4,16
1491695812529,1,-44,57,58,-3,-59,-58,-56,-36
1491695812529,1,19,-64,69,55,-7,-41,29,27
1491695812531,2,5,76,127,127,127,3,9,-7
1491695812531,2,11,3,-128,-63,-102,68,16,16
1491695812574,3,-7,-58,-74,-114,-52,-30,-66,43
1491695812574,3,-51,-23,-78,26,-39,-62,-18,-71
1491695812577,0,21,16,-38,47,41,68,8,21
1491695812577,0,-4,57,77,60,0,-107,6,-69
1491695812578,2,7,-94,-79,-23,78,-15,-13,106
1491695812578,2,-30,28,100,45,-124,-13,-10,-76
1491695812579,3,16,77,66,32,127,57,19,17
1491695812579,3,45,50,127,107,90,63,29,-13
1491695812623,0,-20,-64,17,22,62,-90,9,12
1491695812623,0,-6,66,-105,-128,-63,10,-23,51
1491695812624,1,4,-68,-34,-65,-106,-95,-5,80
1491695812624,1,4,-66,-82,-14,26,-61,-4,-110
1491695812629,3,-25,1,-14,-17,-25,33,35,50
1491695812629,3,45,5,92,69,66,38,2,57
1491695812631,0,-12,3,29,-69,-120,-65,8,-70
1491695812631,0,-7,-1,-86,-60,-76,38,0,18
1491695812676,1,-15,-24,78,109,82,-41,-31,-30
1491695812676,1,-30,-27,-80,-99,69,-110,-15,-3
1491695812720,2,0,35,26,-60,-95,127,-4,45
1491695812720,2,32,46,85,126,58,26,33,-35
1491695812721,0,-18,-3,29,-71,-62,-63,-4,25
1491695812721,0,5,-53,35,-24,104,6,16,50
1491695812722,1,14,116,52,62,62,60,28,-15
1491695812722,1,28,77,118,81,114,26,-17,-31
1491695812723,2,0,-47,-104,97,-88,-19,28,9
1491695812723,2,-38,-51,-64,-80,-59,-59,-61,30
1491695812769,3,-6,1,66,46,41,-87,-21,-39
1491695812769,3,-23,-14,108,17,57,81,55,47
1491695812770,0,48,86,127,107,127,77,13,-78
1491695812770,0,31,5,-67,-24,-69,-35,20,-15
1491695812771,1,47,98,98,48,109,127,69,34
1491695812771,1,-11,-15,-88,-86,-128,-77,-9,7
1491695812772,2,-6,-73,112,43,127,39,-5,34
1491695812772,2,-11,41,-61,26,-125,18,22,-46
1491695812817,3,-29,-51,19,86,96,-60,-41,-1
1491695812817,3,41,15,62,127,120,102,37,7
1491695812819,0,-45,-31,-23,-109,-115,-92,-32,-3
1491695812819,0,-19,-34,100,-71,101,7,-3,-7
1491695812819,2,30,101,105,57,104,-28,21,-35
1491695812819,2,-10,-42,-91,-40,2,27,-3,-29
1491695812820,3,-28,-56,-93,-62,-98,-35,-34,20
1491695812820,3,9,-25,12,-128,-9,34,-3,-23
1491695812866,0,24,82,53,105,-71,6,19,4
1491695812866,0,-3,47,55,-107,65,-20,8,-9
1491695812867,1,22,113,127,-1,47,90,24,-2
1491695812867,1,-35,-97,-128,-5,-128,-24,-5,-10
1491695812868,3,24,101,54,41,91,69,32,-4
1491695812868,3,26,29,127,-12,32,79,36,13
1491695812869,0,-17,36,-1,-76,106,-36,-44,-15
1491695812869,0,-20,-80,-128,97,-68,-44,-14,0
1491695812915,1,-17,-55,-40,-36,13,-17,-17,10
1491695812915,1,15,47,67,91,119,39,11,-14
1491695812916,2,1,-19,-48,29,59,10,18,-4
1491695812916,2,-4,48,-73,-128,-84,-7,-21,25
1491695812917,0,45,23,102,108,-124,-19,2,68
1491695812917,0,-13,26,116,58,76,61,-4,-23
1491695812918,1,33,16,24,-31,-32,13,28,75
1491695812918,1,-4,100,34,-69,109,32,-1,-66
1491695812964,2,-32,-75,-115,-16,-121,-50,2,-11
1491695812964,2,-1,-8,-1,-65,11,-28,3,-1
1491695812965,3,4,25,45,-91,117,-5,-18,-16
1491695812965,3,-14,-92,-104,33,-124,-60,-29,5
1491695812966,1,-28,-15,67,-128,-20,-7,-8,-4
1491695812966,1,38,81,108,52,86,-15,5,13
1491695812967,2,3,17,-127,113,-88,8,12,-4
1491695812967,2,-16,-41,-27,-49,-80,-98,-25,25
1491695813013,3,2,6,68,4,29,96,-5,-36
1491695813013,3,-2,29,-79,-9,64,-52,-13,26
1491695813014,0,11,-27,106,-11,-98,37,16,35
1491695813014,0,13,28,72,55,111,54,20,-19
1491695813014,2,-30,-89,-97,-88,-22,-49,-29,-21
1491695813014,2,23,24,74,-109,-88,-105,9,18
1491695813016,3,-30,-81,-60,114,11,8,-36,37
1491695813016,3,12,10,40,23,81,66,38,-7
1491695813062,0,4,43,28,-44,65,7,-5,-29
1491695813062,0,-3,-24,79,101,113,9,9,62
1491695813063,1,-4,0,46,76,-88,14,14,-69
1491695813063,1,-18,-50,-108,-104,-128,-12,-33,41
1491695813064,3,34,12,-4,61,67,8,29,-24
1491695813064,3,28,35,127,127,103,30,13,58
1491695813065,0,-29,-18,-107,-107,31,4,5,-11
1491695813065,0,-4,-44,-91,-16,-90,-4,-18,20
1491695813111,1,-37,-7,-35,-63,76,8,-1,-27
1491695813111,1,7,-44,-20,-66,-128,-91,-16,-67
1491695813112,2,2,31,39,3,26,10,28,4
1491695813112,2,11,37,-48,-9,-4,-15,-12,27
1491695813113,3,-10,-28,-47,-13,-62,-8,-18,17
1491695813113,3,-42,-72,-6,28,38,21,-30,-48
1491695813114,0,7,34,30,-6,18,-25,-3,20
1491695813114,0,-11,39,18,-34,-49,56,18,-26
1491695813159,1,3,-93,-76,-49,-42,-6,-8,-21
1491695813159,1,9,92,35,61,25,-51,12,50
1491695813208,2,-20,-75,-48,4,19,36,-16,-24
1491695813208,2,-30,-21,51,42,27,100,16,-2
1491695813209,0,-3,77,-65,-63,-14,-55,16,3
1491695813209,0,6,-70,12,-63,-16,14,18,38
1491695813210,1,4,4,46,37,50,15,9,-2
1491695813210,1,39,-47,-14,18,58,17,31,38
1491695813211,2,29,13,105,99,-4,-20,-9,39
1491695813211,2,-3,24,-41,-9,10,4,-33,-50
1491695813257,3,6,-24,-65,-7,-65,-6,14,-43
1491695813257,3,4,-19,57,-13,-73,-14,17,60
1491695813258,1,-1,33,59,6,-2,19,2,17
1491695813258,1,-28,-45,-12,22,-13,-7,14,-48
1491695813259,2,26,21,-63,-47,9,-25,-25,-3
1491695813259,2,-12,64,37,31,59,-9,-20,-15
1491695813260,2,47,54,24,-1,-58,-13,16,20
1491695813260,2,-23,-64,-16,19,44,-10,-45,-126
1491695813305,3,3,17,83,3,44,-5,-2,54
1491695813305,3,31,66,64,6,-8,-1,18,36
1491695813307,0,-22,59,38,-6,127,50,20,-16
1491695813307,0,-4,-74,-44,9,-96,-21,-16,-37
1491695813308,3,-17,-25,-59,88,27,30,-18,-58
1491695813308,3,5,62,67,-3,-29,16,21,-11
1491695813309,0,-7,-82,-95,-7,-14,3,-17,14
1491695813309,0,-13,18,-13,23,26,-8,2,23
1491695813354,1,12,7,-39,-75,34,-13,-1,-25
1491695813354,1,1,87,115,99,61,37,4,-32
1491695813356,2,1,-73,-45,7,-93,-70,-10,1
1491695813356,2,18,-37,-75,-104,-72,-5,-4,24
1491695813357,0,-11,65,111,52,30,43,4,15
1491695813357,0,-23,-54,-92,10,-49,-29,-4,-40
1491695813358,1,12,8,37,-22,-46,-21,16,21
1491695813358,1,35,28,46,122,106,38,17,-1
1491695813403,2,11,-40,-30,18,-18,-6,-6,39
1491695813403,2,6,-27,-30,-68,-17,4,19,13
1491695813404,3,-28,-28,-91,-65,-14,-18,-25,-39
1491695813404,3,-5,15,11,-30,6,-27,-5,-40
1491695813405,1,31,49,-38,46,-22,30,16,79
1491695813405,1,-22,-18,-48,-14,-10,25,0,-31
1491695813406,2,-12,-18,-92,-125,-84,-40,-15,-13
1491695813406,2,3,11,46,33,20,63,23,26
1491695813452,3,-44,-43,19,15,-44,-38,-42,-99
1491695813452,3,19,42,0,56,73,33,11,24
1491695813453,0,-7,-26,2,96,-28,-43,12,0
1491695813453,0,-19,-28,-83,-110,-52,-1,-16,18
1491695813454,1,-8,-5,-48,-44,64,-45,1,13
1491695813454,1,8,-14,-20,-44,-12,-25,-9,13
