1491695855571,0,12,49,19,31,56,92,-112,36
1491695855571,0,-12,17,101,82,-68,2,27,-56
1491695855578,1,-11,-25,-100,-93,-99,86,69,-92
1491695855578,1,-10,-27,-79,-61,-40,-21,39,-73
1491695855580,2,8,-23,58,-22,56,-31,58,-62
1491695855580,2,43,8,-35,25,107,2,4,24
1491695855620,3,8,8,64,10,-5,-102,-40,-7
1491695855620,3,-19,-16,27,-36,85,64,2,35
1491695855621,0,5,-3,-51,-9,-79,89,9,-18
1491695855621,0,-2,9,-8,5,-75,-98,-48,4
1491695855622,1,11,12,106,99,9,-16,2,31
1491695855622,1,-13,-13,-104,-29,92,-13,9,1
1491695855623,2,-10,-8,-41,-40,-83,34,-32,23
1491695855623,2,-13,-23,35,66,92,5,21,13
1491695855668,3,16,41,-16,41,102,5,-2,5
1491695855668,3,-15,-11,-50,-57,-8,-61,-38,-19
1491695855669,0,12,7,16,107,25,68,39,20
1491695855669,0,1,-13,-1,-112,-79,-109,6,-12
1491695855670,1,-20,-15,-80,-42,41,109,-38,-6
1491695855670,1,14,26,118,89,103,110,-1,39
1491695855717,2,-9,-19,-51,6,57,20,20,-18
1491695855717,2,-2,0,-2,17,22,-42,-4,5
1491695855718,3,-7,-9,79,-51,-84,-117,-15,23
1491695855718,3,14,29,65,98,30,23,32,-14
1491695855719,0,-12,-27,-82,-14,-72,-80,-24,1
1491695855719,0,-16,-14,-59,-93,57,2,-35,-24
1491695855719,2,12,24,46,8,127,14,35,0
1491695855719,2,-9,-2,-52,-47,-88,-16,-20,-8
1491695855766,3,-1,3,15,71,-23,-3,-33,-17
1491695855766,3,0,-9,-45,-3,-11,-34,2,6
1491695855767,0,-5,-5,29,-70,84,-12,10,-2
1491695855767,0,1,16,55,-6,109,58,16,10
1491695855768,3,8,13,32,57,74,-35,30,10
1491695855768,3,-9,1,-14,-48,-128,84,-7,-18
1491695855769,0,-16,-32,-9,35,-67,-26,-7,-42
1491695855769,0,22,21,64,56,-26,127,-1,18
1491695855815,1,-13,-10,-46,12,79,-68,9,19
1491695855815,1,10,1,-14,10,-14,9,14,15
1491695855816,2,6,15,24,-25,38,-8,-1,13
1491695855816,2,3,9,-51,18,2,37,27,-6
1491695855817,0,-15,-18,-40,-64,27,35,-6,-12
1491695855817,0,-12,-16,7,32,-12,-50,-19,5
1491695855818,1,15,-1,-14,-47,127,106,15,11
1491695855818,1,1,17,125,77,-49,-59,-11,4
1491695855864,2,-9,-25,-96,-69,-32,4,-7,-12
1491695855864,2,3,33,-50,-34,-33,-8,-2,5
1491695855866,3,-5,-2,22,39,-7,34,28,-4
1491695855866,3,3,0,51,38,18,-72,-49,-8
1491695855867,0,-1,12,36,-50,34,26,9,-21
1491695855867,0,15,-16,3,40,-37,87,29,19
1491695855868,1,-7,-16,-34,-31,69,-71,-3,-10
1491695855868,1,-2,0,-19,-15,24,62,-23,0
1491695855912,2,12,9,-18,-26,33,-56,7,42
1491695855912,2,-13,0,83,93,104,-47,6,-27
1491695855914,3,19,29,72,-128,-54,-46,-37,2
1491695855914,3,-11,-44,-105,-8,53,14,34,18
1491695855915,1,31,18,-3,101,9,-40,15,19
1491695855915,1,2,12,81,25,22,-9,32,-29
1491695855915,2,-9,4,-65,-98,-108,-89,-27,-14
1491695855915,2,-4,-20,-89,-68,-29,-33,-18,22
1491695855961,3,0,5,37,62,-63,13,16,-39
1491695855961,3,-7,-6,25,-55,78,64,-13,4
1491695855962,0,17,22,63,52,-35,-27,14,9
1491695855962,0,-12,-8,-56,-99,72,-43,10,-24
1491695855963,2,-12,-8,-24,-30,-110,90,-5,-18
1491695855963,2,9,-2,62,65,115,15,-13,21
1491695855964,3,0,-2,-128,-110,-83,-45,26,-12
1491695855964,3,-8,-2,21,26,96,20,-15,21
1491695856010,0,20,22,26,8,52,-127,17,9
1491695856010,0,-13,-11,-3,26,42,-19,-15,-5
1491695856013,1,-13,-4,39,-25,105,44,19,19
1491695856013,1,14,7,15,68,-94,81,3,-4
1491695856014,3,-10,-23,-88,-77,-74,18,-34,-3
1491695856014,3,-16,-18,-38,-112,52,-97,41,-32
1491695856014,0,14,-11,68,65,80,110,-3,27
1491695856014,0,-19,-15,21,6,-74,-127,-20,-3
1491695856058,1,-1,14,37,95,49,-14,0,-5
1491695856058,1,10,8,-13,9,-40,25,-8,10
1491695856060,2,-18,-24,-59,-69,96,44,-6,-30
1491695856060,2,18,22,-33,-65,-97,-10,14,30
1491695856062,0,6,10,5,26,-78,-51,-52,7
1491695856062,0,-16,-14,-15,-47,116,87,29,-28
1491695856063,1,-12,-16,-29,-73,-73,-128,-71,19
1491695856063,1,7,9,43,57,106,93,21,-36
1491695856107,2,-7,9,9,45,-55,127,55,22
1491695856107,2,8,-5,-66,-101,28,-58,-63,-11
1491695856109,3,-3,-14,-56,-18,-21,-29,56,-4
1491695856109,3,-11,-5,30,-42,75,16,-54,20
1491695856110,1,6,-1,-12,-19,105,15,8,-21
1491695856110,1,-2,15,-68,-86,-120,-70,-27,2
1491695856110,2,4,-11,84,127,0,7,-2,2
1491695856110,2,-9,-1,-22,-91,127,94,-4,-16
1491695856158,3,-10,-18,0,-5,-82,107,12,-5
1491695856158,3,-2,14,26,34,13,-128,-1,9
1491695856159,0,-1,-1,5,64,101,5,3,-6
1491695856159,0,-2,-17,-25,-71,-82,-28,6,-12
1491695856160,2,-15,-40,-28,-51,-90,24,-32,1
1491695856160,2,2,-4,7,17,73,-86,22,0
1491695856161,3,-1,44,60,1,-21,20,-30,16
1491695856161,3,-6,-14,-80,-91,-50,-16,31,-2
1491695856205,0,8,5,-42,-55,1,-1,-43,-14
1491695856205,0,-8,-10,25,80,14,-7,-6,-3
1491695856206,1,-13,-16,50,48,-55,-57,-31,-4
1491695856206,1,14,15,45,48,96,89,14,-18
1491695856207,2,2,4,-9,27,-67,-11,26,30
1491695856207,2,4,-8,-61,-121,-13,-5,-15,8
1491695856208,3,1,8,84,90,127,41,26,0
1491695856208,3,-8,-23,-47,-35,-128,2,-44,-19
1491695856253,0,-8,-9,-105,-84,-51,-72,11,-17
1491695856253,0,8,18,83,33,68,-7,18,11
1491695856255,1,8,0,-30,-8,100,50,-4,1
1491695856255,1,-8,-16,17,2,-72,-43,-25,-6
1491695856256,3,6,-2,-61,-128,-28,36,4,-13
1491695856256,3,-6,5,107,117,126,33,15,-5
1491695856257,0,11,12,4,25,-101,-15,25,-10
1491695856257,0,-4,-17,-57,-76,-100,-44,-8,6
1491695856302,1,-5,-12,-5,-34,126,-35,-2,5
1491695856302,1,1,-7,-83,-68,-31,22,-25,18
1491695856304,2,0,26,117,91,105,-85,6,-7
1491695856304,2,-1,3,-44,27,17,88,21,-22
1491695856305,0,-1,1,-18,-24,-1,-92,-13,-4
1491695856305,0,14,9,20,83,-87,14,-11,26
1491695856306,1,-3,-1,13,-32,-62,-93,3,-7
1491695856306,1,1,21,19,53,-41,25,8,-28
1491695856351,2,-4,-14,10,12,127,74,-29,6
1491695856351,2,-13,-23,-36,-88,-95,-86,21,2
1491695856353,3,2,5,83,127,-31,-15,-8,0
1491695856353,3,-1,12,12,-45,-10,25,-16,-22
1491695856354,1,-8,-31,-68,-73,-56,-19,-8,22
1491695856354,1,-7,-4,22,24,23,-9,-2,14
1491695856355,2,-6,4,17,0,45,-37,-23,-6
1491695856355,2,10,32,63,82,23,73,21,-3
1491695856448,3,1,7,-26,-48,20,-16,16,16
1491695856448,3,4,-16,50,87,-59,-38,-16,-21
1491695856450,0,2,-10,-10,-42,-83,77,13,27
1491695856450,0,-13,-12,1,11,73,70,-24,-6
1491695856452,2,-1,-13,-75,-58,-35,-126,1,-9
1491695856452,2,-5,12,47,40,73,51,-18,-25
1491695856453,3,-8,-20,-56,8,-106,51,4,15
1491695856453,3,4,30,107,25,88,-39,-30,10
1491695856497,0,-10,-11,-24,14,-15,47,0,-11
1491695856497,0,-4,-12,14,8,-42,-98,-5,2
1491695856500,1,-2,10,-29,14,-1,-23,12,-11
1491695856500,1,-6,-15,-53,-60,-126,114,5,-2
1491695856501,3,-6,6,22,79,-35,-93,-35,-16
1491695856501,3,-8,-10,2,-31,51,-22,-21,-26
1491695856502,0,-7,-18,-128,-128,-68,22,-42,17
1491695856502,0,15,11,0,20,39,-57,16,19
1491695856546,1,-23,-26,31,64,-43,26,-3,-21
1491695856546,1,-11,-11,-13,-28,13,-21,-11,-6
1491695856548,2,1,16,89,105,57,-81,19,-10
1491695856548,2,4,10,4,-12,90,49,-7,-1
1491695856549,1,8,10,8,-67,127,-94,9,1
1491695856549,1,-1,6,-12,85,63,127,-15,9
1491695856550,2,-4,-8,-8,-24,-25,44,8,-10
1491695856550,2,3,11,10,1,-46,10,33,1
1491695856595,3,2,-6,27,16,-46,-11,23,15
1491695856595,3,-3,-5,-17,-59,-4,-39,-22,5
1491695856596,0,-5,-2,8,37,-1,-27,6,1
1491695856596,0,6,-5,28,-2,27,74,-37,1
1491695856598,1,-1,4,6,-50,-37,-38,21,21
1491695856598,1,18,5,-55,-33,-61,-43,-21,-2
1491695856599,2,-8,-12,25,46,-65,16,20,12
1491695856599,2,-6,-13,-71,-32,84,50,4,-49
1491695856643,3,1,12,12,-14,-48,6,-19,-5
1491695856643,3,3,1,55,-36,-35,26,18,10
1491695856645,0,-8,-15,-115,-98,3,-31,6,4
1491695856645,0,-11,-7,57,58,30,-19,-7,6
1491695856646,2,15,13,18,26,-30,-49,48,-9
1491695856646,2,-5,-2,-12,-73,-4,39,-41,-26
1491695856647,3,-3,-14,-22,32,68,14,6,32
1491695856647,3,-8,-3,-17,1,-93,83,0,-10
1491695856693,0,4,16,56,76,110,81,-10,14
1491695856693,0,-7,-10,-42,-18,-120,-72,62,-9
1491695856694,1,5,-7,1,-44,-24,10,-10,36
1491695856694,1,-3,-1,-7,-92,69,2,-16,-33
1491695856696,3,-12,-1,15,44,66,109,-8,-53
1491695856696,3,-6,-21,-43,-9,7,1,12,57
1491695856697,0,-3,0,25,-4,0,-25,-25,-16
1491695856697,0,0,6,19,26,76,-13,9,6
1491695856790,1,-15,-15,-64,-25,-89,-12,-28,-23
1491695856790,1,-10,-2,19,-11,50,-22,-1,-17
1491695856791,2,9,9,18,-11,-40,-18,10,10
1491695856791,2,4,3,-103,-117,39,-70,-10,-9
1491695856792,0,-1,-11,-18,40,4,47,-19,-16
1491695856792,0,-24,-16,-17,12,38,67,10,-4
1491695856793,1,7,11,18,-12,24,-5,-12,-33
1491695856793,1,-1,4,-24,-11,66,7,8,15
1491695856838,2,-4,2,19,-68,-91,-110,4,-5
1491695856838,2,-5,-6,16,-2,63,44,-11,14
1491695856841,3,2,0,-21,61,13,12,-2,18
1491695856841,3,-5,-14,-9,-38,-119,-28,-17,-4
1491695856842,1,2,12,39,-2,29,-45,2,24
1491695856842,1,15,-2,3,-14,9,-1,9,-21
1491695856843,2,0,6,-15,36,-50,-74,-18,-41
1491695856843,2,-7,0,48,-38,37,57,7,19
1491695856887,3,12,-4,-55,-26,2,24,0,62
1491695856887,3,-5,-12,0,73,16,3,36,10
1491695856888,0,-10,-11,5,-1,29,8,-17,-14
1491695856888,0,3,10,29,-16,-73,3,-5,-12
1491695856889,3,-2,-4,-32,-77,-41,-36,-1,-23
1491695856889,3,-1,12,33,17,36,-10,9,16
1491695856890,0,6,1,21,56,34,92,14,-6
1491695856890,0,2,-16,-19,-29,6,-93,-20,-25
1491695856936,1,-3,2,8,-4,45,60,7,46
1491695856936,1,-2,8,23,62,-56,40,-1,-29
1491695856937,2,-10,-21,-49,-98,-70,-77,-23,8
1491695856937,2,8,8,22,51,60,43,7,-8
1491695856938,3,-3,0,-34,-1,-47,-100,4,-49
1491695856938,3,-4,-3,60,1,39,52,-17,-11
1491695856939,0,0,2,-27,-33,42,62,9,34
1491695856939,0,-14,-19,-71,-2,-24,7,-6,-24
1491695856985,1,-9,0,26,19,-21,-62,-20,-37
1491695856985,1,6,-2,-28,-37,-6,35,-1,34
1491695857033,2,14,15,53,61,0,-125,4,54
1491695857033,2,-6,-1,29,6,23,52,-4,19
1491695857083,0,-5,1,17,-17,127,67,35,-20
1491695857083,0,1,-5,-13,32,32,-41,0,7
1491695857084,1,-4,-17,21,25,15,30,-14,37
1491695857084,1,-8,-5,-4,-30,63,-42,-5,-35
1491695857085,2,6,14,8,21,-66,-7,-13,1
1491695857085,2,10,11,-4,-16,-61,-59,-18,25
1491695857086,3,11,20,54,7,48,6,23,-1
1491695857086,3,-3,-20,-44,-14,-35,21,4,-17
1491695857131,1,11,-7,-20,17,-18,-55,7,7
1491695857131,1,-3,13,35,-41,-106,-24,-18,-6
1491695857133,2,-13,-9,-43,-50,-12,12,9,-90
1491695857133,2,16,13,29,-15,-60,-73,-2,29
1491695857134,3,-1,5,-17,-46,-31,-33,-10,-16
1491695857134,3,13,-6,5,117,-50,14,17,34
1491695857135,0,-19,-20,-28,-112,3,-15,-4,-9
1491695857135,0,9,10,24,23,17,-61,-9,23
1491695857180,1,-4,1,-16,21,46,15,-2,16
1491695857180,1,10,10,19,-25,45,-19,7,-23
1491695857181,2,3,20,-20,43,-59,33,1,-25
1491695857181,2,-12,-28,-24,-24,46,24,-5,-2
1491695857182,0,-5,1,51,32,-56,-45,-17,-32
1491695857182,0,6,9,-9,1,34,50,15,2
1491695857228,1,-13,-11,8,51,-50,14,-21,-44
1491695857228,1,5,-3,-114,-97,41,-37,20,46
1491695857230,2,-4,-9,121,99,7,70,-1,-9
1491695857230,2,-6,-3,11,15,38,-57,-5,-9
1491695857231,3,4,7,-29,-20,-1,-38,-11,3
1491695857231,3,-19,-5,1,-50,20,104,8,-21
1491695857232,1,4,-9,67,59,56,-11,-1,32
1491695857232,1,3,-2,-38,-52,17,-14,10,-20
1491695857277,2,-14,-9,7,-16,10,-26,-17,-6
1491695857277,2,9,5,-31,-26,64,16,24,10
1491695857278,3,9,-1,35,-36,-127,-47,-20,4
1491695857278,3,-8,5,7,73,2,76,2,-20
1491695857279,1,-4,-17,-35,-94,6,91,31,-15
1491695857279,1,-6,-1,-11,26,20,42,-21,0
1491695857280,2,3,14,-32,-68,13,0,1,20
1491695857280,2,-3,-4,73,111,33,-3,-7,10
1491695857326,3,2,1,-18,-13,15,-5,9,11
1491695857326,3,-3,-3,10,-80,-11,-38,-15,-47
1491695857328,0,12,4,42,77,-58,17,16,-3
1491695857328,0,1,17,65,-87,111,86,0,52
1491695857330,2,1,-2,-7,-5,29,49,7,-35
1491695857330,2,5,9,57,-12,-8,21,24,29
1491695857331,3,6,16,-30,-31,-121,-4,6,-19
1491695857331,3,1,3,-16,-36,-62,18,19,10
1491695857375,0,-14,-8,-12,-4,46,-16,-37,-39
1491695857375,0,4,2,20,35,-43,31,15,31
1491695857376,1,-9,-7,16,42,36,-50,-26,-6
1491695857376,1,3,0,-38,-3,23,1,2,-2
1491695857378,3,2,13,24,45,-6,-61,-18,3
1491695857378,3,1,6,-16,7,-42,53,57,12
1491695857378,0,-7,-13,-21,-34,42,-2,-18,6
1491695857378,0,1,6,-116,-35,28,-71,-6,-37
1491695857423,1,3,0,127,63,-60,-46,-12,-8
1491695857423,1,-12,-14,-36,-82,-34,-52,-25,19
1491695857425,2,-3,-8,-44,-36,-9,-6,9,19
1491695857425,2,1,-5,-6,74,-11,-8,-1,16
1491695857426,0,-5,-9,-26,-40,-59,-43,-15,-14
1491695857426,0,6,9,92,127,15,10,-9,0
1491695857427,1,6,-7,-96,-128,-36,-26,-2,11
1491695857427,1,-14,-8,-31,10,-69,16,5,3
1491695857472,2,0,9,41,17,123,57,9,-5
1491695857472,2,-2,7,20,8,-92,-99,-13,-2
1491695857474,3,3,5,9,12,67,127,9,20
1491695857474,3,2,-10,-38,109,-47,-27,-4,-14
1491695857475,1,-16,-15,-6,19,17,-21,-27,-46
1491695857475,1,7,21,33,13,-14,-105,21,-19
1491695857476,2,3,-1,-26,-10,8,83,25,13
1491695857476,2,-19,-22,-12,-72,-70,23,-21,-45
1491695857521,3,-7,3,-60,9,64,-62,-14,45
1491695857521,3,8,-6,67,13,-6,-2,-4,-18
1491695857522,0,-4,10,-12,36,36,8,-1,9
1491695857522,0,2,-18,-26,-33,-73,-2,30,-36
1491695857522,2,-13,-31,-98,-18,-128,17,-25,37
1491695857522,2,-8,-9,12,-9,127,-15,-23,-46
1491695857524,3,6,-16,20,3,-49,78,28,-29
1491695857524,3,-8,4,60,-7,-21,-37,-37,4
1491695857569,0,9,18,52,71,74,-56,14,13
1491695857569,0,-8,-6,-57,-25,-86,-4,2,45
1491695857570,1,2,-1,-24,-44,11,26,12,5
1491695857570,1,3,-9,-16,-10,74,-6,-2,-13
1491695857571,3,1,0,42,60,60,14,18,40
1491695857571,3,1,-8,-35,-73,98,90,-3,6
1491695857576,0,-18,-13,-37,79,-107,-122,1,-36
1491695857576,0,10,6,-6,70,15,-12,-14,11
1491695857618,1,-6,-15,7,-58,-59,13,0,8
1491695857618,1,-5,2,7,5,90,5,-10,-6
1491695857619,2,13,13,-4,-43,72,27,-3,28
1491695857619,2,4,2,-24,-10,-97,-2,4,-8
1491695857620,3,-13,-15,6,24,-24,8,-16,-30
1491695857620,3,-6,5,12,102,95,-82,7,25
1491695857620,0,6,-9,-22,-128,-121,71,3,-22
1491695857620,0,-9,-16,8,6,127,5,7,18
1491695857667,1,-2,12,8,46,-89,-93,-15,-39
1491695857667,1,-2,-14,-50,-36,-78,-43,-25,17
1491695857668,2,11,16,12,-41,82,64,26,1
1491695857668,2,19,1,29,85,46,13,4,17
1491695857669,0,-1,-2,4,45,-128,-117,-3,42
1491695857669,0,4,13,28,-80,98,2,5,19
1491695857669,1,2,-11,-40,-43,71,51,12,-16
1491695857669,1,-4,0,-3,-11,-55,-39,-19,4
1491695857716,2,-2,9,-104,-24,127,39,22,-10
1491695857716,2,-8,-12,117,34,-128,-25,0,8
1491695857717,3,8,28,98,58,99,-36,-13,-6
1491695857717,3,11,-7,-92,-68,-90,29,14,40
1491695857717,1,-5,-6,-9,-13,-58,-6,-2,-15
1491695857717,1,16,19,69,46,93,45,22,0
1491695857718,2,2,8,6,20,-126,-62,-9,16
1491695857718,2,-13,-6,-52,-38,13,-22,-4,-27
1491695857765,3,10,8,27,16,91,17,12,-10
1491695857765,3,-18,-28,-14,7,-17,54,-3,10
1491695857766,0,0,-10,-53,-80,-7,-1,4,-8
1491695857766,0,-13,-8,-14,30,-12,-40,-22,-35
1491695857767,2,-5,-19,105,127,66,25,20,35
1491695857767,2,-5,9,-57,-128,-22,-2,3,-18
1491695857768,3,6,-2,3,-20,52,25,14,35
1491695857768,3,-2,0,13,-49,-122,-39,-11,-28
1491695857813,0,3,-2,-4,63,43,32,-21,-4
1491695857813,0,10,12,19,0,20,3,12,43
1491695857814,1,-3,-5,-39,0,3,62,23,-19
1491695857814,1,-10,-8,-7,-75,-41,28,9,-4
1491695857815,3,4,8,-31,-80,44,-39,-9,-17
1491695857815,3,-7,-3,59,77,97,26,-8,13
1491695857816,0,13,34,32,-11,33,-21,8,-59
1491695857816,0,-6,-18,-98,-23,-46,-5,13,-2
1491695857911,1,-11,-36,-40,3,-51,-28,-21,-1
1491695857911,1,-1,-2,-6,13,-35,6,19,45
1491695857912,2,10,11,23,-27,82,15,5,-13
1491695857912,2,5,15,45,70,9,3,-1,-17
1491695857913,0,-2,-13,-25,-98,-56,-9,5,6
1491695857913,0,6,0,-37,-62,-1,4,-1,36
1491695857914,1,3,-7,18,3,26,-14,8,-17
1491695857914,1,-7,5,43,7,20,14,-35,-28
1491695857960,2,-8,3,46,75,73,35,23,1
1491695857960,2,2,-9,-97,-74,-55,62,-11,10
1491695857961,3,-14,-18,30,76,29,1,7,23
1491695857961,3,-5,-6,11,-110,-98,-80,2,10
1491695857962,1,-3,0,-53,18,-53,10,-5,16
1491695857962,1,-2,-3,9,84,51,-32,-8,-4
1491695857962,2,-9,6,-5,62,30,-34,-20,-52
1491695857962,2,5,-12,-1,-60,-62,12,22,11
1491695858008,3,-14,-2,12,12,10,5,-5,1
1491695858008,3,12,31,76,100,68,12,12,5
1491695858010,0,7,-18,-43,-22,-29,-39,-5,22
1491695858010,0,-4,-11,-11,-56,116,43,-1,-8
1491695858012,2,-7,3,101,118,21,-46,-10,17
1491695858012,2,10,4,-58,-49,72,-24,-13,-17
1491695858013,3,-4,-12,-23,-106,-122,6,2,5
1491695858013,3,5,5,14,-46,20,13,8,25
1491695858057,0,-6,3,0,23,-18,-5,1,11
1491695858057,0,-5,7,46,88,21,37,1,-15
1491695858059,1,4,12,30,0,120,-30,-10,-21
1491695858059,1,2,-22,-70,-49,-105,28,-7,-15
1491695858060,3,-9,-5,-7,-2,14,22,12,-20
1491695858060,3,0,8,30,38,-16,-80,-4,29
1491695858061,0,14,5,-64,-74,-35,25,-16,-28
1491695858061,0,-1,-17,105,100,-68,-20,6,1
1491695858106,1,-11,-6,-7,-10,-5,-53,-30,10
1491695858106,1,-10,-9,37,-12,-29,30,1,4
1491695858108,2,0,-3,-82,11,39,115,7,5
1491695858108,2,-5,16,35,23,-66,-85,-18,-17
1491695858109,0,2,4,-29,-26,-57,5,-12,10
1491695858109,0,-3,-9,-9,6,23,10,-5,-11
1491695858110,1,-3,8,48,13,51,-56,4,-10
1491695858110,1,-1,3,13,62,-20,38,-9,9
1491695858159,2,13,8,-21,-65,65,31,8,-18
1491695858159,2,2,-14,-7,80,11,-3,12,30
1491695858160,3,-13,-5,80,-38,-41,51,4,-33
1491695858160,3,-7,-13,-85,-96,-31,-61,-18,10
1491695858161,1,-1,-8,-29,41,87,37,-17,-44
1491695858161,1,12,22,53,20,-86,-28,1,34
1491695858162,2,5,13,44,94,14,8,11,0
1491695858162,2,-6,-8,-43,-100,4,24,4,23
1491695858203,3,-12,-15,-71,13,-39,-40,-8,-11
1491695858203,3,9,17,22,-33,66,46,-9,-10
1491695858205,0,-1,-6,49,14,2,-27,2,-12
1491695858205,0,0,15,9,90,127,59,14,2
1491695858206,2,-10,-7,6,57,88,18,-8,-12
1491695858206,2,1,-5,-40,-51,-62,-46,-6,9
1491695858208,3,15,18,-34,19,27,21,9,-7
1491695858208,3,10,-1,40,48,-11,-8,25,1
1491695858253,0,0,3,2,-17,-85,15,3,-4
1491695858253,0,-7,11,82,18,80,-21,-6,-25
1491695858254,1,4,-11,-128,-26,-91,22,14,27
1491695858254,1,2,-16,-23,-73,75,-8,-6,-2
1491695858255,3,-9,-15,25,-51,-35,-28,-9,26
1491695858255,3,-1,20,-33,62,127,15,1,-42
1491695858256,0,-6,-10,-9,-21,-128,-30,-16,-19
1491695858256,0,-3,-9,-10,-71,19,-9,2,7
1491695858301,1,-2,7,15,20,2,83,0,13
1491695858301,1,-7,-9,-7,6,-54,-107,6,5
1491695858303,2,0,33,96,84,97,80,9,-34
1491695858303,2,5,-19,-114,-121,-68,-29,-15,-5
1491695858304,0,-4,-9,-16,-84,-7,-9,-1,14
1491695858304,0,-5,10,62,43,61,36,-2,-22
1491695858305,1,8,6,-6,102,-47,-25,9,17
1491695858305,1,-13,-7,15,-32,-24,-40,-20,-16
1491695858350,2,7,8,-19,14,20,36,19,5
1491695858350,2,1,2,-20,-29,53,54,0,16
1491695858352,3,2,-6,-27,-77,-25,-15,-1,-15
1491695858352,3,-5,4,88,20,-58,-39,-17,-28
1491695858353,0,-7,-22,-128,-40,10,10,-23,1
1491695858353,0,3,-2,-83,-31,6,-34,10,-2
1491695858354,1,-1,16,116,127,25,124,7,-2
1491695858354,1,3,-23,-26,-86,-25,1,23,29
1491695858398,2,-17,-1,-4,-12,-1,-63,-20,-30
1491695858398,2,7,14,-12,-55,-37,-66,-13,-2
1491695858401,3,-3,-9,-59,17,29,-8,-9,-20
1491695858401,3,-3,-6,-27,-73,-3,8,-2,27
1491695858402,1,-4,4,15,1,104,24,2,-7
1491695858402,1,-6,0,-18,3,15,21,7,-15
1491695858403,2,3,9,-32,6,70,-19,-14,-10
1491695858403,2,-5,-4,79,47,-128,-49,1,13
1491695858448,3,13,6,-25,-23,-31,-9,9,4
1491695858448,3,-6,8,62,127,127,16,-3,-16
1491695858449,0,-4,-3,10,-78,-80,-19,-5,-15
1491695858449,0,-2,-32,-84,-57,47,67,14,3
1491695858450,2,4,1,63,-2,-16,39,12,52
1491695858450,2,2,1,21,39,1,19,2,6
1491695858453,3,-7,0,-43,-39,-33,-23,-12,-22
1491695858453,3,17,14,-44,-34,45,8,16,13
1491695858496,0,-1,-7,51,63,36,6,-4,-17
1491695858496,0,-1,11,51,35,-41,17,4,11
1491695858497,1,5,-5,-78,-73,73,-14,-10,9
1491695858497,1,-10,-14,-38,-50,-117,27,2,-40
1491695858545,3,2,21,13,16,-58,45,18,-28
1491695858545,3,-2,-2,60,51,11,2,0,11
1491695858563,0,-11,-18,-58,-85,12,8,-12,-13
1491695858563,0,6,5,14,-59,-15,-100,-10,29
1491695858564,1,8,10,15,30,-27,79,21,-35
1491695858564,1,-11,-23,-42,21,-23,-17,0,17
1491695858565,2,1,4,23,52,32,4,9,-11
1491695858565,2,-2,3,68,49,2,47,-1,12
1491695858593,0,-6,-5,14,35,69,35,2,-7
1491695858593,0,9,7,-42,-1,-123,-47,21,34
1491695858595,1,3,10,54,12,127,9,14,22
1491695858595,1,13,23,-37,15,18,34,-16,-19
1491695858596,2,-10,-20,-86,-128,-73,-47,-1,-39
1491695858596,2,-12,-16,-63,-82,-43,26,-11,-2
1491695858597,1,-3,-17,12,50,18,-30,-7,12
1491695858597,1,9,25,19,-51,42,5,10,-16
1491695858642,2,-4,-3,18,95,5,-41,-5,-18
1491695858642,2,-10,-11,-32,-97,-49,-25,-25,-1
1491695858644,3,-19,-15,-7,-9,33,69,-3,-30
1491695858644,3,9,2,50,41,-1,-17,15,38
1491695858646,2,16,23,90,73,48,47,29,65
1491695858646,2,1,11,6,23,127,24,9,-21
1491695858646,3,-3,8,-42,33,-128,13,-4,-24
1491695858646,3,-12,-11,42,8,71,-10,-26,-11
1491695858691,0,1,-9,8,30,-41,9,14,11
1491695858691,0,0,-4,-25,-93,-30,-80,-15,18
1491695858694,1,1,-1,20,-16,44,25,-4,-23
1491695858694,1,-5,-12,-56,-33,-27,-16,-2,22
1491695858695,2,-6,6,37,45,-16,-25,-24,-36
1491695858695,2,4,3,49,79,44,47,19,8
1491695858696,3,-2,-8,-92,-73,-57,-69,-12,-10
1491695858696,3,10,-11,20,4,29,41,2,62
1491695858739,0,-9,-5,-27,-62,42,10,11,48
1491695858739,0,-6,11,4,11,-100,-40,-20,-42
1491695858741,1,11,14,78,65,38,3,14,18
1491695858741,1,-1,-1,-2,16,-3,12,-11,-4
1491695858741,3,2,5,-79,-83,-25,-48,-11,12
1491695858741,3,-11,-6,45,11,5,45,25,-42
1491695858742,0,-17,-27,-45,-17,-40,-40,-25,-67
1491695858742,0,-4,-1,11,48,68,-45,4,47
1491695858788,1,7,17,63,7,25,77,0,17
1491695858788,1,0,7,-92,-69,-12,-51,12,-13
1491695858789,2,0,-16,84,92,25,-20,-11,26
1491695858789,2,-9,-15,11,-66,-101,121,7,0
1491695858790,0,-6,1,-62,-24,-93,-54,-5,-12
1491695858790,0,12,12,-5,65,23,19,4,14
1491695858791,1,-6,-7,17,17,49,-27,-16,0
1491695858791,1,4,13,15,14,0,-46,17,-32
1491695858837,2,-11,-14,-58,-60,-63,14,-26,12
1491695858837,2,-12,-3,50,-37,66,-39,6,-19
1491695858838,3,4,-10,-78,-11,-11,66,2,-68
1491695858838,3,8,24,42,20,5,-48,4,69
1491695858839,1,-6,-11,82,102,-18,-27,-9,33
1491695858839,1,-14,-9,18,29,-12,9,1,-15
1491695858840,2,11,20,20,-38,43,-9,11,-35
1491695858840,2,-3,2,29,41,-41,67,37,24
1491695858886,3,-13,-18,-28,-39,53,-90,-39,-35
1491695858886,3,12,2,12,24,-51,125,13,23
1491695858886,0,-9,-3,9,17,-24,-59,1,9
1491695858886,0,2,-17,-69,-35,80,30,-25,15
1491695858887,2,13,5,-13,-5,-12,39,-6,-31
1491695858887,2,18,6,-10,-36,17,52,25,98
1491695858888,3,-7,-4,-46,-30,6,26,33,-28
1491695858888,3,0,-5,8,22,51,-15,-29,39
1491695858935,0,-13,-14,10,16,-89,-25,7,-38
1491695858935,0,10,26,61,43,59,-7,0,-10
1491695858936,1,10,12,-1,-32,76,58,6,49
1491695858936,1,-3,-16,-67,-16,-81,-9,-1,-19
1491695858936,3,7,23,72,75,101,14,24,53
1491695858936,3,-5,-22,-88,-113,-98,27,-21,-58
1491695858937,0,-5,-1,-22,-15,28,-22,-5,12
1491695858937,0,-13,3,53,63,47,-38,-25,-23
1491695858984,1,14,-6,-48,-65,-51,33,10,41
1491695858984,1,-5,2,54,77,23,-37,4,25
1491695858985,2,-1,12,33,43,17,19,1,-15
1491695858985,2,2,4,-54,-21,15,-3,-13,-52
1491695858985,0,4,3,-63,-102,11,-22,2,-20
1491695858985,0,-1,2,54,106,14,-17,-4,9
1491695858986,1,-2,1,73,43,-87,-12,-15,-29
1491695858986,1,6,0,-29,-46,-11,34,6,1
1491695859032,2,-14,-1,-39,-56,50,-26,-16,-31
1491695859032,2,3,-13,-14,-119,-90,58,5,41
1491695859033,3,-11,-19,-72,-6,30,-13,-1,-20
1491695859033,3,-4,11,91,90,64,-10,-4,-21
1491695859034,0,13,21,26,71,-14,11,5,17
1491695859034,0,4,-9,-47,-22,-104,-44,-9,48
1491695859034,1,-8,1,4,-45,41,-54,-10,-15
1491695859034,1,2,15,3,-6,63,62,1,-35
1491695859081,2,0,-20,15,92,-51,3,0,13
1491695859081,2,2,-1,6,-14,3,1,0,-46
1491695859083,3,1,1,6,28,1,54,31,13
1491695859083,3,-9,-1,-31,-80,-19,-45,-19,-7
1491695859084,1,-6,-10,6,-17,-30,7,6,-12
1491695859084,1,-4,-11,5,-69,-36,-8,-6,10
1491695859085,2,2,0,-6,7,67,12,-7,12
1491695859085,2,-11,1,21,62,-70,-39,-8,-18
1491695859130,3,-2,-7,1,4,-14,-25,-14,5
1491695859130,3,-5,-1,-2,27,0,-2,12,-6
1491695859132,0,1,-1,-44,-102,8,-41,-5,-2
1491695859132,0,0,4,30,33,63,-3,1,28
1491695859133,2,4,11,40,23,20,-56,-10,-24
1491695859133,2,-4,-14,-29,-17,-39,92,22,0
1491695859134,3,-5,7,-23,-23,75,23,-7,-3
1491695859134,3,-1,-3,-1,6,-18,-60,-10,12
1491695859178,0,-3,21,114,111,27,-30,6,-20
1491695859178,0,6,-9,-76,-53,52,52,47,23
1491695859179,1,-8,-26,61,-65,9,19,-34,-9
1491695859179,1,5,4,-26,-4,-48,22,13,10
1491695859180,3,-3,9,26,4,75,-28,-7,-11
1491695859180,3,2,-5,-33,20,-35,-12,-3,5
1491695859181,0,-5,-14,-41,-34,-32,14,-1,4
1491695859181,0,-6,6,42,14,41,-31,-21,-38
1491695859227,1,-2,-10,-81,-4,-33,-51,-5,-6
1491695859227,1,8,13,45,-23,17,106,10,-17
1491695859228,2,-4,-2,-20,23,-35,23,17,24
1491695859228,2,-2,-11,-60,-88,-3,-30,-17,-24
1491695859229,0,7,-12,-61,-16,52,6,-2,30
1491695859229,0,-7,-7,30,-43,-3,68,3,-28
1491695859230,1,1,1,-67,-53,-29,-51,-11,-5
1491695859230,1,-8,-7,-3,26,11,-15,9,18
1491695859276,2,2,7,32,49,-15,-22,5,-11
1491695859276,2,16,9,-7,-25,-8,53,9,71
1491695859277,3,2,7,18,63,60,11,-1,3
1491695859277,3,0,-2,1,10,7,14,-13,-23
1491695859278,1,12,21,-31,-45,-3,-6,-13,-6
1491695859278,1,9,4,-53,-61,-65,25,-2,36
1491695859279,2,-4,-5,92,68,44,-5,-18,-51
1491695859279,2,-9,-8,27,-77,-35,-77,10,37
1491695859325,3,-16,-18,-33,-73,-17,101,12,-36
1491695859325,3,9,11,9,51,127,2,10,-14
1491695859326,0,5,-3,-45,-55,-125,17,2,21
1491695859326,0,-7,6,2,94,76,-31,-35,-18
1491695859327,2,-1,-7,-14,-52,-118,-15,-13,-27
1491695859327,2,2,15,113,117,58,43,-4,-9
1491695859328,3,-6,-14,-66,-57,30,-111,-4,-7
1491695859328,3,-5,-19,-28,48,-40,91,-11,25
1491695859422,0,-2,7,1,-18,-5,2,3,-21
1491695859422,0,-10,-6,-26,-66,-44,-32,7,6
1491695859424,1,-3,14,89,42,70,2,-2,-37
1491695859424,1,-1,-8,-36,14,-52,-84,12,18
1491695859425,3,-3,-2,-9,-41,-90,12,-3,41
1491695859425,3,-6,-7,-5,21,42,18,-17,-42
1491695859431,0,3,-8,25,26,36,-44,13,22
1491695859431,0,-3,9,-29,-51,-56,62,8,-5
1491695859471,1,1,6,12,25,-15,-26,-9,-50
1491695859471,1,-11,-11,3,28,-13,12,-9,11
1491695859472,2,-7,-9,-27,-50,-31,-28,-9,1
1491695859472,2,1,8,24,40,16,35,3,-25
1491695859473,3,-2,-5,28,19,-25,-80,-24,7
1491695859473,3,1,14,-19,-15,35,66,18,-22
1491695859475,0,-1,1,-3,-20,-30,74,17,-44
1491695859475,0,0,-4,-23,31,78,-18,-23,2
1491695859520,1,2,0,6,18,-49,-2,30,17
1491695859520,1,-7,-3,2,-68,-52,24,-11,-44
1491695859521,2,-17,-14,-37,39,-10,-11,2,-4
1491695859521,2,5,0,13,14,33,25,9,-10
1491695859522,1,5,-8,31,5,-35,27,-1,2
1491695859522,1,-2,-2,-16,-14,18,-59,0,9
1491695859523,2,1,11,-3,24,9,25,-4,-20
1491695859523,2,2,4,5,-2,-53,-16,12,1
1491695859568,3,2,-3,-73,-28,-64,27,-16,-12
1491695859568,3,-5,-12,22,31,53,56,2,21
1491695859570,0,-4,7,-4,-81,-6,4,5,-10
1491695859570,0,6,3,5,42,123,-49,-9,-5
1491695859571,2,5,10,6,41,0,35,1,17
1491695859571,2,-12,-17,-16,-24,1,-67,-12,-24
1491695859572,3,-10,-10,23,20,-40,-13,-28,6
1491695859572,3,3,19,34,21,46,5,-5,-34
1491695859617,0,-4,-26,-30,-54,-42,-49,-1,35
1491695859617,0,4,2,-7,25,32,32,21,16
1491695859618,1,-7,-11,-23,-37,35,37,-13,-28
1491695859618,1,13,25,72,-27,-58,-73,-6,-9
1491695859620,3,15,-17,-9,4,-70,-16,-7,34
1491695859620,3,-9,-8,24,25,64,74,17,-36
1491695859621,0,4,5,43,26,-21,-47,-16,3
1491695859621,0,2,19,-5,8,-53,79,29,-5
1491695859666,1,5,14,51,51,65,-9,17,-26
1491695859666,1,-5,-20,-88,-101,-15,17,11,2
1491695859667,2,-3,-10,34,-16,-12,-47,-8,-24
1491695859667,2,-4,-2,-33,-35,-72,-53,-41,11
1491695859669,0,-10,-1,28,76,27,-63,-8,-8
1491695859669,0,5,-11,-18,-104,-54,47,-5,23
1491695859670,1,-3,5,-82,-3,18,-25,39,25
1491695859670,1,-6,-8,-10,-26,-25,-2,-44,-56
1491695859715,2,-5,11,15,28,23,15,22,15
1491695859715,2,1,-5,61,55,17,-19,-6,-22
1491695859717,3,6,-5,5,24,19,40,12,60
1491695859717,3,2,14,11,-25,69,-22,12,-16
1491695859718,1,-1,-6,-8,-21,10,-54,-7,-11
1491695859718,1,3,26,46,69,22,-33,-5,34
1491695859719,2,1,-6,-13,-66,6,32,-2,-8
1491695859719,2,12,6,-8,22,-3,-49,8,24
1491695859764,3,-23,-17,-34,-2,31,65,-18,-58
1491695859764,3,-6,-16,39,19,-14,-13,-8,11
1491695859766,0,-6,-18,-18,-63,-65,-39,-21,-33
1491695859766,0,-11,-2,-22,9,15,110,52,29
1491695859767,1,12,10,-5,-51,35,9,-9,-18
1491695859767,1,-1,-5,7,90,16,-46,-7,24
1491695859768,2,5,3,34,-8,-68,12,8,-7
1491695859768,2,-5,0,-21,-30,-13,-63,-34,-45
1491695859812,3,2,18,31,30,5,12,-1,22
1491695859812,3,-4,-19,-19,5,52,36,9,-2
1491695859813,0,8,22,52,42,33,18,0,3
1491695859813,0,-7,-7,-76,-42,-17,-30,10,36
1491695859814,2,-10,5,92,17,28,12,7,14
1491695859814,2,6,14,-42,-67,77,0,0,3
1491695859815,3,4,-11,16,33,-30,-30,-5,7
1491695859815,3,-15,-20,-28,-58,-29,6,-19,-35
1491695859861,0,1,-16,-40,-2,-6,-43,11,60
1491695859861,0,-3,38,54,27,35,89,21,-29
1491695859862,1,-4,-13,-15,-35,-45,-39,-12,12
1491695859862,1,-2,0,26,52,8,-51,9,19
1491695859863,3,22,58,-28,14,78,-14,5,-18
1491695859863,3,1,-25,-56,-109,-71,101,18,11
1491695859863,0,6,25,61,100,15,-73,-27,7
1491695859863,0,-21,-18,-53,-110,7,-51,-22,-17
1491695859910,1,-31,-31,20,-24,-123,-15,-1,-52
1491695859910,1,11,43,-1,64,89,45,16,-1
1491695859911,2,10,14,-25,-6,127,-17,2,8
1491695859911,2,-9,-6,127,127,-104,75,12,-46
1491695859912,0,-26,-42,-33,-42,-35,7,-16,-11
1491695859912,0,34,62,124,108,127,-74,43,22
1491695859914,1,15,14,-77,-26,21,101,7,48
1491695859914,1,-8,-3,-49,-106,-84,-63,-23,-54
1491695859958,2,-7,-3,-7,-17,-28,84,15,0
1491695859958,2,-12,-48,-45,-40,40,-35,-39,-41
1491695859959,3,7,74,124,92,110,-41,28,27
1491695859959,3,6,3,20,43,-76,-46,-19,-51
1491695859960,1,-19,-19,47,59,34,-114,-28,-27
1491695859960,1,0,7,2,-14,127,101,30,20
1491695859962,2,-6,3,82,85,-84,37,31,-70
1491695859962,2,25,-6,-49,-128,26,50,23,46
1491695860007,3,-34,-10,-21,-72,-96,-73,-87,-47
1491695860007,3,23,-35,-55,47,8,-32,-5,68
1491695860009,0,-13,35,36,39,-62,-30,-41,-71
1491695860009,0,-5,12,-88,-5,88,34,26,-13
1491695860010,2,-11,-78,-96,-110,-80,-106,-54,-9
1491695860010,2,3,15,19,35,72,-28,-11,-8
1491695860020,3,-21,-11,39,75,71,-11,-41,-16
1491695860020,3,24,25,-10,60,127,83,63,55
1491695860056,0,22,13,41,-32,33,109,53,61
1491695860056,0,3,-15,-37,-104,-105,-105,-18,-17
1491695860060,1,-9,-59,29,33,-8,-25,4,-46
1491695860060,1,11,69,50,21,4,-5,-28,-47
1491695860064,3,-26,-37,-62,-87,-109,7,1,-54
1491695860064,3,-30,-18,38,-99,26,-4,4,52
1491695860066,0,38,63,-32,22,96,-68,-10,-42
1491695860066,0,12,18,23,-76,-23,-49,-20,29
1491695860107,1,-1,-47,-105,110,3,97,39,26
1491695860107,1,-19,-48,7,-72,-54,-30,2,28
1491695860109,2,-14,-14,-58,35,127,21,-39,-38
1491695860109,2,7,21,34,39,-45,-80,7,-44
1491695860120,3,33,60,16,-87,114,46,33,-25
1491695860120,3,-3,-36,-116,-23,-128,-34,-12,20
1491695860123,0,-2,36,122,-5,-88,-29,1,68
1491695860123,0,-10,-20,3,119,13,-68,4,-15
1491695860154,1,22,10,17,-42,40,95,10,65
1491695860154,1,15,14,40,103,2,-5,-24,-34
1491695860156,2,-64,-110,-32,-125,-82,-128,34,6
1491695860156,2,-8,13,17,60,87,-38,-69,-39
1491695860157,0,25,20,-23,-42,-101,-24,32,-29
1491695860157,0,-58,-94,-121,-128,45,1,-54,-12
1491695860158,1,-14,-50,-16,16,42,-45,16,-19
1491695860158,1,12,31,104,111,87,21,-32,-54
1491695860203,2,51,87,69,127,63,-44,4,57
1491695860203,2,36,0,-51,-55,-57,124,71,-11
1491695860203,3,-44,-60,-82,-81,-107,-96,-39,13
1491695860203,3,-17,2,62,85,10,-43,-6,-7
1491695860204,1,1,24,97,108,-11,-35,41,65
1491695860204,1,-7,5,1,-5,72,-128,-82,-30
1491695860205,2,13,-13,1,-32,36,35,26,24
1491695860205,2,-11,-20,-73,-27,57,105,53,-32
1491695860251,3,18,9,66,55,57,-106,6,13
1491695860251,3,9,-15,-92,-100,-128,-4,49,-28
1491695860251,0,11,58,78,123,56,73,-46,-36
1491695860251,0,-25,-45,-12,-128,-68,25,7,9
1491695860252,2,8,65,14,67,-75,61,20,-44
1491695860252,2,21,-9,-3,6,97,60,24,57
1491695860253,3,14,50,-30,-57,-38,29,24,-5
1491695860253,3,-43,-128,-128,-128,-128,-105,-52,-37
1491695860300,0,9,11,31,3,72,65,-2,75
1491695860300,0,6,60,127,127,121,70,-19,-48
1491695860301,1,41,43,-79,-96,-73,-57,9,50
1491695860301,1,-44,-93,50,32,-70,127,9,-42
1491695860348,3,22,35,106,119,-6,45,9,-39
1491695860348,3,18,111,36,127,74,91,9,-2
1491695860350,0,4,-59,-102,-90,8,-37,0,-67
1491695860350,0,-30,-69,-95,-9,-50,-128,-44,11
1491695860354,1,9,38,90,49,127,127,15,52
1491695860354,1,17,-9,48,78,-59,-30,-6,-2
1491695860355,2,19,84,113,82,127,109,22,28
1491695860355,2,-14,-19,-112,-25,-127,-37,-7,-93
1491695860397,0,5,-28,18,-61,78,73,-15,-26
1491695860397,0,-11,7,-19,91,1,51,28,1
1491695860398,1,-10,-22,-108,-67,-7,-68,-33,44
1491695860398,1,-6,-17,37,-128,60,60,11,10
1491695860400,2,-14,44,30,45,29,-33,-8,-74
1491695860400,2,0,15,13,41,96,36,-10,9
1491695860401,1,13,25,62,23,117,94,3,8
1491695860401,1,-1,-7,-101,-86,-128,-128,9,-56
1491695860448,2,-77,-115,-53,-96,127,-53,-56,20
1491695860448,2,8,82,126,124,50,12,-24,0
1491695860449,3,-18,25,5,-21,78,35,-2,-8
1491695860449,3,20,28,35,60,53,31,37,43
1491695860450,1,16,21,5,-81,42,-9,2,-7
1491695860450,1,17,9,99,-17,60,41,10,45
1491695860451,2,-5,54,-13,-121,-53,-35,9,-16
1491695860451,2,29,51,-47,-23,127,-31,-14,1
1491695860495,3,-16,-36,-26,67,-128,-47,-21,-12
1491695860495,3,-8,-82,-13,-65,95,98,7,-49
1491695860496,0,1,-51,-29,-68,36,-41,-26,20
1491695860496,0,19,109,67,48,96,95,24,5
1491695860497,2,12,49,69,46,-90,26,19,72
1491695860497,2,-1,-27,120,64,12,-26,13,-38
1491695860498,3,6,49,-128,-15,0,-10,-19,23
1491695860498,3,-6,-40,-52,-30,-53,-13,10,-14
1491695860543,0,-18,-18,13,39,27,-28,5,15
1491695860543,0,-11,-55,29,-41,-14,61,-27,25
1491695860545,1,-1,50,57,2,12,-46,23,19
1491695860545,1,28,46,-15,40,127,54,13,56
1491695860546,3,-31,-47,59,-107,-18,33,-33,-59
1491695860546,3,-14,-32,27,18,13,-24,-2,76
1491695860547,0,12,86,5,23,60,-24,-11,-43
1491695860547,0,12,11,127,-8,26,33,21,9
1491695860592,1,-7,48,-115,23,6,6,-11,3
1491695860592,1,9,27,27,61,-19,23,-15,-49
1491695860595,2,1,-36,-32,2,-35,52,-5,60
1491695860595,2,29,49,-13,-43,26,-9,32,-40
1491695860596,0,-66,-116,-101,-4,81,-27,-19,-1
1491695860596,0,5,2,-116,-128,-13,-20,-6,5
1491695860598,1,-9,-98,22,15,41,-73,14,16
1491695860598,1,-5,118,46,105,72,15,-20,-34
1491695860641,2,34,15,127,126,72,98,33,-7
1491695860641,2,-48,-39,-109,-115,-128,-89,-8,-6
1491695860643,3,13,-5,37,-44,-37,7,-16,-62
1491695860643,3,-6,-83,52,68,35,-1,20,-8
1491695860644,1,-29,-90,-42,10,19,23,-38,-12
1491695860644,1,-39,-68,22,-2,-64,7,7,-20
1491695860645,2,22,72,-83,21,90,41,10,-20
1491695860645,2,1,-33,33,-9,-88,-62,-18,50
1491695860690,3,4,10,-36,-33,35,22,18,40
1491695860690,3,11,-37,-41,4,-9,-14,-11,11
1491695860692,0,1,-11,-46,-14,59,44,6,-36
1491695860692,0,15,99,-25,20,111,-11,-2,31
1491695860693,2,0,41,-23,-64,-115,-119,-24,-1
1491695860693,2,28,-106,-19,2,-22,83,16,52
1491695860694,3,-30,64,30,7,69,63,10,-6
1491695860694,3,66,29,21,35,112,39,17,14
1491695860739,0,-8,-13,-64,-82,-106,0,-24,-47
1491695860739,0,16,29,68,5,-31,-56,-13,-40
1491695860741,1,-19,-1,-6,-7,-71,-5,-33,-23
1491695860741,1,-16,2,-54,-26,4,-22,29,41
1491695860742,3,21,64,72,69,115,70,41,33
1491695860742,3,10,50,14,-25,-109,-104,-5,-27
1491695860743,0,-5,-18,-22,-39,29,26,-40,25
1491695860743,0,-57,-125,-102,-72,-91,-62,-18,-53
1491695860787,1,19,65,-56,-42,29,5,10,46
1491695860787,1,-9,-33,22,7,29,5,0,-6
1491695860789,2,8,1,87,55,60,25,20,43
1491695860789,2,-10,10,58,57,-1,-6,-15,-15
1491695860791,0,-6,-30,-93,-90,-11,-10,22,-11
1491695860791,0,-4,-11,-8,-30,39,29,-12,16
1491695860792,1,28,19,31,99,71,-20,29,-34
1491695860792,1,-7,29,-40,-57,-128,-24,-23,7
1491695860836,2,-23,-62,-54,45,68,-1,-45,-78
1491695860836,2,7,14,41,-51,120,53,32,81
1491695860844,3,0,35,1,19,-67,-65,-15,-12
1491695860844,3,-32,-32,-53,32,30,-4,-7,-38
1491695860845,0,15,-25,-26,-25,-128,30,16,31
1491695860845,0,9,31,77,51,-45,-29,-19,-35
1491695860846,1,-16,-33,13,57,111,-31,10,17
1491695860846,1,14,53,69,-45,7,52,-3,-36
1491695860885,2,3,2,-34,-100,-128,-99,-25,39
1491695860885,2,-19,-17,-57,66,-35,70,19,-7
1491695860886,3,-14,-58,-3,-33,19,74,-11,4
1491695860886,3,-4,25,35,49,20,11,1,-9
1491695860888,1,-6,-43,15,-13,27,42,-3,-12
1491695860888,1,-26,27,-41,-54,63,-12,-12,-8
1491695860889,2,-11,-10,19,-38,15,-11,6,5
1491695860889,2,19,47,29,110,127,75,-4,-36
1491695860934,3,-6,3,-82,-93,-128,-66,-4,-8
1491695860934,3,22,-55,-49,-106,-99,-32,9,28
1491695860937,0,-17,-6,5,-12,53,20,-6,-3
1491695860937,0,17,13,48,19,30,-1,12,7
1491695860938,2,9,-20,-5,27,-110,-17,5,4
1491695860938,2,-13,8,14,60,113,0,-7,-23
1491695860939,3,-4,-13,-26,-92,-61,26,11,-33
1491695860939,3,14,-1,-13,-15,35,16,0,10
1491695860982,0,7,25,20,38,49,55,21,15
1491695860982,0,-5,-1,21,-20,10,-59,-17,-24
1491695860985,1,-19,-40,7,-47,-59,-19,-10,21
1491695860985,1,4,-13,-5,12,55,21,11,4
1491695860986,3,13,-12,-14,13,-29,17,-16,68
1491695860986,3,6,41,86,57,-81,69,15,20
1491695860988,0,-17,-14,-33,57,10,-13,5,-30
1491695860988,0,-12,-62,5,-61,0,43,14,21
1491695861031,1,6,14,-7,0,127,-19,12,-12
1491695861031,1,-24,35,-2,-32,-37,25,-52,-80
1491695861032,2,37,14,68,37,-6,-36,-4,29
1491695861032,2,-12,-21,-20,-18,80,2,-12,-13
1491695861033,0,-13,2,36,-23,82,25,-17,-60
1491695861033,0,-22,-34,-53,54,-42,13,3,3
1491695861034,1,12,32,53,-61,-58,-22,3,-17
1491695861034,1,5,14,-86,23,-51,-95,-33,-27
1491695861079,2,-8,4,73,61,-17,-13,7,84
1491695861079,2,28,26,57,-34,107,100,36,20
1491695861081,3,-5,24,-1,-27,79,25,-1,-34
1491695861081,3,-24,-96,-55,10,-100,-102,-22,45
1491695861081,1,7,-8,-97,-38,-2,-5,28,23
1491695861081,1,-12,-8,91,7,123,47,9,-61
1491695861082,2,11,-55,-100,-2,-7,-24,-4,23
1491695861082,2,-5,21,35,-11,-43,-9,-4,45
1491695861128,3,19,38,58,25,1,-30,-11,-24
1491695861128,3,0,-11,-35,-62,-2,26,-8,-5
1491695861129,0,-1,-7,23,16,26,-62,12,-2
1491695861129,0,-13,-9,-3,-6,-113,21,14,-7
1491695861131,2,2,-14,4,34,-65,-103,-21,-16
1491695861131,2,-4,18,-122,-48,44,3,-3,-27
1491695861136,3,12,-30,127,127,48,-42,-13,30
1491695861136,3,-9,6,-111,-106,102,-34,12,-54
1491695861177,0,-2,17,50,-76,-118,99,0,45
1491695861177,0,-19,-57,-71,30,62,-46,-13,-3
1491695861178,1,7,22,42,73,34,100,31,-19
1491695861178,1,19,22,-27,-92,-43,-50,-22,3
1491695861179,2,-10,-4,-34,52,-10,-54,8,33
1491695861179,2,9,-40,-49,-110,111,96,-3,6
1491695861180,3,-13,-15,23,-65,-128,-91,-25,-30
1491695861180,3,-6,1,62,84,42,18,-10,7
1491695861226,0,11,36,110,81,51,-19,9,-37
1491695861226,0,-16,11,25,31,-11,20,-9,46
1491695861227,1,6,-19,19,-18,80,64,16,34
1491695861227,1,16,-15,-32,23,1,15,42,-8
1491695861227,3,-10,13,32,-41,-98,28,-3,-16
1491695861227,3,11,12,60,127,-34,20,32,12
1491695861228,0,-11,-31,17,-79,105,-7,-6,31
1491695861228,0,-22,-26,-76,-99,-128,-128,-35,2
1491695861274,1,-22,-28,-107,-109,64,79,-1,-74
1491695861274,1,-14,20,-7,10,55,8,10,32
1491695861276,2,18,-10,15,13,-60,67,27,34
1491695861276,2,-4,5,100,85,9,-16,-10,-50
1491695861276,0,4,-26,64,98,7,23,11,-48
1491695861276,0,-10,3,20,67,-46,-37,23,-12
1491695861277,1,3,-9,-51,89,36,38,-11,46
1491695861277,1,-3,31,19,-52,103,-13,-18,-34
1491695861323,2,-3,-30,-8,-117,-91,-34,-10,31
1491695861323,2,19,18,37,0,127,127,30,-4
1491695861325,3,-7,18,-44,-9,-10,-87,-42,-5
1491695861325,3,-1,0,76,100,83,51,22,-16
1491695861325,1,-16,-30,127,38,-42,-26,2,-21
1491695861325,1,-10,-2,-19,24,-80,-22,-14,-49
1491695861326,2,17,-14,-45,10,84,15,14,55
1491695861326,2,-6,24,-28,-40,-91,-5,-20,-50
1491695861372,3,11,24,78,92,19,83,12,10
1491695861372,3,-31,-58,-90,-79,-97,-109,-18,-40
1491695861373,0,-30,-4,-55,-88,-73,-30,-14,-30
1491695861373,0,15,0,24,90,17,105,1,0
1491695861376,2,-30,-15,-76,-27,-20,-43,-28,-63
1491695861376,2,17,-22,-40,11,59,-26,4,28
1491695861377,3,-14,-14,47,-110,-30,-27,0,-18
1491695861377,3,20,12,-101,-5,11,-46,5,13
1491695861421,0,-2,22,127,101,58,-42,-22,-19
1491695861421,0,13,50,-66,-20,46,58,22,10
1491695861422,1,-11,-54,38,17,-107,-101,-3,-30
1491695861422,1,8,-20,15,17,59,17,-7,2
1491695861423,3,2,9,25,71,119,35,-3,49
1491695861423,3,10,22,-46,7,22,127,36,59
1491695861424,0,9,60,10,9,-40,5,5,-62
1491695861424,0,-19,-13,106,99,74,1,-12,34
1491695861469,1,6,-11,-128,-108,-36,42,4,18
1491695861469,1,-1,20,127,53,114,42,-9,-96
1491695861471,2,-2,-57,-49,100,-39,-52,25,106
1491695861471,2,20,47,111,-64,-56,-128,-50,-38
1491695861472,0,-3,31,48,33,60,127,0,-31
1491695861472,0,6,-3,5,-62,41,-55,35,17
1491695861473,1,-15,4,31,127,-40,8,-27,-33
1491695861473,1,-30,-72,14,-94,-54,-52,-12,37
1491695861518,2,-2,-25,19,57,71,-6,-15,45
1491695861518,2,76,82,103,127,0,23,45,-2
1491695861520,3,6,-19,-128,-128,-40,32,18,-41
1491695861520,3,-16,-8,-24,-72,-20,29,11,61
1491695861521,0,-8,12,-63,1,40,2,3,-25
1491695861521,0,-59,-71,42,37,-12,-44,-48,-67
1491695861522,1,40,25,-9,78,111,-1,-7,107
1491695861522,1,7,28,80,-14,-117,9,12,-90
1491695861664,2,-18,-75,10,-6,127,34,1,75
1491695861664,2,12,57,-89,-41,-62,-3,3,-54
1491695861666,3,-14,44,9,-5,37,-112,-8,8
1491695861666,3,-9,-15,58,84,30,73,3,-30
1491695861666,1,-35,-31,-62,-4,-8,-55,-3,-24
1491695861666,1,14,-22,-15,-34,14,-61,-38,-6
1491695861668,2,16,59,23,-18,81,115,28,13
1491695861668,2,-33,-50,59,96,-79,-76,-4,10
1491695861714,3,-24,44,1,-13,36,-7,-17,-78
1491695861714,3,3,-12,-71,-32,-17,-26,-3,26
1491695861715,0,36,-4,42,70,18,42,-5,-10
1491695861715,0,10,-7,28,-4,-3,-5,-3,27
1491695861716,2,-22,-1,-11,-99,-42,-32,43,-16
1491695861716,2,3,26,-49,-32,30,30,-31,8
1491695861720,0,3,-20,98,-25,72,60,7,-50
1491695861720,0,5,27,-105,-107,-64,15,23,-6
1491695861762,1,-4,-23,65,63,49,-52,20,-26
1491695861762,1,-21,-32,-85,-82,-128,-84,-62,7
1491695861764,2,22,43,100,91,91,73,8,-2
1491695861764,2,7,-70,15,24,84,-11,-3,9
1491695861765,1,43,-24,62,52,-30,-40,33,2
1491695861765,1,-38,60,-83,-61,20,21,-27,-14
1491695861766,2,32,98,-56,-88,60,70,27,-21
1491695861766,2,17,-13,42,54,72,-103,-16,29
1491695861811,3,-18,-6,36,21,-68,-9,5,-54
1491695861811,3,2,-30,48,85,-118,15,4,47
1491695861813,0,4,-43,-108,-43,89,87,27,17
1491695861813,0,-21,15,-80,-48,47,2,-43,-82
1491695861814,2,-5,-13,33,59,-84,29,19,34
1491695861814,2,-36,-19,-51,-79,7,-29,-10,18
1491695861815,3,51,49,65,53,125,69,-3,33
1491695861815,3,19,-11,-126,-113,-20,-31,41,-69
1491695861860,0,-59,-82,127,-8,-77,-94,-55,-1
1491695861860,0,43,103,-15,87,57,98,38,49
1491695862055,1,-55,-54,-76,-13,13,-7,-36,-53
1491695862055,1,18,40,80,110,83,37,21,90
1491695862056,2,34,20,92,10,32,-76,6,17
1491695862056,2,-21,-37,-52,-109,32,-33,18,-19
1491695862057,3,-27,21,-21,22,-97,-41,-9,-71
1491695862057,3,51,49,31,-19,106,58,19,78
1491695862058,0,-32,10,86,52,86,8,-56,-60
1491695862058,0,19,-9,127,127,-128,-73,-29,14
1491695862104,1,-17,-73,-128,-128,106,97,24,-19
1491695862104,1,-1,-37,26,-101,-84,-87,11,23
1491695862105,3,-7,-31,-80,-95,-64,-17,10,-4
1491695862105,3,-32,37,-23,114,127,85,-19,-52
1491695862106,0,25,9,-121,-111,-78,-2,42,22
1491695862106,0,-46,-128,-93,56,-128,-126,-58,-46
1491695862107,3,8,73,88,-67,46,-22,-1,-24
1491695862107,3,-6,-19,-51,127,2,-84,4,-10
1491695862152,0,-8,-73,-7,-28,-34,39,3,68
1491695862152,0,11,32,-23,-65,61,-3,0,-34
1491695862154,1,14,30,89,61,97,99,6,11
1491695862154,1,26,49,81,61,36,66,48,-4
1491695862155,0,19,66,65,59,-119,45,26,-32
1491695862155,0,13,1,-98,25,-111,37,-13,54
1491695862156,1,4,-23,43,7,110,12,12,-2
1491695862156,1,1,-5,-18,-74,-48,18,4,-5
1491695862201,2,36,57,-89,-78,9,-17,2,-31
1491695862201,2,-45,-112,51,55,-41,18,-10,5
1491695862202,3,13,62,-73,-99,3,11,0,16
1491695862202,3,1,-56,41,60,-128,-128,-33,32
1491695862203,1,-6,-11,-47,-20,59,35,18,18
1491695862203,1,19,104,44,-128,1,1,18,-5
1491695862204,2,-27,-88,-128,-56,-73,-101,-23,-30
1491695862204,2,-14,38,112,-13,52,47,-12,-5
1491695862250,3,-4,-76,87,88,54,-48,-6,1
1491695862250,3,-1,-6,28,0,69,-1,-2,9
1491695862251,0,16,68,10,16,74,-22,8,31
1491695862251,0,14,15,44,52,59,7,14,7
1491695862252,1,35,41,-44,-35,-123,-71,-11,61
1491695862252,1,-4,-27,20,33,50,62,-6,-15
1491695862253,2,-25,-128,-40,59,13,31,25,-27
1491695862253,2,8,82,80,50,49,20,10,-2
1491695862298,3,-5,-37,-52,-77,-42,26,12,25
1491695862298,3,-12,15,-58,28,-1,-64,-19,-38
1491695862300,0,-15,-16,9,30,-126,-31,-22,20
1491695862300,0,-16,-46,6,51,-2,-70,12,-4
1491695862301,2,-9,9,-31,-128,-31,24,9,-37
1491695862301,2,18,61,30,-13,11,-36,-26,13
1491695862302,3,-40,-61,-36,10,-12,18,8,-20
1491695862302,3,17,48,-86,12,58,-22,18,85
1491695862347,0,22,52,41,37,16,115,39,-30
1491695862347,0,-11,-18,-70,-95,-97,-57,-19,27
1491695862348,1,-14,17,35,30,-14,-19,-13,-1
1491695862348,1,-5,13,-18,-11,34,19,-3,-80
1491695862349,3,8,52,36,12,37,24,14,-29
1491695862349,3,2,-2,13,10,-9,-27,17,4
1491695862350,0,-17,-106,-44,7,91,15,-25,-8
1491695862350,0,16,98,59,-20,-7,13,3,-13
1491695862396,1,-1,-49,-2,-2,-4,27,-4,-14
1491695862396,1,14,-100,-108,-58,-74,-124,-15,27
1491695862397,2,-30,103,88,-21,-11,-92,-8,27
1491695862397,2,-10,-100,-37,2,127,37,-10,-67
1491695862397,0,7,-3,13,-30,-22,-39,-15,75
1491695862397,0,1,49,-33,49,98,-14,17,-13
1491695862398,1,-3,-71,-50,-9,11,9,8,43
1491695862398,1,4,11,51,25,-30,25,-12,-63
1491695862444,2,-27,-74,-84,-51,-22,15,-1,-23
1491695862444,2,20,-10,30,27,-28,-3,14,40
1491695862445,3,6,102,-3,47,52,-43,-10,-70
1491695862445,3,-13,-21,-53,-81,-67,6,6,-1
1491695862446,1,-29,-37,-55,-50,35,6,11,10
1491695862446,1,21,7,36,-20,14,-41,12,47
1491695862493,2,20,30,-35,-30,21,-73,-24,-19
1491695862493,2,-12,-12,15,25,-47,10,1,-12
1491695862494,3,-1,6,1,36,-9,-7,2,-19
1491695862494,3,11,51,51,82,69,28,-2,-18
1491695862495,0,13,-46,-30,-98,-47,-97,-2,18
1491695862495,0,-12,-60,-81,-34,80,19,12,-47
1491695862495,2,17,36,65,96,72,54,12,-39
1491695862495,2,-5,-10,-53,-36,-15,17,17,-7
1491695862542,3,-8,-32,19,-9,-24,-25,-1,-4
1491695862542,3,-10,-6,-39,-43,-15,27,2,9
1491695862544,0,9,34,80,113,54,64,1,7
1491695862544,0,-12,-57,-66,-57,-24,-17,-8,22
1491695862545,1,-21,18,-31,-51,-105,-76,1,-38
1491695862545,1,6,4,34,23,-97,-38,-26,6
1491695862546,3,18,-63,20,-26,10,6,-5,-2
1491695862546,3,-19,19,-99,-18,-55,-5,-1,-54
1491695862591,0,-20,-30,-2,-13,8,-23,1,22
1491695862591,0,26,75,127,33,65,47,6,-5
1491695862593,1,-9,-24,-25,16,2,7,-7,29
1491695862593,1,-12,-5,-84,-90,5,12,16,-16
1491695862594,3,5,4,-1,15,4,-31,-5,-21
1491695862594,3,-6,1,54,-14,56,-3,30,30
1491695862596,0,24,-26,-29,43,74,-3,-1,12
1491695862596,0,-15,-6,-14,-36,-87,-27,-13,-27
1491695862640,1,1,3,-41,-48,0,-3,11,42
1491695862640,1,-5,-18,-21,-3,122,73,7,7
1491695862641,2,5,50,8,3,-78,-25,-9,-34
1491695862641,2,6,-4,9,62,2,-48,5,15
1491695862642,0,-23,-1,-29,-27,-60,-6,-8,-4
1491695862642,0,16,27,34,-11,127,53,15,5
1491695862644,1,5,-22,-18,43,-37,-78,9,7
1491695862644,1,2,-1,-1,66,-13,11,-8,21
1491695862693,2,-17,-33,-18,-42,112,3,-16,-46
1491695862693,2,19,22,55,43,-71,-7,15,20
1491695862694,3,24,29,-25,-33,94,34,-6,-15
1491695862694,3,-3,-26,11,23,47,-20,-10,-3
1491695862695,1,-6,17,127,114,-31,116,3,-28
1491695862695,1,-2,-9,-20,-66,-14,-39,-31,13
1491695862697,2,-3,-2,-28,-22,-97,3,30,12
1491695862697,2,-9,-47,73,-8,44,-29,2,-25
1491695862738,3,1,45,-87,62,-42,-63,-8,-24
1491695862738,3,-5,-19,33,-20,92,90,-4,-5
1491695862739,0,-2,7,89,35,-43,-58,-9,-8
1491695862739,0,-20,-4,-128,-21,3,24,-10,-34
1491695862740,2,7,16,-10,-45,-12,63,29,51
1491695862740,2,6,37,83,65,74,-49,-28,36
1491695862741,3,-15,-65,-38,-59,113,-7,-2,-53
1491695862741,3,-6,50,38,51,-23,-27,16,-25
1491695862786,0,14,-59,-64,-79,17,-6,-11,11
1491695862786,0,-9,12,-20,-6,-45,-6,7,27
1491695862787,1,-12,-26,9,28,41,81,-20,-11
1491695862787,1,12,46,26,-6,90,-49,19,6
1491695862788,3,15,3,-5,83,-90,-42,28,95
1491695862788,3,31,-18,51,64,50,39,-10,35
1491695862789,0,-22,22,11,-67,61,-26,0,23
1491695862789,0,14,-58,-108,-67,-31,-13,-32,-68
1491695862834,1,-10,21,48,-36,-23,-17,43,-19
1491695862834,1,-13,10,41,27,-128,-16,-25,-63
1491695862835,2,7,32,-73,-4,75,49,27,48
1491695862835,2,-4,-48,7,-36,-25,101,26,-4
1491695862836,0,1,-10,0,-74,-69,-48,-1,-19
1491695862836,0,2,-27,-4,51,83,35,8,14
1491695862837,1,-19,18,-1,-4,-8,49,-11,20
1491695862837,1,3,-31,-119,-92,53,47,6,-41
1491695862883,2,-8,9,65,59,-72,-61,-28,17
1491695862883,2,-33,-60,-12,-41,73,76,-10,-46
1491695862932,3,8,-33,-36,-58,-103,-113,13,45
1491695862932,3,29,59,52,24,111,88,-11,34
1491695862981,1,-7,6,19,19,30,-54,-14,-103
1491695862981,1,-32,-34,73,-79,-32,21,0,54
1491695862981,2,10,-10,-68,53,94,5,-12,-71
1491695862981,2,22,48,77,66,-46,-65,1,77
1491695862982,3,-9,-6,-47,-57,127,37,-12,-69
1491695862982,3,3,-3,-27,47,-61,-62,8,35
1491695862983,0,15,-11,41,-20,-53,40,11,-26
1491695862983,0,-10,-11,80,4,41,-32,-3,66
1491695863030,1,3,18,-59,-85,109,49,13,-7
1491695863030,1,15,0,46,117,-128,-9,-6,48
1491695863031,2,-22,-22,-62,-111,58,-24,-47,-52
1491695863031,2,-11,-14,24,46,42,49,12,3
1491695863032,2,6,-9,116,27,-95,56,37,12
1491695863032,2,-17,-18,-61,-78,41,-53,-8,10
1491695863033,3,-5,8,-1,5,-54,-62,13,-4
1491695863033,3,-34,15,-34,-76,-29,-38,-37,-82
1491695863078,0,26,-3,61,38,29,103,1,58
1491695863078,0,-2,5,16,70,-6,-91,0,-15
1491695863082,1,21,23,-128,-120,-68,53,3,60
1491695863082,1,-13,-74,127,90,-6,-117,-7,-17
1491695863083,0,-14,-45,-15,-85,-35,-77,-9,28
1491695863083,0,1,5,72,46,2,34,-20,-45
1491695863084,1,-11,-1,10,78,54,-6,-8,28
1491695863084,1,3,-6,50,16,16,21,-6,-58
1491695863127,2,0,7,20,50,112,23,-2,-56
1491695863127,2,9,20,-13,43,-8,-10,6,3
1491695863128,3,-7,-8,-10,-13,10,21,-9,61
1491695863128,3,4,38,30,0,96,-62,-5,-16
1491695863129,1,-6,-32,-30,16,-9,66,-5,-87
1491695863129,1,-13,-21,56,59,-31,39,8,16
1491695863130,2,-1,45,-7,-13,127,12,26,32
1491695863130,2,0,27,25,82,18,33,-10,38
1491695863176,3,5,-43,-16,-30,-84,-73,-18,-28
1491695863176,3,10,31,77,-21,18,22,-7,7
1491695863177,0,0,-8,-16,12,-28,-89,2,-10
1491695863177,0,-8,-58,-55,-24,71,-2,-5,41
1491695863178,2,18,45,63,16,23,41,31,69
1491695863178,2,0,36,79,79,44,59,-45,-88
1491695863179,3,-12,-48,-50,-60,3,77,22,-55
1491695863179,3,13,-15,-80,-79,94,-101,-23,27
1491695863225,0,-14,25,44,75,83,88,36,-28
1491695863225,0,11,9,0,30,91,81,34,40
1491695863226,1,1,17,98,101,4,-80,-4,-20
1491695863226,1,-20,-1,-128,-119,-120,41,-10,-33
1491695863227,3,14,33,30,25,-14,22,-18,-5
1491695863227,3,4,18,-9,-39,66,47,31,-34
1491695863228,0,-6,-36,18,96,-47,-86,-29,12
1491695863228,0,-11,32,-41,-75,-127,-31,-20,-48
1491695863273,1,6,-67,-21,-14,22,-39,7,39
1491695863273,1,-5,52,11,35,21,47,8,5
1491695863275,2,15,12,52,21,79,88,23,0
1491695863275,2,-10,-48,86,39,70,47,17,-9
1491695863276,3,5,41,-71,32,-116,9,-21,5
1491695863276,3,-9,-38,2,-81,41,16,-21,50
1491695863277,0,-7,-9,7,-1,26,-47,8,-41
1491695863277,0,0,21,50,70,52,-27,17,28
1491695863322,1,6,21,-38,-37,62,53,30,34
1491695863322,1,-5,-13,-31,11,-38,-47,-2,-42
1491695863323,2,-9,31,10,-19,-45,9,-38,-17
1491695863323,2,14,12,-22,-29,8,26,17,22
1491695863325,0,22,8,19,91,46,63,-4,32
1491695863325,0,-30,-58,-72,-81,-78,-128,-19,-55
1491695863371,1,23,59,-1,-3,101,73,23,86
1491695863371,1,-14,-22,87,48,10,120,-1,-48
1491695863372,2,-5,38,103,127,60,-86,-17,-29
1491695863372,2,-12,-65,-110,-113,-49,-11,-13,26
1491695863373,3,-13,-21,-38,-115,-59,-40,-22,14
1491695863373,3,-6,-18,2,68,29,-54,18,24
1491695863374,1,5,24,75,29,-64,-71,-1,-29
1491695863374,1,26,-15,-22,-67,41,-28,24,13
1491695863420,2,-26,-34,-107,-128,-128,-42,-11,21
1491695863420,2,-11,23,12,51,82,-1,12,-49
1491695863421,3,-29,-93,61,26,112,14,-24,-44
1491695863421,3,8,61,89,86,32,82,-3,-14
1491695863423,0,8,-13,-92,-84,-34,-43,25,102
1491695863423,0,5,14,-11,-44,-15,-34,-21,-21
1491695863424,2,-17,-6,2,14,108,8,-9,-66
1491695863424,2,46,83,9,-3,-90,-20,-15,25
1491695863469,3,-15,-36,6,-37,-56,-16,5,25
1491695863469,3,-12,-28,-128,-96,41,14,-13,-4
1491695863470,0,-6,-38,100,104,12,8,7,11
1491695863470,0,-6,5,-41,4,87,-17,-9,-18
1491695863471,3,-10,-30,-91,-119,-73,-113,16,-10
1491695863471,3,-6,30,67,37,84,0,-30,-5
1491695863473,0,-10,-39,51,28,91,-43,-1,-54
1491695863473,0,53,63,73,-65,-75,107,18,113
1491695863566,1,-1,6,-37,126,75,56,15,-38
1491695863566,1,-21,-51,-1,61,-125,-128,-51,25
1491695863568,2,-10,44,20,-9,-22,118,18,17
1491695863568,2,29,-7,8,-2,-12,45,32,3
1491695863569,0,-30,-36,-6,-21,59,9,-41,-42
1491695863569,0,-15,-16,2,-56,101,40,10,19
1491695863570,1,41,33,108,100,56,-46,-31,45
1491695863570,1,-23,-25,127,84,127,-88,11,30
1491695863615,2,2,-7,-128,-83,-128,65,21,34
1491695863615,2,-5,34,37,8,49,46,-17,-72
1491695863619,3,8,-26,-34,30,127,-78,-16,3
1491695863619,3,4,66,112,-3,8,19,23,-9
1491695863620,1,-31,-18,-128,-60,-122,-79,-19,23
1491695863620,1,22,-20,-78,-46,115,94,3,-49
1491695863620,2,-28,-60,30,53,30,-39,-58,-45
1491695863620,2,-23,-18,39,-57,-76,-43,-21,8
1491695863663,3,-8,-2,-30,20,-20,26,-17,-18
1491695863663,3,1,-11,-100,-22,-37,-64,7,29
1491695863664,0,26,49,65,73,23,52,35,-26
1491695863664,0,-26,-48,1,60,-25,-43,4,17
1491695863665,2,-19,-61,-90,-35,-42,-38,1,47
1491695863665,2,9,54,-128,-114,64,-18,-4,-15
1491695863666,3,-7,-51,-19,-95,-88,3,2,-29
1491695863666,3,7,22,11,66,-33,-20,16,58
1491695863761,0,-2,26,-38,-38,-15,5,-7,-40
1491695863761,0,22,26,98,122,104,49,34,16
1491695863762,1,-6,-1,16,5,18,-15,-16,24
1491695863762,1,9,-18,127,101,-11,-63,-2,2
1491695863763,3,12,19,-128,-56,-128,8,-4,-28
1491695863763,3,-12,-35,25,89,127,-10,-23,-10
1491695863765,0,17,76,117,51,65,-29,6,7
1491695863765,0,-3,-55,-114,78,111,6,-9,-45
1491695863810,1,-18,-57,37,-35,-66,-12,-7,43
1491695863810,1,8,-11,-36,-36,38,18,-15,-12
1491695863811,2,-4,44,98,61,-63,-6,0,-12
1491695863811,2,4,19,-68,6,42,-8,13,50
1491695863813,0,-7,-29,86,100,-47,-128,-35,-54
1491695863813,0,-6,23,61,10,-102,77,12,2
1491695863819,1,0,8,72,-1,126,119,19,16
1491695863819,1,-18,-15,97,87,-126,-44,-11,2
1491695863859,2,22,42,29,-7,65,-4,12,37
1491695863859,2,21,48,127,111,127,39,17,-23
1491695863860,3,-12,-71,-128,-71,-90,-47,-13,-21
1491695863860,3,-1,59,-34,-106,-34,-98,-23,-19
1491695863862,2,-48,-128,-128,-128,-128,-128,-79,23
1491695863862,2,6,114,127,127,127,3,-14,26
1491695863863,3,8,7,-26,-50,5,31,7,-14
1491695863863,3,-2,-13,24,25,46,109,10,3
1491695863908,0,25,16,-22,-15,44,87,31,-8
1491695863908,0,-14,-73,-103,-27,-80,-59,-5,-6
1491695863910,1,3,42,-28,-3,-10,-21,-7,-23
1491695863910,1,-4,-74,-128,-54,-30,-58,-28,12
1491695863911,3,10,12,-108,11,-98,-53,2,19
1491695863911,3,5,7,51,-128,118,-4,0,-8
1491695863912,0,-15,-4,-60,104,90,4,-18,-25
1491695863912,0,0,-33,62,86,-89,-100,-24,32
1491695863956,1,13,37,115,54,126,36,18,4
1491695863956,1,-25,-30,-56,-31,-101,-37,-17,43
1491695863960,2,30,31,-53,-128,112,-19,11,-59
1491695863960,2,-4,15,47,88,-122,118,6,-16
1491695863962,0,8,22,-80,-65,-3,-8,6,8
1491695863962,0,15,9,7,-45,109,-4,-1,-4
1491695863963,1,-5,-14,-62,12,-44,-48,-1,19
1491695863963,1,-13,18,47,66,20,52,-2,-61
1491695864054,2,7,33,-29,-12,-36,-52,14,40
1491695864054,2,-3,-42,-10,-42,25,57,0,-1
1491695864102,3,27,63,-42,-128,27,33,18,56
1491695864102,3,-37,-97,7,16,-65,-44,-19,-21
1491695864200,0,-16,-43,62,74,53,-88,-26,-1
1491695864200,0,-9,-5,-60,-112,-103,-14,4,12
1491695864201,1,9,24,67,59,33,28,-6,-8
1491695864201,1,9,54,22,38,61,-22,10,9
1491695864202,2,-6,-24,-32,31,-54,41,1,-9
1491695864202,2,8,33,97,69,90,16,13,21
1491695864203,3,3,-7,-76,-53,11,-63,-7,-20
1491695864203,3,-4,33,-10,56,-46,-13,-3,-18
1491695864248,2,-8,80,12,-32,18,-17,-18,-26
1491695864248,2,-20,-88,-82,-24,-50,-51,-13,-9
1491695864250,3,3,118,49,86,53,-60,3,22
1491695864250,3,17,17,27,12,48,2,13,-2
1491695864251,0,10,-71,12,-27,-80,-11,18,62
1491695864251,0,-4,-23,-82,-48,114,0,-34,-19
1491695864252,1,-9,29,11,-45,-86,-94,-10,-27
1491695864252,1,6,-23,-62,-30,58,8,-13,20
1491695864297,2,-4,-17,-8,-10,74,28,-3,1
1491695864297,2,-10,5,37,50,127,26,1,-56
1491695864298,3,3,16,59,82,-20,66,19,10
1491695864298,3,2,-11,20,-57,-79,-64,0,12
1491695864300,2,-8,1,67,122,-12,-85,16,-12
1491695864300,2,6,-3,-121,-109,-128,-75,-26,-7
1491695864301,3,2,-43,34,-12,30,-14,7,4
1491695864301,3,15,58,13,-18,64,-3,-15,-18
1491695864346,0,3,3,8,6,-43,81,31,22
1491695864346,0,-5,4,65,39,46,9,-16,-23
1491695864348,1,12,24,-31,19,36,15,2,36
1491695864348,1,5,-37,38,82,65,-6,9,-27
1491695864349,2,-11,5,28,-51,33,-75,-4,22
1491695864349,2,-4,-20,-70,-100,-100,30,-6,17
1491695864350,3,1,-30,-9,-34,46,63,-5,-64
1491695864350,3,9,20,73,-33,32,24,19,-3
1491695864395,0,-16,-18,-118,77,-74,-24,-18,-10
1491695864395,0,16,45,127,71,8,60,18,12
1491695864396,1,-10,-41,-119,-52,-17,-59,-16,-35
1491695864396,1,-8,-45,-40,-81,-88,67,3,-20
1491695864398,3,22,90,125,121,57,61,-7,-30
1491695864398,3,-14,-15,-67,-86,-106,-102,-26,5
1491695864399,0,16,28,-39,-37,127,93,0,-24
1491695864399,0,-19,-38,-14,108,6,-13,13,-17
1491695864444,1,-14,-32,-59,-70,-55,-45,-24,29
1491695864444,1,-14,8,-41,-49,16,8,0,3
1491695864445,2,-11,-23,-51,83,75,-68,-19,-5
1491695864445,2,-1,7,71,-37,41,85,3,-47
1491695864447,0,21,39,75,63,109,94,19,-39
1491695864447,0,10,10,-88,-89,-85,-126,-11,4
1491695864448,1,-18,-24,68,13,-20,100,7,-8
1491695864448,1,18,46,53,75,3,45,15,7
1491695864492,2,-25,-47,-95,-100,-57,-17,-7,24
1491695864492,2,3,-19,-12,13,-5,-57,9,-6
1491695864495,3,16,21,-1,-62,-55,-98,16,-5
1491695864495,3,-7,4,64,103,52,67,-30,19
1491695864496,1,-11,-20,-49,6,127,-20,19,-34
1491695864496,1,2,-53,-28,-5,-110,16,14,5
1491695864497,2,16,26,18,-2,-28,-24,-17,38
1491695864497,2,2,21,-65,-66,15,-13,6,-7
1491695864541,3,19,5,-9,-3,-14,5,-5,102
1491695864541,3,-24,-3,38,40,45,-42,-10,-98
1491695864543,0,-6,-17,-43,-93,-101,19,10,38
1491695864543,0,3,-61,85,88,64,59,10,25
1491695864544,2,-1,-29,-65,-24,-124,55,2,15
1491695864544,2,-3,18,13,34,127,20,-9,-51
1491695864545,3,25,15,-42,-8,-89,12,6,-1
1491695864545,3,-19,-8,-110,-9,43,-13,-5,-16
1491695864590,0,-3,11,32,-11,127,-21,6,-27
1491695864590,0,8,27,50,-41,-46,-82,-28,34
1491695864592,1,-3,7,-14,106,40,95,18,20
1491695864592,1,12,-4,-19,-12,24,-5,35,-20
1491695864593,3,15,27,127,35,-62,-113,10,26
1491695864593,3,2,3,5,23,14,-15,-4,-11
1491695864595,0,-15,-14,-58,4,67,53,-18,-26
1491695864595,0,19,38,49,-15,32,69,-6,8
1491695864639,1,-41,-42,-33,-11,-45,-116,-26,29
1491695864639,1,16,9,-10,-84,-113,10,-13,23
1491695864641,2,-9,38,44,5,92,0,-7,-81
1491695864641,2,8,16,66,34,-99,67,18,0
1491695864643,0,3,6,52,-69,84,-14,-28,-5
1491695864643,0,-20,-52,-128,84,20,-26,-1,24
1491695864644,1,-18,23,34,-55,-100,-47,-32,-84
1491695864644,1,6,-18,39,84,-20,-40,1,34
1491695864687,2,6,-1,-63,-29,-27,30,3,-12
1491695864687,2,-1,0,-6,81,75,46,4,-25
1491695864688,3,20,-23,-55,-95,-28,-17,7,9
1491695864688,3,4,53,34,-70,116,44,-17,0
1491695864689,1,19,7,98,-30,38,57,-5,-22
1491695864689,1,6,12,-87,42,86,57,25,12
1491695864690,2,-17,-96,-54,-60,-128,-61,-25,22
1491695864690,2,-11,59,42,16,95,-5,-24,-33
1491695864736,3,8,16,-1,-20,104,11,21,43
1491695864736,3,-3,-18,-2,-21,-50,-44,-22,-88
1491695864737,0,-4,76,18,-71,90,28,15,-8
1491695864737,0,-10,-82,10,27,-95,-21,7,-29
1491695864785,1,-11,-37,-19,-21,-48,2,-29,6
1491695864785,1,-10,3,6,-60,-44,-62,-34,-6
1491695864786,2,-10,-21,-84,-6,-26,-57,1,27
1491695864786,2,-8,11,51,-45,-33,35,4,-36
1491695864833,3,20,95,94,117,127,23,16,2
1491695864833,3,10,-55,-100,-71,-106,38,22,66
1491695864931,0,3,3,35,-2,50,-54,-7,-100
1491695864931,0,-9,-2,63,10,76,19,2,6
1491695864932,2,-1,-18,-47,7,29,12,2,51
1491695864932,2,15,5,-24,-14,-7,-32,7,41
1491695864933,3,-16,22,58,20,13,16,10,-97
1491695864933,3,18,63,71,29,44,-5,-6,-74
1491695864933,0,-4,-9,26,73,-70,-60,-7,-15
1491695864933,0,-4,-29,-6,7,-15,34,-2,-14
1491695864979,3,-5,-3,30,-36,-126,-84,-39,4
1491695864979,3,20,-7,-47,-6,68,101,44,22
1491695864980,0,-1,-30,-10,22,32,-3,0,6
1491695864980,0,-30,-9,-103,-79,-34,-55,-29,8
1491695864981,1,14,-5,-34,47,36,81,24,-9
1491695864981,1,-9,0,52,27,-12,8,-15,-33
1491695864982,2,4,-16,-50,-31,-103,26,-9,-28
1491695864982,2,-12,27,102,127,98,-25,0,-13
1491695865029,3,-2,-14,-40,-24,-96,-3,11,76
1491695865029,3,23,3,-84,-115,80,29,8,-2
1491695865034,0,6,36,122,95,-24,53,6,-50
1491695865034,0,38,1,-91,-51,8,-3,38,127
1491695865035,3,-9,6,-5,-70,-69,-2,-2,-7
1491695865035,3,9,-11,4,-26,59,17,2,-6
1491695865035,0,-15,19,64,83,86,-1,-3,-20
1491695865035,0,17,-30,-65,-51,-50,-38,0,-16
1491695865077,1,-32,4,-53,9,43,-32,-19,10
1491695865077,1,45,24,34,47,-50,18,9,12
1491695865078,2,-4,-21,23,11,19,-126,-8,14
1491695865078,2,-16,-13,35,-17,64,98,-3,62
1491695865079,3,21,16,-1,89,28,-35,18,-48
1491695865079,3,-6,5,4,-44,68,-27,-6,33
1491695865080,0,5,-10,-37,-128,-108,13,-22,-40
1491695865080,0,-8,4,-45,-81,28,44,21,34
1491695865175,1,-7,-17,99,58,-14,-21,-3,-27
1491695865175,1,2,32,85,-8,35,-17,-1,30
1491695865176,2,8,-4,-128,59,-6,-28,24,-1
1491695865176,2,-7,-17,52,-9,48,37,-6,9
1491695865177,0,19,12,10,-128,-10,21,23,21
1491695865177,0,-11,16,-17,103,-119,-75,-25,-30
1491695865178,1,10,-27,67,93,108,-67,-33,21
1491695865178,1,-6,-11,-67,-59,-76,96,17,-35
1491695865224,2,-21,-32,-62,-79,21,62,-12,104
1491695865224,2,16,47,122,123,71,-49,17,-34
1491695865225,3,16,-9,-68,44,36,57,31,24
1491695865225,3,-8,-19,-70,-50,-128,-75,-30,-22
1491695865226,1,-3,-25,-51,-61,120,73,9,16
1491695865226,1,-26,16,52,-6,-55,25,17,-89
1491695865228,2,-15,13,47,82,42,-128,-29,-42
1491695865228,2,5,-18,57,13,65,37,-22,-9
1491695865272,3,-8,-23,-121,-105,-25,26,21,38
1491695865272,3,-1,40,127,127,-40,16,2,-25
1491695865370,0,6,28,-64,-11,-66,-79,7,17
1491695865370,0,16,-29,-21,-111,70,42,-25,-63
1491695865371,3,0,-27,-30,-75,56,43,-25,-8
1491695865371,3,-8,33,-29,-1,54,12,28,-13
1491695865372,0,3,22,-20,-24,4,-58,-12,12
1491695865372,0,-9,-11,75,20,-36,-56,-16,-101
1491695865419,1,4,44,37,-21,116,33,5,-15
1491695865419,1,12,-8,73,34,-88,-105,-35,31
1491695865421,2,-26,-5,65,-40,-41,127,27,4
1491695865421,2,16,-46,-128,-5,-81,-48,-25,3
1491695865423,0,20,31,86,109,27,-40,6,18
1491695865423,0,15,28,22,39,57,33,-3,33
1491695865424,1,-7,32,31,-34,-91,-38,-11,-24
1491695865424,1,16,-22,-128,82,107,81,15,67
1491695865467,1,18,62,27,126,9,62,22,62
1491695865467,1,5,-3,23,-85,26,25,32,30
1491695865470,2,2,-48,-32,-107,-27,0,-17,48
1491695865470,2,-21,30,-76,-95,-55,-57,-30,-70
1491695865472,3,-4,-25,82,67,63,-4,7,-38
1491695865472,3,17,19,-46,40,-92,-60,11,51
1491695865473,2,25,62,47,5,22,63,16,1
1491695865473,2,-33,-80,-79,42,-107,-28,0,-33
1491695865516,3,-17,-91,-38,-72,31,-32,-24,-26
1491695865516,3,-18,59,83,18,-26,10,-11,-6
1491695865518,0,34,11,-74,-79,105,8,19,-34
1491695865518,0,-1,37,-13,-42,-49,-30,-10,31
1491695865520,3,-4,-32,21,-36,-14,-35,14,68
1491695865520,3,-6,4,82,50,113,-5,-3,-9
1491695865521,0,15,58,127,127,24,56,16,-30
1491695865521,0,32,32,26,61,56,50,31,56
1491695865565,1,13,31,45,21,-33,-58,13,-21
1491695865565,1,-34,-84,-93,-48,-109,0,-30,-20
1491695865566,2,-4,-26,-6,-72,74,6,-1,-31
1491695865566,2,-10,25,75,54,-30,-1,5,4
1491695865567,0,-41,-44,-128,-101,63,-63,-60,-66
1491695865567,0,-6,3,127,50,-64,13,-20,-5
1491695865568,1,-3,7,-17,-43,58,4,5,-19
1491695865568,1,18,83,127,-38,91,-84,5,39
1491695865613,2,-18,-20,-118,33,-86,76,7,-29
1491695865613,2,-1,-31,-22,-117,127,25,-1,8
1491695865617,3,-12,-35,98,45,-128,-94,-15,-6
1491695865617,3,-11,17,48,-23,0,-29,-17,11
1491695865619,1,9,1,43,127,54,52,18,38
1491695865619,1,9,60,38,-12,-8,15,-6,-4
1491695865621,2,11,13,-26,-66,110,47,14,16
1491695865621,2,3,-41,-15,118,-86,-67,7,5
1491695865662,3,-27,-2,-91,-123,1,19,-35,-48
1491695865662,3,-26,-94,-128,110,-39,-23,-1,-12
1491695865664,0,8,11,108,42,33,-13,-6,36
1491695865664,0,31,99,-101,-128,64,28,28,-25
1491695865665,2,2,-40,-28,-39,12,53,19,3
1491695865665,2,0,47,76,-21,29,1,-8,14
1491695865666,3,7,5,2,8,-79,-41,-14,-17
1491695865666,3,-3,-2,7,-36,53,88,29,7
1491695865711,0,0,-28,-45,-62,-38,-84,-21,-20
1491695865711,0,15,72,76,-51,47,27,23,4
1491695865713,1,-18,-79,-128,-128,-69,-66,-20,-11
1491695865713,1,4,13,93,78,-2,59,-7,33
1491695865714,3,32,22,39,-97,98,-27,-5,22
1491695865714,3,-7,21,31,-80,30,-29,3,-28
1491695865760,0,20,67,127,71,125,69,13,47
1491695865760,0,13,25,-83,4,-14,25,7,-32
1491695865762,1,-11,-25,-3,35,-44,5,-5,-24
1491695865762,1,-1,17,-54,-86,63,-35,-20,-26
1491695865763,2,-15,-64,13,75,-96,18,4,14
1491695865763,2,-26,-64,-62,-26,31,-39,-10,18
1491695865764,3,-1,40,45,40,116,-15,1,32
1491695865764,3,30,49,-88,-50,67,9,10,-42
1491695865808,0,-16,-69,-29,14,-72,62,-5,47
1491695865808,0,24,3,111,78,108,-8,0,12
1491695865810,1,-21,-12,-99,29,-113,-38,8,-21
1491695865810,1,9,18,15,-11,-128,-26,-3,46
1491695865811,0,-5,-17,-37,-72,-128,-72,-9,-2
1491695865811,0,7,25,22,-1,45,41,-15,-46
1491695865812,1,-24,-3,-45,-28,45,-23,-8,1
1491695865812,1,3,-71,8,48,-9,5,17,51
1491695865857,2,-6,29,-4,12,81,60,-8,-45
1491695865857,2,5,10,-8,-48,39,19,27,23
1491695865858,3,26,64,-87,-25,-16,58,19,-9
1491695865858,3,-34,-48,-2,-27,-128,-103,-46,3
1491695865858,1,-13,-28,-57,-86,-29,-13,-18,25
1491695865858,1,-20,-6,90,41,13,-28,-4,7
1491695865859,2,12,6,11,0,34,64,28,-14
1491695865859,2,9,28,62,12,-4,11,-14,-12
1491695865955,3,2,-5,20,14,-28,-12,9,34
1491695865955,3,-15,17,-8,5,-39,-13,6,3
1491695865955,0,-16,24,90,60,-9,-36,-32,23
1491695865955,0,9,-31,-30,-19,-13,31,24,-5
1491695865956,2,11,11,37,72,102,50,10,21
1491695865956,2,-6,9,10,-49,-93,-83,-6,34
1491695865957,3,-3,-7,49,27,90,77,-27,3
1491695865957,3,-20,-32,-42,21,45,-38,-6,-51
1491695866003,0,5,55,-30,-16,-37,-39,-21,-52
1491695866003,0,7,34,73,34,-79,24,35,65
1491695866004,1,-5,-63,-38,1,-3,-29,0,-25
1491695866004,1,-11,-49,2,-13,109,63,-16,-6
1491695866005,3,-3,31,-24,-49,-21,-12,20,-31
1491695866005,3,12,-3,19,26,30,27,9,42
1491695866006,0,1,22,15,15,3,87,15,0
1491695866006,0,2,14,71,88,90,25,20,2
1491695866052,1,-9,-11,-84,-107,1,-60,-30,-15
1491695866052,1,-8,-62,-21,-43,-85,5,-2,30
1491695866055,2,6,22,12,-23,23,-30,8,3
1491695866055,2,-7,-10,26,20,-12,-15,-10,20
1491695866058,1,-17,-108,-35,-69,-93,-97,-29,-11
1491695866058,1,-1,60,4,-19,36,-9,-12,0
1491695866061,2,-14,22,60,46,101,10,-12,-36
1491695866061,2,5,-9,11,50,59,21,2,-1
1491695866101,3,16,-8,-51,-32,-44,5,17,-12
1491695866101,3,-8,-10,9,-27,41,26,4,14
1491695866102,0,-6,-20,-9,-20,-44,-30,-8,21
1491695866102,0,4,9,87,3,66,8,-1,-17
1491695866103,2,20,33,88,52,75,45,38,20
1491695866103,2,-14,-14,-11,-65,-96,-7,-46,-90
1491695866104,3,-2,56,87,69,28,-54,8,-20
1491695866104,3,0,-18,49,79,-27,114,8,-17
1491695866150,0,8,-22,-128,-125,58,1,1,3
1491695866150,0,-7,-2,-34,-57,-86,-48,-15,-25
1491695866152,1,-4,60,78,92,83,23,3,21
1491695866152,1,16,20,-5,-3,-27,-30,-7,0
1491695866153,2,-3,-8,39,73,20,18,-2,44
1491695866153,2,6,12,42,15,56,26,7,-10
1491695866154,3,5,-64,-52,-66,-62,-93,-21,15
1491695866154,3,-5,1,-96,-70,110,40,16,21
1491695866198,0,-5,30,79,78,-11,-7,11,-5
1491695866198,0,-3,-6,-128,-89,-105,-8,-15,60
1491695866201,1,2,17,69,-17,94,29,9,-28
1491695866201,1,6,-3,-4,26,112,21,24,-13
1491695866202,3,-7,5,9,-14,78,26,-18,-47
1491695866202,3,2,53,-42,-26,-86,-62,-4,46
1491695866204,0,-11,-82,-55,-18,59,17,-8,-33
1491695866204,0,13,22,-21,-8,-7,-4,0,-26
1491695866247,1,-6,56,36,56,74,111,-5,-27
1491695866247,1,13,-32,73,-4,-68,-62,-16,36
1491695866250,2,9,7,-77,-20,4,-15,16,-24
1491695866250,2,-12,-61,-128,-101,25,-84,-20,21
1491695866251,0,6,15,29,24,74,27,0,70
1491695866251,0,1,5,72,4,64,46,-6,-74
1491695866252,1,-5,59,51,3,41,-29,27,-9
1491695866252,1,-34,-100,-84,-7,-60,-44,-17,3
1491695866296,2,5,-22,25,-59,10,-12,-28,-50
1491695866296,2,-5,48,98,62,17,-6,-4,26
1491695866299,3,5,-8,-7,-5,-19,34,18,16
1491695866299,3,-3,21,40,75,102,26,5,24
1491695866301,1,17,17,-21,109,-86,-25,-14,63
1491695866301,1,-7,-43,-43,-40,48,27,-3,-27
1491695866302,2,0,44,105,69,115,-42,-6,13
1491695866302,2,8,17,-34,124,127,101,34,-9
1491695866345,3,-22,-62,-70,-93,-114,-128,-46,-28
1491695866345,3,16,2,-3,-13,29,7,15,9
1491695866347,0,-4,-40,-30,-15,75,1,-12,-11
1491695866347,0,38,101,44,44,-50,-29,-3,19
1491695866349,2,-4,38,-70,-111,-128,43,2,18
1491695866349,2,-18,-128,-123,-128,-96,-61,0,47
1491695866350,3,-21,-5,16,-17,-8,-2,-11,-15
1491695866350,3,-14,54,107,43,43,-63,-5,-41
1491695866393,0,6,-1,-15,35,126,94,30,38
1491695866393,0,-16,-5,-11,-10,-67,-79,-33,-36
1491695866395,1,-1,-20,-84,85,29,49,23,25
1491695866395,1,-24,-22,-36,-77,-39,-30,-14,32
1491695866396,3,16,10,127,72,-20,-101,-13,32
1491695866396,3,-17,26,17,-30,-14,74,-32,-63
1491695866397,0,4,-46,-128,-88,-88,-12,18,9
1491695866397,0,-10,-20,23,-37,6,-14,-4,-13
1491695866491,1,5,51,66,71,127,3,18,25
1491695866491,1,3,-17,-101,-83,-77,63,6,-6
1491695866492,2,2,22,62,2,-128,-128,-37,-15
1491695866492,2,-23,-14,10,37,-12,63,-5,21
1491695866494,0,-3,-42,45,-46,-44,23,1,50
1491695866494,0,-8,-14,-93,4,84,-29,-11,-50
1491695866495,1,19,-9,-128,-128,-10,-66,-11,66
1491695866495,1,-7,-40,79,18,29,107,-22,-59
1491695866540,2,-6,8,28,105,-67,-61,-6,-49
1491695866540,2,-7,2,-10,6,-36,-25,2,-14
1491695866588,3,-6,2,-8,-53,-17,9,-1,8
1491695866588,3,22,-10,63,-17,19,-35,-5,-15
1491695866589,0,-16,14,-65,22,78,4,-12,-41
1491695866589,0,5,30,54,43,-1,3,11,51
1491695866590,1,5,34,127,11,56,-65,-14,-16
1491695866590,1,26,-12,-85,127,1,-16,26,55
1491695866591,2,-31,-41,0,-55,-11,-44,-20,-11
1491695866591,2,1,-15,10,-23,101,96,2,-21
1491695866637,3,-3,21,62,51,-21,11,-1,-31
1491695866637,3,-3,43,90,36,108,53,5,-27
1491695866638,2,13,36,68,100,96,-19,-6,-71
1491695866638,2,8,90,57,45,-40,12,5,50
1491695866638,3,-7,0,-25,22,30,79,10,9
1491695866638,3,-13,-20,-6,-121,63,-80,-13,14
1491695866639,3,-7,-21,16,42,-2,-22,-6,-40
1491695866639,3,-1,0,-7,-28,92,20,-7,-19
1491695866686,0,6,47,76,86,27,11,2,-1
1491695866686,0,17,-32,36,12,49,-22,9,10
1491695866686,1,-19,10,10,-13,91,-42,-13,-15
1491695866686,1,16,34,14,2,-97,-19,0,43
1491695866735,0,-11,-2,20,12,-65,-70,-26,-23
1491695866735,0,-2,-26,-32,-78,-7,22,6,-51
1491695866736,1,16,13,-36,-30,29,71,7,52
1491695866736,1,5,28,57,-18,127,83,21,-25
1491695866736,2,-6,7,24,116,-65,-69,1,-40
1491695866736,2,3,-22,-73,-84,-67,36,-1,58
1491695866737,3,-16,-18,-20,15,-53,7,-10,-59
1491695866737,3,-6,-9,-3,19,-11,-65,-44,-5
1491695866783,1,-28,2,-7,-26,-48,-128,-46,24
1491695866783,1,28,-3,34,19,-85,68,54,94
1491695866784,2,-19,1,-23,-104,13,4,-35,-65
1491695866784,2,-10,4,38,-9,-39,-22,-18,-41
1491695866785,3,4,17,107,127,66,47,17,-8
1491695866785,3,-3,-11,-119,-116,57,-70,-15,-7
1491695866786,2,27,1,16,63,-76,4,44,46
1491695866786,2,-7,-14,-49,-127,-53,-59,-36,-20
1491695866838,3,5,6,-63,-6,28,-4,1,36
1491695866838,3,-12,-41,-55,12,24,11,4,-9
1491695866840,0,-11,32,36,33,73,15,-6,-2
1491695866840,0,1,4,76,75,98,12,-7,-21
1491695866841,2,-24,-39,-11,-36,42,-21,-6,-9
1491695866841,2,-12,0,-35,-14,-25,11,15,18
1491695866842,3,19,18,12,-30,69,10,-9,24
1491695866842,3,-6,11,-21,37,-93,-17,-1,-48
1491695866881,0,-3,-32,13,-11,-52,22,14,22
1491695866881,0,13,0,13,-54,29,-36,-34,44
1491695866883,1,-13,-4,26,58,46,78,42,-67
1491695866883,1,12,10,42,47,-40,-128,-29,17
1491695866885,3,-9,-38,-65,-80,-36,21,-1,-20
1491695866885,3,-14,7,63,33,50,-31,-13,-17
1491695866886,0,11,-3,-13,23,46,59,1,5
1491695866886,0,2,6,-47,-42,-10,19,19,45
1491695866931,1,-6,-16,41,21,39,-39,-5,-13
1491695866931,1,7,15,7,-27,-66,73,13,-3
1491695866932,2,7,5,7,57,-34,-73,4,56
1491695866932,2,-10,-3,1,-15,84,-8,-27,-32
1491695866978,0,10,-4,127,110,-20,-55,7,70
1491695866978,0,-9,-10,-84,-53,87,1,-15,-85
1491695866980,1,-2,7,98,91,-37,109,47,32
1491695866980,1,-20,-34,-84,18,39,-42,-53,39
1491695866982,2,-7,23,-6,-73,-100,-10,-16,-60
1491695866982,2,27,31,121,127,118,-20,20,49
1491695866983,3,-3,1,-59,-80,-25,-33,-9,-10
1491695866983,3,-6,-5,4,-30,63,61,15,-25
1491695867027,1,-1,25,45,-47,60,-41,-24,-29
1491695867027,1,8,1,0,41,-14,43,20,45
1491695867029,2,-21,-20,33,44,36,-22,3,9
1491695867029,2,-7,1,-116,-89,-57,40,17,49
1491695867030,3,8,-4,32,12,-2,-53,-3,-8
1491695867030,3,25,-19,40,25,63,-11,-15,29
1491695867033,2,13,9,35,27,64,-41,-30,-29
1491695867033,2,4,-14,-6,49,-66,-46,-18,31
1491695867077,3,-18,-12,-41,-92,56,48,2,-31
1491695867077,3,-23,-38,-1,-34,-51,-112,-5,-90
1491695867079,0,-15,-28,-89,-18,-47,-1,1,45
1491695867079,0,4,38,27,-15,37,25,-9,-22
1491695867081,3,2,-8,-85,19,28,-82,10,-27
1491695867081,3,-10,-2,87,-52,-87,10,-11,-44
1491695867082,0,-13,-31,-81,-2,12,90,-5,-13
1491695867082,0,2,-4,53,22,-12,-54,6,22
1491695867125,1,-7,16,27,22,-13,-25,-11,37
1491695867125,1,-4,-12,-77,-71,37,-20,-31,-50
1491695867127,2,10,45,54,9,-19,-3,-16,-29
1491695867127,2,-8,-35,19,16,60,34,35,0
1491695867128,0,-14,-32,11,-34,-39,12,19,-20
1491695867128,0,7,18,-10,33,3,59,28,35
1491695867174,1,-4,-16,127,54,28,-29,2,49
1491695867174,1,33,29,24,50,98,64,26,-56
1491695867176,2,15,34,-73,13,31,41,-4,4
1491695867176,2,-10,-11,22,64,42,-103,-21,-2
1491695867177,3,17,-37,34,-34,-108,89,25,30
1491695867177,3,-1,41,77,43,-57,9,-7,27
1491695867222,0,-3,-1,-22,-101,54,-63,-8,-47
1491695867222,0,-6,44,-78,-49,-3,7,-19,-49
1491695867224,1,-4,-76,-4,93,-22,-87,27,60
1491695867224,1,-35,-7,-14,-85,75,-47,-78,-49
1491695867226,2,5,-25,112,102,-79,74,38,83
1491695867226,2,16,36,-18,93,106,-26,5,59
1491695867227,3,13,61,-11,82,72,63,22,-31
1491695867227,3,1,-54,-62,-79,48,-16,35,-37
1491695867271,1,16,53,100,83,100,8,14,120
1491695867271,1,23,72,61,-27,30,-50,-12,-36
1491695867273,2,-16,-63,-106,-25,-25,-33,-6,-64
1491695867273,2,-27,-25,54,65,17,-55,-1,78
1491695867275,3,-35,-91,-88,-97,29,33,-23,-58
1491695867275,3,10,45,16,115,-6,60,5,24
1491695867276,2,-11,-5,-29,44,-7,-10,-25,1
1491695867276,2,-8,36,63,39,-25,-23,4,-4
1491695867320,3,22,67,-3,-107,76,23,12,50
1491695867320,3,-24,-103,-85,-30,-128,66,22,-43
1491695867321,0,10,37,-1,-15,52,41,20,57
1491695867321,0,-2,30,-43,-72,-39,-59,-16,-53
1491695867368,3,3,-28,19,11,-35,-4,-35,-40
1491695867368,3,-15,36,87,48,64,-82,11,18
1491695867371,0,27,3,-4,67,127,113,1,41
1491695867371,0,-30,-30,-36,-111,-104,-109,0,-17
1491695867372,1,11,35,17,-102,50,57,9,3
1491695867372,1,-18,-24,9,127,19,8,-53,39
1491695867373,2,11,52,2,3,77,-66,15,-47
1491695867373,2,13,-40,3,3,-19,127,26,28
1491695867417,0,26,18,127,109,13,-1,-10,-70
1491695867417,0,-19,-33,-128,-82,-18,4,-19,-59
1491695867419,1,-20,-37,23,37,-128,-128,-64,-26
1491695867419,1,2,0,-23,72,116,96,7,19
1491695867466,2,-18,-18,22,-12,44,51,10,-1
1491695867466,2,19,80,127,127,127,20,15,-8
1491695867468,1,-2,63,36,-77,119,-26,-16,-3
1491695867468,1,17,37,-56,70,-29,-72,-2,19
1491695867469,2,11,5,37,-113,1,101,42,-1
1491695867469,2,-34,-47,29,109,-33,-74,-20,7
1491695867470,3,17,-63,-61,16,78,99,45,21
1491695867470,3,-6,66,-39,-128,-110,-100,9,-24
1491695867515,2,16,21,-128,-92,-128,-100,1,40
1491695867515,2,-44,-94,-42,-102,-101,-43,-29,56
1491695867516,3,13,54,107,70,75,12,-1,-29
1491695867516,3,8,49,76,66,5,82,24,21
1491695867517,0,-2,27,127,127,48,-34,-20,25
1491695867517,0,25,6,-54,-20,-96,17,-3,60
1491695867519,3,-1,39,33,41,27,20,12,26
1491695867519,3,0,-28,5,49,-4,26,-24,-53
1491695867563,0,26,-8,-6,-58,-2,-64,5,19
1491695867563,0,-21,-28,-93,-79,115,127,-20,-14
1491695867566,1,1,51,-32,-3,-78,-110,-19,29
1491695867566,1,-33,-86,119,110,-78,-12,22,15
1491695867568,3,-2,-42,3,-18,48,-53,0,35
1491695867568,3,4,71,18,-61,0,84,19,-43
1491695867569,0,-8,14,46,127,42,-15,-34,5
1491695867569,0,-12,6,16,-57,-104,-22,7,-50
1491695867612,1,-3,-55,-68,-91,-83,-3,0,-15
1491695867612,1,-2,-22,7,16,0,-37,-9,43
1491695867614,2,-11,47,-81,79,85,40,-11,-3
1491695867614,2,20,-4,127,25,-49,-79,12,8
1491695867615,0,-18,-34,10,71,74,-71,-12,-4
1491695867615,0,44,81,45,-12,-36,69,18,61
1491695867616,1,3,10,-111,-114,15,24,17,-17
1491695867616,1,-12,-41,-89,-114,21,-70,-34,-22
1491695867661,2,-23,-17,11,96,-2,-9,-9,9
1491695867661,2,32,30,89,87,75,24,23,-1
1491695867662,3,40,76,94,-48,7,-1,32,10
1491695867662,3,-63,-79,-111,-31,-68,-41,-39,-75
1491695867664,1,14,89,127,76,73,42,-11,-32
1491695867664,1,23,25,-72,90,127,-38,37,45
1491695867666,2,-20,-69,-38,-63,-81,110,-6,-17
1491695867666,2,11,4,27,-91,127,63,32,-12
1491695867716,3,-4,-22,-109,90,-62,-79,-26,10
1491695867716,3,-15,-59,20,-125,-32,-20,-20,-46
1491695867717,0,-2,21,50,103,47,-12,0,21
1491695867717,0,-4,-70,-76,-43,127,-2,-1,1
1491695867718,2,-7,-68,-75,27,-90,-93,2,23
1491695867718,2,4,56,2,-9,-62,-3,-25,-38
1491695867720,3,0,-34,59,-46,32,20,27,-17
1491695867720,3,-8,-35,-36,-128,-8,26,-19,15
1491695867758,0,-14,18,-46,123,-33,28,-21,-50
1491695867758,0,-12,-23,-5,75,59,11,-2,-27
1491695867760,1,-2,-14,64,-93,1,22,6,26
1491695867760,1,9,1,92,42,106,127,-15,42
1491695867761,3,40,46,-91,-73,97,22,15,-12
1491695867761,3,-26,-85,-64,110,-93,-75,13,-70
1491695867763,0,-36,48,-5,-56,59,-11,-62,29
1491695867763,0,24,-29,14,78,-85,45,66,-1
1491695867807,1,-41,-47,-55,-41,-57,-128,-94,3
1491695867807,1,5,70,109,62,65,82,18,77
1491695867809,2,23,-15,-84,-7,-19,42,20,-32
1491695867809,2,-17,7,15,-10,127,-4,-3,-51
1491695867810,0,-25,-53,50,54,88,107,4,40
1491695867810,0,21,25,62,91,127,73,11,-2
1491695867811,1,-35,-72,34,18,-83,-80,30,-16
1491695867811,1,-5,-45,-85,-128,-101,-128,-43,16
1491695867856,2,27,105,127,12,70,51,20,32
1491695867856,2,-9,-17,-128,-27,91,84,-24,-8
1491695867858,3,-12,-52,-22,46,-24,-32,-15,-4
1491695867858,3,-5,25,118,77,-39,-64,21,7
1491695867859,1,-10,-14,41,53,41,78,4,-8
1491695867859,1,44,54,11,-8,62,-10,37,-18
1491695867860,2,6,7,-127,-100,7,-70,-8,-19
1491695867860,2,-16,-66,-32,-8,-93,-80,-37,59
1491695867905,3,-17,27,-7,36,92,65,28,19
1491695867905,3,1,15,13,-73,59,-6,12,-46
1491695867906,0,3,-3,19,-37,73,13,-10,-35
1491695867906,0,5,-14,-42,-43,97,28,-10,11
1491695867907,1,-19,-12,-35,2,-76,-78,-22,-14
1491695867907,1,-6,20,58,69,17,86,13,-6
1491695867908,2,7,8,-78,-86,64,125,12,-26
1491695867908,2,-18,-39,-30,-34,-73,-71,-24,-11
1491695867953,3,15,-16,28,38,-26,-77,-9,40
1491695867953,3,-16,41,45,103,97,64,12,-2
1491695867955,0,11,26,-36,-98,-78,-50,20,36
1491695867955,0,-30,-118,-51,-87,-70,-70,-29,-23
1491695867956,2,2,61,127,90,50,127,23,19
1491695867956,2,4,34,68,101,86,4,41,12
1491695867957,3,17,33,-100,-32,81,116,-33,-35
1491695867957,3,0,-65,-5,-76,-46,22,17,14
1491695868002,0,-20,-64,38,41,-127,39,26,52
1491695868002,0,-8,-5,-34,-30,63,-18,-13,31
1491695868004,1,-10,16,-54,31,61,62,7,-11
1491695868004,1,-6,-5,-35,5,15,-100,-7,21
1491695868005,3,11,29,-20,-16,-29,-98,-12,-41
1491695868005,3,9,79,59,63,82,-12,18,4
1491695868016,0,-40,-79,-93,-88,-87,-59,-32,-42
1491695868016,0,-36,3,127,14,39,-3,-47,-71
1491695868052,1,22,27,106,90,127,115,34,6
1491695868052,1,59,18,-110,-59,-52,94,4,58
1491695868053,2,21,10,33,25,5,2,13,4
1491695868053,2,-2,-4,111,66,-127,68,9,0
1491695868054,0,14,-28,-81,6,52,-107,-22,0
1491695868054,0,40,50,-111,-61,-98,-15,28,-2
1491695868054,1,-8,7,25,62,-13,77,-8,-3
1491695868054,1,0,-39,-92,-4,66,-10,-5,-1
1491695868148,2,2,-15,-47,38,-42,9,0,-15
1491695868148,2,-17,34,46,41,67,-33,5,15
1491695868149,3,18,51,-35,-22,21,-25,21,33
1491695868149,3,-1,7,66,67,122,-10,-4,-32
1491695868149,1,-11,-43,64,21,8,59,22,-46
1491695868149,1,19,-20,-81,-128,47,-87,5,42
1491695868150,2,-5,19,70,14,17,-40,-3,-12
1491695868150,2,4,-25,-88,26,53,69,2,25
1491695868197,3,-5,39,2,-76,62,-3,2,-7
1491695868197,3,-21,-21,15,66,124,80,-8,-36
1491695868198,0,15,40,27,-47,-51,-76,-9,23
1491695868198,0,-13,-25,-4,-38,40,-25,13,-3
1491695868198,2,12,-3,-9,36,127,69,20,51
1491695868198,2,3,57,64,30,-109,-113,-16,-8
1491695868199,3,-14,-83,-52,-57,-93,-69,-3,25
1491695868199,3,5,16,-37,-33,12,15,6,59
1491695868246,0,7,-14,54,127,127,87,26,-58
1491695868246,0,8,52,-20,-62,-128,-91,-29,28
1491695868246,1,-12,-39,17,26,64,-12,3,-32
1491695868246,1,-16,-25,-34,-77,-4,-2,-9,3
1491695868247,3,7,18,50,47,85,-18,8,-2
1491695868247,3,-9,-29,-120,-70,-121,-47,-4,21
1491695868248,0,-7,10,53,10,51,11,-2,-32
1491695868248,0,1,2,8,-10,103,56,10,-21
1491695868294,1,-3,34,56,19,-128,-107,-23,2
1491695868294,1,26,43,8,20,127,44,30,6
1491695868295,2,-10,-77,-45,-38,-41,-10,-18,-10
1491695868295,2,-11,-18,-46,-43,-68,6,-2,18
1491695868296,0,-14,0,22,28,-82,-15,-1,43
1491695868296,0,5,3,24,-24,86,80,14,-81
1491695868300,1,-8,-28,-128,-78,-13,7,-12,9
1491695868300,1,-10,13,10,-35,-80,-3,-34,-32
1491695868343,2,1,2,66,110,42,-11,8,1
1491695868343,2,-17,-27,-48,-18,53,-87,-10,-34
1491695868344,3,39,15,44,21,-11,103,23,55
1491695868344,3,-8,6,43,35,31,-44,-6,-22
1491695868345,1,-2,-48,-72,-82,80,-4,-23,-15
1491695868345,1,6,18,46,18,6,-19,-2,33
1491695868345,2,-11,-57,9,3,33,-54,-12,-26
1491695868345,2,10,52,54,52,65,6,19,55
1491695868392,3,-2,59,60,-2,30,34,32,3
1491695868392,3,0,-36,38,-7,21,84,1,27
1491695868393,0,-18,5,-63,-28,39,-37,-6,7
1491695868393,0,2,-36,-25,-3,43,-21,5,49
1491695868393,2,22,5,-39,-51,10,49,21,49
1491695868393,2,-12,-44,-121,-102,-82,-75,-54,-50
1491695868394,3,-12,-3,14,46,55,77,4,9
1491695868394,3,-5,8,45,-20,127,-30,25,4
1491695868441,0,21,16,0,37,-53,47,9,11
1491695868441,0,-4,-27,120,45,-59,-6,-8,-15
1491695868442,1,-15,3,-33,-19,-29,-26,-5,-8
1491695868442,1,-13,-33,-30,-22,35,-90,-30,-67
1491695868443,3,5,-37,-54,-71,41,27,6,1
1491695868443,3,12,-5,-7,-20,-116,-66,4,33
1491695868443,0,-23,-8,-83,-128,81,-66,-19,-57
1491695868443,0,20,9,-10,107,-68,69,23,52
1491695868489,1,-9,-3,10,127,51,43,8,-4
1491695868489,1,6,-45,-53,-128,42,-25,0,-13
1491695868490,2,2,17,44,-106,-109,38,-37,37
1491695868490,2,5,17,69,95,55,-24,11,-44
1491695868491,0,-6,-20,-16,-40,-47,-18,-1,31
1491695868491,0,23,13,-16,-78,123,22,11,-11
1491695868492,1,-2,9,-40,37,-128,-61,-5,4
1491695868492,1,5,30,127,4,126,112,-2,8
1491695868538,2,-25,-45,-86,92,-83,-110,-20,-19
1491695868538,2,-38,-34,-76,-128,-107,-87,-16,-72
1491695868540,3,32,61,101,60,93,54,10,81
1491695868540,3,-6,-12,-1,-10,13,13,2,-73
1491695868541,1,-27,-63,-1,-119,19,-106,-28,-8
1491695868541,1,-14,14,4,29,93,34,-21,44
1491695868541,2,9,13,-19,-21,-42,32,26,-15
1491695868541,2,-2,-89,-63,-12,3,-52,-25,2
1491695868587,3,-16,25,51,-23,-4,66,8,3
1491695868587,3,14,-14,-53,-35,-128,-28,-6,33
1491695868636,0,-1,28,88,-40,127,-6,5,-61
1491695868636,0,0,46,66,104,127,83,39,71
1491695868638,1,-2,-41,-89,-28,-128,-106,-47,8
1491695868638,1,-7,-8,-82,-85,124,32,3,-67
1491695868639,2,4,-15,-24,-2,38,-12,13,30
1491695868639,2,0,-30,-34,-35,-59,35,-1,54
1491695868640,3,7,27,22,-15,110,23,25,-47
1491695868640,3,-12,-14,38,92,-65,-23,-9,37
1491695868685,0,15,5,127,127,-59,-13,-12,39
1491695868685,0,-14,28,-116,-128,67,-33,24,13
1491695868686,2,1,42,51,11,96,-68,-2,-27
1491695868686,2,-11,-13,9,-6,-47,-3,-52,38
1491695868687,3,25,54,-3,-94,-116,-80,-18,19
1491695868687,3,-20,-38,3,-73,-43,23,7,-22
1491695868688,0,15,-18,-111,61,57,39,26,37
1491695868688,0,6,32,-5,-18,-79,36,8,6
1491695868734,1,-27,-32,-1,66,100,10,-4,-5
1491695868734,1,4,22,127,107,127,32,8,47
1491695868739,2,13,13,-105,-128,-78,-68,-21,-86
1491695868739,2,-11,-18,90,3,-18,36,8,-2
1491695868741,0,-8,-16,127,127,127,77,33,-18
1491695868741,0,-12,-8,-45,-82,-40,-87,-15,-47
1491695868742,1,-5,4,-112,-108,-37,62,-6,-39
1491695868742,1,-8,-6,67,70,39,-24,6,15
1491695868782,2,32,21,-11,-114,91,53,9,105
1491695868782,2,-14,-30,-95,-105,-48,-101,-18,-119
1491695868784,3,-34,-101,44,62,98,74,-1,6
1491695868784,3,-3,41,-28,-7,-125,-110,-33,-29
1491695868785,1,7,12,-79,-53,-96,-84,8,19
1491695868785,1,-8,-32,-10,10,-48,66,17,-29
1491695868786,2,10,26,-78,-110,-29,-69,-9,19
1491695868786,2,12,19,87,48,14,0,-7,54
1491695868880,3,-13,-21,-42,6,30,36,10,-73
1491695868880,3,19,2,-36,20,51,4,4,8
1491695868883,0,-17,-5,65,-96,-3,-26,14,9
1491695868883,0,4,22,-4,70,-2,-35,-15,18
1491695868885,2,-5,-5,-65,-42,14,127,24,-34
1491695868885,2,-1,-21,-6,-99,77,-18,2,2
1491695868886,3,4,26,9,67,-44,-110,18,30
1491695868886,3,-16,39,92,57,91,14,20,-8
1491695868928,0,17,-23,-82,-41,-65,12,-32,-9
1491695868928,0,-6,-26,-10,-6,-19,25,5,-27
1491695868930,1,-4,23,12,53,69,-25,-12,20
1491695868930,1,10,-24,-30,-30,127,46,7,-43
1491695868931,3,13,17,21,-24,36,100,9,12
1491695868931,3,3,-12,-61,-76,-100,-55,-9,23
1491695868934,0,-3,-11,34,36,46,14,2,16
1491695868934,0,-1,6,41,63,124,51,4,38
1491695868977,1,-6,4,97,69,-5,-17,10,-53
1491695868977,1,8,-21,-128,-128,54,11,-17,14
1491695868979,2,-12,-7,4,12,-76,-87,-7,-4
1491695868979,2,9,-13,-36,-30,57,49,5,-8
1491695868980,0,-1,-6,34,81,14,-35,-4,-23
1491695868980,0,17,30,94,83,-61,-25,-10,26
1491695868981,1,9,-21,-72,-60,-9,-15,5,10
1491695868981,1,-29,-21,-50,-68,-44,-53,-35,-61
1491695869026,2,4,19,-21,-66,13,61,32,44
1491695869026,2,23,-29,-39,89,-1,38,11,-2
1491695869075,3,-11,11,93,112,-47,-32,14,58
1491695869075,3,9,35,-17,-48,15,23,-25,20
1491695869123,1,27,9,17,10,-72,-38,14,48
1491695869123,1,3,2,-47,15,66,36,10,21
1491695869172,2,3,0,22,89,78,4,-14,-45
1491695869172,2,11,20,-54,-52,60,7,35,-14
1491695869174,3,-2,10,-45,-97,-81,5,-49,-40
1491695869174,3,-20,-33,127,-21,-53,-106,-28,2
1491695869175,0,3,-19,-41,-22,23,91,21,31
1491695869175,0,-14,23,123,84,43,5,30,-16
1491695869176,2,7,27,3,40,6,-78,-19,-12
1491695869176,2,-5,-5,8,-24,-13,59,-3,25
1491695869221,3,-7,9,45,-24,30,22,19,-50
1491695869221,3,44,48,40,78,88,74,17,10
1491695869223,0,6,64,-68,-14,-78,-86,18,-35
1491695869223,0,7,-42,-44,-45,-30,-34,-6,-12
1491695869224,1,-12,29,34,9,80,-32,-44,-32
1491695869224,1,-5,29,87,57,-25,45,16,14
1491695869225,1,-9,-41,33,107,39,49,-11,-37
1491695869225,1,-20,10,-52,-107,10,-78,17,0
1491695869270,2,5,13,100,56,0,59,-2,-19
1491695869270,2,22,-6,-101,33,34,-27,19,18
1491695869271,3,-29,-28,-55,-74,-128,-51,-44,-20
1491695869271,3,16,25,30,28,-14,-27,-12,-7
1491695869273,2,-19,-75,-128,-128,-115,20,12,22
1491695869273,2,-8,70,73,127,127,82,-11,-26
1491695869274,3,-7,-58,-32,13,-66,-77,-14,38
1491695869274,3,9,27,6,-56,63,29,25,68
1491695869319,0,-30,-34,30,-7,13,-108,-25,-73
1491695869319,0,31,13,-18,-84,41,-44,12,11
1491695869320,1,0,3,11,64,-128,31,-17,49
1491695869320,1,-4,-23,26,122,75,63,8,-18
1491695869321,2,-9,25,-121,-11,55,-43,-30,-25
1491695869321,2,-5,4,30,-110,-6,-21,2,-12
1491695869322,3,8,-17,-64,-81,51,0,24,-23
1491695869322,3,-22,-30,63,60,-128,-103,-20,19
1491695869367,0,-9,32,56,46,115,98,-19,-38
1491695869367,0,-5,-10,7,76,81,0,-16,-25
1491695869369,1,21,32,104,-74,-86,-27,10,102
1491695869369,1,-11,-7,-23,-39,99,23,-13,-83
1491695869370,3,-7,-67,-81,28,-44,-56,8,-41
1491695869370,3,-24,17,67,-42,-59,-49,-26,13
1491695869371,0,34,36,-30,-78,-17,-10,9,28
1491695869371,0,-3,-30,78,59,101,-14,2,-26
1491695869416,1,-12,22,37,45,-61,12,-13,4
1491695869416,1,-11,-39,32,-54,44,-16,6,-19
1491695869417,2,-17,6,-103,100,116,-81,-25,-7
1491695869417,2,9,22,38,36,63,35,30,49
1491695869419,0,-22,-5,76,-104,78,69,11,7
1491695869419,0,2,-13,-28,107,55,18,0,-15
1491695869420,1,-4,2,-84,-98,23,-57,-6,16
1491695869420,1,-3,-25,-1,66,-77,-20,-21,-25
1491695869513,2,1,16,92,75,-54,-59,-20,14
1491695869513,2,-38,-47,-64,11,-91,46,-17,-10
1491695869515,3,41,107,127,43,90,-1,4,5
1491695869515,3,45,52,-34,6,97,127,42,-19
1491695869516,1,4,11,-81,-20,-70,-108,-36,4
1491695869516,1,7,-22,-99,-74,127,42,30,15
1491695869517,2,7,25,-43,40,118,54,-3,26
1491695869517,2,-5,14,10,-6,-35,16,9,33
1491695869562,3,-18,-41,-11,-47,0,-11,20,-97
1491695869562,3,23,25,-16,50,19,-14,-23,-2
1491695869564,0,-18,-14,8,-79,-106,-52,-2,-39
1491695869564,0,19,69,53,87,29,-22,-3,-1
1491695869566,2,5,-41,-41,22,1,-14,-6,-29
1491695869566,2,31,65,-116,-125,37,-15,39,-38
1491695869567,3,-5,30,127,104,111,127,21,-14
1491695869567,3,34,36,-36,-49,-86,-36,7,19
1491695869611,0,-28,-27,4,-82,-44,-33,-23,-41
1491695869611,0,-28,-72,-23,42,-73,-92,-18,60
1491695869613,1,-30,-52,80,61,-18,31,-48,-63
1491695869613,1,30,86,104,108,117,38,49,0
1491695869614,0,-23,-60,-102,-120,-126,-20,-7,20
1491695869614,0,-45,-90,-37,-47,44,-63,-47,-30
1491695869615,1,47,96,9,53,47,86,41,87
1491695869615,1,-12,-32,51,18,6,25,8,-38
1491695869660,2,18,65,7,34,127,-42,-3,-54
1491695869660,2,15,-73,-126,-30,-79,-20,-4,44
1491695869662,3,-30,19,-48,-79,49,63,-15,-82
1491695869662,3,2,-47,20,3,-56,-85,-1,38
1491695869663,0,-15,16,58,8,-1,29,6,64
1491695869663,0,44,107,104,50,15,53,22,3
1491695869664,1,5,-49,-128,-114,4,-34,20,-23
1491695869664,1,-52,-91,-73,-45,-115,-50,-51,-31
1491695869709,2,3,33,-3,30,57,-37,-9,42
1491695869709,2,9,10,71,-72,77,27,6,3
1491695869711,3,-17,-21,-44,97,-117,-81,-11,21
1491695869711,3,-1,-4,72,-16,127,62,5,7
1491695869712,1,36,47,33,-39,81,-5,10,-77
1491695869712,1,-49,-101,-128,-95,-128,-89,-43,18
1491695869713,2,-33,-59,26,97,49,-13,-48,-14
1491695869713,2,17,58,116,111,84,14,3,-16
1491695869757,3,-21,-41,81,80,78,-61,17,45
1491695869757,3,35,74,71,83,-22,127,19,13
1491695869759,0,14,54,59,16,-21,58,26,1
1491695869759,0,-29,-84,-128,-60,-58,-79,-48,-71
1491695869761,2,-6,-22,-51,48,-79,1,13,8
1491695869761,2,1,-24,-49,6,-35,67,2,-27
1491695869762,3,-17,-20,-17,-54,-128,-64,-11,3
1491695869762,3,-8,32,127,51,93,-10,-8,3
1491695869806,0,5,-15,-108,-128,-55,-70,-23,-1
1491695869806,0,-8,24,-12,45,-42,-26,5,-15
1491695869807,1,4,4,87,-5,-21,108,25,40
1491695869807,1,34,70,-40,111,25,3,28,-10
1491695869809,3,3,-2,1,-26,104,-59,-23,-37
1491695869809,3,25,71,100,50,-61,95,33,39
1491695869810,0,23,56,92,110,-31,4,-5,3
1491695869810,0,-20,-37,-42,-12,-51,-52,-8,-35
1491695869854,1,-18,-47,-99,-68,46,12,-2,28
1491695869854,1,-31,-44,-11,4,-17,-36,-17,-18
1491695869855,2,35,-8,-55,-68,45,-52,3,16
1491695869855,2,10,71,70,46,108,127,27,-16
1491695869856,0,-8,1,58,-3,27,-17,-7,27
1491695869856,0,12,10,17,9,1,-93,-30,11
1491695869857,1,-1,23,-50,-15,45,52,9,-18
1491695869857,1,-7,12,107,-13,55,51,21,-29
1491695869903,2,-5,-30,-26,43,42,33,12,-47
1491695869903,2,19,89,-86,-61,-33,16,13,15
1491695869904,3,1,-39,79,36,64,-66,-36,-3
1491695869904,3,-5,-18,-75,-6,-120,-50,-7,0
1491695869905,1,-5,69,-28,-76,-108,-28,-14,-20
1491695869905,1,25,12,85,66,101,14,3,57
1491695869906,2,1,22,50,-13,15,-6,9,-34
1491695869906,2,-2,9,-3,52,87,17,-8,-11
1491695869952,3,-5,0,30,1,-73,-25,4,15
1491695869952,3,3,-14,-87,-34,51,16,-3,18
1491695869955,0,3,-4,8,23,36,44,19,-9
1491695869955,0,30,16,-26,-54,-63,-8,6,32
1491695869956,2,-38,-108,28,18,100,101,-26,-26
1491695869956,2,-6,24,33,10,-74,-15,28,77
1491695869957,3,16,94,70,75,127,53,-10,-83
1491695869957,3,11,-27,25,85,-94,-55,-5,17
1491695870003,0,-12,-53,-79,-122,-22,-20,-5,36
1491695870003,0,-25,-66,39,-22,-52,25,1,-45
1491695870006,1,-32,-18,-44,-2,24,-51,-11,-24
1491695870006,1,31,-9,127,59,115,35,17,36
1491695870007,2,8,73,-46,6,73,0,7,3
1491695870007,2,-20,-127,-52,-7,125,11,-1,37
1491695870008,3,-1,-14,30,22,71,44,8,20
1491695870008,3,31,20,-2,25,122,29,18,-43
1491695870050,0,7,127,70,31,127,-5,-10,-28
1491695870050,0,-21,-76,-83,-37,-66,-25,-6,2
1491695870051,1,-24,-5,-4,28,8,18,-35,0
1491695870051,1,-15,52,-42,-51,43,-37,15,37
1491695870051,3,-15,-63,-25,20,-6,43,-17,-29
1491695870051,3,-39,61,42,58,59,68,8,51
1491695870052,0,22,-16,-18,-72,-28,-68,-51,-22
1491695870052,0,-9,-14,-5,-67,-90,-2,14,24
1491695870098,1,10,-61,-29,-29,-128,-98,44,60
1491695870098,1,-22,41,13,-23,91,-36,-48,-84
1491695870099,2,1,44,127,88,67,103,87,20
1491695870099,2,32,1,-32,70,59,122,53,-38
1491695870100,0,-20,9,52,57,-9,24,32,-10
1491695870100,0,3,7,29,9,122,-12,-43,-40
1491695870100,1,24,37,19,-1,-58,59,9,45
1491695870100,1,7,-64,-62,14,52,-18,20,-6
1491695870147,2,2,-20,-50,-97,-124,-33,-36,-17
1491695870147,2,17,37,52,37,119,-16,27,2
1491695870196,3,-10,21,-46,-62,8,-15,-23,-34
1491695870196,3,0,-85,-33,-45,-97,-7,2,-6
1491695870197,1,11,12,27,15,-1,51,-12,-2
1491695870197,1,19,-15,-49,-12,-105,-46,18,2
1491695870198,2,10,28,3,15,31,-9,-3,59
1491695870198,2,-6,-25,-56,-23,-34,-22,-24,-8
1491695870199,3,7,16,38,25,127,-5,19,16
1491695870199,3,-17,-8,-12,-3,-64,115,-9,-39
1491695870244,0,-11,-16,-5,-55,0,-80,-34,33
1491695870244,0,16,15,6,8,-70,-51,4,44
1491695870246,2,-9,-12,-10,-23,-73,-55,-9,-21
1491695870246,2,-14,20,-35,-7,-52,25,-4,-49
1491695870247,3,24,-14,-25,-30,-40,-54,12,-1
1491695870247,3,-28,9,-22,-22,18,7,-21,-18
1491695870247,3,10,-14,-70,-27,26,-12,-1,6
1491695870247,3,7,19,8,47,93,28,17,42
1491695870293,0,-6,-28,25,16,-53,-56,-4,-29
1491695870293,0,-14,27,16,-23,-47,107,-19,-25
1491695870294,1,22,-9,-42,-40,87,-70,16,80
1491695870294,1,-16,-69,-120,-128,-118,-70,-27,-57
1491695870296,0,1,-46,-45,-12,-79,-30,1,32
1491695870296,0,-9,37,-23,-40,-7,-49,3,-15
1491695870303,1,-17,-43,-26,55,7,41,-6,11
1491695870303,1,20,18,52,11,98,67,4,5
1491695870342,2,-9,5,35,-25,-109,-70,-42,-45
1491695870342,2,19,-28,43,111,127,-11,11,22
1491695870344,3,-13,-8,-70,-119,-48,21,13,-35
1491695870344,3,-3,6,75,66,36,-12,9,40
1491695870345,1,9,3,-9,60,-37,95,17,-9
1491695870345,1,-15,-82,-59,-71,-54,-8,11,11
1491695870346,2,9,87,100,55,80,-17,-39,-53
1491695870346,2,-1,-11,55,53,29,116,-1,-78
1491695870391,3,13,-29,3,9,107,2,11,69
1491695870391,3,7,39,-40,-28,-9,-45,4,-12
1491695870392,0,-10,-63,-9,41,34,18,-13,-1
1491695870392,0,-8,7,8,-63,-30,-85,-41,24
1491695870395,1,-7,3,11,75,-5,-25,2,-42
1491695870395,1,-16,7,-22,-78,-47,46,-4,-15
1491695870396,2,1,-3,44,36,53,26,26,-2
1491695870396,2,-10,17,-9,-16,20,23,15,11
1491695870439,3,-5,-48,-65,1,-43,-80,-56,-6
1491695870439,3,0,20,87,37,-5,54,-5,34
1491695870440,0,-11,19,67,33,-10,75,38,-15
1491695870440,0,7,-36,-89,-14,44,24,20,78
1491695870441,2,8,43,79,71,74,42,-4,47
1491695870441,2,-11,-37,-25,15,81,44,10,-31
1491695870442,3,-2,26,53,-12,-45,-57,0,34
1491695870442,3,2,8,94,106,113,-59,-4,-13
1491695870488,0,-15,-45,-128,-109,-104,39,6,34
1491695870488,0,-3,-22,-22,-52,-43,-59,-29,1
1491695870489,1,-3,53,68,81,5,26,-6,-47
1491695870489,1,-3,10,-52,-41,13,4,15,6
1491695870489,3,-12,-9,-22,59,29,-88,-38,23
1491695870489,3,3,33,101,83,-56,68,-15,-40
1491695870490,0,-3,-32,-128,-20,63,-48,1,-41
1491695870490,0,11,-2,-101,-88,49,-9,-8,68
1491695870537,1,-11,23,86,-16,-72,-38,-1,22
1491695870537,1,0,-2,-25,-72,78,-103,-3,-5
1491695870538,2,-9,-16,67,-14,-70,88,9,-4
1491695870538,2,-14,-16,-39,111,43,47,-12,-52
1491695870539,0,9,27,127,57,15,-23,0,-44
1491695870539,0,3,-23,-36,40,83,55,27,45
1491695870539,1,0,20,-6,-46,-65,-9,-4,-35
1491695870539,1,-5,-14,-67,-7,11,40,3,-21
1491695870586,2,-7,-27,38,86,-93,-84,-22,28
1491695870586,2,1,30,97,-12,59,13,-9,-10
1491695870587,3,-7,-20,-67,-41,84,24,0,5
1491695870587,3,-5,-13,80,43,82,61,6,-3
1491695870588,1,-46,-46,-67,-123,-49,-56,-30,-16
1491695870588,1,24,36,64,-85,93,-14,-18,-55
1491695870588,2,7,-9,15,64,127,96,29,11
1491695870588,2,24,59,89,-4,23,15,2,-8
1491695870635,3,6,16,77,41,61,42,20,-18
1491695870635,3,-21,-74,-66,61,-120,-20,-12,9
1491695870638,0,2,26,-25,-33,-32,-108,-2,65
1491695870638,0,-5,-4,-94,-64,-128,30,-5,-32
1491695870638,2,17,-30,-128,-128,-93,8,20,61
1491695870638,2,-12,-7,85,22,37,5,-18,-27
1491695870639,3,12,0,-31,-38,48,-17,34,38
1491695870639,3,-22,16,111,-45,60,27,2,0
1491695870683,0,10,-25,-115,16,-55,-36,2,-16
1491695870683,0,-22,-6,-36,-70,29,-30,-15,-21
1491695870685,1,17,10,89,126,-72,5,-4,1
1491695870685,1,1,26,-27,-62,40,19,2,63
1491695870686,3,-12,-12,-33,21,-42,27,-9,-52
1491695870686,3,-5,5,63,66,-65,-15,16,41
1491695870687,0,-16,27,-76,-76,-41,30,-15,-73
1491695870687,0,-27,-22,-28,-67,99,20,-4,-19
1491695870732,1,45,-19,27,7,-108,-84,18,49
1491695870732,1,-6,19,65,56,64,-40,-13,-73
1491695870734,2,0,-5,-36,-42,44,67,3,75
1491695870734,2,-16,-20,4,2,-33,-53,-3,6
1491695870735,3,-20,20,-50,-28,80,58,1,-2
1491695870735,3,3,-35,10,0,30,-85,-19,-31
1491695870736,0,9,22,51,127,127,127,17,13
1491695870736,0,10,31,53,63,-100,-80,-5,-10
1491695870781,1,-1,0,-90,-75,-54,36,-3,17
1491695870781,1,-10,-26,-83,-85,-96,91,6,-73
1491695870783,2,-5,9,-62,-122,108,-128,-34,-24
1491695870783,2,-3,0,39,69,-93,45,2,6
1491695870784,0,-30,-56,21,-82,-37,27,-1,36
1491695870784,0,40,25,10,-77,27,-53,22,11
1491695870785,1,-8,4,79,63,2,-18,5,-29
1491695870785,1,-15,-8,58,19,-25,-3,-9,25
1491695870830,2,15,50,19,114,127,27,4,-48
1491695870830,2,4,-20,-33,-66,-104,2,11,2
1491695870832,3,-30,-28,-34,-38,124,-62,-45,-54
1491695870832,3,20,-6,-39,-59,-103,83,41,33
1491695870834,1,30,3,-116,-101,-124,103,41,77
1491695870834,1,-23,-11,-20,1,2,-56,-29,-60
1491695870835,2,-8,-46,-79,-36,-97,-78,-19,4
1491695870835,2,18,24,83,59,49,1,-18,67
1491695870879,3,-2,-5,-25,95,-5,-19,-3,-29
1491695870879,3,-22,3,-19,-34,-9,2,21,12
1491695870880,0,7,-21,11,-8,-39,82,5,8
1491695870880,0,-6,-3,-69,-112,127,-25,7,51
1491695870881,2,-6,-18,-34,-6,-5,-8,-16,-12
1491695870881,2,4,29,106,-9,29,-39,-8,-38
1491695870927,3,-16,-30,-108,-46,24,15,2,-19
1491695870927,3,-14,-42,-6,16,-17,10,-20,-58
1491695870976,0,23,14,79,101,29,16,26,97
1491695870976,0,-8,-11,-103,-64,-84,56,-8,-1
1491695870979,1,3,13,12,-86,100,25,1,-18
1491695870979,1,2,20,75,89,-75,-113,-8,14
1491695870980,3,-1,1,-15,11,51,-6,5,-29
1491695870980,3,-13,-2,90,97,126,-39,-19,33
1491695870981,0,-8,-4,-17,-62,24,5,-5,18
1491695870981,0,-7,-6,15,19,1,-43,8,-13
1491695871025,1,21,7,-75,-84,-31,-10,-18,-13
1491695871025,1,15,3,56,26,-42,58,-6,-40
1491695871027,2,-22,18,69,71,-36,-11,-2,-42
1491695871027,2,-7,-31,-128,-52,-32,-35,-5,17
1491695871028,0,-2,6,111,23,-93,-50,-14,-4
1491695871028,0,2,15,-22,23,60,16,11,2
1491695871029,1,-9,3,8,62,35,60,-12,-5
1491695871029,1,-7,0,-81,-57,-14,30,19,-16
1491695871074,2,-5,-4,-8,-3,25,3,10,-39
1491695871074,2,14,85,97,91,-2,-50,-32,50
1491695871076,3,13,-33,-5,10,32,24,13,48
1491695871076,3,-11,-15,-128,-128,-109,-1,11,79
1491695871077,1,23,75,95,-10,-76,-82,-26,26
1491695871077,1,-8,-16,88,94,80,78,-20,-98
1491695871078,2,-23,-1,-52,-11,-67,-106,11,17
1491695871078,2,-20,-13,-62,-48,57,43,2,-60
1491695871171,3,11,0,17,-2,95,-2,11,-23
1491695871171,3,9,-8,-91,-51,3,-98,-40,35
1491695871173,0,-24,-3,88,66,98,117,-1,-100
1491695871173,0,43,-3,33,81,-40,78,40,116
1491695871174,2,2,-11,-3,-16,-22,42,-27,-20
1491695871174,2,-9,-14,-71,-22,-45,-36,-3,-20
1491695871220,3,-4,-22,38,104,-14,9,-20,-31
1491695871220,3,18,14,-24,-9,30,40,21,84
1491695871222,0,1,17,22,-78,91,6,20,-7
1491695871222,0,-12,-43,-55,-33,48,-5,4,73
1491695871223,1,9,52,109,84,43,-82,-28,-33
1491695871223,1,-6,-1,-89,-13,-18,1,10,39
1491695871224,3,-6,9,-76,-100,-58,-47,-13,-17
1491695871224,3,5,-29,-3,-19,-49,-33,-6,-40
1491695871269,0,-34,-27,-128,-119,-114,-72,-62,-19
1491695871269,0,29,-8,36,-1,-10,67,31,11
1491695871271,1,-8,18,92,34,10,7,-7,26
1491695871271,1,5,38,108,127,106,37,35,28
1491695871272,2,8,-30,-34,-59,10,-106,-10,27
1491695871272,2,-22,-31,-94,-98,-86,-20,-68,-49
1491695871273,1,8,-19,-87,-66,-52,-45,-8,27
1491695871273,1,-4,16,66,66,-1,32,-2,-34
1491695871317,2,0,4,-43,-34,-39,-82,-18,-14
1491695871317,2,41,-18,-36,-42,26,99,41,107
1491695871368,3,-31,45,81,80,66,2,-32,-65
1491695871368,3,-6,-16,-33,-118,-32,-27,9,39
1491695871370,2,-9,22,127,15,62,72,-27,-13
1491695871370,2,-16,8,-105,64,15,-27,-15,9
1491695871371,3,32,-17,-3,-89,63,127,59,57
1491695871371,3,1,-7,87,70,96,34,0,-23
1491695871378,0,-1,-52,-19,-28,-125,44,5,63
1491695871378,0,-2,66,14,-117,56,-89,-10,-49
1491695871415,1,-1,-13,15,127,-6,-25,-11,13
1491695871415,1,13,46,39,46,-27,-113,3,98
1491695871417,3,-5,-15,-40,-128,12,-91,-49,-38
1491695871417,3,10,2,-128,0,127,90,54,63
1491695871418,0,-39,-12,127,127,-111,-34,-8,20
1491695871418,0,-21,-18,-58,-52,-60,-59,-15,-25
1491695871419,3,-7,-17,9,-87,88,98,10,42
1491695871419,3,-7,0,-35,71,23,-29,-11,-66
1491695871467,0,2,-19,-115,-128,127,-59,-13,-3
1491695871467,0,36,59,90,110,-19,24,49,54
1491695871468,1,-12,-28,-24,4,81,-70,-52,-46
1491695871468,1,-8,22,114,45,-98,90,43,-42
1491695871469,0,-28,-21,79,87,10,-109,-9,-17
1491695871469,0,17,57,35,83,99,-68,-22,-73
1491695871470,1,34,29,-77,-68,91,127,112,40
1491695871470,1,-2,-24,-46,-12,-9,-67,-5,10
1491695871512,2,-29,-11,15,21,-123,-45,0,-28
1491695871512,2,-1,7,8,110,36,28,-17,48
1491695871513,3,4,-42,-83,-99,-44,-117,4,-34
1491695871513,3,-19,-55,-87,-3,-99,-45,-69,-62
1491695871514,1,41,25,84,116,-117,51,-3,76
1491695871514,1,26,36,58,27,127,-93,-33,-85
1491695871515,2,-9,-11,-69,-111,-120,91,35,-37
1491695871515,2,-45,-77,-57,-113,-100,-53,-86,-12
1491695871561,3,5,35,110,116,108,-28,11,14
1491695871561,3,-11,-7,38,-128,-28,39,-31,14
1491695871562,0,11,18,74,52,126,-93,1,-1
1491695871562,0,2,-30,-30,61,-41,96,34,-27
1491695871563,2,2,-32,-116,-128,-65,-119,-18,-61
1491695871563,2,30,126,103,79,121,25,26,60
1491695871564,3,-33,-69,-47,-30,-128,-58,-71,-58
1491695871564,3,-22,-19,98,85,94,42,18,-29
1491695871609,0,18,33,-76,-97,-22,-65,-13,-2
1491695871609,0,1,-70,-106,-128,-105,70,56,61
1491695871611,1,-22,31,87,106,127,111,29,-24
1491695871611,1,15,12,44,-15,64,-100,6,-17
1491695871612,3,-2,-27,-49,96,22,81,29,-35
1491695871612,3,-39,-89,-50,-128,-128,-64,-23,-32
1491695871612,0,23,-14,-46,-21,113,76,17,41
1491695871612,0,-39,-69,-46,-110,-86,-109,-53,-49
1491695871658,1,2,23,60,39,23,1,-6,9
1491695871658,1,2,25,-13,-85,-77,-44,-28,29
1491695871660,2,-10,0,-67,-49,34,41,-5,-17
1491695871660,2,5,12,127,96,99,105,18,-34
1491695871660,0,-9,16,-77,-86,50,79,-18,16
1491695871660,0,23,14,96,69,97,48,39,3
1491695871661,1,4,-49,-128,-103,-67,-12,-5,12
1491695871661,1,-52,-51,-87,-74,-44,-98,-40,-16
1491695871707,2,5,-17,88,82,-100,77,7,54
1491695871707,2,6,57,100,88,73,-8,-14,-2
1491695871710,3,7,22,-46,-62,-72,33,-2,18
1491695871710,3,6,-40,-70,18,52,36,28,-31
1491695871711,1,14,35,40,-43,40,61,34,-15
1491695871711,1,2,7,66,77,127,72,5,12
1491695871712,2,1,0,-95,-8,68,-22,5,-32
1491695871712,2,-23,-21,5,-3,-2,-65,-65,16
1491695871756,3,-36,-46,-128,-123,-17,-10,10,-67
1491695871756,3,56,-28,-88,-75,-63,13,7,97
1491695871758,0,4,12,127,127,22,86,53,-27
1491695871758,0,-21,3,-128,-128,-128,-56,-17,-10
1491695871759,1,-19,-4,85,-128,112,-38,-64,7
1491695871759,1,-16,20,127,127,86,87,20,-47
1491695871760,2,14,-45,88,-6,26,-79,-12,50
1491695871760,2,7,-4,-2,-76,-38,26,6,-62
1491695871805,3,11,39,33,87,-31,-6,0,38
1491695871805,3,8,113,98,91,116,60,22,-44
1491695871806,0,19,-5,-114,-103,66,21,9,-54
1491695871806,0,-44,-114,-71,127,-42,-66,-28,-16
1491695871808,2,-24,-74,-88,-6,-82,-57,-26,-62
1491695871808,2,15,31,32,-28,64,-25,-29,20
1491695871809,3,20,35,-53,46,88,-16,27,1
1491695871809,3,2,12,-117,-87,23,12,-20,16
1491695871853,0,-3,2,105,44,-48,-5,4,60
1491695871853,0,18,-30,-88,-58,-44,127,65,33
1491695871855,1,7,78,47,-79,48,13,-19,3
1491695871855,1,-20,-72,-121,82,-97,-98,-13,17
1491695871856,3,25,64,111,63,73,35,-10,45
1491695871856,3,14,-5,-70,-20,12,1,35,42
1491695871857,0,-16,12,59,110,-80,-103,-42,-57
1491695871857,0,1,-17,127,77,16,20,0,15
1491695871902,1,-6,7,-109,-18,-39,-8,-8,-23
1491695871902,1,-6,-67,-20,-111,-100,11,0,-18
1491695871904,2,11,56,71,11,108,-13,-14,23
1491695871904,2,-36,-45,39,37,23,-39,-22,-35
1491695871905,0,3,29,15,-19,20,16,13,11
1491695871905,0,35,127,71,53,127,18,9,11
1491695871906,1,9,-32,-13,73,-48,-40,-2,-53
1491695871906,1,-53,-74,-53,-96,-100,-52,-35,-13
1491695871951,2,-12,8,37,3,72,79,14,45
1491695871951,2,27,-36,-108,-19,73,26,3,6
1491695871952,3,-1,-17,32,37,-19,-45,-18,16
1491695871952,3,21,92,127,102,32,49,19,-14
1491695871953,1,-17,-9,-28,-56,-36,-103,-5,20
1491695871953,1,23,17,8,30,23,63,-3,-55
1491695871954,2,-28,7,-42,-45,6,55,5,31
1491695871954,2,33,-32,-19,-29,-38,16,-16,-25
1491695872000,3,-19,-29,47,49,-15,-14,8,48
1491695872000,3,24,67,18,20,20,-107,-32,-49
1491695872001,0,4,17,7,-52,22,80,29,-28
1491695872001,0,-11,-81,-39,24,-19,12,-2,3
1491695872003,2,33,36,-21,-11,-98,-34,-16,-13
1491695872003,2,-22,13,68,38,48,-5,2,14
1491695872004,3,24,-36,-33,-5,10,-19,-25,-2
1491695872004,3,-4,8,40,46,76,58,31,3
1491695872048,0,27,9,-8,-2,65,7,24,13
1491695872048,0,-28,19,5,18,-69,94,-28,-22
1491695872050,1,6,25,8,13,16,-9,10,-37
1491695872050,1,-18,-44,-26,-22,18,-68,-15,13
1491695872051,3,0,-61,-79,-15,-6,54,-5,-29
1491695872051,3,-7,-69,-77,-80,-51,-5,-7,60
1491695872052,0,-30,-7,31,5,5,-13,0,-36
1491695872052,0,-33,7,50,6,8,-20,-4,-30
1491695872097,1,26,69,38,31,122,51,22,-44
1491695872097,1,47,41,61,52,-2,-59,7,78
1491695872099,2,-31,-44,-61,-6,-57,-28,-22,-4
1491695872099,2,8,-15,-49,-22,36,-59,-24,11
1491695872146,0,7,23,35,49,12,39,35,46
1491695872146,0,-31,-16,-55,-2,-24,-12,13,16
1491695872148,1,-15,-54,-12,-75,79,-22,-17,-38
1491695872148,1,20,19,-2,-26,-67,7,20,39
1491695872149,2,5,-17,-38,-10,-83,-44,-10,-82
1491695872149,2,-15,-52,8,-44,45,48,-58,-26
1491695872150,3,-10,43,35,73,22,26,9,50
1491695872150,3,-3,38,23,-26,104,-25,-23,-41
1491695872194,0,-2,6,44,48,-23,-24,17,-1
1491695872194,0,6,-19,-89,-17,12,21,27,-9
1491695872196,1,3,-31,-64,-66,0,27,-1,-8
1491695872196,1,5,31,49,29,-33,-20,-3,16
1491695872197,2,5,2,-21,52,127,32,5,11
1491695872197,2,15,-14,28,-44,-83,3,15,20
1491695872198,1,-15,-43,-46,-85,-106,-12,-18,8
1491695872198,1,-12,-6,-11,-25,4,14,-4,-20
1491695872243,2,6,20,-5,-24,-86,-24,-13,37
1491695872243,2,19,70,47,27,17,-59,7,21
1491695872244,3,-12,22,66,83,36,-12,1,-58
1491695872244,3,3,-24,-32,-20,95,69,14,56
1491695872245,2,0,15,-9,11,-6,-9,-1,0
1491695872245,2,1,-18,-28,-11,-11,-3,-3,-8
1491695872246,3,25,40,127,47,40,56,24,24
1491695872246,3,-3,-20,-102,21,-94,-23,-12,-6
1491695872292,0,-14,-47,-90,-84,-41,-27,0,6
1491695872292,0,-2,46,20,-61,7,25,11,-7
1491695872293,1,-10,-62,9,10,-41,-46,1,9
1491695872293,1,7,74,100,54,97,24,11,-30
1491695872294,3,7,30,1,6,-2,-6,16,0
1491695872294,3,-19,-23,-31,8,53,55,22,-36
1491695872296,0,-8,-13,-3,6,88,-19,-27,30
1491695872296,0,3,23,54,25,-15,61,8,6
1491695872341,1,8,39,15,1,-43,-76,5,0
1491695872341,1,2,41,30,19,-18,-20,-1,-30
1491695872342,2,-16,-39,-20,11,46,-18,-27,-56
1491695872342,2,-12,-55,-85,-80,-46,21,-4,-41
1491695872342,0,0,36,70,5,71,57,-7,-46
1491695872342,0,7,-23,-25,32,127,37,10,2
1491695872343,1,-14,30,-6,-14,63,-40,-27,-44
1491695872343,1,-4,-3,94,81,-60,2,7,-4
1491695872389,2,20,-44,-25,-33,83,81,32,51
1491695872389,2,-3,34,-22,-57,-20,-103,-8,-35
1491695872390,3,-5,-13,-52,17,125,39,2,25
1491695872390,3,4,46,74,27,12,16,16,-33
1491695872391,1,-29,40,25,24,-111,-73,20,-10
1491695872391,1,-29,-87,-40,0,58,-17,-30,-3
1491695872392,2,11,57,96,23,3,10,12,-7
1491695872392,2,-9,-7,-19,70,81,-53,-2,-18
1491695872438,3,26,-87,9,15,-44,26,-9,26
1491695872438,3,-17,40,78,52,-2,53,-9,30
1491695872440,0,-12,14,-40,-91,-7,-27,26,2
1491695872440,0,3,-7,-45,-55,-79,-12,4,66
1491695872441,2,-20,84,3,-21,127,-4,-38,-11
1491695872441,2,-15,-22,14,33,63,10,1,-17
1491695872442,3,2,70,-32,16,80,67,2,58
1491695872442,3,20,-30,47,71,83,23,38,14
1491695872487,0,30,14,20,37,-37,-29,-19,-46
1491695872487,0,15,-61,-77,-74,-10,-6,32,57
1491695872488,1,-62,-27,18,42,-66,-73,-69,-43
1491695872488,1,14,-93,-6,24,-63,39,-26,-49
1491695872488,2,-19,37,45,-8,-27,-4,23,-30
1491695872488,2,-9,27,127,108,25,-9,-2,-6
1491695872489,3,3,-77,-128,-128,-75,29,-53,-1
1491695872489,3,14,127,59,59,71,-61,42,3
1491695872536,0,-45,-128,84,74,-29,-44,-43,-16
1491695872536,0,-1,124,127,42,5,8,13,79
1491695872537,1,-15,-31,-2,-10,-128,33,24,-23
1491695872537,1,-18,2,-128,-128,73,44,-47,-37
1491695872539,3,71,24,31,50,-128,-70,14,100
1491695872539,3,-12,21,57,53,54,43,-13,-46
1491695872540,0,9,-40,-128,-62,-64,-91,19,-42
1491695872540,0,-22,19,59,97,-22,9,-57,-25
1491695872585,1,11,2,67,10,102,48,19,-4
1491695872585,1,16,-60,51,50,1,26,14,17
1491695872586,2,-1,6,-8,-76,19,35,-10,-40
1491695872586,2,22,21,-89,-13,-104,-93,21,91
1491695872588,0,-27,-63,127,49,-73,-90,-43,-24
1491695872588,0,-2,35,-46,-75,72,-89,-13,-26
1491695872588,1,-6,-3,4,-20,91,24,12,-26
1491695872588,1,-28,-22,-52,54,-101,-41,2,1
1491695872633,2,6,1,-72,-75,50,-21,-23,46
1491695872633,2,-2,-62,110,46,23,50,23,-103
1491695872635,3,4,56,67,23,83,11,21,63
1491695872635,3,-4,-3,-6,-91,34,-10,-32,-87
1491695872637,1,-37,31,-74,-56,-25,32,-8,-122
1491695872637,1,0,-35,-66,-56,-102,-11,2,24
1491695872638,2,-13,4,19,14,-12,98,23,5
1491695872638,2,12,47,53,-124,41,-43,-50,-36
1491695872682,3,26,-76,12,123,24,33,52,11
1491695872682,3,-21,6,-108,-16,-86,-54,1,26
1491695872684,0,-26,19,83,23,54,63,-24,-68
1491695872684,0,24,29,-82,-24,13,-10,14,-42
1491695872686,2,-19,-69,-20,17,3,-18,-8,-31
1491695872686,2,21,16,-7,18,32,87,37,1
1491695872687,3,-24,18,16,1,-55,-10,-24,-28
1491695872687,3,53,31,110,40,88,43,51,124
1491695872731,0,5,17,7,61,-6,-43,-4,-9
1491695872731,0,-75,-38,-83,-18,97,4,-67,-111
1491695872731,1,52,2,-44,-42,-101,18,34,72
1491695872731,1,-8,-11,49,24,47,26,-27,-34
1491695872732,3,-25,-10,36,93,100,46,10,30
1491695872732,3,11,-20,-89,-69,-15,-17,3,34
1491695872733,0,17,11,-50,-111,113,-31,0,57
1491695872733,0,1,26,40,28,-122,29,3,42
1491695872779,1,-10,-8,18,18,-68,-3,-10,-9
1491695872779,1,2,118,72,62,49,-56,-24,-96
1491695872828,2,8,-62,76,20,111,-15,-18,35
1491695872828,2,36,38,-58,-50,-48,73,62,14
1491695872879,0,54,10,-38,-6,-11,33,13,32
1491695872879,0,-25,44,55,55,52,-20,-45,-31
1491695872880,1,64,26,49,18,127,61,18,-2
1491695872880,1,-55,11,-85,-128,-89,-128,-35,-128
1491695872881,2,2,39,-11,74,-119,60,3,121
1491695872881,2,12,-94,-74,-63,-21,39,-26,-13
1491695872882,3,-48,-8,-56,-46,68,3,20,3
1491695872882,3,56,37,39,10,6,92,20,49
1491695872975,0,-2,7,42,81,24,36,41,52
1491695872975,0,15,21,52,38,39,-19,6,72
1491695872976,1,-14,20,-5,-44,-11,-32,-14,-105
1491695872976,1,8,-5,44,92,63,-9,-21,20
1491695872977,1,-6,3,22,-14,-7,14,-36,-7
1491695872977,1,13,33,22,36,82,20,24,10
1491695872977,2,-40,-4,30,-11,-98,19,0,-81
1491695872977,2,7,-35,64,117,85,-57,-4,-89
1491695873023,3,7,93,-73,-68,58,21,9,34
1491695873023,3,24,-98,68,77,-56,-2,-2,-27
1491695873024,0,-8,24,-108,-128,50,-67,-2,97
1491695873024,0,-48,-39,18,-17,-112,-61,-45,-27
1491695873024,3,-11,-6,48,-12,-60,-114,-19,21
1491695873024,3,-2,16,7,17,-8,78,21,28
1491695873025,0,35,13,-73,51,23,9,48,127
1491695873025,0,-29,-60,-74,-99,-102,-2,-5,-70
1491695873072,1,-59,-50,-59,-72,47,-10,-59,-47
1491695873072,1,47,77,96,75,19,-15,19,26
1491695873078,2,-31,12,29,-4,-59,-42,-36,-79
1491695873078,2,10,14,25,-2,59,87,24,-55
1491695873078,1,-5,-41,-98,-102,-88,62,-17,-42
1491695873078,1,-32,6,5,51,16,-21,26,-4
1491695873079,2,-5,-28,-36,-100,-88,-68,-15,-28
1491695873079,2,24,10,-56,-5,74,-95,1,7
1491695873121,3,2,-3,69,25,49,-1,28,72
1491695873121,3,-29,6,4,28,-113,28,-2,-90
1491695873122,0,5,-16,76,90,36,12,5,-31
1491695873122,0,-4,73,-68,-77,50,72,-48,27
1491695873122,2,8,-3,22,-52,21,-43,-9,-33
1491695873122,2,-2,-63,44,71,-21,92,29,-22
1491695873123,3,-7,92,-1,30,117,43,-12,10
1491695873123,3,8,-45,55,-17,24,-80,13,27
1491695873170,0,-40,-65,-78,-73,-40,78,-17,-21
1491695873170,0,7,-11,-10,32,-104,-59,-38,-63
1491695873172,1,12,33,-3,46,-61,64,25,-10
1491695873172,1,-9,-32,-125,-128,127,14,-34,-15
1491695873173,3,7,44,105,85,-28,-29,11,88
1491695873173,3,7,-17,-2,-38,-19,60,24,-44
1491695873174,0,0,-27,-75,-59,106,-10,-49,-32
1491695873174,0,-2,78,119,91,78,85,62,107
1491695873218,1,6,-53,-127,-66,-126,-97,-36,-46
1491695873218,1,-15,30,-110,-97,45,97,-4,59
1491695873221,2,67,1,82,37,-52,108,82,25
1491695873221,2,-29,-39,-87,-12,-15,-68,-2,17
1491695873222,3,30,26,-11,34,82,-45,4,-63
1491695873222,3,-61,-66,91,117,-101,52,-17,22
1491695873223,0,24,78,71,-8,78,-3,-15,8
1491695873223,0,5,-11,77,24,86,29,40,27
1491695873267,1,20,-31,-3,-98,-80,-13,6,42
1491695873267,1,-6,-56,-90,-62,-112,-116,-39,-18
1491695873269,2,-24,42,-11,61,109,32,-31,-59
1491695873269,2,22,4,52,-16,-35,-93,-17,0
1491695873270,0,-37,-20,-39,78,-124,99,-4,24
1491695873270,0,-9,3,34,115,31,-58,12,38
1491695873271,1,1,-15,-41,-44,0,-48,-7,-50
1491695873271,1,-5,-10,-8,-91,-42,-34,9,62
1491695873316,2,-10,14,30,-23,127,-48,-35,-19
1491695873316,2,35,35,66,82,9,-25,31,-29
1491695873317,3,-21,-17,2,-54,-11,15,-29,-66
1491695873317,3,20,6,109,91,80,55,30,66
1491695873318,1,-23,-44,-78,-80,-44,9,22,29
1491695873318,1,-21,13,-11,-78,59,-101,-22,-88
1491695873319,2,-17,3,109,85,-13,-26,-50,-61
1491695873319,2,45,-6,80,13,54,127,77,89
1491695873413,3,2,42,-40,-75,-24,-53,-4,29
1491695873413,3,-10,-58,82,89,-90,12,-17,-7
1491695873415,0,-48,-14,13,-71,63,-84,-29,-68
1491695873415,0,-19,-63,-128,-128,3,-30,-4,-9
1491695873416,2,10,19,127,127,89,3,-14,-86
1491695873416,2,-6,8,-106,-128,-99,2,12,71
1491695873417,3,-32,-44,76,-82,-19,48,20,-50
1491695873417,3,-15,21,14,72,127,34,-11,-42
1491695873462,0,31,-42,73,-67,-72,47,30,65
1491695873462,0,-7,18,59,-114,-29,-120,-58,-41
1491695873463,1,15,12,42,127,87,101,32,12
1491695873463,1,-19,-60,-16,-128,-96,2,-3,22
1491695873464,3,32,77,96,55,48,-2,-4,48
1491695873464,3,1,22,-91,-79,46,-9,-14,-14
1491695873467,0,-20,21,85,-40,127,40,-1,-11
1491695873467,0,20,18,-23,17,75,-42,21,72
1491695873511,1,10,46,78,43,90,1,8,-44
1491695873511,1,13,57,-73,53,97,-49,2,-11
1491695873559,2,3,-108,-41,-17,39,58,-7,-42
1491695873559,2,-17,6,12,26,-82,-89,-45,39
1491695873560,1,-8,-18,53,37,-128,-39,-23,1
1491695873560,1,-16,-9,67,127,127,80,14,-25
1491695873561,2,12,26,-26,-84,89,-49,6,6
1491695873561,2,2,31,-10,-112,-128,41,21,-38
1491695873562,3,1,-44,89,121,127,30,-24,60
1491695873562,3,-2,7,-84,-116,-66,68,8,-64
1491695873608,0,-15,6,54,-29,-47,-27,-14,38
1491695873608,0,13,-43,-87,-113,18,-87,14,80
1491695873609,1,-30,-6,-119,-128,-72,-67,-17,-20
1491695873609,1,47,69,100,100,102,-26,-1,-1
1491695873609,2,-17,-47,-98,-116,-106,16,-3,12
1491695873609,2,-23,-33,-47,84,69,51,12,-34
1491695873610,2,66,93,124,116,127,-3,27,80
1491695873610,2,4,-1,12,-87,-128,27,13,-39
1491695873657,3,-10,-18,-35,127,-29,6,2,-2
1491695873657,3,-27,-60,24,-36,-35,9,-11,19
1491695873658,0,-22,-38,-20,39,85,10,-8,-43
1491695873658,0,18,2,31,-27,61,30,-2,41
1491695873658,3,6,-24,17,-59,35,27,16,43
1491695873658,3,-9,-9,-57,34,-15,-41,-17,-24
1491695873659,0,-23,-43,-112,-57,7,-37,-13,-12
1491695873659,0,-13,4,38,47,72,-20,-4,-25
1491695873706,1,18,9,20,-85,89,0,2,-7
1491695873706,1,21,32,79,-47,42,50,16,-37
1491695873707,2,23,83,95,-7,25,-50,17,-16
1491695873707,2,-8,-53,-99,49,-72,41,7,-29
1491695873708,0,6,25,12,-31,32,45,8,0
1491695873708,0,30,63,123,42,127,32,36,4
1491695873709,1,1,-2,-60,127,-31,27,4,-11
1491695873709,1,-39,-28,-72,-128,-58,-78,-36,-9
1491695873755,2,14,-47,-128,33,-121,-59,-4,36
1491695873755,2,-24,-38,65,62,7,-52,-36,-15
1491695873757,3,21,92,122,113,113,34,18,2
1491695873757,3,22,60,119,13,127,17,20,0
1491695873759,1,-12,-65,-28,-49,73,31,-23,-8
1491695873759,1,6,4,-47,44,-61,-71,-13,16
1491695873760,2,7,122,110,37,83,106,-11,-67
1491695873760,2,15,-14,-128,-103,50,-28,25,10
1491695873803,3,-18,-35,-4,-7,-84,92,-6,-15
1491695873803,3,30,63,-31,-67,-31,-41,25,8
1491695873805,0,-57,-128,-128,-61,-108,-128,-60,-23
1491695873805,0,-40,-55,127,-80,-99,-20,-27,-20
1491695873806,2,10,62,115,127,110,19,21,67
1491695873806,2,34,-17,-88,-99,-56,39,7,18
1491695873808,3,-13,-14,-32,-123,-117,-124,-18,-17
1491695873808,3,-2,-13,19,80,-35,9,-5,-3
1491695873852,0,8,51,-11,10,127,42,22,13
1491695873852,0,8,10,-52,-40,84,5,10,-39
1491695873854,1,-28,-88,-66,46,-104,-101,-31,27
1491695873854,1,-27,-42,-21,-20,78,-15,-21,-14
1491695873855,3,12,-24,55,53,-26,8,21,27
1491695873855,3,-16,-21,-3,79,83,2,-4,-48
1491695873856,0,25,26,-4,-15,-71,49,14,41
1491695873856,0,6,55,108,127,73,38,9,-51
1491695873901,1,17,-24,-83,-81,-80,-73,1,46
1491695873901,1,-31,-81,54,41,8,39,-15,17
1491695873903,2,13,58,-93,-128,-8,-15,6,5
1491695873903,2,-66,-119,-124,-26,-128,-102,-19,-13
1491695873904,3,13,97,127,42,127,20,-1,-38
1491695873904,3,21,-39,-91,-90,-111,35,-1,31
1491695873905,0,-5,-10,127,60,-32,-48,5,39
1491695873905,0,13,45,52,107,78,13,18,21
1491695873950,1,-13,-34,111,11,110,42,5,-18
1491695873950,1,19,104,-71,62,127,32,4,34
1491695873952,2,20,-16,80,120,-35,-88,-19,-46
1491695873952,2,-20,-15,25,-116,-128,95,11,39
1491695873953,0,-22,-42,-127,-11,100,10,-1,-3
1491695873953,0,-26,-39,37,80,70,-42,-18,-11
1491695873954,1,26,92,76,97,-38,34,7,5
1491695873954,1,-23,-79,-10,-61,-62,14,-12,-4
1491695873998,2,34,116,127,71,123,75,22,-3
1491695873998,2,14,2,-42,-85,-92,-60,-1,-86
1491695874000,3,-56,-61,-128,-110,-38,98,-4,44
1491695874000,3,41,93,54,-36,-128,-15,-43,-6
1491695874001,1,5,-84,-87,-55,-74,-86,-26,-9
1491695874001,1,-60,-51,-74,92,42,-72,6,-32
1491695874002,2,-19,28,-7,7,54,16,-23,20
1491695874002,2,36,-6,19,127,100,-1,-1,9
1491695874047,3,28,115,127,72,94,-9,32,12
1491695874047,3,21,-106,-51,4,76,68,2,61
1491695874049,0,-24,-31,-93,-77,17,-13,9,-93
1491695874049,0,20,-15,8,-3,-37,-75,-24,-5
1491695874050,2,-17,-44,24,26,-128,-56,-11,-20
1491695874050,2,-34,-11,83,96,22,-12,-5,-4
1491695874051,3,12,9,11,127,-109,-89,-8,-14
1491695874051,3,17,9,-80,127,92,16,7,-34
1491695874097,0,15,57,-37,45,64,-2,5,44
1491695874097,0,-3,28,-102,-32,-5,-42,5,28
1491695874099,1,-13,41,2,16,94,39,-32,18
1491695874099,1,-32,-65,-31,-82,16,15,38,-42
1491695874100,3,17,22,17,-58,-19,60,25,30
1491695874100,3,-17,2,-3,-109,73,18,8,-29
1491695874101,0,24,-13,-33,-96,-74,-96,0,42
1491695874101,0,-11,-31,-101,-24,-83,34,-18,-2
1491695874193,1,-12,0,-49,-120,72,22,7,30
1491695874193,1,7,-6,7,59,-74,-45,13,-31
1491695874195,2,23,-26,74,-114,30,6,27,26
1491695874195,2,-12,9,10,-88,-3,3,-5,31
1491695874196,0,-27,-65,-13,17,43,-7,-9,9
1491695874196,0,4,-46,19,14,-95,29,-9,10
1491695874197,1,5,-22,-103,-70,-73,13,17,-65
1491695874197,1,-10,78,102,36,-7,28,14,-27
1491695874242,2,-14,1,14,67,83,4,-14,-27
1491695874242,2,8,-10,10,-50,-105,29,7,28
1491695874244,3,-12,-32,3,-66,-8,-27,-12,-4
1491695874244,3,15,16,50,28,49,3,4,-22
1491695874245,1,19,-46,-37,21,59,34,10,56
1491695874245,1,-4,-24,-37,-105,-69,-33,-19,-1
1491695874246,1,-1,44,48,88,93,60,52,24
1491695874246,1,13,-5,59,25,-13,7,12,17
1491695874291,2,-10,-6,-25,-116,-79,-3,-15,7
1491695874291,2,6,-13,-53,10,22,-72,-1,-38
1491695874293,3,11,-13,-26,52,8,21,10,-31
1491695874293,3,-7,-27,8,4,-18,-32,-8,-31
1491695874294,2,-5,48,-63,96,87,70,10,-35
1491695874294,2,-45,-80,-29,-92,-101,-70,-55,9
1491695874295,3,-19,7,-47,-46,127,-20,7,-1
1491695874295,3,16,-11,-8,-17,2,-52,-14,29
1491695874340,0,-10,52,118,109,59,63,7,-56
1491695874340,0,7,-1,-81,-58,-75,-15,-3,2
1491695874342,1,-17,-43,-34,-93,63,40,-5,-38
1491695874342,1,-28,-21,-42,-53,-53,-35,-13,-9
1491695874343,3,-2,65,-19,-61,-76,-56,-12,-50
1491695874343,3,-4,-18,-16,-104,-36,-14,-19,19
1491695874344,0,10,-15,-93,11,19,50,28,74
1491695874344,0,-32,-68,-59,-50,-109,-92,-38,-52
1491695874388,1,8,23,120,55,61,45,-7,1
1491695874388,1,25,9,53,45,5,-10,16,-11
1491695874390,2,8,39,25,47,63,74,3,17
1491695874390,2,-3,-14,34,-60,-12,-5,-3,-3
1491695874392,0,3,8,-62,-10,55,26,3,-23
1491695874392,0,9,10,55,66,24,56,16,-3
1491695874393,1,-10,16,-30,-20,-36,29,-3,6
1491695874393,1,-14,-36,-51,-28,-57,1,-13,11
1491695874437,2,-5,-13,32,-57,-43,-35,-10,13
1491695874437,2,20,48,-16,-76,127,38,32,57
1491695874438,3,-21,0,55,7,-39,-77,-26,-37
1491695874438,3,-12,-56,-38,127,71,38,-22,-39
1491695874439,1,15,-4,12,67,-19,-24,7,-15
1491695874439,1,-21,49,-20,-2,-86,-40,8,3
1491695874440,2,-9,-30,70,-78,-35,85,-2,-21
1491695874440,2,-25,-38,-110,-30,-82,-60,-27,-52
1491695874486,3,21,34,127,25,127,34,25,5
1491695874486,3,2,2,36,126,2,-27,-37,-20
1491695874487,0,-8,-45,-38,-88,-55,-81,-2,-17
1491695874487,0,-24,36,2,-13,-73,35,10,39
1491695874489,2,6,-33,98,74,63,-26,1,12
1491695874489,2,-15,39,-66,-103,-24,-19,10,-35
1491695874490,3,-29,18,-82,-44,-19,7,-22,30
1491695874490,3,27,43,105,48,-56,27,25,19
1491695874534,0,3,-7,-3,15,-45,7,27,33
1491695874534,0,10,-20,127,93,107,15,10,-24
1491695874584,1,9,25,-80,105,-65,-61,23,-13
1491695874584,1,-25,-52,-114,-128,-128,8,1,-9
1491695874586,3,22,43,127,42,127,127,17,30
1491695874586,3,3,8,60,126,108,45,60,5
1491695874587,0,-11,-14,-44,-9,-123,-66,-16,-5
1491695874587,0,-4,-13,-87,-52,-34,-50,-14,-39
1491695874588,1,-12,1,107,81,-21,42,-18,-4
1491695874588,1,23,-36,-105,-87,-12,8,20,54
1491695874632,2,-9,26,28,-59,100,15,5,-13
1491695874632,2,-5,-35,-28,89,-93,-8,-16,24
1491695874634,0,9,4,13,-22,91,48,4,-62
1491695874634,0,-31,-37,-62,-7,16,-5,-54,12
1491695874635,1,3,-13,18,-29,-120,-60,12,-5
1491695874635,1,1,24,81,-75,95,13,-22,-43
1491695874636,0,-4,25,97,106,-48,-9,6,55
1491695874636,0,29,14,-45,22,127,53,-9,-30
1491695874682,1,14,46,10,-89,-61,5,39,8
1491695874682,1,-24,-70,-103,81,87,74,3,20
1491695874686,2,-24,-67,-67,-116,-128,-91,-60,-27
1491695874686,2,-6,19,97,-3,29,127,-13,3
1491695874688,1,-3,9,43,100,10,-96,-43,-1
1491695874688,1,2,-7,-8,43,11,28,50,46
1491695874690,2,46,62,29,103,127,78,26,67
1491695874690,2,-8,-32,-25,0,-128,-57,32,-17
1491695874730,3,-21,17,-52,-123,46,-9,-9,-5
1491695874730,3,-5,-39,109,79,17,-86,-36,22
1491695874733,0,8,98,-7,-46,-39,26,-3,-44
1491695874733,0,14,-38,-27,70,127,81,11,66
1491695874734,2,19,-30,-49,-61,101,28,12,-38
1491695874734,2,-6,20,127,90,98,97,26,-33
1491695874735,3,-17,12,46,69,96,44,-4,-10
1491695874735,3,11,36,-31,-28,-35,-10,3,-89
1491695874827,0,15,1,-81,-61,-47,-58,26,89
1491695874827,0,-10,2,-6,-128,-18,-21,-6,14
1491695874830,1,4,-10,-62,-47,-91,13,-14,-30
1491695874830,1,4,7,44,42,-62,-39,-6,23
1491695874831,3,-8,36,-46,-69,11,-21,-25,-3
1491695874831,3,0,13,-9,82,45,44,30,33
1491695874833,0,-16,5,-12,-48,-32,-15,-19,-20
1491695874833,0,-13,-29,48,-31,8,-44,6,-28
1491695874876,1,-10,-12,0,-26,-46,97,-20,-2
1491695874876,1,57,66,-100,-101,95,13,35,29
1491695874878,2,-17,-32,15,95,-25,33,50,-22
1491695874878,2,19,42,-41,-90,72,63,-9,-7
1491695875023,0,-9,43,117,46,56,56,22,-86
1491695875023,0,26,-9,-73,2,-82,-3,-7,-21
1491695875024,1,58,34,-10,35,127,92,69,127
1491695875024,1,-23,-10,34,24,22,-117,-28,-34
1491695875071,2,-35,-19,11,41,-82,32,-12,70
1491695875071,2,2,14,14,50,-22,-82,0,32
1491695875073,3,-8,-38,30,-43,-1,3,-14,-35
1491695875073,3,-20,-5,-30,32,-27,-29,-8,-82
1491695875074,2,4,-47,-119,-33,108,-48,6,71
1491695875074,2,-8,-1,-71,-20,-17,13,5,34
1491695875075,3,5,-5,36,0,19,-46,-25,-51
1491695875075,3,5,-44,-18,-28,106,42,13,46
1491695875120,0,-19,26,91,41,-128,70,-7,-44
1491695875120,0,22,45,95,31,127,-26,25,32
1491695875122,0,28,-11,35,81,42,-16,-6,6
1491695875122,0,-38,-65,-90,-53,-28,95,31,-22
1491695875123,1,-18,20,45,-124,-73,26,-18,-56
1491695875123,1,18,11,19,77,-72,18,1,75
1491695875124,1,56,-16,-67,-39,119,56,17,11
1491695875124,1,-35,75,60,11,-90,-19,-10,-17
1491695875217,2,-7,-17,24,-28,-8,53,-22,-47
1491695875217,2,9,-3,-31,81,44,-65,-3,-67
1491695875220,3,-20,-3,5,-1,-52,-26,-6,79
1491695875220,3,22,-43,-111,-128,57,59,13,-6
1491695875221,2,4,-58,-32,6,22,85,26,-67
1491695875221,2,-18,28,-50,-121,-69,-65,-7,83
1491695875222,3,30,-1,94,21,79,32,43,49
1491695875222,3,-21,8,-9,-41,-61,0,-36,-57
1491695875266,0,-27,-62,-42,86,127,65,-20,-52
1491695875266,0,10,12,3,-63,-115,-73,-12,-47
1491695875268,1,-8,63,95,92,99,-8,-21,25
1491695875268,1,26,47,21,6,5,102,42,23
