1491088602864,0,-13,-80,-32,-42,-49,-46,-91,-21
1491088602864,0,29,0,8,30,10,-9,95,-7
1491088602866,1,10,2,-4,15,-3,-12,-2,-11
1491088602866,1,8,16,24,19,10,13,72,10
1491088602866,2,-5,20,3,1,7,13,17,2
1491088602866,2,-28,-4,-8,-14,-12,-10,-105,-11
1491088602900,3,-22,-6,-14,-12,-7,-6,4,5
1491088602900,3,-12,-7,1,-18,-5,18,66,-13
1491088602902,0,-2,5,7,7,-1,-2,6,-4
1491088602902,0,16,-4,-5,-16,3,18,19,2
1491088602902,1,32,8,2,0,11,4,-18,0
1491088602902,1,47,-4,-5,-2,-9,-22,-113,-12
1491088602903,2,-8,21,6,12,13,13,61,10
1491088602903,2,-63,4,-1,-4,-5,-12,-79,-12
1491088602938,3,43,-1,-10,-4,-7,4,3,4
1491088602938,3,107,-9,4,-8,4,6,53,17
1491088602939,0,127,-4,3,-5,4,-6,-62,-4
1491088602939,0,68,-2,-10,-10,2,2,16,9
1491088602940,1,-45,-1,-1,3,-2,2,39,-7
1491088602940,1,-128,1,-12,15,-10,-11,2,-12
1491088602977,2,-128,23,10,18,2,-3,20,2
1491088602977,2,-128,0,-9,-2,-7,-8,-11,-6
1491088602977,3,-118,-8,12,3,3,3,12,-2
1491088602977,3,-128,-2,-2,-6,-6,-12,-100,0
1491088602981,0,-118,-6,-11,-8,8,30,101,12
1491088602981,0,-53,-4,9,2,5,3,28,-1
1491088602983,1,-28,-4,-7,-8,-8,-9,-40,-7
1491088602983,1,-8,-3,-4,-10,-6,-4,27,1
1491088603013,2,23,-2,-7,-6,3,1,-37,-5
1491088603013,2,27,1,-8,3,-5,-3,-8,0
1491088603013,3,30,-3,-2,-11,-1,2,-10,-3
1491088603013,3,3,-4,7,3,-3,-8,-57,-6
1491088603014,0,28,-1,-2,5,1,4,5,9
1491088603014,0,48,6,12,9,10,3,48,7
1491088603015,1,39,3,-12,-6,-3,1,25,0
1491088603015,1,53,-8,-4,-2,-5,-2,3,-5
1491088603050,2,47,-5,2,-3,0,-4,4,-5
1491088603050,2,39,-1,1,-3,-7,-22,-97,-6
1491088603051,3,33,5,-1,0,6,17,65,10
1491088603051,3,13,0,0,-5,2,-2,16,2
1491088603052,0,15,4,-2,-1,-1,-2,-42,-12
1491088603052,0,3,-6,-4,-6,1,5,38,0
1491088603053,1,-7,-7,2,-3,-15,-15,-54,-7
1491088603053,1,-4,-4,-10,-9,2,19,75,0
1491088603088,2,-1,1,-5,4,0,-11,-23,-3
1491088603088,2,29,-5,0,4,6,9,-2,1
1491088603089,3,1,-2,-2,3,1,-5,4,-2
1491088603089,3,-8,-4,2,4,3,-8,-9,0
1491088603090,0,-3,5,3,-8,-10,-10,-58,-5
1491088603090,0,-13,-1,-5,2,-6,-2,-3,3
1491088603125,1,-7,-6,-1,-2,1,0,14,-2
1491088603125,1,8,-2,-8,0,-4,3,-9,-1
1491088603128,2,-10,-3,-6,-1,-11,-25,-42,-7
1491088603128,2,12,-2,-9,-8,4,14,55,12
1491088603133,3,-15,-6,12,-2,-1,5,32,-8
1491088603133,3,3,4,-4,4,-2,-25,-38,-1
1491088603139,0,6,-3,2,3,6,12,2,2
1491088603139,0,-8,0,6,-4,-10,-3,1,5
1491088603163,1,8,2,-2,2,-5,-8,-38,-7
1491088603163,1,23,3,-5,-6,9,13,28,-4
1491088603164,2,3,-1,5,9,4,7,45,1
1491088603164,2,-5,-3,-12,-8,-11,-17,-29,-6
1491088603169,3,-7,2,-2,-3,-2,-2,-36,0
1491088603169,3,-9,1,14,9,14,5,2,-1
1491088603170,0,-16,-4,-12,-7,-14,-7,10,0
1491088603170,0,-7,-4,3,7,-8,-5,-16,-3
1491088603201,1,-6,2,-5,1,-4,-5,-43,21
1491088603201,1,2,3,-3,-2,10,15,10,5
1491088603202,2,6,1,8,3,12,1,3,4
1491088603202,2,-16,-5,6,-2,-14,-3,28,-11
1491088603202,3,12,0,-1,0,-1,-9,-6,-5
1491088603202,3,-8,-8,-11,1,-6,-5,-40,-12
1491088603203,0,8,-5,7,-3,2,13,118,-20
1491088603203,0,12,5,2,1,3,-1,-20,-23
1491088603239,1,16,2,9,4,1,-8,-28,-4
1491088603239,1,-1,-1,-2,-7,-5,-3,7,-4
1491088603240,2,-11,0,-6,0,-2,9,8,9
1491088603240,2,0,-2,1,-2,5,4,3,4
1491088603240,3,3,-4,-4,1,-1,-2,-19,-5
1491088603240,3,6,4,1,-1,-11,-13,-72,0
1491088603275,0,-4,1,11,0,-7,-4,49,14
1491088603275,0,-2,-1,-4,1,6,2,-15,-1
1491088603276,1,1,5,2,3,4,7,27,1
1491088603276,1,7,-6,-7,-11,-6,4,29,2
1491088603276,2,-9,-1,-15,-2,10,5,-28,-13
1491088603276,2,6,-4,9,1,-2,3,17,17
1491088603278,3,5,-1,-4,-5,-4,-20,-45,-9
1491088603278,3,1,0,1,-1,-8,-9,-27,10
1491088603313,0,-13,1,5,-7,-1,8,58,-2
1491088603313,0,8,4,-7,-1,7,7,39,7
1491088603313,1,-4,-7,-6,5,-4,-2,-47,-6
1491088603313,1,1,-2,7,4,5,-1,44,3
1491088603314,2,-4,-2,-9,-5,0,-1,-11,0
1491088603314,2,-16,1,-7,1,-5,-11,-81,-8
1491088603315,3,5,-2,4,-10,-11,1,70,1
1491088603315,3,-3,3,-7,-3,-1,3,-3,-3
1491088603350,0,4,-1,-1,2,-7,-21,-95,2
1491088603350,0,-2,3,11,7,8,17,84,4
1491088603351,1,-9,-12,-9,-10,4,3,-27,-6
1491088603351,1,-3,-3,-1,2,10,12,59,4
1491088603351,2,1,-3,5,4,0,-15,-34,-1
1491088603351,2,-13,0,-18,-13,-18,-22,-87,-3
1491088603353,3,-12,-6,1,5,3,9,52,-5
1491088603353,3,3,4,4,9,-2,-4,3,-5
1491088603388,0,12,0,-6,-1,5,8,27,8
1491088603388,0,-3,1,6,0,4,-3,-18,-10
1491088603389,1,-12,-5,0,3,-4,-3,30,6
1491088603389,1,-6,-4,-17,-3,-19,-35,-128,-21
1491088603390,2,5,10,21,15,7,6,-4,14
1491088603390,2,15,-11,-12,-12,15,28,104,3
1491088603425,3,-2,-4,-1,0,4,-4,-20,-7
1491088603425,3,-3,2,-10,-1,-8,-9,-32,-6
1491088603426,0,5,1,9,-3,1,-1,-22,-6
1491088603426,0,-1,-4,-1,-7,-1,1,11,-2
1491088603427,1,-11,-3,-10,-7,-1,4,24,-2
1491088603427,1,-4,-4,3,-1,3,-6,-25,-14
1491088603428,2,13,6,-7,-7,-16,-5,17,0
1491088603428,2,1,-4,6,6,-15,-14,-50,-4
1491088603463,3,14,1,-5,-6,-4,-3,-21,8
1491088603463,3,-8,-1,-2,1,9,19,115,12
1491088603463,0,-3,0,5,-4,-2,6,-8,-10
1491088603463,0,11,3,-2,4,2,2,-5,0
1491088603464,1,9,1,10,6,-3,-19,-44,-10
1491088603464,1,-1,0,-12,-8,-9,-8,-63,-1
1491088603465,2,-7,-5,-8,-2,1,12,39,2
1491088603465,2,-13,-7,-11,-3,-8,-18,3,-2
1491088603501,3,2,7,8,0,7,-1,-73,-6
1491088603501,3,85,-2,1,-7,6,11,96,11
1491088603502,0,8,-7,-4,-2,-1,-10,-21,-5
1491088603502,0,-27,5,3,0,-11,-21,-63,-5
1491088603503,1,-31,1,-10,1,11,19,83,13
1491088603503,1,-34,-7,16,-1,8,4,-12,-3
1491088603504,2,66,0,-4,-1,1,0,30,1
1491088603504,2,127,-3,5,-3,-1,-1,-46,18
1491088603538,3,127,-6,-10,-22,-13,-7,-71,0
1491088603538,3,76,-11,-11,-17,-12,-3,-29,6
1491088603542,0,-30,-5,1,-11,4,3,9,5
1491088603542,0,-93,-3,-6,0,5,0,-18,-18
1491088603543,1,-106,16,15,28,-3,0,3,-10
1491088603543,1,-111,14,6,31,0,-9,77,0
1491088603575,2,-101,2,-7,6,-4,8,64,-8
1491088603575,2,-121,-1,-18,-4,0,6,66,-13
1491088603576,3,-126,-2,19,3,6,11,21,5
1491088603576,3,-128,-4,-6,-8,-10,-15,-57,-9
1491088603577,0,-128,-2,4,1,-5,-12,-35,0
1491088603577,0,-122,-9,-1,-10,-8,2,-8,-1
1491088603578,1,-91,-9,-20,-11,-4,-2,24,-1
1491088603578,1,-48,-2,14,3,-5,-3,-40,6
1491088603613,2,-15,5,1,-5,-5,-7,-61,-5
1491088603613,2,10,-7,-1,4,-2,-8,-18,-2
1491088603614,3,43,7,-1,-5,-2,6,25,6
1491088603614,3,23,-12,-7,-5,-8,-5,16,-13
1491088603615,0,57,-6,-12,-3,1,2,6,-11
1491088603615,0,59,2,6,2,5,5,7,0
1491088603615,1,44,-2,5,-6,-5,-3,39,-5
1491088603615,1,56,0,-9,-5,4,5,16,10
1491088603650,2,50,-2,-1,6,-10,-18,-81,2
1491088603650,2,63,5,3,-4,-2,2,9,6
1491088603651,3,44,-8,-20,-11,0,-5,0,-3
1491088603651,3,27,5,11,0,-1,2,-60,-9
1491088603652,0,22,1,-5,1,-3,0,28,1
1491088603652,0,29,5,21,8,-4,1,39,6
1491088603653,1,17,-4,11,0,-12,-8,-16,4
1491088603653,1,10,-1,-17,-4,6,6,-8,-1
1491088603688,2,10,-6,-13,-3,10,11,18,0
1491088603688,2,8,-6,8,2,-7,-9,-5,-5
1491088603690,3,14,3,-4,-2,0,-5,0,-3
1491088603690,3,-4,0,9,6,0,-9,-63,-8
1491088603691,0,13,-2,-1,-4,3,4,-29,-6
1491088603691,0,2,-1,-11,-1,4,7,49,7
1491088603725,1,6,-3,1,-3,-12,-25,-90,-13
1491088603725,1,19,1,-4,3,-2,12,38,2
1491088603727,2,-4,-7,-4,-9,7,18,107,8
1491088603727,2,0,-2,-1,-5,-1,0,-13,-8
1491088603728,3,12,1,2,6,2,-6,-74,4
1491088603728,3,8,1,-30,-19,2,3,71,3
1491088603729,0,-10,5,35,9,-10,-19,-63,-3
1491088603729,0,-2,0,-10,-8,0,1,-16,-4
1491088603763,1,-2,-4,-5,-1,0,-4,11,7
1491088603763,1,1,-3,14,7,11,16,52,-3
1491088603764,2,4,-5,-9,-11,-18,-22,-25,-6
1491088603764,2,13,1,-13,-3,6,5,-5,0
1491088603765,3,-2,-1,8,5,0,10,45,-1
1491088603765,3,6,0,-3,-5,-11,-12,-30,-4
1491088603766,0,-4,-4,0,9,0,-12,-67,-2
1491088603766,0,13,-2,-5,-6,-2,3,18,-3
1491088603801,1,6,-3,-5,-6,-5,-10,-22,0
1491088603801,1,-1,-4,2,-5,6,17,113,6
1491088603802,2,-1,-3,-12,-1,1,-6,-38,-8
1491088603802,2,-5,2,17,11,-6,-13,-66,4
1491088603803,3,-11,4,2,1,10,19,47,1
1491088603803,3,-28,-2,-4,-7,-12,-18,-64,-11
1491088603804,0,10,-1,-5,4,2,11,22,1
1491088603804,0,0,-4,-5,-7,11,1,27,0
1491088603838,1,-11,1,-10,-11,-7,-10,3,-5
1491088603838,1,-9,0,2,1,-11,-16,-119,-6
1491088603840,2,4,-5,-6,-3,3,15,70,5
1491088603840,2,-3,-8,-21,-6,-2,-2,50,5
1491088603841,3,3,7,16,6,-1,-7,-72,-12
1491088603841,3,7,1,-3,-2,1,6,34,2
1491088603876,0,-7,-5,-9,-3,0,8,48,-1
1491088603876,0,11,4,2,7,6,0,2,-4
1491088603877,1,-7,0,4,10,4,-4,-9,3
1491088603877,1,-12,-7,-6,5,2,-1,-56,-16
1491088603879,2,1,1,4,-11,-6,-5,-9,-2
1491088603879,2,2,2,0,2,-4,0,-1,0
1491088603880,3,3,-4,-1,-4,-3,-1,43,2
1491088603880,3,2,5,-1,7,-3,-11,-71,-9
1491088603913,0,20,8,5,2,-4,-3,-59,4
1491088603913,0,3,-10,-4,-9,-11,-9,-6,-12
1491088603914,1,-9,-7,-4,-2,-1,-1,41,2
1491088603914,1,-19,0,-2,-5,10,15,72,9
1491088603915,2,-19,-1,-7,-6,-3,-1,2,-5
1491088603915,2,-10,4,5,4,-10,-10,-50,-7
1491088603915,3,-22,-4,-18,-7,-5,-7,-56,11
1491088603915,3,1,-4,27,11,6,9,60,26
1491088603950,0,2,-2,-13,-4,0,-1,11,7
1491088603950,0,-8,2,-1,-9,-5,-6,-30,3
1491088603951,1,18,-1,0,0,-4,4,6,-13
1491088603951,1,7,2,-1,2,-5,-17,-59,-15
1491088603952,2,41,-1,0,-11,-11,7,49,-23
1491088603952,2,115,-8,-5,-5,6,13,39,-18
1491088603988,3,124,0,-2,-4,9,8,0,-4
1491088603988,3,-45,-1,-7,-6,-2,1,24,-14
1491088603989,0,-109,2,10,4,-9,-22,-50,-1
1491088603989,0,-128,1,-7,8,-4,-5,-19,3
1491088603989,1,-128,-3,-16,-5,2,2,44,2
1491088603989,1,-69,0,8,3,-8,-9,-2,8
1491088603990,2,-36,-4,7,3,7,3,-18,1
1491088603990,2,-41,-2,-7,-6,6,12,48,12
1491088604025,3,32,-9,5,3,-3,1,27,1
1491088604025,3,41,-1,-11,-3,-6,-14,-50,-1
1491088604027,0,38,-7,-9,-7,3,1,40,7
1491088604027,0,69,4,13,-1,-5,-9,-48,-4
1491088604027,1,8,-3,-4,-6,-3,7,4,-1
1491088604027,1,7,-6,-10,-11,-18,-11,6,-5
1491088604028,2,-23,-1,4,10,0,-6,-46,-4
1491088604028,2,-5,3,0,4,8,4,-72,0
1491088604063,3,-32,-4,-2,-3,9,14,121,7
1491088604063,3,-28,-7,1,-2,-8,-15,-55,-15
1491088604064,0,-9,2,-12,-1,11,20,37,23
1491088604064,0,-26,-4,11,3,-1,1,31,-2
1491088604065,1,-30,3,-15,-7,-10,-21,-119,-17
1491088604065,1,20,5,15,5,3,11,52,13
1491088604065,2,12,-3,6,4,-6,-9,-13,-6
1491088604065,2,0,-1,-10,-6,-5,-10,-26,-1
1491088604100,3,17,0,9,6,4,8,20,0
1491088604100,3,25,2,-8,-3,-2,-17,-87,-5
1491088604101,0,17,-7,-13,-12,11,29,74,-2
1491088604101,0,0,-2,8,1,2,5,83,4
1491088604102,1,19,2,6,2,-14,-7,-45,-4
1491088604102,1,4,-8,-6,-4,-7,-4,10,4
1491088604138,2,-7,4,4,5,-14,-27,-98,-15
1491088604138,2,2,-3,-5,8,17,24,8,-2
1491088604138,3,1,-4,-3,4,3,-7,6,0
1491088604138,3,-9,1,7,0,3,13,38,-3
1491088604139,0,41,-3,9,3,7,6,62,6
1491088604139,0,55,0,-5,-8,-13,-17,-66,-13
1491088604140,1,108,1,1,-4,-4,-3,-4,8
1491088604140,1,127,-11,-7,-11,2,4,45,0
1491088604175,2,127,2,-14,4,4,-14,-55,-1
1491088604175,2,68,0,22,-1,-11,-4,-6,1
1491088604176,3,-75,2,-11,5,-10,-14,-84,-12
1491088604176,3,-53,-1,-11,-10,5,24,84,5
1491088604177,0,-13,8,5,7,3,-8,5,-5
1491088604177,0,66,1,-8,0,-5,-17,-71,-4
1491088604178,1,73,-1,8,4,10,14,79,9
1491088604178,1,9,-2,-1,7,0,0,9,-10
1491088604213,2,78,2,-8,-9,1,5,39,6
1491088604213,2,24,-6,-9,-12,-2,5,-1,-4
1491088604214,3,-33,0,5,0,2,0,36,2
1491088604214,3,-63,2,-3,1,-6,-15,-89,-4
1491088604215,0,-128,-1,3,8,-3,4,34,-1
1491088604215,0,-128,-1,-11,4,-8,-13,-1,-5
1491088604215,1,-123,3,11,7,-3,-4,-60,-12
1491088604215,1,-114,-7,-15,-10,6,20,95,2
1491088604250,2,-40,-2,-4,-9,-13,-28,-90,-5
1491088604250,2,82,-14,-2,-18,8,19,7,14
1491088604251,3,108,-11,3,-18,-7,-25,-112,-2
1491088604251,3,86,8,4,20,4,3,6,5
1491088604252,0,-26,-1,5,15,3,8,43,-4
1491088604252,0,-71,-3,-13,-7,-3,-2,101,3
1491088604288,1,-24,-6,-5,-9,7,17,54,4
1491088604288,1,-27,4,4,4,-6,-15,-56,-6
1491088604290,2,-17,-10,5,-17,-4,-14,-68,2
1491088604290,2,-53,-4,1,-4,-4,-4,-73,1
1491088604291,3,-31,-4,-1,-11,-6,-9,-38,0
1491088604291,3,-6,0,0,-4,11,22,82,6
1491088604293,0,-32,-3,0,8,-5,-6,-59,-21
1491088604293,0,-20,7,3,13,4,10,89,6
1491088604325,1,-26,15,13,37,-3,-3,46,-11
1491088604325,1,-5,9,2,12,-7,-16,9,-10
1491088604327,2,-103,0,-6,-1,-3,9,77,0
1491088604327,2,-128,-3,2,8,-4,-13,-25,-1
1491088604328,3,-128,-3,-14,-6,1,0,-3,4
1491088604328,3,-122,-5,1,-14,-5,-7,-43,2
1491088604329,0,-114,-8,-2,-12,-4,-3,-70,-9
1491088604329,0,-110,-7,-6,-5,-5,-13,3,4
1491088604363,1,-83,-4,4,-3,7,19,16,-5
1491088604363,1,-8,-6,-3,-14,2,-2,-3,-2
1491088604365,2,24,-5,-11,-9,-2,0,18,14
1491088604365,2,48,3,4,-2,-1,-1,3,-6
1491088604365,3,78,4,-6,-7,-7,-10,-13,5
1491088604365,3,80,-5,5,1,-3,-11,-82,-2
1491088604366,0,107,-2,-12,-8,2,4,-12,-6
1491088604366,0,97,10,22,11,-1,-4,-41,2
1491088604400,1,97,-9,-16,-7,-8,-6,57,1
1491088604400,1,99,3,-2,-12,3,11,8,4
1491088604401,2,86,-4,-3,-1,-7,-7,-7,-9
1491088604401,2,77,4,-9,-2,1,-6,39,-2
1491088604402,3,69,-6,11,0,1,2,-9,2
1491088604402,3,66,4,-3,4,7,-3,-26,2
1491088604438,0,68,6,0,-2,9,8,-10,0
1491088604438,0,51,-4,-1,3,-7,-7,-27,-6
1491088604439,1,34,-2,-16,-10,1,9,42,-5
1491088604439,1,33,-4,1,-5,-10,-11,4,0
1491088604440,2,37,5,8,6,-3,-2,-17,1
1491088604440,2,22,-2,-7,3,8,4,-14,-8
1491088604440,3,18,0,-15,1,-2,2,0,2
1491088604440,3,16,-6,8,-1,-2,-2,-44,-8
1491088604476,0,18,-4,0,1,-11,-23,-16,-2
1491088604476,0,-5,-3,-7,4,20,35,82,6
1491088604477,1,5,-7,0,2,3,-5,-80,-11
1491088604477,1,3,0,-10,-7,-9,-5,51,5
1491088604478,2,11,-6,0,-7,-7,7,33,1
1491088604478,2,13,2,-1,-7,-9,-11,21,4
1491088604478,3,1,-4,0,-5,0,-6,-37,9
1491088604478,3,-5,4,-1,10,1,-2,-49,14
1491088604513,0,-15,-2,-3,-4,3,-7,-62,9
1491088604513,0,3,0,11,-5,-1,12,60,12
1491088604517,1,-3,1,-3,0,4,0,2,-9
1491088604517,1,7,0,-1,3,-6,-5,-20,-18
1491088604518,2,4,-4,-3,2,-4,-2,46,-28
1491088604518,2,-5,-3,3,1,0,-12,-48,-30
1491088604519,3,1,0,-11,-10,-11,-9,-6,-14
1491088604519,3,-16,-10,6,0,7,7,21,-9
1491088604550,0,-3,1,5,-1,-4,-6,11,2
1491088604550,0,2,-1,-6,-5,5,12,-12,4
1491088604551,1,-6,1,7,2,5,-7,32,-1
1491088604551,1,-5,0,-4,-5,-10,-9,-46,-3
1491088604552,2,10,2,0,2,-1,-2,10,26
1491088604552,2,-4,-6,-6,-4,1,1,-3,-1
1491088604588,3,-4,2,14,0,-4,-3,-11,6
1491088604588,3,2,0,-9,4,11,8,15,3
1491088604589,0,-16,2,-15,-8,-1,5,26,8
1491088604589,0,-2,-4,13,3,-9,-2,2,0
1491088604590,1,10,-3,8,6,-11,-20,-89,-13
1491088604590,1,0,3,-10,-2,-2,11,106,9
1491088604591,2,14,-3,-11,-5,4,11,22,6
1491088604591,2,-1,3,1,-2,-4,-10,-34,-5
1491088604626,3,-3,3,-4,1,2,1,-17,2
1491088604626,3,-13,1,6,0,0,-4,2,-7
1491088604627,0,-5,-6,-7,0,-5,-10,-40,-6
1491088604627,0,-15,-3,-12,-10,-1,7,40,-2
1491088604628,1,11,-2,9,5,-3,-2,14,5
1491088604628,1,-3,-3,-7,-1,-9,-1,-25,-1
1491088604629,2,-7,2,12,2,1,2,25,-1
1491088604629,2,-2,-4,-5,2,-8,-20,-36,-11
1491088604663,3,-11,-12,-21,-11,-5,3,-16,-7
1491088604663,3,-6,-6,0,-4,2,10,96,16
1491088604664,0,-1,3,11,8,1,1,-52,1
1491088604664,0,7,0,-5,-3,-6,-13,-28,-4
1491088604665,1,-6,2,-9,-7,13,13,69,5
1491088604665,1,-2,-3,4,-1,-11,-18,-98,-13
1491088604666,2,-7,-7,-10,-4,2,1,36,-4
1491088604666,2,-9,4,4,1,6,15,47,3
1491088604701,3,11,-3,-3,-2,-3,8,31,0
1491088604701,3,-4,-2,-7,1,1,-8,-40,-10
1491088604702,0,12,7,15,9,9,-3,-45,-2
1491088604702,0,-3,-6,-7,-6,0,-1,-11,3
1491088604703,1,-13,1,4,5,1,-3,3,-1
1491088604703,1,-1,0,5,0,6,12,23,-4
1491088604738,2,-16,-11,-12,-11,-5,-4,10,-12
1491088604738,2,-7,0,11,5,-8,-15,-57,-6
1491088604739,3,-2,5,-10,-4,0,9,-31,4
1491088604739,3,-12,-7,4,-13,-9,-5,28,0
1491088604740,0,-2,3,10,5,2,4,-7,2
1491088604740,0,12,-4,-18,-8,1,-1,15,9
1491088604741,1,-3,6,12,0,-6,-12,-38,-4
1491088604741,1,-8,-1,-1,1,0,0,-24,-8
1491088604775,2,-1,-1,-1,-2,1,12,50,2
1491088604775,2,-3,2,-3,-4,-6,-8,-28,-4
1491088604777,3,1,-1,-1,1,4,0,-2,-6
1491088604777,3,1,-3,-5,-2,3,8,-1,2
1491088604778,0,-9,-3,4,2,-5,-12,-12,-13
1491088604778,0,13,2,-10,-4,-5,-1,14,-4
1491088604779,1,-1,-8,-4,-1,-3,5,63,1
1491088604779,1,7,0,-8,-14,-2,-9,-30,-3
1491088604813,2,-3,0,-1,14,4,-4,-46,2
1491088604813,2,-19,-5,-10,-3,-9,-11,-37,-6
1491088604814,3,-2,-2,4,-11,-6,9,65,6
1491088604814,3,16,3,-7,-1,-1,2,10,-2
1491088604815,0,9,5,-8,-9,-9,-5,-15,-1
1491088604815,0,-11,-6,-15,1,2,-5,-51,-6
1491088604850,1,-17,-1,11,6,-7,-10,-27,-2
1491088604850,1,-4,-8,-5,0,4,-5,35,3
1491088604852,2,4,0,-7,-7,-2,-1,16,-2
1491088604852,2,-4,2,11,3,-6,-4,1,4
1491088604853,3,-8,-10,-25,-7,-11,-8,-51,-11
1491088604853,3,5,-1,16,10,1,-5,-45,9
1491088604854,0,-10,1,3,-2,-3,0,-12,-5
1491088604854,0,-6,-13,-11,-15,1,8,39,-9
1491088604888,1,9,7,2,-1,12,16,67,4
1491088604888,1,-17,-4,-1,-2,4,7,39,-1
1491088604889,2,6,-1,5,8,4,-1,3,6
1491088604889,2,10,4,8,8,-5,-14,-10,1
1491088604890,3,-2,0,-10,-13,4,0,-14,-3
1491088604890,3,6,6,5,6,-10,-13,-33,-5
1491088604891,0,-21,-6,10,-2,2,2,6,0
1491088604891,0,10,-2,-3,-3,5,19,38,0
1491088604925,1,2,-2,-6,6,-1,-13,-17,0
1491088604925,1,-5,-4,-1,2,0,0,28,4
1491088604927,2,-13,-4,-2,-5,-6,-8,-32,-5
1491088604927,2,2,2,-4,0,-4,-7,-38,-2
1491088604928,3,4,-1,1,-6,1,9,39,5
1491088604928,3,-10,0,-3,-5,-8,-14,-36,-10
1491088604928,0,2,0,-9,-9,-1,5,-22,-8
1491088604928,0,-16,-2,15,16,11,12,35,5
1491088604963,1,2,1,-9,-9,-14,-10,15,-3
1491088604963,1,-1,-5,3,-2,13,14,-1,2
1491088604965,2,-6,-9,1,-5,-14,-2,17,0
1491088604965,2,5,5,6,2,4,-4,28,6
1491088604965,3,2,-5,-9,-2,-9,-12,-42,-6
1491088604965,3,5,2,4,-1,2,3,-11,-2
1491088605000,0,-10,-4,1,0,-2,-6,-57,-11
1491088605000,0,-7,-1,-5,-4,-10,-8,-7,3
1491088605001,1,6,-2,8,10,6,9,34,2
1491088605001,1,13,-2,-7,-9,-3,-5,0,1
1491088605002,2,3,4,-1,1,1,-7,-11,2
1491088605002,2,3,4,3,-3,-3,3,-20,-2
1491088605003,3,-16,-5,-3,4,-6,-17,-39,-7
1491088605003,3,-13,-9,-4,-13,7,32,90,-4
1491088605038,0,7,4,-1,4,-3,2,52,5
1491088605038,0,14,-11,-1,-5,8,13,46,11
1491088605040,1,6,4,2,2,-3,-19,-75,-12
1491088605040,1,-12,5,3,8,-5,-14,-79,15
1491088605041,2,-6,-11,-14,-4,1,9,69,24
1491088605041,2,-3,2,12,1,-9,-7,-24,-7
1491088605042,3,2,1,-7,-4,3,-3,-43,-2
1491088605042,3,-6,1,-23,-5,-9,-10,-5,-7
1491088605075,0,12,3,15,5,3,25,78,3
1491088605075,0,-1,1,-1,-10,-6,-14,-4,-28
1491088605079,1,-10,-6,4,2,7,9,7,-25
1491088605079,1,-12,-5,-2,0,2,-4,-22,-19
1491088605080,2,-4,5,-5,1,-6,-13,-53,-10
1491088605080,2,8,3,-10,-4,5,2,-6,3
1491088605081,3,-17,0,16,3,-3,3,6,8
1491088605081,3,-5,0,8,11,-2,-4,-2,0
1491088605113,0,6,-3,-12,-12,-4,-17,-49,-10
1491088605113,0,-8,0,1,1,2,-2,-58,0
1491088605114,1,-5,-6,-7,-4,5,25,83,26
1491088605114,1,-7,0,-9,-3,-6,-1,67,7
1491088605115,2,2,-2,1,-5,1,-4,7,-2
1491088605115,2,-8,7,8,3,1,1,-32,-5
1491088605150,3,13,2,-10,-1,-3,-4,-21,4
1491088605150,3,-11,-4,19,0,-3,1,-10,3
1491088605151,0,-8,-3,-4,6,-10,-11,-90,-11
1491088605151,0,15,-5,-7,-2,6,4,34,6
1491088605152,1,-15,-4,4,-6,4,2,34,-1
1491088605152,1,5,-8,-15,-4,-12,-12,-37,-10
1491088605153,2,6,2,3,-1,-9,-11,-30,0
1491088605153,2,-15,-8,-1,2,3,10,49,6
1491088605188,3,2,3,11,5,9,3,10,-5
1491088605188,3,8,-2,-15,-7,-5,-9,-29,-7
1491088605189,0,-8,-6,0,-4,0,6,49,5
1491088605189,0,-7,0,-8,-4,-2,5,-3,3
1491088605190,1,-6,-3,3,1,-14,-18,-32,-9
1491088605190,1,9,6,-15,-9,5,9,14,-2
1491088605190,2,-6,-7,17,10,9,6,6,-1
1491088605190,2,-4,1,0,-1,-7,-16,-50,-10
1491088605225,3,-17,-4,3,4,-4,2,25,0
1491088605225,3,11,6,11,-1,-5,-3,-53,-8
1491088605227,0,5,-3,-22,-8,9,25,127,15
1491088605227,0,0,-6,8,-5,0,0,19,-2
1491088605227,1,-4,-1,-7,0,-4,-16,-74,-2
1491088605227,1,-8,-4,1,5,-6,-4,-17,0
1491088605228,2,-4,-3,-5,-4,2,-2,-6,-5
1491088605228,2,-18,-6,-6,1,-10,-14,-41,-12
1491088605263,3,13,4,-3,4,1,5,-4,-3
1491088605263,3,15,-5,4,3,5,-3,35,19
1491088605264,0,-12,-3,-8,-1,3,6,-3,-5
1491088605264,0,5,-1,-6,2,-3,-2,-6,0
1491088605265,1,0,-4,-13,-13,0,16,73,7
1491088605265,1,2,2,10,3,-2,-11,-38,-8
1491088605300,2,11,7,11,1,-6,-16,-61,4
1491088605300,2,-10,-3,-11,-11,1,17,40,-3
1491088605302,3,5,-2,-15,-9,6,1,8,2
1491088605302,3,-17,-7,13,1,-7,0,17,0
1491088605302,0,-2,-1,-5,-6,-10,-12,-36,-10
1491088605302,0,-1,1,4,6,-6,-15,-122,-11
1491088605303,1,9,3,13,6,4,3,63,11
1491088605303,1,0,-5,-13,-10,6,18,78,2
1491088605338,2,-6,2,-9,-3,0,-3,-24,-6
1491088605338,2,-16,-4,18,7,-8,-20,-49,1
1491088605339,3,-7,-6,-13,-5,-3,-1,-12,0
1491088605339,3,6,-10,-2,-4,2,1,4,-5
1491088605340,0,3,0,1,0,8,15,59,-2
1491088605340,0,-5,2,-13,-2,0,-5,21,-1
1491088605341,1,10,1,4,-3,-15,-22,-78,-6
1491088605341,1,-8,5,0,4,1,-1,-55,-10
1491088605375,2,-2,-4,-15,-1,3,1,17,3
1491088605375,2,1,0,-1,-4,-4,9,58,6
1491088605377,3,-13,-8,-4,-6,-5,2,13,-4
1491088605377,3,13,4,1,0,0,4,42,6
1491088605377,0,4,3,8,-4,-7,-16,-75,-7
1491088605377,0,0,-5,-13,0,3,7,20,1
1491088605378,1,5,3,11,0,3,-2,13,0
1491088605378,1,-11,-5,-13,-3,0,0,-17,0
1491088605413,2,1,3,6,3,1,-8,-26,-6
1491088605413,2,1,0,-4,-6,1,7,47,1
1491088605414,3,-3,-2,4,-1,-5,-4,-60,-12
1491088605414,3,-16,-6,-14,-2,-3,2,19,3
1491088605415,0,14,0,9,-4,-9,-12,17,8
1491088605415,0,-12,-2,-4,-1,0,0,4,1
1491088605450,1,11,1,2,3,6,11,39,2
1491088605450,1,6,-2,1,-5,-3,-9,-30,-3
1491088605451,2,-19,-7,-3,5,0,3,-2,-6
1491088605451,2,9,2,-12,-4,-4,-7,-11,-1
1491088605452,3,-6,-2,7,7,-3,1,-47,5
1491088605452,3,1,2,-1,-4,-6,-5,28,0
1491088605453,0,1,0,3,3,-7,-4,-5,-2
1491088605453,0,5,-1,1,3,12,-2,-28,-4
1491088605488,1,-11,1,2,-4,-4,2,12,-1
1491088605488,1,14,4,0,1,1,2,-30,-5
1491088605489,2,-20,-10,-14,-11,-4,2,55,2
1491088605489,2,0,-4,4,4,1,6,9,-1
1491088605490,3,17,2,-8,-15,-3,2,18,4
1491088605490,3,-6,-3,-6,-3,1,-12,-34,-3
1491088605490,0,0,4,10,-6,0,2,18,0
1491088605490,0,1,0,7,-8,-14,-16,-42,-5
1491088605525,1,-9,-4,-2,5,4,0,1,-6
1491088605525,1,-15,-2,-5,0,-3,-5,-97,-10
1491088605526,2,21,0,-6,-2,0,13,84,3
1491088605526,2,-1,-2,-2,-7,1,-6,24,6
1491088605527,3,-1,4,7,13,1,-6,8,7
1491088605527,3,-8,-3,3,4,-1,1,14,5
1491088605528,0,2,1,-3,-1,-5,-13,-69,-7
1491088605528,0,11,-3,-2,-4,-1,16,34,8
1491088605563,1,7,-2,2,3,5,0,-1,-6
1491088605563,1,-1,3,2,4,1,-5,15,10
1491088605563,2,-5,-5,-15,-7,-3,-10,-31,17
1491088605563,2,0,0,8,0,-16,-8,-21,9
1491088605565,3,5,-2,4,2,3,7,36,6
1491088605565,3,-6,-3,2,1,0,-1,-18,-4
1491088605600,0,-2,1,0,0,-3,-3,16,-17
1491088605600,0,9,-6,0,-5,-5,-11,0,-21
1491088605601,1,-22,0,-12,-7,2,12,-3,-27
1491088605601,1,-8,-5,12,0,1,-7,-1,-30
1491088605602,2,3,3,-6,1,1,-4,-85,-11
1491088605602,2,7,-2,-10,1,4,8,44,11
1491088605603,3,4,-2,1,-1,-4,-13,-91,-7
1491088605603,3,6,-3,-6,-10,3,27,127,24
1491088605638,0,-9,0,16,1,-2,1,-11,-1
1491088605638,0,4,-2,-8,4,-2,-7,-20,9
1491088605639,1,-4,-3,-2,7,-5,-2,-8,4
1491088605639,1,6,3,4,-6,-3,-19,-75,-3
1491088605640,2,-6,-8,-20,4,10,9,64,8
1491088605640,2,15,3,8,-6,3,2,-1,-5
1491088605641,3,45,-1,-12,-8,-6,-2,-17,-5
1491088605641,3,115,1,-1,-3,-4,-5,12,2
1491088605675,0,127,-5,-6,-3,-4,-2,-4,-1
1491088605675,0,-29,-3,5,-5,-2,-7,-31,-6
1491088605676,1,-91,2,-11,-3,-5,1,47,10
1491088605676,1,-116,0,2,3,5,13,41,-1
1491088605677,2,-102,1,8,5,0,-3,-30,-7
1491088605677,2,-39,-2,-25,-9,-8,-11,-45,-6
1491088605678,3,26,3,2,-3,1,0,35,10
1491088605678,3,-48,-4,4,2,-6,4,3,-7
1491088605713,0,-14,1,-7,1,2,9,6,5
1491088605713,0,-19,-3,5,3,-4,-22,-95,-10
1491088605714,1,-14,1,-3,1,-1,1,77,2
1491088605714,1,16,2,-5,-1,9,6,28,7
1491088605715,2,1,-10,-6,-2,-5,-2,4,-5
1491088605715,2,10,-1,13,3,-3,3,17,2
1491088605750,3,3,-8,-8,-12,-10,-10,5,0
1491088605750,3,11,1,1,5,1,4,28,2
1491088605751,0,-16,-2,10,-1,4,-3,-9,-5
1491088605751,0,20,6,9,1,-9,-4,-23,-3
1491088605752,1,9,-1,-13,0,2,4,-32,3
1491088605752,1,6,-2,9,-4,-6,-2,-1,-9
1491088605753,2,-1,3,-9,-2,-2,-3,-10,2
1491088605753,2,17,2,-2,5,9,8,-16,-6
1491088605788,3,-9,-4,9,4,0,4,40,-1
1491088605788,3,-9,-4,-21,-5,-5,-25,-115,-16
1491088605789,0,-1,-1,9,-4,1,18,81,12
1491088605789,0,-2,-10,-14,-12,-1,8,11,-8
1491088605790,1,4,-3,7,-2,1,-12,-25,-1
1491088605790,1,12,-2,-9,7,-1,1,28,4
1491088605790,2,-8,1,2,-1,-10,-20,-57,-6
1491088605790,2,-11,1,8,5,3,8,4,4
1491088605825,3,13,0,-5,-5,-8,-8,-26,-6
1491088605825,3,7,4,1,4,1,3,2,0
1491088605863,0,-8,-2,-2,-2,3,-2,-18,-5
1491088605863,0,0,3,0,2,-5,-4,15,-1
1491088605864,1,-2,-1,0,-5,4,12,35,1
1491088605864,1,5,2,4,2,-4,-3,-41,-5
1491088605865,2,-13,-3,-8,-5,-9,-16,-43,-3
1491088605865,2,10,0,-4,-7,-3,5,81,2
1491088605866,3,-6,-6,-5,4,3,-5,-44,-6
1491088605866,3,-9,-5,15,-4,-6,5,24,0
1491088605902,0,-1,1,4,-1,3,5,-44,-10
1491088605902,0,-5,2,-4,8,7,1,21,4
1491088605903,1,5,5,0,1,-3,-8,-41,-6
1491088605903,1,-6,-4,-1,-6,-4,-4,-18,2
1491088605904,2,6,2,3,-2,3,14,50,6
1491088605904,2,-6,-10,-8,-8,-9,-3,10,3
1491088605905,3,-5,-6,-4,-2,-2,-2,-25,-7
1491088605905,3,0,-1,-10,-4,0,0,54,9
1491088605938,0,1,2,-1,-1,-5,-8,-15,-1
1491088605938,0,4,2,0,4,0,-6,-34,-5
1491088605940,1,8,7,6,1,5,5,12,13
1491088605940,1,-12,-12,-17,-10,-5,-8,2,-7
1491088605940,2,-2,-4,13,0,3,3,-1,-11
1491088605940,2,4,-2,6,4,9,16,19,1
1491088605941,3,-6,-3,1,1,-2,-3,-11,-6
1491088605941,3,2,2,-14,7,-4,-10,-22,3
1491088605975,0,3,-3,9,-6,-5,7,39,-4
1491088605975,0,-10,-6,-15,-7,-3,-8,-48,-2
1491088605977,1,-6,1,9,2,-4,-5,19,-1
1491088605977,1,6,0,2,5,-3,0,19,6
1491088605977,2,-13,-5,-28,-7,-3,-4,-21,-3
1491088605977,2,-5,-6,19,4,-7,-19,-86,-9
1491088605978,3,5,0,-7,-5,12,30,72,4
1491088605978,3,1,-1,1,-4,1,-4,13,0
1491088606013,0,-9,0,0,5,-7,-11,-28,-2
1491088606013,0,0,0,-10,2,-1,-3,12,0
1491088606014,1,-2,0,3,0,-2,-14,-20,-5
1491088606014,1,-1,-1,-4,-7,-1,4,-34,-5
1491088606015,2,15,2,1,0,6,8,54,10
1491088606015,2,-4,-1,-9,0,3,13,53,-2
1491088606016,3,0,-8,3,-2,-10,-10,-19,-1
1491088606016,3,-5,0,-9,-3,-7,-7,-42,-8
1491088606050,0,-8,-2,6,1,-9,-22,-128,-9
1491088606050,0,4,1,-7,-2,5,10,102,10
1491088606052,1,-7,-5,-12,-13,0,1,25,-5
1491088606052,1,0,-3,20,5,0,-4,4,2
1491088606052,2,0,-1,-14,-10,4,14,33,2
1491088606052,2,-10,-1,7,-2,-4,-10,-38,-9
1491088606053,3,2,4,-3,-5,-4,-7,-48,-11
1491088606053,3,0,0,-1,-6,-1,5,29,7
1491088606088,0,10,3,-2,-4,-4,-15,-10,3
1491088606088,0,-7,-4,-3,-10,2,11,26,0
1491088606090,1,3,1,-2,7,0,-8,-36,-5
1491088606090,1,-9,1,-4,-6,-4,2,9,9
1491088606091,2,-2,-5,13,12,8,0,-1,-4
1491088606091,2,4,-2,-9,3,0,-2,-25,-9
1491088606092,3,-12,-5,0,-6,-6,-3,6,3
1491088606092,3,6,-1,-5,5,1,-2,-61,-13
1491088606125,0,4,-5,-3,4,1,0,71,9
1491088606125,0,2,-2,-5,-12,-4,0,21,0
1491088606127,1,-5,-3,7,2,-2,3,-1,-1
1491088606127,1,10,-1,-2,2,2,0,18,0
1491088606128,2,0,-4,4,0,-1,-1,1,-5
1491088606128,2,5,4,1,8,0,-16,-64,9
1491088606129,3,-15,2,-1,-2,-2,0,9,15
1491088606129,3,-6,2,6,1,-1,-5,-13,6
1491088606163,0,-22,-5,-6,0,-14,-13,-100,-11
1491088606163,0,-2,-3,-7,-3,7,19,110,3
1491088606165,1,-12,-3,-2,0,1,-5,-22,-15
1491088606165,1,1,-1,4,-7,-3,-4,-45,-23
1491088606166,2,0,3,-1,4,6,20,99,4
1491088606166,2,0,-3,-8,-12,-18,-17,-35,-5
1491088606166,3,5,2,1,11,4,2,-12,-10
1491088606166,3,4,-2,-2,-1,0,-2,12,5
1491088606200,0,4,-1,-4,3,5,-5,-33,-2
1491088606200,0,-7,-3,1,-5,-3,3,-11,0
1491088606202,1,4,-9,-6,-11,-2,-2,38,6
1491088606202,1,-8,1,-10,5,-4,-21,-61,-3
1491088606203,2,4,0,1,2,4,9,43,8
1491088606203,2,4,6,13,5,-3,-6,-25,1
1491088606203,3,4,0,-4,-3,-1,4,9,0
1491088606203,3,-1,-2,-4,2,15,12,83,2
1491088606238,0,-6,-6,-7,-11,-5,1,0,-4
1491088606238,0,-2,-5,-5,-4,-2,-1,25,-3
1491088606240,1,2,1,-5,1,-2,-2,-32,-2
1491088606240,1,-11,0,2,0,-8,-3,-7,2
1491088606241,2,7,4,-3,-2,0,-9,7,-8
1491088606241,2,-6,-2,1,2,2,4,-13,-4
1491088606241,3,11,3,12,5,0,0,-21,0
1491088606241,3,3,-5,-9,-6,-7,-7,-49,-7
1491088606275,0,-5,1,-5,-10,-5,3,6,-10
1491088606275,0,-4,6,6,13,4,12,12,7
1491088606277,1,5,-7,-17,-11,1,-3,72,17
1491088606277,1,-7,2,20,9,-1,-8,-51,-8
1491088606278,2,-19,-2,-6,5,-5,-1,-12,0
1491088606278,2,18,1,-9,-16,-5,-4,-9,1
1491088606313,3,6,0,9,3,-3,-4,-15,-3
1491088606313,3,12,7,-3,2,9,8,35,1
1491088606314,0,-9,-1,-3,-10,-6,-1,-7,0
1491088606314,0,-1,-1,8,9,-4,-14,-28,-3
1491088606350,1,4,-4,7,6,1,2,-36,-11
1491088606350,1,14,-4,-20,-7,-3,13,60,0
1491088606352,2,10,-8,8,3,-2,-11,-8,0
1491088606352,2,-5,2,-5,1,-4,-23,-87,-11
1491088606353,3,9,0,-1,-9,1,24,90,15
1491088606353,3,-13,-6,3,-3,-2,-7,-37,-11
1491088606354,0,1,-2,-1,-7,1,1,13,-1
1491088606354,0,-21,-3,-9,-6,0,1,8,-1
1491088606388,1,-26,-6,-19,-1,-6,-24,-125,-24
1491088606388,1,-7,6,14,-5,-2,17,96,14
1491088606390,2,-10,-4,-3,-1,0,-3,0,-4
1491088606390,2,4,-1,-1,-2,-12,-16,-69,-9
1491088606391,3,-11,2,4,-2,-7,1,13,3
1491088606391,3,-22,-14,-5,10,11,8,28,-1
1491088606392,0,21,2,-13,-9,-4,-3,-40,9
1491088606392,0,-4,2,13,1,0,10,57,-2
1491088606425,1,1,-7,-12,-9,1,-1,13,-2
1491088606425,1,-8,0,1,2,-4,-15,-88,-8
1491088606427,2,5,-1,6,3,-1,0,39,-3
1491088606427,2,-6,-7,-1,2,2,12,28,2
1491088606428,3,3,2,-6,1,-8,-27,-96,-9
1491088606428,3,-3,-4,11,-5,5,23,96,7
1491088606429,0,-10,1,-7,-1,-5,-17,-103,-19
1491088606429,0,6,-5,-4,-2,16,27,126,15
1491088606463,1,-1,-3,1,2,-3,-8,4,0
1491088606463,1,12,8,-2,-6,-11,-15,-64,-7
1491088606465,2,-8,-3,-17,-5,9,12,22,-3
1491088606465,2,3,-3,5,-8,-8,-9,-40,-3
1491088606466,3,3,-2,-2,3,4,1,43,3
1491088606466,3,-7,-3,-9,1,-3,-10,-39,-5
1491088606467,0,6,4,8,-2,3,9,11,-2
1491088606467,0,4,-3,1,2,-6,-11,-37,-13
1491088606500,1,1,-2,8,-6,-5,-9,10,0
1491088606500,1,6,-3,-15,-8,0,10,42,10
1491088606501,2,-9,-5,13,6,-4,-1,16,2
1491088606501,2,5,-4,-8,-3,6,1,1,-9
1491088606502,3,-13,0,7,7,5,-2,-58,0
1491088606502,3,16,2,2,-1,-8,-6,1,2
1491088606503,0,3,-2,-1,-4,7,18,50,1
1491088606503,0,-16,-7,-12,-11,1,8,45,1
1491088606538,1,8,-1,-1,-3,-8,-4,-10,-5
1491088606538,1,-12,5,0,11,-5,-19,-68,-6
1491088606539,2,-7,-2,-5,1,-2,-3,-27,1
1491088606539,2,-2,-1,-7,3,-7,0,16,4
1491088606540,3,-3,4,8,7,6,11,43,-2
1491088606540,3,9,1,-9,-16,-8,-4,-31,-8
1491088606540,0,-6,0,11,9,-3,-6,-14,2
1491088606540,0,-6,1,-8,-6,-7,-16,-107,-13
1491088606575,1,-14,-11,-8,-3,4,8,88,8
1491088606575,1,11,-7,-3,-3,5,7,60,11
1491088606576,2,15,6,-4,0,-6,-12,-50,5
1491088606576,2,-13,-2,12,2,12,9,0,-18
1491088606577,3,-2,2,-11,-17,-5,3,7,-3
1491088606577,3,-6,-5,-7,-11,-3,-3,-23,-14
1491088606578,0,-12,-4,-3,-8,-6,-6,13,1
1491088606578,0,14,5,11,1,-3,-4,-5,8
1491088606613,1,1,1,-1,4,-5,-2,-36,-6
1491088606613,1,-5,5,18,10,-1,1,18,1
1491088606613,2,0,-1,-12,-4,-4,2,-11,2
1491088606613,2,-2,-1,-4,1,-4,-18,-82,-6
1491088606614,3,-4,-1,-1,-5,3,6,72,6
1491088606614,3,3,-11,-12,-6,-2,4,-1,-3
1491088606615,0,1,1,-3,-2,0,3,26,5
1491088606615,0,-2,2,9,11,4,3,-13,-2
1491088606650,1,12,-1,-11,0,3,-8,-1,-4
1491088606650,1,4,2,3,1,3,0,-35,9
1491088606651,2,-12,-3,-5,-8,-1,-4,17,-3
1491088606651,2,-3,-6,-6,-7,-1,3,56,4
1491088606652,3,-3,1,12,6,0,-5,-59,-7
1491088606652,3,-1,2,-10,-5,1,-2,0,0
1491088606653,0,-5,-5,16,5,2,2,14,-6
1491088606653,0,-6,0,-13,-1,-3,0,-20,2
1491088606688,1,-6,1,7,7,-6,1,-5,3
1491088606688,1,-4,-4,-7,-6,-11,-17,-15,-5
1491088606689,2,-4,3,12,6,0,4,31,2
1491088606689,2,2,-1,-3,-2,1,4,44,3
1491088606690,3,7,-1,-9,1,12,17,27,1
1491088606690,3,-11,-9,3,2,0,2,21,-2
1491088606725,0,4,3,-2,1,-7,-13,-26,-2
1491088606725,0,-13,0,8,10,-6,-19,-81,-7
1491088606726,1,24,5,-23,-14,-2,0,-27,3
1491088606726,1,-18,-6,17,-4,8,24,87,4
1491088606726,2,5,-6,-15,-6,-1,-5,-7,-4
1491088606726,2,12,3,5,3,-7,-13,-47,-2
1491088606728,3,-13,-3,3,-3,-5,-6,-8,-7
1491088606728,3,0,0,-4,1,4,2,48,-3
1491088606763,0,2,-4,2,-10,0,0,-22,-4
1491088606763,0,-2,-3,-12,2,4,-2,6,0
1491088606763,1,-2,-3,2,-7,-7,-5,-30,-4
1491088606763,1,-5,-1,12,1,3,0,-16,-1
1491088606764,2,0,0,-2,2,3,-1,-8,-5
1491088606764,2,-3,3,8,-1,-6,-4,-24,-4
1491088606765,3,-6,-5,-11,1,-3,-5,-60,0
1491088606765,3,-6,-4,2,-1,7,20,89,8
1491088606800,0,-7,-3,-7,-8,-8,-11,-21,-10
1491088606800,0,18,2,-3,-5,-4,4,-12,1
1491088606801,1,-8,-6,-2,3,7,2,41,-3
1491088606801,1,35,8,9,-6,-8,-16,-48,1
1491088606802,2,-14,-1,-5,1,3,2,-30,-4
1491088606802,2,-10,-6,2,-3,-6,-8,23,4
1491088606803,3,-4,-3,-2,-3,-10,-15,-55,-13
1491088606803,3,-6,0,-9,5,5,3,47,4
1491088606838,0,11,-4,9,-4,-7,-1,12,-5
1491088606838,0,-8,-2,-5,1,-7,-5,-33,2
1491088606839,1,-17,-5,4,-4,-2,2,57,0
1491088606839,1,-2,-5,-6,0,-6,4,-24,-2
1491088606839,2,0,2,8,3,-1,5,39,3
1491088606839,2,-11,-6,-14,-15,-5,-5,7,-9
1491088606875,3,-13,4,4,3,-3,1,5,2
1491088606875,3,4,-2,-9,-3,-6,-12,-50,-5
1491088606876,0,12,8,12,3,6,3,8,2
1491088606876,0,15,-5,-8,-3,9,18,105,17
1491088606877,1,3,2,2,-3,0,-2,-21,-4
1491088606877,1,-15,-3,-8,-3,-13,-20,-69,-7
1491088606878,2,7,-5,-12,0,6,10,18,2
1491088606878,2,2,0,4,-2,0,-8,-16,-5
1491088606913,3,3,-3,4,5,4,1,-1,2
1491088606913,3,-4,3,-6,5,4,-4,7,-3
1491088606913,0,-9,-1,-6,3,-16,-20,-59,-1
1491088606913,0,-6,-6,-7,-11,12,26,84,1
1491088606914,1,6,-4,-1,-3,-5,-8,-35,-6
1491088606914,1,25,2,1,-6,-3,5,11,7
1491088606915,2,10,-5,-6,-5,-3,-12,-42,-6
1491088606915,2,3,-4,-4,3,5,7,74,6
1491088606950,3,-8,-2,4,0,-5,-1,-4,1
1491088606950,3,0,1,-1,0,-6,-10,-95,-14
1491088606951,0,36,-4,-6,0,4,5,31,4
1491088606951,0,111,-5,-2,-25,1,-6,-35,20
1491088606952,1,127,-13,-2,-25,9,12,2,9
1491088606952,1,24,-12,0,-16,0,-3,-9,-5
1491088606953,2,-57,2,-7,-4,-8,-6,-34,-3
1491088606953,2,-104,7,2,7,-2,1,-15,-8
1491088606988,3,-101,10,8,10,-8,-16,-13,-3
1491088606988,3,-91,1,-11,9,-1,-3,-57,-9
1491088606989,0,-83,0,10,9,-1,24,116,5
1491088606989,0,-79,-1,0,10,-1,-13,11,-8
1491088606990,1,-68,2,2,7,-2,-7,-45,-7
1491088606990,1,-57,-1,-18,10,5,10,34,-8
1491088607025,2,-42,-4,9,-1,-5,1,38,8
1491088607025,2,-33,-4,-5,2,-2,1,-7,-10
1491088607026,3,-36,9,0,21,-3,7,102,-9
1491088607026,3,-25,5,-3,10,-5,-10,10,-14
1491088607027,0,-10,-9,1,-10,5,-4,-35,-5
1491088607027,0,-16,-4,8,-9,-4,-5,-51,-4
1491088607028,1,-19,-3,-11,-18,3,7,3,11
1491088607028,1,-8,-3,6,-14,-11,-17,-34,7
1491088607063,2,-2,0,-5,-6,1,4,43,1
1491088607063,2,-9,-4,-9,-1,3,0,-6,-4
1491088607064,3,-10,3,6,1,-4,-1,-14,6
1491088607064,3,-1,7,-3,1,-7,-18,-7,-9
1491088607065,0,-1,5,10,9,5,8,16,7
1491088607065,0,-6,3,4,10,0,-2,-1,-4
1491088607066,1,-3,-6,-6,4,2,0,2,-2
1491088607066,1,-2,-2,-1,-2,5,6,9,2
1491088607100,2,-2,7,-7,20,-11,-27,-66,-23
1491088607100,2,-3,14,1,30,-8,-3,8,-11
1491088607101,3,-111,-5,-4,-1,5,26,126,13
1491088607101,3,-120,-4,2,-8,0,4,35,7
1491088607102,0,-128,-6,-4,-9,0,-3,-39,-1
1491088607102,0,-128,-8,-7,-17,-4,-11,-32,9
1491088607103,1,-111,-3,0,-7,-6,-16,-53,6
1491088607103,1,-87,-2,6,-2,5,6,-35,5
1491088607138,2,-3,-1,-5,-14,8,6,-2,9
1491088607138,2,59,-2,-4,-4,6,8,21,3
1491088607140,3,77,-6,11,-5,-7,-12,-60,-8
1491088607140,3,121,-1,4,-3,1,4,30,3
1491088607140,0,127,-7,-17,-5,2,-25,-10,-5
1491088607140,0,119,4,8,-3,-12,-6,-82,-8
1491088607175,1,127,-11,-12,-10,2,12,-15,-9
1491088607175,1,117,2,3,-5,4,23,80,2
1491088607177,2,94,-3,-6,-8,1,17,47,10
1491088607177,2,72,0,-1,-1,6,-9,-21,-6
1491088607178,3,68,3,8,14,-5,-24,-79,-3
1491088607178,3,60,-4,-6,2,-5,-9,-39,-4
1491088607178,0,46,6,-1,-10,-7,-3,-28,1
1491088607178,0,22,-10,-5,-10,-1,20,83,3
1491088607213,1,37,2,12,19,17,4,-20,-8
1491088607213,1,27,5,6,4,4,-19,-25,-4
1491088607214,2,13,-3,-5,3,-10,15,-7,1
1491088607214,2,7,-9,-16,-25,-19,21,-77,-11
1491088607215,3,15,3,4,1,6,0,81,-5
1491088607215,3,10,-11,10,16,42,15,11,-4
1491088607216,0,0,27,9,36,29,18,8,-3
1491088607216,0,1,0,-16,-72,-34,-6,-34,-9
1491088607250,1,9,-11,-17,-17,-45,22,89,10
1491088607250,1,2,-3,-1,17,-14,20,-25,16
1491088607253,2,1,0,11,39,59,2,-80,-21
1491088607253,2,-1,26,37,28,33,-3,18,-3
1491088607253,3,2,14,-3,30,79,11,13,18
1491088607253,3,2,-19,-3,17,-103,-81,-48,-8
1491088607254,0,0,-29,-32,-82,-48,-16,-96,-7
1491088607254,0,-2,18,0,-65,13,-10,78,15
1491088607288,1,0,-6,9,7,61,92,15,-15
1491088607288,1,1,-14,-21,71,-54,-11,-54,6
1491088607290,2,0,-44,-36,-67,-128,-86,-110,-10
1491088607290,2,-3,-18,23,112,35,-60,86,-7
1491088607325,3,2,8,15,-49,77,83,7,14
1491088607325,3,1,27,-10,-125,-39,10,-25,-23
1491088607327,0,-2,36,36,127,56,-15,60,15
1491088607327,0,-2,-41,-64,-116,-128,-15,-63,30
1491088607327,1,1,-28,8,93,-8,-127,-97,-9
1491088607327,1,0,17,41,18,122,59,21,-1
1491088607328,2,-2,39,-22,-128,-105,-18,-65,-4
1491088607328,2,-1,-24,37,101,118,0,123,20
1491088607363,3,1,-11,-24,-55,-128,-90,-128,-57
1491088607363,3,-3,-19,-88,-124,-86,92,92,28
1491088607364,0,27,-20,48,113,100,-23,19,-27
1491088607364,0,1,31,-4,56,71,0,-41,47
1491088607365,1,-1,-4,29,-11,43,-30,33,-6
1491088607365,1,79,44,11,-73,-50,-61,15,-20
1491088607365,2,7,-11,-20,46,-41,7,40,22
1491088607365,2,-30,-20,-37,-68,-20,-82,-128,-35
1491088607400,3,-12,-19,3,61,69,91,61,19
1491088607400,3,75,27,44,114,52,-40,-3,-4
1491088607401,0,-45,7,13,30,81,30,-32,-14
1491088607401,0,67,27,25,-13,-110,-85,-40,25
1491088607402,1,-81,-46,-70,-95,-72,-6,10,11
1491088607402,1,35,-32,31,18,52,-54,36,-16
1491088607403,2,16,-15,-13,9,39,77,93,4
1491088607403,2,-43,11,31,11,14,-16,-53,-51
1491088607438,3,-20,27,-12,-124,-59,19,37,-9
1491088607438,3,30,-8,20,125,54,-77,-88,16
1491088607454,0,-21,-39,-24,-100,-76,-33,58,29
1491088607454,0,-11,-27,-9,56,6,14,-26,-12
1491088607455,1,45,14,-27,-57,-76,65,-15,12
1491088607455,1,-75,-38,-13,6,-14,-15,-128,-9
1491088607455,2,10,37,69,13,127,55,35,11
1491088607455,2,13,-11,-26,-10,-92,-16,66,-15
1491088607475,3,-9,-63,-15,41,17,-54,-75,-4
1491088607475,3,-21,-41,-23,-65,-66,34,116,-20
1491088607476,0,-7,-44,36,74,72,43,-5,9
1491088607476,0,18,-55,-33,-101,38,15,-21,7
1491088607477,1,-14,-93,2,107,-16,-67,-128,7
1491088607477,1,9,-65,-17,13,-22,13,-26,-13
1491088607478,2,7,49,11,-65,-105,21,-83,10
1491088607478,2,-15,54,20,122,107,-30,15,-22
1491088607513,3,-17,93,26,12,-60,35,-31,-22
1491088607513,3,57,101,-12,4,22,-78,32,15
1491088607514,0,-9,-1,-60,-110,-84,-34,69,4
1491088607514,0,5,4,-29,-54,-56,-6,-103,-6
1491088607514,1,2,51,-1,38,61,72,119,-1
1491088607514,1,-9,37,74,127,116,90,91,1
1491088607515,2,-19,56,-26,-26,-43,-21,-107,-14
1491088607515,2,-98,23,25,71,-70,-4,-51,11
1491088607550,3,71,26,32,44,84,73,92,-48
1491088607550,3,7,23,-71,52,-128,-114,70,0
1491088607552,0,64,-10,-5,127,127,53,109,-20
1491088607552,0,28,35,23,66,85,110,-17,-2
1491088607552,1,-40,-38,-62,-33,-128,-128,-128,0
1491088607552,1,-79,-9,74,-128,127,127,69,37
1491088607553,2,49,-2,-18,-128,-128,-24,-102,17
1491088607553,2,38,-7,1,-95,-63,97,-7,-3
1491088607588,3,-12,14,13,-48,38,-47,50,31
1491088607588,3,-6,-37,-63,-128,-11,3,59,-6
1491088607588,0,-65,-41,-10,10,-69,-66,-62,-56
1491088607588,0,6,4,25,-27,49,-17,-26,-17
1491088607590,1,-23,8,15,-68,6,100,76,20
1491088607590,1,-4,4,-15,37,-128,-95,-128,-16
1491088607625,2,24,-14,9,102,52,100,127,12
1491088607625,2,25,0,-42,-23,-128,-71,22,-16
1491088607627,3,0,1,11,116,46,-118,-100,19
1491088607627,3,-34,-10,-18,16,37,34,67,8
1491088607628,0,-6,-34,-53,17,-110,-110,-116,14
1491088607628,0,102,-6,18,24,71,116,127,2
1491088607628,1,81,51,79,10,-91,-90,-48,-21
1491088607628,1,-46,2,-21,86,96,-15,40,-15
1491088607663,2,-121,-32,-43,81,-17,-89,-6,14
1491088607663,2,-89,-7,-21,-27,18,24,-47,25
1491088607663,3,-59,0,-2,-38,3,-93,-6,-16
1491088607663,3,-66,-20,27,-67,-128,75,10,-14
1491088607700,0,-19,53,72,-128,35,46,89,-26
1491088607700,0,-117,-44,-67,124,0,-82,-56,22
1491088607701,1,75,0,16,-18,-18,127,21,-13
1491088607701,1,61,47,14,92,84,-5,15,17
1491088607702,2,-8,-58,-67,-61,-77,-11,71,9
1491088607702,2,1,12,63,18,82,110,62,-8
1491088607703,3,62,34,-14,-32,-18,-84,-81,-17
1491088607703,3,-66,-34,-22,-36,127,36,-128,2
1491088607738,0,54,6,-14,-5,126,-63,-67,16
1491088607738,0,9,-22,-37,34,-41,25,106,10
1491088607739,1,0,-22,-21,17,31,-21,52,18
1491088607739,1,58,38,36,-67,0,-45,-93,36
1491088607740,2,74,69,127,98,122,-12,-40,-16
1491088607740,2,-52,-15,-104,-128,-52,14,62,-4
1491088607740,3,-49,-61,-19,127,41,-29,3,0
1491088607740,3,7,5,-11,-42,-33,-105,-73,-5
1491088607775,0,29,-1,30,-32,79,89,93,-18
1491088607775,0,103,35,52,58,21,-107,10,16
1491088607776,1,77,-30,-70,13,-84,127,-59,-10
1491088607776,1,-18,5,47,-6,-27,-85,35,-29
1491088607777,2,-105,6,-46,-61,-36,94,-127,5
1491088607777,2,-115,-24,40,-62,56,-10,72,-2
1491088607778,3,-128,39,13,57,52,23,-18,-24
1491088607778,3,97,-41,-62,-45,-128,2,62,32
1491088607813,0,113,9,20,-57,6,-54,-128,-10
1491088607813,0,50,0,16,-99,-96,4,64,-22
1491088607814,1,-44,-33,-23,-128,-48,-34,-66,24
1491088607814,1,-110,-1,-31,127,113,13,75,-23
1491088607815,2,-108,-29,7,-20,-65,18,-32,0
1491088607815,2,-58,13,-22,-14,17,63,-19,-44
1491088607816,3,-108,12,6,-37,-3,-66,-8,13
1491088607816,3,-128,-30,-38,-17,-72,43,39,-5
1491088607850,0,-128,13,7,29,35,-66,30,1
1491088607850,0,-128,3,18,43,-30,9,-97,-6
1491088607851,1,-117,34,30,-32,6,10,56,4
1491088607851,1,-118,-20,-9,94,43,-75,-76,7
1491088607852,2,-51,-6,-29,-64,-37,0,127,4
1491088607852,2,-32,-9,13,105,90,100,-128,7
1491088607853,3,42,34,47,86,104,-107,-31,4
1491088607853,3,91,0,-24,-20,51,127,-80,-31
1491088607888,0,8,-17,-2,-5,-66,-69,56,14
1491088607888,0,22,-16,-20,50,55,36,-83,37
1491088607889,1,120,-2,-13,59,-55,21,127,85
1491088607889,1,95,-14,3,-106,-45,11,-105,-5
1491088607890,2,127,7,14,-34,96,76,69,-48
1491088607890,2,123,5,35,-128,70,-72,-73,-64
1491088607890,3,-13,5,-37,-120,-23,-54,111,-40
1491088607890,3,-50,-23,-38,-69,-82,11,-85,-27
1491088607925,0,-90,-34,-56,113,-70,62,-95,2
1491088607925,0,-83,10,40,62,1,-31,0,21
1491088607926,1,-66,-11,-46,-79,-98,2,50,-35
1491088607926,1,-94,25,113,29,72,51,110,-1
1491088607927,2,-87,37,28,-24,-76,-96,-114,-7
1491088607927,2,-108,-34,-68,9,-120,45,48,13
1491088607928,3,-86,-14,23,17,37,81,-128,-6
1491088607928,3,-47,16,6,-7,-48,21,115,46
1491088607963,0,-121,-9,10,107,-23,-58,-71,-12
1491088607963,0,-4,36,36,-81,-35,-63,-33,17
1491088607963,1,-78,-16,-4,-92,30,114,-70,-18
1491088607963,1,-108,-53,-93,-128,-74,-89,18,13
1491088607964,2,-85,-12,15,-8,32,60,-54,-12
1491088607964,2,-68,18,-31,-22,0,-23,8,-10
1491088607965,3,32,-13,33,36,120,68,70,-1
1491088607965,3,54,47,64,44,93,40,-29,13
1491088608000,0,28,1,-70,47,8,52,38,15
1491088608000,0,48,21,9,107,-7,-128,20,0
1491088608001,1,108,21,10,-61,-69,16,-53,15
1491088608001,1,28,-42,-29,-74,18,-30,-128,-28
1491088608003,2,36,13,23,52,-24,4,127,-4
1491088608003,2,126,-17,33,-43,63,114,71,2
1491088608038,3,109,63,14,127,17,58,52,-13
1491088608038,3,26,-22,-34,-4,-67,-74,-65,42
1491088608040,0,59,-15,19,-128,-49,20,-15,0
1491088608040,0,1,-57,-93,76,-128,-75,-8,14
1491088608040,1,-16,-18,35,-78,19,19,-53,4
1491088608040,1,17,16,61,-78,59,8,-72,-16
1491088608041,2,49,9,6,-128,108,116,86,17
1491088608041,2,50,36,48,-122,36,-14,4,-11
1491088608075,3,15,-30,-38,-94,16,-113,-71,4
1491088608075,3,38,8,-5,-48,-63,5,-40,-21
1491088608076,0,56,11,-10,9,120,-89,-11,3
1491088608076,0,16,-29,-52,-89,-21,-70,88,-3
1491088608076,1,-9,-4,40,98,97,93,-9,-10
1491088608076,1,57,25,-2,-47,49,-85,120,2
1491088608113,2,52,2,-63,63,-91,-27,25,21
1491088608113,2,-41,-65,-48,115,-53,52,-109,-16
1491088608113,3,0,-4,35,59,57,46,107,-2
1491088608113,3,5,-6,-16,76,-75,58,14,-17
1491088608114,0,10,7,49,107,47,8,-59,-16
1491088608114,0,52,31,17,-77,79,13,-37,18
1491088608115,1,20,-22,-43,-88,-125,-58,-121,1
1491088608115,1,-8,14,27,120,76,12,36,-16
1491088608188,2,4,-6,-16,64,-112,1,-3,-2
1491088608188,2,-13,43,94,-18,71,-65,-110,6
1491088608197,3,-18,-16,-88,-101,-82,66,-11,11
1491088608197,3,-15,-16,-11,-67,-80,-38,31,12
1491088608198,0,-29,-24,66,-85,77,71,-8,-4
1491088608198,0,-27,12,-46,127,-103,-58,-29,-22
1491088608199,1,-5,1,25,-113,-71,-43,-68,22
1491088608199,1,-26,11,22,127,-76,-28,-127,-22
1491088608225,2,-21,1,-48,-7,-86,-25,-68,9
1491088608225,2,-4,10,48,-65,-63,80,80,-2
1491088608226,3,-15,15,18,115,-66,-66,3,-7
1491088608226,3,-36,-4,-50,106,15,92,100,35
1491088608227,0,-6,18,32,-84,-21,-30,17,-13
1491088608227,0,21,1,21,-29,-1,17,42,-22
1491088608228,2,7,4,-3,17,17,3,-36,-17
1491088608228,2,7,-33,13,-81,-6,26,-5,-5
1491088608263,3,18,-28,3,91,93,-61,44,22
1491088608263,3,9,8,18,-34,11,29,21,50
1491088608264,0,3,-13,-35,37,47,-4,-52,-4
1491088608264,0,-39,-7,-37,-104,-39,-8,21,-23
1491088608265,2,5,21,-19,40,-76,-99,-22,-10
1491088608265,2,0,-9,22,-2,17,89,-9,1
1491088608266,3,-12,26,-6,-128,28,7,93,6
1491088608266,3,9,-29,27,-45,32,66,28,-20
1491088608300,0,23,-22,-27,-64,35,-42,71,16
1491088608300,0,10,-15,-11,-42,-17,-59,-54,7
1491088608302,1,-4,28,36,-14,-8,-23,-42,11
1491088608302,1,12,-57,-34,54,23,-11,17,-8
1491088608303,2,9,7,33,98,29,60,51,15
1491088608303,2,9,-5,-7,127,61,60,57,19
1491088608304,3,-9,-22,-4,18,8,-90,-110,10
1491088608304,3,1,-7,15,-31,24,27,82,2
1491088608338,0,-9,-13,10,-17,15,41,-19,9
1491088608338,0,5,4,-20,12,1,-102,-21,8
1491088608375,1,-6,-9,14,76,117,116,54,-4
1491088608375,1,-23,18,24,32,-96,-111,-43,-18
1491088608377,2,3,-43,-44,-11,-62,-87,-68,5
1491088608377,2,21,27,20,50,20,37,13,14
1491088608378,3,-8,19,-20,120,-36,-35,34,4
1491088608378,3,-1,23,-10,-33,-56,-30,-86,-16
1491088608378,0,-1,-5,4,-4,36,86,26,-5
1491088608378,0,-1,10,-35,-66,27,4,-31,0
1491088608413,1,-15,-16,-12,39,67,78,30,5
1491088608413,1,9,45,9,61,-42,-54,-18,-6
1491088608414,2,-13,22,48,19,51,60,24,-9
1491088608414,2,-4,-19,-4,30,37,-49,33,16
1491088608414,1,-19,10,-21,-27,-128,-128,-115,10
1491088608414,1,-13,-78,-28,-11,127,127,50,0
1491088608415,2,17,73,22,7,3,34,84,6
1491088608415,2,-7,17,-8,-14,80,38,68,4
1491088608450,3,-22,-4,17,-2,20,61,-79,-21
1491088608450,3,-11,-60,-6,38,76,114,40,7
1491088608451,0,-12,-10,-11,-11,-24,-120,-66,-21
1491088608451,0,-5,26,1,8,-72,-53,-28,13
1491088608452,1,51,-10,10,16,0,78,-52,-4
1491088608452,1,109,-17,-45,21,-101,-74,16,6
1491088608454,2,111,-22,26,39,108,83,-122,-10
1491088608454,2,13,-45,-82,-90,-128,-78,-48,0
1491088608488,3,-63,-4,32,20,-1,38,70,-3
1491088608488,3,-111,73,32,-112,98,120,-39,-32
1491088608488,0,-99,20,32,60,94,-75,15,33
1491088608488,0,-90,-24,-47,-20,-72,-68,45,-11
1491088608490,1,-77,-15,-12,-61,-29,65,-81,-40
1491088608490,1,-72,-5,26,16,90,77,59,-22
1491088608490,2,-68,-15,6,-11,35,87,25,-15
1491088608490,2,-52,48,51,27,98,96,66,-6
1491088608525,3,-36,-50,-40,82,-104,-128,-92,-4
1491088608525,3,-32,-16,-13,-40,-30,-2,50,-11
1491088608526,0,-40,-12,-38,-9,-100,-15,47,-4
1491088608526,0,-24,-10,-21,-96,22,24,-48,-7
1491088608527,1,-5,28,26,-104,-59,110,25,-1
1491088608527,1,-19,4,-16,33,-75,-91,-128,0
1491088608528,2,-21,-53,-33,24,-53,32,-2,-6
1491088608528,2,-4,18,41,-8,62,20,43,-5
1491088608563,3,-104,31,8,-35,65,21,113,5
1491088608563,3,-128,33,37,80,77,61,27,-4
1491088608563,0,-121,-20,-40,-127,-128,-83,-22,2
1491088608563,0,-127,-8,44,97,43,79,-22,-6
1491088608564,1,-112,6,0,-59,-4,-1,-5,-15
1491088608564,1,-108,4,-5,58,-14,39,-6,5
1491088608565,2,-37,44,27,-41,114,-19,-76,-14
1491088608565,2,-9,-10,-50,25,-116,-49,-76,6
1491088608600,3,108,-8,2,122,-29,-128,-20,35
1491088608600,3,117,9,20,20,60,101,32,-10
1491088608601,0,127,13,32,48,-55,11,-50,17
1491088608601,0,127,2,2,41,35,-52,-94,-2
1491088608602,1,122,-53,-40,-3,-37,26,38,-7
1491088608602,1,127,14,7,-57,-69,-1,8,1
1491088608603,2,92,70,-47,-79,13,31,32,10
1491088608603,2,-51,-75,-53,-68,-121,-73,12,17
1491088608638,3,-56,-16,15,34,56,56,-48,-12
1491088608638,3,-78,23,56,-27,31,-40,-34,0
1491088608639,0,-109,-71,-28,-51,-90,-55,60,-23
1491088608639,0,-33,80,53,116,99,69,-22,11
1491088608640,1,19,3,20,-17,96,45,-33,-7
1491088608640,1,60,19,11,-58,-25,100,-2,-28
1491088608640,2,27,-52,-84,-78,-65,-51,41,22
1491088608640,2,102,-48,-7,-88,-84,-9,17,0
1491088608675,3,-71,-17,9,82,94,4,59,-30
1491088608675,3,-102,33,-30,-91,-73,26,-23,12
1491088608676,0,-128,26,90,111,97,-26,3,6
1491088608676,0,-128,15,-55,-98,-127,7,103,0
1491088608677,1,-87,-11,-10,69,74,-55,-49,13
1491088608677,1,-6,-65,-64,-79,-33,-103,77,0
1491088608678,2,-20,-44,-17,31,-23,-23,-50,-25
1491088608678,2,68,43,127,84,127,75,68,0
1491088608713,3,97,-4,-19,-91,-128,26,-58,13
1491088608713,3,23,18,-25,-64,40,-128,-32,18
1491088608714,0,127,-23,-44,33,9,25,46,1
1491088608714,0,52,-42,28,46,-25,-47,-107,-1
1491088608715,1,85,16,-11,-122,-25,97,64,-6
1491088608715,1,14,-11,-18,127,-80,-68,-51,24
1491088608750,2,9,-4,17,-62,69,81,16,-20
1491088608750,2,29,3,-11,-91,-65,50,-22,-6
1491088608751,3,-53,12,31,65,17,-15,-20,3
1491088608751,3,26,-11,-53,-128,-44,54,90,-39
1491088608752,0,66,44,14,-44,-37,29,-81,32
1491088608752,0,-10,-43,-40,43,-26,-90,-52,-5
1491088608753,1,-19,-13,2,56,-23,84,-79,-2
1491088608753,1,25,83,118,127,121,-78,65,2
1491088608788,2,-47,-59,-62,-6,-25,-62,11,-10
1491088608788,2,-15,-55,-83,-86,-46,90,-16,-21
1491088608789,3,30,-23,-9,-21,-54,-86,47,27
1491088608789,3,-25,-10,-15,-55,-13,-24,-75,-24
1491088608790,0,98,87,127,80,125,127,119,37
1491088608790,0,-95,-9,-64,-88,-60,-84,-34,-31
1491088608791,1,-80,-52,-66,74,37,12,-3,0
1491088608791,1,-97,-6,20,40,-13,32,-74,17
1491088608825,2,-128,-13,-22,-67,-41,33,38,-15
1491088608825,2,40,60,106,-24,123,-16,67,-5
1491088608826,3,-13,7,-67,61,-44,-105,34,23
1491088608826,3,54,-46,-24,-18,-66,15,-51,-18
1491088608827,0,96,27,12,-28,52,79,-128,11
1491088608827,0,102,-37,-10,16,-62,-76,-91,32
1491088608828,1,44,100,48,5,69,92,25,-5
1491088608828,1,-53,-39,6,-20,70,108,127,3
1491088608863,2,-128,41,-43,41,-128,-128,-53,-19
1491088608863,2,-128,-18,6,-24,7,127,127,-1
1491088608864,3,-91,11,13,-58,-43,-39,26,5
1491088608864,3,-110,-21,-17,112,80,-67,-96,47
1491088608865,0,-116,-28,-26,-96,-60,-65,-8,-30
1491088608865,0,-80,-37,-19,82,101,107,89,-3
1491088608900,1,-64,71,56,-105,-16,-128,-38,-5
1491088608900,1,-60,-23,-19,-2,-72,123,120,-10
1491088608901,2,-41,14,-4,-33,-27,-127,35,17
1491088608901,2,-43,-13,1,127,39,29,-108,-8
1491088608902,3,-36,-27,-29,-71,-49,-109,-73,-6
1491088608902,3,-13,-22,-11,-34,55,81,44,-3
1491088608903,0,-17,48,98,25,108,-86,10,14
1491088608903,0,-32,-23,-85,-110,-116,-56,-61,-1
1491088608938,1,-14,-7,19,-17,48,127,22,0
1491088608938,1,5,-4,8,25,-8,23,-68,-10
1491088608939,2,-13,10,-30,-38,-77,88,7,9
1491088608939,2,-19,25,-2,-84,45,-62,-71,9
1491088608940,3,5,-46,-27,80,59,62,50,-18
1491088608940,3,3,5,-14,18,-19,33,-76,-9
1491088608941,0,-12,-22,17,21,-21,36,94,-22
1491088608941,0,-6,50,60,38,43,63,40,5
1491088608975,1,3,5,-44,-128,-80,-103,-15,-8
1491088608975,1,-3,-32,-15,48,50,-51,-28,10
1491088608976,2,-7,-59,-59,-38,-40,-10,24,7
1491088608976,2,-2,32,34,5,-1,53,37,-58
1491088608977,3,-1,-10,27,4,12,-34,22,21
1491088608977,3,-2,55,29,52,50,0,-12,-15
1491088608978,0,0,-54,-42,38,56,49,-33,18
1491088608978,0,-3,37,27,-46,-49,-116,-2,-5
1491088609013,1,-3,8,13,-29,35,127,97,-17
1491088609013,1,1,-22,-5,-28,-92,-48,31,4
1491088609014,2,-1,-16,1,-18,19,61,-37,-15
1491088609014,2,-5,25,28,120,39,10,-10,12
1491088609015,3,-2,-25,-16,27,96,24,21,7
1491088609015,3,2,1,6,26,100,47,-38,-8
1491088609050,0,-3,64,50,0,-69,-95,-81,-11
1491088609050,0,-4,-7,-18,106,61,11,-14,11
1491088609051,1,1,-18,0,-4,13,-17,0,2
1491088609051,1,0,-1,-53,-50,-102,-113,5,4
1491088609052,2,-3,-63,-33,124,12,72,-102,-34
1491088609052,2,-2,65,21,-125,-49,51,77,45
1491088609053,3,0,-36,-20,89,-58,-74,-128,-24
1491088609053,3,-2,3,31,-75,24,82,127,15
1491088609088,0,-2,56,22,25,-10,88,-104,1
1491088609088,0,-1,-16,5,79,24,-42,-31,-39
1491088609089,1,-1,34,21,-88,24,104,119,11
1491088609089,1,-1,-35,-61,-22,-128,-115,-120,-1
1491088609089,2,-1,10,64,-77,59,108,95,2
1491088609089,2,-1,-41,-73,59,38,36,86,-28
1491088609090,3,-1,12,2,20,19,4,-114,-6
1491088609090,3,-1,-23,1,2,-62,-106,-101,-23
1491088609125,0,-1,-4,-10,21,1,-12,-67,17
1491088609125,0,-2,51,90,62,69,-61,-62,14
1491088609126,1,-1,-34,-38,-99,-96,1,88,-10
1491088609126,1,0,-18,17,50,85,109,-37,-11
1491088609127,2,-2,-11,-67,-39,-59,-124,-42,-30
1491088609127,2,-2,-37,-28,-102,-53,70,63,14
1491088609128,3,-1,17,9,-62,13,-42,-74,-11
1491088609128,3,0,8,57,-42,-11,120,48,-4
1491088609163,0,-1,28,-9,42,112,-67,127,5
1491088609163,0,-1,-48,-18,96,-54,-60,-105,12
1491088609164,1,-1,-39,-23,49,-34,-118,-105,-10
1491088609164,1,-1,90,25,-127,-80,-26,95,7
1491088609165,2,-2,-43,-13,41,14,127,20,-28
1491088609165,2,-1,-6,-18,-41,40,85,127,2
1491088609201,3,-1,-36,-24,-37,-69,-92,-43,14
1491088609201,3,-1,23,-7,95,-5,104,59,19
1491088609202,0,-1,-17,0,3,-18,-115,-38,-9
1491088609202,0,-1,14,-23,-77,-118,13,-62,5
1491088609203,1,-1,1,31,113,111,95,9,-28
1491088609203,1,-1,-27,-37,-46,8,-21,-8,10
1491088609204,2,-1,3,35,-50,-123,91,52,-10
1491088609204,2,-1,17,-6,83,101,-65,-29,27
1491088609238,3,-1,3,69,78,70,54,-39,-21
1491088609238,3,-1,97,33,98,14,21,60,12
1491088609239,0,-1,-59,-32,-17,95,-4,-50,-6
1491088609239,0,-1,-22,-6,-86,-128,-112,-116,4
1491088609241,1,-1,9,2,123,82,83,99,5
1491088609241,1,-1,-37,-12,70,28,-110,-81,-50
1491088609242,2,-1,45,77,55,70,122,104,23
1491088609242,2,-1,-4,-49,-81,-65,-1,-48,19
1491088609275,3,-1,-8,-18,-102,-27,-74,-42,18
1491088609275,3,-1,-26,-15,37,27,46,-71,-32
1491088609276,0,-1,36,19,-43,-100,-64,-86,-9
1491088609276,0,-1,-17,-8,-8,60,-50,-57,5
1491088609313,1,-1,-11,-28,-6,-118,-90,101,9
1491088609313,1,-85,17,42,-23,126,91,72,13
1491088609314,2,-115,-29,-12,11,112,12,-54,-13
1491088609314,2,-128,22,-19,86,17,-30,85,1
1491088609315,3,-128,21,-27,-111,-30,126,77,12
1491088609315,3,-119,-22,-8,-41,-62,-128,-123,-8
1491088609316,0,-53,46,30,-87,-14,47,64,-10
1491088609316,0,61,1,97,46,-25,0,-101,-44
1491088609350,1,122,6,-58,31,24,49,-9,35
1491088609350,1,127,-34,-18,-55,-5,-96,-61,-32
1491088609351,2,127,4,-36,113,45,2,57,54
1491088609351,2,120,6,10,-57,43,92,84,-3
1491088609352,3,125,-17,-21,-74,-118,-47,-128,-16
1491088609352,3,127,-43,2,-37,88,55,82,30
1491088609353,0,127,2,-23,-99,-128,15,-41,0
1491088609353,0,127,14,35,-111,37,-2,5,4
1491088609388,1,120,30,28,127,101,4,-78,-29
1491088609388,1,126,19,-36,-24,-76,-38,67,44
1491088609389,2,115,-17,19,-42,5,79,-37,-47
1491088609389,2,3,-13,-29,63,-63,-3,110,10
1491088609389,3,40,10,22,5,-37,60,-83,-9
1491088609389,3,-82,5,-8,31,37,-109,-128,-34
1491088609390,0,-62,-22,-25,10,-2,77,-38,-4
1491088609390,0,-59,18,9,-82,-87,5,-37,-12
1491088609425,1,-109,-18,-13,109,90,-117,51,13
1491088609425,1,-117,19,42,-6,-81,127,-75,-22
1491088609426,2,-116,13,-32,-26,90,-127,29,14
1491088609426,2,-122,-64,-65,-70,-56,123,15,-20
1491088609427,3,-11,25,3,28,-40,-79,-28,5
1491088609427,3,45,-30,8,-49,100,92,70,4
1491088609428,0,102,18,88,88,65,17,55,7
1491088609428,0,13,33,-36,33,-1,-33,-69,19
1491088609463,1,-110,-63,-33,0,-40,123,-57,-31
1491088609463,1,27,2,27,34,-93,46,89,11
1491088609464,2,-88,-12,-47,-14,-60,-92,-122,-9
1491088609464,2,25,19,29,-46,78,21,127,13
1491088609464,3,-69,-28,-19,43,-88,-82,34,-18
1491088609464,3,-26,10,12,83,5,30,-29,30
1491088609465,0,-16,22,63,23,73,47,45,-2
1491088609465,0,-45,-7,-44,-9,-1,-99,-86,-4
1491088609500,1,-14,-11,11,-33,34,52,100,-21
1491088609500,1,-40,-3,-14,-101,-59,-89,-61,-45
1491088609501,2,-103,-39,-72,5,-41,12,103,58
1491088609501,2,5,-8,58,62,-37,114,25,-24
1491088609501,3,76,50,19,-102,-101,-43,20,15
1491088609501,3,-97,-43,-44,40,65,95,-82,-32
1491088609503,0,49,-9,-17,-41,-119,0,-28,23
1491088609503,0,-24,34,-16,-64,32,-28,-92,-10
1491088609538,1,-56,-18,-18,-94,-15,53,36,13
1491088609538,1,50,-4,4,18,-56,-37,42,26
1491088609538,2,-7,17,11,45,71,13,-75,-16
1491088609538,2,-5,8,-11,62,-60,19,-62,-6
1491088609539,3,-63,27,24,-107,-96,67,95,40
1491088609539,3,-128,21,23,-70,3,23,82,-4
1491088609540,0,-20,-44,-59,127,-60,18,-59,-5
1491088609540,0,59,-2,42,35,102,-81,-47,-34
1491088609575,1,80,10,22,-42,57,33,0,48
1491088609575,1,125,13,-6,17,40,-39,74,-25
1491088609576,2,59,25,15,-128,-96,-23,47,21
1491088609576,2,4,-5,76,127,75,125,-71,-7
1491088609577,3,6,-11,-78,-18,124,-118,-110,2
1491088609577,3,50,11,10,-102,-70,54,23,21
1491088609613,0,-7,-13,-33,55,23,-87,-89,-12
1491088609613,0,-1,-32,-13,-18,20,59,88,-34
1491088609614,1,-17,2,55,28,8,2,-70,1
1491088609614,1,18,46,15,-3,50,85,62,53
1491088609614,2,20,2,-7,-68,-78,-47,-6,-57
1491088609614,2,31,-69,-96,26,55,-22,127,38
1491088609615,3,-16,26,41,35,3,31,-29,-23
1491088609615,3,-17,-7,-7,105,55,-6,-128,16
1491088609650,0,-30,-3,17,-32,-54,-44,-7,-28
1491088609650,0,-18,19,43,-95,24,47,83,33
1491088609651,1,38,12,-20,-57,-28,-56,-89,-35
1491088609651,1,-113,-16,-15,100,-16,9,38,-6
1491088609653,2,-122,27,20,-86,27,14,-21,1
1491088609653,2,-128,-48,-68,113,15,-110,-39,26
1491088609653,3,-44,-6,-14,-7,-4,-67,-97,-17
1491088609653,3,70,28,45,-110,31,60,63,-34
1491088609688,0,121,-31,-6,105,36,-103,-65,28
1491088609688,0,127,34,73,-24,-62,21,-10,-20
1491088609689,1,121,5,-59,127,109,7,39,-4
1491088609689,1,110,-30,1,47,-54,36,-79,10
1491088609690,2,127,16,43,-32,114,39,50,-18
1491088609690,2,127,8,-33,-5,-76,-60,59,13
1491088609691,3,119,1,69,-16,25,8,81,-12
1491088609691,3,125,-3,-75,-95,-126,-128,-97,-2
1491088609725,0,127,-31,-7,60,57,81,-59,6
1491088609725,0,122,26,29,24,18,53,17,8
1491088609726,1,59,-11,11,55,-60,87,20,-32
1491088609726,1,39,5,-11,-95,-108,-128,-47,22
1491088609727,2,1,-7,-27,-67,-15,36,-52,29
1491088609727,2,-60,-10,11,8,-58,-61,-90,-27
1491088609763,3,-61,14,28,63,63,127,24,0
1491088609763,3,-69,-27,-27,-29,-15,53,21,-29
1491088609764,0,-121,-20,-67,-70,-123,-73,-35,15
1491088609764,0,-90,25,64,79,100,126,94,0
1491088609765,1,-125,14,-46,-4,-119,-128,103,25
1491088609765,1,-126,-59,-50,126,-11,-104,-104,-14
1491088609766,2,-128,49,90,127,53,-3,-80,0
1491088609766,2,-57,-1,-31,-73,-49,-59,36,-12
1491088609838,3,42,12,76,-35,-2,111,60,-8
1491088609838,3,73,20,-11,-93,105,-64,81,-6
1491088609839,0,122,-58,-100,67,34,61,-19,13
1491088609839,0,91,-32,-24,-94,-42,-88,-62,-9
1491088609840,1,81,-3,28,-22,39,114,9,-20
1491088609840,1,84,10,-1,35,45,-95,-50,34
1491088609840,2,69,12,51,21,59,127,83,-26
1491088609840,2,53,20,21,33,64,-87,-77,-11
1491088609875,3,39,-5,-12,-47,14,-56,-40,8
1491088609875,3,33,12,16,-12,98,67,-12,-9
1491088609876,0,35,-33,-52,-16,31,-62,-57,8
1491088609876,0,21,-20,-26,-13,53,54,-84,14
1491088609877,1,22,27,11,-101,-91,-52,67,-11
1491088609877,1,9,-12,-44,4,13,-51,-122,-5
1491088609878,3,108,17,27,57,37,92,-76,15
1491088609878,3,-98,27,-2,4,80,42,92,1
1491088609913,0,-60,2,-24,-82,42,-65,106,-11
1491088609913,0,-58,2,8,28,10,127,67,-16
1491088609914,1,-27,-3,8,87,-53,74,-34,0
1491088609914,1,37,-33,-34,1,-108,41,-60,8
1491088609914,2,12,28,70,44,14,87,16,-5
1491088609914,2,0,4,-37,95,-14,-55,-11,7
1491088609916,3,-8,-59,-73,-89,-86,-128,-112,-4
1491088609916,3,20,17,15,-68,-31,86,71,-16
1491088609950,0,1,30,35,48,54,-88,27,-7
1491088609950,0,19,11,25,-70,-77,-19,-75,11
1491088609952,1,-17,-12,-8,110,73,-84,35,5
1491088609952,1,-1,-8,49,4,-94,-28,57,-5
1491088609954,2,20,-15,-77,-100,-40,-33,-25,3
1491088609954,2,7,17,47,-10,-11,-73,-77,-7
1491088609955,3,-23,21,21,-39,2,-59,21,21
1491088609955,3,2,-63,-56,-51,-95,-2,-42,10
1491088609988,0,14,19,85,114,85,99,121,-11
1491088609988,0,1,-4,-37,-88,-37,26,25,-4
1491088609990,1,-20,-34,-40,89,0,-35,-50,9
1491088609990,1,12,60,71,41,1,21,44,-5
1491088609990,2,7,-63,-118,-54,-128,-128,-128,11
1491088609990,2,-6,-18,-3,-15,6,103,-4,-7
1491088609991,3,-6,29,47,-5,94,-4,89,-21
1491088609991,3,6,27,64,26,121,89,24,0
1491088610025,0,0,-19,-46,1,-123,-105,1,-15
1491088610025,0,-19,-41,-77,-100,-41,-22,-27,7
1491088610027,1,-84,6,43,-55,103,102,41,-24
1491088610027,1,-37,11,-26,-19,-111,-128,-78,11
1491088610028,2,-39,57,127,64,121,117,101,-6
1491088610028,2,17,5,-85,-28,10,20,77,2
1491088610029,3,20,-43,-80,-49,-110,-37,-109,2
1491088610029,3,5,16,77,-53,116,68,44,-25
1491088610063,0,28,-54,-112,-32,-128,-128,-128,14
1491088610063,0,4,25,61,4,79,88,48,-3
1491088610064,1,6,18,30,25,56,78,56,21
1491088610064,1,3,8,3,73,118,127,22,3
1491088610065,2,9,42,47,-60,5,-84,-36,-3
1491088610065,2,-5,-24,-1,62,-41,13,-115,-1
1491088610066,3,-9,3,-81,-17,-57,73,-17,6
1491088610066,3,12,17,-4,-3,-20,59,-19,-11
1491088610100,0,-1,3,23,-38,44,66,-31,2
1491088610100,0,-9,-1,-25,39,-67,-97,-117,0
1491088610102,1,12,-51,18,54,-5,-82,-122,5
1491088610102,1,2,-5,54,55,-31,-74,-85,2
1491088610103,2,-4,-20,-46,-87,-19,13,127,-8
1491088610103,2,-5,49,48,11,42,28,122,4
1491088610103,3,5,-34,-5,49,-33,-33,55,6
1491088610103,3,0,-40,-33,70,-1,-43,-8,-5
1491088610138,0,-8,52,52,-6,-41,1,18,-5
1491088610138,0,1,-40,-9,-64,14,34,97,-14
1491088610139,1,1,56,-13,56,-8,0,25,9
1491088610139,1,-2,-15,-28,4,-20,-28,41,-2
1491088610140,2,3,18,0,127,0,33,58,-6
1491088610140,2,-1,-8,38,-5,-8,-43,-67,-3
1491088610141,3,-1,50,75,-63,-15,26,84,-11
1491088610141,3,-1,-26,-75,-42,-24,-62,-52,0
1491088610176,0,0,-39,-11,-40,-14,10,-61,-2
1491088610176,0,-2,15,7,-24,25,16,119,2
1491088610177,1,-3,-22,-59,-107,-20,-30,-71,-10
1491088610177,1,1,18,-9,-62,4,59,126,21
1491088610178,2,-1,19,44,-107,10,-5,2,-7
1491088610178,2,-3,-9,-16,-25,33,22,-15,-11
1491088610179,3,2,8,-27,16,10,-11,-14,7
1491088610179,3,0,-15,-15,-17,4,-18,12,2
1491088610213,0,-2,-34,-19,-8,76,22,11,6
1491088610213,0,-2,-19,-22,50,42,-12,-9,-3
1491088610214,1,1,-18,18,-8,47,-14,-42,-5
1491088610214,1,-1,1,0,74,31,24,-3,1
1491088610215,2,-3,4,-40,-77,8,19,-1,-4
1491088610215,2,0,30,68,11,64,18,14,9
1491088610251,3,0,-17,-18,-24,-52,0,2,2
1491088610251,3,-1,-38,-13,-42,-61,-39,-79,-9
1491088610252,0,0,11,-56,52,0,-11,16,5
1491088610252,0,-1,-9,41,55,-9,15,36,2
1491088610252,1,-1,9,-24,-59,52,47,-8,-6
1491088610252,1,-1,-38,-57,5,-52,-12,50,-1
1491088610253,2,-1,16,48,36,-28,-44,-29,-3
1491088610253,2,-1,-19,-26,47,-26,-27,-70,12
1491088610288,3,7,20,42,86,10,39,50,-7
1491088610288,3,25,15,-21,-6,5,4,-48,0
1491088610288,0,35,6,-31,47,14,2,-60,-9
1491088610288,0,37,28,38,-38,-65,7,28,8
1491088610289,1,29,-13,-3,-24,28,-1,53,-2
1491088610289,1,26,7,13,-26,14,44,-43,-8
1491088610290,2,24,-30,13,61,-19,24,59,5
1491088610290,2,18,21,-36,-2,65,7,-36,4
1491088610325,3,7,-30,-35,-117,-60,-19,-3,17
1491088610325,3,2,39,62,54,50,34,29,17
1491088610326,0,10,-26,-17,-40,-9,-18,-79,14
1491088610326,0,5,-8,-28,5,-15,9,13,-13
1491088610328,1,10,3,-20,-36,-15,-72,-97,-32
1491088610328,1,8,-26,13,79,-6,-4,30,0
1491088610329,2,6,17,30,16,9,36,41,2
1491088610329,2,9,1,-5,6,28,55,-29,-20
1491088610363,3,9,30,17,-59,94,5,58,3
1491088610363,3,-3,-20,-12,-36,-30,-34,-67,-15
1491088610364,0,4,-4,23,-29,-82,98,59,-3
1491088610364,0,15,-6,-26,3,-11,-28,49,17
1491088610364,1,5,7,52,59,97,76,17,3
1491088610364,1,-19,12,-18,0,-83,28,37,-16
1491088610365,2,-9,16,-12,-49,79,-57,-84,0
1491088610365,2,-38,-31,-7,-41,-39,75,110,0
1491088610401,3,54,35,56,33,52,-42,-100,-26
1491088610401,3,103,-11,-61,-74,-20,-38,93,20
1491088610403,0,-75,2,6,-16,-26,10,-115,-20
1491088610403,0,-89,-6,5,2,83,100,59,-1
1491088610405,1,75,-57,-41,7,-25,92,37,4
1491088610405,1,58,-20,8,13,8,-78,-115,1
1491088610407,2,107,67,18,11,63,102,74,-26
1491088610407,2,-89,-6,-4,25,-84,-128,-32,18
1491088610438,3,-128,2,-3,-49,9,5,53,-8
1491088610438,3,-128,-3,-10,58,-22,47,127,18
1491088610441,0,-117,-36,-28,-15,-111,74,-41,-6
1491088610441,0,-106,8,14,5,-3,67,-12,-20
1491088610442,1,-97,6,-21,26,-19,-42,34,9
1491088610442,1,-42,8,35,-10,101,127,67,-16
1491088610476,2,-102,-26,-66,-29,-54,-124,-52,13
1491088610476,2,-28,18,3,-4,46,14,38,-8
1491088610480,3,-74,-51,-30,57,-108,40,-40,-14
1491088610480,3,-21,27,46,-25,107,79,-51,-6
1491088610482,0,100,7,24,-13,127,-3,65,4
1491088610482,0,124,-24,-42,-40,-113,-121,-128,8
1491088610484,1,62,-30,-8,6,9,8,-49,14
1491088610484,1,-121,29,30,49,66,-92,-81,-13
1491088610513,2,104,9,28,-9,71,23,77,7
1491088610513,2,115,-34,-45,36,38,-17,-120,-8
1491088610514,3,-74,19,-10,-78,-128,114,63,-26
1491088610514,3,16,26,41,68,-104,-117,-38,21
1491088610515,0,-128,15,-14,6,82,127,54,17
1491088610515,0,-18,17,45,-9,127,-12,-36,-12
1491088610515,1,127,-9,-32,-14,-80,-53,-78,7
1491088610515,1,52,-9,12,-7,88,45,-38,12
1491088610550,2,-36,-4,16,63,4,-55,-68,-7
1491088610550,2,-101,-2,-4,-49,-95,83,94,-19
1491088610551,3,-128,21,7,105,44,-128,46,50
1491088610551,3,-124,-6,0,-15,52,102,105,74
1491088610552,0,-82,35,39,103,9,-97,-59,26
1491088610552,0,-128,26,56,24,127,52,47,-28
1491088610553,1,-72,-29,-63,-65,-57,-7,-34,-64
1491088610553,1,4,-33,-73,-12,-128,36,43,-85
1491088610588,2,-5,-11,41,95,83,32,-52,-24
1491088610588,2,-8,8,48,23,-68,-29,-17,-15
1491088610588,3,45,10,-53,-93,20,-64,-44,14
1491088610588,3,14,21,75,105,127,32,12,-16
1491088610590,0,112,-66,-73,-2,-92,32,61,3
1491088610590,0,-18,88,89,87,22,52,-126,13
1491088610625,1,-53,-53,-53,127,7,-24,103,26
1491088610625,1,-96,-29,-21,-65,-22,47,-29,-2
1491088610626,2,-7,76,87,-128,-2,111,110,-23
1491088610626,2,-13,-73,-107,64,-98,-73,-93,-10
1491088610626,3,82,42,85,-31,80,127,18,-5
1491088610626,3,54,9,-81,39,0,-21,-25,10
1491088610627,0,-20,-71,5,111,-13,-13,-11,-1
1491088610627,0,119,31,9,-35,47,-61,40,15
1491088610663,1,60,24,-6,-64,-30,-125,-74,15
1491088610663,1,8,-40,27,-82,41,88,17,-23
1491088610663,2,42,53,-25,40,-12,-11,24,-20
1491088610663,2,3,-39,-60,92,-25,-38,-88,15
1491088610664,3,51,36,66,69,12,-52,94,21
1491088610664,3,5,-44,-24,50,-57,55,-65,24
1491088610665,0,9,-27,6,-90,-88,-28,90,10
1491088610665,0,1,-30,-80,-26,-106,-52,-73,-2
1491088610700,1,8,23,61,116,-81,30,-62,-22
1491088610700,1,-55,-5,-48,-21,-104,-69,-41,-11
1491088610701,2,75,64,37,-97,18,43,-26,-3
1491088610701,2,-21,11,62,47,79,70,80,11
1491088610702,3,-44,-67,-83,-63,-48,-39,-20,10
1491088610702,3,16,51,25,-17,18,39,12,-18
1491088610703,0,-41,-54,-17,54,30,24,-17,-48
1491088610703,0,75,43,27,-5,-6,-17,-47,26
1491088610775,1,-23,-22,-24,-78,-12,121,-4,24
1491088610775,1,-27,-23,2,-82,-81,8,-92,-6
1491088610776,2,9,-53,-45,59,24,-26,27,45
1491088610776,2,62,59,34,-38,-10,30,54,-18
1491088610777,3,-42,-25,-2,-64,15,59,54,-44
1491088610777,3,25,18,38,62,73,-5,17,19
1491088610778,0,-35,1,17,-87,44,-36,19,22
1491088610778,0,-44,-19,-57,-55,-58,12,43,30
1491088610813,1,14,-31,-37,15,-41,-64,-128,-12
1491088610813,1,3,-3,40,-3,-18,-81,-9,-25
1491088610814,2,43,35,3,52,-7,-82,-6,34
1491088610814,2,-29,-5,13,-91,23,105,93,-8
1491088610814,3,-41,10,15,103,15,66,-24,-3
1491088610814,3,103,10,-47,-23,18,-68,106,39
1491088610815,0,-4,-12,12,39,-45,8,-51,-25
1491088610815,0,-9,-28,-62,-62,32,32,-75,-10
1491088610850,1,32,9,50,54,46,70,82,-3
1491088610850,1,-7,17,-22,-68,-26,-51,18,3
1491088610851,2,-41,-2,2,55,-44,-14,-65,-12
1491088610851,2,11,-27,-21,-53,-27,-20,51,1
1491088610851,0,-20,-26,-19,-66,-40,-55,-12,-6
1491088610851,0,-5,-8,-8,-72,-43,50,43,-27
1491088610853,1,-1,12,0,-10,7,-95,19,3
1491088610853,1,75,4,11,-17,18,85,111,-3
1491088610888,2,7,-3,0,-61,20,61,-13,4
1491088610888,2,-16,-4,-21,-32,-25,-87,-87,3
1491088610889,3,53,44,58,58,34,97,64,0
1491088610889,3,-51,-50,-48,35,-115,-128,-106,-25
1491088610890,0,-21,26,6,-47,-12,106,88,0
1491088610890,0,-15,-21,-23,-5,-84,6,-111,-3
1491088610890,1,111,17,73,-33,119,97,69,-3
1491088610890,1,-45,-28,-67,56,-99,-56,-81,-12
1491088610925,2,-56,-22,7,14,46,85,-17,6
1491088610925,2,14,22,19,-40,6,96,82,3
1491088610926,3,-91,-39,-67,108,-90,-37,-98,-3
1491088610926,3,-3,-7,11,20,76,16,-42,-12
1491088610927,0,23,27,7,-83,-35,-64,19,-12
1491088610927,0,-11,-7,6,-24,-47,14,4,8
1491088610928,1,-7,-19,37,30,98,127,46,3
1491088610928,1,-36,12,-29,26,-4,-86,-43,13
1491088610962,2,-27,-11,-24,55,38,67,-27,-96
1491088610962,2,80,40,20,-21,-42,-62,92,54
1491088610964,3,-86,-62,-35,58,-49,21,-91,-21
1491088610964,3,-6,24,69,-68,-22,127,-103,13
1491088610965,0,51,54,35,35,38,-4,108,50
1491088610965,0,-40,-68,-66,2,2,102,-63,-29
1491088610966,1,-14,-21,-49,-80,-10,65,110,-14
1491088610966,1,11,41,48,25,-4,-38,-23,-1
1491088611000,2,37,-20,-1,81,-20,1,-34,-4
1491088611000,2,-56,23,76,65,110,-18,82,7
1491088611001,3,68,-4,-54,92,4,-128,-100,2
1491088611001,3,-40,-3,28,20,-5,49,92,-10
1491088611001,0,-21,-27,-50,-125,-36,-26,-7,4
1491088611001,0,-28,13,64,127,85,-45,27,0
1491088611002,1,-31,-4,-65,-128,-83,-72,56,10
1491088611002,1,41,25,16,72,115,67,-28,-14
1491088611038,2,82,42,-25,-95,-128,-28,-92,28
1491088611038,2,-89,-96,-79,84,-77,-106,-106,9
1491088611038,3,5,43,121,127,127,127,108,-17
1491088611038,3,17,-23,-46,-87,24,-46,125,-8
1491088611039,0,-96,-14,2,92,-10,-128,-109,7
1491088611039,0,98,55,63,10,127,127,47,17
1491088611040,1,12,4,-83,25,12,-111,19,31
1491088611040,1,-41,-52,-40,-12,-46,-73,73,-17
1491088611075,2,-28,27,50,17,127,85,36,-9
1491088611075,2,-54,-26,-66,-27,-32,-27,-46,-1
1491088611076,3,78,22,55,50,-36,-67,-128,0
1491088611076,3,57,-25,5,-28,-41,-37,92,7
1491088611076,0,-65,7,-4,25,-61,102,24,-7
1491088611076,0,80,50,90,-42,-85,82,-21,-32
1491088611077,1,-23,21,-55,65,92,-125,-81,3
1491088611077,1,51,-66,-12,1,-73,127,-79,42
1491088611113,2,-36,-21,-16,47,-45,-71,46,3
1491088611113,2,-104,-20,-37,14,-61,-95,-45,8
1491088611113,3,-34,-4,37,-126,-77,97,-8,-71
1491088611113,3,0,11,-5,-50,33,120,-59,42
1491088611114,0,-63,19,45,-15,-3,-88,-128,-40
1491088611114,0,-45,6,43,-55,-83,-9,44,-18
1491088611115,1,-90,-69,-96,70,5,48,-128,28
1491088611115,1,4,-10,-27,70,-52,-109,-1,-19
1491088611150,2,1,-19,6,-82,4,127,79,-4
1491088611150,2,-4,12,-28,127,119,-104,-113,7
1491088611151,3,-49,57,62,-89,9,57,127,1
1491088611151,3,40,-38,-16,-89,-125,58,47,-27
1491088611152,0,-50,-26,-20,69,97,35,-88,42
1491088611152,0,117,-19,-30,-117,-68,106,127,-69
1491088611188,1,-42,-13,7,65,35,-91,-108,47
1491088611188,1,-34,83,79,52,127,127,50,-32
1491088611189,2,53,-41,-65,-19,-86,-82,112,6
1491088611189,2,-3,20,56,127,57,-37,-55,10
1491088611189,3,-66,24,35,-44,-8,21,-84,-25
1491088611189,3,-61,-16,-56,64,18,-108,-86,-22
1491088611190,0,46,14,-4,-84,-69,-58,-27,34
1491088611190,0,38,-49,-18,55,100,80,126,33
1491088611225,1,52,19,-1,26,-88,5,-24,0
1491088611225,1,-70,58,87,-128,40,64,-119,-5
1491088611226,2,68,-4,-78,73,-25,-44,-49,-54
1491088611226,2,-18,-18,63,66,113,-6,107,6
1491088611227,3,69,51,14,-109,-89,31,-15,50
1491088611227,3,-23,-15,-82,37,-67,12,45,-21
1491088611228,0,2,-39,-12,45,41,-1,-55,18
1491088611228,0,-2,56,70,-111,-47,-51,-9,-39
1491088611300,1,-39,-78,-64,69,9,-20,-56,20
1491088611300,1,-33,34,6,-52,77,71,119,-18
1491088611301,2,-37,-80,-42,26,-80,-63,27,16
1491088611301,2,-36,-27,-58,-57,-65,-34,-103,11
1491088611302,3,1,21,62,-52,33,90,127,-80
1491088611302,3,120,17,-30,-50,-41,-86,-14,7
1491088611303,0,-32,14,64,-40,-44,-22,-40,-17
1491088611303,0,-5,30,-6,-19,104,41,-91,7
1491088611338,1,84,-3,-62,43,-128,-29,109,16
1491088611338,1,-34,-26,-23,35,-66,38,-20,30
1491088611339,2,34,37,33,-3,24,16,-37,-25
1491088611339,2,-3,-5,-4,-74,-49,-11,82,-1
1491088611339,3,27,-10,25,25,127,-15,19,-1
1491088611339,3,13,57,121,48,103,-25,-28,-3
1491088611340,1,17,41,89,120,99,81,93,-12
1491088611340,1,34,-20,-26,23,-101,-128,-128,18
1491088611412,2,-77,9,91,-72,33,127,94,-4
1491088611412,2,39,40,-19,31,90,-128,-74,1
1491088611413,3,-71,-34,-27,-75,-69,23,-75,-24
1491088611413,3,-20,-4,-77,-93,-93,-92,-2,-8
1491088611414,0,40,6,13,58,-38,95,45,1
1491088611414,0,39,10,28,10,70,127,127,23
1491088611415,1,42,48,52,5,9,-128,-128,25
1491088611415,1,-16,-18,-15,-8,-18,127,96,24
1491088611450,2,-24,-10,-78,7,19,0,-100,-29
1491088611450,2,-38,-60,-64,5,-71,-95,116,-15
1491088611451,3,-1,8,59,-80,86,81,-5,-3
1491088611451,3,45,4,-61,-95,-75,-23,-36,2
1491088611452,0,88,27,43,26,-7,-47,112,48
1491088611452,0,7,1,-48,-8,53,57,-15,-11
1491088611452,1,-7,-39,-10,-76,-113,-56,-31,12
1491088611452,1,-25,46,68,105,127,127,2,-33
1491088611488,2,25,23,-17,-59,-3,-128,23,10
1491088611488,2,-34,-48,-61,-14,-123,-91,-92,5
1491088611489,3,-6,7,86,35,-11,113,117,3
1491088611489,3,-33,-3,-100,-71,-46,-112,-128,-11
1491088611490,0,-28,-49,7,29,0,-86,-51,-14
1491088611490,0,8,1,51,65,31,113,81,2
1491088611491,1,-25,26,16,-19,39,-121,-128,23
1491088611491,1,43,27,0,-3,26,-91,127,-35
1491088611525,2,-8,-29,-19,-7,-36,120,7,1
1491088611525,2,-23,5,-18,-65,-105,-128,-128,-39
1491088611526,3,-11,-23,-18,61,57,80,127,26
1491088611526,3,-25,-63,-36,-76,85,64,10,-21
1491088611526,0,11,32,29,-36,-1,89,18,3
1491088611526,0,23,55,45,-8,88,-28,-39,-2
1491088611527,1,-9,-21,-2,19,40,52,-24,10
1491088611527,1,4,43,52,-95,-43,88,56,-4
1491088611563,2,-50,-62,-106,29,-21,30,-13,-10
1491088611563,2,-27,-31,-2,33,-74,95,-77,-1
1491088611564,3,28,21,11,50,65,-125,43,-15
1491088611564,3,-12,-1,79,-72,51,94,-49,17
1491088611565,0,18,42,23,69,36,53,-17,-18
1491088611565,0,-6,-10,-43,-65,-49,82,57,14
1491088611566,1,-1,-28,-13,63,55,90,-53,-18
1491088611566,1,-6,25,14,-76,-69,118,87,8
1491088611600,2,-20,-22,12,-33,-63,-63,-70,-17
1491088611600,2,39,60,85,-56,13,97,90,-7
1491088611601,3,-56,-68,-127,54,-28,-103,-65,3
1491088611601,3,45,5,28,88,-18,104,-63,11
1491088611602,0,17,46,70,-16,21,78,32,-2
1491088611602,0,-56,-46,-91,-106,-51,-85,-3,-5
1491088611603,1,42,-4,15,-56,0,127,-10,-15
1491088611603,1,14,56,33,50,114,-128,-29,16
1491088611638,2,-13,-36,-65,-84,119,69,-9,14
1491088611638,2,-6,-21,31,127,-32,59,12,-1
1491088611639,3,12,2,11,55,-4,24,14,-18
1491088611639,3,13,-41,-39,54,-110,5,-46,23
1491088611640,0,-11,39,31,-37,3,-76,0,-2
1491088611640,0,13,15,8,-13,-40,121,46,-9
1491088611640,1,-18,8,8,6,-73,-36,-67,14
1491088611640,1,-30,1,51,86,20,6,24,0
1491088611675,2,69,29,-2,15,-23,29,104,-14
1491088611675,2,-38,-79,-115,-4,-72,-128,-77,6
1491088611676,3,8,27,41,-22,-23,76,36,-6
1491088611676,3,5,54,83,23,91,88,61,-14
1491088611679,0,-24,-33,-83,80,-127,-60,-91,6
1491088611679,0,1,-22,7,11,70,46,3,11
1491088611680,1,-6,-23,20,45,46,111,110,-8
1491088611680,1,4,6,12,-27,49,16,-44,-6
1491088611713,2,1,44,116,10,127,117,106,-7
1491088611713,2,6,17,-4,53,1,-53,-53,2
1491088611713,3,7,-17,-86,-117,-83,-101,-15,4
1491088611713,3,2,-18,-15,67,-24,-7,-27,-18
1491088611714,0,-22,3,-21,-102,-76,-57,-120,-11
1491088611714,0,1,11,38,-25,-30,-11,45,-6
1491088611715,1,-1,-74,-83,-83,-107,-92,-43,9
1491088611715,1,-33,-22,1,124,20,-52,-70,-6
1491088611750,2,27,-2,-14,-93,46,69,-22,-22
1491088611750,2,6,29,84,-78,120,100,-20,6
1491088611751,3,-1,16,-22,61,-44,-105,-60,-13
1491088611751,3,-3,3,-54,-51,-83,-24,-87,80
1491088611752,0,-26,-21,-12,-30,39,88,-84,23
1491088611752,0,-36,13,-8,16,0,-98,-110,-38
1491088611788,1,8,34,42,-42,15,66,-101,-38
1491088611788,1,-31,-53,-68,45,-95,-93,-83,-35
1491088611789,2,21,50,121,53,79,78,127,-10
1491088611789,2,20,-46,-86,-39,-82,-5,74,14
1491088611790,3,-43,-25,-65,-21,-72,-70,-55,6
1491088611790,3,52,-15,24,-28,91,21,56,-26
1491088611791,0,9,-14,15,44,-15,-36,68,33
1491088611791,0,33,24,1,-28,127,71,78,-17
1491088611825,1,-14,3,91,33,-7,4,61,12
1491088611825,1,1,28,-21,36,26,-48,-52,-9
1491088611826,2,56,13,16,12,21,43,90,5
1491088611826,2,-12,19,-22,-1,4,-21,49,-10
1491088611827,3,24,1,-1,64,-7,-21,53,20
1491088611827,3,-43,-56,-80,-79,-128,-82,-12,-6
1491088611827,0,-48,15,37,61,69,51,-39,-13
1491088611827,0,-14,-13,12,34,110,-91,-6,26
1491088611863,1,67,51,85,32,127,127,83,2
1491088611863,1,-48,-5,-82,78,-46,-97,18,-11
1491088611863,2,7,-46,-60,-29,-62,-48,-117,4
1491088611863,2,-43,-30,-36,-12,-128,-23,-90,-19
1491088611864,3,-19,13,38,-3,101,28,127,-8
1491088611864,3,18,-14,15,-42,74,67,124,16
1491088611865,0,-13,32,-37,-24,-52,-11,14,30
1491088611865,0,29,-8,13,55,0,-65,-44,17
1491088611900,1,-6,30,-2,-39,47,30,29,-11
1491088611900,1,14,0,35,-20,-53,-39,-25,-12
1491088611901,2,-17,-30,0,67,86,95,90,-7
1491088611901,2,-2,24,59,-25,-18,-85,-49,-17
1491088611902,3,10,-19,-28,-30,-109,-54,4,-8
1491088611902,3,29,-9,-62,-73,107,127,16,4
1491088611938,0,9,13,-8,-61,-27,-36,72,-12
1491088611938,0,-2,25,55,0,0,101,-80,3
1491088611938,1,5,-31,-62,45,13,-28,-19,11
1491088611938,1,-11,35,22,-32,94,113,42,-17
1491088611939,2,-11,-18,13,-78,-58,79,21,-4
1491088611939,2,17,7,-33,-33,-69,-32,-28,10
1491088611940,3,-12,6,-29,-87,-96,50,-22,0
1491088611940,3,31,6,65,50,70,74,88,6
1491088611975,0,-4,7,-4,33,-113,-89,-128,-16
1491088611975,0,-33,-32,-29,-15,127,127,127,2
1491088611976,1,30,46,-25,-33,-54,-101,-101,25
1491088611976,1,19,-12,13,-18,-10,45,21,76
1491088611976,2,-38,-16,0,-104,103,62,-30,-9
1491088611976,2,34,32,-44,127,-128,-103,-2,36
1491088611977,3,-1,-8,13,74,127,127,-21,-39
1491088611977,3,-38,-52,-64,-74,-114,4,-36,-27
1491088612013,0,-7,13,15,19,-77,-123,4,-15
1491088612013,0,41,-3,5,-61,127,127,15,1
1491088612014,1,-11,-10,6,-95,26,1,52,-8
1491088612014,1,-7,31,92,-92,56,21,-70,-23
1491088612014,2,-27,-33,-40,-49,-24,-108,39,11
1491088612014,2,-22,18,73,53,81,-49,-65,-24
1491088612015,3,42,19,-20,-66,-108,60,61,18
1491088612015,3,-13,-23,-29,42,-69,15,99,13
1491088612050,0,-4,-5,-1,2,-25,8,-99,-12
1491088612050,0,8,9,1,42,-15,-27,75,-8
1491088612051,1,-24,-7,89,76,127,54,88,-7
1491088612051,1,-10,15,-37,102,-30,-54,47,18
1491088612052,2,7,-41,-48,29,-61,-64,-10,-20
1491088612052,2,-29,-2,19,-12,55,65,23,-11
1491088612088,3,-21,-47,-43,40,-16,-68,-52,-4
1491088612088,3,12,48,29,44,114,108,99,-7
1491088612088,0,-19,-17,-18,11,-107,-128,-86,-2
1491088612088,0,-40,-10,-10,56,49,112,-32,-20
1491088612089,1,8,-3,25,33,-48,-73,-79,-2
1491088612089,1,35,0,-11,-14,72,85,-17,-13
1491088612090,2,-20,-19,-66,-54,-80,-20,-25,-4
1491088612090,2,7,-22,33,-40,52,-62,-86,-6
1491088612125,3,0,41,-47,61,-55,116,59,0
1491088612125,3,3,6,64,-59,-38,-75,-94,-23
1491088612126,0,10,-45,-18,73,127,127,2,15
1491088612126,0,8,19,-14,-79,-128,-99,-1,3
1491088612127,1,21,-19,4,5,8,-59,12,0
1491088612127,1,-33,-14,13,-33,-2,25,-88,-6
1491088612127,2,-3,-8,34,68,76,-37,-14,-10
1491088612127,2,36,38,-18,35,-98,121,-39,15
1491088612163,3,-18,-11,-8,-123,-103,-29,-60,-19
1491088612163,3,-19,-4,40,0,56,90,-61,-8
1491088612163,0,8,12,-58,-50,-18,-88,71,32
1491088612163,0,-32,2,37,48,56,118,66,-1
1491088612164,1,-1,4,0,4,19,-112,-113,-4
1491088612164,1,-8,-48,-20,38,-47,-34,-17,-13
1491088612165,2,31,32,29,94,17,96,49,9
1491088612165,2,9,-37,-25,-5,-44,-103,-20,19
1491088612200,3,-40,-12,-9,-52,2,24,18,1
1491088612200,3,-25,-4,41,83,19,42,-15,-20
1491088612201,0,70,39,-6,-128,-24,-111,60,12
1491088612201,0,-17,-41,-32,23,-15,-38,-47,-24
1491088612202,1,19,36,7,-7,-20,73,73,16
1491088612202,1,2,11,4,-7,-32,-44,-23,-3
1491088612238,2,-47,0,-27,-66,-21,7,-125,-26
1491088612238,2,0,22,43,33,6,36,100,10
1491088612239,3,-17,-63,-62,-76,2,65,-23,-19
1491088612239,3,-30,-27,-28,33,-32,-120,-71,-7
1491088612240,0,14,39,55,8,-17,76,95,4
1491088612240,0,26,24,60,48,96,63,9,-18
1491088612241,1,-55,-8,-25,68,36,-115,-57,3
1491088612241,1,60,15,-26,-14,-31,115,29,5
1491088612275,2,-18,-21,31,-36,22,95,56,-20
1491088612275,2,-3,-26,-33,-5,-52,18,-84,14
1491088612276,3,-25,24,-19,-18,-15,1,127,6
1491088612276,3,60,-5,-16,-21,23,-64,-29,-3
1491088612276,0,41,43,64,14,36,52,30,11
1491088612276,0,-64,-60,-88,-9,-58,-37,-72,2
1491088612277,1,18,12,30,-15,18,53,37,-5
1491088612277,1,-37,14,-7,3,19,-60,32,14
1491088612313,2,-57,-43,14,-7,23,1,-60,-20
1491088612313,2,29,31,15,-69,-19,18,41,-12
1491088612313,3,55,-5,-15,-4,-49,-128,-95,23
1491088612313,3,-33,-27,-38,86,-44,50,44,-4
1491088612314,0,47,10,29,29,101,-37,-16,-11
1491088612314,0,-89,-25,-53,-109,-89,61,43,-15
1491088612350,1,91,-13,-24,127,71,-56,-33,20
1491088612350,1,-24,43,115,-14,80,105,127,-14
1491088612351,2,24,-12,-128,105,-85,-104,-41,29
1491088612351,2,-24,-33,-13,-42,-59,79,-25,8
1491088612351,3,-14,12,59,-63,-5,127,101,-19
1491088612351,3,6,-6,-24,-39,-39,3,8,3
1491088612352,0,1,14,68,72,119,127,-67,-26
1491088612352,0,50,56,19,-10,79,-128,-60,14
1491088612388,1,-33,-77,-38,-36,-62,81,46,8
1491088612388,1,-32,-8,-24,55,57,76,28,-11
1491088612388,2,-27,-4,-40,-103,-68,-54,-8,0
1491088612388,2,-9,-28,10,46,54,49,82,-8
1491088612390,3,3,65,103,43,11,-12,-91,-7
1491088612390,3,-4,-13,-75,-18,-15,-114,-30,21
1491088612391,0,15,-34,-14,-20,-111,61,35,-4
1491088612391,0,-32,-19,-9,69,59,54,47,-2
1491088612426,1,-4,5,22,-4,29,113,84,-9
1491088612426,1,7,20,31,20,57,-31,-12,6
1491088612426,2,-29,8,4,35,-93,-99,-102,-5
1491088612426,2,-6,-34,1,5,15,81,85,-10
1491088612427,3,-3,48,-23,-100,39,11,-67,7
1491088612427,3,10,-13,-29,-52,-93,-83,-39,2
1491088612428,0,-21,-8,28,20,44,64,-29,-6
1491088612428,0,63,-5,-10,-34,29,-104,15,-10
1491088612463,1,25,-8,2,61,-48,-33,-73,-14
1491088612463,1,28,-20,1,-98,17,85,44,2
1491088612465,2,-11,24,12,126,49,-128,-94,34
1491088612465,2,-25,6,23,48,18,127,127,-20
1491088612466,3,-19,-40,-53,-17,-52,-75,-72,-16
1491088612466,3,52,5,-1,18,22,26,-70,-3
1491088612500,0,0,17,7,-46,16,50,-31,3
1491088612500,0,-14,18,-10,-60,-19,-44,-34,2
1491088612501,1,31,18,55,70,121,106,114,16
1491088612501,1,-17,14,4,-79,-56,-44,3,-10
1491088612502,2,13,-46,-52,10,-24,33,-25,16
1491088612502,2,-23,-5,5,78,-44,-105,-33,-5
1491088612503,3,-71,-48,-36,11,49,-102,-92,-22
1491088612503,3,33,85,49,-5,10,83,87,9
1491088612538,0,-31,-9,9,-110,-3,-41,110,2
1491088612538,0,47,-34,-78,-11,-95,7,46,7
1491088612539,1,-20,-9,29,29,67,32,-103,-17
1491088612539,1,-3,66,25,-86,-34,81,74,7
1491088612540,2,-27,-57,-81,-29,-63,-94,37,-10
1491088612540,2,94,32,43,41,-13,-23,-77,13
1491088612541,3,-18,28,1,-13,21,84,15,22
1491088612541,3,-19,-35,7,42,-1,-128,-87,6
1491088612575,0,33,47,69,18,43,127,1,-48
1491088612575,0,23,6,-68,-59,-14,-128,-59,43
1491088612576,1,26,16,15,67,0,-67,-53,-6
1491088612576,1,-15,-31,-10,36,27,43,-98,-16
1491088612577,2,-45,-3,43,-5,80,37,122,2
1491088612577,2,-64,27,-16,83,-25,23,-119,19
1491088612578,3,28,11,30,-88,67,-1,10,-39
1491088612578,3,14,-38,-93,23,-11,36,-34,4
1491088612613,0,-42,-11,-1,1,-36,-57,-3,10
1491088612613,0,5,26,44,-128,-38,11,-45,-44
1491088612613,1,-26,-17,-50,23,-79,-24,25,6
1491088612613,1,47,4,60,127,65,14,52,2
1491088612614,2,76,-7,-49,-40,-44,-36,-10,-11
1491088612614,2,-38,-10,-21,-75,-21,-46,-67,19
1491088612650,3,-87,-5,14,7,30,40,-16,-5
1491088612650,3,-46,-8,3,-63,-33,85,81,-8
1491088612651,0,-50,12,16,116,116,-67,-28,-11
1491088612651,0,-1,-30,52,127,99,127,105,1
1491088612652,1,-99,-1,-81,-19,-128,-69,-90,-5
1491088612652,1,35,-29,-35,-22,-55,55,82,-23
1491088612652,2,-10,-18,52,77,35,127,109,7
1491088612652,2,-17,9,-11,-60,-38,-38,-71,-2
1491088612688,3,-14,64,92,100,119,-53,10,1
1491088612688,3,8,-9,-55,-107,16,16,-41,3
1491088612688,0,15,7,32,21,-80,60,-32,8
1491088612688,0,86,57,57,38,112,-10,110,12
1491088612689,1,-64,-83,-98,-65,-94,109,67,-14
1491088612689,1,86,70,-12,112,-60,-128,-58,14
1491088612690,2,-12,-37,-17,-128,-2,108,72,-10
1491088612690,2,-51,37,69,43,127,127,45,8
1491088612800,3,13,-22,-45,-96,-104,-64,-17,5
1491088612800,3,-31,-14,86,117,81,-6,45,21
1491088612802,0,94,14,-45,-115,-108,-36,-47,-37
1491088612802,0,-38,-11,-88,-20,-125,-92,-46,-3
1491088612803,1,-4,-5,92,-54,99,122,96,-2
1491088612803,1,16,26,-51,52,33,46,57,-34
1491088612804,2,-72,-35,29,99,-64,-92,-128,15
1491088612804,2,109,18,44,77,69,39,-47,4
1491088612838,3,116,49,8,-65,-113,99,23,-4
1491088612838,3,-128,-41,-15,75,13,-122,-127,-10
1491088612838,0,-13,27,6,-34,43,-19,-88,20
1491088612838,0,-60,0,-46,-20,-54,-84,-102,-37
1491088612839,1,79,-7,23,-81,-2,127,94,41
1491088612839,1,56,7,10,17,11,69,-117,0
1491088612840,2,-42,-53,-73,-113,-97,74,-100,0
1491088612840,2,67,83,103,-73,95,83,127,-9
1491088612875,3,57,-49,-112,-10,64,-22,-86,10
1491088612875,3,-47,-11,61,35,-46,-31,-13,14
1491088612879,0,46,31,-50,-75,-68,7,113,-3
1491088612879,0,-40,-58,-15,124,46,-36,-95,8
1491088612879,2,32,48,82,74,29,37,-55,21
1491088612879,2,26,-18,-12,48,6,-52,-65,-41
1491088612880,3,-11,-61,-63,15,-91,55,48,-5
1491088612880,3,10,8,-15,-128,-15,-116,-98,-10
1491088612913,0,7,-37,-41,19,-70,116,80,-2
1491088612913,0,-42,-10,-2,-28,-34,-87,-65,24
1491088612913,1,106,36,44,-69,14,19,44,-9
1491088612913,1,70,-3,44,121,57,109,-31,1
1491088612914,2,127,-13,-21,-59,33,10,102,3
1491088612914,2,88,27,-23,-37,-16,87,-16,3
1491088612915,3,-35,-37,-46,49,-21,-120,-128,12
1491088612915,3,-82,21,29,-96,30,106,25,-5
1491088612950,0,-92,-24,-18,46,14,-128,-128,13
1491088612950,0,-98,11,85,37,61,127,127,-46
1491088612951,1,-116,16,-53,20,-21,-128,-59,19
1491088612951,1,-94,-28,-52,-33,-60,54,48,1
1491088612952,2,-84,24,70,-47,53,109,38,0
1491088612952,2,-73,-10,-91,37,-77,-124,-103,19
1491088612987,3,-53,43,45,63,82,127,123,27
1491088612987,3,-51,-13,-17,-27,71,-31,-97,21
1491088612988,0,-47,6,-13,39,-21,-56,75,-5
1491088612988,0,-19,-49,-55,-55,28,-82,35,29
1491088612989,1,-24,6,-4,19,-88,-128,-128,-43
1491088612989,1,-31,6,37,74,-7,79,3,8
1491088612990,2,-20,56,17,-40,-46,102,93,-17
1491088612990,2,0,-84,-79,3,-71,-49,-87,-9
1491088613025,3,-13,-5,26,-44,-9,95,73,-4
1491088613025,3,-20,-35,-23,111,-79,-128,-57,19
1491088613026,0,-2,9,112,127,127,28,9,-36
1491088613026,0,3,71,10,-88,-12,127,127,18
1491088613027,1,-9,-48,-75,102,17,-78,-126,0
1491088613027,1,-5,-14,34,-32,-25,95,127,-25
1491088613028,2,-65,-21,-58,-84,46,61,-35,7
1491088613028,2,-107,7,54,14,-23,-66,-35,-9
1491088613062,3,-114,36,12,-61,22,93,14,5
1491088613062,3,-110,-32,-82,-12,-128,-87,-95,9
1491088613063,0,-14,0,30,127,19,40,-83,-31
1491088613063,0,111,-16,-51,-108,-86,-71,-29,13
1491088613064,1,127,5,-17,-16,-35,-36,93,3
1491088613064,1,108,7,21,-111,-27,73,21,-22
1491088613065,2,25,-25,-59,38,-49,-32,-65,32
1491088613065,2,-14,22,102,127,127,32,-97,-24
1491088613100,3,-21,40,-1,-74,-6,91,105,-2
1491088613100,3,-25,-46,-14,-18,-6,-108,-72,1
1491088613101,0,-14,51,42,35,102,-28,60,-4
1491088613101,0,-19,13,-64,-110,-45,106,31,-5
1491088613101,1,-12,-48,24,120,-18,-6,-123,-22
1491088613101,1,-16,26,-73,-59,77,81,53,11
1491088613108,2,1,-44,-30,-107,-41,-94,-81,-21
1491088613108,2,3,8,45,127,115,104,127,14
1491088613137,3,-14,-9,-12,40,-22,-128,-88,12
1491088613137,3,-111,48,127,39,76,127,123,-10
1491088613175,0,-109,-8,-78,105,4,-115,-27,11
1491088613175,0,-128,-30,-29,-45,-15,-43,-13,-5
1491088613176,1,-128,44,72,22,74,-26,27,-6
1491088613176,1,-116,-62,-79,-23,-16,-5,-47,-19
1491088613176,2,-89,50,105,-50,102,125,57,0
1491088613176,2,-37,-25,-128,-37,-33,-128,-95,1
1491088613177,3,-36,-42,-2,54,-30,117,85,-3
1491088613177,3,58,52,31,8,15,37,-67,2
1491088613212,0,77,-31,-13,-8,-84,73,72,-10
1491088613212,0,114,-1,73,28,13,40,-49,7
1491088613218,1,127,30,-23,34,114,-59,-39,10
1491088613218,1,-93,-23,-5,88,13,2,29,-2
1491088613219,2,-112,-17,-57,-113,-113,-103,17,-12
1491088613219,2,-128,20,84,112,40,28,-79,3
1491088613219,0,17,-11,-50,57,-49,63,42,-8
1491088613219,0,108,-36,-36,-94,16,-77,-23,7
1491088613250,1,101,3,69,-3,78,77,34,3
1491088613250,1,58,11,-27,122,5,-122,28,-3
1491088613251,2,-60,17,94,35,126,88,1,3
1491088613251,2,-126,11,-87,-24,-81,-99,36,14
1491088613252,3,-128,-44,46,86,-23,127,-11,-22
1491088613252,3,-125,12,-20,-44,-108,-68,-5,9
1491088613252,0,-96,-23,-37,-71,-107,5,-21,-9
1491088613252,0,-116,18,67,15,37,127,66,-20
1491088613288,1,-128,-2,-17,-39,-8,-68,-44,25
1491088613288,1,27,40,60,12,29,110,61,15
1491088613289,2,29,12,5,-77,-18,-45,-70,2
1491088613289,2,43,-47,-50,22,-104,58,-19,-2
1491088613290,3,39,-19,-52,-71,-73,-128,-11,-27
1491088613290,3,59,-1,39,-20,-17,-88,-21,-2
1491088613290,0,94,-18,-13,57,43,61,1,4
1491088613290,0,97,40,104,-2,101,104,101,-7
1491088613325,1,53,-27,-93,-62,-126,-123,-92,0
1491088613325,1,65,18,83,12,76,113,-6,-8
1491088613326,2,61,-36,-87,124,-35,-6,-11,4
1491088613326,2,31,-51,-44,-99,-99,-91,-51,-1
1491088613327,3,94,93,48,7,56,72,21,4
1491088613327,3,30,-27,-42,-25,4,31,-94,-13
1491088613328,0,41,14,28,-26,89,-3,92,15
1491088613328,0,49,34,15,13,9,76,58,-5
1491088613362,1,8,-39,-25,-32,-46,21,-43,3
1491088613362,1,16,-30,-87,-25,-97,-107,-106,-3
1491088613363,2,11,12,38,-31,23,68,20,-5
1491088613363,2,9,13,-33,12,109,95,58,1
1491088613364,3,-1,12,44,91,79,-20,-38,-12
1491088613364,3,12,27,44,-74,-11,127,83,-9
1491088613365,0,-57,-35,-64,75,-11,-128,-128,20
1491088613365,0,-36,-10,-13,-61,-49,-96,-104,-4
1491088613400,1,-20,-17,0,-17,18,19,-90,-5
1491088613400,1,7,-9,40,36,60,-65,-93,-1
1491088613401,2,91,14,-2,-43,-18,42,-11,11
1491088613401,2,6,-27,40,52,9,69,39,-2
1491088613402,3,42,49,-27,86,8,9,11,9
1491088613402,3,17,-38,-71,-91,-126,-99,0,-7
1491088613403,0,6,39,3,4,22,-16,-44,-10
1491088613403,0,15,14,-23,4,-74,-62,47,3
1491088613438,1,-25,-53,-22,-76,-128,-84,-46,-12
1491088613438,1,19,25,12,30,97,62,80,18
1491088613439,2,41,-40,-20,-29,-91,-32,-39,5
1491088613439,2,13,21,15,30,77,43,61,6
1491088613440,3,12,53,22,-90,13,86,127,-5
1491088613440,3,35,-43,-106,-59,-128,-125,-113,-10
1491088613441,0,2,43,73,39,70,-29,-11,-6
1491088613441,0,-9,54,87,101,81,75,88,-11
1491088613475,1,15,-24,-77,127,-87,-51,103,1
1491088613475,1,-21,-17,-15,-24,65,127,-60,-6
1491088613476,2,-10,0,12,-128,74,-38,67,-2
1491088613476,2,27,-23,52,-128,-66,24,5,6
1491088613477,3,-27,-23,18,-106,127,110,59,-6
1491088613477,3,-17,-8,71,-55,19,81,8,12
1491088613478,0,5,-23,15,79,30,-47,-22,-16
1491088613478,0,-4,1,-38,-128,-5,-69,40,9
1491088613513,1,2,-7,58,-44,69,109,14,-1
1491088613513,1,7,4,-121,40,-60,-40,112,2
1491088613514,2,-6,-82,-47,-105,-94,-87,-113,2
1491088613514,2,-35,-15,53,52,-33,96,21,-14
1491088613514,3,25,-10,23,-76,19,-19,-111,-9
1491088613514,3,11,33,55,109,59,-5,51,17
1491088613515,0,-10,60,32,97,-19,-59,3,9
1491088613515,0,9,-11,-82,-28,-102,56,-49,-10
1491088613550,1,-19,-9,12,33,102,88,-14,-4
1491088613550,1,-22,8,-9,-52,-50,-34,18,3
1491088613551,2,5,42,31,89,127,127,72,-7
1491088613551,2,-2,-1,-102,-100,-62,-54,-98,-1
1491088613551,3,-2,115,127,63,12,51,65,5
1491088613551,3,0,-68,-75,-94,-33,-63,-18,-10
1491088613552,0,-24,-77,-42,-33,-65,3,-24,-7
1491088613552,0,-17,11,59,127,91,-11,48,4
1491088613587,1,-2,-47,-31,5,-29,84,49,5
1491088613587,1,5,44,78,-59,116,111,127,55
1491088613588,2,-29,-16,-58,-128,-1,-115,-55,50
1491088613588,2,5,24,23,-90,62,-98,41,-2
1491088613589,3,23,41,-9,-29,46,-1,127,-21
1491088613589,3,-9,-33,-28,-45,-101,26,-84,-55
1491088613590,0,-6,-24,-46,-21,-82,-56,12,-27
1491088613590,0,3,0,32,-33,-39,106,84,-4
1491088613625,1,-47,-66,-127,-57,-106,35,33,-24
1491088613625,1,-10,0,120,0,126,120,61,-20
1491088613626,2,42,-14,-83,18,-92,-36,-69,-10
1491088613626,2,-11,-17,9,35,-81,-128,-128,-18
1491088613627,3,7,12,50,-17,39,-13,-75,16
1491088613627,3,-7,27,59,-4,-82,57,77,1
1491088613663,0,-37,-31,16,55,24,37,-46,5
1491088613663,0,15,3,1,36,104,77,-75,66
1491088613665,1,-8,-65,-122,-86,-128,-128,-128,-2
1491088613665,1,-16,41,115,24,127,14,56,-37
1491088613666,2,-12,-15,-81,-33,-27,127,127,-47
1491088613666,2,15,-6,28,80,36,-88,-40,-33
1491088613667,3,-18,-9,35,-51,-21,-1,-32,18
1491088613667,3,10,-31,-92,13,-128,-128,-128,0
1491088613701,0,-12,70,88,-8,22,29,-47,-5
1491088613701,0,-25,19,16,31,100,127,-39,-11
1491088613701,1,-12,17,-32,-13,-105,-119,-123,-4
1491088613701,1,1,2,-15,24,52,-8,-85,-3
1491088613702,2,-6,24,-9,16,-50,-29,-24,23
1491088613702,2,-8,-1,-11,13,-1,14,-95,-9
1491088613703,3,1,-11,31,48,31,-5,-87,39
1491088613703,3,4,4,-24,76,-68,-120,-78,34
1491088613737,0,10,11,-7,-34,61,86,102,43
1491088613737,0,24,-40,-47,-28,-31,80,30,-36
1491088613739,1,9,-33,-24,-7,-48,-94,-9,-9
1491088613739,1,-7,24,-10,66,-2,39,-93,-30
1491088613739,2,-6,-2,53,47,51,107,-15,-40
1491088613739,2,-7,13,8,28,39,-128,-16,11
1491088613740,3,-5,1,101,68,101,124,92,-18
1491088613740,3,60,-6,-114,-113,-4,54,60,27
1491088613779,0,-6,-10,2,-66,-73,-89,-47,-11
1491088613779,0,-5,3,15,-28,34,14,63,3
1491088613780,1,-9,19,-6,23,5,-112,-128,-1
1491088613780,1,16,3,89,25,127,85,113,-6
1491088613780,2,6,14,18,83,-27,127,43,7
1491088613780,2,-8,-47,-46,11,-20,-80,-61,-9
1491088613813,3,-19,7,48,-57,47,109,95,6
1491088613813,3,-9,11,-60,30,-115,-128,-128,11
1491088613814,0,22,6,49,-34,48,78,17,-7
1491088613814,0,-25,-29,-59,-64,-70,79,-22,-7
1491088613814,1,21,6,8,-3,17,88,80,-9
1491088613814,1,-51,-13,-1,3,-2,-13,-27,-17
1491088613815,2,36,33,35,-93,18,62,61,12
1491088613815,2,-16,27,56,58,-3,-95,-91,-9
1491088613850,3,-8,-7,-66,-5,-31,67,104,-18
1491088613850,3,12,-42,-35,10,-28,-47,18,19
1491088613851,0,1,33,50,74,60,-18,-75,-4
1491088613851,0,-5,11,23,-21,31,51,94,-10
1491088613852,1,-1,7,-35,27,-46,-120,-29,19
1491088613852,1,-45,-30,-27,-56,-59,-41,-115,-1
1491088613852,2,-1,-12,1,-53,26,-52,43,-14
1491088613852,2,17,-6,-68,-50,-64,127,-1,-15
1491088613887,3,-19,10,18,-27,-27,-94,-7,24
1491088613887,3,-32,0,2,53,-10,66,-23,-35
1491088613888,0,20,2,-9,7,21,-85,-7,17
1491088613888,0,-8,-4,29,89,85,124,126,7
1491088613889,1,-1,2,-21,29,29,74,-15,-4
1491088613889,1,-27,-3,4,-69,-74,-28,-92,0
1491088613890,2,48,8,-33,-5,7,-72,50,11
1491088613890,2,-23,-9,-5,-9,-65,55,-59,-2
1491088613925,3,11,19,-4,103,75,-84,41,5
1491088613925,3,19,13,84,86,107,93,29,-6
1491088613926,0,-56,-25,-38,-17,-49,13,-17,-6
1491088613926,0,15,25,-1,-128,-109,36,-65,14
1491088613927,1,3,-33,6,36,-12,-16,-23,1
1491088613927,1,9,33,4,4,-26,92,45,-7
1491088613962,2,-12,-57,-12,10,-14,31,32,-1
1491088613962,2,6,63,95,-11,31,107,19,-12
1491088613964,3,-13,10,-36,-62,-99,-70,-40,17
1491088613964,3,-52,-42,-26,-27,63,-22,20,-20
1491088613964,0,-12,27,15,-3,5,73,-27,-18
1491088613964,0,23,-38,-44,2,-65,-71,-10,11
1491088613965,1,-10,-6,58,108,62,66,0,-8
1491088613965,1,73,60,-1,-52,-46,70,76,12
1491088614000,2,-8,-28,-36,4,-24,-92,-83,8
1491088614000,2,-21,16,-20,-29,46,76,127,-2
1491088614001,3,48,-41,-80,6,21,64,33,-7
1491088614001,3,-31,12,69,-79,-41,127,10,-1
1491088614001,0,-44,-5,-26,95,73,-73,-88,-13
1491088614001,0,85,-3,-21,24,27,-71,-128,26
1491088614002,1,7,1,-18,-95,61,121,106,7
1491088614002,1,4,42,19,29,20,-63,-31,2
1491088614075,2,9,-7,43,10,-34,-24,-40,-2
1491088614075,2,1,26,83,105,96,-32,28,-14
1491088614076,3,4,25,10,18,23,-9,17,2
1491088614076,3,-8,-82,-80,-39,-63,12,-46,-18
1491088614076,0,-11,-28,5,0,-4,72,36,17
1491088614076,0,-17,21,-6,-65,-38,34,-101,0
1491088614113,1,-8,15,40,-44,29,-47,84,-27
1491088614113,1,24,-17,-14,-28,127,84,11,12
1491088614116,2,-7,-18,-42,38,-88,-31,-86,16
1491088614116,2,-24,-4,49,-113,-98,14,53,9
1491088614117,3,4,0,-12,117,63,127,-11,-21
1491088614117,3,-67,15,-23,54,96,-128,-57,9
1491088614117,1,-24,-5,-26,-62,-92,-34,39,8
1491088614117,1,28,0,11,16,31,66,114,18
1491088614150,2,-3,12,23,44,47,127,23,-34
1491088614150,2,48,-23,34,82,79,-128,-33,7
1491088614151,3,-44,10,-39,-92,-120,-97,-86,-34
1491088614151,3,-19,3,-10,7,-96,86,59,10
1491088614151,1,20,-47,-12,-2,-39,89,8,-35
1491088614151,1,62,41,55,104,47,38,81,12
1491088614152,2,-35,9,-3,-93,-43,-97,5,1
1491088614152,2,45,-9,-42,34,-16,65,-65,-3
1491088614187,3,-30,-28,2,-2,18,43,-127,0
1491088614187,3,-9,7,2,10,-19,-46,-128,-4
1491088614188,0,61,27,21,68,90,106,127,9
1491088614188,0,-23,-20,20,-81,36,-69,-22,-18
1491088614189,1,7,7,-39,2,-62,-93,0,9
1491088614189,1,-25,-37,-40,27,-70,35,5,10
1491088614190,2,18,35,17,62,17,57,21,-10
1491088614190,2,2,1,-10,-70,32,-106,6,9
1491088614262,3,23,25,52,60,24,-90,-48,22
1491088614262,3,-10,-12,7,-56,-44,101,100,-3
1491088614263,0,-64,-21,-63,-7,-33,44,-44,0
1491088614263,0,-15,7,9,21,-1,23,92,0
1491088614264,1,32,22,64,-27,77,109,1,1
1491088614264,1,-16,-25,-47,33,-47,-128,-128,-17
1491088614265,2,-6,-25,-8,23,-86,-34,31,18
1491088614265,2,-61,-30,-32,-42,-61,-59,-79,-33
1491088614300,3,52,9,-2,66,91,97,66,25
1491088614300,3,40,19,49,106,84,-50,-110,-12
1491088614301,0,3,13,-6,-10,-1,120,76,-6
1491088614301,0,-6,-13,-11,71,-18,-77,55,13
1491088614301,1,-39,-33,-50,-101,22,78,-33,6
1491088614301,1,-38,-18,-12,-49,31,-8,-27,1
1491088614302,0,-6,12,17,-19,-25,-52,11,10
1491088614302,0,-27,-35,-35,18,-17,74,-21,-5
1491088614337,1,7,26,20,102,22,-3,-104,-9
1491088614337,1,-20,-24,1,54,40,-26,-104,-4
1491088614338,2,-1,18,27,32,21,-119,37,33
1491088614338,2,77,6,-36,-11,-36,54,127,-12
1491088614339,0,-17,-68,-8,17,15,0,-47,5
1491088614339,0,-13,20,35,-50,-67,127,-7,-30
1491088614340,1,70,6,45,99,118,-42,-105,-15
1491088614340,1,1,22,12,-9,-24,-17,127,22
1491088614375,2,-81,-50,-47,14,-75,-128,-128,-28
1491088614375,2,36,6,-4,-60,-24,57,6,28
1491088614376,3,-66,-14,-12,84,48,108,15,-8
1491088614376,3,45,5,-9,-107,-29,-128,-98,-18
1491088614376,0,30,49,93,127,127,127,127,10
1491088614376,0,-16,0,-37,-49,-75,-124,-128,-12
1491088614377,1,22,31,39,-59,-36,-68,111,-8
1491088614377,1,-11,-36,-90,-33,-40,127,96,19
1491088614412,2,-33,-24,-57,-56,-33,-67,-128,-10
1491088614412,2,17,16,48,105,127,9,107,16
1491088614414,3,5,18,22,46,45,88,-6,-9
1491088614414,3,37,64,105,27,72,-64,101,17
1491088614414,0,27,-15,-17,-6,61,27,-31,-33
1491088614414,0,-29,-14,-4,11,-11,-22,-12,10
1491088614415,1,-40,-41,-82,-128,-51,97,106,3
1491088614415,1,-9,-7,40,-8,-55,-49,-96,-26
1491088614450,2,16,5,0,89,-23,19,-50,11
1491088614450,2,-29,-6,-85,-125,-124,-28,2,-5
1491088614452,3,-6,-89,-70,127,63,-52,-114,-1
1491088614452,3,24,70,59,-2,-33,127,95,-1
1491088614453,0,-15,16,-3,-16,-3,-128,-39,20
1491088614453,0,20,12,83,-34,-3,116,-109,-14
1491088614454,1,2,27,1,-115,-46,25,104,-12
1491088614454,1,23,-29,-36,61,-44,-56,-10,48
1491088614487,2,58,44,20,-103,-53,62,127,-12
1491088614487,2,-93,-75,-99,127,-94,-119,-45,17
1491088614489,3,10,-32,9,-56,-64,-7,-20,-3
1491088614489,3,-6,53,64,68,96,-86,-30,-3
1491088614525,0,30,40,106,15,-7,106,-4,8
1491088614525,0,15,-20,-70,-9,65,-72,75,-35
1491088614526,1,1,32,22,57,25,42,-95,15
1491088614526,1,-19,-50,-22,6,-23,127,61,-15
1491088614526,2,-31,1,19,28,2,-28,-58,-7
1491088614526,2,79,31,50,4,34,35,8,11
1491088614527,3,-14,63,74,-66,-73,-32,-60,-15
1491088614527,3,-10,-15,-77,127,76,-111,-34,30
1491088614563,0,-49,-72,-45,-43,113,88,66,-7
1491088614563,0,61,4,0,-82,-78,127,90,1
1491088614564,1,-8,33,18,83,52,-128,-120,-2
1491088614564,1,-17,7,51,-104,56,75,103,-27
1491088614565,2,-12,12,-83,-86,-100,-59,-75,-16
1491088614565,2,-57,-86,-77,2,-33,-92,3,23
1491088614565,3,41,21,61,43,33,103,-43,-9
1491088614565,3,4,11,-7,-128,-95,45,73,-3
1491088614600,0,-21,-67,-63,127,120,-87,-128,-12
1491088614600,0,4,41,68,-61,45,11,-23,-6
1491088614601,1,11,-30,-99,67,-23,-63,86,32
1491088614601,1,0,0,62,100,62,32,-104,3
1491088614602,2,4,6,13,-114,-13,127,-19,-28
1491088614602,2,-48,-16,11,9,-16,-76,-128,-16
1491088614603,3,36,11,-67,-128,-110,-49,81,-1
1491088614603,3,14,36,59,54,86,109,3,-6
1491088614637,0,13,0,-13,54,37,3,-49,18
1491088614637,0,-77,-85,-72,70,-69,-49,-104,-10
1491088614638,1,-16,-14,-13,-78,-88,79,37,-23
1491088614638,1,20,66,71,110,63,-123,27,-1
1491088614639,2,19,49,46,7,74,-10,2,14
1491088614639,2,7,21,16,1,37,127,97,-6
1491088614640,3,-35,-62,-83,-14,-122,-128,-92,-1
1491088614640,3,-23,-58,-91,-84,-3,-64,-48,-9
1491088614675,0,8,-18,5,89,55,80,127,6
1491088614675,0,51,103,74,-24,97,-82,-53,-8
1491088614677,1,16,25,89,86,12,38,112,33
1491088614677,1,-32,-30,-82,-128,-119,70,-94,-26
1491088614679,2,5,-15,-27,107,-24,26,-45,28
1491088614679,2,-13,-10,25,-76,88,-11,-26,8
1491088614680,3,43,71,99,-47,119,96,78,-8
1491088614680,3,-56,-81,-99,-90,-63,-15,-35,1
1491088614712,0,-23,-14,57,12,7,-115,2,-11
1491088614712,0,19,39,0,27,-128,53,68,2
1491088614713,1,-19,-12,-48,-99,-62,-128,-128,-17
1491088614713,1,35,24,59,69,28,111,46,26
1491088614714,2,10,0,-44,-61,-71,-108,-70,11
1491088614714,2,-33,-33,-9,-2,18,25,-84,-9
1491088614715,3,8,0,-6,12,6,63,57,12
1491088614715,3,0,-15,-26,104,14,85,-49,-10
1491088614751,0,-9,-4,3,-37,-128,53,0,-23
1491088614751,0,29,46,88,127,58,20,-23,16
1491088614753,1,18,-5,-67,127,-10,-101,74,32
1491088614753,1,-41,-42,-40,-70,-100,-47,-128,-26
1491088614753,2,31,27,82,-88,50,60,-29,21
1491088614753,2,1,-4,-14,-128,-5,92,-9,-20
1491088614754,3,-66,-74,-61,-86,-30,-39,-88,-23
1491088614754,3,34,4,42,27,31,19,-30,5
1491088614788,0,10,39,-10,-128,-6,-112,63,-6
1491088614788,0,-3,-22,-4,-5,-25,76,37,-1
1491088614788,1,-7,-19,-3,23,39,63,-35,-1
1491088614788,1,-8,9,10,30,58,-128,-12,-2
1491088614789,2,11,41,73,-97,-42,127,65,-24
1491088614789,2,-13,-41,-101,127,117,-118,-44,3
1491088614790,3,11,31,86,-11,43,127,-69,-5
1491088614790,3,-40,-45,-76,-104,-117,-128,72,2
1491088614825,0,-13,-30,4,25,-13,71,44,-2
1491088614825,0,26,32,5,-73,-40,-39,0,13
1491088614826,1,-10,-7,26,74,7,67,-128,-16
1491088614826,1,44,53,21,19,62,127,71,10
1491088614828,2,-5,20,25,92,121,-128,73,4
1491088614828,2,-11,-23,-41,20,82,-33,6,0
1491088614829,3,1,31,-8,-118,-48,63,90,2
1491088614829,3,-65,-54,-8,127,100,-102,-122,51
1491088614862,0,-20,-37,-59,19,-15,114,17,21
1491088614862,0,15,-22,-72,-51,-97,54,17,-9
1491088614863,1,-10,-6,52,59,13,22,-20,-36
1491088614863,1,49,67,73,5,-48,-30,6,-57
1491088614864,2,-8,-27,-97,-70,-111,-82,17,-25
1491088614864,2,6,2,48,29,-33,77,17,-24
1491088614865,3,35,64,74,-99,-8,73,123,-27
1491088614865,3,-39,-63,-104,-15,-112,-48,-76,-5
1491088614900,0,11,-14,5,106,116,36,-37,22
1491088614900,0,-9,6,8,-10,28,121,58,-15
1491088614901,1,10,2,7,85,56,-128,18,25
1491088614901,1,35,55,82,66,100,127,-25,-3
1491088614901,2,17,-9,-56,90,-101,-94,53,9
1491088614901,2,3,32,82,60,-35,-53,-72,12
1491088614902,3,21,19,-84,-76,-19,23,103,11
1491088614902,3,-55,-95,-87,44,-105,-128,-83,11
1491088614937,0,-7,14,78,-8,110,127,21,-18
1491088614937,0,7,-14,-41,-80,90,-17,86,12
1491088614938,1,-22,5,45,39,46,-121,-81,21
1491088614938,1,53,69,44,-74,69,127,127,-1
1491088614939,2,17,41,59,88,26,-10,-29,-3
1491088614939,2,-6,-5,-51,-72,-72,-58,-32,12
1491088614975,3,-41,-23,45,-17,-15,-83,-52,-24
1491088614975,3,0,3,-85,-111,-110,68,91,-11
1491088614976,0,-50,-61,-89,-45,-96,-18,-128,-1
1491088614976,0,-18,14,105,104,114,27,-85,-6
1491088614976,1,-7,-51,-124,-84,-48,41,39,15
1491088614976,1,13,45,115,73,-6,-94,-60,-15
1491088614978,2,-8,47,101,30,97,117,115,-6
1491088614978,2,-40,-71,-115,-42,-128,-92,-108,7
1491088615012,3,-42,-43,-12,68,-35,8,-101,46
1491088615012,3,23,4,45,127,81,86,48,-3
1491088615013,0,13,26,36,68,-15,-43,-18,-20
1491088615013,0,17,21,1,127,83,127,70,-33
1491088615014,1,20,28,45,127,100,-58,-97,-27
1491088615014,1,17,16,-46,-128,-81,-103,48,1
1491088615015,2,18,0,-43,29,37,51,-79,-1
1491088615015,2,3,-5,-7,-96,-98,-102,17,-7
1491088615050,3,-12,-28,9,15,101,108,-20,-7
1491088615050,3,15,24,53,-54,-47,-13,-123,15
1491088615051,0,-9,-46,-2,17,-11,-54,-25,-17
1491088615051,0,34,69,-1,-107,-63,127,-6,22
1491088615051,1,-13,-16,-52,-117,-90,3,-105,2
1491088615051,1,-12,10,32,-96,127,-55,50,4
1491088615052,2,1,27,10,-128,-4,99,30,18
1491088615052,2,-20,-9,48,-85,56,8,70,5
1491088615125,3,12,17,-4,-128,-14,-24,108,-3
1491088615125,3,2,-6,41,-83,0,21,47,5
1491088615126,0,10,-1,-31,-31,-13,-77,38,5
1491088615126,0,27,-6,51,76,65,-41,74,-7
1491088615126,1,-3,-5,-60,-39,-74,0,67,-11
1491088615126,1,5,-21,-61,21,127,93,41,44
1491088615127,2,-9,-19,8,75,-67,-51,11,31
1491088615127,2,-10,-17,30,48,-71,-45,-17,-5
1491088615163,3,-7,-16,-1,42,-29,38,30,-30
1491088615163,3,-8,-14,30,53,84,40,39,-50
1491088615164,0,-13,-26,-86,-43,-117,37,-71,-29
1491088615164,0,5,-28,-11,42,-26,-72,5,16
1491088615164,1,-7,-1,31,91,35,24,28,-11
1491088615164,1,-4,-6,-38,-29,5,-76,-21,-14
1491088615165,2,26,-19,-12,-21,36,26,-10,5
1491088615165,2,31,6,18,98,97,32,34,4
1491088615200,3,34,-29,-28,-1,-38,11,-11,10
1491088615200,3,18,11,20,61,3,5,-7,-6
1491088615201,0,15,33,52,82,86,68,1,-10
1491088615201,0,21,19,-34,77,-70,44,99,14
1491088615202,2,-26,-16,-29,79,-71,-82,-92,-4
1491088615202,2,-9,53,127,98,89,127,34,-9
1491088615203,3,17,11,-53,-79,126,100,54,23
1491088615203,3,6,-26,-41,-4,-128,-34,43,3
1491088615237,0,-21,20,79,-8,127,79,108,-1
1491088615237,0,-15,-18,-46,-9,-82,-78,1,1
1491088615238,1,-18,31,74,19,55,127,35,-13
1491088615238,1,-1,13,3,60,73,-5,73,3
1491088615239,2,3,-17,-79,-128,-96,-101,-28,10
1491088615239,2,-10,-60,-59,-32,-43,-66,-102,-3
1491088615240,3,14,-2,48,123,54,-27,67,19
1491088615240,3,-24,18,18,116,22,-2,47,-5
1491088615275,0,20,91,127,127,127,51,51,-30
1491088615275,0,14,-57,-128,-90,-86,-100,-47,17
1491088615276,1,5,4,-12,-127,-83,-60,-55,-20
1491088615276,1,30,-6,18,-58,83,127,16,-13
1491088615276,2,-46,-42,-25,-70,-128,-124,-103,4
1491088615276,2,-20,18,9,-124,28,68,11,-24
1491088615277,3,31,50,57,-39,100,72,71,-14
1491088615277,3,40,48,-9,55,-120,97,46,57
1491088615312,0,-40,-42,-107,-74,-98,-55,-53,31
1491088615312,0,-22,-18,36,-28,127,124,81,11
1491088615313,1,-14,-25,-87,-38,-128,4,-77,-16
1491088615313,1,24,1,41,-85,-76,-51,-91,-22
1491088615314,2,79,3,-28,58,34,123,-4,-38
1491088615314,2,47,14,112,118,6,-127,-106,9
1491088615315,3,27,10,-44,-50,27,103,59,10
1491088615315,3,-9,-18,-18,-43,62,119,-128,-23
1491088615350,0,-18,11,-12,-99,-44,39,-56,18
1491088615350,0,-22,-11,-18,-61,-22,-25,44,-13
1491088615351,1,-52,26,86,63,103,84,5,11
1491088615351,1,-53,-3,-13,-16,-119,-128,-93,-17
1491088615351,2,-81,-13,-32,1,108,56,-39,13
1491088615351,2,-16,47,-15,-16,-85,-34,-15,-4
1491088615352,3,-55,-17,23,-60,30,-40,-128,4
1491088615352,3,-35,-33,-73,88,-81,-62,-68,10
1491088615387,0,6,-16,0,-12,53,121,40,-18
1491088615387,0,-4,33,6,-42,13,-112,42,21
1491088615388,1,22,6,41,33,48,39,67,11
1491088615388,1,-17,75,35,9,123,92,24,-5
1491088615389,2,-20,-4,6,-102,-49,-45,119,-11
1491088615389,2,-1,-14,-24,89,36,127,-97,-27
1491088615390,3,-23,-30,-72,-46,-128,-128,-17,7
1491088615390,3,28,36,63,58,35,127,89,2
1491088615425,0,26,-14,-6,-24,20,-30,-34,-1
1491088615425,0,88,-21,-13,10,-47,75,26,-4
1491088615426,1,111,16,14,-22,-28,-29,-38,-8
1491088615426,1,98,-59,-25,41,-104,-128,-128,-12
1491088615427,2,127,13,45,70,53,48,89,15
1491088615427,2,81,7,-26,-71,61,127,11,-4
1491088615428,3,118,-8,18,95,-69,-89,41,24
1491088615428,3,47,-47,-93,-128,-60,-43,-85,-8
1491088615462,0,30,-16,1,-60,25,24,-9,-11
1491088615462,0,5,15,40,96,108,104,41,-7
1491088615463,1,37,8,-22,-21,28,-37,75,2
1491088615463,1,-36,34,32,27,32,-80,-40,-4
1491088615464,2,19,-21,-28,-19,-128,4,46,3
1491088615464,2,-28,-8,-15,-20,46,49,44,-4
1491088615465,3,-74,-16,17,-64,30,1,-10,-7
1491088615465,3,-59,24,38,-63,-14,127,-9,14
1491088615500,0,-67,-26,-70,-58,-50,-128,-99,-2
1491088615500,0,-75,-20,21,29,-10,40,70,-6
1491088615501,1,-67,66,51,4,48,16,47,5
1491088615501,1,-63,-51,-82,127,-70,-65,-21,-29
1491088615502,2,-42,-9,-7,111,11,58,-12,-1
1491088615502,2,-40,-4,-15,-111,39,29,28,-1
1491088615537,3,-45,0,52,-37,94,-69,-117,13
1491088615537,3,-48,31,93,-128,72,33,77,3
1491088615538,0,-4,16,-42,-128,-44,29,49,-4
1491088615538,0,-26,-13,-6,-2,-4,-58,-35,24
1491088615539,1,-86,-44,-10,0,0,127,14,-26
1491088615539,1,52,68,56,8,-48,-108,90,26
1491088615540,2,-63,-30,-82,6,-39,-96,-88,-7
1491088615540,2,-12,-1,10,-31,27,-62,13,-20
1491088615575,3,27,-10,-25,19,-76,88,54,-3
1491088615575,3,-36,-17,81,66,126,127,74,-19
1491088615576,0,10,-1,-9,91,-42,63,0,-7
1491088615576,0,-23,20,-41,3,-128,-121,-128,10
1491088615576,1,-17,-6,5,70,-49,46,-2,-21
1491088615576,1,12,-43,-47,109,-7,127,31,11
1491088615577,2,-6,44,92,71,38,-6,22,13
1491088615577,2,-25,-7,7,63,-24,-21,-128,-27
1491088615612,3,25,-17,-99,70,-34,-128,108,7
1491088615612,3,-16,-27,-25,-32,17,18,-15,-4
1491088615613,0,23,33,74,26,127,45,103,23
1491088615613,0,-29,5,-7,-43,-74,-93,-71,-7
1491088615614,1,-7,3,23,124,-46,-74,-120,-14
1491088615614,1,-27,-9,13,82,10,64,106,-2
1491088615615,2,-4,-8,-7,14,-3,-128,-50,12
1491088615615,2,11,33,35,-73,81,127,-7,-1
1491088615650,3,53,9,-51,-37,56,93,69,11
1491088615650,3,-32,-38,1,-128,-43,77,55,-23
1491088615651,0,27,46,18,-46,-60,-86,-45,-5
1491088615651,0,13,-48,-27,-17,-83,-33,-11,-1
1491088615652,1,-26,-30,-19,-37,-11,14,-62,-18
1491088615652,1,44,31,-19,-102,-42,-1,-15,14
1491088615687,2,-2,7,78,117,0,43,14,0
1491088615687,2,12,9,5,4,21,78,31,14
1491088615689,3,-8,-16,-13,-47,-32,5,-96,7
1491088615689,3,-18,3,-34,-9,13,-81,4,-10
1491088615689,0,-40,-20,-31,-39,-51,103,65,-26
1491088615689,0,18,32,24,71,98,-128,-3,19
1491088615690,1,44,14,52,35,-3,21,35,-4
1491088615690,1,-22,17,18,-8,42,50,33,-25
1491088615725,2,41,11,-41,70,72,-57,15,17
1491088615725,2,-73,-81,-97,-40,-117,-19,-32,5
1491088615726,3,-7,-8,19,-44,22,96,88,13
1491088615726,3,-4,-5,47,73,57,13,-37,5
1491088615727,0,-2,45,6,72,70,18,82,2
1491088615727,0,-20,-55,-34,-21,-39,-30,-21,-37
1491088615728,1,-29,16,-27,-54,-48,7,-30,22
1491088615728,1,-14,-7,-24,-10,-12,-107,-70,-8
1491088615762,2,37,21,74,-128,8,106,-29,1
1491088615762,2,29,2,-17,25,8,95,127,-8
1491088615763,3,-28,-25,-22,-16,-53,-114,34,-27
1491088615763,3,32,24,36,74,43,102,-60,9
1491088615764,0,-37,-19,-28,-33,-1,107,-61,-7
1491088615764,0,20,-28,15,55,52,-73,57,12
1491088615765,1,24,76,86,50,62,75,-50,-4
1491088615765,1,-18,-38,-112,29,-31,64,57,1
1491088615800,2,-78,-104,-78,42,-101,-128,-128,-6
1491088615800,2,50,24,58,63,55,127,67,-21
1491088615801,3,1,1,7,86,77,55,116,18
1491088615801,3,-8,43,100,42,46,-21,-72,10
1491088615802,0,52,2,-36,-105,-73,127,-22,-38
1491088615802,0,-109,-29,-56,-58,33,-106,-57,21
1491088615837,1,97,9,28,-92,-20,-20,-12,11
1491088615837,1,37,-6,-42,-97,8,-19,64,2
1491088615839,2,-89,-36,-25,-128,-65,-98,-75,-7
1491088615839,2,0,40,79,-39,-19,127,127,-5
1491088615839,3,-74,8,-30,-60,72,26,-128,-5
1491088615839,3,31,-33,2,78,23,-33,3,-8
1491088615840,0,-9,0,24,2,-34,-9,43,-1
1491088615840,0,-7,43,-4,114,71,-18,53,27
1491088615875,1,16,-12,-2,71,-79,-3,56,-6
1491088615875,1,-44,-17,-40,40,27,-65,-91,-13
1491088615876,2,-25,-15,23,79,50,57,-11,-16
1491088615876,2,21,26,21,88,-36,94,53,20
1491088615876,3,-48,12,20,92,18,119,78,-20
1491088615876,3,15,2,-38,127,-32,-81,-10,3
1491088615877,0,23,32,88,61,57,58,79,11
1491088615877,0,-42,-3,-52,-87,-80,45,-120,-30
1491088615912,1,39,-8,-6,-95,31,88,113,18
1491088615912,1,1,-4,-11,-128,-128,48,14,19
1491088615913,2,9,15,-17,-87,63,-79,-76,-8
1491088615913,2,22,8,5,-128,-77,127,28,15
1491088615914,3,-64,-76,-22,-89,-22,-119,27,12
1491088615914,3,4,51,70,-120,50,-10,-15,13
1491088615915,0,-30,24,66,-63,72,127,126,3
1491088615915,0,36,-12,-54,-105,-59,-72,-128,-7
1491088615950,1,-44,-21,-86,-128,-71,-108,-128,4
1491088615950,1,-77,-36,0,-128,89,-89,-21,21
1491088615951,2,44,-9,-30,-104,-45,93,103,2
1491088615951,2,13,51,106,-3,127,48,49,2
1491088615952,3,30,-4,-4,-81,-23,-27,-43,-37
1491088615952,3,27,27,28,-46,-78,111,70,-15
1491088615987,0,22,-6,-85,-50,7,-77,-17,31
1491088615987,0,-59,-3,25,43,85,-128,-32,-26
1491088615988,1,79,-7,-34,-40,-128,-46,50,9
1491088615988,1,-64,-51,-34,43,10,83,-58,10
1491088615989,2,4,13,28,64,-20,-77,-109,11
1491088615989,2,-18,-50,-28,88,-7,-2,-39,-22
1491088615991,3,-19,97,68,58,86,50,-8,1
1491088615991,3,-8,11,0,91,69,34,-1,-11
1491088616025,0,46,-27,-15,120,-82,70,-5,24
1491088616025,0,-98,-29,-29,-18,4,-101,21,-12
1491088616026,1,89,-13,3,127,22,65,64,-14
1491088616026,1,-3,0,-42,-33,-89,29,40,13
1491088616026,2,-61,6,24,126,99,-95,-90,-29
1491088616026,2,55,18,5,26,1,79,81,-7
1491088616027,3,-39,-26,-25,105,16,51,18,7
1491088616027,3,-2,-25,-1,19,-56,-58,-12,-18
1491088616062,0,69,-3,48,127,39,-13,94,21
1491088616062,0,10,29,-25,-48,-92,81,-122,-8
1491088616063,1,66,-2,-3,46,38,-84,34,46
1491088616063,1,73,6,-19,100,1,53,-12,-34
1491088616065,2,98,-29,-1,-80,-70,36,94,9
1491088616065,2,127,-8,11,51,0,110,-32,-20
1491088616100,3,9,-28,-21,-66,-73,-44,-128,-35
1491088616100,3,3,18,32,-7,54,-39,27,20
1491088616101,0,-122,17,-30,-27,34,49,121,10
1491088616101,0,-110,-7,16,7,-54,65,61,13
1491088616101,1,-88,3,10,52,8,-94,-16,6
1491088616101,1,-95,-15,18,101,-13,-119,-14,-36
1491088616102,2,-102,-16,-49,0,-22,114,11,-17
1491088616102,2,-78,-30,22,127,15,66,113,16
1491088616137,3,1,40,-38,-48,-93,114,-43,-32
1491088616137,3,-11,-21,-39,61,55,-72,-22,17
1491088616138,0,-39,-16,-41,71,-75,-119,-11,-15
1491088616138,0,-17,-13,35,127,38,0,-103,16
1491088616139,1,51,63,62,17,-98,124,95,-28
1491088616139,1,-6,-23,-20,18,-117,47,24,-27
1491088616140,2,55,-1,-3,-70,-16,38,-68,-14
1491088616140,2,82,14,-47,-128,-110,-128,-125,48
1491088616175,3,-49,-33,24,-87,127,103,107,-25
1491088616175,3,127,-2,-26,-128,12,127,14,10
1491088616176,0,-35,11,95,-103,-102,-24,-42,-25
1491088616176,0,-6,3,30,-123,108,-94,-34,-14
1491088616177,1,-53,-23,-80,-45,-99,74,-84,16
1491088616177,1,-41,-9,-41,-111,-45,-128,-40,-15
1491088616177,2,81,31,34,-111,118,127,-61,10
1491088616177,2,32,44,27,-128,-33,120,127,11
1491088616212,3,-44,-39,-1,-92,-34,-128,-96,38
1491088616212,3,-69,-39,-39,-128,-112,-76,-46,-8
1491088616213,0,-42,-58,-79,-46,-33,-128,-82,2
1491088616213,0,-36,8,33,-62,9,84,-99,-28
1491088616214,1,69,77,53,-57,127,80,57,10
1491088616214,1,-6,8,-39,-125,-106,-26,118,31
1491088616250,2,-7,-41,-35,102,107,-109,-52,26
1491088616250,2,-45,-50,-68,-29,-128,-37,-57,-33
1491088616251,3,-69,-64,14,127,82,29,58,-8
1491088616251,3,98,127,127,-58,76,127,43,-4
1491088616251,0,-29,45,-51,-109,-106,-64,80,6
1491088616251,0,38,-47,-38,-26,12,49,-14,1
1491088616252,1,-7,9,25,75,34,1,-112,-14
1491088616252,1,78,3,3,-15,49,117,115,33
1491088616287,2,-40,4,10,-65,-94,-22,-38,-33
1491088616287,2,38,56,33,78,108,64,40,11
1491088616288,3,70,5,-47,-60,-84,-102,-12,16
1491088616288,3,-55,-57,-15,57,-40,-40,-80,-8
1491088616289,0,78,-1,12,53,-85,109,43,-5
1491088616289,0,12,10,27,101,75,-128,38,12
1491088616290,1,-75,-12,3,61,28,55,-77,-14
1491088616290,1,1,26,-13,-46,-36,-127,-1,-24
1491088616325,2,40,-29,-32,96,127,-36,-76,21
1491088616325,2,-29,-68,-37,-15,-51,-13,94,-20
1491088616326,3,14,64,86,84,55,53,23,10
1491088616326,3,-33,-33,-43,65,-87,-49,-29,-5
1491088616326,0,2,11,-14,19,-61,86,-22,-12
1491088616326,0,3,-3,18,20,3,34,-41,-17
1491088616327,1,-6,15,28,62,34,-67,-47,-22
1491088616327,1,-2,35,43,43,-35,18,62,7
1491088616363,2,-26,-46,-66,-104,-88,-116,28,-12
1491088616363,2,-40,-37,-6,113,25,-23,-107,11
1491088616364,3,96,29,-30,-65,-128,-8,85,23
1491088616364,3,32,-18,-51,78,65,-37,24,-27
1491088616364,0,19,37,62,83,43,14,50,25
1491088616364,0,125,11,-7,-59,17,74,127,19
1491088616400,1,-29,35,99,98,58,68,-70,0
1491088616400,1,-11,-38,-65,-49,-29,-42,-80,6
1491088616401,2,-78,11,39,-128,-86,127,10,-14
1491088616401,2,52,25,-30,88,57,-128,-8,-11
1491088616401,3,-85,-116,-128,0,-91,-128,-82,-2
1491088616401,3,6,-13,73,127,127,84,94,35
1491088616402,0,19,23,9,49,104,30,-71,-8
1491088616402,0,11,37,38,-13,-98,-67,56,-34
1491088616437,1,-30,-12,21,68,76,-32,127,2
1491088616437,1,-30,27,-10,-8,-79,68,-92,-17
1491088616438,2,75,36,38,-56,-21,28,10,-25
1491088616438,2,-68,-16,-75,100,87,-58,-89,38
1491088616442,3,-52,-123,-128,-64,-128,-128,-128,10
1491088616442,3,28,18,65,44,17,127,15,-26
1491088616443,0,70,27,66,127,73,77,123,-18
1491088616443,0,10,58,19,-62,-16,66,44,4
1491088616475,1,-8,7,44,77,19,-72,40,-20
1491088616475,1,-34,20,55,59,42,98,-62,5
1491088616476,2,-32,-67,-83,37,-79,-128,45,0
1491088616476,2,-60,-41,-35,17,-76,-51,-70,-14
1491088616476,3,33,40,-21,-119,-39,127,80,-12
1491088616476,3,67,7,-3,-10,89,-128,-100,24
1491088616477,0,23,36,79,-83,-3,122,102,38
1491088616477,0,-8,-65,-93,-83,-92,-94,-88,-19
1491088616512,1,84,80,36,-121,-52,-33,93,16
1491088616512,1,-93,-87,-52,-110,-90,8,-37,-2
1491088616513,2,-16,85,3,16,44,-128,-85,14
1491088616513,2,-28,33,100,-48,41,62,15,5
1491088616514,3,-16,-25,-61,-113,41,59,10,-7
1491088616514,3,-21,-22,-38,-92,-37,-51,-84,-22
1491088616550,0,34,-3,66,-24,41,-106,93,19
1491088616550,0,-21,24,43,54,46,116,88,-21
1491088616587,1,-5,-5,-13,-26,-40,-98,-112,18
1491088616587,1,-3,-35,-36,-85,5,-22,-17,4
1491088616588,2,-78,11,19,32,-9,17,-128,-36
1491088616588,2,97,39,-24,-40,69,40,99,65
1491088616589,3,-72,-62,-18,-45,-69,97,-48,-11
1491088616589,3,13,41,34,17,91,102,127,-7
1491088616590,0,-15,-2,-42,-124,-83,-57,-128,-21
1491088616590,0,54,18,66,-70,58,100,94,11
1491088616625,1,-32,-35,-60,82,43,-104,-65,-2
1491088616625,1,18,14,-4,1,-54,6,36,6
1491088616627,2,-19,-4,-34,-54,74,-37,-34,-9
1491088616627,2,-42,3,61,43,53,91,51,-7
1491088616628,3,19,-3,-45,-66,-13,-128,-64,-4
1491088616628,3,-7,-50,-71,-4,-50,-115,-2,3
1491088616630,0,6,34,55,62,60,20,-50,20
1491088616630,0,-14,-8,-35,-23,5,-9,24,-9
1491088616663,1,-4,31,94,16,101,127,-39,-7
1491088616663,1,45,59,85,0,56,120,127,4
1491088616664,2,-24,-99,-128,109,-92,-74,-42,16
1491088616664,2,-39,-19,-40,-115,-49,-128,-40,-17
1491088616665,0,34,17,42,-80,-7,93,96,21
1491088616665,0,-38,-35,-97,-97,-94,-34,-101,-7
1491088616666,1,-18,-36,-52,-99,-74,-116,-68,-12
1491088616666,1,16,29,20,32,67,92,84,1
1491088616700,2,1,16,17,6,-3,127,88,-6
1491088616700,2,-11,-14,-1,7,11,-71,-90,1
1491088616702,3,0,-10,20,55,63,53,10,-12
1491088616702,3,8,43,-14,8,61,-128,-128,22
1491088616703,0,-33,-33,-3,25,127,114,67,-25
1491088616703,0,60,67,116,-50,39,125,96,-12
1491088616704,1,-11,-21,-93,127,8,29,-52,16
1491088616704,1,-49,-58,-24,46,-44,-38,-30,-9
1491088616738,2,37,12,-1,-7,1,100,92,-4
1491088616738,2,-12,-19,-30,1,-121,-110,-94,9
1491088616740,3,77,78,127,-35,88,127,127,-15
1491088616740,3,-15,-30,-90,86,-115,-96,-51,12
1491088616741,0,-61,-58,-21,43,-3,-35,-108,-7
1491088616741,0,25,9,14,44,-66,71,9,-4
1491088616742,1,-19,28,55,12,11,-128,-4,-12
1491088616742,1,22,24,67,-26,73,127,96,-22
1491088616775,2,-17,-6,-64,-45,-20,-128,-74,14
1491088616775,2,-16,14,30,-10,40,36,-47,-6
1491088616776,3,-10,-35,-24,76,46,52,119,6
1491088616776,3,-19,-27,-9,-56,-115,-28,-69,-6
1491088616776,0,29,21,-15,11,-43,60,63,-8
1491088616776,0,-41,-43,-64,-22,-48,-124,-64,-8
1491088616777,1,-13,-10,-3,24,9,-12,-21,6
1491088616777,1,24,23,34,15,28,41,25,4
1491088616812,2,25,38,112,113,112,44,19,-16
1491088616812,2,117,-42,-93,-68,-81,-40,64,-5
1491088616813,3,112,-8,-21,-20,-85,-49,-92,-5
1491088616813,3,10,-8,-12,2,6,-23,-6,0
1491088616814,0,-91,-2,33,1,-53,-71,-6,-17
1491088616814,0,79,8,13,51,36,127,40,-4
1491088616815,1,-3,13,100,-114,121,115,97,-22
1491088616815,1,127,-1,-105,58,-115,-80,-66,1
1491088616850,2,0,-49,-56,-92,-39,-84,-91,7
1491088616850,2,-128,9,53,17,22,85,42,-10
1491088616851,3,-116,30,59,23,77,69,37,-13
1491088616851,3,-128,24,73,30,79,3,62,-3
1491088616851,0,-102,46,31,-8,-30,49,88,-3
1491088616851,0,-124,-33,-110,1,-26,45,-18,24
1491088616852,1,-121,-22,1,19,-56,-53,-26,-7
1491088616852,1,-128,11,30,-4,13,-19,1,3
1491088616887,2,-83,0,38,39,55,38,-40,-2
1491088616887,2,-90,19,29,11,-45,83,67,-25
1491088616888,3,-28,-88,-121,-33,-128,-113,-109,12
1491088616888,3,42,-40,4,-34,51,53,-34,-9
1491088616889,0,115,-2,-9,3,72,79,-2,3
1491088616889,0,99,58,104,46,54,11,-25,-6
1491088616890,1,79,20,-22,-71,59,48,39,4
1491088616890,1,73,-16,25,-68,47,57,-71,-2
1491088616925,2,92,-10,-8,-123,102,101,-22,-3
1491088616925,2,53,19,-7,78,-41,-127,-31,-1
1491088616926,3,50,-17,-59,44,-58,21,-4,-6
1491088616926,3,39,13,-7,-119,18,17,-53,11
1491088616926,0,37,-29,-17,58,74,31,-55,-11
1491088616926,0,22,37,44,-90,39,-19,-124,-3
1491088616927,1,22,53,69,127,59,8,-58,24
1491088616927,1,10,24,-35,-104,-102,32,36,-2
1491088616962,2,16,-54,-78,29,-118,-97,-59,0
1491088616962,2,11,-58,-38,-103,85,-65,-57,13
1491088616963,3,10,3,7,-128,60,37,-53,-12
1491088616963,3,-3,35,99,-3,86,75,65,0
1491088616964,0,11,26,57,-59,36,54,69,3
1491088616964,0,7,-51,-110,57,-116,-128,-40,-1
1491088617000,1,-1,-7,16,68,86,76,120,-3
1491088617000,1,-3,-5,7,62,-25,23,102,-7
1491088617001,2,7,-23,-20,61,12,45,127,-2
1491088617001,2,2,51,64,70,31,-16,-7,1
1491088617001,3,-1,-2,16,46,96,103,84,8
1491088617001,3,-1,22,-17,59,-110,-128,-53,8
1491088617075,0,5,22,-44,116,-51,54,91,-8
1491088617075,0,-2,-47,-56,16,-49,73,35,11
1491088617076,1,0,8,2,-117,20,-125,-25,-5
1491088617076,1,0,15,12,-49,55,127,94,8
1491088617078,2,1,-58,-83,-127,-112,-128,-62,-4
1491088617078,2,-1,-14,39,-31,51,10,10,12
1491088617078,3,0,-3,37,-2,-1,62,-37,-7
1491088617078,3,-1,18,66,2,115,127,91,-4
1491088617112,0,0,-1,37,110,36,-40,-82,8
1491088617112,0,0,76,52,64,-73,-5,70,-24
1491088617114,1,-1,-32,-98,-63,-128,-128,-29,26
1491088617114,1,-2,-34,-21,102,72,64,-29,-36
1491088617114,2,1,-6,-27,105,-107,62,43,13
1491088617114,2,0,-1,27,-5,62,-79,-31,-9
1491088617115,0,0,-48,-82,-128,-89,-113,-80,0
1491088617115,0,-1,16,117,85,105,31,121,-2
1491088617150,1,-1,-48,-122,-64,-35,10,69,4
1491088617150,1,-1,-22,-43,40,-126,-77,-107,-3
1491088617152,2,0,37,109,-14,127,126,72,-2
1491088617152,2,-1,25,-47,-82,-122,93,99,26
1491088617153,0,-1,31,33,-45,87,74,97,-14
1491088617153,0,-1,5,14,-32,85,78,-51,-3
1491088617154,1,0,81,106,95,125,127,6,-18
1491088617154,1,-1,-11,-56,-43,-57,-128,8,-2
1491088617188,2,-1,-25,-63,-55,-75,-115,-98,-19
1491088617188,2,-1,-53,-17,99,112,111,29,-5
1491088617191,3,-1,13,69,66,-9,104,84,4
1491088617191,3,-1,-46,-84,-73,-92,-126,-128,-7
1491088617192,0,0,24,60,5,-15,21,-36,-12
1491088617192,0,-1,-19,5,46,35,81,-40,-9
1491088617193,1,-1,29,127,88,101,88,-78,-18
1491088617193,1,-1,28,-8,-35,104,127,-37,-24
1491088617226,2,45,9,3,104,20,-91,14,76
1491088617226,2,67,-58,-128,-128,-126,-120,-128,-3
1491088617228,3,121,15,-1,-32,-33,6,87,-18
1491088617228,3,127,-7,39,-49,66,62,60,-21
1491088617229,0,127,26,21,68,96,56,-87,5
1491088617229,0,127,-10,28,8,14,92,30,-19
1491088617230,1,65,-27,-122,-118,-128,-128,-109,32
1491088617230,1,44,-29,-14,30,15,-81,-52,5
1491088617263,2,37,25,78,-29,102,127,49,-35
1491088617263,2,0,22,26,127,102,84,57,-4
1491088617266,3,8,-31,-30,-75,-103,-95,-86,-7
1491088617266,3,-49,-73,-110,94,-34,-47,-79,32
1491088617270,0,-48,54,92,18,45,-45,35,-3
1491088617270,0,-51,11,4,-81,-57,83,91,10
1491088617271,1,-74,-36,-88,-109,-92,-27,-34,-7
1491088617271,1,-95,-29,-10,9,-121,-104,-75,-10
1491088617301,2,-80,-1,5,24,64,100,-3,16
1491088617301,2,-53,39,20,-45,100,-75,53,-20
1491088617302,3,-106,-11,-20,90,-46,-54,-49,6
1491088617302,3,-72,38,33,-42,-65,-65,-27,15
1491088617303,0,-28,4,30,66,36,53,107,-31
1491088617303,0,-39,-16,-90,-128,-70,54,-36,15
1491088617304,1,-80,11,54,93,115,-18,10,-7
1491088617304,1,-30,13,-5,-22,27,-28,59,-21
1491088617338,2,-32,-6,47,-100,-128,16,-39,15
1491088617338,2,-72,-30,-61,104,32,-99,-50,-13
1491088617340,3,-16,21,52,62,85,97,-43,0
1491088617340,3,-30,-11,-47,-74,-92,-40,18,-24
1491088617341,0,-22,-19,-42,-63,4,-5,92,17
1491088617341,0,-60,16,38,50,-88,-128,-86,-6
1491088617342,1,6,6,9,30,88,15,69,9
1491088617342,1,24,53,127,66,55,124,127,4
1491088617376,2,-65,-50,-128,-91,-80,-128,-128,-4
1491088617376,2,32,16,107,-5,70,76,117,-19
1491088617378,3,-2,0,-67,-95,-74,20,5,-1
1491088617378,3,-26,-31,-32,50,-4,-26,-97,-16
1491088617379,0,-10,22,9,-114,15,4,52,4
1491088617379,0,5,15,11,81,-30,-102,-115,15
1491088617380,1,-2,-9,0,-55,19,15,108,-1
1491088617380,1,23,22,94,95,120,127,73,12
1491088617412,2,18,-13,-81,-83,-128,25,12,-6
1491088617412,2,-33,-9,-34,-92,-1,-32,20,4
1491088617414,3,25,24,38,-10,-42,59,3,-4
1491088617414,3,-7,-21,-34,47,9,-81,-52,22
1491088617414,0,-11,-19,-15,-40,43,51,73,-13
1491088617414,0,7,-17,9,90,-23,45,30,-7
