1491087484474,0,-41,-49,-69,-18,-49,-54,-78,19
1491087484474,0,-16,-4,11,34,7,10,60,-94
1491087484475,1,-1,-1,11,25,18,-3,22,-19
1491087484475,1,1,15,16,18,0,6,28,-12
1491087484476,2,5,6,7,-9,6,3,22,7
1491087484476,2,-3,-6,-14,-20,-11,-9,-47,10
1491087484511,3,-4,-1,-2,0,-10,-23,-103,23
1491087484511,3,-1,-6,-6,-21,19,19,75,22
1491087484512,0,-5,8,7,-11,2,32,117,-55
1491087484512,0,4,0,-8,-11,-22,-6,-18,11
1491087484513,1,4,-1,0,1,-9,-6,-52,-14
1491087484513,1,-7,-1,4,15,13,-12,-29,44
1491087484514,2,24,6,8,6,18,-3,9,4
1491087484514,2,-21,-4,-5,-2,2,28,57,-18
1491087484549,3,-2,2,-2,-6,-1,-23,-35,27
1491087484549,3,3,-4,-8,-13,-26,-22,-28,-12
1491087484550,0,3,3,8,2,-5,9,1,-29
1491087484550,0,-16,-4,-1,-3,1,-7,-43,15
1491087484551,1,-3,-3,-3,1,-4,-1,-15,-1
1491087484551,1,7,0,7,2,27,20,2,-28
1491087484586,2,-10,0,9,10,-4,-3,-52,6
1491087484586,2,46,2,-4,4,12,-12,0,22
1491087484587,3,-15,1,1,-8,-7,4,42,1
1491087484587,3,13,-4,-16,-21,-40,9,96,-23
1491087484589,0,2,-2,1,3,12,25,18,-4
1491087484589,0,-3,0,4,16,0,-24,-87,30
1491087484589,1,3,2,3,-8,13,-22,53,-4
1491087484589,1,12,-3,1,-5,1,32,29,-3
1491087484624,2,0,0,-9,3,-14,-1,-34,-14
1491087484624,2,3,1,7,-1,6,-4,17,24
1491087484625,3,-7,-4,-6,0,-8,8,-24,-11
1491087484625,3,-10,2,3,6,-9,-20,-57,-6
1491087484625,0,0,2,5,6,15,-2,-38,4
1491087484625,0,-7,7,7,1,24,9,-66,-11
1491087484626,1,-2,6,-2,-6,3,15,39,-15
1491087484626,1,-26,-4,2,10,-3,8,25,22
1491087484661,2,9,-13,-17,-29,-23,-7,105,-41
1491087484661,2,-1,-5,-8,-8,-12,-23,-7,-7
1491087484662,3,8,-9,-9,-7,-4,13,41,0
1491087484662,3,0,13,-2,12,5,-14,-100,-6
1491087484662,0,-13,3,19,10,10,13,-39,33
1491087484662,0,-12,-2,4,-1,-21,-10,-21,-10
1491087484663,1,-26,-7,-6,-8,-10,-4,8,-16
1491087484663,1,5,-8,-10,4,3,-10,-48,6
1491087484699,2,-12,0,7,14,13,-7,-13,17
1491087484699,2,11,0,-8,-13,-5,7,37,-27
1491087484700,3,22,6,0,2,3,2,-27,-4
1491087484700,3,-7,-5,-4,-8,5,-5,11,-10
1491087484701,0,11,1,2,0,-3,0,50,14
1491087484701,0,-22,-6,-6,-7,-19,-5,19,10
1491087484736,1,5,-1,0,7,17,20,1,-7
1491087484736,1,20,10,4,-1,-7,-19,-3,9
1491087484739,2,-3,-1,-5,1,-15,-26,-108,-8
1491087484739,2,0,6,7,2,8,11,21,23
1491087484739,3,14,7,-3,-4,2,4,52,16
1491087484739,3,-7,0,3,-1,4,8,36,-3
1491087484740,0,-15,-5,-6,-3,0,17,9,-18
1491087484740,0,6,-2,-2,0,-11,-7,-42,11
1491087484811,1,-3,-12,-4,-5,-7,-10,12,-17
1491087484811,1,-15,-11,-1,4,3,-24,-58,0
1491087484812,2,22,10,7,0,6,6,-5,8
1491087484812,2,-27,-7,3,3,14,2,9,10
1491087484813,3,10,6,-1,6,-9,-16,-60,12
1491087484813,3,-13,-19,-21,-24,-10,32,90,-56
1491087484814,0,-23,2,-1,0,-13,-13,-8,-8
1491087484814,0,17,5,1,-2,11,-5,-36,13
1491087484852,1,8,0,3,6,-5,-11,-45,16
1491087484852,1,-11,-3,1,-4,-4,-17,-4,-44
1491087484853,2,14,-4,-1,-6,-5,11,19,13
1491087484853,2,-11,-4,-2,-2,9,4,9,-23
1491087484854,3,-4,3,2,6,-14,7,-71,14
1491087484854,3,-2,2,0,-5,1,-36,23,31
1491087484856,1,-20,-10,-8,-7,-20,-10,-71,22
1491087484856,1,7,-4,-10,-18,-20,21,83,-56
1491087484887,2,-3,-1,3,0,-3,1,47,-2
1491087484887,2,8,-2,-4,0,2,-2,-17,-13
1491087484888,3,-33,-12,-8,-4,13,6,34,-21
1491087484888,3,8,4,13,14,2,-6,-83,26
1491087484891,0,-5,8,0,1,9,-2,-60,41
1491087484891,0,-2,-7,-8,-18,-20,-6,45,-29
1491087484892,1,9,-1,2,-1,-10,-9,28,-5
1491087484892,1,-20,-7,-12,3,4,4,1,22
1491087484924,2,35,5,5,1,0,7,23,-18
1491087484924,2,-21,0,3,5,1,7,-27,8
1491087484925,3,-12,-5,3,2,15,1,-21,-5
1491087484925,3,10,-4,-5,-1,-18,-43,-8,20
1491087484925,0,-8,-4,-7,0,-18,-8,-67,-20
1491087484925,0,-22,-6,-2,-2,-9,-4,-22,8
1491087484926,1,16,-4,-1,-7,0,23,119,-13
1491087484926,1,-1,2,11,16,20,9,-78,-3
1491087484961,2,4,3,-5,-2,17,10,38,15
1491087484961,2,6,-4,-6,3,-13,6,-23,10
1491087484962,3,0,7,9,3,6,-21,-19,-12
1491087484962,3,-5,-7,-3,-10,2,4,43,10
1491087484962,0,1,3,6,2,18,11,-6,-10
1491087484962,0,-6,-6,-7,-7,-6,2,-93,-28
1491087484963,1,4,-2,-2,4,-13,-9,72,31
1491087484963,1,-6,-3,-13,-11,-25,-15,-2,-3
1491087484999,2,-30,-10,-1,-1,12,-18,-21,-19
1491087484999,2,26,-1,1,-9,-8,16,57,-7
1491087484999,3,-1,-1,-4,5,17,31,-57,-16
1491087484999,3,9,-3,1,4,9,-29,-73,15
1491087485000,0,-4,2,2,-1,1,25,57,31
1491087485000,0,-13,1,9,3,0,-3,25,-13
1491087485001,1,22,4,-5,-12,-10,-10,-43,3
1491087485001,1,-6,-1,1,4,27,19,32,-8
1491087485036,2,-8,-8,-6,-4,-29,-30,-26,-8
1491087485036,2,-6,9,-3,5,-29,-30,-21,28
1491087485037,3,5,-10,-5,-14,-11,22,120,-38
1491087485037,3,-13,-5,-6,2,4,-8,-52,12
1491087485074,0,4,-3,-8,-12,30,49,71,-47
1491087485074,0,-7,1,6,5,9,-25,19,15
1491087485075,1,14,2,2,17,-11,7,-70,16
1491087485075,1,-3,-5,-10,8,-2,-22,-79,8
1491087485075,2,-1,-1,-12,-7,-22,-30,-30,7
1491087485075,2,-20,-7,7,1,1,7,-6,-30
1491087485076,3,-11,-5,0,-4,3,-5,1,11
1491087485076,3,26,4,5,-4,-2,6,66,-5
1491087485111,0,18,-3,-14,8,0,-17,-73,29
1491087485111,0,31,8,6,-7,-9,-7,31,-1
1491087485112,1,-38,-16,-15,-13,4,19,34,-58
1491087485112,1,-16,2,11,-2,3,37,11,-1
1491087485112,2,-33,-6,-3,-7,-17,-19,37,-8
1491087485112,2,20,-1,-13,-1,7,-3,-121,6
1491087485113,3,29,14,17,1,7,6,47,18
1491087485113,3,-30,-4,-7,-16,-11,-43,18,-4
1491087485149,0,-5,-7,1,-1,7,18,-46,-15
1491087485149,0,-5,2,-4,8,-2,-8,44,25
1491087485149,1,-8,-1,-8,0,10,-11,-8,-27
1491087485149,1,17,0,-7,1,-18,53,28,22
1491087485150,3,12,1,0,-5,-1,-12,42,30
1491087485150,3,-15,-6,1,0,-4,-5,-33,-10
1491087485151,0,8,3,-8,-4,-14,9,-8,1
1491087485151,0,-3,3,0,-6,-18,-34,-12,4
1491087485186,1,-3,3,1,9,19,22,-53,14
1491087485186,1,5,-2,7,7,14,4,-92,-23
1491087485187,2,-30,-14,-4,-8,-7,-20,69,8
1491087485187,2,-11,-1,7,-1,29,8,27,-47
1491087485188,3,-3,-3,-3,-4,-10,-11,21,50
1491087485188,3,-5,-1,-4,1,-17,37,94,-23
1491087485189,0,47,-3,-7,3,-6,-26,24,5
1491087485189,0,-2,1,-2,2,-33,51,12,26
1491087485223,1,-43,-23,-19,-10,-25,-75,-95,-29
1491087485223,1,27,18,12,2,14,9,-120,23
1491087485224,2,0,2,15,1,44,43,87,-21
1491087485224,2,-17,-9,5,8,15,-18,-4,-15
1491087485225,3,2,-1,2,-3,-7,-3,-47,-21
1491087485225,3,4,-4,-1,-1,-8,-47,58,42
1491087485226,0,-23,-4,-6,-13,3,11,43,-29
1491087485226,0,20,-5,-10,-5,-3,33,13,-15
1491087485261,1,-20,-4,3,19,-13,29,-26,14
1491087485261,1,9,14,4,6,-14,-41,-18,21
1491087485262,2,-6,-10,-5,-4,-2,10,35,1
1491087485262,2,17,-11,-20,-14,6,28,63,-9
1491087485263,3,-4,15,4,-20,16,19,-31,-36
1491087485263,3,-3,-5,-14,-7,-34,-73,-83,14
1491087485263,0,-2,5,9,25,32,0,-128,71
1491087485263,0,17,1,-7,-12,-14,13,67,-26
1491087485299,1,-22,-7,-6,2,-6,-16,58,-8
1491087485299,1,5,-5,-8,-5,2,25,56,-35
1491087485300,2,-27,7,9,1,-18,7,-32,23
1491087485300,2,55,6,11,8,29,24,-24,-8
1491087485300,3,27,10,3,-9,11,-46,18,-2
1491087485300,3,-7,0,-1,2,51,40,-16,-11
1491087485302,0,-12,6,5,9,-57,-84,14,17
1491087485302,0,-28,-18,-20,-25,-37,17,68,12
1491087485336,1,-17,-20,-16,1,-22,28,39,-19
1491087485336,1,3,13,10,-7,38,-2,-71,-13
1491087485337,2,26,2,5,0,-28,-2,-128,16
1491087485337,2,-7,0,-9,6,-13,-15,55,-12
1491087485338,3,-20,-7,-4,-6,37,5,-10,-32
1491087485338,3,15,-1,-4,9,-23,25,41,-25
1491087485339,0,46,6,0,-4,-21,-48,-72,18
1491087485339,0,-21,12,26,15,46,-7,16,18
1491087485373,1,18,4,6,-8,12,-34,-96,3
1491087485373,1,-40,-12,-7,-9,-23,55,77,13
1491087485374,2,26,-14,-20,-16,-44,23,107,-41
1491087485374,2,-33,-16,-6,23,7,-57,-115,2
1491087485375,3,32,23,18,2,19,84,7,48
1491087485375,3,-6,1,5,-12,-15,-48,-14,-24
1491087485376,0,2,-7,-13,-12,13,50,70,-17
1491087485376,0,-19,1,-6,-13,27,-28,23,-26
1491087485411,1,6,2,4,25,-12,-34,-61,30
1491087485411,1,15,3,5,14,-17,12,-76,15
1491087485412,2,-25,-3,7,12,18,2,70,-4
1491087485412,2,-4,1,-4,-3,-36,-26,-49,29
1491087485413,3,-3,2,-3,15,10,-1,-70,-3
1491087485413,3,-9,-2,1,-15,-27,-8,127,15
1491087485413,0,-30,-17,-18,-3,0,-6,-63,-30
1491087485413,0,5,12,18,-6,24,-8,45,20
1491087485449,1,-10,-23,-19,-29,-35,1,127,-54
1491087485449,1,18,6,5,22,46,21,-109,-8
1491087485488,2,15,20,32,19,48,16,-9,47
1491087485488,2,9,13,0,-26,-52,-7,-16,-34
1491087485489,3,-13,-15,-12,7,7,46,33,18
1491087485489,3,20,12,5,5,35,-24,10,-22
1491087485490,0,-12,6,12,18,7,31,-63,48
1491087485490,0,-12,-18,-28,-15,-37,-48,44,22
1491087485493,1,12,-10,-18,-18,-42,12,45,-22
1491087485493,1,-4,-18,-21,-3,-35,8,-35,-10
1491087485524,2,-9,16,19,10,17,-63,-65,1
1491087485524,2,13,-1,12,4,51,69,64,-31
1491087485525,3,-2,5,8,-7,13,-32,-101,-58
1491087485525,3,-14,-18,-12,-23,-20,-15,127,42
1491087485525,0,-13,-13,-18,-17,-15,6,-20,-78
1491087485525,0,26,1,-2,9,-25,11,-50,33
1491087485526,1,-35,-4,7,1,-4,-45,41,11
1491087485526,1,13,7,-1,-2,14,58,-31,-20
1491087485561,2,-8,-10,-20,-11,1,-35,-44,3
1491087485561,2,25,20,8,4,1,-29,-37,18
1491087485566,3,-15,-9,-3,-4,1,40,29,3
1491087485566,3,-7,5,7,-4,-4,-18,-71,-17
1491087485566,0,-1,-10,-15,-8,-11,-24,10,-28
1491087485566,0,-22,-15,-5,-17,18,84,72,25
1491087485567,1,22,25,10,14,-6,-77,-128,11
1491087485567,1,-1,-12,-7,-2,0,21,107,37
1491087485636,2,-7,-10,-9,-11,-5,30,105,-68
1491087485636,2,3,11,2,7,-11,-36,-93,-3
1491087485637,3,9,-2,6,2,7,17,-12,20
1491087485637,3,-30,-8,-1,7,10,-12,-10,-8
1491087485638,0,7,-7,-5,-2,-18,-7,-35,15
1491087485638,0,19,2,-4,-1,1,8,21,-10
1491087485639,1,10,-1,-3,0,1,6,9,15
1491087485639,1,-1,11,6,10,-11,-26,-76,4
1491087485673,2,-8,12,12,10,9,10,-58,18
1491087485673,2,-32,-30,-12,-14,3,7,70,-40
1491087485674,3,10,-3,-4,-7,3,11,117,4
1491087485674,3,7,-1,-1,-10,-17,-29,-11,-24
1491087485675,0,10,-4,-8,-7,3,28,13,0
1491087485675,0,-4,4,12,18,13,-34,-122,9
1491087485676,3,-6,-7,4,-2,1,7,22,4
1491087485676,3,-18,-2,-2,7,10,-6,-67,-11
1491087485711,0,26,8,12,12,4,-10,-65,46
1491087485711,0,-6,6,4,4,4,-4,-1,17
1491087485712,1,-6,-7,1,1,1,13,-4,-21
1491087485712,1,1,7,-7,0,4,-11,-66,-19
1491087485713,3,15,18,0,-6,-25,-25,48,-26
1491087485713,3,-5,-21,-1,-5,7,25,-22,-24
1491087485714,0,-3,1,3,8,14,6,26,5
1491087485714,0,-14,7,7,4,14,1,-14,-5
1491087485749,1,-2,-13,-17,-8,1,8,-5,27
1491087485749,1,6,4,11,5,-1,-12,35,-12
1491087485749,2,8,1,-2,-1,6,12,-63,-1
1491087485749,2,-2,1,-1,6,-3,-15,-53,-7
1491087485750,3,-4,-1,4,-3,-7,-16,57,12
1491087485750,3,-3,-8,-11,-17,-20,20,9,-15
1491087485751,0,-2,3,1,4,-4,-18,7,22
1491087485751,0,2,0,-9,-4,11,17,-34,-23
1491087485786,1,6,1,-1,-4,14,17,61,11
1491087485786,1,5,1,-7,-6,-12,-45,21,-21
1491087485787,2,-3,2,2,-2,-12,16,-12,34
1491087485787,2,-33,-16,-13,-5,-13,1,-8,-19
1491087485789,3,-20,-3,1,1,11,-11,-31,-29
1491087485789,3,27,10,-3,2,9,17,-15,17
1491087485790,0,-19,6,1,-6,-13,-1,-15,-20
1491087485790,0,34,15,14,11,-2,-12,12,16
1491087485824,1,-23,-22,-18,-8,-6,3,-31,4
1491087485824,1,-16,-4,12,7,15,25,61,-1
1491087485825,2,21,10,4,-1,20,-1,45,-12
1491087485825,2,-13,2,1,-4,-25,-26,-29,22
1491087485827,3,-2,-10,-11,-1,-18,-4,-37,-11
1491087485827,3,9,3,1,1,10,-33,-10,3
1491087485829,0,2,3,3,8,3,7,-72,-1
1491087485829,0,3,-16,-11,-6,15,3,32,22
1491087485861,1,-1,21,6,-8,-8,-17,52,-33
1491087485861,1,-5,-8,-4,0,-17,20,-81,11
1491087485862,2,-2,-16,-13,-9,3,-11,122,-8
1491087485862,2,8,7,8,-1,-12,-5,-38,-35
1491087485863,3,4,-12,-9,4,7,21,38,33
1491087485863,3,2,7,-1,-7,-15,-16,17,3
1491087485864,0,-10,-6,-2,1,-5,-6,-6,9
1491087485864,0,2,12,-2,7,-8,15,-59,-3
1491087485899,1,-11,-15,4,11,20,-10,-21,17
1491087485899,1,-5,5,8,-2,8,37,17,-49
1491087485900,2,-6,-5,-12,-6,-45,-91,-81,24
1491087485900,2,-16,-2,5,-5,3,22,79,-17
1491087485901,3,-11,1,1,2,4,4,-9,20
1491087485901,3,-6,-19,-12,-5,3,-1,42,-5
1491087485902,0,31,8,7,0,19,56,37,-28
1491087485902,0,-4,-3,-5,-4,-9,-3,13,3
1491087485936,1,35,15,9,13,8,17,-59,20
1491087485936,1,-23,-5,3,1,6,-35,24,5
1491087485937,2,9,6,-6,3,-11,18,-51,5
1491087485937,2,-12,-1,2,-9,5,-20,27,-11
1491087485937,3,-2,-17,-9,-11,-8,17,-26,-34
1491087485937,3,3,6,-17,-8,-14,-10,10,22
1491087485938,0,-15,2,6,-4,-2,-2,20,-24
1491087485938,0,15,-4,-4,0,15,2,-17,21
1491087485973,1,4,12,13,-1,-10,2,25,3
1491087485973,1,-17,-12,-6,-5,-18,-7,-12,0
1491087485974,2,-41,-14,-13,-4,-15,-7,-18,-9
1491087485974,2,23,-1,-5,-3,0,-2,3,-15
1491087485975,3,6,1,10,2,5,-24,-15,9
1491087485975,3,0,9,8,-2,2,28,15,-12
1491087485976,0,-5,-2,-2,5,8,-16,19,9
1491087485976,0,-5,-7,-6,-2,-5,-7,-50,5
1491087486011,1,-11,-1,-9,-2,-8,-18,-40,-1
1491087486011,1,37,28,9,4,3,1,38,20
1491087486012,2,-1,-4,2,-9,6,18,31,-46
1491087486012,2,-8,-4,0,-2,-2,6,-9,9
1491087486013,3,0,-1,-5,-6,10,5,11,-21
1491087486013,3,-11,-10,-7,1,-9,-3,11,15
1491087486049,0,9,0,1,1,-5,-10,-1,14
1491087486049,0,2,-4,-1,8,5,17,-25,12
1491087486050,1,-10,2,0,2,-3,-36,-58,-10
1491087486050,1,-4,-8,-3,0,3,4,11,9
1491087486050,2,-2,10,6,0,4,5,-17,-34
1491087486050,2,7,-5,2,-9,10,26,116,-25
1491087486053,3,-12,-11,-10,-9,-17,-22,29,16
1491087486053,3,1,-2,4,12,12,29,-68,5
1491087486086,0,14,-4,-3,-6,-11,-22,8,15
1491087486086,0,-1,4,-3,-4,2,-40,-25,0
1491087486087,1,17,18,10,2,1,16,-32,-25
1491087486087,1,-6,-4,-1,-1,0,-10,-37,-12
1491087486088,2,3,-2,5,2,7,29,25,13
1491087486088,2,-14,-2,-13,-8,-40,-26,-25,20
1491087486089,3,19,-3,-2,-1,-3,8,-10,3
1491087486089,3,-27,-9,-6,-7,7,-13,16,-22
1491087486124,0,5,0,5,6,11,8,-30,9
1491087486124,0,-15,-7,5,3,5,20,-29,-22
1491087486125,1,3,3,-7,-1,-13,-29,84,24
1491087486125,1,-10,-6,-4,-1,-5,-4,-22,-5
1491087486126,2,5,0,-6,1,18,1,45,-2
1491087486126,2,7,-3,1,-9,-7,14,31,-31
1491087486127,3,-20,-5,9,5,-13,7,-20,10
1491087486127,3,16,3,-6,-1,19,47,9,-25
1491087486161,0,9,-7,-4,-15,-13,-69,21,24
1491087486161,0,-26,-7,-4,4,20,-1,-99,-7
1491087486162,1,16,12,12,-5,-7,19,74,1
1491087486162,1,9,7,2,7,4,9,-10,-5
1491087486163,2,-29,-9,-10,-1,-31,0,-14,-19
1491087486163,2,33,3,-4,6,-25,-43,-84,51
1491087486199,3,-32,-17,-5,-13,6,3,43,-36
1491087486199,3,6,-2,-9,-4,7,-7,37,-4
1491087486199,0,14,14,-5,-1,20,34,50,3
1491087486199,0,-12,3,15,15,0,-45,-88,-5
1491087486200,1,-4,-15,-16,-10,15,42,71,-7
1491087486200,1,6,-3,5,-11,-2,-16,9,0
1491087486201,2,19,17,-9,4,-10,8,-25,30
1491087486201,2,-27,-5,1,-4,-7,21,0,-43
1491087486236,3,-3,3,1,2,-18,-24,-52,4
1491087486236,3,8,-3,0,-5,3,-7,13,7
1491087486237,0,-22,-20,-6,0,-14,25,-24,-10
1491087486237,0,13,13,6,8,-3,-57,-29,46
1491087486237,1,3,6,-3,1,-4,-8,-74,-11
1491087486237,1,-23,-9,-5,-5,-1,-6,18,3
1491087486238,2,17,6,7,5,18,-20,-104,-5
1491087486238,2,5,0,0,-1,19,60,127,4
1491087486273,3,-35,-19,-13,-18,6,0,73,-32
1491087486273,3,-16,-9,-2,-11,-50,-12,49,-26
1491087486274,0,5,6,-5,2,17,7,-52,5
1491087486274,0,4,-8,-4,-3,-2,18,2,6
1491087486275,1,5,16,9,2,5,-7,-55,7
1491087486275,1,0,7,3,-2,-9,-2,-48,13
1491087486276,2,-15,-13,0,20,30,-12,-25,2
1491087486276,2,-6,3,1,0,-5,-17,-84,23
1491087486311,3,-25,-25,-22,-20,-42,20,80,-33
1491087486311,3,10,5,1,3,-28,-93,-80,-4
1491087486312,0,16,8,10,-6,22,45,119,9
1491087486312,0,-12,-15,-9,3,31,30,59,-18
1491087486313,1,20,10,10,7,-9,12,-92,11
1491087486313,1,2,-3,-15,-12,2,5,1,7
1491087486349,2,11,-2,2,-4,-2,-3,-2,-8
1491087486349,2,-4,5,-2,5,-24,-44,-12,40
1491087486349,3,10,-5,3,2,12,11,6,10
1491087486349,3,13,-2,6,10,19,0,-62,-22
1491087486350,0,-1,17,15,-2,7,16,17,13
1491087486350,0,4,-4,-5,3,17,24,-13,-50
1491087486351,1,13,5,2,-1,1,-2,39,15
1491087486351,1,-2,-5,-5,5,-6,-37,-29,35
1491087486386,2,-23,-15,-17,-16,-35,14,105,-31
1491087486386,2,17,-2,-8,-13,-13,1,-13,-7
1491087486387,3,-8,5,-2,5,-13,-29,-47,3
1491087486387,3,-3,7,13,12,33,38,-25,1
1491087486423,0,-12,-5,4,-6,-2,11,8,-32
1491087486423,0,13,10,9,7,14,-17,-53,21
1491087486424,1,6,-4,-3,3,12,3,-25,19
1491087486424,1,-16,-11,-12,-6,-37,-39,94,19
1491087486425,2,7,-5,-4,2,-16,-8,-117,-8
1491087486425,2,-6,7,11,-10,24,21,101,-15
1491087486426,3,2,6,3,11,14,39,16,18
1491087486426,3,15,-2,-2,-6,5,26,-17,-10
1491087486461,0,-22,-1,-5,-3,-17,-46,65,17
1491087486461,0,-16,-8,-9,-12,-28,-10,-51,-14
1491087486462,1,37,7,-7,4,20,-18,-97,-39
1491087486462,1,-13,7,6,1,-5,14,64,51
1491087486462,2,19,-8,0,0,28,23,31,-51
1491087486462,2,-15,0,3,-4,-14,16,-4,14
1491087486464,3,0,-10,-19,-8,-48,-44,-34,-1
1491087486464,3,0,-7,-5,-4,6,9,-4,-23
1491087486501,0,-8,2,2,4,4,-9,-7,33
1491087486501,0,3,-2,-4,-6,3,10,21,-29
1491087486502,1,-14,1,12,1,26,18,-29,-8
1491087486502,1,31,10,5,-3,-6,4,46,35
1491087486503,2,-37,-12,-14,-10,-10,-10,43,-34
1491087486503,2,14,3,1,9,1,-40,-62,6
1491087486536,3,-41,-8,6,-1,17,38,3,6
1491087486536,3,13,-1,-3,1,10,-26,22,-28
1491087486537,0,9,1,0,-2,-9,30,-11,14
1491087486537,0,-6,-15,-13,-14,-7,-34,47,-14
1491087486538,1,1,3,-2,0,-6,-8,-44,12
1491087486538,1,-25,-14,-1,0,18,24,-2,-24
1491087486538,2,16,14,9,7,-18,-34,-120,45
1491087486538,2,-15,-8,-5,-10,7,46,104,-44
1491087486573,3,-24,-9,-4,2,-18,-52,44,0
1491087486573,3,-1,-8,-6,-3,-12,57,9,-1
1491087486574,0,4,-5,-8,0,8,-50,-43,0
1491087486574,0,11,16,15,13,-5,4,-63,47
1491087486575,1,15,1,-7,-10,-13,-5,54,-31
1491087486575,1,13,7,-9,-5,-10,-17,-22,-12
1491087486576,2,-22,-1,0,2,-5,6,-17,10
1491087486576,2,3,-6,-3,1,16,15,20,2
1491087486611,3,-8,-1,4,-3,6,-2,13,-13
1491087486611,3,-13,-5,3,10,5,-12,-26,-3
1491087486613,0,13,-6,-2,-5,-4,-2,-46,-20
1491087486613,0,-2,-1,-4,-1,3,-6,60,22
1491087486615,1,19,3,-2,1,-3,8,-2,21
1491087486615,1,-17,-20,-6,-6,-10,-8,-27,-23
1491087486616,2,-2,7,0,-3,0,7,29,-3
1491087486616,2,-5,0,-4,3,-11,-18,-40,7
1491087486649,3,21,3,0,1,7,0,-48,8
1491087486649,3,-7,1,5,-5,6,12,1,-15
1491087486650,0,2,3,-2,5,-2,-31,-77,8
1491087486650,0,-13,-2,7,-5,-8,18,90,14
1491087486651,1,-16,-3,-4,-4,-3,5,-15,-37
1491087486651,1,27,7,3,-10,-1,-2,46,7
1491087486651,2,-5,-7,-10,-10,-6,14,62,-4
1491087486651,2,-12,-4,2,3,3,-17,-41,-14
1491087486686,3,-13,-13,-4,1,19,-17,-45,6
1491087486686,3,4,1,-12,5,-3,9,-68,-8
1491087486687,0,10,5,-1,-7,-23,-16,-6,-5
1491087486687,0,14,7,-1,-7,-14,0,30,-6
1491087486688,1,-5,-1,5,2,4,11,45,9
1491087486688,1,-20,0,8,8,13,-11,-49,31
1491087486689,2,10,-8,1,-6,10,28,56,-29
1491087486689,2,-16,-10,-20,-6,-32,-20,-58,-31
1491087486723,3,-8,-1,0,2,1,-2,3,11
1491087486723,3,5,11,0,0,-8,-8,-3,7
1491087486724,0,-18,-7,-4,4,5,-6,-24,13
1491087486724,0,7,5,8,2,7,-9,-110,3
1491087486725,1,3,4,5,-6,6,11,78,-14
1491087486725,1,-12,-5,-2,0,13,17,44,0
1491087486726,2,-4,-6,-3,-3,-14,-1,-36,5
1491087486726,2,2,-11,-13,-4,-11,-3,65,13
1491087486762,3,12,5,2,1,4,-5,23,-18
1491087486762,3,-24,-4,-1,1,-1,11,31,-18
1491087486762,0,-1,1,0,-3,-17,-20,-74,13
1491087486762,0,7,6,10,9,16,-12,-61,28
1491087486763,1,-2,-5,-6,0,32,23,67,-1
1491087486763,1,10,-2,-5,-8,-8,18,1,-15
1491087486763,2,-13,-1,-3,2,-49,-41,-60,-7
1491087486763,2,2,-10,-4,2,-24,-25,-35,23
1491087486799,3,1,1,2,-3,13,29,93,-14
1491087486799,3,5,-1,-4,-5,9,-17,3,-11
1491087486800,0,-21,-5,6,8,24,29,25,10
1491087486800,0,5,6,0,1,10,-9,-31,-12
1491087486800,1,9,3,-8,-7,-33,-33,-90,0
1491087486800,1,-12,-10,-3,-7,2,5,5,-15
1491087486801,2,24,7,9,2,-6,-3,-52,18
1491087486801,2,-33,-15,-6,-3,15,7,65,14
1491087486836,3,1,-3,-4,-4,6,11,59,-16
1491087486836,3,-1,12,1,-1,-4,-29,-9,0
1491087486837,0,-1,-8,-1,-2,10,14,61,-8
1491087486837,0,9,15,3,5,-3,-13,-47,5
1491087486837,1,6,-13,-10,-8,-26,9,-18,13
1491087486837,1,-5,-6,-4,9,-13,-13,-79,-3
1491087486838,2,10,11,13,5,34,14,71,12
1491087486838,2,-11,0,-4,-8,9,29,69,-21
1491087486874,3,-15,-3,0,4,-12,-20,-21,13
1491087486874,3,3,-2,-2,-6,-1,-3,10,-18
1491087486875,0,-4,-1,-5,-5,-19,-15,-94,-2
1491087486875,0,12,-4,-9,0,-2,4,73,23
1491087486876,1,-4,1,1,-10,4,10,2,-45
1491087486876,1,-15,-7,1,3,5,-18,-46,20
1491087486911,2,-1,2,0,-5,19,34,33,-28
1491087486911,2,-4,-6,-2,-8,-18,-23,26,-7
1491087486912,3,12,6,-6,4,0,1,-65,24
1491087486912,3,-2,0,6,3,8,27,50,9
1491087486949,0,8,-11,-10,-4,-6,-26,-19,1
1491087486949,0,11,8,14,5,-9,-13,-94,-22
1491087486950,1,-8,-1,-7,3,0,-12,20,43
1491087486950,1,21,4,6,-1,-1,-6,-2,-10
1491087486951,2,-18,-4,-2,-5,8,13,19,14
1491087486951,2,-4,-7,-7,-16,-3,41,119,-89
1491087486952,3,16,2,1,5,-20,-29,-78,31
1491087486952,3,-6,0,2,3,2,-2,-13,19
1491087486986,0,8,-1,-8,-2,-14,-16,-21,-1
1491087486986,0,-23,-5,-6,-5,8,28,34,-3
1491087486987,1,-16,0,6,6,2,-16,-49,-2
1491087486987,1,1,-6,-4,-1,8,-21,62,11
1491087486988,2,21,5,6,0,8,18,4,-8
1491087486988,2,2,4,3,1,-7,9,-103,7
1491087486989,3,-2,-11,-8,-1,5,18,-27,-11
1491087486989,3,-18,8,3,2,-12,-5,53,20
1491087487024,0,-23,-12,-13,-7,-10,-1,89,-39
1491087487024,0,17,-3,-3,0,12,2,-58,-17
1491087487024,1,-5,12,13,7,2,-13,42,32
1491087487024,1,5,-4,-1,-2,-1,5,-13,-26
1491087487025,2,9,-1,-8,1,2,2,23,9
1491087487025,2,15,0,5,-1,1,-12,-29,-1
1491087487026,3,0,2,0,0,6,6,-16,-3
1491087487026,3,2,-2,-7,-5,2,11,-51,-26
1491087487061,0,-21,7,8,-2,-19,-52,-6,23
1491087487061,0,10,-17,-13,-10,5,23,68,11
1491087487062,1,-10,4,3,0,-1,5,-1,-29
1491087487062,1,1,-9,-12,-11,-19,-8,-11,12
1491087487063,2,-5,-3,5,6,2,12,-45,-17
1491087487063,2,-4,2,-6,0,2,-1,55,15
1491087487064,3,0,-13,-5,-3,3,-10,44,-21
1491087487064,3,2,13,5,0,-9,12,-2,1
1491087487099,0,6,4,6,3,14,-5,-62,23
1491087487099,0,-10,3,-3,1,-17,-17,-113,-1
1491087487101,1,16,-9,-8,-11,-13,2,127,22
1491087487101,1,-20,-25,-9,-9,-1,2,26,-49
1491087487102,2,18,14,4,6,-1,-16,-26,14
1491087487102,2,-10,8,10,5,29,27,15,-2
1491087487103,3,-1,-4,-8,-8,-22,-27,-67,4
1491087487103,3,-2,1,2,6,-2,0,-38,27
1491087487136,0,-40,-23,-17,-10,5,20,69,-34
1491087487136,0,5,12,5,1,-10,-3,7,4
1491087487138,1,-7,7,7,11,16,-14,-128,-5
1491087487138,1,21,0,0,-6,-5,-15,88,30
1491087487140,2,-12,-16,-11,-5,-9,23,112,-31
1491087487140,2,11,10,1,-1,2,-11,24,0
1491087487140,3,-13,-8,-6,0,-2,2,-12,-8
1491087487140,3,6,12,8,0,11,20,-12,-4
1491087487174,0,-7,2,1,1,1,-13,-82,2
1491087487174,0,0,-14,-11,-9,-11,-22,46,3
1491087487175,1,12,-1,6,-6,3,14,5,-32
1491087487175,1,-13,-2,1,5,-6,-9,-108,-10
1491087487177,2,8,5,-1,-9,0,-14,91,31
1491087487177,2,-5,-14,-11,-3,-7,-1,-20,-8
1491087487178,3,7,6,6,9,23,-7,-64,10
1491087487178,3,22,10,-11,-13,-19,12,81,-1
1491087487211,0,-27,-6,1,-7,-20,15,22,-19
1491087487211,0,-13,-3,1,5,-7,-2,3,12
1491087487213,1,-10,-11,-7,0,8,-6,12,4
1491087487213,1,-27,-10,6,8,3,-9,-42,-30
1491087487214,2,19,6,-2,1,17,9,-30,-14
1491087487214,2,23,4,4,-5,-22,-48,-48,14
1491087487215,3,2,-6,-13,-3,-8,-13,62,21
1491087487215,3,-8,-2,4,-8,-11,-9,-5,-5
1491087487249,0,19,4,4,8,9,30,-24,11
1491087487249,0,-31,-12,0,-4,9,0,45,-41
1491087487250,1,12,7,-2,-13,-14,15,42,-24
1491087487250,1,11,0,-2,6,-2,-34,-79,22
1491087487251,2,-13,-13,-8,-9,-6,28,70,-8
1491087487251,2,12,12,5,10,19,8,-95,-6
1491087487251,3,-8,9,6,-1,3,-11,-7,24
1491087487251,3,11,-6,-8,4,-20,-4,17,12
1491087487286,0,-14,-2,4,10,8,-4,-39,32
1491087487286,0,-15,0,1,-9,5,-11,44,-25
1491087487287,1,30,8,3,2,-12,13,-19,-9
1491087487287,1,-13,-10,-8,-6,-4,5,-9,5
1491087487288,2,-26,-4,-7,7,-14,-36,-79,19
1491087487288,2,-17,-5,7,0,15,3,-39,6
1491087487289,3,-34,-14,-5,-14,-7,24,95,-41
1491087487289,3,11,1,5,8,8,1,-32,-6
1491087487324,0,7,-1,-8,-13,1,-8,36,-12
1491087487324,0,5,4,2,6,-6,-3,-19,12
1491087487324,1,11,-1,-1,1,7,-13,-18,1
1491087487324,1,-9,4,1,3,6,19,14,14
1491087487325,2,5,-7,-5,-5,-11,-8,-43,-36
1491087487325,2,13,3,-6,-1,-9,-7,-64,19
1491087487361,3,-6,6,18,8,3,10,11,37
1491087487361,3,7,-19,-25,-18,-15,-12,69,-49
1491087487363,0,2,6,3,3,-5,-12,-25,15
1491087487363,0,4,-4,-6,-8,-14,26,112,-20
1491087487363,1,-5,-8,1,7,11,-15,-126,15
1491087487363,1,-18,-2,-8,-11,19,10,99,-39
1491087487364,2,36,6,7,-1,4,18,25,-15
1491087487364,2,19,1,3,7,4,-20,-21,5
1491087487399,3,-30,-13,-7,-1,-19,-5,-70,14
1491087487399,3,1,16,18,6,12,-6,-52,24
1491087487400,0,3,-7,-12,-6,1,-2,28,10
1491087487400,0,6,1,-1,-3,-11,10,-10,-21
1491087487400,1,-4,-4,-16,-11,-18,9,33,-18
1491087487400,1,-5,1,12,-3,-1,-25,-20,18
1491087487401,2,1,2,-5,-7,-12,-16,10,-10
1491087487401,2,-13,-4,9,5,22,15,1,6
1491087487437,3,10,0,-4,3,11,0,36,-16
1491087487437,3,4,-1,-7,3,-13,8,-35,17
1491087487438,0,1,5,6,3,3,8,-54,20
1491087487438,0,-3,-8,-10,-5,-10,-26,21,-4
1491087487439,1,-6,2,5,3,2,-2,-89,-25
1491087487439,1,-3,-5,-3,-4,3,6,65,11
1491087487474,2,4,-6,-6,-1,1,-26,18,-10
1491087487474,2,11,-1,-6,-6,-2,21,20,15
1491087487475,3,-26,-3,-5,-5,-8,-3,31,-22
1491087487475,3,-1,5,14,5,4,14,-22,2
1491087487475,0,-3,-3,0,5,3,0,-18,-4
1491087487475,0,12,6,4,3,5,-15,-19,21
1491087487477,1,21,6,-1,4,0,0,10,3
1491087487477,1,-19,-9,-11,5,-22,-31,-128,2
1491087487512,2,1,-4,-5,-13,2,8,99,16
1491087487512,2,-16,-11,-1,-3,-12,22,27,-65
1491087487513,3,-5,-9,-1,2,25,-3,0,9
1491087487513,3,2,-7,-12,-1,1,45,109,-16
1491087487513,0,-21,-6,-5,-7,-25,-47,-35,-8
1491087487513,0,3,7,-4,3,5,-1,-64,36
1491087487514,1,-11,1,4,0,-6,3,24,13
1491087487514,1,-11,-3,4,2,18,1,-61,-20
1491087487550,2,18,9,6,10,4,7,-66,21
1491087487550,2,-2,-8,-15,-15,1,-7,38,5
1491087487551,3,11,2,-12,-6,-21,5,61,-27
1491087487551,3,8,12,7,1,6,-16,-3,27
1491087487552,0,-14,-13,-10,-18,0,26,101,-57
1491087487552,0,-10,0,2,9,5,-9,-40,-1
1491087487554,1,-1,-1,-4,1,-11,-15,-44,26
1491087487554,1,10,4,-4,-5,-4,-21,-27,8
1491087487586,2,-11,-2,5,9,-2,0,-84,-30
1491087487586,2,26,8,12,0,0,-6,66,37
1491087487588,3,0,-1,-18,-9,0,15,30,-27
1491087487588,3,-19,2,16,3,6,4,-1,5
1491087487589,0,-14,-15,-11,-4,1,-12,5,-16
1491087487589,0,0,8,4,5,-7,-12,-67,-9
1491087487624,1,-3,6,8,0,-2,20,40,1
1491087487624,1,0,-10,-15,-12,-6,-11,29,-4
1491087487625,2,5,4,2,5,10,-5,-18,26
1491087487625,2,-7,-19,-15,-15,-11,29,56,-51
1491087487626,3,-5,4,3,7,10,-9,-13,13
1491087487626,3,13,-8,-4,-3,-12,2,-20,6
1491087487627,0,9,11,12,2,6,-16,1,5
1491087487627,0,-32,-7,2,4,-5,-17,-56,0
1491087487661,1,0,-7,3,-1,1,-5,2,10
1491087487661,1,-6,-3,-9,-3,6,1,16,-22
1491087487662,2,27,13,6,13,-12,-13,-81,41
1491087487662,2,-23,-7,-9,-13,-10,10,81,-20
1491087487666,3,0,3,-6,-6,-1,14,28,-7
1491087487666,3,-6,-3,20,7,7,-5,-28,8
1491087487667,0,19,3,-4,-3,-4,-5,-72,6
1491087487667,0,-20,-11,-8,2,13,8,11,1
1491087487700,1,-4,-9,-2,-10,-6,-2,39,-28
1491087487700,1,-3,19,5,-9,-17,0,-35,-11
1491087487702,2,-9,6,11,-2,8,0,22,1
1491087487702,2,5,-8,0,-3,-6,-3,38,-10
1491087487702,3,-20,-13,-11,2,0,8,2,18
1491087487702,3,15,13,-8,0,-2,-21,-4,0
1491087487704,0,-17,-2,-1,-8,-14,6,4,-22
1491087487704,0,-14,-2,-8,-4,-7,-6,-53,16
1491087487736,1,14,-1,7,3,4,-18,-44,9
1491087487736,1,-2,-4,-11,0,3,0,-10,-4
1491087487737,2,-2,-6,-5,4,14,29,53,1
1491087487737,2,21,17,12,9,-11,0,-76,17
1491087487738,3,-9,1,-5,-4,-6,-36,-11,5
1491087487738,3,12,-15,-7,4,-7,-7,-65,-21
1491087487773,0,-8,-11,-12,-16,7,50,127,-49
1491087487773,0,-20,7,0,3,10,40,34,-9
1491087487774,1,37,15,9,5,-6,-59,-87,45
1491087487774,1,-8,-10,-8,-5,-8,19,0,0
1491087487775,2,-10,-7,-2,0,1,-21,-22,5
1491087487775,2,7,3,1,-1,4,-10,-23,7
1491087487776,3,-6,-6,3,0,-6,15,-5,-6
1491087487776,3,-2,1,1,4,11,-9,-11,6
1491087487811,0,1,5,-7,-8,-4,8,29,0
1491087487811,0,14,9,11,-2,0,-15,9,8
1491087487812,1,-8,-6,-4,-3,0,2,-27,-9
1491087487812,1,-8,-12,-3,1,0,3,-40,2
1491087487812,2,-16,0,1,8,-18,-29,-22,35
1491087487812,2,6,-10,-14,-22,0,31,21,-60
1491087487813,3,0,-11,-16,-12,0,7,104,-2
1491087487813,3,-1,-5,2,-7,6,10,127,-24
1491087487849,0,-7,11,7,5,-8,-12,-22,14
1491087487849,0,12,-1,-1,8,-14,-42,-51,48
1491087487850,1,-9,-6,7,1,-4,-3,-92,-7
1491087487850,1,-7,-3,-5,2,2,15,-10,7
1491087487852,2,1,-5,-10,-3,15,5,22,-15
1491087487852,2,-5,-3,-3,-1,-11,-11,-13,-3
1491087487852,3,-21,0,0,-2,-13,-6,-16,3
1491087487852,3,-3,-3,-6,1,5,10,7,0
1491087487886,0,12,4,20,2,0,-27,-55,-11
1491087487886,0,4,-17,-19,-6,12,57,34,19
1491087487887,1,-28,2,11,7,6,-3,39,-9
1491087487887,1,-13,-10,-2,-11,10,-1,31,-39
1491087487888,2,16,9,-6,-3,-17,-77,-83,-13
1491087487888,2,-5,-13,-13,-2,-29,20,41,36
1491087487923,3,10,0,-5,-12,-13,2,21,-10
1491087487923,3,18,0,-4,3,-6,-3,17,12
1491087487924,0,6,5,9,0,35,46,-2,-12
1491087487924,0,-16,2,5,7,8,-17,-47,-11
1491087487925,1,11,13,7,8,4,-3,-24,16
1491087487925,1,-14,-9,-7,-14,-20,-34,-69,-12
1491087487926,2,8,1,-3,-1,5,48,77,17
1491087487926,2,8,0,9,0,10,-13,67,-22
1491087487961,3,17,1,-8,2,11,5,24,-15
1491087487961,3,0,-3,1,-1,-18,12,-71,18
1491087487962,0,-16,-4,0,-6,8,-38,47,-7
1491087487962,0,-8,-5,-3,3,-3,-1,-20,-38
1491087487998,1,5,-4,-6,-21,-27,-13,31,37
1491087487998,1,-20,-13,-21,-7,-13,-6,-44,-10
1491087487999,2,4,-9,-9,-1,-26,3,-7,12
1491087487999,2,9,0,-6,-3,-10,-12,-34,-11
1491087488000,3,-3,14,18,18,33,40,20,-7
1491087488000,3,27,16,24,9,20,4,-1,30
1491087488001,0,-5,-12,1,2,44,127,37,-28
1491087488001,0,2,14,7,9,35,-106,-103,33
1491087488036,1,-3,-20,-23,-17,-86,81,-46,-40
1491087488036,1,-1,-2,-16,-20,-29,17,127,-12
1491087488037,2,-9,-11,-12,9,-15,66,12,-12
1491087488037,2,-6,4,6,-4,1,-11,-27,46
1491087488038,3,-14,-2,-6,2,26,-46,-57,0
1491087488038,3,29,11,14,4,17,-7,-3,10
1491087488038,0,23,7,6,-3,1,-6,-3,-19
1491087488038,0,-19,-11,2,12,18,-2,-27,7
1491087488073,1,4,6,-3,4,12,52,12,-4
1491087488073,1,2,6,-7,-7,-23,-77,-25,-5
1491087488074,2,-27,-3,5,0,-12,11,-12,17
1491087488074,2,23,0,9,6,31,83,30,-41
1491087488075,3,8,-6,1,1,18,50,-24,-12
1491087488075,3,-25,0,-3,7,-34,-62,19,25
1491087488076,0,11,-4,-17,-13,-50,-12,-6,60
1491087488076,0,-25,-2,-9,-7,10,7,-35,-40
1491087488111,1,27,14,31,15,94,104,118,-44
1491087488111,1,8,8,4,8,-4,5,-120,21
1491087488112,2,-28,-3,7,-25,5,-85,50,-21
1491087488112,2,8,-7,-23,-34,-70,-52,80,-38
1491087488112,3,-2,-5,-17,-10,-18,-66,-35,-12
1491087488112,3,-25,-6,6,4,61,27,43,-17
1491087488113,0,16,13,14,26,22,19,-69,22
1491087488113,0,3,10,3,1,-57,-56,-68,7
1491087488148,1,5,-14,-17,-3,-34,8,-4,52
1491087488148,1,38,14,8,8,38,13,-54,-6
1491087488149,2,-13,9,19,13,56,40,18,-29
1491087488149,2,30,0,-4,-11,-15,76,73,-1
1491087488150,3,-12,-1,-19,-12,-65,-128,-121,36
1491087488150,3,-25,-32,-26,-26,-2,48,109,-66
1491087488151,0,11,-4,0,4,31,49,-24,-24
1491087488151,0,1,26,37,28,92,62,-18,27
1491087488186,1,-4,-2,13,11,-1,-53,-17,30
1491087488186,1,15,-1,-10,0,-37,-6,13,39
1491087488187,2,-11,-12,-25,-5,-104,-128,-51,-4
1491087488187,2,-29,-19,-4,0,-8,42,-18,23
1491087488187,3,13,10,1,15,11,106,50,-62
1491087488187,3,-4,17,2,-3,6,-103,-122,44
1491087488188,0,-6,-34,-29,-31,-49,48,63,11
1491087488188,0,50,-16,-17,-13,-11,36,90,-23
1491087488224,1,-40,14,28,11,82,26,-85,21
1491087488224,1,-15,35,50,26,-13,-43,123,-5
1491087488224,2,13,-20,-26,-8,-31,41,-7,-70
1491087488224,2,-2,-9,-14,-17,-24,-83,39,-36
1491087488225,3,-16,-30,-26,-4,39,-10,48,-3
1491087488225,3,35,30,27,17,19,80,-100,-13
1491087488226,0,-26,4,41,30,105,0,-89,35
1491087488226,0,38,6,-16,-22,-67,-84,-74,45
1491087488261,1,-26,-14,-26,-39,-125,22,63,-41
1491087488261,1,-22,-22,-7,-6,-1,43,1,-3
1491087488262,2,15,32,49,33,110,85,-8,-11
1491087488262,2,-4,14,11,14,-33,-63,18,-16
1491087488263,3,-17,-12,-26,-13,-65,-11,-97,41
1491087488263,3,-12,-44,-57,-32,-66,-105,74,20
1491087488264,0,45,18,38,9,64,90,43,-11
1491087488264,0,-97,-9,-2,-5,-38,-84,-21,-4
1491087488299,1,55,-4,-26,-36,-103,-109,-77,-69
1491087488299,1,4,14,-29,-12,-62,60,46,57
1491087488301,2,27,-9,49,-24,59,36,85,-89
1491087488301,2,39,38,45,16,127,76,-124,25
1491087488302,3,-53,-40,-44,3,-63,-90,108,8
1491087488302,3,-60,-60,-58,-33,-61,12,-68,-4
1491087488336,0,2,-1,-46,-9,14,-98,-87,56
1491087488336,0,20,26,38,42,71,127,1,-78
1491087488338,1,22,11,51,-14,48,-46,-57,55
1491087488338,1,0,19,72,48,79,30,-6,-52
1491087488339,2,-42,-44,-94,-87,-128,-60,69,7
1491087488339,2,-39,-49,-69,-9,-65,79,-5,-30
1491087488339,3,44,28,33,65,93,-49,-69,40
1491087488339,3,24,28,77,14,127,105,65,69
1491087488373,0,-70,8,30,11,-11,82,11,-60
1491087488373,0,5,-53,-88,-42,-117,-122,75,-1
1491087488374,1,-77,-47,-27,-10,9,74,-8,-3
1491087488374,1,23,-27,-10,17,49,-54,-47,9
1491087488375,2,7,19,64,60,79,83,30,21
1491087488375,2,48,57,39,-35,-61,-67,27,8
1491087488376,3,8,12,-9,-30,-78,-40,88,-7
1491087488376,3,-21,-17,-41,-7,14,0,-70,0
1491087488411,0,36,6,-34,-10,-67,30,-46,81
1491087488411,0,-8,3,-3,18,2,-99,26,22
1491087488412,1,11,21,37,6,82,127,11,-46
1491087488412,1,31,13,-8,14,12,51,39,-9
1491087488416,2,-15,31,20,10,35,-70,11,-21
1491087488416,2,-1,14,25,38,-10,-9,-39,27
1491087488417,3,10,22,6,3,0,-15,-58,-19
1491087488417,3,-56,-7,-36,-10,-91,-35,-56,21
1491087488448,0,-25,-4,-42,-50,12,-128,-80,-43
1491087488448,0,6,4,29,25,89,104,108,-19
1491087488449,1,93,54,54,-9,-84,97,127,-90
1491087488449,1,-63,-40,-82,-12,-72,-91,-107,4
1491087488450,2,3,1,-27,-19,17,66,-105,56
1491087488450,2,-32,-17,13,30,75,105,-58,-17
1491087488486,3,33,-7,-11,-18,-13,9,78,-23
1491087488486,3,44,26,34,15,9,47,-2,-57
1491087488487,0,13,28,46,25,-16,17,127,61
1491087488487,0,-25,-26,-45,-47,-53,-46,26,57
1491087488488,1,-7,-8,-3,-10,6,127,-97,6
1491087488488,1,-41,16,56,23,45,99,127,-93
1491087488488,2,74,-9,-9,30,33,-11,-49,25
1491087488488,2,65,84,74,5,-52,-33,8,35
1491087488523,3,-92,-73,-89,21,2,7,-100,112
1491087488523,3,75,-11,-26,-15,80,101,19,14
1491087488525,0,35,3,-12,-23,24,127,63,-111
1491087488525,0,12,-7,31,-18,106,-62,0,-28
1491087488525,1,-12,-1,-14,-7,-92,-61,51,3
1491087488525,1,77,51,74,43,51,72,-123,8
1491087488526,2,-51,-24,6,24,-26,-98,62,103
1491087488526,2,-10,-36,-48,-19,48,127,46,-85
1491087488561,3,70,1,3,-8,-28,30,29,34
1491087488561,3,-80,-22,-56,21,-22,-59,-38,47
1491087488562,0,40,1,-35,-75,-128,52,37,-64
1491087488562,0,-78,-32,-34,80,6,13,-84,100
1491087488562,1,-41,-7,7,32,127,45,14,33
1491087488562,1,59,18,18,-14,-126,3,-56,15
1491087488563,2,-82,-7,24,-21,75,16,50,-73
1491087488563,2,57,-22,-36,-45,-112,18,-19,37
1491087488598,3,34,21,18,32,-4,127,70,-52
1491087488598,3,60,46,26,-27,40,-128,-31,14
1491087488599,0,-74,-81,-87,63,73,37,-87,105
1491087488599,0,16,1,42,8,57,127,15,11
1491087488600,1,-13,23,31,26,14,31,-125,3
1491087488600,1,-37,-5,10,-18,102,-34,127,-30
1491087488636,2,69,13,-7,-51,-128,69,49,-68
1491087488636,2,-112,-61,-89,-34,-97,-118,-97,12
1491087488637,3,31,38,39,-38,99,69,51,-85
1491087488637,3,3,-2,43,-56,-15,117,120,-128
1491087488637,0,2,-2,-23,109,-82,-1,-128,79
1491087488637,0,-5,-4,-3,20,31,-114,-84,108
1491087488638,1,31,9,31,-21,-51,41,31,-75
1491087488638,1,-127,-51,-80,-90,-99,-21,-44,15
1491087488674,2,-28,-21,-32,-48,104,-55,-73,-13
1491087488674,2,-27,61,84,46,77,127,7,-102
1491087488675,3,-56,-59,-61,-10,-20,-128,-30,29
1491087488675,3,28,55,57,50,113,124,70,39
1491087488676,0,0,2,1,-52,-72,-48,-105,14
1491087488676,0,-50,-7,26,18,36,-29,-41,25
1491087488677,1,-10,-13,14,-14,-11,-37,115,-31
1491087488677,1,71,3,26,43,15,71,-90,-46
1491087488711,2,-6,-5,7,58,-72,-93,-23,85
1491087488711,2,-79,-39,-59,-74,93,127,98,-128
1491087488712,3,21,37,28,27,19,43,72,79
1491087488712,3,-7,-36,-51,-38,59,-30,-53,23
1491087488712,0,6,25,54,60,-39,-47,-128,38
1491087488712,0,55,22,21,18,42,45,116,9
1491087488713,1,38,-2,-44,-20,-109,-124,9,-38
1491087488713,1,-78,-39,-47,7,-85,77,-89,-6
1491087488749,2,32,46,92,14,127,44,127,-13
1491087488749,2,36,41,7,-42,-96,-124,-99,11
1491087488749,3,15,-9,-60,-19,-42,-2,57,-23
1491087488749,3,59,-21,-44,-16,-128,-41,-77,-2
1491087488750,0,-10,-8,13,13,67,44,127,24
1491087488750,0,-65,-40,-6,-16,-23,16,109,-7
1491087488786,1,51,30,46,1,127,75,-95,-106
1491087488786,1,-6,4,-30,-33,-128,-128,-28,41
1491087488788,2,-10,-44,-93,-22,-9,22,-23,-37
1491087488788,2,17,18,33,1,-13,-8,-117,4
1491087488789,3,-47,-13,20,8,127,-76,-43,107
1491087488789,3,-22,-16,-1,22,24,82,119,-95
1491087488790,0,12,8,21,-11,71,-47,-91,-35
1491087488790,0,2,-7,-21,-7,-46,-1,-3,19
1491087488823,1,15,34,53,30,56,75,-44,-54
1491087488823,1,-14,-18,-66,-93,-85,-105,11,66
1491087488824,2,-4,8,12,4,74,127,-19,-10
1491087488824,2,-17,-9,-14,-20,-21,-43,16,14
1491087488825,3,4,9,42,12,54,69,6,-9
1491087488825,3,11,28,48,56,103,127,43,-17
1491087488826,0,12,13,22,-9,-48,-27,-87,-47
1491087488826,0,2,-10,-32,-14,-90,8,12,19
1491087488899,1,-60,-23,-83,-44,46,-32,21,55
1491087488899,1,-33,-19,0,-7,30,37,8,-53
1491087488900,2,-14,3,-38,-34,-113,-64,-4,-7
1491087488900,2,52,16,61,54,16,89,62,-62
1491087488900,3,-10,-20,-60,-29,-66,-86,-32,94
1491087488900,3,7,21,77,81,69,73,-17,-54
1491087488901,0,5,-23,-85,-78,-120,-126,-30,52
1491087488901,0,13,-1,-27,-5,29,92,-30,-39
1491087488936,1,-60,-11,20,20,-50,-80,-97,0
1491087488936,1,17,-11,16,27,97,-19,-22,50
1491087488937,2,0,1,37,21,-31,94,74,-47
1491087488937,2,26,15,52,26,58,91,74,-30
1491087488937,3,-45,-43,-95,-35,-121,-79,-103,42
1491087488937,3,-16,2,42,-25,-45,36,111,-68
1491087488938,0,-3,-27,-59,-13,-56,-54,0,10
1491087488938,0,-1,-11,-22,4,12,-21,-54,3
1491087488974,1,-14,2,20,24,11,103,-6,4
1491087488974,1,26,7,57,60,88,5,-8,46
1491087488975,2,-23,18,37,-11,28,-43,21,-28
1491087488975,2,12,-1,-14,-32,5,-60,31,24
1491087488975,0,-6,-20,3,23,59,28,74,-53
1491087488975,0,-30,-13,-32,12,-4,-46,-71,48
1491087488976,1,26,24,59,-8,13,90,-28,-43
1491087488976,1,-39,-15,-5,2,52,-75,-48,-3
1491087489011,2,43,24,3,-40,-85,23,84,-8
1491087489011,2,-42,-28,-50,2,-3,90,-71,-14
1491087489012,3,13,5,58,36,104,60,27,7
1491087489012,3,-11,-10,-47,-39,-107,-105,-49,51
1491087489013,0,-19,-29,-17,0,14,20,26,-53
1491087489013,0,20,-18,-17,-12,36,33,31,-57
1491087489014,1,-12,-1,-18,-26,34,9,-6,17
1491087489014,1,24,0,28,23,66,23,-39,14
1491087489049,2,45,9,53,14,-3,-33,-27,-9
1491087489049,2,7,-1,-72,-38,-56,-128,-54,81
1491087489050,3,-12,-2,1,18,12,44,39,-34
1491087489050,3,4,15,-32,-44,1,-2,5,24
1491087489050,0,-28,0,37,26,106,109,62,-14
1491087489050,0,9,18,38,20,127,-45,-36,40
1491087489051,1,29,19,32,-1,127,33,53,-26
1491087489051,1,16,6,-23,-11,57,15,-23,8
1491087489086,2,-22,-7,-36,21,127,21,-34,31
1491087489086,2,0,-5,25,-21,7,-71,-48,-10
1491087489087,3,6,-16,-53,-13,-6,-58,-33,-3
1491087489087,3,-1,-10,-30,-5,1,52,49,-39
1491087489088,0,-9,4,13,11,-12,123,-29,-31
1491087489088,0,16,22,26,2,-57,-44,-56,43
1491087489088,1,28,10,14,3,-117,28,70,-11
1491087489088,1,-49,-19,-4,13,-103,18,-76,-75
1491087489123,2,10,10,-6,1,-87,96,82,76
1491087489123,2,-9,6,3,2,-77,-10,33,-31
1491087489124,3,4,2,-8,19,-54,43,-68,-4
1491087489124,3,6,8,31,-10,-59,-3,-21,0
1491087489125,0,-27,-10,-6,3,-43,1,-76,15
1491087489125,0,5,-5,-36,11,-44,127,26,35
1491087489126,1,-21,-1,52,18,-4,-50,-13,12
1491087489126,1,14,7,-13,1,-28,21,91,17
1491087489161,2,-11,-38,-51,-33,-33,-62,-61,-36
1491087489161,2,0,-24,-44,-27,4,-9,27,-19
1491087489162,3,-5,21,4,-23,3,-60,-55,24
1491087489162,3,-1,25,50,1,-19,-19,5,-14
1491087489162,0,5,21,46,5,-6,49,82,2
1491087489162,0,-1,2,-35,2,-90,-59,-61,-18
1491087489163,1,-14,-20,1,14,-76,87,52,1
1491087489163,1,7,3,-29,-8,-127,-128,-54,103
1491087489199,2,-14,13,28,8,17,55,61,-100
1491087489199,2,12,19,-38,-39,-81,-9,13,37
1491087489200,3,10,-19,-7,1,-111,-32,57,27
1491087489200,3,12,-10,-37,14,-40,61,-47,3
1491087489200,0,4,-8,4,1,-39,-128,-128,-10
1491087489200,0,8,5,48,41,102,63,98,9
1491087489201,1,-4,-7,13,-21,-13,-78,-40,-91
1491087489201,1,-25,-44,-75,-41,-10,41,33,-36
1491087489236,2,44,34,-9,14,-31,-50,-15,24
1491087489236,2,-3,-2,68,3,-25,-16,-83,-23
1491087489237,3,22,-7,-22,-3,89,122,-38,28
1491087489237,3,-19,-1,40,15,31,-45,-25,-26
1491087489237,0,-12,6,-6,-18,-8,20,7,3
1491087489237,0,-1,23,48,8,18,-93,-1,-14
1491087489239,1,1,12,8,33,75,4,87,-8
1491087489239,1,-1,-19,-53,4,-48,68,41,18
1491087489273,2,-12,-1,-6,4,-39,-118,12,44
1491087489273,2,-8,-7,28,7,-14,4,-55,-40
1491087489274,3,-4,-20,-25,-1,35,36,-13,-17
1491087489274,3,-15,12,29,6,76,65,69,8
1491087489275,0,7,-13,-60,-17,-49,-75,-5,19
1491087489275,0,-25,-9,39,2,14,43,33,-56
1491087489276,1,-13,11,35,17,44,86,84,13
1491087489276,1,15,8,13,-14,-18,-60,33,-11
1491087489311,2,-19,-19,-20,4,60,112,-34,14
1491087489311,2,8,55,38,-10,27,-52,0,-15
1491087489312,3,-7,4,-16,-10,-37,46,98,22
1491087489312,3,-3,8,32,22,107,91,77,12
1491087489313,0,-24,-24,1,-16,-18,-70,-63,-56
1491087489313,0,-5,-15,-5,13,91,127,95,22
1491087489349,1,19,-6,27,-22,-46,-128,-36,-14
1491087489349,1,-4,-9,54,29,100,68,44,6
1491087489350,2,7,-6,6,-40,-82,-25,42,63
1491087489350,2,-58,-53,-60,-35,-72,-44,-82,-29
1491087489350,3,18,-45,-13,-10,41,55,-9,-29
1491087489350,3,6,-3,15,-26,-19,17,-32,-19
1491087489351,0,22,12,6,20,64,72,42,30
1491087489351,0,-19,-15,2,3,90,127,41,-4
1491087489386,1,3,25,-7,-3,-60,-4,-107,-3
1491087489386,1,13,11,-19,1,-9,41,-8,-7
1491087489387,2,16,27,64,59,105,-27,57,-4
1491087489387,2,65,43,4,-30,-24,45,-33,-33
1491087489387,3,-75,-72,-113,-44,-51,-105,-41,-31
1491087489387,3,-21,1,-10,-8,26,-66,-1,82
1491087489388,0,1,-38,-22,1,-9,47,-52,-27
1491087489388,0,-3,-29,80,56,127,107,38,-1
1491087489423,1,19,19,-31,-22,-60,-28,-25,24
1491087489423,1,16,-25,18,-6,-59,-8,-18,-22
1491087489502,2,-38,-10,-23,10,31,107,24,25
1491087489502,2,-22,-20,2,7,0,-102,-15,-12
1491087489502,3,17,31,48,36,127,127,76,38
1491087489502,3,-7,-20,-39,-14,-119,-128,-110,-18
1491087489503,0,19,6,52,11,41,120,20,-20
1491087489503,0,6,-35,-124,-61,-119,2,-6,49
1491087489503,1,-25,21,44,22,33,0,4,-12
1491087489503,1,48,21,65,41,58,113,43,29
1491087489504,2,-57,-38,-70,-62,-118,-128,-78,51
1491087489504,2,15,8,-8,13,18,80,29,-40
1491087489504,3,23,29,-4,-35,-19,2,76,54
1491087489504,3,12,27,54,24,112,10,-12,-13
1491087489505,0,45,48,21,7,15,94,69,-28
1491087489505,0,-19,-25,-68,-8,-61,-77,3,12
1491087489505,1,1,17,-25,-8,59,-24,-27,49
1491087489505,1,67,24,-48,-9,-66,-11,-32,-26
1491087489536,2,-43,-1,14,-10,70,42,3,-48
1491087489536,2,7,32,-4,-8,-63,-66,-62,9
1491087489537,3,61,28,74,36,52,-47,32,29
1491087489537,3,-106,-11,-30,6,60,-30,-50,1
1491087489537,0,-2,17,-15,-37,-32,44,-56,-34
1491087489537,0,10,-29,31,36,-5,-73,14,-56
1491087489538,1,-5,19,-57,2,-128,14,-95,91
1491087489538,1,18,0,27,40,72,5,-47,-17
1491087489573,2,57,2,-22,-29,-115,4,-4,-5
1491087489573,2,-13,14,31,33,-10,-30,45,30
1491087489574,3,-33,-42,-77,-66,-68,32,-67,-73
1491087489574,3,-55,-21,1,-3,-26,37,-37,0
1491087489575,0,0,12,21,32,112,-40,-39,-11
1491087489575,0,12,-11,-12,-10,-61,-52,53,4
1491087489576,1,-47,-19,47,58,77,72,-21,-23
1491087489576,1,-28,-39,-75,-58,-64,-29,-29,-37
1491087489611,2,49,4,9,29,40,58,-40,5
1491087489611,2,3,-16,-17,-40,-48,86,32,-15
1491087489612,3,28,21,41,51,27,-60,7,-36
1491087489612,3,42,21,24,-43,37,110,127,-40
1491087489612,0,-57,-19,-60,-3,-24,-98,-43,66
1491087489612,0,20,25,14,18,-43,-80,-84,48
1491087489614,1,10,-17,4,3,17,18,-1,-23
1491087489614,1,43,0,-35,-61,-127,-128,7,-14
1491087489649,2,6,15,4,39,99,-13,17,8
1491087489649,2,-15,6,30,11,105,127,78,-58
1491087489650,3,23,-5,-29,-47,-46,-117,66,-22
1491087489650,3,-61,-6,8,-5,-112,94,66,-37
1491087489650,0,31,4,-56,-73,-105,-128,-71,59
1491087489650,0,-29,1,-36,17,100,127,-19,42
1491087489651,1,-28,-2,73,23,62,127,11,-49
1491087489651,1,-28,13,69,59,115,-59,34,-19
1491087489686,2,-17,-21,-33,-58,-118,-34,-45,-7
1491087489686,2,13,45,49,31,92,52,-23,15
1491087489687,3,-22,-17,-35,-22,-125,-59,-40,55
1491087489687,3,-44,-15,-20,-38,-118,-12,-1,-4
1491087489687,0,-15,-9,7,39,-88,-57,19,-1
1491087489687,0,-18,-18,-19,-10,17,57,15,1
1491087489688,1,-31,21,61,23,102,-97,16,7
1491087489688,1,36,4,14,61,103,112,-68,62
1491087489723,2,-32,-26,-10,-17,-47,110,113,-10
1491087489723,2,79,12,6,-21,-40,101,6,-74
1491087489724,3,-32,-10,-47,-15,-14,-59,-89,48
1491087489724,3,16,10,-11,-12,64,-66,-71,-10
1491087489725,0,6,-31,15,2,-3,15,45,-5
1491087489725,0,57,33,9,65,18,4,57,63
1491087489726,1,-15,24,10,-74,-30,-24,37,-63
1491087489726,1,13,0,36,58,119,62,97,-37
1491087489761,2,20,22,24,-28,-97,-54,-84,18
1491087489761,2,-128,-69,-84,5,13,15,-91,41
1491087489762,3,88,17,67,14,76,116,100,-61
1491087489762,3,38,20,-38,15,-128,-43,-63,116
1491087489762,0,-31,-20,-22,29,98,127,-26,-55
1491087489762,0,4,15,14,-49,-71,-128,18,-33
1491087489763,1,-72,-37,-14,33,65,7,-54,56
1491087489763,1,37,-3,23,-17,53,46,25,-91
1491087489798,2,53,11,11,9,-9,114,76,-30
1491087489798,2,-52,-4,1,-49,-56,-98,-95,6
1491087489800,3,26,-20,-38,-31,-61,7,-5,-23
1491087489800,3,-28,-7,33,-17,-32,71,67,2
1491087489800,0,-15,-51,-47,-5,-16,42,-47,-26
1491087489800,0,65,58,28,29,-72,-38,-29,51
1491087489801,1,-27,-47,-39,-37,-10,81,43,-19
1491087489801,1,23,-40,-70,42,-23,-61,-24,54
1491087489873,2,37,59,80,-41,57,-13,-11,-18
1491087489873,2,-51,-49,-42,-28,-92,25,35,-33
1491087489874,3,22,12,-14,51,-5,58,10,24
1491087489874,3,6,29,-6,-54,3,60,-39,-41
1491087489875,0,9,38,58,54,96,28,31,33
1491087489875,0,45,28,70,-31,-43,-46,-3,11
1491087489876,1,-65,-39,-52,21,-92,36,-58,-6
1491087489876,1,-9,10,-14,-36,77,-42,-17,-62
1491087489911,2,-114,-22,-17,44,-105,-70,80,57
1491087489911,2,84,-18,-22,40,55,18,4,-20
1491087489913,3,40,42,54,-70,35,35,20,-50
1491087489913,3,-3,-41,-44,-16,-5,-118,-124,66
1491087489914,0,39,37,4,32,3,77,96,0
1491087489914,0,-51,-9,56,-41,13,42,81,20
1491087489915,2,-79,-43,-21,-10,11,29,43,24
1491087489915,2,29,12,6,-2,19,-61,-100,-65
1491087489949,3,32,13,38,-9,-3,51,86,-8
1491087489949,3,-27,25,35,51,26,-52,24,91
1491087489950,0,52,18,46,-40,54,80,57,-80
1491087489950,0,-94,-3,-26,22,-13,33,-19,76
1491087489950,1,74,-4,-55,-25,-27,-1,75,1
1491087489950,1,49,-4,20,-7,20,111,93,-47
1491087489951,2,-56,-12,18,25,107,23,69,31
1491087489951,2,24,15,-43,-7,48,19,-10,5
1491087490023,3,-37,32,41,8,-66,-35,-65,41
1491087490023,3,-76,-31,-14,-15,-103,97,-24,-7
1491087490025,0,39,9,9,36,-7,-60,-13,-44
1491087490025,0,-82,-38,-71,-34,-70,-27,-62,-11
1491087490025,1,51,8,62,33,127,55,53,-6
1491087490025,1,28,-15,-42,-7,-26,-106,52,-2
1491087490026,2,-22,-10,40,36,-33,-20,-90,21
1491087490026,2,-15,22,26,-27,-80,18,16,18
1491087490061,3,80,-29,-104,-55,-97,-127,60,-43
1491087490061,3,-66,4,34,6,1,108,0,28
1491087490062,0,-1,-3,-2,1,73,78,-83,-4
1491087490062,0,48,7,27,29,94,-37,21,-5
1491087490063,1,-101,1,54,49,71,34,7,-8
1491087490063,1,27,-21,-40,-65,-82,0,-23,-25
1491087490064,1,-43,-46,-90,-22,-89,8,16,-68
1491087490064,1,-18,-9,46,20,5,5,-45,-17
1491087490098,2,-25,15,6,-23,28,29,9,4
1491087490098,2,19,1,-15,18,36,127,28,-19
1491087490099,3,-50,41,92,28,49,-109,-128,41
1491087490099,3,3,-1,-46,-30,-69,-118,11,55
1491087490100,0,-2,-29,-6,-25,-33,60,-14,-51
1491087490100,0,47,11,-17,34,27,-70,-60,39
1491087490101,1,20,9,-8,-12,-7,17,63,47
1491087490101,1,4,-9,8,-14,-53,-6,35,-41
1491087490136,2,21,-3,-17,31,-26,-92,-109,82
1491087490136,2,-73,-15,51,45,64,105,66,-91
1491087490137,3,24,-17,-67,-52,69,31,-13,-17
1491087490137,3,-13,40,23,13,-80,-64,-75,43
1491087490137,0,64,-32,-62,-76,-39,-54,9,-10
1491087490137,0,30,-8,-32,-21,-18,76,20,-14
1491087490138,1,6,23,60,45,58,-57,-38,34
1491087490138,1,25,-1,-34,47,-15,15,-99,31
1491087490173,2,-39,-3,36,-46,-18,5,91,-31
1491087490173,2,-52,-37,-55,-36,-26,21,33,-75
1491087490174,3,-16,36,81,38,53,29,-32,39
1491087490174,3,34,-11,12,1,5,12,58,-52
1491087490175,0,20,3,-34,-3,-24,-12,12,49
1491087490175,0,41,21,14,-3,-22,6,-47,-54
1491087490176,1,-2,-17,-44,-22,-36,-37,-96,26
1491087490176,1,-128,-5,7,2,14,13,-20,-16
1491087490211,2,34,30,36,4,10,59,5,2
1491087490211,2,-54,-38,-47,-24,1,-15,48,5
1491087490212,3,-49,1,32,21,21,74,29,-87
1491087490212,3,13,-20,-29,-25,-43,-11,-93,13
1491087490212,0,-41,-17,-39,-11,-101,-62,123,-11
1491087490212,0,-10,-17,-30,31,49,-10,-11,37
1491087490213,1,4,-25,-14,-7,14,-12,19,-3
1491087490213,1,-6,76,95,42,78,66,-23,16
1491087490249,2,37,3,21,-20,-9,-6,-85,-37
1491087490249,2,32,5,-4,13,47,15,92,31
1491087490250,3,-18,-10,0,-63,-12,33,1,-54
1491087490250,3,34,-2,-32,11,0,26,45,33
1491087490250,0,-40,0,-15,-22,-47,-60,-47,-48
1491087490250,0,-24,-17,-3,-5,11,17,90,16
1491087490251,1,-22,1,25,15,6,-1,-38,-24
1491087490251,1,46,5,-11,59,93,38,-39,22
1491087490286,2,17,29,64,45,102,26,97,110
1491087490286,2,-29,-11,-37,-70,-124,-22,-86,-114
1491087490288,3,-23,-11,-28,26,3,-9,37,43
1491087490288,3,28,-25,-39,-50,-79,-19,108,-61
1491087490289,0,24,49,86,63,125,55,-82,12
1491087490289,0,-19,45,73,-6,18,-12,-27,42
1491087490290,1,63,-16,-58,31,-105,41,-29,35
1491087490290,1,35,21,-14,-10,8,-112,-54,-1
1491087490324,2,-107,-37,-5,-26,-14,127,84,-113
1491087490324,2,26,-2,17,7,10,-104,34,65
1491087490325,3,53,54,70,46,102,127,-54,-27
1491087490325,3,-31,-58,-78,-67,-62,-67,85,62
1491087490326,0,-32,-3,-30,-20,-75,1,-4,-2
1491087490326,0,-30,-13,-24,-39,-21,21,97,-87
1491087490328,1,59,24,50,13,38,59,90,-28
1491087490328,1,20,35,33,70,127,87,-54,64
1491087490361,2,-14,4,30,-10,-81,-55,-21,-31
1491087490361,2,18,-38,-63,-16,-119,-34,-104,41
1491087490362,3,-4,7,-21,-3,-45,20,46,-14
1491087490362,3,-11,-11,-13,-52,-17,-101,-9,-56
1491087490362,0,59,15,39,31,35,32,21,-43
1491087490362,0,7,2,-7,-59,21,-30,-1,-34
1491087490363,1,48,-6,12,22,55,27,-105,23
1491087490363,1,10,-14,-39,-45,-115,-81,-23,-11
1491087490398,2,-115,-27,-79,6,10,-32,-79,-3
1491087490398,2,48,22,99,24,39,96,9,5
1491087490399,3,-67,-1,21,11,72,68,14,-33
1491087490399,3,43,31,77,36,127,32,93,-22
1491087490400,0,65,-17,-67,-56,-75,-102,-81,101
1491087490400,0,-40,5,-3,-12,16,78,89,-40
1491087490401,1,-4,-29,-74,-3,6,-128,-62,113
1491087490401,1,-79,-23,26,16,69,127,16,-119
1491087490436,2,-1,-4,0,35,-37,93,-93,-15
1491087490436,2,-8,9,73,51,12,-126,-24,55
1491087490437,3,-51,-28,-66,-116,-128,-2,97,-101
1491087490437,3,-81,-35,-49,-6,-20,36,-45,3
1491087490438,0,50,7,4,-39,68,47,-31,34
1491087490438,0,26,13,-18,70,98,-21,-61,82
1491087490439,1,-35,-17,41,12,26,101,98,-81
1491087490439,1,23,12,-9,37,29,-67,30,-19
1491087490473,2,-71,-41,21,-39,-49,-101,46,-5
1491087490473,2,2,-5,-59,17,-100,43,-70,33
1491087490474,3,0,10,50,-10,73,-84,21,13
1491087490474,3,-11,-13,-14,21,-45,83,-58,32
1491087490475,0,36,57,79,63,80,95,74,-54
1491087490475,0,51,5,-25,-28,-4,-40,-31,24
1491087490511,1,-77,-53,-89,-48,-88,-73,-10,31
1491087490511,1,-19,-16,-18,-31,-92,57,39,-37
1491087490512,2,89,37,45,24,116,76,14,0
1491087490512,2,4,-2,37,45,-35,70,61,0
1491087490512,3,11,5,-11,-20,-102,-72,-45,8
1491087490512,3,58,-1,-51,-31,-62,-31,-38,45
1491087490513,0,-64,-42,-14,14,58,84,-49,-43
1491087490513,0,3,38,24,-30,79,-62,-2,50
1491087490549,1,7,21,71,60,104,127,92,-5
1491087490549,1,19,2,77,35,54,79,93,-78
1491087490550,2,-14,-53,-128,-86,-128,-128,-18,65
1491087490550,2,1,1,-6,-7,7,52,-25,-30
1491087490551,3,-63,-5,-9,-4,28,9,-94,13
1491087490551,3,65,29,70,44,112,29,37,36
1491087490552,0,-27,13,5,-12,-34,0,-18,-20
1491087490552,0,-50,-24,-13,-1,-70,-64,0,37
1491087490586,1,36,22,-13,-19,-83,45,-5,-25
1491087490586,1,59,-10,-98,-22,-38,-84,-4,71
1491087490587,2,-62,-18,16,23,62,87,77,10
1491087490587,2,73,8,3,59,73,95,37,-43
1491087490587,3,-43,-8,33,-108,-102,55,-23,-3
1491087490587,3,-15,-33,-57,36,-67,-37,-128,19
1491087490588,0,13,4,-7,19,-74,-1,-22,77
1491087490588,0,-52,3,-22,-4,59,55,15,-8
1491087490623,1,71,27,100,70,127,127,7,-22
1491087490623,1,-31,25,39,-48,70,46,28,-3
1491087490624,2,-13,-21,-47,-9,-45,-128,-16,-14
1491087490624,2,-58,-21,-18,-6,-26,119,-57,-64
1491087490625,3,56,16,-17,34,25,-68,16,15
1491087490625,3,-14,16,71,-32,-61,-31,9,15
1491087490661,0,-57,-29,8,-59,59,116,45,-108
1491087490661,0,54,23,-71,-22,-82,-101,-113,91
1491087490662,1,-39,3,-12,25,44,77,109,-48
1491087490662,1,-6,3,37,-22,-86,52,47,-3
1491087490662,2,-28,-44,-73,-5,-64,-49,-63,56
1491087490662,2,-12,25,90,32,54,9,-72,-9
1491087490663,3,51,18,-41,-17,44,-46,17,39
1491087490663,3,-1,33,42,32,105,38,55,-53
1491087490698,0,20,0,26,15,4,21,32,-8
1491087490698,0,-10,-16,4,39,11,72,-22,13
1491087490699,1,11,-14,-45,-65,-50,-105,36,22
1491087490699,1,-16,-21,-13,37,9,127,-78,38
1491087490700,2,28,26,4,-53,68,-109,-52,-43
1491087490700,2,-36,-13,18,46,-54,73,51,10
1491087490701,3,-6,46,119,69,127,25,4,-19
1491087490701,3,69,-26,-108,-105,-79,-20,88,-94
1491087490736,0,-93,-73,-89,76,11,-59,-98,94
1491087490736,0,60,81,108,-34,-83,47,-38,-56
1491087490737,1,-10,-47,-52,-21,-66,-28,54,34
1491087490737,1,-32,8,28,6,-106,29,-81,-21
1491087490737,2,3,-6,-22,51,52,111,7,64
1491087490737,2,38,5,28,-38,127,-62,5,-11
1491087490738,3,-15,-8,6,63,25,93,-82,11
1491087490738,3,-23,-12,-26,-39,-54,-58,-43,-2
1491087490773,0,53,27,29,-53,-61,127,98,-121
1491087490773,0,-47,-11,-1,90,92,-65,23,67
1491087490775,1,74,8,-14,-79,-128,-70,-95,18
1491087490775,1,-128,-69,-74,-28,127,-17,-55,-6
1491087490775,2,107,76,90,52,90,127,78,-26
1491087490775,2,-11,-48,-77,-42,-50,-101,90,17
1491087490848,3,-27,-3,12,13,-3,-26,-104,50
1491087490848,3,19,-14,-20,-10,-11,81,76,-40
1491087490850,0,-7,28,32,68,77,55,-38,2
1491087490850,0,37,11,10,-80,-33,-61,18,-49
1491087490850,1,-44,-20,31,55,-74,106,73,-30
1491087490850,1,28,-19,-64,-11,-116,-40,-125,43
1491087490851,2,-3,13,0,-22,63,-52,-54,49
1491087490851,2,10,-18,-59,39,-72,3,-29,53
1491087490886,3,-17,-8,27,-18,83,3,71,-39
1491087490886,3,8,20,40,5,-68,60,73,-37
1491087490887,0,52,-5,-30,-20,-34,-109,-26,63
1491087490887,0,-38,17,62,-4,115,127,41,-77
1491087490887,3,14,1,8,33,127,108,83,-59
1491087490887,3,-4,39,96,28,47,13,93,18
1491087490888,0,-20,-7,-92,-55,-115,-64,-102,38
1491087490888,0,-40,-12,-14,-15,45,51,36,-43
1491087490923,1,-9,-22,28,-5,-4,23,35,-35
1491087490923,1,-5,-13,-70,-12,-26,19,-60,40
1491087490924,2,11,37,95,0,-51,-97,-29,41
1491087490924,2,-17,-15,-39,-24,31,64,86,-65
1491087490925,3,30,25,48,-8,23,74,30,-33
1491087490925,3,-32,-35,-80,26,-45,-70,-82,97
1491087490926,0,-5,0,6,-31,-33,121,114,-31
1491087490926,0,14,19,78,42,-24,106,32,-47
1491087490961,1,-47,-38,-128,-54,-50,-115,-50,66
1491087490961,1,13,27,127,37,101,35,-19,-39
1491087490961,2,19,10,9,39,60,8,43,-18
1491087490961,2,-22,-4,-11,-59,-110,-103,0,-33
1491087490962,3,3,-22,-74,4,-46,-64,-67,27
1491087490962,3,9,18,27,18,73,-4,-16,-9
1491087490963,0,-32,-1,27,29,81,19,-44,36
1491087490963,0,62,29,71,82,71,127,8,16
1491087490998,1,-21,27,7,-35,-105,-128,27,-43
1491087490998,1,-19,-32,-105,-48,86,-51,-81,33
1491087490999,2,4,5,47,17,60,-48,24,11
1491087490999,2,-11,-29,-64,-28,-128,-93,-46,40
1491087491000,3,15,9,21,52,54,65,-53,52
1491087491000,3,14,33,111,-18,36,66,127,-117
1491087491001,0,-22,-23,-84,-16,-106,-112,-115,38
1491087491001,0,13,19,98,49,63,124,88,-54
1491087491036,1,0,-30,-108,-112,-84,-120,-88,30
1491087491036,1,-7,-16,7,93,8,117,-19,15
1491087491037,2,8,-35,13,-33,12,51,15,-90
1491087491037,2,-11,-35,-37,8,-21,-89,0,66
1491087491038,3,-2,20,85,65,112,59,23,-20
1491087491038,3,55,32,33,20,52,-22,-47,-20
1491087491038,0,-7,1,-44,-40,-64,17,4,20
1491087491038,0,-7,-16,-17,-3,7,-40,15,-20
1491087491073,1,29,31,116,76,80,111,27,-49
1491087491073,1,-46,-25,-98,-86,-125,-77,-60,44
1491087491074,2,-12,-36,-24,-9,-62,127,127,-72
1491087491074,2,-29,-2,-24,-58,9,-33,-128,31
1491087491075,3,22,-24,7,27,93,51,-86,2
1491087491075,3,45,14,68,55,101,90,120,-54
1491087491076,0,-27,6,122,74,127,127,69,-23
1491087491076,0,-49,22,-99,-96,-107,-75,-21,3
1491087491111,1,23,13,-94,-45,-113,-75,-69,69
1491087491111,1,-16,7,67,33,92,123,94,-83
1491087491112,2,40,13,-66,12,54,-128,-58,69
1491087491112,2,-33,21,84,32,-18,61,-40,21
1491087491112,3,-6,-6,-52,-30,43,3,-33,-53
1491087491112,3,6,21,52,47,28,7,32,48
1491087491113,0,-30,-27,-47,-37,43,3,83,-62
1491087491113,0,3,-23,-48,-44,-79,80,-41,47
1491087491148,1,33,1,31,-1,-21,-68,44,2
1491087491148,1,17,-13,-36,-35,-128,46,-22,33
1491087491149,2,-23,25,59,11,66,39,-39,27
1491087491149,2,-22,-27,-6,31,120,6,-67,-7
1491087491150,3,-46,-16,-25,-21,1,4,50,-28
1491087491150,3,61,-5,13,3,127,-21,40,-26
1491087491151,0,47,20,97,39,-6,94,-29,44
1491087491151,0,-5,-28,-128,-114,-108,-128,-31,-8
1491087491186,1,-28,-16,55,33,9,25,-29,6
1491087491186,1,13,5,-44,0,17,-49,-18,-5
1491087491187,2,-20,23,-61,-50,-128,-62,-116,67
1491087491187,2,28,8,110,55,127,75,-11,-29
1491087491188,3,13,31,-51,-28,6,22,-82,30
1491087491188,3,-26,-1,40,-19,34,73,20,-60
1491087491223,0,-34,-20,-54,-13,-20,-53,-48,5
1491087491223,0,-6,-16,13,38,-22,-5,7,13
1491087491224,1,-9,1,59,48,37,48,69,-9
1491087491224,1,7,16,-15,-71,-128,-58,-21,52
1491087491225,2,-34,15,-1,5,-70,-53,32,-4
1491087491225,2,-12,-4,27,20,68,58,98,-29
1491087491226,3,70,2,-93,-41,-123,-30,-75,-9
1491087491226,3,-17,36,97,20,-60,-74,48,26
1491087491261,0,-18,-10,-19,-33,-25,-16,45,-68
1491087491261,0,6,11,7,29,-6,71,50,11
1491087491262,1,10,22,32,41,-4,-25,28,10
1491087491262,1,-51,-1,-79,-13,-61,58,-14,-6
1491087491263,2,-2,-30,-31,-8,-73,-29,32,-3
1491087491263,2,29,20,-77,-15,-17,-7,-40,2
1491087491264,3,-45,0,92,19,9,81,101,-16
1491087491264,3,7,13,-16,1,-52,-9,-29,-58
1491087491298,0,25,-7,6,17,22,33,28,-2
1491087491298,0,-16,-11,-5,3,39,-13,16,1
1491087491299,1,-8,-22,-3,9,-104,-98,16,8
1491087491299,1,-24,-19,-8,-8,37,-108,-22,16
1491087491300,2,-4,-15,-15,-1,-26,98,-6,-6
1491087491300,2,-8,-19,10,-4,31,44,98,-62
1491087491301,3,-1,4,-9,-33,-56,-30,-21,28
1491087491301,3,-36,-40,-27,16,-15,-16,10,24
1491087491336,0,28,14,-1,-9,25,-9,-50,-5
1491087491336,0,46,-2,17,-3,-32,-24,56,13
1491087491337,1,-24,-5,0,12,45,41,45,-8
1491087491337,1,-9,-16,-6,-24,-27,17,-10,-12
1491087491338,2,-1,11,-8,-12,-23,-17,-16,-4
1491087491338,2,-2,4,-5,-8,-31,82,55,25
1491087491373,3,-13,3,1,-18,-64,-92,-103,-20
1491087491373,3,-5,-20,35,27,110,116,102,-21
1491087491374,0,-20,9,-15,-23,-75,107,48,61
1491087491374,0,2,-12,10,11,-32,-19,-119,-57
1491087491375,1,39,3,22,-12,79,-37,-43,-8
1491087491375,1,-14,-23,-89,-18,-64,1,-10,15
1491087491376,2,-19,-9,69,28,127,58,34,-19
1491087491376,2,56,-5,-74,-20,-100,22,-92,-7
1491087491411,3,17,10,55,21,50,26,36,24
1491087491411,3,14,4,0,-5,43,-54,7,-27
1491087491412,0,-5,-18,-41,3,25,-23,-59,40
1491087491412,0,-13,6,28,11,-6,-61,-29,25
1491087491413,1,-24,-20,-24,-9,16,117,11,23
1491087491413,1,10,2,44,30,-26,-45,-6,-27
1491087491414,2,7,-32,-65,-75,-16,-105,-16,-38
1491087491414,2,-15,-12,-22,-18,-34,22,-52,33
1491087491449,3,30,-5,-7,17,74,127,15,0
1491087491449,3,12,4,-2,7,-95,-57,-72,-1
1491087491450,0,-8,2,20,32,-10,13,-67,-30
1491087491450,0,-18,8,6,-11,74,10,46,-29
1491087491451,1,-10,-6,-6,11,-12,43,15,52
1491087491451,1,-19,-12,-17,7,55,88,-81,2
1491087491451,2,-4,7,32,20,33,42,-48,-1
1491087491451,2,35,65,28,-31,-56,-128,-10,0
1491087491486,3,-20,-24,-76,-29,3,18,122,-21
1491087491486,3,-15,29,49,57,61,-85,-95,74
1491087491487,0,-48,-25,-37,-18,-2,-126,-32,-69
1491087491487,0,-21,-18,-15,29,-21,35,-70,20
1491087491488,1,12,21,87,20,98,88,89,-65
1491087491488,1,-16,-30,-109,-56,-89,45,-26,28
1491087491523,2,38,3,-22,-11,-30,-41,-11,2
1491087491523,2,-13,-6,50,24,69,114,-8,-32
1491087491524,3,1,11,22,4,-56,-128,-119,9
1491087491524,3,-25,-5,-6,-12,-80,127,86,-33
1491087491525,0,52,35,-4,19,-64,-14,56,37
1491087491525,0,-50,-23,-43,-33,-1,-82,-21,-19
1491087491526,1,39,40,53,77,41,57,42,-38
1491087491526,1,20,-15,5,-37,127,-64,15,13
1491087491561,2,-28,-23,-39,-53,-94,-65,-48,-31
1491087491561,2,22,-11,30,11,-15,17,69,51
1491087491562,3,3,6,18,22,110,92,-12,-25
1491087491562,3,42,40,47,28,10,-31,49,-16
1491087491563,0,-39,-9,65,102,99,127,75,-10
1491087491563,0,23,-19,-65,-94,-103,-52,-47,6
1491087491564,1,-60,-42,-74,-49,-87,16,-44,26
1491087491564,1,63,43,62,-18,61,60,-44,-77
1491087491598,2,-12,-5,-61,-2,-48,-128,-23,81
1491087491598,2,23,40,82,76,93,-8,57,46
1491087491600,3,-13,2,64,-37,-88,102,97,-67
1491087491600,3,-25,-75,-128,9,-118,-128,-128,106
1491087491600,0,4,47,77,13,52,22,-57,-21
1491087491600,0,-45,-10,75,116,40,111,19,-30
1491087491601,1,52,-23,-128,-123,-112,18,53,37
1491087491601,1,-10,15,67,5,-14,65,54,-101
1491087491636,2,-9,-27,-37,-22,95,56,22,35
1491087491636,2,14,7,-42,25,59,81,-60,26
1491087491637,3,-13,18,61,37,111,-103,-31,0
1491087491637,3,54,16,54,7,10,3,73,30
1491087491638,0,3,-14,7,32,-14,31,-32,-11
1491087491638,0,31,11,1,-83,60,69,-13,-35
1491087491673,1,-14,-6,-111,-14,-54,-82,-81,70
1491087491673,1,-44,-13,25,19,76,74,127,-79
1491087491675,2,64,18,21,-47,-57,-114,98,12
1491087491675,2,-75,-19,33,2,-76,-128,-11,28
1491087491675,3,33,-6,-8,15,123,10,-55,-22
1491087491675,3,-17,2,-68,-14,-128,-21,-62,104
1491087491676,0,-49,-33,20,-4,61,123,-23,-51
1491087491676,0,79,44,20,31,28,120,110,42
1491087491711,1,-29,13,62,-11,-95,-6,-23,-98
1491087491711,1,60,-54,-82,-42,-58,-31,33,-14
1491087491712,2,6,-6,0,15,-8,127,28,2
1491087491712,2,5,56,36,-11,37,60,3,-29
1491087491712,3,-57,-16,8,36,43,127,67,5
1491087491712,3,-24,-13,-44,-12,-30,-40,-62,59
1491087491713,0,-60,-18,35,-16,-101,97,107,-117
1491087491713,0,-5,-42,-114,-34,-22,42,-24,8
1491087491748,1,3,-12,1,12,-16,-88,1,43
1491087491748,1,-29,29,73,15,118,27,-103,-33
1491087491750,2,76,39,-43,-31,8,18,-27,41
1491087491750,2,-43,-38,9,6,-25,-48,-56,-70
1491087491754,3,39,22,-22,3,-11,-26,-16,20
1491087491754,3,-52,-40,-20,-43,-63,5,31,-5
1491087491755,0,-8,38,69,55,19,63,-59,-40
1491087491755,0,-4,-21,-50,-52,-16,-107,-37,61
1491087491786,1,5,-5,20,12,-39,126,28,21
1491087491786,1,-42,-24,-25,-27,-16,89,88,-49
1491087491787,2,12,31,-10,-22,19,43,-14,42
1491087491787,2,-73,-20,20,34,104,2,-81,-12
1491087491788,3,67,-31,-57,-14,-60,7,-10,-36
1491087491788,3,19,47,83,40,5,-58,-19,8
1491087491823,0,0,2,5,29,83,-7,-74,16
1491087491823,0,-24,-39,-66,-68,-57,-51,126,-69
1491087491824,1,-70,-4,14,20,51,67,-38,-4
1491087491824,1,66,46,51,27,-46,-20,-4,38
1491087491825,2,30,-2,10,-35,-52,30,47,-13
1491087491825,2,-16,-34,-28,18,-6,68,33,9
1491087491826,3,16,-24,-39,-38,-51,-90,-68,-24
1491087491826,3,-90,15,37,12,2,127,-18,11
1491087491861,0,16,7,-32,-20,-59,-96,-65,30
1491087491861,0,49,17,31,-7,-12,69,66,1
1491087491862,1,-22,-14,33,49,127,105,103,-29
1491087491862,1,123,66,-1,7,58,-20,-51,4
1491087491862,2,-35,-27,-16,-45,-20,-118,3,-10
1491087491862,2,43,-29,-29,11,-77,75,-52,-19
1491087491863,3,-55,24,13,34,84,-74,-13,2
1491087491863,3,-37,0,76,-15,4,50,56,-53
1491087491898,0,18,-10,-40,-15,-51,-75,-38,52
1491087491898,0,-19,-21,-36,4,9,57,86,-35
1491087491899,1,77,34,25,-60,-102,42,-47,-22
1491087491899,1,-12,0,-7,34,4,-1,-64,45
1491087491900,2,-19,-17,40,41,127,127,108,-26
1491087491900,2,0,29,-10,2,-86,-54,-46,57
1491087491901,3,-21,-8,-6,7,-5,-16,-26,35
1491087491901,3,11,-2,1,-12,59,19,13,-46
1491087491936,0,2,5,29,36,24,42,-51,-3
1491087491936,0,29,9,-9,1,-76,-91,-121,36
1491087491937,1,-73,-8,-7,-19,-17,108,-62,-22
1491087491937,1,43,-2,18,27,77,40,79,-40
1491087491938,2,-19,15,-19,-58,-63,-92,-36,70
1491087491938,2,15,3,6,0,-18,125,63,59
1491087491973,3,-14,-10,17,50,40,66,77,-80
1491087491973,3,-86,-26,-52,-25,-45,-82,-56,45
1491087491975,0,-1,-16,11,-22,-13,127,66,-95
1491087491975,0,-22,2,33,14,69,40,-29,-33
1491087491976,1,-6,-20,-39,2,-46,-35,-28,85
1491087491976,1,22,45,31,2,48,64,7,15
1491087491977,2,-5,-3,-10,6,-15,-120,-92,7
1491087491977,2,-17,-2,26,27,63,-38,78,-48
1491087492011,3,28,27,37,-44,-79,-50,58,-44
1491087492011,3,-71,-54,-104,-30,-107,25,-37,-11
1491087492012,0,-33,-21,-13,-12,2,-50,-19,29
1491087492012,0,-8,10,13,14,63,-120,-120,21
1491087492013,1,62,56,65,37,100,86,80,-11
1491087492013,1,-32,-59,-63,-15,-46,-52,-42,-81
1491087492014,2,64,29,38,-66,-34,-78,115,42
1491087492014,2,-53,-45,-24,74,13,31,44,-10
1491087492048,3,25,4,-26,-4,-108,-17,-61,19
1491087492048,3,87,1,-3,-11,10,-78,-27,2
1491087492049,0,-57,-27,-43,15,17,64,-43,5
1491087492049,0,89,29,69,-13,27,-6,50,-88
1491087492050,1,36,-13,-53,-61,-21,-14,38,6
1491087492050,1,-33,19,10,36,13,68,-9,28
1491087492086,2,5,-6,40,50,124,55,8,-23
1491087492086,2,4,67,36,-17,-83,-60,-57,31
1491087492087,3,-53,-64,-59,-4,43,33,-12,116
1491087492087,3,0,-8,31,-3,3,95,114,-119
1491087492087,0,-8,16,-5,-26,-96,60,-9,0
1491087492087,0,-12,-13,-46,-2,-33,-18,-37,4
1491087492089,1,30,6,-11,17,24,-30,-12,22
1491087492089,1,-34,0,-3,10,-1,-44,8,68
1491087492123,2,52,-5,56,67,71,110,98,-70
1491087492123,2,-65,-13,-53,-97,-88,-26,-88,-30
1491087492124,3,-37,-4,7,-7,-7,28,87,2
1491087492124,3,87,-33,-19,-12,88,-15,19,-12
1491087492125,0,43,7,-24,46,25,104,-11,16
1491087492125,0,-27,36,83,-65,-97,-80,-44,-43
1491087492126,1,10,-37,-45,-6,49,-128,-58,75
1491087492126,1,-64,-3,26,38,27,44,-37,106
1491087492161,2,-10,-20,-31,-5,98,53,-61,-44
1491087492161,2,63,-23,-61,-7,-80,33,72,64
1491087492161,3,-105,12,60,9,19,2,-53,-107
1491087492161,3,102,42,64,-14,34,81,43,-60
1491087492162,0,-26,-8,-44,19,-68,-93,-25,84
1491087492162,0,-38,-24,-11,-22,20,116,52,-25
1491087492163,1,51,-19,-32,41,6,66,-70,-5
1491087492163,1,31,60,4,-57,-87,-108,-56,34
1491087492198,2,-19,12,15,-6,-77,-31,-38,12
1491087492198,2,-19,1,9,33,127,101,-19,-23
1491087492199,3,21,26,67,46,-94,57,67,31
1491087492199,3,-11,-4,9,-80,-44,-43,124,-62
1491087492200,0,1,-7,-58,-20,-74,-80,-55,-11
1491087492200,0,11,-13,13,51,116,48,-4,20
1491087492236,1,-73,-8,17,20,121,-16,-55,-19
1491087492236,1,-49,19,31,-6,112,80,-1,15
1491087492237,2,32,9,-10,-37,-76,-12,41,-12
1491087492237,2,-21,-67,-100,39,-91,-91,-26,104
1491087492237,3,10,48,72,-11,30,62,82,-48
1491087492237,3,7,-28,-67,8,-81,61,-56,33
1491087492238,0,0,-1,65,-28,72,117,105,-122
1491087492238,0,22,36,-5,16,-67,-35,9,49
1491087492273,1,-51,-69,-91,20,4,-83,-100,115
1491087492273,1,58,51,75,-53,-33,-124,105,-84
1491087492274,2,-7,-5,-13,26,45,119,92,8
1491087492274,2,4,-9,-26,-26,-9,-21,33,18
1491087492275,3,-30,-16,-32,-63,-128,-40,-99,8
1491087492275,3,-17,-38,-41,50,39,69,-119,73
1491087492276,0,-30,16,30,-6,64,-84,53,-75
1491087492276,0,8,3,5,17,-44,-6,-32,-16
1491087492311,1,42,25,-15,-15,4,-77,-41,10
1491087492311,1,-37,-43,-78,0,-15,67,-26,34
1491087492312,2,-28,26,116,57,104,112,66,-60
1491087492312,2,51,12,-28,-7,-44,96,114,59
1491087492312,3,24,2,6,-51,-5,-43,29,-41
1491087492312,3,-35,-16,-21,-26,-8,126,72,-63
1491087492313,0,-44,-26,-57,-33,-56,-28,-48,54
1491087492313,0,-4,17,87,9,127,114,127,-128
1491087492348,1,-20,-44,-85,18,-58,-43,-85,32
1491087492348,1,-21,-13,-31,31,-35,-111,-68,48
1491087492350,2,66,29,26,-12,27,65,78,-4
1491087492350,2,73,31,64,26,68,56,-12,-26
1491087492351,3,2,15,109,8,120,127,86,-103
1491087492351,3,-103,-18,-70,-6,-68,-89,-81,74
1491087492386,0,60,-11,-49,-38,-28,-128,-101,80
1491087492386,0,8,32,44,-33,4,72,-8,-26
1491087492387,1,12,-14,-77,-1,-9,-82,75,-28
1491087492387,1,14,4,93,82,31,96,-48,37
1491087492387,2,-21,-11,11,-25,-8,-32,17,41
1491087492387,2,17,8,-10,-57,-110,-14,-59,-60
1491087492388,3,46,-53,-94,24,17,-16,32,86
1491087492388,3,-21,23,28,6,67,82,-44,-47
1491087492424,0,-33,9,30,54,81,69,-5,-48
1491087492424,0,23,-72,-71,-66,-23,-45,79,-76
1491087492425,1,-46,53,95,-10,4,75,-23,-33
1491087492425,1,22,-21,-51,-12,26,-10,-14,51
1491087492426,2,-74,-24,-7,20,2,127,-73,-25
1491087492426,2,24,41,77,32,-18,-98,-21,35
1491087492426,3,-6,-40,-82,-39,-114,67,-68,16
1491087492426,3,-55,24,1,-37,-49,-101,15,-38
1491087492461,0,-18,-79,-106,35,-53,18,-2,94
1491087492461,0,-13,53,44,15,36,-72,-92,-40
1491087492461,1,35,31,21,4,127,66,86,36
1491087492461,1,26,-11,68,-27,122,4,49,-114
1491087492462,2,4,-3,-46,-25,-89,-128,-78,41
1491087492462,2,-53,-36,-51,26,16,36,84,78
1491087492463,3,1,41,127,43,67,127,67,-57
1491087492463,3,9,18,-14,-10,67,41,40,26
1491087492498,0,-11,-5,-51,-34,-40,-63,-50,43
1491087492498,0,30,7,-32,14,31,121,6,42
1491087492499,1,-32,11,60,27,64,14,-27,-5
1491087492499,1,51,-15,7,-17,-128,100,125,-73
1491087492500,2,52,55,40,-2,37,24,-32,26
1491087492500,2,-118,-49,-55,12,-78,-86,-88,-30
1491087492536,3,-2,-4,-29,-41,-32,-81,-63,15
1491087492536,3,-26,-12,-3,31,22,-49,-47,-26
1491087492537,0,32,17,56,-49,-15,-27,119,-64
1491087492537,0,6,-37,-82,-12,-79,-65,-127,47
1491087492538,1,-5,6,22,-23,27,109,46,-44
1491087492538,1,27,18,-32,51,-65,-103,-128,127
1491087492538,2,56,23,61,71,98,-16,5,5
1491087492538,2,23,-9,-4,-37,8,114,54,-62
1491087492573,3,18,-21,-50,-12,-87,-108,-31,31
1491087492573,3,0,9,62,6,93,127,119,-77
1491087492574,0,7,21,19,41,-21,-100,-68,72
1491087492574,0,-6,-17,-27,-12,8,105,-13,40
1491087492575,1,-38,-8,8,1,-45,98,31,-78
1491087492575,1,-11,0,2,-23,13,-55,10,42
1491087492576,2,-61,-31,-38,-18,-96,127,1,-85
1491087492576,2,-32,16,48,26,30,-59,-83,27
1491087492611,3,9,-12,-71,-19,34,47,87,20
1491087492611,3,-7,32,31,-5,-39,-65,22,-22
1491087492612,0,-11,-18,-4,3,36,32,-25,13
1491087492612,0,30,0,11,2,31,44,58,20
1491087492612,1,-27,-34,3,-30,-21,-11,-93,-84
1491087492612,1,55,61,25,29,14,-56,13,26
1491087492613,2,-4,9,52,-45,-128,57,58,-31
1491087492613,2,-38,4,6,27,103,-20,-25,-4
1491087492648,3,37,-5,-67,-9,-128,-120,-84,119
1491087492648,3,-43,-42,-69,-54,24,111,31,15
1491087492649,0,-5,-37,-116,-59,-119,62,-49,-24
1491087492649,0,-59,26,70,15,56,41,-73,14
1491087492650,1,-12,35,81,11,109,76,120,-69
1491087492650,1,24,-9,-1,60,-116,6,-50,3
1491087492686,2,-12,-8,8,10,92,54,95,-14
1491087492686,2,-17,-26,-14,0,-70,-68,-43,10
1491087492687,3,7,12,-1,-40,-28,5,2,-30
1491087492687,3,-25,-11,14,64,43,81,-27,22
1491087492687,0,17,-4,-28,-45,-58,26,46,-19
1491087492687,0,-32,-3,-3,20,-27,-24,-43,35
1491087492688,1,93,25,26,-74,-72,-98,31,20
1491087492688,1,-53,-24,-43,-17,35,-86,-78,-23
1491087492723,2,14,17,-1,13,101,59,43,-35
1491087492723,2,-48,-13,-61,-19,-13,-75,-16,-17
1491087492724,3,20,16,79,93,38,91,-24,4
1491087492724,3,7,-8,-36,-47,81,22,3,-23
1491087492725,0,-34,-13,-41,36,19,-107,-51,70
1491087492725,0,39,22,111,23,66,95,127,-128
1491087492726,1,5,-23,-128,-8,-107,-127,-128,127
1491087492726,1,-43,-21,-37,-39,-64,5,9,-17
1491087492761,2,15,11,64,40,90,50,41,-51
1491087492761,2,23,25,45,-8,-89,35,-54,-38
1491087492762,3,-25,-24,-25,-12,-76,-45,57,25
1491087492762,3,29,19,9,-29,-117,-70,-78,34
1491087492762,0,-10,-6,6,67,31,-40,15,18
1491087492762,0,14,-20,-73,-80,-84,65,17,-26
1491087492763,1,-10,5,-9,6,-24,-94,-90,32
1491087492763,1,4,-2,12,5,-13,91,16,-32
1491087492798,2,-39,-11,-13,20,73,100,-120,-20
1491087492798,2,46,33,72,18,-51,-116,67,50
1491087492799,3,-6,26,68,33,109,127,73,-95
1491087492799,3,5,-31,-88,8,-84,-89,-35,84
1491087492800,0,-40,14,120,41,67,41,21,-70
1491087492800,0,-6,-35,-94,-49,38,36,66,-66
1491087492836,1,-54,-21,-89,-33,-24,-12,-75,67
1491087492836,1,6,-4,11,4,-53,127,38,4
1491087492837,2,-10,-8,-17,-21,10,22,17,-17
1491087492837,2,15,-18,1,25,-6,8,11,24
1491087492837,3,8,47,127,127,127,127,108,-54
1491087492837,3,44,10,47,-79,-59,-79,20,-41
1491087492838,0,10,-29,-124,13,-59,-34,-109,127
1491087492838,0,-46,15,52,-1,6,7,-72,-18
1491087492873,1,-11,-20,-65,-31,-110,9,-19,-25
1491087492873,1,39,10,61,93,71,-13,-52,48
1491087492874,2,35,11,-13,-92,-20,-128,-3,-6
1491087492874,2,-79,-3,-12,6,95,94,114,-6
1491087492875,3,9,-34,-19,18,-19,33,22,-27
1491087492875,3,53,16,-3,-5,-64,-47,-21,30
1491087492876,0,-62,-8,40,-8,-62,16,45,-16
1491087492876,0,54,1,28,30,21,19,27,35
1491087492911,1,-87,-21,-75,-46,-125,-57,-45,-22
1491087492911,1,43,4,-5,15,116,68,17,-45
1491087492912,2,40,23,-59,-19,-36,-79,-21,37
1491087492912,2,28,2,38,18,-19,-18,56,8
1491087492912,3,-81,-31,-49,-31,-16,-22,-26,-16
1491087492912,3,-3,29,46,-16,16,-28,17,-4
1491087492913,0,11,19,41,22,70,69,2,-34
1491087492913,0,35,-1,-118,-71,-114,-80,-116,65
1491087492948,1,22,11,62,7,59,-51,-7,20
1491087492948,1,-29,-28,-37,-5,-3,12,32,2
1491087492949,2,1,0,92,-13,-2,-2,30,-70
1491087492949,2,-29,-27,-64,23,-8,-7,-45,33
1491087492950,3,37,15,-4,-16,46,28,1,-11
1491087492950,3,-91,-28,-25,-45,-10,32,63,-25
1491087492986,0,87,6,-15,27,55,40,75,-10
1491087492986,0,-49,-8,34,-27,-26,-51,-80,12
1491087492987,1,67,43,32,-6,71,31,75,4
1491087492987,1,-46,-12,-28,27,-5,-23,-13,1
1491087492988,2,-57,-19,6,-21,17,-26,-25,7
1491087492988,2,37,2,-24,1,-83,-26,6,-5
1491087492989,3,-33,-22,32,23,15,-2,-32,15
1491087492989,3,4,-16,-29,-29,-4,127,-8,-34
1491087493023,0,48,0,-4,-3,-55,-84,8,-7
1491087493023,0,-63,13,-2,9,95,40,15,-13
1491087493024,1,38,8,78,13,1,3,-12,1
1491087493024,1,-75,-3,-7,22,53,30,80,-61
1491087493025,2,-19,-12,-95,-61,-83,-58,-102,34
1491087493025,2,68,24,20,16,-24,5,17,-24
1491087493026,3,-32,-16,-23,-12,37,76,17,-41
1491087493026,3,-18,-13,67,73,120,-37,-85,25
1491087493061,0,7,5,-28,-48,-105,60,13,24
1491087493061,0,-18,-3,4,-6,22,-10,20,-33
1491087493062,1,-21,21,45,-15,27,-18,-18,-14
1491087493062,1,107,-22,-36,4,37,40,0,21
1491087493063,2,-75,-18,-3,15,-1,-15,-90,24
1491087493063,2,-1,4,66,-3,2,55,28,0
1491087493098,3,68,13,-24,-15,-67,-105,-36,-17
1491087493098,3,-22,3,6,-5,15,49,4,6
1491087493100,0,28,-4,-20,-22,-87,11,0,-32
1491087493100,0,-26,-3,-46,-7,-36,-82,-92,65
1491087493100,1,-2,17,66,30,-15,21,40,-21
1491087493100,1,-33,-16,-61,-5,24,102,11,25
1491087493101,2,50,29,63,14,9,11,45,10
1491087493101,2,11,-5,-86,-39,-48,15,-5,-1
1491087493136,3,-2,-16,-14,5,77,53,88,-35
1491087493136,3,2,3,50,-22,-5,-50,10,94
1491087493136,0,-28,-25,-40,-5,-67,4,82,-31
1491087493136,0,-29,-4,126,58,127,25,123,-100
1491087493137,1,20,-15,-128,-26,-128,-17,-6,56
1491087493137,1,29,7,0,38,12,-9,38,7
1491087493138,2,-9,35,94,5,-1,-118,24,30
1491087493138,2,26,-21,-19,-2,9,58,32,-24
1491087493173,3,-19,-25,-13,4,-8,37,51,36
1491087493173,3,1,7,48,1,18,102,15,-98
1491087493174,0,9,-9,-30,4,20,6,46,-15
1491087493174,0,-13,-11,-1,-18,-24,-20,65,2
1491087493175,1,-11,-10,-7,-11,6,33,-5,23
1491087493175,1,-19,-12,-9,-7,-50,-8,2,-4
1491087493176,2,72,-1,38,-29,-72,-46,-61,-3
1491087493176,2,0,3,-53,-18,-78,5,1,35
1491087493211,3,-10,-3,51,15,61,25,-38,11
1491087493211,3,24,6,5,-9,-3,-62,-6,-27
1491087493212,0,-5,6,32,14,104,97,20,-47
1491087493212,0,39,7,15,-3,100,-6,-25,27
1491087493213,1,-15,-5,-24,11,-63,80,-60,15
1491087493213,1,-26,-25,-26,-9,-12,-25,-64,-6
1491087493248,2,-32,-1,7,12,58,-45,-84,4
1491087493248,2,4,4,2,11,45,123,4,-3
1491087493249,3,-22,19,42,-4,36,-40,-10,-68
1491087493249,3,4,7,-48,-34,-41,-85,-18,-8
1491087493250,0,-37,-25,-2,21,-15,36,6,-11
1491087493250,0,23,9,-57,-1,-42,11,-39,39
1491087493251,1,15,15,45,0,40,-118,-68,-26
1491087493251,1,3,-9,8,14,6,62,-13,-6
1491087493286,2,-39,4,-54,-4,18,-17,5,-1
1491087493286,2,18,29,107,28,110,45,7,-5
1491087493286,3,6,-24,-84,-27,-52,62,-38,26
1491087493286,3,-5,3,35,9,15,61,-37,-4
1491087493287,0,-5,8,-25,-2,-10,-19,-52,24
1491087493287,0,-16,-13,-27,-34,-74,26,-20,-29
1491087493288,1,-31,4,3,-7,-2,60,-5,-25
1491087493288,1,-3,-1,16,16,61,13,10,-7
1491087493323,2,-54,-30,-63,-52,-106,-17,-9,-2
1491087493323,2,7,17,-1,16,41,46,-4,24
1491087493324,3,30,16,33,0,25,27,-3,-8
1491087493324,3,5,-14,-33,-5,-41,-48,-17,25
1491087493325,0,-5,-11,7,25,55,77,18,-7
1491087493325,0,-28,0,21,-3,10,-50,-27,-24
1491087493326,1,-8,-20,19,25,82,51,69,-19
1491087493326,1,-28,12,-57,-23,-103,-27,-39,50
1491087493361,2,36,14,-21,24,55,38,-30,67
1491087493361,2,1,-5,31,13,42,16,36,33
1491087493362,3,-41,9,3,-3,-28,-7,52,-35
1491087493362,3,15,-37,-38,-23,-35,-90,-26,-37
1491087493363,0,66,7,36,28,-20,38,33,10
1491087493363,0,13,1,-45,-12,19,20,18,-7
1491087493398,1,39,1,60,18,49,43,24,16
1491087493398,1,-72,-45,-94,-38,-70,-61,-27,13
1491087493399,2,33,20,23,12,21,10,-34,16
1491087493399,2,7,-17,24,5,-9,-33,45,-37
1491087493400,3,-14,-8,-25,3,18,-30,-46,11
1491087493400,3,46,30,62,6,127,116,59,-49
1491087493401,0,-18,-25,-48,3,-94,-107,10,74
1491087493401,0,-39,1,8,42,87,113,-6,-5
1491087493436,1,-12,-7,-10,-50,-64,-115,54,-13
1491087493436,1,-42,-9,3,11,1,33,25,-1
1491087493437,2,81,11,-55,-45,-89,123,-36,-50
1491087493437,2,-37,-13,23,-9,-64,-128,-11,43
1491087493438,3,-13,-1,19,45,70,5,32,1
1491087493438,3,72,33,-2,-36,-54,52,-59,-16
1491087493439,0,-85,-18,51,23,7,39,11,9
1491087493439,0,11,0,-64,-36,-34,-10,-48,-9
1491087493473,1,2,1,-13,-1,-89,91,-33,19
1491087493473,1,-19,27,50,25,10,-105,-49,38
1491087493474,2,34,10,-14,24,127,120,46,-27
1491087493474,2,25,-2,1,-55,-93,36,-26,-61
1491087493475,3,-70,-18,-63,-30,-100,-113,-54,107
1491087493475,3,94,60,38,40,69,127,127,-60
1491087493476,0,-49,-7,78,-13,-21,-127,-63,-29
1491087493476,0,-19,-1,-22,26,-57,-14,-53,15
1491087493511,1,6,-10,-37,-18,-26,84,-79,-7
1491087493511,1,-33,-19,-29,-48,-37,62,4,-17
1491087493512,2,20,38,13,17,29,29,-7,19
1491087493512,2,37,-1,71,43,113,120,88,-44
1491087493513,3,30,-22,-37,11,11,-28,-76,41
1491087493513,3,-48,30,3,-11,-22,-128,4,37
1491087493548,0,-60,-45,9,-5,83,63,72,-99
1491087493548,0,-27,-33,-49,-17,-128,-50,-90,-28
1491087493549,1,31,48,56,-13,73,25,80,-11
1491087493549,1,42,-46,39,101,32,127,89,-58
1491087493550,2,53,36,-74,-67,-117,-124,-68,80
1491087493550,2,-69,-48,-73,-52,-53,-3,-35,8
1491087493551,3,89,27,41,16,105,72,12,-57
1491087493551,3,-87,-49,16,1,93,69,105,-42
1491087493586,0,52,32,64,-3,36,-9,62,1
1491087493586,0,-4,0,-7,71,9,-50,-97,64
1491087493587,1,13,20,47,-33,42,66,76,15
1491087493587,1,-43,-72,-107,-43,-128,-102,-27,-29
1491087493587,2,17,10,88,41,107,80,-2,-10
1491087493587,2,40,68,46,-28,-34,-124,-3,21
1491087493588,3,-77,-46,-57,16,-115,-80,-95,33
1491087493588,3,80,50,36,6,16,26,41,49
1491087493623,0,-37,-40,-38,5,41,17,-47,-62
1491087493623,0,-69,-65,-23,-5,35,122,-37,85
1491087493624,1,68,39,24,-43,0,-80,127,-114
1491087493624,1,-73,19,83,12,77,65,-16,-56
1491087493625,2,-50,-17,-124,-63,-128,-85,-63,92
1491087493625,2,-21,-13,19,42,127,127,127,-120
1491087493626,3,-78,-26,-11,-10,-103,-125,-107,47
1491087493626,3,69,20,-3,-4,8,-39,-21,10
1491087493661,0,-20,10,21,20,-17,83,87,8
1491087493661,0,-8,-23,19,6,34,47,-28,-11
1491087493662,1,31,28,-13,0,-19,36,-23,55
1491087493662,1,52,24,52,40,106,-8,-51,3
1491087493663,2,-105,-42,25,41,64,127,74,-20
1491087493663,2,127,38,-78,-62,-60,-128,-31,32
1491087493698,3,-51,-4,38,-32,-61,123,122,-98
1491087493698,3,-82,-3,-57,-2,-81,39,-110,77
1491087493699,0,-20,-37,-57,-11,-62,-53,13,10
1491087493699,0,-7,1,18,-12,48,42,117,-60
1491087493736,1,99,19,-4,32,19,-8,58,13
1491087493736,1,-45,-35,-26,-64,-99,-38,-58,0
1491087493737,2,-30,-7,-2,27,4,36,49,-39
1491087493737,2,30,0,-8,-2,-35,-12,-77,-28
1491087493737,3,14,-6,-32,19,77,18,-49,58
1491087493737,3,15,74,107,11,-104,-126,-49,77
1491087493738,0,-7,-37,6,28,93,85,53,-53
1491087493738,0,-64,2,-35,-16,-81,-43,-40,85
1491087493774,1,-3,-6,-12,-63,-18,92,15,-91
1491087493774,1,-49,-47,-75,15,-55,33,-44,23
1491087493775,2,63,50,90,2,93,-67,38,-2
1491087493775,2,33,27,38,17,19,24,127,4
1491087493776,3,35,31,-4,13,-75,3,-87,39
1491087493776,3,23,27,7,-49,-23,-90,20,-51
1491087493777,0,45,33,33,5,47,60,53,-35
1491087493777,0,-22,-4,-13,53,-117,30,-80,-7
1491087493811,1,9,-1,-29,14,71,-103,-79,79
1491087493811,1,-12,-17,-51,15,76,-61,-49,7
1491087493812,2,-28,4,47,-77,-115,63,23,-92
1491087493812,2,85,42,26,13,95,-12,-47,29
1491087493813,3,-18,-23,46,33,76,77,86,-20
1491087493813,3,43,-33,-14,-1,7,122,74,-45
1491087493813,0,-54,-1,-73,-13,-39,-128,-76,110
1491087493813,0,48,22,28,-2,54,-45,77,-26
1491087493848,1,-8,-12,4,-4,36,66,90,-84
1491087493848,1,43,1,-23,14,-66,51,-45,46
1491087493849,2,-56,-36,-42,-64,-37,-66,52,62
1491087493849,2,-49,-16,-6,-4,71,105,54,-35
1491087493850,3,-52,-35,-49,-3,-8,14,-38,-7
1491087493850,3,24,13,89,24,127,115,117,-48
1491087493851,0,97,33,-7,0,-95,-6,-17,15
1491087493851,0,-118,-100,-78,-19,-108,-80,44,52
1491087493886,1,77,71,36,1,-8,78,-72,-80
1491087493886,1,-52,5,36,-19,-22,-93,-9,20
1491087493887,2,40,5,28,32,22,88,5,-27
1491087493887,2,-107,-40,-4,30,15,35,-6,-61
1491087493887,3,-26,-39,-34,-47,-57,-38,24,48
1491087493887,3,30,10,-30,-13,59,12,15,-23
1491087493888,0,25,-6,-21,21,-6,-105,-44,46
1491087493888,0,14,27,37,-25,24,127,99,-55
1491087493923,1,-55,-24,-8,63,10,-125,-94,44
1491087493923,1,-70,-29,13,-27,-74,-23,19,-19
1491087493924,2,28,24,19,17,-2,46,-115,-52
1491087493924,2,28,7,-2,-11,21,-46,43,71
1491087493925,3,-11,19,-4,8,-2,-60,-19,16
1491087493925,3,-41,-39,-31,-16,1,108,127,15
1491087493926,0,42,23,10,5,54,-75,7,-49
1491087493926,0,26,45,32,34,-3,51,-23,58
1491087493961,1,29,-15,-41,-44,-42,-3,92,-3
1491087493961,1,-44,5,24,35,-50,77,66,1
1491087493962,2,-70,-31,-69,-23,-82,-44,-126,35
1491087493962,2,64,80,49,-9,6,12,-21,-45
1491087493963,3,-75,6,35,33,30,-2,56,45
1491087493963,3,43,1,-71,-46,46,42,54,-56
1491087493963,0,-96,4,100,59,30,7,-72,33
1491087493963,0,17,-24,-69,-40,-80,-92,-60,29
1491087493998,1,-72,-37,-3,-47,21,88,-45,-26
1491087493998,1,-30,-1,7,72,76,29,48,-8
1491087494000,2,36,-24,-46,-47,-62,98,-53,-26
1491087494000,2,-104,-44,-16,31,-12,-40,34,52
1491087494000,3,125,64,60,-26,10,-63,109,-31
1491087494000,3,-7,17,-64,-1,-73,-58,-113,-18
1491087494001,0,13,18,-8,-21,127,95,127,-63
1491087494001,0,90,-21,7,27,-82,82,10,-19
1491087494036,1,-68,-49,0,25,-36,-4,-99,16
1491087494036,1,46,19,24,-14,-101,-67,42,96
1491087494038,2,-9,-13,29,48,66,-85,-109,48
1491087494038,2,-55,18,13,-72,88,127,67,-113
1491087494039,3,-128,-91,-100,-68,-21,-113,-40,64
1491087494039,3,44,55,40,19,15,87,-28,-27
1491087494039,0,-83,-34,27,32,0,18,16,28
1491087494039,0,38,-27,46,26,93,43,9,80
1491087494073,1,29,72,48,-18,-21,121,116,-128
1491087494073,1,-53,-77,-94,-8,-99,-128,-128,107
1491087494074,2,84,70,-39,-75,77,-14,98,41
1491087494074,2,-97,-11,35,62,80,37,-128,-17
1491087494075,3,37,-13,21,30,70,64,55,10
1491087494075,3,22,-2,-31,-9,16,127,99,-77
1491087494111,0,-92,-25,79,39,32,112,72,-62
1491087494111,0,-20,64,60,3,-10,-128,-127,20
1491087494112,1,-2,-39,-82,13,-71,60,-53,56
1491087494112,1,-69,-3,75,0,127,121,82,-103
1491087494112,2,94,12,-87,-68,-127,-100,112,4
1491087494112,2,63,-3,-30,-10,-77,80,-47,50
1491087494113,3,-35,16,6,-19,-40,-46,-81,4
1491087494113,3,4,13,8,27,90,-128,-128,93
1491087494148,0,-7,22,78,-3,-4,127,84,-99
1491087494148,0,65,51,-13,4,3,-14,74,-23
1491087494149,1,48,1,-31,25,-69,-88,4,28
1491087494149,1,127,25,22,8,37,24,-8,9
1491087494150,2,-117,-41,-38,48,2,97,-123,54
1491087494150,2,37,40,78,-51,-34,-60,-19,-7
1491087494151,3,41,-22,-39,-3,81,103,-43,-63
1491087494151,3,-111,-74,-92,9,-101,25,-101,91
1491087494186,0,69,16,29,-1,2,-25,80,2
1491087494186,0,-75,-22,-22,-16,-59,65,105,-82
1491087494186,1,-60,6,18,-37,-46,12,-15,38
1491087494186,1,42,18,30,17,-15,127,83,-110
1491087494187,2,-111,-14,-71,1,-51,-128,-128,127
1491087494187,2,63,-21,-87,-22,9,5,12,-17
1491087494188,3,2,35,78,61,111,-47,45,13
1491087494188,3,-35,4,82,-5,94,70,35,-4
1491087494223,0,44,0,-47,-12,-69,-17,-53,37
1491087494223,0,-44,-38,-64,3,-31,-56,60,7
1491087494224,1,26,28,31,-1,77,68,-94,20
1491087494224,1,-66,-6,56,2,-62,-42,67,-56
1491087494225,2,16,4,-32,-58,56,100,98,-110
1491087494225,2,-119,-41,-21,-37,-100,-15,53,15
1491087494261,3,9,-61,-122,-17,-114,-27,-3,82
1491087494261,3,61,65,69,35,34,25,-48,30
1491087494262,0,-43,-36,23,0,-12,5,-78,-56
1491087494262,0,4,12,-10,11,119,98,-53,7
1491087494262,1,-20,10,77,-4,-23,46,99,-86
1491087494262,1,-48,-18,-12,-13,25,55,-41,-13
1491087494263,2,30,-23,-70,19,-52,-10,11,67
1491087494263,2,-58,-11,90,-2,34,97,-106,59
1491087494298,3,12,-21,-83,16,-43,64,-38,40
1491087494298,3,42,34,70,33,76,56,-117,-67
1491087494299,0,55,37,20,-28,-117,102,116,-57
1491087494299,0,86,-10,-1,51,72,-128,27,-17
1491087494300,1,-79,22,50,-72,-61,63,97,-84
1491087494300,1,32,-72,-117,-23,46,51,-6,51
1491087494301,2,9,13,49,55,-71,-59,-31,20
1491087494301,2,-13,3,-10,-15,59,-43,-96,19
1491087494336,3,4,21,72,89,93,127,6,15
1491087494336,3,-31,-21,-44,-63,-22,-128,43,9
1491087494336,0,-8,-10,4,1,79,127,-34,-25
1491087494336,0,-2,13,-26,-121,-128,-23,76,-46
1491087494337,1,-22,-40,-72,81,91,32,-123,106
1491087494337,1,-88,6,92,77,45,52,-99,87
1491087494338,2,90,28,-43,-97,-56,36,68,-90
1491087494338,2,-58,-13,-30,25,-24,80,30,-76
1491087494373,3,79,26,26,2,30,-39,113,20
1491087494373,3,-69,-13,-8,-15,42,82,39,-91
1491087494374,0,-53,-17,23,41,2,-68,-81,7
1491087494374,0,14,-29,4,-12,-91,56,38,-23
1491087494375,1,-49,-19,-23,25,8,-124,-90,80
1491087494375,1,102,36,7,-15,-85,88,90,-28
1491087494411,2,-2,-11,-5,13,49,-104,-92,-8
1491087494411,2,4,3,16,-60,-97,33,56,-30
1491087494411,3,-60,-51,-93,-25,-77,-90,-126,34
1491087494411,3,59,-5,-5,2,-25,15,11,-21
1491087494412,0,-47,0,-77,-37,-45,-86,89,58
1491087494412,0,36,19,85,56,119,102,37,48
1491087494413,1,4,29,127,28,38,74,-52,-128
1491087494413,1,-68,-1,-76,-59,-114,-21,104,-3
1491087494448,2,15,-38,-22,-14,61,-1,78,-8
1491087494448,2,-7,-1,-80,22,-24,-93,-128,54
1491087494454,3,4,-10,-15,10,-37,36,4,49
1491087494454,3,-16,22,36,-34,-77,6,-77,-12
1491087494456,0,-15,-2,19,28,58,-26,-52,16
1491087494456,0,1,-8,-37,19,-75,-56,-53,32
1491087494456,1,18,40,55,-52,-28,16,117,-82
1491087494456,1,17,-16,-69,-1,-118,42,16,73
1491087494486,2,-38,-22,-35,-4,-29,-46,-121,75
1491087494486,2,38,24,59,43,73,119,-45,-23
1491087494488,3,-25,9,-23,6,24,72,-31,46
1491087494488,3,25,15,85,53,127,71,93,-80
1491087494489,0,-4,-4,-26,-58,-94,-18,-81,-15
1491087494489,0,-41,-32,-58,-30,25,-27,-77,-5
1491087494490,1,15,15,99,70,25,90,-17,-36
1491087494490,1,-2,-7,-38,-61,-72,-128,-68,74
1491087494523,2,17,-6,38,13,33,127,75,-26
1491087494523,2,-20,-8,-19,35,87,61,8,-10
1491087494524,3,37,20,2,-15,62,-2,-67,29
1491087494524,3,40,28,53,38,47,-35,78,10
1491087494525,0,9,5,41,-26,16,32,85,-52
1491087494525,0,-17,-10,-36,51,25,70,-10,-9
1491087494561,1,-9,-6,3,-24,-95,-11,15,-24
1491087494561,1,-13,-34,-128,-76,-119,-128,-81,111
1491087494562,2,-32,-15,15,10,28,86,-11,17
1491087494562,2,-4,-3,10,-5,112,24,2,-1
1491087494563,3,48,22,24,-9,12,72,50,-55
1491087494563,3,10,9,20,27,74,31,-25,-72
1491087494598,0,-1,0,-9,0,68,-56,43,13
1491087494598,0,18,21,71,39,-49,63,40,-1
1491087494599,1,-2,-30,-113,-27,-81,-128,-92,93
1491087494599,1,-31,-24,-73,-60,-50,28,-49,-17
1491087494600,2,56,40,56,47,0,127,59,-37
1491087494600,2,1,12,0,-21,-73,-122,-62,87
1491087494601,3,1,5,4,-42,20,110,86,-65
1491087494601,3,-7,-15,27,45,42,38,1,34
1491087494636,0,8,6,37,56,60,-35,-27,36
1491087494636,0,-23,3,53,-6,81,52,66,-89
1491087494637,1,-34,-47,-128,-70,-123,-121,-65,36
1491087494637,1,29,21,39,-4,48,58,92,-72
1491087494637,2,-42,10,10,40,47,-4,-83,9
1491087494637,2,17,-6,-22,-12,70,-9,-28,66
1491087494638,3,7,3,-27,16,-43,-5,6,1
1491087494638,3,-2,3,28,-20,35,-26,53,-45
1491087494673,0,-15,15,53,62,44,101,45,-21
1491087494673,0,-10,-6,66,15,43,113,40,-5
1491087494675,1,15,-12,-62,-19,127,-45,-30,-18
1491087494675,1,0,-19,-50,-25,-128,3,-97,61
1491087494676,2,-11,-4,-53,-33,-73,8,-84,1
1491087494676,2,1,-8,28,12,70,10,54,-48
1491087494677,3,4,8,69,15,59,105,127,-84
1491087494677,3,20,37,-24,8,-73,-6,-111,66
1491087494711,0,-35,-12,14,54,53,-116,-62,21
1491087494711,0,-6,6,9,-22,-13,58,35,12
1491087494712,1,13,-22,-6,-30,-12,-85,42,-69
1491087494712,1,21,4,10,6,-4,23,113,35
1491087494714,2,-9,-17,-14,-21,-13,24,-22,-39
1491087494714,2,7,12,38,43,16,33,-70,10
1491087494714,3,-31,-16,14,-57,-74,-16,86,-50
1491087494714,3,-34,-38,-58,27,-57,-98,-124,72
1491087494748,0,8,-12,-45,-55,-27,41,27,62
1491087494748,0,38,-7,-17,-16,-41,-9,19,-16
1491087494749,1,-15,14,100,79,126,104,50,-23
1491087494749,1,42,17,41,-12,102,60,-13,-25
1491087494750,2,-15,-17,-79,-20,-34,48,-15,30
1491087494750,2,-46,-54,-24,-54,-128,-128,-12,4
1491087494751,3,2,9,-21,8,-38,34,44,21
1491087494751,3,-18,5,22,17,106,12,6,-54
1491087494786,0,9,3,44,-6,-16,47,62,-12
1491087494786,0,14,25,-48,-6,-33,-115,-100,53
1491087494787,1,-35,-21,12,36,24,5,-96,42
1491087494787,1,-31,-12,8,-20,49,67,103,-26
1491087494787,2,-22,-13,-41,-13,-62,-98,-68,-41
1491087494787,2,-5,12,-20,6,41,55,17,1
1491087494788,3,7,27,39,-21,-93,-114,-76,53
1491087494788,3,6,-2,27,-25,21,39,72,-114
1491087494823,0,-39,-19,32,-6,14,36,-3,7
1491087494823,0,-6,16,-12,19,46,20,76,2
1491087494824,1,8,-12,10,42,56,105,3,25
1491087494824,1,-8,-2,43,0,-5,-120,-117,-20
1491087494825,2,-16,-15,-67,-30,-36,35,-14,28
1491087494825,2,53,16,48,-13,-11,22,4,7
1491087494861,3,-14,-17,-5,-24,-13,10,25,-42
1491087494861,3,-27,-6,-5,18,0,12,-63,59
1491087494868,0,66,-31,-10,-8,-48,-51,106,-55
1491087494868,0,-14,2,-22,-4,-63,-26,-79,-15
1491087494871,1,-26,-13,-40,18,-2,-34,-75,48
1491087494871,1,54,24,15,-3,-20,-24,102,49
1491087494873,2,-30,35,85,23,127,34,17,-64
1491087494873,2,78,21,-49,19,83,38,-19,8
1491087494898,3,-3,4,25,-14,-97,12,-29,3
1491087494898,3,-33,12,-41,12,-76,-114,-23,15
1491087494899,0,76,31,71,48,123,49,21,2
1491087494899,0,-42,-40,-32,4,56,39,8,-31
1491087494900,1,29,30,-76,-61,-53,52,-17,-9
1491087494900,1,-14,-40,-31,-10,-4,43,40,9
1491087494901,2,26,32,21,-3,3,-4,-69,4
1491087494901,2,-22,-19,-40,-30,-63,-60,-26,-54
1491087494936,3,-16,24,73,29,83,28,-1,0
1491087494936,3,-18,-15,-73,-42,4,82,-3,-35
1491087494938,0,10,26,29,5,-73,65,61,28
1491087494938,0,-29,15,43,5,-15,-15,58,56
1491087494938,1,-4,-19,-82,-21,-29,33,43,-15
1491087494938,1,15,3,20,20,-51,22,-40,17
1491087494974,2,-3,-1,-26,3,-9,-8,-5,22
1491087494974,2,-9,12,50,27,57,80,68,-6
1491087494975,3,-3,-3,-32,-37,-108,-91,34,-2
1491087494975,3,-4,15,53,14,6,0,-8,-8
1491087494976,0,12,-9,-13,13,28,26,-15,15
1491087494976,0,-59,-17,-28,-38,-101,-29,48,-5
1491087494977,1,50,19,50,22,127,30,-7,-4
1491087494977,1,22,-11,-48,-26,-99,-107,-54,-35
1491087495011,2,-33,-27,35,18,17,-7,1,21
1491087495011,2,-20,-23,1,-19,82,86,-39,-18
1491087495012,3,-3,2,-9,-7,-62,-82,-40,25
1491087495012,3,16,-7,21,8,46,104,38,15
1491087495013,0,10,-24,-71,-20,-55,32,-25,-10
1491087495013,0,1,-14,22,-16,-26,64,-55,-32
1491087495014,1,9,-4,15,21,36,57,39,-38
1491087495014,1,-9,2,79,33,37,82,-37,8
1491087495048,2,-63,-16,-91,-74,-105,-58,-5,8
1491087495048,2,29,-6,0,11,3,14,-11,10
1491087495050,3,17,-5,-44,0,44,7,-17,11
1491087495050,3,-28,-11,36,19,60,-94,-13,-10
1491087495051,0,15,6,29,12,36,123,-5,12
1491087495051,0,-22,12,-57,-46,-128,-128,-70,-7
1491087495051,1,-10,-22,12,5,-55,-29,-73,-5
1491087495051,1,0,5,-5,-20,3,-14,80,1
1491087495087,2,-1,-4,3,17,98,92,-29,24
1491087495087,2,7,16,-10,-41,-84,-128,-4,38
1491087495088,3,33,-6,-23,8,16,63,42,-41
1491087495088,3,-49,-10,10,-2,44,127,-39,-5
1491087495093,0,12,-2,38,20,9,-52,46,-13
1491087495093,0,11,9,-41,5,43,-2,-55,49
1491087495123,1,-26,-6,2,22,6,7,-19,18
1491087495123,1,-21,26,25,-21,-110,89,39,-16
1491087495126,2,5,11,-67,-33,-61,-123,-84,36
1491087495126,2,4,9,53,53,49,127,107,-71
1491087495126,3,11,16,-11,-22,67,41,-32,39
1491087495126,3,32,13,-9,48,80,72,-11,-30
1491087495127,0,9,18,33,-16,-49,-53,-6,10
1491087495127,0,15,2,-23,-7,-44,-96,-120,71
1491087495161,1,-75,-28,-48,13,23,92,29,-19
1491087495161,1,28,-4,76,17,51,11,78,-60
1491087495162,2,18,-5,-70,-43,-88,-95,-104,5
1491087495162,2,-4,-21,-32,-9,33,86,41,-25
1491087495162,3,19,71,102,4,51,33,60,-36
1491087495162,3,-15,6,-40,55,97,98,-100,60
1491087495198,0,51,-16,2,-37,69,47,53,-37
1491087495198,0,-54,3,28,11,-43,-22,-47,26
1491087495199,1,7,-28,-35,14,10,14,2,-19
1491087495199,1,21,-8,-74,-57,26,-68,19,-27
1491087495200,2,-31,21,99,83,104,123,62,13
1491087495200,2,36,-6,-59,-34,-4,-49,-24,-6
1491087495201,3,43,3,0,-28,-98,43,-22,17
1491087495201,3,-71,-40,-9,-30,-29,35,40,-21
1491087495236,0,-63,-29,17,40,52,124,52,-39
1491087495236,0,10,6,19,12,80,-39,55,-35
1491087495236,1,-87,-22,39,4,52,64,24,-28
1491087495236,1,62,-1,-96,-39,-109,-128,-45,62
1491087495237,2,10,66,28,26,33,-28,-41,59
1491087495237,2,-18,-38,28,-12,-79,127,89,-4
1491087495238,3,41,26,27,33,-5,-128,-105,82
1491087495238,3,-23,-15,14,55,51,44,44,-46
1491087495273,0,-2,-28,-23,-42,19,-27,-48,-7
1491087495273,0,44,4,-6,-36,-96,-32,24,-7
1491087495311,1,14,8,-63,18,16,7,61,66
1491087495311,1,-68,-16,-17,13,97,87,-128,-15
1491087495311,2,29,20,21,24,29,-13,74,-38
1491087495311,2,-8,0,35,-9,-17,-27,4,-48
1491087495312,3,-40,-27,41,47,81,84,124,-21
1491087495312,3,38,-20,-66,-77,-111,-107,-95,-17
1491087495313,0,14,-7,22,45,92,127,18,30
1491087495313,0,32,30,52,-48,-26,-24,-41,-82
1491087495348,1,-43,-29,-102,-103,-128,-78,-61,39
1491087495348,1,-6,13,45,-40,-79,88,84,-29
1491087495349,2,-53,-34,-26,46,-55,-58,-56,11
1491087495349,2,66,41,20,22,63,-69,-82,52
1491087495350,3,-33,-6,37,42,113,72,65,-17
1491087495350,3,41,3,16,-11,-11,28,-86,-18
1491087495351,0,-92,-1,-9,-76,-128,-97,92,-36
1491087495351,0,71,-15,-87,-26,-63,-13,-15,84
1491087495386,1,26,4,-3,-7,0,-121,25,-36
1491087495386,1,-35,-12,-30,33,79,-71,81,62
1491087495387,2,-10,16,57,-36,20,16,-11,-10
1491087495387,2,-53,-23,15,11,-4,127,51,-82
1491087495387,0,43,37,71,103,46,95,65,-17
1491087495387,0,-96,-42,-73,-27,-70,39,77,-66
1491087495388,1,22,-3,-24,-64,-117,-32,-114,66
1491087495388,1,-39,-19,16,14,-5,89,-14,33
1491087495423,2,71,9,-98,-24,17,5,-2,-16
1491087495423,2,5,24,125,45,127,127,60,30
1491087495424,3,6,-10,40,41,124,123,23,-99
1491087495424,3,-12,24,4,49,-54,-128,-87,90
1491087495425,0,33,-28,-41,-110,34,65,-5,-48
1491087495425,0,-29,-26,-38,31,-42,-56,-82,73
1491087495426,1,74,20,73,26,105,33,26,-114
1491087495426,1,-58,4,9,-27,-43,-73,-82,50
1491087495461,2,63,-30,-61,-8,7,30,11,-18
1491087495461,2,-33,24,-13,15,43,17,96,-35
1491087495462,3,-48,-11,12,26,81,27,-43,61
1491087495462,3,62,15,30,-28,-102,-30,84,-2
1491087495463,0,11,-21,-40,-7,-20,-1,12,-25
1491087495463,0,-19,14,-7,21,92,81,-47,13
1491087495463,1,27,27,15,10,-100,-19,-7,-28
1491087495463,1,31,6,50,16,64,59,32,8
1491087495536,2,-39,-7,-9,-41,-70,-37,-60,27
1491087495536,2,-64,-23,2,46,89,40,66,7
1491087495537,3,19,36,35,-12,51,18,52,-42
1491087495537,3,68,19,-17,5,44,-74,-102,47
1491087495537,0,6,-7,-21,-7,-128,35,95,16
1491087495537,0,-81,-38,-21,4,92,-49,-88,84
1491087495538,1,18,0,-19,-24,-4,-80,-43,-30
1491087495538,1,28,15,-36,7,26,114,-10,-24
1491087495573,2,-15,-8,61,-2,-21,-85,44,-64
1491087495573,2,75,61,27,-14,-57,42,-26,-37
1491087495576,3,-78,-54,36,-12,21,52,26,13
1491087495576,3,-67,-35,-81,23,-117,13,-35,3
1491087495576,2,-35,-37,-77,-18,-74,-104,-128,46
1491087495576,2,-63,-20,-28,3,41,-80,-24,64
1491087495577,3,53,18,6,-29,-63,127,92,-61
1491087495577,3,-27,-19,17,15,64,126,73,-128
1491087495611,0,0,-2,-15,24,95,-73,-88,96
1491087495611,0,37,15,-11,-33,-92,18,-28,19
1491087495612,1,-95,-1,60,45,58,105,3,-47
1491087495612,1,-32,-24,-73,-30,-104,-13,53,43
1491087495612,2,-21,4,-28,-50,-103,-73,-24,-26
1491087495612,2,-23,5,45,19,6,127,-11,-84
1491087495613,3,-8,3,-32,35,60,43,-83,118
1491087495613,3,21,-5,48,-26,-60,-100,-65,-20
1491087495648,0,-66,-39,-60,24,-3,8,31,27
1491087495648,0,65,25,53,1,-92,-53,-54,-2
1491087495649,1,-65,-12,-2,-25,7,12,97,-75
1491087495649,1,7,-11,-5,32,127,77,-70,17
1491087495650,2,-27,8,4,-7,-55,-20,65,75
1491087495650,2,-21,1,19,-10,35,-10,99,-38
1491087495651,3,35,1,-34,-34,-22,-33,-90,-11
1491087495651,3,-66,-17,-5,22,-26,63,71,-27
1491087495686,0,-37,12,-48,-66,-60,-2,-83,-34
1491087495686,0,36,-5,38,56,75,127,88,26
1491087495688,1,91,28,6,-10,-128,-28,19,39
1491087495688,1,13,1,-39,-33,-91,-93,5,28
1491087495689,2,-30,-22,41,72,79,59,41,-33
1491087495689,2,22,-1,-35,-55,56,17,42,-21
1491087495690,3,-21,-6,-8,12,10,26,37,15
1491087495690,3,14,20,52,-12,5,-128,-93,19
1491087495723,0,4,-16,-11,-5,39,76,42,-15
1491087495723,0,10,33,-12,5,23,86,31,13
1491087495724,1,35,20,56,28,23,-100,-42,57
1491087495724,1,-57,-71,-128,-38,-76,119,-20,0
1491087495725,2,13,61,93,-4,25,-86,-85,49
1491087495725,2,-49,-20,-22,-14,-71,82,64,-39
1491087495726,3,-34,-31,12,43,80,100,47,-29
1491087495726,3,45,50,53,-5,30,77,65,-21
1491087495761,0,-39,-6,-14,29,-27,-5,-83,60
1491087495761,0,43,-53,-101,-62,-90,-23,-12,-17
1491087495761,1,-96,-3,-31,-40,-26,-47,-50,-13
1491087495761,1,45,39,54,45,127,102,116,-2
1491087495762,2,1,2,43,41,20,45,-35,-36
1491087495762,2,43,9,-26,-6,-87,-96,28,51
1491087495798,3,-14,-26,-29,-54,-78,29,-47,-87
1491087495798,3,-41,-45,-28,37,120,25,56,10
1491087495799,0,51,68,88,-39,-50,-30,127,-43
1491087495799,0,-61,-31,-34,63,37,-28,-128,102
1491087495800,1,13,-48,-74,-21,-73,-80,-78,37
1491087495800,1,48,50,63,26,47,71,59,-60
1491087495801,2,-23,-51,5,-50,-108,86,68,-58
1491087495801,2,-52,-7,-41,14,-71,-111,-83,10
1491087495836,3,-21,6,-18,22,102,40,-24,74
1491087495836,3,-3,-24,-44,-40,-126,-71,-79,9
1491087495837,0,-5,3,32,68,90,127,7,15
1491087495837,0,-25,16,27,-47,118,-36,-17,-100
1491087495837,1,57,24,38,15,-125,-18,112,73
1491087495837,1,-47,-47,-33,-1,-23,3,-128,-5
1491087495838,2,42,7,-3,21,46,-7,20,0
1491087495838,2,-41,-15,25,-15,6,-81,-9,-2
1491087495874,3,27,22,9,4,103,74,39,-64
1491087495874,3,30,-5,-16,-9,-3,-15,-54,69
1491087495875,0,63,8,-26,-27,-83,-12,-1,-55
1491087495875,0,-50,0,29,-7,-68,-14,-116,16
1491087495876,1,83,-11,-72,16,-16,-80,90,50
1491087495876,1,18,22,9,-47,-29,13,48,-34
1491087495877,2,69,25,-17,7,127,75,-23,-24
1491087495877,2,-3,-15,28,44,43,72,-21,41
1491087495911,3,-99,1,73,-5,-22,41,69,-60
1491087495911,3,-11,-5,76,50,37,-3,88,-18
1491087495912,0,5,-38,-93,-47,14,-72,-86,76
1491087495912,0,-12,5,6,-22,-111,127,127,-33
1491087495912,1,-55,-23,-61,-7,1,-3,-109,-41
1491087495912,1,93,55,55,-35,75,-87,30,-27
1491087495913,2,-55,8,36,57,6,89,45,-3
1491087495913,2,-29,36,56,7,71,125,80,-74
1491087495948,3,-51,-25,-2,12,30,-109,-128,44
1491087495948,3,-41,-30,-29,-22,-102,4,6,26
1491087495949,0,-67,-44,-71,-19,-93,-9,-19,-9
1491087495949,0,127,43,79,86,73,52,7,-30
1491087495950,1,53,28,-69,-99,-93,80,-45,13
1491087495950,1,-96,-55,-90,-13,-117,-128,-64,110
1491087495951,2,52,37,88,-22,65,109,127,-90
1491087495951,2,5,-11,-51,50,-108,-33,23,63
1491087495986,3,13,21,115,77,109,-27,-2,-57
1491087495986,3,-35,-29,-73,-52,-102,28,-94,30
1491087495986,0,-39,5,-18,-2,73,9,-43,-67
1491087495986,0,56,13,51,-17,-8,79,14,-77
1491087495987,1,86,15,5,-25,-98,-29,-31,76
1491087495987,1,-127,-14,-20,0,18,76,65,-43
1491087495988,2,-10,-5,27,27,45,114,69,-23
1491087495988,2,-30,-42,-50,-15,127,-59,43,-54
1491087496023,3,10,30,12,36,70,127,17,24
1491087496023,3,-5,1,58,-3,-56,-125,-65,27
1491087496025,0,-9,-25,-85,-8,-116,-19,0,115
1491087496025,0,87,-37,-45,-25,46,89,-85,-56
1491087496025,1,-83,39,34,-17,61,-102,-17,36
1491087496025,1,107,51,100,103,127,96,66,-116
1491087496026,2,-37,-20,5,-45,24,83,17,9
1491087496026,2,0,0,-5,-36,-60,-128,-23,31
1491087496061,3,-84,-35,-21,-3,7,6,43,-8
1491087496061,3,39,17,39,-17,-91,69,119,-51
1491087496062,0,39,-18,-27,4,99,-21,-4,-1
1491087496062,0,-16,24,-10,61,34,95,-128,67
1491087496062,1,-25,-8,9,-34,92,-68,28,6
1491087496062,1,12,-22,-107,-50,-100,-66,-86,86
1491087496063,2,-41,-17,37,42,80,-46,11,-23
1491087496063,2,-14,32,48,4,78,77,8,-4
1491087496098,3,55,31,37,-16,-93,-64,-34,-3
1491087496098,3,-19,-12,55,76,127,119,20,24
1491087496099,0,-40,3,-5,-32,-123,-54,3,-8
1491087496099,0,4,1,-41,-53,-31,5,127,-25
1491087496100,1,40,-30,-30,-12,43,127,127,-96
1491087496100,1,-13,20,14,64,45,94,6,40
1491087496136,2,45,33,79,-65,-107,-86,-70,47
1491087496136,2,-89,-37,-63,0,-94,-128,-54,63
1491087496137,3,-5,-19,-17,-32,51,62,32,-38
1491087496137,3,-14,-32,-71,0,78,81,-93,56
1491087496138,0,18,37,97,75,81,-51,60,-20
1491087496138,0,28,26,11,-29,-98,-13,5,-5
1491087496139,1,-59,-67,-62,-42,-128,101,2,-53
1491087496139,1,51,61,60,-8,-53,-128,-113,9
1491087496173,2,-27,-13,-46,-9,-120,111,63,52
1491087496173,2,30,-6,-9,-15,-7,-128,-75,24
1491087496174,3,-37,-3,67,32,-90,110,87,-20
1491087496174,3,85,-43,-111,-79,-128,-93,-45,59
1491087496175,0,-68,14,54,26,127,104,76,-2
1491087496175,0,35,13,49,4,42,117,92,-9
1491087496176,1,75,21,20,29,93,11,-38,-6
1491087496176,1,-34,8,64,-3,61,3,-17,-58
1491087496211,2,18,-22,-63,6,8,-12,-82,14
1491087496211,2,-44,-22,29,20,94,-31,-16,-54
1491087496212,3,7,36,-6,-8,-108,-128,-120,75
1491087496212,3,-35,-22,-81,-46,21,-11,127,-51
1491087496213,0,4,-3,-12,15,89,68,-66,-34
1491087496213,0,21,26,84,-6,1,-15,99,-54
1491087496213,1,-41,-36,-71,22,14,44,-45,13
1491087496213,1,18,10,-2,1,-37,-128,-41,69
1491087496248,2,-6,1,3,-16,-34,49,-63,-66
1491087496248,2,-15,-43,-118,-62,-62,126,12,18
1491087496249,3,-18,-12,-46,-29,-117,-123,-56,21
1491087496249,3,6,35,101,45,76,127,102,-59
1491087496250,0,31,6,-13,23,-93,75,39,-7
1491087496250,0,-9,-11,40,-4,-12,-72,-85,10
1491087496286,1,9,-5,-18,54,99,76,109,-9
1491087496286,1,5,9,2,-31,-40,-38,32,19
1491087496287,2,26,-9,-9,-17,-42,-128,-71,-6
1491087496287,2,-23,-5,-4,-9,47,24,-2,5
1491087496288,3,6,-7,-52,-10,12,12,-22,24
1491087496288,3,11,24,115,22,89,109,54,-83
1491087496289,0,-28,-30,-102,-24,-25,-83,-14,113
1491087496289,0,7,5,-1,8,-65,76,-36,5
1491087496323,1,70,26,53,-3,127,116,88,-83
1491087496323,1,-65,-38,-57,-62,-119,-65,-73,-23
1491087496324,2,45,23,32,67,122,65,-86,-13
1491087496324,2,7,-12,-31,-9,-13,-43,97,37
1491087496325,3,13,25,90,56,127,71,103,-5
1491087496325,3,40,23,41,-41,-80,71,86,-84
1491087496326,0,-55,-58,-90,-9,-109,-90,-55,80
1491087496326,0,7,-10,-27,-20,4,-3,52,8
1491087496361,1,18,31,51,22,36,36,27,29
1491087496361,1,-53,-12,51,-8,51,-7,-43,-59
1491087496362,2,-24,-1,-38,-35,-48,27,-7,5
1491087496362,2,66,26,-13,-44,-59,28,15,-17
1491087496363,3,-62,-21,-47,26,15,42,-25,-17
1491087496363,3,67,15,48,53,-93,-44,-61,73
1491087496364,0,-58,-10,-47,-79,-46,5,37,20
1491087496364,0,-34,26,44,24,94,106,-28,-66
1491087496398,1,-7,0,-21,-5,-128,-41,-38,-25
1491087496398,1,-41,-15,-5,41,54,82,8,-5
1491087496399,2,39,23,58,21,81,-30,9,1
1491087496399,2,5,-15,-38,-2,27,-92,-44,16
1491087496400,3,-29,-5,66,58,104,46,71,-34
1491087496400,3,14,-11,-68,-51,96,-94,15,-9
1491087496436,0,7,-9,-5,-63,-116,61,31,-35
1491087496436,0,-23,-6,-11,25,-25,-81,-97,71
1491087496437,1,-8,-21,-4,-52,-19,-1,-95,-26
1491087496437,1,-17,-20,-4,37,98,54,11,4
1491087496438,2,47,55,120,80,127,127,44,-22
1491087496438,2,-26,-18,-11,1,25,-68,23,-30
1491087496439,3,20,2,-78,-43,-44,-102,65,107
1491087496439,3,-47,-7,-45,-21,-36,55,56,-76
1491087496473,0,30,18,42,44,60,13,59,-35
1491087496473,0,10,13,54,18,56,98,-60,-76
1491087496474,1,9,-10,47,10,11,-49,-15,56
1491087496474,1,-2,5,-79,-6,-86,-82,-84,58
1491087496475,2,-7,7,68,-8,-31,8,36,-49
1491087496475,2,23,1,-77,-27,-82,47,101,31
1491087496476,3,-10,-2,26,39,4,46,41,-22
1491087496476,3,-1,-12,-20,-23,10,1,-70,-9
1491087496511,0,-31,-35,-79,-60,-128,-79,-92,52
1491087496511,0,1,1,73,27,-16,124,91,-31
1491087496513,1,13,2,26,-10,75,54,11,-7
1491087496513,1,17,21,72,58,89,127,80,3
1491087496513,2,0,22,108,116,127,-29,11,17
1491087496513,2,-32,-54,-114,-105,-91,-102,-122,28
1491087496514,3,-4,15,67,-35,-90,43,30,-97
1491087496514,3,1,-16,-8,17,14,28,36,0
1491087496548,0,-12,-10,-43,7,8,21,-74,-7
1491087496548,0,10,8,27,-22,59,26,123,-15
1491087496549,1,25,-7,-76,-42,-76,-22,-69,20
1491087496549,1,-2,4,-2,39,15,-9,-35,63
1491087496550,2,13,-14,-23,5,9,-51,-7,-18
1491087496550,2,1,-2,1,37,-32,58,31,41
1491087496586,3,-6,-1,33,3,62,33,22,-19
1491087496586,3,-26,-19,-79,-76,-104,-82,3,0
1491087496587,0,26,1,40,-14,-4,102,56,-77
1491087496587,0,17,6,-76,-52,-108,-121,-128,93
1491087496587,1,-6,-6,-3,1,32,112,14,6
1491087496587,1,27,15,23,51,62,96,1,36
1491087496588,2,-12,18,83,-9,36,-3,107,-8
1491087496588,2,-17,-16,-44,7,1,-36,-41,-9
1491087496623,3,-8,-8,-41,-24,-30,17,-112,15
1491087496623,3,1,3,7,-3,-11,11,25,-51
1491087496624,0,-10,-3,3,7,20,34,60,-76
1491087496624,0,12,37,34,8,125,40,40,26
1491087496625,1,-38,-20,-72,-16,-125,-61,-31,39
1491087496625,1,5,5,51,-5,19,82,19,-62
1491087496626,2,-4,1,-33,-20,-66,-101,-65,54
1491087496626,2,7,-23,0,40,20,67,25,-6
1491087496661,3,-20,-28,6,-8,41,-21,17,-10
1491087496661,3,-3,-38,-4,1,5,-36,-37,46
1491087496663,0,26,-21,-6,-15,38,30,47,-25
1491087496663,0,-64,-21,-22,-7,-54,84,-40,-3
1491087496663,1,17,41,31,-23,16,-58,-3,-43
1491087496663,1,18,42,25,-11,-35,26,86,-3
1491087496664,2,-18,6,-52,-17,-18,-14,-22,0
1491087496664,2,6,-1,71,33,27,16,16,-47
1491087496698,3,-4,-21,-23,-16,16,59,-4,45
1491087496698,3,-11,30,-4,-7,-30,-43,-52,17
1491087496699,0,30,40,83,25,69,-41,38,6
1491087496699,0,-15,5,-49,-20,-50,-87,41,-51
1491087496700,1,13,33,58,13,49,33,-2,-18
1491087496700,1,19,-25,-104,-41,-20,-53,-23,35
1491087496773,2,-21,-2,9,-42,-83,43,-36,-16
1491087496773,2,42,47,32,31,36,-26,-85,87
1491087496774,3,-8,-8,33,11,-49,-58,110,-49
1491087496774,3,17,-9,22,35,45,71,5,2
1491087496775,0,-17,-44,-57,-49,48,27,5,8
1491087496775,0,-25,-83,-21,4,-4,33,18,-5
1491087496776,1,-14,-57,-76,-35,-54,-47,-82,-11
1491087496776,1,-25,-28,33,10,-22,-74,-5,0
1491087496811,2,-13,-19,-8,4,-5,11,14,-30
1491087496811,2,32,56,46,39,103,1,-11,9
1491087496811,3,-6,33,-60,-39,-91,-40,-53,49
1491087496811,3,-1,9,-29,-17,-17,15,-33,-17
1491087496812,0,26,31,30,16,33,12,31,3
1491087496812,0,-45,-3,22,6,-35,67,-7,-49
1491087496813,2,-29,13,-25,23,-5,-5,-80,38
1491087496813,2,-9,-8,-75,-50,-55,2,55,-66
1491087496848,3,-61,11,-34,-20,-49,-26,14,0
1491087496848,3,-2,27,37,4,-10,-2,-46,22
1491087496849,0,1,11,19,29,42,20,67,-10
1491087496849,0,14,24,28,-4,12,16,-4,1
1491087496850,1,-16,-3,10,13,16,-14,-42,-27
1491087496850,1,-9,-7,-25,-18,3,43,15,-11
1491087496851,2,-13,-9,-43,0,-20,6,-10,16
1491087496851,2,18,32,64,17,-2,-19,29,-12
1491087496886,3,1,25,11,18,-20,-60,0,6
1491087496886,3,-27,-4,-23,-4,-70,14,7,-38
1491087496886,0,26,36,-40,-4,-20,2,-64,40
1491087496886,0,-45,-25,29,-24,-28,5,48,-18
1491087496887,1,1,-5,19,22,1,45,-13,-9
1491087496887,1,-11,30,6,9,39,-84,-62,-3
1491087496888,2,-20,-8,-22,-16,-18,-9,22,-9
1491087496888,2,22,-4,16,32,-17,0,-12,6
1491087496924,3,-11,-6,12,1,19,3,2,7
1491087496924,3,-10,-36,-24,-17,-31,43,-32,18
1491087496925,0,15,-12,1,15,26,20,49,-10
1491087496925,0,-10,-19,15,5,3,1,-16,2
1491087496926,1,17,19,40,3,18,24,6,4
1491087496926,1,-9,-16,0,0,107,109,38,-22
1491087496927,2,-1,18,3,-2,-127,-67,-67,-18
1491087496927,2,-3,4,14,-2,48,12,-14,-10
1491087496961,3,-17,-47,-72,-28,-79,-10,4,4
1491087496961,3,59,-26,6,-1,7,62,-37,25
1491087496962,0,-38,-42,7,22,80,1,-19,11
1491087496962,0,50,-29,2,-4,-15,11,-20,15
1491087496962,1,1,-52,-25,15,22,30,-15,52
1491087496962,1,11,-37,1,-4,19,5,52,-15
1491087496963,2,-5,-46,-10,-7,34,-33,-21,-36
1491087496963,2,-6,-11,-46,9,-86,10,-25,4
1491087496998,3,0,-16,47,15,73,99,10,-6
1491087496998,3,4,-16,-25,-6,-46,-98,7,25
1491087496999,0,-10,-10,34,2,-6,35,-48,0
1491087496999,0,-21,-31,-30,-8,68,53,74,-40
1491087497000,1,31,25,59,13,55,-55,7,-7
1491087497000,1,-25,-15,43,44,36,62,100,-22
1491087497001,2,19,37,-1,-30,-123,-30,-71,32
1491087497001,2,-2,-8,-55,-22,63,-67,-67,10
1491087497036,3,-33,-7,-8,-4,17,47,49,-17
1491087497036,3,17,-8,-51,-22,-39,-128,-46,-16
1491087497037,0,16,-21,53,31,48,106,33,4
1491087497037,0,-20,-9,37,1,29,45,14,-29
1491087497037,1,19,-4,-39,-12,-55,-23,-103,29
1491087497037,1,-37,-13,-4,6,26,20,-1,-2
1491087497038,2,25,5,0,-6,-29,0,0,-2
1491087497038,2,-2,5,33,9,99,40,38,-30
1491087497073,3,19,-1,-1,8,5,-74,-12,33
1491087497073,3,6,35,1,-17,35,-34,-34,20
1491087497074,0,-52,-26,-18,6,-87,94,23,-12
1491087497074,0,66,13,-4,-24,-48,-5,17,13
1491087497075,1,-19,3,-30,16,3,1,-67,-10
1491087497075,1,-27,1,-32,-10,6,28,-26,-5
1491087497076,2,64,50,53,-2,82,-44,45,-11
1491087497076,2,-84,-17,-44,18,11,-53,-3,9
1491087497111,3,67,-11,-9,-25,-61,51,68,-31
1491087497111,3,-25,8,-38,7,-39,107,-54,-14
1491087497112,0,7,20,45,0,29,-97,-12,25
1491087497112,0,-5,-4,27,12,0,-4,61,19
1491087497113,1,3,7,-11,1,27,64,21,-26
1491087497113,1,-33,-5,-15,-31,-92,-63,-6,13
1491087497113,2,16,23,-76,-41,-65,-55,36,2
1491087497113,2,-1,27,-17,19,-28,101,-38,69
1491087497148,3,27,35,23,3,6,-73,-10,-41
1491087497148,3,45,5,20,5,54,19,99,-2
1491087497186,0,-55,-25,-68,-17,-32,-17,-60,-30
1491087497186,0,7,18,45,-10,-10,-24,-10,34
1491087497187,1,-33,-13,-70,-15,1,33,19,18
1491087497187,1,29,26,72,31,66,1,43,6
1491087497187,2,-5,-31,-77,-70,-87,113,102,-41
1491087497187,2,-30,8,8,42,5,-105,-127,-19
1491087497188,3,-8,0,20,-36,106,101,36,-21
1491087497188,3,13,-13,-41,-6,-107,-103,-12,94
1491087497223,0,-18,5,55,47,114,-24,16,-14
1491087497223,0,20,0,19,-22,-10,107,73,-24
1491087497225,1,2,-11,-26,-3,-92,82,50,-60
1491087497225,1,-3,8,59,-8,51,-78,-3,-60
1491087497226,2,-32,-32,-83,-3,-79,-71,-115,64
1491087497226,2,27,5,9,16,76,47,-12,50
1491087497227,3,-25,-4,56,27,97,49,6,-57
1491087497227,3,-6,-9,-23,10,26,7,-25,30
1491087497261,0,10,16,127,45,76,127,82,-45
1491087497261,0,-39,-32,-118,-70,-117,-128,-120,30
1491087497262,1,41,2,22,17,1,-21,32,-29
1491087497262,1,80,32,42,24,81,127,101,-27
1491087497262,3,-49,-11,26,-52,24,39,28,-70
1491087497262,3,-74,-17,-45,22,-124,-59,0,79
1491087497263,0,-11,-18,-36,-3,79,33,82,-21
1491087497263,0,46,-6,48,65,87,127,103,-7
1491087497298,1,-73,-1,36,-25,-31,-106,-76,-6
1491087497298,1,-9,8,-28,-72,-76,69,-19,-57
1491087497300,2,-79,-37,-92,-12,29,-37,-109,60
1491087497300,2,5,-7,47,28,62,-80,-92,-6
1491087497300,3,-5,0,22,-13,-75,46,48,-37
1491087497300,3,15,14,-5,-7,88,78,26,-10
1491087497301,0,64,43,40,30,-42,-83,25,7
1491087497301,0,-26,-16,-46,-12,-44,53,6,7
1491087497336,1,33,29,-12,21,-92,-41,-56,94
1491087497336,1,-19,4,60,21,93,75,22,-49
1491087497336,2,14,2,-49,-22,-73,74,51,-43
1491087497336,2,-22,13,-11,-12,-37,-73,-57,19
1491087497337,3,-18,-19,-10,0,-17,64,79,-40
1491087497337,3,-100,-17,41,26,5,37,-101,-31
1491087497338,0,100,9,21,24,42,-24,17,24
1491087497338,0,-30,16,16,-8,4,-9,43,-36
1491087497373,1,-15,-36,-16,34,-98,-128,-37,102
1491087497373,1,-14,11,-33,-56,13,-9,-128,-12
1491087497374,2,-2,1,-13,-7,-12,39,-3,-30
1491087497374,2,-3,0,34,-8,-5,75,-11,-60
1491087497375,3,9,-1,-39,-12,-80,-121,27,108
1491087497375,3,112,31,51,28,91,74,96,-78
1491087497376,0,-69,2,94,-8,31,76,3,-62
1491087497376,0,-38,-31,-106,-23,-84,-119,-34,102
1491087497411,1,34,-7,-18,-1,44,127,71,-92
1491087497411,1,61,25,25,28,27,-20,4,8
1491087497412,2,4,-15,-40,-53,-81,46,18,26
1491087497412,2,85,27,50,-2,101,109,81,-86
1491087497412,3,-59,-26,-3,-13,67,87,-59,71
1491087497412,3,-49,-32,-56,-14,-111,-27,-29,-44
1491087497413,0,-7,-8,12,50,127,-90,-14,15
1491087497413,0,9,30,28,-17,-13,114,93,25
1491087497448,1,101,26,2,-14,-87,-39,-103,-36
1491087497448,1,-84,-57,-106,-18,12,-88,0,80
1491087497449,2,43,19,88,10,26,78,15,34
1491087497449,2,-37,1,37,77,102,72,-2,-28
1491087497449,3,-18,-28,-86,-71,-18,-71,-71,17
1491087497449,3,59,95,116,47,48,72,11,-49
1491087497451,0,15,-14,-43,-10,65,21,64,21
1491087497451,0,-66,-31,-15,-38,-101,-65,26,13
1491087497486,1,26,37,24,10,-42,127,84,-90
1491087497486,1,-90,-106,-128,23,-12,-21,-120,61
1491087497487,2,-1,40,30,-30,-35,-128,-99,34
1491087497487,2,-24,-23,28,36,52,78,2,-48
1491087497487,3,19,7,48,54,127,88,30,50
1491087497487,3,34,-10,5,-63,-21,23,112,-33
1491087497488,0,-36,-24,-42,26,-62,49,-49,-39
1491087497488,0,-2,-23,-15,-8,35,66,-17,24
1491087497523,1,-66,-7,-35,-55,-110,-128,-90,20
1491087497523,1,-40,-32,39,86,50,127,24,13
1491087497524,2,72,70,37,-48,53,-93,-30,20
1491087497524,2,43,-19,-57,-37,35,16,26,33
1491087497525,3,-66,-25,-49,-11,-27,-42,-98,-15
1491087497525,3,-68,14,37,-21,-33,72,81,-6
1491087497526,0,20,-28,-37,24,35,25,43,-68
1491087497526,0,-19,24,57,-16,-43,-118,-49,21
1491087497561,1,71,18,22,17,42,20,41,-8
1491087497561,1,-12,12,-15,-15,-15,-78,-54,80
1491087497562,2,-43,-39,15,3,-22,40,31,-78
1491087497562,2,-18,-8,-27,-7,11,-15,9,-17
1491087497562,3,4,13,75,58,68,110,-7,-37
1491087497562,3,-67,-53,-79,-89,-128,-128,-56,62
1491087497598,0,111,4,-82,-17,63,32,15,23
1491087497598,0,-73,1,14,-17,-128,1,-10,21
1491087497599,1,17,37,2,21,85,75,-38,-73
1491087497599,1,47,15,52,-6,52,-26,-44,-87
1491087497600,2,-34,-27,-6,-1,-38,120,102,-5
1491087497600,2,42,15,-41,-12,18,-13,80,-56
1491087497601,3,-19,-29,2,41,17,80,45,48
1491087497601,3,19,16,59,15,26,-8,-9,30
1491087497636,0,-10,14,27,-4,-80,-78,-63,22
1491087497636,0,-11,-11,-21,-7,26,73,-64,-20
1491087497637,1,-112,-16,36,31,66,-42,48,11
1491087497637,1,126,40,-66,-68,-128,-81,-78,13
1491087497637,2,-128,-39,-19,0,5,-26,-40,68
1491087497637,2,13,3,2,-18,8,29,33,-43
1491087497638,3,-13,16,19,12,77,26,83,-50
1491087497638,3,-44,-32,0,56,127,101,71,0
1491087497673,0,-26,10,-9,5,20,44,-116,38
1491087497673,0,-46,12,13,-15,-31,-57,-45,-8
1491087497674,1,-98,2,32,-44,-66,-101,66,-41
1491087497674,1,55,12,-12,35,6,38,-12,16
1491087497675,2,-7,-6,-13,-44,-51,-10,-10,-20
1491087497675,2,98,-10,-22,22,-42,38,40,-5
1491087497711,3,-35,16,5,-19,-115,80,-86,34
1491087497711,3,68,-2,-32,15,88,-35,12,2
1491087497712,0,-52,-8,13,12,17,-34,-15,39
1491087497712,0,-26,3,7,-16,46,-4,8,-57
1491087497714,1,110,-11,-27,35,18,35,5,71
1491087497714,1,35,24,32,-11,24,9,13,-58
1491087497715,2,5,5,27,11,-22,45,-1,-30
1491087497715,2,-40,-10,8,42,-69,-89,-121,93
1491087497748,3,17,-28,-61,-91,-75,49,125,-116
1491087497748,3,-9,16,41,26,-57,105,73,4
1491087497750,0,81,14,14,-13,100,53,29,-19
1491087497750,0,-7,-6,-6,4,99,56,-63,27
1491087497750,1,42,-4,-14,15,-77,-128,-128,107
1491087497750,1,-120,28,15,38,79,8,-55,19
1491087497751,2,89,15,4,-21,-81,29,-8,-21
1491087497751,2,-79,-10,11,-21,-69,-43,127,-29
1491087497786,3,63,23,-17,-19,58,50,-3,-19
1491087497786,3,-66,-19,-3,-14,-12,-71,-30,-11
1491087497786,0,59,27,18,-8,31,16,103,28
1491087497786,0,8,-5,10,18,-24,-23,-2,-19
1491087497787,1,-37,-20,-28,-2,1,44,0,86
1491087497787,1,114,35,41,-1,-23,-61,-51,-57
1491087497788,2,-81,-29,-32,-18,-88,68,-16,-53
1491087497788,2,26,-3,27,-26,83,83,95,-39
1491087497823,3,-50,-24,-53,30,-53,-24,18,4
1491087497823,3,-80,-35,-64,-30,-84,94,-98,98
1491087497824,0,-3,4,1,25,64,64,59,-48
1491087497824,0,-75,21,23,3,7,66,36,-26
1491087497825,1,1,-8,80,68,98,7,-76,3
1491087497825,1,-9,-4,-19,-51,-81,23,47,11
1491087497861,2,-107,-35,-43,18,44,-5,-90,2
1491087497861,2,30,4,6,11,1,-3,48,-21
1491087497862,3,19,20,66,-26,76,-117,-92,56
1491087497862,3,16,7,-73,-16,-125,2,108,5
1491087497862,0,-13,-2,28,0,56,34,-58,-30
1491087497862,0,95,45,8,27,96,89,10,21
1491087497863,1,-76,-30,-55,-29,-66,-58,-59,9
1491087497863,1,44,0,63,-11,102,25,106,-120
1491087497898,2,-22,-4,-55,15,-60,-29,-62,14
1491087497898,2,-18,-9,46,36,-62,78,65,68
1491087497899,3,-72,21,71,-10,82,-128,-72,-17
1491087497899,3,109,32,-45,-39,-63,69,73,-34
1491087497900,0,-95,-82,-89,-16,-102,97,65,-1
1491087497900,0,-51,-3,25,1,76,-128,-42,101
1491087497901,1,47,20,-7,10,2,127,-26,-71
1491087497901,1,-80,-24,35,8,-25,32,71,-60
1491087497936,2,71,20,-10,9,99,28,67,-34
1491087497936,2,-40,-3,-101,-12,-128,98,-128,57
1491087497936,3,9,9,-51,-96,-58,-16,50,76
1491087497936,3,7,49,41,42,121,81,13,-67
1491087497937,0,-41,3,89,38,59,64,17,29
1491087497937,0,-82,-21,30,72,106,93,-88,-12
1491087497938,1,19,2,38,-44,-49,19,119,-100
1491087497938,1,-30,-77,-114,-45,-90,-84,-118,52
1491087497973,2,3,46,46,22,-38,-10,19,8
1491087497973,2,-16,-57,-40,-37,-22,67,-20,-88
1491087497974,3,-8,-18,-12,8,-56,-56,-83,120
1491087497974,3,88,49,-23,-10,14,-86,-8,-51
1491087497975,0,-16,17,42,-16,68,90,0,-48
1491087497975,0,-67,-29,-6,60,32,-128,9,73
1491087498011,1,110,42,-25,-54,-25,61,-51,-43
1491087498011,1,12,-38,6,-37,-71,93,76,-40
1491087498011,2,-14,9,-2,1,-5,-5,16,-14
1491087498011,2,-7,22,-25,22,-128,-72,-73,24
1491087498048,3,47,-21,16,85,127,127,127,-2
1491087498048,3,-95,-19,49,16,79,19,-26,10
1491087498049,0,29,-14,24,-19,7,-13,19,-25
1491087498049,0,55,63,-34,-81,-22,-36,3,-10
1491087498051,1,-44,84,44,90,-20,76,38,25
1491087498051,1,-91,-19,-66,-40,-118,-91,-61,40
1491087498051,2,-48,-10,-69,-19,-44,-17,-51,53
1491087498051,2,101,10,51,-13,2,5,-31,-6
1491087498086,3,-24,-34,7,36,120,84,-12,-32
1491087498086,3,28,30,119,66,-24,127,104,-39
1491087498086,0,-68,-79,-104,-47,-128,-128,-109,76
1491087498086,0,127,19,-72,-34,0,-66,-26,71
1491087498093,1,-34,-36,-40,-7,84,86,96,-112
1491087498093,1,-24,-5,122,75,112,-71,-9,-34
1491087498094,2,55,2,-58,-72,-60,38,35,-14
1491087498094,2,-84,15,51,-16,3,120,-66,-35
1491087498123,3,-43,-23,17,-1,61,71,-46,30
1491087498123,3,-5,-3,-33,26,-54,-7,30,59
1491087498124,0,24,22,76,20,58,-82,37,-22
1491087498124,0,8,-23,-34,9,12,48,-9,-32
1491087498125,1,-7,-12,-9,27,19,64,-16,-17
1491087498125,1,-31,6,22,-46,-45,-112,-64,33
1491087498126,2,8,10,-17,-29,-104,91,60,-9
1491087498126,2,-40,-27,-35,-40,23,127,49,-84
1491087498161,3,50,-5,-28,21,36,-128,-108,72
1491087498161,3,-64,8,11,0,100,-62,57,67
1491087498164,0,44,17,48,42,35,71,73,-80
1491087498164,0,-68,-33,75,71,45,117,97,-86
1491087498167,1,8,-19,-60,-103,-126,-102,-67,60
1491087498167,1,36,-12,-65,-40,-70,127,36,-78
1491087498168,2,14,43,58,45,127,80,-27,20
1491087498168,2,53,-2,18,-21,-122,28,82,-80
1491087498236,3,-76,-17,0,39,-42,-111,-61,103
1491087498236,3,0,7,12,-79,-86,58,7,-22
1491087498236,0,-30,-26,-69,81,65,-103,-128,85
1491087498236,0,-4,10,69,-30,-12,5,11,12
1491087498237,1,33,20,-82,-26,-88,-31,103,-23
1491087498237,1,50,-6,23,-6,23,-53,-128,7
1491087498238,2,-43,8,74,38,57,119,127,-73
1491087498238,2,1,11,-24,11,-5,-128,-91,74
1491087498273,3,-55,-32,-35,-10,-72,-71,-9,25
1491087498273,3,6,1,52,39,95,127,95,-83
1491087498274,0,89,62,-38,-34,32,-128,-128,69
1491087498274,0,10,-42,-90,-36,-27,-68,-81,38
1491087498274,0,-16,-46,-98,0,-67,-49,-83,114
1491087498274,0,-50,-12,14,-44,95,105,25,-57
1491087498276,1,29,11,62,9,-88,-3,-7,-17
1491087498276,1,-51,-34,-31,-19,-10,67,83,-2
1491087498311,2,-8,7,18,19,90,82,-110,-40
1491087498311,2,32,14,80,33,110,-75,-8,-71
1491087498312,3,28,-1,-32,14,-42,-40,27,29
1491087498312,3,18,8,-56,2,65,23,-61,68
1491087498313,0,-9,-14,19,0,-126,-28,91,-3
1491087498313,0,-9,-12,-12,-4,-6,83,-107,80
1491087498314,1,-31,10,25,-10,39,-28,54,-68
1491087498314,1,-41,-35,-84,14,-11,-41,-92,15
1491087498348,2,3,3,-10,-42,-30,61,31,-15
1491087498348,2,24,28,75,35,-4,-45,-19,-50
1491087498349,3,-29,-24,-23,-18,-74,127,111,-24
1491087498349,3,38,8,-33,-3,95,-128,25,83
1491087498350,0,-12,11,40,12,-6,-3,-21,-51
1491087498350,0,-4,3,33,-33,-49,-26,-26,32
1491087498351,1,-26,-17,-41,-15,50,100,86,-97
1491087498351,1,13,7,47,68,9,-19,7,3
1491087498386,2,-1,-10,-67,-37,-36,-12,11,45
1491087498386,2,-4,-9,-12,-38,-36,-18,1,-17
1491087498387,3,27,13,-64,-3,-65,-21,-96,64
1491087498387,3,-7,19,98,-65,-100,-22,82,-115
1491087498387,0,-23,-31,-81,-26,-97,-107,-80,26
1491087498387,0,14,12,-40,31,34,7,-29,40
1491087498388,1,-24,5,42,14,38,95,24,-24
1491087498388,1,-4,0,23,-10,-10,-71,-75,4
1491087498423,2,19,12,45,29,15,-22,14,40
1491087498423,2,-5,1,-16,16,18,66,127,-29
1491087498425,3,-15,7,66,25,127,122,-15,-97
1491087498425,3,19,-4,-98,-44,-121,-66,-128,120
1491087498426,0,-21,-3,37,32,127,74,-65,-5
1491087498426,0,20,-7,-38,9,-31,109,127,9
1491087498427,1,-3,-21,-3,10,-36,-66,-120,50
1491087498427,1,-24,11,55,35,82,-15,90,-41
1491087498461,2,31,-16,-43,-8,-86,-5,-66,56
1491087498461,2,-1,-11,-12,-28,26,83,97,-99
1491087498463,3,15,5,61,10,-35,-32,-4,65
1491087498463,3,4,-8,-4,62,127,111,-17,8
1491087498464,0,-6,7,26,7,2,-17,18,-16
1491087498464,0,-21,-16,-41,-76,-55,-76,-20,-26
1491087498465,1,-4,19,-48,-30,-110,-128,-62,54
1491087498465,1,-7,-17,-32,-32,31,115,-31,-50
1491087498498,2,11,24,85,66,127,-41,70,51
1491087498498,2,19,0,-24,3,-21,-10,6,-13
1491087498499,3,-15,-11,98,54,87,96,-30,-48
1491087498499,3,-12,-5,-43,-11,-62,-107,-36,98
1491087498500,0,8,-33,-15,15,29,127,49,-42
1491087498500,0,-52,-6,19,-31,-53,-128,16,-3
1491087498501,1,20,-19,-19,35,65,39,-2,-7
1491087498501,1,53,7,-1,-51,-51,74,46,-49
1491087498536,2,-61,-10,-12,0,-3,31,55,-43
1491087498536,2,-16,14,-23,-10,-21,-44,-71,51
1491087498537,3,35,36,88,32,72,41,18,26
1491087498537,3,-4,-11,17,-43,-94,-10,52,-77
1491087498537,0,-45,-37,-52,-85,-116,-109,-109,91
1491087498537,0,12,21,38,37,108,121,-31,80
1491087498538,1,-20,19,-14,-23,19,-128,-45,7
1491087498538,1,27,33,82,43,127,127,102,-40
1491087498573,2,-7,1,-4,6,60,118,-5,-86
1491087498573,2,44,32,60,51,0,-77,-42,71
1491087498575,3,43,14,-84,-44,2,106,127,-96
1491087498575,3,-48,-26,36,-21,-118,-42,-17,22
1491087498576,0,-12,-46,-91,-52,-125,-105,-84,45
1491087498576,0,8,44,88,16,104,127,126,-52
1491087498611,1,-12,-7,-5,50,106,-40,-43,52
1491087498611,1,-32,-17,-43,-12,-2,-46,29,-1
1491087498612,2,53,14,88,39,50,105,127,-126
1491087498612,2,-38,-3,-91,-53,-128,-118,-128,102
1491087498613,3,-31,-26,29,-3,52,112,20,-42
1491087498613,3,-26,-22,-88,-1,76,50,-31,-4
1491087498613,0,59,59,127,59,111,44,8,46
1491087498613,0,19,-34,14,-6,68,37,127,-106
1491087498648,1,3,-12,-92,-23,-127,1,-93,40
1491087498648,1,-6,-25,15,21,22,-21,-128,27
1491087498649,2,-23,-16,8,-2,76,-66,97,-36
1491087498649,2,29,-22,-43,-22,-89,23,-50,16
1491087498650,3,-27,-22,-27,-48,-128,-128,-66,26
1491087498650,3,-13,-26,5,27,38,36,-6,9
1491087498651,0,-8,-33,2,-20,57,-29,22,-85
1491087498651,0,-38,-46,-23,-9,-89,-28,9,-45
1491087498686,1,-5,-5,46,3,94,79,109,-6
1491087498686,1,28,-11,-10,6,6,-36,-33,55
1491087498723,2,-33,-6,-55,-41,-68,-37,-61,0
1491087498723,2,27,-1,103,56,127,52,14,58
1491087498761,3,-5,-20,-44,-27,-128,-60,-36,-18
1491087498761,3,-43,-25,6,7,-44,24,24,-72
1491087498762,0,32,58,-16,3,-1,5,6,49
1491087498762,0,23,62,-27,4,-31,-6,-44,4
1491087498763,1,-22,74,71,15,120,-30,59,-31
1491087498763,1,21,59,-82,-43,-112,58,-68,36
1491087498764,2,-15,46,-8,11,-75,3,-62,19
1491087498764,2,0,37,-2,7,-8,-64,-14,-16
1491087498798,3,-1,63,16,4,50,55,-33,39
1491087498798,3,-18,26,56,7,8,23,80,-31
1491087498799,0,-18,-10,-44,-12,-31,-15,-4,10
1491087498799,0,-4,-4,14,25,4,19,-12,-16
1491087498800,0,6,-9,-10,-15,6,0,1,-12
1491087498800,0,26,-30,-56,2,7,-11,14,-26
1491087498801,1,-11,-20,23,-10,-15,-27,25,4
1491087498801,1,-1,26,36,28,110,60,2,-8
1491087498836,2,6,15,10,7,55,-7,-21,14
1491087498836,2,-19,-24,-49,-17,-63,101,29,-1
1491087498837,3,-28,-21,-58,-20,-124,-86,-6,-18
1491087498837,3,-14,-7,23,-1,82,10,12,-27
1491087498838,0,-7,11,22,14,63,127,15,3
1491087498838,0,33,24,-12,-32,-56,-76,-61,-46
1491087498839,1,-15,-3,24,22,65,102,45,-11
1491087498839,1,-35,-6,-28,-13,2,46,4,-1
1491087498873,2,15,17,-35,-24,-40,49,11,16
1491087498873,2,38,34,-11,-6,-20,2,-25,-3
1491087498875,3,-20,10,3,-10,-19,-3,20,9
1491087498875,3,-4,15,32,27,31,-67,-33,-8
1491087498875,0,-17,21,-20,-12,-15,-55,-46,-2
1491087498875,0,-12,3,11,-6,-67,-61,-13,10
1491087498876,1,38,17,-35,-1,3,23,-5,19
1491087498876,1,-1,-11,7,11,0,55,20,1
1491087498911,2,6,-19,25,-1,32,-66,32,-16
1491087498911,2,17,-34,0,-2,-25,27,6,18
